200.423	0.023221
202.238	0.0303135
204.052	0.0384417
205.868	0.0960073
207.682	0.445548
209.495	0.454286
211.308	0.146523
213.12	0.15376
214.935	0.59684
216.746	-0.00332451
218.558	0.43893
220.369	0.445445
222.18	0.186658
223.992	-0.55463
225.802	0.0102234
227.612	-0.488161
229.421	0.0761232
231.23	0.156857
233.039	0.309714
234.849	0.848577
236.657	-0.082324
238.465	0.507214
240.272	-0.0341539
242.079	0.390495
243.885	-0.244816
245.691	0.181271
247.497	0.196206
249.305	-0.418587
251.11	0.823517
252.915	-0.012764
254.719	0.115326
256.523	0.122449
258.327	0.780898
260.13	0.886148
261.933	-0.0910158
263.736	-0.344105
265.538	0.00596237
267.34	0.621618
269.141	0.224937
270.943	0.695501
272.744	0.128546
274.544	0.669626
276.344	0.365653
278.144	0.0363693
279.944	0.6934
281.743	0.529716
283.542	0.436991
285.34	0.199191
287.138	0.513325
288.936	0.539135
290.733	0.517624
292.53	0.592982
294.327	0.454271
296.123	0.173505
297.919	-0.0105181
299.715	0.331663
301.508	0.363055
303.303	0.632603
305.098	0.757802
306.892	0.40513
308.686	0.600975
310.479	0.344411
312.273	0.25577
314.065	-0.141041
315.858	0.368501
317.648	0.403278
319.44	0.0582037
321.231	0.667176
323.022	0.77669
324.813	0.123194
326.604	0.185345
328.392	0.653605
330.181	0.667769
331.971	0.609309
333.76	0.238443
335.548	0.248673
337.335	0.472527
339.123	0.0966172
340.91	0.317633
342.698	-0.0597415
344.483	0.0888572
346.269	-0.048862
348.055	0.00510454
349.841	0.393697
351.625	0.662865
353.41	0.144089
355.195	0.101938
356.977	0.774153
358.762	0.825058
360.545	0.517766
362.329	0.210195
364.11	0.378093
365.893	0.307616
367.675	0.260421
369.455	0.117833
371.237	0.519693
373.017	0.304991
374.798	-0.0276494
376.578	0.136263
378.357	-0.430739
380.137	-0.289179
381.917	0.723909
383.694	-0.192189
385.473	0.139797
387.249	-0.0915079
389.028	0.312504
390.806	0.2709
392.581	0.136057
394.359	0.283572
396.134	0.196578
397.91	0.344573
399.684	0.562953
401.46	0.663617
403.234	0.411491
405.009	0.205821
406.784	-0.0942745
408.557	0.262683
410.331	-0.0849085
412.103	0.130932
413.876	0.206269
415.647	0.188317
417.42	0.640326
419.191	0.83484
420.961	0.302083
422.733	0.215042
424.502	0.268338
426.273	0.0627294
428.042	0.584244
429.812	0.682812
431.58	-0.157454
433.35	0.410823
435.118	0.41612
436.885	0.0693974
438.653	0.144649
440.42	0.570785
442.188	1.01857
443.954	0.1982
445.719	1.06411
447.486	-0.295879
449.251	0.450758
451.015	0.191539
452.781	0.189832
454.545	0.0717177
456.308	0.0470438
458.073	-0.163983
459.836	0.393317
461.598	-0.212359
463.362	-0.0723987
465.124	0.278379
466.885	0.491929
468.648	-0.245192
470.408	-0.446623
472.169	-0.32202
473.929	0.174751
475.69	0.134971
477.45	0.000340462
479.208	0.539841
480.967	0.496177
482.727	0.196459
484.485	0.666267
486.243	0.695184
488	-0.0432367
489.759	0.315294
491.515	0.3951
493.272	-0.0150461
495.028	0.182286
496.783	0.0288277
498.54	0.343499
500.295	0.564596
502.05	0.80905
503.804	0.630404
505.558	0.145063
507.311	0.410628
509.064	-0.00696278
510.819	0.468148
512.572	0.283281
514.324	1.1561
516.076	0.59251
517.827	0.545642
519.578	1.29728
521.329	0.567343
523.08	0.847577
524.83	0.165039
526.58	0.679629
528.329	0.560669
530.08	0.816724
531.829	0.252448
533.578	0.0861664
535.326	0.854854
537.074	0.335842
538.821	0.517115
540.568	0.323954
542.315	0.247087
544.062	0.14686
545.808	0.18628
547.554	0.504267
549.299	-0.0128231
551.044	0.444009
552.789	0.136678
554.533	0.315413
556.278	0.401673
558.019	0.119128
559.763	0.0448613
561.506	0.293441
563.249	0.473085
564.991	0.583992
566.733	0.672321
568.475	0.210224
570.217	-0.365334
571.958	0.574651
573.699	0.0475049
575.439	0.0264187
577.177	-0.131088
578.917	-0.104056
580.656	0.635578
582.396	0.250097
584.134	0.438601
585.873	0.764471
587.609	0.192372
589.347	-0.104768
591.084	0.839784
592.822	-0.21773
594.558	0.56525
596.295	0.0368557
598.029	0.382719
599.765	0.45224
601.5	0.383102
603.235	-0.00894403
604.968	-0.194911
606.703	0.721274
608.437	0.097198
610.171	0.162266
611.902	0.204684
613.635	-0.00453854
615.368	0.4745
617.099	0.0140119
618.831	0.0802546
620.563	0.0312057
622.294	0.049931
624.024	0.456614
625.755	-0.142421
627.485	0.17328
629.213	0.421679
630.943	0.740233
632.673	-0.240263
634.4	-0.352923
636.129	0.287492
637.855	0.173441
639.584	-0.0566726
641.312	-0.197508
643.037	-0.111993
644.764	0.359501
646.491	0.102414
648.216	-0.016499
649.942	-0.0194106
651.666	0.434907
653.392	0.278672
655.115	-0.0799336
656.84	0.336694
658.563	0.367424
660.287	0.397937
662.011	0.678546
663.732	0.226489
665.456	0.343701
667.177	0.711068
668.899	0.185974
670.62	1.12522
672.342	1.01394
674.061	0.835833
675.781	0.544575
677.502	-0.136276
679.22	0.904156
680.941	0.267686
682.659	0.157956
684.379	1.08239
686.096	0.578307
687.815	0.947934
689.532	0.879133
691.248	0.395098
692.966	0.233074
694.682	0.323877
696.4	0.851446
698.115	1.0325
699.829	0.86725
701.546	0.954208
703.26	0.373788
704.974	0.7123
706.689	0.774504
708.402	0.400585
710.115	0.622723
711.83	1.05024
713.542	0.721954
715.254	0.576917
716.967	0.728906
718.679	0.880701
720.39	0.781656
722.102	0.682901
723.812	1.2897
725.522	0.82691
727.232	0.955249
728.943	0.62917
730.652	0.484739
732.361	0.544139
734.069	1.03314
735.779	0.436273
737.487	1.76019
739.194	1.20971
740.901	1.24704
742.608	0.924851
744.316	0.469026
746.022	1.2974
747.728	1.38388
749.433	1.13401
751.138	1.02016
752.843	1.31219
754.549	1.33541
756.254	0.707184
757.957	1.49808
759.661	0.894176
761.364	0.583416
763.067	1.26536
764.769	1.06752
766.471	1.70455
768.175	1.75307
769.877	1.57371
771.578	1.41523
773.279	1.50434
774.98	1.47997
776.68	1.54645
778.38	1.45566
780.079	1.52435
781.779	1.68446
783.478	1.43747
785.176	2.02703
786.875	1.48295
788.573	1.54758
790.27	1.15717
791.968	1.33024
793.665	1.65979
795.361	1.46962
797.058	1.57347
798.754	1.22801
800.45	1.64966
802.145	1.41957
803.84	2.04481
805.535	1.29814
807.23	1.54017
808.922	1.48909
810.616	1.52691
812.309	2.03483
814.002	1.60042
815.695	1.27845
817.388	1.2925
819.08	1.41831
820.772	1.05276
822.464	1.51364
824.153	1.39473
825.844	1.2993
827.535	1.67332
829.225	1.15846
830.915	1.46996
832.605	2.42988
834.292	1.63146
835.981	2.23813
837.67	1.19387
839.359	1.33103
841.047	1.44477
842.732	1.55752
844.42	1.42409
846.107	1.35813
847.794	1.29344
849.479	1.81223
851.165	1.70677
852.851	1.35611
854.534	1.43176
856.22	1.77701
857.905	1.42507
859.589	1.22873
861.272	1.45852
862.956	1.03399
864.639	1.39688
866.321	1.30841
868.004	0.54292
869.687	1.64869
871.367	0.950007
873.049	0.972884
874.731	1.22133
876.41	1.26673
878.092	1.22187
879.771	1.58322
881.451	1.49284
883.131	1.24386
884.809	0.768315
886.489	1.12694
888.166	1.28113
889.845	1.68202
891.522	1.63051
893.2	1.24019
894.878	1.14208
896.554	1.1782
898.231	1.191
899.906	0.86659
901.583	1.55052
903.258	1.44914
904.934	0.498589
906.608	0.934464
908.283	0.500236
909.956	0.735707
911.631	1.52747
913.304	1.11805
914.976	0.820703
916.65	0.967603
918.322	1.06985
919.995	1.03912
921.666	0.699137
923.339	1.22259
925.009	0.951271
926.679	1.344
928.351	0.788612
930.021	1.00679
931.692	0.982692
933.361	0.848504
935.029	0.846815
936.699	0.845417
938.367	0.491761
940.035	1.02117
941.704	0.911874
943.371	0.803069
945.038	0.870678
946.706	0.385631
948.372	0.495245
950.038	0.691754
951.705	0.468064
953.37	0.817948
955.035	0.573382
956.7	0.551294
958.366	0.00205231
960.03	1.46274
961.693	0.717742
963.357	0.723152
965.021	0.351375
966.684	0.840251
968.346	0.75197
970.008	0.28603
971.67	0.107142
973.334	1.21125
974.995	0.281735
976.655	1.23328
978.316	0.704171
979.976	0.529315
981.638	0.354091
983.297	0.554199
984.957	0.575843
986.616	0.551714
988.274	0.592664
989.932	0.323074
991.59	-0.145608
993.248	0.755527
994.907	0.287043
996.565	0.282473
998.221	0.586567
999.878	1.28678
1001.53	0.620449
1003.19	0.878963
1004.85	0.806989
1006.5	0.405382
1008.16	0.707126
1009.81	0.591726
1011.46	0.103976
1013.12	0.296553
1014.77	0.204419
1016.43	0.878859
1018.08	0.78714
1019.73	0.499251
1021.38	0.518404
1023.04	0.516472
1024.69	0.77748
1026.34	0.711069
1027.99	0.273244
1029.64	0.840015
1031.29	1.49298
1032.94	1.05266
1034.59	0.873317
1036.24	1.39082
1037.89	1.36224
1039.54	1.68187
1041.19	2.32779
1042.84	2.12619
1044.48	2.27392
1046.13	2.46668
1047.78	2.33527
1049.42	2.55281
1051.07	1.64205
1052.72	1.4703
1054.36	1.1684
1056.01	0.953286
1057.66	0.846553
1059.3	0.674178
1060.94	0.175117
1062.59	0.980133
1064.23	0.827698
1065.88	0.609287
1067.52	0.107627
1069.16	0.0618391
1070.81	0.753981
1072.45	0.338361
1074.09	0.0318971
1075.73	0.290299
1077.38	0.310933
1079.02	-0.0578942
1080.66	0.115943
1082.3	0.419876
1083.94	0.00764942
1085.58	-0.0586963
1087.22	0.220307
1088.86	0.454254
1090.5	-0.0274091
1092.13	0.506899
1093.77	0.19759
1095.41	0.536223
1097.05	0.831703
1098.68	0.632287
1100.32	0.0253844
1101.96	0.410236
1103.6	0.150707
1105.23	-0.236862
1106.87	0.193333
1108.5	0.494206
1110.14	0.321187
1111.77	0.211628
1113.41	0.058064
1115.04	0.204344
1116.67	0.17837
1118.31	0.259667
1119.94	0.191353
1121.58	0.295094
1123.21	0.142648
1124.84	0.590065
1126.47	0.481709
1128.1	0.0959663
1129.73	0.523335
1131.37	0.117223
1133	0.331332
1134.63	-0.160083
1136.26	0.117605
1137.89	0.095314
1139.52	0.178998
1141.14	-0.0797
1142.77	0.280306
1144.4	0.320104
1146.03	0.232417
1147.66	0.0815363
1149.29	0.229616
1150.91	0.463162
1152.54	0.0364566
1154.17	-0.411563
1155.79	-0.391373
1157.42	-0.073432
1159.04	0.435965
1160.67	0.265222
1162.3	0.286676
1163.92	0.0536981
1165.55	-0.136398
1167.17	-0.050261
1168.79	0.247748
1170.42	0.0981202
1172.04	0.350891
1173.66	0.198706
1175.28	0.00340033
1176.91	0.189586
1178.53	0.184961
1180.15	0.0961456
1181.77	-0.182325
1183.39	0.639354
1185.01	0.107827
1186.63	0.29425
1188.25	-0.322509
1189.87	0.388437
1191.49	-0.419354
1193.11	-0.0697608
1194.73	-0.183592
1196.35	0.41573
1197.97	-0.34692
1199.59	-0.0399494
1201.2	0.51869
1202.82	-0.0491428
1204.44	0.241115
1206.05	0.303169
1207.67	0.303566
1209.29	0.0747156
1210.9	-0.0294757
1212.52	0.0111833
1214.13	0.258667
1215.75	0.31684
1217.36	-0.0216308
1218.97	-0.00688267
1220.59	0.692774
1222.2	-0.0187249
1223.82	-0.0235767
1225.43	0.0968227
1227.04	0.880272
1228.65	0.257487
1230.26	0.731916
1231.88	0.297428
1233.49	0.277307
1235.1	0.464725
1236.71	0.591007
1238.32	0.635368
1239.93	0.18396
1241.54	0.208183
1243.15	0.0873742
1244.76	0.690207
1246.37	0.775101
1247.97	0.259168
1249.58	0.570374
1251.19	0.074461
1252.8	0.385514
1254.41	0.614267
1256.01	0.409409
1257.62	0.722562
1259.23	0.809058
1260.83	0.440873
1262.44	0.528331
1264.04	0.325857
1265.65	0.102237
1267.25	0.541289
1268.86	0.710357
1270.46	0.40183
1272.07	0.0510669
1273.67	0.0520868
1275.27	0.840099
1276.88	0.425161
1278.48	0.341339
1280.08	0.754086
1281.68	0.566039
1283.28	0.564407
1284.89	0.852661
1286.49	0.0456915
1288.09	0.645285
1289.69	0.522028
1291.29	0.440491
1292.89	1.39199
1294.49	0.586728
1296.09	0.483096
1297.69	0.811918
1299.29	0.355199
1300.88	0.413436
1302.48	0.32651
1304.08	1.30921
1305.68	0.891427
1307.27	0.186579
1308.87	0.71395
1310.47	0.973754
1312.06	0.373458
1313.66	0.858831
1315.25	0.13842
1316.85	0.930756
1318.44	0.681768
1320.04	0.575791
1321.63	0.306393
1323.23	0.0364494
1324.82	1.00582
1326.41	0.449273
1328.01	0.927694
1329.6	0.838324
1331.19	0.912091
1332.78	0.482197
1334.38	0.801644
1335.97	0.415603
1337.56	0.353084
1339.15	0.431298
1340.74	0.427703
1342.33	0.603737
1343.92	0.597094
1345.51	0.710101
1347.1	1.40438
1348.69	0.355744
1350.28	0.63167
1351.87	0.248988
1353.46	0.487894
1355.04	0.207894
1356.63	0.327958
1358.22	-0.0517397
1359.81	0.606569
1361.39	0.305503
1362.98	0.961651
1364.57	-0.0179796
1366.15	0.438236
1367.74	0.575879
1369.32	0.475379
1370.91	0.356044
1372.49	0.357105
1374.07	0.538031
1375.66	0.182194
1377.24	0.10499
1378.83	-0.0123448
1380.41	0.446675
1381.99	0.248178
1383.57	0.665339
1385.16	0.226734
1386.74	0.841162
1388.32	0.0253429
1389.9	0.381801
1391.48	0.579877
1393.06	0.718896
1394.64	0.2433
1396.22	0.323008
1397.8	0.342717
1399.38	0.282451
1400.96	-0.154734
1402.54	0.397859
1404.12	0.534356
1405.7	-0.0605507
1407.28	0.66992
1408.85	0.649637
1410.43	0.728508
1412.01	0.135928
1413.58	0.431618
1415.16	0.430466
1416.74	0.566753
1418.31	0.860271
1419.89	0.405129
1421.46	0.581257
1423.04	0.67964
1424.61	0.621724
1426.19	0.426964
1427.76	0.488467
1429.33	0.72694
1430.91	0.630161
1432.48	0.434185
1434.05	0.886816
1435.63	0.827501
1437.2	1.04361
1438.77	0.552513
1440.34	0.946721
1441.91	1.22365
1443.49	0.773948
1445.05	1.07136
1446.63	0.720303
1448.2	0.565874
1449.77	1.0014
1451.34	0.867159
1452.91	0.497267
1454.47	1.03235
1456.04	0.662578
1457.61	1.23682
1459.18	1.06239
1460.75	0.709566
1462.31	1.08345
1463.88	1.16085
1465.45	0.804928
1467.01	0.213388
1468.58	0.663282
1470.15	0.622756
1471.71	0.622298
1473.28	0.838348
1474.84	0.76075
1476.41	1.03641
1477.97	0.253441
1479.54	0.744759
1481.1	0.589088
1482.66	0.668559
1484.23	0.551971
1485.79	0.807384
1487.35	0.866267
1488.91	1.02202
1490.48	1.11751
1492.04	1.19161
1493.6	0.580245
1495.16	0.944332
1496.72	0.293473
1498.28	0.986791
1499.84	0.901361
1501.4	0.758693
1502.96	0.772377
1504.52	0.282948
1506.08	0.375349
1507.64	0.525155
1509.2	0.422773
1510.76	0.184704
1512.31	0.254938
1513.87	0.0360188
1515.43	0.336749
1516.99	0.310784
1518.54	0.458003
1520.1	0.375488
1521.66	0.312429
1523.21	0.191945
1524.77	0.491204
1526.32	0.369504
1527.88	0.20938
1529.43	0.201402
1530.99	0.2314
1532.54	0.470225
1534.09	0.10308
1535.65	0.191504
1537.2	0.223705
1538.75	0.407337
1540.31	0.119461
1541.86	0.491565
1543.41	0.599397
1544.96	0.18042
1546.51	0.0814371
1548.06	0.207696
1549.62	-0.0787024
1551.17	0.290974
1552.72	-0.0692883
1554.27	0.356717
1555.82	0.316101
1557.36	0.239439
1558.91	0.257497
1560.46	0.500737
1562.01	-0.0197659
1563.56	0.523871
1565.11	0.0418119
1566.66	0.194187
1568.2	0.197135
1569.75	0.293152
1571.3	0.444916
1572.84	0.297812
1574.39	0.449282
1575.93	0.246082
1577.48	0.26703
1579.02	0.698993
1580.57	0.496637
1582.11	0.0146198
1583.66	0.168094
1585.2	0.509054
1586.75	0.60758
1588.29	0.762411
1589.83	0.430719
1591.38	0.734901
1592.92	0.421033
1594.46	0.406447
1596	0.466819
1597.54	0.583739
1599.09	0.401215
1600.63	0.48164
1602.17	0.112031
1603.71	0.267826
1605.25	0.592409
1606.79	0.972679
1608.33	0.52467
1609.87	0.300556
1611.41	0.525877
1612.95	0.467933
1614.48	0.165144
1616.02	0.331327
1617.56	0.647555
1619.1	0.196122
1620.64	0.776128
1622.17	0.645292
1623.71	0.571272
1625.25	0.310121
1626.78	0.0111251
1628.32	0.0107908
1629.86	-0.420553
1631.39	0.269257
1632.92	0.603087
1634.46	0.451377
1635.99	-0.0727706
1637.53	0.392606
1639.06	0.149615
1640.59	0.242297
1642.13	0.48354
1643.66	0.481749
1645.19	0.534944
1646.73	1.03371
1648.26	0.639593
1649.79	0.209166
1651.32	0.392327
1652.85	0.557589
1654.38	0.834741
1655.92	0.908289
1657.45	0.296195
1658.98	0.498972
1660.51	0.848767
1662.04	0.475612
1663.57	0.471894
1665.09	0.504717
1666.62	0.814543
1668.15	0.737388
1669.68	0.0531173
1671.21	0.310156
1672.73	0.309895
1674.26	0.438868
1675.79	0.309884
1677.31	0.180447
1678.84	0.105576
1680.37	0.342634
1681.89	0.431891
1683.42	0.484065
1684.94	0.316011
1686.47	0.735251
1687.99	-0.0553617
1689.52	0.0161409
1691.04	0.289143
1692.57	0.452127
1694.09	0.523446
1695.61	0.210654
1697.14	0.0990076
1698.66	0.0420394
1700.18	0.477593
1701.7	0.365079
1703.22	0.398106
1704.75	0.0300565
1706.27	0.608429
1707.79	0.240276
1709.31	0.0361695
1710.83	0.431347
1712.35	0.282002
1713.87	0.205492
1715.39	0.0205312
1716.91	-0.0556369
1718.43	-0.00526428
1719.95	-0.262003
1721.46	-0.157352
1722.98	0.23596
1724.5	0.0708933
1726.02	0.447148
1727.53	0.662029
1729.05	0.0137477
1730.57	0.299772
1732.08	0.136208
1733.6	0.432665
1735.12	-0.135409
1736.63	0.137558
1738.15	-0.160233
1739.66	0.179864
1741.18	-0.20884
1742.69	0.0530038
1744.21	-0.411389
1745.72	0.0618987
1747.23	-0.0500011
1748.74	0.237947
1750.26	0.110545
1751.77	0.204201
1753.28	0.247753
1754.8	0.0065136
1756.31	-0.152005
1757.82	0.189539
1759.33	-0.117886
1760.84	0.144349
1762.35	0.116521
1763.86	-0.146561
1765.37	0.159723
1766.88	0.0405455
1768.39	0.117871
1769.9	0.0309582
1771.41	0.0835028
1772.92	0.577263
1774.43	0.384793
1775.93	-0.0881491
1777.44	-0.0564394
1778.95	0.198665
1780.46	0.286824
1781.96	0.150181
1783.47	0.473952
1784.98	0.113076
1786.48	-0.302576
1787.99	0.216404
1789.49	0.366138
1791	0.181739
1792.5	0.345998
1794.01	-0.0630202
1795.51	0.0426598
1797.02	0.0305147
1798.52	0.335626
1800.03	0.135668
1801.53	0.0929546
1803.03	-0.0812521
1804.53	0.072382
1806.04	0.00779629
1807.54	-0.00994778
1809.04	0.134371
1810.54	0.143914
1812.04	0.000833035
1813.54	-0.215647
1815.05	-0.0341039
1816.55	0.15717
1818.05	0.20522
1819.55	0.0584669
1821.05	0.22692
1822.55	0.111162
1824.05	0.101079
1825.54	0.11176
1827.04	0.0443525
1828.54	0.210773
1830.04	-0.146974
1831.54	-0.0230937
1833.03	-0.0132551
1834.53	0.112352
1836.03	0.0604372
1837.52	-0.127739
1839.02	0.184641
1840.52	0.324057
1842.01	0.105714
1843.51	0.166181
1845	0.472972
1846.5	0.334021
1847.99	0.153303
1849.49	0.130525
1850.98	0.268631
1852.47	0.302306
1853.97	-0.080327
1855.46	0.158567
1856.95	0.00988531
1858.45	-0.0327187
1859.94	0.0962329
1861.43	-0.0601254
1862.92	0.0821733
1864.41	0.238279
1865.91	-0.0735145
1867.4	0.0687709
1868.89	0.15079
1870.38	0.298776
1871.87	0.338374
1873.36	0.0440092
1874.85	-0.163864
1876.34	0.153157
1877.83	0.322735
1879.31	-0.117605
1880.8	-0.274837
1882.29	-0.154554
1882.56	-0.125097
1884.05	-0.0213199
1885.54	-0.440942
1887.04	-0.0595846
1888.53	0.14695
1890.03	0.109845
1891.52	0.334365
1893.01	0.368696
1894.5	-0.204113
1895.99	0.336932
1897.49	0.339636
1898.98	0.411829
1900.47	0.239709
1901.96	0.0837855
1903.45	0.117942
1904.94	0.724674
1906.43	0.0792866
1907.92	0.146523
1909.41	-0.0114965
1910.9	0.1436
1912.39	0.0217118
1913.88	0.281837
1915.37	0.229806
1916.86	-0.0825028
1918.35	0.159586
1919.84	-0.0146198
1921.32	-0.015563
1922.81	0.174268
1924.3	0.191535
1925.78	0.00189781
1927.27	-0.0138531
1928.76	0.24788
1930.24	-0.217655
1931.73	-0.0257673
1933.21	0.147759
1934.7	0.0775881
1936.18	-0.305139
1937.67	0.210841
1939.15	0.121083
1940.64	-0.22733
1942.12	0.598767
1943.6	-0.0241222
1945.09	0.112822
1946.57	0.112034
1948.05	0.197241
1949.54	-0.0110073
1951.02	-0.0820317
1952.5	-0.033175
1953.98	-0.0191689
1955.46	0.0806885
1956.94	-0.0768862
1958.42	0.246767
1959.91	0.244694
1961.39	-0.0999098
1962.87	0.0358281
1964.34	-0.188465
1965.82	0.11795
1967.3	0.320862
1968.78	0.198067
1970.26	-0.010457
1971.74	0.259374
1973.22	0.204486
1974.7	0.0815315
1976.17	-0.0752068
1977.65	0.51781
1979.13	0.105881
1980.6	0.272802
1982.08	0.0824118
1983.56	0.112889
1985.03	0.261894
1986.51	0.12217
1987.98	-0.0342927
1989.46	0.249999
1990.93	0.145172
1992.41	0.193378
1993.88	0.123939
1995.36	0.646616
1996.83	-0.216006
1998.3	0.2054
1999.78	-0.251665
2001.25	0.455566
2002.72	0.132928
2004.2	-0.0546198
2005.67	-0.0732427
2007.14	0.296076
2008.61	-0.24343
2010.08	0.312212
2011.55	-0.0914264
2013.02	-0.208801
2014.49	0.414008
2015.97	0.262064
2017.43	0.210454
2018.9	0.191903
2020.37	0.324193
2021.84	0.288314
2023.31	0.26951
2024.78	0.184199
2026.25	0.183681
2027.72	0.100355
2029.19	-0.250258
2030.65	0.0206671
2032.12	0.158168
2033.59	-0.0732269
2035.05	0.199004
2036.52	0.235958
2037.98	0.205328
2039.45	0.325662
2040.92	-0.159164
2042.38	0.3313
2043.85	0.217084
2045.31	0.187587
2046.78	0.259618
2048.24	-0.00495529
2049.71	-0.337461
2051.17	0.1215
2052.63	0.225478
2054.1	0.142638
2055.56	0.0416946
2057.02	0.142119
2058.48	0.0565562
2059.95	0.223613
2061.41	0.10461
2062.87	0.373423
2064.33	0.440907
2065.79	0.155725
2067.25	-0.145676
2068.71	0.209697
2070.17	0.144547
2071.63	0.315116
2073.09	0.334089
2074.55	0.75701
2076.01	0.320887
2077.47	0.322315
2078.93	0.171892
2080.39	0.273735
2081.85	0.358313
2083.3	0.105719
2084.76	0.492175
2086.22	0.154509
2087.68	-0.216947
2089.13	0.218332
2090.59	0.249903
2092.05	0.667515
2093.5	0.379885
2094.96	0.478087
2096.41	0.542283
2097.87	0.371423
2099.32	0.233822
2100.78	0.29688
2102.23	0.276462
2103.69	0.223278
2105.14	0.304601
2106.59	0.537001
2108.05	0.469815
2109.5	0.402906
2110.95	0.61901
2112.41	0.267435
2113.86	0.531139
2115.31	0.626897
2116.76	0.755072
2118.21	0.650743
2119.67	0.630589
2121.12	0.346478
2122.57	0.478607
2124.02	0.363003
2125.47	0.612669
2126.92	0.69629
2128.37	0.563633
2129.82	0.562592
2131.27	0.14655
2132.71	0.425604
2134.16	0.770493
2135.61	0.817998
2137.06	0.750889
2138.51	0.619104
2139.95	0.306928
2141.4	0.706635
2142.85	0.909011
2144.29	0.334491
2145.74	0.686406
2147.19	0.674129
2148.63	0.346684
2150.08	0.730803
2151.52	0.716676
2152.97	0.933784
2154.42	1.06742
2155.86	0.687123
2157.3	0.538872
2158.75	0.987486
2160.19	1.17209
2161.64	1.01014
2163.08	0.849465
2164.52	0.789276
2165.96	0.912247
2167.41	1.05193
2168.85	0.64237
2170.29	0.746679
2171.73	0.982592
2173.17	1.25036
2174.61	1.01803
2176.06	1.00153
2177.5	0.868801
2178.94	0.969442
2180.38	0.921178
2181.82	0.989958
2183.26	1.07582
2184.7	1.06212
2186.14	0.665855
2187.57	1.1846
2189.01	0.705035
2190.45	0.807867
2191.89	0.744047
2193.33	1.01266
2194.76	0.94728
2196.2	0.830611
2197.64	0.729178
2199.08	0.144417
2200.51	0.540026
2201.95	0.420282
2203.38	0.583216
2204.82	0.730161
2206.25	0.761698
2207.69	0.760464
2209.12	0.643169
2210.56	0.475754
2211.99	0.588999
2213.43	0.486678
2214.86	0.549588
2216.3	0.381765
2217.73	0.511904
2219.16	0.75825
2220.59	0.378601
2222.03	0.658498
2223.46	0.311634
2224.89	0.0793643
2226.32	0.537298
2227.75	0.450777
2229.19	0.445611
2230.62	0.685965
2232.05	0.663449
2233.48	0.264731
2234.91	0.390632
2236.34	0.223078
2237.77	0.416057
2239.2	0.626475
2240.63	0.528296
2242.06	0.594572
2243.48	0.172446
2244.91	0.582394
2246.34	0.176309
2247.77	0.144281
2249.2	0.241188
2250.62	0.711105
2252.05	0.495372
2253.48	0.66969
2254.9	0.340278
2256.33	0.191038
2257.76	0.173447
2259.18	0.320094
2260.61	0.322788
2262.03	0.538236
2263.46	0.413989
2264.88	0.354796
2266.31	0.0838795
2267.73	0.251373
2269.16	0.174241
2270.58	0.308124
2272	0.181194
2273.43	0.151806
2274.85	0.220207
2276.27	0.239897
2277.69	0.259722
2279.12	0.328509
2280.54	-0.206064
2281.96	0.0745497
2283.38	0.306293
2284.8	0.130208
2286.22	-0.0458121
2287.64	0.00690889
2289.07	-0.103371
2290.49	0.195038
2291.91	0.248678
2293.32	0.253385
2294.74	0.454419
2296.16	-0.0155559
2297.58	0.267311
2299	-0.0720863
2300.42	-0.0346808
2301.84	0.527679
2303.26	0.204868
2304.67	0.242956
2306.09	0.346719
2307.51	0.318883
2308.92	-0.136768
2310.34	-0.0176239
2311.76	-0.0467134
2313.17	0.401328
2314.59	0.109265
2316	0.245625
2317.42	0.102583
2318.83	0.206961
2320.25	0.04738
2321.66	0.315892
2323.08	-0.109956
2324.49	0.0731802
2325.91	0.0897164
2327.32	0.616266
2328.73	0.993366
2330.15	0.480765
2331.56	0.397393
2332.97	0.232608
2334.38	0.117881
2335.79	-0.226936
2337.21	-0.193635
2338.62	0.348633
2340.03	-0.0798736
2341.44	0.427483
2342.85	-0.0343966
2344.26	-0.0200925
2345.67	0.141884
2347.08	-0.121993
2348.49	-0.189107
2349.9	-0.0437407
2351.31	-0.062572
2352.72	-0.0493755
2354.13	-0.134748
2355.53	0.0403805
2356.94	0.117216
2358.35	0.226394
2359.76	-0.281952
2361.17	-0.302269
2362.57	-0.0793653
2363.98	-0.0837455
2365.39	0.025095
2366.79	0.327763
2368.2	0.0974703
2369.6	0.0780334
2371.01	0.140141
2372.42	0.283655
2373.82	0.137888
2375.22	0.0568957
2376.63	-0.201273
2378.03	0.00640726
2379.44	-0.172869
2380.84	-0.0640159
2382.25	0.0115829
2383.65	-0.20187
2385.05	0.0808897
2386.45	0.0916619
2387.86	0.0711174
2389.26	0.258711
2390.66	-0.0469751
2392.06	-0.0648513
2393.46	-0.0979352
2394.87	-0.162235
2396.27	0.250926
2397.67	0.346393
2399.07	0.124445
2400.47	-0.0811758
2401.87	0.0788069
2403.27	-0.142382
2404.67	0.191985
2406.07	-0.315718
2407.47	0.0331473
2408.86	0.206709
2410.26	0.268908
2411.66	0.204463
2413.06	0.36237
2414.46	0.172789
2415.85	-0.0315228
2417.25	0.0500484
2418.65	0.0530891
2420.05	-0.149509
2421.44	0.170458
2422.84	0.0150042
2424.23	0.160361
2425.63	-0.0269713
2427.03	-0.0872111
2428.42	0.344567
2429.82	-0.0315342
2431.21	0.274811
2432.6	0.168791
2434	0.0305414
2435.39	0.082047
2436.79	0.164325
2438.18	0.134327
2439.57	0.246393
2440.97	0.19896
2442.36	-0.19805
2443.75	0.182572
2445.14	-0.0716834
2446.54	0.30834
2447.93	0.450222
2449.32	0.528607
2450.71	0.211264
2452.1	0.147791
2453.49	-0.199911
2454.88	0.180842
2456.27	0.0241389
2457.66	-0.00578213
2459.05	0.0432701
2460.44	0.0286574
2461.83	-0.0813704
2463.22	0.171651
2464.61	0.28189
2466	0.4392
2467.39	0.138535
2468.77	0.279885
2470.16	0.105546
2471.55	0.0729227
2472.94	0.0241084
2474.32	0.13225
2475.71	0.161132
2477.1	0.126842
2478.48	0.312433
2479.87	-0.145513
2481.25	0.259745
2482.64	-0.0720391
2484.02	0.253865
2485.41	0.234489
2486.8	-0.0199876
2488.18	0.0686483
2489.56	0.0474696
2490.95	0.259701
2492.33	0.0209918
2493.72	0.171753
2495.1	0.0904651
2496.48	-0.160304
2497.86	0.00806141
2499.25	0.0215893
2500.63	0.158601
2502.01	-0.153331
2503.39	0.306639
2504.77	-0.052424
2506.16	0.205158
2507.54	-0.230558
2508.92	0.057322
2510.3	0.129879
2511.68	0.110686
2513.06	0.19937
2514.44	0.426361
2515.82	-0.0657086
2517.2	0.0705304
2518.58	-0.0376267
2519.95	0.083652
2521.33	0.219889
2522.71	-0.117652
2524.09	0.00226068
2525.47	-0.152815
2526.84	-0.170763
2528.22	0.100686
2529.6	0.281281
2530.98	0.295627
2532.35	-0.0990872
2533.73	-0.280047
2535.11	0.344687
2536.48	0.103391
2537.86	0.0287609
2539.23	0.211684
2540.61	0.151009
2541.98	0.196366
2543.36	-0.0767231
2544.73	0.060473
2546.1	0.410826
2547.48	-0.0418844
2548.85	0.537536
2550.23	0.130863
2551.6	0.345953
2552.97	-0.0314593
2554.34	0.212628
2555.72	0.046381
2557.09	0.0618486
2558.46	0.183366
2559.83	0.198892
2561.2	0.00259924
2562.58	0.125048
2563.95	0.111495
2565.32	0.249779
2566.69	0.206391
2568.06	-0.0945783
2569.43	0.150048
2570.8	-0.181259
2572.17	0.184679
2573.54	0.141436
2574.91	-0.0685043
2576.27	-0.126847
2577.64	0.269619
2579.01	0.0594535
2580.38	0.24328
2581.75	0.305512
2583.11	0.0945692
2584.48	0.277659
2585.85	-0.115329
2587.21	0.143577
2588.58	-0.127871
2589.95	0.161512
2591.31	-0.109914
2592.68	0.0123453
2594.04	0.0734205
2595.41	0.164048
2596.78	-0.0942397
2598.14	0.11617
2599.51	-0.0972381
2600.87	0.0825377
2602.23	0.0208292
2603.6	0.186067
2604.96	0.0648575
2606.32	0.109793
2607.69	-0.0113969
2609.05	-0.0275531
2610.41	-0.0445042
2611.77	-0.0322161
2613.14	0.264953
2614.5	0.0352879
2615.86	0.196053
2617.22	0.206757
2618.58	-0.261361
2619.94	-0.159535
2621.3	-0.0125318
2622.67	-0.104457
2624.03	0.221989
2625.39	0.503199
2626.75	0.0979033
2628.1	-0.0537286
2629.46	-0.160666
2630.82	0.0448565
2632.18	0.0567274
2633.54	-0.0502796
2634.9	-0.0680823
2636.26	-0.026557
2637.61	0.0889845
2638.97	0.159961
2640.33	0.171755
2641.69	-0.111947
2643.04	0.0924511
2644.4	-0.515262
2645.76	-0.00100946
2647.11	-0.0774221
2648.47	0.302423
2649.82	0.0188332
2651.18	-0.264669
2652.53	-0.298136
2653.89	0.0353808
2655.24	-0.129573
2656.6	0.0433292
2657.95	0.158226
2659.31	0.229719
2660.66	0.199072
2662.01	0.109896
2663.37	-0.22789
2664.72	-0.098712
2666.07	0.000617504
2667.43	0.172339
2668.78	0.212673
2670.13	-0.197901
2671.48	0.11945
2672.83	0.000908852
2674.18	0.2605
2675.53	0.317019
2676.89	0.12725
2678.24	-0.163438
2679.59	0.315083
2680.94	0.359234
2682.29	0.0562735
2683.64	-0.0429273
2684.99	0.279108
2686.34	0.137349
2687.68	0.155032
2689.03	0.0993261
2690.38	0.158602
2691.73	0.202099
2693.08	0.0559211
2694.43	0.0977359
2695.77	-0.17944
2697.12	0.398723
2698.47	-0.253527
2699.81	-0.0646172
2701.16	-0.0193672
2702.51	0.157257
2703.85	0.204302
2705.2	0.0632758
2706.54	0.241248
2707.89	0.230561
2709.23	0.29217
2710.58	0.237382
2711.92	0.0952148
2713.27	0.0109897
2714.61	0.057488
2715.96	-0.230448
2717.3	0.252203
2718.64	0.153016
2719.99	0.0389833
2721.33	0.288442
2722.67	0.246528
2724.01	-0.0431633
2725.36	0.14718
2726.7	-0.0848351
2728.04	0.29423
2729.38	-0.0108924
2730.72	0.135023
2732.06	0.266335
2733.41	0.324944
2734.75	0.398211
2736.09	-0.110171
2737.43	-0.0221081
2738.77	-0.108586
2740.11	-0.166132
2741.44	0.0522885
2742.78	0.110296
2744.12	-0.0937834
2745.46	-0.123804
2746.8	-0.0088625
2748.14	0.10586
2749.48	0.278553
2750.81	-0.0853667
2752.15	0.29054
2753.49	0.0721455
2754.83	0.0713329
2756.16	-0.262508
2757.5	0.258245
2758.84	0.0406299
2760.17	0.243093
2761.51	0.0985231
2762.84	-0.00228071
2764.18	-0.204147
2765.51	0.100387
2766.85	-0.0728436
2768.18	0.201753
2769.52	0.157215
2770.85	-0.10504
2772.19	-0.223447
2773.52	-0.356759
2774.85	-0.158607
2776.19	0.226416
2777.52	0.208077
2778.85	-0.0686927
2780.18	-0.0429406
2781.52	0.155313
2782.85	0.181149
2784.18	-0.00820255
2785.51	0.0749907
2786.84	0.186853
2788.17	-0.0159869
2789.51	-0.0893235
2790.84	0.0668302
2792.17	-0.0768552
2793.5	0.20868
2794.83	0.108235
2796.16	0.350524
2797.48	0.0780816
2798.81	0.20524
2800.14	-0.0247922
2801.47	-0.0265536
2802.8	7.72476e-005
2804.13	-0.00199509
2805.46	0.12382
2806.79	0.163671
2808.11	0.0181432
2809.44	0.0573092
2810.77	-0.159171
2812.09	0.0791698
2813.42	0.275435
2814.75	0.231514
2816.07	-0.236623
2817.4	0.231536
2818.73	0.133116
2820.05	0.0346985
2821.38	0.318654
2822.7	-0.0497704
2824.03	0.0348973
2825.35	0.147633
2826.67	0.00544786
2828	0.203467
2829.32	0.246091
2830.65	0.161625
2831.97	0.303796
2833.29	0.077888
2834.62	0.233947
2835.94	0.290578
2837.26	0.332677
2838.58	0.558357
2839.9	0.260533
2841.23	0.683982
2842.55	0.966183
2843.87	0.669305
2845.19	0.796957
2846.51	0.854376
2847.83	0.714185
2849.15	0.884935
2850.47	0.475988
2851.79	0.688614
2853.11	0.462767
2854.43	0.378035
2855.75	0.60404
2857.07	0.731086
2858.39	0.844005
2859.71	0.942758
2861.02	0.434206
2862.34	0.942076
2863.66	0.39095
2864.98	0.996964
2866.3	1.08071
2867.61	1.02357
2868.93	0.980831
2870.25	1.00887
2871.56	1.05109
2872.88	1.1213
2874.19	1.24737
2875.51	1.49945
2876.83	1.15929
2878.14	1.19887
2879.46	1.42106
2880.77	1.47455
2882.09	1.48638
2883.4	1.3725
2884.71	1.44185
2886.03	1.31502
2887.34	1.48302
2888.65	1.27179
2889.97	1.21449
2891.28	1.31094
2892.59	1.51905
2893.91	1.41868
2895.22	1.43065
2896.53	1.13521
2897.84	1.20442
2899.15	1.61001
2900.46	1.35849
2901.78	1.31713
2903.09	1.61162
2904.4	1.26274
2905.71	1.45956
2907.02	1.43292
2908.33	1.43475
2909.64	1.66096
2910.95	1.8876
2912.26	1.49843
2913.57	1.58465
2914.87	1.32004
2916.18	1.75441
2917.49	1.76781
2918.8	2.1164
2920.11	2.07306
2921.42	1.96026
2922.72	2.18377
2924.03	2.26831
2925.34	2.01807
2926.64	2.14562
2927.95	1.76993
2929.26	2.14892
2930.56	2.28992
2931.87	2.08114
2933.17	2.31954
2934.48	2.1246
2935.78	2.40494
2937.09	2.11239
2938.39	1.90382
2939.7	1.86312
2941	2.04629
2942.31	1.88064
2943.61	1.95326
2944.91	1.9009
2946.22	1.89117
2947.52	1.83981
2948.82	1.87223
2950.13	1.49796
2951.43	1.66862
2952.73	1.62814
2954.03	1.68484
2955.33	1.51733
2956.64	1.3924
2957.94	1.70258
2959.24	1.53847
2960.54	1.17977
2961.84	1.39655
2963.14	1.15111
2964.44	1.28405
2965.74	1.03704
2967.04	1.23857
2968.34	1.15831
2969.64	1.16192
2970.94	1.06702
2972.24	0.761217
2973.53	0.736895
2974.83	0.712549
2976.13	0.983506
2977.43	1.01441
2978.73	0.833079
2980.02	0.735249
2981.32	1.00255
2982.62	0.805165
2983.91	0.734679
2985.21	0.735176
2986.51	0.567953
2987.8	0.766972
2989.1	0.516921
2990.4	-0.0843687
2991.69	0.564861
2992.99	0.833974
2994.28	0.568274
2995.57	0.442472
2996.87	0.372475
2998.16	0.16208
2999.46	0.45698
3000.75	0.317309
3002.05	0.528511
3003.34	0.417556
3004.63	0.0265613
3005.92	0.0417514
3007.22	0.182536
3008.51	0.462571
3009.8	0.0985208
3011.09	0.29337
3012.39	0.13862
3013.68	0.0678077
3014.97	0.0670609
3016.26	0.192124
3017.55	0.136519
3018.84	0.039556
3020.13	-0.0989819
3021.42	0.193209
3022.71	-0.0571976
3024	0.0390873
3025.29	-0.0593758
3026.58	-0.00543833
3027.87	0.104042
3029.16	0.0481482
3030.45	0.200543
3031.73	-0.184853
3033.02	0.259018
3034.31	0.164561
3035.6	-0.178495
3036.89	-0.0532761
3038.17	0.125734
3039.46	-0.164703
3040.75	-0.221804
3042.03	0.0912538
3043.32	-0.0625772
3044.61	-0.0511999
3045.89	0.234649
3047.18	0.0842552
3048.46	0.317877
3049.75	0.252467
3051.03	0.201791
3052.32	0.192594
3053.6	-0.0622001
3054.89	0.0373478
3056.17	-0.204774
3057.45	-0.161115
3058.74	0.00462484
3060.02	0.115534
3061.31	-0.0455971
3062.59	0.0932789
3063.87	0.110568
3065.15	0.0744686
3066.44	0.161632
3067.72	0.0319123
3069	0.187974
3070.28	0.139884
3071.56	0.268025
3072.84	0.0417604
3074.13	0.0323067
3075.41	-0.072855
3076.69	0.0934782
3077.97	-0.0522709
3079.25	0.128423
3080.53	0.0115638
3081.81	-0.0500093
3083.09	0.038445
3084.37	0.0730829
3085.64	-0.000807762
3086.92	0.196446
3088.2	-0.136114
3089.48	0.0195069
3090.76	-0.16445
3092.04	-0.0635285
3093.31	-0.111753
3094.59	0.192811
3095.87	0.0635672
3097.14	-0.052022
3098.42	0.0898981
3099.7	0.0826106
3100.97	-0.0195575
3102.25	-0.135172
3103.53	0.0608354
3104.8	0.1894
3106.08	0.115408
3107.35	0.204422
3108.63	-0.0983458
3109.9	-0.0485787
3111.18	-0.147107
3112.45	0.0121384
3113.73	-0.194102
3115	0.0875068
3116.27	-0.0513811
3117.55	0.0803633
3118.82	0.523387
3120.09	0.0433855
3121.37	0.0781717
3122.64	0.0583396
3123.91	-0.0699663
3125.18	0.384151
3126.45	-0.109192
3127.73	0.277585
3129	0.123453
3130.27	0.0372438
3131.54	-0.0218205
3132.81	0.554128
3134.08	0.521573
3135.35	0.326676
3136.62	0.401418
3137.89	0.233041
3139.16	0.307131
3140.43	0.0175872
3141.7	0.279911
3142.97	0.21952
3144.24	0.454891
3145.51	0.435414
3146.78	0.295781
3148.04	0.250542
3149.31	0.647564
