200.423	0.771256
202.238	0.81308
204.052	0.85604
205.868	1.02155
207.682	0.554861
209.495	0.840956
211.308	0.56646
213.12	0.338876
214.935	0.570821
216.746	0.704387
218.558	0.837516
220.369	0.196442
222.18	0.0649681
223.992	0.103722
225.802	0.239476
227.612	-0.398084
229.421	0.751002
231.23	-0.29822
233.039	-0.502788
234.849	0.112815
236.657	-0.162781
238.465	0.214656
240.272	0.112727
242.079	-0.203819
243.885	0.180285
245.691	0.29895
247.497	-0.0914068
249.305	-0.0748158
251.11	0.324086
252.915	-0.19795
254.719	0.243044
256.523	0.0318136
258.327	-0.347213
260.13	0.263444
261.933	0.22551
263.736	0.0207062
265.538	0.226506
267.34	-0.00121975
269.141	0.180153
270.943	0.28807
272.744	0.56318
274.544	-0.586121
276.344	-0.531941
278.144	0.146443
279.944	-0.743863
281.743	0.819423
283.542	0.550111
285.34	0.447501
287.138	-0.352111
288.936	-0.143295
290.733	0.712534
292.53	0.203959
294.327	0.989472
296.123	0.628171
297.919	0.148846
299.715	-0.258047
301.508	0.266416
303.303	0.622255
305.098	0.642021
306.892	0.421925
308.686	0.082407
310.479	0.649076
312.273	0.168576
314.065	0.285407
315.858	0.7376
317.648	0.310705
319.44	0.123531
321.231	0.604777
323.022	0.061882
324.813	0.473183
326.604	0.216431
328.392	0.771217
330.181	0.465152
331.971	-0.0341263
333.76	0.445037
335.548	0.993555
337.335	0.342696
339.123	1.07695
340.91	0.158566
342.698	0.57842
344.483	0.376437
346.269	0.151181
348.055	0.78636
349.841	-0.0583849
351.625	0.600805
353.41	0.376053
355.195	1.15194
356.977	0.08951
358.762	0.55161
360.545	0.55916
362.329	0.232305
364.11	0.784702
365.893	0.218608
367.675	0.649366
369.455	-0.297136
371.237	0.0362844
373.017	0.675617
374.798	0.131301
376.578	-0.199372
378.357	0.579431
380.137	0.179754
381.917	-0.147326
383.694	0.209563
385.473	0.449888
387.249	0.0568943
389.028	-0.24064
390.806	0.496401
392.581	0.881857
394.359	-0.281965
396.134	0.0810251
397.91	0.444104
399.684	-0.0151272
401.46	-0.122639
403.234	0.732043
405.009	0.176525
406.784	0.629927
408.557	0.471934
410.331	-0.343704
412.103	0.460246
413.876	-0.56592
415.647	0.731696
417.42	0.55195
419.191	0.232087
420.961	0.264445
422.733	-0.172994
424.502	0.351145
426.273	0.287301
428.042	0.386729
429.812	0.250782
431.58	0.983159
433.35	0.518834
435.118	-0.602256
436.885	-0.385665
438.653	-0.240285
440.42	0.560413
442.188	-0.189868
443.954	0.159861
445.719	0.600597
447.486	-0.0609589
449.251	0.119863
451.015	0.0434065
452.781	0.410933
454.545	0.498195
456.308	-0.113943
458.073	0.345931
459.836	-0.474763
461.598	-0.0611
463.362	-0.506198
465.124	0.283118
466.885	0.0531836
468.648	0.26792
470.408	0.252517
472.169	0.470535
473.929	0.222284
475.69	0.856791
477.45	0.627014
479.208	0.185248
480.967	0.767155
482.727	0.673658
484.485	0.488379
486.243	0.701377
488	0.753989
489.759	-0.0537996
491.515	0.959162
493.272	0.619568
495.028	0.700562
496.783	0.687971
498.54	0.346992
500.295	0.755262
502.05	0.975677
503.804	0.255813
505.558	0.967286
507.311	0.502105
509.064	0.740383
510.819	0.670943
512.572	0.693668
514.324	1.04396
516.076	0.921923
517.827	0.821949
519.578	0.62676
521.329	0.336823
523.08	0.821545
524.83	0.249268
526.58	0.123273
528.329	0.466362
530.08	0.762084
531.829	0.869633
533.578	0.0865974
535.326	0.449363
537.074	0.80986
538.821	0.817742
540.568	0.311071
542.315	0.223851
544.062	0.997144
545.808	0.118725
547.554	0.240577
549.299	0.15379
551.044	1.06318
552.789	0.675451
554.533	0.0808363
556.278	0.595743
558.019	0.118516
559.763	0.380012
561.506	0.526621
563.249	0.443687
564.991	0.407562
566.733	0.050683
568.475	1.02674
570.217	0.901672
571.958	0.388433
573.699	-0.351999
575.439	0.538418
577.177	0.398606
578.917	-0.359476
580.656	-0.10677
582.396	0.881685
584.134	0.537065
585.873	0.78889
587.609	-0.294906
589.347	0.805163
591.084	0.891904
592.822	-0.0803728
594.558	0.0975523
596.295	-0.345657
598.029	0.131395
599.765	-0.864356
601.5	0.370481
603.235	-0.00647163
604.968	0.350771
606.703	0.292508
608.437	-0.294865
610.171	0.495312
611.902	-0.022294
613.635	0.195218
615.368	0.230035
617.099	0.471284
618.831	0.185013
620.563	0.19531
622.294	0.135495
624.024	0.349056
625.755	0.425205
627.485	0.456865
629.213	-0.0568123
630.943	0.390899
632.673	-0.870351
634.4	1.01896
636.129	0.64869
637.855	0.550231
639.584	0.653908
641.312	0.0467749
643.037	0.326385
644.764	1.24144
646.491	0.995035
648.216	0.546824
649.942	0.216541
651.666	0.640838
653.392	0.115448
655.115	0.457891
656.84	-0.699006
658.563	-0.261565
660.287	0.085124
662.011	0.590542
663.732	0.134129
665.456	0.223063
667.177	0.309764
668.899	0.807228
670.62	0.596542
672.342	0.410997
674.061	0.205331
675.781	0.116546
677.502	-0.200293
679.22	0.470052
680.941	0.841728
682.659	0.13054
684.379	0.520835
686.096	-0.0120506
687.815	0.880909
689.532	1.3812
691.248	0.65975
692.966	0.513397
694.682	0.941984
696.4	0.194807
698.115	0.0451574
699.829	0.814581
701.546	0.730876
703.26	0.5312
704.974	0.744342
706.689	0.795864
708.402	1.5577
710.115	0.186909
711.83	0.901274
713.542	1.1337
715.254	1.25119
716.967	1.18574
718.679	1.2118
720.39	1.28363
722.102	0.922857
723.812	1.65494
725.522	0.907974
727.232	0.956928
728.943	0.732956
730.652	1.07565
732.361	0.783063
734.069	1.21482
735.779	0.267008
737.487	1.78279
739.194	1.10829
740.901	1.08988
742.608	1.63615
744.316	1.21541
746.022	0.819392
747.728	0.897811
749.433	0.572969
751.138	0.699593
752.843	0.670341
754.549	0.755227
756.254	0.459371
757.957	0.705483
759.661	0.660742
761.364	1.40642
763.067	1.47701
764.769	0.937779
766.471	0.893566
768.175	1.20883
769.877	1.7252
771.578	2.05825
773.279	1.28145
774.98	1.65729
776.68	1.64937
778.38	1.5074
780.079	1.503
781.779	2.02037
783.478	1.24835
785.176	1.26689
786.875	1.509
788.573	1.38511
790.27	1.70968
791.968	0.809937
793.665	1.64846
795.361	1.10896
797.058	0.954669
798.754	1.29804
800.45	1.23802
802.145	1.08983
803.84	1.23499
805.535	1.94188
807.23	1.59108
808.922	1.21677
810.616	1.15568
812.309	0.981437
814.002	1.12046
815.695	1.70668
817.388	1.95635
819.08	2.02689
820.772	0.914015
822.464	2.03467
824.153	1.43781
825.844	1.19997
827.535	1.20993
829.225	0.73324
830.915	1.28463
832.605	0.993112
834.292	1.97447
835.981	2.0438
837.67	0.729313
839.359	1.73429
841.047	1.62132
842.732	1.52896
844.42	0.72085
846.107	0.986017
847.794	0.918023
849.479	0.427747
851.165	1.39512
852.851	0.864906
854.534	1.27715
856.22	1.19597
857.905	0.528747
859.589	1.25355
861.272	0.873895
862.956	1.1677
864.639	0.378432
866.321	1.23323
868.004	1.14064
869.687	1.18278
871.367	0.683167
873.049	1.35632
874.731	1.23983
876.41	0.739696
878.092	0.781126
879.771	0.641881
881.451	0.840804
883.131	1.10664
884.809	1.12283
886.489	1.25015
888.166	1.28524
889.845	0.957495
891.522	1.25935
893.2	1.49155
894.878	0.754342
896.554	1.29853
898.231	0.987011
899.906	0.697468
901.583	0.519619
903.258	1.28139
904.934	0.990576
906.608	1.48202
908.283	0.724551
909.956	0.74933
911.631	1.06433
913.304	0.735058
914.976	0.606698
916.65	1.14413
918.322	1.63618
919.995	1.10889
921.666	0.185069
923.339	0.524031
925.009	0.334278
926.679	0.897602
928.351	0.513433
930.021	0.373725
931.692	-0.00779819
933.361	0.978857
935.029	0.796434
936.699	0.570447
938.367	0.808661
940.035	1.57771
941.704	1.24552
943.371	0.847928
945.038	1.50942
946.706	0.646615
948.372	0.620334
950.038	0.437276
951.705	0.58375
953.37	0.553727
955.035	0.0624676
956.7	0.147782
958.366	0.214841
960.03	0.837077
961.693	1.6388
963.357	0.805863
965.021	0.522769
966.684	1.01058
968.346	0.698555
970.008	0.096344
971.67	0.26742
973.334	0.593725
974.995	1.43031
976.655	0.699028
978.316	0.588749
979.976	0.357544
981.638	0.125782
983.297	0.501157
984.957	0.475779
986.616	0.226576
988.274	0.882454
989.932	1.0718
991.59	0.486589
993.248	0.343571
994.907	0.642297
996.565	0.499598
998.221	1.17285
999.878	1.40431
1001.53	1.15049
1003.19	1.57867
1004.85	0.774303
1006.5	0.849941
1008.16	1.3648
1009.81	0.760182
1011.46	0.968325
1013.12	1.15486
1014.77	1.38549
1016.43	0.850162
1018.08	1.10374
1019.73	0.439518
1021.38	1.39497
1023.04	1.45512
1024.69	0.970152
1026.34	1.09793
1027.99	1.53162
1029.64	0.959476
1031.29	2.32979
1032.94	2.51807
1034.59	3.7947
1036.24	4.15187
1037.89	5.44392
1039.54	6.08068
1041.19	7.65284
1042.84	9.89909
1044.48	10.2127
1046.13	10.704
1047.78	10.8516
1049.42	11.0027
1051.07	8.96285
1052.72	7.42362
1054.36	5.53677
1056.01	4.51843
1057.66	3.95571
1059.3	3.30507
1060.94	2.74029
1062.59	1.73944
1064.23	1.30271
1065.88	1.10386
1067.52	1.12102
1069.16	1.02826
1070.81	1.15188
1072.45	0.363526
1074.09	0.813178
1075.73	0.374457
1077.38	0.913482
1079.02	0.781718
1080.66	0.867796
1082.3	-0.000217438
1083.94	0.800364
1085.58	0.904995
1087.22	1.26697
1088.86	1.06285
1090.5	0.44564
1092.13	1.36276
1093.77	0.679383
1095.41	0.75263
1097.05	0.201621
1098.68	0.622469
1100.32	0.35604
1101.96	0.565638
1103.6	0.863363
1105.23	0.40983
1106.87	0.150707
1108.5	0.643978
1110.14	0.748734
1111.77	0.572035
1113.41	0.651239
1115.04	0.449665
1116.67	0.633741
1118.31	0.303156
1119.94	0.70225
1121.58	0.0529079
1123.21	0.775284
1124.84	0.899266
1126.47	1.25957
1128.1	1.15026
1129.73	1.34126
1131.37	0.977113
1133	0.955463
1134.63	0.890911
1136.26	0.782822
1137.89	0.0324316
1139.52	0.712132
1141.14	0.343839
1142.77	1.04218
1144.4	0.566915
1146.03	0.220849
1147.66	-0.251624
1149.29	0.406399
1150.91	0.361802
1152.54	0.338543
1154.17	-0.174781
1155.79	-0.113664
1157.42	0.372764
1159.04	-0.0978079
1160.67	0.177134
1162.3	-0.227047
1163.92	-0.481135
1165.55	0.285966
1167.17	0.244832
1168.79	0.351228
1170.42	0.370486
1172.04	0.217353
1173.66	0.868966
1175.28	0.393633
1176.91	0.575493
1178.53	0.0159197
1180.15	0.198855
1181.77	0.615331
1183.39	-0.194057
1185.01	-0.157275
1186.63	-0.480594
1188.25	0.692673
1189.87	-0.267541
1191.49	-0.112154
1193.11	-0.0851698
1194.73	0.129691
1196.35	-0.159235
1197.97	0.265604
1199.59	0.273241
1201.2	0.430012
1202.82	0.464581
1204.44	0.00149441
1206.05	0.0838346
1207.67	0.0426054
1209.29	-0.10254
1210.9	-0.081728
1212.52	0.312335
1214.13	0.0156784
1215.75	0.570376
1217.36	0.393757
1218.97	0.361649
1220.59	0.661558
1222.2	0.152892
1223.82	0.247568
1225.43	0.261112
1227.04	0.773128
1228.65	0.479736
1230.26	0.72573
1231.88	0.911077
1233.49	0.829208
1235.1	1.4723
1236.71	1.22824
1238.32	1.10949
1239.93	0.929538
1241.54	0.667011
1243.15	1.33494
1244.76	1.36068
1246.37	0.909168
1247.97	1.07712
1249.58	1.14062
1251.19	0.83131
1252.8	0.853288
1254.41	0.896833
1256.01	1.58294
1257.62	1.69156
1259.23	1.73968
1260.83	1.20944
1262.44	1.77696
1264.04	1.57847
1265.65	1.29642
1267.25	1.96677
1268.86	1.55808
1270.46	1.54186
1272.07	1.08883
1273.67	1.04918
1275.27	1.89956
1276.88	1.17341
1278.48	1.02667
1280.08	1.37619
1281.68	1.80779
1283.28	1.22544
1284.89	1.82298
1286.49	1.90444
1288.09	2.21461
1289.69	1.55464
1291.29	1.63939
1292.89	1.57941
1294.49	2.13823
1296.09	1.39398
1297.69	2.07258
1299.29	2.0674
1300.88	1.19431
1302.48	1.74229
1304.08	1.81468
1305.68	2.00933
1307.27	2.57254
1308.87	2.00578
1310.47	1.41973
1312.06	2.16607
1313.66	2.05292
1315.25	2.55432
1316.85	2.03533
1318.44	0.926251
1320.04	1.75546
1321.63	1.56368
1323.23	1.85867
1324.82	1.94744
1326.41	1.68901
1328.01	2.14003
1329.6	1.63895
1331.19	1.84896
1332.78	1.15223
1334.38	2.01419
1335.97	2.07008
1337.56	1.46112
1339.15	2.18238
1340.74	1.85308
1342.33	2.60813
1343.92	0.906613
1345.51	2.35955
1347.1	2.04451
1348.69	1.65232
1350.28	2.28477
1351.87	1.83976
1353.46	1.91779
1355.04	1.73772
1356.63	1.71813
1358.22	1.3584
1359.81	1.39708
1361.39	1.03514
1362.98	1.09141
1364.57	1.9645
1366.15	0.983917
1367.74	0.90153
1369.32	1.59707
1370.91	0.940746
1372.49	1.91809
1374.07	0.867249
1375.66	0.792284
1377.24	1.27462
1378.83	1.37827
1380.41	1.08266
1381.99	1.2828
1383.57	1.62033
1385.16	1.30031
1386.74	1.97333
1388.32	1.05727
1389.9	0.778031
1391.48	1.37322
1393.06	1.33429
1394.64	0.93889
1396.22	1.35644
1397.8	1.33675
1399.38	1.23652
1400.96	0.897452
1402.54	0.597569
1404.12	1.64323
1405.7	1.42296
1407.28	1.4412
1408.85	1.59886
1410.43	1.28306
1412.01	1.77701
1413.58	1.12497
1415.16	1.75479
1416.74	1.69264
1418.31	1.86652
1419.89	1.68603
1421.46	1.84186
1423.04	1.92094
1424.61	1.56922
1426.19	1.92778
1427.76	1.63759
1429.33	1.20926
1430.91	2.03945
1432.48	1.96266
1434.05	2.49446
1435.63	2.15997
1437.2	2.86795
1438.77	2.18099
1440.34	3.02863
1441.91	2.24632
1443.49	2.56557
1445.05	2.78712
1446.63	2.91068
1448.2	2.60202
1449.77	2.98176
1451.34	2.73307
1452.91	2.89803
1454.47	2.8669
1456.04	2.54057
1457.61	3.23658
1459.18	2.96661
1460.75	2.41871
1462.31	3.28493
1463.88	2.29963
1465.45	1.96235
1467.01	1.88029
1468.58	2.54484
1470.15	1.40453
1471.71	2.09101
1473.28	1.9548
1474.84	1.64322
1476.41	1.41074
1477.97	1.3353
1479.54	0.789347
1481.1	0.733395
1482.66	1.0301
1484.23	1.30695
1485.79	1.44613
1487.35	1.1338
1488.91	0.937463
1490.48	1.1303
1492.04	1.00724
1493.6	1.35035
1495.16	1.24164
1496.72	0.897902
1498.28	1.09958
1499.84	0.62121
1501.4	0.960646
1502.96	0.75788
1504.52	1.17665
1506.08	1.09173
1507.64	0.967489
1509.2	0.803555
1510.76	0.657795
1512.31	0.761799
1513.87	0.557101
1515.43	-0.300425
1516.99	0.841518
1518.54	0.792805
1520.1	1.35798
1521.66	0.391422
1523.21	0.802776
1524.77	0.944929
1526.32	0.818477
1527.88	0.786381
1529.43	0.943777
1530.99	0.739932
1532.54	0.480383
1534.09	0.279448
1535.65	0.628802
1537.2	0.35505
1538.75	0.875501
1540.31	0.43372
1541.86	0.972535
1543.41	0.7762
1544.96	0.749205
1546.51	0.684431
1548.06	0.67587
1549.62	0.367369
1551.17	1.12703
1552.72	1.39948
1554.27	0.71944
1555.82	1.27488
1557.36	0.469268
1558.91	1.23416
1560.46	0.975054
1562.01	0.550164
1563.56	0.816931
1565.11	1.08449
1566.66	1.25898
1568.2	1.26524
1569.75	0.56171
1571.3	1.79895
1572.84	1.37453
1574.39	1.28592
1575.93	1.30934
1577.48	1.09033
1579.02	1.30122
1580.57	0.74738
1582.11	1.18415
1583.66	1.45408
1585.2	1.78121
1586.75	0.725744
1588.29	1.5587
1589.83	0.520905
1591.38	1.31622
1592.92	1.60592
1594.46	1.35223
1596	1.09843
1597.54	1.68838
1599.09	1.71713
1600.63	1.29663
1602.17	1.60827
1603.71	1.80757
1605.25	2.11892
1606.79	1.62062
1608.33	1.98416
1609.87	1.3486
1611.41	1.44308
1612.95	1.40349
1614.48	1.34348
1616.02	1.17044
1617.56	1.46678
1619.1	1.31463
1620.64	0.977235
1622.17	0.903876
1623.71	1.50555
1625.25	1.54557
1626.78	1.17289
1628.32	1.4349
1629.86	1.65751
1631.39	1.16833
1632.92	1.20217
1634.46	1.38567
1635.99	1.38341
1637.53	1.79262
1639.06	1.64306
1640.59	1.99688
1642.13	1.64172
1643.66	1.60201
1645.19	1.95158
1646.73	2.24368
1648.26	1.53152
1649.79	2.15777
1651.32	2.45046
1652.85	2.35502
1654.38	1.83476
1655.92	1.68642
1657.45	1.40842
1658.98	2.75954
1660.51	2.03433
1662.04	1.80755
1663.57	2.22656
1665.09	1.35122
1666.62	1.91723
1668.15	1.69077
1669.68	1.743
1671.21	1.24437
1672.73	1.35534
1674.26	0.932814
1675.79	1.37554
1677.31	1.39371
1678.84	1.53926
1680.37	1.70169
1681.89	1.12796
1683.42	1.12375
1684.94	1.54169
1686.47	0.602448
1687.99	0.434675
1689.52	1.27509
1691.04	0.192463
1692.57	1.03257
1694.09	0.280416
1695.61	0.826844
1697.14	0.403961
1698.66	0.0907097
1700.18	0.489076
1701.7	0.320921
1703.22	0.134087
1704.75	0.657056
1706.27	1.06944
1707.79	0.0627623
1709.31	0.311002
1710.83	0.105209
1712.35	0.31703
1713.87	-0.0148315
1715.39	0.124603
1716.91	-0.0256662
1718.43	0.239825
1719.95	0.288097
1721.46	-0.18675
1722.98	0.367452
1724.5	0.219432
1726.02	0.325275
1727.53	0.000649452
1729.05	-0.142611
1730.57	0.271101
1732.08	0.37536
1733.6	0.424641
1735.12	0.0257082
1736.63	0.0343914
1738.15	0.17645
1739.66	-0.00158596
1741.18	0.546516
1742.69	-0.0640726
1744.21	-0.0331955
1745.72	0.308199
1747.23	0.464629
1748.74	-0.00750446
1750.26	0.0890131
1751.77	0.133652
1753.28	-0.0976782
1754.8	-0.0253468
1756.31	0.157092
1757.82	0.0484962
1759.33	-0.361422
1760.84	0.139708
1762.35	0.257226
1763.86	0.0944118
1765.37	-0.262582
1766.88	0.0705738
1768.39	-0.254497
1769.9	-0.179719
1771.41	-0.274535
1772.92	0.338136
1774.43	0.316315
1775.93	-0.0658655
1777.44	-0.056571
1778.95	-0.207837
1780.46	-0.0559216
1781.96	0.091507
1783.47	0.0328293
1784.98	0.21036
1786.48	0.166297
1787.99	-0.0477858
1789.49	-0.100168
1791	0.0592661
1792.5	-0.00631523
1794.01	-0.075511
1795.51	-0.20754
1797.02	0.248028
1798.52	0.084404
1800.03	0.289777
1801.53	-0.310218
1803.03	-0.104892
1804.53	0.208117
1806.04	-0.369913
1807.54	0.0573969
1809.04	0.17344
1810.54	0.13709
1812.04	0.00209332
1813.54	0.180331
1815.05	-0.0192356
1816.55	0.274254
1818.05	0.174695
1819.55	-0.0534773
1821.05	0.17392
1822.55	-0.054348
1824.05	0.116626
1825.54	-0.0325937
1827.04	-0.226398
1828.54	0.203905
1830.04	0.209473
1831.54	0.132652
1833.03	-0.126266
1834.53	0.0146189
1836.03	-0.0594015
1837.52	0.0787306
1839.02	-0.220359
1840.52	-0.0387917
1842.01	-0.037632
1843.51	0.16466
1845	0.034853
1846.5	0.0952921
1847.99	0.141537
1849.49	0.196079
1850.98	-0.0593557
1852.47	0.404454
1853.97	0.14412
1855.46	0.113674
1856.95	-0.0237522
1858.45	-0.262512
1859.94	0.248894
1861.43	0.127048
1862.92	0.230552
1864.41	0.0318804
1865.91	0.188569
1867.4	0.33851
1868.89	0.241608
1870.38	-0.011713
1871.87	0.0868607
1873.36	0.288476
1874.85	0.502743
1876.34	0.534013
1877.83	-0.0816708
1879.31	0.245705
1880.8	-0.346814
1882.29	0.0385046
1882.56	0.156497
1884.05	0.365559
1885.54	0.155283
1887.04	-0.264853
1888.53	0.515979
1890.03	-0.443574
1891.52	0.372797
1893.01	0.599482
1894.5	0.202511
1895.99	-0.105676
1897.49	0.213119
1898.98	-0.0421572
1900.47	0.327559
1901.96	-0.0179291
1903.45	-0.174097
1904.94	-0.244922
1906.43	-0.038599
1907.92	0.167496
1909.41	0.0790682
1910.9	0.00919342
1912.39	0.183296
1913.88	0.25394
1915.37	0.56743
1916.86	0.169572
1918.35	0.256557
1919.84	-0.263469
1921.32	-0.0384617
1922.81	-0.401825
1924.3	-0.0195608
1925.78	-0.380425
1927.27	0.523742
1928.76	0.0263891
1930.24	0.152257
1931.73	0.398382
1933.21	-0.309628
1934.7	0.330768
1936.18	0.207364
1937.67	0.0653858
1939.15	0.164952
1940.64	-0.132374
1942.12	-0.238503
1943.6	0.174196
1945.09	0.535886
1946.57	0.346159
1948.05	0.380291
1949.54	0.0861826
1951.02	0.410975
1952.5	-0.0744429
1953.98	0.0935135
1955.46	0.19243
1956.94	-0.292162
1958.42	-0.157519
1959.91	0.0464602
1961.39	0.319489
1962.87	0.0954762
1964.34	0.128414
1965.82	0.468951
1967.3	0.346187
1968.78	-0.119317
1970.26	-0.225952
1971.74	0.145508
1973.22	0.0726032
1974.7	0.426315
1976.17	0.541142
1977.65	0.485707
1979.13	0.209204
1980.6	0.069108
1982.08	-0.546949
1983.56	0.485145
1985.03	0.564822
1986.51	0.0504789
1987.98	0.316462
1989.46	-0.315055
1990.93	-0.606448
1992.41	0.152176
1993.88	0.353364
1995.36	-0.0698795
1996.83	-0.255816
1998.3	-0.0701399
1999.78	0.283712
2001.25	0.43405
2002.72	0.431849
2004.2	0.480061
2005.67	-0.0947866
2007.14	0.207586
2008.61	-0.0952883
2010.08	0.579442
2011.55	0.598114
2013.02	0.313873
2014.49	0.449902
2015.97	0.248445
2017.43	-0.0212555
2018.9	0.0781269
2020.37	0.462403
2021.84	1.01405
2023.31	0.424198
2024.78	0.355971
2026.25	-0.0462427
2027.72	0.408752
2029.19	0.496543
2030.65	0.636312
2032.12	0.794137
2033.59	0.432237
2035.05	0.691411
2036.52	0.362325
2037.98	0.469278
2039.45	0.340513
2040.92	0.362917
2042.38	0.520322
2043.85	0.460073
2045.31	0.182137
2046.78	0.510915
2048.24	0.587734
2049.71	0.630516
2051.17	0.604622
2052.63	0.391283
2054.1	0.0744915
2055.56	0.0929518
2057.02	0.244655
2058.48	0.631223
2059.95	0.495154
2061.41	0.309186
2062.87	0.528304
2064.33	0.479275
2065.79	0.532449
2067.25	0.317368
2068.71	-0.0653515
2070.17	0.0908661
2071.63	0.331361
2073.09	1.00953
2074.55	-0.0637674
2076.01	0.276953
2077.47	0.246777
2078.93	0.620284
2080.39	0.35333
2081.85	0.557176
2083.3	0.928462
2084.76	1.16401
2086.22	0.574223
2087.68	0.690346
2089.13	0.6378
2090.59	0.837012
2092.05	0.616218
2093.5	0.311643
2094.96	0.459881
2096.41	0.355952
2097.87	1.03854
2099.32	0.715224
2100.78	0.793369
2102.23	1.12232
2103.69	0.867413
2105.14	0.914815
2106.59	0.847108
2108.05	1.18101
2109.5	1.06494
2110.95	0.38146
2112.41	0.763321
2113.86	1.0428
2115.31	0.571146
2116.76	1.26291
2118.21	1.00714
2119.67	1.0024
2121.12	1.33185
2122.57	1.0996
2124.02	1.39989
2125.47	1.40245
2126.92	1.52072
2128.37	1.40559
2129.82	1.30533
2131.27	1.28635
2132.71	1.64711
2134.16	1.21337
2135.61	1.65742
2137.06	1.06169
2138.51	1.06345
2139.95	1.8608
2141.4	1.45376
2142.85	2.05667
2144.29	1.85027
2145.74	1.6273
2147.19	2.03293
2148.63	1.75894
2150.08	1.99725
2151.52	1.96924
2152.97	2.43702
2154.42	1.66105
2155.86	2.4419
2157.3	2.29506
2158.75	2.31484
2160.19	2.55174
2161.64	2.50939
2163.08	2.22077
2164.52	2.29878
2165.96	2.4444
2167.41	2.05842
2168.85	2.41867
2170.29	2.21142
2171.73	2.31736
2173.17	1.83853
2174.61	2.20633
2176.06	2.09098
2177.5	2.04246
2178.94	1.74555
2180.38	2.33105
2181.82	2.06976
2183.26	1.94219
2184.7	2.5135
2186.14	2.41968
2187.57	1.85994
2189.01	2.0323
2190.45	1.97167
2191.89	2.16038
2193.33	2.36481
2194.76	2.1013
2196.2	1.73564
2197.64	1.8003
2199.08	1.92922
2200.51	1.24254
2201.95	1.91806
2203.38	1.316
2204.82	1.67773
2206.25	1.95751
2207.69	1.31
2209.12	1.40796
2210.56	1.53794
2211.99	1.63344
2213.43	1.34771
2214.86	1.64033
2216.3	1.47114
2217.73	1.69951
2219.16	1.6489
2220.59	1.5994
2222.03	1.63248
2223.46	1.82936
2224.89	1.46441
2226.32	1.31166
2227.75	1.28862
2229.19	1.37898
2230.62	1.27133
2232.05	1.26198
2233.48	1.26936
2234.91	1.22861
2236.34	1.07504
2237.77	1.3481
2239.2	1.10106
2240.63	0.726187
2242.06	0.728708
2243.48	1.0752
2244.91	1.09591
2246.34	0.789565
2247.77	0.856471
2249.2	0.676221
2250.62	1.43839
2252.05	0.862507
2253.48	0.741976
2254.9	1.14192
2256.33	0.487781
2257.76	0.616057
2259.18	0.634036
2260.61	0.460739
2262.03	0.728422
2263.46	0.949521
2264.88	0.943684
2266.31	0.286961
2267.73	0.409514
2269.16	0.0428724
2270.58	0.261136
2272	0.348678
2273.43	0.957218
2274.85	0.490993
2276.27	0.839472
2277.69	0.79718
2279.12	0.428882
2280.54	0.859354
2281.96	0.637446
2283.38	0.35006
2284.8	0.780606
2286.22	-0.0125999
2287.64	0.402419
2289.07	0.687551
2290.49	0.156345
2291.91	0.491416
2293.32	0.581591
2294.74	0.671814
2296.16	0.598319
2297.58	0.508316
2299	0.00872517
2300.42	0.590648
2301.84	0.320741
2303.26	0.13292
2304.67	0.0599728
2306.09	0.890143
2307.51	0.159739
2308.92	0.332151
2310.34	-0.170186
2311.76	-0.0317831
2313.17	0.485114
2314.59	0.229205
2316	0.385603
2317.42	0.872553
2318.83	0.519825
2320.25	0.760189
2321.66	0.504421
2323.08	-0.133311
2324.49	0.497037
2325.91	0.29963
2327.32	1.08986
2328.73	0.938938
2330.15	0.70608
2331.56	0.309886
2332.97	0.0140305
2334.38	0.426803
2335.79	0.000685692
2337.21	0.0347452
2338.62	0.412919
2340.03	0.510087
2341.44	0.556767
2342.85	0.389461
2344.26	0.222342
2345.67	0.285204
2347.08	-0.159433
2348.49	0.231303
2349.9	0.113997
2351.31	0.257502
2352.72	-0.15564
2354.13	-0.144851
2355.53	0.125952
2356.94	0.00503731
2358.35	0.453598
2359.76	0.592653
2361.17	0.00117874
2362.57	0.205347
2363.98	0.327975
2365.39	0.110548
2366.79	0.313971
2368.2	-0.0151062
2369.6	-0.277891
2371.01	0.170416
2372.42	0.200789
2373.82	0.361088
2375.22	-0.347517
2376.63	0.0220251
2378.03	0.0522947
2379.44	0.0325851
2380.84	-0.117376
2382.25	0.212434
2383.65	-0.116138
2385.05	0.0996656
2386.45	0.203581
2387.86	0.30828
2389.26	0.079318
2390.66	0.616857
2392.06	0.8525
2393.46	0.0707426
2394.87	0.0859041
2396.27	0.388003
2397.67	0.0866919
2399.07	0.278749
2400.47	0.0423632
2401.87	0.473513
2403.27	0.142275
2404.67	0.0488949
2406.07	0.367288
2407.47	-0.235901
2408.86	0.0328522
2410.26	0.34852
2411.66	0.0937777
2413.06	-0.34985
2414.46	-0.0160322
2415.85	-0.377265
2417.25	0.038682
2418.65	0.281546
2420.05	0.144803
2421.44	-0.530715
2422.84	0.234855
2424.23	0.366521
2425.63	0.213058
2427.03	-0.019104
2428.42	0.352017
2429.82	0.470715
2431.21	0.368176
2432.6	0.74194
2434	0.257797
2435.39	0.0738497
2436.79	0.507821
2438.18	0.145661
2439.57	0.624019
2440.97	0.116515
2442.36	-0.391253
2443.75	0.0372572
2445.14	0.433498
2446.54	0.480423
2447.93	0.305286
2449.32	0.33621
2450.71	0.114038
2452.1	0.462425
2453.49	0.131101
2454.88	0.164751
2456.27	0.420628
2457.66	0.502828
2459.05	-0.0794744
2460.44	0.318201
2461.83	-0.265455
2463.22	0.209318
2464.61	0.65149
2466	0.0980349
2467.39	0.744629
2468.77	0.365006
2470.16	0.0485773
2471.55	0.126009
2472.94	-0.348763
2474.32	0.183738
2475.71	-0.134675
2477.1	0.034234
2478.48	0.391267
2479.87	0.104557
2481.25	0.27319
2482.64	0.410139
2484.02	0.280202
2485.41	0.384068
2486.8	-0.0291185
2488.18	0.165968
2489.56	0.203903
2490.95	0.039258
2492.33	0.0310583
2493.72	0.117233
2495.1	0.0185843
2496.48	-0.0475035
2497.86	0.414051
2499.25	0.287093
2500.63	0.221793
2502.01	-0.122484
2503.39	-0.142987
2504.77	0.498824
2506.16	0.106254
2507.54	0.453018
2508.92	0.291844
2510.3	0.0854359
2511.68	-0.0738096
2513.06	0.227944
2514.44	0.346374
2515.82	0.297266
2517.2	0.325577
2518.58	0.0334139
2519.95	-0.334665
2521.33	-0.2292
2522.71	-0.2772
2524.09	-0.310781
2525.47	-0.0250349
2526.84	0.229508
2528.22	-0.00278568
2529.6	-0.0662689
2530.98	-0.0367565
2532.35	-0.233336
2533.73	0.103361
2535.11	0.136954
2536.48	0.140093
2537.86	0.0209579
2539.23	-0.114383
2540.61	-0.113905
2541.98	0.311148
2543.36	0.326586
2544.73	0.251976
2546.1	0.375958
2547.48	0.546848
2548.85	0.400163
2550.23	0.177603
2551.6	0.288311
2552.97	-0.0269365
2554.34	-0.00944424
2555.72	0.0677528
2557.09	0.159477
2558.46	0.220686
2559.83	0.494392
2561.2	0.192655
2562.58	0.285745
2563.95	0.349171
2565.32	0.0948439
2566.69	0.416655
2568.06	0.26878
2569.43	0.317931
2570.8	0.200362
2572.17	0.461769
2573.54	-0.186216
2574.91	0.105718
2576.27	0.352247
2577.64	0.477434
2579.01	0.329438
2580.38	0.635936
2581.75	0.0321903
2583.11	0.201344
2584.48	0.0215244
2585.85	0.266124
2587.21	0.0409498
2588.58	0.255531
2589.95	0.636913
2591.31	0.15434
2592.68	0.141043
2594.04	0.187446
2595.41	-0.312465
2596.78	0.352418
2598.14	0.0324373
2599.51	-0.408527
2600.87	0.178614
2602.23	0.0105734
2603.6	-0.0358076
2604.96	0.0844393
2606.32	0.00871181
2607.69	0.158855
2609.05	-0.0236359
2610.41	-0.177117
2611.77	0.0444527
2613.14	0.204227
2614.5	0.0173721
2615.86	0.0857105
2617.22	0.0342512
2618.58	-0.0763378
2619.94	0.128345
2621.3	0.363421
2622.67	0.0459032
2624.03	0.132225
2625.39	0.248219
2626.75	0.140098
2628.1	0.225475
2629.46	0.295502
2630.82	0.0676308
2632.18	0.211652
2633.54	0.147443
2634.9	-0.139321
2636.26	-0.0252485
2637.61	0.103446
2638.97	0.320832
2640.33	0.301342
2641.69	0.341315
2643.04	-0.165045
2644.4	0.303815
2645.76	-0.127951
2647.11	-0.161515
2648.47	-0.00428963
2649.82	0.10763
2651.18	0.027482
2652.53	0.00590801
2653.89	-0.000694275
2655.24	0.140112
2656.6	0.428354
2657.95	-0.0728617
2659.31	-0.0751543
2660.66	0.171552
2662.01	0.184025
2663.37	0.341882
2664.72	0.542418
2666.07	0.0125628
2667.43	-0.00691509
2668.78	0.250208
2670.13	0.143492
2671.48	0.211995
2672.83	0.0922241
2674.18	0.379897
2675.53	-0.0723248
2676.89	0.0568199
2678.24	0.0270557
2679.59	-0.335272
2680.94	0.0865231
2682.29	0.306614
2683.64	0.136552
2684.99	-0.0905647
2686.34	-0.172227
2687.68	0.515142
2689.03	0.040123
2690.38	0.245506
2691.73	0.173066
2693.08	0.0845022
2694.43	-0.0485182
2695.77	-0.1381
2697.12	0.381474
2698.47	0.424228
2699.81	-0.00896072
2701.16	0.182412
2702.51	0.50586
2703.85	0.453956
2705.2	0.199624
2706.54	0.0321283
2707.89	0.15442
2709.23	0.392512
2710.58	0.398004
2711.92	0.3451
2713.27	0.422792
2714.61	0.166134
2715.96	0.374538
2717.3	-0.0279474
2718.64	0.267372
2719.99	0.562429
2721.33	0.420484
2722.67	0.452614
2724.01	0.396889
2725.36	0.107786
2726.7	0.153055
2728.04	0.139761
2729.38	0.388151
2730.72	0.33077
2732.06	0.375213
2733.41	0.216091
2734.75	-0.146444
2736.09	0.189435
2737.43	0.612686
2738.77	0.279629
2740.11	0.17901
2741.44	0.00519657
2742.78	-0.125634
2744.12	-0.0100737
2745.46	0.133803
2746.8	0.291633
2748.14	-0.145991
2749.48	-0.118899
2750.81	-0.00459957
2752.15	0.428832
2753.49	0.195559
2754.83	-0.182249
2756.16	0.121057
2757.5	0.062376
2758.84	-0.155224
2760.17	-0.0104895
2761.51	0.178132
2762.84	0.193598
2764.18	0.122589
2765.51	-0.324611
2766.85	-0.352676
2768.18	0.312579
2769.52	0.282016
2770.85	0.0186596
2772.19	0.0141087
2773.52	0.0661812
2774.85	-0.0554094
2776.19	0.0536337
2777.52	0.191672
2778.85	0.0424929
2780.18	0.310824
2781.52	0.205776
2782.85	0.0148544
2784.18	0.197008
2785.51	-0.395019
2786.84	0.0594826
2788.17	-0.488026
2789.51	0.139053
2790.84	-0.291776
2792.17	0.279352
2793.5	0.10736
2794.83	0.0926952
2796.16	0.0490961
2797.48	0.0906372
2798.81	0.459941
2800.14	-0.0563841
2801.47	0.0266027
2802.8	-0.261397
2804.13	-0.178869
2805.46	0.0312862
2806.79	0.112434
2808.11	-0.034771
2809.44	0.00255585
2810.77	-0.400352
2812.09	0.319032
2813.42	-0.067482
2814.75	0.270962
2816.07	-0.282207
2817.4	0.285646
2818.73	0.230455
2820.05	0.118573
2821.38	0.502261
2822.7	0.1199
2824.03	0.176206
2825.35	0.331272
2826.67	0.528797
2828	0.24544
2829.32	0.0477238
2830.65	0.190278
2831.97	0.0216265
2833.29	0.475736
2834.62	0.320827
2835.94	0.773949
2837.26	0.773546
2838.58	0.942406
2839.9	0.898822
2841.23	1.12401
2842.55	1.94324
2843.87	1.50515
2845.19	1.52021
2846.51	1.87516
2847.83	1.38257
2849.15	1.76625
2850.47	1.88106
2851.79	1.57129
2853.11	1.33164
2854.43	1.62859
2855.75	1.91114
2857.07	1.78391
2858.39	1.86865
2859.71	2.00983
2861.02	2.13665
2862.34	1.65603
2863.66	2.02204
2864.98	1.93605
2866.3	2.25918
2867.61	2.42729
2868.93	2.93422
2870.25	2.49691
2871.56	2.60963
2872.88	2.49651
2874.19	2.59397
2875.51	2.81696
2876.83	3.61578
2878.14	2.89318
2879.46	3.16954
2880.77	3.08053
2882.09	3.11897
2883.4	3.38328
2884.71	3.21327
2886.03	3.38092
2887.34	2.91699
2888.65	3.46305
2889.97	3.08211
2891.28	3.75211
2892.59	3.31364
2893.91	3.46375
2895.22	3.18008
2896.53	3.24747
2897.84	2.75625
2899.15	2.99386
2900.46	3.48405
2901.78	3.4571
2903.09	4.2137
2904.4	4.21507
2905.71	3.76918
2907.02	3.84144
2908.33	3.62083
2909.64	3.49902
2910.95	4.0355
2912.26	4.36222
2913.57	4.4502
2914.87	4.3406
2916.18	4.69106
2917.49	5.05363
2918.8	4.77128
2920.11	4.81062
2921.42	4.93459
2922.72	5.1857
2924.03	5.15876
2925.34	5.42664
2926.64	5.79308
2927.95	5.26488
2929.26	5.77074
2930.56	5.66083
2931.87	5.85793
2933.17	6.08265
2934.48	6.22344
2935.78	5.70749
2937.09	6.33771
2938.39	5.55671
2939.7	5.76819
2941	5.07199
2942.31	5.67629
2943.61	5.30375
2944.91	5.1423
2946.22	5.1219
2947.52	4.51452
2948.82	5.0541
2950.13	4.62667
2951.43	4.60315
2952.73	4.18544
2954.03	4.4663
2955.33	4.3967
2956.64	4.49607
2957.94	4.66772
2959.24	4.00243
2960.54	4.08209
2961.84	3.68744
2963.14	3.60165
2964.44	4.35747
2965.74	3.53928
2967.04	3.49144
2968.34	3.51241
2969.64	3.30757
2970.94	3.20095
2972.24	3.3619
2973.53	2.89001
2974.83	2.67121
2976.13	2.67689
2977.43	2.73753
2978.73	2.86672
2980.02	2.54352
2981.32	2.62716
2982.62	2.47101
2983.91	2.04823
2985.21	1.80961
2986.51	2.13472
2987.8	2.03976
2989.1	2.05827
2990.4	1.64136
2991.69	1.51902
2992.99	1.73286
2994.28	1.65019
2995.57	1.31351
2996.87	1.22902
2998.16	0.835635
2999.46	1.55095
3000.75	0.822044
3002.05	0.598846
3003.34	0.936683
3004.63	0.812136
3005.92	1.05145
3007.22	0.198065
3008.51	0.575798
3009.8	0.448801
3011.09	0.488847
3012.39	0.947198
3013.68	0.470149
3014.97	0.510018
3016.26	0.244079
3017.55	0.174133
3018.84	0.0212851
3020.13	0.216325
3021.42	0.438446
3022.71	0.270464
3024	0.490238
3025.29	0.00174141
3026.58	0.151039
3027.87	0.286687
3029.16	0.285006
3030.45	-0.253955
3031.73	0.217263
3033.02	0.261212
3034.31	-0.149984
3035.6	-0.00965691
3036.89	0.225666
3038.17	-0.0371771
3039.46	-0.163874
3040.75	-0.0582485
3042.03	0.0324202
3043.32	0.0542383
3044.61	0.460115
3045.89	-0.213312
3047.18	0.359872
3048.46	0.129235
3049.75	0.324104
3051.03	-0.366446
3052.32	0.0764818
3053.6	0.287383
3054.89	0.183751
3056.17	0.31088
3057.45	-0.135801
3058.74	0.0165977
3060.02	0.468059
3061.31	0.225377
3062.59	0.283175
3063.87	0.369563
3065.15	0.240021
3066.44	0.00318909
3067.72	0.188831
3069	0.157313
3070.28	0.370282
3071.56	0.364707
3072.84	-0.104556
3074.13	0.213559
3075.41	-0.135379
3076.69	-0.0497637
3077.97	-0.438891
3079.25	0.0959826
3080.53	0.0487919
3081.81	0.315206
3083.09	0.270946
3084.37	0.0238266
3085.64	-0.019783
3086.92	0.207555
3088.2	0.0676489
3089.48	-0.00514412
3090.76	-0.105565
3092.04	0.200871
3093.31	-0.0487995
3094.59	0.298589
3095.87	-0.425012
3097.14	-0.158705
3098.42	0.134505
3099.7	-0.358489
3100.97	-0.0656691
3102.25	0.118679
3103.53	0.0730314
3104.8	-0.0939021
3106.08	-0.084106
3107.35	0.170195
3108.63	0.0601687
3109.9	0.194855
3111.18	0.0868979
3112.45	0.264094
3113.73	0.13017
3115	0.158752
3116.27	-0.301375
3117.55	0.0511465
3118.82	0.0634899
3120.09	0.142433
3121.37	0.220317
3122.64	-0.149734
3123.91	-0.181058
3125.18	0.153355
3126.45	-0.0534325
3127.73	-0.0159936
3129	0.305941
3130.27	-0.0345063
3131.54	-0.104353
3132.81	0.0283451
3134.08	0.214539
3135.35	0.0624747
3136.62	0.57099
3137.89	0.296299
3139.16	-0.0188432
3140.43	-0.0241218
3141.7	0.481619
3142.97	0.314973
3144.24	0.269897
3145.51	0.212069
3146.78	0.0209527
3148.04	0.339799
3149.31	-0.104335
