200.423	0.622207
202.238	0.659517
204.052	0.698145
205.868	0.932511
207.682	0.996693
209.495	0.671151
211.308	0.611437
213.12	0.452744
214.935	0.438174
216.746	0.6165
218.558	0.0678625
220.369	0.92439
222.18	1.07947
223.992	0.026679
225.802	0.0629015
227.612	-0.239165
229.421	-0.251874
231.23	-0.0723801
233.039	0.444081
234.849	0.0682049
236.657	-0.0649366
238.465	0.190113
240.272	-0.130256
242.079	0.805826
243.885	-0.30616
245.691	0.173504
247.497	0.337542
249.305	-0.153937
251.11	0.0988159
252.915	0.251126
254.719	0.497295
256.523	0.404896
258.327	-0.602285
260.13	-0.257715
261.933	0.329883
263.736	-0.236865
265.538	-0.0314903
267.34	0.246575
269.141	0.0662003
270.943	-0.0913334
272.744	0.20758
274.544	0.118751
276.344	-0.213367
278.144	0.295607
279.944	0.632779
281.743	-0.0923586
283.542	0.143008
285.34	-0.272757
287.138	-0.352842
288.936	-0.289076
290.733	-0.368399
292.53	0.942157
294.327	-0.258801
296.123	0.671191
297.919	0.191647
299.715	0.238601
301.508	0.380696
303.303	-0.0992622
305.098	0.922953
306.892	0.702442
308.686	0.410198
310.479	0.476224
312.273	-0.480508
314.065	0.517779
315.858	0.589521
317.648	-0.0747604
319.44	0.501302
321.231	0.388061
323.022	0.847961
324.813	0.760066
326.604	-0.402349
328.392	0.631373
330.181	0.613547
331.971	0.115691
333.76	0.835347
335.548	-0.00303364
337.335	0.208312
339.123	0.990956
340.91	0.38384
342.698	0.708259
344.483	0.00474644
346.269	0.0427427
348.055	0.129247
349.841	-0.0463428
351.625	0.159963
353.41	0.126777
355.195	0.47384
356.977	-0.0872545
358.762	0.398965
360.545	-0.141039
362.329	0.413074
364.11	0.228129
365.893	0.945235
367.675	-0.167706
369.455	0.261553
371.237	-0.211374
373.017	0.617029
374.798	-0.0458965
376.578	0.307697
378.357	0.755413
380.137	0.166804
381.917	0.357416
383.694	0.172981
385.473	0.484034
387.249	0.255854
389.028	-0.0412512
390.806	0.484992
392.581	0.612845
394.359	0.85888
396.134	0.800046
397.91	0.623871
399.684	0.142035
401.46	0.340707
403.234	-0.0721941
405.009	0.0776072
406.784	0.883856
408.557	-0.424073
410.331	0.357132
412.103	1.20838
413.876	0.81622
415.647	0.00267315
417.42	0.410257
419.191	0.302404
420.961	0.00704479
422.733	0.415473
424.502	0.447419
426.273	0.783324
428.042	0.390298
429.812	0.630407
431.58	1.26935
433.35	0.265743
435.118	0.43604
436.885	0.371572
438.653	0.259251
440.42	-0.253847
442.188	0.309781
443.954	0.354281
445.719	0.443078
447.486	-0.218907
449.251	0.0315819
451.015	-0.232325
452.781	0.0881624
454.545	0.0118475
456.308	0.0754347
458.073	0.161962
459.836	0.783603
461.598	-0.176114
463.362	0.61035
465.124	-0.0645199
466.885	0.472631
468.648	0.316234
470.408	0.4645
472.169	0.171645
473.929	0.366436
475.69	0.535806
477.45	0.352926
479.208	0.330594
480.967	1.1687
482.727	0.469639
484.485	0.657148
486.243	0.334732
488	0.690794
489.759	0.816802
491.515	0.897732
493.272	0.582516
495.028	0.220225
496.783	0.465754
498.54	-0.0852623
500.295	0.159449
502.05	1.57725
503.804	0.694213
505.558	0.37247
507.311	1.29487
509.064	1.13381
510.819	1.32337
512.572	0.687153
514.324	0.660669
516.076	1.3616
517.827	0.320178
519.578	1.01772
521.329	0.609264
523.08	1.18686
524.83	0.566491
526.58	0.744329
528.329	0.781322
530.08	0.771246
531.829	0.924594
533.578	1.02985
535.326	0.946226
537.074	0.27656
538.821	0.37672
540.568	0.638323
542.315	0.828333
544.062	0.807948
545.808	0.46223
547.554	0.674568
549.299	0.492634
551.044	0.126149
552.789	0.709066
554.533	0.482258
556.278	0.994918
558.019	0.538571
559.763	0.360197
561.506	0.41307
563.249	0.0525942
564.991	0.0152044
566.733	0.208404
568.475	0.172834
570.217	0.505852
571.958	0.0145769
573.699	0.443188
575.439	0.392408
577.177	0.435657
578.917	0.50369
580.656	0.595823
582.396	0.895049
584.134	-0.323459
585.873	0.134624
587.609	0.384327
589.347	-0.287772
591.084	-0.0638752
592.822	0.688513
594.558	0.244288
596.295	0.099226
598.029	0.437291
599.765	0.544817
601.5	-0.406922
603.235	0.686915
604.968	-0.336902
606.703	0.361835
608.437	0.438666
610.171	-0.219217
611.902	0.0647135
613.635	0.0742435
615.368	0.0159206
617.099	0.0724716
618.831	-0.260995
620.563	0.136973
622.294	-0.725309
624.024	0.0126801
625.755	0.155633
627.485	0.231277
629.213	0.377911
630.943	0.208166
632.673	0.79423
634.4	0.971166
636.129	0.0292549
637.855	0.0894279
639.584	0.191734
641.312	0.176004
643.037	-0.458246
644.764	0.386899
646.491	0.43468
648.216	0.143909
649.942	-0.233349
651.666	-0.151093
653.392	0.595426
655.115	0.323727
656.84	0.0774689
658.563	0.789377
660.287	0.338612
662.011	0.501567
663.732	0.524592
665.456	-0.324373
667.177	0.378675
668.899	0.417677
670.62	1.12098
672.342	-0.0262737
674.061	-0.667764
675.781	0.319809
677.502	0.485007
679.22	0.283337
680.941	-0.241805
682.659	0.104177
684.379	0.125589
686.096	0.0753288
687.815	-0.0461178
689.532	0.107424
691.248	0.052721
692.966	0.550037
694.682	0.309289
696.4	-0.0247898
698.115	0.169266
699.829	0.522626
701.546	0.644094
703.26	0.764158
704.974	0.515624
706.689	0.565085
708.402	0.957916
710.115	0.708033
711.83	0.847248
713.542	1.23743
715.254	0.209782
716.967	0.0515194
718.679	0.23586
720.39	0.169409
722.102	0.945839
723.812	0.901961
725.522	0.994419
727.232	1.31347
728.943	0.905201
730.652	0.565131
732.361	0.678195
734.069	0.836017
735.779	1.03877
737.487	1.33198
739.194	1.98655
740.901	0.97331
742.608	1.22472
744.316	1.07243
746.022	1.12479
747.728	0.414148
749.433	0.312913
751.138	0.978113
752.843	0.610404
754.549	0.0869408
756.254	1.07295
757.957	0.46323
759.661	0.868604
761.364	-0.00905228
763.067	0.714683
764.769	1.23601
766.471	0.739843
768.175	1.03196
769.877	0.507426
771.578	1.76657
773.279	1.05648
774.98	1.11462
776.68	1.17344
778.38	1.03048
780.079	1.22876
781.779	0.840487
783.478	1.67431
785.176	1.51115
786.875	1.36747
788.573	0.948077
790.27	1.40688
791.968	1.20597
793.665	1.45482
795.361	1.02604
797.058	1.90642
798.754	1.70664
800.45	0.789371
802.145	1.20231
803.84	1.66083
805.535	0.904913
807.23	1.06988
808.922	0.784048
810.616	0.811232
812.309	1.26324
814.002	1.73617
815.695	1.3125
817.388	1.62765
819.08	1.49539
820.772	2.16748
822.464	1.03169
824.153	1.77161
825.844	1.22003
827.535	1.02821
829.225	0.995988
830.915	0.85638
832.605	1.70072
834.292	0.58712
835.981	1.68177
837.67	0.992124
839.359	0.947803
841.047	1.25881
842.732	1.67993
844.42	1.38545
846.107	1.29289
847.794	1.53802
849.479	1.4511
851.165	1.43464
852.851	1.26391
854.534	1.40828
856.22	0.429703
857.905	1.44883
859.589	0.892423
861.272	1.09839
862.956	0.0183563
864.639	0.220357
866.321	0.71441
868.004	1.09515
869.687	0.505672
871.367	0.524625
873.049	0.836628
874.731	0.3589
876.41	0.445244
878.092	0.463938
879.771	0.979141
881.451	1.15537
883.131	0.811439
884.809	0.737008
886.489	1.06703
888.166	1.01124
889.845	0.863167
891.522	0.127346
893.2	0.314154
894.878	0.859184
896.554	0.480161
898.231	-0.146453
899.906	0.483312
901.583	0.416005
903.258	0.504807
904.934	0.995378
906.608	0.614551
908.283	0.569864
909.956	0.70462
911.631	1.39644
913.304	0.909957
914.976	0.0474472
916.65	0.495441
918.322	0.410647
919.995	0.23758
921.666	0.220416
923.339	0.6247
925.009	0.412041
926.679	0.312432
928.351	0.634479
930.021	0.406355
931.692	1.32654
933.361	0.724705
935.029	0.211519
936.699	0.82381
938.367	1.08432
940.035	0.949492
941.704	0.132421
943.371	0.904721
945.038	0.375057
946.706	0.241098
948.372	0.502122
950.038	0.650244
951.705	0.796628
953.37	1.00914
955.035	-0.319944
956.7	0.493605
958.366	0.958805
960.03	0.766107
961.693	-0.197785
963.357	0.207328
965.021	0.544506
966.684	0.281116
968.346	0.279489
970.008	0.275096
971.67	0.247406
973.334	1.54717
974.995	0.593086
976.655	0.614493
978.316	1.05826
979.976	0.662362
981.638	0.265766
983.297	0.597831
984.957	0.373934
986.616	0.0367022
988.274	0.383189
989.932	0.440232
991.59	0.209037
993.248	-0.110472
994.907	0.387261
996.565	0.862538
998.221	0.2348
999.878	0.665237
1001.53	0.896432
1003.19	1.98501
1004.85	1.18035
1006.5	0.684336
1008.16	1.30913
1009.81	0.485187
1011.46	0.803301
1013.12	0.661404
1014.77	0.892592
1016.43	0.620574
1018.08	0.83092
1019.73	0.670369
1021.38	0.576957
1023.04	0.572543
1024.69	0.394622
1026.34	1.39757
1027.99	1.30788
1029.64	1.19551
1031.29	1.69302
1032.94	1.83858
1034.59	3.18153
1036.24	3.77928
1037.89	5.20256
1039.54	5.68737
1041.19	8.71748
1042.84	9.02892
1044.48	9.62614
1046.13	11.2263
1047.78	10.5497
1049.42	10.572
1051.07	9.12007
1052.72	7.38704
1054.36	6.84916
1056.01	5.41992
1057.66	3.9026
1059.3	3.16666
1060.94	2.86442
1062.59	1.21276
1064.23	1.38632
1065.88	1.23225
1067.52	0.707237
1069.16	0.572276
1070.81	0.740556
1072.45	0.843376
1074.09	0.70808
1075.73	0.357377
1077.38	0.507433
1079.02	0.42062
1080.66	-0.0771294
1082.3	0.834632
1083.94	0.530922
1085.58	0.268511
1087.22	0.610257
1088.86	0.299215
1090.5	0.397341
1092.13	0.450444
1093.77	0.157223
1095.41	0.209972
1097.05	1.0613
1098.68	0.211482
1100.32	0.0109549
1101.96	0.544779
1103.6	0.241682
1105.23	0.994467
1106.87	0.672532
1108.5	0.414808
1110.14	0.413738
1111.77	0.260116
1113.41	-0.0459032
1115.04	0.398138
1116.67	0.197184
1118.31	-0.818007
1119.94	0.354258
1121.58	0.798449
1123.21	1.09388
1124.84	1.39047
1126.47	0.276464
1128.1	0.767903
1129.73	0.682863
1131.37	0.106932
1133	0.429365
1134.63	-0.16756
1136.26	0.346219
1137.89	0.324221
1139.52	-0.212003
1141.14	-0.194016
1142.77	0.314058
1144.4	0.565847
1146.03	0.221399
1147.66	0.880137
1149.29	0.0696354
1150.91	0.367818
1152.54	-0.185908
1154.17	0.367251
1155.79	0.132086
1157.42	0.301127
1159.04	0.470535
1160.67	-0.103261
1162.3	0.0900393
1163.92	0.433493
1165.55	0.926496
1167.17	0.419865
1168.79	0.379584
1170.42	-0.173042
1172.04	0.079484
1173.66	0.15952
1175.28	-0.122899
1176.91	-0.0452271
1178.53	-0.158068
1180.15	-0.206339
1181.77	0.31777
1183.39	0.0810671
1185.01	0.267305
1186.63	0.536555
1188.25	0.360126
1189.87	-0.345589
1191.49	0.105661
1193.11	-0.161113
1194.73	-0.134309
1196.35	0.647202
1197.97	-0.351913
1199.59	0.535927
1201.2	0.296822
1202.82	-0.105344
1204.44	-0.48276
1206.05	-0.335541
1207.67	0.418348
1209.29	0.588403
1210.9	-0.598293
1212.52	0.548597
1214.13	0.00362682
1215.75	0.539148
1217.36	0.842462
1218.97	0.12547
1220.59	0.177857
1222.2	0.645792
1223.82	0.534377
1225.43	0.880698
1227.04	0.856193
1228.65	0.585455
1230.26	1.3918
1231.88	0.711074
1233.49	0.528281
1235.1	1.3599
1236.71	1.05646
1238.32	1.04379
1239.93	0.84595
1241.54	0.958538
1243.15	1.67071
1244.76	0.995714
1246.37	1.37452
1247.97	0.551757
1249.58	1.23847
1251.19	1.09706
1252.8	1.12146
1254.41	0.712459
1256.01	1.13228
1257.62	1.55388
1259.23	1.14956
1260.83	1.69845
1262.44	2.06205
1264.04	1.74235
1265.65	1.83632
1267.25	1.20379
1268.86	0.984332
1270.46	0.970746
1272.07	1.57774
1273.67	1.87224
1275.27	1.00444
1276.88	1.37911
1278.48	2.02169
1280.08	1.33766
1281.68	1.23331
1283.28	1.52223
1284.89	2.16321
1286.49	2.10214
1288.09	2.35262
1289.69	1.67442
1291.29	1.47238
1292.89	1.9521
1294.49	2.10012
1296.09	2.10167
1297.69	2.41055
1299.29	2.34529
1300.88	1.43264
1302.48	1.79679
1304.08	1.50038
1305.68	2.10814
1307.27	2.0156
1308.87	1.77923
1310.47	2.52703
1312.06	1.59509
1313.66	1.83182
1315.25	1.41561
1316.85	1.83854
1318.44	1.97599
1320.04	1.41995
1321.63	1.18948
1323.23	2.42254
1324.82	2.00399
1326.41	3.06637
1328.01	1.75309
1329.6	1.55757
1331.19	1.70849
1332.78	1.63993
1334.38	2.30149
1335.97	1.99597
1337.56	2.03449
1339.15	1.8705
1340.74	2.02668
1342.33	1.99845
1343.92	2.00764
1345.51	2.19585
1347.1	1.42123
1348.69	1.43184
1350.28	1.52585
1351.87	2.30333
1353.46	1.88346
1355.04	1.72561
1356.63	1.86812
1358.22	1.39071
1359.81	1.29171
1361.39	1.71026
1362.98	0.850507
1364.57	1.32695
1366.15	0.866702
1367.74	0.925764
1369.32	0.727601
1370.91	1.32747
1372.49	1.03357
1374.07	0.621862
1375.66	1.64373
1377.24	0.855
1378.83	0.503361
1380.41	0.787152
1381.99	1.20837
1383.57	0.931545
1385.16	0.633704
1386.74	1.01099
1388.32	1.09022
1389.9	0.773274
1391.48	1.60863
1393.06	1.13533
1394.64	1.43629
1396.22	1.26098
1397.8	0.708161
1399.38	1.54145
1400.96	1.02588
1402.54	1.44036
1404.12	0.746443
1405.7	1.3392
1407.28	0.766431
1408.85	1.5388
1410.43	1.32378
1412.01	1.66175
1413.58	1.44596
1415.16	1.48558
1416.74	1.78033
1418.31	1.83765
1419.89	1.12708
1421.46	1.12747
1423.04	1.05122
1424.61	2.11879
1426.19	1.45603
1427.76	1.2861
1429.33	2.43456
1430.91	1.81029
1432.48	2.38491
1434.05	2.1906
1435.63	3.17573
1437.2	2.45003
1438.77	2.31545
1440.34	3.12573
1441.91	2.93502
1443.49	3.02051
1445.05	2.6742
1446.63	2.83915
1448.2	3.45645
1449.77	2.38359
1451.34	3.92621
1452.91	3.30689
1454.47	2.66821
1456.04	2.95392
1457.61	3.29787
1459.18	3.14799
1460.75	3.07422
1462.31	2.3091
1463.88	2.25007
1465.45	2.99534
1467.01	2.10879
1468.58	2.42131
1470.15	2.7348
1471.71	2.30422
1473.28	2.65995
1474.84	1.52637
1476.41	1.84462
1477.97	2.16295
1479.54	1.97145
1481.1	1.74064
1482.66	2.23484
1484.23	2.0821
1485.79	1.08653
1487.35	1.40257
1488.91	2.67589
1490.48	2.00815
1492.04	2.13973
1493.6	1.72099
1495.16	1.65173
1496.72	1.77588
1498.28	2.21069
1499.84	1.03205
1501.4	1.15832
1502.96	1.09202
1504.52	0.833309
1506.08	0.807738
1507.64	0.936104
1509.2	0.753722
1510.76	0.743844
1512.31	0.482265
1513.87	-0.144852
1515.43	1.47877
1516.99	1.83209
1518.54	0.325563
1520.1	0.853682
1521.66	0.998234
1523.21	0.587742
1524.77	0.48261
1526.32	1.10094
1527.88	0.783351
1529.43	0.86515
1530.99	0.813759
1532.54	0.971725
1534.09	0.827483
1535.65	0.817382
1537.2	0.903036
1538.75	0.574212
1540.31	0.642523
1541.86	0.842709
1543.41	0.967091
1544.96	1.09094
1546.51	1.15789
1548.06	1.13065
1549.62	0.915957
1551.17	0.982813
1552.72	0.301939
1554.27	1.17478
1555.82	1.35705
1557.36	0.981508
1558.91	1.28064
1560.46	0.891958
1562.01	0.281628
1563.56	0.810719
1565.11	1.39667
1566.66	0.82591
1568.2	1.84112
1569.75	1.40008
1571.3	1.64911
1572.84	1.18839
1574.39	1.25014
1575.93	1.40524
1577.48	1.33659
1579.02	0.70838
1580.57	1.10779
1582.11	1.34027
1583.66	1.574
1585.2	1.36036
1586.75	1.09112
1588.29	1.5513
1589.83	1.13213
1591.38	1.16129
1592.92	1.13367
1594.46	1.61134
1596	0.87149
1597.54	1.79974
1599.09	1.75458
1600.63	1.69158
1602.17	1.64791
1603.71	1.90464
1605.25	1.74738
1606.79	2.0204
1608.33	1.80213
1609.87	1.73105
1611.41	1.33742
1612.95	1.44848
1614.48	1.4638
1616.02	1.7223
1617.56	1.45623
1619.1	1.21071
1620.64	1.67904
1622.17	0.931911
1623.71	1.1222
1625.25	1.18145
1626.78	1.27714
1628.32	0.791094
1629.86	1.12644
1631.39	1.57218
1632.92	1.75532
1634.46	1.93862
1635.99	1.71234
1637.53	1.74862
1639.06	1.4315
1640.59	1.97197
1642.13	1.72875
1643.66	1.80081
1645.19	2.05722
1646.73	2.2748
1648.26	2.0828
1649.79	1.53876
1651.32	1.9988
1652.85	1.75521
1654.38	2.58872
1655.92	2.14367
1657.45	2.29175
1658.98	2.38309
1660.51	2.12081
1662.04	2.04179
1663.57	2.20159
1665.09	1.71385
1666.62	2.26083
1668.15	1.5175
1669.68	1.88302
1671.21	2.10282
1672.73	1.86352
1674.26	1.55133
1675.79	1.09173
1677.31	1.69882
1678.84	1.47614
1680.37	1.50965
1681.89	1.90956
1683.42	1.15164
1684.94	1.03704
1686.47	1.43651
1687.99	1.01132
1689.52	1.10004
1691.04	1.09744
1692.57	0.710633
1694.09	0.872861
1695.61	0.467956
1697.14	0.70266
1698.66	0.95491
1700.18	0.567521
1701.7	0.9277
1703.22	1.25015
1704.75	0.369458
1706.27	0.290176
1707.79	0.101561
1709.31	0.494387
1710.83	0.487364
1712.35	0.262981
1713.87	0.220348
1715.39	-0.0393867
1716.91	-0.0274506
1718.43	0.418024
1719.95	-0.293036
1721.46	0.24223
1722.98	0.290552
1724.5	0.0518084
1726.02	0.121102
1727.53	0.156014
1729.05	0.318126
1730.57	0.332902
1732.08	0.289776
1733.6	0.390521
1735.12	0.170951
1736.63	0.567054
1738.15	0.112423
1739.66	-0.0766468
1741.18	0.755305
1742.69	0.641272
1744.21	0.361546
1745.72	-0.0204306
1747.23	0.716856
1748.74	0.134306
1750.26	0.129913
1751.77	-0.182059
1753.28	0.426076
1754.8	-0.12149
1756.31	-0.384866
1757.82	0.225413
1759.33	-0.244459
1760.84	-0.114347
1762.35	-0.286804
1763.86	0.00821781
1765.37	0.0707769
1766.88	0.102013
1768.39	0.299885
1769.9	0.223065
1771.41	0.184756
1772.92	-0.0129509
1774.43	0.239817
1775.93	0.219522
1777.44	0.561012
1778.95	0.20538
1780.46	-0.0942488
1781.96	0.212228
1783.47	0.318945
1784.98	-0.203018
1786.48	0.129958
1787.99	0.0226345
1789.49	0.282245
1791	0.142114
1792.5	-0.231687
1794.01	0.0616484
1795.51	0.119707
1797.02	0.079566
1798.52	-0.376401
1800.03	0.161141
1801.53	0.155596
1803.03	-0.0366125
1804.53	0.271884
1806.04	0.381533
1807.54	-0.0323734
1809.04	0.230579
1810.54	0.301805
1812.04	0.383923
1813.54	0.295877
1815.05	0.274682
1816.55	0.517583
1818.05	-0.0157833
1819.55	0.0284595
1821.05	0.491525
1822.55	0.255477
1824.05	-0.153289
1825.54	0.113242
1827.04	0.0293188
1828.54	0.149082
1830.04	0.148063
1831.54	-0.0627813
1833.03	0.34762
1834.53	-0.0436916
1836.03	0.161061
1837.52	-0.0856924
1839.02	-0.343452
1840.52	0.18731
1842.01	-0.0905533
1843.51	0.332678
1845	0.402378
1846.5	-0.592732
1847.99	0.0853939
1849.49	0.419752
1850.98	0.387067
1852.47	0.203105
1853.97	0.406758
1855.46	0.267708
1856.95	0.309117
1858.45	0.199909
1859.94	0.326871
1861.43	0.296812
1862.92	0.247659
1864.41	0.217305
1865.91	0.582715
1867.4	0.249056
1868.89	0.579123
1870.38	0.0590687
1871.87	-0.0604153
1873.36	0.360945
1874.85	0.21688
1876.34	0.618145
1877.83	0.335051
1879.31	0.305148
1880.8	0.0177383
1882.29	0.470586
1882.56	0.583451
1884.05	-0.0631304
1885.54	-0.117769
1887.04	0.453568
1888.53	-0.125232
1890.03	-0.146404
1891.52	0.285853
1893.01	-0.0103292
1894.5	0.443464
1895.99	0.290728
1897.49	0.521627
1898.98	0.16101
1900.47	-0.3402
1901.96	0.374274
1903.45	0.425348
1904.94	0.64834
1906.43	0.383613
1907.92	0.362248
1909.41	0.0813465
1910.9	0.114184
1912.39	0.304271
1913.88	0.130782
1915.37	-0.0425329
1916.86	-0.0775099
1918.35	0.406816
1919.84	0.370487
1921.32	0.0569468
1922.81	0.280917
1924.3	-0.0480719
1925.78	0.264975
1927.27	0.250458
1928.76	0.409903
1930.24	0.326892
1931.73	0.173545
1933.21	-0.0855331
1934.7	0.466834
1936.18	0.203428
1937.67	0.128997
1939.15	-0.153242
1940.64	-0.382917
1942.12	0.251595
1943.6	0.0243435
1945.09	0.177725
1946.57	0.0901346
1948.05	0.278026
1949.54	0.103065
1951.02	0.0130854
1952.5	-0.783422
1953.98	0.139941
1955.46	0.219981
1956.94	0.300423
1958.42	0.398821
1959.91	-0.18809
1961.39	-0.036479
1962.87	0.320932
1964.34	0.249492
1965.82	0.126086
1967.3	0.0361643
1968.78	0.407337
1970.26	0.110655
1971.74	-0.237172
1973.22	-0.396824
1974.7	0.296654
1976.17	-0.544542
1977.65	0.131489
1979.13	0.296124
1980.6	0.256383
1982.08	0.114486
1983.56	0.736769
1985.03	-0.0340919
1986.51	0.196543
1987.98	0.0200844
1989.46	-0.121818
1990.93	0.261922
1992.41	0.32506
1993.88	-0.0500937
1995.36	0.573129
1996.83	0.453173
1998.3	0.333245
1999.78	-0.0741568
2001.25	0.597982
2002.72	-0.316572
2004.2	-0.370632
2005.67	0.384576
2007.14	-0.291561
2008.61	0.0947456
2010.08	0.347285
2011.55	0.162762
2013.02	0.0120058
2014.49	0.449748
2015.97	-0.0390244
2017.43	0.0936375
2018.9	0.527742
2020.37	0.271847
2021.84	0.150389
2023.31	0.549821
2024.78	0.178151
2026.25	0.630164
2027.72	-0.0901241
2029.19	0.382372
2030.65	0.672168
2032.12	0.292139
2033.59	-0.0875406
2035.05	0.338574
2036.52	0.126132
2037.98	0.282566
2039.45	0.169669
2040.92	0.359244
2042.38	-0.0559053
2043.85	0.522024
2045.31	0.29388
2046.78	0.470544
2048.24	0.529878
2049.71	0.336033
2051.17	0.241863
2052.63	0.179389
2054.1	0.772331
2055.56	0.182521
2057.02	-0.00416279
2058.48	0.0442238
2059.95	0.277676
2061.41	0.343106
2062.87	0.476887
2064.33	0.662404
2065.79	0.159225
2067.25	0.481754
2068.71	0.316993
2070.17	0.32093
2071.63	0.173419
2073.09	0.631851
2074.55	0.601707
2076.01	0.503764
2077.47	0.641111
2078.93	0.676903
2080.39	1.01519
2081.85	0.376155
2083.3	0.510797
2084.76	0.307874
2086.22	0.289192
2087.68	0.538773
2089.13	0.854817
2090.59	0.66637
2092.05	1.16634
2093.5	0.910595
2094.96	0.738638
2096.41	0.582996
2097.87	0.292721
2099.32	0.219647
2100.78	0.614526
2102.23	0.875428
2103.69	0.485826
2105.14	1.06634
2106.59	0.897437
2108.05	0.846778
2109.5	1.29682
2110.95	1.09575
2112.41	1.15966
2113.86	1.05472
2115.31	1.06428
2116.76	0.839914
2118.21	0.882139
2119.67	1.39081
2121.12	0.856359
2122.57	1.02141
2124.02	1.37071
2125.47	1.02438
2126.92	1.35752
2128.37	1.63947
2129.82	1.30627
2131.27	1.4188
2132.71	1.43084
2134.16	1.95567
2135.61	1.93543
2137.06	1.752
2138.51	1.37289
2139.95	2.18629
2141.4	2.20876
2142.85	1.7699
2144.29	2.22493
2145.74	2.11781
2147.19	2.04329
2148.63	1.65315
2150.08	2.22248
2151.52	2.21071
2152.97	2.29697
2154.42	2.39865
2155.86	2.03581
2157.3	2.58424
2158.75	2.15633
2160.19	2.22724
2161.64	2.46635
2163.08	2.04508
2164.52	2.23925
2165.96	2.53447
2167.41	2.31492
2168.85	2.85834
2170.29	2.35191
2171.73	2.87361
2173.17	2.62737
2174.61	2.47902
2176.06	2.69577
2177.5	2.79637
2178.94	2.39929
2180.38	2.45251
2181.82	2.80627
2183.26	2.67869
2184.7	2.50158
2186.14	2.52414
2187.57	2.26387
2189.01	2.55278
2190.45	2.37569
2191.89	2.18151
2193.33	2.03619
2194.76	2.40517
2196.2	2.0058
2197.64	2.05321
2199.08	2.29772
2200.51	2.37433
2201.95	1.65374
2203.38	2.34527
2204.82	1.87683
2206.25	1.67546
2207.69	1.88913
2209.12	1.60558
2210.56	1.85087
2211.99	1.92912
2213.43	1.6426
2214.86	1.73623
2216.3	1.84707
2217.73	1.51393
2219.16	1.6445
2220.59	1.24859
2222.03	1.62769
2223.46	1.36304
2224.89	1.44258
2226.32	1.27291
2227.75	0.756095
2229.19	1.17475
2230.62	0.738469
2232.05	1.31884
2233.48	1.50547
2234.91	0.973278
2236.34	1.17879
2237.77	1.04325
2239.2	1.3509
2240.63	0.89435
2242.06	1.12531
2243.48	0.591294
2244.91	0.367578
2246.34	0.69761
2247.77	0.503704
2249.2	0.942978
2250.62	1.06938
2252.05	0.460866
2253.48	0.63296
2254.9	0.626428
2256.33	0.508124
2257.76	0.506515
2259.18	0.41114
2260.61	0.579004
2262.03	0.587698
2263.46	0.484709
2264.88	0.771971
2266.31	0.392415
2267.73	0.0928221
2269.16	0.703235
2270.58	0.694428
2272	0.815252
2273.43	0.577614
2274.85	0.274835
2276.27	0.770561
2277.69	0.484462
2279.12	0.719973
2280.54	0.498949
2281.96	0.848536
2283.38	0.545589
2284.8	0.61789
2286.22	0.10288
2287.64	0.437085
2289.07	0.52706
2290.49	0.421521
2291.91	0.332591
2293.32	0.587178
2294.74	0.383838
2296.16	-0.26174
2297.58	0.271121
2299	0.231109
2300.42	0.469934
2301.84	0.250191
2303.26	0.309488
2304.67	0.451113
2306.09	0.346437
2307.51	-0.136691
2308.92	0.0366259
2310.34	0.357373
2311.76	0.348863
2313.17	0.241589
2314.59	-0.523646
2316	0.111055
2317.42	0.137712
2318.83	0.461658
2320.25	0.125909
2321.66	0.564016
2323.08	0.48839
2324.49	0.327328
2325.91	0.180056
2327.32	0.67398
2328.73	0.194101
2330.15	0.209152
2331.56	0.620406
2332.97	0.226316
2334.38	0.409382
2335.79	-0.246309
2337.21	0.42991
2338.62	0.00300503
2340.03	-0.16199
2341.44	0.181154
2342.85	-0.116754
2344.26	-0.0862989
2345.67	0.452509
2347.08	-0.466714
2348.49	0.0393076
2349.9	0.462437
2351.31	-0.211184
2352.72	-0.296924
2354.13	-0.269393
2355.53	0.148476
2356.94	0.239424
2358.35	0.297621
2359.76	0.177141
2361.17	-0.12149
2362.57	0.391123
2363.98	0.351876
2365.39	0.0699921
2366.79	-0.114094
2368.2	0.187264
2369.6	0.279644
2371.01	0.212314
2372.42	0.146703
2373.82	-0.110858
2375.22	0.227812
2376.63	0.565719
2378.03	-0.239738
2379.44	0.416201
2380.84	-0.279421
2382.25	-0.0452719
2383.65	0.0111265
2385.05	0.0351219
2386.45	-0.0362911
2387.86	-0.106463
2389.26	0.0640831
2390.66	0.0128241
2392.06	0.106327
2393.46	-0.467341
2394.87	-0.0693359
2396.27	0.376868
2397.67	-0.304848
2399.07	0.23794
2400.47	0.336287
2401.87	0.0855541
2403.27	0.311377
2404.67	-0.0190687
2406.07	0.490899
2407.47	0.221875
2408.86	-0.222313
2410.26	-0.000684738
2411.66	0.284361
2413.06	0.0950661
2414.46	-0.155893
2415.85	0.370665
2417.25	0.123093
2418.65	0.414915
2420.05	0.0262775
2421.44	-0.093379
2422.84	0.420222
2424.23	0.347362
2425.63	0.227032
2427.03	-0.146283
2428.42	0.353191
2429.82	-0.287749
2431.21	-0.198539
2432.6	0.271913
2434	-0.020175
2435.39	-0.139069
2436.79	0.0898046
2438.18	0.285103
2439.57	-0.0136433
2440.97	-0.122753
2442.36	0.45017
2443.75	-0.0249662
2445.14	0.467609
2446.54	0.65834
2447.93	0.357474
2449.32	-0.117373
2450.71	0.0892935
2452.1	0.122337
2453.49	0.393641
2454.88	-0.0143948
2456.27	0.543436
2457.66	0.215775
2459.05	0.235923
2460.44	0.14467
2461.83	0.258017
2463.22	-0.00898552
2464.61	0.0868979
2466	-0.0545349
2467.39	-0.511652
2468.77	-0.195298
2470.16	0.262464
2471.55	-0.0531387
2472.94	0.528718
2474.32	-0.0560255
2475.71	0.334572
2477.1	0.00112247
2478.48	0.249216
2479.87	0.214664
2481.25	0.164694
2482.64	0.036376
2484.02	0.205136
2485.41	0.30997
2486.8	0.194508
2488.18	-0.0624409
2489.56	0.19465
2490.95	0.0618286
2492.33	-0.272103
2493.72	-0.0605717
2495.1	0.090044
2496.48	-0.0681057
2497.86	-0.209537
2499.25	0.0364771
2500.63	-0.135864
2502.01	-0.0306759
2503.39	0.335672
2504.77	0.14494
2506.16	0.154178
2507.54	0.132333
2508.92	0.249051
2510.3	0.0588951
2511.68	-0.176138
2513.06	0.141988
2514.44	0.307444
2515.82	-0.169127
2517.2	-0.078228
2518.58	-0.246708
2519.95	0.211687
2521.33	0.409642
2522.71	-0.0497484
2524.09	-0.0824451
2525.47	0.249837
2526.84	-0.393278
2528.22	0.34971
2529.6	-0.108265
2530.98	0.25682
2532.35	-0.0297079
2533.73	0.156425
2535.11	0.647227
2536.48	-0.107837
2537.86	0.184579
2539.23	0.384636
2540.61	-0.236276
2541.98	0.493588
2543.36	-0.536679
2544.73	0.0576334
2546.1	0.167835
2547.48	-0.0542326
2548.85	0.528717
2550.23	0.580816
2551.6	0.177052
2552.97	-0.0457382
2554.34	-0.17866
2555.72	-0.0698137
2557.09	0.114182
2558.46	0.328253
2559.83	0.390935
2561.2	0.272353
2562.58	0.397042
2563.95	-0.114056
2565.32	0.0572786
2566.69	0.092515
2568.06	-0.311653
2569.43	0.314756
2570.8	0.425892
2572.17	0.355195
2573.54	0.481643
2574.91	0.320184
2576.27	-0.189978
2577.64	0.45202
2579.01	0.259849
2580.38	-0.296666
2581.75	0.374536
2583.11	0.287146
2584.48	0.0327253
2585.85	0.00567627
2587.21	0.357676
2588.58	0.361259
2589.95	0.213428
2591.31	0.0957565
2592.68	0.583623
2594.04	-0.065793
2595.41	0.268279
2596.78	0.827901
2598.14	0.0698605
2599.51	0.340324
2600.87	0.293295
2602.23	-0.0853338
2603.6	0.624024
2604.96	0.322474
2606.32	0.353215
2607.69	0.564474
2609.05	-0.0393295
2610.41	0.00379753
2611.77	0.12059
2613.14	0.115536
2614.5	0.410019
2615.86	0.403486
2617.22	-0.0374622
2618.58	0.137156
2619.94	0.372223
2621.3	-0.453819
2622.67	0.0816031
2624.03	-0.294293
2625.39	0.165877
2626.75	0.118122
2628.1	0.353159
2629.46	0.140796
2630.82	0.449229
2632.18	-0.0754395
2633.54	-0.00517273
2634.9	-0.0537949
2636.26	0.179386
2637.61	0.278811
2638.97	0.185656
2640.33	0.49227
2641.69	0.0743475
2643.04	0.351668
2644.4	0.510692
2645.76	0.418602
2647.11	0.0165882
2648.47	0.498142
2649.82	0.300959
2651.18	0.41206
2652.53	0.272914
2653.89	-0.0710726
2655.24	0.61246
2656.6	-0.139123
2657.95	0.282565
2659.31	0.207426
2660.66	0.220551
2662.01	0.116565
2663.37	0.683854
2664.72	-0.0933867
2666.07	0.500601
2667.43	0.510161
2668.78	0.519595
2670.13	-0.154492
2671.48	0.11807
2672.83	0.449105
2674.18	0.461005
2675.53	0.400996
2676.89	0.53032
2678.24	0.225234
2679.59	0.573785
2680.94	0.0970736
2682.29	0.172714
2683.64	0.409243
2684.99	0.0377789
2686.34	0.276018
2687.68	0.0497198
2689.03	0.0832624
2690.38	0.303598
2691.73	0.144387
2693.08	0.563839
2694.43	0.401736
2695.77	0.659874
2697.12	0.208708
2698.47	0.309664
2699.81	0.238778
2701.16	0.604327
2702.51	0.218572
2703.85	0.253985
2705.2	0.420499
2706.54	0.253599
2707.89	0.115255
2709.23	0.310213
2710.58	0.461293
2711.92	0.350675
2713.27	-0.152534
2714.61	0.216
2715.96	0.482897
2717.3	0.0516472
2718.64	0.623666
2719.99	-0.0122328
2721.33	0.151549
2722.67	0.227476
2724.01	0.419305
2725.36	0.203065
2726.7	0.248381
2728.04	0.351527
2729.38	0.556233
2730.72	0.164146
2732.06	0.266761
2733.41	0.0785065
2734.75	0.588663
2736.09	0.139027
2737.43	0.824005
2738.77	0.301797
2740.11	0.535536
2741.44	0.608708
2742.78	0.128672
2744.12	0.272979
2745.46	0.184026
2746.8	0.57385
2748.14	0.251875
2749.48	0.496067
2750.81	0.261685
2752.15	-0.1752
2753.49	0.127596
2754.83	0.299985
2756.16	0.168261
2757.5	0.268464
2758.84	-0.0653734
2760.17	0.00660515
2761.51	0.151453
2762.84	0.0942249
2764.18	-0.00606155
2765.51	0.457894
2766.85	0.0676804
2768.18	-0.00526905
2769.52	0.209538
2770.85	0.292408
2772.19	0.128098
2773.52	0.294724
2774.85	-0.15947
2776.19	0.0640459
2777.52	0.301978
2778.85	0.252556
2780.18	-0.0548658
2781.52	-0.059947
2782.85	0.222075
2784.18	-0.0269747
2785.51	-0.0894127
2786.84	0.0775995
2788.17	0.13046
2789.51	-0.0447731
2790.84	0.0242825
2792.17	-0.29189
2793.5	-0.0499163
2794.83	-0.0509796
2796.16	-0.238178
2797.48	0.231163
2798.81	0.385401
2800.14	0.18221
2801.47	0.43536
2802.8	0.317327
2804.13	-0.128664
2805.46	0.0804749
2806.79	-0.0102367
2808.11	0.069128
2809.44	-0.107913
2810.77	0.0135641
2812.09	0.0504036
2813.42	0.131029
2814.75	-0.112859
2816.07	-0.624329
2817.4	0.141126
2818.73	0.255187
2820.05	0.0432491
2821.38	0.397719
2822.7	0.170329
2824.03	0.239824
2825.35	0.563851
2826.67	0.36381
2828	-0.0904026
2829.32	0.376324
2830.65	0.333888
2831.97	0.121825
2833.29	0.645753
2834.62	0.178467
2835.94	0.729656
2837.26	0.897999
2838.58	0.796975
2839.9	1.85538
2841.23	1.49955
2842.55	1.97837
2843.87	1.94906
2845.19	2.4153
2846.51	2.18983
2847.83	2.27573
2849.15	2.95527
2850.47	2.56025
2851.79	2.3342
2853.11	2.30539
2854.43	2.67176
2855.75	2.52916
2857.07	2.85276
2858.39	2.83733
2859.71	2.82188
2861.02	3.00389
2862.34	2.46545
2863.66	2.91475
2864.98	3.12362
2866.3	3.51573
2867.61	3.44258
2868.93	3.60971
2870.25	3.66453
2871.56	3.77591
2872.88	3.73186
2874.19	3.8137
2875.51	4.17583
2876.83	4.11391
2878.14	4.10728
2879.46	4.64876
2880.77	4.59974
2882.09	4.91714
2883.4	4.53348
2884.71	4.41808
2886.03	3.84026
2887.34	4.3294
2888.65	4.46696
2889.97	3.88804
2891.28	4.30403
2892.59	4.2844
2893.91	4.53077
2895.22	4.02126
2896.53	5.03886
2897.84	4.51794
2899.15	4.76804
2900.46	4.75329
2901.78	4.29149
2903.09	4.991
2904.4	5.29897
2905.71	5.03382
2907.02	5.60863
2908.33	5.38722
2909.64	5.51661
2910.95	5.61879
2912.26	5.87496
2913.57	5.83623
2914.87	5.87968
2916.18	6.59286
2917.49	6.77187
2918.8	6.50177
2920.11	6.44145
2921.42	6.4939
2922.72	6.95333
2924.03	7.00913
2925.34	7.30405
2926.64	7.25033
2927.95	7.29451
2929.26	7.07256
2930.56	7.56286
2931.87	7.89872
2933.17	7.66109
2934.48	7.85676
2935.78	7.42365
2937.09	7.18647
2938.39	7.48057
2939.7	7.67721
2941	7.38547
2942.31	7.69576
2943.61	6.8477
2944.91	6.76997
2946.22	6.98743
2947.52	6.4783
2948.82	6.31836
2950.13	6.39485
2951.43	6.39903
2952.73	5.5886
2954.03	6.1486
2955.33	5.82608
2956.64	6.28861
2957.94	5.4101
2959.24	5.30478
2960.54	5.2869
2961.84	5.15942
2963.14	4.38733
2964.44	4.87698
2965.74	4.71931
2967.04	4.79839
2968.34	4.91806
2969.64	4.22125
2970.94	4.07253
2972.24	3.74121
2973.53	3.53677
2974.83	3.50114
2976.13	3.60554
2977.43	3.62397
2978.73	2.86595
2980.02	3.69682
2981.32	2.89333
2982.62	3.06033
2983.91	2.76366
2985.21	3.05881
2986.51	2.59683
2987.8	2.3615
2989.1	1.87437
2990.4	2.1183
2991.69	2.06655
2992.99	2.08387
2994.28	1.41125
2995.57	2.05804
2996.87	1.59436
2998.16	1.57992
2999.46	1.2572
3000.75	1.42612
3002.05	1.23118
3003.34	0.924754
3004.63	0.996866
3005.92	1.2927
3007.22	0.831724
3008.51	0.650061
3009.8	0.579487
3011.09	0.35451
3012.39	0.352808
3013.68	0.420884
3014.97	0.238431
3016.26	0.739614
3017.55	0.127284
3018.84	0.198045
3020.13	0.129765
3021.42	0.505848
3022.71	0.477722
3024	0.295909
3025.29	0.293829
3026.58	0.0283985
3027.87	-0.222128
3029.16	0.206465
3030.45	0.15256
3031.73	0.0451469
3033.02	-0.254259
3034.31	0.178326
3035.6	-0.107307
3036.89	0.212574
3038.17	0.0478992
3039.46	-0.379963
3040.75	0.208591
3042.03	-0.221009
3043.32	0.351078
3044.61	-0.0628605
3045.89	0.250694
3047.18	0.0880222
3048.46	-0.00350571
3049.75	0.112148
3051.03	0.0112133
3052.32	-0.170641
3053.6	-0.0931721
3054.89	0.297399
3056.17	-0.104347
3057.45	-0.370589
3058.74	0.166483
3060.02	-0.155098
3061.31	0.122901
3062.59	0.170519
3063.87	0.0293303
3065.15	-0.0828648
3066.44	-0.0167456
3067.72	0.0369387
3069	-0.0992861
3070.28	0.45785
3071.56	-0.237143
3072.84	-0.307719
3074.13	0.00112534
3075.41	0.132124
3076.69	-0.063221
3077.97	0.0679092
3079.25	0.0916376
3080.53	-0.00500965
3081.81	0.25282
3083.09	0.267963
3084.37	-0.353818
3085.64	-0.0256939
3086.92	0.274954
3088.2	0.0862656
3089.48	-0.116674
3090.76	0.0871038
3092.04	-0.0348768
3093.31	-0.142999
3094.59	-0.155753
3095.87	0.170833
3097.14	-0.139661
3098.42	0.0378895
3099.7	0.0662403
3100.97	-0.284728
3102.25	0.0282173
3103.53	0.205991
3104.8	-0.0352631
3106.08	-0.0319395
3107.35	-0.0140057
3108.63	-0.0489912
3109.9	0.485769
3111.18	-0.223711
3112.45	0.069581
3113.73	0.0655241
3115	-0.223164
3116.27	0.138453
3117.55	-0.0295973
3118.82	-0.117344
3120.09	0.254929
3121.37	-0.200881
3122.64	0.26464
3123.91	0.14719
3125.18	0.314463
3126.45	0.00852203
3127.73	0.190571
3129	-0.140774
3130.27	0.353331
3131.54	0.604045
3132.81	-0.0237331
3134.08	0.361672
3135.35	0.273777
3136.62	0.84651
3137.89	0.770913
3139.16	0.425695
3140.43	0.215576
3141.7	0.516986
3142.97	0.616812
3144.24	0.12644
3145.51	0.683939
3146.78	0.464028
3148.04	0.379221
3149.31	0.509482
