200.423	0.793715
202.238	0.798891
204.052	0.804759
205.868	0.544004
207.682	-0.105192
209.495	0.193557
211.308	-0.38317
213.12	0.107794
214.935	0.427469
216.746	0.0918207
218.558	-0.364345
220.369	-0.020648
222.18	0.154091
223.992	-0.274972
225.802	0.118537
227.612	0.149492
229.421	-0.133724
231.23	0.0173559
233.039	0.0957146
234.849	0.126119
236.657	0.928945
238.465	0.480026
240.272	0.298491
242.079	-0.170473
243.885	0.205697
245.691	0.26852
247.497	-0.0802383
249.305	0.413878
251.11	-0.0362177
252.915	0.549482
254.719	1.01257
256.523	-0.0682001
258.327	0.41923
260.13	0.233203
261.933	0.747547
263.736	0.637081
265.538	0.503538
267.34	0.514947
269.141	0.743128
270.943	0.295688
272.744	0.691118
274.544	0.458521
276.344	0.128204
278.144	0.495387
279.944	0.451112
281.743	0.284811
283.542	0.718418
285.34	-0.0272627
287.138	0.0439501
288.936	0.642543
290.733	1.57606
292.53	2.62898
294.327	1.64895
296.123	2.39301
297.919	0.676023
299.715	0.274835
301.508	0.351513
303.303	0.594617
305.098	0.454653
306.892	0.290203
308.686	0.674047
310.479	0.79595
312.273	0.275847
314.065	0.73384
315.858	0.907768
317.648	0.511909
319.44	0.712917
321.231	0.176389
323.022	0.593983
324.813	0.511454
326.604	0.620032
328.392	0.776395
330.181	0.502139
331.971	0.728894
333.76	0.212651
335.548	0.842999
337.335	0.681707
339.123	1.06884
340.91	0.569469
342.698	0.0698004
344.483	0.382946
346.269	0.648571
348.055	0.532685
349.841	0.512887
351.625	0.540942
353.41	0.35381
355.195	0.499881
356.977	0.597022
358.762	0.64525
360.545	0.335196
362.329	-0.0703878
364.11	0.213604
365.893	0.353997
367.675	-0.0761509
369.455	0.157762
371.237	0.366791
373.017	0.385503
374.798	-0.0687714
376.578	0.327886
378.357	0.417647
380.137	0.413866
381.917	0.0816822
383.694	-0.0371132
385.473	0.574171
387.249	0.598601
389.028	0.577147
390.806	0.439257
392.581	0.255252
394.359	0.353709
396.134	0.78136
397.91	0.0818977
399.684	0.58013
401.46	-0.0493479
403.234	0.142755
405.009	0.522134
406.784	0.0789232
408.557	0.08146
410.331	0.201129
412.103	-0.758715
413.876	-0.52114
415.647	0.538239
417.42	0.0966835
419.191	0.383176
420.961	0.388402
422.733	-0.0290422
424.502	0.351068
426.273	-0.161644
428.042	-0.135073
429.812	0.00849342
431.58	0.0346994
433.35	-0.0795851
435.118	0.627919
436.885	0.138529
438.653	0.798588
440.42	-0.067996
442.188	0.471581
443.954	0.352322
445.719	-0.260361
447.486	0.156764
449.251	0.526004
451.015	0.00690746
452.781	-0.0207472
454.545	0.488388
456.308	0.157711
458.073	0.689149
459.836	-0.0832806
461.598	0.0529623
463.362	0.701757
465.124	0.655278
466.885	0.3095
468.648	0.686687
470.408	-0.236246
472.169	0.283109
473.929	0.80247
475.69	1.22754
477.45	0.905289
479.208	0.394873
480.967	0.0932608
482.727	0.187793
484.485	0.679341
486.243	0.497294
488	0.154009
489.759	-0.0944824
491.515	0.427938
493.272	0.624837
495.028	0.565106
496.783	-0.00973797
498.54	0.304493
500.295	-0.0611506
502.05	0.0884123
503.804	-0.114841
505.558	0.832347
507.311	0.22736
509.064	0.373282
510.819	0.376705
512.572	0.872884
514.324	0.450015
516.076	0.661218
517.827	0.0951509
519.578	0.468946
521.329	0.72427
523.08	0.1335
524.83	0.129983
526.58	0.196864
528.329	0.005826
530.08	1.24444
531.829	0.748186
533.578	0.368845
535.326	0.55036
537.074	0.216197
538.821	0.208291
540.568	0.222696
542.315	0.329549
544.062	0.412561
545.808	0.0771198
547.554	-0.187702
549.299	0.127895
551.044	0.00304604
552.789	0.433815
554.533	0.263106
556.278	0.0237846
558.019	0.315714
559.763	1.04532
561.506	0.692303
563.249	0.616475
564.991	-0.0102968
566.733	-0.337003
568.475	0.508244
570.217	0.206269
571.958	-0.254817
573.699	0.662049
575.439	0.525317
577.177	0.298345
578.917	0.164294
580.656	0.352402
582.396	0.379992
584.134	0.407171
585.873	0.410484
587.609	0.297665
589.347	0.781916
591.084	0.322061
592.822	0.0457945
594.558	-0.368627
596.295	0.298348
598.029	-0.254043
599.765	0.412638
601.5	-0.278695
603.235	-0.188885
604.968	0.198514
606.703	-0.0129919
608.437	0.234318
610.171	0.0222101
611.902	0.108968
613.635	0.517341
615.368	-0.10532
617.099	-0.108734
618.831	0.299682
620.563	0.317668
622.294	-0.168728
624.024	-0.083703
625.755	-0.021656
627.485	-0.346889
629.213	0.0601168
630.943	0.103885
632.673	0.195118
634.4	0.264544
636.129	-0.0314646
637.855	0.858065
639.584	0.375586
641.312	0.734753
643.037	0.498623
644.764	-0.0797901
646.491	-0.110955
648.216	-0.0268269
649.942	-0.28096
651.666	0.467987
653.392	0.788877
655.115	0.453601
656.84	0.620808
658.563	0.265015
660.287	0.524233
662.011	-0.0395937
663.732	0.216463
665.456	0.790764
667.177	0.311739
668.899	0.426486
670.62	0.770614
672.342	0.384421
674.061	0.320592
675.781	0.900352
677.502	1.06944
679.22	0.641898
680.941	0.833362
682.659	0.977493
684.379	0.314149
686.096	0.776781
687.815	0.68544
689.532	0.500942
691.248	0.68433
692.966	0.153085
694.682	0.35831
696.4	0.309311
698.115	1.04201
699.829	1.01364
701.546	0.524256
703.26	0.356377
704.974	0.417775
706.689	0.409771
708.402	0.332627
710.115	0.736456
711.83	0.658511
713.542	1.01502
715.254	1.14219
716.967	1.15492
718.679	0.893977
720.39	0.998329
722.102	0.943243
723.812	0.774553
725.522	0.833386
727.232	1.14171
728.943	0.836392
730.652	1.09802
732.361	0.951125
734.069	0.487585
735.779	0.409253
737.487	0.873323
739.194	0.818248
740.901	0.989544
742.608	0.598516
744.316	0.524338
746.022	1.17157
747.728	0.874741
749.433	1.41148
751.138	0.352391
752.843	0.868904
754.549	1.27428
756.254	0.871036
757.957	0.851591
759.661	0.8334
761.364	1.56018
763.067	1.11528
764.769	1.12107
766.471	1.50999
768.175	1.42295
769.877	1.46952
771.578	1.64989
773.279	1.89676
774.98	1.35173
776.68	2.02817
778.38	1.71093
780.079	0.829608
781.779	1.66818
783.478	1.78327
785.176	1.92004
786.875	2.00937
788.573	1.8015
790.27	1.3419
791.968	2.05573
793.665	1.63773
795.361	1.22024
797.058	1.86357
798.754	1.89931
800.45	2.40936
802.145	2.04288
803.84	1.09265
805.535	2.45851
807.23	1.32826
808.922	1.77012
810.616	1.94102
812.309	1.90896
814.002	1.54032
815.695	1.70932
817.388	1.78851
819.08	2.20286
820.772	1.81276
822.464	1.60214
824.153	1.94996
825.844	1.78609
827.535	2.15889
829.225	1.62099
830.915	1.84311
832.605	2.0234
834.292	1.33648
835.981	1.80954
837.67	1.23406
839.359	1.95203
841.047	1.75331
842.732	1.95537
844.42	1.44194
846.107	2.02406
847.794	1.49016
849.479	1.38298
851.165	1.56894
852.851	1.10697
854.534	1.49751
856.22	1.28228
857.905	0.930741
859.589	1.13969
861.272	1.61755
862.956	1.19334
864.639	0.767587
866.321	1.82861
868.004	1.44645
869.687	1.13134
871.367	1.24441
873.049	1.37988
874.731	1.62811
876.41	1.42506
878.092	1.15424
879.771	1.44757
881.451	0.79247
883.131	1.76211
884.809	1.08279
886.489	0.876378
888.166	0.894341
889.845	0.753052
891.522	0.971235
893.2	1.0303
894.878	0.975718
896.554	1.43733
898.231	1.1111
899.906	1.50255
901.583	1.04095
903.258	1.76594
904.934	1.37146
906.608	0.531751
908.283	0.831571
909.956	1.06464
911.631	0.986511
913.304	1.06472
914.976	1.27631
916.65	1.02168
918.322	1.05558
919.995	0.956621
921.666	0.349504
923.339	0.871618
925.009	0.687474
926.679	1.36617
928.351	1.18501
930.021	1.77739
931.692	0.980189
933.361	1.17617
935.029	0.710523
936.699	1.32601
938.367	1.43492
940.035	1.25818
941.704	0.464767
943.371	1.12796
945.038	1.39407
946.706	1.04118
948.372	1.03981
950.038	0.727784
951.705	0.988442
953.37	1.0725
955.035	0.540396
956.7	1.00296
958.366	0.828789
960.03	0.87758
961.693	1.01614
963.357	0.624317
965.021	0.319054
966.684	0.98479
968.346	1.13942
970.008	1.09302
971.67	0.44859
973.334	0.622982
974.995	0.621609
976.655	0.621752
978.316	0.534669
979.976	0.757897
981.638	0.980927
983.297	0.538727
984.957	0.714674
986.616	0.357603
988.274	0.463833
989.932	1.05537
991.59	0.540642
993.248	0.843561
994.907	0.506018
996.565	0.345442
998.221	0.71419
999.878	0.839897
1001.53	0.524653
1003.19	0.891653
1004.85	0.620086
1006.5	0.89816
1008.16	0.121859
1009.81	0.751322
1011.46	0.744329
1013.12	0.496637
1014.77	0.205752
1016.43	0.375227
1018.08	-0.155247
1019.73	0.737
1021.38	0.798617
1023.04	0.445848
1024.69	0.312561
1026.34	0.747942
1027.99	0.484051
1029.64	0.678462
1031.29	1.06828
1032.94	0.670486
1034.59	1.77706
1036.24	1.76893
1037.89	0.95394
1039.54	1.16319
1041.19	2.13397
1042.84	2.38733
1044.48	2.42489
1046.13	2.22546
1047.78	1.74567
1049.42	1.87561
1051.07	1.72441
1052.72	1.37841
1054.36	1.31509
1056.01	0.273666
1057.66	1.05762
1059.3	0.732534
1060.94	0.928657
1062.59	0.884898
1064.23	0.731594
1065.88	0.316523
1067.52	0.270173
1069.16	-0.0594177
1070.81	0.240475
1072.45	0.279488
1074.09	0.709393
1075.73	0.228832
1077.38	1.09417
1079.02	0.420761
1080.66	0.702179
1082.3	-0.0789433
1083.94	0.548653
1085.58	0.350932
1087.22	0.714965
1088.86	0.0590687
1090.5	0.635905
1092.13	0.799976
1093.77	0.574537
1095.41	0.284908
1097.05	0.0826893
1098.68	0.829666
1100.32	0.673001
1101.96	0.539668
1103.6	0.128278
1105.23	0.51399
1106.87	0.14734
1108.5	0.167612
1110.14	0.251476
1111.77	0.290981
1113.41	0.393515
1115.04	0.258685
1116.67	0.338029
1118.31	0.0528717
1119.94	0.325654
1121.58	-0.129096
1123.21	0.487595
1124.84	0.313
1126.47	0.374516
1128.1	-0.055192
1129.73	0.413835
1131.37	0.37012
1133	0.604565
1134.63	0.625094
1136.26	-0.167095
1137.89	-0.0624018
1139.52	0.617944
1141.14	0.869826
1142.77	0.736869
1144.4	0.390852
1146.03	-0.359338
1147.66	0.06392
1149.29	-0.598945
1150.91	0.400303
1152.54	0.547279
1154.17	0.182925
1155.79	0.393057
1157.42	-0.0991793
1159.04	0.387551
1160.67	0.0241442
1162.3	0.108268
1163.92	0.512133
1165.55	0.469933
1167.17	0.980319
1168.79	-0.104793
1170.42	0.424421
1172.04	0.484189
1173.66	-0.306931
1175.28	-0.525176
1176.91	0.401205
1178.53	0.309524
1180.15	-0.0989628
1181.77	0.403425
1183.39	-0.341581
1185.01	-0.198265
1186.63	-0.161453
1188.25	0.0849657
1189.87	-0.0711946
1191.49	0.318765
1193.11	0.138735
1194.73	-0.041522
1196.35	0.198028
1197.97	0.605177
1199.59	0.761855
1201.2	0.481508
1202.82	-0.255427
1204.44	0.325378
1206.05	0.0521479
1207.67	0.155647
1209.29	0.217645
1210.9	0.591796
1212.52	0.213701
1214.13	0.0424395
1215.75	0.30678
1217.36	-0.0549622
1218.97	0.0403118
1220.59	0.28056
1222.2	-0.391628
1223.82	-0.0670261
1225.43	0.32038
1227.04	0.108458
1228.65	-0.0814037
1230.26	0.45356
1231.88	0.493124
1233.49	-0.148348
1235.1	0.0793104
1236.71	0.597338
1238.32	0.289454
1239.93	0.560997
1241.54	0.253696
1243.15	0.297673
1244.76	0.361712
1246.37	0.838758
1247.97	-0.133547
1249.58	0.486796
1251.19	0.382647
1252.8	0.857859
1254.41	0.0925846
1256.01	0.941573
1257.62	0.260936
1259.23	0.26384
1260.83	0.764278
1262.44	0.437193
1264.04	0.627765
1265.65	0.217173
1267.25	0.551936
1268.86	0.720189
1270.46	0.141151
1272.07	0.0380726
1273.67	0.224405
1275.27	0.534222
1276.88	0.573693
1278.48	0.363846
1280.08	0.319274
1281.68	0.605618
1283.28	-0.163288
1284.89	0.743889
1286.49	0.927629
1288.09	0.65748
1289.69	0.367548
1291.29	0.532711
1292.89	0.656446
1294.49	0.820835
1296.09	0.632944
1297.69	0.485087
1299.29	0.397853
1300.88	1.15472
1302.48	0.858707
1304.08	1.01511
1305.68	0.553781
1307.27	0.134003
1308.87	0.638063
1310.47	0.423743
1312.06	0.169239
1313.66	0.140806
1315.25	0.378859
1316.85	0.147702
1318.44	0.631433
1320.04	0.461969
1321.63	0.923466
1323.23	0.874039
1324.82	0.416638
1326.41	0.121557
1328.01	0.657951
1329.6	0.24176
1331.19	0.616594
1332.78	0.952133
1334.38	1.00642
1335.97	0.779608
1337.56	0.372025
1339.15	1.53658
1340.74	1.20756
1342.33	0.877127
1343.92	0.565712
1345.51	-0.267942
1347.1	0.60486
1348.69	0.415501
1350.28	0.268577
1351.87	0.484019
1353.46	0.621034
1355.04	0.739112
1356.63	0.797519
1358.22	0.635783
1359.81	0.673021
1361.39	0.130471
1362.98	0.7248
1364.57	0.460861
1366.15	-0.12136
1367.74	0.651834
1369.32	0.469875
1370.91	0.886276
1372.49	0.448122
1374.07	0.448756
1375.66	0.728552
1377.24	0.411493
1378.83	0.49198
1380.41	0.372621
1381.99	0.471004
1383.57	0.588081
1385.16	0.902948
1386.74	0.501867
1388.32	0.359435
1389.9	0.396323
1391.48	0.314894
1393.06	0.234189
1394.64	0.0943518
1396.22	0.549298
1397.8	0.844805
1399.38	0.227713
1400.96	0.442163
1402.54	0.25998
1404.12	0.552757
1405.7	0.311776
1407.28	0.506577
1408.85	0.583421
1410.43	0.739681
1412.01	0.421906
1413.58	0.735497
1415.16	0.554755
1416.74	0.491756
1418.31	0.408755
1419.89	0.700385
1421.46	0.342875
1423.04	0.734976
1424.61	0.537915
1426.19	0.282949
1427.76	0.618934
1429.33	1.13186
1430.91	0.561444
1432.48	0.305013
1434.05	0.815111
1435.63	0.793495
1437.2	0.654084
1438.77	0.358127
1440.34	1.20304
1441.91	0.928469
1443.49	1.06726
1445.05	0.970567
1446.63	1.07058
1448.2	0.974178
1449.77	0.838685
1451.34	0.959178
1452.91	0.942527
1454.47	0.906542
1456.04	1.22468
1457.61	0.89296
1459.18	1.18983
1460.75	0.796365
1462.31	0.853877
1463.88	0.51658
1465.45	0.905869
1467.01	1.01937
1468.58	0.622596
1470.15	0.697963
1471.71	1.2647
1473.28	0.184628
1474.84	0.635208
1476.41	0.713497
1477.97	0.870289
1479.54	0.71335
1481.1	0.399565
1482.66	0.654098
1484.23	0.830063
1485.79	0.574672
1487.35	0.240381
1488.91	0.512086
1490.48	0.938441
1492.04	0.541042
1493.6	1.06039
1495.16	1.20624
1496.72	0.259511
1498.28	0.287948
1499.84	0.80266
1501.4	0.462937
1502.96	0.512876
1504.52	0.524766
1506.08	0.42074
1507.64	0.819178
1509.2	0.423802
1510.76	0.27911
1512.31	0.326702
1513.87	0.123622
1515.43	0.151847
1516.99	0.54529
1518.54	0.382369
1520.1	0.373618
1521.66	0.0397701
1523.21	-0.427419
1524.77	0.327678
1526.32	0.81308
1527.88	-0.169839
1529.43	0.123436
1530.99	0.169019
1532.54	-0.0316105
1534.09	-0.344571
1535.65	0.100671
1537.2	0.167832
1538.75	0.461974
1540.31	0.24674
1541.86	0.653689
1543.41	0.70218
1544.96	0.280346
1546.51	0.347512
1548.06	0.433154
1549.62	-0.324893
1551.17	-0.0326557
1552.72	0.315549
1554.27	0.383564
1555.82	0.546074
1557.36	0.187302
1558.91	0.446296
1560.46	0.128518
1562.01	0.465111
1563.56	0.541541
1565.11	0.562539
1566.66	0.378374
1568.2	0.492583
1569.75	0.643815
1571.3	0.49606
1572.84	0.497377
1574.39	0.479905
1575.93	0.462449
1577.48	0.0158005
1579.02	0.484264
1580.57	0.916025
1582.11	0.657638
1583.66	0.194379
1585.2	0.572433
1586.75	0.708176
1588.29	0.657133
1589.83	0.587161
1591.38	0.198535
1592.92	1.26978
1594.46	0.768062
1596	0.715741
1597.54	0.588781
1599.09	0.499816
1600.63	0.824083
1602.17	0.942649
1603.71	1.51202
1605.25	0.954105
1606.79	0.50729
1608.33	0.603648
1609.87	0.622823
1611.41	0.433269
1612.95	0.39238
1614.48	0.237787
1616.02	0.420609
1617.56	0.453626
1619.1	0.487608
1620.64	0.728879
1622.17	0.840181
1623.71	0.390575
1625.25	0.877078
1626.78	0.183708
1628.32	0.74311
1629.86	0.646318
1631.39	0.604759
1632.92	0.861716
1634.46	0.539948
1635.99	0.405806
1637.53	0.384486
1639.06	0.456955
1640.59	0.0448637
1642.13	0.340506
1643.66	0.61633
1645.19	0.202266
1646.73	0.661954
1648.26	0.730476
1649.79	0.242171
1651.32	1.10998
1652.85	0.809479
1654.38	0.584422
1655.92	0.45277
1657.45	0.56204
1658.98	0.263104
1660.51	0.944483
1662.04	0.328768
1663.57	0.674182
1665.09	0.427485
1666.62	0.569036
1668.15	0.600656
1669.68	0.486089
1671.21	0.704587
1672.73	0.0397797
1674.26	0.793713
1675.79	0.516091
1677.31	0.29317
1678.84	0.842124
1680.37	0.194491
1681.89	0.190067
1683.42	0.405696
1684.94	0.712854
1686.47	0.781525
1687.99	0.667249
1689.52	0.205399
1691.04	0.842823
1692.57	-0.386958
1694.09	0.524521
1695.61	0.37458
1697.14	0.224567
1698.66	0.311827
1700.18	1.1651
1701.7	0.393601
1703.22	0.260527
1704.75	0.38209
1706.27	0.357489
1707.79	0.441734
1709.31	0.253307
1710.83	-0.0799141
1712.35	-0.19482
1713.87	0.143549
1715.39	-0.152184
1716.91	0.20369
1718.43	0.251608
1719.95	-0.170111
1721.46	0.0765982
1722.98	0.323397
1724.5	0.282486
1726.02	0.0627298
1727.53	-0.137642
1729.05	-0.408993
1730.57	-0.0663671
1732.08	0.485072
1733.6	0.444845
1735.12	0.402456
1736.63	-0.0834446
1738.15	0.206417
1739.66	0.349561
1741.18	0.118143
1742.69	0.00247574
1744.21	0.160239
1745.72	0.0038023
1747.23	0.192749
1748.74	-0.0407915
1750.26	0.061655
1751.77	0.593634
1753.28	0.295976
1754.8	0.24382
1756.31	0.0232096
1757.82	0.596953
1759.33	0.403163
1760.84	0.237219
1762.35	0.212472
1763.86	0.0366297
1765.37	-0.244503
1766.88	-0.0521755
1768.39	0.225438
1769.9	0.0618982
1771.41	-0.00692463
1772.92	0.212921
1774.43	0.0156012
1775.93	-0.00919151
1777.44	-0.0684233
1778.95	0.0477695
1780.46	-0.112514
1781.96	0.061142
1783.47	2.09808e-005
1784.98	-0.0775881
1786.48	0.0531883
1787.99	0.0823164
1789.49	0.0677023
1791	-0.0701132
1792.5	-0.0104074
1794.01	0.422767
1795.51	-0.00383377
1797.02	-0.113666
1798.52	0.159598
1800.03	-0.0717087
1801.53	-0.00737286
1803.03	0.0149088
1804.53	-0.160534
1806.04	0.0639229
1807.54	0.0148907
1809.04	0.194983
1810.54	-0.0223179
1812.04	0.0588369
1813.54	0.412458
1815.05	0.247567
1816.55	-0.146775
1818.05	0.158895
1819.55	0.32162
1821.05	0.0470114
1822.55	0.105154
1824.05	0.250985
1825.54	0.0628147
1827.04	-0.0404806
1828.54	-0.00779724
1830.04	-0.0223351
1831.54	0.237382
1833.03	0.110019
1834.53	-0.0144653
1836.03	0.417237
1837.52	0.108951
1839.02	0.250451
1840.52	-0.118497
1842.01	0.257973
1843.51	0.0691566
1845	0.0794182
1846.5	0.167876
1847.99	0.4537
1849.49	0.303426
1850.98	0.0125608
1852.47	0.0218
1853.97	-0.171422
1855.46	0.165786
1856.95	0.137396
1858.45	0.487906
1859.94	0.444408
1861.43	0.361208
1862.92	-0.174406
1864.41	0.033392
1865.91	0.232299
1867.4	0.181754
1868.89	0.310914
1870.38	0.281693
1871.87	0.175276
1873.36	0.121753
1874.85	0.238379
1876.34	0.0470152
1877.83	0.115061
1879.31	0.349122
1880.8	0.0311651
1882.29	0.166201
1882.56	0.212203
1884.05	-0.259912
1885.54	-0.0875745
1887.04	-0.368947
1888.53	-0.302273
1890.03	-0.287689
1891.52	0.440719
1893.01	0.352911
1894.5	-0.272229
1895.99	-0.200645
1897.49	-0.00661373
1898.98	0.0656266
1900.47	0.0848336
1901.96	0.0330844
1903.45	0.397242
1904.94	0.655581
1906.43	0.131138
1907.92	0.40602
1909.41	0.420828
1910.9	0.124139
1912.39	0.0886021
1913.88	0.192307
1915.37	0.330734
1916.86	0.000724792
1918.35	0.0690656
1919.84	0.275606
1921.32	0.256776
1922.81	0.480747
1924.3	-0.021718
1925.78	0.411719
1927.27	-0.0541453
1928.76	-0.138638
1930.24	0.521427
1931.73	0.245739
1933.21	-0.0138617
1934.7	0.348311
1936.18	0.241608
1937.67	0.289618
1939.15	0.544514
1940.64	-0.357526
1942.12	0.0192471
1943.6	0.413791
1945.09	-0.139629
1946.57	0.0144048
1948.05	0.168144
1949.54	0.252226
1951.02	0.094327
1952.5	0.0734816
1953.98	0.172552
1955.46	-0.0894132
1956.94	-0.127465
1958.42	0.298491
1959.91	0.415868
1961.39	0.499326
1962.87	0.377215
1964.34	0.374972
1965.82	0.0469198
1967.3	0.317652
1968.78	0.296722
1970.26	0.0531106
1971.74	0.151229
1973.22	-0.0239248
1974.7	-0.147573
1976.17	0.257457
1977.65	-0.104362
1979.13	0.300333
1980.6	0.296234
1982.08	0.223997
1983.56	0.202563
1985.03	0.248769
1986.51	0.413406
1987.98	-0.0322971
1989.46	0.183377
1990.93	-0.20988
1992.41	0.31142
1993.88	0.173768
1995.36	0.0200334
1996.83	0.407365
1998.3	0.0344453
1999.78	0.370459
2001.25	0.317551
2002.72	0.179937
2004.2	0.312072
2005.67	0.259034
2007.14	-0.0291104
2008.61	0.222565
2010.08	0.256011
2011.55	-0.0467658
2013.02	0.222834
2014.49	-0.43357
2015.97	-0.0135703
2017.43	0.422233
2018.9	0.201352
2020.37	0.232248
2021.84	0.246202
2023.31	0.260437
2024.78	0.359243
2026.25	-0.178378
2027.72	0.00657988
2029.19	-0.394271
2030.65	-0.0224609
2032.12	0.0482812
2033.59	0.270553
2035.05	0.341825
2036.52	0.194428
2037.98	0.063292
2039.45	0.0326099
2040.92	0.371695
2042.38	0.492694
2043.85	0.227567
2045.31	0.265919
2046.78	0.506982
2048.24	-0.00946522
2049.71	0.299109
2051.17	0.303584
2052.63	0.188663
2054.1	0.510652
2055.56	0.460083
2057.02	0.273476
2058.48	0.237983
2059.95	0.589797
2061.41	0.554451
2062.87	0.469366
2064.33	0.0149512
2065.79	0.116827
2067.25	0.202576
2068.71	0.187852
2070.17	0.661555
2071.63	0.0411243
2073.09	0.178108
2074.55	0.399094
2076.01	-0.0874634
2077.47	-0.136505
2078.93	-0.152187
2080.39	-0.0672078
2081.85	0.30351
2083.3	0.0338883
2084.76	0.268619
2086.22	0.0652108
2087.68	0.147292
2089.13	0.128119
2090.59	0.226372
2092.05	0.290885
2093.5	0.204233
2094.96	0.117458
2096.41	0.667235
2097.87	0.127076
2099.32	0.256598
2100.78	0.552878
2102.23	0.180522
2103.69	0.193461
2105.14	0.791599
2106.59	0.339411
2108.05	0.422119
2109.5	-0.111895
2110.95	0.637498
2112.41	0.801985
2113.86	0.315338
2115.31	0.227362
2116.76	0.122169
2118.21	0.582165
2119.67	0.17953
2121.12	0.193722
2122.57	-0.0724306
2124.02	0.458643
2125.47	0.542455
2126.92	0.443639
2128.37	0.0290461
2129.82	0.143818
2131.27	0.638356
2132.71	-0.159396
2134.16	0.251373
2135.61	0.381277
2137.06	0.231324
2138.51	0.496123
2139.95	0.332794
2141.4	0.666695
2142.85	0.340345
2144.29	0.42786
2145.74	0.813467
2147.19	0.768639
2148.63	0.77291
2150.08	0.180029
2151.52	0.580253
2152.97	0.946564
2154.42	0.400881
2155.86	0.749508
2157.3	0.220192
2158.75	0.619141
2160.19	0.73762
2161.64	0.807938
2163.08	0.69752
2164.52	0.820528
2165.96	0.894615
2167.41	0.968717
2168.85	0.692864
2170.29	0.531627
2171.73	0.917502
2173.17	0.952427
2174.61	0.753286
2176.06	0.537095
2177.5	0.886479
2178.94	0.920549
2180.38	0.639577
2181.82	0.525586
2183.26	0.877676
2184.7	0.73114
2186.14	0.701064
2187.57	0.255008
2189.01	0.44123
2190.45	0.161425
2191.89	0.580539
2193.33	0.582875
2194.76	0.667342
2196.2	0.783526
2197.64	0.565165
2199.08	1.16031
2200.51	0.956223
2201.95	0.652699
2203.38	0.184276
2204.82	0.281079
2206.25	0.444909
2207.69	0.609028
2209.12	0.176707
2210.56	0.24068
2211.99	0.171439
2213.43	0.762838
2214.86	0.345762
2216.3	0.689041
2217.73	0.34001
2219.16	0.651958
2220.59	-0.173099
2222.03	-0.0251975
2223.46	0.22088
2224.89	0.597324
2226.32	0.511103
2227.75	0.407164
2229.19	0.0888443
2230.62	0.328334
2232.05	0.124691
2233.48	0.576446
2234.91	0.292091
2236.34	0.335992
2237.77	0.642353
2239.2	0.444173
2240.63	0.574087
2242.06	0.102038
2243.48	0.364986
2244.91	0.383575
2246.34	0.385285
2247.77	0.467188
2249.2	0.204865
2250.62	0.10389
2252.05	0.294623
2253.48	0.110307
2254.9	0.527706
2256.33	0.328771
2257.76	0.0509405
2259.18	0.100079
2260.61	0.541013
2262.03	-0.0383415
2263.46	0.130114
2264.88	0.152726
2266.31	0.54905
2267.73	0.164214
2269.16	0.201421
2270.58	0.286825
2272	0.64866
2273.43	0.684778
2274.85	0.704699
2276.27	0.284865
2277.69	0.0768447
2279.12	0.651287
2280.54	0.312797
2281.96	0.186064
2283.38	0.858618
2284.8	0.438178
2286.22	0.0830011
2287.64	0.397374
2289.07	0.124311
2290.49	0.504984
2291.91	0.412135
2293.32	0.27024
2294.74	0.471797
2296.16	0.2806
2297.58	-0.0581875
2299	0.42191
2300.42	0.410892
2301.84	0.0721412
2303.26	0.586412
2304.67	0.411923
2306.09	0.220757
2307.51	-0.0201893
2308.92	-0.0481029
2310.34	0.3017
2311.76	0.437557
2313.17	0.343114
2314.59	0.347712
2316	-0.0587358
2317.42	0.605964
2318.83	0.216737
2320.25	0.338179
2321.66	0.0792689
2323.08	0.165227
2324.49	-0.113808
2325.91	0.23238
2327.32	0.560402
2328.73	1.08518
2330.15	0.73658
2331.56	0.142184
2332.97	0.30625
2334.38	0.0595865
2335.79	0.125787
2337.21	0.0928946
2338.62	0.0592098
2340.03	-0.189001
2341.44	-0.0599933
2342.85	0.232546
2344.26	-0.262503
2345.67	-0.0847387
2347.08	-0.0871382
2348.49	0.172384
2349.9	-0.190359
2351.31	0.590998
2352.72	0.259658
2354.13	-0.088201
2355.53	0.134557
2356.94	0.128619
2358.35	0.0901399
2359.76	0.263057
2361.17	-0.0674391
2362.57	0.218823
2363.98	0.0995007
2365.39	0.36866
2366.79	-0.251438
2368.2	-0.0464091
2369.6	0.062304
2371.01	0.252528
2372.42	0.0731006
2373.82	-0.10532
2375.22	0.392756
2376.63	0.101708
2378.03	-0.0130677
2379.44	0.304861
2380.84	-0.117574
2382.25	0.117122
2383.65	-0.16194
2385.05	0.0553398
2386.45	-0.0231242
2387.86	-0.100677
2389.26	0.51644
2390.66	0.145872
2392.06	0.111147
2393.46	-0.240925
2394.87	-0.242099
2396.27	-0.131429
2397.67	-0.195152
2399.07	0.408956
2400.47	-0.0193605
2401.87	0.219831
2403.27	0.189003
2404.67	0.0308428
2406.07	0.332369
2407.47	-0.144593
2408.86	0.187061
2410.26	0.153535
2411.66	-0.323369
2413.06	0.293517
2414.46	0.103633
2415.85	0.0100169
2417.25	0.281621
2418.65	0.316535
2420.05	0.161719
2421.44	-0.0724683
2422.84	0.374218
2424.23	0.250377
2425.63	0.300877
2427.03	0.256742
2428.42	0.30844
2429.82	0.0279212
2431.21	0.0650806
2432.6	0.00713301
2434	0.631625
2435.39	0.540659
2436.79	0.0829177
2438.18	0.243506
2439.57	0.625348
2440.97	0.0534024
2442.36	0.148108
2443.75	0.0838242
2445.14	-0.139164
2446.54	0.145248
2447.93	0.223282
2449.32	0.174515
2450.71	0.15765
2452.1	0.331177
2453.49	0.172974
2454.88	-0.142641
2456.27	0.0169435
2457.66	0.508936
2459.05	0.0833535
2460.44	0.384846
2461.83	-0.0891891
2463.22	-0.168463
2464.61	-0.26394
2466	0.0826073
2467.39	0.0815029
2468.77	-0.12476
2470.16	-0.157523
2471.55	-0.00147009
2472.94	0.169599
2474.32	0.0564504
2475.71	-0.198632
2477.1	-0.0606833
2478.48	0.328272
2479.87	-0.0364552
2481.25	0.0542336
2482.64	0.113386
2484.02	0.093781
2485.41	0.151667
2486.8	0.0210228
2488.18	-0.125828
2489.56	-0.16382
2490.95	0.389586
2492.33	0.13375
2493.72	0.205478
2495.1	0.0299954
2496.48	0.181345
2497.86	0.0388932
2499.25	0.221893
2500.63	0.00220966
2502.01	0.0913048
2503.39	-0.144808
2504.77	0.420892
2506.16	0.229891
2507.54	-0.20713
2508.92	-0.0281448
2510.3	0.196875
2511.68	-0.222379
2513.06	0.126184
2514.44	-0.183712
2515.82	0.104469
2517.2	-0.00479174
2518.58	0.222863
2519.95	-0.359455
2521.33	0.249882
2522.71	0.00322628
2524.09	0.351048
2525.47	-0.231903
2526.84	-0.29638
2528.22	0.096036
2529.6	0.0782609
2530.98	0.456981
2532.35	0.0467796
2533.73	-0.164647
2535.11	0.460118
2536.48	-0.464803
2537.86	0.144145
2539.23	0.615414
2540.61	-0.219997
2541.98	-0.0837884
2543.36	0.113252
2544.73	0.0378561
2546.1	-0.0516701
2547.48	0.208685
2548.85	-0.0156703
2550.23	-0.14902
2551.6	0.142138
2552.97	0.250465
2554.34	-0.00628138
2555.72	0.161135
2557.09	0.0398369
2558.46	-0.3241
2559.83	-0.0964179
2561.2	0.252847
2562.58	0.299458
2563.95	0.0283279
2565.32	-0.181822
2566.69	-0.0280724
2568.06	-0.23796
2569.43	0.128071
2570.8	0.130382
2572.17	0.163046
2573.54	0.362533
2574.91	0.167978
2576.27	0.125032
2577.64	0.112346
2579.01	-0.143135
2580.38	0.450233
2581.75	-0.0787988
2583.11	0.286462
2584.48	0.166346
2585.85	0.364542
2587.21	0.289985
2588.58	0.0337377
2589.95	0.26257
2591.31	-0.463408
2592.68	0.0528398
2594.04	-0.0376811
2595.41	-0.219831
2596.78	0.127124
2598.14	0.261291
2599.51	0.243812
2600.87	-0.0153031
2602.23	-0.00188446
2603.6	-0.229452
2604.96	0.0717444
2606.32	-0.215406
2607.69	0.206086
2609.05	-0.39833
2610.41	0.0965056
2611.77	0.0929146
2613.14	0.298881
2614.5	0.278501
2615.86	0.408002
2617.22	-0.107121
2618.58	0.113076
2619.94	0.0941176
2621.3	0.120656
2622.67	0.0878263
2624.03	0.0701628
2625.39	0.410614
2626.75	0.109187
2628.1	0.0165319
2629.46	0.519352
2630.82	0.262454
2632.18	0.570777
2633.54	-0.131482
2634.9	-0.194432
2636.26	0.0541277
2637.61	0.376371
2638.97	0.416835
2640.33	0.235462
2641.69	0.542442
2643.04	0.258315
2644.4	0.29951
2645.76	0.0897989
2647.11	0.21911
2648.47	-0.34462
2649.82	-0.0692077
2651.18	0.0875311
2652.53	-0.138114
2653.89	-0.216401
2655.24	-0.147366
2656.6	0.156764
2657.95	-0.0362115
2659.31	-0.125838
2660.66	0.179732
2662.01	0.0464587
2663.37	-0.0579405
2664.72	-0.104472
2666.07	0.388112
2667.43	0.296605
2668.78	0.292546
2670.13	0.201441
2671.48	0.285393
2672.83	0.427894
2674.18	0.48364
2675.53	0.133426
2676.89	0.219262
2678.24	0.291089
2679.59	0.00109434
2680.94	0.175997
2682.29	0.163402
2683.64	-0.0222178
2684.99	0.184485
2686.34	0.130525
2687.68	0.134443
2689.03	0.41323
2690.38	0.00832701
2691.73	0.50192
2693.08	0.268507
2694.43	-0.182985
2695.77	-0.271813
2697.12	0.509077
2698.47	0.117519
2699.81	0.0460582
2701.16	0.468367
2702.51	0.0375028
2703.85	0.375214
2705.2	0.249737
2706.54	-0.10789
2707.89	0.0418425
2709.23	0.118799
2710.58	-0.109455
2711.92	-0.192797
2713.27	0.0869894
2714.61	0.177933
2715.96	0.297969
2717.3	0.22889
2718.64	0.377781
2719.99	-0.0701489
2721.33	0.00532436
2722.67	-0.123335
2724.01	-0.019485
2725.36	0.0840268
2726.7	0.201794
2728.04	0.159201
2729.38	0.145534
2730.72	-0.246549
2732.06	0.321654
2733.41	-0.143026
2734.75	0.17799
2736.09	-0.00992775
2737.43	0.311323
2738.77	0.167149
2740.11	0.110047
2741.44	0.648718
2742.78	0.0673051
2744.12	-0.0929208
2745.46	0.0515528
2746.8	0.369836
2748.14	0.281281
2749.48	0.265394
2750.81	-0.257909
2752.15	0.03126
2753.49	-0.186825
2754.83	-0.0424252
2756.16	0.217871
2757.5	-0.158941
2758.84	0.116075
2760.17	0.145248
2761.51	-0.215901
2762.84	0.190305
2764.18	0.0324264
2765.51	-0.328006
2766.85	0.0346217
2768.18	0.0203366
2769.52	0.221918
2770.85	0.133107
2772.19	0.245481
2773.52	-0.162597
2774.85	0.35224
2776.19	-0.0700746
2777.52	0.0986814
2778.85	0.00877953
2780.18	0.206831
2781.52	0.0889535
2782.85	0.143519
2784.18	0.0832448
2785.51	0.238022
2786.84	-0.194463
2788.17	0.189898
2789.51	-0.355483
2790.84	0.258764
2792.17	0.272739
2793.5	0.172732
2794.83	-0.170156
2796.16	0.401304
2797.48	0.286368
2798.81	0.185336
2800.14	0.0840459
2801.47	0.111022
2802.8	0.0807934
2804.13	0.0503883
2805.46	-0.151237
2806.79	0.273167
2808.11	0.0848999
2809.44	0.266092
2810.77	0.106226
2812.09	0.13158
2813.42	0.0443721
2814.75	0.27032
2816.07	0.270541
2817.4	-0.266912
2818.73	0.046535
2820.05	-0.221128
2821.38	0.120317
2822.7	-0.247379
2824.03	0.206323
2825.35	0.163795
2826.67	0.121333
2828	-0.0197968
2829.32	-0.0330248
2830.65	0.166457
2831.97	0.0829859
2833.29	0.126871
2834.62	0.028964
2835.94	0.142979
2837.26	0.129197
2838.58	0.284837
2839.9	0.312964
2841.23	0.298756
2842.55	0.468648
2843.87	0.356342
2845.19	0.44248
2846.51	0.0768619
2847.83	0.432281
2849.15	0.519207
2850.47	0.280826
2851.79	0.211694
2853.11	0.749903
2854.43	0.750733
2855.75	0.6384
2857.07	0.356577
2858.39	0.385619
2859.71	1.0219
2861.02	0.796537
2862.34	0.514544
2863.66	0.345325
2864.98	0.472322
2866.3	0.683878
2867.61	0.966035
2868.93	0.642102
2870.25	0.685127
2871.56	0.728253
2872.88	0.658424
2874.19	0.898085
2875.51	1.13685
2876.83	1.02267
2878.14	0.753237
2879.46	0.947995
2880.77	0.946001
2882.09	1.08509
2883.4	0.957982
2884.71	0.480621
2886.03	0.916338
2887.34	0.83263
2888.65	0.594306
2889.97	0.762385
2891.28	0.691412
2892.59	0.676155
2893.91	0.744866
2895.22	0.74376
2896.53	0.673221
2897.84	0.799334
2899.15	0.996034
2900.46	1.06732
2901.78	0.887115
2903.09	1.32254
2904.4	1.12859
2905.71	0.892891
2907.02	1.10516
2908.33	1.08019
2909.64	1.40556
2910.95	1.11567
2912.26	0.713669
2913.57	1.31904
2914.87	1.67158
2916.18	1.04301
2917.49	1.33737
2918.8	1.15524
2920.11	1.50462
2921.42	1.61653
2922.72	1.2679
2924.03	1.2697
2925.34	1.4679
2926.64	1.52672
2927.95	1.51567
2929.26	1.43448
2930.56	1.56263
2931.87	1.36896
2933.17	1.45473
2934.48	1.62433
2935.78	1.47254
2937.09	1.19511
2938.39	1.50472
2939.7	1.2835
2941	1.97089
2942.31	1.77851
2943.61	1.40518
2944.91	1.64769
2946.22	1.30373
2947.52	1.02983
2948.82	0.727565
2950.13	1.13846
2951.43	1.15634
2952.73	1.45307
2954.03	1.02081
2955.33	1.30236
2956.64	1.05255
2957.94	1.22397
2959.24	1.25721
2960.54	1.34833
2961.84	0.753989
2963.14	1.15534
2964.44	0.81279
2965.74	1.14321
2967.04	0.966921
2968.34	1.00052
2969.64	0.864886
2970.94	0.785377
2972.24	0.987392
2973.53	0.851994
2974.83	0.786886
2976.13	1.05923
2977.43	0.443676
2978.73	0.714041
2980.02	0.81424
2981.32	0.913476
2982.62	0.463716
2983.91	0.576915
2985.21	0.690772
2986.51	1.03045
2987.8	0.612313
2989.1	0.391583
2990.4	0.578557
2991.69	0.652763
2992.99	0.880792
2994.28	0.897037
2995.57	0.392725
2996.87	0.463895
2998.16	0.422574
2999.46	0.451588
3000.75	-0.192063
3002.05	0.258424
3003.34	0.120389
3004.63	0.20663
3005.92	-0.113496
3007.22	0.462039
3008.51	-0.0828648
3009.8	0.63059
3011.09	0.140894
3012.39	0.070437
3013.68	-0.32078
3014.97	0.0555644
3016.26	0.431875
3017.55	0.0982471
3018.84	-0.206805
3020.13	-0.24726
3021.42	0.490307
3022.71	-0.259859
3024	0.142196
3025.29	0.182487
3026.58	-0.040627
3027.87	0.0967827
3029.16	0.0550508
3030.45	0.318455
3031.73	-0.287327
3033.02	-0.0497656
3034.31	0.132637
3035.6	-0.168349
3036.89	-0.0839834
3038.17	-0.11128
3039.46	-0.167452
3040.75	0.0639572
3042.03	0.197975
3043.32	0.125982
3044.61	-0.301054
3045.89	-0.0696158
3047.18	0.764033
3048.46	0.397011
3049.75	0.318607
3051.03	0.336989
3052.32	-0.0943131
3053.6	-0.157177
3054.89	0.10689
3056.17	-0.0936747
3057.45	0.0458822
3058.74	-0.0605502
3060.02	0.132464
3061.31	0.692918
3062.59	0.111065
3063.87	0.156153
3065.15	0.120805
3066.44	0.29043
3067.72	0.148108
3069	0.209993
3070.28	0.0404439
3071.56	0.00620747
3072.84	0.066227
3074.13	0.125246
3075.41	0.360106
3076.69	0.146303
3077.97	0.272339
3079.25	0.0870228
3080.53	-0.137763
3081.81	0.249043
3083.09	0.107753
3084.37	-0.0873733
3085.64	0.219592
3086.92	0.214076
3088.2	0.0993862
3089.48	0.160575
3090.76	-0.145014
3092.04	0.390503
3093.31	0.0171208
3094.59	-0.260989
3095.87	-0.0507197
3097.14	0.2544
3098.42	-0.0370293
3099.7	-0.152314
3100.97	0.247116
3102.25	0.091104
3103.53	0.422742
3104.8	0.172573
3106.08	-0.198765
3107.35	0.310235
3108.63	0.156888
3109.9	0.153191
3111.18	0.312698
3112.45	0.499975
3113.73	0.0101457
3115	0.333249
3116.27	0.588356
3117.55	0.612238
3118.82	0.133336
3120.09	0.277421
3121.37	0.447778
3122.64	0.00766325
3123.91	0.190838
3125.18	0.279163
3126.45	0.259456
3127.73	0.483682
3129	0.572883
3130.27	0.486494
3131.54	0.278535
3132.81	0.516449
3134.08	0.389152
3135.35	0.315504
3136.62	0.241432
3137.89	0.220942
3139.16	0.604253
3140.43	0.475294
3141.7	0.185174
3142.97	0.392861
3144.24	0.358886
3145.51	0.0705056
3146.78	0.31923
3148.04	0.594874
3149.31	0.468932
