200.423	0.584906
202.238	0.573381
204.052	0.598763
205.868	0.747656
207.682	1.23747
209.495	0.826912
211.308	0.973427
213.12	0.243572
214.935	1.96251
216.746	0.357376
218.558	1.37048
220.369	0.689217
222.18	0.252535
223.992	0.543404
225.802	0.690212
227.612	0.354021
229.421	0.21069
231.23	1.00782
233.039	-0.00559998
234.849	-0.607477
236.657	0.456665
238.465	0.463814
240.272	-0.223282
242.079	0.612656
243.885	0.728247
245.691	0.119965
247.497	0.0396271
249.305	0.00272369
251.11	0.92588
252.915	0.153881
254.719	0.0788631
256.523	0.0513554
258.327	0.00131226
260.13	0.628986
261.933	0.417032
263.736	0.545622
265.538	0.194492
267.34	0.663416
269.141	-0.0491199
270.943	0.0322781
272.744	0.0393047
274.544	0.59831
276.344	-0.123425
278.144	-0.438471
279.944	-0.347406
281.743	-0.187935
283.542	0.20837
285.34	0.144802
287.138	-0.232121
288.936	0.254898
290.733	0.910078
292.53	0.154505
294.327	-0.0707417
296.123	-0.866718
297.919	0.825571
299.715	0.630304
301.508	0.363279
303.303	-0.0722198
305.098	0.158627
306.892	-0.232635
308.686	-0.099453
310.479	-0.298937
312.273	1.05207
314.065	-0.166107
315.858	-0.142307
317.648	0.0754337
319.44	0.534485
321.231	0.829393
323.022	0.88776
324.813	0.398325
326.604	0.386124
328.392	0.445213
330.181	0.26413
331.971	0.343796
333.76	-0.0820999
335.548	0.684368
337.335	0.154406
339.123	0.721107
340.91	0.20829
342.698	0.0289841
344.483	-0.150246
346.269	0.2687
348.055	0.0440331
349.841	0.560541
351.625	-0.235735
353.41	0.255903
355.195	0.482916
356.977	0.15889
358.762	1.28629
360.545	-0.614389
362.329	0.151125
364.11	-0.132149
365.893	1.17541
367.675	0.817635
369.455	-0.181299
371.237	-0.0192032
373.017	-0.308273
374.798	0.655081
376.578	-0.0124321
378.357	-0.111513
380.137	-0.679878
381.917	0.402569
383.694	0.756744
385.473	-0.415007
387.249	-0.408365
389.028	-0.0942688
390.806	-0.459545
392.581	-0.0481586
394.359	0.293921
396.134	0.730734
397.91	0.510206
399.684	0.218924
401.46	-0.355053
403.234	0.197266
405.009	0.701136
406.784	0.217199
408.557	1.09402
410.331	0.584929
412.103	0.615915
413.876	0.624229
415.647	-0.304567
417.42	0.363733
419.191	0.798777
420.961	0.366076
422.733	0.613552
424.502	0.625053
426.273	0.611294
428.042	1.27672
429.812	0.908253
431.58	0.539833
433.35	0.711853
435.118	-0.00723457
436.885	0.846136
438.653	0.243078
440.42	0.388336
442.188	-0.338243
443.954	0.479084
445.719	0.378117
447.486	-0.544298
449.251	0.0540123
451.015	0.908417
452.781	1.29509
454.545	0.562056
456.308	0.878994
458.073	0.729332
459.836	0.510262
461.598	0.362568
463.362	1.1709
465.124	0.798452
466.885	0.571211
468.648	0.395712
470.408	-0.00868988
472.169	-0.202868
473.929	0.625834
475.69	0.333876
477.45	0.0608807
479.208	0.809229
480.967	-0.331198
482.727	0.159081
484.485	0.651579
486.243	0.565599
488	0.180784
489.759	0.0793743
491.515	0.166616
493.272	0.769346
495.028	-0.0763168
496.783	0.714878
498.54	0.452629
500.295	0.376663
502.05	0.698326
503.804	-0.390514
505.558	-0.143311
507.311	-0.227615
509.064	0.108561
510.819	0.0182991
512.572	0.678034
514.324	0.346565
516.076	1.04761
517.827	0.0761395
519.578	0.0672493
521.329	-0.0370865
523.08	0.867542
524.83	-0.458996
526.58	1.28892
528.329	-0.50539
530.08	0.39687
531.829	1.27402
533.578	1.21225
535.326	0.516672
537.074	0.543915
538.821	-0.739056
540.568	0.263872
542.315	0.354486
544.062	0.188185
545.808	0.208075
547.554	0.0425606
549.299	-0.423477
551.044	-0.10075
552.789	0.49917
554.533	0.243223
556.278	0.219143
558.019	-0.0577507
559.763	-0.241104
561.506	-0.123835
563.249	0.845407
564.991	-0.46118
566.733	-0.340628
568.475	0.0338097
570.217	0.318106
571.958	0.0313301
573.699	0.114845
575.439	-0.027626
577.177	0.406801
578.917	-0.0511913
580.656	0.203901
582.396	0.551413
584.134	-0.29723
585.873	0.599365
587.609	0.15983
589.347	0.338902
591.084	-0.243116
592.822	0.485229
594.558	-0.328262
596.295	-0.405457
598.029	0.27656
599.765	0.152596
601.5	1.06219
603.235	-0.192886
604.968	-0.0476017
606.703	0.186853
608.437	-0.039875
610.171	-0.473223
611.902	-0.905184
613.635	0.430071
615.368	-0.0450478
617.099	-0.152824
618.831	-0.444763
620.563	0.0626907
622.294	0.178255
624.024	0.0862503
625.755	0.336874
627.485	-0.141401
629.213	0.000730515
630.943	0.352602
632.673	0.571575
634.4	-0.16577
636.129	0.648298
637.855	-0.298512
639.584	1.10036
641.312	0.530481
643.037	0.776976
644.764	-0.368534
646.491	-0.0556278
648.216	-0.148827
649.942	-0.122478
651.666	0.0475502
653.392	0.111456
655.115	0.272953
656.84	0.962917
658.563	-0.258364
660.287	0.912857
662.011	1.51227
663.732	0.279671
665.456	0.847073
667.177	0.199013
668.899	0.0522385
670.62	0.226915
672.342	-0.00656319
674.061	0.0621185
675.781	0.387163
677.502	-0.110685
679.22	0.906664
680.941	0.0849495
682.659	-0.235413
684.379	-0.0308552
686.096	0.100965
687.815	0.390942
689.532	0.149094
691.248	1.54125
692.966	0.582512
694.682	0.0370331
696.4	0.502953
698.115	0.828209
699.829	0.552422
701.546	0.412487
703.26	1.46602
704.974	0.679253
706.689	0.305571
708.402	0.665493
710.115	0.932381
711.83	0.305124
713.542	1.2795
715.254	1.24617
716.967	1.12133
718.679	0.449446
720.39	0.827454
722.102	0.817879
723.812	0.785711
725.522	1.54899
727.232	0.674973
728.943	0.595812
730.652	0.85601
732.361	0.390169
734.069	1.37281
735.779	0.590456
737.487	0.532936
739.194	1.69501
740.901	1.57214
742.608	0.257938
744.316	0.00599289
746.022	0.61211
747.728	0.837986
749.433	1.26876
751.138	0.0375881
752.843	0.293348
754.549	0.146734
756.254	0.407938
757.957	0.582186
759.661	0.939627
761.364	0.916454
763.067	1.50349
764.769	0.690973
766.471	1.45681
768.175	1.60952
769.877	1.03449
771.578	1.08845
773.279	1.00391
774.98	1.30277
776.68	0.901644
778.38	1.02297
780.079	1.32815
781.779	0.594995
783.478	1.69482
785.176	0.846378
786.875	1.21571
788.573	0.605755
790.27	1.82223
791.968	1.47213
793.665	1.32258
795.361	0.811729
797.058	0.393574
798.754	1.12767
800.45	1.54911
802.145	1.34296
803.84	0.980888
805.535	1.3157
807.23	1.10936
808.922	0.968403
810.616	1.49849
812.309	0.254429
814.002	1.63268
815.695	1.75442
817.388	0.936367
819.08	2.22058
820.772	1.51551
822.464	1.08002
824.153	1.40481
825.844	0.996418
827.535	0.792896
829.225	1.4186
830.915	0.802891
832.605	1.72957
834.292	1.34613
835.981	1.23187
837.67	0.581532
839.359	0.82148
841.047	0.678894
842.732	0.109207
844.42	-0.327686
846.107	0.42099
847.794	0.502556
849.479	0.476925
851.165	0.679817
852.851	0.438499
854.534	1.25312
856.22	0.968536
857.905	0.568855
859.589	0.637836
861.272	1.26639
862.956	0.225319
864.639	0.104862
866.321	-0.242847
868.004	-0.00574493
869.687	0.365894
871.367	-0.165203
873.049	-0.493885
874.731	0.643814
876.41	0.788925
878.092	-0.0139122
879.771	1.50789
881.451	0.320232
883.131	0.846786
884.809	0.874603
886.489	1.57666
888.166	0.154388
889.845	0.556778
891.522	0.505108
893.2	0.698513
894.878	-0.0557938
896.554	0.582985
898.231	-0.353565
899.906	0.12336
901.583	0.597485
903.258	1.20365
904.934	0.757343
906.608	1.02691
908.283	-0.0184479
909.956	0.877758
911.631	0.327686
913.304	1.06918
914.976	0.411095
916.65	0.441921
918.322	-0.147942
919.995	0.215469
921.666	-0.0179672
923.339	-0.271088
925.009	-0.63118
926.679	0.116535
928.351	0.337097
930.021	0.383507
931.692	-0.694023
933.361	0.391235
935.029	0.638363
936.699	-0.503292
938.367	0.253544
940.035	-0.0679855
941.704	-0.0564041
943.371	0.68486
945.038	0.212315
946.706	0.156765
948.372	0.870251
950.038	0.939682
951.705	0.278397
953.37	0.124874
955.035	0.0846367
956.7	-0.0164146
958.366	-0.0891724
960.03	0.086338
961.693	0.0885048
963.357	-0.439964
965.021	-0.353046
966.684	-0.204784
968.346	0.269947
970.008	0.629757
971.67	0.23555
973.334	1.14703
974.995	0.225861
976.655	-0.0946083
978.316	0.0523529
979.976	0.245022
981.638	0.437027
983.297	-0.0819321
984.957	-0.47197
986.616	0.262768
988.274	-0.00217056
989.932	-0.424213
991.59	0.766163
993.248	0.408661
994.907	-0.301529
996.565	-0.128147
998.221	0.552101
999.878	-0.157188
1001.53	1.3578
1003.19	0.933258
1004.85	0.42062
1006.5	0.369907
1008.16	-0.00990677
1009.81	0.59893
1011.46	0.396427
1013.12	0.5896
1014.77	0.432892
1016.43	0.933918
1018.08	0.253925
1019.73	0.757244
1021.38	0.562698
1023.04	1.1356
1024.69	1.05471
1026.34	1.434
1027.99	0.851898
1029.64	2.86832
1031.29	2.41316
1032.94	3.33004
1034.59	3.50026
1036.24	4.93156
1037.89	5.16035
1039.54	8.02231
1041.19	8.46722
1042.84	7.93692
1044.48	9.73677
1046.13	10.9979
1047.78	9.87529
1049.42	9.23554
1051.07	8.90339
1052.72	6.68343
1054.36	6.07154
1056.01	4.67694
1057.66	3.2593
1059.3	3.75339
1060.94	3.13705
1062.59	3.88874
1064.23	2.87696
1065.88	2.38479
1067.52	1.3904
1069.16	1.50249
1070.81	0.961525
1072.45	1.22391
1074.09	0.727604
1075.73	2.05589
1077.38	1.5648
1079.02	1.61881
1080.66	1.86967
1082.3	1.62182
1083.94	1.24207
1085.58	1.98607
1087.22	0.969921
1088.86	0.708271
1090.5	0.616203
1092.13	1.53767
1093.77	1.48449
1095.41	1.1512
1097.05	1.68254
1098.68	0.945255
1100.32	1.13838
1101.96	1.52925
1103.6	1.94532
1105.23	2.75144
1106.87	0.89188
1108.5	1.39764
1110.14	1.59989
1111.77	2.5077
1113.41	2.42283
1115.04	2.46383
1116.67	2.37467
1118.31	2.30722
1119.94	2.09151
1121.58	2.0924
1123.21	3.76525
1124.84	2.9787
1126.47	4.01287
1128.1	3.80814
1129.73	2.72868
1131.37	2.84805
1133	3.20335
1134.63	1.82685
1136.26	2.22321
1137.89	3.19387
1139.52	2.45234
1141.14	2.90459
1142.77	3.29107
1144.4	3.01633
1146.03	3.61748
1147.66	3.19766
1149.29	3.18505
1150.91	3.55702
1152.54	3.86505
1154.17	2.72441
1155.79	3.37116
1157.42	3.18748
1159.04	2.19653
1160.67	2.93047
1162.3	3.45431
1163.92	4.36331
1165.55	3.9341
1167.17	3.29174
1168.79	3.09335
1170.42	3.65606
1172.04	3.55502
1173.66	3.25855
1175.28	5.29312
1176.91	4.10083
1178.53	3.46169
1180.15	4.37042
1181.77	3.186
1183.39	4.37255
1185.01	4.14217
1186.63	4.47993
1188.25	4.96074
1189.87	4.25514
1191.49	5.083
1193.11	5.337
1194.73	4.89527
1196.35	4.51768
1197.97	5.00194
1199.59	5.30132
1201.2	3.8721
1202.82	4.70697
1204.44	5.38075
1206.05	4.20282
1207.67	5.76179
1209.29	4.98495
1210.9	5.43682
1212.52	5.61296
1214.13	6.59568
1215.75	6.00925
1217.36	6.43818
1218.97	6.21918
1220.59	6.41541
1222.2	7.17302
1223.82	6.19223
1225.43	7.05991
1227.04	5.88214
1228.65	6.50888
1230.26	5.73265
1231.88	7.44064
1233.49	7.14664
1235.1	6.31883
1236.71	8.90477
1238.32	7.95935
1239.93	7.80131
1241.54	6.98191
1243.15	8.41632
1244.76	8.31791
1246.37	8.69257
1247.97	8.67111
1249.58	8.89572
1251.19	9.40896
1252.8	9.63313
1254.41	8.57704
1256.01	9.44777
1257.62	9.45351
1259.23	10.125
1260.83	9.72318
1262.44	10.6479
1264.04	9.33621
1265.65	9.51447
1267.25	10.3955
1268.86	10.818
1270.46	10.8642
1272.07	11.1144
1273.67	11.0505
1275.27	11.8334
1276.88	11.1002
1278.48	12.25
1280.08	11.9888
1281.68	12.0581
1283.28	11.4863
1284.89	12.4056
1286.49	12.7484
1288.09	13.7764
1289.69	13.6706
1291.29	14.2693
1292.89	14.7849
1294.49	14.203
1296.09	14.2574
1297.69	13.5011
1299.29	13.5448
1300.88	14.5729
1302.48	14.4828
1304.08	14.9246
1305.68	14.2324
1307.27	15.4702
1308.87	15.2684
1310.47	15.026
1312.06	15.7682
1313.66	15.7342
1315.25	14.6617
1316.85	15.2482
1318.44	16.0805
1320.04	15.627
1321.63	15.6192
1323.23	14.955
1324.82	16.9692
1326.41	16.5577
1328.01	16.51
1329.6	15.9987
1331.19	16.748
1332.78	16.2108
1334.38	16.8738
1335.97	16.0689
1337.56	16.7595
1339.15	17.0037
1340.74	15.8116
1342.33	17.2298
1343.92	16.8892
1345.51	16.4447
1347.1	16.4228
1348.69	16.1466
1350.28	16.9805
1351.87	16.4825
1353.46	16.1326
1355.04	15.4081
1356.63	16.324
1358.22	15.5998
1359.81	16.3505
1361.39	15.8194
1362.98	15.1262
1364.57	15.8678
1366.15	16.5498
1367.74	14.9637
1369.32	15.6924
1370.91	15.0327
1372.49	15.2737
1374.07	15.0014
1375.66	15.1096
1377.24	14.7407
1378.83	15.0666
1380.41	14.6329
1381.99	14.5728
1383.57	14.5679
1385.16	14.6986
1386.74	14.3706
1388.32	14.0435
1389.9	13.5403
1391.48	14.3503
1393.06	14.1311
1394.64	13.5961
1396.22	14.3695
1397.8	13.1182
1399.38	13.5487
1400.96	13.0447
1402.54	13.1529
1404.12	13.3797
1405.7	12.6192
1407.28	12.6728
1408.85	12.9664
1410.43	11.5036
1412.01	12.4113
1413.58	12.2308
1415.16	12.4619
1416.74	12.2364
1418.31	11.5172
1419.89	11.5681
1421.46	11.071
1423.04	12.3313
1424.61	11.766
1426.19	11.7562
1427.76	12.4569
1429.33	12.3104
1430.91	11.3935
1432.48	12.382
1434.05	11.8128
1435.63	12.7372
1437.2	11.0861
1438.77	12.2098
1440.34	12.0982
1441.91	11.3805
1443.49	11.2351
1445.05	11.5235
1446.63	11.2031
1448.2	11.6696
1449.77	10.8199
1451.34	11.8787
1452.91	11.1697
1454.47	11.4059
1456.04	11.1109
1457.61	11.0108
1459.18	11.1627
1460.75	10.4631
1462.31	10.1123
1463.88	11.448
1465.45	10.5384
1467.01	9.76616
1468.58	9.58485
1470.15	9.5046
1471.71	8.9766
1473.28	9.98194
1474.84	9.77356
1476.41	10.1353
1477.97	9.0073
1479.54	9.25166
1481.1	9.59377
1482.66	9.15169
1484.23	10.3553
1485.79	8.77574
1487.35	9.46653
1488.91	8.44977
1490.48	9.30706
1492.04	9.60919
1493.6	9.92368
1495.16	8.51519
1496.72	9.23066
1498.28	8.69817
1499.84	8.55748
1501.4	9.50744
1502.96	9.33434
1504.52	9.53248
1506.08	9.53768
1507.64	8.82548
1509.2	8.92316
1510.76	8.41897
1512.31	9.39735
1513.87	9.10189
1515.43	9.19211
1516.99	8.78492
1518.54	8.57279
1520.1	9.45501
1521.66	8.92002
1523.21	9.03526
1524.77	9.39615
1526.32	9.8103
1527.88	9.8588
1529.43	9.62019
1530.99	10.0279
1532.54	9.84816
1534.09	9.72865
1535.65	9.27227
1537.2	10.1802
1538.75	10.1827
1540.31	10.2618
1541.86	10.7368
1543.41	10.1003
1544.96	10.2353
1546.51	11.9285
1548.06	11.5162
1549.62	11.6295
1551.17	11.0131
1552.72	12.5883
1554.27	13.0048
1555.82	12.8092
1557.36	12.9185
1558.91	12.9037
1560.46	13.2125
1562.01	12.7246
1563.56	12.9681
1565.11	14.352
1566.66	13.348
1568.2	14.8067
1569.75	14.9578
1571.3	14.8278
1572.84	15.8728
1574.39	14.8453
1575.93	14.8633
1577.48	15.7222
1579.02	15.7799
1580.57	15.1863
1582.11	16.0148
1583.66	16.8281
1585.2	16.6916
1586.75	16.2952
1588.29	16.3666
1589.83	16.7369
1591.38	17.9483
1592.92	17.0054
1594.46	17.8029
1596	17.121
1597.54	17.246
1599.09	17.2237
1600.63	16.6787
1602.17	17.1109
1603.71	16.3419
1605.25	16.0582
1606.79	16.6341
1608.33	15.3991
1609.87	16.4114
1611.41	14.5404
1612.95	13.9976
1614.48	13.9578
1616.02	13.4477
1617.56	12.9585
1619.1	13.2981
1620.64	12.7433
1622.17	12.362
1623.71	12.0022
1625.25	10.7256
1626.78	10.7947
1628.32	9.38206
1629.86	10.4349
1631.39	9.44655
1632.92	8.94377
1634.46	8.87182
1635.99	8.69033
1637.53	8.38115
1639.06	7.94355
1640.59	6.77968
1642.13	6.99374
1643.66	7.70757
1645.19	7.46838
1646.73	6.5391
1648.26	6.42802
1649.79	6.78231
1651.32	6.09951
1652.85	6.18118
1654.38	6.78489
1655.92	6.05541
1657.45	5.97486
1658.98	6.05927
1660.51	4.73357
1662.04	5.16348
1663.57	5.07246
1665.09	4.74016
1666.62	4.48307
1668.15	4.70848
1669.68	4.56861
1671.21	3.86129
1672.73	4.07811
1674.26	3.48576
1675.79	3.75857
1677.31	3.07249
1678.84	3.72751
1680.37	2.37546
1681.89	2.53012
1683.42	2.50025
1684.94	2.48901
1686.47	2.36857
1687.99	1.77281
1689.52	2.20446
1691.04	1.75743
1692.57	2.04316
1694.09	1.01154
1695.61	1.0228
1697.14	1.65482
1698.66	1.0072
1700.18	0.852268
1701.7	0.842472
1703.22	1.54234
1704.75	1.31128
1706.27	0.552082
1707.79	1.72063
1709.31	0.870937
1710.83	0.512913
1712.35	0.319172
1713.87	0.977703
1715.39	-0.319767
1716.91	-0.168068
1718.43	0.344612
1719.95	0.206345
1721.46	0.303261
1722.98	0.43726
1724.5	0.465096
1726.02	-0.566814
1727.53	0.582886
1729.05	0.0783806
1730.57	0.0155334
1732.08	0.014473
1733.6	-0.220638
1735.12	0.321457
1736.63	-0.0391693
1738.15	0.50975
1739.66	-0.00841904
1741.18	0.0189171
1742.69	0.0993118
1744.21	-0.514519
1745.72	0.255527
1747.23	0.327785
1748.74	-0.189533
1750.26	0.323154
1751.77	0.199883
1753.28	-0.441269
1754.8	-0.0329094
1756.31	-0.347107
1757.82	-0.545643
1759.33	0.260105
1760.84	-0.221542
1762.35	-0.51329
1763.86	-0.135735
1765.37	-0.0547371
1766.88	0.204296
1768.39	0.322102
1769.9	-0.00705338
1771.41	0.0570297
1772.92	0.00720215
1774.43	-0.458584
1775.93	0.46563
1777.44	0.256756
1778.95	0.216042
1780.46	-0.142525
1781.96	-0.362377
1783.47	0.434311
1784.98	0.0837631
1786.48	0.235008
1787.99	0.344021
1789.49	-0.0418167
1791	-0.044529
1792.5	0.221668
1794.01	0.31892
1795.51	0.166676
1797.02	0.0545731
1798.52	-0.210976
1800.03	0.188137
1801.53	-0.0747414
1803.03	-0.431763
1804.53	0.0623856
1806.04	-0.285934
1807.54	0.495411
1809.04	-0.109035
1810.54	-0.0220375
1812.04	0.208908
1813.54	0.03162
1815.05	1.15846
1816.55	-0.0596275
1818.05	0.419765
1819.55	0.323471
1821.05	0.29285
1822.55	-0.0441322
1824.05	0.12904
1825.54	0.144844
1827.04	0.796448
1828.54	0.325008
1830.04	0.0241241
1831.54	0.0663528
1833.03	0.0228348
1834.53	-0.31036
1836.03	-0.13533
1837.52	0.807831
1839.02	0.476143
1840.52	0.42894
1842.01	0.263229
1843.51	0.156185
1845	-0.233326
1846.5	0.0902863
1847.99	0.410019
1849.49	0.22649
1850.98	-0.220997
1852.47	1.05785
1853.97	0.174435
1855.46	0.0114212
1856.95	0.205734
1858.45	0.228889
1859.94	0.676659
1861.43	0.789455
1862.92	0.90535
1864.41	0.73093
1865.91	-0.50309
1867.4	-0.043087
1868.89	-0.0780067
1870.38	0.412865
1871.87	-0.339764
1873.36	0.354149
1874.85	-0.0739555
1876.34	0.00942612
1877.83	0.743282
1879.31	0.193089
1880.8	-0.40535
1882.29	0.716732
1882.56	0.990654
1884.05	0.346607
1885.54	0.342419
1887.04	-0.69524
1888.53	-0.481812
1890.03	0.376625
1891.52	0.702045
1893.01	1.36876
1894.5	0.274677
1895.99	-0.0612221
1897.49	-0.20026
1898.98	0.320869
1900.47	0.782982
1901.96	0.346775
1903.45	-1.30127
1904.94	-0.037323
1906.43	-0.291363
1907.92	0.878727
1909.41	0.420422
1910.9	1.13149
1912.39	0.304546
1913.88	-0.0498543
1915.37	-0.108704
1916.86	-0.533855
1918.35	-0.494411
1919.84	0.373722
1921.32	0.634552
1922.81	-0.279312
1924.3	0.406075
1925.78	0.579819
1927.27	0.0165215
1928.76	-0.750275
1930.24	0.560463
1931.73	-0.264183
1933.21	-0.267452
1934.7	0.565449
1936.18	-0.309254
1937.67	-0.620369
1939.15	1.6058
1940.64	0.101616
1942.12	1.27998
1943.6	0.774075
1945.09	-0.380737
1946.57	0.381233
1948.05	0.244976
1949.54	0.189857
1951.02	1.02329
1952.5	0.283604
1953.98	-0.510551
1955.46	0.620487
1956.94	0.894127
1958.42	-0.389534
1959.91	0.769062
1961.39	-0.573059
1962.87	0.48687
1964.34	0.345394
1965.82	0.7314
1967.3	-0.239803
1968.78	-0.153843
1970.26	0.201496
1971.74	0.281357
1973.22	-0.441513
1974.7	0.491756
1976.17	0.436436
1977.65	-0.877975
1979.13	-0.198456
1980.6	0.956211
1982.08	0.5783
1983.56	0.181885
1985.03	0.208122
1986.51	0.978825
1987.98	1.13815
1989.46	0.588345
1990.93	0.280903
1992.41	1.51941
1993.88	1.12397
1995.36	-0.0766335
1996.83	0.230076
1998.3	0.316799
1999.78	1.24453
2001.25	0.395458
2002.72	0.724468
2004.2	1.35567
2005.67	0.522743
2007.14	0.992687
2008.61	0.509098
2010.08	0.688305
2011.55	1.42656
2013.02	1.17191
2014.49	0.695599
2015.97	-0.00458145
2017.43	0.937653
2018.9	0.141918
2020.37	0.267368
2021.84	0.576462
2023.31	1.1226
2024.78	0.566414
2026.25	1.07556
2027.72	1.12495
2029.19	1.11763
2030.65	0.381393
2032.12	0.507294
2033.59	1.02262
2035.05	0.782471
2036.52	1.84983
2037.98	0.595215
2039.45	0.0936165
2040.92	0.213444
2042.38	-0.353397
2043.85	1.37207
2045.31	1.00179
2046.78	1.02357
2048.24	1.1991
2049.71	1.17024
2051.17	1.84242
2052.63	1.57653
2054.1	0.673878
2055.56	1.86717
2057.02	1.1286
2058.48	0.755863
2059.95	0.51717
2061.41	0.971821
2062.87	0.657574
2064.33	0.670143
2065.79	0.891518
2067.25	1.21964
2068.71	0.727142
2070.17	2.00416
2071.63	0.621883
2073.09	1.41033
2074.55	0.698395
2076.01	0.18615
2077.47	1.69222
2078.93	1.46099
2080.39	1.07505
2081.85	0.601158
2083.3	0.678345
2084.76	0.228779
2086.22	1.30521
2087.68	0.0730553
2089.13	2.14993
2090.59	1.51897
2092.05	1.02244
2093.5	1.34791
2094.96	1.47001
2096.41	1.55499
2097.87	1.56827
2099.32	1.22577
2100.78	0.93182
2102.23	1.67589
2103.69	0.804844
2105.14	1.12858
2106.59	2.1288
2108.05	1.26754
2109.5	0.0754395
2110.95	2.54758
2112.41	1.27629
2113.86	2.00964
2115.31	3.11364
2116.76	0.701897
2118.21	1.50222
2119.67	1.08227
2121.12	1.93666
2122.57	0.398804
2124.02	1.30887
2125.47	2.10693
2126.92	2.38896
2128.37	1.55336
2129.82	2.11732
2131.27	3.61597
2132.71	1.33361
2134.16	1.86599
2135.61	1.29539
2137.06	1.54504
2138.51	2.91423
2139.95	2.47824
2141.4	1.52419
2142.85	1.13967
2144.29	2.39688
2145.74	2.99399
2147.19	1.93378
2148.63	2.75665
2150.08	2.67947
2151.52	2.5458
2152.97	2.50484
2154.42	2.82286
2155.86	2.50824
2157.3	3.5194
2158.75	3.16047
2160.19	2.62823
2161.64	3.00233
2163.08	4.08543
2164.52	3.90263
2165.96	3.39313
2167.41	2.25079
2168.85	4.22534
2170.29	2.74688
2171.73	3.66553
2173.17	3.87253
2174.61	4.0203
2176.06	3.56545
2177.5	4.09318
2178.94	3.02988
2180.38	3.60249
2181.82	2.36869
2183.26	3.84904
2184.7	2.28792
2186.14	2.92264
2187.57	2.34304
2189.01	3.54422
2190.45	4.19638
2191.89	3.3152
2193.33	3.7607
2194.76	2.83189
2196.2	3.60553
2197.64	2.93422
2199.08	3.64866
2200.51	2.84321
2201.95	2.02133
2203.38	1.9516
2204.82	2.00538
2206.25	2.44706
2207.69	2.41144
2209.12	1.84457
2210.56	2.26595
2211.99	3.67248
2213.43	3.28682
2214.86	1.97594
2216.3	2.61861
2217.73	3.28479
2219.16	2.35917
2220.59	3.05561
2222.03	2.87886
2223.46	2.23595
2224.89	2.27565
2226.32	3.34019
2227.75	2.96115
2229.19	2.34402
2230.62	2.60867
2232.05	2.85489
2233.48	1.44926
2234.91	1.7032
2236.34	2.38935
2237.77	1.43656
2239.2	2.40672
2240.63	2.2155
2242.06	1.22117
2243.48	1.91516
2244.91	2.25268
2246.34	2.60184
2247.77	1.32537
2249.2	1.90959
2250.62	1.72845
2252.05	3.60273
2253.48	1.40242
2254.9	1.45024
2256.33	1.995
2257.76	0.948948
2259.18	2.21038
2260.61	0.928322
2262.03	0.87941
2263.46	2.17295
2264.88	0.625896
2266.31	1.05827
2267.73	1.92487
2269.16	1.22343
2270.58	0.809086
2272	1.12381
2273.43	1.68178
2274.85	1.32832
2276.27	0.959732
2277.69	1.97751
2279.12	1.36596
2280.54	0.101345
2281.96	1.16766
2283.38	1.54863
2284.8	1.91374
2286.22	1.85612
2287.64	1.71936
2289.07	2.0102
2290.49	1.17652
2291.91	0.360378
2293.32	0.656399
2294.74	1.01795
2296.16	0.544388
2297.58	1.34731
2299	1.03722
2300.42	1.36736
2301.84	0.322285
2303.26	0.820274
2304.67	1.63167
2306.09	1.40867
2307.51	1.00225
2308.92	0.969723
2310.34	0.110916
2311.76	0.72924
2313.17	1.23252
2314.59	1.1793
2316	1.77329
2317.42	0.182003
2318.83	1.87243
2320.25	1.28683
2321.66	1.05593
2323.08	0.465225
2324.49	0.832165
2325.91	1.23297
2327.32	1.09422
2328.73	2.08755
2330.15	0.906979
2331.56	1.65993
2332.97	1.15279
2334.38	0.684689
2335.79	0.563839
2337.21	0.883865
2338.62	0.522842
2340.03	0.795025
2341.44	0.222828
2342.85	-0.0731201
2344.26	1.15624
2345.67	0.845367
2347.08	0.405746
2348.49	0.850697
2349.9	1.29234
2351.31	0.975922
2352.72	0.587833
2354.13	0.193829
2355.53	0.936817
2356.94	0.633816
2358.35	0.623997
2359.76	0.891254
2361.17	-0.0749588
2362.57	-0.844761
2363.98	0.0867729
2365.39	-0.245911
2366.79	1.29797
2368.2	-0.418373
2369.6	0.262932
2371.01	-0.321236
2372.42	0.393196
2373.82	0.0670891
2375.22	0.596931
2376.63	-1.19322
2378.03	-0.480484
2379.44	0.542099
2380.84	0.812893
2382.25	-0.0331421
2383.65	1.23067
2385.05	0.250328
2386.45	0.0980072
2387.86	-0.765999
2389.26	-0.384548
2390.66	0.21199
2392.06	0.624603
2393.46	0.486794
2394.87	0.879646
2396.27	0.418613
2397.67	0.661518
2399.07	0.209152
2400.47	1.25371
2401.87	-0.479584
2403.27	0.646526
2404.67	1.42027
2406.07	-0.018898
2407.47	0.900669
2408.86	-0.549072
2410.26	1.12301
2411.66	-0.104259
2413.06	0.258831
2414.46	0.773037
2415.85	0.664059
2417.25	-0.353939
2418.65	0.154133
2420.05	1.21913
2421.44	0.192749
2422.84	0.430969
2424.23	1.30111
2425.63	0.571461
2427.03	0.288994
2428.42	0.8368
2429.82	0.646187
2431.21	0.301571
2432.6	0.195717
2434	-0.231522
2435.39	0.826473
2436.79	0.571697
2438.18	0.830582
2439.57	0.286152
2440.97	0.577324
2442.36	0.356606
2443.75	0.118156
2445.14	0.988995
2446.54	0.335972
2447.93	-0.41254
2449.32	-0.194195
2450.71	-0.892792
2452.1	-0.00442886
2453.49	0.667236
2454.88	1.07562
2456.27	0.444752
2457.66	0.433071
2459.05	-0.133335
2460.44	0.229416
2461.83	0.523186
2463.22	0.194862
2464.61	1.34785
2466	0.634285
2467.39	-0.0477142
2468.77	-0.39814
2470.16	1.19009
2471.55	-0.394707
2472.94	0.506527
2474.32	0.976185
2475.71	0.135025
2477.1	0.125622
2478.48	0.0373878
2479.87	-0.300602
2481.25	-0.197865
2482.64	0.452553
2484.02	0.284607
2485.41	0.407845
2486.8	-0.804955
2488.18	0.240005
2489.56	0.108459
2490.95	-0.521751
2492.33	0.345512
2493.72	-0.427559
2495.1	-0.0263557
2496.48	0.0108871
2497.86	-0.364208
2499.25	-0.442902
2500.63	0.636238
2502.01	0.595425
2503.39	0.964706
2504.77	0.49403
2506.16	-0.426788
2507.54	-0.654648
2508.92	-0.296913
2510.3	0.646614
2511.68	0.702942
2513.06	0.488785
2514.44	0.0666618
2515.82	-0.578274
2517.2	0.297276
2518.58	1.16038
2519.95	-0.222458
2521.33	0.898983
2522.71	-0.717598
2524.09	0.529652
2525.47	0.611767
2526.84	0.0523987
2528.22	0.348907
2529.6	0.500748
2530.98	1.0588
2532.35	0.0937843
2533.73	0.430038
2535.11	0.345898
2536.48	-0.103188
2537.86	0.38496
2539.23	0.714394
2540.61	1.25044
2541.98	0.615036
2543.36	0.649681
2544.73	1.38818
2546.1	1.28595
2547.48	0.722244
2548.85	1.08992
2550.23	0.699421
2551.6	0.244717
2552.97	0.709377
2554.34	0.802586
2555.72	-0.0056076
2557.09	0.654064
2558.46	2.01009
2559.83	-0.604359
2561.2	0.741951
2562.58	0.743645
2563.95	0.234299
2565.32	1.15253
2566.69	0.890553
2568.06	0.417107
2569.43	0.640911
2570.8	0.425289
2572.17	-0.366001
2573.54	0.465263
2574.91	1.41864
2576.27	0.462204
2577.64	0.430027
2579.01	-0.543762
2580.38	0.724178
2581.75	0.791443
2583.11	-0.0838585
2584.48	0.37352
2585.85	0.45158
2587.21	0.894329
2588.58	-0.783356
2589.95	0.616398
2591.31	-0.0457306
2592.68	-0.210945
2594.04	0.300037
2595.41	-1.01355
2596.78	-0.501564
2598.14	0.609623
2599.51	1.09712
2600.87	0.0739784
2602.23	-0.612183
2603.6	0.518448
2604.96	0.83736
2606.32	0.659679
2607.69	-0.847069
2609.05	1.34928
2610.41	-0.230812
2611.77	-0.388046
2613.14	0.078476
2614.5	0.854321
2615.86	-0.00870132
2617.22	-0.34359
2618.58	1.30339
2619.94	0.319538
2621.3	0.149925
2622.67	1.16473
2624.03	-0.239159
2625.39	-0.0596924
2626.75	0.788879
2628.1	0.784634
2629.46	0.361446
2630.82	0.235062
2632.18	0.881271
2633.54	-0.345341
2634.9	0.804592
2636.26	0.113667
2637.61	0.0165939
2638.97	0.882534
2640.33	0.431587
2641.69	-0.3419
2643.04	-0.4179
2644.4	-0.0201225
2645.76	0.0373459
2647.11	1.59558
2648.47	0.0533981
2649.82	1.17179
2651.18	0.386898
2652.53	0.820469
2653.89	-0.0947952
2655.24	1.56211
2656.6	0.866249
2657.95	0.677338
2659.31	0.100086
2660.66	0.871521
2662.01	0.442879
2663.37	0.112843
2664.72	0.434456
2666.07	0.342049
2667.43	0.363178
2668.78	0.77692
2670.13	0.493736
2671.48	-0.0759544
2672.83	0.928913
2674.18	0.0638733
2675.53	-0.157475
2676.89	0.742611
2678.24	1.09571
2679.59	0.120712
2680.94	0.0234184
2682.29	0.978519
2683.64	0.434258
2684.99	1.59366
2686.34	1.24816
2687.68	0.799652
2689.03	1.0105
2690.38	1.41282
2691.73	1.09106
2693.08	-0.184124
2694.43	0.579906
2695.77	1.24061
2697.12	0.0221367
2698.47	1.21762
2699.81	0.643688
2701.16	1.34196
2702.51	0.805527
2703.85	0.203751
2705.2	-1.01823
2706.54	0.70351
2707.89	1.13364
2709.23	0.196835
2710.58	1.28988
2711.92	1.36506
2713.27	0.98896
2714.61	0.597748
2715.96	1.26742
2717.3	-0.0268517
2718.64	0.160412
2719.99	1.0729
2721.33	1.13857
2722.67	0.284023
2724.01	0.386856
2725.36	-0.401081
2726.7	0.598808
2728.04	0.519539
2729.38	0.409645
2730.72	0.182526
2732.06	0.115414
2733.41	1.27101
2734.75	0.522289
2736.09	1.15696
2737.43	0.134651
2738.77	0.203133
2740.11	0.371803
2741.44	0.522736
2742.78	0.683777
2744.12	0.520313
2745.46	0.74501
2746.8	0.661755
2748.14	0.911266
2749.48	-0.0141563
2750.81	0.121426
2752.15	-0.219635
2753.49	0.615223
2754.83	0.103477
2756.16	0.418724
2757.5	0.040062
2758.84	0.228088
2760.17	0.158371
2761.51	0.671028
2762.84	-0.0284119
2764.18	0.417583
2765.51	0.545227
2766.85	0.727638
2768.18	0.686699
2769.52	0.882717
2770.85	0.0569229
2772.19	0.392616
2773.52	0.345661
2774.85	0.208672
2776.19	-0.432304
2777.52	0.815792
2778.85	0.124565
2780.18	-0.662483
2781.52	1.09566
2782.85	0.914818
2784.18	-0.126472
2785.51	0.410145
2786.84	0.431927
2788.17	0.0422592
2789.51	0.187923
2790.84	0.111031
2792.17	-0.560829
2793.5	-0.471466
2794.83	0.504322
2796.16	0.863041
2797.48	-0.26762
2798.81	1.29737
2800.14	-0.866714
2801.47	-0.0206337
2802.8	0.709408
2804.13	0.724464
2805.46	0.109901
2806.79	0.203674
2808.11	-0.147778
2809.44	0.19495
2810.77	0.139938
2812.09	-0.492428
2813.42	0.57169
2814.75	-1.28972
2816.07	-0.149391
2817.4	0.913322
2818.73	0.250919
2820.05	-0.297962
2821.38	0.411633
2822.7	0.507267
2824.03	-0.0813332
2825.35	0.560452
2826.67	0.168621
2828	0.21954
2829.32	0.104538
2830.65	-0.0213242
2831.97	0.831104
2833.29	0.649841
2834.62	0.169308
2835.94	0.223461
2837.26	0.72691
2838.58	0.93029
2839.9	1.21718
2841.23	2.16925
2842.55	2.1768
2843.87	1.56695
2845.19	2.03613
2846.51	2.33985
2847.83	2.37748
2849.15	1.01604
2850.47	2.33826
2851.79	1.07093
2853.11	1.10089
2854.43	2.75363
2855.75	2.49751
2857.07	2.15673
2858.39	2.56508
2859.71	2.2107
2861.02	2.20847
2862.34	2.4585
2863.66	2.49458
2864.98	2.02123
2866.3	2.64841
2867.61	2.6987
2868.93	1.84926
2870.25	2.77894
2871.56	2.25746
2872.88	3.38357
2874.19	3.68778
2875.51	2.50689
2876.83	3.61571
2878.14	3.31182
2879.46	3.69588
2880.77	3.04138
2882.09	3.40378
2883.4	2.67647
2884.71	3.47145
2886.03	3.63778
2887.34	3.80446
2888.65	3.67398
2889.97	2.41712
2891.28	3.14772
2892.59	3.94449
2893.91	3.96933
2895.22	3.74426
2896.53	4.05588
2897.84	2.40011
2899.15	3.38094
2900.46	3.9881
2901.78	4.49984
2903.09	4.04753
2904.4	4.68708
2905.71	3.99943
2907.02	3.97221
2908.33	3.79544
2909.64	4.75636
2910.95	5.0909
2912.26	4.68365
2913.57	5.16833
2914.87	5.63191
2916.18	6.11467
2917.49	5.49759
2918.8	5.22574
2920.11	5.45693
2921.42	4.5869
2922.72	4.84179
2924.03	6.23572
2925.34	6.11164
2926.64	5.80891
2927.95	6.97424
2929.26	6.40425
2930.56	6.41875
2931.87	5.87183
2933.17	6.98722
2934.48	6.38321
2935.78	5.61224
2937.09	5.61082
2938.39	6.29507
2939.7	5.76497
2941	6.73259
2942.31	5.21711
2943.61	5.44024
2944.91	4.91518
2946.22	5.79405
2947.52	6.43871
2948.82	4.74514
2950.13	3.82884
2951.43	4.65384
2952.73	4.08331
2954.03	4.45805
2955.33	4.32695
2956.64	3.16467
2957.94	4.86801
2959.24	3.44939
2960.54	4.56503
2961.84	4.16433
2963.14	3.71069
2964.44	2.87427
2965.74	4.27734
2967.04	3.62143
2968.34	3.40805
2969.64	3.40157
2970.94	2.76153
2972.24	3.417
2973.53	3.10355
2974.83	3.35284
2976.13	2.40206
2977.43	2.97898
2978.73	1.96978
2980.02	1.93702
2981.32	2.249
2982.62	1.17935
2983.91	1.63076
2985.21	2.67805
2986.51	1.40051
2987.8	1.94382
2989.1	2.36614
2990.4	1.98883
2991.69	0.933956
2992.99	1.48929
2994.28	1.84038
2995.57	0.948597
2996.87	1.48521
2998.16	0.630733
2999.46	0.465637
3000.75	0.962666
3002.05	1.36453
3003.34	0.101002
3004.63	0.309547
3005.92	1.59446
3007.22	-0.359062
3008.51	0.636097
3009.8	-0.291031
3011.09	0.315327
3012.39	-0.966751
3013.68	-0.503239
3014.97	0.547409
3016.26	-0.0848312
3017.55	0.318386
3018.84	0.431927
3020.13	0.23962
3021.42	0.294659
3022.71	-0.128159
3024	0.581207
3025.29	-0.0604897
3026.58	0.156178
3027.87	0.513592
3029.16	-0.187248
3030.45	-0.421928
3031.73	-0.205406
3033.02	0.238167
3034.31	0.724503
3035.6	0.282455
3036.89	0.590481
3038.17	-0.987148
3039.46	0.6325
3040.75	0.520065
3042.03	-0.339279
3043.32	0.0915108
3044.61	-0.00748825
3045.89	0.478302
3047.18	-0.0203972
3048.46	-0.476437
3049.75	-0.509548
3051.03	-0.109982
3052.32	-0.210571
3053.6	0.329853
3054.89	0.320026
3056.17	0.044075
3057.45	1.1243
3058.74	0.0862732
3060.02	-0.0130768
3061.31	0.107475
3062.59	-0.133545
3063.87	-0.284431
3065.15	-0.072464
3066.44	0.718922
3067.72	0.347122
3069	-0.457939
3070.28	-0.313263
3071.56	0.247265
3072.84	0.0788269
3074.13	-0.5056
3075.41	0.493896
3076.69	1.16396
3077.97	-0.241047
3079.25	0.0711555
3080.53	0.907795
3081.81	-0.470741
3083.09	0.884953
3084.37	-0.143162
3085.64	0.266823
3086.92	0.429249
3088.2	0.247322
3089.48	0.359081
3090.76	0.508091
3092.04	1.08976
3093.31	0.0440598
3094.59	-0.294636
3095.87	0.262897
3097.14	0.23737
3098.42	0.0618248
3099.7	1.13154
3100.97	0.343773
3102.25	1.05948
3103.53	1.45115
3104.8	0.234737
3106.08	-0.381538
3107.35	2.13364
3108.63	1.59663
3109.9	1.20129
3111.18	1.35321
3112.45	1.08976
3113.73	0.841797
3115	1.18937
3116.27	0.787624
3117.55	1.38308
3118.82	0.397629
3120.09	0.869171
3121.37	0.466194
3122.64	1.04835
3123.91	0.774738
3125.18	1.80166
3126.45	0.894646
3127.73	1.04657
3129	0.781811
3130.27	2.18185
3131.54	1.09394
3132.81	2.04542
3134.08	1.62882
3135.35	1.55943
3136.62	2.11969
3137.89	0.895523
3139.16	1.40771
3140.43	2.2133
3141.7	2.03542
3142.97	1.63057
3144.24	1.94028
3145.51	1.97095
3146.78	1.84439
3148.04	1.77505
3149.31	1.73557
