200.423	1.27019
202.238	1.30326
204.052	1.33781
205.868	1.39793
207.682	1.31243
209.495	0.837469
211.308	1.62446
213.12	0.879529
214.935	0.473697
216.746	-0.0536003
218.558	0.533941
220.369	0.0080061
222.18	0.62065
223.992	0.339205
225.802	0.662794
227.612	0.0198708
229.421	0.3911
231.23	0.350924
233.039	-0.123928
234.849	0.0771761
236.657	-0.0820751
238.465	0.243194
240.272	0.185764
242.079	0.155119
243.885	-0.766539
245.691	0.482938
247.497	-0.489733
249.305	0.369102
251.11	0.523776
252.915	0.216244
254.719	-0.479263
256.523	-0.089735
258.327	0.324363
260.13	0.354612
261.933	0.387137
263.736	-0.758812
265.538	0.52971
267.34	0.638184
269.141	-0.00104141
270.943	0.226372
272.744	0.54878
274.544	0.411269
276.344	0.41632
278.144	-0.0629368
279.944	0.106019
281.743	0.296288
283.542	-0.598306
285.34	0.140707
287.138	-0.154846
288.936	0.293373
290.733	0.19057
292.53	-0.149928
294.327	-0.416421
296.123	0.0840874
297.919	0.418097
299.715	0.680765
301.508	0.369722
303.303	0.439841
305.098	0.508313
306.892	0.384652
308.686	0.18922
310.479	-0.553442
312.273	-0.0319185
314.065	0.276845
315.858	0.373391
317.648	0.0909882
319.44	0.501107
321.231	0.054882
323.022	0.038312
324.813	0.189194
326.604	0.483573
328.392	0.300088
330.181	0.545843
331.971	-0.0228539
333.76	0.386849
335.548	-0.139161
337.335	-0.261216
339.123	-0.170418
340.91	-0.0815916
342.698	0.555886
344.483	-0.647191
346.269	-0.129134
348.055	0.0550175
349.841	0.000869751
351.625	0.758204
353.41	-0.108139
355.195	0.47982
356.977	0.135742
358.762	1.14868
360.545	-0.270239
362.329	0.358191
364.11	0.437761
365.893	0.587532
367.675	-0.0709963
369.455	-0.302545
371.237	0.318024
373.017	0.131878
374.798	0.229219
376.578	0.161086
378.357	0.164375
380.137	0.0979872
381.917	0.197785
383.694	0.157754
385.473	-0.0688219
387.249	0.08214
389.028	-0.118114
390.806	0.0585899
392.581	0.470966
394.359	-0.149289
396.134	0.0997295
397.91	0.160958
399.684	0.174938
401.46	0.164874
403.234	0.506305
405.009	0.846759
406.784	0.646049
408.557	-0.118883
410.331	0.195803
412.103	0.228695
413.876	-0.277686
415.647	-0.548615
417.42	0.143335
419.191	0.648337
420.961	0.0271482
422.733	0.907799
424.502	0.848695
426.273	-0.0332613
428.042	0.210584
429.812	0.359874
431.58	-0.265512
433.35	-0.0456171
435.118	0.0807161
436.885	0.723316
438.653	0.215057
440.42	0.596828
442.188	0.553716
443.954	0.625181
445.719	0.834773
447.486	1.01904
449.251	0.243583
451.015	0.0302668
452.781	0.377889
454.545	0.188696
456.308	0.862098
458.073	0.299913
459.836	0.669448
461.598	0.504349
463.362	0.457457
465.124	0.297235
466.885	0.140393
468.648	0.730434
470.408	0.741899
472.169	0.242204
473.929	0.812045
475.69	-0.0172396
477.45	0.734517
479.208	0.971568
480.967	0.74143
482.727	0.604602
484.485	-0.18302
486.243	0.475657
488	0.414809
489.759	0.659544
491.515	0.76584
493.272	1.27031
495.028	0.583261
496.783	0.78431
498.54	-0.0924129
500.295	0.764061
502.05	1.29261
503.804	0.763874
505.558	0.49151
507.311	1.06371
509.064	0.693507
510.819	0.532861
512.572	0.652603
514.324	0.935198
516.076	0.933686
517.827	0.178088
519.578	0.996831
521.329	1.64939
523.08	1.10294
524.83	0.885371
526.58	0.808722
528.329	-0.0415821
530.08	0.819556
531.829	0.906352
533.578	0.757974
535.326	0.187321
537.074	0.737664
538.821	1.2152
540.568	0.524164
542.315	0.439318
544.062	0.400702
545.808	0.710643
547.554	0.346973
549.299	0.703061
551.044	0.363906
552.789	0.673361
554.533	0.335382
556.278	0.34464
558.019	-0.383605
559.763	-0.119273
561.506	-0.499349
563.249	-0.165134
564.991	0.00832558
566.733	0.825457
568.475	-0.239974
570.217	0.0507517
571.958	0.296959
573.699	0.407366
575.439	0.290473
577.177	0.221416
578.917	0.475262
580.656	0.110157
582.396	0.526112
584.134	0.160184
585.873	1.12665
587.609	0.228799
589.347	-0.233711
591.084	0.476013
592.822	0.0117044
594.558	-0.0386705
596.295	-0.273071
598.029	0.113675
599.765	0.937095
601.5	0.218138
603.235	0.325864
604.968	0.592712
606.703	0.536016
608.437	0.89171
610.171	0.856616
611.902	0.386316
613.635	-0.0138159
615.368	0.274739
617.099	-0.146919
618.831	0.438828
620.563	0.542065
622.294	0.460664
624.024	0.126855
625.755	0.27317
627.485	0.877109
629.213	-0.068964
630.943	0.0149651
632.673	0.352294
634.4	0.371488
636.129	0.709938
637.855	0.156122
639.584	0.83165
641.312	0.544986
643.037	0.483637
644.764	0.375264
646.491	0.130908
648.216	-0.0427055
649.942	0.219151
651.666	0.780802
653.392	0.506424
655.115	0.0765591
656.84	0.559457
658.563	0.178373
660.287	0.731575
662.011	0.00504208
663.732	0.143151
665.456	0.598653
667.177	0.16028
668.899	0.132475
670.62	-0.00897789
672.342	0.28652
674.061	0.150094
675.781	0.336864
677.502	0.135474
679.22	0.737746
680.941	0.558431
682.659	0.99785
684.379	0.951801
686.096	0.788073
687.815	0.691393
689.532	0.40908
691.248	0.862982
692.966	0.901482
694.682	0.708745
696.4	0.653029
698.115	1.21747
699.829	1.08959
701.546	1.30533
703.26	0.968024
704.974	0.768077
706.689	1.39396
708.402	1.19281
710.115	1.47267
711.83	1.93472
713.542	1.3434
715.254	1.09566
716.967	0.20898
718.679	1.35424
720.39	0.879492
722.102	1.15722
723.812	1.00226
725.522	1.41576
727.232	0.692521
728.943	1.60391
730.652	1.24348
732.361	1.1324
734.069	0.636662
735.779	0.435784
737.487	0.958312
739.194	1.3002
740.901	1.68778
742.608	1.24284
744.316	0.957726
746.022	1.66478
747.728	0.910798
749.433	0.653631
751.138	1.29772
752.843	1.3811
754.549	0.656289
756.254	0.360444
757.957	0.944246
759.661	0.944668
761.364	1.23956
763.067	1.01661
764.769	1.0866
766.471	1.4265
768.175	1.31248
769.877	1.37664
771.578	1.41572
773.279	1.79224
774.98	1.91938
776.68	0.939273
778.38	1.56606
780.079	1.08669
781.779	1.6265
783.478	1.96321
785.176	1.68759
786.875	1.45434
788.573	1.51157
790.27	2.03977
791.968	2.17959
793.665	2.15901
795.361	1.16807
797.058	1.50975
798.754	0.794366
800.45	1.36498
802.145	1.80176
803.84	1.85674
805.535	1.88905
807.23	1.92033
808.922	1.4561
810.616	1.52962
812.309	0.906746
814.002	1.98702
815.695	1.47572
817.388	1.30074
819.08	1.66253
820.772	1.53264
822.464	1.91662
824.153	1.34227
825.844	1.9959
827.535	1.62693
829.225	1.52874
830.915	1.99105
832.605	1.58824
834.292	1.78955
835.981	1.16713
837.67	1.12405
839.359	1.25823
841.047	1.52469
842.732	1.25348
844.42	1.13796
846.107	0.732584
847.794	1.31281
849.479	1.0687
851.165	1.18547
852.851	1.73067
854.534	2.12112
856.22	1.92825
857.905	0.609457
859.589	1.89666
861.272	1.5848
862.956	1.24805
864.639	1.33765
866.321	0.70479
868.004	1.46888
869.687	1.05997
871.367	0.695655
873.049	1.59439
874.731	0.846141
876.41	1.63225
878.092	1.24497
879.771	0.970355
881.451	1.39508
883.131	1.20945
884.809	1.58689
886.489	1.55624
888.166	1.43343
889.845	1.196
891.522	1.34017
893.2	0.311445
894.878	0.295562
896.554	0.907943
898.231	0.8442
899.906	1.2057
901.583	0.51234
903.258	0.759869
904.934	1.07356
906.608	0.761788
908.283	1.69997
909.956	0.877841
911.631	0.481226
913.304	0.575196
914.976	0.380778
916.65	0.630451
918.322	0.547175
919.995	0.419886
921.666	1.7093
923.339	1.11907
925.009	1.10604
926.679	1.47063
928.351	1.13074
930.021	0.770529
931.692	0.874637
933.361	0.868769
935.029	0.907246
936.699	1.14472
938.367	0.434883
940.035	0.520451
941.704	0.342754
943.371	1.48983
945.038	1.15855
946.706	1.44387
948.372	1.24135
950.038	0.396518
951.705	0.675836
953.37	0.690366
955.035	0.596445
956.7	1.16733
958.366	0.595354
960.03	1.01945
961.693	0.606702
963.357	0.591169
965.021	0.617917
966.684	0.176937
968.346	0.263592
970.008	0.591142
971.67	0.76268
973.334	0.846209
974.995	0.643981
976.655	0.8199
978.316	0.621662
979.976	0.844597
981.638	1.06724
983.297	0.912007
984.957	1.15288
986.616	0.77141
988.274	0.36587
989.932	0.357236
991.59	0.96664
993.248	0.404504
994.907	0.836475
996.565	1.3343
998.221	0.773184
999.878	1.22612
1001.53	0.797137
1003.19	0.962396
1004.85	1.08304
1006.5	0.87374
1008.16	0.774689
1009.81	0.939509
1011.46	0.644131
1013.12	0.85377
1014.77	0.735105
1016.43	0.660856
1018.08	1.85639
1019.73	1.38967
1021.38	0.902784
1023.04	1.7072
1024.69	1.50725
1026.34	1.30815
1027.99	1.85204
1029.64	1.91436
1031.29	2.14979
1032.94	3.71456
1034.59	3.42077
1036.24	5.24016
1037.89	6.3583
1039.54	8.21456
1041.19	9.15561
1042.84	10.0762
1044.48	11.3469
1046.13	12.6426
1047.78	11.4012
1049.42	10.207
1051.07	9.1455
1052.72	7.36843
1054.36	6.30837
1056.01	5.39998
1057.66	3.66466
1059.3	3.40649
1060.94	3.66918
1062.59	2.45211
1064.23	2.58191
1065.88	1.73196
1067.52	0.859215
1069.16	1.00692
1070.81	1.00167
1072.45	0.627247
1074.09	1.3603
1075.73	0.597472
1077.38	0.465569
1079.02	1.15925
1080.66	1.02985
1082.3	0.618591
1083.94	0.618308
1085.58	0.919562
1087.22	0.719749
1088.86	0.30108
1090.5	1.13581
1092.13	0.692212
1093.77	0.57276
1095.41	0.561603
1097.05	-0.203012
1098.68	0.198362
1100.32	0.64432
1101.96	0.661811
1103.6	0.595443
1105.23	0.423191
1106.87	-0.242966
1108.5	0.983162
1110.14	0.616519
1111.77	1.19385
1113.41	1.14566
1115.04	0.129872
1116.67	0.509147
1118.31	0.330626
1119.94	0.774462
1121.58	0.619457
1123.21	1.15083
1124.84	0.848626
1126.47	1.38189
1128.1	1.61654
1129.73	0.825747
1131.37	1.68208
1133	0.764337
1134.63	0.979517
1136.26	0.830539
1137.89	0.0179567
1139.52	0.42196
1141.14	0.482815
1142.77	-0.0118322
1144.4	0.901821
1146.03	0.323162
1147.66	0.278905
1149.29	0.0865984
1150.91	0.789596
1152.54	1.23675
1154.17	0.214294
1155.79	0.426355
1157.42	0.701948
1159.04	0.212109
1160.67	-0.233934
1162.3	0.660987
1163.92	-0.165162
1165.55	-0.203984
1167.17	-0.689569
1168.79	0.822156
1170.42	0.163339
1172.04	0.607402
1173.66	0.878955
1175.28	0.257505
1176.91	0.0603352
1178.53	-0.009202
1180.15	0.133852
1181.77	0.045085
1183.39	-0.085043
1185.01	-0.0459137
1186.63	0.32997
1188.25	-0.309369
1189.87	0.0408592
1191.49	0.367021
1193.11	-0.4238
1194.73	-0.415573
1196.35	-0.155762
1197.97	0.125338
1199.59	0.470538
1201.2	-0.0596914
1202.82	0.458041
1204.44	0.414852
1206.05	0.103072
1207.67	0.752656
1209.29	-0.0994301
1210.9	0.403479
1212.52	-0.0340824
1214.13	0.859787
1215.75	0.292188
1217.36	-0.484631
1218.97	0.00654411
1220.59	0.579574
1222.2	-0.0920534
1223.82	0.565106
1225.43	0.912467
1227.04	0.661164
1228.65	0.391165
1230.26	0.887907
1231.88	0.869071
1233.49	0.252357
1235.1	0.401904
1236.71	1.60705
1238.32	1.71816
1239.93	1.39597
1241.54	1.15661
1243.15	1.24775
1244.76	1.40006
1246.37	1.24073
1247.97	1.10084
1249.58	1.29106
1251.19	1.12915
1252.8	1.5674
1254.41	1.65485
1256.01	1.97121
1257.62	1.44107
1259.23	0.953544
1260.83	1.25343
1262.44	1.14
1264.04	1.83442
1265.65	1.07826
1267.25	1.06696
1268.86	1.88381
1270.46	1.84946
1272.07	1.71008
1273.67	1.71451
1275.27	1.63476
1276.88	1.92687
1278.48	1.67914
1280.08	2.52823
1281.68	2.34133
1283.28	2.50641
1284.89	1.96898
1286.49	2.92152
1288.09	2.51088
1289.69	2.7216
1291.29	3.01562
1292.89	3.72273
1294.49	2.56938
1296.09	2.81919
1297.69	3.12857
1299.29	3.47657
1300.88	2.17268
1302.48	1.89912
1304.08	2.46858
1305.68	1.80244
1307.27	2.80053
1308.87	2.68828
1310.47	2.08441
1312.06	2.60827
1313.66	2.12992
1315.25	2.51196
1316.85	3.09882
1318.44	2.64505
1320.04	2.29377
1321.63	1.84005
1323.23	1.97538
1324.82	2.41307
1326.41	2.34035
1328.01	2.08459
1329.6	2.27562
1331.19	2.60979
1332.78	1.91575
1334.38	1.64974
1335.97	2.1126
1337.56	1.76896
1339.15	2.81573
1340.74	2.12671
1342.33	1.85868
1343.92	1.82989
1345.51	1.79973
1347.1	1.89004
1348.69	1.46149
1350.28	1.95739
1351.87	1.5758
1353.46	1.37714
1355.04	0.980389
1356.63	1.46354
1358.22	0.927125
1359.81	1.1288
1361.39	1.64834
1362.98	1.46811
1364.57	1.28762
1366.15	1.38657
1367.74	0.928791
1369.32	1.82648
1370.91	1.01391
1372.49	1.57629
1374.07	1.60277
1375.66	0.674999
1377.24	0.861633
1378.83	1.18699
1380.41	1.96872
1381.99	1.07756
1383.57	1.33868
1385.16	1.55861
1386.74	1.10225
1388.32	1.38123
1389.9	1.20424
1391.48	1.42533
1393.06	1.34971
1394.64	0.897779
1396.22	1.79421
1397.8	1.22239
1399.38	1.68012
1400.96	1.97779
1402.54	1.91807
1404.12	1.83858
1405.7	0.889777
1407.28	1.48455
1408.85	1.94163
1410.43	1.94478
1412.01	2.16511
1413.58	1.65417
1415.16	2.60258
1416.74	2.6615
1418.31	1.892
1419.89	2.75875
1421.46	2.03116
1423.04	2.27066
1424.61	2.55158
1426.19	2.57831
1427.76	2.99943
1429.33	3.26276
1430.91	2.65885
1432.48	3.39165
1434.05	3.0014
1435.63	3.75141
1437.2	3.59681
1438.77	4.87824
1440.34	3.58609
1441.91	3.55331
1443.49	3.60014
1445.05	3.68682
1446.63	3.93102
1448.2	3.97889
1449.77	3.73228
1451.34	3.93849
1452.91	3.4572
1454.47	3.25163
1456.04	3.38039
1457.61	3.48868
1459.18	2.9458
1460.75	2.85326
1462.31	3.03368
1463.88	2.66112
1465.45	2.60192
1467.01	3.15124
1468.58	2.60096
1470.15	2.6411
1471.71	2.74155
1473.28	1.47047
1474.84	2.04416
1476.41	1.57905
1477.97	1.91798
1479.54	2.04113
1481.1	2.1249
1482.66	2.22814
1484.23	0.998798
1485.79	1.51297
1487.35	0.752965
1488.91	1.06868
1490.48	1.04928
1492.04	1.57472
1493.6	1.2957
1495.16	1.15163
1496.72	0.88965
1498.28	0.919926
1499.84	0.484317
1501.4	0.710994
1502.96	1.1713
1504.52	0.682414
1506.08	1.04649
1507.64	0.906332
1509.2	0.977754
1510.76	0.951138
1512.31	0.788624
1513.87	0.934005
1515.43	0.521761
1516.99	0.898367
1518.54	1.1791
1520.1	1.07687
1521.66	0.99425
1523.21	-0.12072
1524.77	1.2097
1526.32	0.762383
1527.88	0.372274
1529.43	1.16147
1530.99	0.809163
1532.54	1.25478
1534.09	0.772385
1535.65	1.0679
1537.2	1.19383
1538.75	1.16936
1540.31	1.06997
1541.86	1.59257
1543.41	0.777808
1544.96	1.69414
1546.51	0.654991
1548.06	1.04376
1549.62	1.41292
1551.17	1.20109
1552.72	1.06511
1554.27	1.22951
1555.82	0.573538
1557.36	1.56301
1558.91	1.15452
1560.46	1.5134
1562.01	0.866805
1563.56	1.11698
1565.11	1.27461
1566.66	0.835235
1568.2	1.29134
1569.75	1.52309
1571.3	1.06373
1572.84	1.29467
1574.39	1.82413
1575.93	1.25222
1577.48	1.72593
1579.02	1.21069
1580.57	1.44294
1582.11	1.20929
1583.66	1.66772
1585.2	1.39849
1586.75	1.29789
1588.29	0.879409
1589.83	1.86372
1591.38	1.61282
1592.92	1.66076
1594.46	1.12772
1596	1.45625
1597.54	2.0291
1599.09	2.09693
1600.63	2.10941
1602.17	2.1037
1603.71	1.57218
1605.25	1.65932
1606.79	1.44422
1608.33	1.95976
1609.87	1.83352
1611.41	1.5542
1612.95	1.59199
1614.48	1.27156
1616.02	1.70123
1617.56	1.5873
1619.1	0.950274
1620.64	2.07592
1622.17	1.74214
1623.71	1.40949
1625.25	1.65726
1626.78	1.19289
1628.32	1.75626
1629.86	1.8687
1631.39	1.49381
1632.92	1.67919
1634.46	1.60334
1635.99	2.29347
1637.53	1.80917
1639.06	1.86666
1640.59	1.60733
1642.13	1.72007
1643.66	2.24105
1645.19	1.99699
1646.73	2.2356
1648.26	1.73019
1649.79	2.41431
1651.32	2.20798
1652.85	2.48565
1654.38	2.02287
1655.92	2.32111
1657.45	2.47087
1658.98	2.24914
1660.51	2.1556
1662.04	1.93088
1663.57	2.01934
1665.09	1.77448
1666.62	2.84073
1668.15	2.30225
1669.68	1.80314
1671.21	2.04328
1672.73	1.9162
1674.26	1.53195
1675.79	2.41796
1677.31	1.33319
1678.84	1.42537
1680.37	1.16688
1681.89	1.82652
1683.42	1.56678
1684.94	1.27073
1686.47	0.406937
1687.99	0.736
1689.52	1.24832
1691.04	0.86322
1692.57	1.02761
1694.09	1.06371
1695.61	0.825346
1697.14	1.02546
1698.66	0.677108
1700.18	1.07693
1701.7	0.727871
1703.22	1.12585
1704.75	0.794141
1706.27	0.735368
1707.79	-0.141723
1709.31	0.689972
1710.83	0.0503263
1712.35	0.0103264
1713.87	0.115499
1715.39	0.854156
1716.91	1.15742
1718.43	0.429849
1719.95	0.118738
1721.46	0.169169
1722.98	0.616742
1724.5	0.163949
1726.02	0.145276
1727.53	0.524066
1729.05	0.111918
1730.57	-0.0474176
1732.08	-0.0981865
1733.6	0.323442
1735.12	0.245483
1736.63	-0.160002
1738.15	0.16104
1739.66	0.769341
1741.18	0.0238552
1742.69	0.389108
1744.21	-0.687126
1745.72	0.814585
1747.23	0.019474
1748.74	0.276496
1750.26	-0.0595236
1751.77	0.301063
1753.28	0.394486
1754.8	0.103492
1756.31	0.151506
1757.82	0.307066
1759.33	0.165549
1760.84	0.088295
1762.35	-0.343191
1763.86	-0.035903
1765.37	0.344473
1766.88	0.099412
1768.39	-0.0805683
1769.9	0.130814
1771.41	-0.298145
1772.92	0.0667372
1774.43	-0.0688267
1775.93	0.240794
1777.44	0.384617
1778.95	-0.249971
1780.46	0.208204
1781.96	-0.0910568
1783.47	0.107182
1784.98	0.154395
1786.48	0.18581
1787.99	-0.0262041
1789.49	0.455847
1791	-0.260395
1792.5	-0.0110559
1794.01	0.315954
1795.51	0.347546
1797.02	0.0107765
1798.52	0.159228
1800.03	0.136462
1801.53	0.23417
1803.03	0.0862122
1804.53	0.192701
1806.04	-0.228648
1807.54	0.132114
1809.04	0.101513
1810.54	-0.027401
1812.04	0.0872984
1813.54	0.0813379
1815.05	0.363017
1816.55	0.0313921
1818.05	0.297244
1819.55	0.499434
1821.05	-0.239905
1822.55	0.159301
1824.05	-0.133684
1825.54	-0.140312
1827.04	0.360863
1828.54	-0.0171757
1830.04	0.22868
1831.54	0.446883
1833.03	-0.184384
1834.53	0.0191946
1836.03	0.0760736
1837.52	-0.420097
1839.02	-0.0813828
1840.52	-0.28756
1842.01	0.297146
1843.51	-0.106912
1845	0.110778
1846.5	-0.192103
1847.99	-0.0599642
1849.49	-0.0612297
1850.98	0.241385
1852.47	0.0425138
1853.97	-0.0301666
1855.46	-0.185859
1856.95	0.0237389
1858.45	-0.0424194
1859.94	-0.171304
1861.43	0.274746
1862.92	0.191476
1864.41	0.258789
1865.91	0.200695
1867.4	-0.411494
1868.89	-0.198446
1870.38	-0.0296803
1871.87	-0.0485554
1873.36	0.210258
1874.85	0.0756245
1876.34	-0.506003
1877.83	0.133788
1879.31	-0.0558977
1880.8	0.307078
1882.29	0.379811
1882.56	0.376983
1884.05	-0.302979
1885.54	-0.00744057
1887.04	-0.113688
1888.53	0.406308
1890.03	-0.0657196
1891.52	-0.171038
1893.01	0.246997
1894.5	-0.13285
1895.99	0.114857
1897.49	0.293965
1898.98	-0.622905
1900.47	-0.18412
1901.96	0.392123
1903.45	-0.129412
1904.94	0.338741
1906.43	0.128
1907.92	0.177931
1909.41	0.054904
1910.9	-0.0670242
1912.39	0.419208
1913.88	0.281471
1915.37	0.0398312
1916.86	-0.0980577
1918.35	0.196847
1919.84	0.387133
1921.32	0.0402594
1922.81	-0.21938
1924.3	0.0760193
1925.78	0.11289
1927.27	-0.108786
1928.76	0.397373
1930.24	0.210931
1931.73	0.439181
1933.21	0.544587
1934.7	0.284456
1936.18	-0.0637922
1937.67	-0.0152273
1939.15	0.378354
1940.64	0.271014
1942.12	0.199246
1943.6	-0.0610628
1945.09	-0.406487
1946.57	0.0071888
1948.05	-0.0794201
1949.54	0.315577
1951.02	-0.0484505
1952.5	0.0687475
1953.98	0.305552
1955.46	0.0780077
1956.94	0.194626
1958.42	0.0544081
1959.91	0.189583
1961.39	0.6853
1962.87	0.16957
1964.34	0.11664
1965.82	0.234451
1967.3	0.385621
1968.78	0.347739
1970.26	-0.237695
1971.74	0.185151
1973.22	0.317167
1974.7	0.312658
1976.17	0.206084
1977.65	0.0146818
1979.13	0.300225
1980.6	0.279177
1982.08	-0.285973
1983.56	-0.0862789
1985.03	0.129739
1986.51	0.192519
1987.98	0.492431
1989.46	0.216496
1990.93	0.212441
1992.41	-0.196504
1993.88	-0.0968323
1995.36	0.121902
1996.83	-0.0645046
1998.3	0.610458
1999.78	-0.0998602
2001.25	0.219102
2002.72	0.0649815
2004.2	-0.0722713
2005.67	-0.495478
2007.14	-0.193312
2008.61	0.294853
2010.08	-0.226399
2011.55	0.212543
2013.02	0.0118332
2014.49	-0.0378208
2015.97	0.0631466
2017.43	0.516264
2018.9	0.413356
2020.37	-0.093298
2021.84	0.374427
2023.31	-0.0811272
2024.78	0.152463
2026.25	0.0852365
2027.72	0.0698757
2029.19	-0.0948582
2030.65	0.396017
2032.12	0.0659046
2033.59	-0.146427
2035.05	0.463948
2036.52	0.419157
2037.98	-0.214364
2039.45	-0.0754719
2040.92	0.0297976
2042.38	0.505444
2043.85	0.595328
2045.31	-0.0372829
2046.78	0.0373926
2048.24	0.449371
2049.71	0.204114
2051.17	0.227305
2052.63	0.282574
2054.1	0.35276
2055.56	0.876337
2057.02	0.251821
2058.48	0.0987206
2059.95	0.215088
2061.41	0.247619
2062.87	0.583995
2064.33	0.315457
2065.79	0.300491
2067.25	0.62301
2068.71	0.862062
2070.17	0.495526
2071.63	0.465657
2073.09	0.401951
2074.55	0.540012
2076.01	0.0546417
2077.47	0.225625
2078.93	0.716139
2080.39	0.53255
2081.85	0.550421
2083.3	0.41606
2084.76	0.651175
2086.22	0.48161
2087.68	0.64779
2089.13	0.359611
2090.59	1.04572
2092.05	0.65659
2093.5	1.15706
2094.96	0.650499
2096.41	0.730565
2097.87	0.726051
2099.32	1.20618
2100.78	0.280543
2102.23	1.02754
2103.69	0.77251
2105.14	0.986522
2106.59	0.85156
2108.05	0.501021
2109.5	0.934721
2110.95	1.31756
2112.41	1.11539
2113.86	1.01141
2115.31	0.656205
2116.76	0.965595
2118.21	0.842962
2119.67	1.02078
2121.12	1.4328
2122.57	1.5648
2124.02	1.0849
2125.47	1.07009
2126.92	1.23735
2128.37	1.76807
2129.82	1.56776
2131.27	1.69734
2132.71	1.49481
2134.16	1.45792
2135.61	1.43853
2137.06	1.27209
2138.51	1.32267
2139.95	2.10258
2141.4	2.04162
2142.85	1.68438
2144.29	1.98935
2145.74	2.31129
2147.19	2.30197
2148.63	1.96061
2150.08	2.18128
2151.52	2.00317
2152.97	2.32094
2154.42	1.7927
2155.86	1.94326
2157.3	2.01106
2158.75	2.42756
2160.19	2.61381
2161.64	2.05659
2163.08	2.51248
2164.52	2.5394
2165.96	2.48436
2167.41	2.54542
2168.85	2.306
2170.29	2.76271
2171.73	2.78454
2173.17	2.83722
2174.61	2.38916
2176.06	3.00489
2177.5	2.53989
2178.94	2.60798
2180.38	2.42788
2181.82	2.49824
2183.26	2.35313
2184.7	2.44118
2186.14	2.81215
2187.57	2.80059
2189.01	2.53944
2190.45	2.52785
2191.89	2.1996
2193.33	2.6196
2194.76	2.37201
2196.2	1.90589
2197.64	2.13653
2199.08	2.3815
2200.51	1.77754
2201.95	2.41947
2203.38	1.71746
2204.82	2.01246
2206.25	2.24209
2207.69	1.47816
2209.12	1.57574
2210.56	1.83783
2211.99	1.83379
2213.43	2.07681
2214.86	0.898891
2216.3	1.52241
2217.73	1.04118
2219.16	1.28735
2220.59	1.38593
2222.03	1.122
2223.46	1.10457
2224.89	1.33261
2226.32	1.21288
2227.75	1.40384
2229.19	1.51085
2230.62	1.37067
2232.05	1.13226
2233.48	1.00926
2234.91	0.887372
2236.34	0.848684
2237.77	1.15462
2239.2	1.21754
2240.63	1.34793
2242.06	1.07257
2243.48	0.733365
2244.91	0.867522
2246.34	1.0662
2247.77	1.01844
2249.2	0.870515
2250.62	0.980965
2252.05	0.910275
2253.48	0.611143
2254.9	0.78405
2256.33	0.698511
2257.76	0.664306
2259.18	0.762973
2260.61	0.459158
2262.03	1.0505
2263.46	0.539756
2264.88	0.613749
2266.31	0.150832
2267.73	0.695254
2269.16	0.881112
2270.58	0.740632
2272	0.518124
2273.43	0.507058
2274.85	0.300607
2276.27	0.240907
2277.69	0.491028
2279.12	0.659835
2280.54	0.0622473
2281.96	0.459188
2283.38	0.44836
2284.8	0.502847
2286.22	0.786119
2287.64	0.253551
2289.07	0.554115
2290.49	0.904349
2291.91	0.208948
2293.32	-0.0290098
2294.74	-0.0872202
2296.16	0.509184
2297.58	-0.0238848
2299	0.0979528
2300.42	0.302045
2301.84	0.342634
2303.26	0.596842
2304.67	0.441103
2306.09	-0.306128
2307.51	-0.0521317
2308.92	0.21798
2310.34	0.4877
2311.76	0.493989
2313.17	0.352165
2314.59	0.688012
2316	0.218033
2317.42	0.275623
2318.83	0.16888
2320.25	0.276186
2321.66	0.332936
2323.08	0.470272
2324.49	0.572161
2325.91	0.638619
2327.32	0.934092
2328.73	0.931778
2330.15	0.616743
2331.56	0.220675
2332.97	0.221057
2334.38	0.0577726
2335.79	0.256715
2337.21	0.224837
2338.62	-0.251907
2340.03	0.22368
2341.44	0.172273
2342.85	0.235292
2344.26	0.62619
2345.67	0.0335436
2347.08	0.047946
2348.49	0.111462
2349.9	0.10907
2351.31	0.612607
2352.72	-0.0779514
2354.13	0.210776
2355.53	-0.055953
2356.94	-0.0130987
2358.35	0.127225
2359.76	-0.20378
2361.17	0.245038
2362.57	-0.0366764
2363.98	-0.123557
2365.39	0.113258
2366.79	0.0427074
2368.2	0.00520515
2369.6	0.210789
2371.01	-0.0178127
2372.42	-0.518654
2373.82	0.10916
2375.22	0.0768719
2376.63	-0.100582
2378.03	-0.32717
2379.44	-0.121138
2380.84	0.211308
2382.25	0.156788
2383.65	0.117509
2385.05	0.445973
2386.45	0.222909
2387.86	0.00127983
2389.26	0.0762625
2390.66	0.279844
2392.06	0.118175
2393.46	-0.0581827
2394.87	0.323103
2396.27	-0.137783
2397.67	-0.263971
2399.07	0.182473
2400.47	-0.0379801
2401.87	0.17081
2403.27	0.109595
2404.67	0.397338
2406.07	0.255443
2407.47	0.0492191
2408.86	-0.0465937
2410.26	0.0792789
2411.66	0.268625
2413.06	0.379469
2414.46	0.269921
2415.85	0.288574
2417.25	0.308603
2418.65	0.0445518
2420.05	0.620147
2421.44	-0.293168
2422.84	0.2504
2424.23	0.381863
2425.63	0.41835
2427.03	-0.337067
2428.42	0.651907
2429.82	0.246888
2431.21	-0.0466938
2432.6	0.183451
2434	0.445035
2435.39	0.260787
2436.79	0.170268
2438.18	0.17352
2439.57	0.223107
2440.97	0.192342
2442.36	0.161051
2443.75	0.319906
2445.14	0.113644
2446.54	0.00252247
2447.93	0.398472
2449.32	0.0178938
2450.71	0.0970411
2452.1	0.239977
2453.49	0.446912
2454.88	0.0376635
2456.27	0.119595
2457.66	0.0436525
2459.05	-0.222245
2460.44	-0.0616598
2461.83	0.224545
2463.22	0.604606
2464.61	-0.0747604
2466	0.0515404
2467.39	0.0355721
2468.77	0.161565
2470.16	0.0349026
2471.55	-0.0920925
2472.94	0.205703
2474.32	0.313428
2475.71	0.090003
2477.1	-0.0234251
2478.48	0.428637
2479.87	-0.124122
2481.25	0.264921
2482.64	0.49661
2484.02	0.273458
2485.41	-0.0127707
2486.8	0.0910149
2488.18	-0.430687
2489.56	0.357239
2490.95	-0.148779
2492.33	0.217476
2493.72	0.288961
2495.1	0.45475
2496.48	0.528563
2497.86	0.804509
2499.25	0.306448
2500.63	-0.160339
2502.01	-0.0244579
2503.39	-0.430192
2504.77	0.151182
2506.16	0.0681763
2507.54	-0.24574
2508.92	0.20983
2510.3	-0.13371
2511.68	-0.322504
2513.06	-0.341588
2514.44	-0.0534954
2515.82	0.418703
2517.2	0.218044
2518.58	0.125182
2519.95	-0.059103
2521.33	-0.0449219
2522.71	-0.0619354
2524.09	0.0880194
2525.47	-0.0525284
2526.84	0.278943
2528.22	0.305997
2529.6	-0.319695
2530.98	-0.320045
2532.35	-0.166844
2533.73	0.0635757
2535.11	0.279478
2536.48	0.464921
2537.86	-0.12508
2539.23	-0.0324001
2540.61	0.180877
2541.98	0.18117
2543.36	-0.212732
2544.73	0.365218
2546.1	0.322382
2547.48	0.402151
2548.85	0.133866
2550.23	0.184189
2551.6	0.0822735
2552.97	-0.17233
2554.34	0.1639
2555.72	-0.0925627
2557.09	-0.0612574
2558.46	0.0153952
2559.83	0.380296
2561.2	0.518235
2562.58	0.338553
2563.95	0.477726
2565.32	-0.00398064
2566.69	0.484423
2568.06	0.169728
2569.43	-0.781543
2570.8	0.222309
2572.17	-0.12272
2573.54	0.184104
2574.91	0.309146
2576.27	-0.00543499
2577.64	0.331831
2579.01	0.229176
2580.38	0.36877
2581.75	0.280496
2583.11	0.252501
2584.48	-0.0182905
2585.85	-0.0768557
2587.21	0.395183
2588.58	0.458133
2589.95	-0.0849981
2591.31	-0.00689507
2592.68	0.161636
2594.04	0.238406
2595.41	0.632101
2596.78	0.61572
2598.14	-0.082221
2599.51	0.0669203
2600.87	0.185776
2602.23	-0.253771
2603.6	0.364408
2604.96	0.348885
2606.32	-0.0284634
2607.69	0.121884
2609.05	0.226042
2610.41	0.0728121
2611.77	0.00878906
2613.14	0.289557
2614.5	-0.151984
2615.86	0.17239
2617.22	-0.0133257
2618.58	-0.228037
2619.94	-0.0825081
2621.3	-0.0561209
2622.67	0.135092
2624.03	-0.0321026
2625.39	0.0396223
2626.75	0.349583
2628.1	-0.0713825
2629.46	0.192899
2630.82	0.307775
2632.18	0.526421
2633.54	0.031683
2634.9	0.354006
2636.26	0.319859
2637.61	-0.277324
2638.97	0.769955
2640.33	0.277127
2641.69	0.361866
2643.04	0.0331211
2644.4	0.133112
2645.76	0.144364
2647.11	0.00778008
2648.47	0.0916615
2649.82	0.277594
2651.18	0.197866
2652.53	0.0739355
2653.89	-0.0935297
2655.24	-0.15735
2656.6	0.028966
2657.95	-0.0180416
2659.31	0.286952
2660.66	0.226499
2662.01	0.28286
2663.37	0.250919
2664.72	0.364155
2666.07	0.0972528
2667.43	-0.155129
2668.78	-0.188773
2670.13	0.199841
2671.48	0.283072
2672.83	0.177935
2674.18	-0.0281067
2675.53	0.129484
2676.89	0.476097
2678.24	-0.0325747
2679.59	0.373347
2680.94	0.417732
2682.29	0.0718708
2683.64	0.0606232
2684.99	0.383909
2686.34	0.0694189
2687.68	0.189974
2689.03	0.382
2690.38	0.194897
2691.73	-0.00848293
2693.08	0.178508
2694.43	-0.0706358
2695.77	0.375948
2697.12	0.286749
2698.47	0.155469
2699.81	0.112774
2701.16	0.20211
2702.51	0.365376
2703.85	0.00813007
2705.2	0.44844
2706.54	0.221992
2707.89	0.154691
2709.23	0.435337
2710.58	0.614144
2711.92	0.0374031
2713.27	0.215782
2714.61	0.568624
2715.96	0.51449
2717.3	0.256553
2718.64	0.187334
2719.99	0.466942
2721.33	0.54244
2722.67	0.559234
2724.01	0.444538
2725.36	0.0382776
2726.7	0.621399
2728.04	0.60741
2729.38	0.389442
2730.72	0.535134
2732.06	0.433429
2733.41	0.157269
2734.75	0.244971
2736.09	0.536478
2737.43	0.391769
2738.77	0.247044
2740.11	0.363836
2741.44	0.2184
2742.78	0.421257
2744.12	0.158257
2745.46	0.287054
2746.8	0.328194
2748.14	0.0788059
2749.48	-0.0687628
2750.81	0.306083
2752.15	0.41993
2753.49	0.186106
2754.83	0.184409
2756.16	0.16836
2757.5	0.166957
2758.84	0.194757
2760.17	0.0637226
2761.51	0.439683
2762.84	0.338539
2764.18	0.136433
2765.51	0.411777
2766.85	0.00666237
2768.18	0.280576
2769.52	0.191574
2770.85	0.448027
2772.19	-0.00481892
2773.52	0.205754
2774.85	-0.334212
2776.19	0.0629549
2777.52	-0.245378
2778.85	0.0656443
2780.18	0.204268
2781.52	0.285571
2782.85	0.223335
2784.18	-0.0253105
2785.51	0.371281
2786.84	0.23761
2788.17	-0.0242262
2789.51	0.0726538
2790.84	-0.373153
2792.17	-0.174541
2793.5	-0.018487
2794.83	0.166113
2796.16	-0.0926461
2797.48	-0.208946
2798.81	0.331093
2800.14	-0.185852
2801.47	-0.0749292
2802.8	0.0927315
2804.13	-0.110553
2805.46	0.0704994
2806.79	-0.0481596
2808.11	0.117186
2809.44	-0.21553
2810.77	0.233334
2812.09	0.142901
2813.42	0.266447
2814.75	0.433859
2816.07	-0.0210447
2817.4	-0.0353699
2818.73	0.0500736
2820.05	0.376467
2821.38	0.234685
2822.7	0.0639238
2824.03	0.246814
2825.35	0.358463
2826.67	0.342651
2828	0.270734
2829.32	0.638256
2830.65	0.609829
2831.97	0.70902
2833.29	0.793983
2834.62	0.963521
2835.94	1.17496
2837.26	1.04617
2838.58	2.06277
2839.9	2.27252
2841.23	2.56713
2842.55	2.76316
2843.87	2.93165
2845.19	3.69456
2846.51	2.93194
2847.83	3.28622
2849.15	3.61229
2850.47	3.33024
2851.79	3.57053
2853.11	3.44271
2854.43	3.52641
2855.75	3.51097
2857.07	3.49551
2858.39	3.55075
2859.71	3.12579
2861.02	3.5056
2862.34	3.67314
2863.66	3.71313
2864.98	3.68224
2866.3	3.60903
2867.61	3.94515
2868.93	4.45084
2870.25	3.77266
2871.56	4.30709
2872.88	4.89739
2874.19	4.88066
2875.51	5.74996
2876.83	6.02583
2878.14	6.17371
2879.46	6.34917
2880.77	6.51084
2882.09	6.65943
2883.4	6.03693
2884.71	5.13528
2886.03	5.0209
2887.34	4.86455
2888.65	5.07255
2889.97	5.19531
2891.28	4.82619
2892.59	4.77901
2893.91	5.08191
2895.22	5.10494
2896.53	5.12896
2897.84	5.2242
2899.15	4.9429
2900.46	4.92841
2901.78	5.19424
2903.09	4.94275
2904.4	4.49562
2905.71	5.41957
2907.02	5.07134
2908.33	5.36751
2909.64	5.49685
2910.95	5.1231
2912.26	5.74301
2913.57	5.71825
2914.87	5.91586
2916.18	6.30743
2917.49	6.22114
2918.8	5.86793
2920.11	6.14416
2921.42	7.09214
2922.72	6.68524
2924.03	6.60162
2925.34	6.60321
2926.64	6.70339
2927.95	7.23701
2929.26	7.32284
2930.56	7.3381
2931.87	6.97536
2933.17	7.493
2934.48	6.92034
2935.78	7.03273
2937.09	6.89377
2938.39	7.06248
2939.7	7.1337
2941	6.80032
2942.31	6.34218
2943.61	6.73791
2944.91	6.26864
2946.22	6.09415
2947.52	6.33995
2948.82	5.92781
2950.13	5.87811
2951.43	6.03639
2952.73	5.33833
2954.03	5.42287
2955.33	5.46498
2956.64	5.27018
2957.94	5.30168
2959.24	4.86022
2960.54	4.72967
2961.84	4.93766
2963.14	4.768
2964.44	4.45706
2965.74	4.32681
2967.04	4.06819
2968.34	4.07509
2969.64	3.98276
2970.94	4.05907
2972.24	3.7137
2973.53	3.45295
2974.83	3.36098
2976.13	3.39503
2977.43	3.27287
2978.73	3.13485
2980.02	2.54465
2981.32	2.8822
2982.62	2.69853
2983.91	2.40292
2985.21	2.54435
2986.51	2.47651
2987.8	2.42425
2989.1	2.34493
2990.4	1.80211
2991.69	1.65229
2992.99	2.06362
2994.28	1.91151
2995.57	1.54768
2996.87	1.26767
2998.16	1.32452
2999.46	1.40965
3000.75	1.04658
3002.05	0.880602
3003.34	1.05145
3004.63	0.886135
3005.92	0.888731
3007.22	0.708776
3008.51	0.863991
3009.8	0.626685
3011.09	0.724336
3012.39	0.402625
3013.68	0.569706
3014.97	0.87637
3016.26	0.27787
3017.55	0.23775
3018.84	0.100798
3020.13	0.270051
3021.42	0.355326
3022.71	0.161942
3024	0.203881
3025.29	0.189617
3026.58	0.189069
3027.87	0.230536
3029.16	0.203918
3030.45	0.137367
3031.73	0.29329
3033.02	0.00838041
3034.31	0.276014
3035.6	0.460203
3036.89	0.284499
3038.17	-0.278353
3039.46	-0.181264
3040.75	-0.0582829
3042.03	0.530227
3043.32	0.0069685
3044.61	-0.0349488
3045.89	0.116252
3047.18	0.146337
3048.46	0.479023
3049.75	0.0629168
3051.03	0.208044
3052.32	0.10835
3053.6	0.0633111
3054.89	0.440641
3056.17	0.325858
3057.45	0.251067
3058.74	-0.192181
3060.02	0.495004
3061.31	0.555855
3062.59	0.0736256
3063.87	0.164193
3065.15	0.500943
3066.44	0.145736
3067.72	-0.00455809
3069	0.403076
3070.28	0.144183
3071.56	0.306143
3072.84	-0.32173
3074.13	0.0148578
3075.41	0.132981
3076.69	-0.496132
3077.97	0.436748
3079.25	0.0538535
3080.53	0.24239
3081.81	0.256101
3083.09	-0.244431
3084.37	0.246098
3085.64	-0.0637894
3086.92	-0.2248
3088.2	0.102257
3089.48	-0.182018
3090.76	0.293346
3092.04	-0.289711
3093.31	-0.126298
3094.59	-0.00327778
3095.87	0.0386877
3097.14	-0.122533
3098.42	0.312677
3099.7	-0.0653415
3100.97	0.31543
3102.25	0.208618
3103.53	0.251143
3104.8	-0.355468
3106.08	0.121557
3107.35	0.450574
3108.63	0.104014
3109.9	0.205135
3111.18	0.0635886
3112.45	0.288465
3113.73	0.0939226
3115	0.387324
3116.27	0.477165
3117.55	0.57985
3118.82	0.193335
3120.09	0.131427
3121.37	0.421299
3122.64	0.398832
3123.91	0.430494
3125.18	0.327
3126.45	0.345953
3127.73	0.446702
3129	0.561514
3130.27	0.365722
3131.54	0.589264
3132.81	0.434314
3134.08	0.508867
3135.35	0.893463
3136.62	0.670064
3137.89	0.406175
3139.16	0.842935
3140.43	0.767501
3141.7	0.369624
3142.97	0.684967
3144.24	0.530507
3145.51	0.403803
3146.78	0.707038
3148.04	0.662307
3149.31	1.03335
