200.419	1.19946
202.234	1.22305
204.048	1.24815
205.862	1.03111
207.678	0.425618
209.491	0.792043
211.304	1.18112
213.116	1.0099
214.928	0.449494
216.742	1.4404
218.554	1.00086
220.365	0.441576
222.176	0.198423
223.986	-0.478724
225.798	-0.067173
227.608	0.102472
229.417	0.0300636
231.226	-0.477362
233.035	0.752209
234.843	-0.0927467
236.653	0.00432968
238.46	-0.161633
240.268	0.349916
242.074	0.164869
243.881	0.97018
245.687	1.02799
247.493	-0.0989475
249.298	0.0987663
251.103	0.0757923
252.908	0.218744
254.715	0.456106
256.519	0.499769
258.322	0.399626
260.126	-0.373261
261.929	0.277377
263.731	0.327503
265.534	0.234219
267.336	0.454565
269.137	0.264845
270.938	0.459893
272.739	0.750123
274.54	0.0261297
276.34	0.337063
278.14	0.332525
279.939	0.157165
281.739	0.533358
283.537	0.810667
285.336	0.244902
287.134	0.279386
288.932	-0.117852
290.729	-0.0824099
292.526	0.672379
294.323	0.73412
296.117	0.367074
297.913	0.45564
299.709	0.257993
301.504	0.108042
303.299	-0.18597
305.093	0.592854
306.888	0.0341291
308.682	0.357728
310.475	-0.247675
312.268	0.601474
314.059	-0.238736
315.852	0.0184841
317.644	0.444338
319.436	0.252679
321.227	0.800985
323.018	0.110678
324.807	0.374466
326.597	0.447711
328.387	0.353538
330.177	0.927885
331.967	0.281713
333.753	-0.965033
335.542	0.202446
337.331	0.506152
339.119	0.448589
340.906	0.317564
342.691	0.615976
344.478	-0.304543
346.265	0.185356
348.051	0.1981
349.835	-0.0989838
351.621	0.749759
353.406	0.571439
355.189	0.272783
356.973	-0.241652
358.757	0.434539
360.541	0.156045
362.323	0.186271
364.106	0.477182
365.889	0.362932
367.669	0.105601
369.451	0.037529
371.233	-0.0550261
373.012	-0.242777
374.793	0.0894012
376.574	-0.0748606
378.353	0.0447264
380.133	0.37703
381.91	0.050931
383.69	0.596974
385.469	0.391513
387.245	-0.423373
389.024	0.525295
390.8	0.182813
392.577	-0.252621
394.353	-0.640426
396.129	0.122892
397.906	0.205296
399.68	0.0056591
401.456	0.0639353
403.23	0.145021
405.005	0.413203
406.778	-0.376208
408.552	-0.0155554
410.325	0.814038
412.099	0.305638
413.87	0.290607
415.643	1.75455
417.414	2.14009
419.187	2.78467
420.957	2.11544
422.728	0.225105
424.498	0.399497
426.269	-0.201791
428.038	0.25245
429.806	0.706087
431.576	0.690201
433.344	0.205263
435.114	-0.185401
436.881	0.17494
438.649	0.417223
440.416	0.610977
442.182	0.0987482
443.949	0.452109
445.715	0.287608
447.48	0.590157
449.247	0.423949
451.011	0.211403
452.777	0.162974
454.541	0.371458
456.304	0.183383
458.069	0.624248
459.832	0.133666
461.594	0.249111
463.358	0.273082
465.119	0.508692
466.881	0.793844
468.642	0.315123
470.404	0.233434
472.165	0.664275
473.925	0.53606
475.684	-0.153153
477.445	1.27487
479.204	0.418064
480.963	0.259015
482.721	-0.342389
484.481	0.198646
486.239	-0.0968275
487.996	0.705168
489.753	0.530788
491.511	0.240605
493.268	0.417923
495.023	0.7829
496.779	0.0951052
498.534	0.34293
500.289	-0.0893459
502.046	0.720919
503.8	0.474525
505.554	0.673127
507.307	0.611796
509.06	0.454644
510.813	0.789801
512.566	0.582088
514.32	0.702161
516.072	1.05595
517.823	0.538044
519.574	0.701149
521.325	-0.00607872
523.076	0.648968
524.826	0.692833
526.576	0.713174
528.325	0.991449
530.074	0.777207
531.823	0.750143
533.572	0.277514
535.32	0.365669
537.068	0.732643
538.815	0.443698
540.562	0.877028
542.309	0.70285
544.056	0.505401
545.802	0.331629
547.547	0.553021
549.293	0.519172
551.038	1.01825
552.783	1.05383
554.527	0.673648
556.271	0.594646
558.015	0.0319643
559.759	0.139009
561.502	0.752892
563.245	0.446363
564.987	0.255864
566.729	0.68652
568.471	0.796142
570.213	0.333141
571.954	0.26194
573.693	0.192513
575.433	0.010251
577.173	0.609859
578.913	0.24718
580.652	0.3903
582.392	0.166042
584.13	0.791656
585.867	0.381764
587.605	0.522391
589.343	-0.0284395
591.08	0.132918
592.817	0.431767
594.552	0.615404
596.289	0.154888
598.025	0.0164566
599.761	0.429826
601.496	0.290192
603.229	0.218293
604.964	0.558726
606.699	0.0472717
608.433	-0.32669
610.165	0.0799608
611.898	0.280178
613.631	-0.596572
615.364	0.132405
617.095	-0.147015
618.827	0.397749
620.559	0.0710735
622.288	0.475535
624.02	-0.333052
625.75	0.275784
627.479	-0.188099
629.209	-0.330089
630.939	0.146403
632.667	0.602177
634.396	0.57997
636.125	0.648777
637.851	-0.105978
639.58	0.597335
641.305	-0.185633
643.033	0.625285
644.76	-0.251453
646.485	0.170307
648.212	-0.0432167
649.936	0.291974
651.662	0.26745
653.388	0.610676
655.111	0.252709
656.836	0.420253
658.558	0.634771
660.283	0.187647
662.005	0.697254
663.728	0.131131
665.45	0.202066
667.173	0.797022
668.893	0.224916
670.616	0.934302
672.336	1.25719
674.057	0.0488453
675.777	0.605701
677.498	0.522559
679.216	0.531304
680.937	0.883908
682.655	0.176892
684.375	0.963034
686.092	0.780538
687.809	0.849587
689.528	0.618021
691.244	0.454752
692.962	0.705452
694.678	0.794107
696.393	0.973801
698.111	0.62264
699.825	0.82268
701.54	1.32026
703.256	1.03473
704.97	0.978498
706.685	0.761108
708.398	0.910536
710.111	1.01349
711.826	1.00139
713.538	1.1491
715.25	0.90783
716.961	1.21491
718.675	0.928415
720.386	0.961717
722.096	1.06345
723.808	1.27883
725.518	0.629865
727.228	1.41267
728.937	1.17246
730.648	1.68032
732.357	1.86971
734.065	1.40234
735.773	1.61405
737.483	1.10314
739.19	0.909767
740.897	1.10095
742.604	1.47332
744.31	0.901155
746.018	1.50121
747.724	1.31499
749.429	1.46768
751.134	1.12694
752.839	1.01249
754.544	1.16943
756.248	1.10295
757.953	1.21817
759.657	0.929526
761.36	1.27295
763.063	0.760072
764.765	1.19452
766.468	1.28951
768.169	1.13404
769.871	1.69977
771.572	2.05997
773.273	2.16982
774.976	2.32431
776.676	1.68801
778.376	2.13841
780.075	2.02523
781.775	1.73227
783.474	1.98246
785.172	1.57515
786.871	1.98023
788.569	2.26864
790.266	1.35432
791.964	1.27462
793.661	2.18687
795.358	1.83376
797.054	2.00063
798.75	1.42581
800.446	1.844
802.141	1.79085
803.834	2.84048
805.529	2.76512
807.224	1.52047
808.918	2.04998
810.612	1.83696
812.305	1.98202
813.998	1.76772
815.691	2.24749
817.384	1.71984
819.076	1.77422
820.766	2.16366
822.458	2.17353
824.149	1.69373
825.84	2.46389
827.531	1.52054
829.221	1.73863
830.909	1.55902
832.599	1.18178
834.288	1.72031
835.977	1.41299
837.666	1.61844
839.353	1.86757
841.041	1.53447
842.729	1.3338
844.416	1.78055
846.103	1.64701
847.788	2.1413
849.475	1.3858
851.161	1.63945
852.845	1.46972
854.53	1.63723
856.216	1.62526
857.901	1.22988
859.583	1.59716
861.268	1.08492
862.952	1.24625
864.633	0.978188
866.317	0.866795
868	1.85958
869.681	0.845048
871.363	1.13813
873.045	1.56645
874.725	1.43071
876.406	1.47546
878.088	1.42996
879.767	1.18118
881.447	1.42861
883.125	1.31412
884.805	1.49196
886.483	1.37488
888.162	1.00803
889.841	1.15853
891.518	1.66792
893.196	1.13924
894.872	1.64524
896.55	1.00267
898.225	0.719666
899.902	0.88495
901.577	1.63157
903.254	0.630329
904.928	1.24051
906.604	1.20207
908.277	1.00832
909.952	1.61758
911.625	1.51463
913.3	0.723637
914.972	1.13355
916.646	0.98816
918.318	0.998125
919.991	1.14101
921.662	1.12934
923.333	1.18516
925.005	1.37509
926.675	0.948524
928.347	0.943394
930.017	1.38088
931.686	1.37766
933.357	1.33062
935.025	0.864686
936.693	1.6123
938.363	0.927185
940.031	0.706432
941.698	0.59713
943.367	1.0181
945.034	1.32879
946.7	1.2411
948.368	1.17356
950.034	0.839225
951.699	0.283169
953.367	0.852275
955.031	0.937503
956.696	0.871119
958.36	0.830036
960.026	0.924192
961.689	1.02009
963.353	1.00552
965.016	1.21041
966.68	0.461366
968.343	0.704926
970.005	1.14544
971.666	1.27518
973.328	0.918786
974.991	0.519676
976.652	0.675236
978.312	-0.36221
979.972	0.437066
981.632	1.23644
983.292	1.01642
984.953	1.25926
986.612	1.2121
988.27	1.14095
989.929	0.869501
991.587	1.17225
993.244	0.679316
994.902	0.518148
996.559	0.975012
998.216	0.791899
999.872	1.44613
1001.53	1.98901
1003.19	0.72613
1004.84	0.872101
1006.5	1.32538
1008.15	0.943651
1009.81	0.935843
1011.46	0.533751
1013.11	0.768194
1014.77	1.00276
1016.42	0.887202
1018.07	1.01297
1019.73	1.31442
1021.38	0.873377
1023.03	1.0239
1024.68	1.06609
1026.34	1.24001
1027.99	1.52317
1029.64	1.56527
1031.29	1.56236
1032.94	1.68869
1034.59	2.64212
1036.24	2.45894
1037.89	3.75641
1039.53	4.74691
1041.18	6.15
1042.83	6.20538
1044.48	5.91567
1046.13	6.43271
1047.77	6.49636
1049.42	5.60694
1051.07	5.02334
1052.71	3.13721
1054.36	2.98911
1056	3.01482
1057.65	1.82281
1059.3	1.543
1060.94	1.91475
1062.59	1.52459
1064.23	1.24215
1065.87	1.37172
1067.52	1.36964
1069.16	0.736451
1070.8	0.0813675
1072.44	0.794223
1074.09	1.20317
1075.73	0.593427
1077.37	0.982914
1079.01	-0.231087
1080.65	0.854323
1082.29	0.400135
1083.93	0.422155
1085.57	0.789405
1087.21	0.63431
1088.85	1.25679
1090.49	0.621585
1092.13	1.02384
1093.77	-0.173327
1095.41	0.616874
1097.04	0.587313
1098.68	0.537608
1100.32	0.812634
1101.95	1.00328
1103.59	0.743891
1105.23	0.572011
1106.86	0.680371
1108.5	0.46585
1110.13	0.529835
1111.77	0.377281
1113.4	0.502507
1115.04	0.79805
1116.67	0.320261
1118.31	0.121908
1119.94	0.46007
1121.57	0.798818
1123.2	0.496245
1124.84	0.601418
1126.47	1.19936
1128.1	0.664452
1129.73	0.729143
1131.36	0.452342
1132.99	1.1165
1134.62	1.11778
1136.25	0.519972
1137.88	0.733302
1139.51	-0.0372744
1141.14	0.600882
1142.77	0.384324
1144.4	0.274739
1146.03	0.421742
1147.66	0.35647
1149.28	0.71821
1150.91	0.419975
1152.54	0.547798
1154.16	-0.00604534
1155.79	0.695718
1157.42	-0.0498629
1159.04	0.332634
1160.67	-0.0072422
1162.29	0.547078
1163.92	0.0179987
1165.54	0.658836
1167.17	0.385184
1168.79	0.216816
1170.41	0.0256128
1172.04	0.151339
1173.66	0.338879
1175.28	-0.0479155
1176.9	0.540506
1178.53	-0.0580387
1180.15	-0.104684
1181.77	0.145741
1183.39	0.248529
1185.01	0.0554466
1186.63	-0.370561
1188.25	0.173106
1189.87	-0.234633
1191.49	0.0935593
1193.11	-0.0431013
1194.73	0.302692
1196.35	0.0604544
1197.96	0.406035
1199.58	0.104147
1201.2	0.118577
1202.82	0.21909
1204.43	0.217687
1206.05	0.322723
1207.66	0.595946
1209.28	-0.131852
1210.9	0.66232
1212.51	0.953993
1214.13	0.347088
1215.74	0.842304
1217.36	0.648324
1218.97	0.349756
1220.58	0.238493
1222.2	0.563612
1223.81	0.702883
1225.42	1.09192
1227.04	0.695707
1228.65	0.921834
1230.26	1.10773
1231.87	1.2741
1233.48	1.46235
1235.1	1.09388
1236.71	0.623289
1238.32	0.980529
1239.93	0.925056
1241.53	1.22138
1243.14	1.31063
1244.75	1.46119
1246.36	1.15546
1247.97	1.71774
1249.58	2.03082
1251.19	1.4539
1252.8	1.4772
1254.4	0.673906
1256.01	0.781794
1257.62	0.684061
1259.22	1.68416
1260.83	0.967738
1262.43	1.74225
1264.04	1.79234
1265.64	1.61408
1267.25	1.45567
1268.85	1.46205
1270.46	1.11486
1272.06	1.22271
1273.66	1.59898
1275.27	1.18642
1276.87	1.97498
1278.48	1.70567
1280.08	1.99496
1281.68	1.39369
1283.28	1.5378
1284.88	1.72371
1286.48	0.91814
1288.08	1.37481
1289.68	1.58429
1291.28	2.08356
1292.88	2.06612
1294.48	1.82065
1296.08	1.94567
1297.68	1.44955
1299.28	2.52016
1300.88	2.76299
1302.48	1.43846
1304.07	2.29672
1305.67	1.69281
1307.27	1.89054
1308.87	1.84133
1310.46	1.2389
1312.06	1.80504
1313.65	1.96177
1315.25	2.32364
1316.85	1.66508
1318.44	1.3346
1320.03	1.67727
1321.63	2.0592
1323.22	1.72654
1324.82	1.63664
1326.41	1.70788
1328	1.85939
1329.6	2.11232
1331.19	1.67871
1332.78	1.93532
1334.37	1.97184
1335.96	2.15136
1337.56	1.70611
1339.15	2.16775
1340.74	1.49903
1342.33	0.970077
1343.92	0.942748
1345.51	1.59694
1347.1	1.50769
1348.69	1.50051
1350.28	1.41584
1351.86	1.43397
1353.45	1.61419
1355.04	1.57584
1356.63	1.43801
1358.21	1.37975
1359.8	1.79979
1361.39	1.38003
1362.97	0.979775
1364.56	1.2973
1366.15	1.21621
1367.73	0.837291
1369.32	1.19644
1370.9	0.720964
1372.49	0.426118
1374.07	0.749228
1375.65	0.575557
1377.24	0.740276
1378.82	1.1632
1380.41	1.3264
1381.99	1.44842
1383.57	1.44969
1385.15	0.893333
1386.73	1.23105
1388.32	1.29057
1389.9	1.29116
1391.48	1.01488
1393.06	0.977628
1394.64	1.0598
1396.22	1.18141
1397.8	0.965267
1399.38	1.24364
1400.96	0.847401
1402.54	0.886445
1404.11	0.945186
1405.69	1.45916
1407.27	1.28178
1408.85	1.20421
1410.43	0.830954
1412	0.991049
1413.58	1.32811
1415.16	1.11151
1416.73	1.56474
1418.31	2.17473
1419.88	1.76004
1421.46	1.7013
1423.03	1.27027
1424.61	1.82522
1426.18	1.43674
1427.76	1.24566
1429.33	2.31403
1430.9	1.88554
1432.48	1.69205
1434.05	2.32388
1435.62	1.67648
1437.2	1.9734
1438.77	2.29059
1440.34	1.7047
1441.91	2.59389
1443.48	2.06882
1445.05	1.76035
1446.62	1.98273
1448.19	2.10702
1449.76	1.93675
1451.33	2.1405
1452.9	2.06957
1454.47	2.68752
1456.04	1.90874
1457.61	2.03424
1459.17	4.5398
1460.74	4.07155
1462.31	1.77147
1463.88	2.26371
1465.44	2.06635
1467.01	1.79021
1468.58	1.1417
1470.14	1.47592
1471.71	1.2225
1473.27	1.46064
1474.84	0.895502
1476.4	0.801524
1477.97	1.27622
1479.53	1.4567
1481.1	0.931439
1482.66	0.700198
1484.22	1.11549
1485.78	1.62824
1487.35	0.964869
1488.91	1.14245
1490.47	1.37671
1492.03	0.454861
1493.59	0.606813
1495.16	1.24441
1496.72	0.82715
1498.28	1.50043
1499.84	1.00645
1501.4	0.553547
1502.96	1.1694
1504.52	0.951852
1506.08	0.734987
1507.64	0.498592
1509.19	0.918535
1510.75	0.738194
1512.31	0.923585
1513.87	0.665425
1515.42	0.331209
1516.98	0.881505
1518.54	0.66423
1520.1	1.08017
1521.65	0.997947
1523.21	-0.0018959
1524.76	0.431695
1526.32	0.653517
1527.87	0.626317
1529.43	0.788772
1530.98	0.570991
1532.54	0.543912
1534.09	0.726058
1535.64	0.606153
1537.2	1.2621
1538.75	0.822665
1540.3	0.950188
1541.85	1.0964
1543.41	0.357703
1544.96	0.165508
1546.51	0.499403
1548.06	1.24525
1549.61	0.958618
1551.16	1.06596
1552.71	1.00525
1554.26	0.627843
1555.81	0.962069
1557.36	1.42826
1558.91	1.03773
1560.46	0.817211
1562.01	0.822176
1563.56	0.921518
1565.1	0.797555
1566.65	1.06556
1568.2	1.10945
1569.75	1.35828
1571.29	1.0281
1572.84	0.67893
1574.38	1.24431
1575.93	1.21236
1577.48	1.57265
1579.02	0.96256
1580.57	1.36124
1582.11	1.10717
1583.65	1.73184
1585.2	1.55408
1586.74	0.984096
1588.29	1.25545
1589.83	1.26486
1591.37	1.76053
1592.92	1.61941
1594.46	1.27185
1596	1.35505
1597.54	1.06385
1599.08	1.54181
1600.62	1.73952
1602.16	1.22471
1603.7	2.02383
1605.24	1.4516
1606.78	1.83601
1608.32	1.44798
1609.86	1.62145
1611.4	1.2852
1612.94	1.58576
1614.48	1.49052
1616.02	1.37618
1617.56	1.48735
1619.09	1.26233
1620.63	1.2637
1622.17	1.11664
1623.71	1.17638
1625.24	1.08641
1626.78	0.808609
1628.31	1.68968
1629.85	1.25964
1631.39	0.941132
1632.92	1.20161
1634.46	1.25671
1635.99	1.21924
1637.52	1.85411
1639.06	1.10953
1640.59	1.57693
1642.12	1.46586
1643.66	1.6145
1645.19	1.57567
1646.72	1.81489
1648.25	2.27639
1649.79	2.25484
1651.32	1.84464
1652.85	1.43617
1654.38	1.7708
1655.91	1.93905
1657.44	1.55128
1658.97	1.8298
1660.5	1.49588
1662.03	1.71589
1663.56	1.91593
1665.09	1.83799
1666.62	2.03734
1668.15	1.26005
1669.67	2.10722
1671.2	1.81279
1672.73	1.6118
1674.26	1.57715
1675.79	1.50548
1677.31	1.06499
1678.84	1.19409
1680.36	1.15656
1681.89	1.26532
1683.42	1.17161
1684.94	1.27993
1686.47	1.02167
1687.99	0.910772
1689.51	1.4049
1691.04	1.34947
1692.56	0.70857
1694.08	1.07427
1695.61	0.433925
1697.13	0.798981
1698.65	0.286755
1700.18	0.358749
1701.7	0.247796
1703.22	0.300496
1704.74	0.625754
1706.26	0.804491
1707.78	0.509974
1709.3	0.306699
1710.82	-0.0231934
1712.35	0.282268
1713.86	0.551136
1715.39	-0.230349
1716.9	-0.0338516
1718.42	0.162198
1719.94	-0.165827
1721.46	-0.00600529
1722.98	0.26222
1724.5	0.4589
1726.01	0.584533
1727.53	-0.134707
1729.05	0.245117
1730.56	0.461617
1732.08	0.690512
1733.6	0.0216293
1735.11	0.621572
1736.63	0.222029
1738.14	0.577875
1739.66	0.0821867
1741.17	-0.0397196
1742.69	0.391124
1744.2	0.170775
1745.71	-0.0335226
1747.23	0.209163
1748.74	0.5805
1750.25	-0.400733
1751.77	0.223935
1753.28	-0.441532
1754.79	0.0166512
1756.3	-0.0521641
1757.81	0.159719
1759.33	-0.159389
1760.84	0.0449915
1762.35	-0.00395107
1763.86	-0.0155344
1765.37	0.155762
1766.88	0.105034
1768.39	-0.0760469
1769.9	-0.15449
1771.41	-0.0881004
1772.91	0.0655689
1774.42	-0.144067
1775.93	0.0468626
1777.44	0.120067
1778.95	0.146041
1780.45	0.102744
1781.96	0.24887
1783.47	0.299881
1784.97	0.258177
1786.48	0.277218
1787.99	0.233486
1789.49	0.303937
1791	0.071043
1792.5	0.0144567
1794.01	0.0560131
1795.51	0.0295458
1797.01	-0.014225
1798.52	0.0337124
1800.02	-0.113969
1801.52	0.0322771
1803.03	0.288883
1804.53	0.186763
1806.03	0.0760174
1807.54	0.134714
1809.04	0.327803
1810.54	0.0663576
1812.04	0.50706
1813.54	0.0931854
1815.04	-0.303408
1816.54	0.0835571
1818.04	-0.0166349
1819.54	0.404702
1821.04	0.022625
1822.54	0.327421
1824.04	0.430722
1825.54	-0.197574
1827.04	0.12059
1828.54	0.377747
1830.03	0.0767441
1831.53	-0.0181007
1833.03	0.380436
1834.53	0.161318
1836.02	0.0419083
1837.52	0.257652
1839.02	0.246137
1840.51	0.105433
1842.01	0.167928
1843.5	-0.257513
1845	-0.0555573
1846.49	0.16384
1847.99	0.17163
1849.48	-0.158873
1850.98	-0.152946
1852.47	0.057312
1853.96	0.115144
1855.46	0.293472
1856.95	0.18234
1858.44	0.468872
1859.94	0.192103
1861.43	0.179172
1862.92	-0.18625
1864.41	0.132827
1865.9	0.22434
1867.39	-0.101847
1868.88	0.173667
1870.37	0.392999
1871.86	-0.229493
1873.35	-0.160149
1874.84	0.101719
1876.33	0.0233908
1877.82	-0.0874529
1879.31	-0.107484
1880.8	0.222595
1882.29	0.149535
1882.58	0.114504
1884.08	-0.00716496
1885.57	0.16676
1887.06	-0.0782795
1888.56	-0.184242
1890.05	0.127651
1891.54	0.648872
1893.04	0.145529
1894.53	0.374212
1896.02	0.204435
1897.51	0.000559807
1899	0.283536
1900.5	0.200277
1901.99	0.306844
1903.48	0.0465069
1904.97	0.3413
1906.46	-0.268355
1907.95	0.268695
1909.44	0.319808
1910.93	0.111496
1912.42	0.459222
1913.91	0.477792
1915.4	0.201637
1916.88	0.115973
1918.37	0.740456
1919.86	0.376533
1921.35	0.185978
1922.84	0.0132465
1924.32	0.274211
1925.81	-0.173595
1927.3	-0.343468
1928.78	0.197063
1930.27	-0.00695324
1931.75	0.290443
1933.24	-0.00226784
1934.72	-0.313764
1936.21	0.16937
1937.69	0.235924
1939.18	0.474759
1940.66	0.00564289
1942.15	0.107353
1943.63	0.244422
1945.11	0.0890274
1946.6	0.313303
1948.08	0.0891361
1949.56	0.622388
1951.04	0.24166
1952.53	-0.0878696
1954.01	-0.400282
1955.49	-0.145286
1956.97	-0.0963392
1958.45	-0.0468397
1959.93	-0.0482016
1961.41	0.208115
1962.89	0.241569
1964.37	-0.32483
1965.85	0.204788
1967.33	0.236886
1968.81	-0.125052
1970.29	0.265015
1971.77	0.415169
1973.24	0.326106
1974.72	0.407816
1976.2	0.114624
1977.68	0.367005
1979.15	0.465951
1980.63	0.258557
1982.11	0.49322
1983.58	-0.0201063
1985.06	-0.0407791
1986.53	-0.248194
1988.01	0.188655
1989.48	0.438866
1990.96	-0.0552168
1992.43	0.466922
1993.91	0.194937
1995.38	0.0422096
1996.86	0.227835
1998.33	-0.177796
1999.8	-0.0770884
2001.27	0.0229893
2002.75	0.37552
2004.22	0.272423
2005.69	0.186595
2007.16	0.253117
2008.64	0.2026
2010.11	-0.0996408
2011.58	0.305659
2013.05	0.306935
2014.52	0.324628
2015.99	0.291106
2017.46	0.559474
2018.93	0.00313187
2020.4	0.303723
2021.87	0.385573
2023.34	0.534793
2024.8	0.114187
2026.27	0.78523
2027.74	0.300165
2029.21	0.588056
2030.68	0.306889
2032.14	0.345303
2033.61	0.249869
2035.08	0.372643
2036.54	0.142348
2038.01	0.365124
2039.48	0.587627
2040.94	0.524404
2042.41	0.495143
2043.87	0.617962
2045.34	0.152768
2046.8	0.411768
2048.27	0.165937
2049.73	0.425136
2051.19	-0.0751333
2052.66	0.485372
2054.12	0.673273
2055.58	0.31988
2057.05	-0.000884056
2058.51	0.26765
2059.97	0.0473766
2061.43	0.265417
2062.9	0.332571
2064.36	0.619403
2065.82	0.368588
2067.28	0.673919
2068.74	0.155115
2070.2	0.410789
2071.66	0.616072
2073.12	0.838096
2074.58	0.655761
2076.04	0.540433
2077.5	0.52579
2078.95	0.763361
2080.41	0.411109
2081.87	0.563494
2083.33	0.967673
2084.79	0.563196
2086.24	0.36015
2087.7	0.896501
2089.16	0.675702
2090.61	0.572502
2092.07	1.0737
2093.53	0.852769
2094.98	1.15168
2096.44	0.343603
2097.89	0.490597
2099.35	0.569861
2100.8	0.464777
2102.26	1.21225
2103.71	0.824017
2105.16	0.971539
2106.62	0.836653
2108.07	0.819585
2109.53	1.28638
2110.98	0.668817
2112.43	1.21681
2113.88	1.0798
2115.33	1.24092
2116.79	1.45077
2118.24	0.697245
2119.69	0.975229
2121.14	1.0059
2122.59	1.3701
2124.04	1.2381
2125.49	1.28913
2126.94	1.57196
2128.39	1.07459
2129.84	1.40465
2131.29	1.46814
2132.74	1.61354
2134.19	1.75875
2135.63	1.60703
2137.08	1.35777
2138.53	1.60625
2139.98	1.77398
2141.43	1.77812
2142.87	1.37004
2144.32	2.31884
2145.77	1.71279
2147.21	1.9669
2148.66	1.87269
2150.1	2.17512
2151.55	1.53217
2152.99	2.09769
2154.44	2.13213
2155.88	2.00043
2157.33	2.56458
2158.77	1.95337
2160.21	2.8179
2161.66	2.44188
2163.1	2.29967
2164.55	2.3248
2165.99	2.31763
2167.43	2.0943
2168.87	2.25192
2170.31	2.52422
2171.76	2.41178
2173.2	2.26396
2174.64	2.53055
2176.08	2.31418
2177.52	2.81308
2178.96	2.68094
2180.4	2.31711
2181.84	2.33659
2183.28	2.45646
2184.72	2.09431
2186.16	2.43079
2187.6	2.18505
2189.04	1.90596
2190.47	1.89306
2191.91	1.89653
2193.35	1.94915
2194.79	2.5165
2196.23	2.01642
2197.66	2.29657
2199.1	2.10903
2200.54	2.0702
2201.97	1.68267
2203.41	1.77749
2204.84	1.54168
2206.28	1.55574
2207.71	2.0507
2209.15	1.76674
2210.58	1.8629
2212.02	1.56093
2213.45	1.8867
2214.89	1.30347
2216.32	1.64598
2217.75	1.72528
2219.19	1.47596
2220.62	1.70573
2222.05	1.11142
2223.48	1.63706
2224.92	1.37044
2226.35	0.904977
2227.78	1.29356
2229.21	1.10532
2230.64	1.17923
2232.07	0.662873
2233.5	0.966324
2234.93	0.877422
2236.36	0.642786
2237.79	0.997669
2239.22	0.864448
2240.65	1.20625
2242.08	0.734183
2243.51	1.07879
2244.94	0.771289
2246.37	0.512051
2247.79	0.952652
2249.22	0.689952
2250.65	0.718699
2252.08	0.648113
2253.5	0.804555
2254.93	0.831052
2256.36	1.11863
2257.78	0.613104
2259.21	0.629686
2260.63	0.486701
2262.06	0.524387
2263.48	0.384867
2264.91	0.521682
2266.33	0.560745
2267.76	0.534024
2269.18	0.26231
2270.6	0.185063
2272.03	0.465566
2273.45	0.518023
2274.87	0.423972
2276.3	0.492997
2277.72	0.578516
2279.14	0.533704
2280.56	0.961708
2281.98	0.443766
2283.41	0.431249
2284.83	-0.201347
2286.25	0.373827
2287.67	0.0679393
2289.09	-0.0744338
2290.51	0.665805
2291.93	0.703972
2293.35	0.0226669
2294.77	0.355177
2296.19	0.54057
2297.61	0.333047
2299.02	0.256454
2300.44	0.130787
2301.86	0.00525093
2303.28	0.0603004
2304.7	0.0991206
2306.11	0.154326
2307.53	0.242136
2308.95	0.31309
2310.36	1.07422
2311.78	0.387941
2313.2	0.47456
2314.61	0.23242
2316.03	0.221278
2317.44	0.194335
2318.86	0.497441
2320.27	0.0584078
2321.69	0.0799985
2323.1	0.26498
2324.51	0.150846
2325.93	0.31524
2327.34	0.675885
2328.76	0.870655
2330.17	0.703051
2331.58	0.651706
2332.99	0.403953
2334.41	0.305189
2335.82	0.223119
2337.23	-0.221152
2338.64	0.172461
2340.05	0.137487
2341.46	0.0688767
2342.87	0.311715
2344.28	0.0622292
2345.69	0.190254
2347.1	0.301992
2348.51	0.0862327
2349.92	0.213915
2351.33	0.0955224
2352.74	0.286747
2354.15	0.395193
2355.56	0.209412
2356.97	0.414494
2358.37	-0.031455
2359.78	0.173521
2361.19	0.199621
2362.6	0.241863
2364	0.26771
2365.41	0.00225401
2366.82	0.0930638
2368.22	0.200376
2369.63	0.243891
2371.03	-0.420712
2372.44	0.0926576
2373.84	-0.391994
2375.25	-0.0228367
2376.65	0.393919
2378.06	0.101741
2379.46	-0.0307488
2380.86	0.0923762
2382.27	0.294167
2383.67	-0.466184
2385.07	0.0547361
2386.48	-0.0962315
2387.88	-0.246064
2389.28	-0.0916681
2390.69	0.190986
2392.09	-0.162529
2393.49	-0.0056076
2394.89	0.104162
2396.29	-0.0558062
2397.69	0.0709524
2399.09	-0.151412
2400.49	0.150974
2401.89	0.151744
2403.29	0.0731378
2404.69	0.216514
2406.09	0.200294
2407.49	0.151525
2408.89	-0.230935
2410.29	-0.248703
2411.69	0.113972
2413.08	-0.1564
2414.48	-0.0930219
2415.88	0.114076
2417.28	0.306499
2418.67	0.103922
2420.07	-0.22513
2421.47	-0.0158405
2422.86	0.17736
2424.26	-0.342635
2425.65	0.436724
2427.05	0.0281029
2428.45	0.12738
2429.84	-0.0896425
2431.23	0.455374
2432.63	0.0326529
2434.02	-0.0574126
2435.42	-0.0532045
2436.81	0.2675
2438.2	0.221434
2439.6	0.444271
2440.99	0.253294
2442.38	-0.255508
2443.78	0.0450931
2445.17	0.345296
2446.56	0.343871
2447.95	0.00954199
2449.34	0.214059
2450.73	0.0544457
2452.13	-0.0412564
2453.52	0.053658
2454.91	-0.0247407
2456.3	0.245491
2457.69	0.294509
2459.08	-0.352562
2460.47	-0.478104
2461.85	0.296937
2463.24	0.0592928
2464.63	-0.115489
2466.02	0.104427
2467.41	0.024158
2468.8	0.243695
2470.19	-0.309908
2471.57	0.113912
2472.96	-0.0146966
2474.35	-0.0336123
2475.73	0.0727758
2477.12	-0.119937
2478.51	0.472826
2479.89	0.0448508
2481.28	-0.319583
2482.66	0.303504
2484.05	0.079843
2485.43	-0.112926
2486.82	0.0842743
2488.2	-0.0788155
2489.59	-0.0707107
2490.97	-0.0627356
2492.35	-0.0232244
2493.74	0.1103
2495.12	0.430881
2496.5	0.581565
2497.89	0.0668087
2499.27	0.0947146
2500.65	0.0913382
2502.03	0.272721
2503.42	-0.0257344
2504.8	0.030376
2506.18	0.0550203
2507.56	0.371819
2508.94	-0.080605
2510.32	-0.224533
2511.7	-0.0301113
2513.08	-0.157256
2514.46	0.467038
2515.84	0.188195
2517.22	0.185739
2518.6	-0.259596
2519.98	0.258351
2521.36	-0.0339303
2522.73	-0.0822387
2524.11	-0.00918913
2525.49	0.276491
2526.87	-0.0932798
2528.25	0.161744
2529.62	0.0220561
2531	0.263879
2532.38	-0.146311
2533.75	0.0980992
2535.13	0.100017
2536.5	0.0866895
2537.88	-0.0791411
2539.25	0.270628
2540.63	-0.13965
2542.01	0.269621
2543.38	-0.0948911
2544.75	-0.200588
2546.13	0.286347
2547.5	0.0462713
2548.88	0.0799589
2550.25	-0.0228677
2551.62	0.116667
2553	0.0884771
2554.37	0.135267
2555.74	0.0750623
2557.11	0.166094
2558.49	0.181161
2559.86	0.241949
2561.23	0.0152287
2562.6	0.168001
2563.97	-0.0575747
2565.34	0.156697
2566.71	0.143874
2568.08	0.100831
2569.45	0.30029
2570.82	0.151174
2572.19	-0.058548
2573.56	-0.0408335
2574.93	-0.0533557
2576.3	0.131254
2577.67	0.1642
2579.03	-0.273094
2580.4	0.153596
2581.77	0.64057
2583.14	-0.0251179
2584.5	-0.114801
2585.87	0.113822
2587.24	0.00906706
2588.6	0.146986
2589.97	0.0879803
2591.34	-0.122664
2592.7	-0.0912418
2594.07	0.166704
2595.43	-0.030684
2596.8	0.1042
2598.16	0.102119
2599.53	0.220683
2600.89	0.0823569
2602.26	0.0352435
2603.62	0.0491505
2604.98	0.0182648
2606.35	-0.0576887
2607.71	0.258166
2609.07	0.0605712
2610.44	-0.183041
2611.8	0.00902557
2613.16	0.124598
2614.52	0.209248
2615.88	-0.141636
2617.25	0.0780349
2618.61	0.0582118
2619.97	-0.305043
2621.33	-0.05408
2622.69	0.0176783
2624.05	0.1642
2625.41	0.14634
2626.77	-0.184858
2628.13	0.199375
2629.49	0.0914321
2630.85	0.0281186
2632.21	0.187803
2633.56	-0.128114
2634.92	0.194643
2636.28	0.116467
2637.64	-0.0801244
2639	-0.157899
2640.35	-0.176228
2641.71	-0.268217
2643.07	0.127663
2644.42	-0.0673542
2645.78	0.180396
2647.14	0.338984
2648.49	-0.136639
2649.85	0.432663
2651.2	-0.278672
2652.56	-0.0636268
2653.91	0.0191612
2655.27	-0.000139236
2656.62	-0.39923
2657.98	-0.123544
2659.33	0.284232
2660.68	-0.0975971
2662.04	0.0907645
2663.39	0.132349
2664.74	-0.133334
2666.1	0.0236998
2667.45	0.150942
2668.8	0.17599
2670.15	-0.14793
2671.5	-0.0347319
2672.86	0.107924
2674.21	0.091228
2675.56	0.075058
2676.91	0.23351
2678.26	-0.144183
2679.61	0.160553
2680.96	0.103662
2682.31	0.120321
2683.66	-0.224499
2685.01	0.345148
2686.36	-0.114661
2687.71	0.339485
2689.06	-0.0346866
2690.4	-0.0764532
2691.75	0.0253978
2693.1	-0.0191779
2694.45	0.0659933
2695.8	-0.124406
2697.14	0.381237
2698.49	0.178102
2699.84	-0.153784
2701.18	-0.310435
2702.53	0.171422
2703.88	0.379191
2705.22	0.254151
2706.57	-0.581687
2707.91	-0.0979829
2709.26	-0.281989
2710.6	0.143502
2711.95	-0.0265408
2713.29	0.195539
2714.64	0.141531
2715.98	0.0438209
2717.32	0.120464
2718.67	-0.0503807
2720.01	-0.00334549
2721.35	0.159758
2722.7	0.322493
2724.04	0.164613
2725.38	0.253806
2726.72	0.357222
2728.06	0.0965118
2729.4	0.141248
2730.75	0.258614
2732.09	0.114058
2733.43	0.0714512
2734.77	0.436287
2736.11	0.292195
2737.45	0.10461
2738.79	0.280605
2740.13	0.325483
2741.47	0.166375
2742.81	0.152138
2744.15	0.166376
2745.48	0.165553
2746.82	0.14985
2748.16	0.0469255
2749.5	-0.142915
2750.84	0.233191
2752.17	0.058331
2753.51	0.173653
2754.85	0.129688
2756.19	0.0279422
2757.52	0.0711999
2758.86	-0.044569
2760.19	0.259769
2761.53	0.0145431
2762.86	-0.0855222
2764.2	0.0751324
2765.54	-0.140423
2766.87	0.135543
2768.2	-0.139002
2769.54	0.0048418
2770.87	-0.0405288
2772.21	0.158512
2773.54	0.010078
2774.88	0.0776992
2776.21	0.246009
2777.54	0.184103
2778.87	-0.193578
2780.21	0.248813
2781.54	0.159552
2782.87	0.11354
2784.2	-0.204933
2785.53	0.179256
2786.87	-0.095705
2788.2	0.102473
2789.53	0.143745
2790.86	-0.557944
2792.19	-0.414981
2793.52	0.0284638
2794.85	-0.157094
2796.18	7.15256e-005
2797.51	0.328086
2798.84	0.184211
2800.17	0.0258236
2801.49	-0.232494
2802.82	0.165139
2804.15	-0.136121
2805.48	0.118023
2806.81	-0.155274
2808.13	0.0121846
2809.46	-0.0625396
2810.79	0.430914
2812.12	0.0160112
2813.44	0.255013
2814.77	-0.0153203
2816.09	0.112603
2817.42	-0.226285
2818.75	0.0447788
2820.07	0.174105
2821.4	0.062098
2822.72	0.0912561
2824.05	0.0348792
2825.37	0.275699
2826.7	-0.234075
2828.02	0.0921335
2829.35	0.531982
2830.67	0.321003
2831.99	0.096066
2833.31	0.493908
2834.64	0.707417
2835.96	0.41097
2837.28	0.637672
2838.61	0.849748
2839.93	0.821128
2841.25	0.934009
2842.57	0.891739
2843.89	0.864204
2845.21	1.33194
2846.53	1.27733
2847.85	0.968642
2849.17	1.26769
2850.49	1.72196
2851.81	1.10159
2853.13	1.38534
2854.45	1.17412
2855.77	1.81051
2857.09	1.51436
2858.41	1.5997
2859.73	1.86859
2861.05	2.27843
2862.36	2.02431
2863.68	2.10868
2865	2.13634
2866.32	2.19218
2867.64	2.19182
2868.95	2.55846
2870.27	2.55882
2871.59	2.55932
2872.9	2.6582
2874.22	2.85496
2875.53	2.48721
2876.85	3.04794
2878.16	2.8616
2879.48	2.63301
2880.79	2.81259
2882.11	2.66963
2883.42	3.1176
2884.74	2.92033
2886.05	3.03253
2887.36	2.99034
2888.68	2.94774
2889.99	3.00263
2891.3	2.93049
2892.62	2.99801
2893.93	2.88322
2895.24	2.85289
2896.55	3.04728
2897.86	3.21452
2899.18	3.20075
2900.49	3.48148
2901.8	3.37091
2903.11	3.37244
2904.42	3.52794
2905.73	3.83755
2907.04	3.64415
2908.35	4.10896
2909.66	4.19692
2910.97	4.04754
2912.28	4.24799
2913.59	3.90177
2914.9	4.19819
2916.21	4.185
2917.51	4.66018
2918.82	4.53256
2920.13	5.06222
2921.44	5.00498
2922.74	4.80919
2924.05	5.13195
2925.36	5.23213
2926.67	5.27697
2927.97	5.58744
2929.28	5.29639
2930.59	5.04672
2931.89	5.55149
2933.2	5.23123
2934.5	5.12064
2935.81	5.5133
2937.11	5.23526
2938.42	5.46048
2939.72	5.61607
2941.02	5.12937
2942.33	5.30026
2943.63	4.92725
2944.94	4.93284
2946.24	5.30317
2947.54	4.61098
2948.85	4.60382
2950.15	4.87555
2951.45	4.4595
2952.75	4.46167
2954.05	4.46251
2955.36	4.35101
2956.66	4.28239
2957.96	4.45366
2959.26	3.99754
2960.56	4.14598
2961.86	3.87592
2963.16	3.45178
2964.46	3.71441
2965.76	3.77937
2967.06	3.18229
2968.36	3.17404
2969.66	3.47447
2970.96	3.19824
2972.26	2.45785
2973.56	2.53355
2974.85	2.90486
2976.15	2.64216
2977.45	2.39231
2978.75	2.63374
2980.05	2.52162
2981.34	2.42247
2982.64	2.02754
2983.94	2.13934
2985.23	1.87253
2986.53	1.78978
2987.83	1.68016
2989.12	1.65565
2990.42	1.60321
2991.71	1.24112
2993.01	1.90404
2994.3	1.39943
2995.6	1.42783
2996.89	1.18881
2998.19	0.991908
2999.48	0.893546
3000.77	0.991973
3002.07	1.07677
3003.36	0.86758
3004.65	0.896699
3005.95	0.967539
3007.24	1.05176
3008.53	0.883293
3009.82	0.840053
3011.12	0.321155
3012.41	0.682203
3013.7	0.456758
3014.99	0.468951
3016.28	0.5374
3017.57	0.369682
3018.86	0.870429
3020.15	0.508426
3021.44	0.521667
3022.73	0.478569
3024.02	0.240396
3025.31	0.542664
3026.6	0.345547
3027.89	0.57812
3029.18	0.299692
3030.47	0.644629
3031.76	0.562328
3033.04	0.329102
3034.33	0.0962467
3035.62	-0.0955477
3036.91	0.0426435
3038.19	-0.165233
3039.48	0.41012
3040.77	0.171907
3042.05	0.208026
3043.34	0.106918
3044.63	-0.0753498
3045.91	0.0995889
3047.2	0.166662
3048.48	0.153633
3049.77	0.251517
3051.05	0.173225
3052.34	0.177448
3053.62	0.154335
3054.91	0.417118
3056.19	0.446995
3057.48	0.203238
3058.76	0.190637
3060.04	0.450104
3061.33	0.165252
3062.61	0.466306
3063.89	0.129232
3065.17	0.39171
3066.46	0.0843124
3067.74	0.634229
3069.02	0.259849
3070.3	0.197896
3071.59	0.339178
3072.87	0.16658
3074.15	0.210482
3075.43	0.37581
3076.71	0.527067
3077.99	-0.230891
3079.27	0.342272
3080.55	0.0753098
3081.83	0.0809407
3083.11	0.141814
3084.39	-0.163144
3085.67	0.196785
3086.94	0.0948939
3088.22	0.331674
3089.5	0.0113444
3090.78	0.206306
3092.06	-0.0466695
3093.34	0.0260639
3094.61	0.0311551
3095.89	-0.221193
3097.17	0.0281343
3098.44	-0.21066
3099.72	-0.137863
3101	0.124418
3102.27	0.102165
3103.55	0.229023
3104.82	-0.103997
3106.1	0.199721
3107.38	-0.0101333
3108.65	0.173282
3109.93	0.276378
3111.2	0.0959496
3112.47	-0.192376
3113.75	0.251108
3115.02	0.410178
3116.3	-0.0142412
3117.57	-0.0191884
3118.84	0.286861
3120.12	0.46979
3121.39	0.150125
3122.66	0.0876117
3123.93	-0.0563426
3125.2	0.0842524
3126.48	0.130299
3127.75	0.10907
3129.02	0.412807
3130.29	0.108165
3131.56	0.303838
3132.83	0.012742
3134.1	0.207707
3135.37	0.239985
3136.64	0.312132
3137.91	0.0466318
3139.18	0.279544
3140.45	0.242675
3141.72	0.313425
3142.99	0.236425
3144.26	0.213591
3145.53	0.392449
3146.8	0.129178
3148.07	0.389199
3149.33	0.421723
