200.423	0.713035
202.238	0.733563
204.052	0.755278
205.868	0.972394
207.682	0.192731
209.495	0.676839
211.308	0.285022
213.12	0.887563
214.935	0.493721
216.746	0.196744
218.558	0.38454
220.369	0.282098
222.18	1.00295
223.992	0.345752
225.802	0.197079
227.612	0.145153
229.421	-0.0761642
231.23	-0.00822639
233.039	-0.302573
234.849	0.271639
236.657	-0.190108
238.465	-0.0233107
240.272	0.0250483
242.079	0.485242
243.885	0.464501
245.691	0.395376
247.497	0.348897
249.305	-0.279557
251.11	0.00669289
252.915	0.0972357
254.719	-0.199899
256.523	0.153774
258.327	0.604125
260.13	0.332828
261.933	0.472825
263.736	0.445646
265.538	0.8531
267.34	0.200584
269.141	0.0536747
270.943	-0.0940533
272.744	-0.435755
274.544	-0.248281
276.344	0.29929
278.144	0.435225
279.944	0.400573
281.743	0.67695
283.542	1.14351
285.34	0.238311
287.138	-0.113839
288.936	0.70952
290.733	0.214406
292.53	0.630798
294.327	0.0433378
296.123	-0.0640402
297.919	0.761657
299.715	0.320953
301.508	-0.215217
303.303	-0.0116034
305.098	0.52483
306.892	0.320415
308.686	0.711906
310.479	0.46014
312.273	0.185809
314.065	0.508346
315.858	0.546728
317.648	0.0627766
319.44	0.604316
321.231	-0.0205374
323.022	0.332367
324.813	0.42357
326.604	0.873117
328.392	0.845136
330.181	0.792598
331.971	0.667135
333.76	0.444263
335.548	0.410769
337.335	0.638383
339.123	0.50513
340.91	0.896606
342.698	0.76106
344.483	-0.0434961
346.269	0.0128374
348.055	0.236854
349.841	0.103096
351.625	0.136471
353.41	0.264792
355.195	0.368237
356.977	0.75651
358.762	0.261423
360.545	-0.0436029
362.329	0.412457
364.11	0.795766
365.893	0.393759
367.675	-0.388025
369.455	0.324772
371.237	0.703692
373.017	0.584249
374.798	0.346543
376.578	0.557911
378.357	-0.150364
380.137	0.46277
381.917	-0.195198
383.694	0.0427227
385.473	-0.165199
387.249	-0.418893
389.028	0.714483
390.806	0.133701
392.581	0.0234756
394.359	0.101672
396.134	0.60291
397.91	0.587604
399.684	-0.39086
401.46	0.39185
403.234	0.328428
405.009	0.0999517
406.784	0.716229
408.557	0.298696
410.331	-0.0485535
412.103	0.237989
413.876	0.548265
415.647	0.0613537
417.42	0.372945
419.191	0.544356
420.961	0.528293
422.733	-0.403466
424.502	0.26036
426.273	0.101772
428.042	-0.0105982
429.812	-0.0764294
431.58	0.0689421
433.35	-0.114012
435.118	-0.249731
436.885	-0.00995445
438.653	-0.0523853
440.42	0.396722
442.188	0.445039
443.954	0.632004
445.719	0.0205345
447.486	-0.19314
449.251	0.107594
451.015	-0.0594072
452.781	-0.505978
454.545	0.237962
456.308	0.188276
458.073	0.161826
459.836	-0.00415421
461.598	0.202748
463.362	0.294538
465.124	0.295443
466.885	0.136255
468.648	0.560504
470.408	0.545031
472.169	0.669767
473.929	0.0722513
475.69	-0.340995
477.45	0.315294
479.208	0.410944
480.967	0.202866
482.727	0.786798
484.485	-0.142118
486.243	0.607696
488	0.0781193
489.759	0.972514
491.515	-0.0215197
493.272	0.431924
495.028	0.51223
496.783	0.218096
498.54	-0.35798
500.295	0.471572
502.05	0.104992
503.804	0.676593
505.558	0.0962915
507.311	0.38421
509.064	0.388724
510.819	0.15652
512.572	0.487616
514.324	0.911476
516.076	0.204744
517.827	0.0617371
519.578	0.787744
521.329	0.290599
523.08	0.873785
524.83	0.446897
526.58	0.864968
528.329	0.485456
530.08	0.176555
531.829	0.523458
533.578	0.75221
535.326	0.675511
537.074	0.363955
538.821	0.635392
540.568	0.322159
542.315	0.428197
544.062	0.277726
545.808	0.569081
547.554	-0.0220203
549.299	-0.263791
551.044	0.236182
552.789	0.688968
554.533	0.239821
556.278	0.276603
558.019	-0.0783501
559.763	-0.547404
561.506	0.319976
563.249	-0.308637
564.991	0.167486
566.733	-0.0915127
568.475	-0.303594
570.217	0.380399
571.958	0.376907
573.699	-0.0609274
575.439	-0.038394
577.177	-0.129128
578.917	-0.012166
580.656	-0.147043
582.396	0.706165
584.134	-0.0265522
585.873	-0.185779
587.609	-0.415158
589.347	0.0445948
591.084	0.27354
592.822	0.179921
594.558	0.408269
596.295	-0.329629
598.029	0.358895
599.765	-0.103204
601.5	0.0321684
603.235	0.442398
604.968	-0.275398
606.703	0.270117
608.437	-0.0812941
610.171	0.210199
611.902	0.157719
613.635	0.0142746
615.368	-0.0596857
617.099	-0.0646725
618.831	0.0444403
620.563	0.0152054
622.294	-0.289566
624.024	0.11401
625.755	0.242867
627.485	0.167008
629.213	0.366806
630.943	-0.0931082
632.673	0.703856
634.4	0.520644
636.129	0.0860367
637.855	0.28908
639.584	-0.30902
641.312	0.459417
643.037	0.199065
644.764	0.0746403
646.491	-0.163059
648.216	0.0330868
649.942	-0.290933
651.666	0.13819
653.392	-0.0883245
655.115	0.210951
656.84	0.30786
658.563	0.26909
660.287	1.09699
662.011	-0.0618629
663.732	0.215281
665.456	0.422039
667.177	-0.0130768
668.899	0.442942
670.62	0.304932
672.342	0.305852
674.061	-0.126189
675.781	0.153461
677.502	0.526537
679.22	0.441195
680.941	0.0560007
682.659	0.79596
684.379	0.0617123
686.096	0.568567
687.815	0.199057
689.532	0.266152
691.248	0.655112
692.966	0.697992
694.682	0.463816
696.4	0.136732
698.115	0.706606
699.829	0.630633
701.546	0.484691
703.26	0.843721
704.974	0.834146
706.689	0.824098
708.402	0.951287
710.115	1.28414
711.83	0.769022
713.542	0.574759
715.254	1.11195
716.967	1.14581
718.679	0.632237
720.39	1.05419
722.102	0.724082
723.812	0.713141
725.522	1.38413
727.232	1.19058
728.943	0.701978
730.652	0.758006
732.361	1.19861
734.069	1.00463
735.779	0.765882
737.487	0.279549
739.194	0.697105
740.901	0.889386
742.608	0.92478
744.316	0.916323
746.022	0.639118
747.728	0.678298
749.433	0.606173
751.138	0.715124
752.843	1.29758
754.549	1.49902
756.254	0.779253
757.957	0.758257
759.661	0.287929
761.364	1.23831
763.067	1.4009
764.769	1.22482
766.471	1.11528
768.175	0.664914
769.877	0.935925
771.578	1.54444
773.279	1.45066
774.98	1.55993
776.68	1.39834
778.38	0.695229
780.079	1.39544
781.779	1.03375
783.478	0.966199
785.176	1.55413
786.875	0.962965
788.573	1.70447
790.27	1.31137
791.968	1.18754
793.665	0.836671
795.361	1.27573
797.058	1.28653
798.754	2.08703
800.45	1.11007
802.145	1.23779
803.84	1.61342
805.535	1.20183
807.23	2.07064
808.922	1.16337
810.616	1.22117
812.309	1.54713
814.002	1.58077
815.695	1.30071
817.388	1.51317
819.08	2.03821
820.772	1.73631
822.464	1.47986
824.153	1.58128
825.844	0.926191
827.535	0.741332
829.225	1.09335
830.915	0.646192
832.605	1.53797
834.292	0.961255
835.981	1.45541
837.67	1.01266
839.359	1.57325
841.047	1.08304
842.732	1.10523
844.42	1.46217
846.107	1.28339
847.794	1.50853
849.479	1.22149
851.165	0.936259
852.851	1.32461
854.534	1.26585
856.22	1.43147
857.905	0.876959
859.589	0.972593
861.272	0.954206
862.956	1.20471
864.639	1.09369
866.321	1.04939
868.004	0.373126
869.687	0.778746
871.367	0.845874
873.049	1.5671
874.731	0.663863
876.41	0.97899
878.092	0.684821
879.771	0.525929
881.451	1.22454
883.131	0.726094
884.809	0.949107
886.489	1.21597
888.166	1.05262
889.845	1.38409
891.522	0.834909
893.2	0.623097
894.878	0.0280952
896.554	0.714659
898.231	1.17442
899.906	1.78937
901.583	1.16984
903.258	0.730343
904.934	0.984549
906.608	1.01512
908.283	0.488787
909.956	0.766109
911.631	1.39954
913.304	0.854438
914.976	0.532732
916.65	0.677512
918.322	0.999272
919.995	1.12123
921.666	1.17709
923.339	0.924384
925.009	0.629286
926.679	0.667278
928.351	0.839112
930.021	1.34295
931.692	0.346918
933.361	0.300014
935.029	0.870871
936.699	0.471526
938.367	0.933072
940.035	1.13102
941.704	1.13157
943.371	0.75767
945.038	0.935251
946.706	0.869099
948.372	0.293653
950.038	0.798136
951.705	0.440839
953.37	0.833652
955.035	1.00707
956.7	0.49928
958.366	0.920513
960.03	1.19011
961.693	1.21852
963.357	0.782705
965.021	-0.0532131
966.684	0.435442
968.346	1.03255
970.008	0.676419
971.67	1.16011
973.334	0.294982
974.995	1.0013
976.655	0.515004
978.316	0.47225
979.976	0.308346
981.638	0.144042
983.297	0.565227
984.957	0.674879
986.616	0.871218
988.274	0.999456
989.932	0.507274
991.59	0.567538
993.248	0.384608
994.907	0.55514
996.565	0.747639
998.221	0.631201
999.878	0.40452
1001.53	0.794391
1003.19	0.545163
1004.85	0.53789
1006.5	0.596435
1008.16	0.259716
1009.81	0.713724
1011.46	1.05785
1013.12	0.963612
1014.77	0.826031
1016.43	0.426254
1018.08	0.399295
1019.73	0.919806
1021.38	0.303937
1023.04	0.126522
1024.69	0.299645
1026.34	0.888408
1027.99	0.996373
1029.64	1.16928
1031.29	1.38467
1032.94	1.27094
1034.59	2.22484
1036.24	2.304
1037.89	3.14462
1039.54	3.54842
1041.19	4.77885
1042.84	5.29184
1044.48	6.06721
1046.13	5.58484
1047.78	5.19203
1049.42	4.71452
1051.07	4.19506
1052.72	3.8502
1054.36	2.57125
1056.01	2.63926
1057.66	1.75047
1059.3	1.6436
1060.94	1.60131
1062.59	1.10161
1064.23	1.25339
1065.88	1.49109
1067.52	0.749632
1069.16	0.463995
1070.81	0.330016
1072.45	0.174316
1074.09	0.409687
1075.73	0.146858
1077.38	0.882853
1079.02	0.513827
1080.66	0.557518
1082.3	-0.114368
1083.94	0.644135
1085.58	0.57725
1087.22	0.291956
1088.86	0.221735
1090.5	-0.131157
1092.13	0.401841
1093.77	0.998177
1095.41	0.514734
1097.05	0.097537
1098.68	0.43605
1100.32	0.431157
1101.96	0.664616
1103.6	0.533768
1105.23	0.619225
1106.87	0.318038
1108.5	0.726338
1110.14	-0.00597858
1111.77	0.614861
1113.41	0.417424
1115.04	0.433781
1116.67	0.277956
1118.31	0.486849
1119.94	-0.0323753
1121.58	0.284897
1123.21	-0.0179195
1124.84	0.0868244
1126.47	0.27778
1128.1	0.234068
1129.73	0.597216
1131.37	0.105608
1133	1.17489
1134.63	0.619336
1136.26	1.04648
1137.89	0.575068
1139.52	0.914533
1141.14	0.227993
1142.77	0.224498
1144.4	0.349065
1146.03	-0.0162449
1147.66	0.386721
1149.29	0.0658073
1150.91	-0.0841331
1152.54	0.213202
1154.17	0.318487
1155.79	0.01898
1157.42	-0.365561
1159.04	0.143724
1160.67	0.781034
1162.3	-0.409428
1163.92	0.0169649
1165.55	0.231165
1167.17	-0.362795
1168.79	-0.383516
1170.42	-0.0229988
1172.04	1.0792
1173.66	-0.178132
1175.28	0.00786781
1176.91	-0.336857
1178.53	0.229944
1180.15	0.373131
1181.77	-0.35042
1183.39	0.0690908
1185.01	0.00217819
1186.63	-0.107649
1188.25	0.140022
1189.87	0.0904875
1191.49	-0.00267029
1193.11	0.176432
1194.73	0.501298
1196.35	-0.348845
1197.97	-0.274677
1199.59	0.344453
1201.2	-0.0804148
1202.82	-0.439757
1204.44	0.309482
1206.05	-0.0875235
1207.67	0.0174122
1209.29	-0.127746
1210.9	0.477312
1212.52	0.163229
1214.13	0.514352
1215.75	0.613175
1217.36	0.439783
1218.97	-0.212146
1220.59	0.548765
1222.2	-0.0393
1223.82	0.0170689
1225.43	-0.00823593
1227.04	0.257439
1228.65	0.834261
1230.26	0.336592
1231.88	0.21231
1233.49	0.419773
1235.1	0.648928
1236.71	0.383081
1238.32	0.262743
1239.93	0.680559
1241.54	0.416192
1243.15	1.04102
1244.76	1.27225
1246.37	0.923173
1247.97	0.0972528
1249.58	0.884639
1251.19	0.28549
1252.8	1.13459
1254.41	0.867269
1256.01	0.993896
1257.62	1.61815
1259.23	0.919414
1260.83	0.904155
1262.44	0.309504
1264.04	1.18522
1265.65	0.631342
1267.25	0.781251
1268.86	0.681617
1270.46	0.684723
1272.07	1.49553
1273.67	0.563795
1275.27	0.667868
1276.88	1.10263
1278.48	1.05992
1280.08	1.05808
1281.68	0.786903
1283.28	0.536727
1284.89	0.990305
1286.49	1.25829
1288.09	1.1137
1289.69	1.30064
1291.29	0.930088
1292.89	1.50997
1294.49	1.30401
1296.09	1.26218
1297.69	1.36342
1299.29	1.29796
1300.88	0.921947
1302.48	0.813192
1304.08	0.888994
1305.68	1.00513
1307.27	1.05893
1308.87	0.96874
1310.47	1.49352
1312.06	1.62857
1313.66	1.88674
1315.25	1.20541
1316.85	1.13863
1318.44	0.86843
1320.04	0.639325
1321.63	1.20422
1323.23	1.25799
1324.82	1.12709
1326.41	0.44714
1328.01	1.04567
1329.6	0.873699
1331.19	0.986634
1332.78	0.83862
1334.38	1.70235
1335.97	0.649488
1337.56	1.37311
1339.15	0.926267
1340.74	0.881402
1342.33	1.03597
1343.92	1.42965
1345.51	0.797466
1347.1	0.848633
1348.69	1.18156
1350.28	1.15582
1351.87	1.07243
1353.46	0.811047
1355.04	0.790856
1356.63	1.19064
1358.22	0.970562
1359.81	0.949475
1361.39	0.947401
1362.98	1.22383
1364.57	1.02114
1366.15	0.579789
1367.74	0.5777
1369.32	1.01458
1370.91	0.795702
1372.49	0.418941
1374.07	1.29674
1375.66	1.08078
1377.24	0.86489
1378.83	1.16593
1380.41	0.709936
1381.99	0.630905
1383.57	1.02803
1385.16	0.80775
1386.74	1.10379
1388.32	0.823791
1389.9	0.346117
1391.48	0.623581
1393.06	0.385788
1394.64	1.15994
1396.22	1.00164
1397.8	0.822958
1399.38	1.07944
1400.96	0.443575
1402.54	0.79757
1404.12	1.4281
1405.7	1.06976
1407.28	0.159105
1408.85	0.0994587
1410.43	1.14641
1412.01	0.988178
1413.58	0.888737
1415.16	0.887215
1416.74	0.963808
1418.31	1.03995
1419.89	1.60875
1421.46	1.44945
1423.04	1.4689
1424.61	0.663251
1426.19	1.59083
1427.76	1.39706
1429.33	0.927469
1430.91	1.71674
1432.48	1.93403
1434.05	2.0519
1435.63	1.55957
1437.2	1.51991
1438.77	1.363
1440.34	2.18976
1441.91	1.73989
1443.49	1.34966
1445.05	1.5887
1446.63	1.04171
1448.2	1.73318
1449.77	1.32412
1451.34	1.48558
1452.91	1.33292
1454.47	1.5543
1456.04	1.79543
1457.61	1.46537
1459.18	1.48832
1460.75	2.10004
1462.31	1.01777
1463.88	1.72432
1465.45	1.40708
1467.01	1.56128
1468.58	1.44075
1470.15	1.00718
1471.71	1.32041
1473.28	0.810713
1474.84	0.733323
1476.41	1.20532
1477.97	0.893119
1479.54	0.97298
1481.1	1.64071
1482.66	1.09317
1484.23	0.604458
1485.79	1.25183
1487.35	1.2519
1488.91	0.683003
1490.48	1.01308
1492.04	0.617332
1493.6	0.923499
1495.16	0.622582
1496.72	0.379855
1498.28	0.118063
1499.84	0.362699
1501.4	1.22886
1502.96	0.891903
1504.52	0.63391
1506.08	0.957374
1507.64	0.486762
1509.2	0.615091
1510.76	0.607024
1512.31	0.559642
1513.87	0.7045
1515.43	0.0225763
1516.99	0.341165
1518.54	0.736349
1520.1	0.422473
1521.66	0.109446
1523.21	0.7143
1524.77	0.916165
1526.32	0.697117
1527.88	0.173154
1529.43	0.429736
1530.99	0.780498
1532.54	0.561875
1534.09	1.02635
1535.65	0.734051
1537.2	0.462152
1538.75	-0.035058
1540.31	0.487289
1541.86	1.14059
1543.41	0.795062
1544.96	0.581635
1546.51	0.631401
1548.06	0.549573
1549.62	0.861483
1551.17	1.304
1552.72	0.530178
1554.27	0.468809
1555.82	0.558143
1557.36	0.854209
1558.91	0.330759
1560.46	0.835263
1562.01	0.818765
1563.56	0.448806
1565.11	0.956237
1566.66	0.792096
1568.2	0.870339
1569.75	0.854929
1571.3	1.06317
1572.84	1.0845
1574.39	1.1057
1575.93	0.902896
1577.48	0.924285
1579.02	0.983377
1580.57	1.02436
1582.11	0.748563
1583.66	0.959086
1585.2	0.964837
1586.75	0.316672
1588.29	0.996079
1589.83	0.946117
1591.38	0.802137
1592.92	0.564018
1594.46	0.737567
1596	1.19228
1597.54	1.1791
1599.09	0.904006
1600.63	1.51095
1602.17	0.955297
1603.71	1.41308
1605.25	1.0253
1606.79	0.880338
1608.33	0.827577
1609.87	0.584875
1611.41	0.828807
1612.95	1.01447
1614.48	1.06738
1616.02	0.857234
1617.56	0.216616
1619.1	0.626801
1620.64	1.05663
1622.17	1.07553
1623.71	0.421202
1625.25	1.09613
1626.78	1.09643
1628.32	1.07687
1629.86	1.18696
1631.39	0.585799
1632.92	1.10565
1634.46	1.17713
1635.99	0.969381
1637.53	0.78129
1639.06	0.948122
1640.59	1.11489
1642.13	0.908397
1643.66	0.868725
1645.19	1.29325
1646.73	1.49323
1648.26	1.45105
1649.79	1.29786
1651.32	0.681819
1652.85	1.19893
1654.38	1.88348
1655.92	1.58583
1657.45	1.64038
1658.98	1.34227
1660.51	1.20987
1662.04	1.03931
1663.57	1.07131
1665.09	0.714871
1666.62	0.728392
1668.15	0.687477
1669.68	0.721609
1671.21	0.388483
1672.73	1.18012
1674.26	0.535368
1675.79	0.627189
1677.31	1.03115
1678.84	0.789986
1680.37	0.971004
1681.89	0.912263
1683.42	0.706385
1684.94	0.757735
1686.47	-0.0342817
1687.99	0.91622
1689.52	0.51043
1691.04	0.526399
1692.57	0.670527
1694.09	0.101095
1695.61	0.0257158
1697.14	0.425275
1698.66	0.769311
1700.18	0.327797
1701.7	0.488256
1703.22	0.629763
1704.75	-0.103533
1706.27	0.455831
1707.79	-0.185849
1709.31	0.081687
1710.83	0.0947485
1712.35	0.343663
1713.87	0.519833
1715.39	0.00785637
1716.91	-0.159657
1718.43	0.359762
1719.95	0.318462
1721.46	0.656272
1722.98	0.200763
1724.5	-0.0910892
1726.02	-0.0573835
1727.53	0.319399
1729.05	-0.0769997
1730.57	0.157615
1732.08	0.211829
1733.6	-0.193639
1735.12	0.324826
1736.63	-0.0866938
1738.15	-0.0152569
1739.66	0.651722
1741.18	0.299042
1742.69	0.0776634
1744.21	0.350711
1745.72	0.590508
1747.23	0.055171
1748.74	0.315985
1750.26	-0.114153
1751.77	0.0463676
1753.28	-0.00679874
1754.8	-0.0659018
1756.31	-0.176141
1757.82	0.312077
1759.33	0.0235701
1760.84	-0.254509
1762.35	-0.0809832
1763.86	0.155314
1765.37	-0.40949
1766.88	-0.0423737
1768.39	-0.191394
1769.9	0.206384
1771.41	0.28721
1772.92	0.0868692
1774.43	0.0346231
1775.93	0.0934591
1777.44	-0.215909
1778.95	-0.0260572
1780.46	-0.339687
1781.96	0.376065
1783.47	0.0642338
1784.98	0.0601997
1786.48	0.143061
1787.99	0.004673
1789.49	-0.00812721
1791	0.178926
1792.5	-0.0662661
1794.01	0.0915174
1795.51	0.222407
1797.02	0.141125
1798.52	0.0820541
1800.03	0.0638857
1801.53	0.137747
1803.03	0.15328
1804.53	0.0671721
1806.04	0.137135
1807.54	0.0885382
1809.04	0.165517
1810.54	0.109306
1812.04	0.182563
1813.54	-0.0669403
1815.05	-0.0188589
1816.55	0.200173
1818.05	0.127938
1819.55	0.0767813
1821.05	0.0230703
1822.55	-0.0771093
1824.05	0.346501
1825.54	0.0406837
1827.04	-0.0859604
1828.54	-0.0720434
1830.04	0.160658
1831.54	0.0545254
1833.03	0.253464
1834.53	0.164212
1836.03	0.134668
1837.52	0.115617
1839.02	0.0472097
1840.52	0.00876617
1842.01	0.203303
1843.51	0.126621
1845	0.323606
1846.5	0.180138
1847.99	-0.0457668
1849.49	0.13166
1850.98	0.0455875
1852.47	0.14845
1853.97	0.360682
1855.46	0.170139
1856.95	-0.0696602
1858.45	0.169967
1859.94	-0.31239
1861.43	-0.0532084
1862.92	0.235777
1864.41	0.270541
1865.91	0.279801
1867.4	-0.111454
1868.89	0.0706549
1870.38	-0.0895309
1871.87	0.0714521
1873.36	0.483578
1874.85	0.333108
1876.34	0.342385
1877.83	0.0415783
1879.31	0.15859
1880.8	0.257194
1882.29	0.368089
1882.56	0.389415
1884.05	0.14414
1885.54	-0.206213
1887.04	-0.0170689
1888.53	0.241072
1890.03	-0.144599
1891.52	-0.129046
1893.01	-0.233809
1894.5	-0.180504
1895.99	0.013238
1897.49	0.520832
1898.98	0.437079
1900.47	0.178385
1901.96	0.17916
1903.45	0.126178
1904.94	0.228401
1906.43	-0.156646
1907.92	0.0317421
1909.41	0.237852
1910.9	0.288493
1912.39	0.322581
1913.88	0.201078
1915.37	-0.0763607
1916.86	0.304811
1918.35	0.234681
1919.84	0.0602369
1921.32	0.422778
1922.81	0.439174
1924.3	0.352514
1925.78	-0.0273657
1927.27	0.597812
1928.76	0.132891
1930.24	0.0487823
1931.73	-0.191911
1933.21	0.293404
1934.7	-0.00203419
1936.18	0.23763
1937.67	0.112874
1939.15	0.437114
1940.64	0.0360088
1942.12	0.136606
1943.6	0.5313
1945.09	0.133271
1946.57	0.115085
1948.05	0.165631
1949.54	-0.439125
1951.02	0.0749798
1952.5	-0.20382
1953.98	0.0846958
1955.46	0.115014
1956.94	0.128474
1958.42	0.211187
1959.91	0.0886307
1961.39	0.378196
1962.87	-0.172153
1964.34	0.151562
1965.82	-0.0392032
1967.3	0.248849
1968.78	0.2452
1970.26	0.0359182
1971.74	0.0829105
1973.22	0.317529
1974.7	0.261961
1976.17	0.308901
1977.65	0.355938
1979.13	-0.073575
1980.6	0.22887
1982.08	0.0548077
1983.56	0.373314
1985.03	0.2837
1986.51	0.05832
1987.98	0.206104
1989.46	0.015285
1990.93	0.536081
1992.41	0.498994
1993.88	0.158596
1995.36	0.697961
1996.83	0.409583
1998.3	-0.250186
1999.78	0.45757
2001.25	0.286714
2002.72	0.72276
2004.2	0.247932
2005.67	0.144578
2007.14	0.56413
2008.61	0.327591
2010.08	0.209803
2011.55	0.0925245
2013.02	0.648564
2014.49	0.211167
2015.97	0.681756
2017.43	0.0580301
2018.9	0.156931
2020.37	0.372868
2021.84	0.470911
2023.31	0.401321
2024.78	0.517092
2026.25	0.482931
2027.72	0.383036
2029.19	0.150336
2030.65	0.438827
2032.12	0.325604
2033.59	0.0280685
2035.05	0.60357
2036.52	0.423153
2037.98	0.359763
2039.45	0.396833
2040.92	0.618784
2042.38	0.622621
2043.85	0.728086
2045.31	0.228719
2046.78	0.419827
2048.24	0.594573
2049.71	0.246723
2051.17	0.403458
2052.63	0.356498
2054.1	0.611443
2055.56	0.898455
2057.02	0.745725
2058.48	0.0531483
2059.95	0.304246
2061.41	0.740735
2062.87	0.487589
2064.33	0.45427
2065.79	0.236767
2067.25	0.491241
2068.71	0.493824
2070.17	0.429367
2071.63	0.398612
2073.09	0.350888
2074.55	0.690216
2076.01	0.625118
2077.47	0.441796
2078.93	0.561232
2080.39	0.579206
2081.85	0.478805
2083.3	0.529326
2084.76	0.932521
2086.22	0.678713
2087.68	0.659934
2089.13	0.792037
2090.59	0.453505
2092.05	0.686055
2093.5	0.901493
2094.96	0.563043
2096.41	0.811122
2097.87	0.371582
2099.32	0.48439
2100.78	1.03152
2102.23	0.842816
2103.69	0.905646
2105.14	0.936253
2106.59	0.951473
2108.05	1.03439
2109.5	0.417254
2110.95	0.600092
2112.41	1.06485
2113.86	0.82809
2115.31	0.922952
2116.76	0.767459
2118.21	1.0444
2119.67	0.376125
2121.12	1.07072
2122.57	0.804695
2124.02	1.20343
2125.47	1.08868
2126.92	0.957104
2128.37	0.79147
2129.82	1.43659
2131.27	1.16898
2132.71	1.28161
2134.16	0.914354
2135.61	1.27575
2137.06	1.35729
2138.51	1.09355
2139.95	1.24479
2141.4	1.54642
2142.85	1.18793
2144.29	1.47497
2145.74	1.06725
2147.19	1.42054
2148.63	1.37596
2150.08	1.61215
2151.52	1.1847
2152.97	1.02135
2154.42	1.0395
2155.86	1.58736
2157.3	1.50573
2158.75	1.35855
2160.19	2.00782
2161.64	1.51572
2163.08	1.6053
2164.52	1.67987
2165.96	1.39011
2167.41	1.00013
2168.85	1.55628
2170.29	1.54579
2171.73	1.51661
2173.17	1.68519
2174.61	1.88567
2176.06	1.63651
2177.5	1.75344
2178.94	1.2892
2180.38	1.74034
2181.82	1.97623
2183.26	1.59746
2184.7	1.43506
2186.14	1.40576
2187.57	1.37646
2189.01	1.61348
2190.45	1.51765
2191.89	1.47147
2193.33	1.54111
2194.76	1.44297
2196.2	1.24324
2197.64	1.49099
2199.08	1.28788
2200.51	1.30008
2201.95	1.29552
2203.38	1.05934
2204.82	1.05661
2206.25	1.18742
2207.69	0.921008
2209.12	0.969272
2210.56	1.06642
2211.99	1.32792
2213.43	1.00986
2214.86	0.972923
2216.3	1.31625
2217.73	0.917881
2219.16	0.966272
2220.59	0.998936
2222.03	1.18001
2223.46	1.01432
2224.89	1.02859
2226.32	1.13998
2227.75	1.15096
2229.19	0.602334
2230.62	0.562731
2232.05	0.588576
2233.48	0.630987
2234.91	0.70669
2236.34	0.652628
2237.77	0.649065
2239.2	0.908273
2240.63	0.418807
2242.06	0.665055
2243.48	0.830848
2244.91	0.703366
2246.34	0.950424
2247.77	0.641466
2249.2	0.49376
2250.62	0.735212
2252.05	0.698003
2253.48	0.399925
2254.9	0.687548
2256.33	0.586405
2257.76	0.503738
2259.18	0.488561
2260.61	0.248819
2262.03	0.157127
2263.46	0.927494
2264.88	0.480174
2266.31	0.536075
2267.73	0.298491
2269.16	0.108727
2270.58	-0.000446796
2272	0.410957
2273.43	0.187226
2274.85	0.517334
2276.27	0.587067
2277.69	0.494018
2279.12	0.580299
2280.54	0.421973
2281.96	0.573358
2283.38	0.251605
2284.8	0.386661
2286.22	0.489333
2287.64	0.200517
2289.07	0.385574
2290.49	0.244311
2291.91	0.315687
2293.32	0.240036
2294.74	0.0824881
2296.16	0.383055
2297.58	-0.0367002
2299	0.345981
2300.42	0.0571761
2301.84	0.096293
2303.26	0.431004
2304.67	0.569217
2306.09	0.280492
2307.51	0.204781
2308.92	0.358662
2310.34	0.101046
2311.76	0.007411
2313.17	-0.00403595
2314.59	0.24821
2316	0.171949
2317.42	0.475219
2318.83	0.136299
2320.25	0.571998
2321.66	0.198574
2323.08	0.499953
2324.49	0.254694
2325.91	0.469518
2327.32	0.699176
2328.73	0.812544
2330.15	0.481254
2331.56	-0.0464621
2332.97	0.167777
2334.38	-0.176816
2335.79	0.350816
2337.21	0.187052
2338.62	-0.0103312
2340.03	-0.208502
2341.44	-0.292274
2342.85	0.263668
2344.26	0.113664
2345.67	0.357428
2347.08	0.43735
2348.49	-0.0393467
2349.9	-0.0250225
2351.31	0.331891
2352.72	0.230073
2354.13	0.225517
2355.53	0.0247855
2356.94	0.31265
2358.35	0.0631533
2359.76	0.0255094
2361.17	-0.158045
2362.57	-0.130462
2363.98	-0.167809
2365.39	-0.0433373
2366.79	0.0325456
2368.2	0.0926394
2369.6	0.10512
2371.01	0.0542297
2372.42	-0.043797
2373.82	0.0201383
2375.22	-0.0605311
2376.63	-0.15754
2378.03	0.0340843
2379.44	-0.000796795
2380.84	0.219815
2382.25	0.198231
2383.65	-0.0803022
2385.05	-0.214396
2386.45	-0.00433445
2387.86	0.206006
2389.26	0.0741611
2390.66	0.134792
2392.06	0.180413
2393.46	0.258666
2394.87	0.385269
2396.27	-0.0917282
2397.67	0.0519524
2399.07	0.0530381
2400.47	-0.0566607
2401.87	-0.483732
2403.27	0.343965
2404.67	-0.162708
2406.07	0.250803
2407.47	0.25068
2408.86	0.0912871
2410.26	0.0744386
2411.66	0.358815
2413.06	0.200237
2414.46	0.375343
2415.85	-0.0657215
2417.25	-0.0623813
2418.65	0.242558
2420.05	0.00944376
2421.44	-0.0813065
2422.84	0.00189304
2424.23	0.354233
2425.63	-0.259913
2427.03	0.0295863
2428.42	-0.0129852
2429.82	0.0879436
2431.21	-0.0325956
2432.6	0.16436
2434	0.186347
2435.39	0.000848293
2436.79	0.338356
2438.18	0.0867133
2439.57	-0.0706525
2440.97	0.485902
2442.36	0.0891671
2443.75	0.34307
2445.14	0.231806
2446.54	0.0729389
2447.93	0.183499
2449.32	0.11971
2450.71	-0.022994
2452.1	-0.27593
2453.49	0.13649
2454.88	-0.114999
2456.27	-0.0969348
2457.66	-0.284248
2459.05	-0.107886
2460.44	-0.137623
2461.83	0.0217128
2463.22	-0.214836
2464.61	0.259273
2466	-0.0884624
2467.39	0.0533714
2468.77	0.163478
2470.16	0.383699
2471.55	0.05162
2472.94	0.554236
2474.32	-0.109383
2475.71	0.249869
2477.1	0.0581422
2478.48	0.0551391
2479.87	0.303347
2481.25	-0.0288277
2482.64	-0.000199795
2484.02	0.341069
2485.41	0.28997
2486.8	0.034905
2488.18	-0.111273
2489.56	0.100734
2490.95	-0.17039
2492.33	0.181372
2493.72	0.160583
2495.1	-0.107213
2496.48	0.277476
2497.86	0.120213
2499.25	0.0252991
2500.63	-0.116167
2502.01	0.143754
2503.39	0.0318303
2504.77	0.058197
2506.16	-0.100899
2507.54	0.386552
2508.92	-0.0339823
2510.3	-0.16147
2511.68	0.00332069
2513.06	-0.138109
2514.44	-0.186701
2515.82	0.0869069
2517.2	-0.0216041
2518.58	0.313824
2519.95	-0.114988
2521.33	0.158963
2522.71	0.111513
2524.09	0.170186
2525.47	-0.122355
2526.84	0.0726447
2528.22	0.389403
2529.6	0.280921
2530.98	0.325914
2532.35	0.190001
2533.73	0.252799
2535.11	0.346585
2536.48	0.13647
2537.86	0.108107
2539.23	-0.0881128
2540.61	0.170574
2541.98	0.170777
2543.36	-0.0260177
2544.73	-0.191661
2546.1	-0.0225716
2547.48	-0.0800061
2548.85	0.0756412
2550.23	-0.0569339
2551.6	0.280517
2552.97	0.192291
2554.34	0.209422
2555.72	0.377506
2557.09	0.0748444
2558.46	0.500078
2559.83	0.0157685
2561.2	0.365715
2562.58	0.0947719
2563.95	0.218362
2565.32	-0.00623226
2566.69	-0.170012
2568.06	-0.303424
2569.43	0.017839
2570.8	0.202724
2572.17	0.266405
2573.54	-0.0942779
2574.91	-0.0304599
2576.27	0.0485544
2577.64	0.157845
2579.01	0.160815
2580.38	0.421267
2581.75	-0.000960827
2583.11	-0.0747294
2584.48	0.00292063
2585.85	-0.0710621
2587.21	0.20367
2588.58	0.0390034
2589.95	0.0563097
2591.31	0.103812
2592.68	0.10546
2594.04	0.0155439
2595.41	0.197413
2596.78	0.166367
2598.14	-0.152735
2599.51	-0.0635605
2600.87	0.070931
2602.23	0.235898
2603.6	-0.187438
2604.96	0.0237799
2606.32	0.204832
2607.69	-0.127198
2609.05	-0.128051
2610.41	0.0056777
2611.77	0.168234
2613.14	0.0588932
2614.5	0.17445
2615.86	0.0494747
2617.22	-0.0600576
2618.58	0.100692
2619.94	0.052319
2621.3	0.199008
2622.67	0.271218
2624.03	0.0299516
2625.39	0.117249
2626.75	0.114748
2628.1	-0.066834
2629.46	-0.0250468
2630.82	0.195039
2632.18	0.132238
2633.54	0.0992112
2634.9	-0.0228372
2636.26	-0.322668
2637.61	-0.0441279
2638.97	0.130369
2640.33	-0.0355492
2641.69	0.183369
2643.04	0.0328856
2644.4	0.0599022
2645.76	-0.134466
2647.11	0.0396509
2648.47	-0.0227375
2649.82	0.193914
2651.18	0.0420647
2652.53	0.228042
2653.89	-0.0849648
2655.24	0.101587
2656.6	-0.223866
2657.95	-0.0210352
2659.31	-0.0664029
2660.66	0.107922
2662.01	0.238109
2663.37	0.0609345
2664.72	0.204424
2666.07	0.0845542
2667.43	-0.0209432
2668.78	0.179446
2670.13	0.00145912
2671.48	0.0858803
2672.83	-0.148947
2674.18	0.255967
2675.53	0.225502
2676.89	0.0504632
2678.24	0.209682
2679.59	0.0360146
2680.94	0.0372458
2682.29	0.169941
2683.64	-0.00086832
2684.99	0.220652
2686.34	0.268578
2687.68	-0.0319719
2689.03	0.261588
2690.38	0.176336
2691.73	0.394389
2693.08	0.0887275
2694.43	-0.0144291
2695.77	0.12876
2697.12	0.330266
2698.47	0.387906
2699.81	0.0704918
2701.16	0.62336
2702.51	0.149313
2703.85	-0.0778508
2705.2	0.26061
2706.54	-0.0967956
2707.89	0.0531526
2709.23	0.304518
2710.58	0.105569
2711.92	0.254913
2713.27	0.389707
2714.61	0.26288
2715.96	0.324949
2717.3	0.0815063
2718.64	0.506926
2719.99	-0.173647
2721.33	0.105695
2722.67	-0.110151
2724.01	0.0811548
2725.36	0.315783
2726.7	-0.00300169
2728.04	0.0563984
2729.38	0.202909
2730.72	-0.116343
2732.06	0.0154681
2733.41	0.161866
2734.75	0.133832
2736.09	0.251414
2737.43	0.441815
2738.77	-0.0949788
2740.11	0.298785
2741.44	0.0668478
2742.78	0.154283
2744.12	0.0376482
2745.46	0.312831
2746.8	0.195369
2748.14	0.0343099
2749.48	0.207134
2750.81	0.176939
2752.15	0.175973
2753.49	0.233172
2754.83	-0.0137696
2756.16	0.145094
2757.5	-0.0579858
2758.84	-0.0146594
2760.17	0.521042
2761.51	0.449201
2762.84	0.247559
2764.18	-0.127427
2765.51	0.148684
2766.85	0.192908
2768.18	0.0483241
2769.52	-0.0249214
2770.85	-0.0992618
2772.19	-0.0012908
2773.52	0.0957098
2774.85	0.0191131
2776.19	0.0578527
2777.52	0.0536513
2778.85	0.0642867
2780.18	0.032218
2781.52	0.244578
2782.85	0.471077
2784.18	0.0662141
2785.51	0.149158
2786.84	-0.039978
2788.17	0.0148678
2789.51	-0.00125122
2790.84	-0.116746
2792.17	-0.00278425
2793.5	-0.0457582
2794.83	0.154277
2796.16	-0.317603
2797.48	0.0816703
2798.81	0.0804262
2800.14	-0.292225
2801.47	0.0912995
2802.8	-0.281367
2804.13	-0.0410914
2805.46	-0.0720325
2806.79	0.0958457
2808.11	0.0211987
2809.44	0.0173888
2810.77	0.482241
2812.09	0.209019
2813.42	0.00799656
2814.75	0.389605
2816.07	0.176874
2817.4	0.319454
2818.73	-0.132784
2820.05	0.0669651
2821.38	-0.243877
2822.7	-0.0875344
2824.03	0.054101
2825.35	0.15291
2826.67	-0.229764
2828	0.251782
2829.32	0.266479
2830.65	0.0833735
2831.97	0.31096
2833.29	0.283692
2834.62	0.0721655
2835.94	0.270702
2837.26	0.482889
2838.58	0.383422
2839.9	0.693952
2841.23	0.707511
2842.55	0.565935
2843.87	1.24466
2845.19	1.13248
2846.51	0.921908
2847.83	0.994287
2849.15	1.06668
2850.47	0.926826
2851.79	0.998574
2853.11	0.956836
2854.43	1.19741
2855.75	1.18346
2857.07	1.35314
2858.39	1.3392
2859.71	1.32525
2861.02	1.1982
2862.34	1.29681
2863.66	1.6209
2864.98	1.225
2866.3	1.54871
2867.61	1.73144
2868.93	1.57605
2870.25	1.61843
2871.56	1.63273
2872.88	2.11187
2874.19	2.18158
2875.51	2.03908
2876.83	2.23369
2878.14	1.99121
2879.46	2.10035
2880.77	1.83014
2882.09	1.89803
2883.4	2.1493
2884.71	1.99402
2886.03	2.31658
2887.34	2.04959
2888.65	1.79639
2889.97	2.38433
2891.28	2.03172
2892.59	1.87512
2893.91	1.91468
2895.22	2.37456
2896.53	2.27486
2897.84	2.26004
2899.15	2.51188
2900.46	2.12078
2901.78	2.40157
2903.09	2.54262
2904.4	2.54388
2905.71	2.58734
2907.02	2.74316
2908.33	2.70381
2909.64	3.00093
2910.95	3.03273
2912.26	2.63059
2913.57	2.9977
2914.87	2.92972
2916.18	2.90237
2917.49	3.34962
2918.8	3.18022
2920.11	2.74509
2921.42	3.49921
2922.72	3.27545
2924.03	3.45822
2925.34	3.96339
2926.64	3.67231
2927.95	3.8146
2929.26	3.5092
2930.56	3.79052
2931.87	3.68002
2933.17	4.1564
2934.48	3.87793
2935.78	3.66948
2937.09	3.67082
2938.39	3.86794
2939.7	3.43646
2941	3.9556
2942.31	3.11997
2943.61	3.52901
2944.91	3.11447
2946.22	3.44182
2947.52	3.3082
2948.82	3.14626
2950.13	3.08129
2951.43	3.0709
2952.73	2.73692
2954.03	2.96194
2955.33	2.89263
2956.64	2.6421
2957.94	2.84109
2959.24	2.66427
2960.54	2.30736
2961.84	2.38614
2963.14	2.56381
2964.44	2.62896
2965.74	2.35591
2967.04	2.29212
2968.34	2.18506
2969.64	2.02111
2970.94	1.92732
2972.24	1.94626
2973.53	2.19063
2974.83	1.54828
2976.13	1.764
2977.43	1.27476
2978.73	1.3897
2980.02	1.48924
2981.32	1.62993
2982.62	1.57316
2983.91	1.47453
2985.21	1.68601
2986.51	1.02736
2987.8	1.35354
2989.1	1.27297
2990.4	0.686635
2991.69	0.999361
2992.99	0.763183
2994.28	0.961686
2995.57	0.906377
2996.87	0.976895
2998.16	0.977012
2999.46	0.8651
3000.75	0.669564
3002.05	0.572729
3003.34	0.658423
3004.63	0.604056
3005.92	0.269431
3007.22	0.144554
3008.51	0.438891
3009.8	0.508482
3011.09	0.144255
3012.39	0.478301
3013.68	-0.0809927
3014.97	-0.151239
3016.26	0.00200176
3017.55	-0.0532327
3018.84	0.114599
3020.13	0.101505
3021.42	0.157567
3022.71	0.115671
3024	0.114709
3025.29	0.140887
3026.58	0.166841
3027.87	0.0270681
3029.16	0.137249
3030.45	0.0964422
3031.73	0.167292
3033.02	0.349333
3034.31	0.172671
3035.6	0.202626
3036.89	-0.36132
3038.17	-0.12679
3039.46	0.202215
3040.75	0.254337
3042.03	0.236967
3043.32	0.205894
3044.61	0.202952
3045.89	-0.222518
3047.18	0.228733
3048.46	0.353528
3049.75	0.152362
3051.03	0.293676
3052.32	-0.00105095
3053.6	0.236386
3054.89	0.200407
3056.17	0.0681453
3057.45	0.125983
3058.74	0.101398
3060.02	0.0085516
3061.31	0.378756
3062.59	0.300508
3063.87	0.114642
3065.15	-0.110738
3066.44	0.22235
3067.72	0.107572
3069	0.0882363
3070.28	0.286288
3071.56	0.184452
3072.84	-0.244692
3074.13	0.181871
3075.41	-0.112777
3076.69	-0.0950384
3077.97	-0.0634356
3079.25	0.199607
3080.53	0.0567226
3081.81	0.186367
3083.09	0.154213
3084.37	0.109
3085.64	-0.126199
3086.92	0.140391
3088.2	-0.0957632
3089.48	0.0204406
3090.76	-0.121567
3092.04	-0.209363
3093.31	0.164147
3094.59	-0.113191
3095.87	-0.403784
3097.14	0.295376
3098.42	0.0590272
3099.7	0.107218
3100.97	0.155303
3102.25	0.0273538
3103.53	0.278759
3104.8	0.219128
3106.08	-0.3271
3107.35	0.0206003
3108.63	0.111963
3109.9	-0.188375
3111.18	0.0263953
3112.45	0.025166
3113.73	0.28172
3115	-0.0851464
3116.27	0.211837
3117.55	0.426878
3118.82	0.0578442
3120.09	0.244007
3121.37	0.0090642
3122.64	0.234589
3123.91	0.283665
3125.18	0.427599
3126.45	0.314625
3127.73	-0.0954633
3129	0.117249
3130.27	0.167847
3131.54	0.231996
3132.81	0.309494
3134.08	0.413635
3135.35	0.274252
3136.62	0.16154
3137.89	0.0350986
3139.16	0.393492
3140.43	-0.00255537
3141.7	0.220685
3142.97	0.269104
3144.24	0.250688
3145.51	0.192514
3146.78	0.483488
3148.04	0.345894
3149.31	0.449914
