200.423	1.81064
202.238	1.8628
204.052	1.91683
205.868	1.26723
207.682	1.54232
209.495	2.25343
211.308	2.33004
213.12	1.94261
214.935	0.65597
216.746	0.799826
218.558	0.337843
220.369	1.01492
222.18	1.59588
223.992	0.606272
225.802	0.319189
227.612	0.732826
229.421	0.179371
231.23	1.19399
233.039	0.807667
234.849	0.325697
236.657	1.12359
238.465	0.623211
240.272	1.18772
242.079	1.22598
243.885	0.253403
245.691	0.46224
247.497	0.354456
249.305	0.096859
251.11	0.72682
252.915	0.796144
254.719	0.210665
256.523	-0.0135841
258.327	0.197319
260.13	0.0734329
261.933	0.410421
263.736	-0.213491
265.538	-0.691347
267.34	0.25292
269.141	-0.442337
270.943	0.789309
272.744	-0.0304775
274.544	0.473112
276.344	0.611925
278.144	0.289339
279.944	0.0837307
281.743	0.283787
283.542	0.0471878
285.34	-0.407917
287.138	-0.0716343
288.936	-0.311718
290.733	0.383936
292.53	0.338463
294.327	0.128155
296.123	0.111732
297.919	0.359926
299.715	0.0352669
301.508	0.140226
303.303	0.362915
305.098	-0.228298
306.892	0.300306
308.686	0.207916
310.479	0.0687046
312.273	0.312519
314.065	0.511234
315.858	0.284367
317.648	0.751015
319.44	-0.208891
321.231	0.667477
323.022	-0.385675
324.813	0.445585
326.604	0.704865
328.392	0.509897
330.181	0.552481
331.971	0.258055
333.76	-0.350761
335.548	0.400404
337.335	0.286053
339.123	1.10098
340.91	0.238407
342.698	-0.170908
344.483	0.112728
346.269	0.0863152
348.055	0.0131874
349.841	0.561495
351.625	0.297962
353.41	0.128941
355.195	0.029644
356.977	0.261831
358.762	0.324547
360.545	-0.0912495
362.329	0.0867157
364.11	0.0965004
365.893	-0.726601
367.675	0.111795
369.455	-0.16749
371.237	-0.116192
373.017	0.501476
374.798	0.478861
376.578	-0.535198
378.357	0.0807133
380.137	0.107821
381.917	0.042572
383.694	0.191151
385.473	-0.222565
387.249	-0.187506
389.028	0.201649
390.806	0.357309
392.581	0.725561
394.359	0.319803
396.134	0.806973
397.91	0.68364
399.684	0.536379
401.46	0.153383
403.234	-0.136864
405.009	0.0647717
406.784	0.945969
408.557	-0.146481
410.331	-0.0420437
412.103	-0.148951
413.876	0.495634
415.647	0.695379
417.42	0.450615
419.191	1.54445
420.961	-0.599991
422.733	0.634731
424.502	0.272055
426.273	-0.0218678
428.042	0.175669
429.812	-0.613605
431.58	0.310432
433.35	0.0847759
435.118	0.751448
436.885	0.24453
438.653	0.886362
440.42	0.399137
442.188	0.682707
443.954	0.868357
445.719	0.60528
447.486	0.597834
449.251	0.472538
451.015	1.04842
452.781	1.06355
454.545	0.3326
456.308	0.558285
458.073	0.131187
459.836	0.333076
461.598	-0.0688992
463.362	0.159628
465.124	-0.444538
466.885	0.512877
468.648	0.917452
470.408	0.186203
472.169	0.432501
473.929	-0.300066
475.69	0.337914
477.45	0.669588
479.208	-0.00370216
480.967	0.509184
482.727	0.393278
484.485	0.0230885
486.243	0.867403
488	1.01686
489.759	0.447102
491.515	0.46184
493.272	0.968386
495.028	0.985102
496.783	0.603727
498.54	1.20518
500.295	-0.0457687
502.05	0.718449
503.804	-0.0679207
505.558	0.223799
507.311	0.983793
509.064	1.34178
510.819	1.13231
512.572	0.331604
514.324	1.12828
516.076	0.793037
517.827	0.808544
519.578	1.01027
521.329	0.74048
523.08	1.45637
524.83	0.410723
526.58	0.65633
528.329	0.409306
530.08	1.14655
531.829	0.149071
533.578	1.32823
535.326	0.164635
537.074	0.49613
538.821	0.754477
540.568	1.26665
542.315	0.331976
544.062	0.0502148
545.808	0.28022
547.554	1.36865
549.299	0.809042
551.044	0.691034
552.789	-0.0278339
554.533	1.03434
556.278	0.086544
558.019	0.109827
559.763	0.502491
561.506	0.204826
563.249	0.115643
564.991	0.533253
566.733	0.469034
568.475	0.337399
570.217	0.00117874
571.958	0.401661
573.699	0.254313
575.439	0.77533
577.177	0.450506
578.917	0.380335
580.656	0.104771
582.396	-0.193827
584.134	-0.148746
585.873	0.101635
587.609	-0.363113
589.347	0.366268
591.084	0.311846
592.822	0.371508
594.558	-0.788508
596.295	0.375259
598.029	0.503664
599.765	0.217333
601.5	-0.024374
603.235	-0.0151768
604.968	0.152445
606.703	0.271654
608.437	0.25148
610.171	-0.342718
611.902	-0.683138
613.635	0.193214
615.368	0.130356
617.099	0.365746
618.831	-0.270195
620.563	0.191357
622.294	0.28421
624.024	0.23826
625.755	0.00953102
627.485	-0.0116539
629.213	-0.599981
630.943	0.276247
632.673	1.01912
634.4	0.737164
636.129	0.0208969
637.855	-0.104849
639.584	0.0843525
641.312	-0.0738659
643.037	0.310875
644.764	0.510489
646.491	-0.22246
648.216	0.435549
649.942	0.848347
651.666	0.42721
653.392	0.831133
655.115	0.627419
656.84	0.0859966
658.563	0.0238972
660.287	-0.0389481
662.011	0.900316
663.732	-0.265535
665.456	-0.842314
667.177	-0.393576
668.899	0.465675
670.62	0.47998
672.342	0.291744
674.061	0.428204
675.781	0.24781
677.502	0.482344
679.22	0.258358
680.941	0.216221
682.659	0.608076
684.379	0.444227
686.096	0.737257
687.815	0.728189
689.532	0.325605
691.248	0.290257
692.966	0.184713
694.682	0.699793
696.4	-0.352909
698.115	0.825937
699.829	0.298904
701.546	0.276295
703.26	0.573853
704.974	1.35207
706.689	1.48557
708.402	0.953089
710.115	1.45188
711.83	1.44547
713.542	0.363497
715.254	0.380028
716.967	-0.0145626
718.679	0.276091
720.39	1.501
722.102	0.9023
723.812	-0.309559
725.522	1.34486
727.232	1.15614
728.943	0.581202
730.652	1.07212
732.361	1.17639
734.069	1.05384
735.779	1.42885
737.487	1.64574
739.194	0.442192
740.901	0.594894
742.608	1.71809
744.316	1.08632
746.022	0.592752
747.728	0.821898
749.433	0.828367
751.138	0.297329
752.843	0.825703
754.549	0.0742702
756.254	1.01285
757.957	0.874165
759.661	1.16598
761.364	1.00932
763.067	1.39493
764.769	1.17109
766.471	0.628714
768.175	1.09991
769.877	0.979805
771.578	0.991823
773.279	1.40841
774.98	1.16837
776.68	0.884058
778.38	1.39336
780.079	1.81505
781.779	1.53772
783.478	0.96636
785.176	1.29833
786.875	1.26419
788.573	1.51888
790.27	2.10688
791.968	1.19748
793.665	1.39321
795.361	1.65571
797.058	1.10794
798.754	1.57734
800.45	0.698862
802.145	0.813663
803.84	0.547272
805.535	1.22508
807.23	1.04708
808.922	1.31645
810.616	1.83028
812.309	0.95142
814.002	1.84302
815.695	1.59098
817.388	1.51824
819.08	1.44576
820.772	0.391169
822.464	0.744635
824.153	2.0577
825.844	1.83399
827.535	0.990627
829.225	0.976444
830.915	1.90289
832.605	1.11936
834.292	0.985308
835.981	1.23211
837.67	2.2601
839.359	0.674704
841.047	1.29668
842.732	1.29113
844.42	5.17292
846.107	0.631216
847.794	0.382765
849.479	0.831722
851.165	0.703432
852.851	0.959303
854.534	1.03789
856.22	1.00414
857.905	1.5081
859.589	1.10998
861.272	1.0459
862.956	0.640999
864.639	1.31532
866.321	1.51508
868.004	0.766747
869.687	1.05478
871.367	1.47773
873.049	1.29134
874.731	0.946838
876.41	0.850519
878.092	0.189981
879.771	0.657787
881.451	1.26055
883.131	1.09458
884.809	1.35566
886.489	0.869404
888.166	1.41855
889.845	0.611362
891.522	0.816683
893.2	1.33467
894.878	0.792185
896.554	0.428675
898.231	0.603107
899.906	0.640999
901.583	0.968641
903.258	1.40642
904.934	1.03817
906.608	1.07306
908.283	1.17584
909.956	1.43589
911.631	1.05186
913.304	0.0476036
914.976	1.7326
916.65	1.17404
918.322	0.838085
919.995	0.724356
921.666	1.18702
923.339	1.36355
925.009	0.592915
926.679	1.26156
928.351	0.409754
930.021	1.08327
931.692	1.14002
933.361	1.55026
935.029	0.990225
936.699	0.276697
938.367	1.21885
940.035	1.72213
941.704	2.16164
943.371	1.54363
945.038	1.14584
946.706	0.92252
948.372	0.718052
950.038	1.5696
951.705	1.58006
953.37	0.906881
955.035	1.51571
956.7	1.04895
958.366	1.77906
960.03	1.23491
961.693	1.3998
963.357	1.29958
965.021	1.39531
966.684	0.911045
968.346	1.26237
970.008	0.791256
971.67	0.982248
973.334	1.68258
974.995	0.970163
976.655	0.968714
978.316	-0.290916
979.976	-0.0453014
981.638	0.199869
983.297	2.08106
984.957	1.94434
986.616	1.42749
988.274	1.46072
989.932	1.86749
991.59	1.12337
993.248	1.35163
994.907	1.80054
996.565	1.80795
998.221	2.36656
999.878	2.06469
1001.53	1.36609
1003.19	1.72395
1004.85	1.31102
1006.5	1.49179
1008.16	0.794163
1009.81	1.19533
1011.46	0.807304
1013.12	1.25344
1014.77	1.32744
1016.43	1.05186
1018.08	1.58711
1019.73	1.51099
1021.38	1.85229
1023.04	1.64909
1024.69	2.23458
1026.34	1.7285
1027.99	3.05798
1029.64	3.00959
1031.29	3.87607
1032.94	4.47666
1034.59	5.48761
1036.24	7.21365
1037.89	9.1529
1039.54	11.1323
1041.19	13.4149
1042.84	13.6766
1044.48	15.8552
1046.13	15.3232
1047.78	15.1448
1049.42	14.0811
1051.07	11.6093
1052.72	9.79079
1054.36	7.95075
1056.01	6.39244
1057.66	4.87629
1059.3	5.14141
1060.94	3.01334
1062.59	2.9927
1064.23	2.94848
1065.88	2.96739
1067.52	2.09303
1069.16	1.84736
1070.81	1.83952
1072.45	2.35237
1074.09	1.26007
1075.73	1.68885
1077.38	1.68621
1079.02	1.6426
1080.66	0.841547
1082.3	1.97044
1083.94	0.625832
1085.58	1.07797
1087.22	0.941053
1088.86	0.692219
1090.5	1.34925
1092.13	1.2031
1093.77	0.926693
1095.41	1.31994
1097.05	1.11043
1098.68	1.20536
1100.32	0.872871
1101.96	1.14677
1103.6	0.434238
1105.23	0.821402
1106.87	0.607363
1108.5	1.10256
1110.14	0.9506
1111.77	1.29018
1113.41	0.96052
1115.04	0.843576
1116.67	1.62668
1118.31	1.80862
1119.94	0.877567
1121.58	2.26198
1123.21	1.99913
1124.84	1.84541
1126.47	2.0571
1128.1	1.17962
1129.73	1.00938
1131.37	0.947174
1133	0.564892
1134.63	0.951994
1136.26	0.589828
1137.89	1.18746
1139.52	0.778593
1141.14	1.07274
1142.77	0.149317
1144.4	-0.00514221
1146.03	1.35537
1147.66	0.521584
1149.29	-0.0117989
1150.91	0.414488
1152.54	1.45818
1154.17	0.478226
1155.79	1.00919
1157.42	0.943848
1159.04	0.900469
1160.67	-0.140764
1162.3	0.372461
1163.92	0.0369816
1165.55	0.0426445
1167.17	-0.292295
1168.79	-0.352623
1170.42	-0.245785
1172.04	0.303734
1173.66	0.424845
1175.28	0.31015
1176.91	-0.229324
1178.53	-0.28042
1180.15	0.0719414
1181.77	0.425421
1183.39	0.779715
1185.01	0.0561028
1186.63	0.830997
1188.25	0.842232
1189.87	0.61797
1191.49	-0.0935135
1193.11	0.476603
1194.73	0.266838
1196.35	-0.319708
1197.97	0.436972
1199.59	-0.310892
1201.2	0.660206
1202.82	1.0082
1204.44	0.379736
1206.05	1.19528
1207.67	0.573555
1209.29	0.536619
1210.9	0.644289
1212.52	0.352734
1214.13	0.245035
1215.75	0.654037
1217.36	1.72473
1218.97	1.12886
1220.59	1.46811
1222.2	0.625847
1223.82	1.34142
1225.43	1.04411
1227.04	0.998314
1228.65	2.07204
1230.26	1.78272
1231.88	1.30982
1233.49	0.839346
1235.1	2.45863
1236.71	2.38547
1238.32	1.98353
1239.93	1.5
1241.54	2.34036
1243.15	2.33229
1244.76	3.04696
1246.37	2.41472
1247.97	1.92537
1249.58	2.7588
1251.19	2.70184
1252.8	3.26583
1254.41	2.17645
1256.01	3.01279
1257.62	1.8864
1259.23	2.68616
1260.83	2.57735
1262.44	2.86286
1264.04	3.37651
1265.65	3.01941
1267.25	3.17884
1268.86	3.10845
1270.46	2.53837
1272.07	3.10658
1273.67	2.76048
1275.27	3.3453
1276.88	3.24415
1278.48	2.3957
1280.08	3.51378
1281.68	2.97452
1283.28	2.74626
1284.89	3.3257
1286.49	2.76947
1288.09	3.10428
1289.69	3.58545
1291.29	4.10887
1292.89	4.3841
1294.49	5.11223
1296.09	5.32101
1297.69	4.32888
1299.29	3.82945
1300.88	3.78118
1302.48	3.87463
1304.08	4.43929
1305.68	3.99397
1307.27	4.43159
1308.87	3.8419
1310.47	5.01588
1312.06	3.81341
1313.66	3.88286
1315.25	3.09596
1316.85	4.00691
1318.44	4.55036
1320.04	3.46185
1321.63	3.69735
1323.23	3.441
1324.82	3.71023
1326.41	3.44819
1328.01	3.9155
1329.6	4.13968
1331.19	3.88108
1332.78	3.26379
1334.38	3.88355
1335.97	3.79955
1337.56	3.99917
1339.15	3.39104
1340.74	3.78758
1342.33	1.9053
1343.92	3.68153
1345.51	3.20282
1347.1	2.86578
1348.69	2.61283
1350.28	3.14552
1351.87	2.9024
1353.46	1.52393
1355.04	3.76652
1356.63	2.81153
1358.22	2.09598
1359.81	1.63875
1361.39	2.73676
1362.98	3.11387
1364.57	2.61263
1366.15	2.84961
1367.74	2.86879
1369.32	2.65141
1370.91	2.85478
1372.49	1.66788
1374.07	1.81637
1375.66	1.78704
1377.24	2.27527
1378.83	2.92179
1380.41	2.59134
1381.99	2.51711
1383.57	2.30121
1385.16	2.30222
1386.74	2.28245
1388.32	2.44168
1389.9	2.4432
1391.48	2.60515
1393.06	1.99487
1394.64	2.75411
1396.22	1.72808
1397.8	2.54484
1399.38	2.62596
1400.96	2.03177
1402.54	2.54555
1404.12	3.01911
1405.7	2.58356
1407.28	2.78253
1408.85	2.42977
1410.43	3.06583
1412.01	2.95109
1413.58	2.55894
1415.16	3.86221
1416.74	3.0721
1418.31	3.14926
1419.89	4.05428
1421.46	3.46409
1423.04	3.54669
1424.61	4.02618
1426.19	3.89805
1427.76	4.24343
1429.33	4.29305
1430.91	4.59669
1432.48	5.05528
1434.05	4.66566
1435.63	5.94696
1437.2	5.36007
1438.77	5.05022
1440.34	5.39115
1441.91	5.85196
1443.49	5.37093
1445.05	5.32309
1446.63	5.35423
1448.2	5.50363
1449.77	5.51603
1451.34	5.45075
1452.91	5.66189
1454.47	5.71657
1456.04	5.86956
1457.61	6.09999
1459.18	4.85172
1460.75	4.0919
1462.31	4.96151
1463.88	5.04046
1465.45	4.84185
1467.01	3.95512
1468.58	3.61975
1470.15	2.97243
1471.71	3.09286
1473.28	3.11719
1474.84	3.08419
1476.41	2.81673
1477.97	2.84361
1479.54	3.06638
1481.1	2.70088
1482.66	2.33532
1484.23	2.85132
1485.79	2.15188
1487.35	1.98014
1488.91	2.27594
1490.48	2.13755
1492.04	2.36674
1493.6	2.6109
1495.16	2.30482
1496.72	1.89992
1498.28	1.59287
1499.84	1.54022
1501.4	2.05259
1502.96	1.63519
1504.52	1.82088
1506.08	1.01948
1507.64	1.16611
1509.2	1.61971
1510.76	2.01226
1512.31	0.879738
1513.87	1.36612
1515.43	0.9673
1516.99	1.35766
1518.54	1.67176
1520.1	1.00938
1521.66	0.941965
1523.21	0.912365
1524.77	1.09146
1526.32	0.677217
1527.88	1.1193
1529.43	0.855579
1530.99	1.33305
1532.54	1.46875
1534.09	2.07912
1535.65	1.64961
1537.2	1.33616
1538.75	1.17564
1540.31	1.12924
1541.86	1.40337
1543.41	0.792242
1544.96	1.66726
1546.51	1.4883
1548.06	1.4595
1549.62	2.55528
1551.17	2.09502
1552.72	1.52434
1554.27	1.47969
1555.82	1.75506
1557.36	2.59322
1558.91	2.81854
1560.46	2.17056
1562.01	2.02936
1563.56	1.92753
1565.11	2.33052
1566.66	2.36059
1568.2	3.2861
1569.75	2.32581
1571.3	2.78332
1572.84	2.6243
1574.39	2.35298
1575.93	2.49235
1577.48	2.61341
1579.02	2.34317
1580.57	2.97025
1582.11	2.66518
1583.66	2.79121
1585.2	2.88131
1586.75	2.59846
1588.29	3.06382
1589.83	2.42516
1591.38	2.94575
1592.92	2.81043
1594.46	2.88048
1596	2.87567
1597.54	3.69625
1599.09	2.79371
1600.63	4.03017
1602.17	2.94148
1603.71	3.31632
1605.25	3.76541
1606.79	2.9719
1608.33	3.09535
1609.87	3.66555
1611.41	3.51708
1612.95	2.78272
1614.48	3.07895
1616.02	3.09259
1617.56	2.99456
1619.1	3.04866
1620.64	3.27404
1622.17	2.75295
1623.71	2.98243
1625.25	2.65038
1626.78	2.91592
1628.32	2.91701
1629.86	3.13987
1631.39	3.08016
1632.92	3.07573
1634.46	3.76251
1635.99	3.53584
1637.53	3.51628
1639.06	3.87082
1640.59	3.36789
1642.13	4.48495
1643.66	3.68094
1645.19	3.75009
1646.73	4.63555
1648.26	3.77239
1649.79	4.4709
1651.32	3.83428
1652.85	3.86847
1654.38	3.86772
1655.92	4.40572
1657.45	4.29476
1658.98	4.07125
1660.51	3.86394
1662.04	4.35703
1663.57	3.90436
1665.09	4.94733
1666.62	3.75617
1668.15	3.47249
1669.68	3.35785
1671.21	3.28298
1672.73	3.35759
1674.26	3.30415
1675.79	3.30556
1677.31	2.80856
1678.84	2.86181
1680.37	3.02336
1681.89	2.74226
1683.42	2.38742
1684.94	2.76715
1686.47	2.98196
1687.99	1.23619
1689.52	1.96605
1691.04	2.49418
1692.57	2.10689
1694.09	1.99423
1695.61	1.47917
1697.14	1.32962
1698.66	1.72746
1700.18	1.94154
1701.7	1.13306
1703.22	1.41817
1704.75	0.682056
1706.27	1.31097
1707.79	0.683894
1709.31	1.32919
1710.83	1.46534
1712.35	1.27517
1713.87	0.705112
1715.39	0.733479
1716.91	0.146691
1718.43	-0.150208
1719.95	0.943699
1721.46	0.448293
1722.98	0.170926
1724.5	0.634299
1726.02	0.415048
1727.53	0.93625
1729.05	0.0551958
1730.57	0.561368
1732.08	0.599093
1733.6	0.529674
1735.12	0.512003
1736.63	0.334294
1738.15	0.948642
1739.66	0.478257
1741.18	0.308858
1742.69	-0.251098
1744.21	0.112339
1745.72	0.594424
1747.23	0.690023
1748.74	0.00678539
1750.26	0.544625
1751.77	0.36573
1753.28	0.0855675
1754.8	-0.0536995
1756.31	0.138502
1757.82	0.112533
1759.33	0.329429
1760.84	0.304217
1762.35	0.153576
1763.86	0.322944
1765.37	0.220772
1766.88	0.13036
1768.39	0.566605
1769.9	3.5688
1771.41	1.63984
1772.92	0.295169
1774.43	0.263189
1775.93	0.139398
1777.44	0.274264
1778.95	0.372704
1780.46	-0.063343
1781.96	0.501195
1783.47	-0.270124
1784.98	0.0105991
1786.48	0.0401697
1787.99	0.151682
1789.49	0.246741
1791	-0.175555
1792.5	-0.388583
1794.01	0.181525
1795.51	0.00128555
1797.02	-0.0531292
1798.52	0.302362
1800.03	0.49929
1801.53	-0.134604
1803.03	0.252708
1804.53	-0.0441236
1806.04	-0.0335865
1807.54	0.335501
1809.04	0.187896
1810.54	-0.0585737
1812.04	-0.0186405
1813.54	0.0533075
1815.05	0.308252
1816.55	-0.215904
1818.05	0.212087
1819.55	0.167466
1821.05	0.24886
1822.55	-0.440188
1824.05	0.176124
1825.54	0.360727
1827.04	0.219347
1828.54	-0.0710077
1830.04	-0.111922
1831.54	0.350345
1833.03	-0.0794373
1834.53	0.0301294
1836.03	-0.037261
1837.52	0.045042
1839.02	-0.0646734
1840.52	0.15822
1842.01	0.133204
1843.51	-0.221075
1845	-0.460758
1846.5	0.308851
1847.99	0.594817
1849.49	0.753363
1850.98	0.291359
1852.47	0.790166
1853.97	1.11097
1855.46	-0.108356
1856.95	0.0135126
1858.45	0.634682
1859.94	-0.0139923
1861.43	0.245676
1862.92	0.048543
1864.41	-0.175906
1865.91	-0.127254
1867.4	-0.180124
1868.89	0.104677
1870.38	0.353116
1871.87	0.0139275
1873.36	-0.306964
1874.85	-0.51624
1876.34	0.0775442
1877.83	0.105476
1879.31	0.354355
1880.8	0.371017
1882.29	0.304066
1882.56	0.288716
1884.05	-0.096508
1885.54	0.301399
1887.04	-0.103692
1888.53	-0.10881
1890.03	-0.0787878
1891.52	0.126746
1893.01	0.63039
1894.5	0.545891
1895.99	-0.0228624
1897.49	0.192175
1898.98	0.285311
1900.47	-0.0581751
1901.96	0.204506
1903.45	-0.127139
1904.94	0.390875
1906.43	-0.222235
1907.92	0.224526
1909.41	-0.0397654
1910.9	0.357031
1912.39	0.668367
1913.88	0.18272
1915.37	0.234941
1916.86	0.425266
1918.35	0.337276
1919.84	-0.0286312
1921.32	0.0558977
1922.81	0.504692
1924.3	-0.205159
1925.78	0.0737619
1927.27	0.510247
1928.76	0.566968
1930.24	0.0868006
1931.73	-0.377475
1933.21	0.0390282
1934.7	0.140852
1936.18	0.084115
1937.67	0.354
1939.15	-0.0683527
1940.64	-0.265167
1942.12	0.109123
1943.6	0.588286
1945.09	0.0339003
1946.57	0.428607
1948.05	0.150561
1949.54	-0.783124
1951.02	-0.202377
1952.5	0.445045
1953.98	-0.23335
1955.46	0.171614
1956.94	-0.694054
1958.42	0.450412
1959.91	0.308354
1961.39	-0.484247
1962.87	-0.333187
1964.34	0.0915642
1965.82	0.583584
1967.3	0.62893
1968.78	0.741514
1970.26	-0.0529585
1971.74	0.895435
1973.22	0.169718
1974.7	0.349151
1976.17	0.119583
1977.65	-0.194544
1979.13	-0.0485239
1980.6	-0.225936
1982.08	-0.488383
1983.56	0.387106
1985.03	-0.148013
1986.51	0.877579
1987.98	0.342462
1989.46	0.232058
1990.93	0.173707
1992.41	-0.0521345
1993.88	0.433921
1995.36	0.278791
1996.83	-0.179599
1998.3	0.392417
1999.78	-0.184675
2001.25	0.773293
2002.72	0.801884
2004.2	-0.383537
2005.67	0.67377
2007.14	0.181879
2008.61	0.786397
2010.08	0.29782
2011.55	0.0796013
2013.02	-0.138489
2014.49	0.315918
2015.97	0.718361
2017.43	0.681732
2018.9	0.0217371
2020.37	0.537616
2021.84	0.196282
2023.31	0.24191
2024.78	0.372715
2026.25	0.220274
2027.72	-0.0135765
2029.19	0.778181
2030.65	0.498738
2032.12	0.220788
2033.59	0.581357
2035.05	1.00932
2036.52	0.210591
2037.98	0.200265
2039.45	-0.197264
2040.92	0.110985
2042.38	-0.0675974
2043.85	0.293173
2045.31	0.790365
2046.78	0.430666
2048.24	0.879673
2049.71	-0.255692
2051.17	0.460947
2052.63	0.332197
2054.1	-0.339301
2055.56	-0.254664
2057.02	0.215465
2058.48	0.667122
2059.95	0.309684
2061.41	0.222613
2062.87	0.439946
2064.33	0.743015
2065.79	1.0309
2067.25	0.916325
2068.71	0.533454
2070.17	0.184689
2071.63	0.627189
2073.09	0.833844
2074.55	0.821183
2076.01	0.504827
2077.47	0.65937
2078.93	0.628004
2080.39	0.579033
2081.85	1.06789
2083.3	1.33661
2084.76	0.796161
2086.22	1.07907
2087.68	1.36068
2089.13	1.10354
2090.59	0.99747
2092.05	1.17678
2093.5	1.15439
2094.96	0.779413
2096.41	1.14146
2097.87	1.30091
2099.32	0.956981
2100.78	1.3154
2102.23	1.13896
2103.69	0.947514
2105.14	1.52622
2106.59	1.70645
2108.05	2.1386
2109.5	1.07041
2110.95	1.2354
2112.41	1.4813
2113.86	1.85718
2115.31	2.03002
2116.76	1.91836
2118.21	2.30578
2119.67	1.50004
2121.12	1.90967
2122.57	1.65906
2124.02	2.33971
2125.47	2.10941
2126.92	2.29314
2128.37	2.62416
2129.82	2.60448
2131.27	3.04615
2132.71	2.49273
2134.16	1.97302
2135.61	2.74496
2137.06	2.37852
2138.51	2.70972
2139.95	3.127
2141.4	2.72094
2142.85	2.86252
2144.29	3.5017
2145.74	3.16518
2147.19	2.71192
2148.63	3.43312
2150.08	3.60637
2151.52	3.52925
2152.97	3.11885
2154.42	3.86673
2155.86	3.60305
2157.3	3.42241
2158.75	3.92231
2160.19	4.20947
2161.64	3.82077
2163.08	3.89952
2164.52	3.48357
2165.96	4.23079
2167.41	4.0817
2168.85	4.61198
2170.29	3.77542
2171.73	3.99898
2173.17	4.26875
2174.61	3.82059
2176.06	4.66864
2177.5	4.23651
2178.94	3.98888
2180.38	3.99254
2181.82	4.26392
2183.26	4.2538
2184.7	3.69534
2186.14	3.8189
2187.57	3.77614
2189.01	3.9831
2190.45	3.7906
2191.89	3.71406
2193.33	3.56946
2194.76	3.08936
2196.2	3.48824
2197.64	3.7999
2199.08	3.55923
2200.51	3.05114
2201.95	3.34043
2203.38	3.49784
2204.82	2.79494
2206.25	2.93987
2207.69	2.75432
2209.12	3.09847
2210.56	2.92775
2211.99	3.00348
2213.43	2.89591
2214.86	2.6066
2216.3	2.92952
2217.73	2.08287
2219.16	1.78339
2220.59	2.85393
2222.03	2.29243
2223.46	2.73497
2224.89	1.97253
2226.32	2.11299
2227.75	2.00368
2229.19	1.74451
2230.62	2.0423
2232.05	1.43782
2233.48	1.50627
2234.91	2.00103
2236.34	2.00683
2237.77	2.19505
2239.2	1.52167
2240.63	1.84731
2242.06	1.1811
2243.48	1.08789
2244.91	1.90868
2246.34	1.97802
2247.77	1.22911
2249.2	1.42245
2250.62	1.56289
2252.05	1.89541
2253.48	1.41279
2254.9	1.84142
2256.33	1.168
2257.76	1.24585
2259.18	1.10139
2260.61	0.929427
2262.03	0.534186
2263.46	0.953214
2264.88	1.06442
2266.31	0.996265
2267.73	0.959239
2269.16	1.42514
2270.58	0.880672
2272	0.74216
2273.43	0.961607
2274.85	0.774057
2276.27	0.798572
2277.69	1.01898
2279.12	1.02768
2280.54	0.71015
2281.96	0.4738
2283.38	0.432973
2284.8	1.09391
2286.22	1.03734
2287.64	0.638477
2289.07	0.681098
2290.49	0.283221
2291.91	0.539356
2293.32	0.746848
2294.74	0.643613
2296.16	0.605625
2297.58	0.731274
2299	-0.0603123
2300.42	0.27863
2301.84	0.48715
2303.26	0.138533
2304.67	0.364319
2306.09	0.606638
2307.51	0.717176
2308.92	0.268003
2310.34	0.672634
2311.76	0.451811
2313.17	0.510528
2314.59	0.405354
2316	0.680035
2317.42	0.626758
2318.83	0.42578
2320.25	0.521071
2321.66	0.301113
2323.08	0.0779724
2324.49	-0.23141
2325.91	1.12212
2327.32	0.427011
2328.73	0.736725
2330.15	0.0581703
2331.56	0.402458
2332.97	0.271011
2334.38	0.108098
2335.79	0.307549
2337.21	0.621282
2338.62	0.209841
2340.03	0.421322
2341.44	0.516076
2342.85	0.511429
2344.26	-0.100032
2345.67	0.0600328
2347.08	-0.139981
2348.49	0.757
2349.9	-0.0981207
2351.31	-0.135979
2352.72	0.298314
2354.13	-0.0202618
2355.53	-0.143687
2356.94	0.318773
2358.35	0.471175
2359.76	-0.237623
2361.17	0.142623
2362.57	-0.385866
2363.98	0.527978
2365.39	-0.0485754
2366.79	0.168278
2368.2	0.417949
2369.6	0.459165
2371.01	-0.480797
2372.42	0.435153
2373.82	0.0957804
2375.22	-0.387566
2376.63	0.3034
2378.03	-0.294469
2379.44	0.278976
2380.84	0.0621996
2382.25	0.388783
2383.65	-0.279747
2385.05	-0.227227
2386.45	-0.182172
2387.86	-0.13581
2389.26	-0.127525
2390.66	-0.133203
2392.06	0.133606
2393.46	0.11529
2394.87	0.416394
2396.27	0.273253
2397.67	0.735163
2399.07	0.371546
2400.47	-0.118198
2401.87	-0.22608
2403.27	0.063159
2404.67	0.0182629
2406.07	0.225979
2407.47	0.00365257
2408.86	0.271924
2410.26	0.333339
2411.66	0.379218
2413.06	0.0938234
2414.46	0.0481377
2415.85	0.131435
2417.25	0.485984
2418.65	-0.519662
2420.05	0.0427723
2421.44	0.0349655
2422.84	0.771207
2424.23	0.0336342
2425.63	-0.307845
2427.03	0.286488
2428.42	0.45443
2429.82	-0.565472
2431.21	0.52516
2432.6	0.394668
2434	0.0567408
2435.39	0.52698
2436.79	0.502451
2438.18	0.809081
2439.57	0.208057
2440.97	-0.028882
2442.36	0.14622
2443.75	-0.345712
2445.14	-0.171348
2446.54	0.0343294
2447.93	-0.172415
2449.32	0.191245
2450.71	0.444115
2452.1	0.00125122
2453.49	-0.297701
2454.88	-0.0256701
2456.27	-0.0531921
2457.66	0.331042
2459.05	0.208822
2460.44	0.765719
2461.83	-0.00702763
2463.22	-0.0219288
2464.61	-0.40111
2466	0.340808
2467.39	0.261099
2468.77	0.575821
2470.16	-0.0720949
2471.55	0.46209
2472.94	0.537724
2474.32	0.816646
2475.71	0.417704
2477.1	0.348844
2478.48	0.51558
2479.87	0.572475
2481.25	0.472761
2482.64	0.811758
2484.02	0.554564
2485.41	0.108694
2486.8	0.396188
2488.18	0.135118
2489.56	0.605961
2490.95	0.0326071
2492.33	0.254287
2493.72	-0.143909
2495.1	-0.477158
2496.48	0.168551
2497.86	-0.192138
2499.25	-0.0256777
2500.63	0.279217
2502.01	-0.205806
2503.39	-0.228294
2504.77	-0.252124
2506.16	0.277814
2507.54	0.11363
2508.92	-0.0192375
2510.3	0.278842
2511.68	-0.220437
2513.06	0.20211
2514.44	0.0279875
2515.82	0.0391569
2517.2	0.173884
2518.58	0.156429
2519.95	0.230935
2521.33	0.121655
2522.71	-0.0801287
2524.09	-0.176188
2525.47	-0.0903311
2526.84	0.253844
2528.22	0.111223
2529.6	0.63959
2530.98	0.349241
2532.35	-0.0597582
2533.73	-0.238612
2535.11	-0.0213547
2536.48	0.104637
2537.86	0.0928383
2539.23	0.201026
2540.61	0.171197
2541.98	0.0649338
2543.36	0.308148
2544.73	-0.281705
2546.1	-0.00494289
2547.48	0.334397
2548.85	0.00761795
2550.23	0.500191
2551.6	0.521665
2552.97	-0.126107
2554.34	0.39303
2555.72	-0.34867
2557.09	-0.0139656
2558.46	0.00192642
2559.83	-0.300122
2561.2	0.444555
2562.58	0.735388
2563.95	0.466428
2565.32	-0.165541
2566.69	-0.00912952
2568.06	-0.170836
2569.43	0.364623
2570.8	0.0361891
2572.17	0.26861
2573.54	0.243484
2574.91	0.0517349
2576.27	0.572563
2577.64	0.213933
2579.01	0.370426
2580.38	-0.0346718
2581.75	0.681625
2583.11	0.502706
2584.48	0.18699
2585.85	-0.0832634
2587.21	0.616735
2588.58	0.149935
2589.95	0.622949
2591.31	0.398613
2592.68	0.431139
2594.04	0.538085
2595.41	0.461594
2596.78	0.474319
2598.14	0.78831
2599.51	0.224439
2600.87	0.160028
2602.23	0.398505
2603.6	0.0340042
2604.96	0.22897
2606.32	0.469332
2607.69	0.241537
2609.05	0.0728779
2610.41	0.700774
2611.77	0.422625
2613.14	-0.383182
2614.5	-0.0019474
2615.86	0.318077
2617.22	-0.15666
2618.58	-0.270122
2619.94	0.186399
2621.3	0.224672
2622.67	0.203934
2624.03	0.183564
2625.39	0.058671
2626.75	0.276511
2628.1	0.329593
2629.46	0.60544
2630.82	0.151502
2632.18	-0.227564
2633.54	-0.576395
2634.9	0.0993586
2636.26	0.180769
2637.61	0.262019
2638.97	0.535686
2640.33	0.306149
2641.69	0.580002
2643.04	0.322072
2644.4	0.551922
2645.76	0.176466
2647.11	-0.0222044
2648.47	0.131845
2649.82	0.240189
2651.18	-0.108482
2652.53	0.571057
2653.89	0.310646
2655.24	0.095892
2656.6	0.0589523
2657.95	0.638573
2659.31	0.619173
2660.66	0.556565
2662.01	0.508375
2663.37	-0.110362
2664.72	0.014802
2666.07	-0.123921
2667.43	0.0282955
2668.78	0.0199423
2670.13	-0.00252819
2671.48	-0.00961876
2672.83	-0.538811
2674.18	-0.00636387
2675.53	0.178044
2676.89	0.580783
2678.24	0.0125504
2679.59	-0.104571
2680.94	-0.466529
2682.29	0.0722227
2683.64	0.598408
2684.99	0.140006
2686.34	0.0592833
2687.68	0.283015
2689.03	0.577573
2690.38	0.622662
2691.73	0.0552158
2693.08	0.443291
2694.43	-0.0550508
2695.77	0.113512
2697.12	0.659492
2698.47	0.454114
2699.81	0.512118
2701.16	0.210868
2702.51	0.838863
2703.85	-0.0235796
2705.2	0.418797
2706.54	0.542545
2707.89	0.86913
2709.23	0.0630016
2710.58	0.417423
2711.92	0.408484
2713.27	0.297587
2714.61	0.491749
2715.96	0.264254
2717.3	0.458173
2718.64	0.448098
2719.99	0.757546
2721.33	0.818954
2722.67	0.0936089
2724.01	0.662853
2725.36	0.387189
2726.7	0.358357
2728.04	0.489109
2729.38	0.54668
2730.72	0.603998
2732.06	0.413914
2733.41	0.471295
2734.75	0.223475
2736.09	0.557777
2737.43	0.586823
2738.77	-0.053175
2740.11	0.208117
2741.44	0.163253
2742.78	0.117388
2744.12	0.346574
2745.46	-0.0210066
2746.8	-0.214711
2748.14	0.59299
2749.48	-0.44256
2750.81	0.118357
2752.15	0.215296
2753.49	0.327011
2754.83	-0.1551
2756.16	-0.0718517
2757.5	0.474932
2758.84	0.18222
2760.17	-0.167656
2761.51	-0.227264
2762.84	0.220288
2764.18	0.509099
2765.51	0.0454807
2766.85	0.0296793
2768.18	-0.522727
2769.52	0.0799522
2770.85	0.145129
2772.19	0.10701
2773.52	0.355912
2774.85	0.127784
2776.19	-0.0856133
2777.52	-0.24052
2778.85	-0.121132
2780.18	-0.0155096
2781.52	-0.297282
2782.85	-0.0619411
2784.18	0.18734
2785.51	0.16394
2786.84	0.34138
2788.17	0.218794
2789.51	-0.288744
2790.84	0.07794
2792.17	-0.255026
2793.5	0.127602
2794.83	0.267144
2796.16	-0.108299
2797.48	-0.398675
2798.81	-0.16141
2800.14	-0.0106354
2801.47	0.0397139
2802.8	0.0897074
2804.13	0.0964727
2805.46	-0.168074
2806.79	-0.177047
2808.11	0.253915
2809.44	-0.297033
2810.77	-0.421068
2812.09	0.364202
2813.42	0.228415
2814.75	0.137569
2816.07	0.247474
2817.4	-0.179501
2818.73	0.528317
2820.05	0.0880709
2821.38	0.256571
2822.7	0.338952
2824.03	0.859518
2825.35	0.231971
2826.67	0.907598
2828	-0.143526
2829.32	0.307128
2830.65	0.829214
2831.97	1.04017
2833.29	0.656493
2834.62	0.796034
2835.94	1.13288
2837.26	1.51117
2838.58	1.73295
2839.9	1.51588
2841.23	2.23221
2842.55	2.38353
2843.87	3.29911
2845.19	3.17004
2846.51	3.84763
2847.83	3.791
2849.15	3.94639
2850.47	3.9175
2851.79	3.87358
2853.11	3.91353
2854.43	4.32018
2855.75	4.35904
2857.07	4.22835
2858.39	4.18254
2859.71	4.80045
2861.02	4.64125
2862.34	5.08856
2863.66	4.64582
2864.98	5.40219
2866.3	5.08604
2867.61	5.87054
2868.93	5.90822
2870.25	5.86209
2871.56	5.9854
2872.88	6.58731
2874.19	6.06039
2875.51	6.64454
2876.83	6.70528
2878.14	6.98957
2879.46	6.85113
2880.77	7.07891
2882.09	7.43446
2883.4	7.17382
2884.71	7.05557
2886.03	7.72463
2887.34	6.87774
2888.65	7.48969
2889.97	6.8093
2891.28	7.36174
2892.59	7.56218
2893.91	7.65007
2895.22	7.7106
2896.53	7.60469
2897.84	7.87866
2899.15	8.32236
2900.46	8.40376
2901.78	8.51401
2903.09	8.17705
2904.4	8.62368
2905.71	9.04285
2907.02	8.48401
2908.33	8.8639
2909.64	9.98707
2910.95	9.61438
2912.26	9.66142
2913.57	10.589
2914.87	10.4359
2916.18	10.3214
2917.49	10.5818
2918.8	11.134
2920.11	11.126
2921.42	11.6508
2922.72	11.2272
2924.03	12.1483
2925.34	12.6384
2926.64	12.2492
2927.95	12.4331
2929.26	13.3293
2930.56	12.7424
2931.87	12.9654
2933.17	12.8385
2934.48	13.4523
2935.78	13.1578
2937.09	12.8917
2938.39	13.129
2939.7	12.3329
2941	12.2226
2942.31	11.6389
2943.61	11.7283
2944.91	11.0935
2946.22	11.1179
2947.52	11.2695
2948.82	11.2387
2950.13	10.7296
2951.43	10.4548
2952.73	9.58824
2954.03	9.34919
2955.33	9.79544
2956.64	9.20758
2957.94	8.72162
2959.24	8.39455
2960.54	8.89886
2961.84	8.76279
2963.14	7.82825
2964.44	8.49181
2965.74	8.04382
2967.04	7.12857
2968.34	6.78671
2969.64	6.78084
2970.94	7.26707
2972.24	6.05178
2973.53	6.53926
2974.83	6.36541
2976.13	5.99325
2977.43	5.56242
2978.73	5.38209
2980.02	5.64928
2981.32	4.84462
2982.62	4.40539
2983.91	4.68414
2985.21	4.17756
2986.51	4.27805
2987.8	3.91732
2989.1	3.8815
2990.4	3.45264
2991.69	3.41648
2992.99	2.92889
2994.28	3.50723
2995.57	3.78838
2996.87	3.19763
2998.16	2.46674
2999.46	2.284
3000.75	2.14439
3002.05	1.78161
3003.34	1.54588
3004.63	1.63269
3005.92	1.38297
3007.22	1.42646
3008.51	1.49659
3009.8	1.25763
3011.09	0.878127
3012.39	1.30832
3013.68	1.19384
3014.97	0.843289
3016.26	0.731217
3017.55	0.356004
3018.84	0.691703
3020.13	0.596094
3021.42	0.0690937
3022.71	0.610974
3024	0.0542641
3025.29	0.162916
3026.58	-0.0751429
3027.87	0.116994
3029.16	0.490319
3030.45	0.0503712
3031.73	-0.469615
3033.02	0.0616379
3034.31	0.399857
3035.6	-0.118231
3036.89	0.368717
3038.17	0.094593
3039.46	-0.278165
3040.75	0.103574
3042.03	0.0987034
3043.32	-0.0431881
3044.61	-0.0601015
3045.89	0.144411
3047.18	0.406644
3048.46	-0.26973
3049.75	0.190585
3051.03	0.38031
3052.32	0.4349
3053.6	0.216702
3054.89	0.352343
3056.17	0.390903
3057.45	0.414191
3058.74	0.504438
3060.02	0.049634
3061.31	0.194794
3062.59	0.2326
3063.87	0.177444
3065.15	0.0296249
3066.44	0.618196
3067.72	-0.00156021
3069	0.0455313
3070.28	-0.125282
3071.56	0.314739
3072.84	-0.1038
3074.13	0.128632
3075.41	0.318787
3076.69	-0.143467
3077.97	-0.102283
3079.25	0.0763035
3080.53	0.202951
3081.81	0.359237
3083.09	-0.147116
3084.37	-0.164009
3085.64	0.00930691
3086.92	0.127815
3088.2	-0.256831
3089.48	-0.0994654
3090.76	0.0437374
3092.04	0.24107
3093.31	0.316622
3094.59	-0.312423
3095.87	-0.289873
3097.14	0.180296
3098.42	0.365702
3099.7	-0.180734
3100.97	-0.266294
3102.25	-0.134882
3103.53	0.0918016
3104.8	0.00800037
3106.08	0.0202398
3107.35	-0.304294
3108.63	0.279605
3109.9	0.107425
3111.18	-0.103818
3112.45	0.254999
3113.73	-0.374331
3115	0.0804701
3116.27	0.277391
3117.55	0.351145
3118.82	0.301378
3120.09	0.317905
3121.37	0.400974
3122.64	-0.0994558
3123.91	0.267372
3125.18	0.173966
3126.45	0.027401
3127.73	0.193145
3129	0.56262
3130.27	0.810911
3131.54	0.532228
3132.81	0.280748
3134.08	0.771958
3135.35	0.546636
3136.62	-0.0973368
3137.89	0.391506
3139.16	1.05438
3140.43	0.720156
3141.7	0.763306
3142.97	0.283094
3144.24	0.381909
3145.51	0.65606
3146.78	0.984729
3148.04	1.2606
3149.31	0.961544
