200.407	0.751749
202.221	0.760223
204.035	0.770037
205.849	0.659322
207.665	0.792295
209.478	0.220153
211.291	0.449278
213.104	0.288764
214.916	0.564234
216.73	0.79044
218.541	0.7743
220.352	-0.0882168
222.163	0.236556
223.973	0.513582
225.785	0.0418863
227.595	0.198876
229.404	0.500436
231.213	0.51174
233.022	0.136898
234.83	0.462107
236.638	0.209793
238.448	0.248808
240.255	0.290174
242.062	-0.269068
243.868	-0.465589
245.675	-0.710443
247.48	0.61271
249.286	0.243936
251.091	0.838228
252.896	0.0781651
254.702	0.402823
256.506	0.365169
258.31	0.159675
260.113	-0.33321
261.916	0.548942
263.719	-0.133193
265.521	-0.115673
267.323	-0.194122
269.125	0.570936
270.926	0.202505
272.727	-0.239267
274.527	-0.0794106
276.328	-0.161966
278.127	0.211871
279.927	0.198322
281.726	0.616283
283.525	0.478818
285.323	0.100086
287.121	-0.422546
288.919	0.134904
290.716	0.644083
292.513	0.196248
294.31	-0.297302
296.104	0.167386
297.9	-0.29934
299.696	-0.12013
301.491	-0.108288
303.286	0.356544
305.081	0.0562754
306.875	0.208714
308.669	0.551516
310.463	0.703909
312.256	-0.190597
314.047	0.131294
315.839	-0.116637
317.631	0.542016
319.423	-0.53659
321.215	0.482394
323.006	0.0962267
324.794	-0.0274715
326.585	0.421906
328.375	0.0116062
330.165	0.102309
331.954	0.479141
333.741	-0.006567
335.53	-0.231086
337.318	0.643181
339.106	0.34304
340.894	0.400399
342.679	-0.164533
344.466	0.417906
346.253	0.498781
348.039	0.00722218
349.823	0.089344
351.608	0.267001
353.393	0.0862093
355.176	-0.286201
356.961	0.222815
358.745	0.110571
360.529	-0.026351
362.31	0.0740891
364.093	-0.0878172
365.876	-0.107512
367.657	0.0857944
369.439	0.0171633
371.221	-0.0283747
373	-0.145389
374.781	0.210205
376.56	-0.143119
378.34	0.565929
380.12	-0.445315
381.898	0.21745
383.677	0.104175
385.456	0.297829
387.233	0.139953
389.011	-0.181211
390.787	-0.454381
392.565	-0.163134
394.34	0.433916
396.117	-0.0254498
397.894	0.525165
399.668	-0.122161
401.444	0.0756941
403.217	-0.14977
404.993	0.375721
406.766	-0.273697
408.54	0.39137
410.312	0.234315
412.086	0.265112
413.858	0.249345
415.631	0.116913
417.402	0.0790567
419.174	-0.0755444
420.944	-0.159544
422.716	-0.0324764
424.486	-0.117255
426.257	0.00848389
428.025	-0.148215
429.794	0.0702553
431.564	0.359074
433.332	0.155269
435.101	0.515064
436.868	0.0534153
438.637	-0.0802212
440.403	-0.191587
442.169	-0.257666
443.937	0.119921
445.703	0.261109
447.468	0.166918
449.234	0.0490694
450.999	0.00159454
452.765	0.164579
454.528	0.304189
456.292	0.117272
458.057	0.256571
459.819	0.465515
461.582	-0.0693913
463.344	0.14141
465.107	0.0520668
466.868	-0.197427
468.629	-0.328494
470.392	-0.016201
472.152	-0.214921
473.912	0.749644
475.672	0.246136
477.433	0.36939
479.192	0.258009
480.951	0.0991373
482.709	0.708955
484.469	-0.00777054
486.226	0.371878
487.984	0.613886
489.74	0.718142
491.499	0.146608
493.255	0.392417
495.011	0.0776014
496.767	0.48777
498.522	0.148688
500.277	0.582458
502.033	0.593933
503.788	0.909946
505.541	0.802265
507.295	0.740203
509.048	0.159124
510.801	-0.164882
512.553	0.0744267
514.308	0.241845
516.06	0.360949
517.811	0.290766
519.562	-0.0623569
521.313	0.477033
523.063	0.146525
524.814	0.543776
526.563	0.189886
528.313	0.539784
530.062	-0.188768
531.811	0.418157
533.559	0.695963
535.308	0.387566
537.055	0.242
538.803	0.655786
540.55	-0.121757
542.297	0.615835
544.043	-0.207455
545.789	0.365399
547.535	0.681729
549.281	-0.161577
551.026	0.0855579
552.771	0.748664
554.515	0.486245
556.259	0.524688
558.003	-0.635756
559.747	0.671595
561.49	0.273672
563.233	0.313941
564.975	-0.128034
566.717	0.166181
568.459	0.0933952
570.2	0.228113
571.942	-0.0490341
573.68	0.111148
575.421	-0.346562
577.161	0.481952
578.901	0.0496302
580.64	-0.0838366
582.379	0.586926
584.118	0.568175
585.855	0.456492
587.593	0.435626
589.331	0.344632
591.068	0.344802
592.805	-0.138683
594.54	0.0218906
596.277	0.228489
598.013	0.158965
599.749	-0.163928
601.484	-0.211423
603.217	0.0160275
604.952	0.0581732
606.687	0.099143
608.421	0.208227
610.153	0.202277
611.886	-0.124426
613.619	-0.496019
615.35	0.485456
617.083	0.0459003
618.815	0.13299
620.547	-0.421851
622.276	-0.0849066
624.008	0.296548
625.738	0.220537
627.467	0.853241
629.197	0.254748
630.927	-0.0447531
632.655	0.273617
634.384	-0.0232162
636.113	0.0448484
637.839	0.271291
639.568	0.518167
641.293	0.967459
643.021	0.524995
644.748	0.879014
646.473	0.00422192
648.2	1.04181
649.924	1.08136
651.65	0.192879
653.376	0.784923
655.099	0.584529
656.824	0.70465
658.546	0.0965157
660.271	0.92427
661.993	1.08989
663.716	0.316652
665.438	0.477808
667.161	0.0656595
668.881	0.796206
670.604	0.887034
672.324	0.636395
674.045	0.364756
675.765	0.850939
677.486	0.92623
679.204	0.588427
680.925	0.570953
682.643	0.804933
684.361	0.691993
686.08	0.830425
687.797	0.760176
689.516	0.619789
691.232	0.662995
692.95	0.291007
694.666	1.18518
696.382	0.972837
698.099	0.437198
699.813	0.84429
701.528	0.812954
703.244	0.344077
704.958	1.0006
706.673	0.55406
708.387	0.887518
710.099	1.17425
711.814	0.70464
713.526	0.670159
715.238	1.00118
716.949	0.258439
718.663	0.429538
720.374	-0.0148964
722.084	0.907889
723.796	1.28306
725.506	1.31648
727.216	0.849863
728.925	0.882942
730.636	0.348754
732.345	1.17418
734.053	0.979604
735.761	1.12448
737.471	1.06614
739.178	1.36948
740.885	0.726409
742.592	1.57208
744.298	1.44987
746.006	1.64413
747.712	1.27716
749.417	1.65385
751.122	1.35692
752.827	0.453847
754.532	1.68896
756.236	1.32825
757.942	1.95934
759.645	1.48859
761.348	1.35645
763.051	1.33742
764.753	1.79231
766.456	1.43339
768.158	1.23065
769.859	1.50063
771.56	1.49746
773.261	1.49295
774.964	1.39751
776.664	1.25731
778.364	1.45739
780.064	1.65891
781.763	1.68059
783.462	2.13245
785.16	1.47433
786.859	2.01373
788.557	2.21055
790.255	1.27306
791.952	1.37404
793.649	2.083
795.346	2.18121
797.042	1.98706
798.738	1.61459
800.434	1.58188
802.127	1.95549
803.823	1.45235
805.517	1.87118
807.212	2.31135
808.906	1.1555
810.6	2.1993
812.293	1.64856
813.987	1.94956
815.68	1.60058
817.372	2.07975
819.064	1.82064
820.754	2.18736
822.446	1.86212
824.137	1.4935
825.828	2.64187
827.519	1.89786
829.209	2.27033
830.897	2.13342
832.587	1.46447
834.276	2.29035
835.966	1.57918
837.654	1.42495
839.341	1.60446
841.029	2.36345
842.717	2.18318
844.404	2.3822
846.091	1.7549
847.776	1.26295
849.463	1.3991
851.149	2.32139
852.833	1.43171
854.519	1.82004
856.204	1.6026
857.889	1.81092
859.572	1.34299
861.256	1.32308
862.94	1.79728
864.622	1.25653
866.305	1.14288
867.988	1.11878
869.669	1.29723
871.351	1.06942
873.033	1.13463
874.713	1.53824
876.395	1.67115
878.074	1.30758
879.755	1.1921
881.435	1.3246
883.114	1.05011
884.794	0.932693
886.471	1.19778
888.15	0.446025
889.829	1.76824
891.506	0.924038
893.184	1.38597
894.861	0.833533
896.538	1.27025
898.214	1.03149
899.891	1.01669
901.566	1.38211
903.242	0.940502
904.916	0.902107
906.592	1.28807
908.266	1.27236
909.941	0.656165
911.614	0.464758
913.288	0.807702
914.961	1.0171
916.635	1.24831
918.306	0.90282
919.979	1.11159
921.651	1.34258
923.321	1.35316
924.994	1.25472
926.664	1.79838
928.336	1.34996
930.005	0.704347
931.674	1.27308
933.345	0.871243
935.014	1.15344
936.682	0.862518
938.352	1.12372
940.019	0.746398
941.687	1.14214
943.356	1.14154
945.022	1.36155
946.689	1.29366
948.357	0.716406
950.022	0.601073
951.688	0.771522
953.355	0.4787
955.02	1.00318
956.684	1.15513
958.348	0.802698
960.014	1.64433
961.678	1.47252
963.341	1.32251
965.004	0.662112
966.669	1.2599
968.331	1.28006
969.993	0.789403
971.655	1.66945
973.316	1.44379
974.979	1.15317
976.64	1.1517
978.3	1.15161
979.961	1.37346
981.62	1.59509
983.28	1.32852
984.941	0.794477
986.6	1.05548
988.259	0.850071
989.917	0.975389
991.575	0.0833454
993.233	0.649936
994.89	1.5029
996.547	1.0754
998.204	1.55239
999.86	1.83027
1001.52	2.19549
1003.17	2.40575
1004.83	2.04359
1006.49	2.18725
1008.14	1.32066
1009.79	1.26753
1011.45	0.973639
1013.1	0.812035
1014.76	0.344327
1016.41	0.862615
1018.06	0.768154
1019.72	0.455784
1021.37	0.100828
1023.02	0.315317
1024.67	0.093461
1026.32	0.680696
1027.97	1.72668
1029.62	1.32995
1031.27	0.975927
1032.92	1.38477
1034.57	1.00617
1036.22	0.975609
1037.87	0.770038
1039.52	0.717055
1041.17	0.403705
1042.82	1.00487
1044.47	0.607518
1046.11	0.212202
1047.76	0.969691
1049.41	0.295242
1051.06	1.05534
1052.7	0.512979
1054.35	0.622613
1055.99	0.688841
1057.64	0.77659
1059.28	0.233407
1060.93	0.820252
1062.57	0.710629
1064.22	1.03505
1065.86	0.249716
1067.5	0.507
1069.15	0.372191
1070.79	0.823259
1072.43	0.231862
1074.08	-0.0331707
1075.72	0.570475
1077.36	0.5027
1079	0.609528
1080.64	-0.0852795
1082.28	0.390903
1083.92	0.38929
1085.56	0.386291
1087.2	0.511536
1088.84	0.504882
1090.48	0.496672
1092.12	0.595494
1093.76	0.75843
1095.39	1.11537
1097.03	0.825729
1098.67	0.537778
1100.31	0.768426
1101.94	0.527179
1103.58	0.287686
1105.22	0.30757
1106.85	0.758129
1108.49	0.176105
1110.12	0.668391
1111.76	0.191814
1113.39	-0.285734
1115.03	0.524291
1116.66	0.152783
1118.29	0.36068
1119.93	0.204676
1121.56	1.12033
1123.19	1.07296
1124.82	0.727036
1126.46	1.04519
1128.09	1.40669
1129.72	0.913513
1131.35	0.592029
1132.98	0.420526
1134.61	0.24895
1136.24	0.141
1137.87	0.139044
1139.5	0.00789928
1141.13	0.0681467
1142.76	-0.362915
1144.39	0.102336
1146.01	0.0773954
1147.64	0.0959139
1149.27	-0.0978727
1150.9	-0.333731
1152.53	0.644364
1154.15	0.0462494
1155.78	0.0440531
1157.4	0.424707
1159.03	0.38004
1160.65	-0.0678921
1162.28	0.165661
1163.9	0.740249
1165.53	0.890079
1167.15	0.338061
1168.78	0.359202
1170.4	0.548897
1172.02	0.396787
1173.65	0.519263
1175.27	0.00395679
1176.89	0.527722
1178.51	0.457714
1180.14	0.473082
1181.76	1.01808
1183.38	0.823112
1185	0.311484
1186.62	0.137533
1188.24	0.278934
1189.86	0.0389471
1191.48	-0.0126848
1193.1	0.586286
1194.71	0.427003
1196.33	0.268149
1197.95	0.550238
1199.57	0.352158
1201.19	0.678924
1202.8	0.986715
1204.42	0.482677
1206.04	1.02418
1207.65	0.711426
1209.27	0.273879
1210.88	1.42085
1212.5	0.64747
1214.12	1.06052
1215.73	0.867064
1217.35	0.152175
1218.96	1.07948
1220.57	1.25738
1222.19	1.33185
1223.8	1.34522
1225.41	1.42215
1227.03	0.941758
1228.64	1.41462
1230.25	1.86765
1231.86	1.2054
1233.47	1.53662
1235.08	1.31098
1236.69	1.60323
1238.31	1.00762
1239.92	1.59107
1241.52	1.6786
1243.13	1.06246
1244.74	1.14891
1246.35	1.39997
1247.96	0.987911
1249.57	1.13384
1251.18	1.25873
1252.78	1.34242
1254.39	1.17856
1256	1.63623
1257.6	1.35046
1259.21	1.12775
1260.82	1.29906
1262.42	1.20175
1264.03	1.91232
1265.63	1.93916
1267.24	1.42637
1268.84	1.34783
1270.45	1.30975
1272.05	1.12554
1273.65	1.08551
1275.26	1.08604
1276.86	1.56231
1278.46	1.45747
1280.06	1.95259
1281.67	0.894697
1283.27	1.38941
1284.87	1.20179
1286.47	0.891087
1288.07	1.4909
1289.67	1.59541
1291.27	1.88638
1292.87	1.49541
1294.47	1.43438
1296.07	1.76458
1297.67	1.55625
1299.27	1.80043
1300.87	1.46553
1302.47	1.70674
1304.06	1.8231
1305.66	1.73292
1307.26	1.56028
1308.85	2.33142
1310.45	2.26065
1312.05	2.31325
1313.64	2.30514
1315.24	2.31849
1316.83	1.9857
1318.43	2.12327
1320.02	1.64892
1321.62	2.39667
1323.21	1.96122
1324.8	2.399
1326.4	1.3726
1327.99	1.86885
1329.59	1.95934
1331.18	2.2534
1332.77	2.30663
1334.36	1.8977
1335.95	2.15686
1337.54	2.19448
1339.14	2.37252
1340.73	2.30696
1342.32	1.99785
1343.91	2.00901
1345.5	1.45686
1347.09	2.12923
1348.67	1.43971
1350.26	1.43427
1351.85	2.23134
1353.44	1.25035
1355.03	1.73038
1356.62	1.93079
1358.2	1.21178
1359.79	1.55072
1361.38	1.2696
1362.96	1.26724
1364.55	1.22467
1366.14	1.58084
1367.72	1.87764
1369.31	1.75734
1370.89	1.45941
1372.48	1.64049
1374.06	1.82265
1375.64	1.66723
1377.23	1.47212
1378.81	1.55512
1380.39	1.41829
1381.98	1.53886
1383.56	1.83707
1385.14	2.01477
1386.72	0.960046
1388.3	1.63409
1389.89	1.1966
1391.47	1.13729
1393.05	1.3565
1394.63	1.814
1396.21	1.33916
1397.79	0.943223
1399.37	0.744796
1400.95	1.10023
1402.52	0.801512
1404.1	0.977882
1405.68	1.33249
1407.26	1.01557
1408.84	1.74688
1410.42	1.15484
1411.99	1.35299
1413.57	1.47151
1415.15	0.661702
1416.72	0.936552
1418.3	1.34869
1419.87	1.66218
1421.45	1.16907
1423.02	0.992729
1424.6	1.27067
1426.17	0.939645
1427.75	1.04215
1429.32	1.20348
1430.89	1.61985
1432.47	0.933018
1434.04	1.40631
1435.61	2.03622
1437.18	1.89915
1438.76	2.29359
1440.33	2.45306
1441.9	3.20308
1443.47	2.81399
1445.04	2.6415
1446.61	2.07606
1448.18	2.57218
1449.75	2.34129
1451.32	2.22878
1452.89	2.37243
1454.46	2.4772
1456.03	2.38525
1457.6	1.80065
1459.16	2.39554
1460.73	2.65412
1462.3	2.35979
1463.87	1.53301
1465.43	2.29799
1467	1.96169
1468.56	1.46903
1470.13	1.72341
1471.7	1.40977
1473.26	1.68572
1474.83	1.37403
1476.39	1.53342
1477.96	1.06553
1479.52	2.02866
1481.08	0.815888
1482.65	0.406842
1484.21	0.781559
1485.77	0.901167
1487.34	0.922116
1488.9	1.19638
1490.46	0.803395
1492.02	0.682685
1493.58	1.10713
1495.15	0.826624
1496.71	0.799076
1498.27	0.55731
1499.83	0.666451
1501.39	0.756876
1502.95	0.828786
1504.51	0.978889
1506.07	1.0322
1507.63	1.1622
1509.18	0.730733
1510.74	0.299172
1512.3	0.754403
1513.86	0.515212
1515.41	0.123007
1516.97	1.05697
1518.53	-0.0432501
1520.08	1.23479
1521.64	0.520243
1523.2	0.284814
1524.75	0.851112
1526.31	0.690529
1527.86	0.719949
1529.42	1.39526
1530.97	0.0179482
1532.52	0.54105
1534.08	0.930976
1535.63	0.848039
1537.19	0.633899
1538.74	0.685101
1540.29	0.623413
1541.84	0.637291
1543.4	1.34741
1544.95	1.20988
1546.5	0.959709
1548.05	0.841245
1549.6	1.47274
1551.15	1.46646
1552.7	1.25491
1554.25	1.13808
1555.8	1.48963
1557.35	0.703787
1558.9	1.35717
1560.45	1.48964
1562	0.709559
1563.54	1.44161
1565.09	1.5773
1566.64	1.91842
1568.19	1.73682
1569.73	1.33081
1571.28	1.09239
1572.83	1.73103
1574.37	1.24951
1575.92	1.38403
1577.47	1.61209
1579.01	1.80321
1580.56	1.80825
1582.1	2.18758
1583.64	1.68992
1585.19	1.5851
1586.73	1.42459
1588.28	1.73171
1589.82	1.57108
1591.36	1.57839
1592.9	2.03464
1594.45	1.57309
1595.99	2.40407
1597.53	2.13019
1599.07	2.23177
1600.61	1.79014
1602.15	2.34326
1603.69	2.18337
1605.23	1.89118
1606.77	1.57865
1608.31	1.86562
1609.85	1.94364
1611.39	2.07572
1612.93	2.48742
1614.47	2.1278
1616.01	1.5431
1617.55	2.04672
1619.08	2.02633
1620.62	2.04489
1622.16	1.84012
1623.7	1.80474
1625.23	1.37634
1626.77	0.947395
1628.3	1.54653
1629.84	1.28368
1631.37	1.50604
1632.91	1.98923
1634.44	1.38941
1635.98	2.153
1637.51	1.92835
1639.05	1.77908
1640.58	2.48727
1642.11	2.1138
1643.65	1.85132
1645.18	1.82988
1646.71	2.1237
1648.24	1.61774
1649.78	1.70704
1651.31	2.03837
1652.84	2.11088
1654.37	1.44281
1655.9	2.44394
1657.43	2.57354
1658.96	2.0355
1660.49	2.84806
1662.02	1.90067
1663.55	2.41385
1665.08	2.27915
1666.61	2.23727
1668.14	2.14118
1669.66	1.58585
1671.19	1.7326
1672.72	2.39607
1674.25	1.86269
1675.77	1.84487
1677.3	1.8079
1678.83	2.00907
1680.35	2.00675
1681.88	1.39731
1683.4	1.52281
1684.93	1.62985
1686.45	1.64538
1687.98	1.588
1689.5	1.71426
1691.03	1.51105
1692.55	0.923811
1694.07	0.904137
1695.6	0.756354
1697.12	0.699862
1698.64	0.971835
1700.17	0.549585
1701.69	1.11227
1703.21	1.23624
1704.73	0.667493
1706.25	1.02721
1707.77	0.967914
1709.29	0.817816
1710.81	0.831376
1712.33	0.573071
1713.85	0.496519
1715.37	0.601176
1716.89	0.48855
1718.41	0.37599
1719.93	0.426066
1721.45	0.367943
1722.97	0.238266
1724.49	-0.0525398
1726	0.108252
1727.52	0.846025
1729.04	0.882389
1730.55	0.451328
1732.07	0.45171
1733.59	0.276666
1735.1	0.0399275
1736.62	0.0481033
1738.13	0.264065
1739.65	0.178372
1741.16	0.131107
1742.68	0.135061
1744.19	0.300746
1745.7	0.13133
1747.22	0.528158
1748.73	0.384573
1750.24	0.404744
1751.76	0.355924
1753.27	0.455997
1754.78	0.498596
1756.29	0.0394859
1757.8	0.380853
1759.31	0.0344782
1760.83	0.086195
1762.34	0.0438643
1763.85	0.227615
1765.36	0.323045
1766.87	0.153912
1768.38	0.400126
1769.89	-0.164801
1771.39	0.224812
1772.9	0.220644
1774.41	0.0814013
1775.92	0.345367
1777.43	0.229471
1778.94	0.0279679
1780.44	0.190931
1781.95	0.375575
1783.46	0.539509
1784.96	0.194677
1786.47	0.022665
1787.97	0.00485373
1789.48	0.152244
1790.99	0.230372
1792.49	0.174071
1794	-0.00274229
1795.5	0.186243
1797	0.0140347
1798.51	0.157784
1800.01	0.0679975
1801.51	0.232104
1803.02	-0.0441604
1804.52	0.053597
1806.02	0.202027
1807.53	0.435315
1809.03	-0.0650067
1810.53	-0.197409
1812.03	0.0558128
1813.53	-0.0341473
1815.03	-0.128515
1816.53	0.222154
1818.03	0.19765
1819.53	0.13003
1821.03	-0.0285773
1822.53	0.0796442
1824.03	-0.108767
1825.53	0.232971
1827.03	-0.0984521
1828.53	0.0891008
1830.02	0.36041
1831.52	0.0107074
1833.02	0.0441103
1834.52	0.00388432
1836.01	0.110319
1837.51	-0.239163
1839.01	0.307742
1840.5	0.341754
1842	0.263934
1843.49	-0.31077
1844.99	0.0432901
1846.48	0.152212
1847.98	0.138115
1849.47	-0.180171
1850.97	-0.300333
1852.46	0.00630713
1853.95	0.258161
1855.45	0.00922489
1856.94	0.148816
1858.43	0.302127
1859.93	0.0939407
1861.42	0.0654345
1862.91	0.0916266
1864.4	0.296744
1865.89	0.272423
1867.38	-0.0192103
1868.87	0.115934
1870.36	0.177088
1871.85	0.23063
1873.34	0.121457
1874.83	0.534393
1876.32	0.209968
1877.81	0.194367
1879.3	0.439225
1880.79	0.0150242
1882.28	-0.0450435
1882.52	-0.0403066
1884.02	0.0638642
1885.51	0.0801578
1887.01	0.322111
1888.5	-0.0807166
1889.99	0.0911922
1891.49	0.489865
1892.98	-0.0143876
1894.47	0.161098
1895.97	-0.235865
1897.46	0.167745
1898.95	0.467059
1900.44	0.452408
1901.93	0.436303
1903.42	0.418617
1904.91	0.364885
1906.4	0.432121
1907.89	-0.160622
1909.38	0.13294
1910.87	0.0453444
1912.36	-0.128164
1913.85	0.514025
1915.34	-0.421924
1916.83	-0.386911
1918.32	0.167613
1919.8	-0.0409474
1921.29	0.21821
1922.78	-0.0938601
1924.27	0.0277653
1925.75	0.21957
1927.24	0.221865
1928.73	0.138152
1930.21	0.210239
1931.7	0.00456667
1933.18	0.109359
1934.67	0.281828
1936.15	0.677599
1937.64	0.328355
1939.12	0.359278
1940.61	0.321352
1942.09	0.28422
1943.57	0.0410452
1945.06	0.00572729
1946.54	0.00522804
1948.02	0.280268
1949.51	0.1238
1950.99	0.259316
1952.47	-0.156751
1953.95	-0.0225091
1955.43	-0.455575
1956.91	0.279968
1958.4	0.174248
1959.88	0.206509
1961.36	0.153481
1962.84	0.0149674
1964.32	-0.157853
1965.8	-0.108313
1967.27	-0.521505
1968.75	-0.0966096
1970.23	0.190489
1971.71	-0.0183764
1973.19	-0.14165
1974.67	0.741622
1976.14	0.209176
1977.62	0.222639
1979.1	0.0829797
1980.58	0.249659
1982.05	-0.0939813
1983.53	-0.114658
1985	0.169934
1986.48	0.0468388
1987.95	0.0255947
1989.43	0.00464869
1990.9	-0.252618
1992.38	0.370681
1993.85	-0.40892
1995.33	0.316801
1996.8	-0.106367
1998.27	-0.225303
1999.75	0.0100126
2001.22	-0.00849104
2002.69	0.00633574
2004.16	0.0547481
2005.64	0.204493
2007.11	0.118943
2008.58	0.168965
2010.05	0.1692
2011.52	0.0688901
2012.99	0.153792
2014.46	-0.249713
2015.93	-0.0480089
2017.4	0.505996
2018.87	0.386395
2020.34	0.115201
2021.81	-0.105454
2023.28	0.0772228
2024.75	0.377856
2026.22	0.0754671
2027.69	0.0259886
2029.15	0.246133
2030.62	0.417159
2032.09	0.454871
2033.56	0.00620461
2035.02	0.296113
2036.49	0.0147243
2037.96	-0.216856
2039.42	0.0553255
2040.89	0.327579
2042.35	-0.105925
2043.82	0.100098
2045.28	0.105109
2046.75	0.329635
2048.21	0.200917
2049.67	0.122341
2051.14	0.0091238
2052.6	0.214966
2054.07	0.0145473
2055.53	0.20053
2056.99	0.233535
2058.45	0.198423
2059.92	-0.0389223
2061.38	0.0104961
2062.84	0.481376
2064.3	0.498529
2065.76	0.129504
2067.22	0.148277
2068.68	0.285368
2070.14	0.355427
2071.6	0.0888495
2073.06	0.37772
2074.52	-0.0745001
2075.98	0.247583
2077.44	-0.272641
2078.9	-0.186943
2080.36	0.134116
2081.82	-0.0672836
2083.27	0.0674925
2084.73	0.151099
2086.19	0.0489955
2087.65	0.232296
2089.1	-0.475631
2090.56	0.278336
2092.02	0.511021
2093.47	-0.0788112
2094.93	-0.23219
2096.38	0.41869
2097.84	-0.238228
2099.29	-0.191796
2100.75	0.0717025
2102.2	0.251424
2103.66	-0.136164
2105.11	0.095264
2106.56	-0.0894527
2108.02	0.110413
2109.47	-0.273155
2110.92	0.00985146
2112.38	0.341567
2113.83	0.471656
2115.28	-0.0321083
2116.73	0.0793409
2118.18	-0.191176
2119.63	-0.0120687
2121.09	0.135194
2122.54	0.0185752
2123.99	0.400661
2125.44	0.236037
2126.89	0.469136
2128.34	-0.0777674
2129.79	-0.260913
2131.23	-0.0142961
2132.68	0.0327864
2134.13	0.327927
2135.58	0.143902
2137.03	-0.0553045
2138.48	0.226305
2139.92	0.4268
2141.37	0.0501504
2142.82	-0.0942612
2144.27	-0.519509
2145.71	0.21351
2147.16	0.301173
2148.6	0.355256
2150.05	-0.220878
2151.49	0.0470243
2152.94	0.297618
2154.38	0.166461
2155.83	0.300022
2157.27	-0.179292
2158.72	0.0377059
2160.16	0.206055
2161.6	0.359298
2163.05	0.298628
2164.49	0.405024
2165.93	0.346231
2167.38	0.0214477
2168.82	0.0611525
2170.26	0.2991
2171.7	0.236072
2173.14	0.17147
2174.58	0.0226164
2176.03	0.222591
2177.47	0.173241
2178.91	-0.00850439
2180.35	0.492168
2181.79	0.0126104
2183.23	-0.0342388
2184.67	0.467994
2186.1	0.155308
2187.54	0.0588326
2188.98	0.145418
2190.42	0.198725
2191.86	0.151951
2193.3	0.38763
2194.73	0.305902
2196.17	0.156155
2197.61	0.20458
2199.05	0.0686836
2200.48	0.380744
2201.92	0.144339
2203.35	0.2572
2204.79	-0.226123
2206.22	0.236525
2207.66	0.318163
2209.1	0.0849566
2210.53	0.480288
2211.97	0.130001
2213.4	-0.0551324
2214.83	0.371024
2216.27	0.202863
2217.7	0.332771
2219.13	0.331652
2220.57	0.529071
2222	0.347419
2223.43	0.0829301
2224.86	0.212763
2226.29	0.127123
2227.72	-0.239195
2229.16	0.133224
2230.59	0.0448856
2232.02	0.202352
2233.45	0.392439
2234.88	0.0431361
2236.31	0.038528
2237.74	0.0188637
2239.17	0.0823212
2240.6	-0.244137
2242.03	0.181184
2243.45	0.183417
2244.88	0.463242
2246.31	0.187943
2247.74	0.449578
2249.17	0.138677
2250.59	0.184692
2252.02	0.229189
2253.45	0.370475
2254.87	0.056838
2256.3	0.0695672
2257.73	0.213997
2259.15	0.230888
2260.58	-0.00941229
2262	0.0280528
2263.43	0.245489
2264.85	-0.0891037
2266.28	0.291089
2267.7	0.248036
2269.13	-0.251507
2270.55	-0.0357256
2271.97	0.244896
2273.4	-0.0771041
2274.82	0.122096
2276.24	0.158614
2277.67	0.146406
2279.09	-0.0287867
2280.51	0.00786543
2281.93	0.0933661
2283.35	0.293036
2284.77	0.541794
2286.2	0.203231
2287.62	0.0607138
2289.04	-0.244884
2290.46	0.201253
2291.88	0.255655
2293.3	0.2775
2294.72	0.0539155
2296.13	0.190175
2297.55	0.277375
2298.97	0.217247
2300.39	0.583351
2301.81	0.261337
2303.23	-0.159199
2304.64	0.0108833
2306.06	0.263195
2307.48	-0.0596218
2308.89	-0.120161
2310.31	-0.000330925
2311.73	-0.0945792
2313.14	0.337605
2314.56	0.408293
2315.98	0.216185
2317.39	0.502326
2318.81	0.393528
2320.22	0.383372
2321.64	0.322766
2323.05	0.310043
2324.46	0.0808277
2325.88	0.394288
2327.29	0.442226
2328.7	0.670738
2330.12	0.223833
2331.53	0.321413
2332.94	0.0413184
2334.35	0.0253448
2335.77	0.108281
2337.18	-0.00654745
2338.59	0.40399
2340	0.155915
2341.41	0.0058589
2342.82	0.150968
2344.23	-0.11414
2345.64	-0.034514
2347.05	-0.118548
2348.46	0.0758157
2349.87	0.171471
2351.28	0.102881
2352.69	0.0662518
2354.1	0.143128
2355.51	0.51267
2356.91	0.213573
2358.32	0.0289335
2359.73	-0.0902276
2361.14	-0.144136
2362.54	-0.100665
2363.95	-0.122162
2365.36	0.0504746
2366.76	-0.245774
2368.17	0.137148
2369.58	0.0685325
2370.98	0.146181
2372.39	0.0959511
2373.79	0.416962
2375.2	0.126367
2376.6	-0.292999
2378	-0.310778
2379.41	0.0398178
2380.81	-0.0770569
2382.22	0.0777473
2383.62	0.295511
2385.02	0.192631
2386.43	0.242097
2387.83	0.292203
2389.23	0.414962
2390.63	-0.0986676
2392.03	0.137664
2393.44	0.167681
2394.84	0.134743
2396.24	0.166005
2397.64	-0.00883961
2399.04	0.325328
2400.44	-0.0392165
2401.84	0.216074
2403.24	0.0107675
2404.64	0.0592756
2406.04	0.234044
2407.44	-0.36958
2408.84	0.0258622
2410.23	0.0402021
2411.63	-0.0403571
2413.03	0.0698466
2414.43	0.0226898
2415.83	0.325016
2417.22	0.12184
2418.62	0.426067
2420.02	0.113055
2421.41	0.290875
2422.81	0.119913
2424.21	-0.193923
2425.6	0.284527
2427	0.113728
2428.39	0.482586
2429.79	0.662185
2431.18	0.0967908
2432.58	0.324732
2433.97	0.473023
2435.36	0.159746
2436.76	-0.0754452
2438.15	0.101198
2439.54	0.499119
2440.94	0.260848
2442.33	0.149267
2443.72	0.132737
2445.12	0.227097
2446.51	0.0834265
2447.9	0.193324
2449.29	0.398144
2450.68	0.365473
2452.07	-0.189032
2453.46	0.0960536
2454.85	-0.266926
2456.24	-0.217981
2457.64	0.25829
2459.02	0.101694
2460.41	-0.245112
2461.8	0.198109
2463.19	-0.00760508
2464.58	0.418315
2465.97	-0.577685
2467.36	0.100348
2468.75	0.1466
2470.13	-0.0123816
2471.52	0.0175753
2472.91	0.220223
2474.3	-0.0188174
2475.68	0.213863
2477.07	0.052928
2478.45	0.237703
2479.84	-0.299513
2481.23	0.324539
2482.61	0.0545139
2484	-0.387654
2485.38	0.124299
2486.77	-0.0999856
2488.15	0.0342503
2489.54	-0.159725
2490.92	0.347048
2492.3	0.542078
2493.69	0.178593
2495.07	0.189265
2496.45	0.309459
2497.84	-0.235829
2499.22	0.349764
2500.6	-0.0401816
2501.98	0.0952954
2503.36	0.214293
2504.75	-0.115014
2506.13	0.0335188
2507.51	0.104563
2508.89	0.298532
2510.27	0.0931487
2511.65	-0.0345807
2513.03	-0.0541539
2514.41	0.0648408
2515.79	0.21498
2517.17	0.243194
2518.55	0.241252
2519.93	0.0866437
2521.3	-0.205473
2522.68	-0.0398765
2524.06	-0.0124493
2525.44	0.136272
2526.82	0.132252
2528.19	-0.175746
2529.57	0.308249
2530.95	-0.0884933
2532.32	0.245738
2533.7	0.0796137
2535.08	-0.0859046
2536.45	0.265087
2537.83	0.12937
2539.2	0.281466
2540.58	0.205043
2541.95	0.0828285
2543.33	0.461604
2544.7	0.127954
2546.08	0.614476
2547.45	-0.111448
2548.82	-0.032783
2550.2	0.243232
2551.57	0.291284
2552.94	0.323395
2554.32	0.0663052
2555.69	-0.145928
2557.06	-0.176495
2558.43	-0.0555224
2559.8	0.277821
2561.18	0.414425
2562.55	0.218127
2563.92	0.0526533
2565.29	-0.188237
2566.66	-0.216785
2568.03	-0.0179362
2569.4	0.120307
2570.77	0.197935
2572.14	0.169495
2573.51	0.32302
2574.88	0.37052
2576.25	0.0845137
2577.61	0.192609
2578.98	-0.15436
2580.35	0.362668
2581.72	0.181852
2583.09	0.197841
2584.45	0.213624
2585.82	-0.225389
2587.19	-0.0731149
2588.55	0.139902
2589.92	0.201431
2591.29	0.111311
2592.65	-0.00948
2594.02	-0.282365
2595.38	0.140691
2596.75	-0.0731649
2598.11	0.0604892
2599.48	0.269273
2600.84	-0.066071
2602.21	-0.279831
2603.57	0.0354681
2604.93	-0.192272
2606.3	-0.148176
2607.66	-0.0289788
2609.02	0.330576
2610.39	0.251903
2611.75	0.232431
2613.11	0.031579
2614.47	-0.0643821
2615.83	-0.175364
2617.19	-0.300935
2618.56	0.00851202
2619.92	-0.130885
2621.28	-0.344237
2622.64	0.235048
2624	0.39564
2625.36	-0.14538
2626.72	0.372874
2628.08	-0.033762
2629.44	0.0513186
2630.8	0.00218821
2632.15	-0.0172262
2633.51	0.171301
2634.87	0.136858
2636.23	-0.105176
2637.59	0.186613
2638.94	0.0485911
2640.3	0.103239
2641.66	-0.211579
2643.02	0.124287
2644.37	0.10551
2645.73	0.381739
2647.09	-0.168305
2648.44	0.136265
2649.8	-0.0901403
2651.15	0.124361
2652.51	0.0591302
2653.86	0.0528917
2655.22	0.0179505
2656.57	-0.0599856
2657.93	-0.268616
2659.28	0.181983
2660.63	0.0768375
2661.99	0.205502
2663.34	-0.0608296
2664.69	0.475298
2666.05	0.251576
2667.4	0.129815
2668.75	0.153774
2670.1	0.323413
2671.45	0.275148
2672.81	0.358248
2674.16	0.412732
2675.51	0.278957
2676.86	-0.0718436
2678.21	0.114777
2679.56	-0.0750289
2680.91	0.0115304
2682.26	0.113544
2683.61	-0.0154643
2684.96	0.262384
2686.31	0.0329456
2687.66	-0.312896
2689	0.25477
2690.35	-0.224113
2691.7	-0.181813
2693.05	0.134907
2694.4	0.117013
2695.74	0.142462
2697.09	-0.048903
2698.44	0.0650125
2699.79	0.0354495
2701.13	-0.0361443
2702.48	0.0382891
2703.83	0.142603
2705.17	-0.0280199
2706.52	0.192862
2707.86	0.18155
2709.21	0.0537534
2710.55	0.0417237
2711.9	0.160205
2713.24	0.322232
2714.58	0.0918393
2715.93	0.268372
2717.27	0.255808
2718.62	0.184834
2719.96	0.0989647
2721.3	0.187332
2722.65	0.304425
2723.99	0.537577
2725.33	0.377357
2726.67	0.580693
2728.01	0.274337
2729.35	0.287982
2730.7	0.403349
2732.04	0.300427
2733.38	0.357615
2734.72	0.182208
2736.06	0.501507
2737.4	0.370024
2738.74	0.151274
2740.08	0.12139
2741.42	-0.0397387
2742.76	0.22024
2744.1	0.0580482
2745.43	0.229585
2746.77	-0.078589
2748.11	0.498772
2749.45	0.219636
2750.79	-0.204134
2752.12	-0.0329747
2753.46	0.138245
2754.8	-0.0527091
2756.14	-0.026186
2757.47	-0.0429873
2758.81	0.143087
2760.14	0.141244
2761.48	-0.0193772
2762.81	0.283453
2764.15	0.25372
2765.49	0.0648255
2766.82	0.251727
2768.16	0.235294
2769.49	0.0298266
2770.82	0.199078
2772.16	-0.138463
2773.49	0.187409
2774.82	0.0797749
2776.16	0.0155039
2777.49	0.00919867
2778.82	0.0752468
2780.16	0.184738
2781.49	-0.193911
2782.82	0.217321
2784.15	-0.189511
2785.48	0.292754
2786.82	-0.099143
2788.15	-0.20387
2789.48	-0.00740814
2790.81	0.232522
2792.14	-0.199059
2793.47	-0.115441
2794.8	-0.00324059
2796.13	0.45155
2797.46	-0.122821
2798.79	0.0309434
2800.12	-0.17257
2801.44	0.108898
2802.77	-0.166134
2804.1	0.0149207
2805.43	0.195412
2806.76	-0.22262
2808.08	-0.0716729
2809.41	-0.134472
2810.74	0.0726566
2812.07	0.194833
2813.39	0.26108
2814.72	0.144188
2816.05	0.141972
2817.37	-0.0293894
2818.7	-0.101041
2820.02	0.0399213
2821.35	-0.0179071
2822.67	0.207148
2824	0.23325
2825.32	0.0324125
2826.65	0.25654
2827.97	0.282789
2829.3	0.0830011
2830.62	0.195067
2831.94	0.278989
2833.26	0.490255
2834.59	0.20584
2835.91	0.529614
2837.23	0.499092
2838.56	0.623814
2839.88	0.493741
2841.2	0.448657
2842.52	0.615967
2843.84	0.783765
2845.16	0.824961
2846.48	1.03628
2847.8	1.19139
2849.12	1.04973
2850.45	1.07742
2851.77	1.3167
2853.08	1.30113
2854.4	1.25696
2855.72	1.55174
2857.04	1.83229
2858.36	1.75969
2859.68	1.91306
2861	1.93916
2862.32	1.85202
2863.63	2.52674
2864.95	2.5518
2866.27	2.81664
2867.59	2.85595
2868.9	3.07897
2870.22	3.55608
2871.54	3.20156
2872.85	3.62203
2874.17	3.37936
2875.48	3.36116
2876.8	3.77833
2878.11	3.60329
2879.43	3.56879
2880.74	3.82981
2882.06	3.44512
2883.37	3.31458
2884.69	3.6484
2886	3.8142
2887.31	3.67124
2888.63	3.83662
2889.94	3.34185
2891.25	3.65989
2892.57	4.0191
2893.88	3.5233
2895.19	4.07849
2896.5	3.97618
2897.82	4.02892
2899.13	3.76087
2900.44	4.01129
2901.75	3.64664
2903.06	4.20543
2904.37	3.7992
2905.68	4.49824
2906.99	4.63836
2908.3	4.5555
2909.61	4.36153
2910.92	5.06371
2912.23	5.38825
2913.54	5.09614
2914.85	5.44658
2916.16	5.64123
2917.46	5.62425
2918.77	5.71817
2920.08	6.00767
2921.39	6.38159
2922.7	6.18353
2924	6.4343
2925.31	6.63039
2926.62	6.74329
2927.92	6.66054
2929.23	6.94088
2930.54	6.56356
2931.84	6.84278
2933.15	6.9959
2934.45	6.95329
2935.76	6.75709
2937.06	6.75676
2938.37	6.75663
2939.67	7.05025
2940.98	6.4641
2942.28	6.45178
2943.58	6.14724
2944.89	6.03974
2946.19	5.68167
2947.49	5.47786
2948.8	5.23167
2950.1	5.1242
2951.4	4.79089
2952.7	4.84777
2954.01	4.93127
2955.31	4.72042
2956.61	4.79043
2957.91	4.54051
2959.21	4.40517
2960.51	4.48254
2961.81	4.6041
2963.11	4.72662
2964.41	3.85198
2965.71	4.11276
2967.01	4.17547
2968.31	4.251
2969.61	3.91803
2970.91	4.03487
2972.21	3.77222
2973.51	3.53793
2974.81	3.65542
2976.1	3.33591
2977.4	3.71916
2978.7	3.45307
2980	3.18538
2981.29	2.87439
2982.59	2.99914
2983.89	2.77264
2985.18	2.61761
2986.48	2.28139
2987.78	2.3541
2989.07	2.51206
2990.37	2.27681
2991.66	2.05516
2992.96	2.19798
2994.25	1.80567
2995.55	1.69349
2996.84	1.51054
2998.14	1.49598
2999.43	1.31335
3000.73	0.93505
3002.02	1.38453
3003.31	1.20356
3004.61	0.882725
3005.9	1.26208
3007.19	0.912725
3008.48	0.688903
3009.77	0.688319
3011.07	0.729035
3012.36	0.601807
3013.65	0.65615
3014.94	0.75261
3016.23	0.626678
3017.52	0.654727
3018.81	0.58582
3020.1	0.683967
3021.4	0.322988
3022.68	0.0729179
3023.97	0.419179
3025.26	0.306697
3026.55	0.277371
3027.84	0.262364
3029.13	0.193045
3030.42	0.539608
3031.71	0.679953
3033	0.255143
3034.28	0.410563
3035.57	-0.0553303
3036.86	0.222732
3038.15	0.168329
3039.43	0.0436912
3040.72	0.440368
3042.01	0.20388
3043.29	0.159921
3044.58	0.157893
3045.87	0.129932
3047.15	0.349766
3048.44	0.530381
3049.72	0.316937
3051.01	0.44614
3052.29	0.398693
3053.58	0.310375
3054.86	0.385281
3056.15	0.159279
3057.43	0.19159
3058.71	0.550228
3060	0.47255
3061.28	0.667474
3062.56	0.495855
3063.84	0.760709
3065.13	0.863742
3066.41	0.356295
3067.69	0.447929
3068.97	0.825569
3070.26	0.27828
3071.54	0.600696
3072.82	0.514082
3074.1	0.603192
3075.38	0.528404
3076.66	0.181855
3077.94	0.446843
3079.22	0.536189
3080.5	-0.159936
3081.78	0.122062
3083.06	0.364476
3084.34	0.0919929
3085.62	0.158809
3086.9	-0.222566
3088.18	0.142041
3089.45	0.112513
3090.73	0.00126171
3092.01	-0.0693011
3093.29	0.00955153
3094.56	0.07512
3095.84	-0.0759826
3097.12	-0.294668
3098.4	0.0695424
3099.67	-0.0406981
3100.95	0.0658579
3102.22	0.186013
3103.5	0.130397
3104.78	-0.236013
3106.05	0.115623
3107.33	-0.222154
3108.6	0.225885
3109.88	0.228298
3111.15	0.0555735
3112.43	0.235579
3113.7	0.0773921
3114.97	0.0275955
3116.25	0.0995078
3117.52	0.116594
3118.79	0.160015
3120.07	0.351785
3121.34	0.271628
3122.61	0.218204
3123.88	0.259589
3125.16	0.599034
3126.43	-0.0222645
3127.7	0.236843
3128.97	0.401596
3130.24	0.36383
3131.51	0.556053
3132.79	0.423825
3134.06	0.44005
3135.33	0.415405
3136.6	0.41741
3137.87	0.513453
3139.14	0.555233
3140.41	0.152756
3141.67	0.248689
3142.94	0.586624
3144.21	0.347233
3145.48	0.484435
3146.75	0.622077
3148.02	0.63963
3149.29	0.657761
