200.523	0.292867
202.339	0.295924
204.154	0.300516
205.967	-0.18014
207.781	-0.684182
209.596	0.513007
211.409	-0.453334
213.222	0.740704
215.034	0.622581
216.848	-0.0773401
218.659	0.362342
220.47	-0.0448151
222.281	0.323663
224.091	0.402735
225.903	-0.387454
227.713	0.29682
229.522	0.280146
231.331	0.359716
233.14	0.680381
234.948	0.470876
236.756	0.552281
238.566	0.346753
240.373	0.264413
242.18	-0.273713
243.986	-0.159494
245.792	-0.238138
247.598	0.261328
249.403	0.0100546
251.208	1.01145
253.013	0.127217
254.818	0.207164
256.624	-0.243558
258.427	-0.0904207
260.231	0.473928
262.034	-0.0679474
263.836	-0.0780525
265.638	-0.0388012
267.44	-0.0472574
269.242	-0.272811
271.043	0.609982
272.844	-0.340478
274.645	0.154465
276.445	-0.00298786
278.245	-0.282474
280.044	0.086813
281.843	0.357538
283.642	0.000897408
285.44	0.316342
287.238	0.222542
289.036	-0.0147743
290.833	0.348071
292.63	-0.628595
294.425	0.239467
296.221	-0.517587
298.017	0.232758
299.813	0.4337
301.608	0.085103
303.403	0.237406
305.198	-0.0172167
306.992	0.46701
308.786	0.640719
310.579	-0.0427542
312.371	0.204469
314.163	0.358072
315.956	0.823174
317.748	0.814043
319.54	0.592216
321.331	0.157005
323.122	0.318424
324.911	0.719172
326.701	0.762497
328.491	1.14023
330.281	0.394184
332.071	0.411618
333.857	0.140288
335.646	0.393284
337.434	0.237294
339.222	-0.0163355
341.008	0.661401
342.795	0.859782
344.582	0.580182
346.369	0.373061
348.153	0.644404
349.939	-0.0864172
351.724	0.853882
353.51	0.695596
355.292	-0.131536
357.077	0.352136
358.861	0.309795
360.643	0.361664
362.426	0.483981
364.21	0.676727
365.99	0.203296
367.773	0.703075
369.555	-0.2927
371.335	0.394438
373.116	0.369659
374.897	0.36825
376.676	0.603016
378.456	0.389877
380.236	0.319494
382.014	0.391694
383.793	0.394589
385.57	0.281306
387.349	0.263408
389.127	0.0352755
390.903	0.371923
392.681	0.333616
394.456	0.55429
396.233	0.634501
398.007	-0.224601
399.784	0.536718
401.56	0.170256
403.333	0.601765
405.108	0.11657
406.881	0.5231
408.656	1.21066
410.428	0.677047
412.202	0.214147
413.973	-0.060421
415.746	0.533946
417.517	0.167117
419.29	0.763062
421.06	-0.0488043
422.831	0.336061
424.601	0.321227
426.37	0.422877
428.141	0.00726509
429.909	-0.338305
431.679	-0.0500975
433.447	0.426154
435.216	0.480319
436.983	-0.0053339
438.75	0.775669
440.519	0.592947
442.285	0.103335
444.052	0.760738
445.818	0.642338
447.583	0.148454
449.349	0.403266
451.114	1.03156
452.878	0.562035
454.643	0.466718
456.407	0.0685701
458.169	0.975026
459.934	0.228032
461.696	0.761789
463.458	0.180984
465.222	0.369802
466.983	0.0270243
468.744	-0.0575848
470.507	1.16189
472.267	0.707911
474.027	1.57975
475.787	1.28584
477.548	1.71157
479.307	1.71598
481.065	1.67273
482.823	1.67629
484.583	1.37845
486.341	1.36222
488.098	1.27842
489.855	0.636963
491.612	0.929388
493.37	1.38659
495.126	0.862577
496.881	1.71865
498.636	0.888963
500.391	1.04227
502.148	0.279779
503.902	0.854054
505.656	1.07537
507.409	0.213717
509.162	0.902431
510.915	0.719259
512.668	1.05209
514.42	-0.0519638
516.174	0.842566
517.925	0.982828
519.676	1.23946
521.427	1.04865
523.178	0.740107
524.928	1.13579
526.678	0.405053
528.427	0.589492
530.176	0.75019
531.925	0.348182
533.673	0.741648
535.422	0.38491
537.169	-0.229709
538.917	-0.0741072
540.664	0.546421
542.411	0.139894
544.157	-0.12645
545.903	0.606918
547.649	0.155139
549.395	0.145082
551.14	0.251032
552.884	0.449441
554.629	0.786248
556.373	0.5456
558.117	0.42112
559.86	0.550793
561.603	0.634773
563.346	0.213188
565.089	0.413389
566.831	0.545055
568.573	0.470768
570.314	0.282889
572.053	0.532398
573.794	0.622914
575.534	0.325246
577.274	0.511018
579.014	0.583459
580.754	0.656729
582.493	0.316522
584.23	0.826066
585.968	0.690993
587.706	0.209472
589.444	0.393784
591.181	0.324106
592.919	0.0698423
594.653	0.758726
596.39	0.3663
598.126	0.526
599.862	0.547276
601.595	0.314651
603.33	-0.0111513
605.065	0.121611
606.8	-0.505259
608.532	0.33749
610.266	0.605357
611.999	0.575228
613.732	0.224951
615.463	0.631928
617.196	0.580553
618.928	0.253854
620.66	0.223934
622.389	-0.0359221
624.12	0.138057
625.851	-0.487703
627.58	-0.0158567
629.31	-0.0902967
631.04	0.407973
632.767	0.0182743
634.497	0.793465
636.223	0.769587
637.952	0.150387
639.68	0.441553
641.406	0.0680952
643.134	0.627142
644.861	0.728606
646.586	0.193345
648.312	0.342695
650.037	-0.027607
651.762	-0.257806
653.486	0.492949
655.211	0.451673
656.936	0.230397
658.659	0.00954533
660.383	0.152894
662.105	0.2036
663.829	0.183575
665.55	0.412666
667.273	0.251265
668.994	0.249186
670.716	0.247849
672.436	0.523016
674.158	0.503168
675.877	1.17303
677.598	0.629367
679.317	0.452196
681.035	0.48059
682.755	-0.136951
684.473	0.324649
686.192	0.623514
687.909	0.299096
689.628	0.296007
691.344	-0.0533257
693.06	0.218671
694.778	0.443819
696.493	0.598837
698.211	0.867663
699.925	0.559762
701.64	0.434989
703.356	0.332397
705.07	0.252227
706.783	0.928977
708.498	0.343029
710.211	1.22402
711.924	0.798276
713.638	1.44792
715.35	0.95362
717.061	0.597138
718.774	0.629135
720.485	0.797992
722.196	0.351887
723.906	0.930396
725.618	0.734874
727.328	0.448555
729.037	0.797687
730.746	1.32705
732.456	0.541451
734.165	0.752692
735.873	1.12176
737.58	0.835671
739.289	1.02451
740.997	0.605408
742.703	1.24679
744.41	1.21337
746.116	1.24893
747.823	0.655965
749.529	0.986774
751.234	1.45374
752.938	1.22477
754.643	1.13212
756.347	0.905877
758.051	1.5591
759.756	0.952838
761.459	1.13599
763.162	1.54555
764.865	1.43607
766.567	1.39304
768.269	1.48372
769.97	1.48178
771.671	2.13356
773.372	1.20096
775.073	1.6473
776.773	1.73239
778.473	1.54748
780.174	1.45452
781.874	1.27211
783.573	1.99497
785.271	1.24561
786.97	1.89722
788.668	1.70802
790.365	1.96796
792.063	1.72751
793.76	1.41811
795.456	1.51506
797.153	1.68038
798.847	1.05891
800.543	1.20523
802.238	1.39778
803.933	1.09606
805.628	1.7835
807.322	1.68307
809.017	1.60398
810.71	1.95016
812.404	1.91367
814.097	1.36134
815.79	0.921595
817.483	0.974615
819.173	1.49693
820.865	1.34863
822.556	1.91493
824.248	1.70086
825.939	1.80048
827.629	1.63493
829.318	1.85086
831.008	1.86945
832.697	1.53449
834.387	1.66947
836.076	1.58253
837.765	1.58454
839.451	1.96495
841.139	2.0313
842.827	2.02926
844.514	1.82561
846.2	0.862639
847.886	2.58403
849.573	2.00529
851.259	1.67466
852.943	1.47985
854.629	1.71191
856.314	2.37106
857.997	1.92854
859.682	1.50599
861.366	0.78825
863.05	1.26215
864.732	1.26191
866.415	1.14802
868.098	1.43933
869.779	1.57242
871.461	1.36686
873.141	1.31896
874.823	1.29353
876.505	0.907025
878.184	0.791268
879.865	0.381922
881.545	0.401062
883.223	1.25481
884.903	0.865847
886.581	1.46867
888.26	1.07683
889.937	1.40535
891.616	1.1235
893.294	0.908257
894.97	0.872213
896.648	0.542939
898.323	0.640026
900	0.848129
901.675	0.539704
903.351	1.19361
905.026	0.77306
906.701	1.35814
908.375	1.36285
910.05	1.12348
911.723	1.35268
913.398	1.09319
915.07	1.30081
916.742	0.576435
918.415	1.93649
920.087	1.01366
921.76	1.48667
923.43	1.71696
925.103	1.52895
926.773	1.27684
928.443	1.57844
930.114	0.821939
931.783	1.96383
933.454	1.40703
935.123	1.57845
936.791	1.19892
938.461	1.34962
940.128	1.56777
941.796	0.993058
943.464	1.0146
945.131	1.27876
946.797	0.989965
948.465	1.49393
950.131	0.848212
951.797	0.753188
953.462	0.503937
955.128	0.8517
956.793	0.937568
958.457	0.651692
960.121	0.434473
961.786	1.38915
963.45	0.421882
965.113	0.778785
966.775	0.159856
968.44	0.511618
970.102	0.794976
971.763	0.0378418
973.425	0.121805
975.086	0.0744438
976.748	-0.148161
978.409	0.183568
980.069	0.327991
981.729	0.472095
983.388	0.227521
985.048	0.0917568
986.708	0.109008
988.367	0.456427
990.025	0.846557
991.683	0.705239
993.341	0.608099
994.998	0.798123
996.655	0.0614815
998.312	1.4423
999.969	0.771971
1001.62	1.42334
1003.28	0.775031
1004.94	0.918954
1006.59	0.513182
1008.25	0.371633
1009.9	0.625583
1011.56	0.375261
1013.21	-0.115374
1014.86	0.292965
1016.52	0.438546
1018.17	0.168765
1019.82	0.687352
1021.48	0.878636
1023.13	0.568213
1024.78	0.892637
1026.43	0.6057
1028.08	1.03986
1029.73	0.75233
1031.38	0.965993
1033.03	1.48347
1034.68	0.973249
1036.33	0.505896
1037.98	1.21478
1039.63	1.37831
1041.28	0.955051
1042.93	1.18583
1044.57	0.657777
1046.22	1.04431
1047.87	0.759406
1049.52	0.932261
1051.16	1.28019
1052.81	0.608016
1054.45	0.653001
1056.1	1.41525
1057.75	0.329686
1059.39	0.439097
1061.04	0.808835
1062.68	0.655944
1064.32	0.697816
1065.97	1.04297
1067.61	0.713108
1069.25	0.860435
1070.9	0.941837
1072.54	0.719163
1074.18	1.2132
1075.82	0.840365
1077.47	1.37992
1079.11	0.684614
1080.75	1.09604
1082.39	1.29058
1084.03	1.00714
1085.67	1.00389
1087.31	0.998522
1088.95	1.46736
1090.59	0.981683
1092.22	0.819862
1093.86	0.398697
1095.5	1.12198
1097.14	0.745493
1098.78	0.974122
1100.41	0.94597
1102.05	1.04893
1103.69	0.658905
1105.32	0.463934
1106.96	0.914783
1108.59	1.15015
1110.23	1.40577
1111.86	0.928793
1113.5	1.26683
1115.13	1.23821
1116.77	1.14465
1118.4	1.05137
1120.03	1.6659
1121.67	1.36012
1123.3	1.56945
1124.93	1.41599
1126.56	1.43467
1128.19	1.41143
1129.83	0.875827
1131.46	1.21749
1133.09	1.26011
1134.72	1.1957
1136.35	0.852766
1137.98	0.701184
1139.61	0.762051
1141.24	0.715094
1142.86	1.0731
1144.49	0.535151
1146.12	0.275556
1147.75	0.848231
1149.38	0.761001
1151	-0.135086
1152.63	0.821886
1154.26	0.756137
1155.88	0.604886
1157.51	1.13442
1159.14	-0.101297
1160.76	0.535719
1162.39	-0.102066
1164.01	0.303014
1165.63	0.113245
1167.26	0.497271
1168.88	0.199858
1170.51	-0.0353518
1172.13	0.00391674
1173.75	0.253738
1175.38	0.0352888
1177	0.219452
1178.62	0.085824
1180.24	-0.13159
1181.86	0.0117569
1183.48	0.113288
1185.1	-0.165612
1186.72	0.251712
1188.34	-0.324802
1189.96	-0.101198
1191.58	0.267456
1193.2	-0.102112
1194.82	0.368313
1196.44	0.27144
1198.06	0.364202
1199.68	0.165713
1201.29	1.07732
1202.91	0.841944
1204.53	0.526064
1206.14	-0.0586891
1207.76	0.150768
1209.38	0.673314
1210.99	0.840309
1212.61	0.359132
1214.22	-0.102983
1215.84	-0.0460806
1217.45	0.591439
1219.07	0.520198
1220.68	0.449006
1222.29	1.14595
1223.91	0.682659
1225.52	0.221646
1227.13	0.424874
1228.74	0.815423
1230.36	0.690062
1231.97	0.628008
1233.58	1.06323
1235.19	0.362964
1236.8	0.573291
1238.41	1.07412
1240.02	1.20364
1241.63	1.25067
1243.24	1.19392
1244.85	1.32256
1246.46	0.891436
1248.07	0.500659
1249.67	0.709218
1251.28	0.813991
1252.89	1.12583
1254.5	1.10743
1256.1	1.29701
1257.71	1.40518
1259.32	1.41116
1260.92	1.45948
1262.53	1.48762
1264.13	0.542139
1265.74	1.46064
1267.34	0.368259
1268.95	0.953785
1270.55	0.709046
1272.15	1.12673
1273.76	0.755486
1275.36	1.15029
1276.97	0.984455
1278.57	0.880039
1280.17	0.505917
1281.77	1.29082
1283.37	1.16493
1284.97	0.336619
1286.58	1.18424
1288.18	0.399709
1289.78	0.463609
1291.38	1.23053
1292.98	0.757517
1294.58	1.60597
1296.18	1.31681
1297.78	0.922961
1299.37	1.5181
1300.97	1.26564
1302.57	1.09469
1304.17	1.29347
1305.77	1.73782
1307.36	1.76999
1308.96	1.02222
1310.55	1.71054
1312.15	1.88603
1313.75	2.26652
1315.34	2.05488
1316.94	1.78338
1318.53	2.02292
1320.13	1.71153
1321.72	1.54223
1323.32	2.24656
1324.91	2.11412
1326.5	1.83836
1328.1	2.51554
1329.69	2.15905
1331.28	2.3917
1332.87	2.5658
1334.47	2.84313
1336.06	2.13325
1337.65	2.73564
1339.24	2.36905
1340.83	2.00105
1342.42	2.57704
1344.01	2.74757
1345.6	1.87258
1347.19	1.60143
1348.78	2.15392
1350.37	1.78753
1351.96	1.68443
1353.54	1.90351
1355.13	1.68413
1356.72	1.96479
1358.31	2.40461
1359.89	1.9245
1361.48	2.04239
1363.07	1.66056
1364.65	1.45822
1366.24	1.45563
1367.82	1.21494
1369.41	2.15018
1370.99	1.11622
1372.58	1.0989
1374.16	1.1822
1375.75	1.18658
1377.33	1.29055
1378.91	1.23479
1380.5	1.21776
1382.08	1.61711
1383.66	1.75632
1385.25	1.31794
1386.83	1.83309
1388.41	2.1295
1389.99	1.23546
1391.57	0.938286
1393.15	1.17769
1394.73	1.59587
1396.31	1.20066
1397.89	1.49871
1399.47	1.63696
1401.05	1.77405
1402.63	1.1978
1404.21	1.71022
1405.78	1.31312
1407.36	1.2928
1408.94	1.72783
1410.52	1.31378
1412.1	1.76874
1413.67	0.900224
1415.25	0.820694
1416.82	1.0362
1418.4	1.52702
1419.98	1.15094
1421.55	1.40642
1423.13	1.60432
1424.7	1.41026
1426.28	0.213755
1427.85	1.00565
1429.42	1.00998
1431	1.28891
1432.57	1.78304
1434.14	2.2169
1435.71	1.56836
1437.29	1.62823
1438.86	1.49229
1440.43	1.75052
1442	1.8132
1443.57	2.40724
1445.14	2.29422
1446.71	1.31652
1448.28	2.16696
1449.85	2.03491
1451.42	2.31624
1452.99	1.6346
1454.56	1.7399
1456.13	2.37643
1457.7	2.55985
1459.26	1.93496
1460.83	2.27247
1462.4	1.6438
1463.97	1.85942
1465.54	1.54301
1467.1	2.09089
1468.67	1.49988
1470.23	0.812261
1471.8	1.00907
1473.36	0.755736
1474.93	1.03272
1476.49	0.623788
1478.06	0.332685
1479.62	0.335616
1481.19	0.789236
1482.75	0.791919
1484.31	0.735674
1485.88	0.404824
1487.44	0.484639
1489	1.09167
1490.56	0.874429
1492.13	0.459758
1493.69	0.766345
1495.25	0.29015
1496.81	0.301172
1498.37	0.000619888
1499.93	-0.143176
1501.49	0.122017
1503.05	0.542888
1504.61	0.653816
1506.17	0.977699
1507.73	0.178713
1509.28	0.0757666
1510.84	0.415726
1512.4	0.52277
1513.96	0.0710526
1515.52	0.274179
1517.07	-0.405679
1518.63	0.0289145
1520.19	0.0991745
1521.74	-0.155808
1523.3	-0.181211
1524.85	0.365403
1526.41	0.452107
1527.96	-0.0716152
1529.52	0.755528
1531.07	0.839854
1532.63	0.772807
1534.18	0.51749
1535.73	0.301641
1537.29	0.200555
1538.84	0.496682
1540.39	0.62289
1541.94	0.598238
1543.5	0.705256
1545.05	0.623854
1546.6	0.57996
1548.15	-0.00811768
1549.7	0.642002
1551.25	0.504587
1552.8	0.573709
1554.35	0.774473
1555.9	1.0697
1557.45	0.414424
1559	0.190792
1560.55	1.01377
1562.1	0.662936
1563.65	1.50718
1565.19	0.61692
1566.74	0.379642
1568.29	0.590004
1569.83	0.40805
1571.38	0.524371
1572.93	1.49911
1574.47	0.532321
1576.02	0.778928
1577.56	0.72706
1579.11	1.01165
1580.66	1.35294
1582.2	1.56443
1583.74	1.42195
1585.29	1.3549
1586.83	1.10132
1588.38	1.61454
1589.92	1.19234
1591.46	1.2935
1593.01	1.30061
1594.55	1.60712
1596.09	1.12694
1597.63	1.13417
1599.17	1.36709
1600.71	1.46961
1602.25	1.64777
1603.79	1.4505
1605.34	1.36503
1606.88	1.61635
1608.41	1.80934
1609.95	0.928589
1611.49	1.26715
1613.03	1.15274
1614.57	0.980865
1616.11	1.31519
1617.65	0.843603
1619.18	1.17927
1620.72	1.08543
1622.26	1.10534
1623.79	0.807788
1625.33	1.35265
1626.87	0.979503
1628.4	1.20393
1629.94	0.454386
1631.48	1.25581
1633.01	1.38351
1634.55	1.04472
1636.08	1.11756
1637.61	1.67614
1639.15	0.743497
1640.68	1.41426
1642.21	0.85434
1643.75	1.54136
1645.28	1.12848
1646.81	1.10572
1648.34	1.28709
1649.88	1.22723
1651.41	1.29833
1652.94	1.50044
1654.47	1.27709
1656	0.998919
1657.53	0.776416
1659.06	1.36823
1660.59	1.77304
1662.12	1.39888
1663.65	1.37531
1665.18	0.83406
1666.71	1.64124
1668.24	1.1021
1669.76	1.1365
1671.29	1.13551
1672.82	1.33822
1674.35	1.00723
1675.87	0.878662
1677.4	0.730971
1678.93	0.398384
1680.45	1.03956
1681.98	0.889147
1683.5	1.34454
1685.03	1.02872
1686.55	0.89705
1688.08	1.33414
1689.6	0.745325
1691.13	0.523533
1692.65	0.155626
1694.17	0.665978
1695.7	0.901408
1697.22	0.478557
1698.74	0.366267
1700.27	0.326689
1701.79	0.41431
1703.31	0.246107
1704.83	0.696745
1706.35	0.454806
1707.87	0.594751
1709.39	0.570893
1710.91	0.565311
1712.43	0.650569
1713.95	0.445962
1715.47	0.0788298
1716.99	0.508058
1718.51	0.448492
1720.03	0.118096
1721.55	-0.157463
1723.07	0.57752
1724.58	0.0513153
1726.1	0.42732
1727.62	0.408291
1729.13	0.0483198
1730.65	0.210536
1732.17	0.387416
1733.68	0.3696
1735.2	0.626985
1736.72	0.576565
1738.23	0.564626
1739.74	0.266641
1741.26	0.176334
1742.77	-0.355552
1744.29	-0.0116806
1745.8	-0.139804
1747.32	0.031806
1748.83	0.0330772
1750.34	0.284162
1751.85	-0.211176
1753.37	0.313243
1754.88	0.233991
1756.39	-0.0892229
1757.9	0.0215111
1759.41	0.204737
1760.92	0.344892
1762.44	0.182273
1763.95	-0.0624733
1765.46	0.102091
1766.96	-0.0674391
1768.47	0.239333
1769.98	-0.00409698
1771.49	-0.0809116
1773	0.539313
1774.51	0.216737
1776.02	-0.184805
1777.53	-0.316034
1779.03	0.0262089
1780.54	0.0055542
1782.05	0.118535
1783.55	0.0459871
1785.06	-0.310428
1786.57	0.317563
1788.07	-0.0247154
1789.58	-0.0800419
1791.08	0.220425
1792.59	-0.131192
1794.09	0.217095
1795.6	-0.0329914
1797.1	-0.0618677
1798.61	0.213681
1800.11	0.0866718
1801.61	0.0396404
1803.12	0.121991
1804.62	-0.0334377
1806.12	0.205026
1807.62	0.0806341
1809.12	-0.060689
1810.63	0.0343628
1812.13	0.0214233
1813.63	0.134917
1815.13	-0.138534
1816.63	-0.168634
1818.13	-0.0387764
1819.63	0.142619
1821.13	0.381418
1822.63	0.19058
1824.13	-0.173573
1825.63	0.200954
1827.13	0.0468349
1828.62	-0.107588
1830.12	0.161253
1831.62	0.0429211
1833.12	0.304551
1834.61	0.0751762
1836.11	-0.137102
1837.61	0.297018
1839.1	0.33255
1840.6	-0.169017
1842.09	0.071723
1843.59	0.255907
1845.09	0.159888
1846.58	-0.0206966
1848.08	0.0126104
1849.57	0.0538406
1851.06	-0.122559
1852.56	0.0519218
1854.05	0.056242
1855.54	0.279497
1857.04	0.341967
1858.53	0.205284
1860.02	-0.00986195
1861.51	-0.13216
1863.01	0.360062
1864.5	0.0879393
1865.99	-0.107416
1867.48	0.0530624
1868.97	0.0791941
1870.46	0.371538
1871.95	-0.0539026
1873.44	0.161998
1874.93	0.101415
1876.42	0.0964565
1877.91	-0.0414019
1879.4	0.0102434
1880.89	0.15172
1882.37	-0.182001
1882.46	-0.204242
1883.95	0.317548
1885.45	0.10628
1886.94	0.503937
1888.43	0.204305
1889.93	0.357512
1891.42	0.441984
1892.91	0.110751
1894.41	-0.218561
1895.9	-0.250791
1897.39	-0.160451
1898.88	0.312561
1900.37	0.106248
1901.86	-0.0146866
1903.36	-0.015583
1904.85	-0.0874557
1906.34	0.0136824
1907.83	-0.197927
1909.32	0.233466
1910.81	0.0234432
1912.29	0.126697
1913.78	0.0223646
1915.27	-0.272562
1916.76	0.143142
1918.25	0.142135
1919.74	0.400573
1921.23	0.0698118
1922.71	-0.087204
1924.2	0.570389
1925.69	-0.0174303
1927.17	0.0190639
1928.66	0.0216017
1930.15	0.128043
1931.63	0.285691
1933.12	-0.146828
1934.6	-0.0442524
1936.09	0.246904
1937.57	0.259859
1939.06	0.15134
1940.54	-0.388462
1942.02	-0.426348
1943.51	-0.135456
1944.99	-0.53371
1946.47	-0.0521336
1947.96	0.0670404
1949.44	0.0303726
1950.92	0.0788565
1952.4	0.229605
1953.88	0.431151
1955.37	0.271451
1956.85	-0.0937386
1958.33	0.142881
1959.81	-0.237577
1961.29	-0.154174
1962.77	0.375026
1964.25	0.0126934
1965.73	0.711956
1967.21	0.331501
1968.69	0.13897
1970.16	-0.0368042
1971.64	-0.19552
1973.12	0.226256
1974.6	0.221111
1976.08	0.233195
1977.55	-0.18038
1979.03	0.189693
1980.51	-0.138171
1981.98	-0.00679016
1983.46	0.022212
1984.94	0.373341
1986.41	0.35054
1987.89	-0.129827
1989.36	0.305299
1990.84	0.114311
1992.31	0.14436
1993.79	0.395155
1995.26	-0.130782
1996.73	0.138104
1998.21	0.00148392
1999.68	-0.0847979
2001.15	0.149036
2002.63	-0.0563812
2004.1	0.00798607
2005.57	0.106304
2007.04	-0.114779
2008.51	0.271397
2009.99	0.18687
2011.46	0.203916
2012.93	-0.149253
2014.4	0.0694685
2015.87	0.220059
2017.34	-0.101253
2018.81	0.165271
2020.28	0.0949383
2021.75	0.00772285
2023.21	0.139111
2024.68	0.120134
2026.15	0.387487
2027.62	0.169793
2029.09	0.12133
2030.56	0.158065
2032.02	-0.139826
2033.49	0.200496
2034.96	0.238789
2036.42	0.444734
2037.89	-0.0722656
2039.36	0.0487537
2040.82	0.0688915
2042.29	0.139842
2043.75	0.699324
2045.22	0.0822868
2046.68	0.155685
2048.14	0.0947285
2049.61	0.370493
2051.07	0.190292
2052.54	-0.0252581
2054	0.499458
2055.46	0.212918
2056.93	0.144273
2058.39	0.125418
2059.85	0.123232
2061.31	0.256129
2062.77	0.271908
2064.23	0.187702
2065.7	-0.181579
2067.16	-0.0114937
2068.62	0.142369
2070.08	0.262929
2071.54	0.21524
2073	0.335783
2074.46	0.152991
2075.92	0.289812
2077.38	0.426282
2078.83	0.478153
2080.29	-0.0261126
2081.75	-0.194071
2083.21	0.277055
2084.67	0.0740938
2086.12	0.25745
2087.58	-0.0980206
2089.04	0.285906
2090.49	0.131719
2091.95	0.078352
2093.41	0.310224
2094.86	-0.229845
2096.32	0.21912
2097.77	0.0471506
2099.23	-0.208868
2100.68	0.0703306
2102.14	0.449543
2103.59	0.545135
2105.05	-0.20928
2106.5	-0.194243
2107.95	0.138696
2109.41	0.088315
2110.86	-0.0125246
2112.31	0.352047
2113.76	-0.0681229
2115.21	0.492503
2116.67	0.00387764
2118.12	-0.101591
2119.57	-0.13929
2121.02	0.0239153
2122.47	-0.176036
2123.92	0.305365
2125.37	0.206993
2126.82	0.0586948
2128.27	0.125017
2129.72	0.0574408
2131.17	-0.0609999
2132.62	0.23374
2134.07	0.11449
2135.51	0.111827
2136.96	-0.4184
2138.41	0.408423
2139.86	0.0305319
2141.31	0.0177536
2142.75	-0.241948
2144.2	0.143936
2145.65	-0.1648
2147.09	0.337234
2148.54	0.342182
2149.98	0.130952
2151.43	0.117547
2152.87	-0.145325
2154.32	0.303507
2155.76	0.205113
2157.21	0.421523
2158.65	0.456344
2160.1	0.210785
2161.54	0.430735
2162.98	0.138648
2164.43	0.0633411
2165.87	0.0551443
2167.31	0.17981
2168.75	0.1541
2170.2	0.575804
2171.64	0.346998
2173.08	0.532186
2174.52	-0.182205
2175.96	0.250572
2177.4	-0.0482569
2178.84	0.235555
2180.28	-0.227911
2181.72	-0.092062
2183.16	0.24392
2184.6	-0.184816
2186.04	0.134974
2187.48	-0.0775414
2188.92	0.0261087
2190.36	0.246307
2191.79	0.366457
2193.23	0.169624
2194.67	0.371163
2196.11	0.421148
2197.54	0.336105
2198.98	0.415788
2200.42	-0.269966
2201.85	0.389948
2203.29	0.236529
2204.72	0.200387
2206.16	0.330995
2207.59	0.147253
2209.03	-0.235186
2210.46	0.193081
2211.9	-0.0747976
2213.33	0.169392
2214.77	-0.0163698
2216.2	-0.00328159
2217.63	-0.00567722
2219.07	0.207455
2220.5	-0.00736618
2221.93	-0.20542
2223.36	-0.0579643
2224.8	0.318654
2226.23	-0.0308447
2227.66	0.128329
2229.09	0.236694
2230.52	-0.0168695
2231.95	0.287077
2233.39	0.394156
2234.81	0.370905
2236.25	0.12009
2237.67	-0.194136
2239.1	0.0811577
2240.53	0.16236
2241.96	0.0332279
2243.39	0.0194721
2244.82	0.21814
2246.25	-0.0241632
2247.68	0.172477
2249.1	0.155052
2250.53	0.26586
2251.96	0.3585
2253.38	-0.330485
2254.81	0.0868464
2256.24	-0.0309582
2257.66	-0.000414848
2259.09	0.130095
2260.51	0.149797
2261.94	-0.0391541
2263.36	-0.259245
2264.79	0.122031
2266.21	0.113195
2267.64	0.00600338
2269.06	0.0280466
2270.49	0.423751
2271.91	0.412084
2273.33	-0.251225
2274.76	-0.0676908
2276.18	-0.291224
2277.6	0.00682545
2279.02	0.0931702
2280.44	0.0979738
2281.87	0.0048027
2283.29	-0.186394
2284.71	0.160859
2286.13	0.0351248
2287.55	-0.0903406
2288.97	0.274518
2290.39	0.0844936
2291.81	-0.0400324
2293.23	-0.16455
2294.65	0.103479
2296.07	0.420767
2297.49	0.132382
2298.91	0.155055
2300.33	0.325422
2301.74	0.381436
2303.16	-0.218434
2304.58	-0.277112
2306	0.0418167
2307.41	0.278594
2308.83	0.153429
2310.25	0.274254
2311.66	0.246717
2313.08	-0.142876
2314.5	0.290603
2315.91	0.165251
2317.33	-0.173645
2318.74	0.0644722
2320.16	-0.0436954
2321.57	-0.185964
2322.98	0.52817
2324.4	0.480972
2325.81	0.415036
2327.23	0.314477
2328.64	0.26267
2330.05	0.0792875
2331.46	0.292039
2332.88	-0.251386
2334.29	0.0290203
2335.7	-0.0852613
2337.11	-0.00252151
2338.52	0.0463858
2339.94	0.143457
2341.35	0.321602
2342.76	0.0394802
2344.17	-0.0127134
2345.58	0.246799
2346.99	0.0803995
2348.4	-0.216716
2349.81	0.336867
2351.22	0.0879393
2352.62	0.165129
2354.03	0.0617628
2355.44	0.0394316
2356.85	0.130785
2358.26	-0.363654
2359.67	-0.272011
2361.07	-0.115549
2362.48	0.0567837
2363.89	0.212456
2365.29	-0.19854
2366.7	-0.188289
2368.11	0.306849
2369.51	-0.423954
2370.92	0.0888233
2372.32	0.23166
2373.73	-0.0272398
2375.13	0.293955
2376.54	0.147944
2377.94	-0.0632458
2379.35	-0.0827808
2380.75	0.0406322
2382.15	0.226573
2383.56	0.347104
2384.96	0.0671549
2386.36	-0.0120373
2387.76	-0.313676
2389.17	-0.095418
2390.57	-0.00383282
2391.97	0.247936
2393.37	0.420823
2394.77	0.101324
2396.17	0.0212526
2397.58	0.00540829
2398.98	-0.184664
2400.38	-0.00880909
2401.78	0.0878639
2403.18	0.438656
2404.58	0.1856
2405.97	-0.0205212
2407.37	0.137561
2408.77	0.0568333
2410.17	0.0075407
2411.57	0.227812
2412.97	0.0368805
2414.37	0.227243
2415.76	-0.135129
2417.16	-0.100448
2418.56	-0.0490561
2419.95	-0.123982
2421.35	-0.0406332
2422.75	0.216679
2424.14	0.267807
2425.54	0.271436
2426.93	0.370634
2428.33	0.565829
2429.72	0.159438
2431.12	0.16593
2432.51	0.648823
2433.91	0.337584
2435.3	-0.05439
2436.7	0.171723
2438.09	0.428157
2439.48	0.127257
2440.88	0.540203
2442.27	0.364951
2443.66	0.18953
2445.05	0.156821
2446.44	-0.177258
2447.84	-0.0674458
2449.23	0.438251
2450.62	0.468698
2452.01	0.420487
2453.4	0.104065
2454.79	0.484698
2456.18	0.470449
2457.57	-0.0180025
2458.96	0.315948
2460.35	-0.141449
2461.74	0.112062
2463.13	0.0801573
2464.52	-0.157694
2465.91	0.0307484
2467.29	-0.0178661
2468.68	0.0597296
2470.07	-0.0995054
2471.46	-0.0698509
2472.85	-0.214155
2474.23	0.0660629
2475.62	0.14074
2477.01	-0.0365667
2478.39	0.226079
2479.78	0.0490532
2481.16	0.342865
2482.55	0.651824
2483.93	0.00486755
2485.32	0.155886
2486.7	-0.0694571
2488.09	-0.108077
2489.47	0.164368
2490.86	0.295852
2492.24	0.00773907
2493.62	0.14054
2495.01	-0.191054
2496.39	0.130109
2497.77	0.110847
2499.15	0.231197
2500.54	0.320138
2501.92	-0.132752
2503.3	-0.0762157
2504.68	0.0102034
2506.06	-0.181529
2507.45	-0.00370026
2508.83	-0.287408
2510.21	0.0902567
2511.59	-0.13063
2512.97	0.293431
2514.35	-0.155453
2515.73	0.223663
2517.11	-0.131227
2518.48	0.0499096
2519.86	0.0476532
2521.24	0.67135
2522.62	0.316791
2524	-0.0838795
2525.38	-0.0426607
2526.75	-0.0170212
2528.13	0.130646
2529.51	0.248695
2530.89	-0.163846
2532.26	0.0788431
2533.64	0.140427
2535.02	-0.161909
2536.39	-0.0388641
2537.77	0.113941
2539.14	-0.129091
2540.52	0.0675192
2541.89	0.0966616
2543.27	0.00462818
2544.64	0.201624
2546.01	0.369387
2547.39	0.128785
2548.76	0.177203
2550.14	0.149883
2551.51	0.106935
2552.88	0.472869
2554.25	0.306605
2555.63	0.0332804
2557	-0.103964
2558.37	0.228782
2559.74	0.0158329
2561.11	-0.060123
2562.49	-0.0748496
2563.86	-0.0132618
2565.23	0.00326824
2566.6	0.110958
2567.97	0.0823374
2569.34	0.0537157
2570.71	0.206956
2572.08	0.0419283
2573.45	0.19528
2574.82	-0.0302629
2576.18	0.411269
2577.55	-0.117586
2578.92	0.126586
2580.29	0.233963
2581.66	-0.00781441
2583.02	0.159429
2584.39	-0.386124
2585.76	-0.00697613
2587.13	-0.0825157
2588.49	-0.142721
2589.86	0.130586
2591.22	-0.202404
2592.59	0.0400124
2593.96	0.0392075
2595.32	0.234287
2596.69	0.186004
2598.05	0.0461979
2599.42	0.19342
2600.78	0.189434
2602.14	0.0801935
2603.51	0.00187778
2604.87	0.120331
2606.23	0.163471
2607.6	0.462625
2608.96	0.172885
2610.32	0.349229
2611.69	0.192887
2613.05	0.125862
2614.41	0.193385
2615.77	0.275481
2617.13	0.117745
2618.49	-0.114021
2619.86	0.209023
2621.22	0.143484
2622.58	0.108435
2623.94	0.0139208
2625.3	-0.229744
2626.66	0.361777
2628.02	0.192134
2629.37	0.454244
2630.73	-0.0133209
2632.09	0.188715
2633.45	0.0190105
2634.81	0.235443
2636.17	0.392159
2637.53	0.415226
2638.88	-0.331659
2640.24	0.269116
2641.6	0.248273
2642.96	0.124315
2644.31	0.177851
2645.67	0.172226
2647.02	0.210446
2648.38	-0.105587
2649.74	0.0196352
2651.09	0.0557232
2652.45	0.13546
2653.8	-0.0342107
2655.16	-0.0269861
2656.51	0.142358
2657.86	0.107654
2659.22	0.0592346
2660.57	0.245223
2661.93	-0.124453
2663.28	0.279843
2664.63	0.376302
2665.98	-0.0240669
2667.34	0.0857878
2668.69	-0.081337
2670.04	0.0575962
2671.39	-0.123072
2672.75	-0.0994859
2674.09	0.316756
2675.45	0.123481
2676.8	0.119541
2678.15	0.232254
2679.5	0.447198
2680.85	0.0106735
2682.2	-0.323184
2683.55	0.083519
2684.9	-0.233904
2686.25	0.0148087
2687.6	0.103928
2688.94	0.337142
2690.29	0.220317
2691.64	0.0146236
2692.99	0.0396976
2694.34	-0.0087347
2695.68	-0.129805
2697.03	0.285768
2698.38	0.195402
2699.73	0.46869
2701.07	0.251389
2702.42	0.296222
2703.76	0.0958052
2705.11	0.156688
2706.45	0.23219
2707.8	0.510656
2709.15	0.00505447
2710.49	0.181208
2711.83	0.0957327
2713.18	0.286144
2714.52	0.31671
2715.87	0.318149
2717.21	0.523062
2718.55	0.291396
2719.9	0.364822
2721.24	0.248628
2722.58	0.175583
2723.93	0.000164032
2725.27	0.0280905
2726.61	0.0701933
2727.95	0.373947
2729.29	0.459102
2730.63	0.267624
2731.98	0.265279
2733.32	0.233915
2734.66	0.289994
2736	0.346261
2737.34	0.0390596
2738.68	0.415402
2740.02	0.122519
2741.36	0.236364
2742.7	0.233233
2744.03	0.316607
2745.37	0.326648
2746.71	0.365279
2748.05	0.374634
2749.39	0.00677586
2750.72	0.350068
2752.06	0.301896
2753.4	0.398922
2754.74	0.162821
2756.07	0.318065
2757.41	0.314095
2758.75	-0.239724
2760.08	0.364922
2761.42	0.0871038
2762.76	0.026865
2764.09	0.314215
2765.42	0.384517
2766.76	-0.196652
2768.09	0.262922
2769.43	-0.0453653
2770.76	0.179909
2772.1	0.114717
2773.43	-0.0812922
2774.76	-0.464946
2776.1	0.174702
2777.43	-0.00675201
2778.76	0.14338
2780.1	0.0638781
2781.43	-0.0582733
2782.76	-0.22323
2784.09	-0.0438128
2785.42	-0.0509892
2786.75	0.443318
2788.09	0.0356855
2789.42	0.130021
2790.75	0.182258
2792.08	0.12087
2793.41	0.0885839
2794.74	0.0563726
2796.07	0.0810175
2797.4	-0.0520105
2798.73	0.128631
2800.06	-0.0338402
2801.39	0.0746059
2802.71	0.22554
2804.04	-0.336477
2805.37	-0.00098896
2806.7	0.0203638
2808.03	-0.17229
2809.35	0.118143
2810.68	0.22351
2812.01	0.102241
2813.33	0.138253
2814.66	0.232388
2815.99	0.200364
2817.31	0.169508
2818.64	-0.101674
2819.96	-0.103515
2821.29	0.305247
2822.61	-0.0661364
2823.94	-0.0129566
2825.26	0.507275
2826.59	-0.21889
2827.91	-0.123062
2829.23	-0.0408726
2830.56	0.282422
2831.88	0.0255508
2833.21	0.363172
2834.53	0.488152
2835.85	0.867364
2837.17	0.580879
2838.5	0.548705
2839.82	0.770892
2841.14	0.738576
2842.46	1.04594
2843.78	0.746155
2845.1	1.02659
2846.42	1.15221
2847.74	1.51851
2849.06	1.65876
2850.38	1.20509
2851.71	1.1467
2853.03	1.44114
2854.34	1.48077
2855.66	1.92994
2856.98	1.9693
2858.3	1.7121
2859.62	2.14698
2860.94	1.79085
2862.26	1.84393
2863.57	2.19304
2864.89	2.23127
2866.21	2.70676
2867.53	2.33611
2868.84	3.23511
2870.16	3.48579
2871.48	2.84857
2872.79	3.24013
2874.11	3.16578
2875.42	3.10443
2876.74	3.46435
2878.05	3.65414
2879.37	4.09653
2880.68	3.89223
2882	4.0122
2883.31	4.11926
2884.63	3.52536
2885.94	4.26608
2887.26	4.30487
2888.57	4.03449
2889.88	4.87156
2891.19	4.80964
2892.51	4.83112
2893.82	4.83839
2895.13	4.53802
2896.44	4.79875
2897.76	4.8367
2899.07	4.8619
2900.38	5.50364
2901.69	5.39051
2903	5.06787
2904.31	5.57072
2905.62	5.87809
2906.93	5.50078
2908.24	6.10365
2909.55	5.77036
2910.86	5.77354
2912.17	5.93076
2913.48	5.96119
2914.79	6.21402
2916.1	6.36681
2917.41	6.3777
2918.71	6.1775
2920.02	6.55066
2921.33	6.89643
2922.64	6.50266
2923.94	6.37629
2925.25	6.41908
2926.56	6.14117
2927.86	6.57631
2929.17	6.27016
2930.48	6.87212
2931.78	6.48097
2933.09	6.42509
2934.39	6.35524
2935.7	6.28557
2937	6.71925
2938.31	6.03521
2939.61	6.20398
2940.92	5.66071
2942.22	5.85903
2943.53	6.18457
2944.83	5.30957
2946.13	5.35841
2947.43	4.97432
2948.74	5.21961
2950.04	5.54791
2951.34	4.58617
2952.64	4.5745
2953.95	4.74337
2955.25	4.96775
2956.55	4.74513
2957.85	4.55276
2959.15	4.62934
2960.45	4.21879
2961.75	4.16049
2963.05	4.55203
2964.35	4.29788
2965.65	3.80312
2966.95	3.99478
2968.25	3.96026
2969.55	4.05147
2970.85	3.81912
2972.15	3.57298
2973.45	3.76339
2974.75	3.10942
2976.05	3.13038
2977.34	3.31908
2978.64	3.35114
2979.94	2.49453
2981.24	2.8754
2982.53	2.59434
2983.83	2.39823
2985.13	1.97857
2986.42	2.40383
2987.72	2.2264
2989.01	2.24685
2990.31	2.12717
2991.61	1.71194
2992.9	1.71737
2994.19	1.38436
2995.49	1.40162
2996.78	1.55859
2998.08	1.25215
2999.37	1.14267
3000.67	0.879661
3001.96	1.15015
3003.25	0.818439
3004.55	0.669255
3005.84	0.716072
3007.13	0.678366
3008.42	0.62598
3009.72	0.53092
3011.01	0.630951
3012.3	0.548983
3013.59	0.327704
3014.88	0.748507
3016.17	0.459041
3017.46	0.282168
3018.76	0.356598
3020.05	0.0556569
3021.34	0.0883422
3022.63	0.0647516
3023.92	-0.153921
3025.21	-0.150979
3026.49	-0.217422
3027.78	0.297968
3029.07	0.0531921
3030.36	-0.0376792
3031.65	0.0940433
3032.94	-0.18733
3034.23	-0.371451
3035.51	0.230581
3036.8	0.23804
3038.09	0.175007
3039.38	0.124139
3040.66	0.00325871
3041.95	0.238789
3043.23	0.51482
3044.52	0.202454
3045.81	0.19337
3047.09	0.227538
3048.38	0.0183239
3049.66	-0.256755
3050.95	0.152244
3052.23	0.0299439
3053.52	0.0442953
3054.8	0.399269
3056.09	0.139472
3057.37	0.165245
3058.65	0.421982
3059.94	0.582946
3061.22	0.431217
3062.5	0.239935
3063.79	0.390182
3065.07	0.310902
3066.35	0.341914
3067.63	0.482869
3068.92	0.284443
3070.2	0.276296
3071.48	0.403517
3072.76	0.393712
3074.04	0.274118
3075.32	0.0315628
3076.6	0.631062
3077.88	0.253191
3079.16	-0.150308
3080.44	0.451784
3081.72	0.0923243
3083	0.0733824
3084.28	0.0688248
3085.56	0.173099
3086.84	-0.0350122
3088.12	0.35361
3089.4	-0.00474739
3090.67	0.328791
3091.95	0.336631
3093.23	0.23628
3094.51	0.217806
3095.78	0.294706
3097.06	0.249861
3098.34	0.164513
3099.61	0.187682
3100.89	0.481882
3102.17	0.261555
3103.44	0.420885
3104.72	0.472533
3105.99	0.565649
3107.27	0.592162
3108.54	0.457462
3109.82	0.51344
3111.09	0.827837
3112.37	0.493245
3113.64	0.877192
3114.92	0.610956
3116.19	0.371429
3117.46	0.782216
3118.74	1.00241
3120.01	0.774167
3121.28	1.16899
3122.55	0.72292
3123.83	0.927468
3125.1	0.996799
3126.37	0.809616
3127.64	0.663939
3128.91	1.14125
3130.19	1.11859
3131.46	1.27199
3132.73	1.15519
3134	1.21397
3135.27	1.05645
3136.54	1.31702
3137.81	1.29392
3139.08	1.58059
3140.35	1.70535
3141.62	1.14433
3142.89	1.51199
3144.16	1.27564
3145.42	1.32222
3146.69	1.34288
3147.96	1.71277
3149.23	1.36002
