200.407	-0.00709534
202.221	0.00860596
204.035	0.0255165
205.849	0.311072
207.665	0.1106
209.478	-0.211639
211.291	-0.0488377
213.104	-0.0574093
214.916	-0.0185366
216.73	-0.149922
218.541	0.130715
220.352	0.290652
222.163	0.137001
223.973	-0.0396223
225.785	0.0987978
227.595	-0.729024
229.404	0.520154
231.213	0.00580406
233.022	0.143005
234.83	0.111703
236.638	-0.544949
238.448	-0.186856
240.255	0.439006
242.062	-0.258494
243.868	0.564727
245.675	0.712998
247.48	0.0147791
249.286	0.134467
251.091	0.516468
252.896	0.316043
254.702	-0.416784
256.506	0.20085
258.31	0.0957861
260.113	0.474426
261.916	-0.421664
263.719	-0.18368
265.521	0.272395
267.323	0.00608921
269.125	-0.332915
270.926	-0.0218763
272.727	0.360393
274.527	0.162553
276.328	0.613905
278.127	0.629268
279.927	0.329317
281.726	0.0275259
283.525	0.277349
285.323	-0.147543
287.121	0.867672
288.919	0.202418
290.716	-0.34097
292.513	0.62589
294.31	0.229668
296.104	1.12659
297.9	0.279388
299.696	0.293501
301.491	0.211926
303.286	0.559316
305.081	0.141418
306.875	0.271526
308.669	-0.52845
310.463	0.0787001
312.256	0.924758
314.047	0.391114
315.839	0.669253
317.631	0.496996
319.423	0.0643415
321.215	0.848169
323.006	0.10751
324.794	0.678858
326.585	0.487058
328.375	0.700951
330.165	0.818776
331.954	0.361412
333.741	1.09811
335.53	-0.273053
337.318	0.961506
339.106	0.805771
340.894	0.60052
342.679	0.633528
344.466	0.809801
346.253	1.08204
348.039	0.686332
349.823	0.506271
351.608	0.159297
353.393	0.122114
355.176	0.465508
356.961	0.23496
358.745	0.527469
360.529	0.913584
362.31	0.0844479
364.093	0.49222
365.876	0.0907679
367.657	0.591132
369.439	0.259658
371.221	-0.332629
373	0.755491
374.781	0.233675
376.56	0.444881
378.34	0.278891
380.12	0.208448
381.898	0.869063
383.677	0.730415
385.456	-0.135336
387.233	1.02189
389.011	0.699666
390.787	0.590094
392.565	0.622401
394.34	0.491012
396.117	0.594913
397.894	0.464092
399.668	1.03769
401.444	0.506917
403.217	0.539145
404.993	0.734959
406.766	0.0140591
408.54	0.630996
410.312	1.10646
412.086	0.502219
413.858	0.579115
415.631	0.0936594
417.402	0.993463
419.174	0.697349
420.944	0.119804
422.716	0.92682
424.486	0.465528
426.257	0.0501442
428.025	0.361597
429.794	0.719398
431.564	-0.00255775
433.332	0.285076
435.101	0.408788
436.868	0.649827
438.637	-0.119037
440.403	0.0962791
442.169	-0.0659523
443.937	0.332313
445.703	0.400039
447.468	0.419475
449.234	-0.309986
450.999	0.69083
452.765	0.289634
454.528	0.589112
456.292	0.352033
458.057	0.674086
459.819	0.204489
461.582	0.0153275
463.344	0.40905
465.107	-0.287014
466.868	0.0424166
468.629	-0.182998
470.392	0.0817833
472.152	0.0450621
473.912	1.00868
475.672	0.713449
477.433	0.462188
479.192	1.51328
480.951	0.88597
482.709	0.538381
484.469	0.960671
486.226	0.84947
487.984	0.367728
489.74	0.634055
491.499	0.691903
493.255	0.633784
495.011	0.879827
496.767	0.681484
498.522	0.974478
500.277	0.0714979
502.033	1.25513
503.788	1.26519
505.541	0.662846
507.295	0.175827
509.048	1.19227
510.801	0.419193
512.553	0.514791
514.308	0.914599
516.06	1.07746
517.811	0.556827
519.562	0.764167
521.313	-0.0398941
523.063	0.189612
524.814	0.606391
526.563	0.201623
528.313	1.08687
530.062	1.12742
531.811	0.792726
533.559	0.832032
535.308	0.636052
537.055	0.485549
538.803	0.753998
540.55	1.27705
542.297	0.609961
544.043	0.618693
545.789	0.232321
547.535	0.21839
549.281	0.506117
551.026	0.561861
552.771	0.825862
554.515	0.419409
556.259	0.314166
558.003	1.08585
559.747	0.658592
561.49	0.647074
563.233	0.84324
564.975	1.08576
566.717	0.593629
568.459	0.53918
570.2	0.600699
571.942	0.388405
573.68	0.453273
575.421	0.107165
577.161	0.58883
578.901	0.865715
580.64	0.339912
582.379	1.10055
584.118	0.665858
585.855	0.68963
587.593	0.1829
589.331	0.89402
591.068	0.890915
592.805	0.979205
594.54	0.400089
596.277	0.350177
598.013	0.0701609
599.749	0.387938
601.484	0.152682
603.217	0.215126
604.952	0.206965
606.687	0.289278
608.421	-0.157608
610.153	0.589289
611.886	0.280671
613.619	0.546403
615.35	0.468903
617.083	0.162558
618.815	0.703278
620.547	0.509807
622.276	-0.00509644
624.008	-0.634585
625.738	-0.258115
627.467	0.210244
629.197	-0.0728798
630.927	0.0117159
632.655	0.874372
634.384	-0.155838
636.113	0.548185
637.839	0.839563
639.568	0.831119
641.293	1.36668
643.021	0.120913
644.748	0.355838
646.473	0.931823
648.2	0.213255
649.924	0.612255
651.65	0.356421
653.376	0.150247
655.099	0.447911
656.824	0.908051
658.546	1.14235
660.271	0.988823
661.993	0.467822
663.716	0.537658
665.438	1.03924
667.161	0.326913
668.881	0.779845
670.604	0.661721
672.324	0.477031
674.045	0.386435
675.765	0.435596
677.486	0.715716
679.204	0.215737
680.925	0.863192
682.643	0.635487
684.361	0.934539
686.08	0.0571384
687.797	0.605535
689.516	0.692163
691.232	1.00832
692.95	0.701816
694.666	0.924251
696.382	1.30669
698.099	0.214197
699.813	0.133635
701.528	0.143888
703.244	0.451866
704.958	0.460071
706.673	1.04141
708.387	0.199582
710.099	0.618912
711.814	1.08289
713.526	0.379159
715.238	0.956202
716.949	0.413353
718.663	0.28215
720.374	1.177
722.084	1.63781
723.796	0.755447
725.506	0.897477
727.216	1.60676
728.925	1.13426
730.636	1.43289
732.345	1.48137
734.053	1.00911
735.761	1.26112
737.471	0.948484
739.178	0.727436
740.885	0.710692
742.592	1.32602
744.298	2.00966
746.006	1.38909
747.712	0.905586
749.417	1.48097
751.122	1.58539
752.827	1.84879
754.532	1.30397
756.236	1.16565
757.942	1.54682
759.645	1.07398
761.348	0.985067
763.051	1.9571
764.753	1.10136
766.456	1.44071
768.158	0.987197
769.859	1.54847
771.56	1.24829
773.261	1.48915
774.964	1.16413
776.664	1.20146
778.364	1.76027
780.064	2.27577
781.763	2.04633
783.462	1.43226
785.16	1.92582
786.859	1.98671
788.557	1.13867
790.255	1.53173
791.952	1.89854
793.649	2.05954
795.346	1.65589
797.042	1.79487
798.738	1.55264
800.434	1.87549
802.127	1.79473
803.823	1.73732
805.517	1.70231
807.212	1.66639
808.906	1.67409
810.6	1.41112
812.293	1.39413
813.987	0.771544
815.68	1.53769
817.372	1.40776
819.064	1.43456
820.754	1.43917
822.446	1.46648
824.137	1.31623
825.828	1.63567
827.519	2.29128
829.209	1.63582
830.897	1.78566
832.587	1.49325
834.276	1.64883
835.966	1.89502
837.654	1.51643
839.341	1.00219
841.029	0.575146
842.717	1.10713
844.404	1.9069
846.091	1.50076
847.776	1.23048
849.463	1.43246
851.149	1.74951
852.833	1.03836
854.519	1.80772
856.204	1.56781
857.889	1.39363
859.572	1.44228
861.256	0.790936
862.94	1.71401
864.622	1.64478
866.305	1.34898
867.988	1.3454
869.669	0.822564
871.351	1.26914
873.033	1.17416
874.713	1.28214
876.395	0.0135727
878.074	0.572845
879.755	1.49331
881.435	0.833334
883.114	1.2787
884.794	0.616686
886.471	1.21724
888.15	0.822971
889.829	1.3744
891.506	1.56292
893.184	1.59194
894.861	1.34953
896.538	1.1962
898.214	1.26659
899.891	1.58247
901.566	0.574788
903.242	0.284966
904.916	0.375595
906.592	0.376907
908.266	1.38215
909.941	1.16122
911.614	1.00854
913.288	0.968062
914.961	0.972503
916.635	0.976975
918.306	1.00354
919.979	0.830872
921.651	0.769742
923.321	1.21835
924.994	1.02752
926.664	1.08187
928.336	0.873244
930.005	0.533752
931.674	1.16596
933.345	0.695271
935.014	1.08515
936.682	0.681435
938.352	1.11677
940.019	0.913876
941.687	0.999094
943.356	1.04108
945.022	0.575319
946.689	1.32226
948.357	1.14007
950.022	1.55158
951.688	1.14508
953.355	0.915277
955.02	0.819599
956.684	0.594681
958.348	0.79238
960.014	0.52993
961.678	0.489791
963.341	0.117971
965.004	0.849781
966.669	0.93765
968.331	0.933837
969.993	1.32579
971.655	0.544233
973.316	0.471092
974.979	0.399527
976.64	0.484767
978.3	0.859309
979.961	0.792292
981.62	0.724833
983.28	1.40855
984.941	0.806085
986.6	0.334192
988.259	0.590675
989.917	0.889719
991.575	0.458351
993.233	0.866587
994.89	1.03162
996.547	0.755353
998.204	0.677825
999.86	0.930668
1001.52	1.93148
1003.17	1.69805
1004.83	0.738814
1006.49	0.330185
1008.14	0.317539
1009.79	0.809982
1011.45	0.468919
1013.1	0.216465
1014.76	0.643767
1016.41	0.633204
1018.06	0.601353
1019.72	1.55463
1021.37	0.693759
1023.02	0.140686
1024.67	0.157128
1026.32	0.720531
1027.97	0.84687
1029.62	0.797708
1031.27	0.856369
1032.92	0.869473
1034.57	0.575176
1036.22	0.563093
1037.87	0.920406
1039.52	0.188629
1041.17	1.04653
1042.82	0.622252
1044.47	0.678432
1046.11	0.43273
1047.76	0.363017
1049.41	0.664381
1051.06	0.359093
1052.7	0.315339
1054.35	0.18509
1055.99	-0.0756102
1057.64	0.815447
1059.28	0.358231
1060.93	0.704728
1062.57	0.876404
1064.22	0.525162
1065.86	0.738029
1067.5	0.123657
1069.15	0.116897
1070.79	-0.0208874
1072.43	0.383938
1074.08	0.376679
1075.72	0.197046
1077.36	0.92984
1079	0.579665
1080.64	0.555707
1082.28	0.640197
1083.92	0.940516
1085.56	0.653564
1087.2	-0.0905447
1088.84	0.441403
1090.48	0.559478
1092.12	0.719187
1093.76	0.0357084
1095.39	0.518778
1097.03	0.872569
1098.67	0.365746
1100.31	0.29215
1101.94	0.349915
1103.58	0.323628
1105.22	0.47096
1106.85	0.403874
1108.49	-0.523707
1110.12	0.418437
1111.76	-0.0602741
1113.39	0.0181618
1115.03	0.266823
1116.66	0.879144
1118.29	0.461681
1119.93	0.324064
1121.56	1.38683
1123.19	0.994482
1124.82	0.838987
1126.46	1.30493
1128.09	1.13006
1129.72	1.29824
1131.35	1.08226
1132.98	1.31563
1134.61	0.651042
1136.24	0.456079
1137.87	0.901011
1139.5	-0.108227
1141.13	0.526162
1142.76	0.604493
1144.39	0.234987
1146.01	1.23099
1147.64	1.05527
1149.27	0.60376
1150.9	0.536487
1152.53	0.660925
1154.15	0.933929
1155.78	0.333688
1157.4	0.77618
1159.03	0.580724
1160.65	0.365088
1162.28	0.533539
1163.9	0.107834
1165.53	0.0441952
1167.15	0.256704
1168.78	0.914454
1170.4	0.570995
1172.02	0.565394
1173.65	0.621382
1175.27	0.548491
1176.89	0.517455
1178.51	0.423122
1180.14	-0.114801
1181.76	0.237474
1183.38	-0.25556
1185	-0.0084095
1186.62	0.0473604
1188.24	-0.0886621
1189.86	-0.289886
1191.48	0.28616
1193.1	0.165155
1194.71	-0.229448
1196.33	0.467266
1197.95	0.681567
1199.57	0.374536
1201.19	0.509658
1202.8	0.793856
1204.42	0.329542
1206.04	0.86959
1207.65	0.743487
1209.27	0.909836
1210.88	0.512093
1212.5	1.05079
1214.12	0.231865
1215.73	0.327577
1217.35	0.296192
1218.96	0.679272
1220.57	1.18592
1222.19	0.800581
1223.8	0.956172
1225.41	0.575002
1227.03	0.899691
1228.64	1.08095
1230.25	1.16022
1231.86	1.09623
1233.47	0.889052
1235.08	1.03475
1236.69	1.18193
1238.31	1.16502
1239.92	0.756057
1241.52	1.11243
1243.13	0.806568
1244.74	0.95492
1246.35	1.53665
1247.96	1.74467
1249.57	0.875798
1251.18	2.46854
1252.78	1.33073
1254.39	1.26954
1256	0.961443
1257.6	1.33745
1259.21	1.98405
1260.82	1.4316
1262.42	1.68696
1264.03	0.513215
1265.63	1.34825
1267.24	1.3538
1268.84	1.46186
1270.45	1.0296
1272.05	1.15586
1273.65	1.32232
1275.26	0.907141
1276.86	1.36138
1278.46	1.52431
1280.06	1.35504
1281.67	1.16483
1283.27	1.6369
1284.87	1.48886
1286.47	1.42469
1288.07	1.54785
1289.67	1.46546
1291.27	1.05312
1292.87	1.77716
1294.47	1.54984
1296.07	1.42433
1297.67	1.95753
1299.27	1.62156
1300.87	1.40784
1302.47	1.72849
1304.06	1.71809
1305.66	1.62455
1307.26	1.92077
1308.85	1.68255
1310.45	2.10063
1312.05	2.19074
1313.64	2.7111
1315.24	1.78101
1316.83	2.48708
1318.43	1.86668
1320.02	2.10333
1321.62	2.35886
1323.21	1.92004
1324.8	2.06942
1326.4	1.8309
1327.99	2.9506
1329.59	2.38748
1331.18	2.31316
1332.77	1.29217
1334.36	2.45625
1335.95	2.61201
1337.54	2.28435
1339.14	2.31907
1340.73	1.88837
1342.32	2.28073
1343.91	2.3682
1345.5	2.37366
1347.09	2.03825
1348.67	2.38678
1350.26	2.23752
1351.85	2.19182
1353.44	2.22886
1355.03	2.86723
1356.62	2.42677
1358.2	1.4067
1359.79	1.7041
1361.38	1.78033
1362.96	2.15462
1364.55	2.4881
1366.14	1.46664
1367.72	1.78151
1369.31	1.65967
1370.89	1.79842
1372.48	1.79959
1374.06	1.8818
1375.64	2.34296
1377.23	1.61038
1378.81	1.29504
1380.39	2.11263
1381.98	1.79439
1383.56	1.35534
1385.14	2.12787
1386.72	1.72689
1388.3	1.38603
1389.89	1.50282
1391.47	1.56111
1393.05	1.06493
1394.63	1.83881
1396.21	1.75949
1397.79	1.67933
1399.37	2.03388
1400.95	1.19854
1402.52	1.64996
1404.1	1.34904
1405.68	1.22701
1407.26	1.50146
1408.84	1.36185
1410.42	1.89458
1411.99	2.36772
1413.57	1.59619
1415.15	1.27793
1416.72	1.66887
1418.3	1.54639
1419.87	1.71992
1421.45	1.38265
1423.02	1.59874
1424.6	1.5019
1426.17	1.15082
1427.75	1.70583
1429.32	1.90626
1430.89	1.92842
1432.47	1.39809
1434.04	1.75208
1435.61	2.4986
1437.18	1.49508
1438.76	2.18343
1440.33	2.2439
1441.9	1.95187
1443.47	2.64341
1445.04	3.04072
1446.61	2.57349
1448.18	2.77473
1449.75	2.89775
1451.32	2.72648
1452.89	2.75253
1454.46	1.95293
1456.03	3.35662
1457.6	2.96921
1459.16	2.32417
1460.73	2.52311
1462.3	2.5031
1463.87	3.09053
1465.43	2.18209
1467	2.05989
1468.56	2.05605
1470.13	1.58235
1471.7	1.69897
1473.26	1.65996
1474.83	1.09251
1476.39	1.29042
1477.96	1.31199
1479.52	1.37268
1481.08	1.29603
1482.65	1.74841
1484.21	1.76943
1485.77	1.10434
1487.34	1.33955
1488.9	1.5534
1490.46	1.02121
1492.02	1.28865
1493.58	1.49431
1495.15	1.05338
1496.71	0.943383
1498.27	1.35876
1499.83	0.97687
1501.39	0.403063
1502.95	0.782159
1504.51	0.444718
1506.07	0.727694
1507.63	0.641959
1509.18	1.26998
1510.74	1.06539
1512.3	0.609669
1513.86	0.732016
1515.41	0.79657
1516.97	0.612084
1518.53	0.582377
1520.08	0.764178
1521.64	0.81192
1523.2	1.12676
1524.75	0.752638
1526.31	0.969274
1527.86	0.993783
1529.42	0.637217
1530.97	1.34489
1532.52	0.913528
1534.08	1.24186
1535.63	1.68419
1537.19	0.709676
1538.74	1.11595
1540.29	1.06934
1541.84	1.19249
1543.4	1.24002
1544.95	0.967561
1546.5	1.3152
1548.05	1.24912
1549.6	1.16439
1551.15	1.19238
1552.7	1.70732
1554.25	1.64311
1555.8	1.95428
1557.35	1.7447
1558.9	1.59382
1560.45	2.56479
1562	1.74689
1563.54	1.67667
1565.09	1.79379
1566.64	1.66848
1568.19	1.76684
1569.73	1.97671
1571.28	2.27944
1572.83	1.49912
1574.37	1.65194
1575.92	1.59945
1577.47	2.53664
1579.01	2.89571
1580.56	2.11669
1582.1	2.68311
1583.64	2.20478
1585.19	2.28777
1586.73	2.27801
1588.28	2.56772
1589.82	1.82825
1591.36	2.58515
1592.9	1.90013
1594.45	2.28192
1595.99	1.68971
1597.53	2.39085
1599.07	2.39962
1600.61	2.05293
1602.15	2.28832
1603.69	2.6554
1605.23	1.9887
1606.77	2.61647
1608.31	1.70071
1609.85	1.66535
1611.39	2.71685
1612.93	2.30002
1614.47	2.01328
1616.01	2.40152
1617.55	1.59019
1619.08	2.20504
1620.62	1.06086
1622.16	1.82884
1623.7	1.41817
1625.23	1.79387
1626.77	2.09365
1628.3	2.20454
1629.84	1.32242
1631.37	1.46782
1632.91	1.5378
1634.44	1.85072
1635.98	2.35087
1637.51	1.69547
1639.05	2.38371
1640.58	1.89741
1642.11	1.72742
1643.65	1.519
1645.18	1.45818
1646.71	1.95417
1648.24	1.79865
1649.78	2.4051
1651.31	1.62023
1652.84	1.76516
1654.37	1.78158
1655.9	1.42812
1657.43	2.16804
1658.96	1.59143
1660.49	2.05044
1662.02	1.89656
1663.55	1.70447
1665.08	1.78897
1666.61	2.00293
1668.14	1.83063
1669.66	1.4392
1671.19	1.4369
1672.72	1.63859
1674.25	1.45405
1675.77	2.02418
1677.3	1.50713
1678.83	1.81696
1680.35	1.16907
1681.88	1.89908
1683.4	1.04853
1684.93	1.39194
1686.45	1.33187
1687.98	0.685905
1689.5	1.36008
1691.03	1.155
1692.55	0.730619
1694.07	1.20287
1695.6	0.979711
1697.12	1.23155
1698.64	0.752217
1700.17	0.838695
1701.69	0.887942
1703.21	0.389688
1704.73	0.692768
1706.25	0.66729
1707.77	0.56877
1709.29	0.470313
1710.81	0.390258
1712.33	0.727586
1713.85	0.611607
1715.37	0.423475
1716.89	1.24852
1718.41	0.843055
1719.93	0.438166
1721.45	0.557391
1722.97	0.0460634
1724.49	0.563578
1726	0.415759
1727.52	0.197663
1729.04	0.53873
1730.55	0.590805
1732.07	0.374215
1733.59	0.386936
1735.1	0.308888
1736.62	0.227186
1738.13	0.190192
1739.65	0.369966
1741.16	-0.0375233
1742.68	0.19578
1744.19	0.434538
1745.7	0.291319
1747.22	0.135254
1748.73	0.629154
1750.24	0.0119009
1751.76	-0.158565
1753.27	0.240218
1754.78	0.485931
1756.29	0.540254
1757.8	0.4975
1759.31	0.478856
1760.83	-0.0140953
1762.34	-0.0117111
1763.85	0.397243
1765.36	0.133216
1766.87	0.378146
1768.38	0.425454
1769.89	0.17528
1771.39	0.244471
1772.9	-0.183106
1774.41	0.167873
1775.92	0.085885
1777.43	0.0518932
1778.94	0.272582
1780.44	0.420971
1781.95	0.0483456
1783.46	0.155723
1784.96	0.36602
1786.47	-0.211294
1787.97	0.123363
1789.48	-0.336661
1790.99	0.094615
1792.49	-0.0423889
1794	0.32091
1795.5	0.170997
1797	-0.0999622
1798.51	0.337309
1800.01	0.278889
1801.51	0.291753
1803.02	-0.141701
1804.52	0.166866
1806.02	-0.109535
1807.53	0.292352
1809.03	0.395027
1810.53	0.339077
1812.03	0.374421
1813.53	0.402216
1815.03	0.46373
1816.53	0.432609
1818.03	0.195595
1819.53	0.0978966
1821.03	0.608844
1822.53	0.282981
1824.03	0.61492
1825.53	0.478271
1827.03	-0.165318
1828.53	0.304817
1830.02	0.179042
1831.52	0.195501
1833.02	-0.0187273
1834.52	0.0265074
1836.01	0.203341
1837.51	0.113321
1839.01	0.130758
1840.5	0.187385
1842	0.34517
1843.49	0.220593
1844.99	0.0753088
1846.48	0.368878
1847.98	0.311098
1849.47	0.427811
1850.97	0.292381
1852.46	0.27861
1853.95	-0.00971508
1855.45	0.203977
1856.94	0.45212
1858.43	0.0147591
1859.93	0.46241
1861.42	0.27325
1862.91	0.354812
1864.4	0.46426
1865.89	0.339027
1867.38	0.703061
1868.87	0.211878
1870.36	-0.0569763
1871.85	0.23983
1873.34	0.491867
1874.83	0.464866
1876.32	0.444886
1877.81	0.247048
1879.3	-0.0505438
1880.79	0.100443
1882.28	0.387699
1882.52	0.44014
1884.02	0.35108
1885.51	0.208859
1887.01	0.414072
1888.5	0.0614147
1889.99	0.544478
1891.49	0.280484
1892.98	0.383711
1894.47	0.210944
1895.97	0.109566
1897.46	0.183062
1898.95	0.239068
1900.44	-0.175832
1901.93	0.381552
1903.42	0.275746
1904.91	-0.0403128
1906.4	-0.0442572
1907.89	-0.482365
1909.38	0.139428
1910.87	-0.279242
1912.36	-0.349693
1913.85	0.690518
1915.34	-0.0729456
1916.83	0.394421
1918.32	-0.161682
1919.8	0.408253
1921.29	0.319514
1922.78	0.750799
1924.27	0.092289
1925.75	0.248923
1927.24	0.129839
1928.73	0.167332
1930.21	0.118214
1931.7	0.518394
1933.18	0.63973
1934.67	0.412635
1936.15	0.0798874
1937.64	0.074625
1939.12	0.224327
1940.61	0.460518
1942.09	0.369568
1943.57	0.279983
1945.06	0.0880442
1946.54	0.258694
1948.02	0.56683
1949.51	0.150327
1950.99	0.370074
1952.47	0.468006
1953.95	0.375962
1955.43	0.180845
1956.91	0.20969
1958.4	-0.241236
1959.88	0.0467901
1961.36	-0.316386
1962.84	0.212249
1964.32	-0.0478792
1965.8	0.239632
1967.27	0.491794
1968.75	0.281046
1970.23	-0.152347
1971.71	0.507709
1973.19	0.108527
1974.67	-0.119409
1976.14	0.317905
1977.62	0.414174
1979.1	0.255119
1980.58	0.504478
1982.05	0.124364
1983.53	-0.0347576
1985	-0.431663
1986.48	0.44377
1987.95	-0.258245
1989.43	0.226564
1990.9	-0.371566
1992.38	0.0299816
1993.85	0.00965786
1995.33	-0.00968742
1996.8	0.613458
1998.27	0.324193
1999.75	0.321606
2001.22	-0.13732
2002.69	0.179459
2004.16	0.124891
2005.64	0.0876179
2007.11	-0.0834961
2008.58	-0.4723
2010.05	0.587896
2011.52	0.335412
2012.99	0.503838
2014.46	0.301477
2015.93	-0.00266171
2017.4	0.331414
2018.87	-0.159484
2020.34	0.525595
2021.81	0.101445
2023.28	0.114514
2024.75	0.262732
2026.22	0.39549
2027.69	-0.0570898
2029.15	0.146232
2030.62	0.250525
2032.09	-0.0299501
2033.56	0.210368
2035.02	0.266113
2036.49	-0.0481329
2037.96	-0.0270996
2039.42	0.497678
2040.89	0.249345
2042.35	0.203115
2043.82	-0.0609055
2045.28	0.197556
2046.75	0.120443
2048.21	-0.0911503
2049.67	-0.0673904
2051.14	0.359895
2052.6	0.751867
2054.07	0.517688
2055.53	-0.241326
2056.99	0.0604696
2058.45	-0.194956
2059.92	0.156016
2061.38	0.5072
2062.84	0.27
2064.3	0.135082
2065.76	0.102346
2067.22	0.0369415
2068.68	0.241511
2070.14	0.463332
2071.6	0.483266
2073.06	0.267307
2074.52	0.185703
2075.98	0.305779
2077.44	0.307549
2078.9	-0.128989
2080.36	0.326443
2081.82	0.124509
2083.27	0.00603199
2084.73	-0.214202
2086.19	0.288202
2087.65	0.234607
2089.1	0.0461264
2090.56	0.512678
2092.02	0.307128
2093.47	0.303042
2094.93	0.114186
2096.38	0.377498
2097.84	-0.0135155
2099.29	0.432111
2100.75	0.140879
2102.2	-0.0326786
2103.66	0.329309
2105.11	0.375269
2106.56	0.38946
2108.02	-0.145503
2109.47	0.0538769
2110.92	0.0858431
2112.38	0.11628
2113.83	0.0781231
2115.28	0.420888
2116.73	-0.202197
2118.18	0.25581
2119.63	0.000917435
2121.09	0.163252
2122.54	0.0954914
2123.99	0.410818
2125.44	0.0470085
2126.89	0.346157
2128.34	-0.151596
2129.79	0.111638
2131.23	-0.753035
2132.68	0.136944
2134.13	-0.049427
2135.58	-0.218189
2137.03	0.160238
2138.48	-0.103958
2139.92	-0.0189791
2141.37	0.100902
2142.82	-0.224309
2144.27	0.14576
2145.71	-0.245025
2147.16	0.174845
2148.6	0.213376
2150.05	0.714816
2151.49	0.519396
2152.94	0.14054
2154.38	0.19156
2155.83	-0.453743
2157.27	0.0275869
2158.72	0.310858
2160.16	0.0158062
2161.6	-0.0620308
2163.05	0.127334
2164.49	-0.096159
2165.93	0.145813
2167.38	0.388041
2168.82	0.413294
2170.26	0.536374
2171.7	0.124809
2173.14	0.576065
2174.58	0.0942249
2176.03	0.26048
2177.47	0.0444679
2178.91	0.0787191
2180.35	0.247035
2181.79	-0.0492191
2183.23	0.17061
2184.67	-0.158057
2186.1	-0.42023
2187.54	0.29924
2188.98	0.303411
2190.42	-0.208457
2191.86	0.677678
2193.3	0.131298
2194.73	0.399243
2196.17	0.149074
2197.61	0.16308
2199.05	0.108663
2200.48	0.219313
2201.92	-0.0688286
2203.35	0.0755167
2204.79	0.353527
2206.22	0.0357819
2207.66	0.0667963
2209.1	0.180384
2210.53	-0.0380201
2211.97	-0.0587912
2213.4	0.0353508
2214.83	0.244826
2216.27	0.0255289
2217.7	0.187185
2219.13	-0.276569
2220.57	-0.260978
2222	0.199734
2223.43	-0.0985012
2224.86	0.161869
2226.29	0.107342
2227.72	-0.0969162
2229.16	-0.0394554
2230.59	0.263103
2232.02	0.073122
2233.45	0.0803127
2234.88	0.00655746
2236.31	0.408038
2237.74	0.141373
2239.17	-0.106496
2240.6	0.0395384
2242.03	0.269091
2243.45	0.516362
2244.88	0.372615
2246.31	0.391207
2247.74	-0.0812798
2249.17	0.0635748
2250.59	0.287217
2252.02	0.850297
2253.45	0.224244
2254.87	-0.0266342
2256.3	0.406359
2257.73	-0.164474
2259.15	0.160523
2260.58	0.294138
2262	-0.0238514
2263.43	0.0331907
2264.85	0.155651
2266.28	0.147773
2267.7	0.350457
2269.13	0.161649
2270.55	0.281104
2271.97	0.204643
2273.4	-0.376936
2274.82	0.295641
2276.24	0.0888977
2277.67	-0.280722
2279.09	-0.128791
2280.51	0.0557661
2281.93	0.468628
2283.35	0.016901
2284.77	-0.157572
2286.2	0.0761757
2287.62	0.147195
2289.04	-0.0752449
2290.46	-0.00327587
2291.88	0.00368118
2293.3	0.043499
2294.72	0.116043
2296.13	0.139445
2297.55	0.555818
2298.97	-0.0922642
2300.39	-0.035944
2301.81	-0.27441
2303.23	-0.168273
2304.64	-0.324483
2306.06	0.307374
2307.48	0.183627
2308.89	0.322145
2310.31	0.608079
2311.73	0.137071
2313.14	0.159343
2314.56	-0.163566
2315.98	0.156294
2317.39	0.180798
2318.81	0.0904512
2320.22	0.197659
2321.64	0.518205
2323.05	0.4076
2324.46	0.492279
2325.88	0.491756
2327.29	0.505721
2328.7	0.667078
2330.12	0.564935
2331.53	0.431025
2332.94	-0.0635386
2334.35	0.397487
2335.77	0.34863
2337.18	0.463726
2338.59	0.363871
2340	-0.0330219
2341.41	-0.102119
2342.82	0.0908623
2344.23	-0.0280504
2345.64	0.36156
2347.05	0.243269
2348.46	0.0596828
2349.87	-0.12411
2351.28	-0.308527
2352.69	0.208547
2354.1	0.348295
2355.51	-0.27914
2356.91	0.13644
2358.32	0.632397
2359.73	-0.253586
2361.14	-0.147542
2362.54	-0.0579491
2363.95	0.274255
2365.36	-0.154701
2366.76	-0.210824
2368.17	-0.346885
2369.58	0.147548
2370.98	0.126898
2372.39	0.397809
2373.79	0.267052
2375.2	-0.249445
2376.6	0.0224504
2378	-0.0770006
2379.41	0.0147343
2380.81	0.136518
2382.22	0.208293
2383.62	0.535088
2385.02	0.0610247
2386.43	0.0438824
2387.83	-0.179657
2389.23	0.467545
2390.63	0.0477209
2392.03	0.155243
2393.44	-0.309017
2394.84	0.00742531
2396.24	0.324401
2397.64	0.101543
2399.04	-0.23175
2400.44	-0.230737
2401.84	0.19948
2403.24	-0.00562954
2404.64	0.0270758
2406.04	0.0905275
2407.44	0.0100584
2408.84	0.0714865
2410.23	0.21172
2411.63	0.336218
2413.03	0.303192
2414.43	-0.108294
2415.83	-0.0113907
2417.22	0.0870218
2418.62	0.123176
2420.02	0.175595
2421.41	0.275424
2422.81	0.0104866
2424.21	0.331407
2425.6	0.55739
2427	-0.135203
2428.39	0.203351
2429.79	0.0357141
2431.18	0.313007
2432.58	0.447879
2433.97	0.47107
2435.36	0.445284
2436.76	0.290619
2438.15	-0.104176
2439.54	0.484514
2440.94	0.119017
2442.33	0.0229902
2443.72	0.228193
2445.12	0.59163
2446.51	0.399663
2447.9	0.0175343
2449.29	0.158449
2450.68	0.347
2452.07	0.171992
2453.46	-0.397584
2454.85	0.72681
2456.24	-0.505259
2457.64	0.272082
2459.02	-0.0896673
2460.41	0.401987
2461.8	0.212641
2463.19	0.0224714
2464.58	0.179347
2465.97	0.604205
2467.36	0.176166
2468.75	0.332234
2470.13	-0.347931
2471.52	0.106977
2472.91	0.434556
2474.3	-0.0577974
2475.68	0.220597
2477.07	0.278069
2478.45	-0.041523
2479.84	-0.062273
2481.23	-0.114161
2482.61	-0.00937462
2484	-0.124451
2485.38	0.103751
2486.77	-0.107257
2488.15	-0.272219
2489.54	-0.0635872
2490.92	-0.0268726
2492.3	0.119144
2493.69	-0.0289717
2495.07	0.259085
2496.45	0.408609
2497.84	0.0787668
2499.22	-0.0490923
2500.6	-0.285421
2501.98	-0.135894
2503.36	0.228441
2504.75	0.25167
2506.13	-0.373016
2507.51	0.0807457
2508.89	0.303032
2510.27	0.218188
2511.65	0.0728989
2513.03	0.174023
2514.41	0.138128
2515.79	0.210434
2517.17	0.145877
2518.55	-0.0861521
2519.93	0.232364
2521.3	0.260059
2522.68	0.225896
2524.06	0.129786
2525.44	-0.393738
2526.82	0.0578537
2528.19	0.174439
2529.57	0.27691
2530.95	-0.0444469
2532.32	0.380878
2533.7	0.0328169
2535.08	0.338906
2536.45	0.0372429
2537.83	-0.0524731
2539.2	-0.143248
2540.58	0.417947
2541.95	0.234643
2543.33	0.218673
2544.7	0.158189
2546.08	0.129478
2547.45	-0.0950165
2548.82	0.242739
2550.2	0.368259
2551.57	0.0227909
2552.94	0.222577
2554.32	-0.0189295
2555.69	0.345478
2557.06	0.0416813
2558.43	0.0259972
2559.8	0.298647
2561.18	0.238358
2562.55	0.209138
2563.92	-0.122478
2565.29	0.258644
2566.66	-0.0570421
2568.03	0.3548
2569.4	0.296852
2570.77	0.0115471
2572.14	0.014246
2573.51	0.350531
2574.88	0.186691
2576.25	0.235124
2577.61	0.495739
2578.98	0.179927
2580.35	0.0911303
2581.72	0.441581
2583.09	0.351862
2584.45	0.125437
2585.82	0.308266
2587.19	0.0971193
2588.55	0.568222
2589.92	0.0694971
2591.29	-0.15654
2592.65	0.298766
2594.02	0.0107012
2595.38	-0.263229
2596.75	0.400359
2598.11	0.230289
2599.48	0.301875
2600.84	0.32816
2602.21	0.279493
2603.57	0.201465
2604.93	0.57684
2606.3	0.333719
2607.66	0.180866
2609.02	-0.0180454
2610.39	0.504848
2611.75	0.167566
2613.11	0.175338
2614.47	-0.0130959
2615.83	0.0536499
2617.19	-0.149305
2618.56	0.0381908
2619.92	0.495577
2621.28	-0.198215
2622.64	-0.307678
2624	-0.192757
2625.36	-0.182507
2626.72	0.364266
2628.08	-0.118304
2629.44	0.21843
2630.8	-0.0407238
2632.15	-0.150934
2633.51	0.0211983
2634.87	-0.133516
2636.23	0.0827351
2637.59	0.520888
2638.94	0.0996361
2640.3	0.285808
2641.66	0.161538
2643.02	0.141182
2644.37	0.431066
2645.73	-0.0171719
2647.09	0.0949459
2648.44	0.191363
2649.8	-0.154811
2651.15	-0.00126743
2652.51	-0.112743
2653.86	-0.0330229
2655.22	0.399164
2656.57	0.363242
2657.93	0.0360098
2659.28	0.47088
2660.63	0.350175
2661.99	0.258646
2663.34	0.473239
2664.69	0.0151701
2666.05	-0.0347357
2667.4	0.133494
2668.75	-0.00446129
2670.1	0.280058
2671.45	-0.263984
2672.81	0.0506897
2674.16	-0.287786
2675.51	0.114978
2676.86	0.503518
2678.21	0.384929
2679.56	0.281895
2680.91	-0.0373516
2682.26	0.0362453
2683.61	0.154719
2684.96	0.332378
2686.31	-0.287351
2687.66	0.180929
2689	0.212564
2690.35	0.00997257
2691.7	0.356876
2693.05	0.17947
2694.4	0.146097
2695.74	0.41689
2697.09	0.354956
2698.44	-0.0239992
2699.79	0.0624542
2701.13	0.527405
2702.48	0.675662
2703.83	0.578957
2705.17	0.192839
2706.52	0.314082
2707.86	-0.0147133
2709.21	0.265452
2710.55	0.225904
2711.9	0.142435
2713.24	0.523741
2714.58	0.745314
2715.93	0.414419
2717.27	0.097702
2718.62	0.50792
2719.96	0.728723
2721.3	0.614331
2722.65	0.484765
2723.99	0.252721
2725.33	0.2676
2726.67	0.442139
2728.01	0.29609
2729.35	0.600906
2730.7	0.498059
2732.04	0.307907
2733.38	0.568852
2734.72	0.466313
2736.06	0.11677
2737.4	0.116474
2738.74	0.0288935
2740.08	0.013751
2741.42	0.565133
2742.76	0.316014
2744.1	0.385916
2745.43	0.0482655
2746.77	0.450973
2748.11	0.243478
2749.45	0.0797319
2750.79	0.249921
2752.12	0.289793
2753.46	0.0980206
2754.8	0.094923
2756.14	-0.299083
2757.47	0.277454
2758.81	-0.159335
2760.14	0.489983
2761.48	-0.336381
2762.81	-0.0768013
2764.15	0.240976
2765.49	0.29828
2766.82	0.224838
2768.16	-0.138939
2769.49	0.464782
2770.82	-0.46559
2772.16	-0.197707
2773.49	-0.00355148
2774.82	-0.271675
2776.16	-0.150477
2777.49	-0.000303268
2778.82	0.0495853
2780.16	0.272447
2781.49	-0.0503187
2782.82	-0.315153
2784.15	0.209083
2785.48	0.00165272
2786.82	0.381947
2788.15	0.18979
2789.48	0.270598
2790.81	-0.119578
2792.14	-0.151157
2793.47	0.103697
2794.8	0.0154839
2796.13	-0.0587816
2797.46	0.252028
2798.79	0.0336685
2800.12	0.314506
2801.44	0.00989723
2802.77	-0.280385
2804.1	-0.0576448
2805.43	-0.148986
2806.76	0.200325
2808.08	0.164394
2809.41	0.113811
2810.74	-0.0502777
2812.07	-0.1141
2813.39	0.419131
2814.72	0.273074
2816.05	-0.0696363
2817.37	0.0709343
2818.7	0.0846138
2820.02	0.0699596
2821.35	0.465807
2822.67	0.12389
2824	0.305582
2825.32	0.0618458
2826.65	0.0448551
2827.97	0.311628
2829.3	0.196756
2830.62	0.181541
2831.94	0.152422
2833.26	0.250636
2834.59	0.320164
2835.91	0.459869
2837.23	0.315922
2838.56	0.298845
2839.88	0.536094
2841.2	0.928861
2842.52	0.926157
2843.84	1.13622
2845.16	1.31885
2846.48	0.626016
2847.8	1.0642
2849.12	1.23392
2850.45	1.19129
2851.77	1.92545
2853.08	1.37284
2854.4	1.68188
2855.72	1.53849
2857.04	1.47989
2858.36	1.76035
2859.68	1.51819
2861	2.16547
2862.32	1.93687
2863.63	2.17369
2864.95	2.46652
2866.27	2.09617
2867.59	2.27632
2868.9	2.65432
2870.22	2.79302
2871.54	2.67815
2872.85	2.97172
2874.17	2.47523
2875.48	2.69615
2876.8	3.15495
2878.11	3.19018
2879.43	3.26722
2880.74	3.14777
2882.06	3.11372
2883.37	2.85625
2884.69	3.4285
2886	3.29932
2887.31	3.24046
2888.63	3.33545
2889.94	3.30321
2891.25	3.15781
2892.57	3.22204
2893.88	3.25801
2895.19	3.3924
2896.5	3.51365
2897.82	3.13234
2899.13	3.42397
2900.44	3.3947
2901.75	3.39398
2903.06	3.56137
2904.37	3.89676
2905.68	3.8828
2906.99	3.07221
2908.3	4.19291
2909.61	3.88782
2910.92	4.26901
2912.23	4.00647
2913.54	4.12097
2914.85	4.24787
2916.16	4.24679
2917.46	4.94366
2918.77	4.79949
2920.08	4.51538
2921.39	4.70762
2922.7	5.43242
2924	4.9706
2925.31	4.71985
2926.62	5.30853
2927.92	5.38011
2929.23	5.52115
2930.54	5.46581
2931.84	5.28411
2933.15	5.31182
2934.45	5.61904
2935.76	6.09406
2937.06	4.90624
2938.37	5.84283
2939.67	5.06096
2940.98	5.00633
2942.28	4.47758
2943.58	4.81662
2944.89	4.96169
2946.19	4.54882
2947.49	4.2203
2948.8	4.25517
2950.1	4.05078
2951.4	3.95633
2952.7	4.04178
2954.01	3.70561
2955.31	3.62109
2956.61	3.67755
2957.91	3.7923
2959.21	3.58816
2960.51	3.42902
2961.81	3.93089
2963.11	3.69087
2964.41	2.93041
2965.71	3.53006
2967.01	3.229
2968.31	3.24955
2969.61	3.08645
2970.91	3.0638
2972.21	2.97115
2973.51	3.13217
2974.81	3.13844
2976.1	3.21439
2977.4	2.96502
2978.7	2.91077
2980	2.53075
2981.29	2.34645
2982.59	2.72425
2983.89	2.08988
2985.18	2.14591
2986.48	2.16149
2987.78	1.95397
2989.07	1.93029
2990.37	1.75235
2991.66	1.70035
2992.96	1.338
2994.25	1.5223
2995.55	1.49453
2996.84	1.1711
2998.14	1.07225
2999.43	1.32446
3000.73	0.735806
3002.02	1.15745
3003.31	0.920749
3004.61	0.978505
3005.9	0.643829
3007.19	0.868653
3008.48	0.728544
3009.77	0.573599
3011.07	0.278296
3012.36	0.248237
3013.65	0.497245
3014.94	0.620906
3016.23	-0.00702286
3017.52	0.0767298
3018.81	0.272308
3020.1	0.370437
3021.4	0.31508
3022.68	0.342176
3023.97	-0.0759478
3025.26	0.0604038
3026.55	0.307055
3027.84	-0.0411882
3029.13	0.165479
3030.42	0.124886
3031.71	-0.052043
3033	-0.213801
3034.28	0.397779
3035.57	0.22199
3036.86	0.0449028
3038.15	0.238006
3039.43	0.167119
3040.72	-0.0428324
3042.01	-0.198348
3043.29	-0.271228
3044.58	-0.0144291
3045.87	0.476075
3047.15	-0.0563173
3048.44	0.247572
3049.72	0.00776958
3051.01	0.111073
3052.29	0.0652523
3053.58	0.278734
3054.86	-0.0815125
3056.15	-0.115401
3057.43	0.476613
3058.71	0.481277
3060	0.186105
3061.28	0.422437
3062.56	0.197248
3063.84	0.667302
3065.13	0.309764
3066.41	0.103483
3067.69	0.292659
3068.97	0.251218
3070.26	0.100706
3071.54	0.275655
3072.82	0.286016
3074.1	-0.18082
3075.38	-0.0776014
3076.66	-0.137769
3077.94	0.141949
3079.22	0.232744
3080.5	0.0675344
3081.78	0.0669737
3083.06	0.067894
3084.34	0.408889
3085.62	-0.077733
3086.9	-0.00843811
3088.18	-0.157075
3089.45	-0.387854
3090.73	0.249432
3092.01	-0.321074
3093.29	0.193973
3094.56	-0.0908899
3095.84	-0.348164
3097.12	0.0455074
3098.4	0.195046
3099.67	0.154714
3100.95	-0.251388
3102.22	0.23665
3103.5	-0.0875187
3104.78	0.130527
3106.05	0.0787182
3107.33	0.0280294
3108.6	0.0327044
3109.88	-0.110247
3111.15	0.194714
3112.43	-0.0274715
3113.7	0.319871
3114.97	0.111732
3116.25	0.0656939
3117.52	0.330685
3118.79	0.146938
3120.07	0.111192
3121.34	0.440528
3122.61	0.335315
3123.88	0.121689
3125.16	0.274091
3126.43	0.102129
3127.7	0.147473
3128.97	0.234006
3130.24	0.523793
3131.51	0.01612
3132.79	0.522108
3134.06	0.284492
3135.33	0.546045
3136.6	0.145669
3137.87	0.608145
3139.14	0.678889
3140.41	0.628271
3141.67	0.510654
3142.94	0.514559
3144.21	0.680216
3145.48	0.470793
3146.75	0.879167
3148.02	0.952955
3149.29	0.558831
