200.407	-0.00400543
202.221	0.0127106
204.035	0.0305634
205.849	0.146811
207.665	0.336342
209.478	-0.252348
211.291	0.470069
213.104	0.899067
214.916	0.0165558
216.73	0.395134
218.541	-0.340834
220.352	0.3045
222.163	0.0550938
223.973	0.725719
225.785	-0.174353
227.595	0.738242
229.404	0.273399
231.213	1.08763
233.022	0.284508
234.83	0.567636
236.638	0.442171
238.448	0.34319
240.255	-0.0423145
242.062	-0.1362
243.868	0.784513
245.675	-0.200496
247.48	0.284932
249.286	0.0192909
251.091	-0.201281
252.896	0.275357
254.702	0.339644
256.506	-0.199359
258.31	0.395671
260.113	0.317492
261.916	0.530539
263.719	0.215463
265.521	-0.0984774
267.323	-0.749516
269.125	0.455032
270.926	-0.341875
272.727	0.499446
274.527	-0.493043
276.328	-0.257535
278.127	0.963993
279.927	0.375873
281.726	0.243572
283.525	-0.0107546
285.323	0.286473
287.121	-0.233776
288.919	0.685651
290.716	-0.52787
292.513	0.033267
294.31	0.451732
296.104	-0.1089
297.9	-0.0225735
299.696	-0.198545
301.491	-0.0879335
303.286	0.427658
305.081	0.583536
306.875	0.428159
308.669	0.558742
310.463	0.713609
312.256	0.893485
314.047	0.598873
315.839	0.663581
317.631	0.277828
319.423	0.512972
321.215	0.392097
323.006	1.05894
324.794	0.987362
326.585	1.46505
328.375	0.246798
330.165	0.914932
331.954	0.817129
333.741	0.549856
335.53	0.998052
337.318	0.869424
339.106	0.762385
340.894	0.892794
342.679	0.2333
344.466	0.123857
346.253	0.516594
348.039	0.312882
349.823	1.23184
351.608	0.360402
353.393	0.658018
355.176	-0.0237083
356.961	0.0805664
358.745	0.612268
360.529	0.737188
362.31	0.408737
364.093	0.793298
365.876	0.249871
367.657	0.0151234
369.439	0.0407372
371.221	0.633853
373	0.515078
374.781	0.750629
376.56	0.74963
378.34	1.40946
380.12	1.38583
381.898	1.29301
383.677	1.24889
385.456	0.971262
387.233	1.56474
389.011	1.85377
390.787	1.79158
392.565	1.07288
394.34	0.801161
396.117	1.11701
397.894	0.986774
399.668	1.16166
401.444	0.279124
403.217	0.546786
404.993	1.09544
406.766	0.915143
408.54	0.969
410.312	0.623394
412.086	0.395294
413.858	0.871643
415.631	0.715173
417.402	0.512658
419.174	0.850572
420.944	0.390859
422.716	-0.210078
424.486	-0.248448
426.257	-0.334708
428.025	0.681486
429.794	-0.180856
431.564	0.29473
433.332	0.653206
435.101	0.3549
436.868	0.338196
438.637	0.508525
440.403	0.395674
442.169	0.139983
443.937	0.163552
445.703	0.302215
447.468	0.556336
449.234	0.832829
450.999	0.454726
452.765	0.0309114
454.528	0.121184
456.292	-0.627774
458.057	0.464089
459.819	0.53038
461.582	0.853068
463.344	0.456557
465.107	-0.262363
466.868	0.555357
468.629	0.37686
470.392	0.293327
472.152	0.396557
473.912	0.778522
475.672	1.15888
477.433	1.28069
479.192	1.7963
480.951	1.54195
482.709	1.28777
484.469	1.59392
486.226	1.22685
487.984	1.25825
489.74	0.499079
491.499	1.3506
493.255	0.849253
495.011	0.160134
496.767	0.944339
498.522	0.675339
500.277	0.663301
502.033	0.838295
503.788	0.871636
505.541	1.06826
507.295	0.675653
509.048	0.516234
510.801	0.754968
512.553	1.06259
514.308	1.29789
516.06	1.0375
517.811	1.36378
519.562	1.07743
521.313	0.766954
523.063	1.72436
524.814	0.896652
526.563	1.33657
528.313	0.697491
530.062	1.62908
531.811	0.919667
533.559	0.608112
535.308	1.41842
537.055	0.753469
538.803	0.601807
540.55	0.472458
542.297	0.598722
544.043	0.398518
545.789	0.31492
547.535	0.626245
549.281	0.705278
551.026	0.460176
552.771	0.308328
554.515	0.20321
556.259	0.213995
558.003	0.409638
559.747	0.812791
561.49	-0.395542
563.233	0.192813
564.975	0.528061
566.717	0.266309
568.459	0.64854
570.2	0.733229
571.942	0.039361
573.68	0.104472
575.421	-0.33326
577.161	0.561463
578.901	0.815485
580.64	0.795021
582.379	0.38404
584.118	0.018074
585.855	-0.786219
587.593	0.22508
589.331	0.315176
591.068	0.0591421
592.805	0.101615
594.54	0.258938
596.277	0.00215721
598.013	0.182474
599.749	0.431429
601.484	0.518434
603.217	-0.430875
604.952	0.412086
606.687	0.310777
608.421	0.185699
610.153	-0.191866
611.886	0.624228
613.619	0.110561
615.35	0.148109
617.083	0.231649
618.815	0.520717
620.547	0.098753
622.276	0.499497
624.008	0.167198
625.738	0.155127
627.467	0.166984
629.197	0.27215
630.927	-0.167855
632.655	0.923204
634.384	0.00731945
636.113	0.346341
637.839	-0.00119495
639.568	0.561415
641.293	0.139553
643.021	0.285371
644.748	0.31568
646.473	0.0277319
648.2	-0.439726
649.924	0.391614
651.65	-0.341109
653.376	-0.160931
655.099	0.0228977
656.824	0.118396
658.546	0.237944
660.271	0.266091
661.993	-0.346792
663.716	0.499649
665.438	0.567048
667.161	1.24979
668.881	0.445234
670.604	0.190052
672.324	-0.0861397
674.045	0.28109
675.765	0.26154
677.486	0.426886
679.204	-0.394812
680.925	0.137272
682.643	0.116253
684.361	0.714498
686.08	0.827481
687.797	-0.212864
689.516	-0.0798969
691.232	0.23661
692.95	0.529412
694.666	0.614082
696.382	0.628574
698.099	0.41154
699.813	-0.105808
701.528	0.756035
703.244	0.282741
704.958	0.291641
706.673	0.391747
708.387	0.720578
710.099	0.750578
711.814	0.551167
713.526	0.671997
715.238	0.44959
716.949	0.0905237
718.663	0.530574
720.374	0.719337
722.084	0.0881453
723.796	0.459194
725.506	0.443035
727.216	0.790011
728.925	0.409744
730.636	0.483102
732.345	0.0350142
734.053	-0.276647
735.761	0.836325
737.471	0.728095
739.178	0.553128
740.885	0.695065
742.592	0.747968
744.298	1.38761
746.006	1.12806
747.712	0.892758
749.417	1.10889
751.122	1.19146
752.827	1.38793
754.532	1.58602
756.236	1.17828
757.942	1.78513
759.645	2.14651
761.348	1.56284
763.051	1.79121
764.753	1.61322
766.456	2.67643
768.158	2.22407
769.859	2.67325
771.56	2.78089
773.261	2.41186
774.964	2.42665
776.664	2.10289
778.364	3.25038
780.064	2.74913
781.763	1.68343
783.462	2.33724
785.16	2.15262
786.859	1.15033
788.557	1.20858
790.255	1.82871
791.952	1.17922
793.649	1.88386
795.346	1.12048
797.042	1.05814
798.738	1.58319
800.434	2.10958
802.127	1.15223
803.823	0.916112
805.517	1.03974
807.212	1.22982
808.906	0.565095
810.6	1.71774
812.293	1.45494
813.987	1.84167
815.68	0.817095
817.372	1.15864
819.064	0.337519
820.754	2.01899
822.446	1.06521
824.137	1.6299
825.828	1.43775
827.519	0.980821
829.209	1.12834
830.897	1.32364
832.587	1.65579
834.276	1.32192
835.966	1.56875
837.654	1.52558
839.341	1.21319
841.029	1.3009
842.717	0.783962
844.404	1.58467
846.091	1.71589
847.776	1.64789
849.463	1.49305
851.149	2.03493
852.833	1.19039
854.519	1.53439
856.204	0.778378
857.889	1.45864
859.572	1.08071
861.256	0.812862
862.94	0.362753
864.622	1.30819
866.305	1.35151
867.988	0.334335
869.669	0.985203
871.351	1.32016
873.033	0.45929
874.713	0.703725
876.395	1.3093
878.074	0.696303
879.755	0.669935
881.435	0.327146
883.114	0.683443
884.794	0.970861
886.471	0.715047
888.15	0.547953
889.829	0.582287
891.506	0.705175
893.184	0.601256
894.861	0.45127
896.538	0.390331
898.214	0.328485
899.891	0.691983
901.566	0.986582
903.242	0.496621
904.916	0.678159
906.592	0.591598
908.266	0.0600357
909.941	0.465893
911.614	0.560396
913.288	0.25539
914.961	1.26143
916.635	0.934628
918.306	0.67488
919.979	1.21282
921.651	1.08674
923.321	1.05053
924.994	0.79524
926.664	0.60849
928.336	0.578211
930.005	1.05685
931.674	1.13895
933.345	1.97139
935.014	1.52451
936.682	1.2326
938.352	1.11811
940.019	0.894692
941.687	0.826984
943.356	1.17933
945.022	0.406107
946.689	0.933824
948.357	0.620813
950.022	0.87963
951.688	0.320642
953.355	-0.0835972
955.02	0.065176
956.684	0.150569
958.348	0.349643
960.014	0.353242
961.678	0.535249
963.341	0.0322418
965.004	0.455832
966.669	0.0584078
968.331	0.277456
969.993	0.317269
971.655	0.62153
973.316	0.152099
974.979	0.988967
976.64	0.257668
978.3	0.30198
979.961	0.18111
981.62	0.0598097
983.28	0.5459
984.941	-0.364668
986.6	0.161524
988.259	0.375777
989.917	0.588486
991.575	-0.105874
993.233	0.0176144
994.89	-0.432882
996.547	0.286549
998.204	0.938993
999.86	1.14971
1001.52	1.8442
1003.17	1.23886
1004.83	1.05182
1006.49	0.139722
1008.14	-0.375663
1009.79	-0.0780487
1011.45	0.131907
1013.1	0.429749
1014.76	-0.257991
1016.41	0.0186996
1018.06	0.601967
1019.72	0.52944
1021.37	0.895378
1023.02	0.847055
1024.67	1.2588
1026.32	1.75854
1027.97	1.51535
1029.62	2.4512
1031.27	1.94368
1032.92	1.71838
1034.57	1.49131
1036.22	2.04777
1037.87	1.5131
1039.52	0.805017
1041.17	1.18631
1042.82	0.829487
1044.47	1.30065
1046.11	0.839749
1047.76	0.533212
1049.41	0.445722
1051.06	0.120694
1052.7	0.230954
1054.35	0.102659
1055.99	-0.112611
1057.64	-0.00216103
1059.28	0.173055
1060.93	0.499855
1062.57	-0.022191
1064.22	0.694194
1065.86	0.213582
1067.5	-0.0506411
1069.15	-0.0550146
1070.79	-0.146934
1072.43	0.303739
1074.08	0.515856
1075.72	1.01093
1077.36	0.487996
1079	1.15927
1080.64	1.33265
1082.28	1.39764
1083.92	1.39658
1085.56	1.58873
1087.2	1.84333
1088.84	0.709283
1090.48	0.743232
1092.12	1.03517
1093.76	1.54191
1095.39	1.18484
1097.03	0.743157
1098.67	1.14378
1100.31	0.534098
1101.94	0.48665
1103.58	0.376677
1105.22	0.289733
1106.85	0.526088
1108.49	1.42876
1110.12	0.158338
1111.76	0.649372
1113.39	0.300383
1115.03	0.336837
1116.66	0.351119
1118.29	0.408347
1119.93	0.059185
1121.56	0.139744
1123.19	0.735055
1124.82	0.411021
1126.46	1.2004
1128.09	0.728624
1129.72	0.856514
1131.35	0.34367
1132.98	0.472589
1134.61	0.515862
1136.24	0.750802
1137.87	0.300734
1139.5	0.981684
1141.13	-0.153824
1142.76	-0.285865
1144.39	0.499462
1146.01	0.282822
1147.64	-0.529305
1149.27	-0.189534
1150.9	0.597904
1152.53	0.19248
1154.15	0.233981
1155.78	0.381434
1157.4	-0.343663
1159.03	0.37838
1160.65	0.314181
1162.28	-0.429159
1163.9	0.168144
1165.53	0.0218544
1167.15	0.343092
1168.78	0.237967
1170.4	0.194829
1172.02	0.425797
1173.65	-0.0460949
1175.27	-0.0943766
1176.89	0.132425
1178.51	0.189608
1180.14	-0.00656509
1181.76	-0.349586
1183.38	0.133057
1185	0.129246
1186.62	-0.150046
1188.24	0.139053
1189.86	-0.396528
1191.48	0.309205
1193.1	-0.0607882
1194.71	-0.115741
1196.33	0.14394
1197.95	-0.224247
1199.57	0.372337
1201.19	0.531466
1202.8	0.171324
1204.42	0.482272
1206.04	0.5659
1207.65	0.713603
1209.27	0.402724
1210.88	0.195375
1212.5	0.653498
1214.12	0.504449
1215.73	0.498859
1217.35	1.15694
1218.96	0.731883
1220.57	0.3283
1222.19	0.963198
1223.8	0.852391
1225.41	0.826303
1227.03	0.53297
1228.64	1.25499
1230.25	0.509906
1231.86	1.2549
1233.47	0.636928
1235.08	1.57051
1236.69	0.893372
1238.31	1.45761
1239.92	0.823571
1241.52	1.20293
1243.13	0.940791
1244.74	0.346634
1246.35	1.07562
1247.96	0.272246
1249.57	0.544055
1251.18	1.08438
1252.78	1.85233
1254.39	0.842196
1256	1.15707
1257.6	1.05967
1259.21	0.44623
1260.82	1.53077
1262.42	0.608042
1264.03	1.07259
1265.63	0.480176
1267.24	0.695038
1268.84	0.680926
1270.45	0.955962
1272.05	1.08471
1273.65	1.15009
1275.26	0.882677
1276.86	1.00808
1278.46	0.44889
1280.06	0.531363
1281.67	0.799696
1283.27	0.281766
1284.87	0.778121
1286.47	1.31643
1288.07	0.450197
1289.67	1.61047
1291.27	1.05603
1292.87	0.604927
1294.47	1.55792
1296.07	1.39381
1297.67	1.64085
1299.27	1.10172
1300.87	1.077
1302.47	0.865528
1304.06	0.962077
1305.66	2.27062
1307.26	1.31672
1308.85	1.34923
1310.45	1.29969
1312.05	2.17194
1313.64	1.40712
1315.24	1.87092
1316.83	1.49793
1318.43	1.61585
1320.02	1.91697
1321.62	2.09435
1323.21	1.96433
1324.8	1.58862
1326.4	0.927947
1327.99	1.09958
1329.59	2.08123
1331.18	1.74776
1332.77	1.53881
1334.36	1.57509
1335.95	1.65359
1337.54	1.89405
1339.14	1.87147
1340.73	1.78659
1342.32	1.82008
1343.91	1.52957
1345.5	1.25849
1347.09	2.09096
1348.67	0.980583
1350.26	1.81633
1351.85	1.45382
1353.44	1.49393
1355.03	1.59552
1356.62	1.61759
1358.2	1.41944
1359.79	0.980729
1361.38	1.25972
1362.96	1.43772
1364.55	0.737895
1366.14	1.37407
1367.72	1.0944
1369.31	0.856128
1370.89	1.83354
1372.48	1.47901
1374.06	0.887087
1375.64	1.23114
1377.23	1.05798
1378.81	1.28225
1380.39	1.32629
1381.98	0.871513
1383.56	1.17121
1385.14	0.893085
1386.72	1.58818
1388.3	1.32959
1389.89	1.01242
1391.47	1.11319
1393.05	1.27432
1394.63	1.23749
1396.21	0.903053
1397.79	0.349981
1399.37	1.38144
1400.95	1.14334
1402.52	1.12253
1404.1	1.04234
1405.68	1.06165
1407.26	1.10167
1408.84	1.2019
1410.42	1.02612
1411.99	1.08739
1413.57	1.60197
1415.15	0.970695
1416.72	1.24622
1418.3	0.870557
1419.87	0.850212
1421.45	1.20515
1423.02	1.75843
1424.6	1.78201
1426.17	1.57091
1427.75	1.14395
1429.32	1.24813
1430.89	1.27258
1432.47	1.72864
1434.04	1.23906
1435.61	1.49656
1437.18	2.06868
1438.76	1.59957
1440.33	2.23237
1441.9	1.96219
1443.47	2.20383
1445.04	2.70147
1446.61	3.12077
1448.18	2.53779
1449.75	2.46619
1451.32	2.49343
1452.89	2.00999
1454.46	2.66773
1456.03	2.91255
1457.6	2.50729
1459.16	2.6121
1460.73	2.49833
1462.3	2.55937
1463.87	1.61542
1465.43	1.63417
1467	1.22028
1468.56	1.51402
1470.13	1.61221
1471.7	1.71161
1473.26	1.30225
1474.83	0.893945
1476.39	0.956796
1477.96	1.39225
1479.52	0.768986
1481.08	1.18456
1482.65	1.0708
1484.21	0.741395
1485.77	0.47049
1487.34	0.708124
1488.9	0.454762
1490.46	1.21715
1492.02	0.685662
1493.58	0.738699
1495.15	0.3214
1496.71	0.605384
1498.27	0.0905123
1499.83	0.665858
1501.39	0.192671
1502.95	0.361717
1504.51	1.36453
1506.07	-0.0926161
1507.63	0.057497
1509.18	0.611956
1510.74	0.1798
1512.3	0.36447
1513.86	0.240281
1515.41	0.270349
1516.97	0.07057
1518.53	0.408997
1520.08	-0.0380507
1521.64	0.740734
1523.2	0.504436
1524.75	0.477856
1526.31	0.164234
1527.86	0.688297
1529.42	0.69688
1530.97	0.23068
1532.52	0.183455
1534.08	-0.165741
1535.63	0.56512
1537.19	0.558462
1538.74	0.477079
1540.29	0.377414
1541.84	0.843204
1543.4	0.442254
1544.95	0.963156
1546.5	0.994408
1548.05	1.04418
1549.6	0.775138
1551.15	0.956227
1552.7	1.19363
1554.25	1.41295
1555.8	1.09184
1557.35	1.0531
1558.9	0.979227
1560.45	0.888834
1562	1.00542
1563.54	1.06729
1565.09	1.01786
1566.64	0.912545
1568.19	0.657652
1569.73	1.13025
1571.28	1.0798
1572.83	1.0477
1574.37	1.29543
1575.92	1.74853
1577.47	2.0152
1579.01	1.05015
1580.56	1.542
1582.1	1.49328
1583.64	1.59493
1585.19	2.20207
1586.73	1.89416
1588.28	1.94155
1589.82	1.78291
1591.36	1.49259
1592.9	1.20154
1594.45	1.22838
1595.99	1.59251
1597.53	1.78863
1599.07	1.61064
1600.61	1.77094
1602.15	1.96946
1603.69	1.62362
1605.23	1.87787
1606.77	2.0368
1608.31	1.59209
1609.85	2.31002
1611.39	1.69091
1612.93	1.6334
1614.47	1.7246
1616.01	1.44002
1617.55	1.15627
1619.08	1.06142
1620.62	1.17425
1622.16	1.40085
1623.7	1.3662
1625.23	1.33162
1626.77	1.16523
1628.3	1.353
1629.84	1.03418
1631.37	1.64901
1632.91	1.06723
1634.44	1.66246
1635.98	1.23174
1637.51	1.38057
1639.05	1.13847
1640.58	1.41843
1642.11	0.82193
1643.65	0.98826
1645.18	1.52528
1646.71	1.53989
1648.24	1.10813
1649.78	1.62436
1651.31	1.97395
1652.84	1.56411
1654.37	2.00874
1655.9	1.13784
1657.43	1.69417
1658.96	1.52691
1660.49	1.525
1662.02	1.66946
1663.55	1.75697
1665.08	1.99141
1666.61	1.67216
1668.14	1.35457
1669.66	1.77628
1671.19	1.46226
1672.72	1.22335
1674.25	1.55597
1675.77	0.875608
1677.3	1.09664
1678.83	1.42671
1680.35	1.36916
1681.88	1.49457
1683.4	0.6462
1684.93	0.606412
1686.45	1.13553
1687.98	0.949675
1689.5	1.1125
1691.03	0.927543
1692.55	0.724548
1694.07	0.741181
1695.6	0.465096
1697.12	0.700647
1698.64	1.24601
1700.17	0.27546
1701.69	0.326942
1703.21	0.487102
1704.73	0.00905609
1706.25	0.113554
1707.77	0.0721273
1709.29	-0.423421
1710.81	0.443056
1712.33	0.0207949
1713.85	0.505291
1715.37	0.735604
1716.89	0.567532
1718.41	0.273069
1719.93	0.231817
1721.45	0.38927
1722.97	-0.31836
1724.49	0.219159
1726	0.0550766
1727.52	0.342505
1729.04	0.468815
1730.55	0.343163
1732.07	0.1476
1733.59	0.113837
1735.1	0.70469
1736.62	0.219844
1738.13	0.190475
1739.65	0.0752888
1741.16	-0.0631237
1742.68	0.357178
1744.19	-0.321358
1745.7	0.122426
1747.22	0.264547
1748.73	0.0680265
1750.24	-0.231153
1751.76	0.306687
1753.27	0.443726
1754.78	0.451121
1756.29	-0.231759
1757.8	0.156851
1759.31	0.231286
1760.83	-0.102269
1762.34	-0.167403
1763.85	-0.222846
1765.36	0.0283642
1766.87	0.162082
1768.38	0.472798
1769.89	0.148621
1771.39	0.166822
1772.9	-0.0701141
1774.41	0.144882
1775.92	0.272797
1777.43	0.223955
1778.94	-0.0839443
1780.44	-0.266408
1781.95	0.383003
1783.46	-0.382531
1784.96	-0.0208912
1786.47	0.0996037
1787.97	0.348296
1789.48	0.0888243
1790.99	-0.103107
1792.49	-0.0161543
1794	-0.241819
1795.5	-0.199379
1797	0.144981
1798.51	0.323481
1800.01	0.14108
1801.51	-0.0331974
1803.02	0.134934
1804.52	-0.0472374
1806.02	-0.0887938
1807.53	0.229797
1809.03	0.199059
1810.53	-0.0538616
1812.03	-0.0939732
1813.53	0.35393
1815.03	0.134879
1816.53	-0.102959
1818.03	0.31764
1819.53	0.106117
1821.03	0.251785
1822.53	-0.113589
1824.03	0.116578
1825.53	-0.0978584
1827.03	0.00198555
1828.53	-0.0321188
1830.02	-0.226242
1831.52	-0.0872469
1833.02	0.0522509
1834.52	0.0961895
1836.01	-0.0295248
1837.51	0.30805
1839.01	0.115655
1840.5	0.306516
1842	-0.228859
1843.49	0.0958824
1844.99	0.0483036
1846.48	0.500057
1847.98	0.496886
1849.47	-0.00270653
1850.97	0.214898
1852.46	-0.00942135
1853.95	-0.122362
1855.45	0.141441
1856.94	-0.0766602
1858.43	0.0472088
1859.93	-0.179954
1861.42	-0.0164404
1862.91	0.110171
1864.4	0.256083
1865.89	0.195344
1867.38	0.169823
1868.87	0.120446
1870.36	0.305523
1871.85	0.458336
1873.34	0.178963
1874.83	0.251338
1876.32	-0.412396
1877.81	-0.482291
1879.3	0.219439
1880.79	0.131336
1882.28	0.168578
1882.52	0.189978
1884.02	0.223678
1885.51	0.622488
1887.01	0.183987
1888.5	0.337281
1889.99	0.17743
1891.49	-0.0856152
1892.98	-0.259974
1894.47	0.245528
1895.97	-0.377567
1897.46	0.304301
1898.95	-0.022583
1900.44	0.293114
1901.93	0.450585
1903.42	-0.0373106
1904.91	0.186412
1906.4	-0.303229
1907.89	0.232147
1909.38	-0.0655308
1910.87	-0.292644
1912.36	-0.03304
1913.85	0.00154209
1915.34	0.0188599
1916.83	0.399911
1918.32	0.260252
1919.8	0.0682354
1921.29	-0.0371494
1922.78	0.221564
1924.27	0.03092
1925.75	-0.193165
1927.24	0.276285
1928.73	-0.153875
1930.21	0.524088
1931.7	0.300818
1933.18	0.214602
1934.67	0.0227623
1936.15	0.210024
1937.64	0.188378
1939.12	0.442739
1940.61	0.334455
1942.09	0.0200834
1943.57	0.569574
1945.06	0.188368
1946.54	0.152567
1948.02	0.530152
1949.51	-0.247484
1950.99	0.0248966
1952.47	-0.340615
1953.95	-0.207546
1955.43	0.131461
1956.91	0.384545
1958.4	-0.323078
1959.88	0.360247
1961.36	-0.225363
1962.84	0.49235
1964.32	-0.16135
1965.8	0.144024
1967.27	0.448384
1968.75	0.204364
1970.23	-0.176689
1971.71	0.125748
1973.19	-0.0160789
1974.67	0.012948
1976.14	0.348907
1977.62	0.122506
1979.1	0.390121
1980.58	-0.0910826
1982.05	-0.0788584
1983.53	0.0349665
1985	0.0124989
1986.48	0.210301
1987.95	0.00104332
1989.43	0.605257
1990.9	0.0585794
1992.38	0.206958
1993.85	0.390012
1995.33	0.201985
1996.8	0.149683
1998.27	-0.13906
1999.75	0.534252
2001.22	-0.0760908
2002.69	0.156958
2004.16	0.339065
2005.64	-0.169516
2007.11	0.0810175
2008.58	0.113427
2010.05	0.129853
2011.52	-0.0215244
2012.99	0.399449
2014.46	0.281354
2015.93	0.297114
2017.4	0.496933
2018.87	0.140979
2020.34	0.255262
2021.81	0.554014
2023.28	0.0806856
2024.75	0.195812
2026.22	0.194641
2027.69	-0.0734291
2029.15	-0.0548763
2030.62	0.30052
2032.09	-0.0812979
2033.56	0.242183
2035.02	-0.15624
2036.49	-0.20253
2037.96	-0.114928
2039.42	-0.229358
2040.89	0.496624
2042.35	-0.25634
2043.82	-0.0166388
2045.28	0.207304
2046.75	-0.123357
2048.21	-0.201394
2049.67	0.0235395
2051.14	0.146526
2052.6	-0.221035
2054.07	-0.0170212
2055.53	-0.0171051
2056.99	0.0657454
2058.45	-0.12187
2059.92	0.162131
2061.38	0.345301
2062.84	0.32719
2064.3	-0.346243
2065.76	-0.092988
2067.22	0.177914
2068.68	0.0791616
2070.14	0.250031
2071.6	0.117971
2073.06	-0.216313
2074.52	0.392066
2075.98	0.107674
2077.44	-0.362345
2078.9	0.0261011
2080.36	0.228833
2081.82	0.262604
2083.27	-0.00729847
2084.73	0.159733
2086.19	0.224994
2087.65	0.508161
2089.1	0.504935
2090.56	0.0647717
2092.02	-0.375007
2093.47	0.494391
2094.93	0.0545092
2096.38	0.519692
2097.84	0.2634
2099.29	0.0905333
2100.75	-0.216163
2102.2	-0.137847
2103.66	0.191625
2105.11	0.288321
2106.56	-0.481208
2108.02	0.151749
2109.47	0.267805
2110.92	0.13322
2112.38	0.230721
2113.83	-0.0232658
2115.28	-0.0122108
2116.73	-0.351152
2118.18	0.0416327
2119.63	0.285705
2121.09	0.133233
2122.54	-0.531355
2123.99	0.132265
2125.44	-0.0492659
2126.89	-0.0817919
2128.34	0.083663
2129.79	0.280838
2131.23	-0.103096
2132.68	0.0754099
2134.13	0.237134
2135.58	-0.129651
2137.03	0.232507
2138.48	0.0343904
2139.92	-0.194963
2141.37	0.122648
2142.82	-0.0710554
2144.27	-0.115403
2145.71	-0.159663
2147.16	0.375268
2148.6	0.379973
2150.05	0.135336
2151.49	0.270752
2152.94	-0.108409
2154.38	0.439514
2155.83	-0.0236673
2157.27	0.0102673
2158.72	0.127682
2160.16	0.445148
2161.6	0.35016
2163.05	0.0081768
2164.49	0.0488005
2165.93	0.256288
2167.38	0.0154047
2168.82	-0.0272732
2170.26	-0.204672
2171.7	0.0650816
2173.14	-0.132709
2174.58	-0.0655899
2176.03	0.217168
2177.47	0.217347
2178.91	-0.11427
2180.35	0.186805
2181.79	-0.0599594
2183.23	-0.0734272
2184.67	0.246017
2186.1	0.249564
2187.54	0.103389
2188.98	0.323332
2190.42	0.310301
2191.86	-0.252381
2193.3	0.0499306
2194.73	0.40097
2196.17	0.284102
2197.61	0.398338
2199.05	0.111742
2200.48	0.156847
2201.92	-0.0970964
2203.35	0.247197
2204.79	-0.0545664
2206.22	-0.156172
2207.66	-0.224066
2209.1	-0.341742
2210.53	0.483401
2211.97	0.016448
2213.4	-0.136537
2214.83	-0.256393
2216.27	0.383759
2217.7	0.331361
2219.13	0.346189
2220.57	-0.231642
2222	-0.133276
2223.43	-0.0356312
2224.86	0.241764
2226.29	0.319697
2227.72	0.0670872
2229.16	0.175022
2230.59	-0.193757
2232.02	0.241006
2233.45	0.134927
2234.88	0.422224
2236.31	0.154698
2237.74	-0.225144
2239.17	0.278339
2240.6	0.147227
2242.03	0.229947
2243.45	0.167084
2244.88	-0.140097
2246.31	0.0414267
2247.74	0.188797
2249.17	0.285079
2250.59	0.281323
2252.02	0.389774
2253.45	0.285789
2254.87	0.0685625
2256.3	0.177767
2257.73	-0.0678415
2259.15	0.273464
2260.58	0.471609
2262	-0.139283
2263.43	-0.067131
2264.85	-0.384624
2266.28	0.0451689
2267.7	0.360764
2269.13	-0.0240898
2270.55	0.371433
2271.97	0.457288
2273.4	0.00555229
2274.82	0.303035
2276.24	0.437919
2277.67	0.589358
2279.09	0.202959
2280.51	0.142433
2281.93	0.0980654
2283.35	-0.0116682
2284.77	0.498701
2286.2	-0.0188007
2287.62	0.133202
2289.04	0.0570583
2290.46	0.389757
2291.88	0.0364323
2293.3	-0.120821
2294.72	-0.163708
2296.13	-0.288552
2297.55	-0.298924
2298.97	0.165836
2300.39	0.352556
2301.81	0.638124
2303.23	0.218803
2304.64	0.0782585
2306.06	-0.0460854
2307.48	-0.253036
2308.89	-0.181237
2310.31	0.465603
2311.73	0.174879
2313.14	-0.231243
2314.56	0.383249
2315.98	0.225015
2317.39	0.00150108
2318.81	0.124356
2320.22	0.296601
2321.64	0.368914
2323.05	0.109301
2324.46	0.557019
2325.88	0.0783768
2327.29	0.439468
2328.7	0.519229
2330.12	0.533206
2331.53	0.120019
2332.94	-0.176543
2334.35	-0.0607691
2335.77	0.0716438
2337.18	0.384464
2338.59	0.350863
2340	0.13539
2341.41	-0.146463
2342.82	-0.0838165
2344.23	0.142709
2345.64	0.23809
2347.05	-0.157731
2348.46	0.101722
2349.87	0.196895
2351.28	-0.166532
2352.69	0.302632
2354.1	-0.225317
2355.51	0.111021
2356.91	0.234656
2358.32	0.30919
2359.73	-0.412433
2361.14	0.409429
2362.54	0.110851
2363.95	0.266273
2365.36	0.146273
2366.76	0.366101
2368.17	0.360059
2369.58	0.161489
2370.98	0.125732
2372.39	0.17189
2373.79	-0.0708618
2375.2	0.105475
2376.6	0.233028
2378	0.198584
2379.41	0.24299
2380.81	-0.308274
2382.22	0.0381994
2383.62	0.238853
2385.02	0.118876
2386.43	-0.0643396
2387.83	-0.246268
2389.23	-0.235376
2390.63	0.0793686
2392.03	0.378881
2393.44	0.185784
2394.84	0.00961685
2396.24	0.199937
2397.64	0.152358
2399.04	-0.132962
2400.44	0.360733
2401.84	0.155696
2403.24	0.411319
2404.64	-0.0321589
2406.04	-0.0159178
2407.44	0.031146
2408.84	0.283571
2410.23	0.424447
2411.63	0.185164
2413.03	0.18445
2414.43	0.0108366
2415.83	0.0603361
2417.22	-0.126348
2418.62	0.305335
2420.02	0.0723667
2421.41	-0.144961
2422.81	0.128418
2424.21	0.0688658
2425.6	0.389665
2427	-0.414221
2428.39	0.240859
2429.79	-0.070138
2431.18	7.62939e-005
2432.58	0.419762
2433.97	0.124615
2435.36	-0.219502
2436.76	-0.0884972
2438.15	0.311148
2439.54	0.407589
2440.94	0.471292
2442.33	-0.052949
2443.72	0.0893822
2445.12	0.215557
2446.51	0.198778
2447.9	0.102643
2449.29	0.0224152
2450.68	-0.0733595
2452.07	0.0372047
2453.46	0.544028
2454.85	0.118096
2456.24	0.578815
2457.64	0.0432682
2459.02	0.361735
2460.41	0.236754
2461.8	0.111017
2463.19	0.442928
2464.58	-0.0633516
2465.97	0.0621853
2467.36	0.124372
2468.75	-0.208006
2470.13	0.200953
2471.52	-0.289408
2472.91	0.448876
2474.3	0.0519915
2475.68	-0.455058
2477.07	0.138553
2478.45	0.542688
2479.84	0.569732
2481.23	-0.343876
2482.61	0.467288
2484	0.055625
2485.38	-0.0277319
2486.77	0.231687
2488.15	-0.181553
2489.54	0.12239
2490.92	0.176375
2492.3	0.199639
2493.69	0.161788
2495.07	0.26494
2496.45	0.0126629
2497.84	0.133326
2499.22	0.145734
2500.6	0.46714
2501.98	-0.0472994
2503.36	-0.268421
2504.75	0.342978
2506.13	0.228284
2507.51	0.282891
2508.89	0.137638
2510.27	-0.0836725
2511.65	0.156343
2513.03	0.396666
2514.41	0.453654
2515.79	-0.269161
2517.17	0.264008
2518.55	0.109124
2519.93	0.18378
2521.3	-0.108448
2522.68	0.346931
2524.06	0.22127
2525.44	-0.0725584
2526.82	0.151566
2528.19	0.162704
2529.57	0.235713
2530.95	0.2798
2532.32	-0.130311
2533.7	-0.356663
2535.08	-0.445594
2536.45	-0.139565
2537.83	0.348083
2539.2	0.0144911
2540.58	0.0294743
2541.95	0.195861
2543.33	0.392744
2544.7	0.393168
2546.08	0.121803
2547.45	-0.0421858
2548.82	0.264909
2550.2	-0.0954819
2551.57	0.560354
2552.94	-0.059474
2554.32	0.0785017
2555.69	0.367271
2557.06	-0.0120316
2558.43	0.00298309
2559.8	0.0637178
2561.18	-0.329756
2562.55	0.383759
2563.92	-0.0236492
2565.29	0.205837
2566.66	0.496188
2568.03	-0.471233
2569.4	0.198098
2570.77	-0.132853
2572.14	0.112179
2573.51	0.145098
2574.88	0.11746
2576.25	0.180819
2577.61	0.319912
2578.98	0.0797234
2580.35	0.0514545
2581.72	0.113763
2583.09	-0.00624371
2584.45	-0.202263
2585.82	0.314136
2587.19	-0.321367
2588.55	-0.304908
2589.92	0.196591
2591.29	0.106913
2592.65	0.319825
2594.02	0.244037
2595.38	0.303562
2596.75	0.377143
2598.11	0.313688
2599.48	0.0382595
2600.84	0.080554
2602.21	-0.0881481
2603.57	0.0458488
2604.93	0.104821
2606.3	0.194104
2607.66	0.117135
2609.02	0.159978
2610.39	0.2317
2611.75	-0.224742
2613.11	-0.215379
2614.47	0.243855
2615.83	0.0716543
2617.19	-0.144949
2618.56	-0.615166
2619.92	-0.111235
2621.28	0.183252
2622.64	0.0146208
2624	0.174943
2625.36	0.245458
2626.72	0.494556
2628.08	0.400232
2629.44	0.246177
2630.8	-0.696384
2632.15	0.369351
2633.51	0.586642
2634.87	0.447329
2636.23	0.397183
2637.59	0.228553
2638.94	-0.117436
2640.3	0.306579
2641.66	0.464089
2643.02	0.281866
2644.37	0.0852966
2645.73	0.44951
2647.09	-0.0422277
2648.44	0.0847712
2649.8	0.328471
2651.15	0.232882
2652.51	-0.127176
2653.86	-0.16354
2655.22	-0.0232525
2656.57	0.220357
2657.93	0.772119
2659.28	-0.211843
2660.63	0.223866
2661.99	0.235183
2663.34	0.31892
2664.69	-0.123728
2666.05	0.250294
2667.4	0.0840397
2668.75	0.500401
2670.1	0.305263
2671.45	-0.23801
2672.81	0.702107
2674.16	0.247634
2675.51	0.0119257
2676.86	0.429854
2678.21	0.0649347
2679.56	0.803017
2680.91	0.309586
2682.26	0.0638571
2683.61	0.486266
2684.96	0.184587
2686.31	0.361998
2687.66	-0.0412264
2689	0.454291
2690.35	-0.0389805
2691.7	0.641736
2693.05	0.391925
2694.4	0.0978537
2695.74	0.456073
2697.09	0.597249
2698.44	-0.158198
2699.79	0.203166
2701.13	0.160765
2702.48	0.264658
2703.83	0.601507
2705.17	0.678221
2706.52	0.232902
2707.86	0.35283
2709.21	-0.166292
2710.55	-0.00364113
2711.9	0.333179
2713.24	-0.318065
2714.58	0.440184
2715.93	0.326414
2717.27	0.285149
2718.62	0.389084
2719.96	0.681849
2721.3	0.464884
2722.65	0.713116
2723.99	0.0729914
2725.33	0.334852
2726.67	0.145111
2728.01	0.348024
2729.35	0.5361
2730.7	0.229258
2732.04	0.35891
2733.38	0.401325
2734.72	0.21117
2736.06	0.35576
2737.4	0.427741
2738.74	0.150651
2740.08	0.469569
2741.42	0.104547
2742.76	0.480404
2744.1	0.332172
2745.43	0.532068
2746.77	0.353795
2748.11	0.0593567
2749.45	0.519666
2750.79	0.109602
2752.12	0.381488
2753.46	0.0591984
2754.8	0.0125608
2756.14	0.24126
2757.47	0.223825
2758.81	0.351408
2760.14	0.450364
2761.48	-0.173774
2762.81	-0.0449009
2764.15	-0.0170345
2765.49	0.0976238
2766.82	0.32755
2768.16	0.397369
2769.49	0.133289
2770.82	0.0125217
2772.16	-0.0227852
2773.49	0.0852337
2774.82	0.437606
2776.16	0.270773
2777.49	-0.0825129
2778.82	0.0398369
2780.16	0.148137
2781.49	0.184798
2782.82	-0.137287
2784.15	-0.0717888
2785.48	-0.0494118
2786.82	-0.0268879
2788.15	0.153543
2789.48	-0.00883102
2790.81	0.00142384
2792.14	0.255495
2793.47	-0.047617
2794.8	0.44979
2796.13	0.0464573
2797.46	0.214158
2798.79	0.081336
2800.12	0.276445
2801.44	-0.142301
2802.77	0.137807
2804.1	-0.0244045
2805.43	0.382822
2806.76	-0.193159
2808.08	-0.0578222
2809.41	0.0911083
2810.74	-0.34241
2812.07	0.0767193
2813.39	0.241136
2814.72	0.364311
2816.05	0.00694275
2817.37	0.104319
2818.7	-0.0528603
2820.02	0.257696
2821.35	-0.0132961
2822.67	0.366969
2824	0.23642
2825.32	-0.00773811
2826.65	0.371346
2827.97	0.0570211
2829.3	0.281295
2830.62	0.378592
2831.94	0.660112
2833.26	0.601836
2834.59	0.585698
2835.91	0.951161
2837.23	0.594327
2838.56	0.50597
2839.88	1.19525
2841.2	1.16323
2842.52	1.07512
2843.84	1.00184
2845.16	1.56528
2846.48	1.77604
2847.8	1.81762
2849.12	1.87336
2850.45	2.29628
2851.77	1.68686
2853.08	1.76949
2854.4	2.0919
2855.72	1.97603
2857.04	2.22747
2858.36	2.52127
2859.68	1.96762
2861	2.74124
2862.32	2.70955
2863.63	2.86093
2864.95	2.89906
2866.27	2.89483
2867.59	3.53961
2868.9	3.76162
2870.22	3.63159
2871.54	3.24807
2872.85	3.03349
2874.17	4.05811
2875.48	3.79916
2876.8	3.79257
2878.11	4.36197
2879.43	4.41007
2880.74	4.0087
2882.06	3.98801
2883.37	4.0809
2884.69	4.42759
2886	4.21331
2887.31	4.20973
2888.63	4.37403
2889.94	4.56539
2891.25	4.96593
2892.57	4.70666
2893.88	5.02178
2895.19	4.2729
2896.5	4.88328
2897.82	5.08873
2899.13	5.01552
2900.44	4.63552
2901.75	5.01153
2903.06	4.53448
2904.37	4.68708
2905.68	5.09176
2906.99	5.16141
2908.3	4.98022
2909.61	5.77936
2910.92	5.87979
2912.23	6.03625
2913.54	6.58385
2914.85	6.33179
2916.16	5.97967
2917.46	6.21363
2918.77	6.54419
2920.08	6.45477
2921.39	6.47807
2922.7	6.2652
2924	6.38951
2925.31	7.20011
2926.62	6.93515
2927.92	7.4531
2929.23	7.10386
2930.54	6.90773
2931.84	7.03258
2933.15	6.94744
2934.45	7.61704
2935.76	6.60961
2937.06	7.16769
2938.37	6.9993
2939.67	6.77538
2940.98	6.80361
2942.28	6.19006
2943.58	6.22069
2944.89	6.84012
2946.19	5.72718
2947.49	5.78935
2948.8	5.69736
2950.1	5.38001
2951.4	5.34059
2952.7	5.45307
2954.01	5.14392
2955.31	4.56848
2956.61	5.00193
2957.91	5.24168
2959.21	4.54655
2960.51	4.9326
2961.81	4.69062
2963.11	4.74381
2964.41	4.12258
2965.71	4.25762
2967.01	4.61587
2968.31	3.8904
2969.61	4.20429
2970.91	3.92748
2972.21	3.79157
2973.51	3.59969
2974.81	3.29512
2976.1	4.03163
2977.4	3.57008
2978.7	3.4305
2980	3.55651
2981.29	3.35735
2982.59	3.28432
2983.89	3.26798
2985.18	2.81719
2986.48	3.39409
2987.78	2.23016
2989.07	2.66928
2990.37	2.30772
2991.66	2.18455
2992.96	2.20085
2994.25	2.1596
2995.55	2.04694
2996.84	1.98975
2998.14	1.53948
2999.43	1.84734
3000.73	1.16003
3002.02	1.23074
3003.31	0.517182
3004.61	1.12097
3005.9	1.31803
3007.19	1.15039
3008.48	1.2059
3009.77	1.12062
3011.07	0.894964
3012.36	0.59943
3013.65	0.471788
3014.94	0.637531
3016.23	0.608759
3017.52	0.246696
3018.81	0.692649
3020.1	0.331627
3021.4	0.373687
3022.68	0.17878
3023.97	0.441192
3025.26	0.231035
3026.55	0.325807
3027.84	0.19952
3029.13	0.185213
3030.42	0.131011
3031.71	0.106002
3033	0.109715
3034.28	0.0724058
3035.57	-0.144684
3036.86	0.106019
3038.15	0.0102758
3039.43	0.256962
3040.72	-0.213139
3042.01	-0.133817
3043.29	-0.136945
3044.58	0.120883
3045.87	-0.0304012
3047.15	-0.0835814
3048.44	0.384459
3049.72	0.444861
3051.01	0.384112
3052.29	0.460746
3053.58	-0.253919
3054.86	0.0405607
3056.15	0.211227
3057.43	0.298948
3058.71	0.195111
3060	0.486052
3061.28	0.409675
3062.56	0.416034
3063.84	0.192715
3065.13	0.0798726
3066.41	0.498691
3067.69	0.0348711
3068.97	-0.129432
3070.26	0.426897
3071.54	0.384055
3072.82	0.0544968
3074.1	0.417251
3075.38	0.0315313
3076.66	0.338546
3077.94	0.129948
3079.22	-0.213006
3080.5	0.15113
3081.78	-0.0664716
3083.06	0.124194
3084.34	-0.0778079
3085.62	-0.0490146
3086.9	0.155915
3088.18	0.088778
3089.45	0.061769
3090.73	0.278661
3092.01	0.251215
3093.29	0.00700665
3094.56	0.11587
3095.84	-0.0461082
3097.12	0.0903964
3098.4	0.0777984
3099.67	-0.27357
3100.95	0.0932183
3102.22	-0.271315
3103.5	0.109341
3104.78	0.124959
3106.05	0.236127
3107.33	0.13177
3108.6	0.44807
3109.88	0.183583
3111.15	0.082521
3112.43	-0.0177832
3113.7	-0.0092206
3114.97	0.31125
3116.25	0.00780153
3117.52	0.3681
3118.79	0.673251
3120.07	0.0551558
3121.34	0.0602169
3122.61	0.376505
3123.88	0.231925
3125.16	0.480423
3126.43	0.336794
3127.7	0.451013
3128.97	0.295284
3130.24	0.46465
3131.51	0.228656
3132.79	0.330623
3134.06	0.351254
3135.33	0.533475
3136.6	0.701598
3137.87	0.505116
3139.14	0.71281
3140.41	0.677886
3141.67	0.804609
3142.94	0.649371
3144.21	0.589023
3145.48	0.650262
3146.75	0.698809
3148.02	0.667743
3149.29	0.463404
