200.407	0.0890903
202.221	0.124636
204.035	0.161051
205.849	0.442228
207.665	0.407703
209.478	0.688383
211.291	-0.34441
213.104	0.296886
214.916	0.547565
216.73	1.28175
218.541	0.779734
220.352	0.860289
222.163	1.11158
223.973	0.179432
225.785	0.31246
227.595	-0.110113
229.404	1.13324
231.213	0.781687
233.022	0.285223
234.83	-0.186161
236.638	0.574036
238.448	-0.157164
240.255	0.561653
242.062	0.488628
243.868	0.514194
245.675	0.0812016
247.48	0.659559
249.286	0.751089
251.091	-0.0556393
252.896	0.00264549
254.702	-0.303677
256.506	-0.34524
258.31	0.168642
260.113	-0.0622501
261.916	0.504774
263.719	-0.106098
265.521	0.320583
267.323	-0.698061
269.125	0.162601
270.926	-0.255482
272.727	0.0479088
274.527	-0.229504
276.328	0.840572
278.127	0.4613
279.927	0.295958
281.726	0.320164
283.525	0.269243
285.323	0.552496
287.121	0.281851
288.919	0.539146
290.716	0.0544052
292.513	0.242599
294.31	0.00227356
296.104	-0.618172
297.9	0.55595
299.696	-0.0141048
301.491	0.251862
303.286	-0.176072
305.081	1.04111
306.875	0.418913
308.669	0.0591459
310.463	0.391428
312.256	0.439339
314.047	0.727758
315.839	1.20946
317.631	-0.0444546
319.423	1.9432
321.215	1.12192
323.006	0.253332
324.794	0.839848
326.585	1.26012
328.375	0.892056
330.165	0.90493
331.954	0.796317
333.741	1.28298
335.53	1.23999
337.318	0.140381
339.106	0.521042
340.894	0.588057
342.679	0.247228
344.466	0.981715
346.253	0.354847
348.039	0.612843
349.823	0.584921
351.608	0.366082
353.393	1.64974
355.176	-0.0747614
356.961	0.48903
358.745	-0.332034
360.529	0.560736
362.31	0.451235
364.093	0.411981
365.876	0.894254
367.657	0.211294
369.439	0.0736151
371.221	0.574356
373	0.717898
374.781	1.21491
376.56	0.105559
378.34	1.07441
380.12	1.54792
381.898	0.657165
383.677	1.25155
385.456	1.35351
387.233	0.846306
389.011	0.717016
390.787	1.57566
392.565	0.861894
394.34	-0.109249
396.117	1.33901
397.894	0.697233
399.668	1.018
401.444	1.26758
403.217	3.70042
404.993	3.31331
406.766	3.34754
408.54	2.86409
410.312	3.06087
412.086	3.18715
413.858	2.61009
415.631	2.80861
417.402	2.58611
419.174	2.92786
420.944	1.32203
422.716	1.26459
424.486	0.313854
426.257	1.16925
428.025	1.38935
429.794	0.927816
431.564	1.09993
433.332	0.404029
435.101	1.11677
436.868	0.421228
438.637	0.264396
440.403	-0.0588923
442.169	0.482852
443.937	0.950373
445.703	0.61777
447.468	0.845426
449.234	0.931492
450.999	0.643623
452.765	0.496711
454.528	1.09673
456.292	0.320578
458.057	0.197413
459.819	0.958717
461.582	0.371083
463.344	0.460405
465.107	0.3673
466.868	0.812898
468.629	-0.108538
470.392	1.29758
472.152	1.37993
473.912	1.99667
475.672	1.98212
477.433	2.73258
479.192	3.06048
480.951	2.01219
482.709	0.731326
484.469	1.36207
486.226	1.55339
487.984	0.722781
489.74	1.29379
491.499	1.54053
493.255	0.643895
495.011	1.28938
496.767	1.63158
498.522	2.20821
500.277	1.84703
502.033	0.850439
503.788	1.63589
505.541	0.0936966
507.295	1.2989
509.048	1.1853
510.801	1.86901
512.553	1.77368
514.308	1.76991
516.06	1.50504
517.811	1.40287
519.562	0.899446
521.313	2.11041
523.063	1.58147
524.814	1.35777
526.563	1.08729
528.313	0.465364
530.062	1.34368
531.811	1.23665
533.559	0.870929
535.308	0.854665
537.055	0.953014
538.803	0.768723
540.55	1.07261
542.297	0.745511
544.043	0.395227
545.789	1.0913
547.535	0.555837
549.281	0.671043
551.026	0.323141
552.771	0.693295
554.515	0.577648
556.259	0.393345
558.003	0.302184
559.747	0.373167
561.49	0.191608
563.233	0.747239
564.975	0.590364
566.717	0.480599
568.459	0.165527
570.2	1.34396
571.942	0.917828
573.68	0.907373
575.421	1.61088
577.161	0.665252
578.901	1.2821
580.64	0.339003
582.379	0.452173
584.118	0.472668
585.855	1.04355
587.593	0.738574
589.331	0.93767
591.068	0.468015
592.805	1.53897
594.54	0.953084
596.277	0.919394
598.013	0.172426
599.749	0.828299
601.484	0.332574
603.217	0.616992
604.952	-0.342537
606.687	0.351175
608.421	0.353859
610.153	-0.424058
611.886	-0.649963
613.619	-0.0262156
615.35	-0.2958
617.083	0.878453
618.815	0.470793
620.547	-0.0297604
622.276	0.74941
624.008	0.0630341
625.738	0.177063
627.467	0.520805
629.197	0.114116
630.927	0.372963
632.655	-0.209291
634.384	-0.356393
636.113	-0.412646
637.839	-0.0376711
639.568	0.561318
641.293	0.151555
643.021	0.0119505
644.748	0.166544
646.473	1.00366
648.2	-0.226234
649.924	-0.291248
651.65	0.308407
653.376	-0.33582
655.099	0.229897
656.824	-0.520421
658.546	0.188032
660.271	0.212903
661.993	0.212616
663.716	0.0259762
665.438	-0.187441
667.161	-0.129535
668.881	-0.484509
670.604	0.762586
672.324	0.114079
674.045	-0.050457
675.765	0.177723
677.486	0.110086
679.204	0.593838
680.925	0.249467
682.643	1.55822
684.361	-0.0352631
686.08	0.162835
687.797	0.519809
689.516	-0.345698
691.232	0.238806
692.95	-0.283332
694.666	0.229937
696.382	0.580339
698.099	0.0308552
699.813	-0.17497
701.528	0.58355
703.244	-0.613978
704.958	-0.524776
706.673	0.802783
708.387	0.728782
710.099	0.218919
711.814	0.396114
713.526	0.412411
715.238	1.02251
716.949	0.581139
718.663	0.688129
720.374	0.749648
722.084	0.856859
723.796	0.986693
725.506	0.525083
727.216	0.518086
728.925	0.283522
730.636	0.728783
732.345	0.470495
734.053	0.619644
735.761	0.881569
737.471	1.03059
739.178	0.526192
740.885	0.49754
742.592	0.628483
744.298	1.21165
746.006	1.43645
747.712	1.57342
749.417	1.66758
751.122	1.38151
752.827	1.23253
754.532	1.55821
756.236	1.43641
757.942	1.47467
759.645	0.97468
761.348	1.71589
763.051	1.26331
764.753	0.877452
766.456	2.13876
768.158	1.95175
769.859	2.14542
771.56	1.61211
773.261	2.09401
774.964	1.58013
776.664	1.92634
778.364	1.91289
780.064	2.26384
781.763	2.09658
783.462	1.52221
785.16	1.87393
786.859	1.29389
788.557	1.07116
790.255	2.04229
791.952	1.1543
793.649	0.49103
795.346	0.708303
797.042	0.182756
798.738	0.809093
800.434	0.67214
802.127	0.447594
803.823	0.224312
805.517	1.08011
807.212	1.41712
808.906	1.1007
810.6	0.648197
812.293	1.02461
813.987	1.06345
815.68	0.810789
817.372	0.759813
819.064	1.13367
820.754	1.3509
822.446	1.59067
824.137	1.09555
825.828	0.692427
827.519	0.760723
829.209	1.96897
830.897	0.93268
832.587	1.17034
834.276	1.34477
835.966	0.829691
837.654	1.83141
839.341	2.14023
841.029	1.24054
842.717	1.00846
844.404	1.91513
846.091	1.59394
847.776	0.783464
849.463	1.09467
851.149	1.61185
852.833	2.40217
854.519	1.513
856.204	1.16086
857.889	1.59324
859.572	1.5287
861.256	1.21346
862.94	0.872736
864.622	0.957882
866.305	0.139893
867.988	0.944019
869.669	0.665251
871.351	0.791925
873.033	0.0384941
874.713	1.22526
876.395	1.35173
878.074	0.733526
879.755	0.318184
881.435	0.331163
883.114	0.794607
884.794	0.26309
886.471	0.113298
888.15	0.7283
889.829	0.348051
891.506	0.258923
893.184	0.505644
894.861	1.44769
896.538	0.632828
898.214	0.559086
899.891	0.596161
901.566	0.452679
903.242	0.21912
904.916	0.142324
906.592	1.02586
908.266	1.01653
909.941	0.251469
911.614	0.624109
913.288	-0.180798
914.961	0.881622
916.635	0.76643
918.306	0.651415
919.979	0.913197
921.651	0.909973
923.321	0.798079
924.994	0.976145
926.664	0.95837
928.336	0.568193
930.005	0.776131
931.674	1.0293
933.345	1.45938
935.014	1.18386
936.682	1.37229
938.352	0.790247
940.019	1.62179
941.687	-0.103329
943.356	0.290346
945.022	-0.220827
946.689	0.811354
948.357	0.626671
950.022	0.416912
951.688	0.624464
953.355	-0.248775
955.02	0.00539589
956.684	0.550518
958.348	0.461403
960.014	0.11195
961.678	-0.0807571
963.341	0.566179
965.004	0.260328
966.669	0.0385151
968.331	0.365356
969.993	0.910011
971.655	0.302826
973.316	0.780188
974.979	0.441607
976.64	1.10123
978.3	0.215174
979.961	0.181753
981.62	0.147795
983.28	0.831245
984.941	0.714672
986.6	0.661133
988.259	-0.0811691
989.917	0.50197
991.575	0.50881
993.233	0.272413
994.89	-0.0959816
996.547	0.793808
998.204	1.52824
999.86	2.4157
1001.52	3.10319
1003.17	2.1825
1004.83	1.06461
1006.49	0.299744
1008.14	0.722019
1009.79	0.376219
1011.45	0.404444
1013.1	0.323843
1014.76	-0.369268
1016.41	0.383926
1018.06	-0.59136
1019.72	0.644531
1021.37	0.307056
1023.02	0.321375
1024.67	1.45191
1026.32	1.11914
1027.97	1.158
1029.62	2.61585
1031.27	1.64663
1032.92	1.87601
1034.57	1.22952
1036.22	1.54079
1037.87	0.891609
1039.52	0.265064
1041.17	0.380116
1042.82	0.714544
1044.47	0.747385
1046.11	0.435997
1047.76	0.214798
1049.41	2.03785
1051.06	0.0624332
1052.7	0.629562
1054.35	0.328436
1055.99	0.179379
1057.64	0.942884
1059.28	1.24928
1060.93	-0.315306
1062.57	0.184475
1064.22	0.726252
1065.86	0.679213
1067.5	-0.478016
1069.15	-0.00660706
1070.79	0.767424
1072.43	0.107899
1074.08	1.14217
1075.72	0.724184
1077.36	1.41472
1079	1.02306
1080.64	1.15326
1082.28	0.849857
1083.92	1.60749
1085.56	1.25658
1087.2	1.76909
1088.84	1.6061
1090.48	1.20223
1092.12	0.883453
1093.76	0.953098
1095.39	2.01538
1097.03	0.749126
1098.67	1.40434
1100.31	1.48053
1101.94	1.51703
1103.58	1.83637
1105.22	1.55577
1106.85	1.66347
1108.49	0.69545
1110.12	0.973019
1111.76	1.24776
1113.39	0.638725
1115.03	0.844032
1116.66	1.11239
1118.29	1.42342
1119.93	2.14232
1121.56	2.19842
1123.19	2.64172
1124.82	2.35912
1126.46	1.54364
1128.09	1.92752
1129.72	1.84221
1131.35	1.84352
1132.98	1.61026
1134.61	1.26999
1136.24	0.907387
1137.87	1.50469
1139.5	0.668446
1141.13	1.11216
1142.76	1.12775
1144.39	0.29044
1146.01	0.73419
1147.64	0.475983
1149.27	0.688175
1150.9	1.00765
1152.53	1.1354
1154.15	0.879313
1155.78	0.963228
1157.4	0.387329
1159.03	0.790791
1160.65	0.302387
1162.28	1.09178
1163.9	0.0968819
1165.53	0.59124
1167.15	0.660019
1168.78	1.36484
1170.4	0.85499
1172.02	0.469652
1173.65	-0.194275
1175.27	0.816715
1176.89	0.404907
1178.51	0.947283
1180.14	0.325844
1181.76	0.214472
1183.38	0.37925
1185	-0.0476494
1186.62	0.390266
1188.24	-0.37776
1189.86	-0.0304089
1191.48	0.376225
1193.1	-0.250938
1194.71	-0.247869
1196.33	0.195484
1197.95	0.387911
1199.57	0.415462
1201.19	0.593176
1202.8	1.2345
1204.42	1.46228
1206.04	1.21387
1207.65	0.467274
1209.27	0.618389
1210.88	0.726479
1212.5	1.14443
1214.12	1.20397
1215.73	1.03049
1217.35	1.14542
1218.96	0.967381
1220.57	0.955549
1222.19	1.60854
1223.8	2.20036
1225.41	2.23496
1227.03	1.96193
1228.64	1.75379
1230.25	3.03677
1231.86	2.77095
1233.47	2.7142
1235.08	2.14308
1236.69	2.75229
1238.31	2.01983
1239.92	2.79782
1241.52	2.76993
1243.13	2.10012
1244.74	2.35986
1246.35	2.78339
1247.96	1.83939
1249.57	2.42524
1251.18	2.84488
1252.78	2.35467
1254.39	1.74173
1256	2.55788
1257.6	2.11452
1259.21	2.9974
1260.82	2.6198
1262.42	2.09789
1264.03	2.23857
1265.63	1.92275
1267.24	2.1859
1268.84	2.01215
1270.45	2.12683
1272.05	2.15672
1273.65	2.47506
1275.26	2.27334
1276.86	2.09079
1278.46	1.82406
1280.06	1.76353
1281.67	1.57834
1283.27	2.17962
1284.87	2.0162
1286.47	1.48234
1288.07	3.18273
1289.67	1.78439
1291.27	2.28836
1292.87	2.73014
1294.47	2.71604
1296.07	2.6171
1297.67	2.53601
1299.27	3.11225
1300.87	2.94279
1302.47	3.57468
1304.06	3.11293
1305.66	3.8843
1307.26	3.50301
1308.85	4.0862
1310.45	4.19678
1312.05	5.14721
1313.64	3.39752
1315.24	4.02329
1316.83	4.44566
1318.43	4.41966
1320.02	4.1489
1321.62	4.85464
1323.21	4.15199
1324.8	4.70775
1326.4	3.51353
1327.99	4.45008
1329.59	4.29178
1331.18	4.50093
1332.77	4.63311
1334.36	4.06282
1335.95	5.17131
1337.54	4.30326
1339.14	4.66457
1340.73	4.45824
1342.32	4.06705
1343.91	4.55731
1345.5	3.79949
1347.09	4.28679
1348.67	3.69457
1350.26	3.44828
1351.85	3.50715
1353.44	2.89007
1355.03	3.43511
1356.62	3.92066
1358.2	2.96689
1359.79	3.92906
1361.38	3.77065
1362.96	3.65068
1364.55	3.80927
1366.14	3.62938
1367.72	3.11261
1369.31	2.99664
1370.89	3.44055
1372.48	3.76748
1374.06	2.94243
1375.64	2.79517
1377.23	3.08592
1378.81	2.89821
1380.39	2.52964
1381.98	2.59652
1383.56	2.91955
1385.14	2.82307
1386.72	3.26223
1388.3	2.98633
1389.89	2.83096
1391.47	2.51858
1393.05	3.06085
1394.63	2.47308
1396.21	2.79741
1397.79	3.29872
1399.37	2.82691
1400.95	3.22521
1402.52	3.38444
1404.1	2.9499
1405.68	2.41786
1407.26	2.5796
1408.84	2.46613
1410.42	2.90674
1411.99	3.22857
1413.57	1.61464
1415.15	2.46685
1416.72	2.29124
1418.3	2.3319
1419.87	2.68823
1421.45	2.39628
1423.02	2.48128
1424.6	2.62818
1426.17	2.36401
1427.75	2.4748
1429.32	3.0969
1430.89	3.52056
1432.47	3.05647
1434.04	4.67616
1435.61	3.6783
1437.18	4.27391
1438.76	4.87057
1440.33	4.70244
1441.9	5.22405
1443.47	4.86266
1445.04	4.9344
1446.61	5.37994
1448.18	5.27544
1449.75	5.2501
1451.32	5.91383
1452.89	5.47752
1454.46	4.90411
1456.03	5.74702
1457.6	5.36893
1459.16	5.55902
1460.73	4.42721
1462.3	4.23659
1463.87	4.12167
1465.43	4.5158
1467	4.67302
1468.56	3.75086
1470.13	3.79282
1471.7	2.32625
1473.26	3.17668
1474.83	2.53784
1476.39	2.74304
1477.96	2.28182
1479.52	1.95781
1481.08	1.9277
1482.65	1.89744
1484.21	1.35753
1485.77	1.11107
1487.34	1.27479
1488.9	2.27812
1490.46	2.18159
1492.02	1.35804
1493.58	1.50893
1495.15	1.53941
1496.71	1.7628
1498.27	0.914892
1499.83	0.730766
1501.39	1.92711
1502.95	0.621134
1504.51	0.966048
1506.07	1.62051
1507.63	0.880316
1509.18	1.53093
1510.74	1.65714
1512.3	1.18412
1513.86	0.442189
1515.41	0.740398
1516.97	0.731614
1518.53	0.64737
1520.08	1.21558
1521.64	0.539147
1523.2	1.56483
1524.75	0.887738
1526.31	1.08777
1527.86	1.55233
1529.42	1.50126
1530.97	1.35529
1532.52	1.00197
1534.08	1.35166
1535.63	1.58871
1537.19	1.77012
1538.74	0.933078
1540.29	2.17257
1541.84	1.28106
1543.4	1.16276
1544.95	1.90922
1546.5	2.39085
1548.05	3.05883
1549.6	2.01966
1551.15	2.03148
1552.7	2.30602
1554.25	2.05829
1555.8	2.44827
1557.35	2.82209
1558.9	2.30333
1560.45	2.49702
1562	2.60017
1563.54	2.76122
1565.09	2.06502
1566.64	2.67511
1568.19	2.63173
1569.73	3.12896
1571.28	3.04688
1572.83	3.67363
1574.37	3.66541
1575.92	3.89989
1577.47	4.17207
1579.01	3.19413
1580.56	3.97223
1582.1	4.62127
1583.64	3.81503
1585.19	4.63549
1586.73	4.42922
1588.28	4.24177
1589.82	4.07247
1591.36	3.88349
1592.9	3.86203
1594.45	4.58919
1595.99	3.49943
1597.53	3.70288
1599.07	4.02012
1600.61	4.05751
1602.15	4.35853
1603.69	3.64582
1605.23	3.72028
1606.77	3.43532
1608.31	3.67309
1609.85	4.01957
1611.39	2.80224
1612.93	4.11772
1614.47	2.74547
1616.01	3.83117
1617.55	2.92935
1619.08	3.43558
1620.62	2.97011
1622.16	3.03152
1623.7	2.47653
1625.23	2.85771
1626.77	3.18135
1628.3	2.51102
1629.84	3.5593
1631.37	3.27764
1632.91	3.66796
1634.44	3.64761
1635.98	3.10623
1637.51	3.49941
1639.05	3.96797
1640.58	3.4858
1642.11	4.13933
1643.65	3.39379
1645.18	4.28452
1646.71	3.20127
1648.24	3.43826
1649.78	3.61982
1651.31	3.65432
1652.84	3.54255
1654.37	3.15471
1655.9	3.32429
1657.43	3.12309
1658.96	3.71716
1660.49	3.86415
1662.02	3.80488
1663.55	3.68818
1665.08	3.34894
1666.61	4.26577
1668.14	3.39418
1669.66	3.18977
1671.19	3.26446
1672.72	3.65411
1674.25	3.27095
1675.77	3.09013
1677.3	2.6136
1678.83	3.1842
1680.35	2.26315
1681.88	2.51785
1683.4	2.93688
1684.93	2.52966
1686.45	1.90343
1687.98	1.8285
1689.5	2.43206
1691.03	2.24808
1692.55	2.2474
1694.07	1.36862
1695.6	1.69705
1697.12	1.40344
1698.64	0.616548
1700.17	1.14393
1701.69	1.10442
1703.21	0.790675
1704.73	0.640416
1706.25	0.999136
1707.77	1.15679
1709.29	1.42299
1710.81	0.599936
1712.33	0.975283
1713.85	0.824824
1715.37	0.710895
1716.89	0.597035
1718.41	0.573503
1719.93	0.947135
1721.45	0.183679
1722.97	0.341702
1724.49	1.25768
1726	0.301824
1727.52	0.590851
1729.04	0.215356
1730.55	0.165323
1732.07	0.452921
1733.59	0.241768
1735.1	0.434292
1736.62	0.123262
1738.13	0.660085
1739.65	0.171828
1741.16	0.921989
1742.68	0.867691
1744.19	0.448752
1745.7	0.140125
1747.22	0.289412
1748.73	0.83208
1750.24	-0.0886326
1751.76	0.121158
1753.27	0.476983
1754.78	0.336142
1756.29	0.286798
1757.8	-0.165897
1759.31	-0.14447
1760.83	-0.424218
1762.34	0.133168
1763.85	0.320119
1765.36	-0.125597
1766.87	0.277631
1768.38	-0.0150738
1769.89	-0.092247
1771.39	-0.228886
1772.9	0.107599
1774.41	0.00502682
1775.92	-0.253612
1777.43	0.22646
1778.94	0.314919
1780.44	0.293864
1781.95	-0.187533
1783.46	-0.417506
1784.96	-0.398726
1786.47	0.0124035
1787.97	0.205272
1789.48	0.119495
1790.99	0.0648565
1792.49	-0.313128
1794	-0.0584526
1795.5	-0.0388947
1797	0.413806
1798.51	0.282085
1800.01	-0.138588
1801.51	0.0363684
1803.02	-0.0920153
1804.52	0.212152
1806.02	0.117422
1807.53	0.145023
1809.03	0.0653286
1810.53	-0.0075798
1812.03	0.40807
1813.53	0.285598
1815.03	0.220441
1816.53	0.260736
1818.03	0.488364
1819.53	0.0678587
1821.03	0.0945196
1822.53	0.40713
1824.03	-0.110145
1825.53	0.214128
1827.03	-0.0648909
1828.53	0.133696
1830.02	0.281799
1831.52	-0.0991869
1833.02	-0.0934238
1834.52	0.332191
1836.01	-0.0522337
1837.51	0.0344849
1839.01	0.298602
1840.5	0.498001
1842	0.0338278
1843.49	-0.0130491
1844.99	0.257705
1846.48	0.316256
1847.98	0.543262
1849.47	0.136164
1850.97	-0.00375366
1852.46	0.179604
1853.95	-0.188514
1855.45	0.144165
1856.94	-0.218022
1858.43	0.10857
1859.93	0.422142
1861.42	0.419805
1862.91	0.358429
1864.4	-0.2057
1865.89	0.320512
1867.38	0.214481
1868.87	0.361157
1870.36	-0.261517
1871.85	0.412176
1873.34	0.293636
1874.83	0.517827
1876.32	0.0219097
1877.81	0.260273
1879.3	0.157604
1880.79	0.290992
1882.28	0.238307
1882.52	0.219466
1884.02	0.114655
1885.51	-0.113125
1887.01	-0.341855
1888.5	-0.153233
1889.99	0.348585
1891.49	0.312124
1892.98	0.138748
1894.47	0.315549
1895.97	0.251009
1897.46	0.709307
1898.95	-0.137012
1900.44	-0.132471
1901.93	-0.390983
1903.42	0.1483
1904.91	-0.166517
1906.4	0.282385
1907.89	0.105618
1909.38	-0.104902
1910.87	0.137081
1912.36	0.0852098
1913.85	-0.243401
1915.34	-0.224977
1916.83	0.0703878
1918.32	-0.189742
1919.8	-0.0171509
1921.29	0.726774
1922.78	-0.278101
1924.27	0.190178
1925.75	0.0539398
1927.24	-0.0116529
1928.73	0.183295
1930.21	0.101168
1931.7	-0.207169
1933.18	-0.274941
1934.67	0.364726
1936.15	0.361461
1937.64	0.425735
1939.12	0.333776
1940.61	0.345921
1942.09	0.307415
1943.57	0.47735
1945.06	0.182733
1946.54	0.250811
1948.02	-0.267408
1949.51	0.195694
1950.99	0.415987
1952.47	0.376657
1953.95	-0.299637
1955.43	-0.167503
1956.91	0.411427
1958.4	0.166763
1959.88	-0.179598
1961.36	0.315251
1962.84	0.261466
1964.32	-0.357913
1965.8	0.11859
1967.27	0.59368
1968.75	-0.335259
1970.23	0.103659
1971.71	0.370795
1973.19	0.176622
1974.67	0.323958
1976.14	-0.295653
1977.62	-0.113688
1979.1	0.697937
1980.58	0.130635
1982.05	-0.0621738
1983.53	0.15255
1985	0.366501
1986.48	-0.200378
1987.95	0.080925
1989.43	-0.603041
1990.9	0.525523
1992.38	-0.0204391
1993.85	0.213107
1995.33	-0.177724
1996.8	-0.314325
1998.27	-0.417116
1999.75	0.188659
2001.22	0.48939
2002.69	-0.0035677
2004.16	-0.0410557
2005.64	0.376866
2007.11	0.458549
2008.58	0.0868111
2010.05	-0.334132
2011.52	0.727055
2012.99	-0.0633974
2014.46	0.424785
2015.93	-0.0304384
2017.4	0.0179739
2018.87	-0.0860338
2020.34	0.313397
2021.81	0.477118
2023.28	0.47325
2024.75	-0.301356
2026.22	0.200865
2027.69	0.168082
2029.15	0.841729
2030.62	-0.0092411
2032.09	-0.0706682
2033.56	0.153877
2035.02	0.428935
2036.49	-0.169881
2037.96	-0.181606
2039.42	0.545631
2040.89	0.113197
2042.35	0.21911
2043.82	-0.128068
2045.28	-0.0200291
2046.75	-0.21395
2048.21	0.0134335
2049.67	0.0046711
2051.14	0.348677
2052.6	0.252346
2054.07	0.018671
2055.53	0.356071
2056.99	0.0509005
2058.45	0.166159
2059.92	0.365326
2061.38	0.665908
2062.84	0.159432
2064.3	0.0247583
2065.76	0.177499
2067.22	0.314511
2068.68	0.199856
2070.14	-0.0490847
2071.6	-0.146492
2073.06	0.513577
2074.52	0.297793
2075.98	0.233095
2077.44	0.420516
2078.9	0.186399
2080.36	0.00222301
2081.82	0.372967
2083.27	0.759523
2084.73	0.404448
2086.19	0.671021
2087.65	-0.0386744
2089.1	0.209677
2090.56	0.373517
2092.02	0.31884
2093.47	-0.306402
2094.93	0.34324
2096.38	-0.131441
2097.84	-0.00341511
2099.29	0.106891
2100.75	-0.184729
2102.2	0.510256
2103.66	-0.264132
2105.11	0.666355
2106.56	0.163095
2108.02	-0.171683
2109.47	0.261172
2110.92	0.02631
2112.38	-0.326697
2113.83	0.467578
2115.28	-0.0725107
2116.73	-0.263718
2118.18	0.226808
2119.63	-0.161427
2121.09	-0.198415
2122.54	-0.349065
2123.99	-0.0501432
2125.44	-0.148419
2126.89	0.316709
2128.34	0.283123
2129.79	0.0820866
2131.23	0.227389
2132.68	0.42117
2134.13	0.41617
2135.58	0.197239
2137.03	0.178691
2138.48	-0.448987
2139.92	0.231287
2141.37	0.0872812
2142.82	0.126571
2144.27	-0.329593
2145.71	0.455301
2147.16	0.959
2148.6	0.236598
2150.05	0.0262547
2151.49	-0.119108
2152.94	0.595906
2154.38	-0.0156231
2155.83	0.217281
2157.27	-0.146112
2158.72	0.601225
2160.16	0.174092
2161.6	0.229513
2163.05	0.552529
2164.49	0.247428
2165.93	0.358009
2167.38	0.236039
2168.82	0.278856
2170.26	-0.196056
2171.7	-0.0915337
2173.14	0.093854
2174.58	0.310802
2176.03	0.726522
2177.47	0.244473
2178.91	0.395261
2180.35	-0.151027
2181.79	0.135046
2183.23	0.0061655
2184.67	-0.0558844
2186.1	0.264753
2187.54	0.385884
2188.98	-0.374938
2190.42	0.0790529
2191.86	0.0500832
2193.3	-0.196235
2194.73	0.0719786
2196.17	0.504358
2197.61	-0.0643349
2199.05	0.263371
2200.48	-0.0254211
2201.92	-0.264162
2203.35	0.228215
2204.79	-0.140891
2206.22	1.01639
2207.66	-0.0962486
2209.1	-0.0655708
2210.53	0.42756
2211.97	0.207606
2213.4	-0.293984
2214.83	0.328141
2216.27	-0.271295
2217.7	0.286174
2219.13	0.135582
2220.57	-0.0138283
2222	0.545701
2223.43	-0.477638
2224.86	-0.134998
2226.29	0.501298
2227.72	8.10623e-005
2229.16	0.187973
2230.59	0.456518
2232.02	0.330884
2233.45	0.336854
2234.88	0.049427
2236.31	0.858612
2237.74	0.0687428
2239.17	0.0491199
2240.6	0.358262
2242.03	0.017211
2243.45	0.395396
2244.88	0.203198
2246.31	0.548424
2247.74	0.320737
2249.17	0.383845
2250.59	-0.0121326
2252.02	0.225078
2253.45	0.0705061
2254.87	-0.229624
2256.3	0.00824738
2257.73	0.0702944
2259.15	-0.107455
2260.58	-0.0706205
2262	0.0666695
2263.43	0.677105
2264.85	0.264851
2266.28	0.274438
2267.7	0.0227127
2269.13	0.388028
2270.55	0.394414
2271.97	0.530414
2273.4	0.0310698
2274.82	0.215792
2276.24	0.0586863
2277.67	-0.52201
2279.09	-0.0106726
2280.51	0.712852
2281.93	-0.0803299
2283.35	0.300651
2284.77	0.241275
2286.2	-0.0627012
2287.62	0.254071
2289.04	-0.179729
2290.46	0.465098
2291.88	0.358861
2293.3	0.399888
2294.72	0.47364
2296.13	0.40003
2297.55	0.309909
2298.97	-0.0914907
2300.39	-0.0996542
2301.81	0.122102
2303.23	0.196785
2304.64	0.550804
2306.06	0.0346594
2307.48	-0.170245
2308.89	-0.0801306
2310.31	0.551971
2311.73	0.0160885
2313.14	-0.306276
2314.56	-0.0522671
2315.98	0.219328
2317.39	-0.150352
2318.81	-0.0253325
2320.22	0.858236
2321.64	-0.387403
2323.05	-0.0187435
2324.46	-0.478103
2325.88	0.148843
2327.29	0.591744
2328.7	0.555223
2330.12	0.535457
2331.53	-0.438004
2332.94	0.236469
2334.35	-0.190758
2335.77	-0.00880814
2337.18	0.0244675
2338.59	0.00716972
2340	-0.0444345
2341.41	-0.228557
2342.82	0.358221
2344.23	-0.0890083
2345.64	0.0710859
2347.05	-0.276402
2348.46	-0.0832481
2349.87	0.272766
2351.28	-0.337157
2352.69	0.179603
2354.1	-0.203211
2355.51	0.897147
2356.91	-0.268496
2358.32	0.0971909
2359.73	0.104804
2361.14	-0.0984602
2362.54	-0.155393
2363.95	-0.358109
2365.36	0.733788
2366.76	-0.148036
2368.17	0.0544214
2369.58	-0.226122
2370.98	0.172445
2372.39	0.298351
2373.79	-0.347507
2375.2	-0.155316
2376.6	0.132775
2378	0.00111103
2379.41	0.172937
2380.81	-0.187406
2382.22	0.02845
2383.62	-0.333899
2385.02	-0.183799
2386.43	-0.153401
2387.83	-0.121942
2389.23	-0.0651312
2390.63	0.0409575
2392.03	0.132474
2393.44	-0.108973
2394.84	0.04848
2396.24	0.174904
2397.64	-0.460805
2399.04	0.239222
2400.44	-0.029459
2401.84	0.401224
2403.24	0.148941
2404.64	-0.135493
2406.04	0.229944
2407.44	0.0703011
2408.84	0.274552
2410.23	-0.377801
2411.63	0.3016
2413.03	-0.190471
2414.43	-0.332311
2415.83	-0.234835
2417.22	0.402563
2418.62	0.53461
2420.02	-0.0771751
2421.41	0.213555
2422.81	0.0603247
2424.21	0.160209
2425.6	0.101722
2427	0.12311
2428.39	0.44684
2429.79	0.37553
2431.18	0.0511923
2432.58	1.07611
2433.97	0.386008
2435.36	0.361157
2436.76	0.0324812
2438.15	0.130795
2439.54	0.465688
2440.94	0.0210772
2442.33	0.147535
2443.72	-0.361195
2445.12	-0.219427
2446.51	0.159835
2447.9	0.0473166
2449.29	-0.22353
2450.68	0.471967
2452.07	0.281267
2453.46	0.0916939
2454.85	0.156418
2456.24	0.237832
2457.64	0.43037
2459.02	0.464501
2460.41	-0.0556393
2461.8	-0.0548592
2463.19	0.292627
2464.58	0.133522
2465.97	0.25841
2467.36	-0.0115795
2468.75	0.0972719
2470.13	0.0795908
2471.52	0.0140505
2472.91	0.0737314
2474.3	0.49441
2475.68	0.079917
2477.07	0.341429
2478.45	0.0841894
2479.84	0.486625
2481.23	0.120337
2482.61	-0.0261345
2484	0.547129
2485.38	0.461329
2486.77	0.374195
2488.15	0.207781
2489.54	-0.270878
2490.92	0.247585
2492.3	-0.338274
2493.69	0.522581
2495.07	0.0493555
2496.45	-0.0339432
2497.84	-0.0540867
2499.22	-0.0429153
2500.6	0.137952
2501.98	0.255706
2503.36	0.526386
2504.75	0.116641
2506.13	0.0921478
2507.51	0.144331
2508.89	-0.172419
2510.27	-0.11939
2511.65	0.517327
2513.03	-0.118396
2514.41	-0.0474253
2515.79	0.131669
2517.17	0.219737
2518.55	0.262536
2519.93	-0.214047
2521.3	0.302253
2522.68	0.0081358
2524.06	0.384434
2525.44	0.0581598
2526.82	0.00615406
2528.19	-0.0909109
2529.57	0.40654
2530.95	0.282352
2532.32	0.464327
2533.7	0.131464
2535.08	0.46803
2536.45	-0.107018
2537.83	0.16784
2539.2	0.410992
2540.58	0.941384
2541.95	-0.0468264
2543.33	0.0887184
2544.7	-0.199478
2546.08	0.287491
2547.45	0.199613
2548.82	0.249339
2550.2	0.132253
2551.57	-0.000673294
2552.94	0.229444
2554.32	0.185044
2555.69	0.700834
2557.06	0.290391
2558.43	0.350046
2559.8	0.713184
2561.18	0.197795
2562.55	0.1077
2563.92	0.0941229
2565.29	0.0659294
2566.66	-0.219593
2568.03	0.0102396
2569.4	0.634144
2570.77	0.318375
2572.14	0.442178
2573.51	0.399347
2574.88	0.235332
2576.25	0.147133
2577.61	0.407527
2578.98	0.440205
2580.35	-0.194777
2581.72	0.20079
2583.09	-0.268388
2584.45	-0.14656
2585.82	0.67243
2587.19	0.748714
2588.55	-0.03864
2589.92	0.113821
2591.29	0.584311
2592.65	-0.203516
2594.02	-0.325566
2595.38	-0.191389
2596.75	0.425735
2598.11	0.526811
2599.48	0.128331
2600.84	0.108179
2602.21	0.164181
2603.57	0.432309
2604.93	0.248246
2606.3	0.290822
2607.66	0.0464325
2609.02	0.177949
2610.39	0.172174
2611.75	0.435583
2613.11	0.36619
2614.47	0.37098
2615.83	0.405408
2617.19	0.365096
2618.56	0.700041
2619.92	0.107663
2621.28	0.145164
2622.64	-0.0259218
2624	0.759161
2625.36	0.0807238
2626.72	0.849314
2628.08	0.290141
2629.44	-0.223944
2630.8	-0.0382566
2632.15	0.295631
2633.51	0.45065
2634.87	0.234295
2636.23	-0.233878
2637.59	-0.301248
2638.94	0.194164
2640.3	0.688971
2641.66	-0.398488
2643.02	0.259171
2644.37	0.148442
2645.73	0.391802
2647.09	-0.0586004
2648.44	0.138899
2649.8	0.305544
2651.15	0.221022
2652.51	-0.128107
2653.86	0.257277
2655.22	-0.0753498
2656.57	0.355543
2657.93	-0.193326
2659.28	0.254305
2660.63	0.102508
2661.99	-0.137033
2663.34	0.484658
2664.69	0.418453
2666.05	0.336726
2667.4	0.108747
2668.75	0.20133
2670.1	0.468691
2671.45	-0.106959
2672.81	0.147166
2674.16	0.0532455
2675.51	0.206892
2676.86	0.332097
2678.21	0.487061
2679.56	0.353027
2680.91	0.118913
2682.26	0.379292
2683.61	0.409258
2684.96	0.237429
2686.31	0.457849
2687.66	0.649155
2689	0.243739
2690.35	0.648999
2691.7	1.05167
2693.05	0.639468
2694.4	-0.136199
2695.74	0.552448
2697.09	0.212707
2698.44	0.00521755
2699.79	0.104011
2701.13	0.610498
2702.48	-0.0106373
2703.83	0.296536
2705.17	0.198714
2706.52	0.0428381
2707.86	0.670053
2709.21	0.150405
2710.55	0.559258
2711.9	0.270727
2713.24	0.51946
2714.58	0.506598
2715.93	0.406384
2717.27	0.465887
2718.62	0.481427
2719.96	0.365499
2721.3	1.0639
2722.65	0.859381
2723.99	0.304821
2725.33	0.0407505
2726.67	0.343825
2728.01	1.01026
2729.35	0.541149
2730.7	0.683039
2732.04	0.548408
2733.38	0.821217
2734.72	0.556004
2736.06	0.741971
2737.4	0.389956
2738.74	0.474225
2740.08	0.485422
2741.42	0.481422
2742.76	0.476541
2744.1	0.223637
2745.43	0.158922
2746.77	0.427658
2748.11	0.347533
2749.45	0.282014
2750.79	0.622883
2752.12	0.224433
2753.46	0.623647
2754.8	0.225974
2756.14	0.480469
2757.47	0.35855
2758.81	-0.269638
2760.14	0.506808
2761.48	0.458786
2762.81	0.440342
2764.15	0.277617
2765.49	-0.304707
2766.82	0.0238867
2768.16	0.409016
2769.49	0.0981569
2770.82	-0.142096
2772.16	-0.0372438
2773.49	0.0949211
2774.82	0.298209
2776.16	1.17803
2777.49	0.0420189
2778.82	-0.0273218
2780.16	0.248992
2781.49	0.0370827
2782.82	-0.44712
2784.15	-0.185013
2785.48	-0.0809689
2786.82	-0.0341177
2788.15	0.0562553
2789.48	0.00447178
2790.81	-0.217732
2792.14	-0.252922
2793.47	0.241392
2794.8	0.321073
2796.13	0.857477
2797.46	-0.206984
2798.79	-0.0720682
2800.12	0.319053
2801.44	0.0104485
2802.77	0.0298042
2804.1	0.718556
2805.43	0.19532
2806.76	0.127356
2808.08	0.257741
2809.41	-0.252187
2810.74	0.800786
2812.07	0.0649862
2813.39	-0.129439
2814.72	0.443789
2816.05	0.111478
2817.37	0.432737
2818.7	0.64138
2820.02	0.0846672
2821.35	0.0376091
2822.67	-0.407117
2824	0.479298
2825.32	0.50079
2826.65	0.295749
2827.97	0.445445
2829.3	0.822371
2830.62	0.40716
2831.94	0.813292
2833.26	0.313403
2834.59	0.987907
2835.91	1.32193
2837.23	0.183557
2838.56	0.700151
2839.88	1.68287
2841.2	1.66142
2842.52	2.40388
2843.84	1.86094
2845.16	2.2095
2846.48	2.0078
2847.8	2.41435
2849.12	2.9623
2850.45	2.46393
2851.77	2.94007
2853.08	2.92076
2854.4	3.22588
2855.72	3.34696
2857.04	3.31261
2858.36	3.29247
2859.68	3.86545
2861	3.80259
2862.32	4.48749
2863.63	4.9739
2864.95	4.40138
2866.27	4.97176
2867.59	5.73969
2868.9	5.91583
2870.22	5.92344
2871.54	6.63612
2872.85	6.79848
2874.17	6.46634
2875.48	6.47067
2876.8	6.65617
2878.11	6.72754
2879.43	7.64216
2880.74	7.40376
2882.06	6.97035
2883.37	7.56435
2884.69	7.40151
2886	7.36615
2887.31	8.15902
2888.63	7.50549
2889.94	7.46818
2891.25	8.11649
2892.57	8.34272
2893.88	8.42834
2895.19	8.06651
2896.5	8.44827
2897.82	8.25798
2899.13	8.53133
2900.44	8.52626
2901.75	8.78785
2903.06	9.25961
2904.37	8.66858
2905.68	9.84049
2906.99	9.65667
2908.3	10.1598
2909.61	9.50339
2910.92	10.947
2912.23	9.98357
2913.54	10.7545
2914.85	10.7249
2916.16	11.3781
2917.46	11.1605
2918.77	11.6826
2920.08	11.7006
2921.39	11.8876
2922.7	11.9372
2924	11.6679
2925.31	12.3093
2926.62	12.1692
2927.92	11.7496
2929.23	12.3778
2930.54	12.5157
2931.84	12.6807
2933.15	12.1044
2934.45	12.4786
2935.76	12.0005
2937.06	12.7805
2938.37	12.0935
2939.67	11.0998
2940.98	11.3786
2942.28	11.2397
2943.58	11.0891
2944.89	10.214
2946.19	10.1655
2947.49	10.2581
2948.8	10.2383
2950.1	9.8946
2951.4	9.57566
2952.7	9.64548
2954.01	8.85884
2955.31	9.30367
2956.61	8.85417
2957.91	9.26207
2959.21	8.61082
2960.51	7.87978
2961.81	8.32888
2963.11	7.71381
2964.41	7.77087
2965.71	7.96618
2967.01	7.82166
2968.31	7.77323
2969.61	7.49854
2970.91	7.23765
2972.21	6.62545
2973.51	7.36455
2974.81	6.72461
2976.1	6.51984
2977.4	6.15808
2978.7	5.65279
2980	6.04583
2981.29	6.16913
2982.59	5.88357
2983.89	5.30363
2985.18	4.88054
2986.48	5.1487
2987.78	5.02582
2989.07	4.5674
2990.37	4.5451
2991.66	3.56639
2992.96	3.48565
2994.25	3.09397
2995.55	3.30484
2996.84	2.7704
2998.14	2.67122
2999.43	2.41829
3000.73	2.32068
3002.02	1.99984
3003.31	2.38053
3004.61	2.03282
3005.9	1.29294
3007.19	1.6447
3008.48	1.50534
3009.77	1.63062
3011.07	1.25174
3012.36	1.01253
3013.65	0.327386
3014.94	0.856738
3016.23	0.578461
3017.52	1.02565
3018.81	0.638315
3020.1	0.543681
3021.4	0.295797
3022.68	0.0611134
3023.97	0.15867
3025.26	-0.0637026
3026.55	0.0327473
3027.84	-0.243822
3029.13	0.020895
3030.42	0.218285
3031.71	0.23808
3033	0.162807
3034.28	-0.353425
3035.57	0.206182
3036.86	-0.00842857
3038.15	0.32606
3039.43	0.162086
3040.72	0.133955
3042.01	0.0910892
3043.29	-0.143453
3044.58	0.185142
3045.87	-0.277652
3047.15	0.192409
3048.44	-0.0447626
3049.72	-0.114939
3051.01	0.0218849
3052.29	0.364659
3053.58	0.925894
3054.86	0.46309
3056.15	0.58569
3057.43	0.488733
3058.71	0.663444
3060	0.851378
3061.28	0.699591
3062.56	0.98475
3063.84	0.918334
3065.13	0.935947
3066.41	0.507101
3067.69	0.664431
3068.97	0.373801
3070.26	0.0829563
3071.54	0.457572
3072.82	0.449906
3074.1	-0.0622158
3075.38	0.484884
3076.66	-0.0416059
3077.94	0.139
3079.22	0.144718
3080.5	-0.186471
3081.78	0.284996
3083.06	-0.340456
3084.34	0.10698
3085.62	0.269901
3086.9	-0.0696697
3088.18	0.146515
3089.45	-0.194449
3090.73	0.237803
3092.01	-0.646004
3093.29	0.0443916
3094.56	0.0571117
3095.84	-0.0109005
3097.12	0.206178
3098.4	0.0709677
3099.67	-0.064085
3100.95	0.451314
3102.22	-0.387443
3103.5	0.182906
3104.78	0.00948334
3106.05	0.04035
3107.33	0.370405
3108.6	0.350248
3109.88	0.142271
3111.15	0.490892
3112.43	0.366923
3113.7	0.392799
3114.97	0.41897
3116.25	0.309219
3117.52	0.320676
3118.79	0.00551891
3120.07	0.557259
3121.34	0.728251
3122.61	0.559807
3123.88	0.87928
3125.16	0.27833
3126.43	0.923954
3127.7	0.704305
3128.97	0.959171
3130.24	0.971358
3131.51	1.18679
3132.79	0.956335
3134.06	0.955529
3135.33	1.35934
3136.6	0.966344
3137.87	1.09935
3139.14	0.868287
3140.41	0.960842
3141.67	1.41682
3142.94	1.1069
3144.21	1.45641
3145.48	1.20293
3146.75	1.4739
3148.02	1.20996
3149.29	1.52327
