200.407	0.0649843
202.221	0.081214
204.035	0.0990467
205.849	0.458434
207.665	0.720689
209.478	0.690684
211.291	0.781116
213.104	0.336169
214.916	0.181841
216.73	0.657399
218.541	0.8175
220.352	0.251995
222.163	0.171982
223.973	0.479874
225.785	0.933182
227.595	0.0817957
229.404	0.0759621
231.213	0.286866
233.022	0.280202
234.83	0.129258
236.638	0.100237
238.448	-0.0471478
240.255	0.603411
242.062	0.219839
243.868	0.368136
245.675	0.154605
247.48	0.374038
249.286	0.397772
251.091	0.442529
252.896	-0.143037
254.702	0.162764
256.506	0.226707
258.31	0.146821
260.113	-0.292716
261.916	0.137033
263.719	-0.371065
265.521	0.447028
267.323	-0.300656
269.125	-0.012372
270.926	0.54047
272.727	-0.13736
274.527	-0.430778
276.328	0.0698442
278.127	0.279253
279.927	0.221559
281.726	-0.0306435
283.525	0.124549
285.323	-0.250525
287.121	0.214441
288.919	-0.304606
290.716	0.303944
292.513	-0.0925245
294.31	0.254661
296.104	0.387785
297.9	-0.00382996
299.696	0.393818
301.491	-0.546463
303.286	-0.173676
305.081	0.102172
306.875	0.352959
308.669	0.722411
310.463	0.0675325
312.256	0.0812788
314.047	-0.212916
315.839	-0.171874
317.631	0.323426
319.423	0.558502
321.215	0.485165
323.006	0.29336
324.794	0.197225
326.585	0.220519
328.375	0.24363
330.165	0.0509796
331.954	0.0961609
333.741	0.378953
335.53	1.1623
337.318	0.316119
339.106	0.401056
340.894	-0.280924
342.679	0.136412
344.466	0.386064
346.253	0.492702
348.039	0.313455
349.823	0.206433
351.608	0.481412
353.393	0.15918
355.176	0.0507851
356.961	0.298848
358.745	0.307022
360.529	-0.0432034
362.31	-0.227283
364.093	-0.364254
365.876	0.306064
367.657	0.0724506
369.439	-0.351264
371.221	0.338335
373	-0.0863142
374.781	0.316766
376.56	-0.296084
378.34	-0.411918
380.12	0.203609
381.898	-0.00465488
383.677	-0.0231714
385.456	0.617826
387.233	0.249036
389.011	0.257504
390.787	0.478327
392.565	-0.403827
394.34	-0.0406694
396.117	0.111508
397.894	0.146375
399.668	-0.171252
401.444	0.0744076
403.217	-0.220779
404.993	0.164446
406.766	0.0556984
408.54	0.251601
410.312	0.00108433
412.086	-0.413593
413.858	-0.0299644
415.631	0.213479
417.402	0.26998
419.174	-0.00139713
420.944	0.3611
422.716	-0.0746346
424.486	0.16966
426.257	0.248748
428.025	0.0218067
429.794	0.0995512
431.564	-0.151354
433.332	-0.401961
435.101	0.239594
436.868	0.0127468
438.637	0.418916
440.403	0.119607
442.169	0.381453
443.937	-0.132739
445.703	0.148403
447.468	0.825754
449.234	0.425706
450.999	0.0498047
452.765	-0.185094
454.528	0.653578
456.292	0.162394
458.057	0.160893
459.819	0.392142
461.582	-0.213468
463.344	-0.189382
465.107	-0.0933819
466.868	0.353844
468.629	-0.125806
470.392	0.0238819
472.152	0.476866
473.912	-0.281021
475.672	0.23975
477.433	0.316047
479.192	0.46034
480.951	0.743313
482.709	0.281053
484.469	0.518657
486.226	0.4554
487.984	0.324332
489.74	0.335098
491.499	0.37028
493.255	0.382815
495.011	0.27865
496.767	0.314643
498.522	-0.0713263
500.277	0.760987
502.033	0.420564
503.788	0.290084
505.541	0.111279
507.295	0.283653
509.048	0.337039
510.801	0.482972
512.553	0.862653
514.308	0.628989
516.06	-0.0765171
517.811	-0.00675774
519.562	0.297043
521.313	0.317847
523.063	0.197226
524.814	0.63981
526.563	0.143525
528.313	0.538746
530.062	0.91001
531.811	0.812021
533.559	0.338807
535.308	0.473214
537.055	0.442406
538.803	0.10673
540.55	0.446897
542.297	0.459342
544.043	0.773784
545.789	-0.0279512
547.535	1.09874
549.281	0.438006
551.026	0.427364
552.771	-0.0225744
554.515	0.452892
556.259	-0.0418692
558.003	0.133468
559.747	0.562375
561.49	-0.0448151
563.233	0.33861
564.975	0.469191
566.717	0.370523
568.459	0.663045
570.2	-0.214009
571.942	-0.194448
573.68	0.0101452
575.421	0.354062
577.161	-0.286954
578.901	0.105857
580.64	0.22417
582.379	-0.32367
584.118	0.299937
585.855	-0.111854
587.593	0.395061
589.331	-0.20339
591.068	0.117467
592.805	-0.275443
594.54	-0.323408
596.277	0.203819
598.013	-0.028224
599.749	-0.053544
601.484	0.357418
603.217	-0.0149393
604.952	0.140275
606.687	0.11024
608.421	-0.127266
610.153	0.323861
611.886	0.522586
613.619	0.0111313
615.35	0.027894
617.083	-0.505042
618.815	0.748309
620.547	-0.243817
622.276	0.159451
624.008	0.241261
625.738	0.071619
627.467	0.222796
629.197	0.124659
630.927	0.18856
632.655	0.208823
634.384	-0.0665436
636.113	0.0229721
637.839	0.498964
639.568	0.607011
641.293	-0.0407028
643.021	0.495167
644.748	0.573414
646.473	0.105815
648.2	0.731812
649.924	0.405933
651.65	0.197563
653.376	0.85667
655.099	0.0641479
656.824	0.092207
658.546	0.508767
660.271	0.241322
661.993	0.58847
663.716	0.408257
665.438	0.362613
667.161	-0.142324
668.881	0.632557
670.604	0.470407
672.324	-0.0789948
674.045	0.449605
675.765	1.18743
677.486	0.734951
679.204	0.764048
680.925	0.60833
682.643	0.588602
684.361	0.474641
686.08	0.51976
687.797	0.0335722
689.516	0.582729
691.232	0.624443
692.95	0.43517
694.666	0.0839624
696.382	0.100368
698.099	0.898311
699.813	0.865998
701.528	0.395555
703.244	0.591225
704.958	0.510312
706.673	0.451921
708.387	0.393208
710.099	1.04451
711.814	0.709893
713.526	0.855882
715.238	0.772864
716.949	0.484439
718.663	0.926558
720.374	0.57037
722.084	1.42187
723.796	0.519986
725.506	0.733472
727.216	1.01443
728.925	1.02214
730.636	0.802641
732.345	0.787026
734.053	0.997476
735.761	0.75548
737.471	0.672344
739.178	1.31196
740.885	0.734194
742.592	0.856786
744.298	1.3858
746.006	1.0831
747.712	1.00701
749.417	1.5396
751.122	1.44366
752.827	0.944185
754.532	1.12087
756.236	1.18661
757.942	1.07383
759.645	1.32287
761.348	1.66358
763.051	1.44132
764.753	1.89586
766.456	1.35571
768.158	1.28782
769.859	1.51163
771.56	1.46205
773.261	1.09439
774.964	1.31415
776.664	2.07702
778.364	1.82375
780.064	2.00171
781.763	2.27148
783.462	1.88534
785.16	1.63367
786.859	1.99076
788.557	1.71079
790.255	1.42764
791.952	1.66191
793.649	1.37472
795.346	1.6968
797.042	1.11765
798.738	1.37432
800.434	1.33985
802.127	1.73433
803.823	1.9268
805.517	1.35465
807.212	1.79333
808.906	1.15242
810.6	1.88007
812.293	1.75356
813.987	1.60422
815.68	1.65634
817.372	2.31224
819.064	1.62616
820.754	2.19191
822.446	1.77534
824.137	1.89533
825.828	1.52637
827.519	1.38264
829.209	1.79847
830.897	1.61605
832.587	1.45873
834.276	1.6378
835.966	1.41668
837.654	1.26209
839.341	1.82073
841.029	1.66345
842.717	1.21422
844.404	1.81455
846.091	1.58877
847.776	1.18573
849.463	1.99285
851.149	1.70656
852.833	1.37694
854.519	1.65345
856.204	1.57103
857.889	1.73466
859.572	0.816782
861.256	1.31434
862.94	1.6306
864.622	1.81058
866.305	1.29084
867.988	0.815252
869.669	1.44413
871.351	0.877354
873.033	1.32543
874.713	1.57048
876.395	1.00319
878.074	0.210057
879.755	1.1773
881.435	0.880211
883.114	1.30481
884.794	1.59284
886.471	1.04428
888.15	1.26155
889.829	1.00345
891.506	1.28505
893.184	1.5874
894.861	1.03299
896.538	1.04048
898.214	1.27152
899.891	0.715969
901.566	1.34839
903.242	1.1507
904.916	0.573377
906.592	1.13606
908.266	1.25212
909.941	1.32423
911.614	0.707488
913.288	0.181543
914.961	0.833788
916.635	0.974632
918.306	0.627584
919.979	0.303409
921.651	1.35192
923.321	0.808279
924.994	0.532073
926.664	0.809951
928.336	1.44242
930.005	0.685627
931.674	1.36394
933.345	0.983448
935.014	1.26496
936.682	0.995459
938.352	0.90327
940.019	0.922564
941.687	1.07545
943.356	0.567183
945.022	1.53733
946.689	0.63039
948.357	1.2005
950.022	1.2168
951.688	0.680236
953.355	1.09238
955.02	0.822268
956.684	1.08415
958.348	0.908223
960.014	0.999849
961.678	0.850249
963.341	1.36351
965.004	1.12375
966.669	1.08018
968.331	1.786
969.993	0.962957
971.655	0.979755
973.316	1.24022
974.979	0.882907
976.64	1.67745
978.3	0.881156
979.961	1.03666
981.62	1.19189
983.28	1.27941
984.941	1.18783
986.6	1.2269
988.259	0.910078
989.917	1.919
991.575	0.782368
993.233	0.839571
994.89	1.02923
996.547	1.30705
998.204	1.51838
999.86	2.08179
1001.52	2.73214
1003.17	2.67691
1004.83	1.27988
1006.49	1.20325
1008.14	0.643728
1009.79	1.07281
1011.45	0.580709
1013.1	0.878677
1014.76	0.607203
1016.41	0.686701
1018.06	0.766627
1019.72	0.737935
1021.37	1.10385
1023.02	1.12099
1024.67	0.308668
1026.32	0.917542
1027.97	0.783444
1029.62	1.12939
1031.27	1.29919
1032.92	0.790442
1034.57	1.65504
1036.22	1.23064
1037.87	0.914918
1039.52	1.38321
1041.17	0.720382
1042.82	0.407576
1044.47	0.92246
1046.11	0.78734
1047.76	0.762805
1049.41	0.131867
1051.06	0.479499
1052.7	0.480477
1054.35	0.373198
1055.99	0.591906
1057.64	0.527828
1059.28	0.484987
1060.93	0.615464
1062.57	0.310285
1064.22	0.852205
1065.86	0.479867
1067.5	0.867281
1069.15	0.536488
1070.79	0.183579
1072.43	0.807626
1074.08	0.693887
1075.72	0.104062
1077.36	0.404983
1079	-0.116961
1080.64	0.641286
1082.28	0.987535
1083.92	0.183716
1085.56	0.549166
1087.2	0.739001
1088.84	-0.112872
1090.48	0.506064
1092.12	0.884956
1093.76	0.355543
1095.39	0.496131
1097.03	0.895969
1098.67	0.758035
1100.31	0.622082
1101.94	0.531259
1103.58	0.657431
1105.22	0.0535955
1106.85	0.63341
1108.49	0.524673
1110.12	0.651409
1111.76	0.712
1113.39	0.169394
1115.03	-0.137686
1116.66	0.713507
1118.29	0.706079
1119.93	0.977872
1121.56	0.372467
1123.19	0.774675
1124.82	0.557129
1126.46	0.7684
1128.09	0.360228
1129.72	0.658507
1131.35	0.615243
1132.98	0.0806265
1134.61	0.678899
1136.24	0.357384
1137.87	-0.157338
1139.5	-0.160261
1141.13	0.0493488
1142.76	0.322252
1144.39	0.33906
1146.01	0.207293
1147.64	-0.00866604
1149.27	0.0320301
1150.9	0.158404
1152.53	0.199563
1154.15	0.176508
1155.78	0.0253725
1157.4	-0.168351
1159.03	-0.361622
1160.65	-0.256295
1162.28	0.551704
1163.9	0.297547
1165.53	-0.25374
1167.15	0.810658
1168.78	0.258125
1170.4	0.107967
1172.02	0.380899
1173.65	0.0360336
1175.27	0.0298548
1176.89	0.129145
1178.51	0.10136
1180.14	0.222452
1181.76	0.36543
1183.38	-0.0196171
1185	-0.00268459
1186.62	0.583471
1188.24	0.0910835
1189.86	0.0192108
1191.48	0.1351
1193.1	0.375342
1194.71	-0.12078
1196.33	0.265052
1197.95	0.692624
1199.57	0.284355
1201.19	0.840423
1202.8	0.959907
1204.42	0.831578
1206.04	1.12291
1207.65	1.04008
1209.27	1.06191
1210.88	0.811791
1212.5	0.977036
1214.12	0.848073
1215.73	1.02925
1217.35	0.958555
1218.96	0.554388
1220.57	1.3757
1222.19	0.88952
1223.8	1.1722
1225.41	0.876297
1227.03	1.14109
1228.64	1.38643
1230.25	1.79835
1231.86	1.03313
1233.47	1.19955
1235.08	1.44994
1236.69	1.32962
1238.31	2.14067
1239.92	1.67081
1241.52	1.1182
1243.13	1.76493
1244.74	1.54201
1246.35	1.66974
1247.96	1.44458
1249.57	1.01172
1251.18	1.50956
1252.78	2.17296
1254.39	1.67878
1256	1.68219
1257.6	1.79041
1259.21	1.46541
1260.82	1.70009
1262.42	1.81123
1264.03	1.2389
1265.63	1.3703
1267.24	1.6254
1268.84	1.11251
1270.45	1.05455
1272.05	1.67972
1273.65	1.2671
1275.26	1.59976
1276.86	1.2267
1278.46	1.64017
1280.06	1.67993
1281.67	1.53304
1283.27	1.07607
1284.87	1.7574
1286.47	1.5296
1288.07	1.69575
1289.67	1.47019
1291.27	1.92716
1292.87	1.4542
1294.47	1.82758
1296.07	1.41463
1297.67	2.17695
1299.27	1.76064
1300.87	1.54937
1302.47	2.11985
1304.06	1.6181
1305.66	1.69218
1307.26	1.21103
1308.85	1.89996
1310.45	1.68569
1312.05	2.29117
1313.64	2.30314
1315.24	2.41839
1316.83	2.53454
1318.43	1.99831
1320.02	1.68705
1321.62	1.39571
1323.21	2.46672
1324.8	2.13096
1326.4	2.0989
1327.99	2.28929
1329.59	2.19628
1331.18	2.1457
1332.77	2.27954
1334.36	1.95133
1335.95	1.84735
1337.54	1.94583
1339.14	1.78149
1340.73	2.7234
1342.32	2.43373
1343.91	2.26298
1345.5	1.75003
1347.09	1.81987
1348.67	1.83129
1350.26	1.34502
1351.85	1.90224
1353.44	1.8814
1355.03	1.46231
1356.62	1.0239
1358.2	1.08472
1359.79	1.72363
1361.38	1.62233
1362.96	1.65984
1364.55	1.81652
1366.14	1.23606
1367.72	1.75234
1369.31	1.47321
1370.89	1.09629
1372.48	1.41739
1374.06	0.724878
1375.64	1.60502
1377.23	1.09243
1378.81	1.37528
1380.39	1.06013
1381.98	1.16148
1383.56	1.10231
1385.14	0.445841
1386.72	1.16034
1388.3	1.17928
1389.89	1.31797
1391.47	0.882071
1393.05	0.883686
1394.63	1.12371
1396.21	1.0462
1397.79	1.36447
1399.37	0.769963
1400.95	1.02664
1402.52	1.18345
1404.1	0.904791
1405.68	1.08174
1407.26	1.20011
1408.84	0.884619
1410.42	1.26121
1411.99	1.08465
1413.57	0.848389
1415.15	0.769245
1416.72	1.22177
1418.3	1.33831
1419.87	1.19895
1421.45	1.11988
1423.02	1.33777
1424.6	1.3605
1426.17	1.3649
1427.75	0.897525
1429.32	1.11878
1430.89	2.2051
1432.47	1.73528
1434.04	2.18922
1435.61	2.42604
1437.18	2.54495
1438.76	2.48773
1440.33	2.74612
1441.9	2.65186
1443.47	2.75496
1445.04	3.19265
1446.61	2.64785
1448.18	2.39798
1449.75	2.73817
1451.32	3.00033
1452.89	2.81088
1454.46	2.95622
1456.03	3.00323
1457.6	2.99049
1459.16	2.89755
1460.73	2.44838
1462.3	2.58745
1463.87	2.23289
1465.43	2.25086
1467	1.93442
1468.56	2.05063
1470.13	1.46121
1471.7	1.52084
1473.26	1.26776
1474.83	1.85882
1476.39	1.21494
1477.96	1.2183
1479.52	1.3392
1481.08	1.10717
1482.65	0.933907
1484.21	0.819346
1485.77	0.822015
1487.34	0.961023
1488.9	0.902833
1490.46	0.78413
1492.02	1.03485
1493.58	0.755505
1495.15	0.357844
1496.71	0.564089
1498.27	0.65279
1499.83	0.00323677
1501.39	0.462796
1502.95	0.263153
1504.51	0.103532
1506.07	0.389713
1507.63	0.442697
1509.18	0.204792
1510.74	0.275026
1512.3	0.787487
1513.86	0.412864
1515.41	0.789022
1516.97	0.473692
1518.53	0.524231
1520.08	0.268785
1521.64	0.301136
1523.2	0.352223
1524.75	0.822463
1526.31	0.527813
1527.86	0.556719
1529.42	0.603987
1530.97	0.328273
1532.52	0.603703
1534.08	0.462654
1535.63	0.682373
1537.19	0.94034
1538.74	0.669998
1540.29	0.362874
1541.84	0.546251
1543.4	0.785645
1544.95	0.949159
1546.5	0.905503
1548.05	0.918062
1549.6	1.26794
1551.15	0.718482
1552.7	1.23691
1554.25	0.932979
1555.8	0.911084
1557.35	1.04033
1558.9	1.3394
1560.45	1.0993
1562	1.21537
1563.54	1.18338
1565.09	1.37591
1566.64	1.13939
1568.19	1.23853
1569.73	0.907977
1571.28	0.931654
1572.83	1.40305
1574.37	1.83697
1575.92	1.69222
1577.47	1.77171
1579.01	1.51557
1580.56	1.59614
1582.1	2.01372
1583.64	1.61044
1585.19	1.88047
1586.73	1.4782
1588.28	1.65559
1589.82	1.60836
1591.36	1.4296
1592.9	1.90558
1594.45	2.04438
1595.99	1.7149
1597.53	1.92916
1599.07	2.23803
1600.61	2.17278
1602.15	2.40829
1603.69	2.3248
1605.23	2.07142
1606.77	2.00431
1608.31	1.7471
1609.85	2.48353
1611.39	1.99579
1612.93	2.18233
1614.47	1.93552
1616.01	1.46345
1617.55	1.79843
1619.08	1.70335
1620.62	1.66612
1622.16	1.42441
1623.7	1.31471
1625.23	1.63563
1626.77	1.6188
1628.3	1.30129
1629.84	1.50621
1631.37	1.63504
1632.91	1.66988
1634.44	1.77963
1635.98	1.46097
1637.51	1.46061
1639.05	1.6287
1640.58	1.72219
1642.11	1.53553
1643.65	1.81342
1645.18	2.21997
1646.71	1.88115
1648.24	1.9884
1649.78	1.79879
1651.31	2.46406
1652.84	2.33242
1654.37	2.44318
1655.9	2.48046
1657.43	2.12856
1658.96	2.14653
1660.49	2.58886
1662.02	2.25203
1663.55	2.41352
1665.08	2.59254
1666.61	2.1626
1668.14	2.2693
1669.66	2.02727
1671.19	2.19244
1672.72	2.37714
1674.25	2.15715
1675.77	1.86339
1677.3	2.23153
1678.83	2.59819
1680.35	2.09913
1681.88	1.65493
1683.4	1.5047
1684.93	1.72175
1686.45	1.24199
1687.98	1.78966
1689.5	1.73262
1691.03	1.16324
1692.55	1.14353
1694.07	1.27011
1695.6	1.08559
1697.12	0.86445
1698.64	0.661478
1700.17	1.29783
1701.69	0.492012
1703.21	0.889586
1704.73	0.557572
1706.25	0.917056
1707.77	0.493906
1709.29	0.525486
1710.81	0.68412
1712.33	0.226132
1713.85	0.910487
1715.37	0.417082
1716.89	0.702215
1718.41	0.589132
1719.93	0.530327
1721.45	0.489821
1722.97	0.251595
1724.49	0.374996
1726	0.211385
1727.52	0.499205
1729.04	0.517879
1730.55	0.177978
1732.07	0.375296
1733.59	0.18037
1735.1	0.230343
1736.62	0.377985
1738.13	0.209003
1739.65	0.258776
1741.16	-0.192195
1742.68	0.490834
1744.19	0.248222
1745.7	0.526958
1747.22	0.314737
1748.73	0.233743
1750.24	0.393476
1751.76	0.351323
1753.27	0.0121222
1754.78	0.347053
1756.29	0.329486
1757.8	0.381237
1759.31	0.137339
1760.83	-0.0642061
1762.34	0.132559
1763.85	-0.0480099
1765.36	0.0473213
1766.87	0.052845
1768.38	0.0725193
1769.89	-0.00439644
1771.39	0.323233
1772.9	0.395167
1774.41	-0.0837564
1775.92	-0.0859661
1777.43	-0.0774984
1778.94	-0.155166
1780.44	-0.260395
1781.95	0.204724
1783.46	0.423391
1784.96	-0.0613623
1786.47	0.334913
1787.97	0.0686445
1789.48	0.0646067
1790.99	-0.23604
1792.49	0.37032
1794	0.2623
1795.5	0.31749
1797	0.0233164
1798.51	-0.104172
1800.01	-0.255548
1801.51	-0.0387783
1803.02	0.149555
1804.52	0.172978
1806.02	0.0963554
1807.53	-0.270759
1809.03	-0.251625
1810.53	0.000805855
1812.03	0.255617
1813.53	0.0896225
1815.03	0.0655622
1816.53	0.15358
1818.03	0.13487
1819.53	-0.079114
1821.03	0.238758
1822.53	0.0149651
1824.03	0.223698
1825.53	-0.123476
1827.03	-0.00257301
1828.53	0.0209599
1830.02	0.236907
1831.52	-0.213305
1833.02	0.367377
1834.52	0.0747519
1836.01	0.0472717
1837.51	0.140883
1839.01	0.391438
1840.5	0.21464
1842	-0.0505333
1843.49	-0.0483027
1844.99	0.075181
1846.48	0.239056
1847.98	-0.056962
1849.47	0.153427
1850.97	0.0781374
1852.46	0.0155945
1853.95	0.0478888
1855.45	-0.0391645
1856.94	0.129496
1858.43	-0.0731306
1859.93	0.103982
1861.42	-0.138019
1862.91	-0.0380487
1864.4	-0.24131
1865.89	0.0751171
1867.38	0.0977831
1868.87	0.10472
1870.36	-0.423532
1871.85	0.130414
1873.34	0.358954
1874.83	-0.212988
1876.32	-0.346831
1877.81	0.193765
1879.3	-0.111334
1880.79	-0.0109863
1882.28	0.311202
1882.52	0.369592
1884.02	0.0723667
1885.51	0.367037
1887.01	-0.0709829
1888.5	0.0828066
1889.99	0.219219
1891.49	-0.0608711
1892.98	0.0259342
1894.47	-0.267946
1895.97	0.291664
1897.46	0.0696974
1898.95	0.369388
1900.44	0.58113
1901.93	-0.165599
1903.42	0.164425
1904.91	-0.133052
1906.4	0.0728254
1907.89	-0.086215
1909.38	0.241505
1910.87	-0.0200233
1912.36	-0.107026
1913.85	0.118752
1915.34	-0.123653
1916.83	0.448537
1918.32	0.0666237
1919.8	-0.211557
1921.29	0.324426
1922.78	-0.0918703
1924.27	0.0642109
1925.75	0.18677
1927.24	0.0680418
1928.73	0.0365152
1930.21	-0.0123711
1931.7	-0.165964
1933.18	0.319696
1934.67	0.00707912
1936.15	0.108267
1937.64	0.104396
1939.12	-0.124559
1940.61	-0.335656
1942.09	0.28268
1943.57	0.0562315
1945.06	0.296421
1946.54	0.43341
1948.02	0.225403
1949.51	0.344096
1950.99	0.0828619
1952.47	0.423233
1953.95	0.332679
1955.43	0.12188
1956.91	0.11782
1958.4	-0.314611
1959.88	-0.17979
1961.36	-0.0617008
1962.84	0.262164
1964.32	-0.185402
1965.8	0.257423
1967.27	0.305436
1968.75	0.0277386
1970.23	-0.0279884
1971.71	0.599311
1973.19	0.116225
1974.67	-0.0590639
1976.14	-0.080533
1977.62	0.136645
1979.1	0.506825
1980.58	0.417216
1982.05	0.208565
1983.53	0.322631
1985	0.0457954
1986.48	0.0913801
1987.95	-0.202068
1989.43	0.301141
1990.9	0.601253
1992.38	-0.112797
1993.85	0.0539474
1995.33	0.0692825
1996.8	0.000577927
1998.27	-0.0174541
1999.75	0.0653877
2001.22	0.0463114
2002.69	-0.141911
2004.16	-0.127784
2005.64	-0.197598
2007.11	-0.148726
2008.58	0.271482
2010.05	0.237818
2011.52	0.221537
2012.99	-0.2323
2014.46	0.104523
2015.93	0.00300217
2017.4	-0.284355
2018.87	0.486791
2020.34	0.416522
2021.81	0.144659
2023.28	-0.361598
2024.75	0.2575
2026.22	0.256751
2027.69	0.240689
2029.15	-0.0589952
2030.62	-0.0890226
2032.09	0.0664721
2033.56	0.272919
2035.02	-0.125068
2036.49	0.265842
2037.96	0.269976
2039.42	0.50899
2040.89	0.109262
2042.35	-0.0380611
2043.82	0.0507498
2045.28	0.426579
2046.75	0.449995
2048.21	-0.0147581
2049.67	-0.109545
2051.14	0.502753
2052.6	-0.370252
2054.07	0.356986
2055.53	0.576469
2056.99	-0.217028
2058.45	-0.404117
2059.92	0.419412
2061.38	0.165125
2062.84	0.0801439
2064.3	0.114007
2065.76	-0.0194292
2067.22	-0.25301
2068.68	-0.0484533
2070.14	0.105955
2071.6	0.29414
2073.06	0.482224
2074.52	0.0470295
2075.98	-0.0349188
2077.44	0.185896
2078.9	0.221071
2080.36	-0.0136318
2081.82	0.273095
2083.27	0.104568
2084.73	0.103671
2086.19	0.438474
2087.65	0.43609
2089.1	0.181195
2090.56	0.0607214
2092.02	0.527894
2093.47	0.474318
2094.93	0.621775
2096.38	-0.136485
2097.84	0.328226
2099.29	-0.02841
2100.75	-0.334641
2102.2	0.16188
2103.66	0.157544
2105.11	-0.029108
2106.56	0.553173
2108.02	0.185474
2109.47	0.185141
2110.92	0.01758
2112.38	-0.334417
2113.83	-0.171399
2115.28	0.0897083
2116.73	0.249755
2118.18	0.0111914
2119.63	-0.225722
2121.09	0.617781
2122.54	0.218724
2123.99	0.0865917
2125.44	-0.111211
2126.89	-0.574497
2128.34	0.221259
2129.79	0.186711
2131.23	-0.0643702
2132.68	0.130976
2134.13	0.458404
2135.58	0.12488
2137.03	0.173198
2138.48	0.190213
2139.92	-0.187603
2141.37	0.245986
2142.82	0.317163
2144.27	0.15742
2145.71	-0.151285
2147.16	0.251436
2148.6	0.405405
2150.05	-0.00465012
2151.49	-0.250091
2152.94	0.0337496
2154.38	-0.0973949
2155.83	0.102391
2157.27	0.169685
2158.72	0.171379
2160.16	0.0914774
2161.6	0.212029
2163.05	-0.0137634
2164.49	0.0933981
2165.93	0.234694
2167.38	0.243194
2168.82	0.117716
2170.26	0.273205
2171.7	0.293724
2173.14	0.262491
2174.58	-0.0195379
2176.03	0.147002
2177.47	0.380174
2178.91	0.264864
2180.35	-0.0490227
2181.79	-0.0961075
2183.23	0.0568867
2184.67	0.426417
2186.1	0.114077
2187.54	-0.14844
2188.98	0.171462
2190.42	0.291718
2191.86	0.0288534
2193.3	-0.10156
2194.73	0.0165529
2196.17	0.0996752
2197.61	-0.251692
2199.05	-0.238423
2200.48	-0.126427
2201.92	-0.0479441
2203.35	0.396022
2204.79	0.177231
2206.22	0.208249
2207.66	0.322575
2209.1	0.188238
2210.53	0.268456
2211.97	-0.0659018
2213.4	0.0292454
2214.83	0.0580606
2216.27	-0.143691
2217.7	-0.0142155
2219.13	-0.0651026
2220.57	0.198074
2222	0.115117
2223.43	0.0644941
2224.86	0.506601
2226.29	0.123723
2227.72	0.0686789
2229.16	-0.0696192
2230.59	-0.0606966
2232.02	0.423188
2233.45	0.660753
2234.88	0.326254
2236.31	0.124251
2237.74	-0.173863
2239.17	-0.159837
2240.6	-0.0134697
2242.03	0.150852
2243.45	0.561009
2244.88	0.400677
2246.31	0.402794
2247.74	0.0445681
2249.17	0.189848
2250.59	0.332817
2252.02	0.343611
2253.45	-0.15056
2254.87	-0.0911484
2256.3	-0.0304918
2257.73	0.0485458
2259.15	-0.0157576
2260.58	0.279679
2262	-0.0878496
2263.43	0.292865
2264.85	0.479317
2266.28	0.145301
2267.7	0.623567
2269.13	0.0434647
2270.55	0.194766
2271.97	-0.0939817
2273.4	0.333563
2274.82	0.305258
2276.24	0.130492
2277.67	-0.125675
2279.09	-0.153688
2280.51	0.437883
2281.93	0.181466
2283.35	0.0716677
2284.77	0.174001
2286.2	-0.0498686
2287.62	-0.0775824
2289.04	0.0747681
2290.46	-0.246244
2291.88	0.168361
2293.3	0.501678
2294.72	0.0989866
2296.13	0.219658
2297.55	0.192997
2298.97	-0.112144
2300.39	0.139874
2301.81	0.244821
2303.23	0.415774
2304.64	0.34084
2306.06	0.315021
2307.48	0.0423632
2308.89	0.0155029
2310.31	0.218271
2311.73	-0.220727
2313.14	-0.330957
2314.56	-0.210457
2315.98	0.388356
2317.39	0.0988464
2318.81	-0.0586672
2320.22	0.195759
2321.64	0.185344
2323.05	0.23909
2324.46	0.0430145
2325.88	0.356276
2327.29	0.469728
2328.7	0.450436
2330.12	0.530179
2331.53	0.182684
2332.94	0.330295
2334.35	-0.344028
2335.77	-0.162389
2337.18	0.166753
2338.59	-0.0806704
2340	0.14755
2341.41	-0.101646
2342.82	-0.219728
2344.23	0.105105
2345.64	0.134768
2347.05	0.0172606
2348.46	-0.263763
2349.87	0.469428
2351.28	0.25272
2352.69	-0.0136185
2354.1	0.0622616
2355.51	0.153614
2356.91	-0.227736
2358.32	0.0748072
2359.73	0.181844
2361.14	-0.0358477
2362.54	-0.0261126
2363.95	0.145444
2365.36	0.187146
2366.76	-0.0296307
2368.17	0.255112
2369.58	-0.0403795
2370.98	-0.0601053
2372.39	0.130908
2373.79	0.0972624
2375.2	0.128408
2376.6	-0.27524
2378	0.0923481
2379.41	-0.29724
2380.81	0.114907
2382.22	-0.100541
2383.62	-0.204249
2385.02	0.315901
2386.43	0.100254
2387.83	-0.114024
2389.23	-0.0875721
2390.63	0.0834064
2392.03	0.175679
2393.44	0.0937967
2394.84	0.140044
2396.24	0.282329
2397.64	-0.0198584
2399.04	-0.0670986
2400.44	-0.00264168
2401.84	-0.112627
2403.24	0.238016
2404.64	0.0165567
2406.04	0.302324
2407.44	-0.00012207
2408.84	0.204437
2410.23	0.154838
2411.63	0.232244
2413.03	-0.0855341
2414.43	-0.0219088
2415.83	-0.00439262
2417.22	0.0935574
2418.62	0.303262
2420.02	0.133304
2421.41	0.0106859
2422.81	0.410491
2424.21	0.683363
2425.6	0.496812
2427	0.183928
2428.39	0.204679
2429.79	0.0360537
2431.18	0.042491
2432.58	0.795213
2433.97	0.102826
2435.36	0.266715
2436.76	0.127327
2438.15	0.0658674
2439.54	0.304973
2440.94	0.177804
2442.33	-0.219681
2443.72	0.0175791
2445.12	0.000687599
2446.51	-0.032196
2447.9	0.0457468
2449.29	0.0285578
2450.68	0.264933
2452.07	-0.0523195
2453.46	-0.0679884
2454.85	-0.0195541
2456.24	0.235173
2457.64	0.126369
2459.02	-0.267276
2460.41	-0.297639
2461.8	0.0665216
2463.19	-0.0760698
2464.58	0.207454
2465.97	0.174596
2467.36	-0.426604
2468.75	0.0455961
2470.13	0.359455
2471.52	0.010519
2472.91	0.0708904
2474.3	0.146173
2475.68	-0.25119
2477.07	0.279034
2478.45	0.180161
2479.84	0.238525
2481.23	0.0931253
2482.61	-0.00511551
2484	0.19378
2485.38	0.0786619
2486.77	0.290748
2488.15	0.220379
2489.54	0.0715189
2490.92	-0.279438
2492.3	0.0549326
2493.69	-0.0762711
2495.07	0.0112438
2496.45	0.285814
2497.84	0.0187073
2499.22	-0.123945
2500.6	0.0271616
2501.98	-0.56455
2503.36	0.156326
2504.75	0.0574036
2506.13	0.451133
2507.51	-0.125873
2508.89	0.113318
2510.27	-0.185102
2511.65	0.116035
2513.03	0.0341454
2514.41	0.244237
2515.79	0.0110083
2517.17	-0.205881
2518.55	0.250686
2519.93	0.217957
2521.3	0.0933657
2522.68	-0.38278
2524.06	0.132336
2525.44	0.0820789
2526.82	0.320964
2528.19	-0.0944071
2529.57	-0.0823927
2530.95	0.250282
2532.32	0.219709
2533.7	0.220879
2535.08	-0.491296
2536.45	0.361324
2537.83	-0.0172787
2539.2	0.119691
2540.58	-0.214888
2541.95	-0.0183849
2543.33	0.34514
2544.7	0.0873795
2546.08	0.134245
2547.45	-0.0148916
2548.82	0.45878
2550.2	0.158807
2551.57	0.101087
2552.94	0.133526
2554.32	-0.275118
2555.69	0.0892773
2557.06	0.088932
2558.43	0.224923
2559.8	0.179185
2561.18	0.194613
2562.55	-0.0318136
2563.92	-3.05176e-005
2565.29	-0.361839
2566.66	0.397995
2568.03	0.112272
2569.4	0.478231
2570.77	-0.231904
2572.14	0.0431604
2573.51	-0.0303087
2574.88	0.0630484
2576.25	0.308066
2577.61	-0.0686121
2578.98	0.130644
2580.35	0.0869513
2581.72	-0.0329523
2583.09	0.150027
2584.45	0.226614
2585.82	0.500185
2587.19	0.0159817
2588.55	-0.16485
2589.92	0.472793
2591.29	-0.223287
2592.65	0.368222
2594.02	0.0195198
2595.38	0.215178
2596.75	0.212889
2598.11	0.255189
2599.48	0.160996
2600.84	-0.023654
2602.21	0.24544
2603.57	0.228121
2604.93	-0.271505
2606.3	-0.227551
2607.66	-0.138696
2609.02	-0.141146
2610.39	0.14143
2611.75	0.271812
2613.11	0.145196
2614.47	0.378552
2615.83	0.130993
2617.19	0.0790348
2618.56	-0.0620995
2619.92	0.171839
2621.28	0.196796
2622.64	0.102696
2624	0.0388107
2625.36	0.452467
2626.72	0.194258
2628.08	0.0105915
2629.44	0.407598
2630.8	-0.0740242
2632.15	0.426161
2633.51	0.123373
2634.87	0.281137
2636.23	0.0975218
2637.59	0.269818
2638.94	0.234599
2640.3	0.199585
2641.66	-0.0273123
2643.02	0.145255
2644.37	0.450606
2645.73	0.519412
2647.09	0.42554
2648.44	-0.243325
2649.8	0.294896
2651.15	0.0375385
2652.51	-0.102121
2653.86	0.506927
2655.22	0.162825
2656.57	0.215819
2657.93	0.240604
2659.28	0.0321894
2660.63	0.160675
2661.99	0.230432
2663.34	0.430973
2664.69	0.163363
2666.05	0.28918
2667.4	0.122857
2668.75	0.160559
2670.1	0.183909
2671.45	0.0914259
2672.81	0.0723305
2674.16	0.329776
2675.51	0.297228
2676.86	0.163716
2678.21	0.335524
2679.56	0.290565
2680.91	0.0871792
2682.26	0.392416
2683.61	0.278385
2684.96	0.0637217
2686.31	0.139573
2687.66	0.273373
2689	0.130242
2690.35	0.420959
2691.7	0.404963
2693.05	-0.207392
2694.4	0.267432
2695.74	0.292296
2697.09	-0.044405
2698.44	0.387883
2699.79	0.242493
2701.13	0.431887
2702.48	0.115898
2703.83	0.336871
2705.17	0.00764847
2706.52	-0.0172377
2707.86	0.0881948
2709.21	0.353004
2710.55	0.399801
2711.9	0.330143
2713.24	0.144041
2714.58	0.132188
2715.93	0.280199
2717.27	0.253623
2718.62	0.29952
2719.96	0.0103922
2721.3	0.535707
2722.65	0.391138
2723.99	0.406176
2725.33	0.697327
2726.67	0.143882
2728.01	0.0850153
2729.35	0.360624
2730.7	0.272259
2732.04	0.198426
2733.38	0.386536
2734.72	0.443868
2736.06	0.545026
2737.4	0.602675
2738.74	0.151283
2740.08	0.47043
2741.42	0.454604
2742.76	0.554423
2744.1	0.290149
2745.43	0.432193
2746.77	0.108995
2748.11	0.221341
2749.45	0.304605
2750.79	0.170448
2752.12	0.471574
2753.46	0.149526
2754.8	0.378408
2756.14	-0.0879402
2757.47	0.0398006
2758.81	-0.0349455
2760.14	0.252534
2761.48	0.193091
2762.81	0.336707
2764.15	0.263581
2765.49	0.349603
2766.82	0.521953
2768.16	0.172596
2769.49	0.169177
2770.82	0.149871
2772.16	0.15812
2773.49	0.208605
2774.82	0.0133801
2776.16	0.192949
2777.49	0.0847282
2778.82	0.164154
2780.16	0.085906
2781.49	0.094244
2782.82	0.203111
2784.15	-0.204525
2785.48	-0.0957003
2786.82	-0.0727754
2788.15	-0.10666
2789.48	-0.010994
2790.81	0.299991
2792.14	0.2541
2793.47	-0.148686
2794.8	0.206218
2796.13	0.0605288
2797.46	0.242908
2798.79	0.0105295
2800.12	0.363064
2801.44	-0.140904
2802.77	-0.0172253
2804.1	-0.264445
2805.43	-0.098783
2806.76	0.051856
2808.08	0.158994
2809.41	-0.0186901
2810.74	0.0737362
2812.07	0.223377
2813.39	0.0761166
2814.72	-0.112117
2816.05	-0.0578861
2817.37	0.295057
2818.7	0.506828
2820.02	0.165841
2821.35	-0.345643
2822.67	0.0351124
2824	0.372622
2825.32	0.596305
2826.65	0.409253
2827.97	0.463492
2829.3	0.249311
2830.62	0.332907
2831.94	-0.0221119
2833.26	0.670303
2834.59	0.258309
2835.91	0.468603
2837.23	0.565096
2838.56	0.703538
2839.88	0.940687
2841.2	1.10713
2842.52	1.48595
2843.84	1.25762
2845.16	1.4258
2846.48	1.63702
2847.8	1.96172
2849.12	2.20166
2850.45	2.00314
2851.77	2.25636
2853.08	1.85888
2854.4	1.84261
2855.72	2.50431
2857.04	2.37472
2858.36	2.47121
2859.68	2.92071
2861	2.7486
2862.32	2.85853
2863.63	3.20793
2864.95	3.78261
2866.27	3.65164
2867.59	3.73258
2868.9	3.9973
2870.22	4.45979
2871.54	4.78137
2872.85	4.45423
2874.17	4.99989
2875.48	4.89599
2876.8	4.90343
2878.11	5.17719
2879.43	5.16903
2880.74	4.47253
2882.06	4.95784
2883.37	5.05081
2884.69	4.9624
2886	4.73439
2887.31	5.11007
2888.63	4.92377
2889.94	5.31174
2891.25	5.01131
2892.57	4.94864
2893.88	5.18
2895.19	5.22958
2896.5	5.71402
2897.82	5.26193
2899.13	5.49687
2900.44	5.45293
2901.75	5.31167
2903.06	5.85608
2904.37	6.00897
2905.68	6.00834
2906.99	6.24621
2908.3	6.1354
2909.61	6.62725
2910.92	6.49027
2912.23	6.9551
2913.54	7.04115
2914.85	7.05541
2916.16	7.8654
2917.46	8.07119
2918.77	7.96771
2920.08	8.52143
2921.39	8.22281
2922.7	8.75076
2924	8.27406
2925.31	8.51179
2926.62	8.94608
2927.92	8.61159
2929.23	9.64662
2930.54	9.21298
2931.84	9.30992
2933.15	9.63014
2934.45	9.12563
2935.76	9.25026
2937.06	9.44498
2938.37	8.8993
2939.67	8.70338
2940.98	8.20073
2942.28	8.57956
2943.58	8.41498
2944.89	8.11236
2946.19	7.55935
2947.49	7.46841
2948.8	7.26512
2950.1	7.34026
2951.4	6.78303
2952.7	6.48941
2954.01	6.71213
2955.31	6.50035
2956.61	6.13575
2957.91	6.16556
2959.21	5.65264
2960.51	5.96912
2961.81	6.0642
2963.11	5.76756
2964.41	6.18583
2965.71	5.465
2967.01	5.69712
2968.31	5.26703
2969.61	5.22952
2970.91	5.30435
2972.21	5.11228
2973.51	5.38492
2974.81	4.79903
2976.1	4.73305
2977.4	4.79225
2978.7	4.87754
2980	4.83396
2981.29	4.4792
2982.59	4.20842
2983.89	3.72737
2985.18	3.65552
2986.48	3.96487
2987.78	3.61549
2989.07	3.01432
2990.37	3.22851
2991.66	2.96432
2992.96	3.02218
2994.25	2.71324
2995.55	2.0661
2996.84	2.78049
2998.14	2.31521
2999.43	2.42573
3000.73	2.29839
3002.02	1.94754
3003.31	1.6114
3004.61	1.20553
3005.9	1.86393
3007.19	1.10737
3008.48	1.10614
3009.77	1.35567
3011.07	0.947357
3012.36	0.930133
3013.65	1.16404
3014.94	0.86832
3016.23	0.922017
3017.52	0.795454
3018.81	0.61393
3020.1	0.863814
3021.4	0.487516
3022.68	0.749748
3023.97	0.205688
3025.26	-0.0331321
3026.55	0.323854
3027.84	0.210185
3029.13	0.678507
3030.42	0.277276
3031.71	0.444214
3033	0.515472
3034.28	0.518035
3035.57	0.561442
3036.86	0.631048
3038.15	0.602267
3039.43	0.681666
3040.72	0.360654
3042.01	0.300328
3043.29	0.4046
3044.58	0.345223
3045.87	0.410733
3047.15	0.546675
3048.44	0.944299
3049.72	0.74338
3051.01	0.748962
3052.29	0.291518
3053.58	0.721054
3054.86	0.57686
3056.15	0.758985
3057.43	0.721716
3058.71	0.792649
3060	0.972153
3061.28	0.906913
3062.56	0.733994
3063.84	0.875424
3065.13	0.719398
3066.41	0.796014
3067.69	0.520214
3068.97	0.897537
3070.26	0.771488
3071.54	0.617327
3072.82	0.47554
3074.1	0.29178
3075.38	0.0664902
3076.66	0.139896
3077.94	0.444401
3079.22	0.600525
3080.5	0.663208
3081.78	0.198537
3083.06	-0.102086
3084.34	0.113539
3085.62	0.125774
3086.9	-0.0388317
3088.18	0.3931
3089.45	0.0914259
3090.73	0.142223
3092.01	-0.146271
3093.29	-0.176746
3094.56	0.281317
3095.84	0.0887194
3097.12	0.248781
3098.4	0.00215769
3099.67	0.134953
3100.95	-0.206479
3102.22	-0.154888
3103.5	0.113603
3104.78	-0.0776877
3106.05	0.0701838
3107.33	-0.159934
3108.6	0.0846629
3109.88	0.262742
3111.15	-0.0725808
3112.43	-0.231268
3113.7	-0.159243
3114.97	0.346691
3116.25	0.215199
3117.52	0.177779
3118.79	-0.118378
3120.07	-0.0357819
3121.34	0.317086
3122.61	0.194825
3123.88	0.275733
3125.16	0.356793
3126.43	0.248814
3127.7	0.439175
3128.97	0.792275
3130.24	0.374907
3131.51	0.255329
3132.79	0.203306
3134.06	0.313097
3135.33	0.50331
3136.6	0.234104
3137.87	0.207479
3139.14	0.557758
3140.41	0.32861
3141.67	0.382384
3142.94	0.409531
3144.21	0.289517
3145.48	0.505735
3146.75	0.682154
3148.02	0.457187
3149.29	0.527715
