200.407	0.00580788
202.221	0.031106
204.035	0.0573883
205.849	0.206287
207.665	-0.0335732
209.478	-0.0550852
211.291	0.140849
213.104	0.26232
214.916	0.13985
216.73	-0.00732708
218.541	0.208991
220.352	-0.494094
222.163	-0.227824
223.973	0.522614
225.785	-0.0319853
227.595	-0.127108
229.404	0.043047
231.213	0.381371
233.022	-0.535443
234.83	0.0921135
236.638	0.262458
238.448	-0.456835
240.255	0.610103
242.062	0.0403395
243.868	-0.335457
245.675	0.205457
247.48	0.600296
249.286	-0.335699
251.091	-0.140212
252.896	0.00396252
254.702	0.0254793
256.506	-0.315248
258.31	0.718757
260.113	-0.534975
261.916	0.213107
263.719	-0.217554
265.521	0.412946
267.323	-0.0404682
269.125	0.542095
270.926	0.231899
272.727	0.16146
274.527	0.282348
276.328	0.256778
278.127	0.0605106
279.927	-0.402703
281.726	0.263734
283.525	0.80685
285.323	0.194068
287.121	0.469635
288.919	0.408877
290.716	0.684334
292.513	-0.307897
294.31	0.71215
296.104	0.51329
297.9	0.937171
299.696	0.310059
301.491	0.734045
303.286	0.870269
305.081	0.0503721
306.875	0.279715
308.669	0.389269
310.463	0.0227003
312.256	0.372128
314.047	0.842107
315.839	0.647298
317.631	-0.998341
319.423	0.0724583
321.215	0.811595
323.006	0.622278
324.794	0.457018
326.585	0.721441
328.375	1.10536
330.165	0.221939
331.954	0.938751
333.741	0.194697
335.53	1.02735
337.318	0.924238
339.106	0.723023
340.894	-0.0538292
342.679	0.388093
344.466	0.0648918
346.253	0.387283
348.039	-0.173339
349.823	-0.0170431
351.608	0.0437174
353.393	0.676519
355.176	0.0673342
356.961	-0.0182419
358.745	0.371423
360.529	0.0210495
362.31	-0.210896
364.093	0.127341
365.876	0.15535
367.657	0.182415
369.439	0.279588
371.221	0.517693
373	0.75444
374.781	0.871999
376.56	0.13947
378.34	0.21077
380.12	0.895318
381.898	0.238218
383.677	0.218522
385.456	0.505775
387.233	0.794021
389.011	0.848362
390.787	0.433994
392.565	0.372864
394.34	0.00705242
396.117	0.487044
397.894	0.685317
399.668	1.63497
401.444	0.000468254
403.217	1.08982
404.993	0.0409632
406.766	1.03448
408.54	0.735634
410.312	0.272172
412.086	-0.120723
413.858	0.589724
415.631	0.526452
417.402	-0.216467
419.174	0.191003
420.944	-0.22267
422.716	-0.167258
424.486	0.544743
426.257	0.410639
428.025	0.392957
429.794	0.891096
431.564	-0.394709
433.332	0.0566425
435.101	-0.10192
436.868	-0.354433
438.637	-0.0913363
440.403	-0.134851
442.169	0.00722694
443.937	0.709514
445.703	0.588865
447.468	0.373387
449.234	-0.23984
450.999	0.105967
452.765	0.194673
454.528	0.143489
456.292	0.651698
458.057	0.390369
459.819	-0.0101557
461.582	0.450944
463.344	-0.597655
465.107	0.308644
466.868	0.543875
468.629	-0.170856
470.392	0.20877
472.152	-0.224942
473.912	0.737028
475.672	0.230587
477.433	0.234015
479.192	0.445047
480.951	1.2372
482.709	0.11951
484.469	0.447068
486.226	0.520495
487.984	0.060214
489.74	0.114649
491.499	0.590441
493.255	0.250014
495.011	0.236576
496.767	0.269814
498.522	0.771383
500.277	0.31186
502.033	0.625357
503.788	0.327663
505.541	0.61589
507.295	0.45613
509.048	0.600358
510.801	0.695827
512.553	-0.0105209
514.308	0.222719
516.06	0.595558
517.811	0.496494
519.562	0.161297
521.313	0.600931
523.063	0.710778
524.814	0.374274
526.563	0.601083
528.313	0.0773563
530.062	0.139904
531.811	-0.00885868
533.559	0.473701
535.308	0.697023
537.055	0.0537243
538.803	0.437369
540.55	0.305821
542.297	0.453177
544.043	-0.0284395
545.789	0.466971
547.535	0.706052
549.281	0.411631
551.026	-0.0440073
552.771	-0.151507
554.515	0.665662
556.259	0.188747
558.003	-0.0101023
559.747	0.851731
561.49	0.837904
563.233	0.548721
564.975	-0.49792
566.717	-0.371017
568.459	0.537098
570.2	-0.160908
571.942	0.0147705
573.68	0.146217
575.421	-0.018693
577.161	0.185251
578.901	0.321892
580.64	-0.0227985
582.379	0.390603
584.118	0.0911608
585.855	-0.462585
587.593	0.408289
589.331	0.426895
591.068	0.375425
592.805	0.461393
594.54	-0.281089
596.277	0.425905
598.013	-0.132522
599.749	-0.00111485
601.484	0.0373898
603.217	0.741492
604.952	-0.556575
606.687	-0.0395985
608.421	0.269237
610.153	-0.0880423
611.886	-0.0774527
613.619	0.140288
615.35	0.0148058
617.083	0.0728951
618.815	0.0846109
620.547	0.232514
622.276	0.104399
624.008	-0.207407
625.738	-0.0162649
627.467	0.244204
629.197	-0.246608
630.927	-0.0958157
632.655	0.0115099
634.384	-0.24514
636.113	0.114182
637.839	0.357644
639.568	0.301429
641.293	-0.670293
643.021	-0.0706854
644.748	0.731401
646.473	0.326664
648.2	0.33372
649.924	0.571397
651.65	0.699629
653.376	0.195876
655.099	0.354895
656.824	0.220753
658.546	0.566113
660.271	-0.297508
661.993	-0.365053
663.716	0.456217
665.438	-0.690448
667.161	0.286886
668.881	-0.222893
670.604	0.388689
672.324	0.156022
674.045	-0.120068
675.765	-0.0734072
677.486	0.410646
679.204	0.0690947
680.925	0.622438
682.643	0.2545
684.361	1.1038
686.08	0.178399
687.797	0.310248
689.516	0.510033
691.232	-0.00505257
692.95	0.423607
694.666	-0.0698814
696.382	0.287776
698.099	-0.0696859
699.813	0.791369
701.528	0.56936
703.244	0.967078
704.958	0.582563
706.673	-0.100353
708.387	0.157567
710.099	0.391746
711.814	0.739576
713.526	0.697618
715.238	0.175592
716.949	0.522069
718.663	0.411758
720.374	0.962813
722.084	0.215085
723.796	0.606319
725.506	1.22412
727.216	0.591278
728.925	1.04836
730.636	0.891932
732.345	0.395675
734.053	0.171687
735.761	1.19134
737.471	0.69646
739.178	0.586795
740.885	1.31243
742.592	0.934582
744.298	1.50431
746.006	1.80507
747.712	1.54491
749.417	1.12901
751.122	1.18702
752.827	1.40399
754.532	1.35265
756.236	0.852914
757.942	0.984942
759.645	0.938536
761.348	0.915911
763.051	1.16465
764.753	1.16513
766.456	1.09663
768.158	1.02604
769.859	1.78962
771.56	1.0812
773.261	1.81835
774.964	0.904218
776.664	1.55086
778.364	1.06842
780.064	1.78622
781.763	1.91755
783.462	1.5287
785.16	1.9986
786.859	1.7189
788.557	0.86986
790.255	1.3977
791.952	0.859476
793.649	1.69776
795.346	1.09035
797.042	1.2964
798.738	1.18865
800.434	0.227775
802.127	1.36172
803.823	1.23612
805.517	0.773292
807.212	1.47844
808.906	1.10361
810.6	1.62561
812.293	1.33851
813.987	1.11843
815.68	0.629795
817.372	1.57349
819.064	0.72774
820.754	0.821495
822.446	1.56257
824.137	1.23317
825.828	0.749788
827.519	1.49424
829.209	0.97198
830.897	1.0099
832.587	0.872745
834.276	1.27281
835.966	1.40688
837.654	0.87144
839.341	1.04874
841.029	1.15745
842.717	0.817904
844.404	0.946919
846.091	1.25551
847.776	0.71657
849.463	0.985174
851.149	0.361272
852.833	1.15039
854.519	0.685742
856.204	1.27569
857.889	0.808913
859.572	0.519541
861.256	0.227824
862.94	0.722549
864.622	1.0811
866.305	0.537126
867.988	0.668634
869.669	0.280992
871.351	0.366576
873.033	0.812963
874.713	0.266607
876.395	0.735625
878.074	0.57286
879.755	0.455107
881.435	0.111216
883.114	0.376108
884.794	0.368956
886.471	0.518332
888.15	0.508003
889.829	0.87933
891.506	0.75279
893.184	0.669975
894.861	1.03604
896.538	0.658371
898.214	0.729499
899.891	-0.232441
901.566	0.801085
903.242	0.153157
904.916	0.44532
906.592	0.312874
908.266	0.0922709
909.941	-0.371872
911.614	0.723203
913.288	0.394455
914.961	0.177799
916.635	0.427466
918.306	0.455002
919.979	1.14685
921.651	0.333784
923.321	0.120131
924.994	0.306129
926.664	-0.0580473
928.336	-0.0449009
930.005	0.918477
931.674	0.690881
933.345	0.419565
935.014	0.964666
936.682	0.0103903
938.352	0.402471
940.019	0.840029
941.687	0.440813
943.356	0.152606
945.022	0.19523
946.689	0.391228
948.357	0.408688
950.022	0.490271
951.688	0.195381
953.355	0.871115
955.02	0.291347
956.684	0.596722
958.348	-0.241242
960.014	0.159054
961.678	0.937131
963.341	0.1911
965.004	0.658783
966.669	0.261084
968.331	0.745202
969.993	0.34195
971.655	0.689865
973.316	0.197759
974.979	0.813012
976.64	0.877499
978.3	0.766806
979.961	0.446658
981.62	0.125953
983.28	0.168979
984.941	0.874035
986.6	0.669107
988.259	0.218895
989.917	-0.342873
991.575	0.377083
993.233	0.853059
994.89	0.820877
996.547	-0.00534153
998.204	1.02151
999.86	0.548473
1001.52	1.85936
1003.17	1.23139
1004.83	1.50555
1006.49	0.944115
1008.14	0.713023
1009.79	0.153478
1011.45	0.625889
1013.1	-0.0195007
1014.76	0.760077
1016.41	0.181969
1018.06	-0.0667381
1019.72	0.0793505
1021.37	-0.188925
1023.02	0.527783
1024.67	0.108893
1026.32	0.586737
1027.97	-0.0497866
1029.62	1.12644
1031.27	0.771937
1032.92	0.0229015
1034.57	0.101898
1036.22	-0.0605574
1037.87	0.386312
1039.52	0.179323
1041.17	0.147388
1042.82	0.377789
1044.47	0.370915
1046.11	0.626906
1047.76	0.320333
1049.41	-0.657565
1051.06	-0.331026
1052.7	-0.177272
1054.35	0.498496
1055.99	0.479096
1057.64	0.11157
1059.28	0.526117
1060.93	-0.0166922
1062.57	0.396366
1064.22	-0.126572
1065.86	-0.215716
1067.5	-0.436382
1069.15	0.515249
1070.79	-0.206778
1072.43	-0.0817699
1074.08	-0.0865355
1075.72	0.799161
1077.36	0.0811539
1079	-0.0497475
1080.64	-0.331545
1082.28	0.384179
1083.92	0.231593
1085.56	0.120641
1087.2	-0.360812
1088.84	0.650127
1090.48	0.229586
1092.12	0.846019
1093.76	-0.202222
1095.39	0.736666
1097.03	0.0149508
1098.67	0.437548
1100.31	0.47409
1101.94	0.319144
1103.58	0.618115
1105.22	0.531364
1106.85	0.16575
1108.49	0.488086
1110.12	-0.0939093
1111.76	-0.118458
1113.39	0.735989
1115.03	-0.344133
1116.66	0.442918
1118.29	0.178524
1119.93	-0.277568
1121.56	1.0452
1123.19	1.1908
1124.82	-0.138769
1126.46	1.10019
1128.09	0.735654
1129.72	0.756968
1131.35	0.351398
1132.98	0.352434
1134.61	1.05875
1136.24	0.610053
1137.87	-0.0105991
1139.5	-0.418601
1141.13	0.346885
1142.76	0.1081
1144.39	-0.00233746
1146.01	-0.133227
1147.64	0.440318
1149.27	0.226233
1150.9	0.289745
1152.53	-0.17911
1154.15	0.352515
1155.78	0.351313
1157.4	-0.0330067
1159.03	0.157582
1160.65	0.497883
1162.28	0.095191
1163.9	-0.306288
1165.53	0.398447
1167.15	0.698969
1168.78	0.445494
1170.4	0.63653
1172.02	0.612712
1173.65	0.884074
1175.27	0.347363
1176.89	0.171228
1178.51	0.503961
1180.14	0.265472
1181.76	0.00718403
1183.38	0.278528
1185	0.78208
1186.62	-0.320868
1188.24	-0.157998
1189.86	-0.0608101
1191.48	0.0340471
1193.1	0.337215
1194.71	-0.642146
1196.33	0.624613
1197.95	0.423305
1199.57	0.517286
1201.19	0.258593
1202.8	0.859431
1204.42	0.836589
1206.04	0.712023
1207.65	0.35963
1209.27	0.862945
1210.88	0.760389
1212.5	0.468283
1214.12	0.986569
1215.73	0.522867
1217.35	0.827536
1218.96	1.35896
1220.57	0.830373
1222.19	0.365864
1223.8	1.29191
1225.41	1.10022
1227.03	1.0141
1228.64	1.05385
1230.25	1.09509
1231.86	1.48915
1233.47	1.32651
1235.08	1.35143
1236.69	1.5225
1238.31	2.02567
1239.92	1.97162
1241.52	1.83505
1243.13	1.90493
1244.74	1.51867
1246.35	1.62773
1247.96	1.46655
1249.57	1.92516
1251.18	1.55577
1252.78	2.20026
1254.39	1.6459
1256	2.10639
1257.6	1.84448
1259.21	1.87361
1260.82	1.82109
1262.42	1.9348
1264.03	1.55148
1265.63	1.76836
1267.24	1.52848
1268.84	1.37028
1270.45	1.52182
1272.05	1.23668
1273.65	1.24061
1275.26	1.47137
1276.86	1.34862
1278.46	1.65998
1280.06	1.43198
1281.67	1.49356
1283.27	1.14144
1284.87	2.25849
1286.47	2.13548
1288.07	2.3652
1289.67	1.70741
1291.27	1.87696
1292.87	1.92244
1294.47	1.76043
1296.07	1.80349
1297.67	1.94778
1299.27	2.33744
1300.87	1.96187
1302.47	2.84187
1304.06	2.81354
1305.66	2.2292
1307.26	2.34368
1308.85	2.92939
1310.45	2.81705
1312.05	2.35741
1313.64	2.69726
1315.24	3.07863
1316.83	2.95019
1318.43	2.88392
1320.02	2.87879
1321.62	2.40403
1323.21	2.27414
1324.8	3.19933
1326.4	2.45573
1327.99	2.07824
1329.59	1.96557
1331.18	2.07756
1332.77	3.38418
1334.36	3.05622
1335.95	3.11429
1337.54	2.9714
1339.14	3.17053
1340.73	2.23928
1342.32	2.17221
1343.91	2.24351
1345.5	2.25298
1347.09	2.10205
1348.67	2.45431
1350.26	1.74828
1351.85	1.94646
1353.44	2.34693
1355.03	2.72883
1356.62	2.09195
1358.2	2.41378
1359.79	2.23498
1361.38	2.65374
1362.96	1.91398
1364.55	1.67301
1366.14	2.18972
1367.72	1.89037
1369.31	2.6677
1370.89	1.89408
1372.48	2.49546
1374.06	1.90434
1375.64	2.52786
1377.23	2.47502
1378.81	1.68529
1380.39	2.02855
1381.98	1.89266
1383.56	1.85466
1385.14	2.03408
1386.72	1.85512
1388.3	1.27934
1389.89	1.39956
1391.47	1.77872
1393.05	1.50399
1394.63	1.21003
1396.21	2.0066
1397.79	1.73143
1399.37	1.87136
1400.95	1.95055
1402.52	2.0685
1404.1	1.94884
1405.68	1.98811
1407.26	2.02841
1408.84	1.67457
1410.42	1.91418
1411.99	1.44274
1413.57	1.83946
1415.15	1.80067
1416.72	1.64253
1418.3	1.3461
1419.87	1.48372
1421.45	1.60275
1423.02	1.84168
1424.6	1.433
1426.17	1.85254
1427.75	2.0169
1429.32	1.51175
1430.89	2.18646
1432.47	2.22986
1434.04	2.23268
1435.61	2.49056
1437.18	2.51258
1438.76	2.31927
1440.33	2.85446
1441.9	3.4301
1443.47	2.78818
1445.04	3.16874
1446.61	3.13681
1448.18	3.16403
1449.75	3.19163
1451.32	3.10185
1452.89	3.60271
1454.46	3.37649
1456.03	3.5043
1457.6	3.43453
1459.16	3.14658
1460.73	3.07287
1462.3	2.15076
1463.87	2.89881
1465.43	1.87576
1467	2.93559
1468.56	1.95282
1470.13	2.44391
1471.7	1.85704
1473.26	2.37013
1474.83	1.92312
1476.39	1.5944
1477.96	1.40314
1479.52	1.97631
1481.08	1.39285
1482.65	1.20136
1484.21	1.32328
1485.77	1.89532
1487.34	1.6436
1488.9	1.70372
1490.46	2.23115
1492.02	1.73845
1493.58	1.5174
1495.15	1.27511
1496.71	0.739823
1498.27	0.555878
1499.83	1.28643
1501.39	1.27879
1502.95	0.729536
1504.51	0.938016
1506.07	1.04965
1507.63	1.16037
1509.18	1.54013
1510.74	2.01411
1512.3	1.4837
1513.86	1.58927
1515.41	1.52177
1516.97	0.476006
1518.53	1.88815
1520.08	0.92262
1521.64	1.54763
1523.2	1.13874
1524.75	1.53172
1526.31	0.816605
1527.86	0.921093
1529.42	1.61408
1530.97	0.691077
1532.52	1.66736
1534.08	1.771
1535.63	1.95131
1537.19	1.28215
1538.74	1.10597
1540.29	1.40202
1541.84	1.5469
1543.4	1.65374
1544.95	1.64731
1546.5	1.80965
1548.05	2.1028
1549.6	2.45152
1551.15	1.71369
1552.7	1.95067
1554.25	1.94538
1555.8	2.53941
1557.35	2.18295
1558.9	1.88523
1560.45	2.37351
1562	1.70713
1563.54	1.62041
1565.09	2.13145
1566.64	2.30686
1568.19	2.83665
1569.73	2.50742
1571.28	2.98031
1572.83	2.42615
1574.37	2.73047
1575.92	2.71746
1577.47	3.58212
1579.01	3.27121
1580.56	3.5212
1582.1	2.98793
1583.64	3.42691
1585.19	3.3252
1586.73	3.24277
1588.28	3.49715
1589.82	3.04041
1591.36	3.36891
1592.9	2.98546
1594.45	2.65757
1595.99	2.87284
1597.53	3.12623
1599.07	3.36191
1600.61	3.01719
1602.15	3.36716
1603.69	3.56725
1605.23	2.77097
1606.77	3.34423
1608.31	2.99422
1609.85	3.14868
1611.39	2.8867
1612.93	2.26557
1614.47	2.46928
1616.01	2.14698
1617.55	2.3317
1619.08	2.96724
1620.62	2.72392
1622.16	2.55735
1623.7	2.01748
1625.23	2.45118
1626.77	1.91065
1628.3	2.36044
1629.84	2.58376
1631.37	2.61862
1632.91	2.27932
1634.44	2.79944
1635.98	2.42441
1637.51	3.35635
1639.05	3.15116
1640.58	2.85299
1642.11	2.72195
1643.65	2.77586
1645.18	2.2141
1646.71	2.99083
1648.24	2.42811
1649.78	3.09215
1651.31	2.69877
1652.84	2.93799
1654.37	2.86323
1655.9	2.49279
1657.43	2.51162
1658.96	2.97403
1660.49	2.37921
1662.02	2.5603
1663.55	3.3682
1665.08	2.21617
1666.61	2.32136
1668.14	2.57521
1669.66	2.31443
1671.19	2.11098
1672.72	2.22211
1674.25	2.64683
1675.77	2.15054
1677.3	2.00329
1678.83	2.33315
1680.35	1.98111
1681.88	1.48155
1683.4	1.51473
1684.93	1.1075
1686.45	1.63644
1687.98	1.63374
1689.5	1.86963
1691.03	0.970372
1692.55	0.968822
1694.07	0.93061
1695.6	0.819109
1697.12	1.12769
1698.64	1.21639
1700.17	1.08548
1701.69	1.02708
1703.21	0.895206
1704.73	0.398684
1706.25	0.684849
1707.77	0.770214
1709.29	0.546536
1710.81	0.323316
1712.33	0.390764
1713.85	0.94745
1715.37	0.181758
1716.89	0.954741
1718.41	0.0635586
1719.93	0.221124
1721.45	0.125992
1722.97	0.536385
1724.49	0.893209
1726	0.224633
1727.52	0.350098
1729.04	0.512527
1730.55	0.0302277
1732.07	0.443449
1733.59	0.563701
1735.1	1.00498
1736.62	0.317808
1738.13	0.45959
1739.65	0.278204
1741.16	0.167269
1742.68	0.46895
1744.19	0.510758
1745.7	0.280859
1747.22	0.150838
1748.73	-0.134824
1750.24	0.172628
1751.76	0.651527
1753.27	0.284939
1754.78	0.426939
1756.29	0.146165
1757.8	0.0695791
1759.31	0.353188
1760.83	0.297176
1762.34	0.0713043
1763.85	0.0702963
1765.36	0.0814571
1766.87	0.336793
1768.38	0.215969
1769.89	0.0499392
1771.39	-0.103225
1772.9	0.540216
1774.41	0.0154495
1775.92	0.138253
1777.43	0.35027
1778.94	-0.0707903
1780.44	0.19435
1781.95	0.20513
1783.46	0.247404
1784.96	0.1823
1786.47	0.429635
1787.97	0.372671
1789.48	-0.209645
1790.99	0.0776482
1792.49	0.273922
1794	-0.0343885
1795.5	0.355871
1797	0.364532
1798.51	-0.240184
1800.01	-0.364549
1801.51	0.236651
1803.02	0.39478
1804.52	0.290915
1806.02	0.301504
1807.53	0.228704
1809.03	0.0194483
1810.53	-0.0663757
1812.03	0.168954
1813.53	0.199557
1815.03	-0.189815
1816.53	-0.112481
1818.03	-0.141903
1819.53	0.044095
1821.03	0.172565
1822.53	-0.110453
1824.03	-0.0420465
1825.53	0.121759
1827.03	0.525466
1828.53	0.14576
1830.02	-0.102294
1831.52	0.0120525
1833.02	0.012639
1834.52	0.190099
1836.01	-0.252613
1837.51	0.172655
1839.01	-0.00428009
1840.5	0.213711
1842	-0.0271101
1843.49	0.410079
1844.99	0.0710716
1846.48	0.0914526
1847.98	-0.140023
1849.47	0.304278
1850.97	0.0345478
1852.46	0.290889
1853.95	0.152528
1855.45	-0.000591278
1856.94	-0.0969524
1858.43	-0.0667362
1859.93	-0.0593252
1861.42	-0.165484
1862.91	-0.285083
1864.4	0.192528
1865.89	0.0725594
1867.38	0.286099
1868.87	-0.132204
1870.36	0.195495
1871.85	0.085537
1873.34	-0.268801
1874.83	-0.00747108
1876.32	0.00471401
1877.81	-0.232985
1879.3	0.0961008
1880.79	-0.396304
1882.28	0.124254
1882.52	0.245446
1884.02	0.139585
1885.51	-0.00186825
1887.01	0.308755
1888.5	-0.217048
1889.99	-0.098362
1891.49	0.403796
1892.98	-0.0663338
1894.47	0.160947
1895.97	-0.114406
1897.46	-0.110745
1898.95	-0.107198
1900.44	0.034503
1901.93	0.452871
1903.42	0.277911
1904.91	-0.193963
1906.4	0.515262
1907.89	0.28599
1909.38	0.161719
1910.87	0.281428
1912.36	-0.187785
1913.85	0.280322
1915.34	0.124094
1916.83	-0.119103
1918.32	0.0012455
1919.8	0.138387
1921.29	0.136772
1922.78	0.170207
1924.27	-0.228283
1925.75	0.326581
1927.24	-0.363928
1928.73	-0.240147
1930.21	-0.237591
1931.7	0.699299
1933.18	-0.287452
1934.67	0.143868
1936.15	0.209782
1937.64	0.170636
1939.12	0.37295
1940.61	-0.0635824
1942.09	0.208825
1943.57	0.654555
1945.06	-0.0372353
1946.54	0.202703
1948.02	0.304381
1949.51	-0.0426817
1950.99	0.263827
1952.47	0.190463
1953.95	0.133787
1955.43	0.0770988
1956.91	-0.391255
1958.4	0.30868
1959.88	0.0308533
1961.36	-0.126133
1962.84	0.0942888
1964.32	-0.113984
1965.8	0.430905
1967.27	-0.343369
1968.75	0.165459
1970.23	0.160216
1971.71	-0.0844202
1973.19	0.0296583
1974.67	0.109556
1976.14	0.138398
1977.62	0.150336
1979.1	0.0261908
1980.58	-0.165863
1982.05	0.305103
1983.53	0.248521
1985	0.361399
1986.48	-0.374158
1987.95	0.348825
1989.43	0.105792
1990.9	-0.0685177
1992.38	0.130426
1993.85	0.39782
1995.33	-0.415684
1996.8	0.207767
1998.27	0.746336
1999.75	0.659418
2001.22	-0.0693254
2002.69	0.264683
2004.16	0.32849
2005.64	0.392581
2007.11	0.524775
2008.58	-0.40294
2010.05	0.0511312
2011.52	0.118434
2012.99	0.421409
2014.46	0.420934
2015.93	0.11681
2017.4	-0.171247
2018.87	0.111665
2020.34	-0.278347
2021.81	-0.113914
2023.28	0.184953
2024.75	0.115248
2026.22	-0.0538406
2027.69	-0.0704699
2029.15	0.249865
2030.62	-0.015501
2032.09	0.307326
2033.56	0.127255
2035.02	0.0142136
2036.49	-0.183289
2037.96	0.0890636
2039.42	-0.0758438
2040.89	-0.274493
2042.35	0.115637
2043.82	0.0526266
2045.28	0.0409632
2046.75	0.198422
2048.21	0.103687
2049.67	0.143348
2051.14	0.0639954
2052.6	0.0336075
2054.07	0.692847
2055.53	0.186592
2056.99	0.336593
2058.45	0.384541
2059.92	0.0617218
2061.38	0.244697
2062.84	0.260071
2064.3	0.37746
2065.76	-0.0931311
2067.22	0.110309
2068.68	-0.140059
2070.14	-0.0198402
2071.6	-0.354083
2073.06	0.170163
2074.52	0.0712051
2075.98	0.359219
2077.44	0.10798
2078.9	0.311015
2080.36	0.0589161
2081.82	0.193546
2083.27	-0.0933723
2084.73	0.376366
2086.19	0.508595
2087.65	0.186088
2089.1	0.451652
2090.56	0.0280485
2092.02	0.0413074
2093.47	0.0880222
2094.93	-0.418987
2096.38	-0.0375996
2097.84	0.325876
2099.29	-0.0983934
2100.75	-0.0875359
2102.2	0.274426
2103.66	0.402939
2105.11	-0.185021
2106.56	0.0964384
2108.02	0.0618811
2109.47	-0.172412
2110.92	0.159675
2112.38	0.223593
2113.83	0.152499
2115.28	-0.0532179
2116.73	0.305749
2118.18	-0.182699
2119.63	0.293599
2121.09	0.157454
2122.54	-0.0595655
2123.99	0.0565882
2125.44	0.107039
2126.89	0.356182
2128.34	0.0240717
2129.79	-0.0440798
2131.23	-0.0803061
2132.68	0.495168
2134.13	0.325519
2135.58	0.156846
2137.03	0.121996
2138.48	0.287295
2139.92	0.239622
2141.37	0.0778503
2142.82	0.347091
2144.27	-0.276146
2145.71	-0.287414
2147.16	0.379874
2148.6	0.0201416
2150.05	-0.125264
2151.49	0.159128
2152.94	-0.137318
2154.38	0.410457
2155.83	-0.0363121
2157.27	0.428158
2158.72	0.0484848
2160.16	0.349267
2161.6	0.337043
2163.05	-0.303398
2164.49	-0.047287
2165.93	0.0273476
2167.38	0.0853949
2168.82	0.0261478
2170.26	0.164747
2171.7	-0.0978317
2173.14	0.0702333
2174.58	0.453202
2176.03	0.0205927
2177.47	0.419693
2178.91	0.00478172
2180.35	-0.20966
2181.79	0.225151
2183.23	0.195012
2184.67	0.381363
2186.1	0.235136
2187.54	0.271914
2188.98	0.0757551
2190.42	0.478744
2191.86	0.298924
2193.3	-0.0648079
2194.73	-0.0302219
2196.17	0.402129
2197.61	0.166706
2199.05	0.24579
2200.48	0.174209
2201.92	-0.0800362
2203.35	0.346929
2204.79	0.393067
2206.22	0.224742
2207.66	-0.0754452
2209.1	-0.392106
2210.53	0.168022
2211.97	0.0483675
2213.4	0.176086
2214.83	-0.20854
2216.27	0.00215912
2217.7	0.0982161
2219.13	0.013998
2220.57	0.0460749
2222	-0.0371027
2223.43	-0.0385275
2224.86	0.222183
2226.29	-0.0785875
2227.72	0.0469713
2229.16	0.0396318
2230.59	0.408872
2232.02	0.203526
2233.45	0.27719
2234.88	-0.0246458
2236.31	0.296056
2237.74	-0.0514975
2239.17	0.0600882
2240.6	0.0756884
2242.03	-0.0211058
2243.45	0.242151
2244.88	-0.162962
2246.31	0.230522
2247.74	-0.160439
2249.17	0.327044
2250.59	0.1927
2252.02	0.447439
2253.45	0.14796
2254.87	0.174268
2256.3	0.315609
2257.73	0.345587
2259.15	0.346005
2260.58	0.187155
2262	0.128058
2263.43	-0.059432
2264.85	0.110684
2266.28	0.296917
2267.7	0.417459
2269.13	-0.0161734
2270.55	0.135168
2271.97	0.220958
2273.4	0.160027
2274.82	0.245763
2276.24	-0.0104237
2277.67	0.434265
2279.09	0.12934
2280.51	0.134023
2281.93	0.187518
2283.35	0.289897
2284.77	0.0496798
2286.2	0.511445
2287.62	-0.00582123
2289.04	0.27736
2290.46	0.348743
2291.88	-0.020896
2293.3	0.116258
2294.72	-0.188255
2296.13	-0.296688
2297.55	0.0532494
2298.97	0.0431223
2300.39	0.393746
2301.81	0.531822
2303.23	0.292993
2304.64	-0.110066
2306.06	0.258272
2307.48	0.215854
2308.89	0.304346
2310.31	0.17854
2311.73	-0.095788
2313.14	0.567553
2314.56	0.491061
2315.98	0.49761
2317.39	0.472029
2318.81	0.298529
2320.22	0.289534
2321.64	-0.182605
2323.05	0.432393
2324.46	0.137416
2325.88	0.632185
2327.29	0.844449
2328.7	0.824929
2330.12	0.0644312
2331.53	0.227551
2332.94	0.0954294
2334.35	-0.052207
2335.77	0.310437
2337.18	0.573771
2338.59	0.260509
2340	0.192828
2341.41	-0.0235386
2342.82	-0.076026
2344.23	0.412711
2345.64	0.360247
2347.05	0.0624628
2348.46	0.288886
2349.87	0.15475
2351.28	0.150783
2352.69	-0.0991592
2354.1	-0.170097
2355.51	0.0844278
2356.91	0.0938501
2358.32	-0.043169
2359.73	0.161414
2361.14	0.203366
2362.54	-0.516788
2363.95	-0.458128
2365.36	0.053339
2366.76	0.192206
2368.17	0.0892258
2369.58	0.31009
2370.98	0.354651
2372.39	0.0944462
2373.79	0.157578
2375.2	-0.390612
2376.6	-0.39165
2378	-0.0238791
2379.41	0.0687199
2380.81	-0.1455
2382.22	0.328814
2383.62	0.192513
2385.02	0.200267
2386.43	0.0566196
2387.83	-0.0857944
2389.23	-0.027442
2390.63	-0.238776
2392.03	0.235924
2393.44	0.0268717
2394.84	0.00971889
2396.24	-0.0862074
2397.64	0.184102
2399.04	0.0893955
2400.44	-0.00476837
2401.84	-0.0509367
2403.24	0.157053
2404.64	0.221691
2406.04	0.0155745
2407.44	0.126015
2408.84	-0.398815
2410.23	-0.57471
2411.63	-0.0214396
2413.03	0.167889
2414.43	-0.00576591
2415.83	0.265363
2417.22	0.490344
2418.62	0.0829725
2420.02	0.0400743
2421.41	0.361375
2422.81	0.397245
2424.21	0.0525723
2425.6	-0.0861244
2427	0.742439
2428.39	0.240614
2429.79	0.262789
2431.18	0.317425
2432.58	0.610404
2433.97	0.378991
2435.36	0.336888
2436.76	-0.0880785
2438.15	-0.0697269
2439.54	0.423884
2440.94	0.0587788
2442.33	-0.100267
2443.72	0.597389
2445.12	0.35847
2446.51	0.404969
2447.9	-0.0241308
2449.29	0.212418
2450.68	0.0531549
2452.07	-0.0421448
2453.46	0.0849056
2454.85	-0.166934
2456.24	0.135627
2457.64	0.311923
2459.02	0.0451641
2460.41	-0.285364
2461.8	0.205606
2463.19	-0.110583
2464.58	0.204844
2465.97	0.140681
2467.36	0.218541
2468.75	0.375166
2470.13	0.373727
2471.52	0.324529
2472.91	0.00687885
2474.3	0.0666819
2475.68	0.110016
2477.07	0.168618
2478.45	0.541155
2479.84	0.144359
2481.23	0.250103
2482.61	0.104932
2484	-0.118747
2485.38	-0.0457392
2486.77	0.244716
2488.15	0.190098
2489.54	0.150436
2490.92	-0.262812
2492.3	0.118254
2493.69	0.546073
2495.07	0.0436726
2496.45	-0.00709248
2497.84	-0.149871
2499.22	0.574597
2500.6	0.0139179
2501.98	-0.237593
2503.36	0.143449
2504.75	0.121794
2506.13	0.192
2507.51	-0.353828
2508.89	0.116325
2510.27	0.416954
2511.65	0.380109
2513.03	0.114202
2514.41	-0.288247
2515.79	0.152555
2517.17	0.0887756
2518.55	-0.0661221
2519.93	-0.144289
2521.3	0.098094
2522.68	0.263215
2524.06	-0.0303135
2525.44	-0.0955114
2526.82	0.174134
2528.19	0.261165
2529.57	0.197117
2530.95	0.332318
2532.32	0.332397
2533.7	0.288297
2535.08	-0.028533
2536.45	-0.0871229
2537.83	-0.252694
2539.2	0.0364847
2540.58	0.203221
2541.95	0.202522
2543.33	-0.222737
2544.7	-0.191885
2546.08	0.249675
2547.45	0.100883
2548.82	0.286673
2550.2	0.229815
2551.57	0.217972
2552.94	-0.0376234
2554.32	0.267248
2555.69	0.449727
2557.06	0.373684
2558.43	0.0852566
2559.8	0.0701065
2561.18	0.38893
2562.55	0.0566597
2563.92	0.285714
2565.29	0.136344
2566.66	0.2903
2568.03	0.474669
2569.4	0.325624
2570.77	0.252343
2572.14	0.285189
2573.51	0.151375
2574.88	-0.133976
2576.25	0.0506516
2577.61	0.447492
2578.98	0.343768
2580.35	0.0273838
2581.72	0.119987
2583.09	0.56091
2584.45	0.440578
2585.82	0.274737
2587.19	0.0635719
2588.55	0.367912
2589.92	0.535926
2591.29	0.370405
2592.65	-0.280422
2594.02	0.0982847
2595.38	0.384891
2596.75	0.503695
2598.11	0.303849
2599.48	0.239908
2600.84	0.236575
2602.21	0.611298
2603.57	0.156116
2604.93	0.275269
2606.3	0.213517
2607.66	-0.0445461
2609.02	0.329776
2610.39	0.672303
2611.75	0.380827
2613.11	0.419432
2614.47	0.231822
2615.83	0.224387
2617.19	0.277157
2618.56	0.210617
2619.92	0.15993
2621.28	0.304444
2622.64	0.150439
2624	0.474698
2625.36	0.201571
2626.72	0.137309
2628.08	0.311216
2629.44	0.454762
2630.8	0.612731
2632.15	-0.0473051
2633.51	0.288877
2634.87	-0.162156
2636.23	0.158662
2637.59	0.123305
2638.94	0.547036
2640.3	0.008605
2641.66	0.0625792
2643.02	0.323565
2644.37	-0.0504503
2645.73	0.0627975
2647.09	0.101758
2648.44	0.419816
2649.8	0.206693
2651.15	0.419597
2652.51	0.279271
2653.86	0.520889
2655.22	0.0152845
2656.57	0.243911
2657.93	0.356287
2659.28	0.337789
2660.63	0.202748
2661.99	0.169985
2663.34	0.54561
2664.69	0.175501
2666.05	0.184353
2667.4	0.221848
2668.75	0.11355
2670.1	0.267586
2671.45	0.480075
2672.81	-0.164352
2674.16	0.136518
2675.51	0.060256
2676.86	0.173231
2678.21	0.591346
2679.56	0.125595
2680.91	0.733913
2682.26	0.0240879
2683.61	0.0838432
2684.96	0.304132
2686.31	0.437968
2687.66	0.426572
2689	0.442975
2690.35	0.297935
2691.7	0.426814
2693.05	0.104268
2694.4	-0.0594606
2695.74	0.501418
2697.09	0.323584
2698.44	0.465784
2699.79	0.0739231
2701.13	0.422319
2702.48	0.395789
2703.83	0.413789
2705.17	0.504822
2706.52	0.276897
2707.86	0.614408
2709.21	0.44368
2710.55	0.345027
2711.9	0.463922
2713.24	0.364759
2714.58	0.207321
2715.93	0.180571
2717.27	0.139104
2718.62	0.461051
2719.96	0.375324
2721.3	0.711138
2722.65	0.609865
2723.99	0.478951
2725.33	0.740563
2726.67	1.00175
2728.01	0.360203
2729.35	0.460681
2730.7	0.371816
2732.04	-0.182625
2733.38	0.470531
2734.72	0.541901
2736.06	0.598915
2737.4	0.510617
2738.74	0.684072
2740.08	0.900855
2741.42	0.331903
2742.76	0.15497
2744.1	0.427923
2745.43	0.511183
2746.77	0.187306
2748.11	0.26993
2749.45	0.323491
2750.79	0.551239
2752.12	0.32964
2753.46	0.3548
2754.8	0.2787
2756.14	0.289671
2757.47	0.416633
2758.81	0.399023
2760.14	0.092351
2761.48	0.278277
2762.81	0.421232
2764.15	-0.101091
2765.49	0.490683
2766.82	0.286199
2768.16	0.355632
2769.49	0.0622129
2770.82	0.576844
2772.16	0.511734
2773.49	0.61875
2774.82	0.436659
2776.16	-0.00443172
2777.49	0.275161
2778.82	0.109058
2780.16	0.489791
2781.49	0.540037
2782.82	-0.0411472
2784.15	0.0380783
2785.48	0.145819
2786.82	-0.104467
2788.15	-0.239448
2789.48	0.241693
2790.81	-0.0346813
2792.14	0.0330524
2793.47	-0.170401
2794.8	-0.0450153
2796.13	0.0513926
2797.46	0.104332
2798.79	0.213765
2800.12	-0.162586
2801.44	0.217177
2802.77	0.154363
2804.1	0.205338
2805.43	0.327005
2806.76	0.305549
2808.08	0.34034
2809.41	0.104599
2810.74	0.025445
2812.07	0.00376797
2813.39	0.0399828
2814.72	0.0209093
2816.05	0.215916
2817.37	0.326979
2818.7	0.381946
2820.02	0.621175
2821.35	0.0237112
2822.67	-0.0925102
2824	0.385734
2825.32	0.310973
2826.65	0.363734
2827.97	0.303737
2829.3	0.343431
2830.62	0.411914
2831.94	0.22581
2833.26	0.45015
2834.59	0.659971
2835.91	1.1098
2837.23	0.271315
2838.56	0.507819
2839.88	0.701554
2841.2	1.07909
2842.52	1.21659
2843.84	1.45367
2845.16	1.74804
2846.48	1.47779
2847.8	2.01351
2849.12	1.77194
2850.45	1.78444
2851.77	1.90946
2853.08	1.65232
2854.4	2.29919
2855.72	1.95665
2857.04	2.23577
2858.36	2.69847
2859.68	2.41253
2861	2.66305
2862.32	2.92722
2863.63	3.61426
2864.95	3.76443
2866.27	2.9976
2867.59	3.21863
2868.9	3.60928
2870.22	4.14126
2871.54	4.64509
2872.85	4.1055
2874.17	4.35427
2875.48	4.6861
2876.8	4.46722
2878.11	4.33197
2879.43	4.87156
2880.74	4.69409
2882.06	5.1079
2883.37	4.90476
2884.69	4.42215
2886	4.62835
2887.31	4.49772
2888.63	4.81562
2889.94	4.2627
2891.25	4.63459
2892.57	4.37473
2893.88	4.80133
2895.19	4.75191
2896.5	4.99746
2897.82	4.37657
2899.13	4.58263
2900.44	5.1673
2901.75	4.56343
2903.06	4.88308
2904.37	5.21686
2905.68	5.66286
2906.99	5.68995
2908.3	5.67608
2909.61	5.87313
2910.92	6.029
2912.23	6.18492
2913.54	6.61996
2914.85	6.66128
2916.16	7.16237
2917.46	6.59758
2918.77	6.63346
2920.08	7.34045
2921.39	7.167
2922.7	7.20491
2924	7.25858
2925.31	8.04057
2926.62	7.63524
2927.92	8.02677
2929.23	8.54367
2930.54	8.41675
2931.84	8.34512
2933.15	8.37101
2934.45	8.70435
2935.76	8.00361
2937.06	8.25347
2938.37	7.90268
2939.67	8.26493
2940.98	8.09686
2942.28	7.49672
2943.58	7.44309
2944.89	7.08363
2946.19	7.03312
2947.49	6.31179
2948.8	6.38741
2950.1	6.08368
2951.4	6.22577
2952.7	6.00149
2954.01	6.12555
2955.31	6.06713
2956.61	5.65991
2957.91	5.24117
2959.21	5.45556
2960.51	5.54739
2961.81	4.96895
2963.11	5.42879
2964.41	5.24284
2965.71	5.08305
2967.01	5.00546
2968.31	5.16523
2969.61	4.81792
2970.91	4.80789
2972.21	4.29175
2973.51	4.50753
2974.81	4.31523
2976.1	4.36146
2977.4	4.49068
2978.7	4.49111
2980	4.13751
2981.29	3.95139
2982.59	3.80694
2983.89	3.67708
2985.18	3.26755
2986.48	3.25344
2987.78	3.01625
2989.07	3.17371
2990.37	2.71317
2991.66	2.72991
2992.96	2.45033
2994.25	2.70334
2995.55	2.11214
2996.84	1.89967
2998.14	1.8275
2999.43	1.96608
3000.73	1.75465
3002.02	1.55806
3003.31	1.24999
3004.61	1.43254
3005.9	1.19461
3007.19	1.19418
3008.48	1.10892
3009.77	0.645295
3011.07	0.880148
3012.36	0.332384
3013.65	0.775981
3014.94	0.884814
3016.23	0.367414
3017.52	0.728585
3018.81	0.922968
3020.1	0.71396
3021.4	0.11559
3022.68	0.128298
3023.97	0.320422
3025.26	0.345083
3026.55	0.507996
3027.84	-0.034544
3029.13	0.392835
3030.42	0.144205
3031.71	0.228875
3033	0.135162
3034.28	0.345519
3035.57	0.431046
3036.86	0.129119
3038.15	0.514606
3039.43	0.250601
3040.72	0.28797
3042.01	0.269411
3043.29	0.141249
3044.58	0.164943
3045.87	0.586851
3047.15	0.641523
3048.44	0.248225
3049.72	0.307981
3051.01	0.192049
3052.29	0.0361452
3053.58	0.507982
3054.86	0.951792
3056.15	0.53509
3057.43	0.11758
3058.71	0.394566
3060	0.507615
3061.28	0.389654
3062.56	0.599336
3063.84	0.565676
3065.13	0.724114
3066.41	0.775381
3067.69	0.542295
3068.97	0.608834
3070.26	0.267164
3071.54	0.740667
3072.82	0.328918
3074.1	0.0248852
3075.38	0.616984
3076.66	0.0131645
3077.94	-0.141625
3079.22	0.00337791
3080.5	-0.0671329
3081.78	-0.135957
3083.06	0.162856
3084.34	0.082644
3085.62	-0.133157
3086.9	0.207135
3088.18	-0.118284
3089.45	-0.159273
3090.73	0.165764
3092.01	-0.228412
3093.29	0.0424476
3094.56	-0.0525455
3095.84	0.191843
3097.12	-0.0652375
3098.4	0.17929
3099.67	-0.213177
3100.95	0.0854354
3102.22	0.438213
3103.5	0.0465732
3104.78	-0.371308
3106.05	0.213259
3107.33	0.325131
3108.6	-0.143743
3109.88	-0.0159731
3111.15	0.099421
3112.43	0.0803113
3113.7	-0.222817
3114.97	0.00261784
3116.25	0.241414
3117.52	0.221865
3118.79	0.336946
3120.07	0.369603
3121.34	0.306496
3122.61	0.0667424
3123.88	0.396074
3125.16	0.143213
3126.43	-0.20358
3127.7	0.0323348
3128.97	0.228154
3130.24	0.12691
3131.51	0.620721
3132.79	0.181859
3134.06	0.607514
3135.33	0.343868
3136.6	0.363422
3137.87	0.598273
3139.14	0.590032
3140.41	0.527953
3141.67	0.439307
3142.94	0.391552
3144.21	0.680177
3145.48	0.63377
3146.75	0.655301
3148.02	0.50351
3149.29	0.71418
