200.407	-0.0989046
202.221	-0.0645037
204.035	-0.0291605
205.849	0.396173
207.665	0.0919828
209.478	0.346169
211.291	0.574365
213.104	0.703482
214.916	0.200274
216.73	1.00576
218.541	0.0902834
220.352	0.217306
222.163	0.320828
223.973	0.18331
225.785	0.650598
227.595	0.271876
229.404	0.689705
231.213	-0.100444
233.022	-0.0460663
234.83	0.15311
236.638	0.160477
238.448	-0.19153
240.255	-0.179465
242.062	0.0519056
243.868	0.260672
245.675	0.203952
247.48	0.966181
249.286	0.180092
251.091	1.00794
252.896	0.721698
254.702	-0.145475
256.506	0.289475
258.31	0.580113
260.113	-0.187801
261.916	-0.278987
263.719	0.113288
265.521	-0.167969
267.323	0.00881195
269.125	-0.0558786
270.926	0.360556
272.727	-0.357582
274.527	0.0316601
276.328	0.250135
278.127	-0.184333
279.927	-0.0908766
281.726	-0.144318
283.525	0.32922
285.323	0.271569
287.121	0.308998
288.919	-0.253253
290.716	0.551648
292.513	-0.510491
294.31	-0.253984
296.104	0.00366116
297.9	0.309976
299.696	1.14218
301.491	0.253854
303.286	0.630527
305.081	0.623522
306.875	0.185989
308.669	0.535185
310.463	0.622401
312.256	-0.432445
314.047	-0.0563889
315.839	0.0357437
317.631	1.20143
319.423	-0.131986
321.215	1.32329
323.006	0.467726
324.794	0.255809
326.585	0.759989
328.375	0.476022
330.165	0.668988
331.954	0.78898
333.741	0.260995
335.53	1.52505
337.318	0.297791
339.106	0.719124
340.894	0.779573
342.679	0.504233
344.466	0.205063
346.253	-0.141204
348.039	0.4924
349.823	0.40998
351.608	0.0889034
353.393	0.0775032
355.176	-0.292928
356.961	0.408424
358.745	0.201948
360.529	-0.219974
362.31	0.238083
364.093	-0.399261
365.876	0.00893021
367.657	0.866433
369.439	0.488196
371.221	0.0623074
373	0.701192
374.781	0.180102
376.56	0.604411
378.34	0.0614872
380.12	0.227305
381.898	0.723563
383.677	0.867655
385.456	0.07269
387.233	0.219702
389.011	0.438265
390.787	0.164543
392.565	0.549318
394.34	0.958179
396.117	0.240188
397.894	0.485135
399.668	0.518467
401.444	-0.0124331
403.217	-0.0743237
404.993	-0.277966
406.766	0.104643
408.54	0.650755
410.312	-0.540793
412.086	0.239453
413.858	0.386271
415.631	0.463409
417.402	-0.256388
419.174	0.0803699
420.944	0.135805
422.716	0.237924
424.486	0.151458
426.257	0.463055
428.025	-0.118405
429.794	0.238561
431.564	-0.061799
433.332	0.224894
435.101	0.394573
436.868	0.0478687
438.637	-0.111827
440.403	-0.789272
442.169	0.501933
443.937	0.500101
445.703	-0.370623
447.468	0.116221
449.234	0.227469
450.999	-0.245518
452.765	0.356432
454.528	-0.0686865
456.292	-0.0270348
458.057	0.1308
459.819	-0.223536
461.582	-0.390664
463.344	0.396889
465.107	-0.277404
466.868	0.65475
468.629	0.381674
470.392	0.273323
472.152	0.375002
473.912	0.26646
475.672	0.598397
477.433	0.019516
479.192	0.882737
480.951	0.603316
482.709	0.813149
484.469	0.348848
486.226	0.0263252
487.984	0.428432
489.74	0.623422
491.499	0.959994
493.255	0.386733
495.011	0.373932
496.767	0.571685
498.522	0.394605
500.277	0.287046
502.033	0.554116
503.788	0.045495
505.541	-0.159542
507.295	0.268629
509.048	0.224994
510.801	1.00309
512.553	0.179411
514.308	0.930548
516.06	0.527143
517.811	0.0755329
519.562	0.72799
521.313	0.90905
523.063	1.08934
524.814	0.63545
526.563	0.97961
528.313	1.06552
530.062	0.635668
531.811	0.229238
533.559	0.196923
535.308	0.350485
537.055	0.5256
538.803	0.79217
540.55	0.613688
542.297	0.644302
544.043	0.558051
545.789	0.0536966
547.535	0.409464
549.281	-0.255346
551.026	-0.779485
552.771	0.386296
554.515	-0.0907965
556.259	0.495215
558.003	0.849892
559.747	-0.0626879
561.49	0.385126
563.233	0.878879
564.975	0.246306
566.717	0.87871
568.459	0.225657
570.2	0.0792923
571.942	0.301613
573.68	1.07625
575.421	-0.441076
577.161	0.429336
578.901	0.177023
580.64	0.178029
582.379	0.0413237
584.118	0.225787
585.855	0.386296
587.593	0.315456
589.331	0.220217
591.068	-0.0141373
592.805	-0.34112
594.54	0.666156
596.277	0.131989
598.013	0.0119324
599.749	0.305626
601.484	-0.206749
603.217	-0.00734138
604.952	-0.0165567
606.687	-0.234006
608.421	0.0990276
610.153	-0.0963612
611.886	-0.0616541
613.619	-0.0948973
615.35	0.0789309
617.083	0.207036
618.815	0.265808
620.547	0.00287914
622.276	0.196423
624.008	-0.502827
625.738	-0.218843
627.467	0.362687
629.197	0.147099
630.927	0.573172
632.655	0.476784
634.384	0.107781
636.113	-0.398583
637.839	0.120446
639.568	0.0886774
641.293	-0.0603666
643.021	0.517352
644.748	0.432281
646.473	0.734388
648.2	-0.234835
649.924	0.0728416
651.65	0.566398
653.376	1.04194
655.099	-0.798145
656.824	-0.0204716
658.546	0.258448
660.271	0.400668
661.993	0.381575
663.716	0.199924
665.438	0.106833
667.161	-0.4458
668.881	0.875944
670.604	-0.0200624
672.324	0.939212
674.045	-0.0670176
675.765	0.348661
677.486	-0.0364151
679.204	0.0143309
680.925	0.0871582
682.643	0.342228
684.361	0.480168
686.08	0.408701
687.797	0.4045
689.516	0.122644
691.232	0.231556
692.95	0.547089
694.666	0.769623
696.382	0.208033
698.099	0.405081
699.813	0.554576
701.528	-0.010334
703.244	0.7804
704.958	0.420901
706.673	-0.489484
708.387	-0.137617
710.099	0.556978
711.814	0.769219
713.526	0.637651
715.238	1.03171
716.949	1.08252
718.663	0.791155
720.374	0.751246
722.084	0.210617
723.796	0.581079
725.506	-0.0721874
727.216	1.1606
728.925	1.05183
730.636	0.33061
732.345	0.606934
734.053	0.407339
735.761	0.343824
737.471	0.732423
739.178	0.669878
740.885	1.21717
742.592	1.06675
744.298	0.805541
746.006	1.44635
747.712	1.61595
749.417	0.437528
751.122	1.33006
752.827	1.41439
754.532	1.50039
756.236	0.935567
757.942	1.45282
759.645	0.665684
761.348	1.34426
763.051	1.73119
764.753	1.44105
766.456	1.19443
768.158	1.37498
769.859	0.920025
771.56	0.847052
773.261	0.682022
774.964	1.35306
776.664	1.23327
778.364	1.43151
780.064	2.01606
781.763	2.37609
783.462	1.2656
785.16	2.12264
786.859	1.14353
788.557	1.54165
790.255	1.09874
791.952	1.03756
793.649	1.31334
795.346	1.15962
797.042	1.4354
798.738	1.46488
800.434	0.888703
802.127	1.28216
803.823	1.56366
805.517	0.698308
807.212	0.68671
808.906	1.19038
810.6	1.19838
812.293	1.0035
813.987	0.808282
815.68	1.08324
817.372	1.22348
819.064	1.40827
820.754	1.28033
822.446	2.04553
824.137	1.5619
825.828	0.746275
827.519	1.40387
829.209	1.77468
830.897	1.52542
832.587	1.30163
834.276	0.634296
835.966	1.28333
837.654	1.21882
839.341	1.19764
841.029	1.01832
842.717	1.19488
844.404	0.208924
846.091	0.54195
847.776	1.54785
849.463	1.41652
851.149	1.69094
852.833	1.0492
854.519	0.654072
856.204	1.51583
857.889	1.36634
859.572	1.19219
861.256	0.655478
862.94	0.97242
864.622	1.24312
866.305	0.16034
867.988	1.06059
869.669	1.57733
871.351	0.672767
873.033	0.9183
874.713	-0.167441
876.395	0.619581
878.074	0.571767
879.755	1.33646
881.435	0.972177
883.114	1.05857
884.794	0.805133
886.471	0.821064
888.15	0.835238
889.829	0.64466
891.506	0.294907
893.184	1.04767
894.861	0.245333
896.538	0.949429
898.214	0.595536
899.891	0.353513
901.566	1.32106
903.242	1.12197
904.916	0.856107
906.592	0.501858
908.266	0.907189
909.941	0.8449
911.614	0.58357
913.288	0.501333
914.961	0.686142
916.635	0.870665
918.306	0.456405
919.979	0.662995
921.651	0.737107
923.321	0.768135
924.994	1.26482
926.664	0.61498
928.336	0.82838
930.005	0.601758
931.674	0.552532
933.345	0.900723
935.014	0.190289
936.682	0.825832
938.352	0.977063
940.019	0.798848
941.687	0.820521
943.356	0.0486965
945.022	0.424087
946.689	0.423163
948.357	1.17075
950.022	0.371116
951.688	0.541253
953.355	1.21855
955.02	0.684481
956.684	0.704848
958.348	0.750926
960.014	1.55072
961.678	0.38763
963.341	0.747998
965.004	0.4656
966.669	0.467644
968.331	1.04184
969.993	0.706485
971.655	1.18859
973.316	0.388327
974.979	1.02721
976.64	0.916291
978.3	1.13892
979.961	0.942067
981.62	0.744695
983.28	0.966371
984.941	1.03088
986.6	0.318321
988.259	0.71039
989.917	0.658408
991.575	0.627818
993.233	1.01672
994.89	1.11829
996.547	0.95516
998.204	1.58596
999.86	2.14965
1001.52	3.26268
1003.17	2.04093
1004.83	1.74409
1006.49	1.31567
1008.14	0.492727
1009.79	1.18547
1011.45	1.04447
1013.1	1.34252
1014.76	0.501698
1016.41	0.713088
1018.06	0.509115
1019.72	0.153146
1021.37	0.585685
1023.02	0.538358
1024.67	0.1862
1026.32	0.730745
1027.97	1.42817
1029.62	1.05423
1031.27	1.24687
1032.92	1.241
1034.57	1.08042
1036.22	1.48527
1037.87	0.755649
1039.52	0.897763
1041.17	0.996901
1042.82	0.619195
1044.47	0.526349
1046.11	0.500957
1047.76	0.62975
1049.41	0.716998
1051.06	0.41477
1052.7	0.59133
1054.35	0.312089
1055.99	-0.24981
1057.64	0.92688
1059.28	0.58146
1060.93	0.322215
1062.57	0.344758
1064.22	0.301045
1065.86	-0.200342
1067.5	-0.376673
1069.15	0.358552
1070.79	1.11417
1072.43	0.609957
1074.08	0.258586
1075.72	0.776248
1077.36	1.01326
1079	0.34093
1080.64	0.536942
1082.28	0.451079
1083.92	0.0173645
1085.56	0.882661
1087.2	0.964979
1088.84	0.395144
1090.48	0.819399
1092.12	0.247153
1093.76	0.496022
1095.39	0.0110254
1097.03	0.928995
1098.67	1.33008
1100.31	0.333457
1101.94	-0.0144358
1103.58	0.823071
1105.22	0.091608
1106.85	0.651447
1108.49	0.630228
1110.12	0.113285
1111.76	0.755518
1113.39	0.170855
1115.03	-0.0281277
1116.66	0.65204
1118.29	0.581032
1119.93	0.082406
1121.56	1.14858
1123.19	1.23045
1124.82	1.09951
1126.46	0.926921
1128.09	0.648432
1129.72	0.520544
1131.35	1.12025
1132.98	1.03614
1134.61	0.524401
1136.24	0.247177
1137.87	0.866328
1139.5	0.0739603
1141.13	-0.377291
1142.76	-0.231183
1144.39	-0.149081
1146.01	0.189499
1147.64	0.230526
1149.27	0.0807705
1150.9	0.208559
1152.53	0.0594835
1154.15	0.272034
1155.78	0.143482
1157.4	0.312722
1159.03	0.26955
1160.65	0.588848
1162.28	0.399033
1163.9	-0.193568
1165.53	-0.466649
1167.15	0.49322
1168.78	0.835265
1170.4	0.388822
1172.02	0.386619
1173.65	0.148842
1175.27	0.0797014
1176.89	0.624831
1178.51	0.872752
1180.14	0.126241
1181.76	0.164435
1183.38	0.245635
1185	0.0732708
1186.62	0.786977
1188.24	-0.190152
1189.86	0.0337868
1191.48	0.507756
1193.1	-0.240679
1194.71	0.27175
1196.33	0.552096
1197.95	0.455839
1199.57	0.319963
1201.19	0.625801
1202.8	0.245195
1204.42	0.368842
1206.04	0.995612
1207.65	0.768414
1209.27	1.25088
1210.88	1.21087
1212.5	0.480857
1214.12	0.394941
1215.73	0.681389
1217.35	0.902835
1218.96	0.997921
1220.57	0.988834
1222.19	0.959807
1223.8	0.662923
1225.41	0.989416
1227.03	1.62766
1228.64	1.41896
1230.25	1.58414
1231.86	1.54398
1233.47	1.85668
1235.08	1.65419
1236.69	1.47384
1238.31	1.56345
1239.92	1.38511
1241.52	1.78607
1243.13	1.35931
1244.74	1.44878
1246.35	1.33012
1247.96	1.25163
1249.57	1.52398
1251.18	1.96136
1252.78	2.52299
1254.39	2.17535
1256	1.45674
1257.6	1.54629
1259.21	1.20273
1260.82	1.79151
1262.42	1.2424
1264.03	1.23152
1265.63	1.30306
1267.24	1.62254
1268.84	1.63006
1270.45	1.24239
1272.05	1.45474
1273.65	1.54144
1275.26	0.901455
1276.86	1.06887
1278.46	1.64952
1280.06	1.06943
1281.67	2.06243
1283.27	1.37897
1284.87	1.99951
1286.47	1.85579
1288.07	1.56874
1289.67	0.910917
1291.27	1.84494
1292.87	1.66299
1294.47	2.26523
1296.07	2.22541
1297.67	2.39005
1299.27	2.03664
1300.87	1.78491
1302.47	2.12942
1304.06	1.8959
1305.66	2.29928
1307.26	2.68064
1308.85	2.69151
1310.45	2.33347
1312.05	3.14357
1313.64	2.52135
1315.24	2.71891
1316.83	2.93778
1318.43	2.58581
1320.02	3.02934
1321.62	2.90066
1323.21	3.17723
1324.8	2.47525
1326.4	2.11826
1327.99	2.38997
1329.59	2.03392
1331.18	2.28737
1332.77	3.00778
1334.36	2.74058
1335.95	2.91981
1337.54	2.79709
1339.14	2.23027
1340.73	2.58871
1342.32	2.52126
1343.91	2.57205
1345.5	2.44057
1347.09	2.2092
1348.67	1.88027
1350.26	1.77508
1351.85	2.45319
1353.44	1.61376
1355.03	2.7153
1356.62	2.29811
1358.2	2.26018
1359.79	2.18118
1361.38	2.48012
1362.96	1.36137
1364.55	1.73867
1366.14	2.2752
1367.72	1.89606
1369.31	1.83724
1370.89	2.41701
1372.48	2.20237
1374.06	1.39226
1375.64	1.97583
1377.23	1.66415
1378.81	1.96874
1380.39	1.93382
1381.98	1.40001
1383.56	1.52119
1385.14	1.58144
1386.72	1.40266
1388.3	1.18448
1389.89	1.08635
1391.47	1.00917
1393.05	1.29004
1394.63	1.53157
1396.21	1.87194
1397.79	1.37872
1399.37	1.34042
1400.95	1.99421
1402.52	1.53809
1404.1	1.71548
1405.68	1.26053
1407.26	1.69643
1408.84	1.65883
1410.42	1.40462
1411.99	1.50597
1413.57	1.74475
1415.15	1.56791
1416.72	1.80434
1418.3	1.1925
1419.87	1.46814
1421.45	2.00072
1423.02	2.21987
1424.6	1.69306
1426.17	2.48655
1427.75	1.76521
1429.32	2.06706
1430.89	1.75767
1432.47	2.56864
1434.04	3.22063
1435.61	2.55393
1437.18	2.89058
1438.76	1.89134
1440.33	2.9966
1441.9	2.92375
1443.47	2.83216
1445.04	3.21278
1446.61	3.08263
1448.18	3.3458
1449.75	3.4128
1451.32	3.36245
1452.89	2.89977
1454.46	2.87016
1456.03	3.33241
1457.6	3.3611
1459.16	3.28974
1460.73	2.80289
1462.3	3.00241
1463.87	3.02267
1465.43	2.47148
1467	2.62758
1468.56	2.62686
1470.13	1.76377
1471.7	1.76588
1473.26	1.33777
1474.83	1.53826
1476.39	1.83722
1477.96	1.54811
1479.52	1.76864
1481.08	1.14623
1482.65	1.19017
1484.21	1.29274
1485.77	1.15979
1487.34	1.61359
1488.9	1.38035
1490.46	0.714728
1492.02	0.419065
1493.58	1.19584
1495.15	1.53963
1496.71	0.945987
1498.27	1.40439
1499.83	0.268541
1501.39	0.670184
1502.95	0.0250244
1504.51	0.292723
1506.07	1.16033
1507.63	0.671882
1509.18	1.09128
1510.74	0.813736
1512.3	0.555153
1513.86	0.893429
1515.41	0.750463
1516.97	0.435726
1518.53	0.582811
1520.08	0.519542
1521.64	0.131364
1523.2	0.775852
1524.75	0.998007
1526.31	0.875251
1527.86	0.980268
1529.42	0.85617
1530.97	0.922237
1532.52	0.723227
1534.08	1.34001
1535.63	1.52147
1537.19	1.25018
1538.74	1.50879
1540.29	1.31479
1541.84	1.55458
1543.4	1.21037
1544.95	0.885406
1546.5	0.936497
1548.05	1.60649
1549.6	2.05012
1551.15	1.63171
1552.7	1.6637
1554.25	1.88363
1555.8	1.73132
1557.35	1.71197
1558.9	1.9935
1560.45	1.41903
1562	2.05913
1563.54	1.91707
1565.09	1.94362
1566.64	2.56748
1568.19	2.09007
1569.73	1.74274
1571.28	2.47757
1572.83	2.85742
1574.37	5.70118
1575.92	4.36349
1577.47	2.78333
1579.01	2.6224
1580.56	3.13441
1582.1	3.10599
1583.64	3.00391
1585.19	2.54765
1586.73	2.98906
1588.28	2.36491
1589.82	3.3492
1591.36	2.33078
1592.9	2.50946
1594.45	2.85644
1595.99	2.67906
1597.53	2.31463
1599.07	2.85071
1600.61	2.93793
1602.15	3.17599
1603.69	2.58805
1605.23	2.65626
1606.77	2.04632
1608.31	2.56155
1609.85	2.90486
1611.39	2.41841
1612.93	3.0567
1614.47	2.30374
1616.01	2.56399
1617.55	2.31834
1619.08	1.75585
1620.62	1.8885
1622.16	2.07885
1623.7	1.37151
1625.23	1.84371
1626.77	2.24003
1628.3	2.14819
1629.84	2.57835
1631.37	2.14705
1632.91	1.92121
1634.44	2.27463
1635.98	2.06887
1637.51	2.53579
1639.05	2.83534
1640.58	2.68747
1642.11	2.52034
1643.65	2.12861
1645.18	2.70353
1646.71	2.66291
1648.24	2.06447
1649.78	2.09865
1651.31	2.4308
1652.84	2.26329
1654.37	2.15287
1655.9	1.89503
1657.43	2.11905
1658.96	2.06421
1660.49	1.98941
1662.02	2.61601
1663.55	2.33453
1665.08	2.71769
1666.61	2.36241
1668.14	2.63598
1669.66	2.65294
1671.19	2.11895
1672.72	2.26817
1674.25	1.86543
1675.77	1.99656
1677.3	1.81382
1678.83	2.34744
1680.35	2.30929
1681.88	1.59039
1683.4	1.55142
1684.93	1.62266
1686.45	1.63917
1687.98	1.25295
1689.5	1.54538
1691.03	1.16034
1692.55	1.26988
1694.07	1.19633
1695.6	0.537644
1697.12	0.975703
1698.64	0.883309
1700.17	0.589805
1701.69	0.606164
1703.21	1.49667
1704.73	1.27434
1706.25	0.0511122
1707.77	0.356725
1709.29	0.934165
1710.81	0.821059
1712.33	0.182477
1713.85	0.559722
1715.37	0.157983
1716.89	0.480363
1718.41	0.169505
1719.93	0.54528
1721.45	0.0545378
1722.97	0.394466
1724.49	0.536758
1726	0.0680037
1727.52	0.95107
1729.04	0.377024
1730.55	0.626969
1732.07	0.318909
1733.59	0.613579
1735.1	-0.0133162
1736.62	0.331954
1738.13	0.427949
1739.65	0.124886
1741.16	0.166192
1742.68	0.694317
1744.19	-0.306885
1745.7	0.0994005
1747.22	0.436125
1748.73	-0.147884
1750.24	-0.0651016
1751.76	-0.172272
1753.27	-0.326499
1754.78	0.0519676
1756.29	0.213009
1757.8	0.264564
1759.31	0.495543
1760.83	-0.247071
1762.34	-0.408947
1763.85	0.399562
1765.36	-0.178371
1766.87	0.433148
1768.38	0.11795
1769.89	0.400087
1771.39	0.203471
1772.9	0.050746
1774.41	0.0591803
1775.92	-0.239353
1777.43	0.307637
1778.94	-0.193495
1780.44	0.0150995
1781.95	0.309071
1783.46	0.278619
1784.96	0.54472
1786.47	0.0262365
1787.97	0.0223455
1789.48	-0.258927
1790.99	-0.213714
1792.49	0.0204554
1794	-0.0598221
1795.5	-0.078721
1797	0.218196
1798.51	0.0664759
1800.01	0.329708
1801.51	0.066824
1803.02	0.159756
1804.52	0.340895
1806.02	0.165638
1807.53	0.0727282
1809.03	-0.0287113
1810.53	0.112325
1812.03	-0.0558138
1813.53	-0.129403
1815.03	0.000995636
1816.53	-0.000546455
1818.03	0.179027
1819.53	0.121867
1821.03	0.0938797
1822.53	0.299031
1824.03	0.348762
1825.53	-0.308919
1827.03	0.017024
1828.53	-0.337188
1830.02	-0.0541029
1831.52	0.088974
1833.02	0.191875
1834.52	-0.0815353
1836.01	0.00500488
1837.51	0.0615416
1839.01	0.46385
1840.5	0.307572
1842	-0.112682
1843.49	0.0915899
1844.99	0.285134
1846.48	-0.0394058
1847.98	0.211662
1849.47	0.22349
1850.97	-0.111875
1852.46	0.0498352
1853.95	-0.118025
1855.45	0.229448
1856.94	0.117972
1858.43	0.182121
1859.93	0.165609
1861.42	0.269045
1862.91	0.134499
1864.4	0.234219
1865.89	0.15659
1867.38	0.283202
1868.87	-0.0423279
1870.36	0.07199
1871.85	0.171404
1873.34	0.229947
1874.83	0.034914
1876.32	0.325895
1877.81	0.352545
1879.3	-0.0082655
1880.79	-0.0769749
1882.28	0.172698
1882.52	0.221451
1884.02	0.221929
1885.51	0.134474
1887.01	0.307469
1888.5	0.253463
1889.99	0.00831795
1891.49	0.181761
1892.98	-0.0953512
1894.47	0.446532
1895.97	-0.0706081
1897.46	0.247692
1898.95	0.739964
1900.44	0.100493
1901.93	-0.210097
1903.42	-0.0353527
1904.91	0.0161543
1906.4	0.866035
1907.89	0.169495
1909.38	-0.0397596
1910.87	0.029686
1912.36	-0.0387955
1913.85	0.396266
1915.34	0.709874
1916.83	0.312193
1918.32	0.208795
1919.8	0.226284
1921.29	0.105095
1922.78	0.122906
1924.27	0.00307846
1925.75	0.507606
1927.24	0.0437412
1928.73	0.117177
1930.21	0.207906
1931.7	0.263202
1933.18	0.247763
1934.67	0.178608
1936.15	0.384635
1937.64	-0.0159502
1939.12	0.0845957
1940.61	-0.056447
1942.09	-0.265526
1943.57	0.458101
1945.06	0.66473
1946.54	0.354448
1948.02	0.388787
1949.51	0.35343
1950.99	-0.251099
1952.47	0.00451374
1953.95	0.465566
1955.43	-0.311312
1956.91	0.063755
1958.4	0.215923
1959.88	0.179968
1961.36	-0.386971
1962.84	0.229406
1964.32	0.296831
1965.8	0.141061
1967.27	0.241486
1968.75	0.152979
1970.23	-0.0898457
1971.71	0.0260935
1973.19	0.346618
1974.67	0.39388
1976.14	-0.223458
1977.62	0.573894
1979.1	-0.21269
1980.58	0.311495
1982.05	0.290852
1983.53	0.286911
1985	0.231709
1986.48	0.0915394
1987.95	0.171865
1989.43	0.116904
1990.9	0.0626793
1992.38	0.0432663
1993.85	-0.0596762
1995.33	-0.0603485
1996.8	0.04076
1998.27	-0.483106
1999.75	-0.314851
2001.22	0.477057
2002.69	0.289458
2004.16	0.152477
2005.64	0.5383
2007.11	0.13291
2008.58	0.452782
2010.05	0.453507
2011.52	-0.0838985
2012.99	0.624384
2014.46	0.507422
2015.93	0.103702
2017.4	0.187052
2018.87	0.538477
2020.34	0.267313
2021.81	0.4497
2023.28	0.0783167
2024.75	0.194602
2026.22	0.345525
2027.69	0.145617
2029.15	0.299415
2030.62	0.219716
2032.09	0.42621
2033.56	0.398306
2035.02	-0.0158939
2036.49	-0.0611801
2037.96	0.514712
2039.42	0.0820503
2040.89	-0.182751
2042.35	0.376578
2043.82	0.398743
2045.28	0.169412
2046.75	0.260489
2048.21	0.402493
2049.67	0.190377
2051.14	-0.0397873
2052.6	0.268068
2054.07	0.50674
2055.53	0.423201
2056.99	0.0854454
2058.45	0.555968
2059.92	0.284815
2061.38	-0.103583
2062.84	0.165512
2064.3	0.149357
2065.76	0.167836
2067.22	0.355431
2068.68	0.106025
2070.14	0.227188
2071.6	0.0959063
2073.06	-0.203932
2074.52	-0.150471
2075.98	-0.181522
2077.44	0.15756
2078.9	-0.00895596
2080.36	0.329259
2081.82	0.178593
2083.27	0.262977
2084.73	0.0605106
2086.19	0.362105
2087.65	0.259297
2089.1	0.307418
2090.56	0.120115
2092.02	0.436579
2093.47	0.0646534
2094.93	0.330144
2096.38	0.226111
2097.84	0.372779
2099.29	0.0834799
2100.75	0.229101
2102.2	0.274444
2103.66	0.22033
2105.11	0.134139
2106.56	0.0994034
2108.02	-0.417988
2109.47	-0.151105
2110.92	-0.0182276
2112.38	0.129973
2113.83	0.209775
2115.28	0.304553
2116.73	0.232042
2118.18	0.525374
2119.63	0.437802
2121.09	0.119963
2122.54	0.451015
2123.99	0.352204
2125.44	0.137972
2126.89	-0.0598974
2128.34	0.271804
2129.79	0.055171
2131.23	0.185308
2132.68	0.446955
2134.13	0.327777
2135.58	0.0110598
2137.03	0.373633
2138.48	0.225479
2139.92	0.492295
2141.37	0.38056
2142.82	0.137595
2144.27	0.0273895
2145.71	0.016511
2147.16	0.220588
2148.6	0.0598373
2150.05	0.0804214
2151.49	0.282354
2152.94	0.400538
2154.38	0.219701
2155.83	-0.210044
2157.27	0.387386
2158.72	0.488469
2160.16	0.474841
2161.6	0.346862
2163.05	0.0215425
2164.49	0.0788012
2165.93	0.435737
2167.38	0.311284
2168.82	0.335301
2170.26	0.424218
2171.7	0.378129
2173.14	0.230383
2174.58	0.447315
2176.03	0.430798
2177.47	0.331327
2178.91	0.648218
2180.35	0.367488
2181.79	0.536477
2183.23	0.489874
2184.67	0.110859
2186.1	0.314016
2187.54	0.517271
2188.98	0.387787
2190.42	-0.10798
2191.86	-0.304494
2193.3	0.297494
2194.73	0.182355
2196.17	0.232034
2197.61	0.130094
2199.05	0.442362
2200.48	0.171684
2201.92	0.0838871
2203.35	-0.0031929
2204.79	0.0766258
2206.22	0.140729
2207.66	0.702254
2209.1	0.302677
2210.53	0.250312
2211.97	0.0978127
2213.4	-0.170883
2214.83	0.10574
2216.27	0.0358973
2217.7	0.181635
2219.13	0.130498
2220.57	-0.0681839
2222	0.507975
2223.43	0.539387
2224.86	0.00956821
2226.29	0.18636
2227.72	0.164031
2229.16	0.304743
2230.59	0.0506935
2232.02	-0.00637341
2233.45	0.149736
2234.88	0.0118704
2236.31	0.0550632
2237.74	0.360849
2239.17	0.260161
2240.6	-0.246329
2242.03	0.521173
2243.45	0.164419
2244.88	0.281002
2246.31	0.168599
2247.74	0.283041
2249.17	-0.110002
2250.59	0.358747
2252.02	0.450704
2253.45	0.33026
2254.87	0.421529
2256.3	0.0107632
2257.73	0.527612
2259.15	0.316859
2260.58	0.108936
2262	0.0655146
2263.43	0.348368
2264.85	0.095561
2266.28	0.0535078
2267.7	0.254676
2269.13	-0.472515
2270.55	0.296772
2271.97	0.0401525
2273.4	0.434693
2274.82	0.340784
2276.24	0.295904
2277.67	0.0881939
2279.09	0.434712
2280.51	0.438907
2281.93	0.377731
2283.35	0.446954
2284.77	0.0103693
2286.2	0.438875
2287.62	-0.0627117
2289.04	0.236126
2290.46	-0.0526743
2291.88	0.328778
2293.3	0.170986
2294.72	-0.297844
2296.13	-0.128786
2297.55	0.154989
2298.97	-0.0851927
2300.39	-0.112351
2301.81	0.172282
2303.23	-0.0347185
2304.64	0.184996
2306.06	-0.219223
2307.48	0.378137
2308.89	-0.0272284
2310.31	0.240741
2311.73	0.327562
2313.14	0.233397
2314.56	0.419368
2315.98	0.260396
2317.39	-0.22748
2318.81	0.108753
2320.22	0.445133
2321.64	0.23623
2323.05	0.305939
2324.46	0.65395
2325.88	0.603597
2327.29	0.238278
2328.7	0.795506
2330.12	0.578139
2331.53	0.296024
2332.94	0.0481291
2334.35	0.261903
2335.77	0.26196
2337.18	0.343807
2338.59	0.490403
2340	-0.0708408
2341.41	-0.254655
2342.82	0.1849
2344.23	-0.0649576
2345.64	-0.133957
2347.05	0.321525
2348.46	0.399988
2349.87	0.134448
2351.28	-0.131474
2352.69	-0.0385857
2354.1	-0.354674
2355.51	-0.116572
2356.91	-0.204928
2358.32	-0.000377655
2359.73	0.17135
2361.14	0.0993557
2362.54	0.384186
2363.95	-0.173879
2365.36	0.0781012
2366.76	0.103471
2368.17	-0.0159416
2369.58	0.107799
2370.98	-0.218739
2372.39	0.100791
2373.79	0.00227261
2375.2	0.113461
2376.6	0.304639
2378	0.446321
2379.41	0.0721045
2380.81	0.322978
2382.22	0.267269
2383.62	0.306892
2385.02	0.314197
2386.43	0.0822115
2387.83	-0.148384
2389.23	0.116864
2390.63	-0.0313597
2392.03	-0.146409
2393.44	-0.0535336
2394.84	0.40583
2396.24	-0.167867
2397.64	-0.263783
2399.04	0.0063343
2400.44	-0.136233
2401.84	-0.0560894
2403.24	-0.150622
2404.64	-0.0549297
2406.04	0.262135
2407.44	-0.104217
2408.84	0.0523739
2410.23	0.351146
2411.63	-0.110645
2413.03	0.0305347
2414.43	0.251992
2415.83	-0.0951071
2417.22	0.0340052
2418.62	0.148186
2420.02	0.07271
2421.41	-0.0504236
2422.81	0.0637064
2424.21	0.336048
2425.6	0.038043
2427	-0.0376778
2428.39	0.347143
2429.79	0.415959
2431.18	0.326855
2432.58	0.460074
2433.97	-0.0264978
2435.36	0.724665
2436.76	0.5531
2438.15	0.300531
2439.54	-0.191518
2440.94	0.332143
2442.33	0.410443
2443.72	0.631209
2445.12	-0.115927
2446.51	0.358218
2447.9	-0.119026
2449.29	0.164467
2450.68	0.368764
2452.07	-0.028018
2453.46	-0.265579
2454.85	-0.233299
2456.24	0.147628
2457.64	0.418084
2459.02	0.229668
2460.41	-0.0383358
2461.8	-0.0382166
2463.19	0.261456
2464.58	0.0389671
2465.97	0.290141
2467.36	-0.0272665
2468.75	-0.45489
2470.13	0.237426
2471.52	0.250823
2472.91	0.0114899
2474.3	0.149546
2475.68	-0.342424
2477.07	0.360551
2478.45	0.0572491
2479.84	0.00566578
2481.23	0.00136471
2482.61	0.0283422
2484	0.164413
2485.38	0.221194
2486.77	0.308003
2488.15	0.175075
2489.54	-0.11409
2490.92	-0.0446787
2492.3	0.0405884
2493.69	0.281949
2495.07	-0.220466
2496.45	0.0696669
2497.84	0.158826
2499.22	-0.200744
2500.6	-0.219837
2501.98	-0.0387096
2503.36	0.063982
2504.75	-0.358827
2506.13	-0.041728
2507.51	0.0589695
2508.89	-0.055665
2510.27	0.398571
2511.65	-0.11403
2513.03	0.0801697
2514.41	0.703734
2515.79	-0.0196371
2517.17	0.268247
2518.55	-0.14693
2519.93	0.0497255
2521.3	0.184839
2522.68	-0.245578
2524.06	0.223697
2525.44	-0.00948238
2526.82	-0.181623
2528.19	0.240307
2529.57	0.206526
2530.95	0.0527382
2532.32	0.0678196
2533.7	-0.295616
2535.08	0.192447
2536.45	-0.170311
2537.83	0.104375
2539.2	-0.0927486
2540.58	0.013113
2541.95	0.255157
2543.33	-0.0792446
2544.7	0.133426
2546.08	-0.471846
2547.45	0.167843
2548.82	-0.0107508
2550.2	0.205205
2551.57	-0.0345173
2552.94	0.210514
2554.32	-0.00071907
2555.69	-0.288593
2557.06	0.151207
2558.43	-0.0613747
2559.8	0.0902348
2561.18	0.242293
2562.55	0.152462
2563.92	0.487527
2565.29	0.398708
2566.66	-0.159653
2568.03	-0.187531
2569.4	0.254435
2570.77	-0.000757217
2572.14	0.0169029
2573.51	-0.0259809
2574.88	0.128296
2576.25	0.161356
2577.61	0.224671
2578.98	0.363605
2580.35	-0.104323
2581.72	0.215843
2583.09	0.308196
2584.45	-0.14545
2585.82	-0.174613
2587.19	0.0388517
2588.55	-0.217354
2589.92	0.0873051
2591.29	-0.0173302
2592.65	0.180655
2594.02	0.317207
2595.38	-0.183329
2596.75	0.0118532
2598.11	0.0094223
2599.48	0.0368824
2600.84	0.260844
2602.21	0.0470924
2603.57	0.256867
2604.93	-0.272372
2606.3	-0.107153
2607.66	0.0274935
2609.02	0.0708036
2610.39	-0.459435
2611.75	-0.192446
2613.11	0.403819
2614.47	0.126941
2615.83	0.0454578
2617.19	0.264175
2618.56	-0.115984
2619.92	0.0140247
2621.28	-0.00498581
2622.64	0.0960741
2624	0.0479107
2625.36	0.28329
2626.72	0.428635
2628.08	0.364836
2629.44	0.449738
2630.8	0.35577
2632.15	0.172655
2633.51	0.0789204
2634.87	0.178256
2636.23	0.203263
2637.59	0.154137
2638.94	-0.0429144
2640.3	-0.239499
2641.66	0.0523176
2643.02	-0.0105696
2644.37	-0.0289097
2645.73	-0.0472889
2647.09	0.00769234
2648.44	0.400718
2649.8	-0.0171084
2651.15	0.0503578
2652.51	0.367053
2653.86	0.0671482
2655.22	0.0323753
2656.57	0.306276
2657.93	0.463838
2659.28	-0.0215402
2660.63	0.10808
2661.99	-0.0986824
2663.34	0.19083
2664.69	-0.352772
2666.05	0.0371699
2667.4	0.20746
2668.75	0.0133495
2670.1	0.198114
2671.45	0.557593
2672.81	0.118078
2674.16	0.362228
2675.51	-0.264181
2676.86	0.1116
2678.21	0.212165
2679.56	-0.0490098
2680.91	0.401304
2682.26	0.330823
2683.61	0.392013
2684.96	-0.0824957
2686.31	0.139621
2687.66	-0.0301557
2689	0.147305
2690.35	0.352232
2691.7	0.265049
2693.05	0.0894008
2694.4	0.290008
2695.74	0.548199
2697.09	0.212838
2698.44	0.443754
2699.79	0.314257
2701.13	-0.0452232
2702.48	-0.20064
2703.83	0.137493
2705.17	0.113983
2706.52	0.467632
2707.86	0.226405
2709.21	0.492674
2710.55	0.33764
2711.9	0.414675
2713.24	0.215525
2714.58	0.495879
2715.93	0.267445
2717.27	0.402346
2718.62	0.624372
2719.96	0.380502
2721.3	0.427176
2722.65	0.997366
2723.99	0.533704
2725.33	0.57904
2726.67	0.12913
2728.01	0.450333
2729.35	0.247365
2730.7	0.509924
2732.04	0.117708
2733.38	0.438469
2734.72	0.250252
2736.06	0.280432
2737.4	-0.183743
2738.74	0.181072
2740.08	0.472903
2741.42	0.138989
2742.76	0.618658
2744.1	0.734071
2745.43	0.311264
2746.77	0.222365
2748.11	-0.0408106
2749.45	0.334678
2750.79	0.216949
2752.12	0.433008
2753.46	0.576686
2754.8	0.401712
2756.14	0.371825
2757.47	0.211801
2758.81	0.254781
2760.14	0.341541
2761.48	0.327452
2762.81	0.357246
2764.15	0.459697
2765.49	0.258297
2766.82	0.432637
2768.16	0.186568
2769.49	0.170755
2770.82	0.211381
2772.16	0.0773602
2773.49	0.51973
2774.82	0.110239
2776.16	0.335201
2777.49	-0.0730977
2778.82	0.339457
2780.16	0.162741
2781.49	0.17327
2782.82	0.284334
2784.15	0.19442
2785.48	-0.0243855
2786.82	0.015089
2788.15	0.312649
2789.48	0.152817
2790.81	0.137004
2792.14	0.0075655
2793.47	0.464722
2794.8	0.149962
2796.13	0.192244
2797.46	-0.0659747
2798.79	0.0467043
2800.12	-0.0409145
2801.44	0.513227
2802.77	-0.259353
2804.1	-0.29035
2805.43	-0.0938301
2806.76	0.0164976
2808.08	0.111859
2809.41	0.0503535
2810.74	0.145176
2812.07	0.197863
2813.39	0.0813737
2814.72	-0.189591
2816.05	0.476446
2817.37	0.193774
2818.7	0.223505
2820.02	0.565067
2821.35	0.155014
2822.67	-0.128057
2824	0.35347
2825.32	0.225369
2826.65	0.493881
2827.97	0.309715
2829.3	0.196931
2830.62	-0.00032711
2831.94	0.227293
2833.26	0.426534
2834.59	0.370679
2835.91	0.271914
2837.23	0.639601
2838.56	0.370145
2839.88	0.680449
2841.2	0.835168
2842.52	1.25879
2843.84	1.17412
2845.16	1.30218
2846.48	1.13407
2847.8	1.94149
2849.12	1.46283
2850.45	2.04391
2851.77	2.01671
2853.08	1.81938
2854.4	1.98911
2855.72	2.24336
2857.04	2.38451
2858.36	2.59628
2859.68	2.77973
2861	2.92058
2862.32	2.87749
2863.63	2.98927
2864.95	3.49579
2866.27	3.40954
2867.59	3.66208
2868.9	4.2111
2870.22	3.97093
2871.54	4.40761
2872.85	4.53377
2874.17	4.87035
2875.48	4.72656
2876.8	4.51119
2878.11	5.06898
2879.43	4.69763
2880.74	4.97362
2882.06	4.87097
2883.37	4.4747
2884.69	4.58525
2886	4.47183
2887.31	4.79361
2888.63	4.69378
2889.94	5.02795
2891.25	4.53358
2892.57	4.58553
2893.88	4.76331
2895.19	5.3474
2896.5	5.02216
2897.82	4.78231
2899.13	4.64166
2900.44	5.20141
2901.75	5.34194
2903.06	4.88121
2904.37	5.16199
2905.68	5.26123
2906.99	5.54293
2908.3	6.03544
2909.61	6.02538
2910.92	6.26788
2912.23	6.37048
2913.54	6.5002
2914.85	6.78226
2916.16	7.00619
2917.46	7.27009
2918.77	7.93832
2920.08	7.43105
2921.39	7.80577
2922.7	8.00011
2924	7.81875
2925.31	7.94634
2926.62	8.15856
2927.92	8.02135
2929.23	8.28906
2930.54	8.47216
2931.84	8.40301
2933.15	8.45931
2934.45	8.82304
2935.76	8.19456
2937.06	7.762
2938.37	7.9725
2939.67	8.09946
2940.98	7.90564
2942.28	8.32771
2943.58	7.17202
2944.89	7.52733
2946.19	7.0871
2947.49	7.09496
2948.8	6.34669
2950.1	6.42262
2951.4	6.14643
2952.7	6.27407
2954.01	5.99402
2955.31	5.37762
2956.61	5.40618
2957.91	5.96885
2959.21	5.66675
2960.51	5.19942
2961.81	5.47675
2963.11	4.94164
2964.41	5.41595
2965.71	5.35543
2967.01	4.98374
2968.31	5.08824
2969.61	4.99503
2970.91	5.05632
2972.21	4.55519
2973.51	4.85629
2974.81	4.6226
2976.1	4.54293
2977.4	4.48993
2978.7	3.85769
2980	4.20907
2981.29	4.09436
2982.59	3.90873
2983.89	3.65329
2985.18	3.69434
2986.48	2.93603
2987.78	3.09273
2989.07	3.43316
2990.37	2.76202
2991.66	2.63838
2992.96	2.55577
2994.25	2.17676
2995.55	2.56927
2996.84	2.42713
2998.14	1.96208
2999.43	1.79222
3000.73	1.83332
3002.02	1.74879
3003.31	1.28636
3004.61	1.62275
3005.9	1.38446
3007.19	1.38367
3008.48	1.53588
3009.77	1.50518
3011.07	1.25015
3012.36	1.30216
3013.65	0.977378
3014.94	0.848607
3016.23	1.0132
3017.52	0.704921
3018.81	0.800979
3020.1	0.271148
3021.4	0.895062
3022.68	0.71172
3023.97	0.472145
3025.26	0.523365
3026.55	0.712713
3027.84	0.500839
3029.13	0.45626
3030.42	0.730913
3031.71	0.537135
3033	0.551572
3034.28	0.483465
3035.57	0.497615
3036.86	0.703466
3038.15	0.631691
3039.43	0.599417
3040.72	0.359459
3042.01	0.379962
3043.29	0.304358
3044.58	0.311837
3045.87	0.3208
3047.15	0.468375
3048.44	0.781793
3049.72	0.592037
3051.01	0.376591
3052.29	0.448489
3053.58	0.820521
3054.86	0.74157
3056.15	0.975232
3057.43	0.853105
3058.71	0.880094
3060	1.23348
3061.28	0.552578
3062.56	1.15179
3063.84	0.732152
3065.13	0.953154
3066.41	0.686087
3067.69	1.12695
3068.97	0.493985
3070.26	0.690172
3071.54	0.80386
3072.82	0.535475
3074.1	0.46984
3075.38	0.44404
3076.66	0.309234
3077.94	0.297051
3079.22	0.245139
3080.5	0.411668
3081.78	0.159112
3083.06	0.21969
3084.34	-0.329713
3085.62	0.111413
3086.9	0.104284
3088.18	0.639348
3089.45	0.223558
3090.73	0.146611
3092.01	0.0694904
3093.29	0.399386
3094.56	0.0920076
3095.84	0.0696683
3097.12	-0.088203
3098.4	0.0655904
3099.67	-0.173829
3100.95	-0.155889
3102.22	-0.0431757
3103.5	0.0832038
3104.78	0.0339766
3106.05	0.269589
3107.33	0.302986
3108.6	-0.325821
3109.88	-0.0740447
3111.15	-0.0920987
3112.43	-0.041801
3113.7	0.0224314
3114.97	0.154424
3116.25	0.163945
3117.52	0.186143
3118.79	0.0173407
3120.07	0.105108
3121.34	0.124089
3122.61	0.0475388
3123.88	0.268802
3125.16	0.0566831
3126.43	0.264645
3127.7	0.0535059
3128.97	0.438012
3130.24	0.173553
3131.51	0.193129
3132.79	0.0503254
3134.06	0.0152507
3135.33	0.101128
3136.6	-0.0160818
3137.87	0.216811
3139.14	0.0851831
3140.41	0.00735474
3141.67	0.333055
3142.94	0.443394
3144.21	0.164599
3145.48	0.074543
3146.75	0.0521889
3148.02	0.23135
3149.29	0.0492678
