200.563	0.055398
202.377	0.0756273
204.194	0.0969296
206.008	-0.0508251
207.821	1.04175
209.634	0.164422
211.449	1.18096
213.262	1.36934
215.074	1.07096
216.885	0.505716
218.699	-0.0584965
220.51	0.201765
222.321	-0.238498
224.131	-0.121084
225.941	0.649437
227.751	0.912148
229.562	-0.00895596
231.371	-0.157619
233.18	0.827304
234.988	0.558073
236.796	0.724704
238.603	0.508516
240.411	0.151054
242.219	0.375106
244.026	0.239152
245.832	1.1649
247.638	1.12347
249.443	-0.00826836
251.248	0.61852
253.053	1.02419
254.857	-0.430137
256.661	1.29901
258.465	0.47333
260.268	0.927361
262.071	0.420312
263.874	0.228666
265.678	0.110668
267.48	0.0171251
269.282	-0.438456
271.083	0.43082
272.884	1.29877
274.684	0.959291
276.484	0.88285
278.284	0.346127
280.084	-0.529933
281.883	0.445747
283.682	0.431571
285.48	0.295455
287.276	-0.345338
289.074	1.05313
290.871	0.19842
292.668	-0.102578
294.465	0.364286
296.261	0.426178
298.057	-0.0602255
299.853	0.410006
301.648	0.0676289
303.443	0.22576
305.237	0.7401
307.032	0.131755
308.823	0.1436
310.617	0.870987
312.41	0.813515
314.203	0.639334
315.995	0.34867
317.788	-0.0587263
319.579	0.822144
321.369	0.608886
323.16	0.420358
324.951	0.614015
326.741	0.569298
328.531	0.787043
330.321	0.358665
332.108	1.41118
333.897	0.524127
335.686	0.136329
337.474	0.559118
339.26	1.21822
341.048	0.703038
342.835	0.115537
344.622	0.245324
346.406	0.0413265
348.192	0.268192
349.978	0.591107
351.764	1.03326
353.547	0.352921
355.332	0.482615
357.116	0.94425
358.901	0.259809
360.682	0.574864
362.466	0.00784302
364.249	0.439336
366.03	0.726625
367.812	0.656347
369.594	0.110847
371.374	-0.103058
373.155	0.0138235
374.936	0.957047
376.715	-0.178851
378.495	0.0324211
380.273	-0.367971
382.053	0.810783
383.832	0.860586
385.609	0.159909
387.388	0.0724659
389.164	-0.0369473
390.942	-0.638232
392.72	-0.345939
394.495	0.393286
396.272	-0.111649
398.047	0.111561
399.823	0.545973
401.597	0.744949
403.372	0.21497
405.145	-0.175016
406.92	0.420426
408.693	0.404464
410.467	0.435061
412.239	0.841221
414.012	0.14504
415.783	0.365029
417.556	0.445335
419.327	0.432646
421.099	0.349893
422.869	0.290236
424.64	0.0653267
426.409	-0.0668879
428.18	0.644955
429.948	0.769254
431.718	0.283328
433.486	0.642815
435.253	0.744617
437.022	0.165775
438.789	0.313541
440.558	0.130827
442.324	0.156684
444.089	0.0156126
445.857	0.481386
447.622	0.781031
449.386	0.0741243
451.153	0.1863
452.917	0.578847
454.682	-0.171799
456.446	0.546975
458.208	-0.132777
459.973	-0.0899954
461.735	0.325723
463.497	-0.0936069
465.259	1.02405
467.022	0.728051
468.783	0.598303
470.544	0.14533
472.306	0.251092
474.066	0.681903
475.825	0.831211
477.585	0.814601
479.346	0.399528
481.104	0.14632
482.862	0.755161
484.62	0.503881
486.38	-0.047719
488.137	0.148866
489.894	-0.0248642
491.65	-0.360925
493.407	0.261256
495.164	0.323562
496.92	0.104932
498.675	0.729066
500.43	1.07229
502.184	0.969242
503.939	0.629923
505.694	0.265104
507.448	0.721123
509.201	0.987273
510.954	0.898429
512.706	0.195606
514.459	0.902621
516.21	0.666613
517.962	0.617264
519.715	0.942738
521.466	0.609052
523.216	0.392507
524.966	0.997402
526.716	0.757168
528.466	0.962707
530.215	0.30085
531.964	0.76335
533.712	0.498627
535.46	0.864193
537.208	0.199067
538.955	0.490514
540.703	-0.47939
542.449	0.368657
544.196	0.400017
545.942	0.895974
547.688	0.16107
549.433	1.074
551.178	0.0865421
552.923	0.281097
554.667	0.175147
556.412	0.13904
558.155	1.072
559.899	-0.0925026
561.642	0.218947
563.385	0.530667
565.127	0.199183
566.867	0.466229
568.609	0.711098
570.35	0.452375
572.092	-0.171346
573.832	0.377173
575.573	0.0563087
577.313	0.907815
579.053	0.567967
580.79	0.113982
582.529	-0.133523
584.268	-0.290008
586.006	-0.125932
587.745	0.749787
589.482	0.795944
591.218	0.334698
592.955	0.171888
594.692	0.0779381
596.428	0.283154
598.164	0.511339
599.898	0.393939
601.634	0.0454111
603.369	0.201319
605.104	0.47017
606.836	0.553268
608.57	0.818933
610.304	0.487473
612.037	-0.0264244
613.769	0.217821
615.501	-0.0872965
617.234	-0.231618
618.966	-0.330703
620.696	-0.1106
622.427	0.244925
624.159	0.233157
625.887	0.221491
627.618	0.188456
629.348	-0.458085
631.076	0.176431
632.806	0.448438
634.535	0.425165
636.262	-0.146478
637.99	-0.104097
639.716	0.299953
641.444	-0.280921
643.172	0.229856
644.897	-0.331817
646.624	0.72299
648.348	0.596803
650.075	0.883993
651.801	0.153856
653.524	0.22404
655.249	0.753573
656.972	0.968237
658.697	0.569095
660.419	0.853049
662.143	0.541554
663.865	0.500755
665.588	0.456742
667.309	0.9362
669.032	-0.186093
670.752	0.362237
672.474	0.409965
674.194	0.804434
675.915	0.537601
677.634	0.203
679.355	0.396148
681.073	0.0825558
682.793	0.479403
684.511	0.574732
686.23	0.82875
687.947	0.159538
689.664	-0.096591
691.382	0.268298
693.098	0.60935
694.816	0.488716
696.531	0.0674906
698.247	0.266523
699.963	0.693902
701.678	0.820404
703.392	0.370965
705.108	0.702068
706.821	0.458312
708.534	0.374916
710.249	0.749384
711.962	0.939631
713.674	0.808946
715.388	0.81533
717.099	0.730353
718.81	1.51244
720.523	0.880391
722.234	0.317981
723.944	0.416376
725.654	0.218934
727.365	1.40687
729.075	0.0507441
730.784	1.21288
732.492	0.605836
734.202	0.542713
735.91	0.615442
737.618	0.507881
739.325	0.942811
741.034	0.544277
742.741	0.328096
744.447	0.699205
746.153	0.599191
747.859	1.67084
749.564	0.989372
751.271	1.02947
752.976	1.16125
754.681	1.54236
756.385	0.372768
758.088	1.18559
759.792	0.852134
761.495	1.24113
763.2	1.76676
764.902	1.34435
766.604	0.919843
768.306	1.39677
770.008	1.05718
771.709	1.30287
773.41	1.59201
775.11	1.83535
776.811	1.62725
778.51	1.08168
780.21	1.3973
781.909	1.73713
783.608	1.01361
785.307	1.78224
787.005	1.55187
788.703	1.9285
790.401	1.28265
792.098	2.30667
793.795	1.90436
795.492	1.09652
797.188	1.41818
798.884	1.35863
800.58	1.79663
802.276	1.33613
803.971	1.57398
805.665	1.29437
807.36	1.86775
809.054	2.25931
810.748	1.90829
812.441	1.10812
814.135	2.66097
815.826	1.18891
817.518	1.15072
819.21	1.5373
820.902	1.8788
822.594	1.72942
824.285	2.2502
825.976	1.79184
827.665	2.33908
829.355	1.70945
831.045	1.10607
832.735	1.53081
834.424	0.977725
836.111	1.83044
837.8	2.68386
839.488	2.01813
841.177	1.68481
842.864	1.90816
844.55	1.81816
846.237	1.97497
847.924	1.30691
849.61	1.1559
851.295	1.52283
852.98	1.39971
854.666	1.45699
856.349	1.4467
858.034	1.18759
859.719	1.06092
861.403	1.60732
863.085	0.935678
864.769	0.802773
866.452	1.32242
868.133	1.21016
869.816	0.894283
871.498	1.36742
873.179	1.25387
874.86	1.09506
876.54	1.65838
878.221	1.02564
879.902	0.911777
881.58	1.06831
883.26	1.22393
884.938	1.46841
886.618	1.55299
888.297	1.86108
889.974	0.655949
891.653	1.02783
893.329	1.30747
895.007	2.10261
896.683	1.34388
898.36	1.23653
900.035	1.33009
901.712	0.862322
903.387	1.67039
905.063	1.24712
906.737	1.33859
908.412	2.12171
910.085	0.632986
911.76	0.994838
913.433	1.11239
915.107	1.65199
916.779	0.948466
918.452	1.44285
920.124	1.25015
921.797	1.9876
923.467	1.44342
925.138	1.29978
926.81	1.53402
928.48	0.423927
930.151	0.728179
931.82	1.49647
933.489	1.27217
935.16	0.893747
936.828	1.08941
938.496	1.30824
940.165	0.492024
941.833	0.206516
943.5	1.62083
945.168	0.806358
946.834	0.60818
948.5	0.716711
950.168	0.182854
951.834	-0.0212097
953.499	0.701299
955.163	1.11678
956.83	0.786048
958.494	0.0842304
960.158	0.819811
961.821	0.564198
963.487	0.617446
965.15	0.55797
966.812	0.362334
968.474	0.672104
970.138	0.271338
971.8	0.289972
973.461	0.928443
975.123	0.462991
976.783	0.309385
978.446	0.290257
980.106	0.4821
981.766	0.673498
983.425	0.984988
985.084	0.652003
986.743	1.37883
988.402	0.33301
990.06	0.524888
991.72	1.22406
993.378	0.508713
995.035	0.677261
996.692	0.823706
998.349	1.34475
1000.01	0.454636
1001.66	1.61306
1003.32	1.383
1004.97	0.427176
1006.63	0.0219402
1008.28	0.21032
1009.94	0.245244
1011.59	1.15781
1013.25	0.294684
1014.9	0.791028
1016.55	0.543057
1018.21	0.536677
1019.86	0.771905
1021.51	0.243082
1023.16	0.721376
1024.81	0.676182
1026.47	0.544302
1028.12	0.674629
1029.77	0.563781
1031.42	0.888206
1033.07	0.839226
1034.72	0.330036
1036.37	1.10609
1038.02	1.74924
1039.67	1.58595
1041.31	1.83711
1042.96	2.24189
1044.61	2.71389
1046.26	1.49419
1047.91	1.45027
1049.55	1.56054
1051.2	1.10776
1052.84	1.28588
1054.49	1.05167
1056.14	1.2303
1057.78	0.56077
1059.43	0.694854
1061.07	0.893374
1062.72	1.17788
1064.36	1.20022
1066	0.829872
1067.65	0.849483
1069.29	0.628863
1070.93	0.494484
1072.58	0.294972
1074.22	0.725489
1075.86	0.311102
1077.5	0.505795
1079.14	0.615241
1080.78	0.725595
1082.42	0.814194
1084.06	0.381236
1085.7	0.813437
1087.34	0.332721
1088.98	0.283011
1090.62	-0.223079
1092.26	1.04274
1093.9	0.750787
1095.54	0.481252
1097.17	0.816802
1098.81	0.528971
1100.45	0.243735
1102.09	0.348467
1103.72	0.97162
1105.36	0.714311
1106.99	0.737335
1108.63	0.480348
1110.27	0.501537
1111.9	0.477742
1113.53	0.774139
1115.17	-0.219362
1116.8	0.804225
1118.43	0.476074
1120.07	0.620545
1121.7	0.209429
1123.33	0.121052
1124.97	0.397656
1126.6	0.611
1128.23	0.590005
1129.86	0.762342
1131.49	0.636056
1133.12	0.595656
1134.75	-0.107582
1136.38	1.06931
1138.01	-0.148748
1139.64	0.063549
1141.27	-0.0884781
1142.9	0.0151215
1144.53	0.0761585
1146.16	0.138013
1147.78	0.350178
1149.41	0.307624
1151.04	0.457364
1152.67	0.521829
1154.29	0.202606
1155.92	0.521543
1157.54	-0.095973
1159.17	-0.393603
1160.8	-0.243499
1162.42	-0.00705338
1164.05	-0.0670948
1165.67	0.341202
1167.29	0.323889
1168.92	-0.205022
1170.54	0.0931082
1172.16	-0.184946
1173.79	-0.486037
1175.41	0.399866
1177.03	0.0755415
1178.65	-0.311528
1180.28	0.699786
1181.9	0.5898
1183.52	-0.259159
1185.14	0.0337782
1186.76	0.557415
1188.38	-0.229855
1190	-0.0274715
1191.62	0.172151
1193.24	0.264344
1194.86	0.565242
1196.47	0.991174
1198.09	-0.278611
1199.71	0.318026
1201.33	0.0597734
1202.95	0.348031
1204.56	-0.0286369
1206.18	-0.40251
1207.8	0.205754
1209.41	0.438673
1211.03	0.169915
1212.64	0.482935
1214.26	0.93873
1215.87	0.391664
1217.49	0.404954
1219.1	0.250774
1220.71	0.32515
1222.33	0.545424
1223.94	0.311056
1225.55	0.203145
1227.16	0.242061
1228.78	0.654918
1230.39	0.676187
1232	0.533578
1233.61	0.743878
1235.22	0.749029
1236.83	0.548988
1238.44	0.804949
1240.05	1.33065
1241.66	0.243474
1243.27	0.955257
1244.88	0.466182
1246.49	0.368926
1248.1	1.36713
1249.71	0.791791
1251.32	0.381736
1252.92	0.737412
1254.53	1.54899
1256.14	0.686534
1257.74	1.25289
1259.35	0.703518
1260.96	0.693074
1262.56	1.15948
1264.17	0.714735
1265.77	1.28457
1267.38	1.25267
1268.98	1.28172
1270.59	0.480089
1272.19	1.0041
1273.79	1.65113
1275.4	0.866466
1277	0.972048
1278.6	1.49083
1280.21	1.07668
1281.81	1.73872
1283.41	0.641953
1285.01	1.36652
1286.61	1.78164
1288.21	1.20586
1289.81	1.47869
1291.41	1.75208
1293.01	1.69466
1294.61	1.65691
1296.21	1.9479
1297.81	1.6379
1299.41	1.98622
1301.01	1.52811
1302.6	1.76945
1304.2	1.12425
1305.8	2.02123
1307.4	1.49872
1308.99	1.83852
1310.59	1.54238
1312.19	1.82055
1313.78	1.4652
1315.38	1.21395
1316.97	2.02594
1318.57	1.1645
1320.16	1.46614
1321.76	1.21614
1323.35	1.83961
1324.94	1.11806
1326.54	0.904018
1328.13	1.27777
1329.72	1.42863
1331.32	1.62164
1332.91	1.91817
1334.5	1.5307
1336.09	1.91252
1337.68	0.98367
1339.27	1.02245
1340.87	1.07922
1342.45	1.07288
1344.04	1.10433
1345.64	0.973799
1347.22	1.20481
1348.81	1.45747
1350.4	1.63275
1351.99	1.39104
1353.58	1.19213
1355.17	1.75442
1356.75	1.33772
1358.34	1.00059
1359.93	0.882158
1361.51	1.18164
1363.1	1.10079
1364.69	1.57781
1366.27	0.958835
1367.86	1.53634
1369.44	0.482631
1371.03	0.824328
1372.61	1.02828
1374.2	1.57183
1375.78	1.79782
1377.37	1.90453
1378.95	0.438527
1380.53	1.53814
1382.11	0.626604
1383.7	1.78207
1385.28	1.68314
1386.86	1.28575
1388.44	1.18682
1390.02	1.10867
1391.6	0.972164
1393.19	1.51116
1394.77	1.5347
1396.35	1.16138
1397.93	1.52078
1399.51	1.26438
1401.08	1.62096
1402.66	0.709646
1404.24	1.46107
1405.82	1.28307
1407.4	0.770322
1408.97	1.54324
1410.55	0.953396
1412.13	1.33137
1413.71	1.66884
1415.28	1.09727
1416.86	1.13653
1418.43	1.70743
1420.01	1.50995
1421.59	1.82601
1423.16	1.6321
1424.73	1.65687
1426.31	2.27368
1427.88	1.41497
1429.46	2.01236
1431.03	1.97869
1432.6	1.80578
1434.18	2.39894
1435.75	3.03053
1437.32	2.81665
1438.89	2.60391
1440.46	2.78568
1442.04	2.75252
1443.61	3.15268
1445.18	3.00307
1446.75	3.54163
1448.32	1.93782
1449.89	2.65393
1451.46	2.60401
1453.03	2.47611
1454.6	2.30928
1456.16	2.949
1457.73	2.89924
1459.3	2.74931
1460.87	2.22312
1462.44	2.24553
1464	2.10848
1465.57	2.54013
1467.14	1.81194
1468.7	1.65437
1470.27	1.61585
1471.83	1.48069
1473.4	1.87647
1474.96	1.35145
1476.53	0.748641
1478.09	1.30276
1479.66	1.13138
1481.22	0.783523
1482.78	1.43507
1484.35	0.969413
1485.91	0.679756
1487.47	1.54475
1489.04	0.997911
1490.6	0.78191
1492.16	0.719945
1493.72	0.323442
1495.28	0.549962
1496.84	0.81365
1498.4	0.667806
1499.96	1.00888
1501.52	0.904002
1503.08	0.393578
1504.64	0.137011
1506.2	0.19088
1507.76	0.243893
1509.32	0.585306
1510.88	0.538676
1512.44	0.414044
1513.99	0.789674
1515.55	0.760951
1517.11	0.675475
1518.66	0.706174
1520.22	0.431087
1521.78	0.577724
1523.33	0.245807
1524.89	0.639101
1526.44	0.401042
1528	-0.142118
1529.55	0.076128
1531.11	0.730419
1532.66	0.549316
1534.21	0.691685
1535.77	0.456699
1537.32	0.639005
1538.87	0.217791
1540.43	0.420053
1541.98	0.320629
1543.53	0.334182
1545.08	-0.0285387
1546.63	0.360456
1548.18	0.391995
1549.74	0.460912
1551.29	0.604815
1552.84	0.5059
1554.39	0.483047
1555.94	0.48057
1557.48	0.797491
1559.03	0.836608
1560.58	0.896635
1562.13	0.492188
1563.68	0.0330133
1565.23	0.488649
1566.78	0.664558
1568.32	0.672243
1569.87	0.511471
1571.42	0.424891
1572.96	0.655324
1574.51	1.57629
1576.05	1.41458
1577.6	0.767753
1579.14	0.830792
1580.69	1.38007
1582.24	1.3889
1583.78	0.838298
1585.32	1.14788
1586.87	1.17781
1588.41	1.39496
1589.95	0.73252
1591.5	1.26706
1593.04	1.16474
1594.58	1.15566
1596.12	0.828126
1597.67	0.669565
1599.21	1.26166
1600.75	0.429403
1602.29	1.56758
1603.83	1.50501
1605.37	1.14089
1606.91	1.80845
1608.45	1.00774
1609.99	1.0312
1611.53	0.845237
1613.07	1.3144
1614.6	1.57506
1616.14	0.897162
1617.68	1.00794
1619.22	0.632914
1620.75	1.4585
1622.29	0.54397
1623.83	1.12835
1625.37	0.926367
1626.9	0.985509
1628.44	1.04306
1629.97	0.444447
1631.51	1.4525
1633.04	1.59976
1634.58	1.09394
1636.11	0.962776
1637.65	1.1685
1639.18	0.703623
1640.72	1.04044
1642.25	1.97235
1643.78	1.13315
1645.31	1.24247
1646.85	1.40633
1648.38	1.99696
1649.91	2.1231
1651.44	2.10189
1652.97	2.15648
1654.5	1.86017
1656.03	1.62042
1657.56	1.82536
1659.1	1.455
1660.62	1.93489
1662.15	1.91291
1663.68	1.42745
1665.21	1.32995
1666.74	1.26999
1668.27	1.59872
1669.8	1.11789
1671.32	1.61575
1672.85	1.54361
1674.38	1.26946
1675.91	0.939887
1677.43	1.54813
1678.96	0.646117
1680.49	0.718218
1682.01	1.46918
1683.54	0.915131
1685.06	1.16928
1686.59	0.873391
1688.11	0.541721
1689.64	0.430674
1691.16	0.887577
1692.68	0.520613
1694.21	0.373405
1695.73	0.975669
1697.25	0.645142
1698.78	0.442395
1700.3	0.695604
1701.82	0.747247
1703.34	0.397205
1704.86	0.59332
1706.39	0.679406
1707.91	0.455988
1709.43	0.505297
1710.95	0.82681
1712.47	0.313945
1713.99	0.816634
1715.51	0.6488
1717.02	0.390714
1718.54	0.34974
1720.06	-0.0704336
1721.58	0.538668
1723.1	0.822974
1724.62	1.00001
1726.13	0.872354
1727.65	-0.0635653
1729.17	0.279835
1730.68	0.135915
1732.2	0.682845
1733.72	0.677366
1735.23	0.485515
1736.75	0.31975
1738.26	0.0582094
1739.78	0.474247
1741.29	0.262272
1742.81	0.441812
1744.32	-0.268682
1745.84	0.0519657
1747.35	0.220783
1748.86	0.274961
1750.37	0.394549
1751.89	0.190286
1753.4	0.0985031
1754.91	0.0721703
1756.42	-0.0264597
1757.93	0.145482
1759.45	0.384963
1760.96	0.137267
1762.47	-0.099987
1763.98	0.222258
1765.49	0.419422
1767	-0.0493965
1768.51	0.413833
1770.02	0.162896
1771.53	-0.0474024
1773.03	0.138691
1774.54	-0.114176
1776.05	0.379808
1777.56	0.269168
1779.07	0.396117
1780.57	0.053586
1782.08	0.364927
1783.59	0.0110207
1785.09	0.320924
1786.6	0.141975
1788.11	0.0872278
1789.61	0.0560369
1791.12	0.406032
1792.62	0.379045
1794.13	0.232738
1795.63	0.2847
1797.13	0.293357
1798.64	0.383715
1800.14	0.292802
1801.65	0.199233
1803.15	0.113097
1804.65	0.101642
1806.15	0.0962105
1807.66	0.0267067
1809.16	-0.0250492
1810.66	0.220014
1812.16	0.690329
1813.66	0.514688
1815.16	0.0287514
1816.66	0.151118
1818.16	0.065733
1819.66	0.158821
1821.16	0.349481
1822.66	0.270911
1824.16	-0.12493
1825.66	-0.00262833
1827.16	0.261931
1828.66	0.485334
1830.16	0.496751
1831.65	-0.044529
1833.15	0.126735
1834.65	0.146293
1836.14	0.289598
1837.64	-0.143485
1839.14	0.0691719
1840.63	-0.159612
1842.13	-0.181202
1843.62	0.0803871
1845.12	-0.20388
1846.61	0.0216255
1848.11	0.361013
1849.6	-0.00924492
1851.1	0.222063
1852.59	0.12528
1854.08	0.0369215
1855.58	0.195417
1857.07	0.28686
1858.56	0.168734
1860.05	0.255959
1861.55	0.47321
1863.04	0.265329
1864.53	0.386645
1866.02	0.550579
1867.51	0.124299
1869	-0.0599089
1870.49	-0.0484638
1871.98	0.307742
1873.47	0.165684
1874.96	0.124356
1876.45	0.00344658
1877.94	-0.550637
1879.43	0.17126
1880.92	-0.493041
1882.41	0.0132284
1882.51	0.0492439
1884	0.223764
1885.5	0.188195
1886.99	0.203959
1888.48	0.236557
1889.98	-0.0612602
1891.47	0.285696
1892.96	0.442906
1894.46	0.271755
1895.95	-0.141153
1897.44	-0.414186
1898.93	-0.0786037
1900.42	0.186435
1901.91	0.275779
1903.41	0.537067
1904.9	-0.315986
1906.39	-0.0744734
1907.88	0.288302
1909.37	0.148009
1910.86	-0.355549
1912.35	0.321702
1913.83	0.444282
1915.32	0.306813
1916.81	0.203711
1918.3	0.238731
1919.79	0.325217
1921.27	0.255651
1922.76	0.186558
1924.25	0.118432
1925.74	0.328512
1927.22	-0.568233
1928.71	0.370842
1930.19	0.392339
1931.68	-0.0199614
1933.17	-0.0528116
1934.65	-0.260599
1936.14	0.325908
1937.62	0.374449
1939.11	0.422404
1940.59	0.177062
1942.07	0.726773
1943.56	0.000617981
1945.04	-0.137753
1946.52	-0.534225
1948.01	-0.430907
1949.49	0.136708
1950.97	0.0656872
1952.45	0.509972
1953.93	0.454369
1955.42	-0.168319
1956.9	0.292086
1958.38	0.512389
1959.86	0.373029
1961.34	0.114364
1962.82	-0.161009
1964.3	0.197574
1965.78	0.623792
1967.26	0.0903482
1968.74	0.326533
1970.21	0.288282
1971.69	0.318111
1973.17	0.535574
1974.65	-0.134077
1976.13	0.117776
1977.6	-0.158548
1979.08	-0.162061
1980.56	0.480781
1982.03	-0.0503206
1983.51	-0.156339
1984.99	0.297569
1986.46	0.309546
1987.94	0.0164356
1989.41	-0.191237
1990.89	0.143601
1992.36	0.631236
1993.84	0.257302
1995.31	0.121154
1996.78	0.188289
1998.26	0.187792
1999.73	0.0686646
2001.2	0.202114
2002.68	0.537305
2004.15	0.0122423
2005.62	0.482187
2007.09	-0.243355
2008.56	0.0933847
2010.04	0.111002
2011.51	0.179671
2012.98	0.197886
2014.45	0.46808
2015.92	-0.10389
2017.39	-0.00372314
2018.86	0.0955009
2020.33	0.126837
2021.8	0.325912
2023.26	0.273355
2024.73	0.154563
2026.2	0.188059
2027.67	0.256602
2029.14	0.192546
2030.61	0.012455
2032.07	0.101781
2033.54	0.107742
2035.01	0.600701
2036.47	0.203244
2037.94	0.241867
2039.4	0.380922
2040.87	0.267815
2042.33	0.390449
2043.8	0.328936
2045.27	0.402949
2046.73	0.427344
2048.19	0.249956
2049.66	0.105742
2051.12	0.196405
2052.59	0.555323
2054.05	0.204022
2055.51	0.373652
2056.97	0.238286
2058.44	0.0853062
2059.9	-0.455135
2061.36	0.167024
2062.82	0.0153189
2064.28	0.167658
2065.74	0.809044
2067.21	0.626725
2068.67	0.747985
2070.13	0.600289
2071.59	-0.00193405
2073.05	0.372113
2074.51	0.156586
2075.96	0.429038
2077.42	0.717957
2078.88	0.248635
2080.34	0.300875
2081.8	-0.0852261
2083.26	0.100442
2084.72	-0.000825882
2086.17	0.115895
2087.63	0.500902
2089.09	0.414531
2090.54	0.4624
2092	0.359039
2093.45	0.339589
2094.91	0.45405
2096.37	0.16561
2097.82	0.262068
2099.28	0.792861
2100.73	0.55323
2102.19	0.564845
2103.64	0.427037
2105.09	0.173922
2106.55	0.589802
2108	0.356082
2109.45	0.23957
2110.91	0.856048
2112.36	0.554186
2113.81	0.550567
2115.26	0.694984
2116.72	0.422562
2118.17	0.383473
2119.62	0.810574
2121.07	0.608823
2122.52	0.558564
2123.97	0.841528
2125.42	0.644293
2126.87	0.446825
2128.32	1.02746
2129.77	0.413191
2131.22	0.692442
2132.67	0.987083
2134.11	0.669247
2135.56	0.567526
2137.01	0.318654
2138.46	0.898094
2139.91	0.735797
2141.35	0.707436
2142.8	0.399197
2144.25	0.620773
2145.7	0.726831
2147.14	1.03135
2148.59	0.457597
2150.03	0.909747
2151.48	0.863939
2152.92	0.949628
2154.37	0.91845
2155.81	0.953044
2157.26	0.971133
2158.7	0.857448
2160.15	0.977065
2161.59	1.34715
2163.03	1.45427
2164.47	0.866438
2165.92	1.42424
2167.36	0.852992
2168.8	0.761997
2170.24	1.13477
2171.69	1.28926
2173.13	0.909322
2174.57	1.12676
2176.01	1.37675
2177.45	1.54372
2178.89	1.39559
2180.33	1.3483
2181.77	1.56799
2183.21	0.8904
2184.65	1.11104
2186.09	0.882664
2187.53	1.35307
2188.97	1.15801
2190.4	0.59664
2191.84	1.21684
2193.28	0.737502
2194.72	0.906093
2196.16	0.839703
2197.59	1.15394
2199.03	0.900637
2200.47	1.01209
2201.9	0.708143
2203.34	0.919618
2204.77	0.800349
2206.21	0.914321
2207.64	0.713997
2209.08	1.40787
2210.51	0.925108
2211.95	0.822254
2213.38	0.718736
2214.82	0.631726
2216.25	0.809555
2217.68	0.559419
2219.12	0.310796
2220.55	0.656714
2221.98	0.656468
2223.41	0.441319
2224.85	0.0602856
2226.28	0.796953
2227.71	0.231902
2229.14	0.668445
2230.57	0.447015
2232	0.406101
2233.43	0.218241
2234.86	0.554773
2236.29	0.565145
2237.72	0.364912
2239.15	0.215815
2240.58	-0.0126972
2242.01	0.331505
2243.44	0.48123
2244.87	0.109394
2246.29	0.487206
2247.72	0.357765
2249.15	0.356606
2250.58	0.662695
2252.01	0.00609016
2253.43	0.520658
2254.86	-0.00523758
2256.29	-0.139226
2257.71	0.0699949
2259.14	0.281902
2260.56	0.23717
2261.99	0.470836
2263.41	0.706392
2264.84	0.341292
2266.26	-0.0246105
2267.69	0.0150213
2269.11	0.200233
2270.53	0.25453
2271.96	0.503716
2273.38	0.0850859
2274.8	0.269073
2276.23	0.485942
2277.65	0.181561
2279.07	0.252043
2280.49	0.306189
2281.91	0.490719
2283.34	0.0226603
2284.76	0.43561
2286.18	0.440919
2287.6	0.250669
2289.02	0.224075
2290.44	0.786117
2291.86	0.0738478
2293.28	-0.0174494
2294.7	0.185653
2296.12	0.15968
2297.54	-0.013752
2298.96	0.320568
2300.37	-0.344413
2301.79	-0.10787
2303.21	-0.0676918
2304.63	0.16966
2306.04	0.0951424
2307.46	-0.0619535
2308.88	0.0432854
2310.3	0.312447
2311.71	0.203037
2313.13	-0.252014
2314.54	0.313514
2315.96	0.534427
2317.37	-0.017971
2318.79	0.402071
2320.2	0.228574
2321.62	-0.0947065
2323.03	0.388653
2324.45	0.457101
2325.86	0.391177
2327.27	-0.0557175
2328.69	1.01329
2330.1	0.335329
2331.51	0.185791
2332.92	-0.110619
2334.34	0.531869
2335.75	0.00634193
2337.16	0.319382
2338.57	0.368179
2339.98	-0.0114889
2341.39	-0.260312
2342.8	0.426095
2344.21	-0.233246
2345.63	0.157448
2347.04	0.433287
2348.45	0.234118
2349.85	0.149321
2351.26	0.178277
2352.67	0.287843
2354.08	-0.142226
2355.49	0.112473
2356.9	0.33373
2358.3	0.0990429
2359.71	-0.0212927
2361.12	0.167102
2362.53	-0.37451
2363.93	0.153851
2365.34	0.00151825
2366.75	-0.23111
2368.15	0.102404
2369.56	-0.112139
2370.97	0.223029
2372.37	0.0758162
2373.77	0.203523
2375.18	0.0256882
2376.59	-0.216716
2377.99	0.118962
2379.39	0.147343
2380.8	0.511084
2382.2	0.23118
2383.6	0.399417
2385.01	-0.2488
2386.41	0.0715141
2387.81	-0.0867805
2389.21	0.0673332
2390.62	0.0153313
2392.02	-0.115017
2393.42	-0.021452
2394.82	0.406838
2396.22	0.612928
2397.62	-0.0545683
2399.02	-0.0855532
2400.42	-0.0524912
2401.82	0.171474
2403.22	0.379534
2404.62	0.0949173
2406.02	-0.174549
2407.42	0.15821
2408.82	0.362988
2410.22	0.0916681
2411.62	0.407033
2413.01	-0.132233
2414.41	0.295889
2415.81	0.345422
2417.21	0.25385
2418.6	-0.0901489
2420	0.262933
2421.4	0.0774717
2422.79	-0.0925684
2424.19	0.0539589
2425.59	0.343186
2426.98	0.0307522
2428.38	0.036108
2429.77	0.0582676
2431.17	0.176347
2432.56	0.310582
2433.95	0.237939
2435.35	0.307086
2436.74	0.215847
2438.14	-0.274154
2439.53	-0.114021
2440.92	-0.208956
2442.31	0.314732
2443.71	0.107792
2445.1	-0.115026
2446.49	0.0744047
2447.88	-0.0851135
2449.27	0.214855
2450.67	-0.292719
2452.06	-0.0713158
2453.45	0.0241184
2454.84	0.246922
2456.23	-0.162373
2457.62	-0.302385
2459.01	0.126872
2460.4	0.286615
2461.79	0.413844
2463.18	0.587586
2464.57	0.144406
2465.95	0.0802927
2467.34	0.142416
2468.73	0.125535
2470.12	-0.143869
2471.5	-0.350401
2472.89	0.00975704
2474.28	-0.229519
2475.67	0.238771
2477.05	0.218694
2478.44	-0.146912
2479.82	-0.0096283
2481.21	-0.0291958
2482.6	0.139213
2483.98	-0.100137
2485.37	-0.621442
2486.75	0.216455
2488.13	-0.0409737
2489.52	0.278105
2490.9	0.316043
2492.29	-0.127487
2493.67	0.114273
2495.05	-0.2326
2496.44	0.0268564
2497.82	0.286775
2499.2	0.268004
2500.58	-0.369772
2501.97	0.120888
2503.35	-0.100558
2504.73	0.155712
2506.11	0.333759
2507.49	-0.0275297
2508.87	0.180931
2510.25	0.420079
2511.63	-0.521954
2513.01	-0.342512
2514.39	0.41948
2515.77	0.125134
2517.15	-0.275129
2518.53	0.273487
2519.91	0.0882263
2521.29	0.0250807
2522.67	-0.374436
2524.05	0.110418
2525.42	0.31949
2526.8	0.0406504
2528.18	-0.20692
2529.55	0.337623
2530.93	0.229626
2532.31	-0.0133286
2533.69	-0.0421314
2535.06	-0.146181
2536.44	-0.00717831
2537.81	-0.0967073
2539.19	-0.126394
2540.56	-0.00505543
2541.94	-0.142183
2543.31	0.312763
2544.69	0.464942
2546.06	0.0116348
2547.44	-0.0612259
2548.81	-0.193955
2550.18	0.158931
2551.56	-0.125949
2552.93	0.089057
2554.3	-0.273637
2555.67	-0.227454
2557.04	0.0153418
2558.42	-0.0757294
2559.79	0.212484
2561.16	0.258602
2562.53	0.0477285
2563.9	-0.0564518
2565.27	-0.326896
2566.64	0.26669
2568.01	0.239058
2569.38	0.059865
2570.75	0.198949
2572.12	-0.0863352
2573.49	0.189297
2574.86	0.252825
2576.23	0.0586548
2577.6	0.0766497
2578.97	0.0337706
2580.33	-0.494684
2581.7	-0.098588
2583.07	0.463868
2584.44	0.465055
2585.8	-0.200779
2587.17	0.118821
2588.54	-0.000959396
2589.9	-0.044836
2591.27	0.138473
2592.64	0.0637016
2594	-0.117883
2595.37	0.229648
2596.73	0.19744
2598.1	-0.561687
2599.46	0.0555172
2600.83	0.203673
2602.19	-0.0253878
2603.55	-0.0875168
2604.92	0.122572
2606.28	0.0913563
2607.64	0.0296898
2609.01	0.193314
2610.37	0.144668
2611.73	0.154954
2613.09	-0.10661
2614.46	0.00708008
2615.82	0.270331
2617.18	0.0385857
2618.54	0.197273
2619.9	-0.0625296
2621.26	-0.0370913
2622.62	-0.190475
2623.98	-0.0298462
2625.34	0.279737
2626.7	0.0368996
2628.06	0.00268936
2629.42	-0.150892
2630.78	0.2758
2632.14	0.49357
2633.5	0.384142
2634.86	0.170967
2636.21	0.0470839
2637.57	0.116018
2638.93	-0.0668163
2640.29	0.312989
2641.64	-0.0762749
2643	0.0966797
2644.36	0.269561
2645.71	0.191328
2647.07	-0.0640898
2648.43	0.107365
2649.78	0.189405
2651.14	0.123574
2652.49	-0.221479
2653.85	0.138588
2655.2	0.381441
2656.56	0.0391684
2657.91	-0.0526419
2659.26	0.500206
2660.62	0.277979
2661.97	0.450418
2663.32	0.067029
2664.68	0.106594
2666.03	-0.029686
2667.38	-0.384834
2668.74	0.134191
2670.09	0.0706539
2671.44	-0.00681305
2672.79	0.192526
2674.14	0.000160217
2675.49	0.0988636
2676.84	0.35764
2678.19	0.384837
2679.54	-0.00761986
2680.89	0.166522
2682.24	0.312848
2683.59	0.271914
2684.94	0.246448
2686.29	0.264982
2687.64	0.210807
2688.99	0.474802
2690.34	0.316097
2691.69	-0.10569
2693.03	-0.151496
2694.38	0.193301
2695.73	0.320144
2697.08	0.0129023
2698.42	0.0691948
2699.77	-0.0755854
2701.12	0.577787
2702.46	0.146628
2703.81	0.0350294
2705.15	0.112319
2706.5	0.537852
2707.85	0.325026
2709.19	0.271289
2710.54	0.580164
2711.88	0.104533
2713.22	0.834538
2714.57	0.242187
2715.91	0.43457
2717.26	0.379667
2718.6	0.45541
2719.94	0.516257
2721.29	0.445675
2722.63	0.403683
2723.97	0.448527
2725.31	0.536591
2726.66	0.405926
2728	0.260396
2729.34	-0.365577
2730.68	0.172492
2732.02	0.288483
2733.36	-0.279175
2734.7	0.244369
2736.04	0.331697
2737.38	0.0846453
2738.72	0.143005
2740.06	0.0411549
2741.4	0.171501
2742.74	0.315693
2744.08	0.633498
2745.42	-0.139133
2746.76	0.00327301
2748.09	0.0147333
2749.43	0.0262203
2750.77	-0.0781288
2752.11	-0.138659
2753.45	0.264854
2754.78	-0.157549
2756.12	0.231534
2757.46	0.142724
2758.79	0.0107899
2760.13	-0.25096
2761.46	0.211396
2762.8	-0.136176
2764.14	0.240066
2765.47	0.341368
2766.8	0.38433
2768.14	0.368478
2769.47	0.380236
2770.81	0.289327
2772.14	0.399301
2773.48	0.19059
2774.81	0.255587
2776.14	-0.126093
2777.48	0.155241
2778.81	-0.0091095
2780.14	-0.201439
2781.47	-0.0772524
2782.8	0.018158
2784.14	0.0560169
2785.47	-0.121175
2786.8	0.0314713
2788.13	-0.431101
2789.46	0.123397
2790.79	0.192047
2792.12	0.0183783
2793.45	0.00251102
2794.78	0.301125
2796.11	-0.000846863
2797.44	0.0681953
2798.77	-0.0204296
2800.1	0.261665
2801.43	0.0154181
2802.76	-0.316329
2804.09	0.292558
2805.41	-0.110882
2806.74	-0.300919
2808.07	-0.0646172
2809.4	0.0714378
2810.72	-0.0483122
2812.05	0.130714
2813.38	0.296475
2814.71	0.137481
2816.03	-0.0483065
2817.36	0.0363722
2818.68	-0.232701
2820.01	0.334491
2821.33	-0.0200272
2822.66	0.0358267
2823.98	0.374404
2825.31	0.344192
2826.63	0.00249767
2827.96	0.142846
2829.28	0.623484
2830.6	0.509988
2831.93	0.481668
2833.25	0.821327
2834.57	0.962468
2835.9	0.919082
2837.22	1.03078
2838.54	1.07124
2839.86	1.3943
2841.18	1.5335
2842.5	2.04062
2843.83	2.63312
2845.15	2.77415
2846.47	3.35405
2847.79	3.12887
2849.11	3.17226
2850.43	2.86193
2851.75	3.14466
2853.07	3.28541
2854.39	3.60936
2855.71	3.495
2857.03	3.31003
2858.35	3.40767
2859.66	3.40642
2860.98	3.57442
2862.3	3.95373
2863.62	3.58439
2864.94	3.79344
2866.25	4.03057
2867.57	4.18327
2868.89	4.36465
2870.2	3.82752
2871.52	4.40431
2872.84	4.58599
2874.15	4.76669
2875.47	4.28399
2876.78	4.49023
2878.1	5.00485
2879.41	5.32166
2880.73	5.44174
2882.04	5.15533
2883.36	5.08115
2884.67	4.96612
2885.99	5.18881
2887.3	5.38346
2888.61	4.73557
2889.93	5.16722
2891.24	4.68611
2892.55	4.65317
2893.86	5.20843
2895.18	5.25955
2896.49	4.93371
2897.8	4.97319
2899.11	5.15382
2900.42	5.15351
2901.73	5.44755
2903.05	5.53201
2904.36	5.43481
2905.67	5.53378
2906.98	5.42363
2908.29	5.09061
2909.6	6.12966
2910.91	5.70042
2912.21	5.7749
2913.52	6.33854
2914.83	6.01855
2916.14	5.69656
2917.45	6.22659
2918.76	6.3214
2920.07	6.69569
2921.37	7.09851
2922.68	6.66394
2923.99	6.83224
2925.29	6.82021
2926.6	6.5154
2927.91	6.33645
2929.22	6.71627
2930.52	6.77392
2931.83	6.66327
2933.13	6.56632
2934.44	6.37154
2935.74	6.97354
2937.05	6.87694
2938.35	6.64085
2939.66	6.44703
2940.96	6.04423
2942.26	5.83802
2943.57	5.18588
2944.87	5.58347
2946.18	5.56308
2947.48	4.95575
2948.78	5.46744
2950.08	5.2642
2951.39	4.68085
2952.69	4.90757
2953.99	4.26469
2955.29	4.23754
2956.59	4.16932
2957.9	4.27121
2959.2	4.30601
2960.5	3.71342
2961.8	3.57083
2963.1	3.79364
2964.4	3.79162
2965.7	3.32457
2967	3.27702
2968.3	3.31246
2969.6	3.1081
2970.9	3.08638
2972.19	3.03683
2973.49	2.93135
2974.79	2.69915
2976.09	2.93087
2977.39	2.6263
2978.68	2.62982
2979.98	2.37821
2981.28	2.54759
2982.58	1.84425
2983.87	1.80261
2985.17	1.74802
2986.47	2.07435
2987.76	1.81196
2989.06	1.76137
2990.35	1.61271
2991.65	1.73064
2992.94	1.49621
2994.24	1.33088
2995.53	1.09433
2996.83	1.02574
2998.12	1.25173
2999.42	0.944764
3000.71	0.820874
3002	0.711684
3003.3	0.687084
3004.59	0.578591
3005.88	0.469949
3007.18	0.668812
3008.47	0.81075
3009.76	0.168658
3011.05	0.267298
3012.34	0.546914
3013.64	0.156497
3014.93	0.0319653
3016.22	0.186912
3017.51	-0.0752554
3018.8	0.540035
3020.09	-0.208124
3021.38	0.114432
3022.67	0.13025
3023.96	-0.243407
3025.25	-0.159541
3026.54	0.00709581
3027.83	0.160056
3029.12	0.0373459
3030.41	0.261704
3031.69	0.0177588
3032.98	-0.293941
3034.27	-0.204856
3035.56	0.00789404
3036.84	0.233042
3038.13	-0.218828
3039.42	-0.0247507
3040.71	0.0849733
3041.99	-0.108388
3043.28	0.164782
3044.57	0.314891
3045.85	0.165508
3047.14	-0.0360618
3048.42	0.0516558
3049.71	-0.104288
3050.99	-0.122147
3052.28	0.0791707
3053.56	0.198677
3054.85	0.0856767
3056.13	0.0400009
3057.41	0.0615396
3058.7	0.30034
3059.98	0.211875
3061.26	0.21917
3062.55	-0.0717864
3063.83	0.209902
3065.11	0.234715
3066.39	0.192954
3067.68	0.206605
3068.96	0.016726
3070.24	0.0714488
3071.52	-0.0241766
3072.8	0.16472
3074.08	0.243636
3075.36	0.226536
3076.65	0.168463
3077.93	0.110884
3079.21	0.230829
3080.49	0.108042
3081.77	-0.0267286
3083.04	-0.0245934
3084.32	-0.0895748
3085.6	-0.19513
3086.88	-0.246776
3088.16	0.20322
3089.44	0.109707
3090.72	0.368655
3091.99	0.0576363
3093.27	-0.185212
3094.55	-0.06146
3095.83	-0.140791
3097.1	0.186757
3098.38	-0.149909
3099.66	-0.107059
3100.93	-0.0235915
3102.21	0.222483
3103.49	0.265683
3104.76	0.255291
3106.04	-0.255043
3107.31	0.155853
3108.59	0.405412
3109.86	0.101174
3111.14	0.528956
3112.41	0.131608
3113.69	0.0189981
3114.96	0.109693
3116.23	0.0238552
3117.51	0.371306
3118.78	0.365236
3120.05	0.276832
3121.33	0.133458
3122.6	0.0846028
3123.87	0.211781
3125.14	0.3256
3126.41	0.426307
3127.69	0.568158
3128.96	0.521174
3130.23	0.609853
3131.5	0.347277
3132.77	0.530751
3134.04	0.727349
3135.31	0.491354
3136.58	0.646471
3137.85	0.706625
3139.12	0.618262
3140.39	0.933751
3141.66	0.549613
3142.93	0.824909
3144.2	0.751249
3145.47	0.584534
3146.74	0.700346
3148	0.843517
3149.27	0.973848
