200.554	-0.101444
202.369	-0.101319
204.183	-0.100558
205.999	0.0470915
207.813	0.486759
209.626	0.537037
211.439	0.586557
213.253	0.0283661
215.065	-0.214419
216.877	0.31847
218.688	0.536018
220.5	-0.141461
222.312	0.271304
224.123	-0.064888
225.933	0.566512
227.742	-0.275881
229.552	0.137901
231.361	0.623466
233.171	0.481342
234.98	-0.142366
236.787	0.681916
238.595	0.230481
240.402	0.118806
242.209	0.491387
244.015	0.334845
245.822	0.105844
247.627	-0.293466
249.435	-0.0670929
251.24	-0.374231
253.045	0.909678
254.849	-0.245181
256.653	0.288675
258.457	0.437347
260.26	-0.23158
262.063	0.52274
263.866	-0.23909
265.668	0.782967
267.47	-0.122176
269.271	0.0087471
271.073	0.500842
272.873	0.413535
274.674	-0.108799
276.474	0.573056
278.274	0.241019
280.073	-0.30905
281.872	-0.234199
283.671	0.127739
285.47	-0.0645819
287.268	0.198987
289.065	-0.137196
290.863	-0.0407982
292.66	0.702904
294.456	-0.251156
296.253	0.661988
298.049	0.356608
299.844	-0.186913
301.637	0.822327
303.432	0.397722
305.227	1.02252
307.021	0.882765
308.815	0.123363
310.609	0.270741
312.402	0.633528
314.195	-0.288081
315.987	0.720878
317.777	0.040844
319.569	0.195733
321.36	0.447212
323.151	0.699765
324.942	0.619062
326.733	0.992166
328.521	0.768307
330.31	-0.149599
332.1	0.485336
333.889	0.353728
335.677	0.770683
337.464	0.731042
339.252	0.11549
341.039	0.0491266
342.826	-0.017746
344.611	0.369487
346.398	0.0404587
348.184	0.571936
349.97	0.0294514
351.754	0.203319
353.539	0.543743
355.324	0.0959463
357.106	0.57732
358.89	0.0324554
360.674	0.892353
362.455	0.203578
364.239	0.299919
366.021	0.22927
367.804	1.01256
369.584	0.442141
371.366	0.322227
373.145	1.03006
374.926	-0.225292
376.707	0.623098
378.485	0.0790739
380.265	0.314377
382.045	0.526849
383.822	1.06954
385.601	-0.26769
387.378	0.253753
389.156	0.000706673
390.934	-0.204331
392.71	0.0611124
394.487	0.280172
396.262	-0.392797
398.038	0.27304
399.813	0.351668
401.588	0.406509
403.362	0.625257
405.137	0.138818
406.912	0.591208
408.685	0.502983
410.459	0.250282
412.23	0.209005
414.004	0.496707
415.775	-0.0126925
417.548	0.323397
419.318	0.355083
421.089	0.22276
422.86	-0.121029
424.63	0.473607
426.401	0.856256
428.17	0.416547
429.94	0.46949
431.708	-0.0642872
433.478	0.223775
435.245	0.254012
437.012	0.0495806
438.781	0.454782
440.547	0.788225
442.315	0.322178
444.081	0.347003
445.846	0.651315
447.613	-0.122455
449.378	-0.100165
451.142	0.0624018
452.908	-0.498599
454.672	0.43427
456.435	0.573299
458.2	-0.335889
459.963	0.571463
461.725	0.52481
463.489	-0.00836849
465.251	0.994488
467.012	1.16337
468.775	0.939798
470.536	0.648012
472.296	0.472802
474.056	0.69255
475.817	0.584845
477.576	0.87119
479.335	0.247451
481.094	0.414932
482.854	0.931949
484.612	0.565045
486.37	0.31629
488.127	0.18577
489.886	0.570043
491.642	0.022069
493.398	0.665377
495.154	0.327784
496.91	0.223602
498.667	0.868823
500.422	0.647062
502.176	0.0957537
503.93	0.505903
505.684	0.469041
507.438	0.548525
509.191	0.509114
510.946	0.93889
512.698	0.402562
514.45	-0.111502
516.202	0.361507
517.954	1.06841
519.705	0.316477
521.456	0.175481
523.206	0.644808
524.956	0.0103769
526.706	0.807566
528.456	0.666137
530.207	0.431043
531.956	0.898477
533.704	0.662453
535.452	1.03382
537.2	0.585423
538.947	0.977061
540.694	0.690575
542.441	0.986339
544.188	0.676258
545.934	0.134593
547.68	0.731537
549.425	0.330589
551.17	1.06533
552.915	0.7347
554.659	0.959498
556.403	0.191619
558.145	0.716919
559.889	0.458414
561.632	-0.0523243
563.375	0.427278
565.117	1.09057
566.859	0.191674
568.601	-0.200409
570.342	0.0283461
572.083	0.625166
573.824	0.489206
575.565	0.377756
577.303	-0.0765061
579.043	0.480101
580.782	0.693346
582.521	0.516223
584.26	0.361437
585.998	0.182637
587.734	0.439753
589.472	0.465859
591.21	0.307113
592.947	0.355005
594.684	0.080677
596.418	-0.515699
598.154	0.13027
599.89	0.0397134
601.626	-0.00552034
603.361	0.155197
605.094	-0.122186
606.828	0.288944
608.562	0.4234
610.296	-0.0620303
612.027	0.393924
613.761	-0.135742
615.493	0.366891
617.224	0.731828
618.956	0.569289
620.688	0.314389
622.419	0.241732
624.149	1.03711
625.879	0.323776
627.61	0.342841
629.338	0.340759
631.068	0.979571
632.797	0.524857
634.525	0.13936
636.254	0.575206
637.98	0.895437
639.708	0.505693
641.436	0.113746
643.162	1.06488
644.889	0.920443
646.614	0.0259895
648.34	0.771109
650.067	0.722969
651.791	1.24628
653.516	0.636835
655.239	1.16697
656.964	0.880305
658.687	0.798992
660.411	0.717088
662.133	0.907664
663.857	0.479414
665.58	0.574502
667.301	0.850968
669.024	1.03543
670.744	0.694522
672.464	0.698353
674.186	1.0936
675.905	0.849512
677.626	1.24848
679.345	0.683635
681.065	0.829506
682.783	1.02004
684.503	0.955711
686.22	1.32708
687.939	0.93715
689.656	0.430982
691.372	0.799471
693.09	1.25954
694.806	1.44245
696.523	0.956587
698.239	0.654086
699.953	0.695888
701.67	0.920633
703.384	1.28218
705.098	0.333536
706.813	1.15289
708.526	0.869934
710.239	0.999503
711.954	0.899599
713.666	0.982574
715.378	0.791009
717.091	0.98785
718.802	1.25285
720.513	0.993348
722.226	1.73632
723.936	1.59077
725.646	1.89997
727.355	1.66326
729.067	1.1089
730.776	0.691206
732.484	0.998693
734.192	1.05653
735.902	1.36289
737.61	0.562613
739.317	0.959984
741.024	0.839064
742.731	1.0572
744.439	1.02855
746.145	0.888615
747.851	1.19985
749.556	1.73701
751.262	1.28557
752.966	1.35257
754.673	0.948331
756.377	1.60286
758.081	1.49371
759.784	1.67858
761.487	1.79703
763.19	1.28428
764.892	1.38017
766.594	1.83669
768.296	2.02077
770	1.61506
771.701	1.97628
773.402	1.38652
775.102	1.92698
776.803	1.47305
778.503	1.58549
780.202	2.06112
781.901	1.58776
783.6	2.01943
785.299	1.40897
786.997	1.90553
788.695	2.58019
790.393	1.41912
792.09	1.72634
793.787	2.32517
795.484	1.70458
797.18	1.96487
798.877	2.40636
800.572	2.19623
802.268	1.08766
803.963	1.32983
805.658	1.81892
807.35	1.56536
809.044	2.3889
810.738	2.26781
812.432	2.50481
814.125	2.53924
815.818	1.49888
817.51	1.46671
819.202	1.97098
820.894	1.40274
822.584	1.63896
824.275	1.56335
825.966	1.95698
827.657	1.4389
829.347	2.25958
831.037	1.54617
832.725	2.06019
834.414	1.59565
836.103	1.39904
837.792	1.78224
839.481	1.8522
841.167	1.94314
842.854	2.01062
844.542	1.60843
846.229	2.36896
847.914	1.38747
849.6	2.33123
851.287	2.40526
852.973	2.01041
854.656	1.75014
856.341	1.6239
858.026	1.54136
859.711	1.11969
861.393	1.41645
863.077	1.46437
864.761	1.57883
866.442	1.71511
868.125	1.6705
869.808	1.12927
871.489	1.44474
873.171	1.1961
874.85	1.01501
876.532	0.743578
878.213	1.39744
879.892	1.89335
881.572	1.3957
883.251	1.12311
884.931	1.23334
886.61	1.34236
888.287	1.40484
889.966	1.89434
891.643	1.32278
893.321	1.17872
894.997	1.0564
896.675	0.731082
898.352	1.37116
900.028	1.51559
901.704	1.47974
903.379	0.884133
905.055	1.13901
906.729	2.10765
908.404	1.67008
910.077	1.5683
911.75	1.48973
913.425	1.25631
915.097	1.20123
916.771	0.83571
918.443	1.29077
920.116	1.03656
921.787	1.38054
923.46	1.34914
925.13	1.00993
926.8	1.55573
928.472	1.1976
930.141	1.03926
931.813	1.52134
933.481	1.36374
935.15	1.42688
936.82	1.38009
938.488	1.31198
940.156	0.803764
941.825	1.22291
943.492	1.15735
945.158	1.04743
946.827	1.00271
948.493	1.00058
950.158	0.842397
951.824	1.14661
953.491	1.42864
955.156	1.20476
956.82	1.15965
958.486	0.940749
960.15	1.40816
961.814	1.23685
963.477	0.910364
965.142	1.31191
966.804	0.848594
968.467	0.825337
970.129	1.11011
971.79	1.0623
973.454	0.926461
975.115	0.592829
976.776	0.658694
978.436	1.4779
980.096	0.959295
981.756	0.440005
983.417	0.860271
985.077	0.659111
986.736	0.810432
988.394	0.783203
990.052	0.976099
991.71	0.682062
993.368	0.69743
995.025	0.381742
996.682	0.419464
998.341	1.03034
999.998	0.780929
1001.65	0.72967
1003.31	1.09621
1004.97	0.780267
1006.62	1.10191
1008.28	0.522898
1009.93	0.62518
1011.58	0.420659
1013.24	0.720793
1014.89	0.736136
1016.54	0.467201
1018.2	0.111424
1019.85	0.0846415
1021.5	0.845724
1023.16	0.951533
1024.81	1.27662
1026.46	0.924689
1028.11	0.813151
1029.76	0.788469
1031.41	1.00299
1033.06	1.04135
1034.71	0.532848
1036.36	0.96134
1038.01	0.974612
1039.66	0.791908
1041.31	1.19729
1042.95	0.777258
1044.6	1.61925
1046.25	0.920213
1047.9	1.15688
1049.54	1.19944
1051.19	0.721772
1052.84	0.72253
1054.48	1.15817
1056.13	0.724577
1057.77	1.55142
1059.42	0.660431
1061.06	0.812416
1062.71	1.09422
1064.35	1.0273
1066	1.02471
1067.64	0.49959
1069.28	0.582313
1070.93	1.20733
1072.57	1.44099
1074.21	0.28626
1075.85	1.12869
1077.49	0.410415
1079.13	0.452264
1080.78	0.819951
1082.42	0.38526
1084.06	0.795471
1085.7	0.900686
1087.34	0.744091
1088.97	0.196205
1090.61	0.945832
1092.25	0.547571
1093.89	0.171257
1095.53	0.270428
1097.17	0.499413
1098.8	0.599889
1100.44	0.46487
1102.08	0.310003
1103.71	0.479308
1105.35	-0.0387249
1106.99	0.863253
1108.62	1.22711
1110.26	0.837354
1111.89	0.768858
1113.52	0.247978
1115.16	0.435119
1116.79	0.707347
1118.43	0.100389
1120.06	0.994395
1121.69	0.624913
1123.32	0.855926
1124.96	0.68107
1126.59	0.528425
1128.22	0.611704
1129.85	-0.0314274
1131.48	0.159803
1133.11	0.372587
1134.75	0.221821
1136.37	0.476632
1138	0.388596
1139.63	-0.0848265
1141.26	-0.0462503
1142.89	0.247957
1144.52	1.05384
1146.15	0.665773
1147.78	1.3017
1149.4	0.361448
1151.03	0.849113
1152.66	0.463445
1154.28	0.333136
1155.91	0.585648
1157.54	0.135815
1159.16	0.494781
1160.79	0.343918
1162.41	0.512936
1164.04	-0.0614185
1165.66	-0.316478
1167.29	0.533846
1168.91	0.27766
1170.53	0.0414457
1172.16	0.334966
1173.78	0.732881
1175.4	0.301847
1177.02	-0.107733
1178.65	0.839089
1180.27	0.536306
1181.89	0.255816
1183.51	0.166437
1185.13	0.140531
1186.75	-0.0972843
1188.37	-0.0195618
1189.99	-0.0489087
1191.61	0.151885
1193.23	-0.195611
1194.85	-0.101924
1196.47	0.222158
1198.08	0.211142
1199.7	0.515246
1201.32	0.361029
1202.94	0.0421915
1204.55	0.122249
1206.17	-0.234244
1207.79	0.62034
1209.4	0.431929
1211.02	-0.132532
1212.63	-0.260201
1214.25	0.839911
1215.86	0.624957
1217.48	0.575286
1219.09	1.16904
1220.71	0.868906
1222.32	0.0308151
1223.93	0.293363
1225.54	0.142616
1227.16	0.158788
1228.77	0.0726166
1230.38	0.793834
1231.99	0.750826
1233.6	0.378156
1235.22	-0.0554762
1236.83	0.565928
1238.44	0.195993
1240.05	-0.132238
1241.66	0.0979576
1243.26	0.679691
1244.87	0.391936
1246.48	0.123998
1248.09	0.393264
1249.7	0.641208
1251.31	0.392358
1252.92	0.660876
1254.52	1.07474
1256.13	0.455303
1257.74	0.478047
1259.34	0.087863
1260.95	0.277718
1262.55	0.799397
1264.16	0.202806
1265.76	0.475821
1267.37	0.644766
1268.97	0.83374
1270.58	0.545006
1272.18	1.02255
1273.78	0.566226
1275.39	0.337239
1276.99	0.29412
1278.59	0.602522
1280.2	0.41326
1281.8	0.637846
1283.4	0.158977
1285	0.963022
1286.6	0.547593
1288.2	0.835927
1289.8	0.504952
1291.4	1.02164
1293	0.381084
1294.6	0.896929
1296.2	0.998403
1297.8	0.685585
1299.4	0.84622
1301	0.696169
1302.6	0.833702
1304.19	1.34061
1305.79	0.612441
1307.39	0.932682
1308.99	1.04687
1310.58	1.48867
1312.18	1.25437
1313.77	1.16435
1315.37	0.993619
1316.96	1.19145
1318.56	0.6142
1320.15	0.445405
1321.75	1.11121
1323.34	0.87916
1324.94	0.849383
1326.53	0.656152
1328.12	0.381901
1329.72	0.49351
1331.31	0.687031
1332.9	0.619335
1334.49	0.654503
1336.08	0.872519
1337.67	0.788193
1339.27	0.401032
1340.86	1.42288
1342.45	0.549677
1344.04	0.942927
1345.63	0.651836
1347.22	0.582182
1348.8	0.453993
1350.39	0.648204
1351.98	1.10423
1353.57	0.581896
1355.16	0.560627
1356.75	0.539639
1358.33	0.218658
1359.92	0.695868
1361.51	0.433329
1363.09	0.609234
1364.68	1.16342
1366.27	0.920263
1367.85	1.07633
1369.44	0.178294
1371.02	0.7745
1372.61	0.376716
1374.19	0.795678
1375.77	0.459055
1377.36	0.182158
1378.94	0.442108
1380.52	0.920062
1382.11	1.07846
1383.69	0.877715
1385.27	0.61667
1386.85	-0.00208616
1388.43	0.174169
1390.02	0.88672
1391.6	0.686752
1393.18	0.487546
1394.76	0.685387
1396.34	0.645023
1397.92	0.941055
1399.5	0.899173
1401.08	0.262387
1402.65	0.694667
1404.23	0.968203
1405.81	0.708046
1407.39	0.488374
1408.97	0.170768
1410.54	1.15738
1412.12	0.919087
1413.7	1.41077
1415.27	0.618773
1416.85	0.773404
1418.43	1.14436
1420	0.510614
1421.58	0.25247
1423.15	0.743775
1424.73	1.31498
1426.3	0.844068
1427.87	0.885317
1429.45	0.827895
1431.02	1.26174
1432.6	0.848315
1434.17	1.02446
1435.74	0.767479
1437.31	0.668128
1438.89	1.61122
1440.46	1.41498
1442.03	0.826564
1443.6	1.18209
1445.17	1.34143
1446.74	1.30439
1448.31	1.12988
1449.88	1.34878
1451.45	1.1749
1453.02	1.15876
1454.59	1.04455
1456.16	1.127
1457.72	1.20891
1459.29	1.27005
1460.86	0.896741
1462.43	1.03352
1463.99	0.460891
1465.56	0.222083
1467.13	0.572566
1468.69	0.824818
1470.26	0.547738
1471.83	0.467967
1473.39	0.957859
1474.95	0.840322
1476.52	0.664341
1478.08	0.370865
1479.65	0.234223
1481.21	0.646319
1482.78	0.431142
1484.34	0.744935
1485.9	-0.0191317
1487.47	0.567863
1489.03	0.0962029
1490.59	0.562665
1492.15	0.244659
1493.71	0.140298
1495.27	0.132296
1496.84	0.55208
1498.39	0.737138
1499.96	-0.146635
1501.52	0.408976
1503.07	-0.199142
1504.64	0.124528
1506.19	0.0606675
1507.75	1.0213
1509.31	0.18256
1510.87	0.212999
1512.43	-0.547388
1513.98	0.079514
1515.54	0.435885
1517.1	0.907049
1518.65	0.188966
1520.21	0.296575
1521.77	0.19364
1523.32	-0.0431561
1524.88	0.0826621
1526.44	0.0548196
1527.99	0.483266
1529.54	0.472767
1531.1	-0.392033
1532.65	0.452324
1534.21	0.121212
1535.76	0.132196
1537.31	-0.196162
1538.87	0.778984
1540.42	-0.0387411
1541.97	0.331917
1543.52	0.852326
1545.07	0.619528
1546.63	0.142852
1548.18	0.473775
1549.73	0.241721
1551.28	0.141357
1552.83	0.415732
1554.38	0.653025
1555.93	0.573649
1557.48	0.327893
1559.03	0.699697
1560.57	0.214782
1562.12	-0.0262446
1563.67	-0.266434
1565.22	0.221447
1566.77	0.205663
1568.31	0.0963664
1569.86	0.322723
1571.41	0.343472
1572.95	0.662669
1574.5	0.477749
1576.05	0.740877
1577.59	0.556161
1579.14	0.577146
1580.68	0.636003
1582.23	0.116572
1583.77	0.307452
1585.31	0.200029
1586.86	0.335968
1588.4	0.322478
1589.95	0.645623
1591.49	0.575543
1593.03	0.711008
1594.57	0.115831
1596.11	0.569585
1597.66	0.630384
1599.2	0.841795
1600.74	0.847632
1602.28	0.328323
1603.82	0.240355
1605.36	0.565069
1606.9	0.513025
1608.44	0.948044
1609.98	0.497782
1611.52	0.0270343
1613.06	0.475332
1614.6	0.452918
1616.13	0.167649
1617.67	0.445442
1619.21	0.61149
1620.75	0.0669918
1622.28	0.291524
1623.82	1.00336
1625.36	-0.00710821
1626.89	0.423184
1628.43	0.122567
1629.96	0.830866
1631.5	0.603131
1633.04	0.599484
1634.57	0.166791
1636.11	0.574776
1637.64	0.386368
1639.17	0.683311
1640.71	0.94278
1642.24	0.419085
1643.77	0.63975
1645.31	0.6917
1646.84	0.57549
1648.37	0.812242
1649.9	0.306312
1651.43	0.69253
1652.96	0.689881
1654.5	0.558369
1656.03	0.964942
1657.56	0.70415
1659.09	0.79478
1660.62	0.680604
1662.15	0.602358
1663.67	0.689668
1665.2	0.166909
1666.73	0.678741
1668.26	0.305545
1669.79	-0.0291433
1671.32	-0.104438
1672.84	0.557919
1674.37	0.170633
1675.9	0.390863
1677.43	0.426262
1678.95	0.534325
1680.48	-0.0020628
1682	0.233293
1683.53	0.192672
1685.05	-0.049665
1686.58	0.442108
1688.1	0.530467
1689.63	0.106144
1691.15	0.76268
1692.68	0.24743
1694.2	0.35452
1695.72	0.150576
1697.25	-0.0168171
1698.77	-0.220819
1700.29	0.250306
1701.81	0.136803
1703.33	0.879497
1704.86	0.528014
1706.38	0.431434
1707.9	0.243883
1709.42	-0.215837
1710.94	-0.112142
1712.46	-0.0266185
1713.98	0.0951304
1715.5	-0.0729084
1717.02	0.627449
1718.54	1.07352
1720.06	-0.377172
1721.57	0.484041
1723.09	0.0824289
1724.61	-0.317785
1726.13	-0.428379
1727.64	0.398145
1729.16	-0.0526862
1730.68	0.485714
1732.19	-0.0131125
1733.71	-0.0830135
1735.23	0.103024
1736.74	0.473141
1738.26	-0.0633392
1739.77	0.310369
1741.29	0.143599
1742.8	0.0768933
1744.31	0.168316
1745.83	0.464008
1747.34	0.340774
1748.85	0.0609775
1750.37	0.270968
1751.88	-0.00924826
1753.39	-0.102542
1754.91	-0.148395
1756.42	0.209693
1757.93	0.355495
1759.44	0.19435
1760.95	-0.0618706
1762.46	-0.135933
1763.97	0.0337453
1765.48	0.455236
1766.99	0.0951138
1768.5	0.0401549
1770.01	-0.490075
1771.52	-0.198726
1773.03	0.158731
1774.54	-0.0663972
1776.04	-0.122803
1777.55	0.280938
1779.06	0.189172
1780.57	0.117608
1782.07	-0.0875254
1783.58	0.0242305
1785.09	-0.0524683
1786.59	0.158675
1788.1	0.028295
1789.6	0.213653
1791.11	0.344823
1792.61	0.257932
1794.12	0.110249
1795.62	0.285192
1797.13	0.390941
1798.63	0.249279
1800.13	0.141078
1801.64	0.266208
1803.14	0.00277376
1804.64	0.171401
1806.15	0.15416
1807.65	-0.00947094
1809.15	0.0460935
1810.65	-0.0238376
1812.15	-0.112929
1813.65	-0.037806
1815.16	-0.173148
1816.66	0.01232
1818.15	-0.0110164
1819.66	0.0635967
1821.16	0.0948019
1822.65	0.158929
1824.15	0.0135269
1825.65	0.074585
1827.15	-0.0325546
1828.65	-0.185098
1830.15	0.24076
1831.64	0.100893
1833.14	0.000863075
1834.64	-0.0243559
1836.14	0.14011
1837.63	-0.0727158
1839.13	0.00745916
1840.62	-0.315969
1842.12	0.00200605
1843.62	0.0323744
1845.11	-0.240231
1846.61	0.0501881
1848.1	-0.0235953
1849.6	0.168006
1851.09	0.116255
1852.58	-0.142575
1854.08	0.175292
1855.57	0.0774841
1857.06	-0.122278
1858.55	0.296749
1860.05	0.255169
1861.54	0.178957
1863.03	0.0930901
1864.52	0.0885367
1866.01	0.242878
1867.5	0.16489
1869	-0.0835528
1870.49	-0.11593
1871.98	0.168348
1873.47	-0.330453
1874.96	0.238527
1876.44	0.241665
1877.93	0.0482922
1879.42	0.236098
1880.91	0.0504127
1882.4	-0.045815
1882.47	-0.0501423
1883.96	0.262777
1885.46	-0.244156
1886.95	-0.159081
1888.44	0.325897
1889.94	0.340716
1891.43	-0.0611072
1892.93	0.112294
1894.42	-0.00851679
1895.91	-0.31942
1897.4	0.152822
1898.89	0.364288
1900.39	0.140114
1901.88	0.0190797
1903.37	-0.0684652
1904.86	0.642603
1906.35	0.483599
1907.84	-0.0746894
1909.33	0.1491
1910.82	0.234614
1912.31	0.0779309
1913.8	-0.216985
1915.29	0.112552
1916.77	0.129654
1918.26	0.267666
1919.75	0.0760336
1921.24	-0.0982351
1922.73	0.160795
1924.21	0.0568013
1925.7	0.473037
1927.19	0.0418348
1928.67	0.338272
1930.16	0.323084
1931.64	0.255335
1933.13	0.255745
1934.61	-0.0741019
1936.1	0.235211
1937.58	0.0418139
1939.07	-0.0307465
1940.55	-0.18935
1942.04	0.360424
1943.52	0.0479698
1945	0.236516
1946.49	0.0459929
1947.97	-0.40307
1949.45	0.232961
1950.93	0.385544
1952.42	0.296314
1953.9	0.155153
1955.38	-0.140549
1956.86	0.0796027
1958.34	-0.180559
1959.82	-0.216895
1961.3	-0.081315
1962.78	-0.185652
1964.26	-0.0158935
1965.74	-0.103528
1967.22	-0.140232
1968.7	0.079196
1970.18	0.126954
1971.65	0.140281
1973.13	-0.136627
1974.61	0.371519
1976.09	0.18027
1977.57	0.0405211
1979.04	-0.337267
1980.52	-0.170238
1982	0.676387
1983.47	0.502406
1984.95	-0.112911
1986.42	0.2732
1987.9	-0.205624
1989.37	0.230978
1990.85	0.193621
1992.32	0.0386314
1993.8	0.138148
1995.27	0.39031
1996.75	0.0344753
1998.22	-0.219809
1999.69	0.201074
2001.17	0.148656
2002.64	-0.00529242
2004.11	-0.1592
2005.58	0.125381
2007.05	-0.128726
2008.53	0.342101
2010	0.0894551
2011.47	0.0561376
2012.94	0.157535
2014.41	-0.448199
2015.88	0.106665
2017.35	-0.0626769
2018.82	-0.0139556
2020.29	0.420761
2021.76	0.250336
2023.23	0.147465
2024.7	0.0788317
2026.16	0.0111275
2027.63	0.414137
2029.1	0.130609
2030.57	0.0493484
2032.03	-0.131902
2033.5	0.00605631
2034.97	0.194496
2036.44	-0.0707784
2037.9	-0.000535011
2039.37	0.2039
2040.83	0.139404
2042.3	0.361001
2043.76	0.330999
2045.23	0.385818
2046.69	0.104569
2048.16	-0.0419712
2049.62	-0.0540547
2051.08	-0.21862
2052.55	0.340787
2054.01	0.325531
2055.47	0.426957
2056.94	-0.0290546
2058.4	-0.0303817
2059.86	0.102904
2061.32	-0.167724
2062.79	0.437714
2064.25	0.185338
2065.71	0.0515914
2067.17	0.0699496
2068.63	-0.180534
2070.09	0.57915
2071.55	-0.462296
2073.01	0.230156
2074.47	0.282674
2075.93	0.570709
2077.39	0.218539
2078.85	0.0849915
2080.31	0.0521541
2081.76	0.136766
2083.22	0.187189
2084.68	0.203369
2086.13	0.404017
2087.59	-0.10218
2089.05	-0.104034
2090.51	0.448275
2091.96	0.378775
2093.42	0.460303
2094.87	0.0216599
2096.33	0.370906
2097.78	0.116231
2099.24	0.229645
2100.69	0.141952
2102.15	0.104672
2103.6	-0.149042
2105.06	0.0157156
2106.51	-0.118958
2107.96	0.397705
2109.42	0.397472
2110.87	0.196812
2112.32	0.495214
2113.77	0.742023
2115.23	0.371511
2116.68	0.0674028
2118.13	0.162686
2119.58	-0.0897951
2121.03	0.190277
2122.48	0.0735269
2123.93	0.422219
2125.38	0.40657
2126.83	0.374173
2128.28	0.622845
2129.73	0.721172
2131.18	0.17245
2132.63	0.368585
2134.08	0.266668
2135.53	0.165425
2136.97	0.197551
2138.42	0.0492129
2139.87	0.348473
2141.32	0.368021
2142.76	0.0577555
2144.21	0.475625
2145.66	0.24851
2147.1	0.153456
2148.55	0.0247602
2150	0.640873
2151.44	0.162926
2152.89	0.313817
2154.33	0.298411
2155.78	0.49803
2157.22	0.233823
2158.66	0.38426
2160.11	0.55223
2161.55	0.390145
2163	0.610608
2164.44	-0.0633678
2165.88	0.590488
2167.32	0.514244
2168.77	0.819503
2170.21	-0.2068
2171.65	0.361799
2173.09	0.52986
2174.53	0.58042
2175.97	0.397679
2177.41	0.265011
2178.85	0.0996585
2180.29	-0.0649967
2181.73	0.602294
2183.17	0.322304
2184.61	0.441617
2186.05	0.627576
2187.49	0.497482
2188.93	0.517148
2190.37	0.253839
2191.81	0.439752
2193.24	0.591886
2194.68	0.576558
2196.12	0.543236
2197.56	0.25888
2198.99	0.688553
2200.43	0.0866799
2201.87	0.38211
2203.3	-0.23494
2204.74	0.243903
2206.17	0.656696
2207.61	0.274344
2209.04	0.173717
2210.48	0.155399
2211.91	0.516831
2213.35	-0.0484457
2214.78	0.278921
2216.21	0.441186
2217.65	0.5546
2219.08	-0.00728893
2220.51	0.338578
2221.95	0.288805
2223.38	0.0902929
2224.81	0.368517
2226.24	0.546399
2227.67	0.278825
2229.1	0.109336
2230.54	0.481014
2231.97	0.294518
2233.4	-0.431549
2234.83	0.299764
2236.26	-0.129433
2237.69	0.226789
2239.11	0.094439
2240.54	-0.18316
2241.97	0.486587
2243.4	0.243868
2244.83	0.115599
2246.26	0.313099
2247.69	0.395257
2249.11	0.133415
2250.54	0.0331378
2251.97	0.338671
2253.4	-0.105065
2254.82	-0.0766335
2256.25	0.342378
2257.67	0.292026
2259.1	0.0815887
2260.53	0.0842152
2261.95	0.104856
2263.38	0.272871
2264.8	0.00257301
2266.23	0.23578
2267.65	0.192096
2269.07	0.408083
2270.5	0.184067
2271.92	-0.431235
2273.34	0.141948
2274.77	0.0475569
2276.19	0.0836115
2277.61	0.510966
2279.03	-0.072144
2280.46	-0.329472
2281.88	0.1959
2283.3	0.150445
2284.72	0.496636
2286.14	0.0270243
2287.56	0.177859
2288.98	0.508783
2290.4	-0.140124
2291.82	0.338568
2293.24	0.261729
2294.66	0.152088
2296.08	0.107762
2297.5	0.227108
2298.92	-0.210411
2300.34	0.154903
2301.76	-0.135132
2303.17	0.0341029
2304.59	0.433433
2306.01	0.422554
2307.43	0.214237
2308.84	-0.142613
2310.26	-0.138393
2311.68	-0.15091
2313.09	0.0668802
2314.51	-0.126397
2315.92	-0.0229206
2317.34	0.229487
2318.75	0.0539198
2320.17	0.0429406
2321.58	0.130177
2323	0.150096
2324.41	0.168314
2325.82	0.597311
2327.24	0.496943
2328.65	0.445502
2330.06	0.476591
2331.48	0.656486
2332.89	-0.249128
2334.3	-0.00181532
2335.71	-0.116335
2337.12	0.393861
2338.54	0.163191
2339.95	-0.0681257
2341.36	0.127098
2342.77	0.091928
2344.18	0.105968
2345.59	0.218514
2347	0.167341
2348.41	0.230845
2349.82	0.06497
2351.23	0.242049
2352.64	-0.333195
2354.04	-0.0432429
2355.45	0.196726
2356.86	0.0939841
2358.27	0.0402255
2359.68	0.0679088
2361.08	0.0306787
2362.49	0.0583725
2363.9	0.0211439
2365.3	-0.0160441
2366.71	0.383338
2368.12	-0.105668
2369.52	0.294202
2370.93	0.0818634
2372.33	0.0157747
2373.74	-0.017302
2375.14	0.159205
2376.55	0.0456948
2377.95	0.204895
2379.36	-0.649539
2380.76	0.503003
2382.16	-0.0316248
2383.57	-0.0531788
2384.97	0.0850883
2386.37	0.0874949
2387.78	0.0905352
2389.18	-0.168654
2390.58	0.242633
2391.98	-0.0144844
2393.38	-0.270549
2394.79	-0.0168309
2396.19	0.0305071
2397.59	0.189527
2398.99	-0.127789
2400.39	-0.0633454
2401.79	0.0807242
2403.19	0.00244904
2404.59	-0.28247
2405.99	-0.0122547
2407.39	-0.0602436
2408.78	-0.0136037
2410.18	0.238798
2411.58	0.316809
2412.98	0.252815
2414.38	-0.0476794
2415.77	-0.204535
2417.17	-0.186299
2418.57	-0.0724039
2419.97	0.136833
2421.36	0.377752
2422.76	0.269956
2424.15	0.415421
2425.55	0.244032
2426.95	-0.386663
2428.34	0.156085
2429.74	0.287543
2431.13	0.197515
2432.52	0.171021
2433.92	0.14414
2435.31	0.291181
2436.71	0.0399628
2438.1	0.184808
2439.49	0.217457
2440.89	0.630517
2442.28	0.249142
2443.67	0.391478
2445.06	-0.100901
2446.46	-0.0222073
2447.85	-0.102157
2449.24	0.00803328
2450.63	0.134116
2452.02	-0.0244207
2453.41	0.308217
2454.8	0.372401
2456.19	0.278913
2457.58	0.13824
2458.97	-0.366298
2460.36	-0.159457
2461.75	0.410393
2463.14	-0.111273
2464.53	-0.127407
2465.92	0.0299659
2467.31	-0.00229931
2468.69	-0.066134
2470.08	0.311538
2471.47	-0.336083
2472.86	-0.0382366
2474.24	-0.00894499
2475.63	0.0984812
2477.02	0.221173
2478.4	0.296501
2479.79	-0.0518689
2481.17	0.0237947
2482.56	0.146302
2483.94	-0.044817
2485.33	0.0922198
2486.72	-0.318655
2488.1	-0.682542
2489.48	0.185182
2490.87	-0.038981
2492.25	0.31295
2493.64	-0.00285625
2495.02	-0.223969
2496.4	0.393201
2497.79	-0.182572
2499.17	0.0630322
2500.55	0.184328
2501.93	-0.112422
2503.31	-0.115967
2504.69	-0.197269
2506.08	-0.12476
2507.46	-0.129551
2508.84	0.419213
2510.22	-0.169374
2511.6	0.363701
2512.98	-0.038702
2514.36	-0.271327
2515.74	0.17047
2517.12	0.214546
2518.5	0.258987
2519.88	-0.0021019
2521.25	-0.140911
2522.63	0.238952
2524.01	0.236372
2525.39	0.355179
2526.77	-0.135544
2528.14	0.135592
2529.52	0.209442
2530.9	0.0867844
2532.27	-0.368844
2533.65	0.255342
2535.03	-0.0619445
2536.4	-0.151341
2537.78	0.260119
2539.15	0.0176835
2540.53	0.230256
2541.9	0.442402
2543.28	0.0476928
2544.65	-0.194512
2546.03	-0.13244
2547.4	0.0973516
2548.77	0.130591
2550.15	0.118409
2551.52	-0.076221
2552.89	0.532828
2554.27	-0.0426197
2555.64	0.140048
2557.01	0.170532
2558.38	0.1554
2559.75	0.0798235
2561.12	0.216853
2562.5	0.0815325
2563.87	0.204279
2565.24	0.372808
2566.61	-0.170723
2567.98	0.119302
2569.35	0.333587
2570.72	-0.0886941
2572.09	0.0649962
2573.46	0.233923
2574.83	-0.0670075
2576.19	-0.231512
2577.56	-0.244467
2578.93	0.348943
2580.3	0.0626659
2581.67	0.170327
2583.04	0.141248
2584.4	0.339392
2585.77	0.143337
2587.14	-0.0222821
2588.5	-0.142272
2589.87	0.0257802
2591.23	0.0725002
2592.6	0.0885816
2593.97	0.270715
2595.33	0.0582595
2596.7	0.147952
2598.06	0.146195
2599.43	0.144146
2600.79	-0.0240493
2602.15	-0.1313
2603.52	-0.0719261
2604.88	-0.0121946
2606.25	0.0929017
2607.61	0.182623
2608.97	0.286734
2610.33	0.17896
2611.7	0.145615
2613.06	0.276865
2614.42	0.166927
2615.78	-0.0630426
2617.15	0.187312
2618.51	-0.176424
2619.87	0.0745559
2621.23	0.146237
2622.59	-0.0955811
2623.95	0.320133
2625.31	-0.115327
2626.67	-0.132824
2628.03	0.0133877
2629.39	-0.138639
2630.75	0.0516195
2632.1	0.241496
2633.46	0.638995
2634.82	0.174968
2636.18	0.112091
2637.54	0.212308
2638.89	-0.0725694
2640.25	-0.0166068
2641.61	0.0542397
2642.97	-0.0520959
2644.32	0.0632939
2645.68	0.266993
2647.03	0.278468
2648.39	0.480899
2649.75	-0.156473
2651.1	-0.0139303
2652.46	0.0252833
2653.81	0.372659
2655.17	-0.0862694
2656.52	0.364429
2657.88	0.0981536
2659.23	0.183954
2660.58	0.255363
2661.94	0.165854
2663.29	0.236684
2664.64	-0.0726824
2666	0.0116596
2667.35	0.0372233
2668.7	-0.286816
2670.05	0.277413
2671.4	0.259588
2672.76	0.27132
2674.11	0.210895
2675.46	0.267084
2676.81	0.251102
2678.16	0.409663
2679.51	0.293259
2680.86	-0.155785
2682.21	0.0194788
2683.56	0.0941234
2684.91	0.25653
2686.26	0.100193
2687.61	0.117849
2688.96	0.207263
2690.3	-0.0239148
2691.65	0.222629
2693	0.0471458
2694.35	0.0741153
2695.7	-0.000547886
2697.04	0.316402
2698.39	0.0548019
2699.74	-0.00277042
2701.08	0.25948
2702.43	0.218767
2703.77	0.265761
2705.12	-0.0492344
2706.47	0.389737
2707.81	0.233987
2709.16	0.135874
2710.5	0.153584
2711.85	0.359949
2713.19	-0.000371933
2714.53	0.0605674
2715.88	0.412301
2717.22	0.575067
2718.57	0.141268
2719.91	0.594608
2721.25	0.349215
2722.59	0.117947
2723.94	0.0609698
2725.28	0.120122
2726.62	0.266328
2727.96	0.106651
2729.3	0.223322
2730.65	0.296207
2731.99	0.179916
2733.33	0.311013
2734.67	0.238573
2736.01	0.166296
2737.35	0.254114
2738.69	0.283743
2740.03	0.13869
2741.37	0.356836
2742.71	-0.210576
2744.05	0.122861
2745.38	0.00526905
2746.72	0.0907636
2748.06	0.263136
2749.4	0.0436416
2750.74	-0.103014
2752.07	0.0550809
2753.41	0.343667
2754.75	0.0671515
2756.09	-0.0208011
2757.42	0.152046
2758.76	0.0499406
2760.09	-0.00842476
2761.43	0.136168
2762.77	0.26661
2764.1	-0.42746
2765.44	0.0649509
2766.77	0.513582
2768.11	0.223715
2769.44	-0.13922
2770.77	-0.156008
2772.11	-0.130397
2773.44	0.18304
2774.77	0.048605
2776.11	-0.0424232
2777.44	0.16919
2778.77	-0.0649385
2780.11	-0.125901
2781.44	-0.100385
2782.77	-0.304452
2784.1	0.180126
2785.43	0.348728
2786.77	0.0302534
2788.1	-0.044126
2789.43	-0.0177255
2790.76	0.066505
2792.09	-0.263402
2793.42	-0.135371
2794.75	0.207025
2796.08	-0.122528
2797.41	-0.109457
2798.74	0.0602751
2800.07	0.272371
2801.4	-0.300516
2802.72	0.196392
2804.05	0.322088
2805.38	0.304901
2806.71	0.315752
2808.04	-0.0436888
2809.36	0.279288
2810.69	0.189936
2812.02	0.00180197
2813.34	0.155102
2814.67	0.0824656
2816	-0.130827
2817.32	0.0394235
2818.65	0.536088
2819.97	0.281578
2821.3	-0.483459
2822.62	0.281682
2823.95	0.167679
2825.27	-0.0740137
2826.6	0.222559
2827.92	0.0238299
2829.25	0.122852
2830.57	0.151418
2831.89	0.137678
2833.22	0.293768
2834.54	0.477927
2835.86	0.364498
2837.18	0.731794
2838.51	0.575196
2839.83	0.432663
2841.15	0.997186
2842.47	1.25079
2843.79	1.03842
2845.11	1.25064
2846.43	1.40681
2847.76	1.33716
2849.08	1.8329
2850.4	1.57932
2851.72	1.28296
2853.04	1.31129
2854.36	1.56541
2855.67	1.22591
2856.99	1.39505
2858.31	1.3382
2859.63	1.74739
2860.95	1.7186
2862.27	1.9437
2863.58	1.77321
2864.9	1.91303
2866.22	1.64367
2867.54	1.95285
2868.85	1.65593
2870.17	1.66958
2871.49	1.99348
2872.8	1.93655
2874.12	2.07637
2875.43	2.46885
2876.75	2.53634
2878.07	2.09652
2879.38	2.47264
2880.7	2.41285
2882.01	2.26945
2883.32	2.18315
2884.64	2.29421
2885.95	1.94245
2887.27	2.0681
2888.58	2.03904
2889.89	2.45831
2891.21	2.16153
2892.52	2.6634
2893.83	2.14204
2895.14	2.19551
2896.46	2.26354
2897.77	1.94048
2899.08	1.81419
2900.39	2.8916
2901.7	2.5004
2903.01	2.54304
2904.32	2.69769
2905.63	2.43293
2906.94	2.51826
2908.25	2.14256
2909.56	2.66279
2910.87	2.73584
2912.18	2.68296
2913.49	2.68553
2914.8	2.86913
2916.11	2.71549
2917.42	2.40683
2918.72	2.74124
2920.03	2.90746
2921.34	3.03209
2922.65	2.4446
2923.95	3.15819
2925.26	3.01989
2926.57	3.28744
2927.88	2.85608
2929.18	2.99763
2930.49	3.30656
2931.79	2.98607
2933.1	3.25252
2934.4	3.00177
2935.71	2.62536
2937.01	2.75221
2938.32	3.0329
2939.62	2.79674
2940.93	3.14783
2942.23	2.91262
2943.54	2.55241
2944.84	2.40267
2946.14	2.11379
2947.45	2.66456
2948.75	2.23588
2950.05	2.46422
2951.35	2.00533
2952.66	2.04925
2953.96	2.20424
2955.26	1.84097
2956.56	1.63231
2957.86	2.0828
2959.16	2.21323
2960.46	1.33705
2961.77	1.56855
2963.07	1.56245
2964.37	1.68238
2965.66	1.50656
2966.96	1.73707
2968.26	1.58729
2969.56	1.74628
2970.86	1.28638
2972.16	1.22039
2973.46	1.42197
2974.76	1.03247
2976.06	0.811372
2977.35	0.955553
2978.65	1.00012
2979.95	0.945023
2981.25	1.17054
2982.54	0.903195
2983.84	1.1143
2985.14	0.735671
2986.43	0.372257
2987.73	0.614055
2989.02	0.786265
2990.32	0.747905
2991.62	0.793578
2992.91	0.557498
2994.21	0.601677
2995.5	0.701265
2996.8	0.449277
2998.09	0.492065
2999.38	0.506921
3000.68	0.36789
3001.97	0.705935
3003.26	0.553631
3004.56	0.513582
3005.85	0.165306
3007.14	0.250846
3008.43	0.391726
3009.73	0.364049
3011.02	-0.0273952
3012.31	0.153896
3013.6	0.0977364
3014.89	0.0698223
3016.19	0.112078
3017.48	0.433251
3018.77	0.267426
3020.06	-0.00939608
3021.35	0.158595
3022.64	0.103575
3023.93	0.228383
3025.22	-0.00803852
3026.5	0.240608
3027.79	0.240023
3029.08	0.30935
3030.37	-0.00722408
3031.66	0.188565
3032.95	0.0674434
3034.24	0.153669
3035.52	0.170524
3036.81	-0.0341172
3038.1	-0.198328
3039.39	0.00811195
3040.67	0.33671
3041.96	-0.0362453
3043.25	0.290817
3044.53	-0.217403
3045.82	0.0970759
3047.1	0.385121
3048.39	0.00547409
3049.67	-0.153967
3050.96	0.0425634
3052.24	-0.00596762
3053.53	-0.136304
3054.81	-0.348851
3056.1	0.051775
3057.38	-0.284754
3058.67	0.182397
3059.95	0.145012
3061.23	0.28483
3062.52	0.13956
3063.8	0.240114
3065.08	-0.106912
3066.36	0.00930166
3067.65	0.330201
3068.93	0.202736
3070.21	0.0614853
3071.49	-0.0259275
3072.77	0.00826979
3074.05	0.177568
3075.33	-0.183838
3076.61	-0.0290442
3077.89	0.125865
3079.17	0.240681
3080.45	0.139458
3081.73	0.269982
3083.01	0.374299
3084.29	0.139963
3085.57	-0.0129523
3086.85	0.064558
3088.13	0.155191
3089.41	0.0281959
3090.68	-0.329743
3091.96	0.126381
3093.24	0.107703
3094.52	0.00789452
3095.79	0.315098
3097.07	0.188486
3098.35	0.0483494
3099.62	0.30116
3100.9	0.120316
3102.18	0.427156
3103.45	0.178957
3104.73	0.188433
3106	0.0630999
3107.28	-0.00742674
3108.55	0.139301
3109.83	0.435723
3111.1	0.394526
3112.38	0.299702
3113.65	0.313544
3114.93	0.178304
3116.2	0.463056
3117.47	0.530352
3118.75	0.529057
3120.02	0.12014
3121.29	0.429338
3122.57	0.697254
3123.84	0.314594
3125.11	0.392782
3126.38	0.227612
3127.65	0.0630002
3128.92	0.318163
3130.2	0.3436
3131.47	0.369121
3132.74	0.381066
3134.01	0.514337
3135.28	0.404147
3136.55	0.199259
3137.82	0.358351
3139.09	0.58433
3140.36	0.540642
3141.63	0.591225
3142.9	0.31949
3144.17	0.478191
3145.43	0.516356
3146.7	0.702456
3147.97	0.80844
3149.24	0.580016
