200.563	0.647571
202.377	0.680278
204.194	0.714236
206.008	-0.491054
207.821	0.20113
209.634	0.0899944
211.449	0.341722
213.262	-0.088336
215.074	0.135526
216.885	-0.320381
218.699	-0.121674
220.51	-0.0677624
222.321	1.12404
224.131	0.260771
225.941	0.148065
227.751	0.132034
229.562	0.33274
231.371	-0.432986
233.18	0.466009
234.988	1.19584
236.796	0.625224
238.603	0.732513
240.411	-0.289785
242.219	0.37819
244.026	0.0350294
245.832	0.415328
247.638	0.0934706
249.443	0.0816765
251.248	-0.103335
253.053	-0.050559
254.857	0.265203
256.661	0.049675
258.465	0.751139
260.268	0.129281
262.071	0.0882416
263.874	0.314273
265.678	1.48141
267.48	-0.0740805
269.282	-0.208534
271.083	0.451403
272.884	0.314146
274.684	0.295445
276.484	0.443196
278.284	0.323219
280.084	-0.160696
281.883	-0.0450792
283.682	0.332368
285.48	-0.518052
287.276	0.000121117
289.074	-0.130109
290.871	0.219889
292.668	-0.362471
294.465	0.756159
296.261	1.01482
298.057	-0.326578
299.853	0.603159
301.648	0.194435
303.443	0.429382
305.237	0.137376
307.032	0.607604
308.823	0.266496
310.617	-0.00205994
312.41	0.707587
314.203	0.323709
315.995	0.513783
317.788	1.13492
319.579	0.35283
321.369	0.9063
323.16	0.221252
324.951	0.800616
326.741	0.35401
328.531	0.623219
330.321	-0.3036
332.108	1.32623
333.897	0.945078
335.686	0.943577
337.474	0.508129
339.26	0.691912
341.048	0.538656
342.835	0.264888
344.622	0.875299
346.406	0.124467
348.192	0.998652
349.978	0.846522
351.764	0.479595
353.547	0.827814
355.332	0.98348
357.116	0.636428
358.901	0.287864
360.682	0.462023
362.466	0.420494
364.249	0.520616
366.03	0.263196
367.812	0.0763369
369.594	0.457668
371.374	0.197508
373.155	0.315455
374.936	0.645268
376.715	0.738357
378.495	-0.0876322
380.273	0.172752
382.053	0.245873
383.832	0.532217
385.609	0.443785
387.388	0.263041
389.164	0.459682
390.942	0.634023
392.72	1.13816
394.495	-0.0478058
396.272	0.598457
398.047	0.56374
399.823	0.152935
401.597	0.751446
403.372	0.409543
405.145	0.37193
406.92	0.380276
408.693	0.434727
410.467	0.723423
412.239	-0.208307
414.012	0.386002
415.783	0.300671
417.556	-0.0886555
419.327	0.907288
421.099	0.237373
422.869	0.130237
424.64	0.397737
426.409	0.570076
428.18	0.342187
429.948	0.301455
431.718	0.894396
433.486	0.00911903
435.253	0.462045
437.022	-0.141244
438.789	0.75651
440.558	0.384918
442.324	0.292263
444.089	-0.131382
445.857	-0.088377
447.622	-0.117195
449.386	0.180799
451.153	0.338201
452.917	0.332349
454.682	-0.0464182
456.446	-0.401343
458.208	1.10705
459.973	0.751667
461.735	1.21164
463.497	0.97607
465.259	-0.138903
467.022	0.934234
468.783	0.430842
470.544	-0.140333
472.306	0.219365
474.066	-0.70216
475.825	0.585966
477.585	0.98662
479.346	0.1036
481.104	0.290872
482.862	0.198869
484.62	0.318061
486.38	0.393267
488.137	0.9142
489.894	0.248961
491.65	0.377794
493.407	0.250665
495.164	0.240503
496.92	0.394041
498.675	0.125691
500.43	0.231479
502.184	0.242683
503.939	1.05135
505.694	0.5903
507.448	0.361984
509.201	0.201992
510.954	0.863335
512.706	0.322579
514.459	0.579842
516.21	0.082408
517.962	0.265647
519.715	0.235865
521.466	0.181629
523.216	0.760861
524.966	0.376916
526.716	0.368675
528.466	0.852829
530.215	0.305241
531.964	0.99896
533.712	0.4502
535.46	0.695807
537.208	0.70541
538.955	0.152807
540.703	0.112843
542.449	0.0952263
544.196	0.0539017
545.942	0.082346
547.688	0.273408
549.433	0.023921
551.178	0.330985
552.923	0.591357
554.667	1.05938
556.412	0.53434
558.155	0.610406
559.899	-0.0271463
561.642	0.280903
563.385	0.244225
565.127	0.139439
566.867	0.701789
568.609	0.323349
570.35	0.038516
572.092	-0.0148687
573.832	1.17265
575.573	0.458612
577.313	0.916906
579.053	0.436126
580.79	0.231548
582.529	0.394562
584.268	0.442033
586.006	0.626144
587.745	0.0955172
589.482	-0.27583
591.218	0.0188303
592.955	-0.239343
594.692	0.353584
596.428	-0.11175
598.164	0.0670748
599.898	0.0843725
601.634	0.353578
603.369	0.13803
605.104	0.426432
606.836	-0.435987
608.57	0.423777
610.304	0.364416
612.037	0.122313
613.769	-0.278949
615.501	-0.0143967
617.234	0.22726
618.966	0.0558062
620.696	0.203531
622.427	-0.291063
624.159	-0.146018
625.887	-0.937638
627.618	0.419047
629.348	0.453569
631.076	0.149053
632.806	0.509013
634.535	0.0259905
636.262	0.227137
637.99	0.28899
639.716	-0.268953
641.444	0.287326
643.172	-0.18586
644.897	0.205416
646.624	0.141555
648.348	0.466826
650.075	-0.453628
651.801	-0.482683
653.524	0.0614777
655.249	0.360394
656.972	-0.270772
658.697	0.0325613
660.419	0.313099
662.143	0.295124
663.865	-0.320167
665.588	-0.161819
667.309	0.337238
669.032	0.378137
670.752	0.237192
672.474	0.762465
674.194	-0.105356
675.915	0.311862
677.634	0.31847
679.355	-0.386792
681.073	0.0548172
682.793	0.425817
684.511	0.265007
686.23	0.377788
687.947	0.281289
689.664	0.459784
691.382	-0.0537128
693.098	0.123035
694.816	-0.346119
696.531	0.450133
698.247	0.04737
699.963	0.28756
701.678	0.158078
703.392	-0.0184231
705.108	-0.149659
706.821	-0.487868
708.534	0.366327
710.249	0.737485
711.962	0.123215
713.674	0.493111
715.388	0.542168
717.099	0.750933
718.81	1.0279
720.523	-0.222317
722.234	0.0554905
723.944	0.560409
725.654	0.905194
727.365	0.317794
729.075	0.615882
730.784	0.482121
732.492	0.642554
734.202	0.372563
735.91	0.0354462
737.618	1.41549
739.325	1.07949
741.034	0.610164
742.741	0.481058
744.447	0.151295
746.153	0.881315
747.859	0.127934
749.564	0.253828
751.271	0.943659
752.976	0.533107
754.681	0.9117
756.385	0.84239
758.088	0.730054
759.792	1.3405
761.495	0.104431
763.2	0.785148
764.902	1.06005
766.604	1.13044
768.306	1.13065
770.008	1.30888
771.709	1.37141
773.41	1.0477
775.11	1.22093
776.811	1.10102
778.51	0.960232
780.21	0.911874
781.909	1.88301
783.608	1.0444
785.307	1.53937
787.005	1.57851
788.703	1.47761
790.401	1.19148
792.098	1.85143
793.795	1.65014
795.492	0.343695
797.188	1.00153
798.884	2.15595
800.58	2.09602
802.276	1.16072
803.971	2.18357
805.665	0.485354
807.36	1.10188
809.054	1.55904
810.748	1.27355
812.441	2.01872
814.135	1.73137
815.826	2.63064
817.518	1.51536
819.21	1.83233
820.902	2.0597
822.594	1.23864
824.285	1.49011
825.976	2.30026
827.665	1.64265
829.355	2.48123
831.045	1.8764
832.735	2.34462
834.424	1.34492
836.111	1.79522
837.8	2.15647
839.488	1.7796
841.177	1.60131
842.864	2.00207
844.55	1.66499
846.237	1.48523
847.924	1.95627
849.61	1.71521
851.295	0.760592
852.98	1.62235
854.666	1.88124
856.349	1.55632
858.034	1.85882
859.719	1.48445
861.403	1.96278
863.085	1.80862
864.769	0.9314
866.452	1.26979
868.133	1.63009
869.816	1.94484
871.498	1.51488
873.179	1.21991
874.86	1.89503
876.54	1.75795
878.221	1.84658
879.902	1.5062
881.58	0.939498
883.26	1.74888
884.938	1.81177
886.618	1.30847
888.297	1.1192
889.974	1.62705
891.653	2.08722
893.329	1.73423
895.007	1.42518
896.683	1.09279
898.36	1.14144
900.035	1.57008
901.712	1.16772
903.387	0.877522
905.063	0.699551
906.737	1.39284
908.412	0.992988
910.085	1.41918
911.76	1.00039
913.433	0.672269
915.107	0.54504
916.779	1.10577
918.452	1.17782
920.124	1.0064
921.797	0.504264
923.467	0.557078
925.138	0.45734
926.81	1.24324
928.48	0.684446
930.151	1.18675
931.82	1.07201
933.489	0.670893
935.16	0.733324
936.828	0.862513
938.496	0.684115
940.165	0.772001
941.833	1.56746
943.5	0.841683
945.168	0.998176
946.834	0.998637
948.5	1.04078
950.168	0.661081
951.834	0.853663
953.499	0.69344
955.163	0.579543
956.83	1.39552
958.494	0.473568
960.158	0.812495
961.821	0.358613
963.487	-0.339328
965.15	0.0213604
966.812	0.533855
968.474	0.932285
970.138	0.398786
971.8	0.483751
973.461	0.016511
975.123	0.192553
976.783	0.879636
978.446	0.352242
980.106	0.279007
981.766	0.205175
983.425	0.339866
985.084	-0.391292
986.743	0.734305
988.402	1.0383
990.06	0.0357838
991.72	0.116429
993.378	0.152643
995.035	-0.00969887
996.692	0.225407
998.349	0.70274
1000.01	0.914792
1001.66	1.25818
1003.32	0.676299
1004.97	0.60059
1006.63	0.393016
1008.28	0.866637
1009.94	0.330672
1011.59	0.870522
1013.25	0.402214
1014.9	0.0225992
1016.55	0.235002
1018.21	0.776061
1019.86	0.749101
1021.51	0.330042
1023.16	0.983695
1024.81	1.07018
1026.47	1.33223
1028.12	1.00429
1029.77	1.09062
1031.42	0.672923
1033.07	1.34489
1034.72	1.643
1036.37	1.3502
1038.02	2.12414
1039.67	1.37317
1041.31	1.12459
1042.96	0.791231
1044.61	1.2862
1046.26	0.740946
1047.91	0.697938
1049.55	0.63539
1051.2	1.24783
1052.84	0.188729
1054.49	1.95456
1056.14	1.98237
1057.78	1.46629
1059.43	1.84078
1061.07	1.69257
1062.72	1.10834
1064.36	1.3926
1066	1.06664
1067.65	1.28267
1069.29	1.34516
1070.93	1.90618
1072.58	1.4247
1074.22	1.53017
1075.86	1.59367
1077.5	1.11687
1079.14	1.48759
1080.78	1.12204
1082.42	0.474546
1084.06	1.38702
1085.7	0.931278
1087.34	1.20976
1088.98	1.03039
1090.62	1.45472
1092.26	1.18502
1093.9	0.677644
1095.54	1.25024
1097.17	1.09009
1098.81	1.03982
1100.45	0.690655
1102.09	0.645643
1103.72	0.796624
1105.36	-0.0616636
1106.99	0.371367
1108.63	0.416781
1110.27	0.783216
1111.9	0.910902
1113.53	0.477804
1115.17	0.451488
1116.8	1.36833
1118.43	1.06222
1120.07	0.371873
1121.7	0.625761
1123.33	1.20185
1124.97	0.773293
1126.6	0.966446
1128.23	1.48133
1129.86	1.07765
1131.49	0.0976095
1133.12	0.742786
1134.75	0.896013
1136.38	0.364404
1138.01	0.194869
1139.64	0.643302
1141.27	-0.297631
1142.9	-0.406055
1144.53	0.978745
1146.16	0.210118
1147.78	0.828523
1149.41	0.361172
1151.04	0.533654
1152.67	0.0458994
1154.29	0.941716
1155.92	0.729796
1157.54	-0.120386
1159.17	0.83832
1160.8	-0.137345
1162.42	0.228231
1164.05	0.701362
1165.67	0.345901
1167.29	0.160143
1168.92	-0.40967
1170.54	-0.152477
1172.16	-0.683928
1173.79	0.715035
1175.41	0.201165
1177.03	0.00543022
1178.65	0.3822
1180.28	0.103197
1181.9	0.54492
1183.52	0.0356369
1185.14	0.435452
1186.76	0.11559
1188.38	-0.0371256
1190	0.22947
1191.62	-0.138496
1193.24	0.249446
1194.86	0.194468
1196.47	0.55902
1198.09	0.672642
1199.71	0.976562
1201.33	0.572714
1202.95	0.173034
1204.56	0.841454
1206.18	0.0517225
1207.8	0.265262
1209.41	-0.0841732
1211.03	0.608205
1212.64	0.067894
1214.26	0.379564
1215.87	0.771229
1217.49	0.723066
1219.1	1.02696
1220.71	0.458308
1222.33	0.2028
1223.94	0.198002
1225.55	1.044
1227.16	0.877017
1228.78	0.484544
1230.39	1.25182
1232	0.407975
1233.61	0.868061
1235.22	1.06103
1236.83	1.31762
1238.44	0.893402
1240.05	1.56582
1241.66	1.24596
1243.27	1.07029
1244.88	1.07973
1246.49	1.7293
1248.1	1.05319
1249.71	1.72105
1251.32	1.41607
1252.92	2.12503
1254.53	1.49049
1256.14	1.22974
1257.74	1.34295
1259.35	1.49912
1260.96	1.47023
1262.56	0.758574
1264.17	2.18012
1265.77	2.21364
1267.38	1.47916
1268.98	1.88335
1270.59	1.83006
1272.19	1.23624
1273.79	2.23746
1275.4	2.22133
1277	1.33358
1278.6	2.59959
1280.21	1.73109
1281.81	2.97394
1283.41	2.08513
1285.01	1.73547
1286.61	1.96612
1288.21	2.21873
1289.81	2.98915
1291.41	3.45014
1293.01	3.06373
1294.61	3.70917
1296.21	3.36103
1297.81	3.91899
1299.41	4.24687
1301.01	3.1289
1302.6	3.16435
1304.2	3.79509
1305.8	3.37509
1307.4	3.34536
1308.99	3.17168
1310.59	3.16234
1312.19	2.80559
1313.78	2.38931
1315.38	3.13985
1316.97	2.19596
1318.57	2.66193
1320.16	2.49502
1321.76	3.03991
1323.35	2.07581
1324.94	2.14792
1326.54	2.72545
1328.13	1.902
1329.72	2.11405
1331.32	2.7525
1332.91	2.58467
1334.5	2.46064
1336.09	2.41969
1337.68	1.73411
1339.27	1.37082
1340.87	2.2948
1342.45	1.92647
1344.04	1.91804
1345.64	2.20931
1347.22	1.95889
1348.81	1.71135
1350.4	2.20801
1351.99	2.32744
1353.58	1.80979
1355.17	1.61397
1356.75	1.77836
1358.34	1.54253
1359.93	2.14424
1361.51	1.60634
1363.1	1.58654
1364.69	1.12776
1366.27	1.00856
1367.86	1.98577
1369.44	1.33149
1371.03	1.91331
1372.61	1.60134
1374.2	1.64903
1375.78	2.4139
1377.37	1.72627
1378.95	1.79406
1380.53	2.37777
1382.11	1.34819
1383.7	1.94807
1385.28	1.13495
1386.86	2.28881
1388.44	1.79366
1390.02	1.47849
1391.6	1.36314
1393.19	1.64561
1394.77	1.45241
1396.35	1.25901
1397.93	1.71891
1399.51	2.59322
1401.08	1.2275
1402.66	2.19812
1404.24	0.813512
1405.82	2.10035
1407.4	1.43049
1408.97	1.65132
1410.55	1.59612
1412.13	2.40968
1413.71	2.17567
1415.28	1.60518
1416.86	1.92152
1418.43	2.51295
1420.01	3.12395
1421.59	1.98354
1423.16	2.36177
1424.73	3.057
1426.31	3.18314
1427.88	3.74301
1429.46	3.45607
1431.03	3.64013
1432.6	4.90469
1434.18	5.53763
1435.75	5.61884
1437.32	6.21154
1438.89	6.31382
1440.46	6.04435
1442.04	5.75688
1443.61	5.70639
1445.18	4.9293
1446.75	5.80346
1448.32	6.26519
1449.89	5.37099
1451.46	5.30315
1453.03	5.41313
1454.6	5.64174
1456.16	4.06013
1457.73	4.56287
1459.3	4.68979
1460.87	4.59751
1462.44	4.54169
1464	3.93279
1465.57	4.18764
1467.14	3.7542
1468.7	3.81261
1470.27	3.12661
1471.83	2.71737
1473.4	2.81976
1474.96	2.21724
1476.53	2.59577
1478.09	1.91568
1479.66	1.23566
1481.22	1.32005
1482.78	1.44348
1484.35	1.72342
1485.91	1.39548
1487.47	2.39838
1489.04	1.61725
1490.6	1.03007
1492.16	1.39886
1493.72	1.99852
1495.28	1.73615
1496.84	1.00544
1498.4	1.56052
1499.96	0.774065
1501.52	1.03901
1503.08	1.40184
1504.64	0.447636
1506.2	1.19881
1507.76	1.17424
1509.32	0.839266
1510.88	0.889479
1512.44	0.822857
1513.99	0.717474
1515.55	0.228191
1517.11	0.892662
1518.66	0.540268
1520.22	0.189392
1521.78	1.54233
1523.33	1.05708
1524.89	0.991869
1526.44	0.620476
1528	1.10568
1529.55	0.695281
1531.11	0.81763
1532.66	0.769647
1534.21	0.590371
1535.77	0.961271
1537.32	0.841313
1538.87	0.835681
1540.43	0.340267
1541.98	0.881943
1543.53	0.688491
1545.08	0.871158
1546.63	1.0344
1548.18	0.521672
1549.74	1.05951
1551.29	0.753958
1552.84	1.25397
1554.39	1.32444
1555.94	1.24718
1557.48	0.892295
1559.03	1.24917
1560.58	1.14185
1562.13	0.644769
1563.68	1.287
1565.23	1.40761
1566.78	0.987125
1568.32	1.21946
1569.87	0.798035
1571.42	1.29075
1572.96	1.72713
1574.51	2.08867
1576.05	1.10616
1577.6	0.497227
1579.14	1.56899
1580.69	1.59611
1582.24	1.13866
1583.78	1.31716
1585.32	1.42193
1586.87	1.2469
1588.41	1.44596
1589.95	1.49518
1591.5	2.21775
1593.04	2.22861
1594.58	2.03306
1596.12	2.0623
1597.67	2.20456
1599.21	2.27279
1600.75	2.34199
1602.29	2.01768
1603.83	2.38776
1605.37	1.87424
1606.91	2.71163
1608.45	1.49794
1609.99	2.04795
1611.53	2.04986
1613.07	1.89899
1614.6	1.76542
1616.14	1.594
1617.68	1.76081
1619.22	1.83528
1620.75	2.1176
1622.29	2.06449
1623.83	1.3759
1625.37	1.64212
1626.9	2.11307
1628.44	1.55309
1629.97	1.25361
1631.51	1.83152
1633.04	1.77325
1634.58	1.60347
1636.11	1.37891
1637.65	1.99491
1639.18	1.84684
1640.72	1.99705
1642.25	1.38251
1643.78	1.86569
1645.31	2.27234
1646.85	1.56159
1648.38	1.92919
1649.91	1.51696
1651.44	1.9044
1652.97	2.20027
1654.5	2.38607
1656.03	2.33157
1657.56	1.90639
1659.1	2.12871
1660.62	2.01591
1662.15	1.47591
1663.68	1.37892
1665.21	1.63232
1666.74	1.38752
1668.27	1.77145
1669.8	1.91718
1671.32	1.43822
1672.85	1.86346
1674.38	1.84705
1675.91	1.25957
1677.43	1.03951
1678.96	1.35176
1680.49	1.2947
1682.01	1.36539
1683.54	0.976545
1685.06	0.900248
1686.59	1.64968
1688.11	1.18916
1689.64	0.839523
1691.16	0.966545
1692.68	1.13011
1694.21	0.781272
1695.73	0.706783
1697.25	0.90611
1698.78	1.05
1700.3	0.718675
1701.82	1.46311
1703.34	1.13055
1704.86	0.92526
1706.39	0.446821
1707.91	1.13226
1709.43	0.962767
1710.95	0.757367
1712.47	1.38657
1713.99	0.946046
1715.51	1.04936
1717.02	0.501266
1718.54	1.12856
1720.06	0.887997
1721.58	0.557838
1723.1	1.02212
1724.62	0.802382
1726.13	1.17875
1727.65	0.602463
1729.17	0.927446
1730.68	0.855717
1732.2	0.765504
1733.72	0.957955
1735.23	0.715654
1736.75	1.04558
1738.26	0.850395
1739.78	0.546926
1741.29	0.937143
1742.81	0.340837
1744.32	1.01001
1745.84	1.02276
1747.35	0.556996
1748.86	0.916527
1750.37	1.12104
1751.89	0.799601
1753.4	0.326252
1754.91	0.659804
1756.42	0.741623
1757.93	0.758062
1759.45	0.493463
1760.96	0.23234
1762.47	0.27282
1763.98	-0.1351
1765.49	0.554564
1767	0.710321
1768.51	0.474313
1770.02	0.0251617
1771.53	0.27597
1773.03	-0.0276566
1774.54	0.403525
1776.05	0.131247
1777.56	0.369699
1779.07	0.303903
1780.57	0.413567
1782.08	0.460738
1783.59	0.465871
1785.09	0.75561
1786.6	0.414238
1788.11	0.567734
1789.61	0.267308
1791.12	0.317518
1792.62	0.309967
1794.13	0.453976
1795.63	0.451938
1797.13	0.106112
1798.64	0.732499
1800.14	0.234049
1801.65	0.348085
1803.15	0.416397
1804.65	0.619034
1806.15	0.366794
1807.66	0.157731
1809.16	0.176787
1810.66	0.370915
1812.16	0.321277
1813.66	0.119458
1815.16	0.25354
1816.66	0.187985
1818.16	-0.0722094
1819.66	0.243387
1821.16	0.301053
1822.66	0.36235
1824.16	0.236403
1825.66	0.581557
1827.16	0.303217
1828.66	0.494259
1830.16	0.0756521
1831.65	-0.00522804
1833.15	0.313381
1834.65	0.363634
1836.14	0.455668
1837.64	0.387786
1839.14	0.0652504
1840.63	-0.150455
1842.13	0.520147
1843.62	0.228736
1845.12	0.219996
1846.61	0.528437
1848.11	0.0511551
1849.6	-0.025794
1851.1	0.401436
1852.59	0.187533
1854.08	0.47651
1855.58	0.343385
1857.07	0.595154
1858.56	-0.069788
1860.05	-0.374035
1861.55	0.0257959
1863.04	0.342051
1864.53	0.147892
1866.02	-0.00709343
1867.51	0.394811
1869	0.288921
1870.49	-0.268491
1871.98	-0.16753
1873.47	-0.152976
1874.96	-0.0992527
1876.45	0.23887
1877.94	-0.216095
1879.43	-0.517786
1880.92	-0.135791
1882.41	0.334978
1882.51	0.366342
1884	-0.0527639
1885.5	-0.0367918
1886.99	-0.10889
1888.48	0.671493
1889.98	0.05937
1891.47	0.26629
1892.96	-0.168425
1894.46	0.129179
1895.95	0.167721
1897.44	-0.0710411
1898.93	0.29882
1900.42	0.302314
1901.91	0.234383
1903.41	0.825316
1904.9	0.38848
1906.39	-0.0141191
1907.88	0.191439
1909.37	-0.470401
1910.86	0.344133
1912.35	0.205128
1913.83	0.361666
1915.32	0.275491
1916.81	0.501036
1918.3	0.379205
1919.79	0.291577
1921.27	0.0999689
1922.76	-0.437396
1924.25	0.0132332
1925.74	0.291882
1927.22	0.208183
1928.71	0.0905771
1930.19	0.630942
1931.68	0.148749
1933.17	0.0286007
1934.65	0.148884
1936.14	0.215284
1937.62	0.418578
1939.11	0.206377
1940.59	0.322852
1942.07	0.440149
1943.56	0.644792
1945.04	0.401945
1946.52	-0.357478
1948.01	0.262009
1949.49	0.535681
1950.97	0.0159369
1952.45	0.287277
1953.93	0.058938
1955.42	0.157297
1956.9	0.135748
1958.38	0.835821
1959.86	-0.00786209
1961.34	-0.164286
1962.82	-0.594602
1964.3	0.602877
1965.78	0.103346
1967.26	0.117023
1968.74	0.112842
1970.21	0.398586
1971.69	0.0687208
1973.17	-0.0217857
1974.65	0.0755587
1976.13	0.343406
1977.6	-0.121325
1979.08	0.21468
1980.56	0.210006
1982.03	-0.20281
1983.51	-0.445512
1984.99	0.00769615
1986.46	0.0020113
1987.94	0.0641031
1989.41	0.549793
1990.89	0.223275
1992.36	0.270306
1993.84	0.0141211
1995.31	0.26603
1996.78	0.231072
1998.26	0.12855
1999.73	0.0425072
2001.2	0.00649166
2002.68	0.357892
2004.15	0.135607
2005.62	0.0992584
2007.09	-0.340487
2008.56	-0.0211973
2010.04	0.130538
2011.51	0.417481
2012.98	0.384625
2014.45	-0.557423
2015.92	0.16572
2017.39	0.399688
2018.86	0.262695
2020.33	-0.076416
2021.8	-0.0962648
2023.26	0.0688953
2024.73	0.520004
2026.2	0.0160522
2027.67	0.285378
2029.14	-0.148096
2030.61	0.359233
2032.07	-0.289998
2033.54	0.252768
2035.01	0.057004
2036.47	0.48225
2037.94	0.655085
2039.4	0.00401211
2040.87	0.125869
2042.33	-0.155354
2043.8	0.0350218
2045.27	0.529411
2046.73	0.233861
2048.19	0.12364
2049.66	0.282608
2051.12	0.052824
2052.59	0.41146
2054.05	0.24533
2055.51	0.600008
2056.97	0.0257797
2058.44	-0.0939579
2059.9	0.426283
2061.36	-0.0468397
2062.82	0.39019
2064.28	0.138139
2065.74	0.106026
2067.21	-0.0261259
2068.67	0.347275
2070.13	0.283455
2071.59	-0.251698
2073.05	-0.113639
2074.51	0.78193
2075.96	0.346881
2077.42	0.298725
2078.88	0.266966
2080.34	-0.253612
2081.8	0.0671558
2083.26	0.286094
2084.72	0.58824
2086.17	0.250133
2087.63	0.617805
2089.09	0.396449
2090.54	-0.07687
2092	0.0713911
2093.45	0.286526
2094.91	0.618536
2096.37	-0.0224771
2097.82	0.0233173
2099.28	0.252469
2100.73	0.163182
2102.19	0.0575562
2103.64	0.453929
2105.09	0.300493
2106.55	0.332251
2108	0.0649471
2109.45	0.0649548
2110.91	0.0477295
2112.36	0.295727
2113.81	0.191903
2115.26	0.319434
2116.72	0.412506
2118.17	0.339652
2119.62	0.318151
2121.07	0.0996962
2122.52	0.198602
2123.97	0.481449
2125.42	0.449927
2126.87	0.699995
2128.32	0.517893
2129.77	-0.0798807
2131.22	0.51398
2132.67	-0.0358086
2134.11	0.771513
2135.56	0.123797
2137.01	0.618654
2138.46	0.619518
2139.91	0.73816
2141.35	0.197442
2142.8	1.06326
2144.25	0.325811
2145.7	0.895367
2147.14	0.670333
2148.59	0.576948
2150.03	0.830465
2151.48	0.751596
2152.92	0.837323
2154.37	0.739881
2155.81	0.80761
2157.26	0.477839
2158.7	0.0163431
2160.15	1.0637
2161.59	0.804305
2163.03	1.01096
2164.47	1.26933
2165.92	0.78194
2167.36	0.858637
2168.8	0.867798
2170.24	0.908299
2171.69	0.447448
2173.13	0.949292
2174.57	0.80084
2176.01	0.851355
2177.45	0.818926
2178.89	0.92033
2180.33	0.856548
2181.77	1.14289
2183.21	0.631761
2184.65	1.01893
2186.09	1.15678
2187.53	0.895387
2188.97	0.950141
2190.4	0.921668
2191.84	0.726413
2193.28	0.846665
2194.72	0.765686
2196.16	0.63283
2197.59	0.414729
2199.03	0.926641
2200.47	0.838541
2201.9	0.584371
2203.34	0.414223
2204.77	0.378096
2206.21	0.757445
2207.64	0.987955
2209.08	0.737857
2210.51	-0.0424824
2211.95	0.847659
2213.38	0.644863
2214.82	0.194439
2216.25	0.71914
2217.68	0.551558
2219.12	0.00618744
2220.55	0.418284
2221.98	0.616034
2223.41	0.186845
2224.85	0.546983
2226.28	0.180804
2227.71	-0.0221376
2229.14	0.283093
2230.57	0.521215
2232	0.840495
2233.43	0.275473
2234.86	0.808006
2236.29	0.344281
2237.72	0.340109
2239.15	0.240079
2240.58	-0.0208464
2242.01	0.356297
2243.44	0.375931
2244.87	0.656959
2246.29	0.399017
2247.72	0.384057
2249.15	0.0407515
2250.58	0.738108
2252.01	0.406972
2253.43	0.465781
2254.86	0.443562
2256.29	0.195641
2257.71	0.258838
2259.14	0.325037
2260.56	0.491745
2261.99	0.222958
2263.41	0.312929
2264.84	-0.035408
2266.26	0.444742
2267.69	0.387689
2269.11	0.150563
2270.53	0.824058
2271.96	0.357524
2273.38	0.428034
2274.8	0.417209
2276.23	0.0481434
2277.65	0.00503635
2279.07	0.0108862
2280.49	0.147129
2281.91	0.234379
2283.34	0.240009
2284.76	0.147763
2286.18	-0.107527
2287.6	-0.329931
2289.02	0.280976
2290.44	0.141133
2291.86	0.181292
2293.28	0.0744381
2294.7	-0.0816231
2296.12	-0.0578566
2297.54	0.113254
2298.96	-0.108622
2300.37	0.193972
2301.79	0.283978
2303.21	0.177506
2304.63	0.448631
2306.04	-0.199737
2307.46	0.218914
2308.88	0.374359
2310.3	0.200399
2311.71	0.00943851
2313.13	0.180306
2314.54	-0.175008
2315.96	0.227622
2317.37	-0.10992
2318.79	0.195539
2320.2	0.0887594
2321.62	-0.068779
2323.03	-0.459416
2324.45	0.0882463
2325.86	0.286871
2327.27	0.912261
2328.69	0.497817
2330.1	0.28169
2331.51	-0.279009
2332.92	0.330398
2334.34	0.397397
2335.75	-0.0782213
2337.16	0.26824
2338.57	0.383275
2339.98	-0.291772
2341.39	-0.0145731
2342.8	0.294551
2344.21	-0.216775
2345.63	-0.563259
2347.04	0.221138
2348.45	0.0879412
2349.85	0.298038
2351.26	0.0166149
2352.67	0.436896
2354.08	-0.270485
2355.49	-0.341467
2356.9	0.0921125
2358.3	-0.0933523
2359.71	0.387848
2361.12	-0.186831
2362.53	-0.241493
2363.93	0.513646
2365.34	0.247856
2366.75	0.128287
2368.15	0.13876
2369.56	0.537448
2370.97	0.0342684
2372.37	0.0647888
2373.77	-0.274024
2375.18	-0.0487671
2376.59	-0.194137
2377.99	0.495696
2379.39	0.347384
2380.8	0.069088
2382.2	0.270902
2383.6	0.18298
2385.01	0.23897
2386.41	-0.0961933
2387.81	-0.429667
2389.21	0.474403
2390.62	0.29494
2392.02	0.101095
2393.42	-0.075531
2394.82	0.321443
2396.22	0.00343132
2397.62	-0.0594034
2399.02	0.355068
2400.42	0.182114
2401.82	-0.0539818
2403.22	-0.0835028
2404.62	0.251801
2406.02	0.347921
2407.42	-0.144128
2408.82	-0.0973406
2410.22	-0.0192575
2411.62	0.185708
2413.01	0.0429354
2414.41	-0.399225
2415.81	-0.000729561
2417.21	-0.0124807
2418.6	0.071722
2420	-0.192079
2421.4	-0.202649
2422.79	0.103261
2424.19	0.0128431
2425.59	-0.156779
2426.98	-0.199146
2428.38	-0.0821171
2429.77	-0.0433388
2431.17	0.170732
2432.56	-0.313313
2433.95	0.186332
2435.35	0.303883
2436.74	0.260995
2438.14	0.105245
2439.53	0.12289
2440.92	-0.0668945
2442.31	0.0603571
2443.71	-0.161895
2445.1	0.456496
2446.49	-0.0356293
2447.88	0.185664
2449.27	-0.100153
2450.67	-0.0688267
2452.06	0.0738068
2453.45	-0.0518379
2454.84	-0.303109
2456.23	0.063324
2457.62	-0.0286856
2459.01	-0.105027
2460.4	0.0552731
2461.79	0.325334
2463.18	0.104412
2464.57	-0.290768
2465.95	0.230016
2467.34	-0.291599
2468.73	-0.0554562
2470.12	0.196028
2471.5	-0.073391
2472.89	0.192387
2474.28	-0.0467482
2475.67	-0.0502691
2477.05	0.621663
2478.44	0.255933
2479.82	0.251873
2481.21	-0.379198
2482.6	0.197045
2483.98	-0.0578279
2485.37	0.0778303
2486.75	-0.162928
2488.13	0.0482512
2489.52	-0.474352
2490.9	0.233793
2492.29	0.287793
2493.67	0.482548
2495.05	0.244002
2496.44	0.11572
2497.82	0.00402164
2499.2	0.0165901
2500.58	-0.0176096
2501.97	0.0401583
2503.35	0.0195951
2504.73	0.106103
2506.11	0.253387
2507.49	0.0152998
2508.87	-0.206765
2510.25	-0.0439968
2511.63	0.180468
2513.01	0.282692
2514.39	-0.0891533
2515.77	0.106763
2517.15	-0.15567
2518.53	0.393048
2519.91	-0.128286
2521.29	0.297563
2522.67	-0.28517
2524.05	0.0624218
2525.42	-0.185647
2526.8	0.266876
2528.18	-0.148219
2529.55	0.28991
2530.93	-0.228301
2532.31	0.0456877
2533.69	0.0627108
2535.06	0.262791
2536.44	0.234939
2537.81	0.419049
2539.19	0.13125
2540.56	-0.354658
2541.94	0.130726
2543.31	0.236739
2544.69	-0.157001
2546.06	-0.32187
2547.44	0.151574
2548.81	-0.0567026
2550.18	0.235784
2551.56	-0.246133
2552.93	0.318122
2554.3	-0.196199
2555.67	0.274867
2557.04	-0.0739479
2558.42	-0.0891294
2559.79	0.290093
2561.16	0.366577
2562.53	0.0648489
2563.9	0.00623322
2565.27	0.387526
2566.64	0.238685
2568.01	0.31725
2569.38	0.517067
2570.75	-0.0712547
2572.12	0.431733
2573.49	-0.30814
2574.86	0.195064
2576.23	0.0312853
2577.6	0.0341778
2578.97	-0.478714
2580.33	0.584979
2581.7	-0.201655
2583.07	0.0423861
2584.44	0.39224
2585.8	0.211411
2587.17	-0.242085
2588.54	0.168537
2589.9	-0.239135
2591.27	0.0350218
2592.64	0.369244
2594	0.232877
2595.37	-0.0105143
2596.73	-0.0580196
2598.1	0.392912
2599.46	0.268378
2600.83	0.355621
2602.19	0.262065
2603.55	0.0183477
2604.92	0.348814
2606.28	0.211631
2607.64	-0.15198
2609.01	0.0565739
2610.37	0.0377016
2611.73	-0.0728321
2613.09	-0.199427
2614.46	0.0188961
2615.82	0.356531
2617.18	-0.0258389
2618.54	0.267082
2619.9	-0.0232992
2621.26	-0.0433159
2622.62	0.430325
2623.98	0.276412
2625.34	0.212167
2626.7	-0.16542
2628.06	0.321447
2629.42	0.405221
2630.78	0.176186
2632.14	0.586624
2633.5	0.268479
2634.86	0.0398569
2636.21	0.122995
2637.57	0.309695
2638.93	0.155591
2640.29	0.120241
2641.64	0.336521
2643	0.375496
2644.36	-0.0430603
2645.71	0.630563
2647.07	0.285595
2648.43	0.588511
2649.78	0.257202
2651.14	0.35211
2652.49	0.534581
2653.85	0.775584
2655.2	0.357351
2656.56	0.629367
2657.91	0.375345
2659.26	0.415164
2660.62	0.279923
2661.97	-0.1184
2663.32	0.0089035
2664.68	0.310349
2666.03	0.712636
2667.38	0.0935955
2668.74	0.20352
2670.09	0.342648
2671.44	0.45303
2672.79	0.723772
2674.14	0.399476
2675.49	0.264831
2676.84	0.363043
2678.19	0.229823
2679.54	0.387552
2680.89	0.285371
2682.24	0.0104847
2683.59	0.287803
2684.94	0.450228
2686.29	0.381104
2687.64	-0.0946398
2688.99	0.284688
2690.34	0.589696
2691.69	0.181419
2693.03	0.352092
2694.38	0.202524
2695.73	0.154348
2697.08	0.425529
2698.42	0.00277901
2699.77	0.117678
2701.12	0.350238
2702.46	0.425166
2703.81	0.631698
2705.15	1.01295
2706.5	0.0892382
2707.85	0.412324
2709.19	0.633621
2710.54	0.752995
2711.88	0.465395
2713.22	0.322754
2714.57	0.485198
2715.91	0.415022
2717.26	0.315551
2718.6	0.433969
2719.94	0.290118
2721.29	0.873386
2722.63	0.917721
2723.97	0.932402
2725.31	0.539017
2726.66	0.654645
2728	0.129528
2729.34	0.491934
2730.68	0.213866
2732.02	0.546863
2733.36	0.763488
2734.7	1.02389
2736.04	0.629974
2737.38	0.614387
2738.72	0.511515
2740.06	0.175706
2741.4	0.391986
2742.74	0.360356
2744.08	0.21172
2745.42	0.280421
2746.76	0.0726805
2748.09	0.0826406
2749.43	0.121637
2750.77	0.46537
2752.11	0.490153
2753.45	0.196328
2754.78	0.120197
2756.12	-0.0426559
2757.46	0.272574
2758.79	0.544478
2760.13	0.00618076
2761.46	0.0184727
2762.8	0.248299
2764.14	0.174581
2765.47	0.317884
2766.8	0.21474
2768.14	0.125106
2769.47	0.381172
2770.81	0.0140228
2772.14	-0.0364208
2773.48	0.0708494
2774.81	0.0908403
2776.14	-0.0188932
2777.48	-0.272
2778.81	0.424975
2780.14	-0.099988
2781.47	0.209021
2782.8	-0.113741
2784.14	-0.608248
2785.47	0.0444479
2786.8	0.596216
2788.13	-0.297911
2789.46	0.0830803
2790.79	0.0785322
2792.12	-0.0252762
2793.45	0.300312
2794.78	0.0684185
2796.11	-0.0351219
2797.44	0.160781
2798.77	0.255994
2800.1	0.50765
2801.43	0.373613
2802.76	0.139684
2804.09	-0.0800362
2805.41	0.469119
2806.74	0.362199
2808.07	0.496508
2809.4	-0.0378141
2810.72	-0.187865
2812.05	0.358278
2813.38	0.380197
2814.71	0.346972
2816.03	0.230309
2817.36	0.412543
2818.68	0.595426
2820.01	-0.0720854
2821.33	-0.0172033
2822.66	0.30622
2823.98	0.699694
2825.31	0.497684
2826.63	0.593201
2827.96	0.406085
2829.28	0.403686
2830.6	0.968041
2831.93	0.966385
2833.25	1.46009
2834.57	1.31645
2835.9	1.85156
2837.22	2.1453
2838.54	2.90516
2839.86	3.01382
2841.18	3.23567
2842.5	4.32024
2843.83	5.03793
2845.15	5.7142
2846.47	6.05228
2847.79	6.95632
2849.11	7.26688
2850.43	7.77484
2851.75	7.56111
2853.07	7.7281
2854.39	7.42806
2855.71	6.94412
2857.03	7.54804
2858.35	7.77052
2859.66	7.35741
2860.98	7.35365
2862.3	7.8717
2863.62	7.07631
2864.94	7.90356
2866.25	7.33382
2867.57	8.21737
2868.89	8.38218
2870.2	8.26571
2871.52	8.54424
2872.84	8.85043
2874.15	8.42257
2875.47	8.5848
2876.78	9.2097
2878.1	8.88981
2879.41	9.25889
2880.73	9.68432
2882.04	8.93061
2883.36	9.668
2884.67	9.24125
2885.99	9.32111
2887.3	9.35899
2888.61	9.70481
2889.93	9.45998
2891.24	9.83084
2892.55	10.1443
2893.86	9.9248
2895.18	10.3083
2896.49	10.6929
2897.8	10.0156
2899.11	10.4457
2900.42	10.3595
2901.73	10.498
2903.05	10.8887
2904.36	10.3284
2905.67	10.496
2906.98	10.8463
2908.29	11.0443
2909.6	11.3837
2910.91	10.8007
2912.21	11.2112
2913.52	11.4806
2914.83	10.9777
2916.14	11.0179
2917.45	10.9016
2918.76	11.931
2920.07	11.4209
2921.37	11.3737
2922.68	11.3146
2923.99	11.8169
2925.29	12.0136
2926.6	11.8899
2927.91	12.1438
2929.22	11.5582
2930.52	11.3772
2931.83	11.3912
2933.13	11.9778
2934.44	11.4882
2935.74	12.1728
2937.05	11.5719
2938.35	11.195
2939.66	10.1199
2940.96	9.96796
2942.26	9.77536
2943.57	9.69634
2944.87	9.00421
2946.18	9.41824
2947.48	8.44841
2948.78	8.24733
2950.08	7.31654
2951.39	7.2932
2952.69	7.14133
2953.99	7.33764
2955.29	7.09945
2956.59	7.60434
2957.9	7.14624
2959.2	6.56569
2960.5	6.28255
2961.8	6.59058
2963.1	6.84406
2964.4	6.39527
2965.7	6.32335
2967	5.64488
2968.3	5.47034
2969.6	5.44944
2970.9	5.17523
2972.19	4.64809
2973.49	4.44481
2974.79	4.07255
2976.09	4.03734
2977.39	4.28228
2978.68	4.25769
2979.98	3.71019
2981.28	3.27407
2982.58	3.56906
2983.87	3.34406
2985.17	2.83946
2986.47	3.08166
2987.76	3.15698
2989.06	2.60119
2990.35	2.39706
2991.65	2.58596
2992.94	2.05699
2994.24	1.72354
2995.53	1.71214
2996.83	1.82636
2998.12	1.35091
2999.42	1.52146
3000.71	1.42611
3002	0.953094
3003.3	0.929315
3004.59	0.541527
3005.88	0.952009
3007.18	0.465744
3008.47	0.454846
3009.76	0.261353
3011.05	1.03153
3012.34	0.404017
3013.64	0.433231
3014.93	0.713839
3016.22	0.535181
3017.51	0.0513487
3018.8	-0.153003
3020.09	-0.176162
3021.38	0.314634
3022.67	0.24844
3023.96	-0.0544844
3025.25	0.224743
3026.54	-0.355424
3027.83	-0.228215
3029.12	0.231793
3030.41	0.0295992
3031.69	-0.0878801
3032.98	0.306727
3034.27	-0.140321
3035.56	0.102307
3036.84	-0.290739
3038.13	0.0452509
3039.42	0.131096
3040.71	-0.0596666
3041.99	0.0512114
3043.28	-0.221938
3044.57	0.149965
3045.85	-0.133493
3047.14	0.282622
3048.42	-0.350509
3049.71	-0.161959
3050.99	0.369371
3052.28	0.233001
3053.56	-0.0669355
3054.85	0.410285
3056.13	0.204431
3057.41	-0.0977001
3058.7	0.308267
3059.98	0.237063
3061.26	-0.051281
3062.55	-0.106997
3063.83	0.328329
3065.11	-0.09126
3066.39	0.415191
3067.68	-0.16483
3068.96	0.0170727
3070.24	0.103732
3071.52	0.339283
3072.8	0.00254488
3074.08	-0.131216
3075.36	-0.184102
3076.65	0.251796
3077.93	-0.208045
3079.21	-0.204963
3080.49	0.233826
3081.77	0.308019
3083.04	-0.158972
3084.32	0.148177
3085.6	0.211419
3086.88	0.0843358
3088.16	-0.179039
3089.44	0.0728436
3090.72	-0.204846
3091.99	0.128105
3093.27	-0.14912
3094.55	0.0353127
3095.83	-0.118826
3097.1	0.0255976
3098.38	0.373394
3099.66	0.0842285
3100.93	0.174606
3102.21	0.265191
3103.49	0.288495
3104.76	0.583202
3106.04	0.093821
3107.31	-0.0154572
3108.59	-0.177673
3109.86	0.0944276
3111.14	0.16471
3112.41	0.330805
3113.69	0.524757
3114.96	0.529217
3116.23	0.519881
3117.51	0.550561
3118.78	0.092072
3120.05	0.378675
3121.33	0.366189
3122.6	0.407563
3123.87	0.530171
3125.14	0.558335
3126.41	0.42474
3127.69	0.359682
3128.96	0.538862
3130.23	0.475119
3131.5	0.682135
3132.77	1.28097
3134.04	0.433997
3135.31	0.883489
3136.58	0.657627
3137.85	0.485748
3139.12	0.556523
3140.39	0.694549
3141.66	0.873062
3142.93	0.917468
3144.2	1.12362
3145.47	0.699884
3146.74	1.2295
3148	0.942107
3149.27	1.12459
