200.563	0.249981
202.377	0.287025
204.194	0.325592
206.008	0.170994
207.821	0.332935
209.634	0.445234
211.449	-0.0272484
213.262	0.202541
215.074	0.769821
216.885	-0.264225
218.699	0.253365
220.51	0.069334
222.321	0.540064
224.131	-0.221268
225.941	0.106382
227.751	-0.629072
229.562	0.446404
231.371	-0.121199
233.18	-0.254547
234.988	0.19149
236.796	-0.0115833
238.603	0.415394
240.411	-0.45529
242.219	0.0756416
244.026	0.102297
245.832	-0.0643959
247.638	0.490475
249.443	0.171846
251.248	0.66905
253.053	0.84774
254.857	-0.303265
256.661	0.113401
258.465	0.579189
260.268	0.806427
262.071	0.964434
263.874	0.161478
265.678	0.420155
267.48	0.0526924
269.282	0.624594
271.083	0.206797
272.884	1.08896
274.684	0.256927
276.484	0.772276
278.284	-0.306129
280.084	0.130501
281.883	0.178211
283.682	1.01639
285.48	0.481283
287.276	0.785931
289.074	-0.228651
290.871	0.915644
292.668	0.217201
294.465	-0.0711975
296.261	0.288477
298.057	0.458282
299.853	0.0552826
301.648	0.249235
303.443	-0.155281
305.237	-0.0841923
307.032	0.414639
308.823	-0.136303
310.617	-0.0663471
312.41	0.124462
314.203	0.389174
315.995	0.156704
317.788	-0.0968609
319.579	0.48558
321.369	-0.0738544
323.16	0.297386
324.951	-0.0223637
326.741	0.732073
328.531	0.937447
330.321	1.02233
332.108	1.20088
333.897	0.611004
335.686	0.471972
337.474	-0.316885
339.26	-0.0561981
341.048	0.823654
342.835	0.386768
344.622	0.451912
346.406	0.278913
348.192	-0.0361805
349.978	0.795454
351.764	1.22093
353.547	0.404364
355.332	0.564501
357.116	0.340824
358.901	-0.289902
360.682	0.697591
362.466	0.0164814
364.249	0.809296
366.03	0.0791788
367.812	0.393344
369.594	0.112701
371.374	0.565422
373.155	-0.545452
374.936	-0.685561
376.715	0.472896
378.495	-0.233076
380.273	-0.182486
382.053	0.364029
383.832	0.112027
385.609	0.191397
387.388	0.155073
389.164	-0.137949
390.942	0.486592
392.72	0.8304
394.495	-0.0460758
396.272	1.12113
398.047	0.76192
399.823	0.872079
401.597	0.135863
403.372	0.197181
405.145	0.257229
406.92	0.0577517
408.693	1.07817
410.467	0.360642
412.239	0.981097
414.012	0.921555
415.783	0.698905
417.556	0.430603
419.327	0.773353
421.099	0.248121
422.869	0.543834
424.64	0.0637178
426.409	0.0515738
428.18	-0.267073
429.948	0.728008
431.718	-0.0608912
433.486	0.840555
435.253	0.428188
437.022	0.719807
438.789	0.728554
440.558	1.64995
442.324	0.104498
444.089	0.432439
445.857	1.31913
447.622	0.634337
449.386	0.511183
451.153	0.45846
452.917	0.639731
454.682	0.58778
456.446	0.629045
458.208	0.437109
459.973	0.548073
461.735	0.241433
463.497	-0.155333
465.259	0.00951385
467.022	1.13142
468.783	0.631021
470.544	0.970331
472.306	0.51971
474.066	0.579493
475.825	0.659732
477.585	0.899572
479.346	0.554084
481.104	0.696227
482.862	0.768753
484.62	1.00624
486.38	1.64305
488.137	1.02524
489.894	0.34002
491.65	0.495779
493.407	0.769627
495.164	0.553138
496.92	1.08516
498.675	0.469508
500.43	1.09495
502.184	0.66412
503.939	1.14722
505.694	1.58206
507.448	0.15721
509.201	0.398955
510.954	0.73239
512.706	0.686835
514.459	0.309438
516.21	0.635708
517.962	1.43017
519.715	0.835458
521.466	0.21655
523.216	0.912546
524.966	1.37275
526.716	1.26942
528.466	0.837976
530.215	1.25038
531.964	1.12293
533.712	0.245264
535.46	0.372617
537.208	0.77793
538.955	0.619915
540.703	1.27648
542.449	0.532749
544.196	0.906787
545.942	0.699012
547.688	0.886524
549.433	0.633561
551.178	0.242576
552.923	0.939785
554.667	0.110897
556.412	-0.254241
558.155	0.650155
559.899	0.56303
561.642	0.45393
563.385	-0.137086
565.127	0.468841
566.867	0.362942
568.609	0.396174
570.35	0.890035
572.092	0.00937271
573.832	0.576769
575.573	0.619391
577.313	0.20578
579.053	0.344905
580.79	0.715015
582.529	0.626021
584.268	-0.360605
586.006	0.513272
587.745	0.488472
589.482	-0.0904474
591.218	0.111382
592.955	0.864594
594.692	-0.0389671
596.428	0.898118
598.164	0.132624
599.898	0.10276
601.634	0.416594
603.369	0.981227
605.104	0.140769
606.836	-0.448215
608.57	-0.670359
610.304	0.530459
612.037	-0.173058
613.769	-0.0721893
615.501	-0.130816
617.234	0.246118
618.966	-0.0422258
620.696	0.766672
622.427	0.0628576
624.159	-0.458462
625.887	0.71138
627.618	-0.264435
629.348	0.771984
631.076	0.0776329
632.806	0.230809
634.535	0.271524
636.262	0.813844
637.99	0.851127
639.716	0.975201
641.444	0.22757
643.172	0.274759
644.897	-0.112567
646.624	0.0245438
648.348	0.550925
650.075	0.172998
651.801	-0.38047
653.524	0.458395
655.249	0.416336
656.972	-0.0776396
658.697	-0.183702
660.419	0.393856
662.143	0.010705
663.865	0.0118666
665.588	0.466534
667.309	-0.224916
669.032	-0.185801
670.752	0.0147743
672.474	-0.422319
674.194	-0.146265
675.915	-0.370833
677.634	0.759793
679.355	0.951165
681.073	-0.330135
682.793	0.178288
684.511	-0.167686
686.23	-0.010375
687.947	0.0985689
689.664	0.367138
691.382	0.0356808
693.098	-0.0203228
694.816	0.26798
696.531	-0.0901098
698.247	0.424918
699.963	-0.0288363
701.678	0.550972
703.392	0.255282
705.108	0.234469
706.821	0.511238
708.534	0.488831
710.249	0.351269
711.962	0.0989447
713.674	-0.016181
715.388	0.50841
717.099	0.621073
718.81	0.209065
720.523	0.390578
722.234	1.11855
723.944	-0.316008
725.654	0.479412
727.365	0.364496
729.075	0.816438
730.784	0.813441
732.492	0.538115
734.202	-0.031085
735.91	0.237233
737.618	0.912034
739.325	0.165499
741.034	0.729077
742.741	0.955893
744.447	0.891944
746.153	0.717804
747.859	0.680967
749.564	0.511295
751.271	0.726028
752.976	0.223047
754.681	0.284496
756.385	1.00093
758.088	0.8873
759.792	0.527998
761.495	1.77076
763.2	1.14339
764.902	0.672663
766.604	0.854795
768.306	1.9159
770.008	0.758278
771.709	1.15751
773.41	1.532
775.11	1.00137
776.811	2.25792
778.51	1.14248
780.21	1.22778
781.909	1.29223
783.608	1.62847
785.307	0.899105
787.005	1.18459
788.703	0.944605
790.401	1.35573
792.098	1.67172
793.795	2.05243
795.492	1.05613
797.188	1.16744
798.884	1.48386
800.58	2.00532
802.276	1.35867
803.971	1.09589
805.665	1.30512
807.36	1.53533
809.054	1.65118
810.748	1.29379
812.441	0.980371
814.135	2.2125
815.826	2.03196
817.518	1.96349
819.21	1.18015
820.902	2.1624
822.594	2.25128
824.285	2.16303
825.976	0.829487
827.665	1.97294
829.355	1.20503
831.045	1.60005
832.735	1.75466
834.424	1.02106
836.111	1.06881
837.8	1.25019
839.488	2.32311
841.177	1.98708
842.864	1.93921
844.55	1.22024
846.237	1.59737
847.924	1.57515
849.61	1.71348
851.295	1.11701
852.98	0.477592
854.666	0.66848
856.349	1.78046
858.034	1.92601
859.719	1.48402
861.403	0.340475
863.085	1.42358
864.769	1.85207
866.452	1.87359
868.133	1.37547
869.816	1.50796
871.498	1.79791
873.179	1.47852
874.86	1.40714
876.54	1.69687
878.221	1.69331
879.902	0.899534
881.58	1.32407
883.26	1.49917
884.938	0.837269
886.618	2.11431
888.297	1.13193
889.974	1.16264
891.653	1.37126
893.329	2.2981
895.007	1.60151
896.683	1.10677
898.36	1.15034
900.035	0.83349
901.712	0.98658
903.387	0.959494
905.063	0.440569
906.737	0.548309
908.412	1.43701
910.085	0.766439
911.76	1.1442
913.433	1.05566
915.107	0.523773
916.779	0.325722
918.452	1.72352
920.124	0.705681
921.797	1.76994
923.467	1.4861
925.138	1.24954
926.81	1.10455
928.48	1.35968
930.151	1.35186
931.82	1.10245
933.489	1.40505
935.16	0.89176
936.828	1.1292
938.496	0.529984
940.165	1.18987
941.833	0.94743
943.5	1.32388
945.168	0.464214
946.834	0.794449
948.5	0.967299
950.168	0.784006
951.834	0.488674
953.499	0.414307
955.163	0.783525
956.83	1.51
958.494	0.697941
960.158	0.59581
961.821	0.00990295
963.487	0.970268
965.15	-0.194265
966.812	0.118532
968.474	-0.0595646
970.138	0.378716
971.8	0.594431
973.461	0.899372
975.123	1.05186
976.783	1.03039
978.446	1.05557
980.106	1.21456
981.766	1.37294
983.425	1.17491
985.084	1.8813
986.743	0.481485
988.402	2.11065
990.06	1.70198
991.72	0.54134
993.378	0.927877
995.035	0.254631
996.692	0.928074
998.349	2.3724
1000.01	1.69928
1001.66	2.12738
1003.32	1.82801
1004.97	1.46257
1006.63	1.05354
1008.28	1.43585
1009.94	1.29156
1011.59	1.03857
1013.25	0.983902
1014.9	0.470009
1016.55	1.0519
1018.21	0.5182
1019.86	0.314367
1021.51	0.702656
1023.16	1.11437
1024.81	0.718884
1026.47	0.848877
1028.12	1.30658
1029.77	1.06403
1031.42	1.91155
1033.07	1.3368
1034.72	1.69806
1036.37	1.07553
1038.02	1.58543
1039.67	1.6809
1041.31	1.10319
1042.96	1.98479
1044.61	1.58663
1046.26	1.8871
1047.91	1.62603
1049.55	1.34603
1051.2	1.85001
1052.84	1.26926
1054.49	1.64499
1056.14	1.04282
1057.78	1.37471
1059.43	1.66242
1061.07	1.01411
1062.72	1.21252
1064.36	1.62683
1066	1.16972
1067.65	1.42824
1069.29	0.750835
1070.93	1.05017
1072.58	0.936693
1074.22	1.12793
1075.86	1.79797
1077.5	1.08203
1079.14	1.62604
1080.78	1.58576
1082.42	1.19847
1084.06	1.4385
1085.7	1.2422
1087.34	1.36767
1088.98	1.22976
1090.62	1.24066
1092.26	0.947031
1093.9	1.73292
1095.54	1.80578
1097.17	1.57819
1098.81	1.35333
1100.45	1.32547
1102.09	1.49449
1103.72	0.848921
1105.36	1.19513
1106.99	1.112
1108.63	0.963827
1110.27	1.09339
1111.9	0.919418
1113.53	1.02224
1115.17	0.650703
1116.8	1.4157
1118.43	1.02232
1120.07	1.38044
1121.7	0.819151
1123.33	1.15903
1124.97	0.858444
1126.6	0.602245
1128.23	1.05311
1129.86	1.26981
1131.49	0.95293
1133.12	0.42281
1134.75	0.341423
1136.38	1.00706
1138.01	0.239141
1139.64	0.922232
1141.27	0.770548
1142.9	0.106142
1144.53	0.509048
1146.16	0.294508
1147.78	0.593124
1149.41	0.679897
1151.04	0.895185
1152.67	0.407631
1154.29	0.324266
1155.92	1.04906
1157.54	0.666922
1159.17	1.51926
1160.8	0.352524
1162.42	-0.408066
1164.05	0.682726
1165.67	0.626133
1167.29	-0.153828
1168.92	0.425247
1170.54	1.12892
1172.16	0.49052
1173.79	0.402035
1175.41	0.14205
1177.03	-0.393831
1178.65	0.342365
1180.28	0.0203094
1181.9	-0.0249233
1183.52	-0.491902
1185.14	0.309364
1186.76	0.284641
1188.38	0.0253124
1190	-0.405168
1191.62	-0.227075
1193.24	0.326761
1194.86	0.416025
1196.47	0.0649433
1198.09	0.616589
1199.71	-0.189553
1201.33	0.0333462
1202.95	0.0929775
1204.56	-0.323452
1206.18	0.619764
1207.8	0.91795
1209.41	0.986975
1211.03	0.366369
1212.64	0.619038
1214.26	0.597088
1215.87	0.259365
1217.49	-0.538113
1219.1	0.181442
1220.71	1.27303
1222.33	0.580221
1223.94	1.32031
1225.55	1.02652
1227.16	0.983866
1228.78	0.922811
1230.39	0.367604
1232	0.207317
1233.61	1.68172
1235.22	1.83524
1236.83	0.998624
1238.44	1.42447
1240.05	1.02441
1241.66	1.59656
1243.27	1.60981
1244.88	1.35279
1246.49	1.46656
1248.1	1.59941
1249.71	2.08276
1251.32	1.84148
1252.92	2.49012
1254.53	1.11292
1256.14	1.64044
1257.74	1.92182
1259.35	2.2466
1260.96	1.745
1262.56	2.09284
1264.17	2.33737
1265.77	2.3534
1267.38	2.28528
1268.98	2.81677
1270.59	2.26845
1272.19	2.27816
1273.79	2.76296
1275.4	2.66556
1277	2.13147
1278.6	2.25924
1280.21	1.93039
1281.81	2.18086
1283.41	3.07262
1285.01	2.70321
1286.61	2.62502
1288.21	2.94132
1289.81	3.19706
1291.41	2.75104
1293.01	3.46192
1294.61	4.04731
1296.21	4.03115
1297.81	4.13595
1299.41	3.68061
1301.01	4.10965
1302.6	3.7943
1304.2	3.99227
1305.8	3.05793
1307.4	3.52107
1308.99	3.67503
1310.59	3.64428
1312.19	3.71666
1313.78	3.62666
1315.38	4.00853
1316.97	3.12565
1318.57	2.53067
1320.16	2.24212
1321.76	2.78757
1323.35	2.51551
1324.94	2.60699
1326.54	2.35091
1328.13	2.62172
1329.72	3.23703
1331.32	3.02454
1332.91	3.05876
1334.5	3.03616
1336.09	3.25842
1337.68	1.96871
1339.27	2.91657
1340.87	2.5713
1342.45	2.44442
1344.04	2.69646
1345.64	3.16697
1347.22	2.4338
1348.81	2.52628
1350.4	1.8622
1351.99	2.38314
1353.58	2.84691
1355.17	2.07328
1356.75	2.51949
1358.34	2.20563
1359.93	1.55097
1361.51	2.47192
1363.1	2.23363
1364.69	2.55326
1366.27	2.59405
1367.86	1.91928
1369.44	1.48593
1371.03	1.67199
1372.61	1.91983
1374.2	1.99032
1375.78	2.34041
1377.37	1.69567
1378.95	1.30876
1380.53	1.45753
1382.11	1.92246
1383.7	2.00723
1385.28	2.0705
1386.86	1.95421
1388.44	2.19575
1390.02	1.803
1391.6	1.8485
1393.19	2.39114
1394.77	1.72427
1396.35	1.89017
1397.93	2.01517
1399.51	2.11864
1401.08	1.94324
1402.66	2.53906
1404.24	2.89683
1405.82	1.91058
1407.4	1.91482
1408.97	2.23653
1410.55	1.74898
1412.13	1.85398
1413.71	2.62906
1415.28	2.75091
1416.86	2.04303
1418.43	3.01057
1420.01	3.03217
1421.59	2.6421
1423.16	3.55409
1424.73	2.85459
1426.31	2.82643
1427.88	3.36988
1429.46	3.83409
1431.03	4.74931
1432.6	5.26863
1434.18	5.49085
1435.75	5.53515
1437.32	6.28762
1438.89	5.46867
1440.46	5.69354
1442.04	5.78258
1443.61	6.22668
1445.18	5.62986
1446.75	5.1119
1448.32	5.28214
1449.89	5.49228
1451.46	6.4702
1453.03	5.97448
1454.6	5.51854
1456.16	5.31804
1457.73	4.84066
1459.3	5.18744
1460.87	4.48803
1462.44	4.76922
1464	4.3197
1465.57	3.53461
1467.14	4.75339
1468.7	3.39968
1470.27	3.26548
1471.83	2.9567
1473.4	2.43409
1474.96	2.28548
1476.53	2.21598
1478.09	2.53871
1479.66	1.78314
1481.22	1.43919
1482.78	2.05541
1484.35	1.76991
1485.91	2.03243
1487.47	1.31432
1489.04	1.456
1490.6	1.65337
1492.16	1.16281
1493.72	1.6659
1495.28	0.702083
1496.84	1.14183
1498.4	1.40503
1499.96	1.00772
1501.52	0.49649
1503.08	0.841298
1504.64	1.14795
1506.2	0.718836
1507.76	0.753668
1509.32	0.84481
1510.88	0.451682
1512.44	0.347307
1513.99	0.281184
1515.55	0.945856
1517.11	1.14909
1518.66	0.931155
1520.22	0.848685
1521.78	0.651841
1523.33	0.0344276
1524.89	-0.296378
1526.44	0.51615
1528	0.563613
1529.55	0.81931
1531.11	0.295887
1532.66	0.533041
1534.21	0.600469
1535.77	0.385535
1537.32	0.758109
1538.87	0.998776
1540.43	0.334451
1541.98	0.349655
1543.53	0.797499
1545.08	1.01855
1546.63	0.975898
1548.18	0.595374
1549.74	0.965266
1551.29	0.922781
1552.84	1.51713
1554.39	1.14002
1555.94	1.04573
1557.48	1.02882
1559.03	1.07078
1560.58	1.37665
1562.13	1.57289
1563.68	1.47227
1565.23	0.887309
1566.78	0.992743
1568.32	1.34047
1569.87	1.23969
1571.42	1.51165
1572.96	1.68986
1574.51	1.83052
1576.05	1.29917
1577.6	1.38414
1579.14	1.95515
1580.69	1.46289
1582.24	2.16692
1583.78	1.32195
1585.32	1.767
1586.87	1.6148
1588.41	1.21947
1589.95	2.75083
1591.5	1.51219
1593.04	1.43295
1594.58	1.84023
1596.12	2.15415
1597.67	1.62549
1599.21	2.61617
1600.75	2.2206
1602.29	2.18191
1603.83	2.33086
1605.37	1.84007
1606.91	2.64354
1608.45	1.86541
1609.99	1.83555
1611.53	1.97133
1613.07	1.82239
1614.6	1.69048
1616.14	1.98952
1617.68	1.95154
1619.22	2.00906
1620.75	1.84404
1622.29	1.92452
1623.83	2.30567
1625.37	1.99409
1626.9	2.14927
1628.44	2.54555
1629.97	1.5369
1631.51	1.8173
1633.04	2.11548
1634.58	2.28314
1636.11	2.07871
1637.65	1.74529
1639.18	2.34514
1640.72	2.81411
1642.25	2.57377
1643.78	2.22021
1645.31	2.38623
1646.85	2.14156
1648.38	2.58429
1649.91	2.45144
1651.44	3.15529
1652.97	3.86036
1654.5	3.06488
1656.03	2.84546
1657.56	3.20037
1659.1	2.90549
1660.62	2.90498
1662.15	3.40164
1663.68	2.84216
1665.21	3.37239
1666.74	2.40758
1668.27	2.07288
1669.8	3.12321
1671.32	2.314
1672.85	2.48321
1674.38	1.75063
1675.91	1.97532
1677.43	1.83056
1678.96	1.35317
1680.49	1.6653
1682.01	2.03106
1683.54	2.21226
1685.06	1.95295
1686.59	1.6028
1688.11	1.43699
1689.64	1.94968
1691.16	1.4735
1692.68	0.851477
1694.21	1.1079
1695.73	0.778804
1697.25	1.03434
1698.78	0.996909
1700.3	0.593887
1701.82	0.865397
1703.34	0.917001
1704.86	1.82353
1706.39	0.671987
1707.91	0.794456
1709.43	0.589661
1710.95	0.929727
1712.47	1.07001
1713.99	0.630546
1715.51	0.988343
1717.02	1.58056
1718.54	0.454745
1720.06	0.450212
1721.58	0.842845
1723.1	0.802998
1724.62	1.14298
1726.13	1.55652
1727.65	1.17969
1729.17	0.696533
1730.68	0.737546
1732.2	0.832087
1733.72	0.518247
1735.23	1.08774
1736.75	0.860316
1738.26	0.563113
1739.78	0.676902
1741.29	0.805361
1742.81	0.700589
1744.32	0.778262
1745.84	0.674146
1747.35	0.970569
1748.86	0.648124
1750.37	0.343934
1751.89	0.535972
1753.4	0.0341978
1754.91	0.0468636
1756.42	-0.159825
1757.93	0.0738859
1759.45	0.328918
1760.96	0.216506
1762.47	-0.129668
1763.98	0.307853
1765.49	-0.262166
1767	0.265578
1768.51	-0.0836725
1770.02	0.687563
1771.53	0.122933
1773.03	0.112394
1774.54	0.69186
1776.05	0.406766
1777.56	0.403642
1779.07	-0.203179
1780.57	-0.167265
1782.08	-0.0243807
1783.59	0.0902157
1785.09	0.230795
1786.6	-0.112008
1788.11	0.237878
1789.61	0.163756
1791.12	0.0788937
1792.62	0.127419
1794.13	0.157313
1795.63	-0.176709
1797.13	-0.542356
1798.64	-0.0433998
1800.14	-0.29753
1801.65	0.0161858
1803.15	0.115283
1804.65	0.059845
1806.15	0.18336
1807.66	-0.0923204
1809.16	-0.407743
1810.66	-0.0636892
1812.16	0.284246
1813.66	0.109167
1815.16	0.0499573
1816.66	0.029376
1818.16	0.133101
1819.66	0.282985
1821.16	-0.117956
1822.66	0.0349112
1824.16	0.015729
1825.66	0.412817
1827.16	0.195824
1828.66	0.180338
1830.16	-0.206371
1831.65	0.0501661
1833.15	0.0285301
1834.65	-0.0899744
1836.14	-0.0659218
1837.64	0.254083
1839.14	0.0145235
1840.63	-0.10179
1842.13	-0.189596
1843.62	0.299126
1845.12	0.399706
1846.61	0.164808
1848.11	0.514458
1849.6	0.465844
1851.1	-0.201344
1852.59	-0.155445
1854.08	0.253016
1855.58	0.398387
1857.07	0.386578
1858.56	0.632352
1860.05	0.408665
1861.55	0.343263
1863.04	0.125547
1864.53	-0.00300884
1866.02	0.0106211
1867.51	0.0773678
1869	0.244814
1870.49	0.335375
1871.98	0.25954
1873.47	0.398915
1874.96	-0.0544119
1876.45	0.325367
1877.94	0.607698
1879.43	-0.000425339
1880.92	0.650272
1882.41	-0.0344849
1882.51	-0.0867262
1884	-0.0689917
1885.5	0.0522699
1886.99	0.485792
1888.48	0.047781
1889.98	0.184609
1891.47	0.479088
1892.96	0.288667
1894.46	0.0659227
1895.95	0.00164604
1897.44	-0.131141
1898.93	0.083786
1900.42	0.262675
1901.91	-0.169405
1903.41	0.144221
1904.9	-0.274371
1906.39	0.209882
1907.88	0.311536
1909.37	0.309727
1910.86	0.534703
1912.35	0.726052
1913.83	-0.0878429
1915.32	-0.311746
1916.81	0.0534697
1918.3	0.261818
1919.79	0.504095
1921.27	0.0185986
1922.76	0.26117
1924.25	-0.291617
1925.74	-0.11578
1927.22	0.0960274
1928.71	0.0316734
1930.19	0.0365295
1931.68	0.109628
1933.17	0.180858
1934.65	0.128587
1936.14	0.160685
1937.62	0.467827
1939.11	-0.0208778
1940.59	0.0612373
1942.07	0.265138
1943.56	-0.150805
1945.04	-0.410135
1946.52	0.417227
1948.01	0.554429
1949.49	-0.136332
1950.97	0.188122
1952.45	-0.0568352
1953.93	0.0244865
1955.42	0.0540266
1956.9	0.152703
1958.38	0.0805054
1959.86	0.00932121
1961.34	-0.352602
1962.82	0.0916061
1964.3	-0.389965
1965.78	0.104382
1967.26	0.306371
1968.74	0.199369
1970.21	-0.181747
1971.69	0.462155
1973.17	-0.140932
1974.65	0.399708
1976.13	0.138746
1977.6	0.133842
1979.08	0.163109
1980.56	-0.522122
1982.03	0.0852318
1983.51	-0.191933
1984.99	0.124949
1986.46	0.169655
1987.94	0.061738
1989.41	0.225319
1990.89	0.203379
1992.36	0.115019
1993.84	0.518287
1995.31	0.144944
1996.78	0.262344
1998.26	-0.008811
1999.73	0.29367
2001.2	-0.0123777
2002.68	0.271547
2004.15	0.268414
2005.62	-0.121847
2007.09	0.567129
2008.56	0.448631
2010.04	0.415505
2011.51	-0.155584
2012.98	0.502219
2014.45	0.401999
2015.92	0.351283
2017.39	0.602138
2018.86	-0.34187
2020.33	-0.00870037
2021.8	0.00485611
2023.26	-0.501538
2024.73	-0.167616
2026.2	0.167543
2027.67	0.0683308
2029.14	-0.649585
2030.61	0.261209
2032.07	0.217166
2033.54	0.408748
2035.01	0.197407
2036.47	0.338211
2037.94	0.377581
2039.4	0.0803118
2040.87	0.253522
2042.33	0.292769
2043.8	-0.0874987
2045.27	-0.399635
2046.73	0.400022
2048.19	-0.58465
2049.66	0.333715
2051.12	0.745824
2052.59	0.127387
2054.05	0.164226
2055.51	0.367452
2056.97	0.214787
2058.44	0.2297
2059.9	0.177005
2061.36	0.310074
2062.82	0.578753
2064.28	0.124954
2065.74	0.530798
2067.21	0.0962772
2068.67	0.015893
2070.13	0.424044
2071.59	0.344161
2073.05	0.0451813
2074.51	0.116263
2075.96	0.355335
2077.42	0.40871
2078.88	0.0574102
2080.34	0.278082
2081.8	0.329637
2083.26	0.58231
2084.72	0.0429811
2086.17	0.815162
2087.63	0.19032
2089.09	0.405814
2090.54	0.553638
2092	-0.0542746
2093.45	0.110201
2094.91	0.52573
2096.37	-0.115743
2097.82	0.33145
2099.28	0.275121
2100.73	0.41914
2102.19	0.680174
2103.64	0.440945
2105.09	0.90461
2106.55	0.618954
2108	0.618402
2109.45	0.651656
2110.91	0.684208
2112.36	0.298464
2113.81	0.543773
2115.26	0.503802
2116.72	0.479356
2118.17	0.355676
2119.62	0.233852
2121.07	0.595667
2122.52	0.677736
2123.97	0.413423
2125.42	0.597698
2126.87	1.09664
2128.32	0.400618
2129.77	0.349509
2131.22	1.02556
2132.67	1.35221
2134.11	0.983623
2135.56	1.34397
2137.01	1.2597
2138.46	0.830872
2139.91	0.685483
2141.35	1.13724
2142.8	1.47506
2144.25	1.06958
2145.7	0.713594
2147.14	1.78084
2148.59	1.02613
2150.03	0.833133
2151.48	0.804477
2152.92	1.12252
2154.37	1.29037
2155.81	1.20908
2157.26	1.4095
2158.7	0.948237
2160.15	1.71453
2161.59	1.4229
2163.03	1.59771
2164.47	1.62545
2165.92	2.16904
2167.36	1.4174
2168.8	1.59436
2170.24	1.85232
2171.69	1.74161
2173.13	2.0275
2174.57	1.92888
2176.01	1.69644
2177.45	1.71375
2178.89	1.61568
2180.33	1.5023
2181.77	1.47319
2183.21	1.69431
2184.65	1.58323
2186.09	2.08773
2187.53	1.32788
2188.97	1.10036
2190.4	1.58848
2191.84	1.42713
2193.28	1.81424
2194.72	1.43371
2196.16	1.6002
2197.59	1.38125
2199.03	0.910864
2200.47	1.30375
2201.9	1.59622
2203.34	1.19232
2204.77	1.12197
2206.21	0.920447
2207.64	0.835756
2209.08	0.999313
2210.51	1.01277
2211.95	0.975298
2213.38	1.10219
2214.82	0.799275
2216.25	1.30634
2217.68	0.576972
2219.12	0.657893
2220.55	1.21794
2221.98	1.01971
2223.41	1.00193
2224.85	0.356668
2226.28	0.499915
2227.71	0.821702
2229.14	0.122961
2230.57	0.687954
2232	0.415682
2233.43	0.766361
2234.86	0.348708
2236.29	0.586796
2237.72	0.46733
2239.15	0.627765
2240.58	0.317572
2242.01	0.450108
2243.44	0.32323
2244.87	0.359922
2246.29	0.314262
2247.72	0.331915
2249.15	0.0208645
2250.58	0.505724
2252.01	0.450479
2253.43	0.849589
2254.86	0.241019
2256.29	0.414475
2257.71	0.752913
2259.14	0.29983
2260.56	0.223589
2261.99	0.621037
2263.41	0.29006
2264.84	0.706656
2266.26	0.147663
2267.69	0.807224
2269.11	0.392053
2270.53	0.431419
2271.96	0.84466
2273.38	0.313252
2274.8	0.628778
2276.23	0.130028
2277.65	0.462441
2279.07	0.257135
2280.49	0.149487
2281.91	0.204739
2283.34	0.455692
2284.76	0.135653
2286.18	-0.102666
2287.6	0.475706
2289.02	0.238331
2290.44	-0.341864
2291.86	-0.00676823
2293.28	0.345134
2294.7	0.48461
2296.12	-0.2598
2297.54	0.534381
2298.96	0.215293
2300.37	0.109215
2301.79	0.265749
2303.21	0.472008
2304.63	-0.0435658
2306.04	0.113585
2307.46	0.0240078
2308.88	0.229584
2310.3	0.105704
2311.71	0.211531
2313.13	0.136375
2314.54	0.374391
2315.96	0.300633
2317.37	0.392529
2318.79	0.270792
2320.2	0.610456
2321.62	-0.139973
2323.03	0.278662
2324.45	0.413929
2325.86	0.513312
2327.27	0.593989
2328.69	0.525259
2330.1	0.621542
2331.51	0.323719
2332.92	0.307313
2334.34	0.160356
2335.75	-0.34813
2337.16	-0.0510254
2338.57	-0.11696
2339.98	0.341604
2341.39	-0.0883121
2342.8	-0.0752115
2344.21	-0.209778
2345.63	0.213386
2347.04	0.194139
2348.45	0.322282
2349.85	0.171695
2351.26	-0.19214
2352.67	-0.0176001
2354.08	-0.268765
2355.49	0.164345
2356.9	-0.1203
2358.3	0.587764
2359.71	0.108398
2361.12	-0.158834
2362.53	-0.0201902
2363.93	0.36097
2365.34	0.514734
2366.75	-0.0588484
2368.15	0.17673
2369.56	-0.0708094
2370.97	-0.316358
2372.37	-0.0444832
2373.77	-0.0454149
2375.18	-0.142446
2376.59	-0.384633
2377.99	0.610325
2379.39	0.220157
2380.8	-0.235631
2382.2	0.141639
2383.6	-0.187777
2385.01	0.203133
2386.41	0.290008
2387.81	0.377801
2389.21	0.179918
2390.62	0.445941
2392.02	0.012558
2393.42	-0.403154
2394.82	0.136788
2396.22	0.216097
2397.62	-0.244227
2399.02	0.154402
2400.42	-0.240835
2401.82	0.380987
2403.22	0.208616
2404.62	-0.138809
2406.02	-0.201365
2407.42	-0.0428467
2408.82	0.225586
2410.22	-0.156576
2411.62	-0.189548
2413.01	0.0476904
2414.41	-0.410316
2415.81	-0.0590782
2417.21	0.19876
2418.6	0.362775
2420	0.0680294
2421.4	0.359127
2422.79	0.412235
2424.19	-0.08955
2425.59	0.77139
2426.98	0.270209
2428.38	-0.499641
2429.77	0.412209
2431.17	-0.0388613
2432.56	-0.0932894
2433.95	0.296287
2435.35	0.271721
2436.74	-0.199574
2438.14	-0.132543
2439.53	0.0599976
2440.92	0.711838
2442.31	0.0132227
2443.71	-0.0346336
2445.1	-0.368178
2446.49	0.24964
2447.88	0.201154
2449.27	-0.0215597
2450.67	0.183688
2452.06	-0.164548
2453.45	0.279513
2454.84	0.566224
2456.23	0.394998
2457.62	0.255835
2459.01	-0.0100317
2460.4	-0.118388
2461.79	-0.101185
2463.18	-0.44847
2464.57	0.467741
2465.95	0.261541
2467.34	-0.228741
2468.73	-0.166419
2470.12	-0.120168
2471.5	0.240745
2472.89	-0.234511
2474.28	0.391891
2475.67	0.151398
2477.05	0.225162
2478.44	-0.203817
2479.82	-0.255312
2481.21	-0.181094
2482.6	0.112272
2483.98	-0.252892
2485.37	-0.133615
2486.75	0.280908
2488.13	0.162571
2489.52	-0.112244
2490.9	0.251582
2492.29	0.0244017
2493.67	-0.0922756
2495.05	-0.439808
2496.44	0.346223
2497.82	-0.0915031
2499.2	0.0289307
2500.58	0.117857
2501.97	-0.165221
2503.35	0.168651
2504.73	0.0997171
2506.11	-0.0468855
2507.49	0.0681696
2508.87	-0.170488
2510.25	0.436519
2511.63	0.322
2513.01	-0.0672712
2514.39	0.111851
2515.77	0.0774755
2517.15	-0.215966
2518.53	-0.340261
2519.91	0.101168
2521.29	-0.176004
2522.67	0.0195265
2524.05	0.107009
2525.42	-0.309454
2526.8	-0.116461
2528.18	0.0766802
2529.55	0.118795
2530.93	0.405947
2532.31	0.436675
2533.69	0.393136
2535.06	0.320114
2536.44	0.0191689
2537.81	-0.130632
2539.19	-0.0992746
2540.56	0.720568
2541.94	-0.00871372
2543.31	-0.0696058
2544.69	0.295263
2546.06	0.085146
2547.44	0.195054
2548.81	0.0936193
2550.18	-0.00774765
2551.56	0.0116873
2552.93	-0.167276
2554.3	-0.119831
2555.67	0.0478849
2557.04	0.275505
2558.42	0.154063
2559.79	0.230062
2561.16	0.124793
2562.53	0.11125
2563.9	0.280254
2565.27	0.29824
2566.64	0.255904
2568.01	0.350069
2569.38	0.201743
2570.75	-0.446776
2572.12	-0.155568
2573.49	0.0144987
2574.86	-0.0578661
2576.23	-0.160539
2577.6	0.388649
2578.97	0.361424
2580.33	-0.166632
2581.7	0.533003
2583.07	-0.102133
2584.44	0.0811825
2585.8	0.112795
2587.17	-0.0676603
2588.54	0.131013
2589.9	-0.0187674
2591.27	0.467763
2592.64	0.0445089
2594	0.499029
2595.37	0.0434036
2596.73	0.479922
2598.1	0.491402
2599.46	-0.480358
2600.83	0.256559
2602.19	0.585504
2603.55	0.447009
2604.92	0.430037
2606.28	0.247393
2607.64	0.516843
2609.01	0.167061
2610.37	0.298167
2611.73	-0.189615
2613.09	0.509916
2614.46	-0.310058
2615.82	-0.28836
2617.18	0.138286
2618.54	0.265287
2619.9	-0.504828
2621.26	-0.151443
2622.62	0.216988
2623.98	0.137227
2625.34	0.117181
2626.7	0.275792
2628.06	0.314543
2629.42	0.0848274
2630.78	-0.115044
2632.14	0.265029
2633.5	0.466161
2634.86	0.503658
2636.21	0.733835
2637.57	0.415332
2638.93	0.141809
2640.29	0.0316362
2641.64	0.690673
2643	0.24111
2644.36	-0.0304699
2645.71	0.244061
2647.07	0.281835
2648.43	0.348141
2649.78	0.398585
2651.14	0.0364208
2652.49	0.203284
2653.85	0.267353
2655.2	0.258905
2656.56	0.193222
2657.91	0.670588
2659.26	0.270806
2660.62	0.398314
2661.97	0.0724678
2663.32	0.0967855
2664.68	0.178455
2666.03	0.390333
2667.38	0.236923
2668.74	0.433097
2670.09	0.149136
2671.44	0.113387
2672.79	0.0493822
2674.14	0.0733271
2675.49	0.214046
2676.84	-0.0364084
2678.19	-0.0538425
2679.54	0.321211
2680.89	-0.259476
2682.24	0.00218582
2683.59	0.134807
2684.94	0.167113
2686.29	0.519226
2687.64	0.0150166
2688.99	0.0462704
2690.34	0.32229
2691.69	0.668538
2693.03	0.577351
2694.38	0.499485
2695.73	0.653326
2697.08	0.807765
2698.42	0.0803766
2699.77	0.137209
2701.12	0.529206
2702.46	0.561119
2703.81	0.521925
2705.15	-0.0820541
2706.5	0.328767
2707.85	0.260773
2709.19	0.366411
2710.54	0.529726
2711.88	0.518482
2713.22	0.492502
2714.57	0.335596
2715.91	0.207582
2717.26	0.806511
2718.6	0.721683
2719.94	0.563573
2721.29	0.506694
2722.63	0.434622
2723.97	0.711266
2725.31	0.434238
2726.66	0.491496
2728	0.781196
2729.34	0.779468
2730.68	0.719338
2732.02	0.746458
2733.36	0.104509
2734.7	0.597444
2736.04	0.436039
2737.38	0.347532
2738.72	0.346256
2740.06	0.402834
2741.4	0.662359
2742.74	0.746515
2744.08	0.0740089
2745.42	0.534323
2746.76	0.645191
2748.09	-0.0135927
2749.43	0.184252
2750.77	0.454679
2752.11	0.217778
2753.45	0.604517
2754.78	0.397194
2756.12	0.190156
2757.46	0.635012
2758.79	-0.251848
2760.13	0.35286
2761.46	0.0462866
2762.8	0.550657
2764.14	-0.0587616
2765.47	0.127624
2766.8	0.313423
2768.14	-0.152869
2769.47	0.579649
2770.81	-0.164374
2772.14	-0.0426722
2773.48	-0.0667095
2774.81	-0.00489426
2776.14	0.373628
2777.48	0.0467272
2778.81	0.238726
2780.14	0.14367
2781.47	0.106579
2782.8	0.0409346
2784.14	-0.168128
2785.47	-0.0186443
2786.8	-0.341803
2788.13	-0.291812
2789.46	0.23119
2790.79	0.397296
2792.12	-0.179235
2793.45	0.11708
2794.78	0.31327
2796.11	0.0517216
2797.44	0.0753202
2798.77	0.0268135
2800.1	-0.250539
2801.43	-0.214136
2802.76	0.121411
2804.09	0.0715218
2805.41	-0.292192
2806.74	0.39707
2808.07	0.501421
2809.4	0.249772
2810.72	0.325151
2812.05	0.287634
2813.38	-0.0888186
2814.71	0.0614071
2816.03	0.539336
2817.36	0.324069
2818.68	0.137917
2820.01	0.731329
2821.33	0.658009
2822.66	0.853083
2823.98	0.593883
2825.31	0.900921
2826.63	0.95296
2827.96	0.694171
2829.28	1.10156
2830.6	1.1273
2831.93	1.06839
2833.25	1.49069
2834.57	1.45958
2835.9	1.65424
2837.22	2.20183
2838.54	2.66366
2839.86	2.81383
2841.18	3.51546
2842.5	3.87816
2843.83	4.86362
2845.15	5.00216
2846.47	6.03211
2847.79	6.46919
2849.11	6.80742
2850.43	7.10275
2851.75	6.42193
2853.07	7.40793
2854.39	6.79621
2855.71	6.7636
2857.03	7.81871
2858.35	7.23519
2859.66	7.41441
2860.98	7.98864
2862.3	8.06796
2863.62	8.54174
2864.94	7.98474
2866.25	8.72578
2867.57	8.31049
2868.89	9.40489
2870.2	8.79389
2871.52	9.35333
2872.84	9.20744
2874.15	9.7929
2875.47	9.91119
2876.78	9.11217
2878.1	10.1558
2879.41	10.4804
2880.73	10.3415
2882.04	10.6538
2883.36	10.5045
2884.67	10.6942
2885.99	10.1832
2887.3	10.1637
2888.61	11.2799
2889.93	11.2719
2891.24	10.7012
2892.55	10.5083
2893.86	11.0297
2895.18	10.7811
2896.49	11.5142
2897.8	11.1434
2899.11	11.5583
2900.42	11.7369
2901.73	11.8045
2903.05	12.0963
2904.36	12.3324
2905.67	11.8837
2906.98	12.1215
2908.29	12.291
2909.6	12.882
2910.91	12.8306
2912.21	13.0871
2913.52	13.5383
2914.83	13.0067
2916.14	14.0537
2917.45	13.7256
2918.76	13.9693
2920.07	13.2335
2921.37	14.1353
2922.68	14.7036
2923.99	14.6037
2925.29	14.1847
2926.6	14.7034
2927.91	15.2783
2929.22	15.6707
2930.52	15.3071
2931.83	14.6909
2933.13	15.2764
2934.44	15.3167
2935.74	14.9519
2937.05	14.6575
2938.35	14.573
2939.66	14.7267
2940.96	13.7355
2942.26	12.9836
2943.57	13.7152
2944.87	11.7656
2946.18	12.1105
2947.48	12.009
2948.78	11.1794
2950.08	11.1172
2951.39	10.6738
2952.69	10.7311
2953.99	10.03
2955.29	10.2243
2956.59	10.2941
2957.9	9.94752
2959.2	9.40951
2960.5	8.73571
2961.8	9.60655
2963.1	9.1894
2964.4	9.13579
2965.7	8.34926
2967	7.68574
2968.3	7.48356
2969.6	7.20976
2970.9	7.32949
2972.19	7.492
2973.49	7.27523
2974.79	6.97394
2976.09	6.48852
2977.39	5.97285
2978.68	5.86296
2979.98	6.00386
2981.28	5.76273
2982.58	4.98648
2983.87	4.32389
2985.17	5.04072
2986.47	4.66346
2987.76	4.44308
2989.06	3.67617
2990.35	3.7388
2991.65	3.67432
2992.94	2.86361
2994.24	2.78209
2995.53	3.41546
2996.83	3.0084
2998.12	2.99437
2999.42	2.37759
3000.71	2.30895
3002	2.12909
3003.3	1.52962
3004.59	1.98135
3005.88	1.69032
3007.18	1.46877
3008.47	1.52622
3009.76	1.31684
3011.05	1.27449
3012.34	1.16191
3013.64	1.21699
3014.93	0.784691
3016.22	0.813692
3017.51	0.565259
3018.8	0.248289
3020.09	0.710659
3021.38	0.199134
3022.67	0.39568
3023.96	0.354893
3025.25	0.451962
3026.54	0.0915947
3027.83	0.16154
3029.12	0.412556
3030.41	-0.0256529
3031.69	0.532856
3032.98	0.04317
3034.27	0.340969
3035.56	0.403502
3036.84	0.478244
3038.13	0.426767
3039.42	0.249276
3040.71	0.3315
3041.99	0.371287
3043.28	0.452117
3044.57	-0.0272913
3045.85	-0.0795765
3047.14	-0.0197382
3048.42	-0.366592
3049.71	0.285797
3050.99	-0.179005
3052.28	0.0260496
3053.56	0.326753
3054.85	0.490307
3056.13	0.448061
3057.41	0.268288
3058.7	0.469329
3059.98	0.49293
3061.26	0.190498
3062.55	0.32494
3063.83	0.0396118
3065.11	0.436174
3066.39	0.807371
3067.68	0.0923195
3068.96	0.0984459
3070.24	0.526071
3071.52	0.367989
3072.8	0.127006
3074.08	0.68683
3075.36	0.226112
3076.65	0.145872
3077.93	0.0527678
3079.21	0.0697374
3080.49	-0.0334253
3081.77	-0.378714
3083.04	-0.125494
3084.32	-0.10187
3085.6	0.0442028
3086.88	0.434254
3088.16	0.226426
3089.44	-0.0227547
3090.72	-0.136539
3091.99	0.224574
3093.27	0.138301
3094.55	-0.150801
3095.83	0.0488377
3097.1	-0.361316
3098.38	-0.0257368
3099.66	0.323285
3100.93	0.211645
3102.21	0.127438
3103.49	0.0438061
3104.76	0.272341
3106.04	0.177078
3107.31	-0.106333
3108.59	0.0582619
3109.86	-0.0192966
3111.14	0.567916
3112.41	0.371051
3113.69	0.0663471
3114.96	0.398701
3116.23	0.0529709
3117.51	0.452286
3118.78	0.199574
3120.05	0.596791
3121.33	0.355748
3122.6	0.670049
3123.87	0.442211
3125.14	0.594193
3126.41	0.733289
3127.69	0.764977
3128.96	0.797527
3130.23	0.722549
3131.5	0.539911
3132.77	0.519644
3134.04	0.715343
3135.31	0.815983
3136.58	0.524904
3137.85	0.759688
3139.12	0.7515
3140.39	0.770292
3141.66	0.681887
3142.93	0.930181
3144.2	0.789565
3145.47	0.811212
3146.74	0.927772
3148	1.16578
3149.27	1.11001
