200.563	-0.170835
202.377	-0.159312
204.194	-0.146888
206.008	0.450143
207.821	0.0259266
209.634	0.257739
211.449	0.488353
213.262	0.474779
215.074	0.557266
216.885	0.251395
218.699	0.60004
220.51	0.489058
222.321	0.548524
224.131	-0.479047
225.941	-0.0793257
227.751	0.489268
229.562	0.260286
231.371	-0.620585
233.18	0.766726
234.988	0.176044
236.796	-0.581608
238.603	0.0368423
240.411	0.103333
242.219	0.533786
244.026	0.314548
245.832	0.0467854
247.638	0.767241
249.443	-0.108315
251.248	0.534312
253.053	0.184484
254.857	-0.11835
256.661	0.012826
258.465	0.0242786
260.268	-0.0348816
262.071	0.148764
263.874	-0.0273075
265.678	-0.0336847
267.48	0.972516
269.282	0.0745077
271.083	0.5497
272.884	0.397012
274.684	-0.287416
276.484	0.208008
278.284	-0.0696602
280.084	0.855268
281.883	0.429265
283.682	0.507128
285.48	0.415334
287.276	-0.0609531
289.074	-0.152575
290.871	0.0202532
292.668	0.19412
294.465	-0.156893
296.261	0.47415
298.057	0.245422
299.853	-0.0542908
301.648	-0.401729
303.443	-0.463171
305.237	-0.239289
307.032	0.365172
308.823	0.89731
310.617	-0.0475721
312.41	0.319475
314.203	0.33086
315.995	0.629888
317.788	0.406914
319.579	0.0186434
321.369	0.322425
323.16	0.293488
324.951	0.384316
326.741	0.523177
328.531	0.709814
330.321	0.91995
332.108	-0.0429058
333.897	0.164271
335.686	0.369515
337.474	0.237561
339.26	0.0797224
341.048	0.805373
342.835	-0.143538
344.622	0.270302
346.406	0.660494
348.192	1.29
349.978	0.773919
351.764	-0.00440788
353.547	-0.305675
355.332	0.895053
357.116	0.0907307
358.901	0.12
360.682	0.219603
362.466	0.318216
364.249	-0.249748
366.03	-0.0809813
367.812	0.0393124
369.594	0.443094
371.374	-0.0784702
373.155	0.13387
374.936	-0.0326595
376.715	0.320597
378.495	-0.410939
380.273	-0.0329762
382.053	-0.172306
383.832	0.160246
385.609	0.423178
387.388	-0.276253
389.164	0.341364
390.942	-0.332027
392.72	0.428104
394.495	-0.384619
396.272	-0.398487
398.047	-0.13041
399.823	0.419426
401.597	0.217272
403.372	-0.0794048
405.145	0.186921
406.92	-0.111054
408.693	0.318343
410.467	0.254381
412.239	0.28441
414.012	0.00987244
415.783	0.0176792
417.556	-0.0440788
419.327	0.0590649
421.099	1.1483
422.869	0.289238
424.64	0.438815
426.409	0.470131
428.18	0.477191
429.948	0.0613136
431.718	-0.00238705
433.486	0.614884
435.253	0.0590534
437.022	-0.825357
438.789	-0.0910168
440.558	0.19596
442.324	0.152453
444.089	0.388221
445.857	0.129982
447.622	-0.0353231
449.386	-0.294244
451.153	0.2651
452.917	-0.179874
454.682	0.262424
456.446	0.144704
458.208	0.67911
459.973	0.398399
461.735	-0.183434
463.497	-0.0890417
465.259	0.332899
467.022	0.223176
468.783	0.13928
470.544	0.336185
472.306	-0.443465
474.066	0.311975
475.825	0.15801
477.585	0.677464
479.346	-0.086009
481.104	-0.198074
482.862	0.435371
484.62	-0.164406
486.38	0.0528879
488.137	0.482162
489.894	0.144259
491.65	0.203732
493.407	0.00692081
495.164	0.160794
496.92	0.455329
498.675	0.586121
500.43	0.224209
502.184	1.01118
503.939	-0.104155
505.694	0.587753
507.448	0.361938
509.201	0.887241
510.954	0.187663
512.706	-0.0194387
514.459	0.148547
516.21	0.268158
517.962	0.410085
519.715	0.550956
521.466	0.503024
523.216	0.689533
524.966	0.523616
526.716	0.334426
528.466	0.708182
530.215	0.425321
531.964	0.446838
533.712	0.467549
535.46	0.627418
537.208	0.294919
538.955	0.335229
540.703	0.257751
542.449	0.296177
544.196	-0.410213
545.942	0.279166
547.688	0.967103
549.433	0.842421
551.178	0.0468006
552.923	0.0857763
554.667	0.147984
556.412	-0.15895
558.155	0.365224
559.899	0.197799
561.642	-0.521208
563.385	-0.387506
565.127	-0.00062561
566.867	0.455277
568.609	0.475275
570.35	-0.123244
572.092	-0.284158
573.832	0.0611687
575.573	0.270542
577.313	0.504561
579.053	0.303862
580.79	0.218543
582.529	0.110251
584.268	0.691049
586.006	0.00635719
587.745	-0.633903
589.482	-0.217105
591.218	0.336976
592.955	0.177359
594.692	0.454762
596.428	0.295082
598.164	0.894605
599.898	0.734534
601.634	0.458631
603.369	0.618544
605.104	0.776915
606.836	0.589207
608.57	-0.333879
610.304	-0.223232
612.037	0.048315
613.769	-0.115253
615.501	0.294888
617.234	-0.257344
618.966	0.42701
620.696	0.514566
622.427	0.143324
624.159	-0.251058
625.887	-0.00523567
627.618	-0.283773
629.348	-0.377682
631.076	0.146639
632.806	0.627195
634.535	-0.055131
636.262	0.197875
637.99	0.0155411
639.716	0.218703
641.444	0.373287
643.172	0.183539
644.897	-0.166337
646.624	-0.0375557
648.348	0.342847
650.075	0.589539
651.801	-0.0689812
653.524	-0.110503
655.249	0.487878
656.972	0.679547
658.697	0.439369
660.419	0.129754
662.143	0.457553
663.865	0.417953
665.588	0.0102129
667.309	0.515217
669.032	0.0591469
670.752	0.267087
672.474	0.362542
674.194	0.322953
675.915	0.0789623
677.634	0.63868
679.355	0.510558
681.073	0.519141
682.793	0.779107
684.511	0.692025
686.23	0.810205
687.947	0.420209
689.664	0.558894
691.382	0.742973
693.098	0.650023
694.816	0.602415
696.531	0.991387
698.247	0.435168
699.963	0.108294
701.678	0.631594
703.392	0.371984
705.108	0.915876
706.821	0.930658
708.534	0.119513
710.249	0.134136
711.962	-0.0118265
713.674	0.665568
715.388	1.02164
717.099	0.669307
718.81	1.43538
720.523	0.832858
722.234	1.30176
723.944	0.973602
725.654	1.28237
727.365	1.2042
729.075	0.626565
730.784	0.502976
732.492	1.03603
734.202	1.0701
735.91	1.03638
737.618	1.13856
739.325	1.01563
741.034	1.07416
742.741	1.20135
744.447	0.992008
746.153	1.70683
747.859	1.29773
749.564	0.755146
751.271	1.27098
752.976	1.18075
754.681	0.75435
756.385	1.13928
758.088	1.43591
759.792	1.48643
761.495	1.08714
763.2	1.02618
764.902	1.91323
766.604	0.857102
768.306	1.94567
770.008	1.49521
771.709	1.22356
773.41	1.38022
775.11	1.44601
776.811	1.69323
778.51	1.69299
780.21	1.78468
781.909	2.0811
783.608	1.56304
785.307	1.8132
787.005	2.28744
788.703	2.07938
790.401	1.80037
792.098	1.36092
793.795	2.11743
795.492	1.20309
797.188	1.82378
798.884	2.12982
800.58	2.39224
802.276	2.47584
803.971	1.95282
805.665	2.08193
807.36	1.85057
809.054	2.65124
810.748	1.99107
812.441	1.91393
814.135	2.12762
815.826	2.40786
817.518	2.10605
819.21	1.78246
820.902	1.77217
822.594	1.58378
824.285	1.64169
825.976	2.25795
827.665	1.69528
829.355	1.95953
831.045	1.91491
832.735	1.98439
834.424	1.78844
836.111	1.30319
837.8	1.84378
839.488	1.89253
841.177	1.2473
842.864	2.14211
844.55	1.69604
846.237	1.69751
847.924	1.92429
849.61	2.2432
851.295	1.15423
852.98	1.74616
854.666	2.22795
856.349	1.60979
858.034	1.70881
859.719	1.2663
861.403	1.81222
863.085	1.65877
864.769	1.61665
866.452	1.73141
868.133	0.94363
869.816	1.73385
871.498	0.945001
873.179	2.34412
874.86	4.19482
876.54	3.33798
878.221	1.64579
879.902	0.923671
881.58	1.44267
883.26	1.50949
884.938	1.77839
886.618	1.63959
888.297	1.67981
889.974	1.35765
891.653	1.34993
893.329	1.74631
895.007	1.96088
896.683	1.4547
898.36	1.06081
900.035	1.51923
901.712	1.32613
903.387	1.42385
905.063	1.34235
906.737	1.73
908.412	1.91668
910.085	0.812283
911.76	1.55734
913.433	1.3904
915.107	1.4239
916.779	1.56828
918.452	1.06964
920.124	1.4355
921.797	1.35883
923.467	2.01278
925.138	1.67342
926.81	1.64532
928.48	1.46436
930.151	1.6377
931.82	1.6351
933.489	1.65478
935.16	1.65256
936.828	1.98158
938.496	0.723508
940.165	1.0986
941.833	1.25429
943.5	0.814898
945.168	1.74354
946.834	1.0599
948.5	0.904242
950.168	1.21032
951.834	1.27244
953.499	1.4449
955.163	1.33215
956.83	1.00154
958.494	0.585498
960.158	0.877822
961.821	0.862604
963.487	0.780851
965.15	0.962802
966.812	0.96541
968.474	0.722054
970.138	0.963561
971.8	1.31482
973.461	0.472229
975.123	0.935811
976.783	0.737596
978.446	0.983063
980.106	0.841962
981.766	0.700357
983.425	0.723468
985.084	1.14326
986.743	1.11834
988.402	0.494432
990.06	0.710242
991.72	0.637949
993.378	1.31652
995.035	1.11146
996.692	1.01702
998.349	1.27541
1000.01	1.1807
1001.66	0.887526
1003.32	0.682348
1004.97	1.0269
1006.63	1.17308
1008.28	1.01174
1009.94	0.916749
1011.59	0.42756
1013.25	0.706414
1014.9	1.27001
1016.55	0.213439
1018.21	0.886906
1019.86	0.33575
1021.51	0.310627
1023.16	0.964053
1024.81	0.765772
1026.47	1.09248
1028.12	1.39725
1029.77	0.761909
1031.42	1.19584
1033.07	1.12583
1034.72	0.814343
1036.37	1.15603
1038.02	1.08256
1039.67	0.900306
1041.31	1.67597
1042.96	0.51734
1044.61	1.18653
1046.26	1.07513
1047.91	0.726643
1049.55	0.987756
1051.2	1.14145
1052.84	0.948319
1054.49	0.777155
1056.14	0.453737
1057.78	0.977737
1059.43	0.979619
1061.07	0.915646
1062.72	1.24233
1064.36	1.48111
1066	1.02313
1067.65	1.19459
1069.29	0.648074
1070.93	0.818024
1072.58	1.24819
1074.22	1.13604
1075.86	0.894808
1077.5	0.828412
1079.14	0.589677
1080.78	0.980458
1082.42	0.87243
1084.06	1.11046
1085.7	0.588163
1087.34	0.952701
1088.98	0.708632
1090.62	0.463334
1092.26	0.368711
1093.9	0.900068
1095.54	0.351921
1097.17	0.516812
1098.81	0.59652
1100.45	0.677699
1102.09	0.695977
1103.72	0.522232
1105.36	0.414223
1106.99	0.758356
1108.63	1.40315
1110.27	1.31561
1111.9	0.732267
1113.53	0.985685
1115.17	1.10885
1116.8	1.05968
1118.43	1.0107
1120.07	0.555403
1121.7	0.658235
1123.33	1.06155
1124.97	0.930603
1126.6	1.20692
1128.23	0.542941
1129.86	1.0344
1131.49	0.97041
1133.12	1.14184
1134.75	0.265673
1136.38	0.521859
1138.01	0.926536
1139.64	0.710417
1141.27	0.664339
1142.9	0.660533
1144.53	0.614211
1146.16	-0.07096
1147.78	0.481221
1149.41	0.181637
1151.04	0.39379
1152.67	0.456756
1154.29	0.221312
1155.92	0.326162
1157.54	0.835071
1159.17	0.727212
1160.8	0.705267
1162.42	0.684353
1164.05	1.15336
1165.67	0.389621
1167.29	0.688686
1168.92	0.221352
1170.54	0.624079
1172.16	0.578598
1173.79	0.595243
1175.41	0.0167389
1177.03	0.223014
1178.65	-0.227453
1180.28	0.0853176
1181.9	0.229219
1183.52	-0.176153
1185.14	-0.0528669
1186.76	-0.268414
1188.38	0.337764
1190	0.456318
1191.62	0.972838
1193.24	0.834949
1194.86	0.213848
1196.47	0.391167
1198.09	0.401374
1199.71	-0.0678396
1201.33	0.322541
1202.95	0.526747
1204.56	0.253063
1206.18	-0.164639
1207.8	0.357657
1209.41	-0.183818
1211.03	0.379491
1212.64	0.336346
1214.26	0.0412254
1215.87	0.28591
1217.49	0.695013
1219.1	0.0218906
1220.71	0.0973587
1222.33	0.442869
1223.94	0.333045
1225.55	0.907959
1227.16	0.386847
1228.78	0.239789
1230.39	1.35514
1232	0.713996
1233.61	0.735558
1235.22	0.985587
1236.83	0.947372
1238.44	0.827379
1240.05	1.26625
1241.66	1.12633
1243.27	1.19289
1244.88	1.21735
1246.49	0.268261
1248.1	0.932278
1249.71	1.42999
1251.32	0.417145
1252.92	0.604475
1254.53	1.16473
1256.14	1.04342
1257.74	1.35766
1259.35	1.40412
1260.96	1.01672
1262.56	0.733005
1264.17	0.407637
1265.77	0.931311
1267.38	0.977858
1268.98	1.23087
1270.59	1.21343
1272.19	0.718104
1273.79	1.07191
1275.4	1.52833
1277	1.03042
1278.6	1.11208
1280.21	0.799704
1281.81	0.694301
1283.41	0.899403
1285.01	0.58787
1286.61	1.2903
1288.21	0.629244
1289.81	1.51911
1291.41	1.3554
1293.01	1.70813
1294.61	0.903181
1296.21	1.23325
1297.81	1.27258
1299.41	1.57849
1301.01	1.92376
1302.6	1.54636
1304.2	1.2716
1305.8	1.96291
1307.4	1.07101
1308.99	1.35003
1310.59	2.0383
1312.19	1.59963
1313.78	0.814929
1315.38	1.17678
1316.97	1.41641
1318.57	1.06453
1320.16	1.79346
1321.76	1.05378
1323.35	0.680301
1324.94	1.36294
1326.54	1.61638
1328.13	0.834798
1329.72	1.27054
1331.32	1.24162
1332.91	0.972396
1334.5	1.04886
1336.09	1.24774
1337.68	1.32586
1339.27	1.10087
1340.87	1.17672
1342.45	1.06937
1344.04	1.30212
1345.64	0.971254
1347.22	0.861975
1348.81	1.2552
1350.4	1.40985
1351.99	1.22667
1353.58	0.605721
1355.17	0.625888
1356.75	0.826168
1358.34	0.886095
1359.93	0.765404
1361.51	1.54198
1363.1	1.14008
1364.69	0.857954
1366.27	0.935025
1367.86	1.49068
1369.44	1.35033
1371.03	0.57458
1372.61	0.755446
1374.2	0.977071
1375.78	0.383452
1377.37	1.06339
1378.95	0.688211
1380.53	1.18762
1382.11	0.810371
1383.7	0.730453
1385.28	1.42489
1386.86	0.46936
1388.44	0.964461
1390.02	0.943674
1391.6	0.407818
1393.19	0.785465
1394.77	0.845921
1396.35	0.093194
1397.93	0.985516
1399.51	0.410023
1401.08	0.586799
1402.66	0.564955
1404.24	1.1564
1405.82	1.19408
1407.4	0.71866
1408.97	0.283868
1410.55	0.264559
1412.13	0.501898
1413.71	1.27149
1415.28	0.914991
1416.86	1.11023
1418.43	0.477155
1420.01	0.928495
1421.59	1.24258
1423.16	1.24298
1424.73	1.30396
1426.31	1.248
1427.88	1.80268
1429.46	0.979273
1431.03	1.5131
1432.6	1.19954
1434.18	1.92789
1435.75	1.80974
1437.32	2.26205
1438.89	1.75174
1440.46	2.00908
1442.04	1.8153
1443.61	1.75977
1445.18	1.86185
1446.75	1.92479
1448.32	2.28276
1449.89	2.34621
1451.46	2.01691
1453.03	1.82568
1454.6	2.18552
1456.16	2.36837
1457.73	1.84213
1459.3	2.08207
1460.87	1.53312
1462.44	1.74985
1464	1.76822
1465.57	1.41211
1467.14	1.23287
1468.7	1.07381
1470.27	0.778372
1471.83	0.896124
1473.4	0.79902
1474.96	1.09483
1476.53	0.626252
1478.09	0.6872
1479.66	0.689269
1481.22	0.181666
1482.78	0.673552
1484.35	0.675327
1485.91	0.735536
1487.47	0.266218
1489.04	0.0701275
1490.6	0.77266
1492.16	0.455658
1493.72	0.430263
1495.28	0.871547
1496.84	0.492532
1498.4	0.639652
1499.96	0.864669
1501.52	-0.0163202
1503.08	-0.0217943
1504.64	-0.00717068
1506.2	0.181827
1507.76	0.311904
1509.32	0.17035
1510.88	0.471891
1512.44	0.810461
1513.99	0.339575
1515.55	0.408224
1517.11	0.227708
1518.66	0.24002
1520.22	0.0804539
1521.78	-0.0403585
1523.33	-0.0274191
1524.89	0.42387
1526.44	0.243997
1528	0.311303
1529.55	0.339939
1531.11	0.235601
1532.66	0.0182505
1534.21	0.332433
1535.77	0.306318
1537.32	0.375557
1538.87	0.313133
1540.43	0.156871
1541.98	0.24587
1543.53	0.447515
1545.08	-0.103419
1546.63	0.285621
1548.18	0.223449
1549.74	0.81735
1551.29	0.6613
1552.84	0.917554
1554.39	0.370592
1555.94	0.554079
1557.48	0.813571
1559.03	0.253644
1560.58	0.0687399
1562.13	0.985832
1563.68	0.672668
1565.23	0.751771
1566.78	0.551032
1568.32	0.406015
1569.87	0.391295
1571.42	0.936248
1572.96	0.696966
1574.51	0.308214
1576.05	0.81553
1577.6	0.35231
1579.14	0.0947676
1580.69	0.509898
1582.24	0.739101
1583.78	0.857069
1585.32	0.601994
1586.87	0.459315
1588.41	0.503668
1589.95	0.379451
1591.5	0.554265
1593.04	1.29055
1594.58	0.228878
1596.12	0.909113
1597.67	0.746747
1599.21	0.997357
1600.75	1.02371
1602.29	0.787717
1603.83	0.739226
1605.37	0.784001
1606.91	1.20345
1608.45	0.944615
1609.99	0.72129
1611.53	0.32694
1613.07	0.64487
1614.6	0.154361
1616.14	0.508131
1617.68	0.0934095
1619.22	1.10392
1620.75	0.541826
1622.29	1.04847
1623.83	1.14378
1625.37	0.677507
1626.9	0.622415
1628.44	0.884254
1629.97	1.01375
1631.51	1.19825
1633.04	0.98997
1634.58	0.74491
1636.11	1.0792
1637.65	1.11564
1639.18	1.18989
1640.72	0.891359
1642.25	0.797396
1643.78	0.981826
1645.31	1.22079
1646.85	1.12391
1648.38	1.1384
1649.91	0.72621
1651.44	1.24323
1652.97	1.44554
1654.5	1.64872
1656.03	1.40751
1657.56	0.906957
1659.1	0.924641
1660.62	1.25583
1662.15	0.789848
1663.68	0.804149
1665.21	0.781014
1666.74	1.53335
1668.27	1.21601
1669.8	1.10319
1671.32	1.21292
1672.85	1.48934
1674.38	0.863695
1675.91	1.01135
1677.43	1.28699
1678.96	1.1567
1680.49	0.841718
1682.01	0.838799
1683.54	0.560181
1685.06	0.557245
1686.59	0.0594988
1688.11	0.845654
1689.64	0.532215
1691.16	0.329158
1692.68	0.217863
1694.21	0.124907
1695.73	0.488926
1697.25	0.706157
1698.78	0.48458
1700.3	0.171634
1701.82	0.351041
1703.34	0.256336
1704.86	0.143092
1706.39	0.484485
1707.91	0.370604
1709.43	0.129716
1710.95	0.724061
1712.47	-0.11482
1713.99	0.370329
1715.51	-0.032249
1717.02	-0.000146389
1718.54	-0.293512
1720.06	0.171937
1721.58	0.402225
1723.1	0.0557685
1724.62	0.143053
1726.13	0.32141
1727.65	0.0867767
1729.17	0.302992
1730.68	0.197148
1732.2	0.271253
1733.72	0.0612526
1735.23	-0.0490298
1736.75	0.529711
1738.26	0.479527
1739.78	0.425254
1741.29	0.510221
1742.81	-0.0239334
1744.32	0.136293
1745.84	0.291509
1747.35	0.0394053
1748.86	0.454565
1750.37	0.496759
1751.89	0.370521
1753.4	-0.167421
1754.91	0.581452
1756.42	0.0409617
1757.93	0.0934024
1759.45	0.282716
1760.96	0.026505
1762.47	-0.162545
1763.98	0.112836
1765.49	-0.222178
1767	0.0867939
1768.51	0.357896
1770.02	0.106648
1771.53	0.132624
1773.03	-0.0561724
1774.54	-0.134456
1776.05	0.276196
1777.56	0.230795
1779.07	0.0674143
1780.57	-0.00327921
1782.08	-0.0508409
1783.59	0.337772
1785.09	0.231745
1786.6	0.129702
1788.11	-0.10325
1789.61	-0.306462
1791.12	0.140949
1792.62	0.0779219
1794.13	0.130402
1795.63	0.0497594
1797.13	-0.00465298
1798.64	-0.298585
1800.14	-0.259201
1801.65	-0.221485
1803.15	0.139111
1804.65	-0.0222421
1806.15	0.0861912
1807.66	-0.0459533
1809.16	0.0985641
1810.66	0.139877
1812.16	0.0781975
1813.66	-0.109266
1815.16	0.0555086
1816.66	0.213583
1818.16	0.240626
1819.66	0.301635
1821.16	-0.102163
1822.66	0.154595
1824.16	0.256602
1825.66	0.0245652
1827.16	0.0269046
1828.66	-0.0500798
1830.16	0.289907
1831.65	0.4367
1833.15	0.130079
1834.65	0.260497
1836.14	0.230546
1837.64	-0.212406
1839.14	0.201009
1840.63	0.012558
1842.13	0.0413342
1843.62	5.57899e-005
1845.12	0.02738
1846.61	0.0162244
1848.11	0.271881
1849.6	-0.145042
1851.1	0.24108
1852.59	-0.10257
1854.08	-0.156997
1855.58	0.299628
1857.07	0.31719
1858.56	0.223094
1860.05	0.376335
1861.55	0.0736661
1863.04	-0.0640182
1864.53	0.27247
1866.02	0.557409
1867.51	0.312267
1869	-0.144163
1870.49	0.281361
1871.98	0.0732956
1873.47	0.138023
1874.96	-0.122677
1876.45	0.350036
1877.94	-0.167198
1879.43	0.0420465
1880.92	0.22078
1882.41	-0.072022
1882.51	-0.096024
1884	-0.218434
1885.5	0.129123
1886.99	-0.133955
1888.48	-0.0142012
1889.98	-0.0162206
1891.47	0.399933
1892.96	-0.06955
1894.46	0.0189142
1895.95	0.16081
1897.44	0.00779438
1898.93	-0.267131
1900.42	0.239938
1901.91	0.0150542
1903.41	-0.141625
1904.9	-0.264582
1906.39	-0.110062
1907.88	0.148459
1909.37	0.216291
1910.86	0.00722265
1912.35	0.440847
1913.83	0.00758839
1915.32	0.00808096
1916.81	0.112327
1918.3	0.181417
1919.79	0.0594974
1921.27	0.110784
1922.76	0.00652313
1924.25	-0.0277333
1925.74	0.215913
1927.22	-0.0935502
1928.71	-0.0389438
1930.19	0.483202
1931.68	0.0696211
1933.17	-0.241208
1934.65	0.0525565
1936.14	0.0678983
1937.62	-0.0560765
1939.11	0.14802
1940.59	0.196672
1942.07	0.228707
1943.56	0.123584
1945.04	-0.0324783
1946.52	0.208364
1948.01	0.0352659
1949.49	0.0684142
1950.97	-0.0370193
1952.45	0.424753
1953.93	0.0428538
1955.42	0.0394406
1956.9	-0.204074
1958.38	0.205425
1959.86	-0.208313
1961.34	0.167522
1962.82	-0.176673
1964.3	0.0275245
1965.78	-0.145612
1967.26	-0.0281553
1968.74	0.293887
1970.21	0.102227
1971.69	0.0472565
1973.17	0.214197
1974.65	0.0910249
1976.13	-0.457932
1977.6	-0.256579
1979.08	0.0126667
1980.56	0.0604
1982.03	0.192922
1983.51	-0.116632
1984.99	-0.222322
1986.46	-0.0397243
1987.94	0.057838
1989.41	-0.0307827
1990.89	0.0504856
1992.36	0.115497
1993.84	0.265781
1995.31	-0.107251
1996.78	0.0778184
1998.26	-0.362129
1999.73	0.0926547
2001.2	0.293455
2002.68	0.223787
2004.15	0.20464
2005.62	-0.20177
2007.09	-0.0345812
2008.56	0.284792
2010.04	-0.237041
2011.51	-0.017632
2012.98	0.134441
2014.45	-0.117754
2015.92	0.36981
2017.39	0.267676
2018.86	0.198556
2020.33	0.347472
2021.8	-0.0412831
2023.26	-0.026547
2024.73	-0.0447612
2026.2	0.273449
2027.67	0.307599
2029.14	0.192028
2030.61	0.0104189
2032.07	0.148336
2033.54	-0.200089
2035.01	-0.0785618
2036.47	-0.494812
2037.94	0.197301
2039.4	0.233953
2040.87	-0.0320187
2042.33	0.290684
2043.8	0.580548
2045.27	0.299277
2046.73	-0.0826445
2048.19	-0.00991488
2049.66	-0.173318
2051.12	0.657126
2052.59	-0.149101
2054.05	0.0380845
2055.51	-0.197719
2056.97	0.00380754
2058.44	-0.13247
2059.9	0.169164
2061.36	0.403533
2062.82	0.183941
2064.28	0.436501
2065.74	-0.0169649
2067.21	-0.0995021
2068.67	0.272844
2070.13	0.0732045
2071.59	0.277611
2073.05	-0.191551
2074.51	-0.139009
2075.96	-0.00252151
2077.42	-0.1526
2078.88	0.168524
2080.34	0.236665
2081.8	0.506371
2083.26	0.287269
2084.72	0.151803
2086.17	0.570937
2087.63	0.215753
2089.09	0.26389
2090.54	0.563766
2092	0.527493
2093.45	-0.012207
2094.91	0.504998
2096.37	0.233463
2097.82	0.413944
2099.28	0.191977
2100.73	0.521937
2102.19	0.283421
2103.64	0.496773
2105.09	0.544037
2106.55	0.375543
2108	0.20803
2109.45	0.457748
2110.91	0.256806
2112.36	0.271566
2113.81	0.118406
2115.26	0.663033
2116.72	0.491115
2118.17	0.352963
2119.62	0.548063
2121.07	0.611797
2122.52	0.643936
2123.97	0.594376
2125.42	0.313241
2126.87	0.380121
2128.32	0.694816
2129.77	0.0968041
2131.22	0.525135
2132.67	0.339892
2134.11	1.06468
2135.56	0.565807
2137.01	0.498298
2138.46	0.581059
2139.91	0.648835
2141.35	0.800637
2142.8	0.275538
2144.25	0.67697
2145.7	0.814053
2147.14	0.934441
2148.59	0.557502
2150.03	0.776034
2151.48	0.728714
2152.92	0.0343595
2154.37	0.963097
2155.81	0.715049
2157.26	0.616189
2158.7	0.915458
2160.15	0.983922
2161.59	1.46817
2163.03	1.27469
2164.47	0.717346
2165.92	0.956837
2167.36	1.54551
2168.8	0.75419
2170.24	1.35766
2171.69	0.861729
2173.13	1.04611
2174.57	1.07959
2176.01	0.730054
2177.45	1.09577
2178.89	0.963245
2180.33	0.814929
2181.77	0.700572
2183.21	1.01904
2184.65	1.08836
2186.09	1.29085
2187.53	0.960982
2188.97	0.980508
2190.4	1.09989
2191.84	1.13585
2193.28	0.40529
2194.72	0.805794
2196.16	0.738621
2197.59	1.06915
2199.03	0.815894
2200.47	0.678399
2201.9	0.823207
2203.34	0.819023
2204.77	0.318309
2206.21	0.481867
2207.64	0.794807
2209.08	0.329039
2210.51	0.475489
2211.95	0.455551
2213.38	0.319326
2214.82	0.298795
2216.25	0.757443
2217.68	0.391599
2219.12	1.06602
2220.55	0.471294
2221.98	0.602205
2223.41	0.600652
2224.85	0.038106
2226.28	0.840679
2227.71	0.160933
2229.14	0.368328
2230.57	0.541829
2232	0.0592871
2233.43	0.265509
2234.86	0.406463
2236.29	0.18868
2237.72	0.0704327
2239.15	0.182229
2240.58	0.768542
2242.01	0.361247
2243.44	0.0365419
2244.87	0.185123
2246.29	0.219023
2247.72	0.137515
2249.15	0.608621
2250.58	0.327978
2252.01	-0.100171
2253.43	0.610114
2254.86	0.263265
2256.29	0.583743
2257.71	0.27294
2259.14	0.256649
2260.56	0.583432
2261.99	0.425467
2263.41	0.187455
2264.84	0.583212
2266.26	0.377503
2267.69	-0.0893569
2269.11	0.565592
2270.53	0.43892
2271.96	0.604843
2273.38	0.347243
2274.8	0.0733004
2276.23	0.744429
2277.65	0.258882
2279.07	-0.259478
2280.49	0.118709
2281.91	-0.00864601
2283.34	0.712232
2284.76	0.160627
2286.18	0.457706
2287.6	0.396036
2289.02	0.269347
2290.44	0.0285063
2291.86	0.588693
2293.28	0.151859
2294.7	0.0582094
2296.12	0.308148
2297.54	0.13249
2298.96	0.628396
2300.37	0.289011
2301.79	0.0315261
2303.21	-0.0619335
2304.63	-0.0568814
2306.04	0.260157
2307.46	0.166458
2308.88	-0.174328
2310.3	0.240584
2311.71	-0.282146
2313.13	0.511084
2314.54	0.334038
2315.96	0.173914
2317.37	0.294338
2318.79	-0.046309
2320.2	0.420671
2321.62	0.177679
2323.03	-0.0999746
2324.45	0.297166
2325.86	0.510848
2327.27	0.871356
2328.69	0.934141
2330.1	0.79935
2331.51	0.220936
2332.92	0.137622
2334.34	-0.323404
2335.75	0.153654
2337.16	0.0545092
2338.57	0.562945
2339.98	0.182642
2341.39	0.0154781
2342.8	0.127099
2344.21	-0.0238614
2345.63	0.464761
2347.04	-0.144394
2348.45	0.19663
2349.85	-0.101062
2351.26	-0.0229774
2352.67	-0.0274525
2354.08	0.0652361
2355.49	-0.152513
2356.9	0.150973
2358.3	-0.0504446
2359.71	-0.0401249
2361.12	0.00271034
2362.53	-0.408528
2363.93	0.0394063
2365.34	0.308365
2366.75	0.18903
2368.15	-0.0910349
2369.56	-0.192346
2370.97	0.0782652
2372.37	0.349587
2373.77	0.12227
2375.18	0.0242367
2376.59	-0.00964499
2377.99	0.438064
2379.39	-0.0319767
2380.8	0.0272031
2382.2	0.0530682
2383.6	-0.210138
2385.01	-0.200962
2386.41	-0.0716915
2387.81	0.0579791
2389.21	0.212248
2390.62	-0.15847
2392.02	0.204615
2393.42	-0.195688
2394.82	0.104843
2396.22	0.0877256
2397.62	0.118805
2399.02	0.0232177
2400.42	-0.103706
2401.82	-0.262107
2403.22	0.0560107
2404.62	0.214949
2406.02	0.198507
2407.42	0.213055
2408.82	0.353819
2410.22	0.0978799
2411.62	0.285978
2413.01	0.252852
2414.41	-0.333349
2415.81	0.189924
2417.21	0.540105
2418.6	0.146939
2420	0.324074
2421.4	0.0576625
2422.79	0.044363
2424.19	0.268507
2425.59	0.223358
2426.98	0.0835128
2428.38	0.435757
2429.77	-0.400452
2431.17	-0.0309525
2432.56	-0.137212
2433.95	0.296006
2435.35	0.20438
2436.74	0.222731
2438.14	0.0809631
2439.53	0.176465
2440.92	0.207653
2442.31	0.524112
2443.71	0.0149493
2445.1	-0.256022
2446.49	-0.0512476
2447.88	0.232477
2449.27	0.0565658
2450.67	-0.0873466
2452.06	0.386545
2453.45	-0.167731
2454.84	0.35469
2456.23	0.165704
2457.62	0.499001
2459.01	0.136196
2460.4	0.0260444
2461.79	0.0575933
2463.18	-0.164394
2464.57	0.134699
2465.95	0.180619
2467.34	-0.0261445
2468.73	-0.138098
2470.12	0.270339
2471.5	-0.0313187
2472.89	-0.0811224
2474.28	0.0889316
2475.67	0.258217
2477.05	0.238317
2478.44	0.10847
2479.82	-0.177956
2481.21	0.069315
2482.6	-0.0128675
2483.98	-0.157897
2485.37	-0.021831
2486.75	-0.496224
2488.13	0.465246
2489.52	0.239293
2490.9	0.107178
2492.29	-0.226275
2493.67	0.373518
2495.05	-0.0351324
2496.44	0.425936
2497.82	-0.0423093
2499.2	-0.0298491
2500.58	-0.388877
2501.97	0.086628
2503.35	0.220839
2504.73	-0.0469933
2506.11	0.178307
2507.49	-0.32046
2508.87	0.0890274
2510.25	0.0218863
2511.63	0.0781369
2513.01	0.0429296
2514.39	-0.00684452
2515.77	-0.178301
2517.15	-0.042994
2518.53	-0.0297155
2519.91	0.380999
2521.29	0.470345
2522.67	0.345353
2524.05	0.14357
2525.42	0.185358
2526.8	0.211632
2528.18	-0.218287
2529.55	-0.114545
2530.93	0.0207038
2532.31	0.0356379
2533.69	0.0972419
2535.06	-0.0380802
2536.44	0.130432
2537.81	0.176872
2539.19	0.0554676
2540.56	-0.157627
2541.94	0.190699
2543.31	0.11418
2544.69	0.0838919
2546.06	-0.203256
2547.44	0.43585
2548.81	0.0289974
2550.18	0.395968
2551.56	0.170793
2552.93	0.309084
2554.3	0.279593
2555.67	0.0369663
2557.04	-0.114978
2558.42	0.0211596
2559.79	0.27871
2561.16	0.278929
2562.53	0.219062
2563.9	-0.00700378
2565.27	0.0703716
2566.64	0.238881
2568.01	0.0437627
2569.38	0.182068
2570.75	0.244613
2572.12	0.0798354
2573.49	0.294079
2574.86	0.0233226
2576.23	-0.217124
2577.6	-0.0634394
2578.97	0.0446067
2580.33	0.0159187
2581.7	-0.179873
2583.07	0.291178
2584.44	0.413274
2585.8	0.0957165
2587.17	-0.0246358
2588.54	0.0370536
2589.9	0.113988
2591.27	-0.0364814
2592.64	0.267273
2594	0.297602
2595.37	0.660229
2596.73	0.0680914
2598.1	0.00539684
2599.46	0.290212
2600.83	0.0308113
2602.19	-0.197694
2603.55	0.284029
2604.92	-0.305544
2606.28	0.0256262
2607.64	0.11505
2609.01	0.0530162
2610.37	0.155781
2611.73	0.091785
2613.09	0.463025
2614.46	0.156933
2615.82	-0.14874
2617.18	-0.213758
2618.54	-0.0535355
2619.9	-0.0725517
2621.26	-0.389997
2622.62	-0.13878
2623.98	-0.0668974
2625.34	-0.0697579
2626.7	-0.0280643
2628.06	0.32624
2629.42	-0.392292
2630.78	0.467211
2632.14	0.150839
2633.5	0.533083
2634.86	0.113222
2636.21	0.257569
2637.57	0.194225
2638.93	0.219868
2640.29	-0.00590277
2641.64	0.389794
2643	0.0169554
2644.36	-0.0894842
2645.71	0.099225
2647.07	0.0957141
2648.43	-0.276571
2649.78	0.189987
2651.14	0.00824594
2652.49	-0.0118251
2653.85	0.085691
2655.2	0.242248
2656.56	0.07723
2657.91	-0.0427089
2659.26	0.452619
2660.62	0.450666
2661.97	-0.179803
2663.32	0.0517077
2664.68	0.165527
2666.03	0.0160441
2667.38	0.259904
2668.74	0.0373263
2670.09	0.120882
2671.44	0.510069
2672.79	0.143702
2674.14	0.301082
2675.49	0.226545
2676.84	0.0219746
2678.19	0.122664
2679.54	0.383469
2680.89	0.369591
2682.24	0.327716
2683.59	0.170823
2684.94	0.333755
2686.29	0.0764046
2687.64	0.0655255
2688.99	-0.00434828
2690.34	0.185769
2691.69	0.171181
2693.03	0.27144
2694.38	0.196806
2695.73	0.498911
2697.08	0.0189977
2698.42	0.264537
2699.77	0.438951
2701.12	0.0790372
2702.46	0.328561
2703.81	0.405244
2705.15	0.250478
2706.5	0.269682
2707.85	0.419295
2709.19	0.35096
2710.54	0.0499082
2711.88	0.285937
2713.22	0.507472
2714.57	0.293035
2715.91	0.122042
2717.26	0.139917
2718.6	0.303092
2719.94	0.116827
2721.29	0.424953
2722.63	0.0632458
2723.97	0.458006
2725.31	0.284765
2726.66	0.0821185
2728	0.563282
2729.34	0.505726
2730.68	-0.148498
2732.02	0.215826
2733.36	0.158278
2734.7	0.173617
2736.04	0.334569
2737.38	0.132029
2738.72	0.467597
2740.06	0.555715
2741.4	0.279922
2742.74	0.0473199
2744.08	0.0758862
2745.42	0.292808
2746.76	-0.042604
2748.09	-0.116595
2749.43	0.114205
2750.77	0.461003
2752.11	0.0103765
2753.45	0.0385261
2754.78	0.139242
2756.12	0.225529
2757.46	0.0223103
2758.79	-0.180593
2760.13	0.0945096
2761.46	0.022604
2762.8	0.124735
2764.14	0.111365
2765.47	0.257149
2766.8	0.474894
2768.14	0.127718
2769.47	0.271328
2770.81	0.0234571
2772.14	0.208057
2773.48	0.146251
2774.81	0.386861
2776.14	0.00765514
2777.48	0.320186
2778.81	-0.100729
2780.14	0.212276
2781.47	0.0942998
2782.8	0.120074
2784.14	0.403924
2785.47	0.171431
2786.8	-0.0319595
2788.13	0.209048
2789.46	0.378894
2790.79	0.277603
2792.12	0.277112
2793.45	0.24842
2794.78	0.262662
2796.11	0.148043
2797.44	0.175899
2798.77	-0.125105
2800.1	-0.0265718
2801.43	-0.170839
2802.76	-0.115492
2804.09	-0.145897
2805.41	0.279162
2806.74	0.0627227
2808.07	0.130542
2809.4	0.169507
2810.72	0.151631
2812.05	0.304556
2813.38	0.259652
2814.71	0.230145
2816.03	0.045907
2817.36	0.627985
2818.68	0.459328
2820.01	0.687556
2821.33	0.447696
2822.66	0.363214
2823.98	0.30659
2825.31	0.193054
2826.63	0.306186
2827.96	0.32058
2829.28	0.491155
2830.6	0.534689
2831.93	0.705805
2833.25	0.975949
2834.57	0.736258
2835.9	0.878312
2837.22	1.10476
2838.54	1.18927
2839.86	1.25941
2841.18	1.30134
2842.5	1.52737
2843.83	1.8811
2845.15	1.9104
2846.47	1.82722
2847.79	2.08357
2849.11	2.28344
2850.43	2.28517
2851.75	2.44192
2853.07	2.47097
2854.39	2.71161
2855.71	2.66944
2857.03	2.51424
2858.35	3.136
2859.66	2.95258
2860.98	2.99498
2862.3	3.30528
2863.62	3.09287
2864.94	3.0073
2866.25	3.55654
2867.57	3.73907
2868.89	3.28746
2870.2	3.89375
2871.52	3.69657
2872.84	3.95018
2874.15	3.73798
2875.47	4.42632
2876.78	3.59248
2878.1	4.32059
2879.41	4.00692
2880.73	4.10151
2882.04	3.88772
2883.36	4.2369
2884.67	3.68823
2885.99	3.98267
2887.3	4.51565
2888.61	3.99559
2889.93	4.27461
2891.24	4.83302
2892.55	4.46531
2893.86	4.3219
2895.18	4.333
2896.49	3.81299
2897.8	4.30182
2899.11	4.02193
2900.42	4.48432
2901.73	4.49945
2903.05	4.43086
2904.36	4.54424
2905.67	4.46207
2906.98	5.13574
2908.29	4.53731
2909.6	5.17077
2910.91	5.52515
2912.21	5.27778
2913.52	5.57556
2914.83	5.10197
2916.14	5.53667
2917.45	5.94167
2918.76	5.31007
2920.07	5.62978
2921.37	6.17364
2922.68	5.90768
2923.99	6.27219
2925.29	5.93893
2926.6	5.76002
2927.91	5.90267
2929.22	6.18476
2930.52	5.93506
2931.83	6.50968
2933.13	6.06354
2934.44	6.60979
2935.74	6.28957
2937.05	6.43072
2938.35	6.11088
2939.66	6.2245
2940.96	5.8216
2942.26	5.53128
2943.57	5.50758
2944.87	5.51311
2946.18	5.30997
2947.48	4.85541
2948.78	4.59622
2950.08	4.92387
2951.39	5.06796
2952.69	4.62216
2953.99	4.41313
2955.29	4.46975
2956.59	4.28919
2957.9	4.09643
2959.2	4.27003
2960.5	4.01199
2961.8	4.19003
2963.1	4.18667
2964.4	3.55102
2965.7	3.53142
2967	3.63685
2968.3	3.69898
2969.6	3.78857
2970.9	3.14667
2972.19	3.25034
2973.49	3.05883
2974.79	2.86719
2976.09	2.88612
2977.39	2.80538
2978.68	2.25856
2979.98	2.72398
2981.28	2.63918
2982.58	2.45549
2983.87	2.08943
2985.17	2.08991
2986.47	2.35861
2987.76	1.8978
2989.06	2.30905
2990.35	2.01788
2991.65	1.92303
2992.94	1.50406
2994.24	1.58999
2995.53	1.16928
2996.83	1.68894
2998.12	1.54837
2999.42	1.22576
3000.71	1.53477
3002	1.01705
3003.3	0.948366
3004.59	1.11794
3005.88	0.895058
3007.18	0.741831
3008.47	1.02179
3009.76	0.783329
3011.05	0.740176
3012.34	0.668791
3013.64	0.583535
3014.93	0.665983
3016.22	0.498092
3017.51	0.679032
3018.8	0.637529
3020.09	0.498761
3021.38	0.373686
3022.67	0.359209
3023.96	0.427231
3025.25	0.258814
3026.54	0.325974
3027.83	0.282636
3029.12	0.378459
3030.41	0.116047
3031.69	0.35219
3032.98	0.230007
3034.27	0.052938
3035.56	0.454977
3036.84	0.441953
3038.13	0.399954
3039.42	0.356511
3040.71	0.133224
3041.99	0.376443
3043.28	0.372191
3044.57	0.450706
3045.85	0.680709
3047.14	0.529512
3048.42	0.189267
3049.71	0.0556684
3050.99	0.441855
3052.28	0.419244
3053.56	0.0964546
3054.85	0.591756
3056.13	0.567714
3057.41	0.242869
3058.7	0.149313
3059.98	0.504944
3061.26	0.479383
3062.55	0.345766
3063.83	0.362867
3065.11	0.408332
3066.39	0.509245
3067.68	0.271028
3068.96	-0.33415
3070.24	0.229968
3071.52	-0.131384
3072.8	0.363119
3074.08	0.339781
3075.36	0.0031786
3076.65	0.196253
3077.93	0.117925
3079.21	0.162557
3080.49	0.371058
3081.77	-0.192483
3083.04	0.0316606
3084.32	-0.422078
3085.6	-0.0209451
3086.88	0.149194
3088.16	-0.0612779
3089.44	0.134877
3090.72	0.0320535
3091.99	0.105486
3093.27	0.0704541
3094.55	-0.0728602
3095.83	0.190805
3097.1	0.115506
3098.38	0.473854
3099.66	0.303434
3100.93	0.403911
3102.21	0.0574412
3103.49	0.131026
3104.76	0.0695696
3106.04	0.103387
3107.31	0.191988
3108.59	-0.084053
3109.86	0.398611
3111.14	0.110468
3112.41	0.188404
3113.69	0.0769811
3114.96	0.426322
3116.23	0.504295
3117.51	0.418803
3118.78	-0.0745249
3120.05	-0.0940046
3121.33	0.482317
3122.6	0.0684094
3123.87	0.155839
3125.14	0.473462
3126.41	-0.0615349
3127.69	-0.203398
3128.96	-0.0743289
3130.23	0.12248
3131.5	0.0759187
3132.77	0.285964
3134.04	0.454989
3135.31	0.204889
3136.58	0.237903
3137.85	0.432194
3139.12	0.693183
3140.39	0.509363
3141.66	0.285503
3142.93	0.304044
3144.2	0.0275097
3145.47	0.342079
3146.74	0.38855
3148	0.341635
3149.27	0.44247
