200.563	0.767971
202.377	0.777689
204.194	0.788427
206.008	0.484615
207.821	-0.061409
209.634	1.31222
211.449	0.788759
213.262	0.506956
215.074	0.539537
216.885	0.64423
218.699	-0.025816
220.51	0.177467
222.321	0.212753
224.131	0.128633
225.941	0.480598
227.751	0.301146
229.562	-0.67528
231.371	0.520716
233.18	0.171539
234.988	-0.104193
236.796	0.393694
238.603	-0.406839
240.411	0.290829
242.219	-0.26158
244.026	-0.329965
245.832	0.470491
247.638	0.0863934
249.443	0.326244
251.248	-0.210832
253.053	0.745033
254.857	0.684614
256.661	0.672134
258.465	0.130993
260.268	-0.358968
262.071	0.0695248
263.874	0.0669222
265.678	0.837071
267.48	0.162099
269.282	0.137379
271.083	0.135731
272.884	0.445991
274.684	0.127475
276.484	0.529955
278.284	-0.395695
280.084	0.0977201
281.883	0.0341587
283.682	0.0402842
285.48	-0.411967
287.276	0.7677
289.074	0.482683
290.871	0.606713
292.668	0.373652
294.465	0.0716181
296.261	0.035182
298.057	-0.477534
299.853	0.635519
301.648	0.195223
303.443	-0.293679
305.237	-0.163375
307.032	-0.439851
308.823	-0.0964403
310.617	0.0808039
312.41	0.426506
314.203	-0.177835
315.995	-0.207793
317.788	0.0983534
319.579	0.52613
321.369	0.455535
323.16	0.219232
324.951	1.10494
326.741	-0.395762
328.531	0.418995
330.321	1.04257
332.108	0.516919
333.897	0.203697
335.686	0.0786848
337.474	0.452891
339.26	0.512931
341.048	0.188105
342.835	0.675174
344.622	0.0150146
346.406	0.478768
348.192	0.227044
349.978	0.0240097
351.764	-0.107257
353.547	-0.406287
355.332	0.0805645
357.116	0.588986
358.901	0.0464535
360.682	-0.0684023
362.466	0.529482
364.249	-0.372529
366.03	0.032527
367.812	1.02909
369.594	0.0308065
371.374	-0.042944
373.155	0.119059
374.936	0.0675354
376.715	-0.101709
378.495	0.272561
380.273	0.0821733
382.053	-0.27083
383.832	1.02502
385.609	-0.12338
387.388	-0.493422
389.164	-0.603186
390.942	0.862119
392.72	0.637489
394.495	0.155532
396.272	0.0968962
398.047	0.0384159
399.823	0.566904
401.597	-0.502417
403.372	-0.515654
405.145	0.0102282
406.92	0.11227
408.693	-0.0448332
410.467	0.0559072
412.239	0.602601
414.012	0.445897
415.783	0.102647
417.556	0.464581
419.327	0.0296793
421.099	0.0410013
422.869	0.0519447
424.64	0.296646
426.409	0.375669
428.18	0.406524
429.948	0.624471
431.718	-0.612748
433.486	-0.441161
435.253	0.106443
437.022	0.114228
438.789	0.778071
440.558	0.641698
442.324	-0.342091
444.089	0.547306
445.857	0.167826
447.622	0.255307
449.386	0.0146446
451.153	0.358635
452.917	0.42245
454.682	-0.00329113
456.446	0.130958
458.208	0.777119
459.973	0.0960951
461.735	0.32403
463.497	0.0660543
465.259	0.718068
467.022	0.53788
468.783	0.640641
470.544	0.281181
472.306	0.0618
474.066	0.1204
475.825	0.316174
477.585	0.136106
479.346	0.186276
481.104	0.677593
482.862	0.680048
484.62	0.404883
486.38	0.761632
488.137	0.888843
489.894	0.599539
491.65	1.33858
493.407	0.187303
495.164	-0.24075
496.92	-0.061101
498.675	0.58709
500.43	0.625991
502.184	0.570073
503.939	0.677132
505.694	0.782588
507.448	0.392171
509.201	0.775416
510.954	0.568162
512.706	0.311386
514.459	0.946487
516.21	0.238401
517.962	0.681219
519.715	0.487501
521.466	0.598271
523.216	0.755186
524.966	0.606512
526.716	0.880216
528.466	0.708208
530.215	0.583071
531.964	1.4645
533.712	0.237047
535.46	0.997523
537.208	0.352481
538.955	-0.0366659
540.703	0.412756
542.449	-0.584067
544.196	0.607635
545.942	-0.0855503
547.688	0.731626
549.433	0.179654
551.178	0.184959
552.923	0.144266
554.667	0.658462
556.412	0.548829
558.155	0.370837
559.899	0.124839
561.642	-0.142912
563.385	0.947646
565.127	0.35968
566.867	-0.180563
568.609	0.0845013
570.35	-0.0391941
572.092	-0.252507
573.832	0.270721
575.573	0.498404
577.313	0.728728
579.053	0.341405
580.79	0.345318
582.529	-0.271106
584.268	0.582449
586.006	-0.0828161
587.745	-0.49729
589.482	0.236712
591.218	0.187181
592.955	0.251923
594.692	0.615542
596.428	0.266007
598.164	0.376556
599.898	0.141439
601.634	0.434149
603.369	0.218851
605.104	0.461253
606.836	0.104074
608.57	0.251287
610.304	0.39816
612.037	-0.0966101
613.769	0.00639343
615.501	0.179039
617.234	-0.0147848
618.966	-0.300877
620.696	-0.153406
622.427	0.220809
624.159	0.318952
625.887	-0.428143
627.618	0.539487
629.348	-0.179465
631.076	0.588566
632.806	0.78918
634.535	0.352361
636.262	0.28004
637.99	-0.0917253
639.716	0.0574875
641.444	0.0881109
643.172	0.0695257
644.897	0.299649
646.624	0.5299
648.348	0.603671
650.075	0.52319
651.801	0.0169172
653.524	-0.415628
655.249	0.771228
656.972	0.187438
658.697	0.606802
660.419	0.204806
662.143	-0.565788
663.865	-0.0381947
665.588	0.73789
667.309	-0.249281
669.032	-0.0713959
670.752	-0.32687
672.474	-0.533958
674.194	0.0866165
675.915	0.0235844
677.634	0.352268
679.355	0.819582
681.073	1.03332
682.793	0.20927
684.511	-0.780149
686.23	-0.0461035
687.947	-0.0279303
689.664	0.472411
691.382	0.557074
693.098	0.456502
694.816	0.608131
696.531	0.274637
698.247	-0.175556
699.963	0.684308
701.678	0.575708
703.392	0.511777
705.108	0.469816
706.821	0.38125
708.534	0.727869
710.249	0.225582
711.962	-0.00167942
713.674	1.16616
715.388	1.02908
717.099	1.12049
718.81	0.596014
720.523	0.437328
722.234	0.233623
723.944	0.098568
725.654	0.327259
727.365	0.850332
729.075	0.441517
730.784	0.123476
732.492	0.0999117
734.202	0.438055
735.91	0.255825
737.618	0.751856
739.325	-0.150647
741.034	0.798069
742.741	0.238024
744.447	0.851285
746.153	0.678447
747.859	0.687763
749.564	0.496608
751.271	0.802192
752.976	1.04225
754.681	1.10447
756.385	0.786377
758.088	1.0107
759.792	1.05719
761.495	1.06029
763.2	1.40262
764.902	1.33852
766.604	1.45335
768.306	0.661243
770.008	1.49346
771.709	1.30529
773.41	0.662787
775.11	1.17291
776.811	1.84211
778.51	1.88023
780.21	1.60406
781.909	2.03074
783.608	1.1452
785.307	1.00445
787.005	1.31291
788.703	0.552955
790.401	1.30439
792.098	1.87002
793.795	1.10017
795.492	0.760032
797.188	1.81914
798.884	1.73057
800.58	1.8024
802.276	1.78629
803.971	2.08601
805.665	1.64338
807.36	1.98626
809.054	1.24909
810.748	1.72289
812.441	1.79099
814.135	1.92535
815.826	1.45474
817.518	0.78353
819.21	2.52709
820.902	1.61085
822.594	1.41065
824.285	2.19298
825.976	1.52819
827.665	2.11463
829.355	1.88102
831.045	2.60978
832.735	1.33816
834.424	1.27223
836.111	0.828457
837.8	1.74524
839.488	2.37091
841.177	2.12346
842.864	1.3823
844.55	1.95862
846.237	1.84341
847.924	1.48493
849.61	1.66678
851.295	1.60632
852.98	1.95212
854.666	1.42485
856.349	2.24393
858.034	1.46642
859.719	1.78767
861.403	1.47611
863.085	1.34196
864.769	1.36357
866.452	1.24854
868.133	1.20016
869.816	0.790222
871.498	1.41733
873.179	1.68336
874.86	1.24987
876.54	1.51587
878.221	1.42084
879.902	1.88993
881.58	1.43297
883.26	1.40375
884.938	0.695635
886.618	1.72347
888.297	2.04887
889.974	1.44696
891.653	2.03782
893.329	2.13037
895.007	0.803393
896.683	1.2755
898.36	0.397824
900.035	0.350609
901.712	1.10881
903.387	1.2155
905.063	0.986423
906.737	1.24935
908.412	1.22278
910.085	1.15313
911.76	0.818015
913.433	1.72911
915.107	1.37344
916.779	0.197803
918.452	1.15169
920.124	1.15197
921.797	1.24161
923.467	0.780319
925.138	1.71376
926.81	1.54512
928.48	1.0261
930.151	0.55333
931.82	0.98632
933.489	0.228328
935.16	1.25742
936.828	1.38273
938.496	0.472844
940.165	1.13071
941.833	0.709638
943.5	1.08382
945.168	1.12682
946.834	0.0863943
948.5	0.500062
950.168	0.557724
951.834	1.54019
953.499	0.559401
955.163	1.0589
956.83	0.614391
958.494	0.549565
960.158	0.709517
961.821	-0.0779505
963.487	0.0615997
965.15	0.375734
966.812	0.332162
968.474	0.594234
970.138	1.03019
971.8	0.602152
973.461	-0.068202
975.123	1.32032
976.783	0.500163
978.446	0.323456
980.106	0.57909
981.766	0.834213
983.425	1.23122
985.084	1.02751
986.743	0.953439
988.402	1.49613
990.06	0.97503
991.72	0.718707
993.378	0.418298
995.035	1.00134
996.692	1.03237
998.349	0.997172
1000.01	1.27014
1001.66	0.837476
1003.32	0.800832
1004.97	0.807738
1006.63	0.72657
1008.28	0.997063
1009.94	0.521633
1011.59	1.01238
1013.25	1.30598
1014.9	0.57044
1016.55	0.514973
1018.21	0.722912
1019.86	0.363301
1021.51	-0.0381823
1023.16	1.15781
1024.81	0.6939
1026.47	1.32358
1028.12	0.685843
1029.77	1.31433
1031.42	0.848597
1033.07	0.991957
1034.72	0.303572
1036.37	1.51074
1038.02	0.667171
1039.67	1.54439
1041.31	2.13867
1042.96	1.64751
1044.61	1.96362
1046.26	1.60941
1047.91	1.69274
1049.55	2.38682
1051.2	1.64955
1052.84	1.23919
1054.49	2.02439
1056.14	0.571215
1057.78	1.20395
1059.43	1.48825
1061.07	1.6846
1062.72	2.37981
1064.36	1.76884
1066	0.808469
1067.65	0.868315
1069.29	1.18732
1070.93	1.24448
1072.58	0.650261
1074.22	0.860147
1075.86	1.00646
1077.5	0.872882
1079.14	0.719588
1080.78	1.58662
1082.42	2.32344
1084.06	1.38912
1085.7	1.62301
1087.34	0.77009
1088.98	0.00150776
1090.62	1.22189
1092.26	0.601048
1093.9	0.693258
1095.54	1.41129
1097.17	1.05164
1098.81	0.953252
1100.45	1.48204
1102.09	0.55022
1103.72	0.977021
1105.36	0.695885
1106.99	0.394138
1108.63	0.543544
1110.27	1.05667
1111.9	0.406434
1113.53	0.398735
1115.17	0.625326
1116.8	0.464606
1118.43	0.218608
1120.07	0.852345
1121.7	1.0373
1123.33	1.07396
1124.97	1.77539
1126.6	1.42978
1128.23	1.14977
1129.86	1.44828
1131.49	1.57662
1133.12	0.465524
1134.75	0.123889
1136.38	0.50801
1138.01	0.44164
1139.64	-0.11778
1141.27	0.688123
1142.9	0.340253
1144.53	0.398211
1146.16	-0.11836
1147.78	0.730796
1149.41	-0.187509
1151.04	0.215932
1152.67	0.17198
1154.29	0.212667
1155.92	0.295303
1157.54	-0.409454
1159.17	0.375636
1160.8	-0.220502
1162.42	0.0144482
1164.05	0.102047
1165.67	0.296681
1167.29	-0.0619345
1168.92	-0.252072
1170.54	-0.040844
1172.16	-0.00262928
1173.79	-0.264318
1175.41	0.321136
1177.03	-0.324494
1178.65	0.471561
1180.28	0.145749
1181.9	-0.157096
1183.52	-0.479745
1185.14	-0.189308
1186.76	0.606069
1188.38	2.15717
1190	0.862644
1191.62	0.924639
1193.24	0.800729
1194.86	0.172091
1196.47	0.027503
1198.09	-0.0314703
1199.71	-0.0667038
1201.33	0.215097
1202.95	0.187341
1204.56	-0.399919
1206.18	0.351642
1207.8	0.604198
1209.41	0.189546
1211.03	0.399397
1212.64	0.00188828
1214.26	0.30986
1215.87	0.218451
1217.49	0.686143
1219.1	-0.0122299
1220.71	0.494673
1222.33	-0.719508
1223.94	0.61882
1225.55	-0.361486
1227.16	0.399831
1228.78	0.624738
1230.39	1.24425
1232	1.03849
1233.61	0.338696
1235.22	1.02562
1236.83	-0.104452
1238.44	0.834006
1240.05	1.09149
1241.66	1.05978
1243.27	1.08958
1244.88	1.26301
1246.49	0.89685
1248.1	1.29476
1249.71	1.23626
1251.32	0.908422
1252.92	0.581052
1254.53	0.958107
1256.14	1.0059
1257.74	1.07632
1259.35	1.35549
1260.96	0.849584
1262.56	0.34403
1264.17	1.10178
1265.77	1.48641
1267.38	1.02023
1268.98	0.884092
1270.59	1.30617
1272.19	1.83031
1273.79	2.22833
1275.4	1.15296
1277	1.75511
1278.6	2.52129
1280.21	1.4638
1281.81	1.33811
1283.41	1.66785
1285.01	1.29514
1286.61	2.08177
1288.21	1.65028
1289.81	2.91493
1291.41	2.65104
1293.01	3.35807
1294.61	3.87765
1296.21	3.81641
1297.81	2.82345
1299.41	2.9221
1301.01	3.24485
1302.6	2.69989
1304.2	3.1009
1305.8	3.62329
1307.4	2.56243
1308.99	3.0419
1310.59	2.55728
1312.19	1.43975
1313.78	2.41165
1315.38	1.99398
1316.97	2.37477
1318.57	2.02141
1320.16	1.77028
1321.76	2.04761
1323.35	2.22021
1324.94	2.53188
1326.54	1.39936
1328.13	2.07315
1329.72	2.24005
1331.32	1.37784
1332.91	1.87456
1334.5	1.88947
1336.09	2.4719
1337.68	2.24779
1339.27	2.2848
1340.87	1.25154
1342.45	1.6655
1344.04	1.51277
1345.64	1.53942
1347.22	1.90728
1348.81	2.53742
1350.4	2.36999
1351.99	1.28693
1353.58	1.14773
1355.17	1.86999
1356.75	1.61328
1358.34	1.45589
1359.93	1.61661
1361.51	1.83539
1363.1	2.19226
1364.69	1.5714
1366.27	1.44977
1367.86	1.78759
1369.44	1.9479
1371.03	1.51338
1372.61	1.26027
1374.2	0.969117
1375.78	1.73354
1377.37	1.2644
1378.95	1.96845
1380.53	1.49687
1382.11	1.48091
1383.7	2.03959
1385.28	1.96023
1386.86	2.29744
1388.44	2.01906
1390.02	1.4443
1391.6	1.94286
1393.19	1.66871
1394.77	1.73243
1396.35	2.23201
1397.93	1.67955
1399.51	1.54199
1401.08	2.76958
1402.66	1.63951
1404.24	1.8559
1405.82	2.32998
1407.4	2.03422
1408.97	1.87836
1410.55	2.17767
1412.13	2.02254
1413.71	1.92574
1415.28	2.5773
1416.86	2.24086
1418.43	2.86992
1420.01	2.21855
1421.59	2.86912
1423.16	2.55737
1424.73	3.21287
1426.31	4.00817
1427.88	3.99741
1429.46	3.868
1431.03	4.32741
1432.6	4.66655
1434.18	5.20052
1435.75	5.77274
1437.32	5.65693
1438.89	5.97506
1440.46	6.21643
1442.04	5.83072
1443.61	6.27179
1445.18	5.27887
1446.75	5.56378
1448.32	5.2593
1449.89	5.50579
1451.46	5.87122
1453.03	5.05779
1454.6	5.99542
1456.16	5.06412
1457.73	4.85933
1459.3	5.69521
1460.87	4.6386
1462.44	5.09384
1464	4.87714
1465.57	4.5801
1467.14	3.32028
1468.7	4.16317
1470.27	3.71169
1471.83	3.14482
1473.4	2.81542
1474.96	2.58546
1476.53	2.2386
1478.09	2.32327
1479.66	2.46662
1481.22	2.23738
1482.78	2.10604
1484.35	2.11167
1485.91	2.11668
1487.47	1.63078
1489.04	1.74995
1490.6	0.633417
1492.16	1.54834
1493.72	1.36452
1495.28	1.84158
1496.84	1.47806
1498.4	1.3681
1499.96	0.773508
1501.52	1.36603
1503.08	0.718065
1504.64	0.537604
1506.2	0.74495
1507.76	1.20232
1509.32	1.05828
1510.88	0.2761
1512.44	0.51586
1513.99	-0.169249
1515.55	1.06967
1517.11	0.482803
1518.66	0.281945
1520.22	0.982657
1521.78	0.514991
1523.33	-0.0286303
1524.89	-0.114029
1526.44	0.256906
1528	0.949175
1529.55	0.402921
1531.11	1.11125
1532.66	0.984209
1534.21	0.309782
1535.77	0.905693
1537.32	0.708213
1538.87	1.13499
1540.43	1.07125
1541.98	1.19613
1543.53	0.756044
1545.08	0.52331
1546.63	0.929274
1548.18	0.846365
1549.74	1.1759
1551.29	0.7187
1552.84	0.843059
1554.39	1.60405
1555.94	1.99254
1557.48	1.54345
1559.03	1.43369
1560.58	0.729944
1562.13	1.37181
1563.68	1.21317
1565.23	1.27923
1566.78	1.12147
1568.32	1.09394
1569.87	1.04715
1571.42	1.55977
1572.96	1.06398
1574.51	0.978636
1576.05	0.949333
1577.6	1.20037
1579.14	1.3027
1580.69	1.31263
1582.24	0.894198
1583.78	0.869082
1585.32	0.901079
1586.87	1.13945
1588.41	1.15374
1589.95	2.34657
1591.5	0.993788
1593.04	2.09238
1594.58	1.69275
1596.12	2.00495
1597.67	0.79985
1599.21	1.7511
1600.75	1.91635
1602.29	2.15752
1603.83	1.85426
1605.37	1.28658
1606.91	1.90037
1608.45	1.15808
1609.99	1.89709
1611.53	2.01223
1613.07	2.34958
1614.6	1.10812
1616.14	1.23677
1617.68	2.50936
1619.22	1.25333
1620.75	1.04933
1622.29	1.67126
1623.83	1.43299
1625.37	1.21347
1626.9	1.32971
1628.44	1.27555
1629.97	1.87384
1631.51	1.5355
1633.04	1.45849
1634.58	1.04607
1636.11	1.43753
1637.65	1.79271
1639.18	1.86888
1640.72	1.10636
1642.25	1.70336
1643.78	1.05063
1645.31	1.75525
1646.85	1.45346
1648.38	1.76484
1649.91	1.31516
1651.44	2.09223
1652.97	1.75754
1654.5	1.6102
1656.03	2.09403
1657.56	2.83677
1659.1	2.096
1660.62	1.92772
1662.15	1.72044
1663.68	1.54872
1665.21	1.50575
1666.74	1.5188
1668.27	2.06828
1669.8	1.34761
1671.32	0.887722
1672.85	1.27698
1674.38	1.61141
1675.91	1.20885
1677.43	0.989359
1678.96	1.09956
1680.49	1.61258
1682.01	0.598872
1683.54	0.926384
1685.06	0.776506
1686.59	1.37919
1688.11	0.130734
1689.64	0.862524
1691.16	1.26434
1692.68	0.76915
1694.21	0.731608
1695.73	0.547592
1697.25	0.710536
1698.78	0.0875797
1700.3	1.14366
1701.82	0.629209
1703.34	0.151073
1704.86	0.401232
1706.39	0.741291
1707.91	0.280519
1709.43	0.61957
1710.95	0.486333
1712.47	0.698077
1713.99	0.764757
1715.51	0.596086
1717.02	0.572268
1718.54	1.19885
1720.06	0.668656
1721.58	0.247855
1723.1	0.675853
1724.62	0.528224
1726.13	0.544757
1727.65	0.00522518
1729.17	0.511088
1730.68	0.961464
1732.2	0.0379601
1733.72	0.596294
1735.23	0.0162592
1736.75	0.514811
1738.26	0.856519
1739.78	0.994311
1741.29	0.0977488
1742.81	0.105916
1744.32	0.559036
1745.84	0.859045
1747.35	-0.076539
1748.86	0.640564
1750.37	-0.330059
1751.89	0.141071
1753.4	-0.232442
1754.91	0.496069
1756.42	-0.113624
1757.93	0.462357
1759.45	0.114614
1760.96	-0.229603
1762.47	0.803937
1763.98	0.379675
1765.49	0.402652
1767	0.26791
1768.51	0.385776
1770.02	-0.0706367
1771.53	-0.0870008
1773.03	0.494719
1774.54	0.132537
1776.05	-0.067028
1777.56	0.333706
1779.07	0.713895
1780.57	0.12486
1782.08	-0.135151
1783.59	0.0554352
1785.09	0.00406742
1786.6	0.15043
1788.11	0.0465202
1789.61	0.310927
1791.12	-0.00432205
1792.62	0.182388
1794.13	0.0685768
1795.63	-0.253211
1797.13	-0.0270987
1798.64	0.256708
1800.14	0.100158
1801.65	0.175157
1803.15	-0.0971861
1804.65	-0.251234
1806.15	-0.0498018
1807.66	-0.15651
1809.16	-0.601433
1810.66	0.0156059
1812.16	0.160804
1813.66	0.129129
1815.16	-0.348184
1816.66	0.0631409
1818.16	-0.322032
1819.66	-0.0919495
1821.16	0.380935
1822.66	-0.114164
1824.16	0.222847
1825.66	0.466167
1827.16	0.229021
1828.66	0.523924
1830.16	-0.0342073
1831.65	0.087121
1833.15	-0.00993633
1834.65	0.0118093
1836.14	0.412953
1837.64	0.513386
1839.14	0.0309067
1840.63	0.0478077
1842.13	0.110673
1843.62	0.0836782
1845.12	-0.0675478
1846.61	0.0915985
1848.11	0.620653
1849.6	0.114291
1851.1	-0.0826864
1852.59	0.355146
1854.08	-0.657498
1855.58	0.327962
1857.07	0.415205
1858.56	0.634994
1860.05	-0.508089
1861.55	-0.338235
1863.04	-0.140883
1864.53	0.100755
1866.02	0.450744
1867.51	-0.00991917
1869	-0.382812
1870.49	0.689752
1871.98	0.510239
1873.47	0.363551
1874.96	0.454506
1876.45	0.344223
1877.94	0.114905
1879.43	0.044281
1880.92	0.293858
1882.41	0.00233841
1882.51	-0.0163469
1884	0.0364275
1885.5	0.262423
1886.99	0.278074
1888.48	0.275629
1889.98	0.49959
1891.47	0.0637512
1892.96	0.447392
1894.46	0.120474
1895.95	0.317134
1897.44	0.0105896
1898.93	-0.244031
1900.42	-0.0650511
1901.91	0.268471
1903.41	0.564804
1904.9	0.12891
1906.39	-0.307603
1907.88	-0.379045
1909.37	-0.328197
1910.86	0.122822
1912.35	0.15838
1913.83	0.385419
1915.32	0.196324
1916.81	-0.270515
1918.3	0.267469
1919.79	-0.00980091
1921.27	0.63098
1922.76	0.163674
1924.25	-0.544687
1925.74	0.150702
1927.22	0.276126
1928.71	0.177315
1930.19	0.563302
1931.68	0.930986
1933.17	0.396299
1934.65	0.309602
1936.14	-0.246317
1937.62	0.407226
1939.11	0.108979
1940.59	-0.136718
1942.07	0.240192
1943.56	0.687065
1945.04	0.272522
1946.52	-0.124029
1948.01	-0.055316
1949.49	0.822069
1950.97	-0.0761051
1952.45	0.126826
1953.93	0.225581
1955.42	0.306894
1956.9	0.130999
1958.38	0.865798
1959.86	0.194138
1961.34	0.192519
1962.82	0.0883141
1964.3	0.121027
1965.78	-0.155176
1967.26	0.42382
1968.74	0.368404
1970.21	0.619965
1971.69	-0.0686178
1973.17	-0.278386
1974.65	0.655005
1976.13	-0.0659647
1977.6	-0.0703764
1979.08	-0.108708
1980.56	0.29523
1982.03	0.137458
1983.51	0.285271
1984.99	0.415456
1986.46	-0.0315342
1987.94	0.369491
1989.41	-0.127228
1990.89	0.443714
1992.36	0.0849247
1993.84	0.336347
1995.31	-0.205659
1996.78	0.520281
1998.26	0.435063
1999.73	-0.0895834
2001.2	-0.0745707
2002.68	0.530136
2004.15	0.240576
2005.62	0.339259
2007.09	0.741975
2008.56	0.505781
2010.04	-0.251081
2011.51	0.103933
2012.98	-0.0628452
2014.45	0.426212
2015.92	-0.0280781
2017.39	0.290417
2018.86	0.405873
2020.33	0.134055
2021.8	0.0638418
2023.26	0.514438
2024.73	0.378387
2026.2	0.277473
2027.67	0.228721
2029.14	-0.0865278
2030.61	-0.165355
2032.07	0.277171
2033.54	-0.219487
2035.01	-0.0112
2036.47	0.347948
2037.94	0.16892
2039.4	0.207786
2040.87	0.347449
2042.33	0.218608
2043.8	0.359743
2045.27	0.502112
2046.73	0.0226631
2048.19	0.334796
2049.66	0.495163
2051.12	-0.00315857
2052.59	0.288926
2054.05	0.241509
2055.51	0.866396
2056.97	0.798012
2058.44	0.324194
2059.9	0.37269
2061.36	-0.0161219
2062.82	1.02708
2064.28	0.371345
2065.74	0.373344
2067.21	0.107145
2068.67	0.952477
2070.13	0.33393
2071.59	0.0183325
2073.05	0.0223846
2074.51	0.194498
2075.96	0.21466
2077.42	0.705894
2078.88	0.354603
2080.34	0.255349
2081.8	0.795197
2083.26	0.728011
2084.72	0.222369
2086.17	0.0189304
2087.63	0.167991
2089.09	0.686113
2090.54	0.58195
2092	0.729617
2093.45	0.793114
2094.91	0.235703
2096.37	0.734211
2097.82	0.125806
2099.28	-0.331877
2100.73	-0.203943
2102.19	0.258234
2103.64	0.587166
2105.09	0.566831
2106.55	0.84857
2108	0.597777
2109.45	0.130778
2110.91	0.446866
2112.36	0.411173
2113.81	0.34009
2115.26	0.816212
2116.72	0.276264
2118.17	0.966781
2119.62	0.74501
2121.07	0.973869
2122.52	0.127034
2123.97	0.27728
2125.42	0.262481
2126.87	0.645292
2128.32	0.297385
2129.77	0.925649
2131.22	0.524858
2132.67	1.05043
2134.11	0.417337
2135.56	0.265375
2137.01	0.85908
2138.46	0.744184
2139.91	0.350701
2141.35	0.521126
2142.8	0.593879
2144.25	1.06453
2145.7	1.12199
2147.14	0.251935
2148.59	1.20236
2150.03	0.0814095
2151.48	1.09624
2152.92	0.552459
2154.37	0.537879
2155.81	0.854064
2157.26	1.56783
2158.7	0.55969
2160.15	0.762403
2161.59	0.669033
2163.03	0.97573
2164.47	1.5833
2165.92	0.914444
2167.36	0.925694
2168.8	0.786048
2170.24	1.25948
2171.69	1.36456
2173.13	1.13445
2174.57	1.48479
2176.01	0.853062
2177.45	0.770496
2178.89	1.20425
2180.33	1.50619
2181.77	0.429228
2183.21	0.649818
2184.65	1.08705
2186.09	0.659454
2187.53	1.06369
2188.97	0.619359
2190.4	0.757422
2191.84	0.928514
2193.28	0.932239
2194.72	0.834431
2196.16	1.20049
2197.59	0.881631
2199.03	0.627481
2200.47	0.987144
2201.9	0.532545
2203.34	0.543918
2204.77	1.10377
2206.21	0.802519
2207.64	0.899795
2209.08	0.665584
2210.51	0.84442
2211.95	0.194765
2213.38	1.06576
2214.82	0.547872
2216.25	0.80722
2217.68	1.00166
2219.12	0.339958
2220.55	0.949175
2221.98	0.536375
2223.41	0.0406218
2224.85	0.778676
2226.28	0.625127
2227.71	0.667044
2229.14	0.313104
2230.57	0.352687
2232	0.277199
2233.43	0.202208
2234.86	0.177303
2236.29	0.627623
2237.72	0.0343428
2239.15	0.42303
2240.58	0.193996
2242.01	0.521751
2243.44	0.312776
2244.87	-0.0262556
2246.29	0.449492
2247.72	0.368752
2249.15	0.415854
2250.58	0.834872
2252.01	-0.0999928
2253.43	0.0390873
2254.86	0.535675
2256.29	0.28639
2257.71	0.462149
2259.14	0.0896845
2260.56	0.67803
2261.99	0.279597
2263.41	0.467402
2264.84	0.152053
2266.26	-0.131579
2267.69	-0.270022
2269.11	0.225038
2270.53	0.133423
2271.96	-0.0402784
2273.38	0.730331
2274.8	0.442527
2276.23	0.334073
2277.65	0.0790939
2279.07	0.0685902
2280.49	0.433063
2281.91	0.226686
2283.34	0.835839
2284.76	0.303016
2286.18	0.325163
2287.6	-0.223714
2289.02	0.681249
2290.44	0.149466
2291.86	0.271466
2293.28	0.0666389
2294.7	0.172466
2296.12	0.425596
2297.54	-0.139904
2298.96	0.162436
2300.37	-0.190332
2301.79	-0.116763
2303.21	0.416576
2304.63	0.146346
2306.04	0.483399
2307.46	-0.280521
2308.88	0.0391521
2310.3	0.193921
2311.71	0.3154
2313.13	-0.0073576
2314.54	0.0651712
2315.96	0.467961
2317.37	-0.0669956
2318.79	0.0079298
2320.2	0.0496788
2321.62	-0.289344
2323.03	-0.0366106
2324.45	0.262918
2325.86	0.543089
2327.27	0.243776
2328.69	0.158076
2330.1	0.682117
2331.51	0.350618
2332.92	0.613241
2334.34	0.366714
2335.75	0.137065
2337.16	-0.14235
2338.57	-0.126806
2339.98	0.593937
2341.39	0.655802
2342.8	0.158957
2344.21	0.187516
2345.63	0.23275
2347.04	0.409308
2348.45	0.241938
2349.85	-0.367365
2351.26	0.200224
2352.67	0.0470772
2354.08	0.268352
2355.49	-0.554865
2356.9	0.52831
2358.3	-0.147508
2359.71	-0.204338
2361.12	-0.553078
2362.53	-0.187724
2363.93	-0.357734
2365.34	0.297642
2366.75	-0.260252
2368.15	0.00710201
2369.56	-0.224895
2370.97	0.141448
2372.37	0.235054
2373.77	-0.362633
2375.18	-0.186719
2376.59	-0.268815
2377.99	0.226801
2379.39	0.22177
2380.8	-0.0421362
2382.2	0.0776377
2383.6	0.436259
2385.01	0.0258989
2386.41	0.0563498
2387.81	0.0878029
2389.21	0.144543
2390.62	-0.179649
2392.02	-0.135802
2393.42	0.513817
2394.82	-0.58564
2396.22	-0.0776625
2397.62	-0.0460796
2399.02	0.303952
2400.42	0.00311184
2401.82	-0.154297
2403.22	0.212474
2404.62	0.356378
2406.02	0.435659
2407.42	0.00597095
2408.82	0.194227
2410.22	-0.0936604
2411.62	0.300248
2413.01	0.188011
2414.41	0.0773897
2415.81	0.30102
2417.21	-0.154481
2418.6	0.246041
2420	-0.208055
2421.4	0.525564
2422.79	0.292583
2424.19	0.265173
2425.59	0.126892
2426.98	0.020874
2428.38	-0.321962
2429.77	-0.251587
2431.17	0.263941
2432.56	0.415041
2433.95	0.105063
2435.35	0.587842
2436.74	0.624077
2438.14	-0.167788
2439.53	0.309785
2440.92	0.0237436
2442.31	0.0388403
2443.71	-0.295525
2445.1	0.226682
2446.49	0.19334
2447.88	-0.299712
2449.27	0.268944
2450.67	0.2832
2452.06	-0.160912
2453.45	0.0290937
2454.84	0.188394
2456.23	0.19031
2457.62	0.0344381
2459.01	0.321271
2460.4	0.14872
2461.79	-0.277717
2463.18	-0.151651
2464.57	0.115816
2465.95	0.240555
2467.34	-0.282141
2468.73	0.173812
2470.12	0.155975
2471.5	-0.429851
2472.89	0.338962
2474.28	0.00387669
2475.67	0.281965
2477.05	0.433407
2478.44	0.474595
2479.82	-0.158846
2481.21	0.259452
2482.6	0.0816498
2483.98	0.10708
2485.37	-0.0249958
2486.75	0.0918083
2488.13	0.00415707
2489.52	0.165163
2490.9	0.201045
2492.29	0.37735
2493.67	-0.299459
2495.05	0.0349979
2496.44	0.0293732
2497.82	0.334564
2499.2	-0.211644
2500.58	-0.355327
2501.97	0.180325
2503.35	0.173433
2504.73	-0.00421619
2506.11	-0.536634
2507.49	0.209268
2508.87	-0.107139
2510.25	-0.0845022
2511.63	-0.0458126
2513.01	0.300292
2514.39	-0.0883236
2515.77	0.182824
2517.15	-0.218499
2518.53	0.0692616
2519.91	-0.0556517
2521.29	0.109437
2522.67	-0.0622511
2524.05	-0.21946
2525.42	0.0342093
2526.8	0.363271
2528.18	-0.114154
2529.55	0.383566
2530.93	0.137929
2532.31	-0.166269
2533.69	0.351681
2535.06	-0.101877
2536.44	-0.236411
2537.81	0.281498
2539.19	0.266511
2540.56	0.0986824
2541.94	-0.221263
2543.31	0.18759
2544.69	0.41521
2546.06	0.1134
2547.44	-0.141419
2548.81	0.272243
2550.18	0.321979
2551.56	0.371145
2552.93	-0.14234
2554.3	-0.0651836
2555.67	-0.140851
2557.04	0.207545
2558.42	0.0551891
2559.79	0.00933552
2561.16	-0.00555229
2562.53	0.237949
2563.9	0.376047
2565.27	0.378287
2566.64	-0.195039
2568.01	0.23194
2569.38	0.431625
2570.75	0.38882
2572.12	0.0580568
2573.49	0.136634
2574.86	0.609485
2576.23	0.127302
2577.6	0.0846567
2578.97	0.435969
2580.33	0.119685
2581.7	2.57492e-005
2583.07	-0.120074
2584.44	0.244674
2585.8	0.12421
2587.17	0.00390911
2588.54	0.0808716
2589.9	0.0821838
2591.27	-0.0378838
2592.64	0.583954
2594	0.0835819
2595.37	0.521134
2596.73	0.230493
2598.1	-0.363398
2599.46	-0.352299
2600.83	-0.326
2602.19	-0.14814
2603.55	0.453008
2604.92	0.360232
2606.28	0.509125
2607.64	0.0995941
2609.01	0.156615
2610.37	0.438038
2611.73	-0.336106
2613.09	-0.373509
2614.46	-0.126356
2615.82	-0.090106
2617.18	-0.0236883
2618.54	0.208052
2619.9	0.30564
2621.26	-0.313737
2622.62	0.129289
2623.98	-0.129824
2625.34	0.163467
2626.7	0.0981627
2628.06	0.121951
2629.42	0.130437
2630.78	0.406455
2632.14	0.354833
2633.5	0.124971
2634.86	-0.1194
2636.21	0.348432
2637.57	0.5043
2638.93	-0.0063076
2640.29	0.682446
2641.64	0.498234
2643	-0.0251427
2644.36	-0.148987
2645.71	0.494377
2647.07	0.0454378
2648.43	0.038249
2649.78	0.23611
2651.14	0.579746
2652.49	-0.193856
2653.85	0.120026
2655.2	0.0237808
2656.56	0.00224018
2657.91	0.450483
2659.26	0.109368
2660.62	0.324727
2661.97	0.393558
2663.32	-0.078845
2664.68	-0.186728
2666.03	0.1422
2667.38	0.411727
2668.74	0.127347
2670.09	0.280254
2671.44	0.302708
2672.79	-0.00828838
2674.14	0.0594101
2675.49	0.142242
2676.84	0.341754
2678.19	0.222847
2679.54	0.322523
2680.89	-0.127482
2682.24	0.322865
2683.59	-0.0952816
2684.94	0.125743
2686.29	0.332972
2687.64	0.220836
2688.99	-0.0234432
2690.34	0.0496092
2691.69	0.526836
2693.03	0.102332
2694.38	0.63406
2695.73	0.556283
2697.08	0.32
2698.42	0.780575
2699.77	-0.00212574
2701.12	0.0861216
2702.46	0.610768
2703.81	0.456044
2705.15	0.432319
2706.5	0.568198
2707.85	0.67485
2709.19	0.113309
2710.54	0.0446177
2711.88	0.280619
2713.22	0.720024
2714.57	0.520053
2715.91	0.33442
2717.26	0.962971
2718.6	1.09691
2719.94	0.983059
2721.29	1.0141
2722.63	0.636986
2723.97	0.579429
2725.31	0.346648
2726.66	0.56461
2728	0.913127
2729.34	0.926559
2730.68	0.445085
2732.02	0.356496
2733.36	0.47169
2734.7	0.703441
2736.04	0.0336485
2737.38	0.454889
2738.72	0.35251
2740.06	0.162591
2741.4	0.713682
2742.74	0.304317
2744.08	0.708134
2745.42	0.355453
2746.76	0.612411
2748.09	0.767303
2749.43	0.573892
2750.77	0.308377
2752.11	0.37683
2753.45	0.112192
2754.78	0.108727
2756.12	-0.285635
2757.46	-0.433423
2758.79	-0.247891
2760.13	-0.0909405
2761.46	0.370427
2762.8	0.137737
2764.14	0.296136
2765.47	0.599197
2766.8	0.0770283
2768.14	0.421752
2769.47	0.316454
2770.81	0.252803
2772.14	0.0431223
2773.48	0.409679
2774.81	0.169416
2776.14	-0.315341
2777.48	0.136601
2778.81	0.013279
2780.14	-0.166711
2781.47	0.0129519
2782.8	0.0202742
2784.14	0.0275135
2785.47	-0.0656052
2786.8	-0.0724449
2788.13	0.0215254
2789.46	0.230802
2790.79	0.0977583
2792.12	0.308919
2793.45	0.248956
2794.78	0.374879
2796.11	0.557484
2797.44	-0.0320263
2798.77	0.0921183
2800.1	0.358354
2801.43	0.138998
2802.76	-0.0376053
2804.09	0.555197
2805.41	0.334974
2806.74	0.171202
2808.07	0.0779829
2809.4	-0.157725
2810.72	-0.194227
2812.05	0.607309
2813.38	0.373923
2814.71	0.369423
2816.03	0.763638
2817.36	0.422186
2818.68	0.620113
2820.01	0.506253
2821.33	0.703652
2822.66	0.758454
2823.98	0.38739
2825.31	0.979248
2826.63	0.423831
2827.96	1.07277
2829.28	0.618039
2830.6	0.985042
2831.93	1.29568
2833.25	1.9035
2834.57	1.73234
2835.9	2.08418
2837.22	2.90208
2838.54	3.59165
2839.86	4.33711
2841.18	4.17751
2842.5	5.85624
2843.83	6.29183
2845.15	6.81346
2846.47	7.95808
2847.79	8.02939
2849.11	8.11491
2850.43	8.56736
2851.75	8.83509
2853.07	8.33862
2854.39	8.27955
2855.71	8.50271
2857.03	8.5704
2858.35	8.10145
2859.66	8.04216
2860.98	8.44856
2862.3	8.04953
2863.62	8.27101
2864.94	7.98393
2866.25	8.74084
2867.57	8.97604
2868.89	8.85947
2870.2	9.58961
2871.52	10.1225
2872.84	10.6548
2874.15	10.2131
2875.47	10.8683
2876.78	11.4927
2878.1	11.5941
2879.41	11.6526
2880.73	12.78
2882.04	11.9551
2883.36	11.9757
2884.67	11.9001
2885.99	12.0925
2887.3	10.685
2888.61	10.5963
2889.93	10.7166
2891.24	11.2698
2892.55	11.2047
2893.86	11.3354
2895.18	11.1447
2896.49	11.4456
2897.8	10.9508
2899.11	11.3677
2900.42	10.5549
2901.73	11.5756
2903.05	11.2679
2904.36	11.1562
2905.67	11.9403
2906.98	11.5785
2908.29	11.484
2909.6	11.8248
2910.91	11.5231
2912.21	12.0051
2913.52	11.548
2914.83	11.5642
2916.14	12.3473
2917.45	12.1475
2918.76	12.7295
2920.07	12.1219
2921.37	12.2011
2922.68	12.4083
2923.99	12.0729
2925.29	13.0116
2926.6	13.2386
2927.91	12.1796
2929.22	12.0006
2930.52	12.7154
2931.83	12.8701
2933.13	12.7168
2934.44	13.0528
2935.74	12.2988
2937.05	12.4675
2938.35	11.7563
2939.66	12.1355
2940.96	11.4816
2942.26	11.1506
2943.57	10.2065
2944.87	10.0612
2946.18	9.91776
2947.48	9.25755
2948.78	8.98839
2950.08	8.91333
2951.39	8.44343
2952.69	8.33464
2953.99	8.51774
2955.29	7.77632
2956.59	8.14217
2957.9	7.86726
2959.2	7.09235
2960.5	7.10542
2961.8	7.13559
2963.1	6.94258
2964.4	6.3133
2965.7	6.62243
2967	6.57816
2968.3	6.26482
2969.6	5.17681
2970.9	5.24149
2972.19	5.40513
2973.49	5.10499
2974.79	5.52264
2976.09	5.08079
2977.39	4.55259
2978.68	4.54308
2979.98	4.44677
2981.28	4.34873
2982.58	3.63118
2983.87	3.92695
2985.17	3.64777
2986.47	3.28649
2987.76	3.09587
2989.06	3.0612
2990.35	2.36641
2991.65	2.78131
2992.94	2.45007
2994.24	2.10332
2995.53	2.0082
2996.83	2.01056
2998.12	1.36717
2999.42	1.83284
3000.71	1.38745
3002	1.40572
3003.3	1.28444
3004.59	0.897276
3005.88	1.2243
3007.18	1.39643
3008.47	1.17566
3009.76	0.982063
3011.05	0.46651
3012.34	1.15197
3013.64	0.831982
3014.93	0.485178
3016.22	0.752722
3017.51	0.575405
3018.8	0.0650558
3020.09	0.584562
3021.38	0.0189342
3022.67	0.133712
3023.96	0.0529776
3025.25	-0.0700073
3026.54	0.347221
3027.83	0.266153
3029.12	0.31106
3030.41	0.440684
3031.69	0.323459
3032.98	0.0972672
3034.27	0.258126
3035.56	0.0734711
3036.84	-0.126211
3038.13	0.0306292
3039.42	0.226377
3040.71	-0.0748978
3041.99	-0.143011
3043.28	0.0220938
3044.57	0.530044
3045.85	-0.0549459
3047.14	-0.253659
3048.42	0.0694981
3049.71	-0.0281515
3050.99	-0.301207
3052.28	0.013607
3053.56	0.12385
3054.85	-0.0257683
3056.13	0.205491
3057.41	0.0673399
3058.7	-0.194097
3059.98	0.443234
3061.26	0.114183
3062.55	0.425968
3063.83	0.181796
3065.11	0.252349
3066.39	0.12071
3067.68	0.316664
3068.96	0.0509024
3070.24	0.152141
3071.52	0.71494
3072.8	0.365188
3074.08	0.0142527
3075.36	0.151815
3076.65	0.00382042
3077.93	-0.0212984
3079.21	0.117774
3080.49	-0.0262442
3081.77	-0.263279
3083.04	0.274485
3084.32	-0.28572
3085.6	-0.126591
3086.88	-0.0899525
3088.16	0.217504
3089.44	0.510698
3090.72	0.165628
3091.99	-0.328558
3093.27	-0.0490875
3094.55	0.217199
3095.83	0.429629
3097.1	0.262668
3098.38	-0.120991
3099.66	-0.409612
3100.93	0.0605764
3102.21	0.273436
3103.49	-0.0413532
3104.76	0.416268
3106.04	0.0898018
3107.31	0.346494
3108.59	0.171474
3109.86	0.309107
3111.14	0.217909
3112.41	0.547586
3113.69	0.552968
3114.96	0.558459
3116.23	0.0618801
3117.51	0.70359
3118.78	0.327077
3120.05	0.288578
3121.33	0.466162
3122.6	0.548275
3123.87	0.521876
3125.14	0.875049
3126.41	0.700802
3127.69	0.662828
3128.96	0.963804
3130.23	0.616182
3131.5	0.566502
3132.77	0.165593
3134.04	0.669755
3135.31	0.646558
3136.58	1.04123
3137.85	0.855282
3139.12	1.22172
3140.39	0.645364
3141.66	1.03858
3142.93	1.23015
3144.2	0.979124
3145.47	1.0246
3146.74	1.35255
3148	1.18534
3149.27	1.20675
