200.43	0.279348
202.244	0.314368
204.059	0.350775
205.873	0.363974
207.688	1.30134
209.501	0.754794
211.314	0.57163
213.127	0.508311
214.941	1.09853
216.753	0.887178
218.564	0.0948582
220.375	0.0788097
222.186	0.0396357
223.999	0.67852
225.809	0.616604
227.618	0.264879
229.428	0.830471
231.236	1.12928
233.045	1.16194
234.855	-0.66172
236.663	0.265284
238.471	-0.0830879
240.278	0.246371
242.085	-0.482294
243.891	0.623332
245.698	-0.321621
247.503	0.27592
249.309	-0.119624
251.116	-0.229235
252.921	-0.0767384
254.725	0.290507
256.529	0.150408
258.333	0.0836086
260.136	-0.053545
261.939	0.148799
263.742	0.497603
265.544	0.124871
267.346	0.210233
269.148	0.343365
270.949	0.234358
272.75	0.0032692
274.55	-0.518929
276.351	0.0899677
278.15	0.238388
279.95	0.576831
281.749	0.406791
283.548	0.595342
285.346	0.589458
287.144	0.342492
288.942	0.0959005
290.739	0.138021
292.536	-0.0338974
294.333	-0.0603056
296.129	0.871309
297.925	0.441133
299.721	0.417961
301.514	-0.0115652
303.309	0.155046
305.104	-0.27666
306.898	0.125667
308.692	0.193418
310.486	-0.381665
312.279	0.354918
314.072	0.640531
315.862	-0.357585
317.654	0.646627
319.446	0.962269
321.238	-0.0789995
323.029	0.572653
324.819	0.294891
326.608	0.494322
328.398	-0.0469933
330.188	0.533738
331.977	0.993973
333.766	-0.0549822
335.553	-0.00629902
337.341	0.566081
339.129	0.705021
340.917	0.220059
342.704	0.571033
344.489	0.0135393
346.275	0.913951
348.062	0.596769
349.845	0.638357
351.631	-0.0838614
353.416	0.0525475
355.201	-0.0271254
356.984	-0.108372
358.768	0.190123
360.552	0.0343161
362.333	0.734201
364.116	0.338227
365.899	-0.0580416
367.68	-0.193534
369.462	0.476349
371.243	0.314695
373.023	-0.0841398
374.804	0.911705
376.585	-0.148421
378.363	-0.333257
380.143	-0.210544
381.923	0.572231
383.7	-0.3853
385.479	0.0702219
387.256	-0.178323
389.034	0.0678244
390.812	0.855103
392.588	0.280989
394.365	0.599996
396.14	-0.395782
397.916	-0.193809
399.691	0.407172
401.467	-0.237246
403.24	0.362367
405.015	0.0450239
406.788	0.149471
408.563	0.393969
410.335	0.426619
412.109	0.177596
413.88	0.163696
415.654	0.760599
417.424	0.584062
419.197	0.760226
420.967	0.467262
422.739	0.267765
424.508	0.513378
426.279	0.0300932
428.048	0.109179
429.819	0.234557
431.587	0.453665
433.356	0.837333
435.124	0.0947971
436.891	0.10319
438.66	-0.311699
440.426	0.937818
442.194	0.331097
443.96	0.495928
445.725	0.21316
447.492	0.374029
449.257	0.323517
451.021	-0.381058
452.787	-0.430512
454.551	0.103431
456.314	0.333456
458.079	0.0738163
459.842	-0.0457973
461.604	0.044733
463.368	0.0671167
465.13	-0.0472536
466.891	0.213375
468.654	-0.3363
470.415	0.650489
472.175	0.219668
473.935	-0.0495596
475.696	0.261194
477.456	0.243382
479.215	1.20169
480.973	0.714434
482.733	0.250656
484.491	0.626657
486.249	0.5158
488.006	0.990076
489.765	0.394526
491.522	0.546256
493.278	0.325176
495.034	0.711946
496.789	0.373637
498.544	0.432622
500.301	0.772558
502.056	0.502008
503.81	0.394348
505.564	1.15477
507.317	0.879641
509.071	0.978724
510.825	0.675845
512.578	0.8886
514.33	0.817113
516.082	0.50868
517.833	1.04554
519.585	0.781451
521.335	0.681107
523.086	0.486285
524.836	0.549551
526.586	0.448462
528.335	0.839849
530.085	0.972885
531.835	0.80076
533.584	0.978943
535.332	1.01506
537.08	0.535219
538.827	0.568168
540.574	0.622894
542.321	1.00257
544.068	0.822459
545.814	-0.263517
547.56	0.579582
549.305	0.725511
551.05	0.24613
552.795	0.0455551
554.54	0.0766611
556.282	0.0849085
558.025	0.370255
559.769	-0.0355587
561.512	0.365641
563.255	0.0767965
564.997	-0.0730553
566.739	0.536033
568.481	0.181098
570.223	0.148993
571.964	1.01321
573.705	0.411033
575.443	0.33862
577.183	0.6812
578.923	-0.0533066
580.663	0.0392418
582.402	-0.580344
584.141	0.247235
585.879	-0.328605
587.615	0.428011
589.353	-0.0359316
591.09	-0.363013
592.828	0.0915289
594.564	0.223743
596.299	0.263963
598.035	-0.271046
599.771	0.0907907
601.506	0.750643
603.242	0.0518274
604.974	0.455224
606.709	0.16732
608.443	0.521732
610.177	-0.226103
611.908	0.357834
613.642	0.414767
615.374	-0.146348
617.105	0.232507
618.837	-0.0307751
620.569	0.414525
622.3	-0.0343409
624.03	0.545063
625.761	0.689551
627.491	0.0360575
629.219	0.640641
630.949	0.654494
632.677	0.419868
634.406	0.209316
636.135	-0.184263
637.861	0.721327
639.59	0.847446
641.318	0.467983
643.043	0.473497
644.77	1.27429
646.495	0.43615
648.222	0.806303
649.948	0.134669
651.672	0.24036
653.398	0.441624
655.121	0.0784664
656.846	0.150032
658.569	0.610407
660.293	0.751853
662.015	0.731805
663.738	0.411835
665.46	-0.025692
667.183	0.837711
668.903	1.19731
670.626	0.368295
672.346	1.09729
674.067	0.0667906
675.787	0.0228195
677.508	0.347366
679.226	0.69576
680.947	0.629885
682.665	0.883837
684.385	1.08945
686.102	1.29272
687.821	0.296388
689.538	0.726605
691.254	0.441887
692.972	0.709233
694.688	1.13688
696.406	-0.256036
698.121	0.767571
699.835	0.201162
701.552	1.12879
703.266	0.721097
704.98	0.0374737
706.695	1.0984
708.409	1.03354
710.121	1.03702
711.836	0.902667
713.548	0.630938
715.26	1.04502
716.973	1.29844
718.685	1.55154
720.396	1.0523
722.108	0.713503
723.818	1.10346
725.528	0.719689
727.238	1.97158
728.949	1.08757
730.658	0.998161
732.367	1.22552
734.075	1.18067
735.785	0.909918
737.493	0.798223
739.2	1.63508
740.907	1.07415
742.614	1.0787
744.322	1.87287
746.028	1.16037
747.734	1.30502
749.439	2.05859
751.144	0.991863
752.849	1.25383
754.555	1.06761
756.26	0.56806
757.963	1.08315
759.667	1.39782
761.37	0.857609
763.073	1.60337
764.775	1.40161
766.477	1.78568
768.179	1.51235
769.883	1.66573
771.584	1.88446
773.285	1.69435
774.986	1.82021
776.686	1.87889
778.386	1.64526
780.085	2.49906
781.785	1.88429
783.484	2.2199
785.182	2.10157
786.881	2.184
788.579	2.30766
790.276	2.76625
791.974	1.97751
793.671	2.63315
795.367	2.54272
797.064	1.57465
798.76	2.07406
800.456	1.94492
802.151	1.99773
803.846	2.70358
805.541	1.83511
807.234	1.97755
808.928	2.20818
810.622	2.84094
812.315	1.72248
814.008	1.61332
815.701	1.34732
817.394	1.93171
819.086	2.15761
820.778	1.91443
822.468	2.20765
824.159	2.45683
825.85	1.92762
827.541	2.47077
829.231	2.39363
830.921	1.42958
832.609	1.98362
834.298	2.09504
835.987	1.94029
837.676	1.96371
839.364	1.53916
841.051	2.00581
842.738	2.11355
844.426	1.66204
846.113	2.4852
847.798	1.85776
849.484	1.88163
851.171	1.75197
852.857	1.78144
854.54	1.07174
856.226	1.57335
857.911	0.568232
859.593	1.60711
861.278	1.78964
862.961	1.36207
864.645	1.69879
866.327	1.24556
868.01	2.14423
869.692	1.50909
871.373	1.18913
873.055	1.32005
874.735	1.13503
876.416	1.49159
878.097	1.48717
879.776	0.828042
881.457	1.16165
883.135	1.6299
884.815	0.652039
886.495	1.34295
888.172	1.69314
889.851	2.06356
891.528	0.989292
893.206	1.10842
894.882	1.22593
896.56	0.734947
898.237	1.00726
899.912	0.672218
901.589	1.03152
903.263	1.52354
904.94	0.941338
906.614	2.34745
908.289	0.986475
909.962	1.61172
911.635	0.123384
913.31	1.97255
914.982	1.06542
916.656	1.35794
918.328	1.76068
920.001	0.214338
921.672	0.529725
923.345	0.779599
925.015	0.832291
926.685	1.15213
928.357	1.36347
930.026	1.02462
931.698	0.995673
933.366	0.525906
935.035	1.66668
936.705	1.48444
938.373	1.67826
940.041	1.34432
941.71	1.49719
943.377	1.43043
945.044	0.833802
946.712	0.765393
948.378	0.761012
950.044	0.0922575
951.709	0.900579
953.376	1.17911
955.041	1.26097
956.706	0.817039
958.372	1.17105
960.036	0.337036
961.699	1.2709
963.362	0.459794
965.027	0.64096
966.69	1.0182
968.352	1.41424
970.014	1.21023
971.676	0.85031
973.339	1.24297
975	0.951847
976.661	1.01684
978.322	0.619219
979.982	0.83077
981.642	1.04201
983.303	1.39559
984.962	2.03452
986.621	2.20573
988.28	2.81686
989.938	2.56326
991.596	2.48582
993.254	1.30386
994.911	0.719412
996.57	1.17269
998.227	0.809634
999.884	1.96721
1001.54	1.73547
1003.2	1.2174
1004.85	0.875562
1006.51	0.226422
1008.16	0.434789
1009.82	1.49909
1011.47	0.96167
1013.12	1.08301
1014.78	1.48948
1016.43	1.28306
1018.08	0.574283
1019.74	0.829496
1021.39	0.145697
1023.04	0.928129
1024.69	1.64592
1026.34	1.22801
1028	1.24725
1029.65	1.81186
1031.3	1.2171
1032.95	1.29747
1034.6	1.13563
1036.25	1.05945
1037.9	0.960535
1039.54	1.18817
1041.19	1.06828
1042.84	1.18932
1044.49	1.31249
1046.14	1.06885
1047.78	1.02322
1049.43	0.610516
1051.08	0.937834
1052.72	1.00562
1054.37	1.22605
1056.02	0.816304
1057.66	0.492993
1059.31	1.16914
1060.95	1.56196
1062.6	0.692628
1064.24	0.9311
1065.88	0.581245
1067.53	0.49101
1069.17	0.616891
1070.81	0.524705
1072.45	1.01851
1074.1	0.471019
1075.74	0.727746
1077.38	0.855897
1079.02	1.22414
1080.66	1.11631
1082.3	1.20367
1083.94	0.812916
1085.58	0.70209
1087.22	1.00049
1088.86	0.88452
1090.5	1.41557
1092.14	1.1227
1093.78	0.764942
1095.42	1.18478
1097.05	1.60493
1098.69	1.40153
1100.33	1.20072
1101.96	0.744393
1103.6	0.828453
1105.24	0.290397
1106.87	0.936123
1108.51	1.34481
1110.14	0.203944
1111.78	0.26544
1113.41	0.926402
1115.05	0.275469
1116.68	0.697297
1118.31	0.089653
1119.95	0.511992
1121.58	0.763773
1123.21	0.631414
1124.85	0.479021
1126.48	-0.0999603
1128.11	0.669503
1129.74	0.199482
1131.37	0.435803
1133	0.35181
1134.63	1.03721
1136.26	0.503432
1137.89	0.780533
1139.52	0.970516
1141.15	0.30506
1142.78	0.941271
1144.41	-0.235878
1146.04	0.18778
1147.66	0.463095
1149.29	0.185401
1150.92	-0.0915356
1152.55	0.164064
1154.17	-0.155679
1155.8	0.226624
1157.43	0.268116
1159.05	0.565252
1160.68	-0.242474
1162.3	0.120812
1163.93	-0.705372
1165.55	-0.382792
1167.17	1.02387
1168.8	0.239294
1170.42	-0.355739
1172.05	0.322064
1173.67	-0.0433712
1175.29	0.544896
1176.91	-0.479513
1178.54	-0.231164
1180.16	0.546818
1181.78	0.203723
1183.4	0.538406
1185.02	0.0275965
1186.64	-0.166939
1188.26	0.37536
1189.88	0.935335
1191.5	0.228472
1193.12	0.509692
1194.74	0.264201
1196.36	-0.106361
1197.97	0.278943
1199.59	0.351704
1201.21	0.59435
1202.83	0.610261
1204.44	0.587678
1206.06	0.672132
1207.68	0.904283
1209.29	0.74043
1210.91	0.533934
1212.52	0.221226
1214.14	1.07302
1215.75	0.296734
1217.37	0.913296
1218.98	0.924685
1220.59	1.08119
1222.21	1.05159
1223.82	1.04435
1225.43	1.80515
1227.05	2.07037
1228.66	1.73741
1230.27	1.36507
1231.88	1.65599
1233.49	0.89433
1235.1	1.45708
1236.72	1.83542
1238.33	2.15321
1239.94	2.12053
1241.55	1.50897
1243.16	1.53803
1244.76	1.52472
1246.37	2.46198
1247.98	1.57694
1249.59	2.13933
1251.2	1.6254
1252.8	1.69105
1254.41	2.15061
1256.02	2.54955
1257.62	2.24689
1259.23	2.19401
1260.84	2.18371
1262.44	2.07052
1264.05	2.28873
1265.66	2.58945
1267.26	2.47478
1268.86	2.44169
1270.47	2.28277
1272.07	2.8481
1273.67	2.4997
1275.28	2.29513
1276.88	2.02722
1278.48	2.37982
1280.09	2.13082
1281.69	1.73674
1283.29	2.12927
1284.89	2.39809
1286.49	2.4612
1288.09	2.31901
1289.69	2.96339
1291.29	2.78181
1292.89	2.93075
1294.49	3.18191
1296.09	2.60506
1297.69	3.26502
1299.29	2.68404
1300.89	3.09131
1302.49	2.61042
1304.08	2.93166
1305.68	2.24386
1307.28	3.09708
1308.88	3.189
1310.47	2.05109
1312.07	2.26724
1313.66	2.54529
1315.26	2.9672
1316.85	3.04264
1318.45	2.32308
1320.04	2.70534
1321.64	3.08575
1323.23	2.52727
1324.83	2.08955
1326.42	2.84876
1328.01	2.02385
1329.61	2.67984
1331.2	2.14313
1332.79	2.29744
1334.38	2.6766
1335.97	2.20998
1337.56	2.6724
1339.16	2.46827
1340.75	2.96715
1342.34	2.25484
1343.93	2.46597
1345.52	2.85575
1347.11	2.32232
1348.7	2.75377
1350.29	2.38724
1351.87	1.58466
1353.46	1.92514
1355.05	2.1272
1356.64	1.15071
1358.22	1.39279
1359.81	1.93305
1361.4	1.35373
1362.98	1.47211
1364.57	1.13135
1366.16	1.34915
1367.74	1.10967
1369.33	1.38946
1370.91	1.37232
1372.5	1.51612
1374.08	0.845515
1375.67	1.25025
1377.25	1.63524
1378.83	1.26344
1380.41	1.12918
1382	0.794429
1383.58	1.19404
1385.16	1.49269
1386.74	1.11496
1388.33	1.35335
1389.91	0.996861
1391.49	1.11796
1393.07	0.962244
1394.65	1.22358
1396.23	0.3345
1397.81	0.713736
1399.39	1.52743
1400.97	1.44792
1402.55	1.03122
1404.13	1.40625
1405.7	0.891708
1407.28	0.77398
1408.86	0.815434
1410.44	1.07476
1412.01	1.15617
1413.59	1.55263
1415.17	1.31622
1416.74	1.65085
1418.32	1.17649
1419.89	0.58483
1421.47	1.57021
1423.04	1.41515
1424.62	1.06539
1426.19	0.677879
1427.77	0.901173
1429.34	1.22257
1430.91	1.07048
1432.49	1.95996
1434.06	0.939492
1435.63	1.70872
1437.2	2.22212
1438.78	2.51996
1440.35	2.74042
1441.92	2.64768
1443.49	2.51658
1445.06	2.03222
1446.63	2.8846
1448.2	3.38347
1449.77	2.80155
1451.34	2.57402
1452.91	2.42577
1454.48	2.71071
1456.05	2.95639
1457.62	2.92579
1459.18	2.59825
1460.75	2.50456
1462.32	2.29036
1463.89	2.68375
1465.45	2.13183
1467.02	1.91394
1468.59	1.93232
1470.15	1.75555
1471.72	1.52149
1473.28	2.23031
1474.85	1.27306
1476.41	1.66948
1477.98	1.34057
1479.54	1.16847
1481.1	0.917865
1482.67	1.11794
1484.23	0.886725
1485.79	0.400478
1487.36	1.12782
1488.92	1.26575
1490.48	0.931644
1492.04	0.810374
1493.61	0.413211
1495.17	0.326921
1496.73	0.278491
1498.29	0.599611
1499.85	0.570698
1501.41	0.776065
1502.97	0.458804
1504.53	0.801965
1506.09	0.564094
1507.65	0.596668
1509.2	0.685901
1510.76	0.233228
1512.32	-0.00739098
1513.88	0.329522
1515.43	0.608083
1516.99	0.0419168
1518.55	0.455948
1520.1	0.237651
1521.66	0.40276
1523.22	0.73914
1524.77	0.520156
1526.33	0.529286
1527.88	-0.0910845
1529.44	0.56355
1530.99	1.21628
1532.54	0.976626
1534.1	0.776543
1535.65	1.16456
1537.21	0.400331
1538.76	1.01639
1540.31	0.877438
1541.86	0.569308
1543.42	0.939174
1544.97	0.894415
1546.52	0.00426769
1548.07	0.748112
1549.62	0.909307
1551.17	1.20144
1552.72	1.28784
1554.27	1.41261
1555.82	0.941252
1557.37	1.27526
1558.92	1.35014
1560.47	1.44601
1562.02	1.02154
1563.56	1.47524
1565.11	1.76184
1566.66	1.75005
1568.21	1.27136
1569.75	1.78136
1571.3	2.16025
1572.85	2.2401
1574.39	2.09574
1575.94	2.25006
1577.49	1.97528
1579.03	1.83165
1580.57	2.39831
1582.12	2.0137
1583.66	1.42447
1585.21	1.97576
1586.75	1.4998
1588.3	2.46383
1589.84	2.45536
1591.38	2.1468
1592.92	2.32423
1594.47	1.67723
1596.01	2.49127
1597.55	2.16307
1599.09	2.92296
1600.63	2.12748
1602.17	1.78225
1603.71	2.43188
1605.25	2.27342
1606.79	2.41375
1608.33	2.25086
1609.87	2.17893
1611.41	2.01008
1612.95	1.95148
1614.49	2.41675
1616.03	1.88676
1617.57	1.75161
1619.1	2.42365
1620.64	1.54262
1622.18	1.61871
1623.72	2.55697
1625.25	2.24087
1626.79	2.01747
1628.32	1.9422
1629.86	2.50099
1631.39	2.42235
1632.93	2.1191
1634.46	2.43257
1636	2.69075
1637.53	3.17372
1639.07	2.33351
1640.6	2.44441
1642.13	3.18783
1643.67	2.86771
1645.2	3.06733
1646.73	2.81912
1648.26	3.33265
1649.8	3.23317
1651.33	3.72896
1652.86	2.94617
1654.39	3.48197
1655.92	3.46224
1657.45	3.68331
1658.98	3.9587
1660.51	3.5285
1662.04	3.17075
1663.57	3.88403
1665.1	3.09925
1666.63	2.5561
1668.16	3.12169
1669.68	3.15407
1671.21	3.15161
1672.74	3.27961
1674.27	2.61633
1675.79	3.11295
1677.32	2.06222
1678.85	2.97928
1680.37	2.7908
1681.9	2.36262
1683.42	2.19158
1684.95	2.16763
1686.47	2.25418
1688	1.93797
1689.52	2.39198
1691.05	1.82052
1692.57	1.41441
1694.09	1.44761
1695.62	1.29772
1697.14	1.56792
1698.66	1.14343
1700.18	1.43064
1701.71	0.841402
1703.23	1.07238
1704.75	1.21123
1706.27	0.603283
1707.79	0.704982
1709.31	0.370463
1710.83	0.544725
1712.35	0.80955
1713.87	0.0776434
1715.39	0.360745
1716.91	0.263453
1718.43	0.50953
1719.95	0.592562
1721.47	0.278702
1722.99	0.308508
1724.5	-0.00289345
1726.02	0.479864
1727.54	0.261731
1729.06	0.566749
1730.57	0.728191
1732.09	0.142346
1733.61	0.215453
1735.12	0.789392
1736.64	-0.151116
1738.15	-0.280045
1739.67	0.535216
1741.18	0.498779
1742.7	0.269845
1744.21	0.237156
1745.72	0.174397
1747.24	0.161235
1748.75	-0.00502396
1750.26	0.156154
1751.77	-0.0540085
1753.29	-0.0234947
1754.8	-0.16715
1756.31	0.138755
1757.82	0.319591
1759.33	-0.389867
1760.84	0.0228939
1762.36	-0.152182
1763.87	0.0960312
1765.38	0.0402088
1766.89	0.117087
1768.4	0.0307102
1769.91	-0.370277
1771.41	0.247521
1772.92	0.300993
1774.43	0.0696602
1775.94	-0.290228
1777.45	0.0697365
1778.95	0.0527344
1780.46	-0.0157375
1781.97	0.0498972
1783.48	-0.11877
1784.98	0.0331583
1786.49	-0.377945
1787.99	0.356099
1789.5	0.425501
1791.01	0.158968
1792.51	-0.2309
1794.01	-0.0891657
1795.52	-0.181685
1797.02	0.047205
1798.53	0.0356941
1800.03	-0.192058
1801.53	-0.116052
1803.04	-0.23151
1804.54	-0.0227947
1806.04	0.0815401
1807.54	0.0945873
1809.05	0.0319414
1810.55	-0.0224915
1812.05	0.122463
1813.55	-0.138803
1815.05	0.150452
1816.55	-0.109508
1818.05	0.114723
1819.55	0.352388
1821.05	0.106898
1822.55	0.321355
1824.05	0.0743427
1825.55	-0.0122786
1827.05	-0.147501
1828.55	0.0169554
1830.04	0.27553
1831.54	0.101116
1833.04	0.323514
1834.54	-0.0430651
1836.03	-0.179661
1837.53	0.157852
1839.03	0.0187807
1840.52	0.0328474
1842.02	0.00893593
1843.51	-0.00304222
1845.01	0.396278
1846.5	0.150779
1848	0.0184526
1849.49	0.0214386
1850.99	0.241323
1852.48	0.122216
1853.97	0.0669775
1855.47	-0.088378
1856.96	0.283298
1858.45	0.223483
1859.94	0.28287
1861.44	0.184257
1862.93	-0.106581
1864.42	0.129999
1865.91	0.268884
1867.4	0.193369
1868.89	0.318505
1870.38	0.0865374
1871.87	-0.135318
1873.36	0.223065
1874.85	0.107712
1876.34	0.0417328
1877.83	0.035408
1879.32	0.429227
1880.81	0.139916
1882.3	-0.174169
1882.57	-0.231669
1884.07	0.201258
1885.56	0.057869
1887.06	0.488324
1888.55	-0.126706
1890.04	0.0768776
1891.54	-0.0489531
1893.03	-0.450974
1894.52	0.331427
1896.02	-0.118788
1897.51	-0.0464535
1899	0.0431376
1900.49	0.409865
1901.98	0.200531
1903.47	0.371724
1904.96	-0.223811
1906.45	0.188007
1907.94	0.165265
1909.43	-0.0823488
1910.92	-0.172503
1912.41	0.102723
1913.9	0.066309
1915.39	0.0126562
1916.88	-0.0240479
1918.37	0.146606
1919.85	-0.203162
1921.34	-0.0331774
1922.83	-0.0359516
1924.32	-0.228106
1925.8	0.15239
1927.29	0.309102
1928.78	0.206893
1930.26	0.554818
1931.75	0.122489
1933.23	0.0866852
1934.72	0.100698
1936.2	0.527905
1937.69	-0.30898
1939.17	0.046896
1940.66	0.00553989
1942.14	0.344919
1943.63	0.581762
1945.11	0.0607586
1946.59	-0.0802326
1948.07	-0.186964
1949.56	-0.0705652
1951.04	0.113415
1952.52	-0.0652657
1954	-0.038044
1955.48	-0.199953
1956.96	0.497425
1958.45	0.0449457
1959.93	0.125594
1961.41	-0.599074
1962.89	0.322487
1964.37	-0.281752
1965.85	0.586648
1967.32	0.477736
1968.8	-0.0936737
1970.28	-0.0155134
1971.76	0.0622168
1973.24	0.242174
1974.72	0.0467796
1976.19	0.158666
1977.67	0.304664
1979.15	-0.162164
1980.63	0.0859871
1982.1	0.0276346
1983.58	0.240767
1985.05	0.368299
1986.53	-0.0134516
1988	0.215455
1989.48	-0.0805445
1990.95	0.0646734
1992.43	-0.0259218
1993.9	0.0876341
1995.38	0.168283
1996.85	0.570378
1998.32	0.110854
1999.8	0.495205
2001.27	0.0685148
2002.74	0.0295448
2004.22	0.15904
2005.69	0.0360985
2007.16	0.486835
2008.63	0.298604
2010.1	0.178862
2011.57	0.0597906
2013.04	0.39524
2014.51	0.0400887
2015.98	0.0879288
2017.45	-0.0335369
2018.92	0.0122213
2020.39	0.0740881
2021.86	-0.0154009
2023.33	-0.221877
2024.8	0.277455
2026.27	0.174076
2027.74	0.0724955
2029.2	0.207545
2030.67	-0.259693
2032.14	-0.138695
2033.61	0.0668831
2035.07	0.675621
2036.54	0.309939
2038.01	0.565117
2039.47	-0.12126
2040.94	-0.135558
2042.4	0.203711
2043.87	0.224528
2045.33	0.532542
2046.8	-0.101027
2048.26	0.19158
2049.72	0.248114
2051.19	0.101119
2052.65	0.154526
2054.12	0.037097
2055.58	0.305443
2057.04	0.538285
2058.5	0.955345
2059.97	0.681315
2061.43	0.104972
2062.89	0.371619
2064.35	0.588914
2065.81	0.302551
2067.27	0.53894
2068.73	0.439473
2070.19	0.626535
2071.65	0.510682
2073.11	0.259923
2074.57	0.598161
2076.03	0.717112
2077.49	0.566168
2078.95	0.987285
2080.41	0.279589
2081.87	0.918257
2083.32	0.478563
2084.78	0.761761
2086.24	0.421463
2087.7	0.568286
2089.15	0.596822
2090.61	1.02821
2092.07	0.636439
2093.52	0.79868
2094.98	0.423778
2096.43	1.13807
2097.89	0.845681
2099.34	0.636614
2100.8	0.527827
2102.25	1.00434
2103.71	0.729847
2105.16	0.941303
2106.61	0.920781
2108.07	1.25184
2109.52	1.31637
2110.97	1.43012
2112.43	1.20878
2113.88	1.21859
2115.33	1.27624
2116.78	1.05004
2118.23	1.33959
2119.68	1.19894
2121.13	1.79091
2122.59	1.43972
2124.04	1.68756
2125.49	1.86986
2126.94	1.83621
2128.39	1.78462
2129.83	1.76433
2131.28	2.33854
2132.73	2.44758
2134.18	2.20911
2135.63	2.12083
2137.08	1.85287
2138.53	2.81048
2139.97	2.63039
2141.42	2.40298
2142.87	2.29285
2144.31	2.96106
2145.76	2.7363
2147.21	2.85861
2148.65	2.96353
2150.1	2.52055
2151.54	3.31867
2152.99	3.17101
2154.43	3.60205
2155.88	2.95552
2157.32	3.45225
2158.77	3.41996
2160.21	3.65472
2161.65	3.69339
2163.1	3.15458
2164.54	3.52986
2165.98	3.29258
2167.43	4.11813
2168.87	3.87911
2170.31	3.53733
2171.75	3.62471
2173.19	3.22678
2174.64	3.72512
2176.07	3.6903
2177.52	3.95512
2178.96	3.53942
2180.4	4.05626
2181.84	3.82627
2183.28	3.46408
2184.72	3.43483
2186.15	3.25595
2187.59	3.57623
2189.03	3.7802
2190.47	3.53478
2191.91	3.5386
2193.35	2.9419
2194.78	3.209
2196.22	2.8575
2197.66	3.28534
2199.09	3.2114
2200.53	2.35519
2201.97	3.01085
2203.4	2.65456
2204.84	3.14589
2206.27	2.57756
2207.71	2.62341
2209.14	2.55302
2210.58	2.44848
2212.01	2.68998
2213.45	2.35162
2214.88	2.26134
2216.31	2.25458
2217.75	1.93598
2219.18	2.03164
2220.61	2.09542
2222.05	1.82969
2223.48	1.81028
2224.91	1.7396
2226.34	1.8477
2227.78	1.9205
2229.21	0.858261
2230.64	0.748789
2232.07	1.75355
2233.5	1.13608
2234.93	1.56734
2236.36	1.1989
2237.79	1.0127
2239.22	0.845472
2240.65	1.21919
2242.08	1.28522
2243.5	1.14081
2244.93	0.915268
2246.36	1.2108
2247.79	0.982344
2249.22	0.946876
2250.64	0.30588
2252.07	0.80311
2253.5	0.696773
2254.92	0.249883
2256.35	1.15293
2257.78	0.38668
2259.2	1.14941
2260.63	0.861254
2262.05	0.673409
2263.48	0.763446
2264.9	0.5614
2266.33	0.76518
2267.75	0.789204
2269.18	0.633064
2270.6	0.736318
2272.02	0.676171
2273.45	0.452936
2274.87	0.913898
2276.29	0.169598
2277.71	0.191151
2279.14	0.71818
2280.56	0.690978
2281.98	0.386326
2283.4	0.407728
2284.82	0.527113
2286.24	0.891688
2287.66	0.669137
2289.08	0.545003
2290.5	0.37226
2291.92	0.51032
2293.34	0.223435
2294.76	0.443485
2296.18	0.385358
2297.6	0.343495
2299.02	-0.222579
2300.44	0.407556
2301.86	0.202337
2303.27	0.194139
2304.69	0.251782
2306.11	0.457204
2307.53	0.350203
2308.94	0.60409
2310.36	0.117449
2311.78	0.107048
2313.19	0.359889
2314.61	0.333589
2316.02	0.159973
2317.44	0.399026
2318.85	-0.086463
2320.27	0.251906
2321.68	0.110717
2323.1	0.742855
2324.51	0.612991
2325.92	0.447371
2327.34	0.395272
2328.75	0.721377
2330.16	0.405026
2331.58	0.518159
2332.99	0.747804
2334.4	-0.0911102
2335.81	-0.106853
2337.23	0.238676
2338.64	-0.4036
2340.05	-0.175752
2341.46	0.0671701
2342.87	0.0958548
2344.28	0.157282
2345.69	0.382859
2347.1	-0.194044
2348.51	-0.32826
2349.92	0.126131
2351.33	0.104911
2352.74	0.327512
2354.15	-0.00619125
2355.55	-0.160745
2356.96	0.124263
2358.37	0.132133
2359.78	0.0264139
2361.19	0.375465
2362.59	-0.0219994
2364	0.374797
2365.41	0.23682
2366.81	-0.0137405
2368.22	0.172853
2369.62	-0.236471
2371.03	-0.0633059
2372.44	0.0145607
2373.84	0.0613356
2375.24	-0.406566
2376.65	0.0264568
2378.05	-0.088973
2379.46	0.308058
2380.86	-0.260748
2382.26	0.0678968
2383.67	0.0103598
2385.07	-0.0472822
2386.47	0.0714378
2387.88	0.127156
2389.28	0.120442
2390.68	0.210843
2392.08	0.159266
2393.48	0.108955
2394.89	0.282356
2396.29	-0.0681524
2397.69	-0.115704
2399.09	-0.27377
2400.49	0.0295
2401.89	0.110665
2403.29	0.255379
2404.69	-0.0450077
2406.09	0.606107
2407.48	0.0973167
2408.88	0.55545
2410.28	0.109231
2411.68	0.123195
2413.08	0.0431318
2414.48	0.439628
2415.87	0.394549
2417.27	0.0503063
2418.67	-0.118764
2420.06	0.219311
2421.46	-0.139611
2422.86	0.403955
2424.25	-0.0667162
2425.65	0.223214
2427.04	-0.294442
2428.44	0.219174
2429.83	0.369501
2431.23	0.20345
2432.62	0.259665
2434.02	0.31526
2435.41	0.258297
2436.81	0.358393
2438.2	-0.353659
2439.59	0.0449152
2440.99	0.172256
2442.38	0.219499
2443.77	0.10769
2445.16	0.0592012
2446.56	0.248382
2447.95	0.231219
2449.34	0.499175
2450.73	-0.135303
2452.12	-0.19886
2453.51	0.323987
2454.9	-0.133206
2456.29	0.154015
2457.68	0.457376
2459.07	-0.0461645
2460.46	0.366943
2461.85	-0.011632
2463.24	0.272887
2464.63	-0.0754623
2466.02	0.523651
2467.4	0.269734
2468.79	0.331534
2470.18	0.361482
2471.57	-0.0347528
2472.95	-0.100552
2474.34	0.305078
2475.73	0.0329514
2477.12	-0.144879
2478.5	0.399908
2479.89	-0.0288458
2481.27	0.24884
2482.66	0.416327
2484.04	0.0820236
2485.43	-0.0650845
2486.81	-0.0882673
2488.2	-0.0658817
2489.58	-0.200253
2490.97	0.163589
2492.35	0.169645
2493.73	0.114884
2495.12	-0.248387
2496.5	-0.0980921
2497.88	0.00649643
2499.27	-0.22928
2500.65	-0.140336
2502.03	-0.207007
2503.41	0.404657
2504.79	-0.235341
2506.17	-0.0427027
2507.56	-0.0970116
2508.94	0.248652
2510.32	0.302312
2511.7	-0.103591
2513.08	0.289228
2514.46	0.0544863
2515.84	0.157846
2517.22	-0.0439329
2518.59	0.183221
2519.97	0.165839
2521.35	0.0565023
2522.73	-0.11456
2524.11	-0.118618
2525.49	0.318443
2526.86	0.312896
2528.24	-0.026865
2529.62	0.0913296
2530.99	0.363275
2532.37	0.242037
2533.75	0.0313177
2535.12	0.474729
2536.5	0.355923
2537.88	0.312243
2539.25	0.130711
2540.63	0.37339
2542	0.311931
2543.38	0.0688066
2544.75	0.13021
2546.12	-0.0192719
2547.5	0.2119
2548.87	-0.435824
2550.24	0.0391655
2551.62	0.179825
2552.99	0.395271
2554.36	0.0783138
2555.74	-0.330641
2557.11	0.38236
2558.48	0.306332
2559.85	0.351944
2561.22	0.0192795
2562.59	0.33911
2563.96	0.18982
2565.34	0.0561934
2566.71	-0.0771608
2568.08	0.304853
2569.45	0.27769
2570.82	0.523342
2572.18	0.708429
2573.55	0.590468
2574.92	-0.0883207
2576.29	0.278928
2577.66	-0.111989
2579.03	0.452044
2580.4	0.166524
2581.77	0.289907
2583.13	0.412813
2584.5	0.429287
2585.87	0.27895
2587.23	0.0681581
2588.6	0.357746
2589.97	-0.0800047
2591.33	0.285271
2592.7	-0.137999
2594.06	0.22563
2595.43	-0.260199
2596.79	-0.111117
2598.16	0.127649
2599.52	-0.178567
2600.89	0.331625
2602.25	-0.124654
2603.62	0.325991
2604.98	-0.32461
2606.34	0.398126
2607.71	0.0342531
2609.07	0.167016
2610.43	0.117423
2611.79	-0.189532
2613.16	0.179299
2614.52	0.246073
2615.88	0.0273104
2617.24	0.318929
2618.6	-0.033246
2619.96	0.094924
2621.32	-0.000522614
2622.68	0.0990076
2624.04	0.347977
2625.4	0.283166
2626.76	-0.0353813
2628.12	-0.23467
2629.48	-0.285131
2630.84	0.051055
2632.2	-0.0594063
2633.56	0.290697
2634.92	0.150419
2636.28	0.514524
2637.63	-0.203674
2638.99	-0.106354
2640.35	0.24249
2641.71	-0.000226021
2643.06	-0.197955
2644.42	0.224791
2645.77	-0.194041
2647.13	0.0358391
2648.49	0.411812
2649.84	-0.00851727
2651.2	0.350271
2652.55	-0.0116253
2653.91	0.155619
2655.26	0.132899
2656.62	0.433727
2657.97	-0.084094
2659.33	0.189646
2660.68	0.0249262
2662.03	0.0209169
2663.39	0.176842
2664.74	0.185621
2666.09	0.280977
2667.44	0.43389
2668.8	0.469959
2670.15	0.389901
2671.5	0.339679
2672.85	0.813358
2674.2	0.590213
2675.55	0.251893
2676.91	0.248253
2678.26	0.346926
2679.61	-0.162434
2680.96	-0.00349236
2682.31	0.258323
2683.66	0.275095
2685	0.42356
2686.35	0.12284
2687.7	0.170017
2689.05	0.404503
2690.4	0.477256
2691.75	0.286483
2693.1	0.326113
2694.44	0.466034
2695.79	0.27228
2697.14	0.340206
2698.49	0.192436
2699.83	-0.141499
2701.18	-0.0245199
2702.52	0.340485
2703.87	0.286747
2705.22	0.682991
2706.56	0.252888
2707.91	-0.119905
2709.25	0.15976
2710.6	0.555351
2711.94	0.195472
2713.29	0.329243
2714.63	0.303113
2715.97	0.407732
2717.32	0.395862
2718.66	0.121796
2720.01	0.560144
2721.35	0.0666599
2722.69	0.271091
2724.03	0.183851
2725.38	0.154293
2726.72	0.473586
2728.06	0.166622
2729.4	0.528813
2730.74	0.235964
2732.08	0.219556
2733.42	0.130511
2734.76	0.390769
2736.1	0.229424
2737.44	0.271851
2738.78	0.343312
2740.12	0.618021
2741.46	0.324998
2742.8	0.365617
2744.14	0.390815
2745.48	0.575025
2746.82	0.177686
2748.16	0.346539
2749.49	0.326668
2750.83	0.205526
2752.17	0.461698
2753.51	-0.0646381
2754.84	0.220884
2756.18	0.0863476
2757.52	0.3575
2758.85	0.180063
2760.19	0.553128
2761.53	0.232059
2762.86	0.143137
2764.2	0.17033
2765.53	-0.0340195
2766.87	-0.0653067
2768.2	0.0903234
2769.54	0.157548
2770.87	0.107335
2772.2	0.185498
2773.54	0.824992
2774.87	0.0355177
2776.2	-0.090065
2777.54	0.274282
2778.87	0.121007
2780.2	-0.00268745
2781.53	-0.0827713
2782.87	-0.234425
2784.2	0.00125122
2785.53	0.222234
2786.86	0.299936
2788.19	0.020299
2789.52	-0.558572
2790.85	0.0797234
2792.18	0.246683
2793.51	-0.229183
2794.84	0.024065
2796.17	0.333919
2797.5	-0.156977
2798.83	-0.0342464
2800.16	-0.425916
2801.49	0.109662
2802.82	0.216734
2804.15	0.12385
2805.47	0.215653
2806.8	0.0930891
2808.13	0.126358
2809.46	0.215909
2810.78	-0.234262
2812.11	-0.101246
2813.44	0.188965
2814.76	0.140408
2816.09	0.0652657
2817.42	-0.348697
2818.74	-0.0816526
2820.07	0.0294638
2821.39	0.097496
2822.72	0.0654964
2824.04	0.556961
2825.37	0.523685
2826.69	0.363029
2828.02	0.74109
2829.34	0.199569
2830.66	0.210773
2831.99	0.561946
2833.31	-0.0919924
2834.63	0.980508
2835.96	1.07565
2837.28	0.703135
2838.6	0.797035
2839.92	0.947192
2841.24	0.998443
2842.57	0.753357
2843.89	1.55499
2845.21	1.38228
2846.53	1.91697
2847.85	1.80202
2849.17	2.97326
2850.49	2.37737
2851.81	2.88324
2853.13	2.38493
2854.45	3.11558
2855.77	3.2241
2857.09	2.97941
2858.41	3.00322
2859.72	3.11172
2861.04	3.36113
2862.36	3.48295
2863.68	3.53361
2865	3.72498
2866.31	3.80337
2867.63	4.23464
2868.95	4.59585
2870.26	4.56279
2871.58	4.44538
2872.9	4.79266
2874.21	5.13871
2875.53	5.66608
2876.84	5.26219
2878.16	5.153
2879.47	5.592
2880.79	5.46877
2882.1	5.094
2883.42	5.54965
2884.73	5.38866
2886.05	5.73395
2887.36	5.64409
2888.67	5.97454
2889.99	5.81266
2891.3	5.25703
2892.61	5.51388
2893.92	5.89634
2895.24	5.71893
2896.55	5.8088
2897.86	6.59984
2899.17	6.25883
2900.48	6.49265
2901.79	6.25152
2903.11	6.90593
2904.42	6.93106
2905.73	6.56498
2907.04	7.05299
2908.35	7.23453
2909.66	7.55732
2910.97	7.95108
2912.27	8.009
2913.58	8.47174
2914.89	8.68031
2916.2	8.10219
2917.51	9.42525
2918.82	9.26292
2920.13	9.81377
2921.43	9.45661
2922.74	10.0103
2924.05	10.3284
2925.35	10.4528
2926.66	10.8717
2927.97	11.1508
2929.27	11.0659
2930.58	11.0359
2931.89	11.2149
2933.19	11.0858
2934.5	11.2224
2935.8	11.3311
2937.11	11.51
2938.41	11.4376
2939.72	10.5273
2941.02	10.7079
2942.32	10.6244
2943.63	9.85802
2944.93	9.90442
2946.24	9.9108
2947.54	8.58897
2948.84	9.02928
2950.14	8.37598
2951.45	8.67183
2952.75	8.29259
2954.05	7.88327
2955.35	8.07546
2956.65	7.63918
2957.95	7.668
2959.26	7.44897
2960.56	7.30403
2961.86	7.34425
2963.16	6.90863
2964.46	6.80844
2965.76	6.79028
2967.06	6.64317
2968.36	5.777
2969.66	6.32956
2970.96	5.93986
2972.25	5.94435
2973.55	5.49902
2974.85	5.33496
2976.15	5.04317
2977.45	4.69316
2978.74	5.0729
2980.04	4.36616
2981.34	5.06512
2982.64	4.20157
2983.93	4.2109
2985.23	4.03909
2986.52	3.729
2987.82	3.44909
2989.12	3.1846
2990.41	3.29989
2991.71	3.42857
2993	3.0077
2994.3	2.62739
2995.59	2.7093
2996.89	2.53746
2998.18	2.60407
2999.48	2.32033
3000.77	1.88333
3002.06	1.79785
3003.36	1.27861
3004.65	1.72639
3005.94	1.27733
3007.23	1.19177
3008.53	1.23114
3009.82	1.28333
3011.11	1.06903
3012.4	1.0081
3013.69	1.11471
3014.99	0.315668
3016.28	0.605212
3017.57	0.658689
3018.86	0.253614
3020.15	0.683504
3021.44	0.639803
3022.73	0.456221
3024.02	0.674135
3025.31	0.58574
3026.6	-0.0289993
3027.89	0.298978
3029.18	0.0471764
3030.46	0.364107
3031.75	0.226871
3033.04	0.270557
3034.33	0.300842
3035.62	0.647718
3036.9	0.0964441
3038.19	0.618249
3039.48	-0.225653
3040.76	0.304928
3042.05	0.531071
3043.34	0.33174
3044.62	0.531053
3045.91	0.185215
3047.19	-0.0478487
3048.48	0.131948
3049.77	0.0140381
3051.05	0.334854
3052.34	0.397437
3053.62	0.828461
3054.9	0.440043
3056.19	0.227836
3057.47	0.314384
3058.76	0.944862
3060.04	0.52594
3061.32	0.434663
3062.61	0.657623
3063.89	0.868702
3065.17	0.660378
3066.45	0.916203
3067.74	0.425619
3069.02	0.50662
3070.3	0.0297365
3071.58	0.0414276
3072.86	0.051692
3074.14	0.332364
3075.42	0.0682383
3076.7	0.374434
3077.99	0.110877
3079.26	0.33744
3080.54	0.0232801
3081.82	0.348759
3083.1	0.146853
3084.38	0.149364
3085.66	0.111312
3086.94	-0.198674
3088.22	-0.373744
3089.5	-0.0337849
3090.78	0.034234
3092.05	-0.142035
3093.33	-0.0195351
3094.61	0.184752
3095.89	0.104686
3097.16	0.0384102
3098.44	0.0535088
3099.72	-0.0127621
3100.99	-0.01126
3102.27	0.261275
3103.54	0.209208
3104.82	0.0902576
3106.1	0.148327
3107.37	0.0723286
3108.65	0.0112724
3109.92	-0.2108
3111.2	0.0422316
3112.47	0.201646
3113.74	-0.193746
3115.02	0.156245
3116.29	-0.280519
3117.56	0.258149
3118.84	0.144643
3120.11	-0.132819
3121.38	0.537872
3122.66	-0.0935106
3123.93	-0.128399
3125.2	0.378692
3126.47	0.371772
3127.74	0.216887
3129.01	0.346888
3130.29	0.450378
3131.56	0.378362
3132.83	0.373911
3134.1	0.126005
3135.37	0.309861
3136.64	0.344562
3137.91	0.553991
3139.18	0.183548
3140.45	0.204021
3141.72	0.668475
3142.99	0.622088
3144.26	0.925627
3145.52	0.330877
3146.79	0.703137
3148.06	0.741027
3149.33	0.632504
