200.43	0.0697918
202.244	0.0898733
204.059	0.111115
205.873	0.37652
207.688	-0.451949
209.501	-0.138015
211.314	0.150354
213.127	0.437191
214.941	0.0677338
216.753	0.376904
218.564	-0.0893202
220.375	0.365427
222.186	0.119059
223.999	-0.198656
225.809	0.0886345
227.618	0.0859137
229.428	-0.0620012
231.236	-0.0413227
233.045	0.244423
234.855	-0.241333
236.663	-0.122953
238.471	0.286548
240.278	-0.265721
242.085	0.22071
243.891	0.22638
245.698	-0.274781
247.503	0.0672903
249.309	-0.100035
251.116	-0.294354
252.921	0.0157089
254.725	0.347982
256.529	0.173185
258.333	-0.121161
260.136	0.405371
261.939	-0.96949
263.742	-0.00603676
265.544	0.33219
267.346	0.30941
269.148	0.0452881
270.949	0.0937481
272.75	-0.172294
274.55	-0.174417
276.351	0.207661
278.15	0.298636
279.95	-0.0940781
281.749	-0.127179
283.548	0.126636
285.346	0.37864
287.144	0.653395
288.942	0.0883913
290.739	0.507322
292.536	-0.533259
294.333	0.0556116
296.129	0.406131
297.925	-0.246365
299.721	-0.157278
301.514	0.170433
303.309	0.18678
305.104	0.321285
306.898	0.0492821
308.692	0.516324
310.486	0.030365
312.279	-0.0253668
314.072	-0.270044
315.862	0.629929
317.654	0.57922
319.446	0.36324
321.238	0.505738
323.029	0.0291224
324.819	0.101186
326.608	-0.0414753
328.398	0.24555
330.188	0.460584
331.977	0.531214
333.766	0.193516
335.553	-0.194228
337.341	0.660235
339.129	0.364086
340.917	0.449239
342.704	-0.111888
344.489	0.450387
346.275	0.534998
348.062	0.285935
349.845	-0.0102768
351.631	0.505191
353.416	0.351773
355.201	0.197452
356.984	0.70962
358.768	0.600399
360.552	0.394926
362.333	0.260225
364.116	0.101245
365.899	0.321971
367.68	0.517815
369.462	0.119668
371.243	0.00576878
373.023	-0.0612192
374.804	0.486035
376.585	0.182292
378.363	0.587095
380.143	0.426576
381.923	0.173303
383.7	0.0862513
385.479	0.494172
387.256	0.244908
389.034	-0.590397
390.812	-0.461519
392.588	-0.0971527
394.365	0.314701
396.14	0.492047
397.916	-0.199467
399.691	0.82335
401.467	0.131206
403.24	-0.115275
405.015	0.248236
406.788	0.0943365
408.563	-0.107021
410.335	-0.0973682
412.109	-0.181571
413.88	0.368145
415.654	0.777632
417.424	0.108516
419.197	0.308173
420.967	0.484636
422.739	0.449669
424.508	0.132313
426.279	0.260148
428.048	0.175904
429.819	0.443315
431.587	0.0299721
433.356	0.0159407
435.124	0.51852
436.891	0.809859
438.66	0.701567
440.426	0.286866
442.194	0.198934
443.96	0.155977
445.725	0.720423
447.492	0.580619
449.257	0.440591
451.021	0.207429
452.787	0.675276
454.551	0.162916
456.314	0.723468
458.079	-0.114316
459.842	0.142956
461.604	0.656228
463.368	0.217415
465.13	0.501409
466.891	0.718298
468.654	0.519503
470.415	0.857197
472.175	0.939927
473.935	0.486551
475.696	0.380486
477.456	0.29563
479.215	0.768104
480.973	0.0749292
482.733	0.756096
484.491	0.716298
486.249	1.28403
488.006	0.945332
489.765	0.398337
491.522	0.668477
493.278	0.706066
495.034	0.697141
496.789	0.266757
498.544	0.936502
500.301	0.504836
502.056	0.400382
503.81	0.670744
505.564	0.987404
507.317	-0.107848
509.071	0.182516
510.825	0.21279
512.578	0.900502
514.33	-0.177956
516.082	0.554097
517.833	0.508566
519.585	1.09682
521.335	0.297535
523.086	0.743234
524.836	0.343282
526.586	0.74132
528.335	0.247985
530.085	0.645568
531.835	0.761287
533.584	0.10368
535.332	0.428307
537.08	0.727761
538.827	0.745175
540.574	0.994627
542.321	0.660395
544.068	-0.0921679
545.814	0.17944
547.56	0.148833
549.305	0.39669
551.05	0.389462
552.795	0.104841
554.54	-0.155901
556.282	0.784431
558.025	0.362679
559.769	0.310794
561.512	0.904047
563.255	0.691831
564.997	0.733315
566.739	0.476727
568.481	0.634413
570.223	0.31101
571.964	0.0578861
573.705	0.425638
575.443	0.404984
577.183	0.661202
578.923	0.781091
580.663	0.0290594
582.402	0.103616
584.141	0.361695
585.879	-0.00188828
587.615	0.208304
589.353	0.371479
591.09	0.487803
592.828	-0.0866003
594.564	-0.500094
596.299	0.282797
598.035	-0.337772
599.771	-0.268439
601.506	-0.0157871
603.242	0.0976982
604.974	0.600657
606.709	0.619415
608.443	-0.281185
610.177	-0.0562944
611.908	0.46692
613.642	-0.293631
615.374	0.276305
617.105	0.227394
618.837	0.223879
620.569	-0.169716
622.3	0.694253
624.03	0.093236
625.761	-0.0272617
627.491	0.469682
629.219	0.100682
630.949	-0.129196
632.677	0.555448
634.406	0.625013
636.135	0.603024
637.861	0.100121
639.59	0.32531
641.318	0.41083
643.043	0.288928
644.77	0.735288
646.495	0.362162
648.222	-0.372455
649.948	0.600435
651.672	0.167625
653.398	-0.23926
655.121	0.175061
656.846	0.0683765
658.569	0.258622
660.293	0.403294
662.015	0.227125
663.738	0.0944033
665.46	0.736772
667.183	0.806088
668.903	0.440139
670.626	0.509254
672.346	0.328374
674.067	0.218118
675.787	0.476258
677.508	1.03429
679.226	0.766771
680.947	0.635789
682.665	0.295909
684.385	0.137885
686.102	0.254319
687.821	0.208212
689.538	0.230246
691.254	0.965724
692.972	0.502814
694.688	0.868457
696.406	0.749496
698.121	0.422334
699.835	0.899673
701.552	0.754518
703.266	0.884468
704.98	1.24325
706.695	0.8666
708.409	0.925848
710.121	0.388899
711.836	0.241704
713.548	1.05517
715.26	0.381569
716.973	0.873541
718.685	0.976917
720.396	1.19422
722.108	0.523164
723.818	0.922681
725.528	0.934942
727.238	1.62831
728.949	1.07193
730.658	1.12828
732.367	1.07093
734.075	1.19449
735.785	0.820579
737.493	1.07997
739.2	0.527322
740.907	1.44165
742.614	2.06289
744.322	1.10874
746.028	1.59705
747.734	1.16396
749.439	0.687298
751.144	1.56135
752.849	1.44694
754.555	0.65883
756.26	1.60447
757.963	0.953684
759.667	1.45248
761.37	1.0286
763.073	1.5071
764.775	1.46674
766.477	1.31233
768.179	1.26912
769.883	2.03794
771.584	1.74221
773.285	1.60339
774.986	1.28324
776.686	1.59665
778.386	1.052
780.085	1.23223
781.785	1.70766
783.484	1.8441
785.182	1.41367
786.881	1.90917
788.579	1.42846
790.276	1.84993
791.974	1.68065
793.671	1.55529
795.367	1.90359
797.064	1.64354
798.76	1.45297
800.456	2.05205
802.151	2.02193
803.846	1.97
805.541	2.27767
807.234	2.31465
808.928	1.72167
810.622	1.824
812.315	2.41864
814.008	2.47402
815.701	1.63358
817.394	1.93526
819.086	1.74481
820.778	1.37618
822.468	1.45473
824.159	1.84599
825.85	2.12661
827.541	1.6739
829.231	1.69161
830.921	2.11296
832.609	2.53718
834.298	2.20597
835.987	1.74155
837.676	2.10217
839.364	2.19415
841.051	2.03898
842.738	2.10586
844.426	1.47953
846.113	1.85932
847.798	1.45835
849.484	1.17101
851.171	2.09459
852.857	2.08029
854.54	2.13416
856.226	1.69386
857.911	1.20669
859.593	1.03221
861.278	1.59897
862.961	1.19617
864.645	1.35528
866.327	1.49111
868.01	0.995045
869.692	0.92687
871.373	1.8058
873.055	1.19579
874.735	1.26245
876.416	1.19372
878.097	1.46353
879.776	1.39472
881.457	1.52874
883.135	0.759096
884.815	0.778646
886.495	1.11297
888.172	1.80673
889.851	1.01006
891.528	1.22712
893.206	1.05983
894.882	1.43181
896.56	1.68972
898.237	0.823337
899.912	0.720692
901.589	0.864023
903.263	0.917021
904.94	1.12613
906.614	0.776896
908.289	0.495903
909.962	1.06253
911.635	0.738873
913.31	0.905386
914.982	0.738846
916.656	1.37124
918.328	1.11592
920.001	1.17112
921.672	1.7134
923.345	1.10637
925.015	0.877178
926.685	0.495277
928.357	1.26283
930.026	1.19254
931.698	0.90225
933.366	0.259337
935.035	1.51366
936.705	1.09189
938.373	1.37667
940.041	0.934701
941.71	1.22166
943.377	1.61975
945.044	0.848126
946.712	0.78163
948.378	1.46406
950.044	1.12939
951.709	0.440785
953.376	0.899485
955.041	0.543399
956.706	1.38045
958.372	0.67662
960.036	0.70292
961.699	0.50972
963.362	1.4656
965.027	0.607593
966.69	0.985514
968.352	0.874334
970.014	1.09315
971.676	1.24471
973.339	0.26874
975	0.842115
976.661	0.886312
978.322	0.356681
979.982	0.524376
981.642	0.691854
983.303	1.17926
984.962	1.31077
986.621	0.887036
988.28	1.12568
989.938	0.920701
991.596	0.45015
993.254	0.995992
994.911	0.614147
996.57	0.85056
998.227	0.513412
999.884	0.749396
1001.54	0.610376
1003.2	1.04334
1004.85	0.837665
1006.51	1.04969
1008.16	0.998
1009.82	0.398057
1011.47	0.281741
1013.12	0.867272
1014.78	0.663921
1016.43	0.70195
1018.08	0.762262
1019.74	0.626374
1021.39	0.994341
1023.04	0.838491
1024.69	0.530577
1026.34	1.20659
1028	0.353019
1029.65	1.37791
1031.3	0.741393
1032.95	0.802505
1034.6	0.382113
1036.25	0.353523
1037.9	0.759968
1039.54	1.1439
1041.19	1.1363
1042.84	0.999459
1044.49	0.79915
1046.14	0.426944
1047.78	0.490853
1049.43	0.512727
1051.08	1.31763
1052.72	0.515917
1054.37	0.60511
1056.02	0.737817
1057.66	0.761635
1059.31	0.632839
1060.95	0.764385
1062.6	0.264667
1064.24	0.8731
1065.88	0.893495
1067.53	0.630366
1069.17	0.301373
1070.81	0.493274
1072.45	0.380989
1074.1	0.0956087
1075.74	0.440307
1077.38	-0.189947
1079.02	1.34946
1080.66	0.720981
1082.3	0.82979
1083.94	1.39315
1085.58	0.719234
1087.22	0.780681
1088.86	0.537081
1090.5	0.551931
1092.14	0.868342
1093.78	0.600616
1095.42	0.743456
1097.05	0.951428
1098.69	0.535604
1100.33	0.616974
1101.96	0.549301
1103.6	0.52624
1105.24	1.0851
1106.87	0.0527945
1108.51	0.504331
1110.14	0.546284
1111.78	0.651331
1113.41	0.690422
1115.05	0.341933
1116.68	0.722775
1118.31	0.717283
1119.95	0.96948
1121.58	0.258714
1123.21	0.469873
1124.85	0.981244
1126.48	0.0386238
1128.11	-0.304122
1129.74	0.294596
1131.37	0.316415
1133	0.637775
1134.63	0.44596
1136.26	0.510122
1137.89	0.0178127
1139.52	0.293756
1141.15	0.397814
1142.78	0.28793
1144.41	-0.162992
1146.04	0.133204
1147.66	0.0676756
1149.29	0.407706
1150.92	0.151589
1152.55	0.236326
1154.17	0.661359
1155.8	0.255764
1157.43	-0.149689
1159.05	0.126015
1160.68	0.0833035
1162.3	-0.0222607
1163.93	0.298255
1165.55	0.0876608
1167.17	0.387148
1168.8	-0.143419
1170.42	0.0262375
1172.05	0.619061
1173.67	-0.191582
1175.29	-0.302025
1176.91	0.0112476
1178.54	-0.120655
1180.16	-0.2518
1181.78	-0.107056
1183.4	0.24948
1185.02	0.140801
1186.64	0.517152
1188.26	0.258585
1189.88	0.462525
1191.5	0.138042
1193.12	-0.0817795
1194.74	0.118204
1196.36	0.0450869
1197.97	0.140425
1199.59	-0.0139999
1201.21	0.0636559
1202.83	0.498338
1204.44	0.225195
1206.06	0.371352
1207.68	0.101361
1209.29	-0.0848761
1210.91	-0.0631323
1212.52	-0.0219126
1214.14	0.850965
1215.75	0.242357
1217.37	-0.325144
1218.98	0.437613
1220.59	0.555139
1222.21	0.237492
1223.82	0.356595
1225.43	0.290438
1227.05	0.598115
1228.66	-0.0447464
1230.27	0.968012
1231.88	0.637637
1233.49	0.618454
1235.1	1.05503
1236.72	0.913981
1238.33	0.753127
1239.94	0.696192
1241.55	0.6394
1243.16	1.07882
1244.76	0.503838
1246.37	1.14876
1247.98	0.985782
1249.59	1.00836
1251.2	0.637579
1252.8	0.784191
1254.41	1.07618
1256.02	1.22432
1257.62	0.670229
1259.23	1.11017
1260.84	0.391975
1262.44	1.35099
1264.05	1.29571
1265.66	1.28147
1267.26	0.81053
1268.86	1.39591
1270.47	1.08893
1272.07	1.3408
1273.67	1.21853
1275.28	1.01248
1276.88	1.15798
1278.48	1.32336
1280.09	1.38452
1281.69	1.40393
1283.29	1.03036
1284.89	1.36066
1286.49	1.46414
1288.09	1.17581
1289.69	1.34304
1291.29	1.94464
1292.89	1.7196
1294.49	1.28735
1296.09	1.55632
1297.69	1.16304
1299.29	1.57328
1300.89	1.30126
1302.49	1.35811
1304.08	1.37282
1305.68	1.67466
1307.28	1.35928
1308.88	1.61872
1310.47	1.61118
1312.07	1.03079
1313.66	0.943065
1315.26	1.69414
1316.85	1.75064
1318.45	1.64438
1320.04	1.80321
1321.64	1.41096
1323.23	1.58784
1324.83	1.3562
1326.42	1.97647
1328.01	1.25652
1329.61	1.63227
1331.2	1.54339
1332.79	1.63859
1334.38	1.2915
1335.97	1.73334
1337.56	1.28781
1339.16	1.66864
1340.75	1.60432
1342.34	0.894198
1343.93	0.847148
1345.52	1.20074
1347.11	1.47335
1348.7	1.16598
1350.29	1.08151
1351.87	0.8194
1353.46	1.09915
1355.05	1.27994
1356.64	0.7616
1358.22	1.06222
1359.81	0.942471
1361.4	0.901721
1362.98	0.880223
1364.57	1.13753
1366.16	0.996253
1367.74	0.497365
1369.33	1.1943
1370.91	0.817389
1372.5	0.959172
1374.08	0.584581
1375.67	0.568735
1377.25	1.03055
1378.83	0.855186
1380.41	0.36062
1382	0.581278
1383.58	0.60185
1385.16	0.939585
1386.74	1.07792
1388.33	0.640368
1389.91	1.03743
1391.49	0.938925
1393.07	0.940357
1394.65	0.704132
1396.23	0.963587
1397.81	0.469021
1399.39	0.528789
1400.97	1.18185
1402.55	0.92315
1404.13	0.822963
1405.7	0.663997
1407.28	0.624492
1408.86	0.506709
1410.44	0.705473
1412.01	0.785615
1413.59	0.13484
1415.17	1.12152
1416.74	0.686601
1418.32	0.310936
1419.89	0.389009
1421.47	0.566318
1423.04	0.587326
1424.62	0.963983
1426.19	0.731556
1427.77	0.873568
1429.34	1.11378
1430.91	0.821783
1432.49	1.06019
1434.06	1.15991
1435.63	0.688843
1437.2	1.33888
1438.78	1.4585
1440.35	1.34313
1441.92	1.5824
1443.49	1.33097
1445.06	1.07987
1446.63	1.33994
1448.2	2.1899
1449.77	1.76244
1451.34	1.72853
1452.91	1.47877
1454.48	1.79969
1456.05	1.53048
1457.62	2.22487
1459.18	1.54058
1460.75	1.01218
1462.32	1.99722
1463.89	0.95451
1465.45	1.50387
1467.02	1.75763
1468.59	0.597834
1470.15	0.597738
1471.72	1.28518
1473.28	0.678732
1474.85	0.543818
1476.41	0.21322
1477.98	0.490538
1479.54	0.787337
1481.1	0.495978
1482.67	0.596566
1484.23	0.403105
1485.79	0.464087
1487.36	0.387321
1488.92	0.54446
1490.48	0.504248
1492.04	0.618673
1493.61	0.672445
1495.17	0.54898
1496.73	0.639196
1498.29	0.437081
1499.85	0.197039
1501.41	0.327274
1502.97	0.496995
1504.53	0.589634
1506.09	0.50812
1507.65	0.174831
1509.2	0.285716
1510.76	0.298914
1512.32	0.0222826
1513.88	0.496642
1515.43	0.00883198
1516.99	0.386622
1518.55	-0.175466
1520.1	0.52842
1521.66	0.235967
1523.22	0.0967865
1524.77	0.224582
1526.33	0.904177
1527.88	0.305406
1529.44	-0.0449982
1530.99	0.820749
1532.54	0.584764
1534.1	0.804629
1535.65	0.36285
1537.21	0.754192
1538.76	0.899949
1540.31	0.649767
1541.86	0.720402
1543.42	0.922562
1544.97	0.616499
1546.52	0.573821
1548.07	0.868818
1549.62	0.432169
1551.17	0.520841
1552.72	0.890359
1554.27	1.24131
1555.82	0.584413
1557.37	1.18045
1558.92	0.284963
1560.47	0.772015
1562.02	1.09243
1563.56	0.537015
1565.11	0.63502
1566.66	0.583845
1568.21	0.943078
1569.75	0.835408
1571.3	0.615389
1572.85	0.843122
1574.39	0.865391
1575.94	0.962349
1577.49	0.648776
1579.03	0.98894
1580.57	1.14298
1582.12	0.905547
1583.66	0.743433
1585.21	0.78741
1586.75	1.05618
1588.3	1.04474
1589.84	0.845988
1591.38	1.09596
1592.92	1.60784
1594.47	0.696256
1596.01	1.47039
1597.55	1.6831
1599.09	1.31533
1600.63	1.26674
1602.17	1.10591
1603.71	1.00123
1605.25	1.27162
1606.79	1.20277
1608.33	1.5269
1609.87	1.19119
1611.41	1.13542
1612.95	0.946517
1614.49	1.50742
1616.03	1.09191
1617.57	0.939717
1619.1	1.65047
1620.64	0.732614
1622.18	0.509216
1623.72	0.941814
1625.25	1.07483
1626.79	0.982579
1628.32	1.26345
1629.86	1.00059
1631.39	1.63417
1632.93	0.847102
1634.46	0.789214
1636	0.881305
1637.53	1.85063
1639.07	1.19782
1640.6	1.40281
1642.13	0.806039
1643.67	1.77299
1645.2	1.52819
1646.73	1.32007
1648.26	1.29778
1649.8	1.81432
1651.33	1.47744
1652.86	1.77265
1654.39	1.79052
1655.92	1.62363
1657.45	1.88295
1658.98	1.82652
1660.51	1.34318
1662.04	1.74712
1663.57	1.13273
1665.1	2.03336
1666.63	1.36413
1668.16	1.13945
1669.68	1.26653
1671.21	0.934149
1672.74	1.15552
1674.27	1.43242
1675.79	1.52488
1677.32	1.2669
1678.85	1.3761
1680.37	0.895896
1681.9	1.33432
1683.42	0.835396
1684.95	1.73179
1686.47	1.38032
1688	0.736399
1689.52	0.588119
1691.05	0.843008
1692.57	0.274183
1694.09	0.583853
1695.62	0.819933
1697.14	0.65356
1698.66	0.304467
1700.18	0.630691
1701.71	0.281253
1703.23	0.569693
1704.75	0.857217
1706.27	0.397884
1707.79	0.502634
1709.31	-0.0285935
1710.83	0.747791
1712.35	0.398785
1713.87	0.0504861
1715.39	-0.0980659
1716.91	0.187685
1718.43	0.093318
1719.95	0.251848
1721.47	0.536543
1722.99	0.460665
1724.5	0.565894
1726.02	0.275928
1727.54	0.383319
1729.06	-0.210356
1730.57	0.168177
1732.09	-0.309943
1733.61	0.204263
1735.12	0.344686
1736.64	0.146152
1738.15	0.297728
1739.67	0.500168
1741.18	-0.21574
1742.7	0.272831
1744.21	0.310882
1745.72	0.0777373
1747.24	0.113474
1748.75	-0.0246243
1750.26	0.218008
1751.77	-0.110113
1753.29	-0.0144863
1754.8	0.173512
1756.31	0.404295
1757.82	0.146327
1759.33	0.26036
1760.84	0.418655
1762.36	0.513051
1763.87	0.0235963
1765.38	-0.225122
1766.89	0.40869
1768.4	-0.206126
1769.91	0.184495
1771.41	-0.409307
1772.92	0.0673432
1774.43	0.252191
1775.94	0.0121737
1777.45	0.347828
1778.95	-0.266578
1780.46	0.17572
1781.97	0.0269022
1783.48	0.222874
1784.98	0.202211
1786.49	-0.095643
1787.99	-0.125117
1789.5	0.21872
1791.01	0.169275
1792.51	0.216856
1794.01	0.19615
1795.52	0.334691
1797.02	0.166039
1798.53	-0.0859551
1800.03	-0.183684
1801.53	0.323288
1803.04	0.0452251
1804.54	-0.137199
1806.04	-0.186462
1807.54	-0.0688319
1809.05	0.298698
1810.55	-0.0749874
1812.05	0.0414815
1813.55	-0.311682
1815.05	-0.0703816
1816.55	0.0589161
1818.05	0.266109
1819.55	-0.103404
1821.05	0.0454369
1822.55	0.100955
1824.05	0.111899
1825.55	0.0844345
1827.05	0.0973921
1828.55	0.272606
1830.04	-0.321972
1831.54	0.259377
1833.04	-0.105572
1834.54	0.0031662
1836.03	0.0797224
1837.53	0.116678
1839.03	0.0104785
1840.52	-0.0389385
1842.02	0.0256491
1843.51	-0.118462
1845.01	0.1198
1846.5	0.0472322
1848	0.132801
1849.49	0.0390015
1850.99	0.164834
1852.48	0.17345
1853.97	0.121134
1855.47	-0.0847883
1856.96	-0.060183
1858.45	0.0914435
1859.94	-0.0609322
1861.44	-0.134674
1862.93	0.150274
1864.42	-0.412499
1865.91	-0.186119
1867.4	0.282934
1868.89	0.159877
1870.38	-0.291567
1871.87	-0.0943136
1873.36	0.159206
1874.85	0.0565524
1876.34	-0.0916295
1877.83	0.0987597
1879.32	-0.0257554
1880.81	0.290712
1882.3	0.19948
1882.57	0.162298
1884.07	-0.100076
1885.56	0.0553164
1887.06	-0.0339723
1888.55	0.416062
1890.04	-0.0736966
1891.54	0.359523
1893.03	0.446097
1894.52	0.116945
1896.02	0.154171
1897.51	-0.120981
1899	0.177688
1900.49	-0.150706
1901.98	0.180631
1903.47	0.353868
1904.96	0.212877
1906.45	0.24512
1907.94	0.0168486
1909.43	0.32737
1910.92	0.0137978
1912.41	-0.0907049
1913.9	0.0827742
1915.39	0.117527
1916.88	0.0999746
1918.37	0.0993218
1919.85	0.202264
1921.34	0.322396
1922.83	0.0445509
1924.32	0.113807
1925.8	0.183981
1927.29	-0.0739069
1928.78	0.343929
1930.26	0.069149
1931.75	0.624877
1933.23	0.192319
1934.72	0.0700579
1936.2	-0.0188613
1937.69	0.0296931
1939.17	-0.0776725
1940.66	-0.115579
1942.14	-0.0146985
1943.63	-0.120066
1945.11	0.120203
1946.59	-0.0703588
1948.07	-0.278236
1949.56	-0.0558949
1951.04	0.0621376
1952.52	0.213699
1954	-0.202834
1955.48	0.188754
1956.96	0.0134749
1958.45	-0.0408974
1959.93	0.196993
1961.41	0.195058
1962.89	-0.218078
1964.37	-0.168447
1965.85	0.240343
1967.32	0.0833454
1968.8	0.079936
1970.28	-0.163236
1971.76	-0.0134363
1973.24	0.255574
1974.72	0.302564
1976.19	0.0769444
1977.67	-0.0290065
1979.15	-0.134741
1980.63	-0.121294
1982.1	0.0279789
1983.58	0.0748806
1985.05	0.155379
1986.53	-0.00188303
1988	-0.0911188
1989.48	0.209509
1990.95	0.0703011
1992.43	0.270294
1993.9	0.0144796
1995.38	0.503088
1996.85	0.451134
1998.32	0.0276299
1999.8	-0.311532
2001.27	0.294081
2002.74	0.0216746
2004.22	-0.199988
2005.69	-0.0673146
2007.16	0.0321593
2008.63	0.401753
2010.1	0.0984888
2011.57	-0.069592
2013.04	0.0485287
2014.51	0.14943
2015.98	0.518827
2017.45	0.399494
2018.92	-0.207941
2020.39	-0.092741
2021.86	-0.0113516
2023.33	0.305223
2024.8	0.0349503
2026.27	0.503869
2027.74	0.152026
2029.2	0.0697918
2030.67	0.307366
2032.14	0.02563
2033.61	-0.0880394
2035.07	0.0332913
2036.54	0.0871964
2038.01	-0.0105348
2039.47	0.17709
2040.94	0.0621719
2042.4	-0.0356698
2043.87	0.253904
2045.33	0.106936
2046.8	0.0446224
2048.26	0.218312
2049.72	0.0211015
2051.19	-0.227695
2052.65	0.196724
2054.12	0.0126143
2055.58	0.366732
2057.04	0.0452604
2058.5	0.717562
2059.97	0.412282
2061.43	0.612715
2062.89	0.544406
2064.35	0.359186
2065.81	0.174841
2067.27	0.327774
2068.73	0.548534
2070.19	0.163609
2071.65	0.519392
2073.11	0.167961
2074.57	0.405607
2076.03	0.205165
2077.49	0.610662
2078.95	0.763209
2080.41	0.258636
2081.87	0.376649
2083.32	0.20791
2084.78	0.392027
2086.24	0.356736
2087.7	0.236893
2089.15	0.335294
2090.61	0.567804
2092.07	0.397097
2093.52	0.59563
2094.98	0.491864
2096.43	0.739744
2097.89	0.551272
2099.34	0.747464
2100.8	0.525034
2102.25	0.754307
2103.71	0.65002
2105.16	0.6471
2106.61	0.645365
2108.07	0.494408
2109.52	1.0608
2110.97	0.509508
2112.43	0.790626
2113.88	0.736928
2115.33	0.632027
2116.78	0.992026
2118.23	1.10257
2119.68	1.01498
2121.13	0.846264
2122.59	1.14373
2124.04	1.04439
2125.49	1.21092
2126.94	1.16162
2128.39	1.0617
2129.83	1.06003
2131.28	0.775663
2132.73	1.45096
2134.18	1.54648
2135.63	1.2293
2137.08	1.06248
2138.53	1.16179
2139.97	1.31235
2141.42	1.44789
2142.87	1.32
2144.31	1.72197
2145.76	1.32996
2147.21	0.987025
2148.65	1.05735
2150.1	1.78962
2151.54	1.56023
2152.99	1.86011
2154.43	2.01009
2155.88	1.59635
2157.32	1.64659
2158.77	1.61469
2160.21	1.74968
2161.65	1.65436
2163.1	1.64356
2164.54	1.71709
2165.98	1.49263
2167.43	1.60003
2168.87	1.98921
2170.31	2.19413
2171.75	1.8648
2173.19	2.04927
2174.64	1.53382
2176.07	2.18214
2177.52	1.73305
2178.96	1.60067
2180.4	1.71859
2181.84	1.67104
2183.28	1.80695
2184.72	1.99305
2186.15	2.19593
2187.59	2.04948
2189.03	1.53687
2190.47	1.83969
2191.91	1.79273
2193.35	1.42871
2194.78	1.66284
2196.22	1.67882
2197.66	1.46003
2199.09	1.38958
2200.53	1.3183
2201.97	1.28022
2203.4	1.01054
2204.84	1.86964
2206.27	1.43612
2207.71	0.986884
2209.14	1.24989
2210.58	1.31333
2212.01	1.11115
2213.45	1.13999
2214.88	1.13566
2216.31	0.933808
2217.75	1.32709
2219.18	0.797634
2220.61	1.09356
2222.05	0.664241
2223.48	0.992432
2224.91	1.10505
2226.34	0.90337
2227.78	1.02937
2229.21	0.595646
2230.64	0.44108
2232.07	0.696344
2233.5	1.1477
2234.93	0.50325
2236.36	0.824871
2237.79	0.135211
2239.22	0.638988
2240.65	0.605763
2242.08	0.476199
2243.5	0.641234
2244.93	0.822878
2246.36	0.416734
2247.79	0.449681
2249.22	0.594932
2250.64	0.396064
2252.07	0.47277
2253.5	0.776324
2254.92	0.624706
2256.35	0.328471
2257.78	0.505097
2259.2	0.440632
2260.63	0.703092
2262.05	0.497021
2263.48	0.616879
2264.9	0.655842
2266.33	0.466886
2267.75	0.17945
2269.18	0.493186
2270.6	0.20415
2272.02	0.191372
2273.45	0.325035
2274.87	1.04527
2276.29	0.104038
2277.71	0.466328
2279.14	0.0626369
2280.56	0.19681
2281.98	-0.0768232
2283.4	0.49772
2284.82	0.403503
2286.24	0.162515
2287.66	0.55848
2289.08	-0.139295
2290.5	0.322882
2291.92	-0.0153565
2293.34	0.496647
2294.76	0.32188
2296.18	0.441531
2297.6	0.20097
2299.02	0.369819
2300.44	0.391459
2301.86	0.183785
2303.27	0.468322
2304.69	-0.248034
2306.11	0.282988
2307.53	0.354171
2308.94	0.0797682
2310.36	0.117121
2311.78	0.400924
2313.19	0.289983
2314.61	0.261607
2316.02	0.596083
2317.44	0.404317
2318.85	0.0643363
2320.27	0.00417137
2321.68	0.0585728
2323.1	-0.053534
2324.51	0.0800796
2325.92	0.409842
2327.34	0.210299
2328.75	0.257583
2330.16	0.584993
2331.58	0.270766
2332.99	-0.14105
2334.4	0.204897
2335.81	-0.0906944
2337.23	-0.205603
2338.64	0.155567
2340.05	0.13757
2341.46	0.0531578
2342.87	0.165386
2344.28	-0.427721
2345.69	-0.216792
2347.1	0.0596051
2348.51	-0.139011
2349.92	0.169418
2351.33	-0.275127
2352.74	-0.115432
2354.15	0.157459
2355.55	0.0380754
2356.96	0.293169
2358.37	-0.314306
2359.78	0.00567627
2361.19	-0.0806804
2362.59	0.124958
2364	0.216698
2365.41	-0.274194
2366.81	0.124938
2368.22	0.0717025
2369.62	0.164566
2371.03	0.161639
2372.44	-0.0174227
2373.84	-0.115007
2375.24	0.125793
2376.65	0.253444
2378.05	0.251435
2379.46	0.0232177
2380.86	0.227475
2382.26	0.0774202
2383.67	0.087152
2385.07	0.0966926
2386.47	0.234345
2387.88	0.324553
2389.28	0.112641
2390.68	0.539333
2392.08	0.106712
2393.48	0.120929
2394.89	0.247123
2396.29	0.0876231
2397.69	0.103559
2399.09	0.231167
2400.49	0.16849
2401.89	-0.179819
2403.29	0.329583
2404.69	0.235132
2406.09	0.346362
2407.48	0.171147
2408.88	0.280923
2410.28	0.025763
2411.68	-0.244793
2413.08	-0.0235457
2414.48	-0.133917
2415.87	0.279298
2417.27	0.31362
2418.67	0.237845
2420.06	0.225673
2421.46	0.0233107
2422.86	0.0107069
2424.25	0.346467
2425.65	0.317898
2427.04	-0.106482
2428.44	0.0720654
2429.83	0.39422
2431.23	0.558543
2432.62	0.342138
2434.02	0.50625
2435.41	0.0181727
2436.81	0.434376
2438.2	0.134385
2439.59	0.325866
2440.99	0.373591
2442.38	0.246231
2443.77	0.261549
2445.16	0.054656
2446.56	-0.0887666
2447.95	0.0847731
2449.34	-0.0586495
2450.73	0.130728
2452.12	-0.376011
2453.51	0.0358853
2454.9	0.24261
2456.29	-0.135454
2457.68	0.119487
2459.07	0.152823
2460.46	0.13824
2461.85	0.170446
2463.24	0.170386
2464.63	0.264657
2466.02	0.232272
2467.4	0.184058
2468.79	0.246288
2470.18	-0.290986
2471.57	0.149185
2472.95	0.367768
2474.34	0.317821
2475.73	0.173042
2477.12	-0.0346684
2478.5	-0.210667
2479.89	0.131566
2481.27	-0.200813
2482.66	0.156614
2484.04	-0.00350046
2485.43	0.0549188
2486.81	-0.246991
2488.2	-0.0029211
2489.58	0.0685506
2490.97	-0.0158973
2492.35	0.211168
2493.73	0.190149
2495.12	0.0461621
2496.5	-0.17408
2497.88	0.0867939
2499.27	-0.147789
2500.65	0.313694
2502.03	0.449279
2503.41	0.522051
2504.79	-0.100164
2506.17	0.0180168
2507.56	0.0895829
2508.94	0.114977
2510.32	0.186732
2511.7	0.0440831
2513.08	0.0709205
2514.46	0.159661
2515.84	-0.210197
2517.22	0.2929
2518.59	0.321932
2519.97	0.0760155
2521.35	-0.0935006
2522.73	0.347181
2524.11	-0.0980344
2525.49	0.447462
2526.86	0.0173225
2528.24	0.257682
2529.62	0.0272312
2530.99	0.04146
2532.37	0.224146
2533.75	0.0888042
2535.12	-0.349823
2536.5	0.153443
2537.88	0.215566
2539.25	-0.0420389
2540.63	-0.0116787
2542	0.154982
2543.38	0.382462
2544.75	-0.0265694
2546.12	0.217703
2547.5	0.174744
2548.87	0.557246
2550.24	0.0446358
2551.62	0.24476
2552.99	0.00405455
2554.36	0.415081
2555.74	0.415609
2557.11	0.491525
2558.48	0.294365
2559.85	0.0368967
2561.22	0.461998
2562.59	-0.0369277
2563.96	0.358754
2565.34	-0.0332379
2566.71	-0.0765061
2568.08	0.137933
2569.45	0.0341182
2570.82	-0.509251
2572.18	0.159959
2573.55	0.298769
2574.92	0.179952
2576.29	0.0763054
2577.66	0.260656
2579.03	0.202241
2580.4	0.35582
2581.77	0.236135
2583.13	0.116163
2584.5	-0.0797677
2585.87	-0.108954
2587.23	-0.304764
2588.6	0.0906601
2589.97	-0.195839
2591.33	-0.0884151
2592.7	0.245894
2594.06	0.200727
2595.43	0.0639057
2596.79	0.0626116
2598.16	0.227105
2599.52	0.103867
2600.89	-0.124903
2602.25	0.0698171
2603.62	0.264878
2604.98	-0.0377321
2606.34	0.0371237
2607.71	-0.0391259
2609.07	-0.0556884
2610.43	-0.253908
2611.79	-0.196989
2613.16	0.129607
2614.52	0.0494075
2615.88	0.359311
2617.24	0.264057
2618.6	-0.32472
2619.96	-0.0440164
2621.32	0.206905
2622.68	0.308462
2624.04	-0.127486
2625.4	0.213038
2626.76	0.0309834
2628.12	0.310851
2629.48	-0.035296
2630.84	0.109893
2632.2	0.0169153
2633.56	0.176556
2634.92	0.142977
2636.28	0.198405
2637.63	0.0611024
2638.99	0.294207
2640.35	-0.109079
2641.71	-0.112407
2643.06	0.10607
2644.42	0.324368
2645.77	-0.106802
2647.13	-0.006989
2648.49	0.136313
2649.84	-0.103879
2651.2	0.0968838
2652.55	-0.231664
2653.91	-0.0312285
2655.26	0.11078
2656.62	0.0337338
2657.97	-0.0569425
2659.33	0.160362
2660.68	0.246163
2662.03	0.127153
2663.39	0.299904
2664.74	0.325821
2666.09	0.146902
2667.44	0.405078
2668.8	-0.0215955
2670.15	0.280105
2671.5	0.639938
2672.85	0.44769
2674.2	0.125494
2675.55	0.123409
2676.91	-0.0668306
2678.26	0.0191436
2679.61	0.236219
2680.96	0.425061
2682.31	0.46989
2683.66	-0.194841
2685	0.257733
2686.35	0.145053
2687.7	0.395005
2689.05	0.135997
2690.4	-0.138897
2691.75	-0.153852
2693.1	0.0766969
2694.44	0.146787
2695.79	0.0717554
2697.14	-0.0461659
2698.49	0.068696
2699.83	0.0400252
2701.18	0.215433
2702.52	0.131361
2703.87	0.381334
2705.22	0.689926
2706.56	0.157578
2707.91	0.103394
2709.25	-0.241497
2710.6	0.153701
2711.94	0.287475
2713.29	0.377622
2714.63	0.336952
2715.97	0.13626
2717.32	0.400748
2718.66	0.374211
2720.01	0.143641
2721.35	0.247355
2722.69	0.336154
2724.03	0.337245
2725.38	0.468987
2726.72	0.2802
2728.06	0.469579
2729.4	0.396785
2730.74	0.120185
2732.08	-0.214564
2733.42	0.149079
2734.76	0.134602
2736.1	0.0475574
2737.44	0.29513
2738.78	0.368136
2740.12	0.368215
2741.46	0.149802
2742.8	0.396135
2744.14	0.0459352
2745.48	0.131307
2746.82	0.390531
2748.16	0.0833035
2749.49	0.371232
2750.83	0.209495
2752.17	0.236549
2753.51	-0.11304
2754.84	0.00134325
2756.18	-0.31875
2757.52	0.143355
2758.85	0.0119085
2760.19	0.0689669
2761.53	0.256622
2762.86	0.357794
2764.2	0.0395975
2765.53	0.0541801
2766.87	0.0249929
2768.2	0.0240178
2769.54	0.282294
2770.87	-0.0966649
2772.2	0.188078
2773.54	0.269566
2774.87	-0.182903
2776.2	0.37363
2777.54	0.0804253
2778.87	0.147616
2780.2	0.0714192
2781.53	0.210975
2782.87	-0.166219
2784.2	-0.127063
2785.53	0.284644
2786.86	0.237654
2788.19	-0.10947
2789.52	-0.0264091
2790.85	0.185987
2792.18	0.198685
2793.51	0.283205
2794.84	0.310543
2796.17	-0.505408
2797.5	-0.235735
2798.83	-0.123728
2800.16	0.187663
2801.49	-0.100568
2802.82	0.0390611
2804.15	0.178337
2805.47	0.188923
2806.8	-0.114113
2808.13	-0.317656
2809.46	-0.293815
2810.78	-0.127975
2812.11	0.137426
2813.44	0.176476
2814.76	-0.166152
2816.09	0.144532
2817.42	0.314266
2818.74	-0.0541496
2820.07	0.0735049
2821.39	0.200797
2822.72	0.242505
2824.04	0.0853534
2825.37	0.211298
2826.69	0.209771
2828.02	0.152024
2829.34	0.264617
2830.66	0.136909
2831.99	0.00937128
2833.31	0.348902
2834.63	0.305977
2835.96	0.276822
2837.28	0.516084
2838.6	0.471977
2839.92	0.300459
2841.24	0.185672
2842.57	0.537714
2843.89	0.621618
2845.21	0.522361
2846.53	0.621437
2847.85	0.734925
2849.17	0.820164
2850.49	0.876902
2851.81	0.975647
2853.13	0.522806
2854.45	0.71979
2855.77	1.34044
2857.09	0.689513
2858.41	1.09814
2859.72	0.913507
2861.04	1.05355
2862.36	1.10859
2863.68	1.38913
2865	1.44356
2866.31	1.14531
2867.63	1.59484
2868.95	1.48054
2870.26	1.66265
2871.58	1.88711
2872.9	2.12536
2874.21	2.48969
2875.53	2.20499
2876.84	1.96185
2878.16	2.08414
2879.47	2.51548
2880.79	2.18762
2882.1	2.52108
2883.42	2.3917
2884.73	2.38956
2886.05	2.38792
2887.36	2.5407
2888.67	2.35627
2889.99	2.28352
2891.3	2.5186
2892.61	2.57079
2893.92	2.37064
2895.24	2.53505
2896.55	2.43407
2897.86	2.69783
2899.17	2.55661
2900.48	2.80777
2901.79	2.54169
2903.11	3.14306
2904.42	3.19898
2905.73	3.1992
2907.04	2.93414
2908.35	3.25725
2909.66	3.32932
2910.97	3.19198
2912.27	3.61445
2913.58	3.42042
2914.89	3.44918
2916.2	3.71447
2917.51	4.21627
2918.82	3.91944
2920.13	4.07024
2921.43	3.84405
2922.74	4.33195
2924.05	4.30375
2925.35	4.38836
2926.66	4.36167
2927.97	4.57266
2929.27	4.62954
2930.58	4.83971
2931.89	4.67201
2933.19	4.71378
2934.5	4.78348
2935.8	4.90918
2937.11	4.68564
2938.41	4.4623
2939.72	4.70034
2941.02	4.43578
2942.32	4.32568
2943.63	4.51011
2944.93	4.22049
2946.24	4.25336
2947.54	3.99295
2948.84	3.84408
2950.14	3.80613
2951.45	3.87867
2952.75	3.78156
2954.05	3.37527
2955.35	3.73871
2956.65	3.50099
2957.95	3.58697
2959.26	3.47928
2960.56	3.47192
2961.86	2.91954
2963.16	3.01231
2964.46	3.41361
2965.76	3.35061
2967.06	2.78019
2968.36	3.02367
2969.66	2.77449
2970.96	2.5673
2972.25	2.47281
2973.55	2.67407
2974.85	2.55166
2976.15	2.33009
2977.45	2.33272
2978.74	2.43249
2980.04	1.89737
2981.34	1.82589
2982.64	2.00721
2983.93	1.96372
2985.23	2.07577
2986.52	1.79557
2987.82	1.64307
2989.12	1.60377
2990.41	1.53657
2991.71	1.67978
2993	1.25997
2994.3	1.35916
2995.59	1.41524
2996.89	0.979304
2998.18	1.13298
2999.48	1.07633
3000.77	0.851897
3002.06	1.25883
3003.36	1.2595
3004.65	0.741937
3005.94	0.63059
3007.23	0.672821
3008.53	0.784302
3009.82	0.629285
3011.11	0.73935
3012.4	0.37424
3013.69	0.330562
3014.99	0.329101
3016.28	0.439634
3017.57	0.258258
3018.86	0.606235
3020.15	0.481055
3021.44	0.494641
3022.73	0.132544
3024.02	0.172687
3025.31	0.253778
3026.6	0.209911
3027.89	0.138849
3029.18	0.054965
3030.46	0.207238
3031.75	0.263832
3033.04	0.0589099
3034.33	0.254582
3035.62	0.228958
3036.9	0.216118
3038.19	0.215673
3039.48	0.433928
3040.76	0.29309
3042.05	0.261706
3043.34	0.34004
3044.62	0.446251
3045.91	0.0340366
3047.19	0.211723
3048.48	0.472936
3049.77	0.217035
3051.05	0.358237
3052.34	0.199878
3053.62	0.287146
3054.9	0.442089
3056.19	0.418837
3057.47	0.490152
3058.76	0.451773
3060.04	0.358786
3061.32	0.225412
3062.61	0.36498
3063.89	0.260828
3065.17	0.280319
3066.45	0.11059
3067.74	0.431101
3069.02	0.180866
3070.3	0.107175
3071.58	-0.0759854
3072.86	0.311121
3074.14	0.397989
3075.42	0.0900345
3076.7	0.10809
3077.99	-0.0499721
3079.26	0.0371723
3080.54	-0.105163
3081.82	0.37771
3083.1	0.129065
3084.38	-0.0105567
3085.66	0.0805488
3086.94	0.117066
3088.22	0.112327
3089.5	0.0527864
3090.78	0.101493
3092.05	0.150099
3093.33	-0.00462151
3094.61	0.030828
3095.89	0.188526
3097.16	0.17003
3098.44	0.056643
3099.72	-0.043221
3100.99	-0.00760794
3102.27	-0.175065
3103.54	0.185809
3104.82	0.0461349
3106.1	-0.201151
3107.37	-0.271752
3108.65	0.145649
3109.92	-0.166934
3111.2	0.0356193
3112.47	0.184725
3113.74	0.0497441
3115.02	0.172238
3116.29	0.579245
3117.56	0.280466
3118.84	0.428384
3120.11	0.317749
3121.38	-0.010457
3122.66	0.28453
3123.93	0.348894
3125.2	0.0884328
3126.47	0.180462
3127.74	0.529944
3129.01	0.338643
3130.29	0.337075
3131.56	0.443757
3132.83	0.469208
3134.1	0.399811
3135.37	0.424607
3136.64	0.435463
3137.91	0.540297
3139.18	0.698572
3140.45	0.546942
3141.72	0.704948
3142.99	0.513621
3144.26	0.403602
3145.52	0.629649
3146.79	0.708485
3148.06	0.546675
3149.33	0.653347
