200.43	-0.0248899
202.244	-0.0109816
204.059	0.00404072
205.873	-0.00434113
207.688	0.327996
209.501	0.781144
211.314	1.06287
213.127	0.469257
214.941	0.190804
216.753	0.0819139
218.564	0.506104
220.375	0.276845
222.186	0.580932
223.999	0.111959
225.809	0.344814
227.618	-0.00215244
229.428	0.35114
231.236	0.727798
233.045	-0.174701
234.855	0.29843
236.663	0.434902
238.471	0.308173
240.278	0.232007
242.085	0.278502
243.891	0.109232
245.698	-0.34979
247.503	0.469136
249.309	0.00625992
251.116	0.337382
252.921	0.617528
254.725	-0.28622
256.529	0.257195
258.333	0.0778742
260.136	0.622967
261.939	0.495215
263.742	0.248637
265.544	0.0994186
267.346	0.649426
269.148	0.355732
270.949	-0.179871
272.75	-0.210242
274.55	0.52969
276.351	0.713532
278.15	0.269019
279.95	0.256592
281.749	0.531149
283.548	0.250427
285.346	0.353312
287.144	0.0712633
288.942	0.125464
290.739	0.252115
292.536	0.260091
294.333	0.317365
296.129	0.495527
297.925	-0.185783
299.721	1.04523
301.514	0.483984
303.309	0.232774
305.104	0.577282
306.898	0.0857716
308.692	0.26206
310.486	0.605458
312.279	0.401921
314.072	0.557247
315.862	0.404761
317.654	0.111093
319.446	0.438114
321.238	0.00383282
323.029	0.809907
324.819	0.0425062
326.608	-0.20045
328.398	0.774614
330.188	0.0529356
331.977	0.0469713
333.766	0.398378
335.553	0.245461
337.341	0.616885
339.129	0.69914
340.917	0.0863266
342.704	1.24215
344.489	0.318173
346.275	0.374686
348.062	0.431828
349.845	0.441686
351.631	0.356139
353.416	-0.207093
355.201	-0.00758171
356.984	0.0952253
358.768	0.673337
360.552	0.0351162
362.333	0.253622
364.116	0.161996
365.899	0.283685
367.68	0.784197
369.462	0.192191
371.243	0.287519
373.023	0.358328
374.804	0.404993
376.585	-0.138529
378.363	0.00343323
380.143	0.428615
381.923	0.406917
383.7	0.598164
385.479	0.649379
387.256	0.537249
389.034	0.332327
390.812	0.245871
392.588	0.395045
394.365	0.544807
396.14	0.530544
397.916	0.398977
399.691	-0.24949
401.467	0.135109
403.24	0.448676
405.015	0.00998783
406.788	0.862255
408.563	0.093689
410.335	-0.322783
412.109	-0.316625
413.88	0.112249
415.654	0.0254869
417.424	-0.365592
419.197	0.722264
420.967	-0.254752
422.739	0.176194
424.508	0.371852
426.279	-0.0202131
428.048	-0.013936
429.819	0.813452
431.587	0.0211849
433.356	-0.160482
435.124	-0.224499
436.891	0.274746
438.66	0.139709
440.426	-0.137383
442.194	-0.369163
443.96	0.100698
445.725	0.357425
447.492	0.191305
449.257	0.539483
451.021	0.489949
452.787	0.277405
454.551	0.625235
456.314	-0.23945
458.079	0.177966
459.842	0.152643
461.604	0.313991
463.368	-0.127729
465.13	0.176535
466.891	0.343912
468.654	0.00253296
470.415	0.383493
472.175	0.11394
473.935	0.2858
475.696	-0.172641
477.456	0.228675
479.215	0.837991
480.973	0.631022
482.733	0.400927
484.491	0.334948
486.249	-0.0088377
488.006	0.558043
489.765	0.40451
491.522	0.0883179
493.278	0.262845
495.034	0.437891
496.789	0.940913
498.544	0.765126
500.301	0.4948
502.056	0.387688
503.81	0.373542
505.564	-0.041234
507.317	0.694561
509.071	0.394475
510.825	0.822155
512.578	0.471889
514.33	0.449642
516.082	0.520223
517.833	0.189843
519.585	0.39946
521.335	0.302738
523.086	-0.334466
524.836	-0.267051
526.586	0.762075
528.335	1.15709
530.085	0.286143
531.835	0.703948
533.584	0.605555
535.332	0.342468
537.08	-0.131808
538.827	0.677622
540.574	0.388154
542.321	0.121891
544.068	0.228141
545.814	0.380566
547.56	0.648834
549.305	0.5458
551.05	0.21165
552.795	0.132845
554.54	0.840003
556.282	0.738065
558.025	0.751997
559.769	0.144326
561.512	0.574118
563.255	0.313712
564.997	0.23812
566.739	0.23213
568.481	0.135044
570.223	-0.213426
571.964	0.586617
573.705	0.218013
575.443	0.51632
577.183	0.265586
578.923	0.612769
580.663	0.226055
582.402	0.0458822
584.141	0.255897
585.879	0.21218
587.615	0.627379
589.353	0.213334
591.09	0.350551
592.828	0.556297
594.564	0.0716648
596.299	0.20827
598.035	0.367851
599.771	-0.0480413
601.506	0.110487
603.242	0.106849
604.974	0.653654
606.709	0.0268602
608.443	-0.11774
610.177	0.21965
611.908	0.648831
613.642	0.482211
615.374	-0.050333
617.105	0.471583
618.837	0.23689
620.569	0.230338
622.3	-0.23485
624.03	-0.220116
625.761	0.731152
627.491	-0.189899
629.219	-0.583472
630.949	0.348528
632.677	-0.0183573
634.406	0.482924
636.135	0.093852
637.861	0.365214
639.59	0.428657
641.318	0.648962
643.043	-0.136093
644.77	0.399643
646.495	0.661677
648.222	0.356728
649.948	0.0776796
651.672	0.665585
653.398	0.211763
655.121	0.215399
656.846	0.722057
658.569	-0.114159
660.293	-0.473293
662.015	0.307476
663.738	0.196128
665.46	0.882669
667.183	0.561626
668.903	0.308335
670.626	0.375787
672.346	0.193291
674.067	0.493681
675.787	0.200567
677.508	0.366926
679.226	0.120362
680.947	0.148344
682.665	0.726954
684.385	1.35036
686.102	0.291318
687.821	0.750367
689.538	0.632663
691.254	0.514252
692.972	0.648636
694.688	0.943537
696.406	0.799875
698.121	0.309868
699.835	0.348335
701.552	0.891661
703.266	0.606045
704.98	0.320147
706.695	0.699722
708.409	1.28472
710.121	0.928955
711.836	0.573426
713.548	0.99592
715.26	0.366246
716.973	0.810735
718.685	0.615798
720.396	0.89998
722.108	1.25212
723.818	1.4217
725.528	1.18168
727.238	1.1235
728.949	0.656552
730.658	0.915531
732.367	0.788627
734.075	1.45366
735.785	0.693429
737.493	0.680186
739.2	0.825493
740.907	0.971434
742.614	1.41111
744.322	1.55886
746.028	1.59534
747.734	1.54319
749.439	1.3799
751.144	1.2179
752.849	1.1021
754.555	1.01006
756.26	1.45946
757.963	1.68556
759.667	1.53033
761.37	1.64654
763.073	1.37988
764.775	1.11259
766.477	1.06984
768.179	1.61312
769.883	1.25024
771.584	1.45066
773.285	1.06178
774.986	1.283
776.686	1.1655
778.386	1.84058
780.085	1.81623
781.785	1.79297
783.484	1.40777
785.182	1.92679
786.881	2.42105
788.579	1.59936
790.276	1.86092
791.974	2.05165
793.671	1.60818
795.367	2.06757
797.064	2.03113
798.76	1.83872
800.456	1.94092
802.151	2.04442
803.846	1.99109
805.541	1.33071
807.234	1.63636
808.928	1.716
810.622	1.88416
812.315	1.93905
814.008	1.43313
815.701	1.64418
817.394	1.83245
819.086	1.95342
820.778	1.91803
822.468	1.7715
824.159	2.07186
825.85	1.68241
827.541	2.0304
829.231	2.0468
830.921	2.133
832.609	1.50909
834.298	1.66683
835.987	1.66961
837.676	1.64991
839.364	1.78541
841.051	1.80783
842.738	1.78426
844.426	1.7155
846.113	1.71436
847.798	1.96084
849.484	1.33736
851.171	1.16313
852.857	1.64038
854.54	1.4688
856.226	1.70104
857.911	1.55049
859.593	1.6231
861.278	1.2888
862.961	1.26797
864.645	1.51636
866.327	1.47096
868.01	1.06413
869.692	1.3784
871.373	0.83531
873.055	1.10404
874.735	1.32764
876.416	1.46103
878.097	1.27849
879.776	1.47954
881.457	0.890172
883.135	0.616144
884.815	1.19898
886.495	1.14841
888.172	0.938495
889.851	1.22341
891.528	1.16858
893.206	1.76563
894.882	1.32554
896.56	1.55959
898.237	0.781652
899.912	1.64204
901.589	1.28978
903.263	1.18399
904.94	1.52523
906.614	1.10693
908.289	0.868542
909.962	0.520165
911.635	0.996435
913.31	1.00565
914.982	1.23724
916.656	0.958207
918.328	1.69912
920.001	1.46449
921.672	1.27506
923.345	1.46277
925.015	1.49714
926.685	1.06956
928.357	0.6439
930.026	0.771272
931.698	0.943341
933.366	1.00532
935.035	0.824804
936.705	1.2843
938.373	1.41373
940.041	1.63255
941.71	1.41141
943.377	1.21294
945.044	1.16876
946.712	1.32218
948.378	1.31937
950.044	0.895412
951.709	0.294036
953.376	0.994291
955.041	0.637164
956.706	0.370728
958.372	0.570251
960.036	1.16976
961.699	0.82175
963.362	1.13629
965.027	1.09581
966.69	0.389068
968.352	1.07351
970.014	0.893107
971.676	0.77828
973.339	1.03982
975	0.838255
976.661	0.66045
978.322	0.461827
979.982	0.706274
981.642	0.950525
983.303	0.59592
984.962	0.92578
986.621	1.29789
988.28	1.24766
989.938	0.908799
991.596	0.216064
993.254	0.517888
994.911	0.620764
996.57	1.14279
998.227	0.341253
999.884	0.862604
1001.54	0.678249
1003.2	1.17595
1004.85	0.705025
1006.51	0.959834
1008.16	0.81911
1009.82	1.07387
1011.47	0.82431
1013.12	0.312491
1014.78	0.590162
1016.43	0.430046
1018.08	1.27706
1019.74	0.943009
1021.39	0.76324
1023.04	0.49717
1024.69	0.23208
1026.34	0.229811
1028	0.620862
1029.65	0.770933
1031.3	0.308305
1032.95	-0.111747
1034.6	0.427199
1036.25	0.571754
1037.9	0.541044
1039.54	0.706188
1041.19	0.893416
1042.84	1.05986
1044.49	0.402152
1046.14	0.745833
1047.78	0.244143
1049.43	0.87329
1051.08	0.895545
1052.72	0.744782
1054.37	0.768148
1056.02	1.29142
1057.66	0.662477
1059.31	0.641644
1060.95	0.141843
1062.6	0.554578
1064.24	0.575071
1065.88	-0.0358372
1067.53	0.917389
1069.17	0.782795
1070.81	0.452237
1072.45	0.382316
1074.1	0.37796
1075.74	0.938485
1077.38	0.307213
1079.02	0.739792
1080.66	0.65262
1082.3	0.218514
1083.94	0.542567
1085.58	0.431509
1087.22	0.427019
1088.86	0.615536
1090.5	0.607418
1092.14	0.0145493
1093.78	0.826061
1095.42	0.104317
1097.05	0.246863
1098.69	0.368831
1100.33	-0.153617
1101.96	0.229877
1103.6	0.356539
1105.24	0.505861
1106.87	0.139503
1108.51	0.461139
1110.14	-0.0783272
1111.78	0.36982
1113.41	0.558326
1115.05	0.487827
1116.68	-0.376886
1118.31	0.281747
1119.95	0.490204
1121.58	-0.17859
1123.21	-0.0753012
1124.85	0.54224
1126.48	0.454353
1128.11	0.538298
1129.74	0.708395
1131.37	0.323132
1133	0.194742
1134.63	-0.16887
1136.26	0.663924
1137.89	0.448421
1139.52	0.595058
1141.15	0.484426
1142.78	0.0533285
1144.41	0.283938
1146.04	-0.145939
1147.66	0.299104
1149.29	-0.171462
1150.92	0.274543
1152.55	0.273155
1154.17	-0.218195
1155.8	0.0565672
1157.43	0.969305
1159.05	0.669453
1160.68	-0.0760193
1162.3	0.285367
1163.93	-0.117803
1165.55	-0.605563
1167.17	-0.285575
1168.8	-0.0940733
1170.42	0.159658
1172.05	0.708887
1173.67	0.364125
1175.29	0.230831
1176.91	-0.0299463
1178.54	0.175849
1180.16	0.233786
1181.78	-0.109476
1183.4	-0.303742
1185.02	0.368567
1186.64	0.194585
1188.26	0.567965
1189.88	0.0746441
1191.5	0.107006
1193.12	-0.114377
1194.74	0.188972
1196.36	0.323759
1197.97	0.81495
1199.59	0.219055
1201.21	0.587649
1202.83	0.018549
1204.44	0.182851
1206.06	0.182051
1207.68	0.516248
1209.29	0.18313
1210.91	0.203959
1212.52	0.598551
1214.14	0.553138
1215.75	0.380767
1217.37	0.18622
1218.98	0.053462
1220.59	0.730451
1222.21	0.660102
1223.82	0.466716
1225.43	0.399252
1227.05	0.478108
1228.66	0.827046
1230.27	0.94946
1231.88	0.618187
1233.49	0.329493
1235.1	1.07534
1236.72	0.912939
1238.33	1.18561
1239.94	0.404454
1241.55	0.781377
1243.16	0.847856
1244.76	1.03779
1246.37	0.854331
1247.98	0.669911
1249.59	1.25034
1251.2	0.671833
1252.8	1.37611
1254.41	1.17088
1256.02	0.842584
1257.62	0.97049
1259.23	1.09955
1260.84	0.960439
1262.44	1.04947
1264.05	1.11789
1265.66	1.04092
1267.26	0.693739
1268.86	0.656525
1270.47	1.19891
1272.07	1.36711
1273.67	1.14037
1275.28	0.145823
1276.88	1.16097
1278.48	1.01466
1280.09	1.30269
1281.69	0.969269
1283.29	1.38098
1284.89	0.965692
1286.49	0.778925
1288.09	1.19259
1289.69	1.79298
1291.29	1.31924
1292.89	1.67199
1294.49	1.61075
1296.09	1.50697
1297.69	0.493394
1299.29	0.841006
1300.89	1.64032
1302.49	1.96336
1304.08	1.79093
1305.68	1.53585
1307.28	1.2397
1308.88	1.12853
1310.47	0.833138
1312.07	1.05052
1313.66	1.43176
1315.26	1.71108
1316.85	1.19461
1318.45	1.51596
1320.04	1.46977
1321.64	0.954282
1323.23	0.784265
1324.83	0.877245
1326.42	1.23261
1328.01	1.72839
1329.61	1.69698
1331.2	1.38404
1332.79	2.20541
1334.38	1.45287
1335.97	1.02578
1337.56	1.14426
1339.16	1.4031
1340.75	1.9017
1342.34	1.83386
1343.93	1.74406
1345.52	1.23172
1347.11	1.30219
1348.7	1.37411
1350.29	1.74846
1351.87	0.844774
1353.46	0.603687
1355.05	0.923613
1356.64	0.724191
1358.22	0.66433
1359.81	0.523779
1361.4	0.861399
1362.98	1.13803
1364.57	0.257706
1366.16	0.793239
1367.74	1.08995
1369.33	0.750535
1370.91	0.770864
1372.5	0.792461
1374.08	0.775306
1375.67	0.977664
1377.25	0.901552
1378.83	0.625986
1380.41	0.846958
1382	0.728473
1383.58	0.966783
1385.16	0.806417
1386.74	0.54642
1388.33	0.366226
1389.91	0.504362
1391.49	0.603518
1393.07	0.405774
1394.65	0.545645
1396.23	1.02238
1397.81	0.3683
1399.39	0.328046
1400.97	0.801907
1402.55	1.03718
1404.13	0.441241
1405.7	0.696646
1407.28	0.715418
1408.86	0.142218
1410.44	0.478447
1412.01	0.774958
1413.59	0.261411
1415.17	0.753745
1416.74	0.8504
1418.32	0.473539
1419.89	0.530745
1421.47	0.60853
1423.04	0.667995
1424.62	0.650213
1426.19	0.909146
1427.77	0.617491
1429.34	0.443684
1430.91	1.05636
1432.49	1.07744
1434.06	0.743482
1435.63	1.05829
1437.2	1.03885
1438.78	1.35425
1440.35	1.12019
1441.92	1.3391
1443.49	1.55868
1445.06	1.77866
1446.63	0.996412
1448.2	1.60985
1449.77	1.41764
1451.34	1.973
1452.91	1.50643
1454.48	1.00069
1456.05	1.16366
1457.62	0.991559
1459.18	1.60549
1460.75	1.17473
1462.32	1.64735
1463.89	1.46906
1465.45	1.13261
1467.02	1.3462
1468.59	0.656745
1470.15	0.871482
1471.72	0.871291
1473.28	0.715185
1474.85	0.638301
1476.41	0.365751
1477.98	0.60309
1479.54	0.350259
1481.1	0.371791
1482.67	0.334451
1484.23	0.297002
1485.79	0.533514
1487.36	0.534212
1488.92	0.494566
1490.48	0.551124
1492.04	-0.000479698
1493.61	0.013422
1495.17	0.0452433
1496.73	0.29034
1498.29	-0.224327
1499.85	0.44829
1501.41	-0.16099
1502.97	0.395655
1504.53	0.738892
1506.09	0.713965
1507.65	0.0116396
1509.2	0.101908
1510.76	-0.156384
1512.32	0.413874
1513.88	-0.0377617
1515.43	0.0885611
1516.99	0.791021
1518.55	0.150225
1520.1	0.200988
1521.66	-0.303074
1523.22	0.646327
1524.77	0.371001
1526.33	0.343289
1527.88	0.58139
1529.44	0.361943
1530.99	-0.103744
1532.54	-0.0936785
1534.1	0.20116
1535.65	0.950154
1537.21	-0.32331
1538.76	0.12411
1540.31	0.231563
1541.86	0.282373
1543.42	0.615304
1544.97	0.176527
1546.52	0.79025
1548.07	0.933482
1549.62	0.701506
1551.17	0.39526
1552.72	0.370677
1554.27	0.440422
1555.82	0.772758
1557.37	0.695656
1558.92	0.303229
1560.47	1.4238
1562.02	0.120599
1563.56	0.739908
1565.11	0.538905
1566.66	0.991096
1568.21	1.08858
1569.75	0.625751
1571.3	0.629164
1572.85	1.19233
1574.39	0.672661
1575.94	1.12372
1577.49	1.35096
1579.03	1.07455
1580.57	0.742633
1582.12	0.486021
1583.66	0.771789
1585.21	0.85286
1586.75	1.36446
1588.3	0.829191
1589.84	1.47213
1591.38	1.16049
1592.92	1.4661
1594.47	1.11605
1596.01	1.34663
1597.55	0.715589
1599.09	0.947176
1600.63	1.21713
1602.17	1.35641
1603.71	1.23294
1605.25	1.24022
1606.79	1.13347
1608.33	1.75787
1609.87	1.27116
1611.41	0.369064
1612.95	1.04343
1614.49	0.664806
1616.03	0.998971
1617.57	0.658327
1619.1	1.51812
1620.64	0.824202
1622.18	1.03069
1623.72	0.994511
1625.25	1.10813
1626.79	0.865429
1628.32	0.99585
1629.86	0.919173
1631.39	1.00979
1632.93	0.745033
1634.46	0.947517
1636	1.35575
1637.53	0.589541
1639.07	0.663438
1640.6	1.46417
1642.13	1.46264
1643.67	1.42282
1645.2	1.06553
1646.73	1.15414
1648.26	0.92643
1649.8	1.14501
1651.33	1.45699
1652.86	1.69563
1654.39	1.3975
1655.92	1.22993
1657.45	1.08096
1658.98	1.33885
1660.51	1.16952
1662.04	1.5355
1663.57	1.08648
1665.1	1.52419
1666.63	1.46321
1668.16	1.05294
1669.68	1.16067
1671.21	1.14071
1672.74	1.12181
1674.27	0.992872
1675.79	1.32406
1677.32	1.15738
1678.85	1.22895
1680.37	0.472082
1681.9	1.07512
1683.42	1.47506
1684.95	1.23228
1686.47	1.00847
1688	0.327136
1689.52	0.654425
1691.05	0.615412
1692.57	0.72291
1694.09	0.51929
1695.62	0.516817
1697.14	0.788193
1698.66	0.52936
1700.18	0.0149412
1701.71	-0.0615644
1703.23	0.572294
1704.75	-0.142879
1706.27	0.198017
1707.79	0.22902
1709.31	0.187237
1710.83	0.163731
1712.35	-0.0953035
1713.87	-0.0638885
1715.39	0.202859
1716.91	0.32441
1718.43	-0.0784788
1719.95	0.169308
1721.47	0.434872
1722.99	0.195702
1724.5	0.390174
1726.02	0.153424
1727.54	0.0980816
1729.06	0.31358
1730.57	0.419431
1732.09	-0.081255
1733.61	-0.273303
1735.12	-0.230967
1736.64	0.30554
1738.15	0.0492067
1739.67	0.578668
1741.18	-0.186923
1742.7	0.183466
1744.21	0.360693
1745.72	0.104858
1747.24	0.253211
1748.75	0.265883
1750.26	0.175219
1751.77	0.0120497
1753.29	-0.151889
1754.8	0.596462
1756.31	0.380075
1757.82	0.150666
1759.33	0.0606337
1760.84	-0.069129
1762.36	-0.0579596
1763.87	0.45216
1765.38	0.36696
1766.89	0.110805
1768.4	-0.160923
1769.91	-0.121066
1771.41	0.0008955
1772.92	0.179423
1774.43	0.140252
1775.94	0.117854
1777.45	-0.00660896
1778.95	0.102665
1780.46	0.301487
1781.97	0.407594
1783.48	0.0477772
1784.98	-0.107935
1786.49	0.0729513
1787.99	-0.148654
1789.5	0.017312
1791.01	0.233535
1792.51	-0.119217
1794.01	0.0965166
1795.52	-0.25932
1797.02	-0.11365
1798.53	-0.0836449
1800.03	0.0626955
1801.53	-0.223722
1803.04	-0.018672
1804.54	-0.0336275
1806.04	0.0421829
1807.54	0.341294
1809.05	0.0985746
1810.55	-0.245324
1812.05	-0.00392056
1813.55	0.0695696
1815.05	0.0712624
1816.55	0.295434
1818.05	-0.110407
1819.55	0.230195
1821.05	-0.136419
1822.55	-0.0855742
1824.05	-0.0473289
1825.55	-0.0920153
1827.05	-0.232258
1828.55	-0.0053072
1830.04	0.0446119
1831.54	0.174139
1833.04	0.0490713
1834.54	-0.113172
1836.03	0.106817
1837.53	-0.0375948
1839.03	0.190641
1840.52	-0.0594845
1842.02	0.176227
1843.51	-0.0784883
1845.01	0.0579453
1846.5	0.307215
1848	0.163502
1849.49	0.261024
1850.99	0.0686293
1852.48	-0.0841475
1853.97	-0.0955334
1855.47	-0.141741
1856.96	-0.275832
1858.45	-0.000685692
1859.94	0.213139
1861.44	0.0524149
1862.93	0.135346
1864.42	0.0462914
1865.91	-0.0352659
1867.4	-0.0630865
1868.89	0.120378
1870.38	0.0608873
1871.87	-0.173371
1873.36	-0.023037
1874.85	-0.0575571
1876.34	-0.198982
1877.83	0.262849
1879.32	0.0727053
1880.81	0.207788
1882.3	-0.0106573
1882.57	-0.071084
1884.07	0.0496197
1885.56	0.169514
1887.06	0.184001
1888.55	-0.132711
1890.04	0.212234
1891.54	0.366494
1893.03	-0.20805
1894.52	-0.0853882
1896.02	0.142987
1897.51	-0.114786
1899	0.323024
1900.49	0.203285
1901.98	0.290778
1903.47	-0.0929594
1904.96	-0.182191
1906.45	0.144956
1907.94	-0.0839186
1909.43	0.416985
1910.92	0.120236
1912.41	-0.0887804
1913.9	0.361846
1915.39	0.326847
1916.88	0.430238
1918.37	0.134432
1919.85	0.0463133
1921.34	-0.0418158
1922.83	0.0955982
1924.32	-0.14711
1925.8	0.0959778
1927.29	0.21885
1928.78	0.1865
1930.26	0.119453
1931.75	0.29408
1933.23	0.0344467
1934.72	-0.105513
1936.2	0.324075
1937.69	0.181513
1939.17	0.332459
1940.66	0.0863667
1942.14	-0.00332546
1943.63	0.149523
1945.11	0.130603
1946.59	-0.129318
1948.07	0.0415316
1949.56	-0.115727
1951.04	-0.0671225
1952.52	0.118252
1954	0.0105591
1955.48	0.229434
1956.96	0.122125
1958.45	0.187205
1959.93	0.132819
1961.41	0.113275
1962.89	0.265316
1964.37	0.571242
1965.85	0.140051
1967.32	0.461722
1968.8	-0.175437
1970.28	0.0423393
1971.76	-0.0820303
1973.24	0.35696
1974.72	0.0279274
1976.19	-0.504996
1977.67	-0.032156
1979.15	-0.0024004
1980.63	0.282428
1982.1	0.0567789
1983.58	0.05198
1985.05	-0.0889044
1986.53	0.49947
1988	0.256551
1989.48	0.0143042
1990.95	0.213006
1992.43	-0.0104742
1993.9	0.223619
1995.38	0.171
1996.85	-0.40489
1998.32	-0.321817
1999.8	0.301031
2001.27	0.163456
2002.74	0.261679
2004.22	-0.0280371
2005.69	0.390539
2007.16	0.0852137
2008.63	0.252442
2010.1	0.134194
2011.57	-0.252869
2013.04	0.184925
2014.51	0.150995
2015.98	-0.0687037
2017.45	-0.1209
2018.92	0.330523
2020.39	0.512177
2021.86	0.340867
2023.33	0.220412
2024.8	0.0840282
2026.27	0.0830202
2027.74	-0.335968
2029.2	0.26951
2030.67	0.17178
2032.14	0.0580997
2033.61	0.263738
2035.07	0.167205
2036.54	-0.0137415
2038.01	0.056776
2039.47	-0.00748444
2040.94	-0.256721
2042.4	-0.00129414
2043.87	0.204512
2045.33	0.0915909
2046.8	-0.00391293
2048.26	0.0018177
2049.72	-0.026473
2051.19	-0.0388479
2052.65	0.0485563
2054.12	0.184937
2055.58	0.167941
2057.04	0.233996
2058.5	0.282436
2059.97	0.31387
2061.43	0.227816
2062.89	0.496059
2064.35	0.142445
2065.81	0.496629
2067.27	0.060626
2068.73	0.550797
2070.19	0.418545
2071.65	0.000107765
2073.11	0.322286
2074.57	0.17279
2076.03	-0.179115
2077.49	0.310658
2078.95	0.210655
2080.41	0.0934067
2081.87	0.413417
2083.32	0.0593901
2084.78	0.579906
2086.24	0.376068
2087.7	0.188638
2089.15	0.488364
2090.61	0.418073
2092.07	0.297421
2093.52	0.411716
2094.98	0.391482
2096.43	0.605439
2097.89	0.0648212
2099.34	0.879997
2100.8	0.339127
2102.25	0.434273
2103.71	0.563469
2105.16	0.610284
2106.61	0.524907
2108.07	0.640699
2109.52	0.589987
2110.97	0.88883
2112.43	0.536325
2113.88	0.482332
2115.33	0.343751
2116.78	0.80306
2118.23	0.74701
2119.68	0.509772
2121.13	1.07092
2122.59	0.953567
2124.04	1.21906
2125.49	0.622905
2126.94	0.888716
2128.39	0.772211
2129.83	0.969288
2131.28	0.668092
2132.73	1.07823
2134.18	1.09087
2135.63	0.955478
2137.08	1.30097
2138.53	1.18541
2139.97	1.02216
2141.42	1.72003
2142.87	1.21235
2144.31	1.2343
2145.76	1.17364
2147.21	1.69213
2148.65	1.69688
2150.1	0.657045
2151.54	1.3722
2152.99	1.75511
2154.43	1.83893
2155.88	1.24304
2157.32	1.79035
2158.77	1.82484
2160.21	1.29747
2161.65	1.36817
2163.1	1.29152
2164.54	1.48171
2165.98	1.42394
2167.43	1.61519
2168.87	1.2736
2170.31	1.54531
2171.75	1.79845
2173.19	1.81675
2174.64	1.86692
2176.07	1.71694
2177.52	1.91641
2178.96	1.51811
2180.4	1.78585
2181.84	1.4393
2183.28	1.49235
2184.72	1.99477
2186.15	1.56585
2187.59	1.61931
2189.03	1.52306
2190.47	1.94276
2191.91	1.11369
2193.35	1.59904
2194.78	1.60022
2196.22	1.34988
2197.66	1.58024
2199.09	1.39296
2200.53	1.15508
2201.97	1.5815
2203.4	1.22826
2204.84	1.27447
2206.27	0.923893
2207.71	1.28646
2209.14	0.953032
2210.58	1.16534
2212.01	0.946365
2213.45	0.859211
2214.88	0.656459
2216.31	1.24685
2217.75	1.0788
2219.18	0.96159
2220.61	0.977157
2222.05	0.893931
2223.48	1.07366
2224.91	0.626143
2226.34	0.687671
2227.78	0.468072
2229.21	0.888209
2230.64	0.699752
2232.07	0.560689
2233.5	0.389476
2234.93	0.399167
2236.36	0.230231
2237.79	0.699649
2239.22	0.387103
2240.65	0.92483
2242.08	0.697523
2243.5	0.748661
2244.93	0.653318
2246.36	0.867235
2247.79	0.900176
2249.22	0.865792
2250.64	0.747853
2252.07	1.00279
2253.5	0.606023
2254.92	0.616466
2256.35	0.498398
2257.78	0.398913
2259.2	0.156105
2260.63	-0.262575
2262.05	0.440579
2263.48	0.577411
2264.9	0.194602
2266.33	0.461438
2267.75	0.304823
2269.18	0.570369
2270.6	0.395821
2272.02	0.432399
2273.45	0.533987
2274.87	0.45651
2276.29	0.460665
2277.71	0.269401
2279.14	0.355235
2280.56	0.408444
2281.98	0.265831
2283.4	0.0904465
2284.82	0.355622
2286.24	0.11512
2287.66	0.119731
2289.08	0.271743
2290.5	0.260828
2291.92	0.266503
2293.34	0.386776
2294.76	0.359871
2296.18	0.414708
2297.6	-0.136363
2299.02	0.114901
2300.44	0.268214
2301.86	-0.0372148
2303.27	0.0674596
2304.69	0.517095
2306.11	0.0802512
2307.53	0.0863047
2308.94	-0.204009
2310.36	0.310706
2311.78	0.430621
2313.19	-0.0253062
2314.61	0.0784678
2316.02	0.331184
2317.44	0.107059
2318.85	0.179808
2320.27	0.186428
2321.68	0.0600348
2323.1	0.11342
2324.51	0.230746
2325.92	0.181016
2327.34	0.426651
2328.75	0.572462
2330.16	0.850077
2331.58	0.156954
2332.99	0.238901
2334.4	0.222843
2335.81	-0.154911
2337.23	0.388087
2338.64	0.0420709
2340.05	0.254011
2341.46	0.234959
2342.87	0.166247
2344.28	-0.0335813
2345.69	-0.134569
2347.1	-0.12053
2348.51	0.139039
2349.92	0.185273
2351.33	0.230726
2352.74	0.258872
2354.15	0.155579
2355.55	0.312663
2356.96	0.338868
2358.37	0.104762
2359.78	0.00124359
2361.19	0.0765553
2362.59	0.427307
2364	-0.0649414
2365.41	-0.0708518
2366.81	0.214313
2368.22	0.305723
2369.62	-0.360224
2371.03	0.168819
2372.44	-0.0587821
2373.84	0.149495
2375.24	-0.0283861
2376.65	-0.0294876
2378.05	-0.208426
2379.46	0.254219
2380.86	0.200889
2382.26	-0.334629
2383.67	-0.0368962
2385.07	0.211938
2386.47	0.0371819
2387.88	-0.168282
2389.28	0.0661564
2390.68	-0.543022
2392.08	0.218789
2393.48	-0.276414
2394.89	0.0406914
2396.29	-0.00749397
2397.69	-0.007411
2399.09	-0.14982
2400.49	0.407242
2401.89	0.265524
2403.29	0.0603585
2404.69	0.156604
2406.09	-0.224191
2407.48	-0.00257349
2408.88	-0.0673075
2410.28	0.0262547
2411.68	0.0407143
2413.08	-0.197484
2414.48	-0.00694609
2415.87	0.0581746
2417.27	0.646916
2418.67	0.207417
2420.06	0.464918
2421.46	-0.16466
2422.86	0.488496
2424.25	0.3335
2425.65	0.194377
2427.04	0.119085
2428.44	0.329913
2429.83	0.224548
2431.23	0.230784
2432.62	0.110153
2434.02	0.0683284
2435.41	0.231988
2436.81	0.39437
2438.2	-0.0642757
2439.59	0.0479155
2440.99	0.17513
2442.38	0.19066
2443.77	0.0155134
2445.16	0.41135
2446.56	-0.176254
2447.95	0.171519
2449.34	-0.162145
2450.73	0.343835
2452.12	0.375097
2453.51	-0.051805
2454.9	0.234144
2456.29	-0.238657
2457.68	0.0797653
2459.07	0.0816584
2460.46	0.0988426
2461.85	0.305022
2463.24	0.0836153
2464.63	0.36742
2466.02	-0.059926
2467.4	-0.0292115
2468.79	0.316987
2470.18	-0.062768
2471.57	0.314035
2472.95	0.122685
2474.34	0.387399
2475.73	0.242161
2477.12	0.0653863
2478.5	0.12442
2479.89	0.340423
2481.27	0.0388265
2482.66	0.129306
2484.04	0.297475
2485.43	0.12047
2486.81	0.036531
2488.2	0.0454326
2489.58	0.17833
2490.97	0.279638
2492.35	0.0858455
2493.73	0.0332112
2495.12	-0.0336351
2496.5	-0.0682678
2497.88	-0.00918293
2499.27	-0.383344
2500.65	-0.0612693
2502.03	0.228709
2503.41	0.270254
2504.79	0.280052
2506.17	0.366304
2507.56	0.175128
2508.94	0.0767365
2510.32	0.286077
2511.7	0.311488
2513.08	-0.229575
2514.46	-0.232937
2515.84	0.468506
2517.22	0.129611
2518.59	-0.0402489
2519.97	0.0805387
2521.35	0.216225
2522.73	-0.0609493
2524.11	0.332594
2525.49	0.145776
2526.86	0.111306
2528.24	-0.0596638
2529.62	-0.0621648
2530.99	0.423076
2532.37	0.119421
2533.75	0.196907
2535.12	0.335778
2536.5	0.0188198
2537.88	-0.101223
2539.25	0.17281
2540.63	0.415589
2542	-0.0250883
2543.38	0.126513
2544.75	0.187785
2546.12	0.0378065
2547.5	0.0254207
2548.87	-0.0469222
2550.24	0.184233
2551.62	-0.055449
2552.99	0.629791
2554.36	0.464204
2555.74	-0.11179
2557.11	-0.0357776
2558.48	-0.0205646
2559.85	-0.202191
2561.22	0.238129
2562.59	0.148483
2563.96	0.0593672
2565.34	0.0767088
2566.71	0.139727
2568.08	0.505936
2569.45	0.265944
2570.82	0.192655
2572.18	0.331599
2573.55	0.455481
2574.92	0.443023
2576.29	-0.115205
2577.66	-0.15808
2579.03	0.177923
2580.4	0.119381
2581.77	0.181781
2583.13	0.38029
2584.5	-0.0278392
2585.87	0.352295
2587.23	0.353549
2588.6	-0.0845375
2589.97	0.265566
2591.33	0.160894
2592.7	0.222482
2594.06	-0.0499425
2595.43	-0.00510216
2596.79	-0.157964
2598.16	0.112225
2599.52	-0.298549
2600.89	-0.0136976
2602.25	0.0749593
2603.62	-0.167971
2604.98	0.314065
2606.34	-0.0638876
2607.71	0.0104957
2609.07	0.0689893
2610.43	0.18659
2611.79	0.182442
2613.16	0.192303
2614.52	0.141374
2615.88	-0.284793
2617.24	0.294437
2618.6	0.064404
2619.96	0.299319
2621.32	0.115875
2622.68	0.037745
2624.04	0.24362
2625.4	-0.147711
2626.76	0.311225
2628.12	0.0539727
2629.48	-0.00960112
2630.84	0.298679
2632.2	0.0860758
2633.56	-0.185647
2634.92	0.0921822
2636.28	-0.0160341
2637.63	0.12781
2638.99	0.24186
2640.35	0.0895777
2641.71	0.262986
2643.06	-0.00678873
2644.42	-0.143179
2645.77	-0.0286732
2647.13	0.0410805
2648.49	0.183756
2649.84	-0.101291
2651.2	0.0399365
2652.55	0.0190768
2653.91	-0.0455437
2655.26	-0.0360951
2656.62	0.135396
2657.97	0.0881238
2659.33	-0.0607119
2660.68	0.288066
2662.03	0.0225673
2663.39	0.194989
2664.74	-0.0130239
2666.09	0.303655
2667.44	-0.0217986
2668.8	0.00267506
2670.15	-0.249093
2671.5	0.0815306
2672.85	-0.372346
2674.2	0.162307
2675.55	0.334046
2676.91	0.332049
2678.26	-0.0174232
2679.61	0.0110373
2680.96	-0.133575
2682.31	0.0563149
2683.66	0.261784
2685	0.1781
2686.35	-0.0938725
2687.7	0.156331
2689.05	0.0136304
2690.4	0.406571
2691.75	-0.131131
2693.1	0.0846252
2694.44	0.110843
2695.79	-0.167443
2697.14	0.235905
2698.49	0.00294304
2699.83	-0.300859
2701.18	-0.0384579
2702.52	0.210844
2703.87	0.461239
2705.22	0.103408
2706.56	0.180423
2707.91	0.155691
2709.25	0.0434728
2710.6	0.540773
2711.94	0.195606
2713.29	0.213375
2714.63	0.0275979
2715.97	0.132452
2717.32	0.0772471
2718.66	0.196367
2720.01	0.213351
2721.35	0.0698476
2722.69	0.231535
2724.03	-0.102067
2725.38	0.233499
2726.72	-0.0571513
2728.06	0.161343
2729.4	0.335927
2730.74	0.321188
2732.08	0.131842
2733.42	0.26265
2734.76	0.219041
2736.1	0.102894
2737.44	0.0595922
2738.78	0.0162697
2740.12	0.00181341
2741.46	-0.056675
2742.8	-0.0139432
2744.14	0.144424
2745.48	-0.017458
2746.82	-0.0924563
2748.16	0.282419
2749.49	0.0331345
2750.83	0.161308
2752.17	0.0721416
2753.51	0.113675
2754.84	0.0104513
2756.18	-0.266397
2757.52	-0.123039
2758.85	-0.0374379
2760.19	0.323444
2761.53	-0.0967836
2762.86	0.178033
2764.2	-0.140146
2765.53	0.0480738
2766.87	-0.169218
2768.2	0.292564
2769.54	-0.143517
2770.87	0.315503
2772.2	0.310624
2773.54	0.0739579
2774.87	0.12555
2776.2	0.105011
2777.54	0.171176
2778.87	-0.0642614
2780.2	-0.212682
2781.53	-0.231391
2782.87	-0.063447
2784.2	-0.125234
2785.53	-0.0723076
2786.86	0.439046
2788.19	0.263165
2789.52	0.0738726
2790.85	-0.128773
2792.18	0.0411253
2793.51	0.0969696
2794.84	0.0241904
2796.17	-0.14887
2797.5	0.163338
2798.83	0.360603
2800.16	0.0863552
2801.49	0.0403581
2802.82	-0.0200253
2804.15	-0.0805793
2805.47	-0.0132742
2806.8	-0.245471
2808.13	0.133685
2809.46	0.0713544
2810.78	0.122763
2812.11	-0.222694
2813.44	0.170757
2814.76	0.0405698
2816.09	-0.130807
2817.42	0.0531483
2818.74	-0.0317082
2820.07	0.0109921
2821.39	-0.272676
2822.72	0.052495
2824.04	-0.00551701
2825.37	-0.0496273
2826.69	0.0762582
2828.02	0.0751224
2829.34	-0.137867
2830.66	0.470613
2831.99	0.173281
2833.31	0.21563
2834.63	0.229379
2835.96	0.0870218
2837.28	-0.0557456
2838.6	0.14068
2839.92	0.20956
2841.24	0.250228
2842.57	-0.00559235
2843.89	0.248001
2845.21	0.629349
2846.53	0.60138
2847.85	0.828112
2849.17	0.531922
2850.49	0.94217
2851.81	0.77249
2853.13	0.870911
2854.45	0.813543
2855.77	0.727783
2857.09	0.726802
2858.41	0.994228
2859.72	0.993239
2861.04	1.02034
2862.36	0.990691
2863.68	1.03131
2865	1.17046
2866.31	1.60576
2867.63	1.26542
2868.95	0.939711
2870.26	1.75637
2871.58	1.86813
2872.9	1.7823
2874.21	1.65358
2875.53	1.86206
2876.84	1.92864
2878.16	1.93818
2879.47	1.48339
2880.79	1.7181
2882.1	1.7847
2883.42	1.64148
2884.73	2.14503
2886.05	1.96102
2887.36	1.97362
2888.67	2.01389
2889.99	2.0254
2891.3	2.10629
2892.61	2.2987
2893.92	2.01452
2895.24	2.109
2896.55	2.12013
2897.86	2.0762
2899.17	2.00518
2900.48	2.67629
2901.79	2.46642
2903.11	2.2148
2904.42	2.35496
2905.73	2.49536
2907.04	2.79013
2908.35	2.62402
2909.66	2.9483
2910.97	2.41953
2912.27	3.05232
2913.58	2.88667
2914.89	3.1958
2916.2	3.3774
2917.51	3.4036
2918.82	3.37297
2920.13	3.76182
2921.43	3.78754
2922.74	3.71652
2924.05	3.80053
2925.35	3.52212
2926.66	3.34206
2927.97	3.93091
2929.27	3.75055
2930.58	4.29667
2931.89	4.43692
2933.19	4.36727
2934.5	4.24171
2935.8	4.17219
2937.11	3.87924
2938.41	3.97776
2939.72	3.89488
2941.02	3.64479
2942.32	3.81466
2943.63	3.70613
2944.93	3.55682
2946.24	3.36648
2947.54	3.79214
2948.84	3.36409
2950.14	3.29877
2951.45	3.17585
2952.75	3.17731
2954.05	3.12157
2955.35	3.12154
2956.65	3.05234
2957.95	2.85898
2959.26	2.96193
2960.56	2.57707
2961.86	2.76824
2963.16	2.83406
2964.46	2.85734
2965.76	2.50011
2967.06	2.52058
2968.36	2.27283
2969.66	2.50244
2970.96	2.56329
2972.25	2.54002
2973.55	2.16523
2974.85	2.09991
2976.15	2.38599
2977.45	2.20636
2978.74	2.09563
2980.04	1.73006
2981.34	1.85609
2982.64	1.89718
2983.93	1.67144
2985.23	1.60142
2986.52	1.5749
2987.82	1.49346
2989.12	1.32855
2990.41	1.13574
2991.71	1.20952
2993	1.57754
2994.3	1.08723
2995.59	0.975471
2996.89	1.24225
2998.18	0.540353
2999.48	0.933387
3000.77	0.51334
3002.06	0.808934
3003.36	0.726379
3004.65	0.840079
3005.94	0.617387
3007.23	0.56231
3008.53	0.408632
3009.82	0.492075
3011.11	0.16959
3012.4	0.363807
3013.69	0.557741
3014.99	0.445092
3016.28	0.263579
3017.57	-0.167648
3018.86	-0.124866
3020.15	-0.0264359
3021.44	0.391178
3022.73	0.0853062
3024.02	0.0982556
3025.31	0.290783
3026.6	0.178081
3027.89	0.384279
3029.18	0.245502
3030.46	0.0253563
3031.75	-0.0551767
3033.04	0.155149
3034.33	-0.0345998
3035.62	-0.0729232
3036.9	0.287517
3038.19	0.0673218
3039.48	0.0385942
3040.76	0.132316
3042.05	-0.0631857
3043.34	0.20783
3044.62	0.150412
3045.91	0.354371
3047.19	0.204736
3048.48	0.0710497
3049.77	0.157695
3051.05	0.300265
3052.34	0.307091
3053.62	0.0956235
3054.9	0.320202
3056.19	0.134649
3057.47	0.207319
3058.76	0.578975
3060.04	0.541523
3061.32	0.43645
3062.61	-0.102847
3063.89	0.175272
3065.17	0.345876
3066.45	-0.134854
3067.74	0.146613
3069.02	0.387719
3070.3	0.451864
3071.58	0.0256276
3072.86	0.455152
3074.14	0.0949264
3075.42	0.332068
3076.7	0.256391
3077.99	0.0590358
3079.26	0.242715
3080.54	0.278427
3081.82	0.0984964
3083.1	0.0281796
3084.38	0.270541
3085.66	-0.165519
3086.94	-0.0726852
3088.22	0.141742
3089.5	-0.105859
3090.78	0.0126405
3092.05	0.0089159
3093.33	0.181686
3094.61	-0.133508
3095.89	0.283836
3097.16	-0.0986662
3098.44	0.155964
3099.72	-0.37549
3100.99	0.0821681
3102.27	0.0927749
3103.54	-0.343107
3104.82	-0.0609384
3106.1	0.0999942
3107.37	0.302323
3108.65	0.0860705
3109.92	-0.0209951
3111.2	0.102938
3112.47	0.200534
3113.74	0.163112
3115.02	0.0714498
3116.29	0.1014
3117.56	0.157792
3118.84	0.0641079
3120.11	0.349263
3121.38	0.348814
3122.66	0.727325
3123.93	-0.0595193
3125.2	0.413718
3126.47	0.196768
3127.74	0.0211048
3129.01	0.535788
3130.29	0.496184
3131.56	0.510804
3132.83	0.119968
3134.1	0.553031
3135.37	0.445317
3136.64	0.620578
3137.91	0.377275
3139.18	0.686337
3140.45	0.550666
3141.72	0.724625
3142.99	0.57613
3144.26	0.414957
3145.52	0.858284
3146.79	0.349852
3148.06	0.52597
3149.33	0.581941
