200.43	0.555596
202.244	0.552403
204.059	0.550928
205.873	0.988726
207.688	1.54849
209.501	0.771154
211.314	1.3054
213.127	0.236036
214.941	1.7627
216.753	1.49333
218.564	0.401372
220.375	0.982003
222.186	0.571582
223.999	1.20259
225.809	0.649906
227.618	0.847036
229.428	0.585215
231.236	1.02334
233.045	1.00274
234.855	0.717664
236.663	-0.192214
238.471	0.491516
240.278	0.503344
242.085	0.783223
243.891	0.727475
245.698	0.889228
247.503	0.880799
249.309	-0.0719376
251.116	0.759073
252.921	0.211259
254.725	0.0724421
256.529	-0.307498
258.333	-0.203983
260.136	0.190534
261.939	0.0331745
263.742	0.142876
265.544	0.229951
267.346	0.341849
269.148	0.285028
270.949	0.275833
272.75	0.410355
274.55	-0.034997
276.351	0.313799
278.15	0.130558
279.95	-0.198915
281.749	0.144061
283.548	0.099987
285.346	-0.257644
287.144	0.0328703
288.942	-0.0846128
290.739	-0.081111
292.536	-0.195719
294.333	0.00263691
296.129	0.919811
297.925	0.0929985
299.721	0.820519
301.514	0.831067
303.309	0.0530014
305.104	-0.653904
306.898	0.141785
308.692	-0.326885
310.486	0.0634041
312.279	-0.0929956
314.072	0.395525
315.862	0.528964
317.654	-0.216548
319.446	0.206695
321.238	0.631721
323.029	0.390522
324.819	0.292882
326.608	-0.162752
328.398	-0.0695
330.188	0.334116
331.977	-0.076149
333.766	0.157614
335.553	0.102198
337.341	-0.553718
339.129	0.223962
340.917	0.13869
342.704	0.339574
344.489	0.683694
346.275	-0.0227032
348.062	-0.130826
349.845	0.191463
351.631	-0.249968
353.416	-0.190541
355.201	0.249544
356.984	-0.194229
358.768	-0.0907335
360.552	0.535434
362.333	0.18413
364.116	-0.191119
365.899	0.0750427
367.68	0.0314302
369.462	-0.0840521
371.243	-0.436977
373.023	0.369553
374.804	-0.102224
376.585	0.347836
378.363	0.325947
380.143	0.375849
381.923	0.215183
383.7	0.19736
385.479	-0.336136
387.256	0.142631
389.034	-0.293811
390.812	0.351431
392.588	0.551248
394.365	-0.351931
396.14	1.07031
397.916	0.801895
399.691	0.134026
401.467	0.264318
403.24	-0.0287943
405.015	0.0062151
406.788	0.0169868
408.563	0.285437
410.335	0.201363
412.109	0.211286
413.88	0.432871
415.654	-0.0721331
417.424	0.596966
419.197	0.633333
420.967	-0.104495
422.739	0.330969
424.508	0.178919
426.279	-0.0914459
428.048	0.177277
429.819	-0.164809
431.587	0.314615
433.356	-0.473001
435.124	0.218349
436.891	0.0648079
438.66	-0.112867
440.426	0.0834723
442.194	-0.00382996
443.96	0.047369
445.725	0.119991
447.492	-0.113039
449.257	0.168302
451.021	-0.415195
452.787	-0.27369
454.551	0.450964
456.314	0.00913429
458.079	0.54598
459.842	0.360682
461.604	0.64146
463.368	0.574973
465.13	0.627335
466.891	0.171644
468.654	0.2068
470.415	0.639341
472.175	0.351727
473.935	0.295843
475.696	0.00514793
477.456	0.96996
479.215	0.558429
480.973	0.658262
482.733	0.734927
484.491	0.83614
486.249	0.729849
488.006	0.369455
489.765	0.454005
491.522	0.77323
493.278	0.0890665
495.034	-0.0348759
496.789	0.472877
498.544	0.184628
500.301	0.575461
502.056	0.168242
503.81	0.252689
505.564	0.195021
507.317	0.888341
509.071	0.169101
510.825	0.577184
512.578	0.77187
514.33	0.917835
516.082	0.756404
517.833	0.969994
519.585	0.547585
521.335	0.712129
523.086	1.04034
524.836	0.710753
526.586	0.475307
528.335	0.240115
530.085	1.05959
531.835	0.542702
533.584	0.212808
535.332	0.630611
537.08	0.555463
538.827	0.735746
540.574	0.564533
542.321	0.532578
544.068	0.453731
545.814	0.421482
547.56	0.482311
549.305	0.589602
551.05	0.303215
552.795	0.619034
554.54	0.564658
556.282	0.649166
558.025	0.295743
559.769	0.542501
561.512	0.605241
563.255	0.691482
564.997	0.0196905
566.739	0.337168
568.481	0.517326
570.223	0.491871
571.964	0.2155
573.705	0.514381
575.443	0.769221
577.183	0.314598
578.923	0.480846
580.663	0.900683
582.402	0.332944
584.141	0.568716
585.879	-0.20835
587.615	0.18603
589.353	0.395226
591.09	0.0972595
592.828	0.166821
594.564	-0.362014
596.299	-0.568738
598.035	-0.131338
599.771	0.420691
601.506	0.166627
603.242	0.440286
604.974	0.344393
606.709	0.499929
608.443	0.815137
610.177	0.601908
611.908	0.848143
613.642	0.384195
615.374	0.700554
617.105	0.192069
618.837	0.484983
620.569	0.112663
622.3	0.929014
624.03	1.2861
625.761	0.614643
627.491	0.447379
629.219	-0.105681
630.949	0.530363
632.677	0.826199
634.406	0.849375
636.135	0.301535
637.861	0.139914
639.59	1.27639
641.318	0.697945
643.043	1.21154
644.77	0.402205
646.495	0.845721
648.222	1.1768
649.948	0.374803
651.672	0.713154
653.398	0.441999
655.121	0.037488
656.846	0.977967
658.569	0.599347
660.293	1.2691
662.015	0.385414
663.738	0.891996
665.46	0.687747
667.183	0.206875
668.903	0.685566
670.626	0.890558
672.346	1.05194
674.067	0.551983
675.787	0.672315
677.508	1.00068
679.226	0.985358
680.947	0.716063
682.665	1.1346
684.385	1.02188
686.102	1.29831
687.821	1.06639
689.538	0.948339
691.254	0.967657
692.972	0.0648813
694.688	1.00402
696.406	0.721327
698.121	0.483541
699.835	1.14201
701.552	1.0626
703.266	1.46487
704.98	1.06191
706.695	1.09497
708.409	1.44854
710.121	1.04495
711.836	1.16814
713.548	1.22212
715.26	1.2072
716.973	1.71732
718.685	1.6335
720.396	1.54999
722.108	1.4212
723.818	1.63397
725.528	1.55068
727.238	0.763063
728.949	1.58754
730.658	1.54846
732.367	1.62224
734.075	0.948976
735.785	1.70101
737.493	1.5713
739.2	1.51022
740.907	1.83347
742.614	1.52681
744.322	1.69476
746.028	1.61654
747.734	1.94483
749.439	2.00452
751.144	1.90819
752.849	1.52086
754.555	1.69734
756.26	1.89801
757.963	1.85287
759.667	1.87685
761.37	2.10501
763.073	1.63464
764.775	1.50197
766.477	1.52607
768.179	1.54823
769.883	2.38206
771.584	2.30929
773.285	1.82782
774.986	1.48151
776.686	1.94971
778.386	2.55497
780.085	2.32531
781.785	2.14204
783.484	2.50197
785.182	2.5213
786.881	2.08522
788.579	2.18891
790.276	1.97217
791.974	2.20472
793.671	2.00598
795.367	2.1005
797.064	1.58725
798.76	2.11252
800.456	2.09887
802.151	2.28927
803.846	2.00799
805.541	1.68181
807.234	2.20888
808.928	1.97054
810.622	2.02291
812.315	2.05173
814.008	1.76616
815.701	2.53292
817.394	2.15755
819.086	2.47568
820.778	2.39149
822.468	2.17396
824.159	2.84945
825.85	2.90172
827.541	2.68908
829.231	2.5465
830.921	2.25146
832.609	3.25164
834.298	2.22675
835.987	2.42859
837.676	2.22874
839.364	2.38466
841.051	1.9805
842.738	1.5746
844.426	1.88304
846.113	2.68401
847.798	1.94463
849.484	2.05734
851.171	2.03861
852.857	1.99955
854.54	1.31074
856.226	1.72095
857.911	2.62545
859.593	1.50443
861.278	1.5507
862.961	1.52767
864.645	1.68352
866.327	1.43266
868.01	1.97017
869.692	1.19928
871.373	1.64585
873.055	1.70879
874.735	1.50089
876.416	1.85708
878.097	2.23594
879.776	1.53128
881.457	1.23241
883.135	2.15182
884.815	1.64777
886.495	1.684
888.172	2.21484
889.851	1.05209
891.528	1.57932
893.206	1.60889
894.882	1.59212
896.56	1.52921
898.237	1.39793
899.912	1.91643
901.589	1.31254
903.263	1.60458
904.94	1.31456
906.614	0.86926
908.289	1.60723
909.962	1.34235
911.635	1.65739
913.31	1.50581
914.982	1.24391
916.656	1.62583
918.328	1.65237
920.001	0.992544
921.672	2.08213
923.345	1.75646
925.015	1.65395
926.685	1.11201
928.357	1.41101
930.026	1.24781
931.698	1.06335
933.366	1.7837
935.035	1.20267
936.705	1.15152
938.373	1.21157
940.041	1.27291
941.71	1.90913
943.377	1.00187
945.044	1.44038
946.712	0.950698
948.378	1.36407
950.044	1.0911
951.709	0.706633
953.376	1.27077
955.041	1.41731
956.706	1.12579
958.372	1.23469
960.036	1.72197
961.699	1.26188
963.362	1.39785
965.027	1.00138
966.69	1.33181
968.352	1.19464
970.014	0.988792
971.676	1.31288
973.339	1.26135
975	1.0787
976.661	1.2961
978.322	0.984313
979.982	1.07141
981.642	1.15816
983.303	1.1328
984.962	1.32671
986.621	1.62893
988.28	2.41563
989.938	1.96178
991.596	1.66232
993.254	0.810813
994.911	0.931655
996.57	1.22896
998.227	1.08493
999.884	0.940813
1001.54	1.69934
1003.2	1.44406
1004.85	1.16676
1006.51	1.26328
1008.16	1.07432
1009.82	0.995694
1011.47	1.4001
1013.12	0.511435
1014.78	1.31083
1016.43	1.27788
1018.08	1.11425
1019.74	1.1485
1021.39	0.899643
1023.04	1.41717
1024.69	1.65148
1026.34	1.12159
1028	0.919608
1029.65	0.717011
1031.3	1.25576
1032.95	1.24659
1034.6	1.10467
1036.25	1.41922
1037.9	0.53418
1039.54	1.13061
1041.19	1.29181
1042.84	0.758642
1044.49	0.684215
1046.14	0.698818
1047.78	1.01951
1049.43	0.842479
1051.08	1.01435
1052.72	1.59995
1054.37	0.947669
1056.02	0.642856
1057.66	0.92457
1059.31	1.77115
1060.95	1.16033
1062.6	1.13567
1064.24	1.02302
1065.88	1.1049
1067.53	1.44631
1069.17	0.4394
1070.81	0.301233
1072.45	0.96619
1074.1	0.437718
1075.74	0.56144
1077.38	0.946774
1079.02	0.379255
1080.66	0.571581
1082.3	0.720552
1083.94	0.890265
1085.58	0.62462
1087.22	0.205297
1088.86	1.12677
1090.5	0.0976849
1092.14	0.279621
1093.78	1.17334
1095.42	1.13779
1097.05	1.03857
1098.69	0.833317
1100.33	0.996239
1101.96	0.709271
1103.6	1.15589
1105.24	0.743462
1106.87	0.804957
1108.51	0.457544
1110.14	0.15211
1111.78	0.790886
1113.41	-0.0978575
1115.05	0.193845
1116.68	0.227089
1118.31	0.796323
1119.95	0.508595
1121.58	0.843239
1123.21	0.793503
1124.85	0.338405
1126.48	0.0984383
1128.11	0.479566
1129.74	0.925483
1131.37	0.602298
1133	0.749823
1134.63	0.341429
1136.26	0.167573
1137.89	0.0995293
1139.52	0.32931
1141.15	-0.0826702
1142.78	-0.110699
1144.41	0.266668
1146.04	-0.123061
1147.66	-0.127879
1149.29	0.0812731
1150.92	0.0565491
1152.55	-0.0107212
1154.17	0.0707216
1155.8	0.321958
1157.43	0.317593
1159.05	0.122191
1160.68	0.076643
1162.3	0.159868
1163.93	0.159128
1165.55	0.307789
1167.17	-0.139127
1168.8	-0.098094
1170.42	0.132479
1172.05	0.127136
1173.67	-0.113626
1175.29	-0.0159197
1176.91	-0.47009
1178.54	0.347575
1180.16	0.233427
1181.78	0.120399
1183.4	0.198513
1185.02	0.445636
1186.64	-0.00535011
1188.26	-0.225285
1189.88	-0.489002
1191.5	-0.269864
1193.12	0.388684
1194.74	-0.257206
1196.36	0.168003
1197.97	0.404589
1199.59	0.203292
1201.21	0.422824
1202.83	0.895473
1204.44	0.577488
1206.06	0.0534811
1207.68	0.26128
1209.29	-0.0938444
1210.91	0.00916386
1212.52	0.548189
1214.14	0.0424376
1215.75	-0.152688
1217.37	0.357911
1218.98	0.201404
1220.59	0.356463
1222.21	0.346027
1223.82	0.399118
1225.43	0.515884
1227.05	1.02734
1228.66	0.360909
1230.27	0.48209
1231.88	0.666531
1233.49	0.521557
1235.1	1.14267
1236.72	0.463039
1238.33	0.880031
1239.94	0.574234
1241.55	0.744241
1243.16	1.14156
1244.76	1.06227
1246.37	1.64401
1247.98	0.714043
1249.59	1.12823
1251.2	0.942034
1252.8	1.1905
1254.41	1.02608
1256.02	1.06971
1257.62	1.90088
1259.23	0.830058
1260.84	1.10509
1262.44	1.09097
1264.05	1.6155
1265.66	2.1814
1267.26	1.56526
1268.86	1.52825
1270.47	1.15829
1272.07	0.807858
1273.67	1.90757
1275.28	1.0159
1276.88	1.82282
1278.48	1.90325
1280.09	1.3824
1281.69	1.71022
1283.29	1.60343
1284.89	1.78687
1286.49	1.64047
1288.09	2.21876
1289.69	1.66139
1291.29	1.80732
1292.89	1.45728
1294.49	1.25111
1296.09	1.89034
1297.69	2.5685
1299.29	2.04729
1300.89	1.40127
1302.49	1.72295
1304.08	1.63137
1305.68	1.5391
1307.28	2.08309
1308.88	2.07167
1310.47	1.85532
1312.07	1.45565
1313.66	1.71209
1315.26	1.82618
1316.85	1.18577
1318.45	1.73033
1320.04	1.58082
1321.64	1.32867
1323.23	2.60148
1324.83	2.34494
1326.42	1.661
1328.01	1.76881
1329.61	0.864594
1331.2	1.11706
1332.79	1.83622
1334.38	1.16368
1335.97	1.26068
1337.56	2.06413
1339.16	1.15263
1340.75	0.885053
1342.34	1.62173
1343.93	2.0531
1345.52	1.63891
1347.11	0.584186
1348.7	1.01589
1350.29	1.40946
1351.87	1.18539
1353.46	1.00388
1355.05	1.08382
1356.64	0.764518
1358.22	0.464931
1359.81	1.46251
1361.4	1.53988
1362.98	0.977859
1364.57	0.894546
1366.16	0.69205
1367.74	0.968577
1369.33	0.509681
1370.91	0.868549
1372.5	0.671667
1374.08	1.31176
1375.67	0.480176
1377.25	0.52422
1378.83	0.945823
1380.41	0.371431
1382	1.16843
1383.58	0.750473
1385.16	0.828666
1386.74	0.568528
1388.33	1.06339
1389.91	0.923375
1391.49	0.764631
1393.07	0.785408
1394.65	1.40162
1396.23	0.609525
1397.81	1.04611
1399.39	0.332009
1400.97	0.667202
1402.55	0.546121
1404.13	0.781237
1405.7	0.640976
1407.28	0.818027
1408.86	0.0475016
1410.44	0.482915
1412.01	0.602104
1413.59	0.66137
1415.17	0.364454
1416.74	0.461329
1418.32	0.675925
1419.89	0.614848
1421.47	1.04724
1423.04	0.733055
1424.62	0.755414
1426.19	1.11377
1427.77	1.02007
1429.34	0.670209
1430.91	1.22476
1432.49	0.774291
1434.06	0.893477
1435.63	0.815425
1437.2	1.60271
1438.78	1.42726
1440.35	2.09814
1441.92	1.59089
1443.49	1.51684
1445.06	1.4236
1446.63	1.70401
1448.2	2.0043
1449.77	1.91181
1451.34	1.97713
1452.91	2.22012
1454.48	1.93255
1456.05	1.86126
1457.62	2.22216
1459.18	1.71569
1460.75	1.46308
1462.32	1.77897
1463.89	1.77806
1465.45	1.48105
1467.02	1.65537
1468.59	1.84954
1470.15	0.72973
1471.72	0.710611
1473.28	1.8106
1474.85	0.989339
1476.41	0.855042
1477.98	0.87775
1479.54	0.586752
1481.1	0.864104
1482.67	0.710165
1484.23	0.3406
1485.79	0.440953
1487.36	1.06925
1488.92	0.521018
1490.48	0.284389
1492.04	0.984217
1493.61	0.781877
1495.17	0.441403
1496.73	0.704569
1498.29	0.07166
1499.85	0.393227
1501.41	0.288092
1502.97	0.611114
1504.53	0.508238
1506.09	-0.0974388
1507.65	0.225657
1509.2	-0.129128
1510.76	0.866384
1512.32	0.162592
1513.88	0.153044
1515.43	0.355139
1516.99	0.326982
1518.55	0.146323
1520.1	0.92448
1521.66	-0.00178051
1523.22	0.449817
1524.77	0.0786219
1526.33	0.203008
1527.88	0.649785
1529.44	0.467209
1530.99	0.399045
1532.54	0.350572
1534.1	0.397852
1535.65	0.767699
1537.21	1.08109
1538.76	0.016757
1540.31	0.463477
1541.86	0.438478
1543.42	0.65809
1544.97	0.933445
1546.52	0.907495
1548.07	0.431094
1549.62	0.705377
1551.17	0.679694
1552.72	0.729451
1554.27	0.611931
1555.82	0.570798
1557.37	0.494296
1558.92	1.59548
1560.47	0.440991
1562.02	1.04203
1563.56	0.860798
1565.11	0.81079
1566.66	1.37672
1568.21	1.15866
1569.75	1.29477
1571.3	1.39311
1572.85	1.60314
1574.39	1.49566
1575.94	1.59354
1577.49	0.926252
1579.03	1.60356
1580.57	1.66554
1582.12	1.61639
1583.66	1.69896
1585.21	0.810669
1586.75	1.38051
1588.3	1.61432
1589.84	1.15576
1591.38	2.02538
1592.92	1.54685
1594.47	1.55466
1596.01	1.26274
1597.55	1.72077
1599.09	2.06741
1600.63	1.92747
1602.17	1.76916
1603.71	1.32901
1605.25	1.82702
1606.79	1.34661
1608.33	1.69081
1609.87	1.41217
1611.41	1.69467
1612.95	1.95587
1614.49	1.61465
1616.03	2.0048
1617.57	1.15786
1619.1	1.94307
1620.64	1.19365
1622.18	1.68198
1623.72	1.57201
1625.25	1.87394
1626.79	2.0626
1628.32	1.80062
1629.86	1.51852
1631.39	1.53452
1632.93	1.69944
1634.46	1.75249
1636	1.69445
1637.53	2.04783
1639.07	1.63731
1640.6	2.21489
1642.13	2.26968
1643.67	2.02519
1645.2	2.31918
1646.73	2.40712
1648.26	2.06716
1649.8	2.32229
1651.33	2.94939
1652.86	2.4645
1654.39	2.29659
1655.92	2.4076
1657.45	3.16697
1658.98	2.18382
1660.51	2.53287
1662.04	2.30625
1663.57	2.37431
1665.1	2.77401
1666.63	2.84128
1668.16	2.15363
1669.68	2.53769
1671.21	2.35202
1672.74	2.42571
1674.27	2.38944
1675.79	2.22406
1677.32	2.05782
1678.85	2.11118
1680.37	2.0345
1681.9	2.01212
1683.42	1.42012
1684.95	1.78316
1686.47	1.8894
1688	1.04295
1689.52	1.62674
1691.05	1.47782
1692.57	1.14614
1694.09	0.997622
1695.62	0.958751
1697.14	1.15716
1698.66	1.02626
1700.18	0.840263
1701.71	0.599209
1703.23	0.485436
1704.75	0.334799
1706.27	0.893515
1707.79	0.741952
1709.31	1.02647
1710.83	0.530219
1712.35	0.887226
1713.87	1.09887
1715.39	0.368885
1716.91	0.978533
1718.43	0.177327
1719.95	0.984499
1721.47	0.401222
1722.99	0.720898
1724.5	0.482698
1726.02	0.768404
1727.54	0.353316
1729.06	0.443435
1730.57	0.67483
1732.09	0.686437
1733.61	0.752352
1735.12	0.788974
1736.64	0.211008
1738.15	0.729109
1739.67	0.305723
1741.18	0.468188
1742.7	0.402371
1744.21	0.764767
1745.72	0.755032
1747.24	0.445851
1748.75	0.491685
1750.26	0.41409
1751.77	0.562298
1753.29	0.440842
1754.8	0.182555
1756.31	0.376254
1757.82	0.319165
1759.33	0.236207
1760.84	0.354991
1762.36	0.213634
1763.87	0.537712
1765.38	0.457165
1766.89	0.398516
1768.4	0.655536
1769.91	0.180547
1771.41	-0.0533676
1772.92	0.210935
1774.43	0.462295
1775.94	0.885871
1777.45	0.226344
1778.95	0.349842
1780.46	-0.138157
1781.97	0.411404
1783.48	0.379901
1784.98	-0.458817
1786.49	0.496417
1787.99	0.160666
1789.5	0.367229
1791.01	0.365569
1792.51	0.305011
1794.01	0.42497
1795.52	0.242797
1797.02	0.0536757
1798.53	0.275634
1800.03	0.547171
1801.53	0.190985
1803.04	0.490136
1804.54	0.494531
1806.04	0.17369
1807.54	0.390961
1809.05	0.336262
1810.55	-0.181532
1812.05	-0.191242
1813.55	0.167848
1815.05	-0.0645275
1816.55	0.391845
1818.05	0.238358
1819.55	0.0697584
1821.05	0.0271692
1822.55	0.111879
1824.05	-0.0344725
1825.55	-0.173235
1827.05	0.0658636
1828.55	0.10356
1830.04	0.268579
1831.54	0.065568
1833.04	-0.159795
1834.54	0.287893
1836.03	0.136503
1837.53	0.16904
1839.03	0.181099
1840.52	0.214403
1842.02	-0.0321846
1843.51	0.138888
1845.01	0.0682926
1846.5	0.0900059
1848	0.424725
1849.49	-0.0530481
1850.99	0.206725
1852.48	-0.00406647
1853.97	-0.143667
1855.47	0.0652208
1856.96	0.27689
1858.45	0.222957
1859.94	0.0387154
1861.44	-0.0860443
1862.93	-0.197451
1864.42	-0.0442047
1865.91	0.306731
1867.4	-0.0752039
1868.89	-0.093648
1870.38	-0.182806
1871.87	0.106628
1873.36	0.0817661
1874.85	0.145989
1876.34	0.0532932
1877.83	-0.00757694
1879.32	-0.0425177
1880.81	-0.013648
1882.3	-0.255939
1882.57	-0.319298
1884.07	0.202306
1885.56	-0.00920963
1887.06	0.0746212
1888.55	-0.0162354
1890.04	-0.054575
1891.54	-0.109203
1893.03	-0.0751534
1894.52	-0.421678
1896.02	-0.0537577
1897.51	-0.0153027
1899	0.475292
1900.49	-0.00936413
1901.98	-0.0782804
1903.47	-0.0447073
1904.96	0.00469875
1906.45	0.313838
1907.94	-0.367154
1909.43	-0.248427
1910.92	0.513169
1912.41	-0.147122
1913.9	0.130003
1915.39	0.00827312
1916.88	-0.200461
1918.37	0.179621
1919.85	-0.22069
1921.34	0.314485
1922.83	0.12254
1924.32	0.451015
1925.8	0.365209
1927.29	0.228634
1928.78	-0.0284843
1930.26	-0.0259838
1931.75	-0.00705242
1933.23	0.408553
1934.72	0.4585
1936.2	0.00481701
1937.69	-7.72476e-005
1939.17	0.322842
1940.66	-0.148596
1942.14	0.140753
1943.63	0.258457
1945.11	-0.105829
1946.59	0.0993729
1948.07	-0.0232592
1949.56	0.507979
1951.04	0.159526
1952.52	-0.13792
1954	-0.057291
1955.48	0.212168
1956.96	0.258467
1958.45	0.0651913
1959.93	0.353215
1961.41	-0.0271511
1962.89	-0.0299339
1964.37	0.0356026
1965.85	0.186147
1967.32	0.164627
1968.8	0.262147
1970.28	-0.0513191
1971.76	0.130687
1973.24	0.158759
1974.72	-0.0689325
1976.19	0.504933
1977.67	0.124404
1979.15	-0.27254
1980.63	-0.226748
1982.1	0.34573
1983.58	0.49242
1985.05	0.265102
1986.53	-0.0978146
1988	0.048213
1989.48	0.041954
1990.95	-0.115865
1992.43	0.454764
1993.9	0.045433
1995.38	0.194973
1996.85	0.22662
1998.32	-0.16402
1999.8	0.120415
2001.27	0.268962
2002.74	0.0289001
2004.22	-0.227919
2005.69	-0.383021
2007.16	0.00175953
2008.63	0.353624
2010.1	0.31906
2011.57	0.537574
2013.04	0.251139
2014.51	0.149414
2015.98	0.131001
2017.45	-0.44338
2018.92	0.242634
2020.39	0.288926
2021.86	-0.0848017
2023.33	0.0289717
2024.8	0.361616
2026.27	0.00763988
2027.74	-0.260805
2029.2	0.428373
2030.67	0.498485
2032.14	0.032691
2033.61	0.171442
2035.07	0.209489
2036.54	-0.256831
2038.01	-0.0686522
2039.47	-0.0656767
2040.94	-0.113179
2042.4	0.209626
2043.87	0.163405
2045.33	0.067646
2046.8	-0.128414
2048.26	0.147293
2049.72	0.692574
2051.19	0.124361
2052.65	-0.00741673
2054.12	0.381656
2055.58	-0.006917
2057.04	0.243819
2058.5	0.105968
2059.97	0.406009
2061.43	0.386377
2062.89	0.451822
2064.35	0.451043
2065.81	0.333568
2067.27	0.233846
2068.73	0.437697
2070.19	0.120103
2071.65	0.610588
2073.11	0.764282
2074.57	0.227296
2076.03	-0.0406933
2077.49	0.330846
2078.95	0.163064
2080.41	0.432603
2081.87	0.583608
2083.32	0.565483
2084.78	0.647499
2086.24	0.560426
2087.7	0.809004
2089.15	0.401464
2090.61	0.212469
2092.07	0.711895
2093.52	0.287833
2094.98	0.685663
2096.43	0.445596
2097.89	0.422825
2099.34	0.349206
2100.8	0.409143
2102.25	0.987242
2103.71	0.914257
2105.16	0.525743
2106.61	0.956575
2108.07	0.404282
2109.52	0.552942
2110.97	0.817583
2112.43	1.03053
2113.88	1.10807
2115.33	1.2502
2116.78	0.908978
2118.23	1.16669
2119.68	1.60816
2121.13	0.873587
2122.59	0.987597
2124.04	1.26903
2125.49	0.705482
2126.94	1.07017
2128.39	1.45014
2129.83	1.56314
2131.28	1.70761
2132.73	1.53649
2134.18	1.86183
2135.63	1.57605
2137.08	1.88731
2138.53	1.3248
2139.97	1.80575
2141.42	2.04085
2142.87	1.9964
2144.31	2.23395
2145.76	1.5119
2147.21	2.39495
2148.65	1.96937
2150.1	2.08918
2151.54	1.893
2152.99	2.27552
2154.43	2.07712
2155.88	2.19296
2157.32	2.14324
2158.77	2.62451
2160.21	2.6768
2161.65	2.20107
2163.1	2.2412
2164.54	2.88052
2165.98	2.07734
2167.43	2.4525
2168.87	2.5608
2170.31	2.35093
2171.75	2.77047
2173.19	2.80497
2174.64	2.65476
2176.07	2.48726
2177.52	2.50299
2178.96	2.51969
2180.4	2.42125
2181.84	2.44028
2183.28	2.31036
2184.72	2.04768
2186.15	2.73324
2187.59	2.62041
2189.03	2.50758
2190.47	2.07841
2191.91	2.53113
2193.35	2.4835
2194.78	2.36758
2196.22	2.0996
2197.66	2.01238
2199.09	2.3721
2200.53	2.03223
2201.97	2.25718
2203.4	1.65314
2204.84	1.99627
2206.27	1.69395
2207.71	1.4919
2209.14	1.91903
2210.58	2.07997
2212.01	1.46209
2213.45	1.53837
2214.88	1.8126
2216.31	1.50951
2217.75	1.4226
2219.18	1.50213
2220.61	1.66503
2222.05	1.56427
2223.48	1.5945
2224.91	0.832657
2226.34	1.27099
2227.78	1.03267
2229.21	1.33529
2230.64	1.16063
2232.07	1.10084
2233.5	1.2052
2234.93	1.26115
2236.36	0.632278
2237.79	0.577534
2239.22	0.671801
2240.65	0.915019
2242.08	0.573034
2243.5	0.770657
2244.93	0.756626
2246.36	0.611335
2247.79	0.774158
2249.22	0.184587
2250.64	0.912827
2252.07	0.368403
2253.5	0.81601
2254.92	0.515838
2256.35	0.461287
2257.78	0.750166
2259.2	0.506704
2260.63	0.623429
2262.05	0.418266
2263.48	0.441991
2264.9	0.791063
2266.33	0.766129
2267.75	0.691452
2269.18	0.762141
2270.6	0.245946
2272.02	0.689639
2273.45	0.791334
2274.87	0.876885
2276.29	-0.0800943
2277.71	0.136097
2279.14	0.222053
2280.56	0.797195
2281.98	0.556943
2283.4	0.642781
2284.82	-0.0382719
2286.24	0.537446
2287.66	0.264846
2289.08	-0.0237904
2290.5	0.161654
2291.92	0.282159
2293.34	0.337486
2294.76	0.360109
2296.18	0.464507
2297.6	0.0612869
2299.02	0.607985
2300.44	0.450604
2301.86	-0.132951
2303.27	0.267594
2304.69	-0.299761
2306.11	0.446093
2307.53	0.0421038
2308.94	-0.329944
2310.36	0.283767
2311.78	-0.089489
2313.19	0.590074
2314.61	0.184193
2316.02	0.388074
2317.44	0.0493126
2318.85	0.00737572
2320.27	0.0970736
2321.68	0.466172
2323.1	0.0907125
2324.51	0.504863
2325.92	0.404935
2327.34	0.682528
2328.75	0.382196
2330.16	0.395392
2331.58	0.277865
2332.99	0.211021
2334.4	-0.0852203
2335.81	0.474333
2337.23	-0.0194502
2338.64	-0.0207586
2340.05	0.223192
2341.46	0.252378
2342.87	0.39586
2344.28	0.309541
2345.69	0.518643
2347.1	0.269202
2348.51	-0.290914
2349.92	-0.14733
2351.33	-0.135535
2352.74	-0.0431366
2354.15	-0.180323
2355.55	-0.171249
2356.96	-0.178807
2358.37	0.0575809
2359.78	-0.0150881
2361.19	0.431848
2362.59	0.229335
2364	-0.102436
2365.41	0.181199
2366.81	0.141239
2368.22	-0.253152
2369.62	0.257579
2371.03	0.253146
2372.44	-0.136462
2373.84	-0.0415468
2375.24	0.166349
2376.65	0.0679512
2378.05	0.0971222
2379.46	0.0281763
2380.86	-0.41162
2382.26	-0.130403
2383.67	-0.0429449
2385.07	0.268009
2386.47	0.131336
2387.88	-0.00403786
2389.28	0.308565
2390.68	0.032567
2392.08	0.188079
2393.48	0.487681
2394.89	0.278992
2396.29	0.262026
2397.69	0.3888
2399.09	-0.198855
2400.49	-0.00732708
2401.89	0.518018
2403.29	0.392124
2404.69	0.234097
2406.09	0.0434437
2407.48	-0.0528603
2408.88	-0.0706062
2410.28	0.196651
2411.68	-0.0113926
2413.08	-0.0916691
2414.48	0.130277
2415.87	0.401228
2417.27	0.23035
2418.67	0.361267
2420.06	-0.0616932
2421.46	0.243712
2422.86	0.152759
2424.25	0.473454
2425.65	0.699229
2427.04	-0.231322
2428.44	0.582525
2429.83	0.224349
2431.23	0.390238
2432.62	0.556446
2434.02	0.356906
2435.41	-0.161757
2436.81	0.493575
2438.2	0.607065
2439.59	-0.0116119
2440.99	0.480652
2442.38	0.178297
2443.77	-0.155861
2445.16	0.350707
2446.56	0.428614
2447.95	-0.064187
2449.34	-0.0655146
2450.73	0.313397
2452.12	0.344411
2453.51	-0.003479
2454.9	0.266687
2456.29	-0.0793915
2457.68	0.00198936
2459.07	0.0357304
2460.46	0.369314
2461.85	-0.246749
2463.24	0.148259
2464.63	0.0209932
2466.02	0.0198603
2467.4	0.318553
2468.79	0.459144
2470.18	-0.110295
2471.57	-0.175259
2472.95	0.0269337
2474.34	-0.149758
2475.73	0.0191936
2477.12	0.376093
2478.5	0.543921
2479.89	0.319386
2481.27	0.659848
2482.66	-0.284998
2484.04	0.21135
2485.43	0.252316
2486.81	0.260714
2488.2	0.065052
2489.58	0.149597
2490.97	0.327167
2492.35	-0.023613
2493.73	0.310753
2495.12	0.13402
2496.5	0.299939
2497.88	-0.168495
2499.27	0.261707
2500.65	-0.144283
2502.03	-0.22594
2503.41	-0.0614252
2504.79	-0.191232
2506.17	0.325709
2507.56	0.0717478
2508.94	0.110588
2510.32	0.257311
2511.7	-0.209216
2513.08	0.0923386
2514.46	0.470899
2515.84	0.360103
2517.22	-0.514524
2518.59	0.0494804
2519.97	-0.288482
2521.35	0.106704
2522.73	-0.186114
2524.11	0.222176
2525.49	-0.163391
2526.86	-0.167911
2528.24	-0.0502529
2529.62	0.00758743
2530.99	-0.00893497
2532.37	-0.190796
2533.75	-0.188869
2535.12	0.163208
2536.5	0.0898266
2537.88	0.562585
2539.25	-0.0138083
2540.63	0.0772648
2542	0.0464907
2543.38	0.258818
2544.75	-0.210635
2546.12	-0.344972
2547.5	0.341056
2548.87	-0.640706
2550.24	0.668551
2551.62	0.293089
2552.99	0.326336
2554.36	0.0853119
2555.74	0.0254755
2557.11	-0.110742
2558.48	0.177563
2559.85	-0.382907
2561.22	-0.124141
2562.59	0.150368
2563.96	0.379996
2565.34	-0.0566893
2566.71	-0.0385017
2568.08	0.131337
2569.45	0.14964
2570.82	0.395304
2572.18	-0.0865297
2573.55	0.0531759
2574.92	-0.00408268
2576.29	0.0448189
2577.66	-0.285419
2579.03	0.0512476
2580.4	-0.158317
2581.77	0.116909
2583.13	-0.0176506
2584.5	-0.0614672
2585.87	0.18268
2587.23	0.00252628
2588.6	0.322731
2589.97	0.40054
2591.33	-0.35525
2592.7	0.328024
2594.06	0.146729
2595.43	0.252158
2596.79	-0.112824
2598.16	0.126849
2599.52	0.335628
2600.89	0.196765
2602.25	0.360641
2603.62	0.132621
2604.98	0.659854
2606.34	0.32711
2607.71	0.325966
2609.07	0.323888
2610.43	0.516286
2611.79	0.210305
2613.16	0.294536
2614.52	0.287643
2615.88	0.29551
2617.24	0.198702
2618.6	0.327378
2619.96	0.142443
2621.32	-0.205883
2622.68	0.0146112
2624.04	0.324635
2625.4	0.261133
2626.76	0.495667
2628.12	0.193078
2629.48	0.247957
2630.84	0.0198593
2632.2	0.148782
2633.56	0.128906
2634.92	0.257451
2636.28	-0.222258
2637.63	0.336028
2638.99	-0.0540934
2640.35	-0.206723
2641.71	0.17334
2643.06	0.109967
2644.42	0.00257015
2645.77	0.323041
2647.13	-0.1092
2648.49	0.0476704
2649.84	-0.164478
2651.2	-0.0535088
2652.55	0.24783
2653.91	-0.155368
2655.26	0.087903
2656.62	-0.180666
2657.97	-0.154944
2659.33	0.178853
2660.68	0.395761
2662.03	0.0423307
2663.39	0.38971
2664.74	0.370871
2666.09	-0.144648
2667.44	-0.135216
2668.8	-0.11132
2670.15	0.101968
2671.5	0.184647
2672.85	0.645668
2674.2	0.366233
2675.55	-0.231596
2676.91	0.172776
2678.26	-0.0460958
2679.61	-0.104465
2680.96	0.113734
2682.31	-0.0582743
2683.66	0.394457
2685	-0.152425
2686.35	0.229455
2687.7	0.480733
2689.05	0.0775385
2690.4	0.238669
2691.75	0.136559
2693.1	0.482651
2694.44	-0.129635
2695.79	0.041151
2697.14	-0.22214
2698.49	0.283591
2699.83	0.197263
2701.18	0.315518
2702.52	0.261604
2703.87	0.165287
2705.22	-0.119057
2706.56	0.24909
2707.91	0.0513496
2709.25	0.14335
2710.6	0.133366
2711.94	-0.00765133
2713.29	0.0399961
2714.63	0.0730686
2715.97	0.353271
2717.32	0.211687
2718.66	0.302521
2720.01	0.567604
2721.35	0.599426
2722.69	0.61616
2724.03	0.224807
2725.38	0.284193
2726.72	0.284946
2728.06	0.241696
2729.4	0.329165
2730.74	0.489207
2732.08	0.0526848
2733.42	0.0527611
2734.76	0.0384712
2736.1	0.213468
2737.44	-0.0186501
2738.78	0.316402
2740.12	0.622048
2741.46	0.86893
2742.8	0.446287
2744.14	0.793318
2745.48	0.340419
2746.82	-0.272328
2748.16	-0.0428724
2749.49	0.389549
2750.83	0.401245
2752.17	0.340714
2753.51	0.309456
2754.84	0.0321054
2756.18	0.609591
2757.52	0.448467
2758.85	0.43247
2760.19	0.359009
2761.53	-0.336152
2762.86	-0.148036
2764.2	0.0403643
2765.53	0.358928
2766.87	0.0693207
2768.2	0.198268
2769.54	0.224548
2770.87	0.00358486
2772.2	0.142486
2773.54	-0.484645
2774.87	0.0132132
2776.2	0.00604343
2777.54	0.186351
2778.87	0.26628
2780.2	0.116731
2781.53	0.398521
2782.87	-0.224074
2784.2	0.373093
2785.53	-0.148438
2786.86	0.233233
2788.19	-0.401329
2789.52	0.110149
2790.85	-0.350407
2792.18	-0.223673
2793.51	-0.0679626
2794.84	0.101995
2796.17	-0.0856981
2797.5	0.168929
2798.83	0.379942
2800.16	0.00517654
2801.49	0.115469
2802.82	0.396536
2804.15	0.306508
2805.47	0.273058
2806.8	0.253217
2808.13	0.374943
2809.46	-0.21454
2810.78	-0.192453
2812.11	0.199188
2813.44	0.222808
2814.76	0.205425
2816.09	0.104536
2817.42	-0.179419
2818.74	0.415984
2820.07	-0.0091238
2821.39	0.0755358
2822.72	0.287004
2824.04	0.271043
2825.37	0.098917
2826.69	0.0118885
2828.02	0.137807
2829.34	0.462475
2830.66	0.53278
2831.99	0.376811
2833.31	0.263241
2834.63	0.503177
2835.96	0.190598
2837.28	0.401076
2838.6	0.398811
2839.92	0.46704
2841.24	1.0019
2842.57	0.915039
2843.89	0.998506
2845.21	1.22406
2846.53	1.21003
2847.85	1.43665
2849.17	1.26754
2850.49	1.77653
2851.81	1.64892
2853.13	1.54902
2854.45	1.95743
2855.77	1.65908
2857.09	1.75635
2858.41	1.5429
2859.72	1.64018
2861.04	1.85019
2862.36	1.90448
2863.68	2.31118
2865	2.70327
2866.31	2.1359
2867.63	2.83835
2868.95	2.7937
2870.26	2.66494
2871.58	2.74782
2872.9	2.81625
2874.21	3.02471
2875.53	3.09099
2876.84	2.70546
2878.16	3.40289
2879.47	3.63517
2880.79	3.4178
2882.1	3.27184
2883.42	2.84629
2884.73	3.58743
2886.05	3.43047
2887.36	3.31574
2888.67	3.21457
2889.99	3.85601
2891.3	3.06581
2892.61	3.52295
2893.92	3.71333
2895.24	3.24587
2896.55	3.54953
2897.86	3.91016
2899.17	4.24383
2900.48	3.93481
2901.79	4.10197
2903.11	3.61192
2904.42	4.43686
2905.73	4.08716
2907.04	4.3116
2908.35	4.74683
2909.66	4.67947
2910.97	5.01858
2912.27	4.47592
2913.58	5.08019
2914.89	5.30489
2916.2	6.11549
2917.51	5.13244
2918.82	5.85569
2920.13	6.10278
2921.43	5.88915
2922.74	6.4879
2924.05	6.10975
2925.35	6.62758
2926.66	7.03435
2927.97	6.6024
2929.27	6.42158
2930.58	7.16276
2931.89	6.56129
2933.19	7.51115
2934.5	7.41257
2935.8	7.18836
2937.11	6.47529
2938.41	6.68479
2939.72	6.88064
2941.02	6.46229
2942.32	6.56201
2943.63	6.17405
2944.93	6.0392
2946.24	6.12944
2947.54	5.6468
2948.84	5.31742
2950.14	5.3785
2951.45	5.3955
2952.75	5.20023
2954.05	5.22737
2955.35	5.04413
2956.65	4.75003
2957.95	4.59828
2959.26	4.33755
2960.56	4.26183
2961.86	4.49671
2963.16	3.80679
2964.46	3.92951
2965.76	3.82604
2967.06	4.59202
2968.36	3.65593
2969.66	3.64659
2970.96	3.9325
2972.25	3.59986
2973.55	3.11262
2974.85	3.62452
2976.15	3.29116
2977.45	3.25195
2978.74	3.08412
2980.04	3.19593
2981.34	3.06699
2982.64	3.05007
2983.93	2.4712
2985.23	2.63884
2986.52	1.96496
2987.82	1.81266
2989.12	1.99865
2990.41	2.00225
2991.71	1.58366
2993	2.0072
2994.3	1.9515
2995.59	1.85244
2996.89	1.34552
2998.18	1.38611
2999.48	0.992112
3000.77	1.08974
3002.06	1.27202
3003.36	0.529822
3004.65	0.558616
3005.94	0.64313
3007.23	0.838924
3008.53	0.488008
3009.82	0.765764
3011.11	0.776885
3012.4	0.494362
3013.69	0.519195
3014.99	0.446862
3016.28	0.445031
3017.57	0.611056
3018.86	0.568733
3020.15	0.178861
3021.44	0.344905
3022.73	0.0515223
3024.02	0.284906
3025.31	0.0873308
3026.6	0.457763
3027.89	0.385259
3029.18	-0.0177088
3030.46	0.00977612
3031.75	0.54973
3033.04	-0.207286
3034.33	0.554585
3035.62	0.473801
3036.9	0.184872
3038.19	0.459256
3039.48	0.56595
3040.76	0.423309
3042.05	0.527107
3043.34	0.150917
3044.62	0.146246
3045.91	0.239065
3047.19	-0.0620899
3048.48	0.281298
3049.77	0.4083
3051.05	0.277688
3052.34	0.352668
3053.62	0.222988
3054.9	0.17451
3056.19	0.493202
3057.47	0.197062
3058.76	0.649722
3060.04	0.611434
3061.32	0.51921
3062.61	0.550583
3063.89	0.447518
3065.17	0.427779
3066.45	0.355195
3067.74	0.0661325
3069.02	0.484569
3070.3	0.698837
3071.58	0.368144
3072.86	0.199399
3074.14	0.206163
3075.42	0.130457
3076.7	-0.244219
3077.99	-0.0344048
3079.26	0.298502
3080.54	0.0088768
3081.82	-0.224764
3083.1	-0.199368
3084.38	-0.0646791
3085.66	0.0294342
3086.94	0.258879
3088.22	0.080409
3089.5	0.403424
3090.78	0.115266
3092.05	0.0848789
3093.33	0.136093
3094.61	0.241886
3095.89	-0.126572
3097.16	0.047473
3098.44	-0.130955
3099.72	0.151296
3100.99	-0.0813947
3102.27	0.105968
3103.54	0.0634189
3104.82	0.156838
3106.1	-0.317337
3107.37	-0.33033
3108.65	0.0502481
3109.92	0.066617
3111.2	0.449662
3112.47	0.0617342
3113.74	-0.000772476
3115.02	0.316279
3116.29	0.172017
3117.56	0.25739
3118.84	0.0975313
3120.11	0.167138
3121.38	0.493379
3122.66	0.0734453
3123.93	0.507131
3125.2	0.439723
3126.47	0.278187
3127.74	0.279785
3129.01	0.11968
3130.29	0.0818095
3131.56	0.300953
3132.83	0.209084
3134.1	0.279014
3135.37	0.267421
3136.64	0.619561
3137.91	0.175346
3139.18	0.283761
3140.45	0.513049
3141.72	0.526932
3142.99	0.594909
3144.26	0.50229
3145.52	0.665429
3146.79	0.453775
3148.06	0.189621
3149.33	0.756576
