200.43	-0.0675535
202.244	-0.046979
204.059	-0.025136
205.873	0.338244
207.688	0.482895
209.501	-0.490929
211.314	0.478135
213.127	0.692246
214.941	0.322775
216.753	0.607603
218.564	0.79521
220.375	0.813845
222.186	0.833525
223.999	0.0080595
225.809	0.875637
227.618	-0.165774
229.428	-0.506432
231.236	0.166351
233.045	0.428072
234.855	0.014801
236.663	0.97714
238.471	0.181971
240.278	0.691157
242.085	-0.00251389
243.891	0.96925
245.698	0.204197
247.503	0.137062
249.309	0.525863
251.116	0.331841
252.921	0.327973
254.725	0.0568504
256.529	0.557045
258.333	0.0936737
260.136	-0.488073
261.939	-0.00771236
263.742	0.161208
265.544	-0.102386
267.346	0.718822
269.148	-0.701767
270.949	-0.267261
272.75	0.600154
274.55	-0.245756
276.351	-0.0807257
278.15	0.299171
279.95	0.291224
281.749	0.449563
283.548	0.220836
285.346	0.0870657
287.144	0.168724
288.942	0.250186
290.739	0.428089
292.536	0.463484
294.333	0.261331
296.129	-0.24981
297.925	0.507285
299.721	-0.360231
301.514	0.348985
303.309	0.818076
305.104	0.450139
306.898	0.0576897
308.692	0.428213
310.486	0.179445
312.279	0.241762
314.072	0.662971
315.862	0.94325
317.654	0.201576
319.446	0.0805798
321.238	0.532743
323.029	0.986224
324.819	0.17607
326.608	0.296197
328.398	0.416247
330.188	0.559631
331.977	0.175688
333.766	0.172422
335.553	0.382239
337.341	0.709263
339.129	0.100843
340.917	0.75857
342.704	-0.0433187
344.489	0.302275
346.275	0.265955
348.062	0.397532
349.845	0.0282469
351.631	0.0649147
353.416	0.315738
355.201	0.302888
356.984	0.3363
358.768	1.01165
360.552	0.255981
362.333	0.119058
364.116	-0.0184727
365.899	0.841248
367.68	0.345632
369.462	0.32425
371.243	0.941485
373.023	-0.0996208
374.804	0.231896
376.585	-0.0038414
378.363	0.138738
380.143	0.753112
381.923	0.284928
383.7	0.477419
385.479	0.553531
387.256	-0.215039
389.034	-0.206713
390.812	0.507196
392.588	0.118011
394.365	-0.176548
396.14	-0.165456
397.916	0.0336304
399.691	0.279502
401.467	0.149121
403.24	0.276414
405.015	-0.043335
406.788	0.434581
408.563	0.841237
410.335	0.754399
412.109	0.620684
413.88	0.745561
415.654	0.448843
417.424	0.129516
419.197	0.162819
420.967	0.384149
422.739	0.112329
424.508	0.238794
426.279	0.622537
428.048	0.0193653
429.819	0.0964718
431.587	0.478612
433.356	0.814086
435.124	0.539704
436.891	-0.0632887
438.66	0.0136204
440.426	0.816409
442.194	0.420264
443.96	0.115904
445.725	-0.588267
447.492	-0.0754776
449.257	-0.218868
451.021	0.198776
452.787	-0.434451
454.551	0.239779
456.314	0.423461
458.079	0.164195
459.842	0.184618
461.604	0.345209
463.368	0.158594
465.13	0.299912
466.891	-0.183149
468.654	0.196395
470.415	0.182904
472.175	0.00717735
473.935	0.435829
475.696	-0.185119
477.456	0.356104
479.215	-0.0829859
480.973	0.548341
482.733	1.34269
484.491	0.344934
486.249	0.653542
488.006	0.312099
489.765	1.51185
491.522	1.03395
493.278	0.766264
495.034	0.0539694
496.789	0.580888
498.544	0.569567
500.301	-0.263046
502.056	0.28698
503.81	0.883902
505.564	0.258199
507.317	0.570924
509.071	0.670526
510.825	0.391946
512.578	0.441004
514.33	0.606078
516.082	-0.00671864
517.833	0.790566
519.585	-0.129909
521.335	0.617866
523.086	0.565886
524.836	0.74842
526.586	0.0861969
528.335	0.526668
530.085	1.06029
531.835	0.328113
533.584	1.04717
535.332	0.477475
537.08	1.00554
538.827	0.550475
540.574	-0.324708
542.321	0.874331
544.068	-0.209874
545.814	0.567382
547.56	0.252145
549.305	0.726072
551.05	0.0876646
552.795	0.329814
554.54	0.640952
556.282	0.374667
558.025	0.109297
559.769	0.259637
561.512	0.387272
563.255	0.308297
564.997	0.0231838
566.739	0.198522
568.481	-0.038763
570.223	0.620237
571.964	-0.0274105
573.705	0.42796
575.443	0.265821
577.183	0.197192
578.923	0.0610533
580.663	0.476819
582.402	0.272694
584.141	0.596571
585.879	0.666618
587.615	-0.552904
589.353	-0.301648
591.09	0.546887
592.828	0.267475
594.564	0.793131
596.299	0.789651
598.035	-0.134143
599.771	0.414114
601.506	0.363308
603.242	-0.0338097
604.974	-0.317248
606.709	-0.440942
608.443	0.376186
610.177	0.365952
611.908	0.37916
613.642	-0.202936
615.374	0.682946
617.105	0.606137
618.837	0.505928
620.569	0.358853
622.3	-0.544305
624.03	-0.64704
625.761	0.529555
627.491	0.0619707
629.219	-0.403125
630.949	0.434968
632.677	0.20271
634.406	0.40519
636.135	0.561773
637.861	0.396964
639.59	0.480338
641.318	0.377952
643.043	0.956746
644.77	0.121415
646.495	1.24419
648.222	0.366904
649.948	0.357359
651.672	0.783639
653.398	0.396091
655.121	0.125448
656.846	0.539858
658.569	0.523099
660.293	0.277716
662.015	0.898045
663.738	1.19683
665.46	0.281438
667.183	0.71258
668.903	0.411136
670.626	0.499146
672.346	0.360433
674.067	0.865377
675.787	0.525427
677.508	0.645102
679.226	0.971913
680.947	0.700584
682.665	0.495862
684.385	0.979151
686.102	0.00987911
687.821	0.604603
689.538	1.06011
691.254	1.05412
692.972	0.771
694.688	0.9938
696.406	1.14633
698.121	0.814008
699.835	0.68763
701.552	1.34201
703.266	1.21309
704.98	0.922739
706.695	0.471548
708.409	1.0984
710.121	0.601061
711.836	0.859612
713.548	1.25461
715.26	1.05449
716.973	1.49393
718.685	1.04305
720.396	0.684307
722.108	1.00949
723.818	0.78812
725.528	0.976194
727.238	1.36803
728.949	1.23673
730.658	1.73995
732.367	1.13198
734.075	0.253475
735.785	1.45618
737.493	0.918224
739.2	1.71305
740.907	0.884604
742.614	1.02733
744.322	1.14882
746.028	1.04673
747.734	1.10371
749.439	1.88191
751.144	1.132
752.849	1.23825
754.555	1.39104
756.26	1.32052
757.963	1.61192
759.667	1.20687
761.37	1.88473
763.073	2.27092
764.775	1.34776
766.477	0.873986
768.179	1.79928
769.883	1.54698
771.584	1.54105
773.285	1.32999
774.986	0.96013
776.686	2.08311
778.386	2.30315
780.085	2.07271
781.785	1.95658
783.484	1.72742
785.182	2.53819
786.881	1.94291
788.579	1.88734
790.276	1.87332
791.974	2.30822
793.671	2.74041
795.367	1.81792
797.064	1.12349
798.76	1.31027
800.456	1.72383
802.151	1.55363
803.846	2.23892
805.541	1.52975
807.234	1.98873
808.928	2.28868
810.622	1.93606
812.315	1.7847
814.008	2.68597
815.701	1.68255
817.394	2.8057
819.086	1.71448
820.778	1.69711
822.468	2.1934
824.159	1.79795
825.85	2.60788
827.541	2.46172
829.231	2.16298
830.921	1.33325
832.609	2.82329
834.298	2.1327
835.987	1.35331
837.676	2.46982
839.364	2.17947
841.051	2.28912
842.738	1.88338
844.426	1.67799
846.113	1.87555
847.798	1.1808
849.484	0.845958
851.171	1.72243
852.857	1.77335
854.54	1.91521
856.226	1.78769
857.911	0.984158
859.593	2.1576
861.278	1.34919
862.961	1.43915
864.645	1.43761
866.327	0.984151
868.01	1.22876
869.692	0.931688
871.373	1.49134
873.055	1.44179
874.735	1.43727
876.416	1.47788
878.097	1.6088
879.776	0.949593
881.457	0.989672
883.135	0.870959
884.815	1.47344
886.495	1.64537
888.172	1.74774
889.851	1.2844
891.528	1.65378
893.206	1.18786
894.882	1.01389
896.56	1.37854
898.237	1.17991
899.912	1.60876
901.589	0.960223
903.263	0.648316
904.94	1.07444
906.614	1.38816
908.289	1.41195
909.962	1.41443
911.635	1.1732
913.31	1.3777
914.982	1.84869
916.656	0.743828
918.328	0.43883
920.001	0.710169
921.672	0.871005
923.345	1.2096
925.015	1.24027
926.685	1.20673
928.357	0.97645
930.026	1.12283
931.698	1.11548
933.366	1.24081
935.035	1.12368
936.705	1.64662
938.373	1.26627
940.041	1.04165
941.71	0.619781
943.377	1.01497
945.044	1.18951
946.712	0.391591
948.378	0.298035
950.044	1.23974
951.709	0.944077
953.376	0.251623
955.041	0.795962
956.706	0.461132
958.372	0.504624
960.036	0.771894
961.699	0.466951
963.362	0.338328
965.027	1.46847
966.69	0.782359
968.352	0.42478
970.014	0.839259
971.676	0.566921
973.339	1.00281
975	1.13061
976.661	0.375831
978.322	0.639996
979.982	0.606328
981.642	0.572245
983.303	1.23405
984.962	0.963955
986.621	1.3113
988.28	0.66077
989.938	0.717029
991.596	-0.133619
993.254	0.562628
994.911	0.0661402
996.57	0.78373
998.227	1.0595
999.884	1.35673
1001.54	1.6311
1003.2	1.35443
1004.85	1.05576
1006.51	1.02108
1008.16	0.569337
1009.82	0.908576
1011.47	0.918902
1013.12	0.403737
1014.78	-0.000862122
1016.43	0.646211
1018.08	0.28667
1019.74	0.868777
1021.39	0.314706
1023.04	0.396047
1024.69	0.631392
1026.34	0.430301
1028	0.294842
1029.65	0.857828
1031.3	1.37552
1032.95	0.733953
1034.6	0.374816
1036.25	0.363455
1037.9	0.677968
1039.54	0.534745
1041.19	-0.477589
1042.84	0.382193
1044.49	0.83011
1046.14	0.758594
1047.78	0.819557
1049.43	0.621773
1051.08	0.620869
1052.72	0.338468
1054.37	0.338855
1056.02	-0.0737028
1057.66	0.469787
1059.31	0.338928
1060.95	0.881413
1062.6	0.531543
1064.24	0.289385
1065.88	-0.584285
1067.53	0.627738
1069.17	0.143297
1070.81	0.918069
1072.45	0.693501
1074.1	0.230969
1075.74	0.702592
1077.38	-0.104039
1079.02	0.240181
1080.66	0.758695
1082.3	0.323105
1083.94	-0.0700035
1085.58	-0.421319
1087.22	-0.276138
1088.86	0.256489
1090.5	0.353693
1092.14	0.492634
1093.78	0.220422
1095.42	0.660873
1097.05	0.368537
1098.69	0.552045
1100.33	0.435884
1101.96	0.42957
1103.6	0.532811
1105.24	0.336378
1106.87	0.248185
1108.51	0.202719
1110.14	-0.0588989
1111.78	0.752579
1113.41	0.401497
1115.05	0.156742
1116.68	0.0403652
1118.31	-0.247259
1119.95	0.366026
1121.58	0.358727
1123.21	0.181411
1124.85	0.304856
1126.48	0.108364
1128.11	-0.00163937
1129.74	0.530613
1131.37	0.336497
1133	0.356541
1134.63	0.654328
1136.26	0.459771
1137.89	0.34959
1139.52	-0.210404
1141.15	0.573999
1142.78	0.0980597
1144.41	0.305229
1146.04	-0.403741
1147.66	-0.386559
1149.29	-0.0701933
1150.92	-0.0729504
1152.55	0.520581
1154.17	0.13412
1155.8	0.492332
1157.43	-0.234896
1159.05	0.740262
1160.68	0.312414
1162.3	-0.156561
1163.93	0.0985231
1165.55	-0.389986
1167.17	-0.198368
1168.8	-0.220483
1170.42	0.478255
1172.05	0.260775
1173.67	-0.213235
1175.29	0.0545931
1176.91	-0.0389605
1178.54	-0.555825
1180.16	-0.161002
1181.78	0.234256
1183.4	0.249244
1185.02	0.327659
1186.64	0.278261
1188.26	-0.0260572
1189.88	0.258195
1191.5	-0.134004
1193.12	0.0197706
1194.74	0.550092
1196.36	0.0725927
1197.97	-0.0675964
1199.59	-0.0800753
1201.21	0.411479
1202.83	0.0909491
1204.44	-0.10112
1206.06	0.126586
1207.68	0.293106
1209.29	0.00101662
1210.91	0.688394
1212.52	0.664613
1214.14	0.159048
1215.75	0.422059
1217.37	0.432946
1218.98	-0.409377
1220.59	0.78428
1222.21	0.690497
1223.82	0.308231
1225.43	0.901407
1227.05	1.04033
1228.66	1.20145
1230.27	0.557591
1231.88	1.13506
1233.49	1.23839
1235.1	1.21917
1236.72	0.767328
1238.33	1.12281
1239.94	0.5694
1241.55	0.967394
1243.16	0.579055
1244.76	0.975995
1246.37	1.08216
1247.98	1.49753
1249.59	1.00155
1251.2	0.939752
1252.8	1.00232
1254.41	0.527929
1256.02	0.902808
1257.62	1.46536
1259.23	1.0156
1260.84	0.835711
1262.44	1.77447
1264.05	0.891018
1265.66	1.06334
1267.26	1.27638
1268.86	1.65427
1270.47	2.03102
1272.07	1.66007
1273.67	0.956193
1275.28	1.39142
1276.88	1.10005
1278.48	1.6365
1280.09	1.21931
1281.69	0.864207
1283.29	0.861218
1284.89	0.900197
1286.49	0.981509
1288.09	1.95271
1289.69	1.23013
1291.29	1.85147
1292.89	1.43952
1294.49	1.43999
1296.09	1.70742
1297.69	1.4773
1299.29	1.08038
1300.89	1.9192
1302.49	2.1372
1304.08	1.40696
1305.68	1.72577
1307.28	1.05749
1308.88	0.944209
1310.47	1.323
1312.07	1.88567
1313.66	1.3028
1315.26	1.7643
1316.85	1.51157
1318.45	1.79037
1320.04	1.43664
1321.64	2.28422
1323.23	1.03236
1324.83	1.40725
1326.42	1.51567
1328.01	1.01491
1329.61	0.860259
1331.2	2.00211
1332.79	1.08336
1334.38	1.09751
1335.97	1.51712
1337.56	1.23106
1339.16	1.85164
1340.75	1.48246
1342.34	0.588161
1343.93	0.879436
1345.52	1.36949
1347.11	0.996246
1348.7	0.705878
1350.29	0.879107
1351.87	0.935003
1353.46	1.07319
1355.05	1.53261
1356.64	1.01313
1358.22	1.19263
1359.81	0.891669
1361.4	0.290356
1362.98	1.74336
1364.57	0.921545
1366.16	1.07726
1367.74	0.277838
1369.33	0.595203
1370.91	0.774637
1372.5	1.39334
1374.08	0.91892
1375.67	0.62438
1377.25	1.2851
1378.83	1.30849
1380.41	0.932763
1382	0.456193
1383.58	1.01249
1385.16	0.692605
1386.74	0.352612
1388.33	1.02584
1389.91	0.38917
1391.49	0.706427
1393.07	0.270569
1394.65	0.489859
1396.23	0.570058
1397.81	0.332268
1399.39	0.509658
1400.97	1.14134
1402.55	0.0495396
1404.13	0.541574
1405.7	1.07321
1407.28	0.656624
1408.86	0.676014
1410.44	0.241681
1412.01	0.715918
1413.59	0.478562
1415.17	0.181195
1416.74	0.691729
1418.32	0.708511
1419.89	0.371045
1421.47	0.684849
1423.04	0.8624
1424.62	0.451306
1426.19	0.59278
1427.77	0.892349
1429.34	0.876713
1430.91	1.0372
1432.49	1.39309
1434.06	1.45258
1435.63	0.882148
1437.2	1.02007
1438.78	0.726304
1440.35	1.55403
1441.92	1.04636
1443.49	1.93489
1445.06	1.88057
1446.63	1.82647
1448.2	1.41871
1449.77	1.6403
1451.34	1.68554
1452.91	1.31844
1454.48	1.50242
1456.05	1.78483
1457.62	2.00758
1459.18	1.99268
1460.75	1.79856
1462.32	1.66128
1463.89	1.71876
1465.45	1.36211
1467.02	1.51613
1468.59	1.25809
1470.15	0.903209
1471.72	0.844153
1473.28	1.06093
1474.85	0.925552
1476.41	0.908347
1477.98	0.440375
1479.54	0.932954
1481.1	0.445308
1482.67	1.03553
1484.23	0.469386
1485.79	0.608291
1487.36	0.295826
1488.92	0.667331
1490.48	0.234179
1492.04	0.131575
1493.61	0.573652
1495.17	0.525009
1496.73	0.319336
1498.29	0.405804
1499.85	0.395461
1501.41	-0.623148
1502.97	0.514318
1504.53	0.313685
1506.09	0.152452
1507.65	0.454981
1509.2	-0.132907
1510.76	0.398419
1512.32	0.310773
1513.88	0.0496778
1515.43	0.116205
1516.99	0.202408
1518.55	0.193384
1520.1	0.874647
1521.66	-0.090889
1523.22	0.245046
1524.77	0.713001
1526.33	0.549412
1527.88	0.0424547
1529.44	-0.273594
1530.99	0.0947657
1532.54	0.00757027
1534.1	0.0730505
1535.65	0.498891
1537.21	-0.0576525
1538.76	0.27486
1540.31	0.418577
1541.86	0.580961
1543.42	0.328884
1544.97	0.321486
1546.52	0.370213
1548.07	0.793908
1549.62	0.185781
1551.17	0.53404
1552.72	0.676415
1554.27	0.726138
1555.82	1.07617
1557.37	0.326538
1558.92	0.438072
1560.47	1.05536
1562.02	1.17073
1563.56	0.839679
1565.11	1.10632
1566.66	0.94394
1568.21	0.893244
1569.75	1.19674
1571.3	1.36916
1572.85	1.97058
1574.39	1.78782
1575.94	2.01577
1577.49	1.79593
1579.03	1.70726
1580.57	1.3579
1582.12	1.68169
1583.66	1.27808
1585.21	1.47311
1586.75	1.36973
1588.3	1.07941
1589.84	1.1067
1591.38	1.78867
1592.92	2.07731
1594.47	1.44797
1596.01	1.26795
1597.55	1.06954
1599.09	1.60298
1600.63	1.72504
1602.17	1.19089
1603.71	0.994176
1605.25	1.36013
1606.79	1.79995
1608.33	1.61738
1609.87	1.46965
1611.41	0.90587
1612.95	1.74876
1614.49	0.749856
1616.03	0.745763
1617.57	1.00458
1619.1	0.664907
1620.64	0.907743
1622.18	0.964751
1623.72	1.32223
1625.25	1.09938
1626.79	0.857039
1628.32	1.5301
1629.86	1.24728
1631.39	1.1504
1632.93	1.65084
1634.46	1.57234
1636	1.62547
1637.53	1.19476
1639.07	1.39898
1640.6	1.60312
1642.13	1.17298
1643.67	1.50539
1645.2	1.51966
1646.73	1.75596
1648.26	1.52699
1649.8	1.70727
1651.33	2.18538
1652.86	2.73868
1654.39	2.10635
1655.92	1.86449
1657.45	2.10448
1658.98	1.97292
1660.51	1.78438
1662.04	2.0383
1663.57	1.34769
1665.1	1.4517
1666.63	1.6482
1668.16	1.58748
1669.68	1.86038
1671.21	1.87687
1672.74	1.63682
1674.27	2.02358
1675.79	1.3789
1677.32	1.39623
1678.85	1.725
1680.37	1.57413
1681.9	1.03666
1683.42	1.06869
1684.95	0.660338
1686.47	1.35322
1688	0.817795
1689.52	1.47412
1691.05	0.793474
1692.57	0.900513
1694.09	1.20857
1695.62	0.254663
1697.14	0.452611
1698.66	0.26646
1700.18	0.426804
1701.71	0.859909
1703.23	-0.0568666
1704.75	0.447516
1706.27	0.532079
1707.79	0.161671
1709.31	0.590998
1710.83	0.203001
1712.35	0.214774
1713.87	0.371641
1715.39	0.510209
1716.91	-0.0750399
1718.43	0.334532
1719.95	0.472455
1721.47	-0.129416
1722.99	0.189726
1724.5	-0.103056
1726.02	-0.141984
1727.54	0.0905581
1729.06	0.270049
1730.57	-0.232637
1732.09	0.247581
1733.61	0.348283
1735.12	0.481149
1736.64	0.131115
1738.15	0.139071
1739.67	-0.0342407
1741.18	0.0413752
1742.7	0.0234947
1744.21	0.00295258
1745.72	-0.221987
1747.24	-0.0382643
1748.75	0.0225878
1750.26	0.178151
1751.77	-0.105517
1753.29	-0.109369
1754.8	0.259216
1756.31	-0.271932
1757.82	-0.22374
1759.33	-0.0431843
1760.84	0.0258551
1762.36	0.136127
1763.87	0.113266
1765.38	0.203679
1766.89	-0.187361
1768.4	-0.240833
1769.91	-0.0103207
1771.41	-0.113745
1772.92	0.22695
1774.43	0.321328
1775.94	0.28299
1777.45	0.31706
1778.95	0.1419
1780.46	-0.494064
1781.97	-0.156111
1783.48	0.257491
1784.98	0.311457
1786.49	-0.120073
1787.99	0.0971518
1789.5	0.0497923
1791.01	0.0205231
1792.51	0.000730515
1794.01	0.136436
1795.52	-0.0774708
1797.02	0.0215549
1798.53	0.235817
1800.03	0.0215302
1801.53	-0.0089283
1803.04	-0.131182
1804.54	0.132392
1806.04	0.358535
1807.54	0.0334654
1809.05	0.201753
1810.55	0.233706
1812.05	0.165202
1813.55	-0.247107
1815.05	0.0964031
1816.55	0.317832
1818.05	0.273745
1819.55	-0.0340185
1821.05	-0.247654
1822.55	0.214432
1824.05	-0.0834866
1825.55	0.323063
1827.05	0.52491
1828.55	0.11901
1830.04	0.155873
1831.54	0.166517
1833.04	0.163362
1834.54	-0.370904
1836.03	0.149648
1837.53	0.219529
1839.03	0.0683346
1840.52	-0.202533
1842.02	-0.038065
1843.51	0.0837936
1845.01	0.358413
1846.5	0.175116
1848	-0.0967817
1849.49	-0.153451
1850.99	0.283545
1852.48	0.578874
1853.97	0.259467
1855.47	0.20318
1856.96	0.014617
1858.45	-0.252594
1859.94	0.0462503
1861.44	0.470759
1862.93	0.258999
1864.42	0.0284529
1865.91	0.0875092
1867.4	0.453515
1868.89	-0.0971851
1870.38	0.172056
1871.87	0.305965
1873.36	-0.0178413
1874.85	0.0181904
1876.34	0.0398216
1877.83	0.00884342
1879.32	0.0721359
1880.81	0.140627
1882.3	0.389403
1882.57	0.447823
1884.07	0.585174
1885.56	0.477517
1887.06	-0.0142403
1888.55	0.190254
1890.04	0.046814
1891.54	0.078557
1893.03	0.164287
1894.52	-0.269495
1896.02	-0.336478
1897.51	-0.0721588
1899	0.261693
1900.49	0.055131
1901.98	-0.0837116
1903.47	0.175491
1904.96	-0.314605
1906.45	0.150482
1907.94	0.146224
1909.43	0.107966
1910.92	0.261671
1912.41	0.67652
1913.9	0.450145
1915.39	-0.0881882
1916.88	0.101442
1918.37	0.221035
1919.85	-0.127769
1921.34	0.649405
1922.83	-0.0279064
1924.32	-0.0460243
1925.8	0.110259
1927.29	0.371626
1928.78	0.183596
1930.26	0.0820322
1931.75	-0.228299
1933.23	0.550615
1934.72	0.305812
1936.2	0.0938644
1937.69	-0.0500269
1939.17	0.358665
1940.66	0.0765095
1942.14	-0.32513
1943.63	0.0855207
1945.11	-0.227423
1946.59	0.322168
1948.07	-0.559236
1949.56	0.264583
1951.04	0.277266
1952.52	-0.0896854
1954	-0.147289
1955.48	0.0528536
1956.96	-0.313492
1958.45	0.162313
1959.93	0.312535
1961.41	-0.171183
1962.89	-0.157242
1964.37	-0.0407419
1965.85	0.280561
1967.32	0.463804
1968.8	0.184242
1970.28	0.246218
1971.76	-0.102126
1973.24	0.249737
1974.72	0.19188
1976.19	0.407011
1977.67	0.0770149
1979.15	-0.0652075
1980.63	0.490106
1982.1	0.364547
1983.58	-0.0159826
1985.05	-0.0399189
1986.53	0.325972
1988	0.55571
1989.48	-0.349082
1990.95	-0.287271
1992.43	0.299806
1993.9	0.143624
1995.38	-0.298777
1996.85	0.239421
1998.32	-0.50629
1999.8	0.0648165
2001.27	0.0947809
2002.74	0.562663
2004.22	0.541055
2005.69	-0.389997
2007.16	0.0785503
2008.63	0.58155
2010.1	0.546608
2011.57	-0.110534
2013.04	0.74733
2014.51	0.123517
2015.98	0.256148
2017.45	0.337181
2018.92	0.215456
2020.39	0.110019
2021.86	0.407567
2023.33	0.0841808
2024.8	0.61768
2026.27	0.0955143
2027.74	0.0951242
2029.2	0.197079
2030.67	0.250264
2032.14	0.942284
2033.61	-0.0266333
2035.07	-0.00546169
2036.54	0.216868
2038.01	0.169851
2039.47	0.139165
2040.94	0.0579796
2042.4	0.178976
2043.87	0.35138
2045.33	0.592283
2046.8	0.245051
2048.26	0.285228
2049.72	0.426157
2051.19	0.464835
2052.65	0.265581
2054.12	0.266545
2055.58	0.569016
2057.04	0.465149
2058.5	0.293033
2059.97	0.609353
2061.43	-0.000116348
2062.89	0.283854
2064.35	0.316422
2065.81	0.333309
2067.27	0.182878
2068.73	0.453867
2070.19	0.506444
2071.65	0.171879
2073.11	0.510561
2074.57	0.0743952
2076.03	0.345067
2077.49	0.547968
2078.95	0.447272
2080.41	0.346043
2081.87	0.513559
2083.32	0.293077
2084.78	0.778598
2086.24	0.606884
2087.7	0.400948
2089.15	0.682072
2090.61	0.509159
2092.07	0.218815
2093.52	0.532713
2094.98	0.879492
2096.43	0.940336
2097.89	0.715563
2099.34	0.356495
2100.8	0.532731
2102.25	0.124146
2103.71	0.485211
2105.16	0.713833
2106.61	0.743693
2108.07	1.00826
2109.52	0.35598
2110.97	1.0703
2112.43	0.616093
2113.88	0.726524
2115.33	0.818274
2116.78	0.809077
2118.23	1.09928
2119.68	0.959151
2121.13	1.36898
2122.59	1.05117
2124.04	1.36538
2125.49	0.917558
2126.94	1.29844
2128.39	0.898865
2129.83	1.49206
2131.28	0.940366
2132.73	1.11662
2134.18	1.35883
2135.63	1.30416
2137.08	1.69763
2138.53	1.36612
2139.97	1.35098
2141.42	1.70151
2142.87	1.22689
2144.31	1.84455
2145.76	2.16498
2147.21	2.25346
2148.65	1.56271
2150.1	1.74851
2151.54	1.75086
2152.99	1.95079
2154.43	1.86802
2155.88	2.03318
2157.32	2.09903
2158.77	2.01674
2160.21	2.64853
2161.65	2.55378
2163.1	2.11323
2164.54	1.93958
2165.98	2.53046
2167.43	2.29129
2168.87	2.38289
2170.31	2.30591
2171.75	2.37586
2173.19	1.94421
2174.64	2.12632
2176.07	2.90634
2177.52	2.47259
2178.96	2.37248
2180.4	2.4898
2181.84	2.30899
2183.28	2.49474
2184.72	2.8805
2186.15	2.15189
2187.59	2.13851
2189.03	2.54125
2190.47	1.962
2191.91	2.34781
2193.35	2.14998
2194.78	1.80055
2196.22	2.28117
2197.66	2.14326
2199.09	2.11967
2200.53	1.48005
2201.97	2.18597
2203.4	1.7968
2204.84	1.3266
2206.27	1.15646
2207.71	1.73256
2209.14	1.49652
2210.58	1.40867
2212.01	1.36928
2213.45	1.34557
2214.88	1.17309
2216.31	1.49679
2217.75	1.34312
2219.18	1.27356
2220.61	1.38643
2222.05	1.10382
2223.48	0.968786
2224.91	0.947445
2226.34	0.940519
2227.78	0.56994
2229.21	0.806219
2230.64	0.877034
2232.07	0.832748
2233.5	0.952588
2234.93	0.811456
2236.36	1.1131
2237.79	1.17134
2239.22	0.579207
2240.65	0.528167
2242.08	0.772821
2243.5	0.904737
2244.93	0.319366
2246.36	1.087
2247.79	0.857722
2249.22	0.299942
2250.64	0.603619
2252.07	0.514133
2253.5	1.05804
2254.92	0.626576
2256.35	0.846918
2257.78	0.729116
2259.2	0.322789
2260.63	0.114545
2262.05	0.606902
2263.48	0.630586
2264.9	0.589603
2266.33	0.580652
2267.75	0.505663
2269.18	0.510892
2270.6	0.515203
2272.02	0.437514
2273.45	0.831903
2274.87	0.444649
2276.29	0.481104
2277.71	0.648168
2279.14	0.326314
2280.56	0.738028
2281.98	0.709402
2283.4	0.207533
2284.82	0.260313
2286.24	0.313376
2287.66	0.873071
2289.08	0.322967
2290.5	0.0997238
2291.92	0.33434
2293.34	0.078661
2294.76	0.0190678
2296.18	0.188492
2297.6	0.128736
2299.02	0.363882
2300.44	0.386387
2301.86	0.261666
2303.27	-0.0269136
2304.69	-0.0693922
2306.11	0.101497
2307.53	0.436471
2308.94	0.343709
2310.36	0.447513
2311.78	0.60027
2313.19	0.1772
2314.61	0.560868
2316.02	0.221168
2317.44	0.68935
2318.85	-0.0942926
2320.27	0.291975
2321.68	0.429791
2323.1	0.3674
2324.51	0.533309
2325.92	0.548003
2327.34	0.577199
2328.75	0.523087
2330.16	0.0575218
2331.58	0.169673
2332.99	-0.128425
2334.4	0.117577
2335.81	0.13342
2337.23	-0.0321941
2338.64	-0.133057
2340.05	0.224958
2341.46	0.154528
2342.87	0.0507898
2344.28	0.111164
2345.69	-0.287104
2347.1	-0.0785446
2348.51	0.29347
2349.92	-0.0224819
2351.33	-0.126397
2352.74	-0.100609
2354.15	-0.255406
2355.55	-0.0194759
2356.96	0.183029
2358.37	-0.0865974
2359.78	-0.0630674
2361.19	0.122819
2362.59	0.0813246
2364	-0.170757
2365.41	0.548295
2366.81	-0.269196
2368.22	-0.180233
2369.62	0.103295
2371.03	0.081646
2372.44	-0.260639
2373.84	-0.295514
2375.24	0.378274
2376.65	0.359189
2378.05	0.11372
2379.46	0.172048
2380.86	-0.221118
2382.26	0.459239
2383.67	0.288172
2385.07	-0.218616
2386.47	-0.236458
2387.88	-0.253235
2389.28	0.377078
2390.68	0.0837984
2392.08	0.110712
2393.48	0.234212
2394.89	0.167716
2396.29	0.181585
2397.69	0.148504
2399.09	0.0684481
2400.49	0.3226
2401.89	-0.153607
2403.29	-0.0737886
2404.69	0.196106
2406.09	0.258489
2407.48	-0.124533
2408.88	0.189706
2410.28	-0.162473
2411.68	0.230588
2413.08	-0.0566931
2414.48	0.195979
2415.87	0.0228558
2417.27	-0.00625801
2418.67	0.50402
2420.06	0.555614
2421.46	-0.0106945
2422.86	0.151162
2424.25	0.138461
2425.65	0.0149193
2427.04	0.082139
2428.44	-0.21423
2429.83	0.394287
2431.23	0.480518
2432.62	0.122499
2434.02	0.160571
2435.41	0.260898
2436.81	0.343637
2438.2	-0.131495
2439.59	0.0591955
2440.99	0.185233
2442.38	0.0248365
2443.77	0.403747
2445.16	-0.137806
2446.56	0.22462
2447.95	0.285475
2449.34	0.0611506
2450.73	0.312282
2452.12	0.263144
2453.51	-0.00655651
2454.9	0.246917
2456.29	0.121487
2457.68	0.217886
2459.07	0.20336
2460.46	0.109083
2461.85	0.472407
2463.24	0.123343
2464.63	0.216232
2466.02	0.00865459
2467.4	0.0537195
2468.79	-0.137984
2470.18	0.190684
2471.57	0.392387
2472.95	0.451268
2474.34	0.241538
2475.73	0.393142
2477.12	-0.00601292
2478.5	0.270705
2479.89	0.217659
2481.27	-0.133006
2482.66	0.331474
2484.04	0.29371
2485.43	0.129848
2486.81	0.152455
2488.2	-0.107128
2489.58	0.131771
2490.97	-0.143681
2492.35	-0.184664
2493.73	0.0706835
2495.12	0.218486
2496.5	0.0420189
2497.88	0.052659
2499.27	0.249312
2500.65	-0.00325871
2502.03	0.207274
2503.41	0.138374
2504.79	0.238233
2506.17	0.10605
2507.56	0.34325
2508.94	0.103526
2510.32	-0.135171
2511.7	-0.234559
2513.08	0.00433064
2514.46	0.182558
2515.84	0.00952244
2517.22	0.235311
2518.59	0.23216
2519.97	0.122243
2521.35	0.409206
2522.73	0.328731
2524.11	-0.118684
2525.49	0.3634
2526.86	0.159181
2528.24	0.320965
2529.62	-0.033143
2530.99	0.405293
2532.37	0.085721
2533.75	0.481909
2535.12	0.0129147
2536.5	0.0907984
2537.88	0.10712
2539.25	-0.0599232
2540.63	-0.151901
2542	-0.35045
2543.38	-0.154043
2544.75	0.0735769
2546.12	-0.122123
2547.5	0.22965
2548.87	0.445953
2550.24	0.116117
2551.62	0.0284281
2552.99	0.152144
2554.36	0.669195
2555.74	0.0623045
2557.11	0.0617819
2558.48	0.136944
2559.85	0.182073
2561.22	0.18235
2562.59	0.243999
2563.96	-0.254364
2565.34	0.247939
2566.71	-0.0223265
2568.08	-0.125796
2569.45	-0.108013
2570.82	-0.378198
2572.18	0.0488911
2573.55	0.339711
2574.92	-0.203105
2576.29	-0.185
2577.66	0.105937
2579.03	-0.331167
2580.4	0.353387
2581.77	0.0367155
2583.13	0.0228863
2584.5	-0.00635815
2585.87	-0.0204859
2587.23	0.177731
2588.6	-0.0633707
2589.97	-0.0163736
2591.33	0.015316
2592.7	-0.0747557
2594.06	0.000914574
2595.43	0.181373
2596.79	0.315081
2598.16	0.326709
2599.52	-0.0551815
2600.89	0.0772505
2602.25	0.330946
2603.62	0.132348
2604.98	0.357067
2606.34	0.0388155
2607.71	-0.219275
2609.07	0.0644627
2610.43	-0.210793
2611.79	0.295444
2613.16	0.273208
2614.52	0.0698652
2615.88	0.376835
2617.24	-0.00605297
2618.6	-0.132899
2619.96	0.295003
2621.32	0.214737
2622.68	0.120259
2624.04	0.339745
2625.4	0.141059
2626.76	-0.236591
2628.12	0.205469
2629.48	-0.0383863
2630.84	-0.0886822
2632.2	-0.109286
2633.56	0.122603
2634.92	0.0127392
2636.28	0.244104
2637.63	0.178736
2638.99	-0.123349
2640.35	0.300147
2641.71	0.0876389
2643.06	-0.257186
2644.42	0.136785
2645.77	0.264574
2647.13	-0.448545
2648.49	-0.0713634
2649.84	0.4661
2651.2	0.266695
2652.55	0.184834
2653.91	0.176779
2655.26	0.345523
2656.62	0.0905781
2657.97	0.144699
2659.33	0.199794
2660.68	0.474619
2662.03	0.383637
2663.39	-0.292183
2664.74	0.462321
2666.09	0.587711
2667.44	-0.0891685
2668.8	0.195999
2670.15	-0.159139
2671.5	-0.149659
2672.85	0.0639496
2674.2	-0.0269251
2675.55	-0.131554
2676.91	0.0837517
2678.26	0.125625
2679.61	-0.0200367
2680.96	0.212512
2682.31	0.0984888
2683.66	0.304843
2685	0.193309
2686.35	0.256353
2687.7	0.0724564
2689.05	0.133896
2690.4	0.324054
2691.75	0.35237
2693.1	-0.0273294
2694.44	0.215757
2695.79	0.125089
2697.14	0.151133
2698.49	-0.0819836
2699.83	0.179213
2701.18	0.0659275
2702.52	0.272989
2703.87	0.597341
2705.22	0.429665
2706.56	0.334422
2707.91	0.224267
2709.25	0.302269
2710.6	-0.0848122
2711.94	0.0795698
2713.29	0.519992
2714.63	-0.0423517
2715.97	0.485406
2717.32	0.213362
2718.66	0.0136223
2720.01	-0.186631
2721.35	0.296548
2722.69	0.371755
2724.03	-0.106696
2725.38	0.142127
2726.72	0.215847
2728.06	0.361964
2729.4	0.245839
2730.74	-0.00137329
2732.08	0.144257
2733.42	0.595445
2734.76	0.377663
2736.1	0.378326
2737.44	0.262797
2738.78	0.307225
2740.12	0.336811
2741.46	0.293133
2742.8	-0.158319
2744.14	0.188973
2745.48	0.128566
2746.82	0.488832
2748.16	0.180897
2749.49	0.192476
2750.83	0.247794
2752.17	0.303369
2753.51	0.460629
2754.84	0.328235
2756.18	-0.108069
2757.52	0.194526
2758.85	0.699932
2760.19	0.0332804
2761.53	0.221204
2762.86	0.467519
2764.2	-0.0237513
2765.53	0.71481
2766.87	-0.0952692
2768.2	-0.0961685
2769.54	0.103894
2770.87	0.287655
2772.2	0.267428
2773.54	0.246028
2774.87	0.281711
2776.2	0.25969
2777.54	0.0942316
2778.87	0.14537
2780.2	0.311997
2781.53	-0.167438
2782.87	0.128798
2784.2	0.037365
2785.53	-0.254613
2786.86	0.112853
2788.19	-0.192307
2789.52	-0.0241146
2790.85	-0.2412
2792.18	-0.0569353
2793.51	0.0848618
2794.84	0.0408382
2796.17	0.153616
2797.5	0.265689
2798.83	-0.0798616
2800.16	0.24516
2801.49	0.227217
2802.82	0.47996
2804.15	-0.0943918
2805.47	0.185908
2806.8	0.33706
2808.13	0.160142
2809.46	-0.116467
2810.78	0.0902205
2812.11	-0.128399
2813.44	-0.189444
2814.76	-0.021966
2816.09	0.1187
2817.42	0.317299
2818.74	0.148039
2820.07	0.233896
2821.39	0.305048
2822.72	0.120324
2824.04	-0.206726
2825.37	0.400846
2826.69	0.413423
2828.02	0.129284
2829.34	0.185638
2830.66	0.284986
2831.99	0.228848
2833.31	0.172639
2834.63	0.540674
2835.96	0.582555
2837.28	-0.0553637
2838.6	0.565475
2839.92	0.888782
2841.24	0.872743
2842.57	0.71586
2843.89	0.658713
2845.21	1.02637
2846.53	1.18274
2847.85	1.43847
2849.17	1.39742
2850.49	1.62455
2851.81	1.45534
2853.13	1.11596
2854.45	1.66644
2855.77	1.38298
2857.09	1.5375
2858.41	1.63554
2859.72	1.87474
2861.04	1.90186
2862.36	1.81565
2863.68	1.9972
2865	1.79738
2866.31	2.13369
2867.63	1.8355
2868.95	2.55313
2870.26	2.74938
2871.58	2.86116
2872.9	2.80345
2874.21	3.06892
2875.53	2.95265
2876.84	2.8211
2878.16	2.89979
2879.47	3.2734
2880.79	3.11288
2882.1	2.99566
2883.42	3.0202
2884.73	3.439
2886.05	3.31083
2887.36	3.04243
2888.67	3.43308
2889.99	2.85469
2891.3	3.43952
2892.61	3.40645
2893.92	3.40124
2895.24	3.41049
2896.55	3.37871
2897.86	3.41816
2899.17	3.5987
2900.48	3.934
2901.79	3.89209
2903.11	3.78049
2904.42	3.8369
2905.73	3.488
2907.04	3.68526
2908.35	3.86949
2909.66	4.39053
2910.97	4.5206
2912.27	4.69266
2913.58	4.73784
2914.89	5.00533
2916.2	5.32667
2917.51	5.08614
2918.82	5.13836
2920.13	5.28828
2921.43	5.4669
2922.74	6.03836
2924.05	5.6609
2925.35	6.30525
2926.66	6.08369
2927.97	6.25356
2929.27	6.1713
2930.58	6.01843
2931.89	6.27038
2933.19	6.24241
2934.5	6.17248
2935.8	6.85737
2937.11	6.64799
2938.41	6.28514
2939.72	6.10431
2941.02	5.5049
2942.32	5.71699
2943.63	5.81877
2944.93	5.74052
2946.24	5.46783
2947.54	5.67134
2948.84	5.16082
2950.14	5.20858
2951.45	5.03012
2952.75	5.1854
2954.05	4.87691
2955.35	4.58208
2956.65	4.56833
2957.95	4.51504
2959.26	4.59097
2960.56	4.36207
2961.86	4.1493
2963.16	4.16153
2964.46	4.49596
2965.76	4.12667
2967.06	4.19071
2968.36	4.30942
2969.66	4.2304
2970.96	3.92614
2972.25	3.46731
2973.55	3.79669
2974.85	3.35198
2976.15	3.76513
2977.45	3.33194
2978.74	2.46022
2980.04	3.10704
2981.34	3.42825
2982.64	3.05934
2983.93	2.78955
2985.23	2.5634
2986.52	2.28291
2987.82	2.42568
2989.12	1.88101
2990.41	2.06733
2991.71	1.83141
2993	1.62239
2994.3	1.52435
2995.59	1.64979
2996.89	2.05504
2998.18	1.61768
2999.48	1.71399
3000.77	1.34813
3002.06	1.01121
3003.36	0.871113
3004.65	1.05337
3005.94	0.745033
3007.23	0.884126
3008.53	1.31589
3009.82	0.72537
3011.11	0.651711
3012.4	0.759142
3013.69	0.517632
3014.99	0.44421
3016.28	0.747775
3017.57	0.45315
3018.86	0.785555
3020.15	0.603086
3021.44	0.406355
3022.73	0.514411
3024.02	0.426841
3025.31	0.712834
3026.6	0.430149
3027.89	0.245405
3029.18	0.532295
3030.46	0.350744
3031.75	0.171069
3033.04	0.32401
3034.33	0.559959
3035.62	0.243238
3036.9	0.201009
3038.19	0.446031
3039.48	0.468153
3040.76	0.172248
3042.05	0.507362
3043.34	0.389199
3044.62	0.436593
3045.91	0.185009
3047.19	0.687731
3048.48	0.400695
3049.77	0.648655
3051.05	0.0932322
3052.34	0.357523
3053.62	0.471652
3054.9	0.421227
3056.19	0.615043
3057.47	0.71194
3058.76	0.399027
3060.04	0.249529
3061.32	0.617703
3062.61	0.619392
3063.89	0.677099
3065.17	0.315169
3066.45	0.19958
3067.74	0.166652
3069.02	0.12052
3070.3	0.468443
3071.58	0.148895
3072.86	0.39909
3074.14	0.443732
3075.42	0.487198
3076.7	0.367243
3077.99	-0.159314
3079.26	-0.0194035
3080.54	-0.0949373
3081.82	0.333169
3083.1	0.138689
3084.38	-0.136518
3085.66	0.0360565
3086.94	0.126689
3088.22	0.16216
3089.5	0.549644
3090.78	0.447923
3092.05	0.0204363
3093.33	-0.216839
3094.61	-0.0604534
3095.89	0.00123596
3097.16	0.212072
3098.44	-0.0923128
3099.72	-0.139313
3100.99	-0.0238724
3102.27	0.267581
3103.54	0.0717802
3104.82	0.160878
3106.1	0.210172
3107.37	-0.10488
3108.65	0.542095
3109.92	0.0534582
3111.2	-0.109354
3112.47	-0.366282
3113.74	-0.0131741
3115.02	0.245257
3116.29	-0.500241
3117.56	0.000725746
3118.84	0.215661
3120.11	0.117301
3121.38	-0.104155
3122.66	0.161682
3123.93	0.345769
3125.2	-0.241892
3126.47	0.484205
3127.74	0.168637
3129.01	-0.119121
3130.29	0.0939312
3131.56	0.21231
3132.83	0.600618
3134.1	0.407324
3135.37	0.254035
3136.64	0.0732088
3137.91	0.33685
3139.18	0.128119
3140.45	0.161756
3141.72	0.262591
3142.99	0.162001
3144.26	0.585659
3145.52	0.352022
3146.79	0.454588
3148.06	0.196055
3149.33	-0.195419
