200.43	0.164281
202.244	0.165227
204.059	0.167434
205.873	0.657152
207.688	0.855268
209.501	0.275461
211.314	0.424244
213.127	0.37787
214.941	-0.202703
216.753	0.453452
218.564	0.745649
220.375	0.0943108
222.186	0.484921
223.999	0.46514
225.809	-0.109706
227.618	0.0409527
229.428	0.191437
231.236	0.293311
233.045	0.588053
234.855	-0.105565
236.663	0.0221481
238.471	-0.0410872
240.278	-0.704682
242.085	0.514158
243.891	0.263835
245.698	0.182441
247.503	0.462104
249.309	0.208636
251.116	0.749526
252.921	0.129438
254.725	0.304664
256.529	0.696517
258.333	0.438224
260.136	0.808131
261.939	0.312599
263.742	0.0355406
265.544	0.0486526
267.346	-0.275138
269.148	-0.0687933
270.949	0.305923
272.75	0.12538
274.55	-0.104375
276.351	0.460248
278.15	-0.374476
279.95	0.379688
281.749	-0.577514
283.548	-0.0195017
285.346	-0.040144
287.144	0.106759
288.942	-0.106154
290.739	0.496553
292.536	-0.384493
294.333	0.12449
296.129	0.706028
297.925	0.666815
299.721	0.293763
301.514	-0.102942
303.309	0.359626
305.104	0.248139
306.898	0.517716
308.692	0.691564
310.486	0.532284
312.279	-0.483088
314.072	-0.520161
315.862	-0.0794344
317.654	0.196277
319.446	0.140043
321.238	0.585409
323.029	0.93667
324.819	-0.02351
326.608	0.615069
328.398	0.227046
330.188	-0.424855
331.977	0.332867
333.766	0.276388
335.553	0.194231
337.341	0.540961
339.129	-0.262465
340.917	0.487846
342.704	0.280766
344.489	0.121682
346.275	0.0110102
348.062	0.115985
349.845	-0.0411749
351.631	0.136021
353.416	0.551391
355.201	0.82257
356.984	0.52019
358.768	0.24087
360.552	-0.134274
362.333	0.489869
364.116	0.37537
365.899	0.165488
367.68	0.453828
369.462	0.503824
371.243	-0.0391216
373.023	0.577924
374.804	0.980612
376.585	0.343869
378.363	-0.220219
380.143	0.254172
381.923	-0.401039
383.7	0.310065
385.479	0.175171
387.256	0.840444
389.034	0.0733852
390.812	0.294028
392.588	-0.259619
394.365	0.5964
396.14	0.0672169
397.916	0.148784
399.691	0.394671
401.467	0.452374
403.24	-0.00715446
405.015	0.354815
406.788	0.457796
408.563	0.137674
410.335	-0.182565
412.109	0.107575
413.88	-0.775253
415.654	0.125895
417.424	0.276862
419.197	0.756996
420.967	-0.0298862
422.739	-0.371138
424.508	0.17911
426.279	0.282645
428.048	0.127267
429.819	0.206276
431.587	0.00361538
433.356	-0.0813761
435.124	0.0920963
436.891	-0.250745
438.66	0.532426
440.426	0.516412
442.194	-0.251879
443.96	0.0572243
445.725	-0.244642
447.492	0.810525
449.257	0.320086
451.021	0.251163
452.787	0.322725
454.551	0.137815
456.314	0.60581
458.079	-0.231185
459.842	0.189794
461.604	-0.458972
463.368	0.893049
465.13	-0.0774002
466.891	0.162978
468.654	0.475446
470.415	0.185173
472.175	0.500131
473.935	0.535462
475.696	0.429595
477.456	0.880903
479.215	0.422134
480.973	0.847664
482.733	0.574539
484.491	0.162675
486.249	0.357987
488.006	0.135703
489.765	0.311368
491.522	0.184707
493.278	0.175202
495.034	-0.0913987
496.789	-0.499021
498.544	0.662184
500.301	0.207008
502.056	0.431141
503.81	0.631397
505.564	0.713437
507.317	0.535714
509.071	0.0977583
510.825	0.458267
512.578	0.393977
514.33	0.446083
516.082	0.755798
517.833	0.123617
519.585	0.61944
521.335	0.362297
523.086	0.12849
524.836	-0.128721
526.586	0.341539
528.335	0.272055
530.085	0.366597
531.835	0.530973
533.584	0.694489
535.332	0.365598
537.08	0.269778
538.827	-0.0604696
540.574	0.40194
542.321	0.420053
544.068	0.0888295
545.814	0.455459
547.56	0.566064
549.305	0.328886
551.05	0.231363
552.795	-0.397812
554.54	0.0836115
556.282	-0.197491
558.025	0.0756989
559.769	0.533073
561.512	-0.183897
563.255	-0.232215
564.997	-0.00420141
566.739	-0.396208
568.481	-0.0295563
570.223	0.337545
571.964	0.292543
573.705	0.294758
575.443	0.229569
577.183	0.418114
578.923	0.768559
580.663	-0.143228
582.402	0.598643
584.141	0.191294
585.879	0.380734
587.615	0.201183
589.353	0.158624
591.09	0.115292
592.828	0.48565
594.564	-0.0874505
596.299	0.236743
598.035	-0.244344
599.771	0.17154
601.506	0.701712
603.242	0.287709
604.974	0.608431
606.709	-0.358989
608.443	0.580039
610.177	0.301438
611.908	0.161138
613.642	0.342564
615.374	0.455616
617.105	0.408351
618.837	0.383607
620.569	0.472456
622.3	-0.171853
624.03	-0.0616093
625.761	0.254026
627.491	0.478732
629.219	0.887357
630.949	0.339403
632.677	0.477705
634.406	0.708207
636.135	0.345024
637.861	0.0717301
639.59	0.412598
641.318	1.00166
643.043	0.516678
644.77	-0.105146
646.495	0.798449
648.222	0.747386
649.948	0.289951
651.672	0.312862
653.398	0.725265
655.121	0.458455
656.846	0.0108762
658.569	0.178537
660.293	0.48314
662.015	1.01543
663.738	0.175397
665.46	0.384229
667.183	0.866055
668.903	0.501147
670.626	0.891503
672.346	0.73444
674.067	0.189877
675.787	0.356642
677.508	0.570594
679.226	0.739151
680.947	0.562405
682.665	0.959062
684.385	1.05518
686.102	1.51809
687.821	0.805168
689.538	1.47317
691.254	0.689366
692.972	0.941575
694.688	1.23917
696.406	0.384429
698.121	0.772273
699.835	0.46847
701.552	1.17593
703.266	1.14625
704.98	0.70258
706.695	1.01644
708.409	1.16893
710.121	0.679262
711.836	1.22029
713.548	0.890919
715.26	1.0647
716.973	0.712955
718.685	0.81813
720.396	0.900445
722.108	1.25598
723.818	0.8146
725.528	0.851258
727.238	1.31915
728.949	1.03696
730.658	1.72975
732.367	1.17519
734.075	1.32292
735.785	1.58338
737.493	1.50491
739.2	1.53994
740.907	1.62081
742.614	1.72511
744.322	1.13251
746.028	0.991723
747.734	1.1446
749.439	1.45593
751.144	1.52085
752.849	1.72181
754.555	1.49654
756.26	1.3399
757.963	1.52213
759.667	1.61564
761.37	1.14657
763.073	1.42182
764.775	2.03595
766.477	1.81393
768.179	2.29084
769.883	1.7486
771.584	2.17678
773.285	2.28709
774.986	1.96731
776.686	1.76105
778.386	1.71411
780.085	2.09814
781.785	1.71414
783.484	2.52948
785.182	1.98608
786.881	2.11963
788.579	1.41303
790.276	2.03883
791.974	2.50319
793.671	2.15235
795.367	1.84701
797.064	1.4528
798.76	2.47937
800.456	2.24575
802.151	2.30609
803.846	1.82725
805.541	2.24785
807.234	2.35279
808.928	2.07479
810.622	2.15516
812.315	1.517
814.008	2.20128
815.701	2.10065
817.394	1.66461
819.086	2.05624
820.778	2.29103
822.468	2.03488
824.159	1.73516
825.85	2.52887
827.541	1.31899
829.231	2.00492
830.921	1.89158
832.609	1.44638
834.298	1.9833
835.987	2.16483
837.676	2.41337
839.364	1.32141
841.051	1.47812
842.738	1.79019
844.426	1.69971
846.113	1.20738
847.798	1.78937
849.484	1.7475
851.171	1.28218
852.857	1.66929
854.54	1.29507
856.226	1.45902
857.911	1.26266
859.593	1.67216
861.278	1.85557
862.961	1.38446
864.645	0.799181
866.327	1.29485
868.01	1.24908
869.692	1.42843
871.373	1.35944
873.055	1.60609
874.735	1.19837
876.416	1.5578
878.097	1.42079
879.776	1.23849
881.457	0.739807
883.135	1.54988
884.815	1.41089
886.495	1.54161
888.172	1.06179
889.851	1.32525
891.528	1.63226
893.206	1.32967
894.882	0.846568
896.56	1.50994
898.237	1.0034
899.912	1.39446
901.589	1.31342
903.263	0.851701
904.94	1.50837
906.614	1.06987
908.289	1.07878
909.962	1.33332
911.635	1.67703
913.31	1.30942
914.982	0.876192
916.656	1.22021
918.328	1.31974
920.001	1.79554
921.672	1.07637
923.345	1.19923
925.015	0.748878
926.685	0.764106
928.357	1.39863
930.026	1.68075
931.698	1.12493
933.366	0.790111
935.035	1.18339
936.705	0.606484
938.373	0.978631
940.041	0.712111
941.71	0.865591
943.377	0.953517
945.044	1.10759
946.712	1.41533
948.378	0.728271
950.044	1.4523
951.709	1.02767
953.376	0.691527
955.041	1.06235
956.706	0.619375
958.372	0.730178
960.036	0.8874
961.699	0.538036
963.362	1.07228
965.027	0.964471
966.69	1.05356
968.352	0.520876
970.014	0.915769
971.676	1.04438
973.339	0.996341
975	1.0158
976.661	0.572262
978.322	1.10308
979.982	0.616831
981.642	0.130011
983.303	0.859592
984.962	1.03429
986.621	0.853128
988.28	1.15735
989.938	0.929549
991.596	0.65724
993.254	0.628052
994.911	0.841772
996.57	0.194914
998.227	0.474842
999.884	0.754259
1001.54	1.36334
1003.2	0.980937
1004.85	0.884673
1006.51	0.656583
1008.16	0.231268
1009.82	0.00428104
1011.47	0.852471
1013.12	0.472626
1014.78	0.619219
1016.43	0.853518
1018.08	0.978571
1019.74	0.426151
1021.39	0.377807
1023.04	1.02979
1024.69	-0.219048
1026.34	0.455853
1028	0.58439
1029.65	0.756093
1031.3	0.48996
1032.95	0.441082
1034.6	0.521886
1036.25	0.383471
1037.9	-0.0821528
1039.54	-0.155308
1041.19	0.294132
1042.84	0.635237
1044.49	0.673153
1046.14	0.386765
1047.78	0.666609
1049.43	0.730542
1051.08	0.600014
1052.72	0.665609
1054.37	0.1231
1056.02	0.927897
1057.66	1.01541
1059.31	0.319839
1060.95	0.515117
1062.6	0.753296
1064.24	0.490628
1065.88	0.0750341
1067.53	0.0934782
1069.17	0.52396
1070.81	-0.0453682
1072.45	-0.0499334
1074.1	-0.0107651
1075.74	0.115885
1077.38	0.156713
1079.02	0.263522
1080.66	0.609438
1082.3	0.0446157
1083.94	0.0863209
1085.58	-0.0249205
1087.22	0.0140905
1088.86	-0.0134325
1090.5	0.758308
1092.14	0.403699
1093.78	0.157327
1095.42	0.60194
1097.05	0.65838
1098.69	0.15575
1100.33	0.150243
1101.96	0.275296
1103.6	0.896419
1105.24	0.292338
1106.87	0.248049
1108.51	0.139041
1110.14	0.00776196
1111.78	0.111813
1113.41	0.730099
1115.05	0.917286
1116.68	0.417232
1118.31	0.582502
1119.95	-0.173146
1121.58	0.635921
1123.21	0.546125
1124.85	-0.0990853
1126.48	0.112326
1128.11	0.00345421
1129.74	0.108969
1131.37	0.492822
1133	-0.341665
1134.63	0.277437
1136.26	-0.0658455
1137.89	0.231252
1139.52	-0.455287
1141.15	-0.0318022
1142.78	0.220167
1144.41	-0.0185699
1146.04	0.063199
1147.66	-0.216658
1149.29	0.569554
1150.92	-0.0287418
1152.55	0.544486
1154.17	0.20171
1155.8	-0.14118
1157.43	-0.0158825
1159.05	0.00325394
1160.68	-0.42355
1162.3	0.192434
1163.93	0.256308
1165.55	0.0441809
1167.17	0.384681
1168.8	0.00149155
1170.42	0.0210123
1172.05	0.421452
1173.67	0.0769587
1175.29	0.644243
1176.91	0.171476
1178.54	0.56806
1180.16	0.562434
1181.78	0.155611
1183.4	0.278343
1185.02	-0.190658
1186.64	0.543844
1188.26	0.432021
1189.88	-0.0816374
1191.5	0.478072
1193.12	0.341343
1194.74	0.498239
1196.36	0.591813
1197.97	-0.109783
1199.59	0.341906
1201.21	0.209453
1202.83	0.288073
1204.44	-0.0905046
1206.06	0.847272
1207.68	0.367192
1209.29	-0.133391
1210.91	0.888078
1212.52	0.0103674
1214.14	0.71542
1215.75	0.564029
1217.37	0.889877
1218.98	0.279085
1220.59	0.312978
1222.21	0.533967
1223.82	0.299685
1225.43	0.688107
1227.05	0.373692
1228.66	0.412322
1230.27	0.575971
1231.88	0.492434
1233.49	0.823247
1235.1	0.596997
1236.72	1.19848
1238.33	0.374543
1239.94	1.39116
1241.55	-0.011528
1243.16	0.61233
1244.76	0.594384
1246.37	1.09297
1247.98	0.659558
1249.59	0.722166
1251.2	0.825879
1252.8	0.495352
1254.41	0.413642
1256.02	0.911929
1257.62	1.01826
1259.23	0.628964
1260.84	0.695549
1262.44	0.721161
1264.05	1.07827
1265.66	0.71002
1267.26	0.714074
1268.86	0.613729
1270.47	0.823556
1272.07	1.17769
1273.67	1.05409
1275.28	0.908974
1276.88	0.701003
1278.48	0.264652
1280.09	0.697822
1281.69	1.13037
1283.29	1.02474
1284.89	0.774881
1286.49	1.00139
1288.09	0.732584
1289.69	1.10524
1291.29	0.982325
1292.89	1.02466
1294.49	1.00443
1296.09	0.776641
1297.69	1.02254
1299.29	0.854197
1300.89	0.540556
1302.49	0.659003
1304.08	1.02344
1305.68	1.01652
1307.28	0.660046
1308.88	1.47348
1310.47	1.34245
1312.07	1.15062
1313.66	1.26655
1315.26	0.545317
1316.85	1.05109
1318.45	0.985289
1320.04	1.22531
1321.64	0.934591
1323.23	0.948425
1324.83	1.30636
1326.42	1.31714
1328.01	1.02329
1329.61	0.993862
1331.2	1.20846
1332.79	0.979948
1334.38	1.01612
1335.97	0.690372
1337.56	0.970496
1339.16	1.1087
1340.75	0.721689
1342.34	1.21905
1343.93	1.33183
1345.52	1.12217
1347.11	0.752674
1348.7	1.0864
1350.29	1.42151
1351.87	1.11831
1353.46	1.197
1355.05	1.13684
1356.64	0.817281
1358.22	0.837162
1359.81	1.1558
1361.4	0.99425
1362.98	1.0117
1364.57	0.789599
1366.16	0.747266
1367.74	0.586127
1369.33	0.883925
1370.91	0.346841
1372.5	0.228896
1374.08	1.02711
1375.67	1.24886
1377.25	1.11253
1378.83	1.05538
1380.41	0.957619
1382	0.918496
1383.58	1.15672
1385.16	0.380194
1386.74	0.935123
1388.33	0.298173
1389.91	0.793708
1391.49	0.4562
1393.07	0.992378
1394.65	0.358458
1396.23	0.716135
1397.81	0.28015
1399.39	0.874087
1400.97	0.516062
1402.55	1.08827
1404.13	0.255189
1405.7	0.0956745
1407.28	0.332247
1408.86	0.648333
1410.44	0.11528
1412.01	0.2934
1413.59	0.234087
1415.17	0.549024
1416.74	0.23193
1418.32	0.979184
1419.89	0.54394
1421.47	0.661274
1423.04	0.0907993
1424.62	0.860178
1426.19	0.646388
1427.77	0.393672
1429.34	0.435992
1430.91	0.733489
1432.49	1.14806
1434.06	0.853421
1435.63	0.519244
1437.2	0.71626
1438.78	0.677869
1440.35	0.738547
1441.92	1.42886
1443.49	1.05849
1445.06	0.94393
1446.63	0.868808
1448.2	1.14763
1449.77	1.07287
1451.34	1.41138
1452.91	1.35713
1454.48	1.12613
1456.05	1.30821
1457.62	0.919134
1459.18	1.37523
1460.75	1.23951
1462.32	1.0236
1463.89	0.767156
1465.45	1.08007
1467.02	1.31376
1468.59	1.11555
1470.15	0.957512
1471.72	0.682809
1473.28	0.487564
1474.85	0.528325
1476.41	0.392941
1477.98	0.375309
1479.54	0.632064
1481.1	1.00627
1482.67	0.224092
1484.23	0.735235
1485.79	0.050931
1487.36	0.22811
1488.92	0.619535
1490.48	0.715633
1492.04	0.477468
1493.61	0.589574
1495.17	0.114726
1496.73	0.965128
1498.29	0.120192
1499.85	0.385591
1501.41	0.34058
1502.97	0.412955
1504.53	0.253389
1506.09	0.365341
1507.65	0.669994
1509.2	0.27774
1510.76	-0.153132
1512.32	0.0138159
1513.88	0.0260615
1515.43	0.172954
1516.99	0.358319
1518.55	0.0836291
1520.1	0.365518
1521.66	0.914859
1523.22	-0.181047
1524.77	-0.129546
1526.33	0.874438
1527.88	0.237466
1529.44	0.419425
1530.99	0.259077
1532.54	0.459822
1534.1	0.547102
1535.65	0.105396
1537.21	0.38338
1538.76	-0.131412
1540.31	0.86363
1541.86	0.726519
1543.42	0.53314
1544.97	0.490385
1546.52	0.804411
1548.07	0.854977
1549.62	0.493042
1551.17	0.581374
1552.72	0.744765
1554.27	0.572184
1555.82	0.55038
1557.37	0.287339
1558.92	0.940321
1560.47	0.269981
1562.02	0.869536
1563.56	1.02229
1565.11	1.0263
1566.66	0.80646
1568.21	0.754355
1569.75	0.90725
1571.3	0.910517
1572.85	0.764211
1574.39	1.0098
1575.94	1.0874
1577.49	0.381097
1579.03	1.00058
1580.57	1.11654
1582.12	0.840988
1583.66	1.03301
1585.21	0.79594
1586.75	0.502987
1588.3	0.845842
1589.84	1.05784
1591.38	0.633203
1592.92	0.975619
1594.47	1.18689
1596.01	1.62315
1597.55	0.841788
1599.09	0.735362
1600.63	1.30471
1602.17	1.23688
1603.71	1.28165
1605.25	0.968956
1606.79	0.861651
1608.33	0.752756
1609.87	1.28106
1611.41	1.07447
1612.95	0.941533
1614.49	0.976594
1616.03	1.03
1617.57	0.95248
1619.1	0.220256
1620.64	0.369977
1622.18	0.745331
1623.72	0.896549
1625.25	0.467483
1626.79	0.543297
1628.32	0.487126
1629.86	1.00963
1631.39	0.913994
1632.93	1.35979
1634.46	0.797266
1636	1.33678
1637.53	0.906777
1639.07	0.44032
1640.6	0.607882
1642.13	0.644448
1643.67	1.36908
1645.2	0.95676
1646.73	0.916154
1648.26	0.949671
1649.8	1.1134
1651.33	1.03646
1652.86	1.29446
1654.39	1.36776
1655.92	0.922584
1657.45	0.977922
1658.98	0.940008
1660.51	0.827057
1662.04	1.04609
1663.57	1.26387
1665.1	1.09295
1666.63	0.811835
1668.16	1.17747
1669.68	0.511632
1671.21	0.953066
1672.74	0.916167
1674.27	1.17431
1675.79	1.02711
1677.32	0.916176
1678.85	0.804459
1680.37	0.78394
1681.9	0.964953
1683.42	0.906738
1684.95	0.298138
1686.47	0.552491
1688	0.275361
1689.52	0.878129
1691.05	0.564997
1692.57	0.0875335
1694.09	0.598226
1695.62	0.285578
1697.14	0.30196
1698.66	0.427623
1700.18	0.46155
1701.71	-0.179776
1703.23	0.527987
1704.75	-0.331841
1706.27	0.046649
1707.79	0.169764
1709.31	-0.106999
1710.83	-0.165463
1712.35	0.247746
1713.87	0.370505
1715.39	0.239666
1716.91	0.054729
1718.43	0.376031
1719.95	-0.477017
1721.47	-0.155754
1722.99	-0.014895
1724.5	0.198573
1726.02	-0.0734196
1727.54	0.177829
1729.06	0.123746
1730.57	0.447186
1732.09	-0.174501
1733.61	-0.170644
1735.12	-0.0643764
1736.64	0.122304
1738.15	0.0284786
1739.67	0.253663
1741.18	-0.279508
1742.7	0.396509
1744.21	0.0507813
1745.72	0.174501
1747.24	-0.520637
1748.75	-0.288937
1750.26	-0.141268
1751.77	0.450181
1753.29	-0.297809
1754.8	0.186399
1756.31	0.129571
1757.82	0.021606
1759.33	0.0323052
1760.84	0.217881
1762.36	0.271821
1763.87	-0.128023
1765.38	0.471903
1766.89	-0.239556
1768.4	0.0921631
1769.91	0.229814
1771.41	0.0778589
1772.92	0.430543
1774.43	0.281999
1775.94	0.0467296
1777.45	0.0493236
1778.95	0.0446014
1780.46	-0.0583439
1781.97	0.28259
1783.48	0.0801377
1784.98	0.02881
1786.49	-0.0166211
1787.99	0.107179
1789.5	-0.219815
1791.01	-0.103873
1792.51	-0.191214
1794.01	0.25139
1795.52	0.208777
1797.02	0.149461
1798.53	0.152843
1800.03	0.112616
1801.53	-0.0525866
1803.04	-0.12076
1804.54	0.42392
1806.04	0.30818
1807.54	0.0206876
1809.05	-0.0217338
1810.55	-0.00442314
1812.05	0.107634
1813.55	0.0458288
1815.05	0.199468
1816.55	-0.19416
1818.05	-0.0618815
1819.55	-0.0674062
1821.05	0.15533
1822.55	-0.0730162
1824.05	-0.029861
1825.55	-0.031117
1827.05	0.443105
1828.55	0.0909491
1830.04	0.0123024
1831.54	0.126027
1833.04	0.114209
1834.54	0.109729
1836.03	-0.0154333
1837.53	0.076376
1839.03	-0.0734854
1840.52	-0.239414
1842.02	-0.411802
1843.51	-0.180833
1845.01	0.0400877
1846.5	0.314711
1848	0.0965047
1849.49	0.0634613
1850.99	-0.0181932
1852.48	-0.0216541
1853.97	0.277209
1855.47	-0.0597005
1856.96	0.56769
1858.45	-0.0256929
1859.94	0.080286
1861.44	0.0498796
1862.93	-0.0586648
1864.42	0.0997977
1865.91	0.0828052
1867.4	0.052494
1868.89	0.127642
1870.38	-0.0170841
1871.87	0.209595
1873.36	0.183424
1874.85	0.270253
1876.34	0.0655541
1877.83	0.251608
1879.32	0.411553
1880.81	0.161768
1882.3	0.138886
1882.57	0.146373
1884.07	0.127841
1885.56	-0.0655575
1887.06	0.0540595
1888.55	0.173172
1890.04	-0.10783
1891.54	-0.0573769
1893.03	0.202918
1894.52	0.0299349
1896.02	0.397151
1897.51	-9.29832e-005
1899	0.228621
1900.49	0.0216527
1901.98	0.404864
1903.47	0.0908756
1904.96	-0.137091
1906.45	0.207918
1907.94	0.153168
1909.43	-0.178752
1910.92	0.340496
1912.41	0.322407
1913.9	0.166023
1915.39	0.200499
1916.88	-0.0600328
1918.37	0.0257878
1919.85	0.353784
1921.34	0.404375
1922.83	0.212859
1924.32	-0.272174
1925.8	-0.202278
1927.29	0.0588446
1928.78	0.407075
1930.26	0.114625
1931.75	-0.0572963
1933.23	0.202555
1934.72	0.339718
1936.2	0.0429072
1937.69	0.229634
1939.17	0.363934
1940.66	0.101173
1942.14	0.495176
1943.63	0.113418
1945.11	-0.232892
1946.59	0.248748
1948.07	0.126724
1949.56	-0.0130291
1951.04	0.104838
1952.52	0.0497842
1954	0.286677
1955.48	0.231082
1956.96	0.175879
1958.45	-0.0674992
1959.93	-0.224294
1961.41	0.0652704
1962.89	-0.00519848
1964.37	-0.0072298
1965.85	0.178711
1967.32	0.381027
1968.8	0.650989
1970.28	0.150953
1971.76	0.18089
1973.24	-0.0111375
1974.72	0.018908
1976.19	-0.15547
1977.67	-0.176197
1979.15	0.160612
1980.63	0.207786
1982.1	0.424736
1983.58	0.0296493
1985.05	0.398653
1986.53	0.478578
1988	0.0669298
1989.48	0.164167
1990.95	0.143352
1992.43	0.106396
1993.9	0.188595
1995.38	-0.353891
1996.85	0.269964
1998.32	0.403619
1999.8	0.131654
2001.27	0.0956736
2002.74	-0.126187
2004.22	0.140947
2005.69	0.037406
2007.16	0.490361
2008.63	0.303936
2010.1	0.00043869
2011.57	0.0509334
2013.04	0.0846124
2014.51	0.134768
2015.98	0.0328736
2017.45	0.182605
2018.92	0.281137
2020.39	-0.0913115
2021.86	0.309003
2023.33	0.591698
2024.8	0.203681
2026.27	0.185892
2027.74	0.135705
2029.2	-0.148134
2030.67	0.357445
2032.14	0.159227
2033.61	0.0619707
2035.07	0.367664
2036.54	-0.183496
2038.01	0.0207739
2039.47	0.15761
2040.94	-0.0921674
2042.4	-0.13999
2043.87	0.0818563
2045.33	0.388712
2046.8	0.0903683
2048.26	-0.00592375
2049.72	0.419887
2051.19	-0.132676
2052.65	0.240794
2054.12	0.157562
2055.58	-0.0619149
2057.04	-0.113747
2058.5	0.255132
2059.97	0.455171
2061.43	0.133444
2062.89	0.0987167
2064.35	0.233086
2065.81	0.183093
2067.27	0.0496135
2068.73	0.286845
2070.19	0.339208
2071.65	0.39163
2073.11	0.275571
2074.57	0.563417
2076.03	0.261626
2077.49	0.262652
2078.95	0.29704
2080.41	0.432091
2081.87	0.364627
2083.32	0.431311
2084.78	-0.00745964
2086.24	0.545955
2087.7	0.140035
2089.15	0.490417
2090.61	0.118022
2092.07	0.40069
2093.52	0.716541
2094.98	0.864129
2096.43	0.24018
2097.89	0.822371
2099.34	-0.0527663
2100.8	0.477876
2102.25	0.640284
2103.71	0.252115
2105.16	0.432857
2106.61	0.714637
2108.07	0.580129
2109.52	0.562665
2110.97	0.394725
2112.43	-0.00741625
2113.88	0.388884
2115.33	0.0845475
2116.78	0.278775
2118.23	0.622426
2119.68	0.618089
2121.13	0.499206
2122.59	0.481467
2124.04	0.945772
2125.49	1.02914
2126.94	0.548539
2128.39	0.862922
2129.83	0.894284
2131.28	0.858295
2132.73	0.987217
2134.18	1.1987
2135.63	0.81542
2137.08	0.830372
2138.53	0.764215
2139.97	1.01362
2141.42	0.933845
2142.87	0.970751
2144.31	0.892412
2145.76	0.847208
2147.21	1.08319
2148.65	1.23599
2150.1	1.02366
2151.54	1.30748
2152.99	1.40824
2154.43	1.12721
2155.88	0.961818
2157.32	1.50883
2158.77	0.946595
2160.21	0.749867
2161.65	1.26704
2163.1	1.04009
2164.54	1.26209
2165.98	0.987009
2167.43	1.19325
2168.87	1.41549
2170.31	1.07092
2171.75	1.27337
2173.19	1.52411
2174.64	1.37444
2176.07	1.45717
2177.52	1.10775
2178.96	1.17471
2180.4	1.32561
2181.84	1.09484
2183.28	1.01417
2184.72	1.41604
2186.15	1.6185
2187.59	1.05564
2189.03	1.42458
2190.47	1.11118
2191.91	1.24694
2193.35	1.71509
2194.78	0.850133
2196.22	1.19904
2197.66	1.37964
2199.09	1.30917
2200.53	0.872407
2201.97	0.85124
2203.4	0.9302
2204.84	0.844156
2206.27	0.676176
2207.71	0.95604
2209.14	0.722165
2210.58	0.984395
2212.01	0.798898
2213.45	0.976678
2214.88	1.17063
2216.31	0.473526
2217.75	0.916454
2219.18	0.634407
2220.61	0.666465
2222.05	0.715071
2223.48	0.499457
2224.91	0.990968
2226.34	0.476718
2227.78	0.718203
2229.21	0.695424
2230.64	0.688475
2232.07	0.714153
2233.5	0.625443
2234.93	-0.00205708
2236.36	1.05518
2237.79	0.528588
2239.22	0.477336
2240.65	0.80288
2242.08	0.0207191
2243.5	0.00610828
2244.93	0.497397
2246.36	0.0421166
2247.79	0.156517
2249.22	0.350706
2250.64	0.868758
2252.07	-0.177983
2253.5	0.565294
2254.92	0.413918
2256.35	-0.125663
2257.78	0.180931
2259.2	0.392172
2260.63	0.346102
2262.05	0.366831
2263.48	-0.000986099
2264.9	0.411028
2266.33	0.563061
2267.75	0.519378
2269.18	0.198247
2270.6	0.413516
2272.02	0.579651
2273.45	0.191991
2274.87	0.227773
2276.29	-0.0621433
2277.71	0.153169
2279.14	0.0914993
2280.56	0.209127
2281.98	0.033123
2283.4	-0.0125084
2284.82	0.137698
2286.24	0.0269828
2287.66	0.226719
2289.08	0.377929
2290.5	0.676636
2291.92	0.240186
2293.34	0.114191
2294.76	0.13532
2296.18	0.336463
2297.6	0.488606
2299.02	0.231356
2300.44	0.498514
2301.86	0.126631
2303.27	-0.146964
2304.69	-0.0267673
2306.11	0.274154
2307.53	0.32863
2308.94	0.448482
2310.36	0.156848
2311.78	0.029213
2313.19	0.181207
2314.61	0.234864
2316.02	0.108001
2317.44	0.261701
2318.85	-0.0951271
2320.27	0.0587707
2321.68	0.178961
2323.1	-0.0488257
2324.51	0.249713
2325.92	0.56289
2327.34	0.528183
2328.75	0.476443
2330.16	0.210816
2331.58	0.209576
2332.99	-0.169326
2334.4	0.357577
2335.81	-0.0861487
2337.23	0.12783
2338.64	0.423113
2340.05	-0.0057683
2341.46	0.172716
2342.87	-0.141722
2344.28	-0.0949636
2345.69	0.263329
2347.1	-0.115642
2348.51	-0.166757
2349.92	0.0272732
2351.33	-0.0410976
2352.74	-0.175429
2354.15	-0.195992
2355.55	0.288258
2356.96	-0.156814
2358.37	0.277308
2359.78	0.0444856
2361.19	0.0556765
2362.59	-0.257411
2364	-0.0678716
2365.41	0.153579
2366.81	-0.110102
2368.22	0.159989
2369.62	0.140036
2371.03	-0.152882
2372.44	0.570493
2373.84	-0.123087
2375.24	0.375315
2376.65	0.148975
2378.05	0.324011
2379.46	0.0637646
2380.86	0.0113664
2382.26	-0.154225
2383.67	0.160353
2385.07	-0.1498
2386.47	-0.0515103
2387.88	0.047246
2389.28	-0.259839
2390.68	0.199202
2392.08	0.00576544
2393.48	0.036078
2394.89	-0.0761399
2396.29	-0.0446563
2397.69	0.00317526
2399.09	-0.377582
2400.49	-0.233583
2401.89	-0.18471
2403.29	0.420017
2404.69	0.373232
2406.09	-0.213922
2407.48	0.0396051
2408.88	0.0702863
2410.28	0.195803
2411.68	0.178791
2413.08	0.114932
2414.48	-0.0745521
2415.87	0.196224
2417.27	-0.181079
2418.67	0.0280619
2420.06	0.364243
2421.46	0.0193214
2422.86	0.19682
2424.25	0.390003
2425.65	0.123744
2427.04	0.0797014
2428.44	0.242411
2429.83	0.342529
2431.23	0.42741
2432.62	0.210859
2434.02	0.104858
2435.41	0.0773468
2436.81	0.175806
2438.2	0.209542
2439.59	0.289926
2440.99	-0.0274305
2442.38	0.226491
2443.77	0.194386
2445.16	0.225615
2446.56	0.0188875
2447.95	-0.0768275
2449.34	0.176015
2450.73	-0.0303435
2452.12	0.0645909
2453.51	-0.0139899
2454.9	0.382717
2456.29	0.0205717
2457.68	-0.0723829
2459.07	0.0717974
2460.46	0.0889902
2461.85	0.405956
2463.24	0.105709
2464.63	-0.305351
2466.02	-0.0845962
2467.4	0.0411906
2468.79	0.419274
2470.18	0.102944
2471.57	-0.103087
2472.95	0.131682
2474.34	0.0349798
2475.73	-0.0620651
2477.12	0.0765271
2478.5	0.261975
2479.89	0.290345
2481.27	0.240409
2482.66	-0.326516
2484.04	0.155945
2485.43	-0.0356183
2486.81	0.2254
2488.2	0.235318
2489.58	-0.0981927
2490.97	0.00483418
2492.35	0.20127
2493.73	-0.440352
2495.12	0.161246
2496.5	0.266774
2497.88	0.140478
2499.27	0.246721
2500.65	-0.0805292
2502.03	-0.0678711
2503.41	0.12932
2504.79	-0.0138903
2506.17	0.135485
2507.56	-0.223517
2508.94	0.156283
2510.32	0.0748973
2511.7	-0.0978737
2513.08	-0.269746
2514.46	0.0953546
2515.84	0.27692
2517.22	0.152929
2518.59	-0.00108337
2519.97	0.16608
2521.35	0.180134
2522.73	-0.00475836
2524.11	0.206517
2525.49	-0.00979042
2526.86	-0.0888877
2528.24	0.106336
2529.62	0.0740485
2530.99	-0.336957
2532.37	0.241179
2533.75	-0.167384
2535.12	0.0627012
2536.5	-0.13265
2537.88	0.415863
2539.25	0.20407
2540.63	-0.190434
2542	0.0676889
2543.38	0.174146
2544.75	0.266039
2546.12	-0.369183
2547.5	0.225141
2548.87	0.000989914
2550.24	-0.0411143
2551.62	0.189573
2552.99	-0.0812335
2554.36	0.239042
2555.74	0.179242
2557.11	-0.0477858
2558.48	0.119467
2559.85	0.0746098
2561.22	0.48487
2562.59	-0.0743718
2563.96	0.200367
2565.34	0.126883
2566.71	0.0535803
2568.08	0.298603
2569.45	0.164753
2570.82	0.0460529
2572.18	-0.0877886
2573.55	0.0967503
2574.92	-0.0672927
2576.29	0.147694
2577.66	-0.16803
2579.03	0.304523
2580.4	0.0793219
2581.77	0.217724
2583.13	0.143566
2584.5	-0.158149
2585.87	0.222281
2587.23	-0.170258
2588.6	-0.0473084
2589.97	0.0908608
2591.33	0.183449
2592.7	0.0786834
2594.06	-0.162987
2595.43	0.00359821
2596.79	0.00279045
2598.16	0.228314
2599.52	-0.0607276
2600.89	0.375925
2602.25	0.0120993
2603.62	0.056694
2604.98	-0.320839
2606.34	0.0109882
2607.71	0.101064
2609.07	0.0999889
2610.43	-0.0676775
2611.79	0.0498691
2613.16	0.10621
2614.52	-0.243689
2615.88	0.0371637
2617.24	0.227689
2618.6	-0.345449
2619.96	0.0106916
2621.32	-0.0966983
2622.68	0.080339
2624.04	0.0333281
2625.4	0.389227
2626.76	0.297091
2628.12	0.249532
2629.48	0.306037
2630.84	-0.173293
2632.2	-0.101913
2633.56	0.147559
2634.92	0.277876
2636.28	0.467279
2637.63	0.182203
2638.99	0.0160737
2640.35	-0.282821
2641.71	0.246781
2643.06	-0.287804
2644.42	0.226608
2645.77	-0.24815
2647.13	-0.0591712
2648.49	0.070086
2649.84	0.0807838
2651.2	-0.0266514
2652.55	0.0421371
2653.91	-0.153103
2655.26	0.0776334
2656.62	0.176996
2657.97	0.0282769
2659.33	-0.090354
2660.68	-0.120851
2662.03	0.389282
2663.39	0.197323
2664.74	0.253112
2666.09	-0.04179
2667.44	0.202624
2668.8	0.12624
2670.15	-0.211705
2671.5	0.250888
2672.85	-0.0857987
2674.2	0.144717
2675.55	0.30285
2676.91	-0.119051
2678.26	-0.192071
2679.61	0.185047
2680.96	0.28736
2682.31	0.318097
2683.66	0.262751
2685	0.0195389
2686.35	0.240827
2687.7	0.157293
2689.05	-0.144941
2690.4	0.291937
2691.75	0.0596776
2693.1	0.0585718
2694.44	0.259765
2695.79	0.330193
2697.14	-0.0190411
2698.49	0.183227
2699.83	0.444599
2701.18	0.214977
2702.52	0.0153651
2703.87	0.0772109
2705.22	0.00900078
2706.56	0.448425
2707.91	0.147971
2709.25	-0.109493
2710.6	-0.00437021
2711.94	0.274951
2713.29	0.0457397
2714.63	0.296023
2715.97	0.110198
2717.32	0.244125
2718.66	0.334286
2720.01	0.336895
2721.35	0.237278
2722.69	0.151821
2724.03	-0.0213413
2725.38	0.416506
2726.72	0.228175
2728.06	0.0978408
2729.4	-0.0326471
2730.74	0.113246
2732.08	0.34637
2733.42	0.303114
2734.76	-0.103639
2736.1	0.0570502
2737.44	-0.0730615
2738.78	0.10222
2740.12	0.306372
2741.46	0.132072
2742.8	-0.115337
2744.14	0.247246
2745.48	-0.0446067
2746.82	0.0555315
2748.16	-0.0622735
2749.49	0.0667009
2750.83	0.297235
2752.17	-0.0811133
2753.51	0.222123
2754.84	0.13411
2756.18	0.0462503
2757.52	0.204713
2758.85	0.276431
2760.19	0.145789
2761.53	-0.230453
2762.86	0.43554
2764.2	-0.215001
2765.53	0.00259781
2766.87	0.219819
2768.2	-0.171219
2769.54	0.0153904
2770.87	0.0562572
2772.2	0.182713
2773.54	0.00519466
2774.87	0.0438299
2776.2	0.0391641
2777.54	0.293815
2778.87	-0.127392
2780.2	-0.217098
2781.53	-0.0336185
2782.87	0.135324
2784.2	0.0458555
2785.53	0.243119
2786.86	-0.103979
2788.19	-0.0351777
2789.52	-0.309258
2790.85	0.0754108
2792.18	-0.0686321
2793.51	0.002141
2794.84	0.0300255
2796.17	0.0433545
2797.5	-0.0151501
2798.83	0.0544767
2800.16	0.138002
2801.49	-0.220963
2802.82	0.190197
2804.15	-0.0832825
2805.47	-0.285575
2806.8	0.166658
2808.13	0.120008
2809.46	0.115752
2810.78	0.225136
2812.11	0.17873
2813.44	0.431082
2814.76	0.103054
2816.09	-0.365466
2817.42	0.0031414
2818.74	0.0319662
2820.07	-0.109298
2821.39	-0.279229
2822.72	0.0463829
2824.04	0.116404
2825.37	0.228633
2826.69	0.100108
2828.02	-0.29699
2829.34	0.311542
2830.66	0.198367
2831.99	0.311839
2833.31	0.22708
2834.63	0.127932
2835.96	0.424692
2837.28	-0.241192
2838.6	0.394308
2839.92	-0.200997
2841.24	0.0099535
2842.57	0.305906
2843.89	0.305429
2845.21	0.390261
2846.53	0.588587
2847.85	0.702381
2849.17	0.434576
2850.49	0.618828
2851.81	0.689646
2853.13	0.505695
2854.45	0.632388
2855.77	0.631757
2857.09	0.85714
2858.41	0.432767
2859.72	0.869962
2861.04	0.982131
2862.36	0.825794
2863.68	1.24792
2865	1.24634
2866.31	1.06137
2867.63	1.25744
2868.95	1.25636
2870.26	1.19918
2871.58	1.42403
2872.9	1.57813
2874.21	1.25256
2875.53	1.58841
2876.84	1.55715
2878.16	1.60976
2879.47	1.33867
2880.79	1.18054
2882.1	1.65535
2883.42	1.639
2884.73	1.56719
2886.05	1.48179
2887.36	1.42454
2888.67	1.43714
2889.99	1.39308
2891.3	1.54475
2892.61	1.83602
2893.92	1.59458
2895.24	1.7457
2896.55	1.60334
2897.86	1.65773
2899.17	1.51694
2900.48	1.67051
2901.79	1.9083
2903.11	2.04829
2904.42	1.8247
2905.73	2.28668
2907.04	2.07769
2908.35	1.91122
2909.66	2.36091
2910.97	2.06947
2912.27	2.47776
2913.58	2.11564
2914.89	2.7745
2916.2	2.62009
2917.51	2.73051
2918.82	2.53236
2920.13	1.92866
2921.43	2.54221
2922.74	3.19829
2924.05	2.82086
2925.35	2.94748
2926.66	2.79496
2927.97	3.04786
2929.27	3.0209
2930.58	3.357
2931.89	3.30132
2933.19	2.86805
2934.5	3.34333
2935.8	3.32947
2937.11	2.85458
2938.41	2.91088
2939.72	3.20492
2941.02	2.91244
2942.32	2.98391
2943.63	2.98638
2944.93	2.41664
2946.24	2.7704
2947.54	2.62117
2948.84	2.20568
2950.14	2.29315
2951.45	2.60347
2952.75	2.36636
2954.05	2.28232
2955.35	2.33804
2956.65	2.19844
2957.95	1.94832
2959.26	2.14802
2960.56	2.09767
2961.86	1.95055
2963.16	1.95804
2964.46	2.27401
2965.76	2.06957
2967.06	2.15889
2968.36	2.17703
2969.66	1.95558
2970.96	1.4667
2972.25	1.73752
2973.55	1.69911
2974.85	1.63252
2976.15	1.42464
2977.45	1.18764
2978.74	1.70979
2980.04	1.41409
2981.34	1.46942
2982.64	0.863282
2983.93	1.31231
2985.23	1.25584
2986.52	0.849184
2987.82	0.991615
2989.12	0.769369
2990.41	1.06727
2991.71	0.704271
2993	0.663805
2994.3	0.383624
2995.59	1.1703
2996.89	0.579965
2998.18	0.677623
2999.48	0.789402
3000.77	0.326609
3002.06	0.579394
3003.36	0.467999
3004.65	0.426779
3005.94	0.147329
3007.23	0.357589
3008.53	0.371187
3009.82	0.202366
3011.11	0.0332503
3012.4	0.199165
3013.69	0.127681
3014.99	0.446914
3016.28	0.125431
3017.57	0.250386
3018.86	0.139029
3020.15	0.222535
3021.44	0.291716
3022.73	-0.153687
3024.02	0.0392547
3025.31	-0.129119
3026.6	0.187426
3027.89	0.0747981
3029.18	0.184388
3030.46	-0.064302
3031.75	0.102628
3033.04	0.228761
3034.33	0.0238276
3035.62	0.356641
3036.9	0.109089
3038.19	0.0258894
3039.48	0.0515833
3040.76	0.227279
3042.05	0.0861788
3043.34	0.109921
3044.62	0.230062
3045.91	0.0367031
3047.19	0.118526
3048.48	0.147353
3049.77	0.314203
3051.05	0.100077
3052.34	0.268661
3053.62	0.259853
3054.9	0.386981
3056.19	0.131409
3057.47	0.243299
3058.76	0.000281811
3060.04	0.383694
3061.32	-0.0631022
3062.61	0.184927
3063.89	0.0666885
3065.17	0.071991
3066.45	-0.0168552
3067.74	0.234923
3069.02	0.296686
3070.3	0.263067
3071.58	0.215202
3072.86	-0.0511174
3074.14	0.293542
3075.42	-0.0285234
3076.7	0.0433474
3077.99	-0.142416
3079.26	-0.110148
3080.54	0.0724015
3081.82	-0.110188
3083.1	-0.251198
3084.38	0.178142
3085.66	0.0648298
3086.94	-0.0759664
3088.22	0.0813379
3089.5	-0.0332937
3090.78	0.177467
3092.05	-0.0731931
3093.33	-0.0930319
3094.61	0.00942183
3095.89	0.0578241
3097.16	0.0791798
3098.44	-0.0621343
3099.72	-0.0273104
3100.99	0.0616436
3102.27	-0.038969
3103.54	-0.0580645
3104.82	0.193953
3106.1	0.162257
3107.37	0.104208
3108.65	0.046947
3109.92	-0.00952673
3111.2	0.273211
3112.47	0.204541
3113.74	0.217469
3115.02	0.203301
3116.29	-0.136669
3117.56	0.0380201
3118.84	0.117048
3120.11	0.141042
3121.38	0.055923
3122.66	0.187291
3123.93	0.345547
3125.2	0.219502
3126.47	0.18867
3127.74	0.469476
3129.01	0.0742702
3130.29	0.206917
3131.56	0.136844
3132.83	0.201863
3134.1	-0.152111
3135.37	0.276901
3136.64	0.21937
3137.91	0.242465
3139.18	0.238339
3140.45	0.0726471
3141.72	0.256959
3142.99	0.347152
3144.26	0.477879
3145.52	0.152812
3146.79	0.498991
3148.06	0.336194
3149.33	0.294568
