200.43	0.0847321
202.244	0.103513
204.059	0.123137
205.873	-0.464608
207.688	0.479941
209.501	0.0380516
211.314	0.30002
213.127	0.172215
214.941	0.674297
216.753	0.132874
218.564	0.391453
220.375	-0.31803
222.186	0.110872
223.999	0.177319
225.809	-0.480926
227.618	0.238307
229.428	0.111456
231.236	-0.0399141
233.045	0.266895
234.855	-0.173857
236.663	-0.107217
238.471	0.274232
240.278	-0.427127
242.085	0.367784
243.891	0.151159
245.698	0.0549221
247.503	-0.0909176
249.309	-0.238911
251.116	0.166019
252.921	0.0858059
254.725	0.752027
256.529	-0.31878
258.333	0.564011
260.136	0.459663
261.939	0.453222
263.742	0.399902
265.544	0.178722
267.346	0.632504
269.148	0.121964
270.949	0.430276
272.75	-0.0338659
274.55	0.344698
276.351	-0.0254316
278.15	0.133312
279.95	0.651589
281.749	0.325118
283.548	0.286187
285.346	0.462366
287.144	0.805519
288.942	0.0929327
290.739	0.484163
292.536	0.420953
294.333	0.0959263
296.129	0.37009
297.925	0.477557
299.721	0.0836039
301.514	-0.047554
303.309	0.178861
305.104	0.0222559
306.898	0.819093
308.692	0.637457
310.486	-0.163052
312.279	0.443177
314.072	0.621728
315.862	0.254051
317.654	0.0782442
319.446	0.165564
321.238	0.301504
323.029	0.271249
324.819	0.336726
326.608	0.664978
328.398	0.443941
330.188	0.293799
331.977	0.309969
333.766	0.922934
335.553	0.409674
337.341	0.253449
339.129	0.765438
340.917	0.510521
342.704	0.326818
344.489	0.286546
346.275	0.724369
348.062	0.350609
349.845	0.359383
351.631	0.392042
353.416	0.37651
355.201	0.717944
356.984	0.247327
358.768	0.300381
360.552	0.6382
362.333	0.546415
364.116	0.454135
365.899	0.67025
367.68	0.41061
369.462	0.648696
371.243	-0.0618887
373.023	0.435161
374.804	0.576267
376.585	0.433812
378.363	0.127003
380.143	-0.1785
381.923	0.247061
383.7	0.202536
385.479	0.417655
387.256	0.281061
389.034	0.521302
390.812	0.621301
392.588	-0.170474
394.365	0.189011
396.14	0.126051
397.916	0.0631652
399.691	0.258484
401.467	0.383018
403.24	0.647964
405.015	0.419075
406.788	-0.186095
408.563	0.171072
410.335	0.386981
412.109	-0.124696
413.88	0.326153
415.654	0.566294
417.424	-0.460001
419.197	-0.0310369
420.967	0.468641
422.739	0.592698
424.508	0.598837
426.279	0.745096
428.048	0.162921
429.819	0.0733833
431.587	0.124645
433.356	0.246545
435.124	-0.100688
436.891	0.443906
438.66	0.119604
440.426	0.756316
442.194	0.476239
443.96	0.358777
445.725	-0.462775
447.492	0.237432
449.257	0.281273
451.021	-0.258988
452.787	0.0422859
454.551	0.179969
456.314	0.0377402
458.079	0.0819254
459.842	-0.0368094
461.604	-0.131623
463.368	-0.15546
465.13	-0.0381002
466.891	-0.104503
468.654	0.156524
470.415	0.535528
472.175	0.496638
473.935	0.131182
475.696	0.439487
477.456	0.536564
479.215	0.515669
480.973	0.517247
482.733	-0.0866122
484.491	0.45167
486.249	-0.149887
488.006	0.391801
489.765	0.445977
491.522	0.197619
493.278	0.0661879
495.034	-0.0185437
496.789	0.0603681
498.544	0.139211
500.301	0.335119
502.056	1.0472
503.81	0.77317
505.564	0.0512495
507.317	0.268075
509.071	0.319229
510.825	0.251518
512.578	-0.099822
514.33	0.206551
516.082	0.488257
517.833	0.36906
519.585	0.366693
521.335	0.387231
523.086	0.0785913
524.836	-0.206413
526.586	0.423762
528.335	0.936074
530.085	0.205751
531.835	0.13171
533.584	0.127378
535.332	0.285895
537.08	0.6534
538.827	0.155266
540.574	0.799971
542.321	0.580694
544.068	0.0126677
545.814	0.0966053
547.56	0.342946
549.305	0.588914
551.05	0.0935211
552.795	-0.076797
554.54	0.169318
556.282	0.392064
558.025	0.407129
559.769	0.0769849
561.512	0.00107718
563.255	0.385777
564.997	-0.0111189
566.739	0.121343
568.481	0.300189
570.223	0.296117
571.964	-0.0509849
573.705	0.658495
575.443	-0.236432
577.183	0.31523
578.923	0.156686
580.663	0.457971
582.402	0.392004
584.141	0.00371361
585.879	0.166303
587.615	-0.0860367
589.353	-0.247341
591.09	0.188848
592.828	0.785696
594.564	-0.389151
596.299	0.0925736
598.035	0.48225
599.771	0.0434289
601.506	-0.142901
603.242	-0.10011
604.974	-0.0584149
606.709	-0.04072
608.443	-0.0466223
610.177	0.19983
611.908	-0.0812006
613.642	0.188905
615.374	0.298894
617.105	-0.00342417
618.837	-0.122666
620.569	-0.0365725
622.3	0.0485024
624.03	0.0413752
625.761	-0.0342941
627.491	-0.0862503
629.219	0.342557
630.949	-0.162541
632.677	0.155435
634.406	-0.347306
636.135	0.336603
637.861	0.24319
639.59	-0.194579
641.318	0.0957117
643.043	0.474904
644.77	0.533648
646.495	-0.158151
648.222	0.493669
649.948	-0.238801
651.672	0.00887203
653.398	0.214112
655.121	0.0809617
656.846	0.473055
658.569	0.889536
660.293	0.713336
662.015	0.0331087
663.738	0.0814176
665.46	-0.214977
667.183	-0.0327392
668.903	0.354829
670.626	0.560041
672.346	0.469422
674.067	0.403543
675.787	0.774752
677.508	0.184087
679.226	0.143575
680.947	0.0562987
682.665	0.680753
684.385	0.959033
686.102	0.545067
687.821	0.42903
689.538	0.243006
691.254	0.401928
692.972	0.330021
694.688	1.17884
696.406	-0.161035
698.121	0.547731
699.835	0.472632
701.552	0.856655
703.266	0.205208
704.98	0.289048
706.695	0.257612
708.409	0.111261
710.121	0.33147
711.836	0.551029
713.548	0.632735
715.26	0.599881
716.973	1.02367
718.685	0.671208
720.396	0.77534
722.108	0.492292
723.818	1.00613
725.528	0.859751
727.238	0.66797
728.949	1.42928
730.658	0.760548
732.367	1.02139
734.075	0.761175
735.785	0.908358
737.493	1.12329
739.2	0.571347
740.907	0.674807
742.614	0.688949
744.322	1.13188
746.028	0.652895
747.734	0.850256
749.439	1.11607
751.144	1.33789
752.849	1.38087
754.555	0.592594
756.26	0.885289
757.963	1.08938
759.667	1.29487
761.37	1.1183
763.073	1.4383
764.775	1.03604
766.477	1.37795
768.179	1.4701
769.883	1.40225
771.584	1.37791
773.285	1.19411
774.986	1.19082
776.686	1.43666
778.386	1.09566
780.085	1.29855
781.785	1.02738
783.484	1.50301
785.182	1.3442
786.881	1.93051
788.579	1.67665
790.276	1.75953
791.974	1.5914
793.671	1.76089
795.367	1.50119
797.064	1.19763
798.76	1.34628
800.456	1.2486
802.151	1.8946
803.846	1.28127
805.541	1.90473
807.234	1.74053
808.928	1.55308
810.622	1.32001
812.315	1.22107
814.008	1.97324
815.701	1.60462
817.394	1.79577
819.086	2.0537
820.778	1.17249
822.468	1.87722
824.159	1.95723
825.85	1.5481
827.541	1.38611
829.231	1.3823
830.921	1.80409
832.609	1.38181
834.298	1.98628
835.987	1.90087
837.676	1.21265
839.364	1.03634
841.051	0.590624
842.738	1.864
844.426	1.37212
846.113	1.52874
847.798	0.993703
849.484	0.549497
851.171	1.45
852.857	1.43473
854.54	0.814361
856.226	1.6526
857.911	0.962745
859.593	0.675417
861.278	1.19692
862.961	1.22211
864.645	1.02093
866.327	0.773786
868.01	0.886801
869.692	1.38292
871.373	0.818763
873.055	1.13414
874.735	0.930563
876.416	1.11058
878.097	0.455562
879.776	1.1321
881.457	1.33442
883.135	1.08468
884.815	0.7438
886.495	0.447094
888.172	0.939061
889.851	0.595006
891.528	0.678421
893.206	1.05346
894.882	1.33698
896.56	1.30439
898.237	0.844368
899.912	1.10242
901.589	1.17999
903.263	0.787004
904.94	1.24408
906.614	1.76716
908.289	1.28625
909.962	1.23028
911.635	0.374282
913.31	0.876214
914.982	0.755768
916.656	1.43418
918.328	0.737204
920.001	1.12654
921.672	0.785597
923.345	0.512382
925.015	1.279
926.685	0.677321
928.357	1.51209
930.026	0.64828
931.698	1.32976
933.366	0.378813
935.035	0.156143
936.705	0.904241
938.373	1.38826
940.041	0.704305
941.71	0.263759
943.377	1.10338
945.044	1.14875
946.712	0.641385
948.378	0.441618
950.044	0.770137
951.709	0.987213
953.376	0.939501
955.041	-0.0331278
956.706	0.231183
958.372	0.718525
960.036	0.855307
961.699	0.441282
963.362	0.446581
965.027	1.04782
966.69	0.320021
968.352	0.961675
970.014	0.937918
971.676	0.537431
973.339	0.424898
975	0.954748
976.661	0.601407
978.322	0.735763
979.982	0.749012
981.642	0.761983
983.303	1.16134
984.962	0.69582
986.621	0.826384
988.28	0.313866
989.938	0.397904
991.596	0.636053
993.254	0.476214
994.911	0.625663
996.57	0.686772
998.227	0.108375
999.884	0.544138
1001.54	0.935019
1003.2	0.532795
1004.85	0.21884
1006.51	0.542518
1008.16	0.228989
1009.82	0.289183
1011.47	0.546983
1013.12	0.848629
1014.78	0.471214
1016.43	0.269653
1018.08	0.199964
1019.74	0.371498
1021.39	0.215716
1023.04	0.432421
1024.69	0.343799
1026.34	0.34305
1028	0.844862
1029.65	0.275595
1031.3	0.317203
1032.95	0.270277
1034.6	0.309445
1036.25	0.282119
1037.9	0.232427
1039.54	0.18273
1041.19	0.329334
1042.84	0.324531
1044.49	0.212386
1046.14	0.557875
1047.78	0.144547
1049.43	-0.00692177
1051.08	0.537545
1052.72	0.583143
1054.37	0.715967
1056.02	0.696708
1057.66	0.133739
1059.31	-0.0819054
1060.95	0.0715928
1062.6	0.159309
1064.24	-0.188517
1065.88	0.963024
1067.53	-0.0384374
1069.17	-0.279574
1070.81	0.043642
1072.45	-0.241316
1074.1	0.667666
1075.74	0.0800991
1077.38	-0.00741863
1079.02	0.339677
1080.66	0.405413
1082.3	0.232625
1083.94	-0.244328
1085.58	0.123156
1087.22	0.575573
1088.86	-0.338252
1090.5	-0.213459
1092.14	-0.0464945
1093.78	-0.00978565
1095.42	0.177982
1097.05	0.0642166
1098.69	0.339325
1100.33	0.421618
1101.96	0.397678
1103.6	0.138456
1105.24	0.63314
1106.87	0.676503
1108.51	-0.0115414
1110.14	-0.162618
1111.78	0.0721531
1113.41	0.24109
1115.05	0.151275
1116.68	-0.153401
1118.31	0.121219
1119.95	0.0960245
1121.58	0.264287
1123.21	0.19774
1124.85	0.431503
1126.48	0.537441
1128.11	0.237615
1129.74	0.57986
1131.37	-0.0609798
1133	-0.0174141
1134.63	-0.102202
1136.26	0.432382
1137.89	0.453144
1139.52	0.216659
1141.15	0.129052
1142.78	0.233185
1144.41	0.25198
1146.04	0.612352
1147.66	-0.198927
1149.29	0.0774746
1150.92	-0.135809
1152.55	0.630584
1154.17	0.0976706
1155.8	0.224527
1157.43	-0.180699
1159.05	0.350423
1160.68	0.137633
1162.3	0.159609
1163.93	0.352417
1165.55	0.588136
1167.17	0.249592
1168.8	-0.642449
1170.42	-0.111261
1172.05	-0.240419
1173.67	-0.158383
1175.29	0.0287194
1176.91	0.299932
1178.54	0.592026
1180.16	0.291534
1181.78	0.669031
1183.4	-0.0527701
1185.02	0.472931
1186.64	0.11042
1188.26	0.0215282
1189.88	0.226446
1191.5	0.0505333
1193.12	0.357514
1194.74	0.935935
1196.36	0.359623
1197.97	-0.21444
1199.59	-0.242113
1201.21	0.149789
1202.83	0.459488
1204.44	0.0612316
1206.06	0.165574
1207.68	0.062242
1209.29	-0.103432
1210.91	0.814889
1212.52	0.209422
1214.14	-0.105423
1215.75	0.244832
1217.37	0.156295
1218.98	0.358088
1220.59	0.414036
1222.21	0.345934
1223.82	0.548244
1225.43	0.461506
1227.05	-0.1206
1228.66	0.250318
1230.27	0.539155
1231.88	0.684032
1233.49	0.74711
1235.1	0.273776
1236.72	0.442045
1238.33	0.445735
1239.94	0.59468
1241.55	0.102648
1243.16	0.727316
1244.76	0.565343
1246.37	1.1889
1247.98	0.96326
1249.59	0.405993
1251.2	0.448549
1252.8	0.553292
1254.41	0.720593
1256.02	1.21966
1257.62	0.623365
1259.23	0.814037
1260.84	0.48801
1262.44	0.928291
1264.05	0.602449
1265.66	0.877024
1267.26	0.529343
1268.86	0.491782
1270.47	0.391233
1272.07	1.09852
1273.67	0.332937
1275.28	0.810522
1276.88	1.05921
1278.48	1.12064
1280.09	0.995169
1281.69	1.09721
1283.29	0.764798
1284.89	0.929365
1286.49	0.784402
1288.09	1.033
1289.69	0.372954
1291.29	1.07722
1292.89	0.830859
1294.49	0.873213
1296.09	0.976516
1297.69	1.0372
1299.29	1.50913
1300.89	1.15454
1302.49	1.04667
1304.08	0.444334
1305.68	1.40509
1307.28	1.15174
1308.88	0.898681
1310.47	0.871574
1312.07	0.435372
1313.66	0.859558
1315.26	1.20197
1316.85	0.421602
1318.45	1.03019
1320.04	0.94464
1321.64	1.48997
1323.23	0.628952
1324.83	1.10997
1326.42	0.898507
1328.01	1.05205
1329.61	0.861387
1331.2	0.915064
1332.79	1.01075
1334.38	0.966676
1335.97	1.28716
1337.56	0.962358
1339.16	1.22196
1340.75	1.27849
1342.34	1.05148
1343.93	0.642474
1345.52	1.07674
1347.11	0.928524
1348.7	0.541564
1350.29	0.617445
1351.87	1.05515
1353.46	0.654333
1355.05	0.974329
1356.64	0.475183
1358.22	1.01476
1359.81	1.23373
1361.4	0.753081
1362.98	1.20981
1364.57	0.62905
1366.16	0.806258
1367.74	0.764817
1369.33	0.525269
1370.91	0.784444
1372.5	0.845592
1374.08	0.250978
1375.67	1.08952
1377.25	-0.00199461
1378.83	0.358719
1380.41	0.539587
1382	0.341463
1383.58	0.957798
1385.16	0.956667
1386.74	0.379012
1388.33	0.675744
1389.91	0.575712
1391.49	0.456581
1393.07	0.754698
1394.65	0.477801
1396.23	0.31987
1397.81	0.835482
1399.39	0.755505
1400.97	0.991734
1402.55	0.514633
1404.13	0.730441
1405.7	0.906854
1407.28	0.886116
1408.86	0.352343
1410.44	1.00443
1412.01	0.510808
1413.59	0.490814
1415.17	0.529348
1416.74	0.389713
1418.32	0.624403
1419.89	0.701474
1421.47	0.641429
1423.04	0.149539
1424.62	0.682493
1426.19	1.11792
1427.77	0.864909
1429.34	0.749459
1430.91	1.04665
1432.49	1.22477
1434.06	0.85119
1435.63	0.713464
1437.2	0.969174
1438.78	1.08771
1440.35	1.14802
1441.92	1.24838
1443.49	1.62444
1445.06	0.919875
1446.63	0.962264
1448.2	1.18169
1449.77	1.18511
1451.34	1.24789
1452.91	0.780107
1454.48	1.04023
1456.05	1.22175
1457.62	1.34381
1459.18	1.42553
1460.75	1.68296
1462.32	0.738638
1463.89	1.62258
1465.45	1.06996
1467.02	1.7159
1468.59	1.06562
1470.15	0.730655
1471.72	0.926474
1473.28	0.769972
1474.85	0.67296
1476.41	0.791967
1477.98	0.950238
1479.54	0.579157
1481.1	0.678477
1482.67	0.679716
1484.23	-0.0245247
1485.79	0.760069
1487.36	0.544889
1488.92	0.0939322
1490.48	0.40518
1492.04	0.401566
1493.61	0.376793
1495.17	0.331223
1496.73	0.655133
1498.29	0.296943
1499.85	0.756312
1501.41	0.846564
1502.97	0.22001
1504.53	0.622209
1506.09	0.191501
1507.65	0.20594
1509.2	0.10369
1510.76	0.328848
1512.32	0.687699
1513.88	0.872088
1515.43	0.248819
1516.99	0.261073
1518.55	0.120456
1520.1	0.210454
1521.66	0.357818
1523.22	0.0841093
1524.77	0.421386
1526.33	0.757063
1527.88	0.69126
1529.44	0.530106
1530.99	0.673176
1532.54	0.455965
1534.1	0.713403
1535.65	0.800788
1537.21	0.132951
1538.76	0.844896
1540.31	0.650612
1541.86	0.475611
1543.42	0.846657
1544.97	0.314336
1546.52	0.515432
1548.07	0.509589
1549.62	0.691158
1551.17	0.497989
1552.72	0.904193
1554.27	0.749675
1555.82	0.428376
1557.37	1.0421
1558.92	1.00374
1560.47	0.855001
1562.02	0.856786
1563.56	1.08333
1565.11	1.1238
1566.66	1.01507
1568.21	0.607508
1569.75	0.796863
1571.3	0.724609
1572.85	1.0068
1574.39	1.55023
1575.94	1.40298
1577.49	0.88252
1579.03	1.20245
1580.57	0.832068
1582.12	1.39596
1583.66	0.877293
1585.21	0.695256
1586.75	0.924757
1588.3	1.21068
1589.84	1.01016
1591.38	1.18352
1592.92	1.11319
1594.47	1.24862
1596.01	1.08437
1597.55	1.01405
1599.09	0.81293
1600.63	1.0999
1602.17	0.824461
1603.71	1.28108
1605.25	1.56853
1606.79	0.971814
1608.33	1.55744
1609.87	0.562472
1611.41	0.035881
1612.95	0.597551
1614.49	0.782259
1616.03	0.422467
1617.57	0.550796
1619.1	0.698562
1620.64	0.716219
1622.18	0.660006
1623.72	0.978861
1625.25	0.586352
1626.79	0.867155
1628.32	0.810063
1629.86	0.845453
1631.39	1.21639
1632.93	0.895473
1634.46	0.668485
1636	1.02072
1637.53	1.29875
1639.07	1.16692
1640.6	1.55705
1642.13	0.921771
1643.67	0.472425
1645.2	1.02756
1646.73	0.948997
1648.26	0.795966
1649.8	0.717698
1651.33	0.955717
1652.86	1.00894
1654.39	0.988836
1655.92	1.35847
1657.45	1.30166
1658.98	1.02202
1660.51	1.37104
1662.04	0.700989
1663.57	1.04772
1665.1	0.87628
1666.63	0.963737
1668.16	0.922786
1669.68	1.10421
1671.21	0.660181
1672.74	0.714614
1674.27	0.843037
1675.79	0.787122
1677.32	0.859471
1678.85	0.544617
1680.37	0.394759
1681.9	0.612003
1683.42	0.49818
1684.95	0.696505
1686.47	0.436357
1688	0.580074
1689.52	0.833837
1691.05	0.172052
1692.57	0.55411
1694.09	0.258959
1695.62	0.256488
1697.14	0.217288
1698.66	0.37875
1700.18	0.302446
1701.71	0.718264
1703.23	0.51342
1704.75	0.290237
1706.27	0.376387
1707.79	0.480339
1709.31	0.56588
1710.83	0.66947
1712.35	0.0295844
1713.87	0.188052
1715.39	0.310093
1716.91	0.142481
1718.43	0.444935
1719.95	0.656527
1721.47	0.3627
1722.99	-0.00236559
1724.5	-0.0238686
1726.02	0.441785
1727.54	0.49402
1729.06	0.0611167
1730.57	0.00619888
1732.09	-0.190353
1733.61	0.561997
1735.12	0.309433
1736.64	0.201013
1738.15	0.0182409
1739.67	-0.376757
1741.18	0.17808
1742.7	0.00166798
1744.21	0.195314
1745.72	0.405993
1747.24	0.158978
1748.75	0.18915
1750.26	-0.0370612
1751.77	-0.051084
1753.29	-0.0079813
1754.8	-0.0411882
1756.31	0.229054
1757.82	0.203063
1759.33	0.330783
1760.84	0.13564
1762.36	-0.00830221
1763.87	0.377612
1765.38	-0.0894732
1766.89	0.468335
1768.4	0.0511608
1769.91	-0.123058
1771.41	0.106924
1772.92	0.278729
1774.43	-0.0695305
1775.94	-0.149092
1777.45	0.148728
1778.95	-0.283537
1780.46	0.0768318
1781.97	0.0278149
1783.48	-0.126573
1784.98	0.0478768
1786.49	0.141596
1787.99	0.271846
1789.5	0.377907
1791.01	0.217355
1792.51	-0.178963
1794.01	-0.0908103
1795.52	0.15837
1797.02	0.210711
1798.53	-0.234309
1800.03	0.0360641
1801.53	0.142251
1803.04	0.0485253
1804.54	-0.210305
1806.04	-0.0259004
1807.54	0.189711
1809.05	-0.0663185
1810.55	-0.0711508
1812.05	0.234711
1813.55	0.251348
1815.05	0.228644
1816.55	-0.0824666
1818.05	0.00998163
1819.55	-0.0679979
1821.05	0.0277104
1822.55	0.398828
1824.05	0.289729
1825.55	0.231232
1827.05	0.0707932
1828.55	0.422093
1830.04	0.139488
1831.54	0.221954
1833.04	0.0634065
1834.54	-0.0776949
1836.03	0.0363698
1837.53	-0.132382
1839.03	-0.0185466
1840.52	0.00318718
1842.02	0.140149
1843.51	0.439769
1845.01	0.229171
1846.5	0.334467
1848	0.235062
1849.49	0.18521
1850.99	0.053648
1852.48	0.493005
1853.97	0.0614285
1855.47	-0.235689
1856.96	0.321061
1858.45	0.428758
1859.94	0.167114
1861.44	-0.135763
1862.93	0.499076
1864.42	0.304454
1865.91	0.282015
1867.4	0.102442
1868.89	0.199892
1870.38	0.285378
1871.87	0.24326
1873.36	0.224536
1874.85	0.17454
1876.34	0.382075
1877.83	0.0658798
1879.32	0.0241709
1880.81	0.238861
1882.3	0.166201
1882.57	0.135893
1884.07	0.151661
1885.56	0.184234
1887.06	0.529613
1888.55	0.038693
1890.04	-0.120971
1891.54	0.241985
1893.03	0.240849
1894.52	-0.0544257
1896.02	0.503437
1897.51	0.262122
1899	0.403296
1900.49	0.02178
1901.98	0.369637
1903.47	0.611624
1904.96	0.0700364
1906.45	0.414452
1907.94	0.307018
1909.43	0.304323
1910.92	-0.096705
1912.41	-0.0284648
1913.9	-0.306707
1915.39	0.316909
1916.88	0.194536
1918.37	-0.240165
1919.85	-0.0338526
1921.34	0.137628
1922.83	-0.0369811
1924.32	0.152723
1925.8	0.170149
1927.29	0.171082
1928.78	0.466851
1930.26	0.0872979
1931.75	-0.0851336
1933.23	0.416646
1934.72	0.155175
1936.2	0.186747
1937.69	-0.197576
1939.17	0.143958
1940.66	-0.0327196
1942.14	-0.329339
1943.63	-0.159161
1945.11	0.166711
1946.59	0.165117
1948.07	0.542462
1949.56	-0.0457458
1951.04	0.0717511
1952.52	-0.0180655
1954	0.2701
1955.48	0.214161
1956.96	-0.0131097
1958.45	0.137988
1959.93	0.18657
1961.41	0.218381
1962.89	-0.263882
1964.37	0.230669
1965.85	-0.440079
1967.32	0.446825
1968.8	-0.446663
1970.28	0.147639
1971.76	0.313902
1973.24	0.138534
1974.72	0.0658298
1976.19	-0.00662851
1977.67	-0.14699
1979.15	0.291616
1980.63	-0.137866
1982.1	0.147014
1983.58	-0.11228
1985.05	-0.015018
1986.53	0.268467
1988	0.195636
1989.48	-0.249377
1990.95	0.355929
1992.43	-0.00278378
1993.9	0.518694
1995.38	-0.0918198
1996.85	0.109296
1998.32	0.175138
1999.8	0.139302
2001.27	0.103028
2002.74	0.302535
2004.22	0.265739
2005.69	0.128161
2007.16	-0.143463
2008.63	0.141472
2010.1	-0.111793
2011.57	0.224571
2013.04	0.0727806
2014.51	0.0216713
2015.98	-0.416955
2017.45	0.136298
2018.92	0.0833015
2020.39	-0.0708671
2021.86	0.144473
2023.33	-0.0933251
2024.8	0.0388055
2026.27	0.121439
2027.74	0.238699
2029.2	0.440987
2030.67	-0.19442
2032.14	0.160663
2033.61	0.298112
2035.07	0.334871
2036.54	0.304156
2038.01	0.289806
2039.47	-0.0441866
2040.94	-0.159815
2042.4	0.26286
2043.87	0.0472155
2045.33	0.235955
2046.8	0.206595
2048.26	0.48065
2049.72	0.586172
2051.19	-0.101505
2052.65	0.136783
2054.12	0.272549
2055.58	0.373215
2057.04	0.0344758
2058.5	0.285154
2059.97	-0.239273
2061.43	0.21358
2062.89	0.128136
2064.35	0.194974
2065.81	0.228911
2067.27	0.364479
2068.73	0.0965805
2070.19	-0.0364776
2071.65	0.386046
2073.11	-0.0164766
2074.57	0.405836
2076.03	0.305904
2077.49	0.289885
2078.95	0.660869
2080.41	0.442093
2081.87	0.323937
2083.32	-0.0640168
2084.78	0.27126
2086.24	-0.0166335
2087.7	0.216474
2089.15	0.398631
2090.61	0.294904
2092.07	0.359107
2093.52	0.2386
2094.98	0.319259
2096.43	0.416193
2097.89	0.244505
2099.34	0.474243
2100.8	-0.115998
2102.25	0.297418
2103.71	0.0596666
2105.16	0.457365
2106.61	-0.0284057
2108.07	0.404223
2109.52	0.47004
2110.97	0.485368
2112.43	0.316349
2113.88	0.212803
2115.33	0.524167
2116.78	0.302354
2118.23	0.197467
2119.68	0.126968
2121.13	0.389795
2122.59	0.189544
2124.04	0.288947
2125.49	0.372225
2126.94	0.521587
2128.39	0.719829
2129.83	0.916843
2131.28	0.913884
2132.73	0.810973
2134.18	0.675095
2135.63	0.506944
2137.08	0.340093
2138.53	0.703572
2139.97	0.771043
2141.42	0.955556
2142.87	0.727724
2144.31	0.483681
2145.76	1.36497
2147.21	1.05461
2148.65	0.909112
2150.1	1.09416
2151.54	0.980211
2152.99	0.666608
2154.43	0.899133
2155.88	0.949029
2157.32	1.06525
2158.77	0.850772
2160.21	0.65391
2161.65	0.657189
2163.1	0.811122
2164.54	1.04939
2165.98	1.17243
2167.43	0.8968
2168.87	0.603314
2170.31	0.690688
2171.75	1.30882
2173.19	1.16021
2174.64	1.09367
2176.07	1.39256
2177.52	1.04307
2178.96	0.976939
2180.4	0.961483
2181.84	1.01324
2183.28	0.749507
2184.72	0.951622
2186.15	1.05406
2187.59	0.890322
2189.03	1.29241
2190.47	0.645941
2191.91	1.38086
2193.35	1.16628
2194.78	0.800736
2196.22	0.800045
2197.66	1.44663
2199.09	0.844037
2200.53	0.739887
2201.97	0.685603
2203.4	0.930559
2204.84	0.79474
2206.27	0.527302
2207.71	0.724348
2209.14	0.391172
2210.58	0.785943
2212.01	0.220119
2213.45	0.877618
2214.88	0.741289
2216.31	0.803721
2217.75	0.784514
2219.18	0.799306
2220.61	0.237773
2222.05	0.484218
2223.48	0.598135
2224.91	0.612048
2226.34	0.24614
2227.78	0.306998
2229.21	0.465305
2230.64	0.655489
2232.07	0.2552
2233.5	0.510739
2234.93	0.619165
2236.36	0.499631
2237.79	0.120342
2239.22	0.118212
2240.65	0.101264
2242.08	0.232448
2243.5	0.234064
2244.93	0.00757504
2246.36	0.498263
2247.79	0.367887
2249.22	0.415229
2250.64	0.330471
2252.07	-0.0810328
2253.5	0.759723
2254.92	0.640663
2256.35	-0.0452113
2257.78	0.423563
2259.2	0.407563
2260.63	0.523647
2262.05	0.317069
2263.48	0.598741
2264.9	0.182145
2266.33	0.398946
2267.75	0.582805
2269.18	0.277845
2270.6	0.0697575
2272.02	0.333396
2273.45	0.189866
2274.87	0.274401
2276.29	0.11473
2277.71	0.183285
2279.14	0.17041
2280.56	-0.0218945
2281.98	0.454362
2283.4	0.00083971
2284.82	0.526261
2286.24	0.0727401
2287.66	0.125409
2289.08	0.260115
2290.5	0.509615
2291.92	-0.00878429
2293.34	0.241124
2294.76	0.163994
2296.18	-0.175168
2297.6	-0.0070076
2299.02	0.390697
2300.44	0.166074
2301.86	0.187433
2303.27	-0.069881
2304.69	0.0666142
2306.11	0.0553799
2307.53	0.454656
2308.94	0.29496
2310.36	0.184013
2311.78	0.220738
2313.19	0.25747
2314.61	0.146408
2316.02	0.167556
2317.44	0.13989
2318.85	0.112525
2320.27	-0.261437
2321.68	0.237981
2323.1	0.191612
2324.51	-0.0545769
2325.92	0.324594
2327.34	0.421846
2328.75	0.798579
2330.16	0.433875
2331.58	0.00440264
2332.99	0.0862942
2334.4	0.152322
2335.81	0.251395
2337.23	0.136258
2338.64	-0.0946307
2340.05	-0.178274
2341.46	0.26298
2342.87	0.0304618
2344.28	-0.168959
2345.69	-0.0565257
2347.1	0.203387
2348.51	0.2011
2349.92	0.39481
2351.33	0.211672
2352.74	0.0607295
2354.15	-0.155911
2355.55	-0.209622
2356.96	-0.100633
2358.37	0.0894189
2359.78	0.00296593
2361.19	-0.277984
2362.59	-0.0233417
2364	-0.109423
2365.41	0.0149512
2366.81	0.10689
2368.22	-0.0753489
2369.62	0.372613
2371.03	0.0149603
2372.44	0.0615125
2373.84	0.0121536
2375.24	0.204552
2376.65	-0.247071
2378.05	0.104959
2379.46	0.19826
2380.86	0.0332885
2382.26	0.108117
2383.67	0.134052
2385.07	0.159764
2386.47	0.201705
2387.88	0.052753
2389.28	0.000669956
2390.68	-0.273413
2392.08	0.170153
2393.48	-0.245265
2394.89	0.151434
2396.29	0.119097
2397.69	-0.167021
2399.09	0.310108
2400.49	0.120209
2401.89	-0.02174
2403.29	-0.0524497
2404.69	0.186496
2406.09	0.0754371
2407.48	0.233495
2408.88	-0.0215278
2410.28	-0.0863142
2411.68	0.150153
2413.08	-0.0722132
2414.48	0.0864921
2415.87	-0.0861926
2417.27	-0.0362525
2418.67	-0.0648084
2420.06	0.0494194
2421.46	0.274481
2422.86	0.0715847
2424.25	0.264547
2425.65	0.140682
2427.04	0.159826
2428.44	0.147943
2429.83	-0.0535493
2431.23	0.0309043
2432.62	0.194923
2434.02	0.00926685
2435.41	0.0927048
2436.81	0.238616
2438.2	0.0656028
2439.59	0.0822845
2440.99	0.368236
2442.38	0.145611
2443.77	-0.0929227
2445.16	-0.204503
2446.56	0.254651
2447.95	-0.126596
2449.34	0.126088
2450.73	-0.0171013
2452.12	0.125121
2453.51	0.0305028
2454.9	-0.126712
2456.29	0.0329957
2457.68	0.161273
2459.07	0.241954
2460.46	-0.0573759
2461.85	-0.056788
2463.24	0.022243
2464.63	-0.183594
2466.02	-0.0894217
2467.4	0.225594
2468.79	-0.16972
2470.18	0.0502319
2471.57	0.033185
2472.95	0.110159
2474.34	0.0290327
2475.73	0.23068
2477.12	-0.0554929
2478.5	-0.0428548
2479.89	0.0483475
2481.27	-0.0642953
2482.66	-0.0201473
2484.04	0.0235734
2485.43	0.191664
2486.81	0.155455
2488.2	0.0560803
2489.58	-0.0903454
2490.97	-0.345429
2492.35	0.084446
2493.73	-0.0914087
2495.12	0.23047
2496.5	0.320258
2497.88	-0.28641
2499.27	-0.00981569
2500.65	0.126932
2502.03	0.0619636
2503.41	-0.142587
2504.79	-0.00805569
2506.17	0.156551
2507.56	-0.0641332
2508.94	0.346066
2510.32	0.172166
2511.7	0.18322
2513.08	0.0722251
2514.46	-0.0532494
2515.84	-0.116672
2517.22	0.218258
2518.59	0.125154
2519.97	-0.0899758
2521.35	-0.289808
2522.73	0.196951
2524.11	0.346874
2525.49	-0.0373788
2526.86	0.0508513
2528.24	0.154478
2529.62	-0.0909238
2530.99	0.257853
2532.37	0.0758767
2533.75	-0.272139
2535.12	0.0944371
2536.5	0.354606
2537.88	0.158487
2539.25	0.0832033
2540.63	-0.0685711
2542	0.401764
2543.38	0.204442
2544.75	0.235419
2546.12	0.297681
2547.5	0.133353
2548.87	0.364078
2550.24	0.200388
2551.62	0.0969772
2552.99	-0.0526648
2554.36	0.0397487
2555.74	0.0252728
2557.11	0.0862393
2558.48	0.0712709
2559.85	0.17779
2561.22	0.163423
2562.59	0.19501
2563.96	-0.0608888
2565.34	-0.180078
2566.71	0.0949211
2568.08	-0.0543346
2569.45	-0.158131
2570.82	0.10183
2572.18	-0.168668
2573.55	0.424909
2574.92	0.336449
2576.29	-0.0248938
2577.66	0.174647
2579.03	0.1466
2580.4	0.0879579
2581.77	0.22613
2583.13	0.106258
2584.5	0.0165591
2585.87	0.0935841
2587.23	0.0797482
2588.6	0.126677
2589.97	-0.0384808
2591.33	0.190276
2592.7	0.26711
2594.06	0.0251842
2595.43	-0.126503
2596.79	0.129862
2598.16	0.218974
2599.52	0.0658154
2600.89	0.0791321
2602.25	0.168326
2603.62	0.00132561
2604.98	0.000854015
2606.34	-0.270998
2607.71	0.0150137
2609.07	0.224787
2610.43	0.147233
2611.79	0.0988941
2613.16	0.305386
2614.52	0.28558
2615.88	0.0855713
2617.24	0.425792
2618.6	-0.117737
2619.96	0.26798
2621.32	-0.0789976
2622.68	0.0380964
2624.04	-0.203165
2625.4	-0.280008
2626.76	0.194802
2628.12	0.191864
2629.48	-0.272862
2630.84	0.244905
2632.2	-0.100433
2633.56	0.0746231
2634.92	0.249379
2636.28	0.0530934
2637.63	-0.00952482
2638.99	0.135281
2640.35	0.117244
2641.71	0.247264
2643.06	0.0818563
2644.42	0.0791917
2645.77	0.0617151
2647.13	0.191367
2648.49	-0.0921154
2649.84	0.271778
2651.2	0.25224
2652.55	0.115037
2653.91	0.16901
2655.26	0.0768862
2656.62	-0.204651
2657.97	0.144387
2659.33	0.0109439
2660.68	0.0826254
2662.03	0.0664358
2663.39	0.0936327
2664.74	0.353724
2666.09	0.335754
2667.44	-0.0614414
2668.8	0.00790691
2670.15	-0.111794
2671.5	0.234321
2672.85	-0.262277
2674.2	0.0263305
2675.55	-0.0478048
2676.91	-0.295552
2678.26	-0.0350318
2679.61	0.0954533
2680.96	-0.12128
2682.31	0.315299
2683.66	0.143837
2685	-0.0269904
2686.35	0.281234
2687.7	0.0379457
2689.05	0.14208
2690.4	-0.0889168
2691.75	0.0852222
2693.1	0.0405188
2694.44	-0.106337
2695.79	-0.108225
2697.14	-0.0517139
2698.49	0.222913
2699.83	-0.0225649
2701.18	-0.0640483
2702.52	0.127289
2703.87	-0.129694
2705.22	0.135375
2706.56	-0.0199018
2707.91	0.477485
2709.25	0.0458879
2710.6	-0.0232544
2711.94	-0.107161
2713.29	0.302842
2714.63	0.233371
2715.97	0.163808
2717.32	0.123183
2718.66	-0.106774
2720.01	0.317694
2721.35	0.0288582
2722.69	-0.158521
2724.03	0.279626
2725.38	0.0624657
2726.72	0.238022
2728.06	-0.0960617
2729.4	0.122732
2730.74	-0.153343
2732.08	0.00708818
2733.42	0.182092
2734.76	0.0808272
2736.1	-0.0639081
2737.44	0.285959
2738.78	0.17039
2740.12	-0.00351906
2741.46	0.229381
2742.8	-0.0470757
2744.14	0.330072
2745.48	0.372377
2746.82	-0.0358372
2748.16	0.0787048
2749.49	0.265727
2750.83	-0.0548539
2752.17	0.161403
2753.51	-0.202023
2754.84	0.318676
2756.18	-0.058826
2757.52	-0.233274
2758.85	-0.204785
2760.19	0.0121131
2761.53	-0.0167131
2762.86	0.142914
2764.2	0.244874
2765.53	-0.0293732
2766.87	-0.0145793
2768.2	-0.0583224
2769.54	0.186203
2770.87	0.140408
2772.2	0.00701857
2773.54	-0.271203
2774.87	-0.0735879
2776.2	0.210078
2777.54	0.104972
2778.87	0.0435777
2780.2	0.0401359
2781.53	0.309774
2782.87	0.119894
2784.2	0.159683
2785.53	0.0560851
2786.86	-0.133163
2788.19	-0.235933
2789.52	0.0482559
2790.85	-0.13911
2792.18	-0.054141
2793.51	0.231235
2794.84	0.13063
2796.17	0.201277
2797.5	0.0715013
2798.83	0.398301
2800.16	0.210725
2801.49	0.122973
2802.82	-0.164449
2804.15	-0.0242581
2805.47	0.00151825
2806.8	-0.12974
2808.13	0.108517
2809.46	0.0192518
2810.78	0.00115824
2812.11	0.111259
2813.44	-0.0474038
2814.76	-0.0489221
2816.09	0.106514
2817.42	0.0217705
2818.74	-0.0342064
2820.07	-0.076015
2821.39	0.16531
2822.72	0.108505
2824.04	-0.203758
2825.37	0.10712
2826.69	-0.0352674
2828.02	-0.0356383
2829.34	0.261686
2830.66	-0.134333
2831.99	0.248375
2833.31	-0.0059638
2834.63	0.0508776
2835.96	-0.104925
2837.28	0.248319
2838.6	0.176722
2839.92	-0.00811434
2841.24	0.104125
2842.57	0.513443
2843.89	0.386042
2845.21	0.541834
2846.53	0.514345
2847.85	0.600171
2849.17	0.657745
2850.49	0.771641
2851.81	0.644896
2853.13	0.560196
2854.45	0.870905
2855.77	0.234783
2857.09	0.940854
2858.41	0.728668
2859.72	0.276452
2861.04	0.784416
2862.36	0.68493
2863.68	0.88162
2865	0.965148
2866.31	0.667755
2867.63	0.90659
2868.95	0.835426
2870.26	0.863253
2871.58	0.947551
2872.9	0.932975
2874.21	1.21378
2875.53	0.845783
2876.84	0.984182
2878.16	1.17819
2879.47	1.45619
2880.79	1.24216
2882.1	1.23966
2883.42	1.20979
2884.73	1.16655
2886.05	0.983349
2887.36	1.29148
2888.67	1.15015
2889.99	1.05046
2891.3	1.31484
2892.61	1.24222
2893.92	1.26762
2895.24	1.43328
2896.55	1.47339
2897.86	1.51421
2899.17	1.35984
2900.48	1.34593
2901.79	1.64007
2903.11	1.36082
2904.42	1.61319
2905.73	1.61398
2907.04	1.74104
2908.35	1.79872
2909.66	1.60514
2910.97	1.5378
2912.27	2.29628
2913.58	1.78049
2914.89	1.9077
2916.2	1.96375
2917.51	2.24266
2918.82	2.01709
2920.13	2.56079
2921.43	2.71315
2922.74	2.06952
2924.05	2.2936
2925.35	2.58832
2926.66	2.3942
2927.97	2.70336
2929.27	2.46703
2930.58	2.73361
2931.89	2.62241
2933.19	2.39923
2934.5	2.55344
2935.8	2.27446
2937.11	2.6245
2938.41	2.80692
2939.72	2.36072
2941.02	2.6415
2942.32	2.46173
2943.63	2.19888
2944.93	2.27235
2946.24	1.96903
2947.54	2.50534
2948.84	2.0761
2950.14	2.03783
2951.45	2.04035
2952.75	2.22365
2954.05	1.91594
2955.35	1.5521
2956.65	1.62284
2957.95	1.91887
2959.26	1.75478
2960.56	1.98465
2961.86	1.99188
2963.16	2.01365
2964.46	1.69807
2965.76	1.76043
2967.06	1.75146
2968.36	1.7697
2969.66	1.74525
2970.96	1.55193
2972.25	1.59788
2973.55	1.29226
2974.85	1.26799
2976.15	1.18695
2977.45	1.33032
2978.74	1.54293
2980.04	1.0645
2981.34	1.23275
2982.64	1.27392
2983.93	1.14658
2985.23	1.16064
2986.52	0.796328
2987.82	1.30427
2989.12	0.829236
2990.41	0.944566
2991.71	0.750353
2993	0.681907
2994.3	0.570459
2995.59	1.0763
2996.89	0.48614
2998.18	0.569937
2999.48	0.289134
3000.77	0.0369568
3002.06	0.0236144
3003.36	0.388878
3004.65	0.165639
3005.94	0.208416
3007.23	-0.141208
3008.53	0.446312
3009.82	-0.002141
3011.11	0.0664577
3012.4	0.10674
3013.69	0.328308
3014.99	0.173461
3016.28	0.00538921
3017.57	0.200003
3018.86	-0.106168
3020.15	-0.147741
3021.44	-0.0228019
3022.73	0.28192
3024.02	0.0581346
3025.31	0.166934
3026.6	-0.029326
3027.89	0.356264
3029.18	0.230468
3030.46	0.133574
3031.75	-0.0174041
3033.04	0.149975
3034.33	0.0828428
3035.62	-0.0812135
3036.9	-0.0392299
3038.19	0.318266
3039.48	0.19205
3040.76	0.0374966
3042.05	-0.117303
3043.34	-0.148351
3044.62	0.136093
3045.91	-0.125837
3047.19	0.0377321
3048.48	-0.0157065
3049.77	0.287241
3051.05	0.263694
3052.34	0.29532
3053.62	0.449726
3054.9	0.207963
3056.19	0.497418
3057.47	0.376863
3058.76	0.105967
3060.04	-0.0831046
3061.32	0.299827
3062.61	-0.0649891
3063.89	0.292074
3065.17	0.133509
3066.45	0.234265
3067.74	0.362942
3069.02	0.111156
3070.3	0.0903087
3071.58	0.0280218
3072.86	0.182446
3074.14	0.00962591
3075.42	0.434117
3076.7	0.0703063
3077.99	-0.224966
3079.26	0.118448
3080.54	0.0829258
3081.82	-0.100685
3083.1	-0.0799532
3084.38	-0.0994511
3085.66	-0.295358
3086.94	-0.0437121
3088.22	-0.0775909
3089.5	0.118762
3090.78	0.233306
3092.05	0.212029
3093.33	0.0145416
3094.61	0.0478768
3095.89	-0.0813117
3097.16	0.114942
3098.44	0.148426
3099.72	-0.0350122
3100.99	0.28278
3102.27	-0.198549
3103.54	-0.0566511
3104.82	0.247962
3106.1	0.0928764
3107.37	0.0332122
3108.65	-0.106914
3109.92	0.0650029
3111.2	-0.00601864
3112.47	0.0724359
3113.74	0.327423
3115.02	-0.0274568
3116.29	-0.0303545
3117.56	0.223825
3118.84	0.422984
3120.11	0.567007
3121.38	0.371293
3122.66	0.0126314
3123.93	0.0198798
3125.2	0.0272493
3126.47	-0.0462718
3127.74	0.421815
3129.01	0.40307
3130.29	0.0871444
3131.56	0.298624
3132.83	0.104483
3134.1	0.166824
3135.37	0.336722
3136.64	0.074285
3137.91	0.202777
3139.18	0.249965
3140.45	0.202742
3141.72	0.142194
3142.99	0.149129
3144.26	0.304074
3145.52	0.378736
3146.79	0.065022
3148.06	0.167498
3149.33	0.176542
