200.388	-0.0234833
202.204	-0.0103874
204.019	0.00399399
205.832	0.116771
207.646	0.0596781
209.459	0.488208
211.274	0.308013
213.087	-0.0189943
214.899	-0.0313807
216.711	1.21601
218.524	0.548307
220.335	0.438939
222.146	0.621067
223.956	0.272188
225.766	-0.0998201
227.576	0.519086
229.388	0.581779
231.197	0.426616
233.005	0.874392
234.813	0.864038
236.621	0.421262
238.429	0.149762
240.236	0.507781
242.045	0.579271
243.852	0.604198
245.658	0.870574
247.464	0.990669
249.269	0.43171
251.074	1.17307
252.879	0.607531
254.683	1.07777
256.487	1.71578
258.291	1.31791
260.094	1.25965
261.897	1.39651
263.702	0.885053
265.504	0.928996
267.306	0.298658
269.108	0.0775843
270.909	0.386013
272.71	0.83795
274.511	0.878459
276.311	1.08586
278.111	1.00187
279.91	1.01197
281.709	1.04376
283.508	0.520194
285.306	0.52451
287.105	0.503932
288.9	0.771115
290.698	0.847022
292.495	-0.0570278
294.291	1.55364
296.088	0.773498
297.884	0.401686
299.679	0.293603
301.475	0.472089
303.27	1.62849
305.064	0.539172
306.858	1.52499
308.652	0.76927
310.444	1.82578
312.237	0.858459
314.03	0.60805
315.822	1.07424
317.615	0.0661745
319.406	0.179073
321.198	0.293441
322.987	0.814252
324.778	0.620445
326.568	0.0684528
328.358	-0.0543795
330.148	0.993358
331.935	1.08418
333.724	0.455365
335.513	-0.00863647
337.301	0.553766
339.089	0.204537
340.875	-0.26581
342.662	0.0521746
344.449	0.0830917
346.236	0.162319
348.02	-0.115869
349.806	-0.393301
351.592	0.451264
353.375	-0.256151
355.16	0.323892
356.944	0.139041
358.728	0.739312
360.51	0.00390148
362.294	1.17227
364.077	0.578376
365.858	0.578599
367.64	0.0794992
369.422	0.149502
371.202	0.289479
372.983	0.333722
374.764	0.42471
376.543	1.41261
378.324	0.701176
380.102	1.66491
381.881	1.61628
383.661	1.4518
385.438	2.3941
387.216	2.13877
388.993	1.08649
390.771	0.78756
392.548	1.33519
394.324	0.99119
396.101	0.812106
397.875	0.49226
399.651	0.665483
401.425	0.274541
403.201	0.845932
404.974	0.946701
406.749	0.905703
408.524	0.230118
410.296	0.75157
412.07	0.404546
413.841	1.04367
415.614	0.651161
417.385	0.822789
419.156	0.690193
420.928	0.698768
422.698	0.331527
424.469	0.292144
426.238	0.556943
428.009	0.703419
429.777	0.309442
431.548	-0.0844746
433.315	0.930183
435.083	0.654429
436.852	0.660351
438.618	-0.179347
440.387	0.293653
442.153	0.412317
443.919	0.0126696
445.686	0.970158
447.451	0.239448
449.218	-0.256688
450.982	-0.494836
452.746	0.0614967
454.512	0.407275
456.275	-0.109838
458.038	0.0491095
459.803	0.138074
461.565	-0.446716
463.327	0.109715
465.091	0.366318
466.852	0.765584
468.613	0.0990744
470.374	0.34119
472.136	0.444796
473.896	0.128677
475.655	0.346043
477.415	0.397992
479.176	0.447796
480.934	1.00883
482.692	0.498569
484.45	0.129421
486.21	0.554447
487.967	0.679327
489.724	1.01676
491.481	1.1226
493.237	0.925782
494.995	0.752313
496.75	0.672075
498.506	0.731968
500.26	0.74457
502.015	0.498302
503.769	0.274137
505.525	0.447959
507.279	1.09074
509.032	0.438424
510.785	0.207432
512.537	0.4217
514.289	0.681318
516.041	0.704028
517.793	0.537182
519.546	0.134226
521.297	0.788123
523.047	0.642347
524.797	0.473015
526.547	0.726117
528.297	1.04935
530.046	1.13782
531.795	0.640197
533.543	0.657228
535.291	0.438997
537.039	0.453235
538.787	0.162336
540.534	0.150575
542.281	0.137934
544.027	0.124889
545.773	0.878658
547.519	0.516806
549.264	0.24884
551.01	-0.110869
552.754	0.617621
554.499	-0.226483
556.243	0.270314
557.987	0.466786
559.73	0.571326
561.474	0.860523
563.216	-0.460173
564.959	-0.445082
566.701	-0.314454
568.441	0.0464878
570.182	-0.00481129
571.923	0.427235
573.664	0.310489
575.405	0.49403
577.145	0.266576
578.885	0.247136
580.624	0.435313
582.361	0.0723648
584.1	-0.268489
585.839	0.010251
587.577	0.287796
589.315	-0.632285
591.052	-0.0119839
592.787	0.216617
594.524	0.491043
596.26	-0.154752
597.997	0.050704
599.732	-0.181323
601.466	0.25292
603.201	-0.579278
604.936	0.196772
606.67	0.166438
608.403	0.0433578
610.136	0.172691
611.87	-0.0416756
613.603	0.0660429
615.334	0.357818
617.067	0.420515
618.799	0.0704002
620.529	0.200146
622.26	0.534243
623.991	-0.504732
625.72	-0.354384
627.451	0.184963
629.181	-0.23254
630.909	0.448004
632.638	1.15371
634.368	0.194858
636.095	0.947453
637.823	1.08187
639.551	0.802281
641.277	-0.0279636
643.005	0.507594
644.73	0.562586
646.457	0.503997
648.184	0.970427
649.908	0.190309
651.634	0.0964508
653.357	0.506982
655.083	0.330422
656.806	0.361143
658.53	0.438695
660.253	0.447556
661.977	0.979979
663.7	-0.203408
665.422	0.0267715
667.145	0.712329
668.865	-0.0894117
670.588	0.138604
672.308	0.712171
674.027	0.602175
675.749	0.425767
677.468	-0.162477
679.188	0.4426
680.907	-0.0556421
682.627	0.0875444
684.345	0.619917
686.064	0.206345
687.781	0.274445
689.498	0.364379
691.216	0.545633
692.932	0.242462
694.65	0.399155
696.366	0.485637
698.081	0.271476
699.797	-0.289081
701.512	0.483591
703.228	1.07039
704.942	0.736881
706.655	0.472096
708.371	0.253103
710.083	0.973502
711.796	0.799413
713.51	-0.152452
715.222	0.816829
716.934	0.482856
718.645	0.605822
720.358	0.660375
722.068	0.487313
723.779	0.701419
725.49	0.301214
727.2	0.49197
728.909	0.613847
730.618	0.848346
732.329	0.266591
734.037	0.251431
735.745	0.959637
737.453	0.560378
739.16	0.523572
740.869	0.713289
742.576	0.61123
744.282	0.623363
745.988	0.592032
747.694	0.742244
749.401	1.18627
751.107	1.0694
752.811	1.24642
754.516	1.1776
756.22	1.53803
757.924	0.842331
759.627	0.395324
761.332	0.895868
763.035	1.39777
764.738	1.47117
766.44	1.47562
768.142	1.11632
769.843	1.25176
771.544	1.56583
773.245	1.69732
774.946	1.05942
776.646	1.30394
778.346	1.07503
780.046	1.75241
781.745	1.5718
783.444	1.43657
785.143	0.960521
786.841	1.16097
788.539	0.769494
790.237	0.781948
791.934	1.22085
793.631	1.29585
795.328	1.14473
797.024	1.49067
798.72	0.711817
800.416	1.4665
802.112	1.02963
803.807	1.62843
805.502	1.86694
807.196	1.49763
808.89	1.71126
810.584	1.45199
812.278	1.9993
813.971	1.85046
815.664	1.92543
817.354	1.7318
819.047	1.31506
820.739	1.74776
822.43	1.13145
824.122	1.27503
825.813	1.30853
827.503	2.30208
829.192	1.33854
830.882	1.26932
832.571	2.33945
834.261	2.1648
835.95	2.03582
837.637	1.8842
839.325	1.59714
841.013	1.75477
842.701	1.59814
844.389	1.86539
846.074	1.95464
847.761	1.01739
849.447	1.49136
851.131	1.20749
852.817	1.59769
854.503	1.5635
856.188	1.25955
857.871	1.8531
859.556	1.36573
861.24	1.97888
862.922	1.01385
864.606	1.48886
866.289	1.3319
867.97	0.407439
869.653	0.902941
871.336	1.55616
873.016	1.21668
874.698	0.741616
876.379	0.762886
878.058	1.39356
879.739	1.36967
881.418	0.71328
883.098	0.936481
884.778	1.09076
886.456	1.06291
888.135	1.12356
889.812	1.00198
891.49	1.0817
893.167	0.731933
894.845	0.718929
896.523	0.479971
898.198	1.20607
899.875	1.23413
901.55	0.857916
903.226	0.996642
904.901	0.911301
906.576	0.424597
908.25	1.52266
909.925	0.971204
911.598	0.555417
913.271	1.11913
914.945	0.860591
916.617	1.06847
918.291	0.921267
919.962	1.35015
921.635	1.73458
923.306	0.572339
924.978	0.915628
926.648	1.52552
928.318	0.922891
929.989	0.454395
931.659	0.736999
933.328	0.799219
934.998	0.685144
936.666	1.69634
938.336	0.414732
940.004	1.362
941.671	1.67115
943.34	0.900102
945.007	1.14382
946.673	0.591725
948.339	1.45032
950.007	1.04855
951.672	0.623489
953.337	0.639784
955.004	1.23099
956.669	0.788746
958.333	0.879294
959.997	1.43657
961.662	0.649056
963.326	1.47395
964.989	1.6124
966.651	0.730144
968.315	0.884348
969.977	0.416689
971.639	0.987745
973.301	0.829223
974.962	0.849199
976.624	0.561543
978.285	0.231194
979.945	0.355038
981.605	0.478576
983.264	1.27595
984.924	0.809378
986.583	1.66854
988.243	1.33032
989.901	1.30047
991.56	1.07096
993.217	1.65871
994.875	1.82644
996.532	1.44256
998.188	1.76466
999.845	1.42502
1001.5	1.54779
1003.16	1.33978
1004.81	0.84576
1006.47	0.440194
1008.12	0.913706
1009.78	0.728553
1011.43	0.566057
1013.09	0.952177
1014.74	0.637351
1016.39	1.08952
1018.05	0.272705
1019.7	0.572928
1021.35	0.0432348
1023	0.760925
1024.65	1.26085
1026.31	0.930955
1027.96	1.01632
1029.61	1.95296
1031.26	1.66467
1032.91	1.24369
1034.56	1.71571
1036.21	1.05169
1037.86	1.04124
1039.51	2.09726
1041.16	1.43405
1042.8	0.947156
1044.45	0.897304
1046.1	1.34925
1047.75	1.06482
1049.39	1.30355
1051.04	1.30487
1052.69	1.61131
1054.33	1.1578
1055.98	0.573676
1057.62	0.923763
1059.27	0.599404
1060.91	1.01356
1062.56	1.16591
1064.2	0.143064
1065.85	0.249782
1067.49	0.985538
1069.13	0.242345
1070.77	0.801981
1072.42	-0.00659275
1074.06	0.965228
1075.7	-0.253311
1077.34	0.698811
1078.98	-0.0176764
1080.62	0.697921
1082.27	0.524465
1083.91	-0.0401859
1085.55	0.00062561
1087.18	0.429272
1088.82	0.378781
1090.46	0.412954
1092.1	0.532197
1093.74	0.866551
1095.38	0.68262
1097.02	0.327441
1098.65	0.189698
1100.29	0.161653
1101.93	0.436933
1103.56	0.0686083
1105.2	0.0675268
1106.84	0.669305
1108.47	0.948072
1110.11	0.666513
1111.74	0.942168
1113.38	0.635687
1115.01	0.199311
1116.64	0.663837
1118.28	0.205962
1119.91	0.0279064
1121.54	0.472079
1123.18	-0.110364
1124.81	0.399872
1126.44	0.333216
1128.07	0.438529
1129.7	0.822536
1131.33	0.651243
1132.97	-0.417531
1134.6	0.629936
1136.23	-0.225696
1137.86	0.434997
1139.49	-0.102196
1141.11	0.149902
1142.74	-0.260343
1144.37	-0.328832
1146	-0.396567
1147.63	0.282615
1149.26	0.19533
1150.88	0.577242
1152.51	0.0858965
1154.14	0.87179
1155.76	0.443627
1157.39	0.249598
1159.01	0.0773172
1160.64	0.437637
1162.27	-0.0301733
1163.89	0.778868
1165.51	0.270256
1167.14	0.229149
1168.76	-0.195763
1170.39	-0.133435
1172.01	0.0117559
1173.63	0.0486917
1175.25	0.40244
1176.88	-0.0929565
1178.5	0.0692577
1180.12	0.358953
1181.74	0.458838
1183.36	-0.138317
1184.98	0.258389
1186.6	0.146831
1188.22	-0.0929203
1189.84	0.171515
1191.46	0.138527
1193.08	0.188036
1194.7	-0.246452
1196.32	0.38954
1197.94	0.626938
1199.55	-0.263712
1201.17	0.354374
1202.79	0.515022
1204.41	0.0105572
1206.02	1.01104
1207.64	0.761002
1209.25	0.740842
1210.87	0.114987
1212.48	0.467554
1214.1	0.317242
1215.71	0.789295
1217.33	1.52888
1218.94	0.852574
1220.56	0.675712
1222.17	-0.246667
1223.79	0.636651
1225.4	0.981885
1227.01	0.707619
1228.62	0.807522
1230.23	0.991478
1231.85	0.59791
1233.46	1.6526
1235.07	1.03454
1236.68	0.72785
1238.29	1.66263
1239.9	1.21319
1241.51	1.05333
1243.12	1.16198
1244.73	0.980109
1246.34	0.693573
1247.94	0.654196
1249.55	1.52432
1251.16	0.573353
1252.77	1.0294
1254.37	1.21726
1255.98	0.475544
1257.59	1.12108
1259.2	0.257649
1260.8	1.17483
1262.41	1.32705
1264.01	0.857966
1265.62	0.657502
1267.22	0.476841
1268.83	1.22802
1270.43	1.50133
1272.03	0.861112
1273.64	0.883223
1275.24	0.717648
1276.85	0.965548
1278.45	1.08806
1280.05	1.06481
1281.65	1.68281
1283.25	1.47285
1284.85	0.953461
1286.46	0.848887
1288.06	1.20022
1289.66	1.63514
1291.26	1.28537
1292.86	0.749635
1294.46	1.32878
1296.06	1.80295
1297.66	0.953693
1299.25	1.73329
1300.85	1.85031
1302.45	1.22408
1304.05	1.37985
1305.65	1.36999
1307.24	1.21578
1308.84	1.10255
1310.43	0.805109
1312.03	1.34804
1313.63	1.21579
1315.22	0.900993
1316.82	1.01656
1318.41	1.56104
1320.01	1.14641
1321.6	1.15922
1323.2	1.41446
1324.79	1.52487
1326.38	1.38971
1327.98	0.990645
1329.57	0.93736
1331.16	1.6747
1332.76	1.14012
1334.35	1.51758
1335.94	1.37183
1337.53	1.44878
1339.12	1.80714
1340.71	1.78037
1342.3	1.20779
1343.89	0.995898
1345.48	1.40557
1347.07	0.992108
1348.66	1.12228
1350.25	0.974776
1351.84	1.05038
1353.43	1.02832
1355.01	1.9272
1356.6	0.428216
1358.19	0.687536
1359.77	0.646113
1361.36	0.982753
1362.95	1.03879
1364.53	0.835155
1366.12	1.24965
1367.71	0.48964
1369.29	0.746846
1370.88	0.34871
1372.46	0.768057
1374.04	1.22839
1375.63	0.853795
1377.21	0.558909
1378.8	0.641563
1380.38	0.62362
1381.96	1.02198
1383.54	1.2993
1385.13	0.978893
1386.71	0.797289
1388.29	1.05287
1389.87	0.495122
1391.45	0.672956
1393.03	0.653198
1394.61	0.614066
1396.19	0.733398
1397.77	0.911361
1399.35	1.0088
1400.93	0.33262
1402.51	1.25983
1404.09	0.662608
1405.67	0.521359
1407.24	0.282348
1408.82	1.32874
1410.4	0.992402
1411.98	0.498268
1413.55	0.556534
1415.13	0.633479
1416.71	1.49822
1418.28	1.02126
1419.86	1.05732
1421.43	1.40958
1423.01	1.2516
1424.58	1.15467
1426.16	1.01987
1427.73	1.41715
1429.31	0.967797
1430.88	1.73773
1432.45	1.44345
1434.02	1.71866
1435.6	1.26546
1437.17	1.93341
1438.74	1.3242
1440.31	1.32562
1441.88	1.99636
1443.45	2.25521
1445.03	1.76772
1446.6	1.98799
1448.17	1.97257
1449.74	1.97714
1451.3	2.25753
1452.87	1.73235
1454.44	1.7582
1456.01	2.23658
1457.58	1.88787
1459.15	2.38386
1460.72	1.79537
1462.28	1.34257
1463.85	1.7731
1465.42	1.80877
1466.98	2.09929
1468.55	1.84016
1470.12	1.03284
1471.68	0.855197
1473.25	0.796535
1474.81	0.934879
1476.38	1.58345
1477.94	0.879268
1479.51	0.880871
1481.07	1.11755
1482.63	0.393808
1484.2	0.90455
1485.76	0.709482
1487.32	0.768268
1488.88	0.884283
1490.45	0.489365
1492.01	1.10923
1493.57	0.573045
1495.13	0.309084
1496.69	0.39526
1498.25	0.617112
1499.81	0.508569
1501.37	0.828569
1502.93	1.01347
1504.49	0.230301
1506.05	0.397418
1507.61	0.254138
1509.17	0.554353
1510.73	0.466659
1512.28	0.474539
1513.84	0.327947
1515.4	0.105011
1516.96	0.555202
1518.51	0.775076
1520.07	0.726981
1521.63	0.353953
1523.18	0.841533
1524.74	0.238856
1526.29	0.437392
1527.85	0.405837
1529.4	0.240626
1530.96	0.607463
1532.51	0.499789
1534.06	0.393375
1535.62	0.74232
1537.17	0.80816
1538.72	0.62928
1540.28	0.507781
1541.83	1.14019
1543.38	0.096221
1544.93	0.577038
1546.48	1.07543
1548.03	0.634406
1549.59	0.944013
1551.14	0.522901
1552.69	0.57084
1554.24	0.601028
1555.79	0.147102
1557.34	0.143628
1558.88	0.3475
1560.43	0.739892
1561.98	0.219936
1563.53	0.540724
1565.08	0.582355
1566.62	0.885389
1568.17	0.460359
1569.72	0.800116
1571.27	0.448812
1572.81	1.04918
1574.36	0.902708
1575.9	1.0736
1577.45	1.05803
1579	0.968251
1580.54	0.916485
1582.09	0.660136
1583.63	1.45075
1585.17	1.00934
1586.72	1.2786
1588.26	1.36123
1589.8	1.33143
1591.35	1.45086
1592.89	0.839549
1594.43	1.14529
1595.97	0.832963
1597.52	1.21433
1599.06	0.846752
1600.6	1.13618
1602.14	1.40767
1603.68	1.41655
1605.22	1.23683
1606.76	1.56284
1608.3	1.22888
1609.84	1.1178
1611.38	0.891392
1612.92	0.925839
1614.46	0.376925
1615.99	1.53499
1617.53	1.17379
1619.07	0.664401
1620.61	0.587835
1622.14	1.63627
1623.68	1.0004
1625.22	0.963796
1626.75	0.814088
1628.29	0.943676
1629.82	1.25859
1631.36	1.36635
1632.9	1.02521
1634.43	1.37545
1635.96	1.03589
1637.5	1.66749
1639.03	0.602805
1640.57	1.3281
1642.1	1.36287
1643.63	1.19153
1645.16	1.4284
1646.7	1.31056
1648.23	1.35971
1649.76	1.53917
1651.29	1.9422
1652.82	1.56725
1654.36	1.23105
1655.89	1.65577
1657.42	1.69108
1658.95	1.15131
1660.48	1.73981
1662.01	1.1234
1663.53	1.43083
1665.06	1.57082
1666.59	0.825085
1668.12	1.22509
1669.65	1.55253
1671.18	1.43922
1672.7	1.03257
1674.23	1.25282
1675.76	1.10452
1677.29	1.63639
1678.81	0.58449
1680.34	1.24238
1681.86	0.685861
1683.39	1.19469
1684.91	1.39094
1686.44	1.11053
1687.96	0.904269
1689.49	0.405587
1691.01	1.00629
1692.54	0.63654
1694.06	0.669509
1695.58	0.0440979
1697.11	0.990479
1698.63	0.730133
1700.15	0.341862
1701.67	0.901879
1703.2	0.385191
1704.72	0.251075
1706.24	0.04387
1707.76	0.963835
1709.28	0.428977
1710.8	0.330689
1712.32	0.377811
1713.84	0.425043
1715.36	0.182619
1716.88	0.284191
1718.4	0.060132
1719.91	0.0711155
1721.43	0.587447
1722.95	0.328333
1724.47	0.575175
1725.99	0.156919
1727.5	0.226542
1729.02	0.513175
1730.54	0.00766563
1732.05	0.164125
1733.57	0.195339
1735.09	0.339154
1736.6	0.457641
1738.12	0.342334
1739.63	-0.148172
1741.15	0.247425
1742.66	0.329379
1744.18	-0.0343781
1745.69	0.229555
1747.2	0.074049
1748.72	-0.361043
1750.23	0.21354
1751.74	0.107203
1753.25	0.768432
1754.77	0.391107
1756.28	-0.0790234
1757.79	0.0467148
1759.3	-0.525045
1760.81	0.397597
1762.32	0.220981
1763.83	0.00867271
1765.34	-0.313562
1766.85	0.0745306
1768.36	0.0784769
1769.87	0.302816
1771.38	-0.112008
1772.89	0.73989
1774.4	0.553333
1775.91	-0.0045166
1777.41	0.0112858
1778.92	0.234521
1780.43	0.159806
1781.94	-0.0165396
1783.44	0.0538054
1784.95	0.157632
1786.45	-0.0627661
1787.96	-0.0340433
1789.47	-0.433075
1790.97	-0.105812
1792.47	0.173145
1793.98	-0.059145
1795.48	0.554417
1796.99	-0.229663
1798.49	0.0392942
1800	-0.103451
1801.5	0.478789
1803	0.181941
1804.51	0.0793791
1806.01	-0.146981
1807.51	-0.0232239
1809.01	0.349695
1810.51	0.111633
1812.02	0.353869
1813.52	0.0330715
1815.02	0.0446854
1816.52	-0.0759974
1818.02	-0.157883
1819.52	0.0488605
1821.02	0.0391893
1822.52	0.168256
1824.02	0.193113
1825.51	0.162525
1827.01	0.212835
1828.51	0.18222
1830.01	-0.0862064
1831.51	0.222064
1833	0.117184
1834.5	-0.482845
1836	0.388322
1837.49	-0.0347338
1838.99	-0.168683
1840.49	-0.294435
1841.98	0.166192
1843.48	-0.242751
1844.97	0.377759
1846.47	0.157202
1847.96	0.352571
1849.46	0.187911
1850.95	0.0563421
1852.45	-0.013854
1853.94	0.0963249
1855.43	-0.0119066
1856.92	-0.0875025
1858.42	0.12427
1859.91	0.0214558
1861.4	0.101524
1862.89	-0.148581
1864.39	0.22801
1865.88	0.0810575
1867.37	0.289113
1868.86	0.259506
1870.35	0.513222
1871.84	0.0416641
1873.33	-0.0119982
1874.82	0.00723076
1876.31	0.21485
1877.8	0.349262
1879.29	-0.0927792
1880.77	-0.252737
1882.26	0.315448
1882.52	0.443062
1884.02	0.35361
1885.51	0.245893
1887.01	0.0153608
1888.5	-0.180683
1889.99	0.197843
1891.49	0.22931
1892.98	0.071332
1894.47	0.0893087
1895.96	0.0916424
1897.46	-0.0268126
1898.95	0.0807028
1900.44	-0.178216
1901.93	-0.108392
1903.42	-0.162274
1904.91	0.216879
1906.4	0.629519
1907.89	-0.469072
1909.38	0.378071
1910.87	0.323354
1912.36	0.200322
1913.85	0.147369
1915.34	0.337312
1916.83	-0.0973206
1918.32	0.594253
1919.8	0.0893612
1921.29	-0.415303
1922.78	-0.15732
1924.27	0.0149431
1925.75	0.223058
1927.24	0.467016
1928.73	0.400118
1930.21	-0.203646
1931.7	-0.375443
1933.18	-0.531457
1934.67	0.401238
1936.15	0.154771
1937.64	-0.196507
1939.12	-0.13315
1940.61	-0.0177517
1942.09	-0.367493
1943.57	0.129494
1945.06	0.489122
1946.54	0.280078
1948.02	0.122608
1949.51	0.412306
1950.99	0.339015
1952.47	0.213123
1953.95	-0.377533
1955.43	0.201007
1956.91	0.109504
1958.39	0.344971
1959.87	-0.156595
1961.36	0.20025
1962.84	0.00855064
1964.32	-0.0461292
1965.79	0.258305
1967.27	0.116645
1968.75	0.145456
1970.23	0.207746
1971.71	-0.294003
1973.19	0.211927
1974.66	0.239674
1976.14	-0.0903349
1977.62	0.27863
1979.1	0.511057
1980.57	-0.44755
1982.05	0.107795
1983.53	0.152446
1985	0.111794
1986.48	0.172677
1987.95	0.131763
1989.43	0.328356
1990.9	0.356213
1992.38	0.317468
1993.85	0.296832
1995.33	0.277157
1996.8	0.646556
1998.27	0.407704
1999.75	0.658101
2001.22	0.148213
2002.69	-0.209957
2004.16	0.0895319
2005.64	0.170059
2007.11	0.537705
2008.58	-0.440883
2010.05	-0.172254
2011.52	-0.593292
2012.99	-0.0547857
2014.46	0.0792189
2015.93	0.0945358
2017.4	-0.210715
2018.87	0.374338
2020.34	0.168507
2021.81	0.0970688
2023.28	-0.527838
2024.75	-0.0775299
2026.22	0.357006
2027.69	0.289876
2029.15	0.459283
2030.62	0.881927
2032.09	0.550804
2033.56	1.07618
2035.02	0.359222
2036.49	0.414076
2037.95	0.0818825
2039.42	0.253294
2040.89	0.374283
2042.35	0.378066
2043.82	-0.138706
2045.28	0.253795
2046.75	-0.126927
2048.21	0.166099
2049.67	-0.164515
2051.14	0.0261478
2052.6	0.130899
2054.06	0.267371
2055.53	0.182628
2056.99	0.43352
2058.45	-0.108666
2059.92	-0.0442257
2061.38	-0.248771
2062.84	0.103176
2064.3	0.287797
2065.76	0.187428
2067.22	0.071188
2068.68	0.494186
2070.14	-0.0081749
2071.6	0.112309
2073.06	0.535748
2074.52	0.133857
2075.98	0.506175
2077.44	0.322369
2078.9	0.188636
2080.36	0.340659
2081.82	-0.130918
2083.27	0.390071
2084.73	0.388294
2086.19	-0.0516806
2087.65	0.247845
2089.1	0.731483
2090.56	0.256961
2092.01	-0.0996399
2093.47	0.651481
2094.93	0.512672
2096.38	0.490777
2097.84	0.350909
2099.29	0.0599089
2100.75	0.170347
2102.2	-0.00321293
2103.66	0.0080719
2105.11	0.33785
2106.56	0.635527
2108.02	0.200376
2109.47	0.482841
2110.92	0.547839
2112.37	0.344682
2113.83	0.123174
2115.28	-0.0997849
2116.73	0.491249
2118.18	0.101613
2119.63	0.1622
2121.09	0.357549
2122.54	0.521739
2123.99	0.505108
2125.44	0.0746889
2126.89	0.439888
2128.34	0.48891
2129.79	0.503211
2131.23	0.101992
2132.68	0.130696
2134.13	0.357846
2135.58	0.784032
2137.03	0.170236
2138.48	0.96347
2139.92	0.30446
2141.37	1.06869
2142.82	0.594534
2144.26	0.401978
2145.71	-0.138144
2147.16	0.744883
2148.6	0.716904
2150.05	0.406297
2151.49	0.459
2152.94	0.278653
2154.38	0.627613
2155.83	0.909737
2157.27	0.164852
2158.72	0.315308
2160.16	0.301532
2161.6	0.289628
2163.05	0.64444
2164.49	0.636353
2165.93	0.662404
2167.38	0.20658
2168.82	0.729896
2170.26	0.852617
2171.7	0.806694
2173.14	0.642131
2174.58	0.808732
2176.03	0.30942
2177.47	0.458961
2178.91	0.958416
2180.35	0.544532
2181.79	0.91304
2183.23	0.35104
2184.67	0.53763
2186.1	0.241931
2187.54	0.927855
2188.98	0.515685
2190.42	0.602713
2191.86	0.506343
2193.3	0.891985
2194.73	0.54359
2196.17	0.792524
2197.61	0.406821
2199.05	0.518472
2200.48	0.711897
2201.92	0.290573
2203.35	0.484412
2204.79	0.297849
2206.22	0.0794468
2207.66	0.425064
2209.09	0.852993
2210.53	0.319674
2211.96	0.414413
2213.4	0.623898
2214.83	0.552147
2216.27	0.448143
2217.7	0.939433
2219.13	0.409255
2220.56	0.407956
2222	0.291436
2223.43	0.388395
2224.86	0.302615
2226.29	0.0175943
2227.72	0.125822
2229.16	-0.243835
2230.59	0.436392
2232.02	0.557714
2233.45	0.188021
2234.88	0.441294
2236.31	0.20528
2237.74	0.428489
2239.17	0.359835
2240.6	0.29347
2242.03	0.310677
2243.45	0.0682964
2244.88	0.201447
2246.31	0.18709
2247.74	0.497171
2249.17	-0.124547
2250.59	0.229477
2252.02	0.662412
2253.45	-0.0935068
2254.87	0.500765
2256.3	0.543706
2257.73	0.508139
2259.15	-0.0108776
2260.58	0.333243
2262	0.0959167
2263.43	0.428553
2264.85	0.453151
2266.28	0.39607
2267.7	0.321768
2269.13	0.278922
2270.55	0.0886393
2271.97	0.581578
2273.4	0.309077
2274.82	0.183164
2276.24	0.0899954
2277.66	0.111062
2279.09	0.441959
2280.51	0.446833
2281.93	0.353695
2283.35	0.390926
2284.77	0.787233
2286.19	-0.187138
2287.61	0.177215
2289.04	0.607634
2290.46	0.303524
2291.88	0.342769
2293.29	0.00603104
2294.71	0.323437
2296.13	0.853813
2297.55	0.533047
2298.97	0.457801
2300.39	0.382705
2301.81	0.521023
2303.23	0.101992
2304.64	0.733244
2306.06	0.543904
2307.48	0.107508
2308.89	0.113943
2310.31	0.2184
2311.73	0.388271
2313.14	0.196215
2314.56	0.646405
2315.97	0.225051
2317.39	0.430228
2318.8	0.00971889
2320.22	0.330699
2321.63	0.254737
2323.05	0.374669
2324.46	0.425975
2325.88	0.078743
2327.29	0.373042
2328.7	0.320067
2330.12	0.333243
2331.53	0.182762
2332.94	0.0171795
2334.35	0.724694
2335.76	-0.130624
2337.18	-0.0156937
2338.59	0.0816593
2340	0.736336
2341.41	0.190375
2342.82	0.235323
2344.23	-0.0150251
2345.64	-0.0189095
2347.05	0.45251
2348.46	0.0558281
2349.87	0.526214
2351.28	-0.247272
2352.69	0.26967
2354.1	0.0340462
2355.5	-0.0388813
2356.91	-0.209723
2358.32	0.0589056
2359.73	0.0671377
2361.14	0.659736
2362.54	0.132365
2363.95	-0.410205
2365.36	0.0675583
2366.76	0.350568
2368.17	0.133177
2369.58	0.610971
2370.98	0.444771
2372.39	0.231978
2373.79	-0.253217
2375.2	-0.270782
2376.6	0.435271
2378	0.0941772
2379.41	0.29812
2380.81	0.788766
2382.22	0.458941
2383.62	-0.0793571
2385.02	0.359108
2386.42	0.301697
2387.83	0.245422
2389.23	0.318151
2390.63	0.392184
2392.03	0.722174
2393.43	0.400577
2394.84	0.255201
2396.24	-0.318499
2397.64	0.284957
2399.04	0.61861
2400.44	0.571432
2401.84	-0.174242
2403.24	-0.220876
2404.64	-0.0773506
2406.04	-0.41104
2407.44	0.143077
2408.83	0.378631
2410.23	-0.0363379
2411.63	0.135555
2413.03	0.308187
2414.43	0.387149
2415.83	-0.022994
2417.22	0.169937
2418.62	0.363931
2420.02	0.241668
2421.41	0.214259
2422.81	0.265663
2424.21	0.0157118
2425.6	0.272851
2427	0.181961
2428.39	0.313942
2429.79	-0.123861
2431.18	0.0575285
2432.58	0.286881
2433.97	0.404693
2435.36	0.267113
2436.76	0.334354
2438.15	-0.0449924
2439.54	0.0508699
2440.94	-0.235452
2442.33	0.731892
2443.72	0.1431
2445.11	0.36351
2446.51	0.409151
2447.9	0.121799
2449.29	0.294046
2450.68	0.0072298
2452.07	0.0694256
2453.46	-0.184026
2454.85	0.259654
2456.24	0.545806
2457.63	0.0730286
2459.02	-0.21006
2460.41	0.154685
2461.8	0.0914993
2463.19	-0.0831738
2464.58	0.152414
2465.97	0.308502
2467.36	0.180203
2468.75	0.541076
2470.13	0.00244808
2471.52	-0.0790358
2472.91	0.232647
2474.29	0.070797
2475.68	0.757873
2477.07	0.123169
2478.45	-0.0708466
2479.84	-0.0917625
2481.22	0.122729
2482.61	0.556146
2484	0.221257
2485.38	-0.0983925
2486.77	0.050045
2488.15	0.321755
2489.54	0.0309086
2490.92	-0.13485
2492.3	-0.190819
2493.69	0.0184517
2495.07	0.151202
2496.45	0.347125
2497.84	0.110036
2499.22	-0.126427
2500.6	-0.0845118
2501.98	-0.491707
2503.36	0.11986
2504.74	-0.396783
2506.13	-0.342905
2507.51	0.433944
2508.89	-0.00531292
2510.27	0.109708
2511.65	0.117806
2513.03	0.387343
2514.41	0.335768
2515.79	-0.189223
2517.17	0.388668
2518.55	0.186804
2519.93	0.581299
2521.3	0.0128918
2522.68	0.0244179
2524.06	0.523073
2525.44	0.0295305
2526.82	0.191269
2528.19	-0.103276
2529.57	-0.137716
2530.95	0.179167
2532.32	0.467318
2533.7	0.0124798
2535.08	0.0598516
2536.45	0.122368
2537.83	-0.0741081
2539.2	0.411868
2540.58	0.592978
2541.95	0.120914
2543.33	-0.0470839
2544.7	0.423035
2546.08	0.393885
2547.45	-0.195112
2548.82	0.172477
2550.2	0.282309
2551.57	0.224697
2552.94	-0.258888
2554.32	-0.121377
2555.69	0.151654
2557.06	0.423927
2558.43	-0.0925884
2559.8	0.498086
2561.17	0.149417
2562.55	0.362289
2563.92	-0.0303593
2565.29	-0.0133638
2566.66	-0.0112476
2568.03	0.127362
2569.4	-0.203838
2570.77	0.677462
2572.14	-0.184218
2573.51	0.121294
2574.88	-0.08848
2576.24	-0.222446
2577.61	0.280296
2578.98	-0.263401
2580.35	0.223587
2581.72	-0.0480318
2583.09	0.0741701
2584.45	0.120279
2585.82	0.181479
2587.19	0.0760698
2588.55	0.198221
2589.92	-0.0886936
2591.28	0.275894
2592.65	0.155032
2594.02	-0.0272846
2595.38	-0.104625
2596.75	-0.304117
2598.11	0.0252113
2599.48	-0.0393524
2600.84	-0.269935
2602.2	-0.107078
2603.57	0.0865383
2604.93	0.129725
2606.3	0.716143
2607.66	0.0351362
2609.02	-0.103638
2610.38	-0.183332
2611.75	0.0215969
2613.11	0.450436
2614.47	-0.264053
2615.83	-0.0920486
2617.19	0.379651
2618.56	0.38687
2619.92	0.00591087
2621.28	-0.0895348
2622.64	-0.109562
2624	0.139477
2625.36	-0.298302
2626.72	0.114223
2628.08	0.0340509
2629.44	0.0578794
2630.8	0.0665636
2632.15	0.253501
2633.51	0.157853
2634.87	0.507586
2636.23	0.382154
2637.59	0.301361
2638.94	0.117105
2640.3	-0.125857
2641.66	0.237953
2643.02	0.217452
2644.37	0.167645
2645.73	-0.103469
2647.08	0.0823536
2648.44	0.222925
2649.8	0.00914574
2651.15	0.280146
2652.51	-0.0812531
2653.86	0.203843
2655.22	0.518547
2656.57	-0.176579
2657.92	-0.313272
2659.28	-0.185525
2660.63	0.147237
2661.99	0.187224
2663.34	0.29953
2664.69	0.308596
2666.04	0.0688324
2667.4	0.120374
2668.75	0.142599
2670.1	0.456093
2671.45	0.260844
2672.81	0.197351
2674.16	0.26534
2675.51	0.275857
2676.86	-0.162755
2678.21	0.458443
2679.56	0.137745
2680.91	0.238783
2682.26	0.283174
2683.61	0.212921
2684.96	-0.0448437
2686.31	0.14756
2687.66	-0.0664949
2689	-0.0206318
2690.35	-0.136299
2691.7	0.558856
2693.05	0.134671
2694.4	0.434807
2695.74	0.531511
2697.09	0.57089
2698.44	0.104909
2699.79	-0.14181
2701.13	-0.415592
2702.48	0.23914
2703.82	0.504258
2705.17	0.20482
2706.52	0.0211954
2707.86	0.359503
2709.21	0.233108
2710.55	0.22236
2711.9	0.240354
2713.24	0.563358
2714.58	0.450419
2715.93	0.308253
2717.27	0.0349541
2718.61	0.357688
2719.96	0.185423
2721.3	0.245441
2722.64	0.566915
2723.99	0.407552
2725.33	0.364126
2726.67	6.00815e-005
2728.01	0.203288
2729.35	0.0569534
2730.7	0.259703
2732.04	0.476915
2733.38	0.723269
2734.72	0.780689
2736.06	0.242017
2737.4	-0.165545
2738.74	0.226787
2740.08	0.400661
2741.42	0.384935
2742.76	-0.314759
2744.09	0.394833
2745.43	0.158953
2746.77	0.300337
2748.11	0.310746
2749.45	0.205128
2750.79	-0.277262
2752.12	0.18335
2753.46	0.469985
2754.8	0.321988
2756.13	-0.0140448
2757.47	-0.0021925
2758.81	-0.0769129
2760.14	0.38433
2761.48	0.0211277
2762.81	0.0202866
2764.15	0.0342693
2765.49	-0.0819759
2766.82	0.322113
2768.15	-0.258522
2769.49	0.330954
2770.82	0.0656147
2772.16	0.246755
2773.49	-0.237303
2774.82	-0.0435581
2776.16	-0.109478
2777.49	-0.0309649
2778.82	0.0911741
2780.16	0.012538
2781.49	-0.151796
2782.82	-8.39233e-005
2784.15	0.137026
2785.48	0.359921
2786.81	-0.219337
2788.15	-0.0386686
2789.48	0.156977
2790.81	-0.147098
2792.14	-0.121253
2793.47	0.0194492
2794.8	0.102974
2796.13	-0.113964
2797.46	0.182837
2798.79	-0.035223
2800.12	-0.225027
2801.44	-0.243767
2802.77	0.450202
2804.1	-0.52415
2805.43	0.168463
2806.76	0.0624924
2808.08	0.0839596
2809.41	-0.0656166
2810.74	-0.243336
2812.07	0.0197849
2813.39	-0.127465
2814.72	0.365014
2816.05	-0.204222
2817.37	0.333473
2818.7	0.148958
2820.02	-0.191446
2821.35	-0.192162
2822.67	0.0331354
2824	-0.0398636
2825.32	0.0709305
2826.65	0.125079
2827.97	0.349686
2829.29	0.0652342
2830.62	0.0503187
2831.94	0.361227
2833.26	0.587122
2834.59	0.204016
2835.91	0.570503
2837.23	0.455191
2838.55	0.87697
2839.88	0.562922
2841.2	1.16814
2842.52	0.967873
2843.84	1.12176
2845.16	1.12102
2846.48	1.23405
2847.8	1.22033
2849.12	1.37624
2850.44	1.68731
2851.76	1.913
2853.08	1.43142
2854.4	1.30279
2855.72	1.76739
2857.04	1.7798
2858.36	1.84876
2859.68	2.00243
2861	1.8311
2862.32	2.26651
2863.63	2.02383
2864.95	2.62759
2866.27	2.14482
2867.58	2.74851
2868.9	2.81666
2870.22	3.46331
2871.53	3.3488
2872.85	2.76892
2874.17	3.71014
2875.48	3.64945
2876.8	3.34813
2878.11	3.62306
2879.43	3.7567
2880.74	3.34242
2882.06	3.2667
2883.37	2.88333
2884.69	2.96465
2886	3.36952
2887.31	2.98835
2888.63	2.98571
2889.94	3.69757
2891.25	2.65521
2892.57	3.64527
2893.88	3.34544
2895.19	4.05449
2896.5	4.41404
2897.82	3.83712
2899.13	4.0592
2900.44	3.62468
2901.75	4.23994
2903.06	3.91821
2904.37	4.22611
2905.68	4.28257
2906.99	4.6894
2908.3	4.4398
2909.61	4.17716
2910.92	5.13262
2912.23	4.78671
2913.54	4.81778
2914.85	5.58922
2916.16	5.15456
2917.46	5.18002
2918.77	4.82653
2920.08	5.89966
2921.39	5.71459
2922.7	5.92254
2924	5.82465
2925.31	6.00774
2926.62	5.96795
2927.92	6.04006
2929.23	5.79018
2930.53	6.67203
2931.84	6.43489
2933.15	6.46305
2934.45	6.05791
2935.76	6.08623
2937.06	6.05886
2938.37	5.91994
2939.67	6.25647
2940.98	5.9788
2942.28	5.57639
2943.58	5.70645
2944.89	5.15316
2946.19	4.83867
2947.49	5.7279
2948.8	4.77
2950.1	5.02822
2951.4	4.66834
2952.7	5.02037
2954.01	4.60063
2955.31	4.48855
2956.61	4.25156
2957.91	4.25487
2959.21	4.48534
2960.51	4.56518
2961.81	4.11486
2963.11	3.52451
2964.41	4.01373
2965.71	4.23506
2967.01	3.78009
2968.31	3.52005
2969.61	3.58245
2970.91	3.79946
2972.21	3.41198
2973.51	2.63068
2974.81	2.93284
2976.1	3.2063
2977.4	2.47866
2978.7	3.24161
2980	2.34127
2981.29	2.69237
2982.59	2.46589
2983.89	2.63363
2985.18	2.42305
2986.48	1.93326
2987.78	1.52951
2989.07	1.85758
2990.37	1.93307
2991.66	2.10641
2992.96	2.12397
2994.25	1.42348
2995.55	1.56487
2996.84	1.07355
2998.14	1.39637
2999.43	1.32642
3000.72	1.14497
3002.02	1.31475
3003.31	0.994472
3004.6	0.744563
3005.9	0.830629
3007.19	0.747991
3008.48	0.790428
3009.77	0.705993
3011.07	0.816457
3012.36	0.591206
3013.65	0.366309
3014.94	0.407088
3016.23	-0.0946922
3017.52	0.713662
3018.81	0.394622
3020.1	-0.229917
3021.39	0.674674
3022.68	0.785456
3023.97	-0.187465
3025.26	0.129901
3026.55	-0.0937243
3027.84	0.0156927
3029.13	0.167624
3030.42	0.0584879
3031.71	0.0754089
3033	-0.306852
3034.28	0.125753
3035.57	0.309171
3036.86	-0.101869
3038.15	-0.0320749
3039.43	-0.0607576
3040.72	-0.132289
3042.01	-0.163416
3043.29	0.0659094
3044.58	0.487209
3045.86	0.0753746
3047.15	0.158567
3048.44	0.244275
3049.72	0.154892
3051.01	0.162875
3052.29	-0.0601749
3053.58	0.385443
3054.86	0.352772
3056.14	0.305331
3057.43	0.543001
3058.71	0.343573
3060	0.307478
3061.28	0.258257
3062.56	-0.102631
3063.84	0.231709
3065.13	0.322932
3066.41	0.551701
3067.69	0.183432
3068.97	0.209893
3070.25	0.521718
3071.54	0.057395
3072.82	0.0406065
3074.1	0.144855
3075.38	-0.241133
3076.66	0.0112152
3077.94	0.100899
3079.22	0.340966
3080.5	0.0535746
3081.78	-0.354069
3083.06	0.0264387
3084.34	-0.284155
3085.62	0.110969
3086.9	0.125705
3088.17	0.126128
3089.45	0.342964
3090.73	0.0300465
3092.01	0.0969925
3093.29	0.055604
3094.56	0.380744
3095.84	0.0688658
3097.12	0.0554705
3098.4	0.150496
3099.67	-0.405041
3100.95	-0.0256624
3102.22	-0.0120106
3103.5	-0.0521793
3104.77	0.00301838
3106.05	0.221441
3107.33	-0.0192299
3108.6	0.0119247
3109.88	0.0172224
3111.15	0.483994
3112.43	-0.0503492
3113.7	0.228436
3114.97	0.114347
3116.25	0.0268278
3117.52	-0.12942
3118.79	0.0522718
3120.07	0.544724
3121.34	0.0598192
3122.61	0.469078
3123.88	0.471447
3125.16	0.243882
3126.43	0.544865
3127.7	0.48103
3128.97	0.404356
3130.24	0.314648
3131.51	0.617161
3132.78	0.473442
3134.05	0.464558
3135.33	0.212171
3136.59	0.431681
3137.86	0.0707064
3139.14	0.504721
3140.41	0.735995
3141.67	0.469421
3142.94	0.606787
3144.21	0.623693
3145.48	1.04374
3146.75	0.337983
3148.02	0.424363
3149.28	0.792495
