200.43	0.0666199
202.246	0.06497
204.061	0.0656757
205.875	-0.272146
207.688	-0.244135
209.501	0.512453
211.316	-0.166105
213.129	0.0767174
214.941	0.17222
216.753	0.169994
218.566	0.797884
220.377	0.0225067
222.188	0.2659
223.999	0.752665
225.809	1.047
227.618	0.085434
229.43	0.93539
231.239	-0.17099
233.047	-0.0462265
234.855	0.537453
236.663	0.399982
238.471	0.772585
240.278	-0.489258
242.087	0.350224
243.894	0.903543
245.7	1.04739
247.506	0.657875
249.311	0.698517
251.116	0.613317
252.921	0.523634
254.725	0.624214
256.529	0.796505
258.333	0.632929
260.136	0.978567
261.939	0.773741
263.744	0.524031
265.546	0.324631
267.348	0.776798
269.15	0.987869
270.951	0.691572
272.752	0.779234
274.552	0.0931625
276.353	0.730501
278.152	0.231918
279.952	0.2363
281.751	0.790922
283.55	-0.0532494
285.348	-0.561829
287.146	0.057518
288.942	0.10033
290.739	-0.430384
292.536	0.717703
294.333	-0.213892
296.129	0.508017
297.925	-0.345894
299.721	0.546021
301.516	-0.186852
303.311	-0.586176
305.106	-0.676796
306.9	-0.0293407
308.694	0.831697
310.486	0.120495
312.279	0.579212
314.072	-0.173578
315.864	-0.375116
317.656	0.0458164
319.448	0.32695
321.24	0.0147686
323.029	0.395432
324.819	-0.0575829
326.61	-0.0570755
328.4	0.373299
330.19	-0.0334778
331.977	0.131453
333.766	-0.591532
335.555	0.643925
337.343	-0.0626945
339.131	0.662733
340.917	0.28495
342.704	-0.2612
344.491	-0.18561
346.277	0.273071
348.062	0.0403976
349.848	0.572845
351.633	-0.398365
353.416	0.08564
355.201	0.0905819
356.986	0.42713
358.77	0.308271
360.552	0.711512
362.335	0.0893326
364.118	0.489298
365.899	0.0321579
367.682	0.262854
369.464	0.159689
371.243	0.268467
373.025	0.139223
374.806	0.836817
376.585	1.41501
378.365	0.908342
380.143	0.498762
381.923	0.539389
383.702	0.417803
385.479	0.722023
387.258	1.7098
389.034	1.24277
390.812	1.29471
392.59	1.51276
394.365	0.463985
396.142	0.966028
397.916	1.11616
399.693	1.36006
401.467	0.264454
403.242	0.530106
405.015	0.723999
406.79	1.15139
408.565	0.802818
410.337	0.782475
412.111	0.715366
413.882	0.531832
415.656	1.17098
417.426	1.45979
419.197	1.21029
420.969	0.515423
422.739	-0.156523
424.51	0.696199
426.279	0.796144
428.05	-0.0678654
429.819	0.663589
431.589	0.596937
433.356	0.0146294
435.124	0.418777
436.893	0.25972
438.66	0.310722
440.428	0.241848
442.194	0.333605
443.96	0.280701
445.727	-0.408012
447.492	0.236351
449.259	-0.17355
451.023	-0.559141
452.787	-0.31316
454.553	0.212788
456.316	0.201891
458.079	0.5867
459.844	0.0169735
461.606	0.449287
463.368	0.535362
465.132	0.347067
466.893	0.628941
468.654	0.497734
470.415	-0.653172
472.177	0.592617
473.937	0.138939
475.696	0.799656
477.456	0.222034
479.217	0.176701
480.975	0.641964
482.733	0.12924
484.491	1.08603
486.251	0.649082
488.008	0.00615692
489.765	0.485867
491.522	0.244699
493.278	0.682011
495.036	0.606108
496.791	0.810856
498.546	0.992067
500.301	1.03209
502.056	0.554657
503.81	0.732521
505.566	0.414967
507.319	1.41139
509.073	0.829609
510.825	0.526823
512.578	1.77407
514.33	0.594824
516.082	1.22475
517.833	1.71093
519.587	0.831324
521.337	0.468006
523.088	0.761713
524.838	0.538353
526.588	1.27702
528.337	0.256493
530.087	0.17424
531.835	0.372419
533.584	1.71585
535.332	0.879913
537.08	0.813845
538.827	1.30555
540.574	-0.351574
542.321	0.718899
544.068	0.134293
545.814	1.10786
547.56	0.8494
549.305	0.707935
551.05	0.77564
552.795	0.427204
554.54	0.38028
556.284	1.07262
558.027	0.173178
559.771	0.958235
561.514	0.499949
563.257	-0.347504
564.999	0.876057
566.742	0.675045
568.481	0.659504
570.223	-0.134247
571.964	0.841595
573.705	0.122753
575.445	0.141354
577.185	0.254892
578.925	-0.225826
580.665	0.00645828
582.402	0.308149
584.141	-0.402367
585.879	0.264601
587.617	0.446562
589.355	1.01742
591.092	0.459156
592.828	0.751154
594.564	0.0535126
596.301	-0.436968
598.037	-0.0302238
599.773	0.260836
601.506	0.274282
603.242	-0.105598
604.976	0.822451
606.711	-0.297861
608.443	0.234968
610.177	-0.10527
611.91	-0.398407
613.644	-0.0937176
615.374	-0.246384
617.107	0.51782
618.839	-0.116499
620.569	0.254978
622.3	0.143284
624.032	0.715881
625.761	0.122602
627.491	0.0570736
629.221	0.291887
630.949	0.485369
632.679	0.408903
634.408	0.44861
636.135	-0.425295
637.863	0.181377
639.592	0.235184
641.318	1.03606
643.045	0.50919
644.77	0.276796
646.497	0.363743
648.224	0.976818
649.948	0.436426
651.674	1.01685
653.398	0.809498
655.123	0.699362
656.846	-0.27177
658.57	0.375296
660.293	0.498188
662.017	0.983791
663.738	0.917234
665.462	1.12026
667.185	0.976608
668.905	0.602657
670.628	0.435648
672.348	0.821402
674.067	1.25802
675.789	0.27846
677.508	0.653111
679.228	0.408737
680.947	1.61038
682.667	0.923996
684.385	1.0843
686.104	0.94146
687.821	0.657269
689.538	1.61476
691.256	1.4882
692.972	0.715431
694.69	1.04685
696.406	1.46837
698.121	1.68012
699.837	1.33692
701.552	0.508802
703.268	0.645103
704.982	1.07844
706.695	1.11994
708.41	1.04584
710.123	0.902369
711.836	1.14759
713.55	0.385288
715.262	0.675169
716.973	0.462088
718.685	1.13916
720.398	0.607344
722.108	0.463865
723.818	0.548222
725.53	0.473017
727.24	1.35135
728.949	0.434574
730.658	0.969551
732.369	1.45738
734.077	1.8307
735.785	1.11841
737.493	0.950079
739.2	0.850969
740.909	1.52018
742.616	1.24461
744.322	0.72427
746.028	1.35472
747.734	0.705029
749.441	0.867815
751.146	0.628107
752.851	0.818125
754.555	1.21319
756.26	1.20614
757.963	0.729139
759.667	0.74992
761.372	1.96773
763.075	1.47359
764.777	1.97173
766.479	1.72278
768.181	1.44745
769.883	1.28085
771.584	1.2234
773.285	1.45719
774.986	0.85339
776.686	1.35845
778.386	0.712679
780.085	0.634848
781.785	1.6223
783.484	2.06755
785.182	1.69604
786.881	1.41058
788.579	1.50407
790.276	1.13892
791.974	0.384975
793.671	1.07447
795.367	1.4011
797.064	1.93154
798.76	1.67595
800.456	1.46908
802.151	0.860098
803.846	1.24238
805.541	1.62408
807.236	2.52068
808.93	2.08908
810.624	2.17185
812.317	1.19872
814.01	0.830956
815.703	2.47808
817.394	1.34872
819.086	0.981163
820.778	1.17273
822.47	2.52488
824.161	1.55762
825.852	1.81979
827.543	1.39515
829.231	2.2452
830.921	0.985142
832.611	1.73485
834.3	1.46382
835.989	1.23901
837.676	1.66082
839.364	2.05858
841.053	1.51547
842.74	1.30461
844.426	1.67366
846.113	1.10527
847.8	1.05399
849.486	1.47695
851.171	2.68889
852.857	1.44132
854.542	1.96559
856.227	1.54727
857.911	1.44078
859.595	0.813412
861.279	1.53275
862.961	1.41624
864.645	1.56757
866.329	1.01832
868.01	1.05381
869.692	1.29138
871.375	0.941896
873.055	1.53945
874.737	1.41491
876.418	1.06465
878.097	0.420883
879.778	1.15366
881.457	1.20864
883.137	1.14935
884.817	0.613901
886.495	0.233982
888.174	0.415392
889.851	1.78889
891.53	1.44507
893.206	0.49107
894.884	1.9214
896.562	1.14395
898.237	1.26436
899.914	1.33771
901.589	1.43172
903.265	0.942474
904.94	0.543447
906.615	0.0564423
908.289	0.753328
909.964	0.826616
911.637	0.14506
913.31	1.42188
914.984	0.787344
916.656	1.24106
918.33	0.85154
920.001	1.48144
921.674	0.0759563
923.345	1.06215
925.015	0.702492
926.687	1.14152
928.357	0.85507
930.028	0.549053
931.698	2.25222
933.366	1.50671
935.037	1.46753
936.705	0.569017
938.373	0.686697
940.043	1.66683
941.71	1.30395
943.379	1.07473
945.046	1.19827
946.712	1.23135
948.378	1.10631
950.046	0.35957
951.711	1.35373
953.376	1.35479
955.043	0.388554
956.708	0.530212
958.372	1.29574
960.036	1.80264
961.701	0.723036
963.364	1.80793
965.027	1.45321
966.69	0.760973
968.354	1.89939
970.016	1.21927
971.678	0.802933
973.339	0.940414
975	1.16909
976.661	1.2023
978.324	-0.221537
979.984	0.136459
981.644	0.493935
983.303	1.43561
984.962	0.86812
986.621	1.84588
988.282	1.64668
989.94	1.26813
991.598	0.57918
993.256	1.39254
994.913	0.0638676
996.57	1.20781
998.227	1.93142
999.884	1.92647
1001.54	2.4712
1003.2	1.75985
1004.85	0.960783
1006.51	1.87661
1008.16	0.924753
1009.82	0.786764
1011.47	1.7682
1013.12	1.34664
1014.78	0.51016
1016.43	1.14213
1018.08	1.75258
1019.74	0.767466
1021.39	0.85647
1023.04	1.20991
1024.69	0.822105
1026.34	0.6978
1028	1.14164
1029.65	1.78067
1031.3	1.5214
1032.95	2.00119
1034.6	2.36781
1036.25	1.57539
1037.9	1.7191
1039.55	1.97113
1041.19	1.39755
1042.84	1.80561
1044.49	1.97783
1046.14	1.76306
1047.79	1.92155
1049.43	1.60574
1051.08	1.44457
1052.73	2.06715
1054.37	1.79987
1056.02	2.64091
1057.66	1.98166
1059.31	1.14718
1060.95	1.44183
1062.6	2.47417
1064.24	0.916956
1065.88	1.27099
1067.53	0.883604
1069.17	0.798574
1070.81	0.0607014
1072.46	1.38527
1074.1	0.496469
1075.74	0.759991
1077.38	1.48146
1079.02	0.362141
1080.66	0.653994
1082.3	0.707277
1083.94	0.953899
1085.58	0.503439
1087.22	0.135746
1088.86	0.608706
1090.5	0.0604458
1092.14	1.26154
1093.78	0.5804
1095.42	0.914913
1097.05	0.711506
1098.69	0.575811
1100.33	1.13276
1101.97	0.595688
1103.6	0.621992
1105.24	0.24231
1106.87	1.06833
1108.51	1.31291
1110.15	0.738066
1111.78	-0.334057
1113.41	0.28849
1115.05	0.0490055
1116.68	0.45208
1118.31	0.490335
1119.95	0.187069
1121.58	0.721264
1123.21	1.08588
1124.85	0.853251
1126.48	0.622559
1128.11	0.136995
1129.74	0.829002
1131.37	0.0896397
1133	0.184721
1134.63	0.600153
1136.26	0.714918
1137.89	1.5539
1139.52	0.296488
1141.15	1.21558
1142.78	0.297493
1144.41	0.660192
1146.04	0.554966
1147.66	0.707537
1149.29	0.861826
1150.92	0.825386
1152.55	-0.0628529
1154.17	0.0918198
1155.8	0.09655
1157.43	0.483906
1159.05	0.871748
1160.68	0.00655174
1162.3	0.823631
1163.93	0.579678
1165.55	0.145458
1167.17	1.00768
1168.8	0.251764
1170.42	0.130205
1172.05	0.153339
1173.67	0.597292
1175.29	0.210451
1176.91	-0.00736046
1178.54	0.347433
1180.16	0.597273
1181.78	-0.08214
1183.4	-0.209646
1185.02	-0.442572
1186.64	0.526455
1188.26	0.22463
1189.88	-0.713236
1191.5	0.515438
1193.12	-0.196581
1194.74	0.456213
1196.36	0.352362
1197.97	-0.0424576
1199.59	1.07304
1201.21	0.436253
1202.83	0.891932
1204.44	0.225773
1206.06	1.1921
1207.68	0.992735
1209.29	0.522886
1210.91	1.61566
1212.52	0.848497
1214.14	0.556416
1215.75	0.468035
1217.37	-0.185812
1218.98	0.717951
1220.6	0.498455
1222.21	1.31775
1223.82	0.542784
1225.44	0.621187
1227.05	0.66135
1228.66	0.911318
1230.27	1.68072
1231.88	0.716009
1233.49	1.28368
1235.1	1.68865
1236.72	1.12489
1238.33	1.32813
1239.94	1.14007
1241.55	1.57286
1243.16	0.84659
1244.76	1.31849
1246.37	1.72617
1247.98	1.92465
1249.59	1.56271
1251.2	1.55181
1252.8	1.52068
1254.41	1.07743
1256.02	1.50526
1257.63	0.922224
1259.23	1.06572
1260.84	1.58385
1262.44	2.0206
1264.05	1.71201
1265.66	2.47988
1267.26	1.79555
1268.87	1.29537
1270.47	1.76728
1272.07	2.2161
1273.68	2.04053
1275.28	1.92492
1276.88	0.708969
1278.48	2.10201
1280.09	1.96029
1281.69	0.514069
1283.29	2.06903
1284.89	0.749434
1286.49	2.14081
1288.09	1.40498
1289.69	1.60137
1291.3	1.50959
1292.9	2.09947
1294.49	2.25371
1296.09	1.72343
1297.69	2.24272
1299.29	2.36561
1300.89	1.96941
1302.49	2.25075
1304.09	1.52089
1305.68	1.9832
1307.28	2.46391
1308.88	2.55304
1310.47	1.18693
1312.07	0.90946
1313.66	1.9431
1315.26	1.38316
1316.86	2.0513
1318.45	1.08757
1320.05	1.57244
1321.64	1.83048
1323.23	1.92173
1324.83	2.61861
1326.42	1.86909
1328.01	2.11358
1329.61	2.13583
1331.2	2.12119
1332.79	1.84892
1334.38	2.49082
1335.98	1.9653
1337.57	2.51062
1339.16	2.38867
1340.75	2.18243
1342.34	2.29358
1343.93	1.77669
1345.52	2.24213
1347.11	1.40323
1348.7	2.81331
1350.29	3.12583
1351.87	2.10397
1353.46	1.74776
1355.05	1.69465
1356.64	1.22282
1358.23	1.849
1359.81	1.93344
1361.4	1.39652
1362.99	1.17739
1364.57	1.07729
1366.16	1.75482
1367.74	1.35809
1369.33	1.95978
1370.91	1.66883
1372.5	0.724546
1374.08	2.62831
1375.67	1.70819
1377.25	1.60412
1378.83	1.22031
1380.42	1.1924
1382	1.7583
1383.58	1.36628
1385.16	2.16484
1386.75	2.06748
1388.33	0.997526
1389.91	1.16066
1391.49	1.70275
1393.07	2.3654
1394.65	1.38252
1396.23	1.74803
1397.81	1.5963
1399.39	1.52159
1400.97	1.5833
1402.55	2.27696
1404.13	1.52553
1405.7	1.36928
1407.28	1.33375
1408.86	1.75467
1410.44	1.05067
1412.01	1.65028
1413.59	1.55724
1415.17	1.79756
1416.74	1.22705
1418.32	2.19355
1419.89	1.24894
1421.47	1.48908
1423.05	2.24453
1424.62	2.55096
1426.19	2.11255
1427.77	2.42342
1429.34	1.69049
1430.92	1.40819
1432.49	2.2646
1434.06	2.25267
1435.63	2.75097
1437.2	2.38433
1438.78	2.49139
1440.35	3.15113
1441.92	2.61432
1443.49	2.98329
1445.06	3.21569
1446.63	2.42648
1448.2	3.15113
1449.77	2.91332
1451.34	3.06983
1452.91	2.3624
1454.48	2.93422
1456.05	2.83727
1457.62	3.13236
1459.18	2.18456
1460.75	2.76764
1462.32	2.20488
1463.89	2.87744
1465.45	2.07252
1467.02	2.81943
1468.59	3.37
1470.15	1.68507
1471.72	2.45635
1473.28	1.91576
1474.85	1.2008
1476.41	1.1537
1477.98	0.969656
1479.54	1.23636
1481.11	1.75755
1482.67	1.55332
1484.23	1.29006
1485.8	2.00556
1487.36	1.26958
1488.92	1.47068
1490.48	2.29325
1492.05	0.978165
1493.61	2.19934
1495.17	0.662508
1496.73	1.28958
1498.29	1.44732
1499.85	1.04233
1501.41	0.62146
1502.97	0.979988
1504.53	0.216232
1506.09	0.983738
1507.65	0.955463
1509.2	1.50427
1510.76	0.235203
1512.32	1.02912
1513.88	1.05021
1515.44	1.26377
1516.99	0.729509
1518.55	0.543556
1520.1	1.66203
1521.66	1.09472
1523.22	0.776356
1524.77	0.57132
1526.33	0.650393
1527.88	0.765026
1529.44	1.0301
1530.99	1.674
1532.55	2.2984
1534.1	1.14333
1535.65	0.958225
1537.21	0.794779
1538.76	1.19958
1540.31	1.49141
1541.86	0.822168
1543.42	1.6219
1544.97	0.633451
1546.52	0.961205
1548.07	1.83196
1549.62	0.976421
1551.17	1.47123
1552.72	1.1993
1554.27	1.37874
1555.82	1.28113
1557.37	1.16927
1558.92	0.857069
1560.47	0.568304
1562.02	1.64525
1563.57	1.96017
1565.11	1.97811
1566.66	1.84705
1568.21	1.06217
1569.75	1.15351
1571.3	1.6546
1572.85	2.69638
1574.39	0.993732
1575.94	1.6619
1577.49	1.6959
1579.03	1.80559
1580.58	1.59943
1582.12	2.2916
1583.67	0.987312
1585.21	1.14169
1586.75	1.78351
1588.3	2.16441
1589.84	1.14175
1591.38	1.37143
1592.93	1.84357
1594.47	1.24766
1596.01	1.62576
1597.55	2.67985
1599.09	2.34894
1600.63	2.37595
1602.18	2.23529
1603.72	1.64381
1605.26	1.53863
1606.8	2.4825
1608.34	1.80551
1609.87	2.55118
1611.41	1.91912
1612.95	1.18872
1614.49	2.20137
1616.03	2.19879
1617.57	1.24137
1619.11	1.56178
1620.64	1.56723
1622.18	1.63226
1623.72	2.31715
1625.25	0.886766
1626.79	1.40145
1628.32	1.50113
1629.86	1.7843
1631.4	1.72815
1632.93	1.82044
1634.47	0.84931
1636	1.80291
1637.53	1.82542
1639.07	1.75629
1640.6	1.78053
1642.14	1.76601
1643.67	1.86052
1645.2	2.00777
1646.73	2.07812
1648.27	1.72015
1649.8	1.8464
1651.33	2.25326
1652.86	2.14344
1654.39	1.70284
1655.92	2.50599
1657.45	1.75213
1658.98	1.29325
1660.51	1.44256
1662.04	2.10615
1663.57	1.95251
1665.1	2.35173
1666.63	1.97606
1668.16	2.67328
1669.69	1.14313
1671.21	2.4003
1672.74	1.13592
1674.27	1.43871
1675.79	2.23792
1677.32	2.18805
1678.85	1.82275
1680.37	1.45512
1681.9	1.17788
1683.42	2.00189
1684.95	1.9625
1686.47	0.530298
1688	2.16174
1689.52	1.72241
1691.05	1.04615
1692.57	0.846611
1694.1	1.2873
1695.62	0.813023
1697.14	0.466539
1698.66	-0.263891
1700.19	-0.884998
1701.71	-0.375771
1703.23	0.495819
1704.75	0.0900135
1706.27	-0.116165
1707.79	0.113619
1709.32	0.578873
1710.83	0.317635
1712.35	0.129807
1713.88	0.449959
1715.39	1.04132
1716.91	0.944189
1718.43	-0.219404
1719.95	-0.13526
1721.47	0.255857
1722.99	0.539598
1724.5	0.104803
1726.02	0.628176
1727.54	-0.267506
1729.06	0.423466
1730.57	-0.0922356
1732.09	-0.17808
1733.61	0.246485
1735.12	0.185936
1736.64	0.524509
1738.15	0.331013
1739.67	0.356001
1741.18	0.550835
1742.7	-0.0880337
1744.21	-0.0628338
1745.72	-0.839214
1747.24	0.00799561
1748.75	0.380457
1750.26	0.566683
1751.78	0.4331
1753.29	0.0374889
1754.8	-0.124289
1756.31	0.0944519
1757.82	0.229475
1759.34	0.870155
1760.85	0.0999565
1762.36	0.354639
1763.87	0.23926
1765.38	0.0529366
1766.89	0.334927
1768.4	-0.412827
1769.91	-0.0450325
1771.41	-0.0119934
1772.92	0.045023
1774.43	-0.432142
1775.94	-0.0167465
1777.45	0.449493
1778.96	0.137037
1780.46	0.000640869
1781.97	-0.211773
1783.48	-0.611296
1784.98	-0.0836124
1786.49	-0.127541
1788	0.562689
1789.5	0.136707
1791.01	0.258169
1792.51	0.574118
1794.01	-0.127527
1795.52	-0.120049
1797.02	-0.0500011
1798.53	-0.201023
1800.03	0.129004
1801.54	-0.00525475
1803.04	-0.161381
1804.54	0.0572166
1806.04	-0.187475
1807.54	0.39506
1809.05	0.59881
1810.55	0.267492
1812.05	0.323305
1813.55	0.400614
1815.05	-0.231699
1816.55	0.228632
1818.05	0.201626
1819.55	0.407589
1821.05	-0.0993271
1822.55	0.424366
1824.05	-0.219372
1825.55	0.460283
1827.05	-0.00210762
1828.55	0.57519
1830.04	-0.16963
1831.54	0.331934
1833.04	0.0546532
1834.54	0.653067
1836.03	0.443247
1837.53	0.0825214
1839.03	0.0132542
1840.52	-0.290665
1842.02	0.244556
1843.51	-0.168442
1845.01	0.176155
1846.5	0.581778
1848	-0.0421085
1849.49	0.122332
1850.99	0.239832
1852.48	0.160765
1853.97	0.089674
1855.47	-0.29393
1856.96	0.273962
1858.45	0.148304
1859.94	0.544891
1861.44	0.292549
1862.93	-0.187059
1864.42	-0.198322
1865.91	-0.253996
1867.4	-0.215904
1868.89	0.379261
1870.38	-0.287861
1871.87	0.414042
1873.36	0.367514
1874.85	0.521904
1876.34	0.248171
1877.83	0.15041
1879.32	0.451601
1880.81	0.196102
1882.3	0.0250397
1882.56	0.00217438
1884.06	-0.0263081
1885.55	0.0128326
1887.04	0.728882
1888.54	-0.019371
1890.03	0.556021
1891.52	-0.153284
1893.02	0.654869
1894.51	0.650713
1896	-0.322903
1897.49	0.201048
1898.99	-0.301432
1900.48	0.567581
1901.97	-0.290001
1903.46	0.482752
1904.95	0.712162
1906.44	-0.0510902
1907.93	0.558266
1909.42	0.35297
1910.91	-0.179243
1912.4	-0.413816
1913.89	-0.0571041
1915.38	-0.272514
1916.86	-0.00329399
1918.35	-0.220924
1919.84	0.132162
1921.33	0.24235
1922.82	0.128536
1924.3	-0.24247
1925.79	1.43244
1927.28	-0.317448
1928.76	0.184963
1930.25	0.0293465
1931.74	0.0620041
1933.22	0.298519
1934.71	0.0107994
1936.19	-0.436892
1937.67	0.0637474
1939.16	-0.163141
1940.64	0.405392
1942.13	0.11277
1943.61	0.202824
1945.09	0.243441
1946.58	1.06079
1948.06	-0.104851
1949.54	-0.0313663
1951.03	1.14126
1952.51	0.107533
1953.99	0.208466
1955.47	-0.326694
1956.95	-0.310553
1958.43	0.514076
1959.91	0.139109
1961.39	-0.234024
1962.87	0.919157
1964.35	-0.413383
1965.83	-0.256248
1967.31	0.412323
1968.79	-0.341335
1970.27	0.562414
1971.75	-0.226772
1973.22	0.128582
1974.7	0.330212
1976.18	0.463894
1977.66	-0.40699
1979.13	0.238409
1980.61	0.406612
1982.09	0.302139
1983.56	-0.346518
1985.04	-0.180449
1986.52	0.289986
1987.99	0.4377
1989.47	0.653812
1990.94	0.0592766
1992.41	0.195349
1993.89	1.04407
1995.36	0.153849
1996.84	0.12702
1998.31	0.0494175
1999.78	0.544666
2001.26	0.548481
2002.73	0.601511
2004.2	-0.0201626
2005.67	4.3869e-005
2007.15	0.426529
2008.62	0.165009
2010.09	-0.144482
2011.56	-0.502947
2013.03	0.586296
2014.5	0.883085
2015.97	0.723326
2017.44	-0.262976
2018.91	0.548004
2020.38	-0.138638
2021.85	0.350574
2023.32	0.269579
2024.79	0.341879
2026.25	0.987778
2027.72	-0.0060997
2029.19	1.00017
2030.66	0.83617
2032.13	0.658049
2033.59	0.934429
2035.06	0.068985
2036.53	-0.445301
2037.99	0.517382
2039.46	0.622297
2040.92	-0.147007
2042.39	0.631361
2043.85	0.705894
2045.32	0.345539
2046.78	0.84561
2048.25	0.0836773
2049.71	0.0447464
2051.18	0.491932
2052.64	0.0749741
2054.1	0.479319
2055.56	-0.419628
2057.03	1.10562
2058.49	0.150553
2059.95	1.2171
2061.42	0.145689
2062.88	0.0703793
2064.34	-0.10309
2065.8	0.887403
2067.26	0.820017
2068.72	-0.407047
2070.18	0.689447
2071.64	0.456394
2073.1	0.677521
2074.56	0.342274
2076.02	-0.111811
2077.48	-0.0111809
2078.94	-0.046339
2080.39	0.506613
2081.85	1.15891
2083.31	-0.00881577
2084.77	0.151424
2086.22	0.511406
2087.68	-0.0889874
2089.14	0.637686
2090.6	1.19512
2092.05	0.610168
2093.51	0.512188
2094.96	-0.206894
2096.42	0.196402
2097.87	0.346159
2099.33	-0.208897
2100.78	0.172533
2102.24	0.403633
2103.69	-0.0813026
2105.15	0.772997
2106.6	0.629398
2108.05	1.35609
2109.51	0.432552
2110.96	0.208109
2112.41	-0.286373
2113.86	0.813725
2115.32	0.360434
2116.77	0.321104
2118.22	0.64819
2119.67	0.696335
2121.12	-0.262186
2122.57	0.493427
2124.02	0.423559
2125.47	0.670486
2126.92	0.452383
2128.37	0.31448
2129.82	1.24998
2131.27	0.0777054
2132.72	0.394302
2134.17	0.909012
2135.62	0.400269
2137.06	0.920729
2138.51	0.388378
2139.96	0.819752
2141.41	-0.0171585
2142.85	0.0415363
2144.3	0.664463
2145.75	0.709007
2147.19	1.0508
2148.64	1.32486
2150.09	0.983706
2151.53	0.540304
2152.97	0.591269
2154.42	1.31936
2155.86	0.637939
2157.31	0.354464
2158.75	0.205471
2160.2	1.51785
2161.64	0.565315
2163.08	1.90494
2164.53	0.363628
2165.97	0.847898
2167.41	1.28274
2168.86	1.11677
2170.3	0.862612
2171.74	1.66733
2173.18	1.11939
2174.62	0.767426
2176.06	0.962881
2177.5	2.10659
2178.94	1.92212
2180.38	1.12526
2181.82	0.397207
2183.26	0.501995
2184.7	0.890326
2186.14	0.713385
2187.58	1.31848
2189.02	0.975313
2190.46	0.365635
2191.89	1.30333
2193.33	1.35677
2194.77	0.757223
2196.21	1.18495
2197.64	1.44056
2199.08	1.37523
2200.52	1.10781
2201.95	0.873613
2203.39	1.05635
2204.83	1.07606
2206.26	0.982565
2207.7	1.12252
2209.13	0.84782
2210.57	0.703642
2212	0.705742
2213.43	0.408318
2214.87	1.18458
2216.3	0.707031
2217.73	1.02507
2219.17	0.373281
2220.6	1.37283
2222.03	0.394394
2223.47	1.39162
2224.9	0.852652
2226.33	0.227333
2227.76	0.124586
2229.19	0.609802
2230.62	0.747353
2232.05	0.195818
2233.49	0.464682
2234.91	1.30735
2236.34	0.387436
2237.77	0.811979
2239.2	0.45812
2240.63	0.338428
2242.06	0.810873
2243.49	0.60169
2244.92	0.474983
2246.35	0.558458
2247.78	0.34395
2249.2	1.13431
2250.63	0.923796
2252.06	-0.00750732
2253.48	0.3778
2254.91	0.422102
2256.34	0.454128
2257.76	0.541391
2259.19	-0.142181
2260.61	-0.071434
2262.04	1.48307
2263.46	0.574944
2264.89	0.170321
2266.31	0.0731354
2267.74	0.233961
2269.16	0.441202
2270.59	0.320812
2272.01	0.264105
2273.43	0.565214
2274.85	0.801535
2276.28	0.56604
2277.7	0.265732
2279.12	0.0469551
2280.54	1.18137
2281.97	0.684906
2283.39	0.710049
2284.81	0.21312
2286.23	0.842855
2287.65	0.298382
2289.07	1.14315
2290.49	-0.0201397
2291.91	0.17322
2293.33	0.416124
2294.75	0.790077
2296.17	-0.309069
2297.59	0.801424
2299.01	-0.0692863
2300.42	-0.0223885
2301.84	0.172916
2303.26	0.598898
2304.68	-0.106867
2306.1	-0.00881386
2307.51	0.531998
2308.93	0.348476
2310.35	-0.659027
2311.76	0.0917969
2313.18	0.135487
2314.59	-0.0171661
2316.01	-0.0196934
2317.43	0.441242
2318.84	0.54125
2320.26	0.376764
2321.67	0.605003
2323.08	0.448427
2324.5	-0.0282879
2325.91	0.429356
2327.33	0.337791
2328.74	0.689228
2330.15	0.447886
2331.56	-0.218733
2332.98	0.237377
2334.39	-0.160007
2335.8	-0.0301514
2337.21	1.06867
2338.62	0.174715
2340.04	0.72431
2341.45	1.12279
2342.86	0.436241
2344.27	-0.0526848
2345.68	0.820076
2347.09	-0.141855
2348.5	-0.136793
2349.91	0.439705
2351.31	-0.80121
2352.72	-0.0340004
2354.13	0.614973
2355.54	-0.108452
2356.95	-0.277687
2358.36	0.46418
2359.76	0.40868
2361.17	-0.506601
2362.58	0.0715408
2363.98	-0.242569
2365.39	-0.167923
2366.8	-0.125217
2368.21	0.306564
2369.61	0.385626
2371.02	-0.289299
2372.42	-0.411936
2373.83	0.192923
2375.23	0.315414
2376.64	0.0827446
2378.04	-0.45825
2379.44	0.619995
2380.85	-0.507509
2382.25	0.0470448
2383.66	0.069294
2385.06	0.0268726
2386.46	0.193426
2387.86	0.362133
2389.26	-0.11978
2390.67	0.135462
2392.07	0.250343
2393.47	-0.0775776
2394.87	0.344614
2396.27	0.609486
2397.67	0.574017
2399.07	-0.683228
2400.47	-0.318205
2401.87	-0.349543
2403.27	-0.158422
2404.67	-0.222471
2406.07	-0.57464
2407.47	0.435467
2408.87	0.919079
2410.27	0.0380955
2411.67	0.378567
2413.07	0.00844383
2414.46	0.307106
2415.86	0.0716019
2417.26	0.108969
2418.66	-0.389479
2420.05	0.3957
2421.45	0.277933
2422.84	0.491814
2424.24	0.340549
2425.64	-0.190865
2427.03	0.578659
2428.43	0.923002
2429.82	0.810392
2431.22	0.239546
2432.61	0.192408
2434.01	1.16016
2435.4	-0.225897
2436.79	0.115175
2438.19	0.197781
2439.58	0.642075
2440.97	0.448349
2442.37	0.824692
2443.76	1.13646
2445.15	0.559221
2446.54	0.425951
2447.93	0.43504
2449.33	0.333199
2450.72	-0.0212173
2452.11	-0.263046
2453.5	0.858234
2454.89	0.399477
2456.28	0.401564
2457.67	0.278
2459.06	0.660114
2460.45	-0.2563
2461.84	-0.241795
2463.23	-0.498192
2464.62	-0.21883
2466	0.0594807
2467.39	0.574062
2468.78	0.330685
2470.17	0.291965
2471.55	-0.126322
2472.94	0.115545
2474.33	0.260485
2475.72	0.544939
2477.1	0.10491
2478.49	0.152294
2479.87	-0.302052
2481.26	0.452099
2482.65	-0.0328407
2484.03	-0.126984
2485.42	0.0267792
2486.8	-0.104185
2488.19	0.105349
2489.57	-0.435736
2490.95	0.0980682
2492.34	0.165695
2493.72	0.158594
2495.1	-0.341066
2496.49	-0.0303783
2497.87	0.344179
2499.25	-0.00851822
2500.63	-0.469959
2502.02	0.458006
2503.4	1.02643
2504.78	-0.491175
2506.16	0.858524
2507.54	0.527006
2508.92	0.673176
2510.3	0.574574
2511.68	0.370636
2513.06	0.30731
2514.44	-0.381428
2515.82	0.525059
2517.2	-0.158216
2518.58	-0.0136337
2519.96	0.666096
2521.34	0.0767097
2522.72	0.0508747
2524.1	0.373484
2525.47	0.830719
2526.85	-0.0383034
2528.23	0.221188
2529.6	0.605137
2530.98	0.187717
2532.36	0.140087
2533.74	-0.405037
2535.11	0.707867
2536.49	0.194994
2537.86	0.941086
2539.24	0.0287189
2540.61	0.101374
2541.99	0.00603104
2543.36	0.0633106
2544.74	0.0168133
2546.11	0.14068
2547.49	0.207359
2548.86	-0.512463
2550.23	0.269854
2551.61	0.428797
2552.98	0.934196
2554.35	-0.414783
2555.72	-0.0665855
2557.09	-0.0385971
2558.47	0.292295
2559.84	0.0174236
2561.21	0.532337
2562.58	0.35183
2563.95	0.460953
2565.32	-0.065155
2566.69	-0.196571
2568.06	0.64221
2569.43	-0.0496559
2570.8	-0.302029
2572.17	0.688625
2573.54	0.0122013
2574.91	0.00299263
2576.28	0.2971
2577.65	0.060358
2579.02	0.945023
2580.39	0.206263
2581.75	0.527748
2583.12	-0.531548
2584.49	-0.45429
2585.85	0.380726
2587.22	0.442942
2588.59	0.672413
2589.95	0.644548
2591.32	0.586014
2592.68	0.147345
2594.05	0.479095
2595.42	0.565435
2596.78	0.346016
2598.15	0.20022
2599.51	0.219858
2600.88	0.118919
2602.24	0.185671
2603.6	0.601475
2604.97	0.505503
2606.33	0.485573
2607.69	0.178217
2609.06	0.00434303
2610.42	0.309225
2611.78	-0.383385
2613.14	0.200031
2614.51	0.029089
2615.87	0.0678902
2617.23	0.0923138
2618.59	0.103432
2619.95	-0.526648
2621.31	0.162098
2622.67	0.149086
2624.03	0.181532
2625.39	0.0645523
2626.75	-0.0977058
2628.11	0.394966
2629.47	0.677599
2630.83	-0.394661
2632.19	0.362965
2633.55	1.03012
2634.91	0.716576
2636.26	0.314486
2637.62	0.135283
2638.98	0.208237
2640.34	0.533049
2641.69	0.51811
2643.05	0.0756054
2644.41	0.564222
2645.76	0.432358
2647.12	0.284771
2648.48	-0.114962
2649.83	-0.766439
2651.19	-0.0219669
2652.54	0.749521
2653.9	0.317137
2655.25	0.943085
2656.6	0.707129
2657.96	0.182159
2659.31	0.362526
2660.67	0.192953
2662.02	-0.356848
2663.37	0.377577
2664.73	0.247602
2666.08	0.771992
2667.43	0.215796
2668.78	-0.427097
2670.14	0.0521641
2671.49	0.241453
2672.84	0.0545235
2674.19	0.392384
2675.54	0.107431
2676.89	0.0855408
2678.24	0.471647
2679.59	0.105986
2680.94	0.395863
2682.29	-0.0357475
2683.64	0.405981
2684.99	-0.150183
2686.34	-0.00892448
2687.69	0.233505
2689.04	0.690458
2690.39	0.0393047
2691.74	-0.0362587
2693.08	0.652889
2694.43	-0.0823803
2695.78	0.0377388
2697.13	0.52166
2698.47	-0.178482
2699.82	-0.0337944
2701.17	-0.362074
2702.51	-0.034483
2703.86	0.557106
2705.21	-0.154085
2706.55	0.0189724
2707.9	0.191462
2709.24	-0.188673
2710.58	0.548054
2711.93	0.0352364
2713.27	0.219213
2714.62	0.461277
2715.96	-0.110933
2717.3	0.101522
2718.65	-0.0648537
2719.99	-0.145027
2721.33	0.355654
2722.68	0.927868
2724.02	0.712801
2725.36	0.54015
2726.71	0.482872
2728.05	0.977751
2729.39	-0.0270195
2730.73	0.204844
2732.07	0.611151
2733.41	0.421217
2734.75	0.842752
2736.09	0.406691
2737.43	0.378304
2738.77	0.11717
2740.11	0.218925
2741.45	0.275692
2742.79	0.316074
2744.13	-0.139639
2745.47	0.362022
2746.81	0.978281
2748.14	0.141987
2749.48	0.757433
2750.82	0.343267
2752.16	0.568041
2753.49	-0.177656
2754.83	-0.0675678
2756.17	0.318029
2757.5	0.00887108
2758.84	-0.342793
2760.18	0.754091
2761.51	0.564117
2762.85	0.24535
2764.18	0.0143356
2765.52	0.665871
2766.85	0.505825
2768.19	-0.481279
2769.52	0.00340843
2770.86	0.107847
2772.19	0.193851
2773.52	0.103687
2774.86	-0.65098
2776.19	0.194386
2777.52	-0.500538
2778.86	0.489695
2780.19	0.574657
2781.52	0.200916
2782.85	-0.0859718
2784.19	1.16188
2785.52	0.716894
2786.85	-0.0420208
2788.18	0.275009
2789.51	0.679811
2790.84	0.614931
2792.17	0.495163
2793.5	-0.39514
2794.83	-0.227358
2796.16	0.382343
2797.49	-0.138271
2798.82	0.296537
2800.15	0.0875607
2801.48	0.3773
2802.81	0.238474
2804.13	0.270041
2805.46	-0.0842228
2806.79	0.0156708
2808.12	0.0141087
2809.45	0.707758
2810.77	0.548429
2812.1	0.504658
2813.43	-0.287432
2814.75	0.201271
2816.08	0.282743
2817.41	0.112253
2818.73	-0.325876
2820.06	-0.608088
2821.38	-0.0978336
2822.71	-0.227236
2824.03	0.392586
2825.36	0.132982
2826.68	0.638336
2828	0.408756
2829.33	-0.0881023
2830.65	1.03021
2831.98	1.21477
2833.3	0.252602
2834.62	0.195488
2835.94	0.674795
2837.27	0.812855
2838.59	0.638435
2839.91	0.70396
2841.23	0.925293
2842.55	1.55763
2843.87	1.47082
2845.2	1.7535
2846.52	1.62808
2847.84	2.08311
2849.16	2.66544
2850.48	2.2293
2851.8	1.97554
2853.12	1.89001
2854.44	2.84914
2855.76	2.79025
2857.08	2.70309
2858.39	2.84212
2859.71	3.7719
2861.03	3.62779
2862.35	3.65224
2863.67	3.35103
2864.98	4.05109
2866.3	4.24291
2867.62	4.94306
2868.94	4.38926
2870.25	4.95054
2871.57	5.20197
2872.88	4.57876
2874.2	5.79955
2875.52	5.08699
2876.83	5.27306
2878.15	5.02052
2879.46	4.95035
2880.78	5.34497
2882.09	5.86793
2883.41	5.29792
2884.72	5.65758
2886.03	4.85356
2887.35	4.82196
2888.66	5.32238
2889.97	5.20321
2891.29	4.91362
2892.6	5.68782
2893.91	5.53634
2895.22	6.08614
2896.54	6.06384
2897.85	5.68061
2899.16	5.87391
2900.47	6.29311
2901.78	5.41255
2903.09	6.78467
2904.4	6.35269
2905.71	6.87261
2907.02	6.94645
2908.33	6.71472
2909.64	6.9189
2910.95	6.25696
2912.26	7.61033
2913.57	7.59019
2914.88	7.59433
2916.19	8.33591
2917.5	8.09338
2918.81	8.12825
2920.11	8.33056
2921.42	8.22694
2922.73	9.44065
2924.04	9.53951
2925.34	9.4457
2926.65	8.79432
2927.96	9.58288
2929.26	8.98645
2930.57	9.2833
2931.87	9.73268
2933.18	10.4329
2934.49	9.3999
2935.79	9.08011
2937.1	9.36171
2938.4	9.86734
2939.7	8.86453
2941.01	9.52592
2942.31	8.70833
2943.62	8.11731
2944.92	8.06075
2946.22	7.36378
2947.53	7.04554
2948.83	6.81038
2950.13	6.44618
2951.43	6.79156
2952.74	6.78214
2954.04	6.95121
2955.34	6.4474
2956.64	5.96
2957.94	5.96767
2959.24	6.15016
2960.54	6.18572
2961.84	5.42742
2963.15	5.66596
2964.45	5.46814
2965.75	5.09788
2967.05	5.28531
2968.34	4.94936
2969.64	5.10349
2970.94	4.32911
2972.24	4.21631
2973.54	4.27317
2974.84	5.42798
2976.14	4.66681
2977.43	3.49371
2978.73	4.49866
2980.03	3.06354
2981.33	3.65222
2982.62	3.77486
2983.92	2.9985
2985.22	3.08285
2986.51	3.17105
2987.81	2.99605
2989.11	2.13502
2990.4	2.32856
2991.7	2.7738
2992.99	1.45952
2994.29	1.42096
2995.58	1.67444
2996.88	1.7854
2998.17	1.79746
2999.46	2.06261
3000.76	0.926834
3002.05	1.13897
3003.34	0.637411
3004.64	0.724722
3005.93	1.21733
3007.22	0.993961
3008.52	0.936365
3009.81	1.08611
3011.1	1.16367
3012.39	0.444128
3013.68	0.158131
3014.97	-0.0427074
3016.27	0.0371819
3017.56	0.453077
3018.85	0.215874
3020.14	0.437994
3021.43	0.89484
3022.72	0.695862
3024.01	0.424995
3025.3	-0.110933
3026.59	0.0460396
3027.88	-0.681555
3029.16	0.433872
3030.45	-0.0370693
3031.74	0.256077
3033.03	0.427605
3034.32	0.66881
3035.6	-0.554024
3036.89	-0.703867
3038.18	-0.00426102
3039.47	0.124565
3040.75	-0.356026
3042.04	0.246344
3043.33	0.435728
3044.61	-0.0710735
3045.9	-0.120901
3047.18	0.532047
3048.47	-0.393007
3049.75	-0.0422001
3051.04	-0.0966301
3052.32	-0.135189
3053.61	0.863174
3054.89	0.126822
3056.18	0.287971
3057.46	0.718515
3058.74	0.342503
3060.03	0.30654
3061.31	0.0403004
3062.59	0.293827
3063.88	0.428635
3065.16	0.363739
3066.44	0.0172386
3067.72	0.380407
3069	0.309553
3070.29	0.591492
3071.57	-0.040329
3072.85	0.0180435
3074.13	-0.294165
3075.41	-0.309795
3076.69	0.0403194
3077.97	0.174007
3079.25	-0.327106
3080.53	0.546234
3081.81	0.270767
3083.09	-0.150492
3084.37	0.040575
3085.65	0.652563
3086.93	0.163885
3088.21	-0.164043
3089.49	0.537533
3090.76	0.341946
3092.04	-0.0575333
3093.32	-0.266579
3094.6	-0.162865
3095.87	0.280468
3097.15	-0.25222
3098.43	-0.0259666
3099.7	0.17263
3100.98	0.492706
3102.26	0.433538
3103.53	0.320982
3104.81	0.534727
3106.08	0.276785
3107.36	0.102648
3108.63	0.147911
3109.91	0.101395
3111.18	0.612711
3112.46	0.584688
3113.73	0.368052
3115	0.151054
3116.28	1.13942
3117.55	1.01344
3118.83	0.23311
3120.1	0.439627
3121.37	0.697556
3122.64	0.858631
3123.92	0.856367
3125.19	0.786863
3126.46	0.0284081
3127.73	0.38142
3129	0.654444
3130.27	0.874098
3131.55	0.796499
3132.82	1.01568
3134.09	1.32804
3135.36	0.167002
3136.63	0.665005
3137.9	1.29556
3139.17	0.711624
3140.44	0.854811
3141.71	1.33404
3142.98	0.684586
3144.24	1.68872
3145.51	1.41863
3146.78	1.78084
3148.05	1.80948
3149.32	1.22386
