200.388	0.335393
202.204	0.357787
204.019	0.380536
205.832	-0.0333853
207.646	0.81761
209.459	-0.0823431
211.274	-0.302541
213.087	0.228493
214.899	-0.0671511
216.711	0.218641
218.524	0.697817
220.335	0.450903
222.146	-0.205851
223.956	-0.135576
225.766	0.201124
227.576	-0.380317
229.388	0.197391
231.197	-0.263911
233.005	0.239803
234.813	0.237038
236.621	0.765982
238.429	-0.365915
240.236	0.626157
242.045	0.681005
243.852	-0.155044
245.658	0.0459213
247.464	0.800655
249.269	1.35944
251.074	0.996902
252.879	0.896638
254.683	0.601296
256.487	0.570894
258.291	0.830615
260.094	1.01982
261.897	0.946319
263.702	0.682175
265.504	0.250586
267.306	0.735081
269.108	0.182907
270.909	1.29315
272.71	0.545699
274.511	0.0376816
276.311	0.226989
278.111	0.655066
279.91	0.622785
281.709	0.828806
283.508	0.166485
285.306	0.200426
287.105	0.377374
288.9	-0.117472
290.698	0.419514
292.495	0.286855
294.291	-0.226539
296.088	0.648999
297.884	0.44961
299.679	0.107629
301.475	0.0284271
303.27	0.545254
305.064	0.248809
306.858	-0.167698
308.652	0.226451
310.444	0.00127029
312.237	0.253957
314.03	-0.20599
315.822	0.121993
317.615	0.428263
319.406	0.522093
321.198	0.617397
322.987	0.427561
324.778	0.858469
326.568	0.597655
328.358	0.360152
330.148	0.384577
331.935	0.0488977
333.724	0.548459
335.513	0.351833
337.301	-0.0388908
339.089	0.429353
340.875	0.369332
342.662	0.810369
344.449	0.247378
346.236	0.354161
348.02	0.246764
349.806	-0.170311
351.592	-0.205264
353.375	0.689816
355.16	0.366614
356.944	0.566703
358.728	0.145432
360.51	0.00910854
362.294	0.205079
364.077	0.233419
365.858	-0.33306
367.64	0.239918
369.422	0.455121
371.202	1.04785
372.983	0.857632
374.764	1.0455
376.543	0.760879
378.324	0.241684
380.102	0.59622
381.881	0.78673
383.661	0.319897
385.438	0.936543
387.216	0.637658
388.993	1.84377
390.771	1.38307
392.548	0.38342
394.324	0.629262
396.101	1.11044
397.875	0.816765
399.651	0.405453
401.425	1.12104
403.201	0.473608
404.974	1.02315
406.749	0.0218401
408.524	0.170595
410.296	0.225001
412.07	1.03041
413.841	0.733189
415.614	0.436886
417.385	0.821989
419.156	0.410071
420.928	1.12498
422.698	0.736547
424.469	0.746347
426.238	0.332489
428.009	0.434151
429.777	0.0188141
431.548	0.636222
433.315	0.291652
435.083	-0.381072
436.852	0.448268
438.618	0.291125
440.387	-0.0318346
442.153	0.0888271
443.919	0.206951
445.686	-0.145731
447.451	0.671054
449.218	0.316586
450.982	0.126389
452.746	-0.226523
454.512	0.261127
456.275	-0.160979
458.038	-0.000350952
459.803	0.346251
461.565	-0.283593
463.327	0.111643
465.091	-0.327247
466.852	0.305932
468.613	-0.0337582
470.374	-0.0924873
472.136	-0.0341568
473.896	0.139887
475.655	-0.0139265
477.415	-0.123661
479.176	-0.142316
480.934	0.373592
482.692	0.167529
484.45	0.0093441
486.21	0.3425
487.967	1.16784
489.724	0.503993
491.481	0.517344
493.237	0.0642548
494.995	0.592822
496.75	0.888205
498.506	0.785515
500.26	0.330359
502.015	0.366567
503.769	0.801123
505.525	0.717907
507.279	0.585943
509.032	0.522657
510.785	0.410421
512.537	0.437526
514.289	0.486433
516.041	0.74547
517.793	1.30867
519.546	0.412746
521.297	0.856037
523.047	0.45288
524.797	0.519329
526.547	0.46839
528.297	0.581676
530.046	0.179176
531.795	0.128007
533.543	0.637809
535.291	0.537431
537.039	0.131795
538.787	0.869343
540.534	0.297943
542.281	0.0530357
544.027	0.599284
545.773	0.0985069
547.519	0.620342
549.264	0.376235
551.01	-0.00599003
552.754	0.029213
554.499	0.57292
556.243	0.146316
557.987	0.920173
559.73	0.633352
561.474	-0.0896692
563.216	-0.304811
564.959	0.400437
566.701	-0.548424
568.441	0.0658636
570.182	0.336497
571.923	-0.332105
573.664	0.584136
575.405	-0.0804844
577.145	-0.0780039
578.885	0.17849
580.624	0.8036
582.361	-0.0411358
584.1	0.147291
585.839	-0.516169
587.577	0.474927
589.315	-0.23751
591.052	-0.0767956
592.787	0.336411
594.524	0.749418
596.26	0.265202
597.997	-0.472098
599.732	-0.312488
601.466	0.0992794
603.201	-0.226415
604.936	0.136202
606.67	0.290231
608.403	-0.0620661
610.136	0.457993
611.87	-0.100113
613.603	0.0539684
615.334	0.117029
617.067	-0.186296
618.799	0.288762
620.529	-0.359414
622.26	0.158501
623.991	0.0803757
625.72	0.00232601
627.451	-0.0973434
629.181	0.0790558
630.909	0.280795
632.638	0.484871
634.368	0.462064
636.095	0.0965681
637.823	0.436833
639.551	0.271919
641.277	1.03896
643.005	0.206688
644.73	0.877133
646.457	-0.204985
648.184	-0.192275
649.908	-0.312582
651.634	-0.269726
653.357	0.504709
655.083	0.919909
656.806	0.79213
658.53	-0.0184889
660.253	0.12711
661.977	0.796584
663.7	0.687459
665.422	0.735448
667.145	0.369605
668.865	0.643084
670.588	0.36832
672.308	0.599019
674.027	0.626657
675.749	0.404725
677.468	-0.2062
679.188	1.15702
680.907	0.245944
682.627	0.688736
684.345	0.462115
686.064	0.209988
687.781	0.0941448
689.498	-0.0229301
691.216	0.273809
692.932	0.569869
694.65	0.381373
696.366	0.399106
698.081	1.10613
699.797	0.269428
701.512	0.812161
703.228	0.38783
704.942	1.15759
706.655	0.778098
708.371	0.51336
710.083	0.409023
711.796	0.739444
713.51	0.748689
715.222	0.094964
716.934	0.880795
718.645	1.48282
720.358	0.944384
722.068	0.725901
723.779	0.962922
725.49	0.585595
727.2	0.867326
728.909	0.921151
730.618	0.997036
732.329	1.00438
734.037	1.10198
735.745	0.589156
737.453	1.16162
739.16	0.605755
740.869	0.547818
742.576	1.45993
744.282	1.38189
745.988	0.923011
747.694	0.578537
749.401	1.04543
751.107	0.861434
752.811	0.858825
754.516	1.44268
756.22	1.44343
757.924	0.612903
759.627	0.90953
761.332	1.70383
763.035	1.50721
764.738	1.73903
766.44	1.42765
768.142	1.43032
769.843	1.22701
771.544	0.998696
773.245	1.85418
774.946	1.37491
776.646	1.03191
778.346	1.3008
780.046	1.79764
781.745	1.7305
783.444	1.88987
785.143	1.93492
786.841	1.88676
788.539	1.38235
790.237	1.80203
791.934	1.51732
793.631	1.81828
795.328	2.1634
797.024	1.85527
798.72	1.59458
800.416	1.8765
802.112	2.29481
803.807	1.52169
805.502	2.48004
807.196	1.81877
808.89	2.05512
810.584	2.08781
812.278	1.53631
813.971	1.70201
815.664	1.50893
817.354	1.67403
819.047	2.17414
820.739	1.40075
822.43	1.81162
824.122	2.24505
825.813	1.60993
827.503	1.84651
829.192	1.97473
830.882	2.28461
832.571	1.95192
834.261	1.93351
835.95	1.38101
837.637	1.29635
839.325	1.67927
841.013	1.27895
842.701	1.56948
844.389	1.54668
846.074	1.18928
847.761	1.57141
849.447	1.24069
851.131	1.60638
852.817	0.899102
854.503	1.85181
856.188	1.4138
857.871	1.6257
859.556	1.07105
861.24	0.986444
862.922	1.46314
864.606	1.5106
866.289	1.26395
867.97	1.17427
869.653	1.28702
871.336	1.80546
873.016	1.28604
874.698	1.14995
876.379	1.17179
878.058	1.14851
879.739	1.64429
881.418	0.740116
883.098	0.873556
884.778	0.960672
886.456	0.459445
888.135	1.06237
889.812	1.77581
891.49	0.368217
893.167	1.05555
894.845	1.24543
896.523	1.74848
898.198	0.879497
899.875	1.28994
901.55	0.847146
903.226	1.18799
904.901	1.25956
906.576	1.4651
908.25	0.979708
909.925	1.43171
911.598	1.21637
913.271	1.31341
914.945	1.14421
916.617	1.17506
918.291	1.6047
919.962	1.3251
921.635	1.37844
923.306	0.968749
924.978	0.738123
926.648	1.54749
928.318	1.29868
929.989	1.31623
931.659	1.13601
933.328	1.26501
934.998	1.76913
936.666	1.58991
938.336	1.3014
940.004	0.992173
941.671	1.19159
943.34	1.41401
945.007	0.952212
946.673	0.179997
948.339	1.17171
950.007	1.16793
951.672	0.897986
953.337	0.826685
955.004	0.602679
956.669	0.778535
958.333	1.44326
959.997	0.633006
961.662	1.06037
963.326	1.09042
964.989	0.7427
966.651	1.05552
968.315	0.967059
969.977	1.42929
971.639	0.762224
973.301	0.648707
974.962	0.802094
976.624	1.84212
978.285	1.4464
979.945	1.30576
981.605	1.16463
983.264	0.590281
984.924	0.478658
986.583	1.13947
988.243	1.02347
989.901	1.25995
991.56	0.721871
993.217	1.02352
994.875	1.74431
996.532	0.169954
998.188	1.00076
999.845	1.72015
1001.5	1.93168
1003.16	1.28412
1004.81	1.45075
1006.47	0.496224
1008.12	0.926652
1009.78	0.632645
1011.43	0.18599
1013.09	0.200628
1014.74	0.653742
1016.39	1.21622
1018.05	0.728416
1019.7	0.591872
1021.35	-0.0244427
1023	1.17497
1024.65	1.41339
1026.31	0.494291
1027.96	0.580524
1029.61	1.32145
1031.26	1.03419
1032.91	0.527018
1034.56	0.934899
1036.21	0.599397
1037.86	0.808087
1039.51	0.689784
1041.16	1.48591
1042.8	1.30423
1044.45	1.55928
1046.1	1.42544
1047.75	1.38074
1049.39	1.51172
1051.04	0.493021
1052.69	0.973894
1054.33	0.673133
1055.98	1.15469
1057.62	0.723098
1059.27	0.529977
1060.91	0.292621
1062.56	0.728485
1064.2	0.250096
1065.85	0.77072
1067.49	-0.144522
1069.13	0.656131
1070.77	0.912486
1072.42	0.104795
1074.06	0.209576
1075.7	-0.16186
1077.34	0.444149
1078.98	0.595954
1080.62	0.510077
1082.27	0.0555954
1083.91	0.424199
1085.55	0.57419
1087.18	0.310179
1088.82	0.130822
1090.46	0.512394
1092.1	0.524497
1093.74	0.64395
1095.38	-0.16442
1097.02	1.03427
1098.65	0.0569353
1100.29	-0.228374
1101.93	0.564475
1103.56	0.132509
1105.2	0.175343
1106.84	0.197302
1108.47	0.412517
1110.11	0.196501
1111.74	-0.278963
1113.38	-0.283085
1115.01	-0.159698
1116.64	0.0915728
1118.28	0.0638781
1119.91	0.679632
1121.54	0.653369
1123.18	0.0932283
1124.81	0.518771
1126.44	0.5172
1128.07	0.110177
1129.7	0.259965
1131.33	0.731018
1132.97	0.389981
1134.6	0.390882
1136.23	0.36974
1137.86	0.539786
1139.49	0.409363
1141.11	0.192522
1142.74	-0.131386
1144.37	0.312943
1146	0.245914
1147.63	0.0947056
1149.26	0.178875
1150.88	-0.418065
1152.51	0.433365
1154.14	-0.419164
1155.76	0.154334
1157.39	0.237958
1159.01	0.0453758
1160.64	0.619299
1162.27	0.173656
1163.89	0.196916
1165.51	-0.140716
1167.14	-0.223444
1168.76	0.436859
1170.39	-0.180153
1172.01	0.327218
1173.63	0.449929
1175.25	-0.235131
1176.88	0.203821
1178.5	-0.438059
1180.12	-0.27394
1181.74	-0.193758
1183.36	0.267591
1184.98	-0.116709
1186.6	0.279815
1188.22	0.0832453
1189.84	-0.0307646
1191.46	0.211355
1193.08	0.072751
1194.7	0.56348
1196.32	0.193179
1197.94	0.536747
1199.55	0.31664
1201.17	0.705461
1202.79	0.59549
1204.41	-0.0332317
1206.02	0.342278
1207.64	0.86514
1209.25	0.28267
1210.87	0.408649
1212.48	0.282559
1214.1	0.13337
1215.71	0.856503
1217.33	0.0161457
1218.94	0.77645
1220.56	0.476262
1222.17	0.322555
1223.79	0.108282
1225.4	0.558502
1227.01	0.637302
1228.62	1.00712
1230.23	1.254
1231.85	0.757957
1233.46	1.21416
1235.07	1.40302
1236.68	1.20056
1238.29	0.503064
1239.9	1.23281
1241.51	1.48742
1243.12	0.893568
1244.73	1.25046
1246.34	0.757855
1247.94	1.42289
1249.55	1.34208
1251.16	0.681646
1252.77	1.38679
1254.37	1.80301
1255.98	0.89669
1257.59	0.612168
1259.2	1.30134
1260.8	1.66073
1262.41	1.31689
1264.01	1.20071
1265.62	0.586661
1267.22	1.44315
1268.83	0.930642
1270.43	1.55721
1272.03	0.917833
1273.64	1.02373
1275.24	0.941926
1276.85	1.48079
1278.45	1.74905
1280.05	0.918929
1281.65	1.02052
1283.25	0.584236
1284.85	0.541768
1286.46	0.934388
1288.06	1.67929
1289.66	0.7924
1291.26	0.691509
1292.86	0.755857
1294.46	1.19125
1296.06	1.1707
1297.66	1.5406
1299.25	1.1861
1300.85	1.34577
1302.45	1.64796
1304.05	1.31049
1305.65	2.00082
1307.24	0.737997
1308.84	0.975164
1310.43	1.33477
1312.03	1.14124
1313.63	1.09208
1315.22	1.75928
1316.82	1.34431
1318.41	1.4203
1320.01	1.74071
1321.6	1.44849
1323.2	1.98942
1324.79	1.63277
1326.38	1.27532
1327.98	2.07373
1329.57	1.51402
1331.16	1.03831
1332.76	1.19237
1334.35	1.2679
1335.94	1.44608
1337.53	1.34239
1339.12	1.98392
1340.71	0.971036
1342.3	1.26553
1343.89	1.19536
1345.48	1.30476
1347.07	1.79487
1348.66	1.70491
1350.25	1.43782
1351.84	1.29403
1353.43	1.45265
1355.01	0.853153
1356.6	1.15363
1358.19	0.834215
1359.77	1.43256
1361.36	0.671915
1362.95	1.20775
1364.53	0.865344
1366.12	0.643112
1367.71	0.860061
1369.29	1.29708
1370.88	0.461737
1372.46	1.39914
1374.04	0.546886
1375.63	0.749972
1377.21	1.07259
1378.8	0.87732
1380.38	1.03911
1381.96	1.02036
1383.54	0.960383
1385.13	0.462021
1386.71	0.400675
1388.29	-0.0179291
1389.87	0.636367
1391.45	0.556936
1393.03	1.07354
1394.61	1.09452
1396.19	0.758368
1397.77	0.798278
1399.35	1.76837
1400.93	0.815317
1402.51	0.416819
1404.09	1.14636
1405.67	0.709025
1407.24	0.945038
1408.82	0.845918
1410.4	1.22151
1411.98	1.04393
1413.55	1.2014
1415.13	1.02229
1416.71	0.980421
1418.28	0.583345
1419.86	0.561291
1421.43	0.953857
1423.01	1.44627
1424.58	1.36959
1426.16	1.33375
1427.73	1.51506
1429.31	0.908775
1430.88	1.1085
1432.45	1.79884
1434.02	1.42536
1435.6	1.30722
1437.17	1.6612
1438.74	1.40647
1440.31	1.2119
1441.88	1.94212
1443.45	2.02459
1445.03	1.63584
1446.6	2.21036
1448.17	1.92022
1449.74	1.64999
1451.3	2.32401
1452.87	2.01558
1454.44	1.56977
1456.01	1.45822
1457.58	2.17245
1459.15	0.976355
1460.72	2.08086
1462.28	2.19907
1463.85	1.84322
1465.42	1.5257
1466.98	1.9349
1468.55	1.16601
1470.12	1.36044
1471.68	1.04591
1473.25	0.634683
1474.81	0.655875
1476.38	0.991228
1477.94	0.895317
1479.51	0.681739
1481.07	0.820892
1482.63	1.39104
1484.2	0.471724
1485.76	0.806126
1487.32	0.395322
1488.88	0.551155
1490.45	0.8027
1492.01	0.230338
1493.57	0.574697
1495.13	0.0578985
1496.69	0.905136
1498.25	0.387689
1499.81	0.824442
1501.37	0.562441
1502.93	0.612582
1504.49	0.431108
1506.05	0.463204
1507.61	0.842711
1509.17	0.524815
1510.73	0.765946
1512.28	0.677874
1513.84	0.493318
1515.4	0.463177
1516.96	0.932886
1518.51	0.32846
1520.07	0.990312
1521.63	0.694228
1523.18	0.838067
1524.74	1.30526
1526.29	0.53074
1527.85	0.918758
1529.4	0.639528
1530.96	0.398983
1532.51	0.463021
1534.06	0.792951
1535.62	0.820558
1537.17	0.339018
1538.72	0.878501
1540.28	1.07792
1541.83	0.165587
1543.38	1.06167
1544.93	0.959266
1546.48	0.969507
1548.03	0.641777
1549.59	0.502109
1551.14	1.24298
1552.69	1.10372
1554.24	0.573242
1555.79	1.12834
1557.34	1.05004
1558.88	0.918022
1560.43	0.489706
1561.98	0.473613
1563.53	1.18633
1565.08	1.24681
1566.62	0.784904
1568.17	1.14384
1569.72	1.07312
1571.27	0.460608
1572.81	0.72509
1574.36	0.840072
1575.9	1.17908
1577.45	1.08895
1579	0.737877
1580.54	0.872854
1582.09	0.915334
1583.63	0.884019
1585.17	1.33939
1586.72	1.38436
1588.26	1.07417
1589.8	1.00675
1591.35	1.44421
1592.89	0.832831
1594.43	1.4944
1595.97	1.83787
1597.52	1.24491
1599.06	1.32722
1600.6	0.697568
1602.14	0.968671
1603.68	1.3715
1605.22	1.09767
1606.76	1.70542
1608.3	1.37145
1609.84	1.33558
1611.38	1.18439
1612.92	1.53814
1614.46	1.8149
1615.99	0.927869
1617.53	0.942151
1619.07	1.44476
1620.61	1.42422
1622.14	0.862258
1623.68	1.18132
1625.22	1.25702
1626.75	1.46288
1628.29	1.36784
1629.82	1.10299
1631.36	1.39791
1632.9	1.29973
1634.43	1.08997
1635.96	1.31041
1637.5	1.53169
1639.03	1.36201
1640.57	1.24842
1642.1	2.12163
1643.63	1.91278
1645.16	0.790914
1646.7	1.25015
1648.23	1.76408
1649.76	1.99913
1651.29	2.16076
1652.82	2.064
1654.36	1.7091
1655.89	1.89271
1657.42	1.74265
1658.95	2.22155
1660.48	1.77289
1662.01	1.11958
1663.53	1.46413
1665.06	2.15837
1666.59	1.87371
1668.12	1.55381
1669.65	1.12538
1671.18	1.98877
1672.7	1.28718
1674.23	1.45204
1675.76	0.916984
1677.29	1.41205
1678.81	1.59276
1680.34	1.22049
1681.86	1.14177
1683.39	1.15455
1684.91	0.96551
1686.44	1.51064
1687.96	0.955912
1689.49	1.17162
1691.01	0.471906
1692.54	0.212186
1694.06	1.1599
1695.58	1.0278
1697.11	0.639749
1698.63	0.123914
1700.15	0.137502
1701.67	0.515274
1703.2	0.837217
1704.72	0.192884
1706.24	0.295091
1707.76	0.396807
1709.28	0.171275
1710.8	0.218436
1712.32	0.483276
1713.84	0.53044
1715.36	0.577591
1716.88	0.534141
1718.4	0.0207109
1719.91	0.537357
1721.43	0.457879
1722.95	0.0726309
1724.47	0.0493135
1725.99	0.207452
1727.5	-0.11914
1729.02	0.185363
1730.54	0.129148
1732.05	0.63914
1733.57	0.0176783
1735.09	0.508082
1736.6	0.490225
1738.12	0.464182
1739.63	0.526321
1741.15	0.362617
1742.66	-0.244117
1744.18	0.748545
1745.69	0.0968857
1747.2	-0.28181
1748.72	0.49023
1750.23	-0.233961
1751.74	-0.243776
1753.25	0.295506
1754.77	0.162617
1756.28	0.387182
1757.79	0.22336
1759.3	0.367174
1760.81	0.589916
1762.32	0.545599
1763.83	-0.0319023
1765.34	0.244912
1766.85	0.141191
1768.36	0.28089
1769.87	0.359585
1771.38	0.305921
1772.89	0.298165
1774.4	0.300304
1775.91	-0.121366
1777.41	0.617058
1778.92	0.365269
1780.43	0.255243
1781.94	0.217042
1783.44	-0.129024
1784.95	0.27116
1786.45	0.297205
1787.96	0.131015
1789.47	0.331057
1790.97	0.130547
1792.47	0.15946
1793.98	0.00648499
1795.48	0.00667858
1796.99	-0.0658216
1798.49	-0.0155659
1800	0.0526857
1801.5	0.198111
1803	-0.12188
1804.51	0.214696
1806.01	0.0261183
1807.51	0.2709
1809.01	0.311057
1810.51	-0.133478
1812.02	-0.0870647
1813.52	-0.0213976
1815.02	0.203194
1816.52	-0.170047
1818.02	-0.0661039
1819.52	-0.172705
1821.02	0.105581
1822.52	0.341702
1824.02	0.417627
1825.51	0.559755
1827.01	-0.0642653
1828.51	0.31861
1830.01	0.103536
1831.51	0.341168
1833	0.493852
1834.5	0.314967
1836	0.0547915
1837.49	0.10846
1838.99	0.130543
1840.49	0.276831
1841.98	0.191849
1843.48	0.170316
1844.97	0.0320234
1846.47	0.579726
1847.96	0.180199
1849.46	0.109485
1850.95	-0.072094
1852.45	0.176486
1853.94	0.220956
1855.43	0.411069
1856.92	0.0939016
1858.42	0.045682
1859.91	0.347951
1861.4	0.239252
1862.89	0.141628
1864.39	-0.0735331
1865.88	0.073369
1867.37	0.382955
1868.86	0.263668
1870.35	-0.130189
1871.84	-0.237883
1873.33	0.141067
1874.82	0.158789
1876.31	0.375167
1877.8	0.192531
1879.29	0.426978
1880.77	-0.279819
1882.26	0.160888
1882.52	0.289984
1884.02	0.375297
1885.51	-0.202397
1887.01	0.36916
1888.5	0.0518379
1889.99	0.343979
1891.49	0.11507
1892.98	0.374655
1894.47	0.479469
1895.96	0.0989552
1897.46	0.466953
1898.95	0.0522108
1900.44	0.245288
1901.93	0.1063
1903.42	0.209161
1904.91	0.588698
1906.4	0.306862
1907.89	0.23367
1909.38	0.456204
1910.87	-0.083972
1912.36	0.244353
1913.85	0.52105
1915.34	-0.0172653
1916.83	0.172468
1918.32	0.0322895
1919.8	-0.246837
1921.29	0.496058
1922.78	0.148003
1924.27	0.337637
1925.75	0.320589
1927.24	0.0275803
1928.73	0.202621
1930.21	0.221824
1931.7	0.136364
1933.18	0.136117
1934.67	0.515005
1936.15	0.0614824
1937.64	-0.461811
1939.12	0.241929
1940.61	-0.108276
1942.09	-0.112123
1943.57	-0.0114975
1945.06	-0.237781
1946.54	0.415615
1948.02	-0.137958
1949.51	0.0661564
1950.99	-0.299033
1952.47	-0.217265
1953.95	0.207778
1955.43	0.374412
1956.91	0.197761
1958.39	-0.235466
1959.87	0.361691
1961.36	0.0328999
1962.84	-0.261147
1964.32	0.438587
1965.79	-0.112896
1967.27	-0.168107
1968.75	0.426112
1970.23	-0.245883
1971.71	0.380932
1973.19	0.358209
1974.66	-0.261345
1976.14	0.227993
1977.62	0.10366
1979.1	-0.0374289
1980.57	0.348948
1982.05	-0.149273
1983.53	0.287163
1985	0.603826
1986.48	0.139587
1987.95	0.0149908
1989.43	0.144898
1990.9	0.376794
1992.38	0.660058
1993.85	0.0987806
1995.33	-0.140174
1996.8	-0.0575771
1998.27	0.00804901
1999.75	-0.180001
2001.22	0.00278759
2002.69	-0.405375
2004.16	0.0633526
2005.64	0.14439
2007.11	0.310287
2008.58	0.258082
2010.05	-0.0121222
2011.52	0.357923
2012.99	0.0378475
2014.46	0.155011
2015.93	0.490107
2017.4	-0.369977
2018.87	-0.171043
2020.34	-0.0736103
2021.81	-0.0939646
2023.28	-0.214707
2024.75	0.0177288
2026.22	0.385304
2027.69	0.267756
2029.15	0.168427
2030.62	-0.0806456
2032.09	0.191284
2033.56	0.0609541
2035.02	0.0816708
2036.49	0.723594
2037.95	-0.0965166
2039.42	-0.0938463
2040.89	0.261788
2042.35	-0.0546227
2043.82	-0.0173063
2045.28	0.306949
2046.75	-0.0411997
2048.21	-0.0525227
2049.67	0.036974
2051.14	0.648287
2052.6	0.668195
2054.06	0.214064
2055.53	0.213612
2056.99	0.127568
2058.45	-0.110825
2059.92	-0.23127
2061.38	0.238068
2062.84	-0.0327597
2064.3	0.505304
2065.76	0.556196
2067.22	0.20402
2068.68	0.0543346
2070.14	0.224747
2071.6	0.277414
2073.06	-0.107813
2074.52	-0.207094
2075.98	0.366913
2077.44	-0.036128
2078.9	0.335106
2080.36	0.234386
2081.82	-0.119378
2083.27	0.368007
2084.73	-0.0542574
2086.19	-0.224594
2087.65	0.142701
2089.1	0.0891228
2090.56	0.32096
2092.01	0.73716
2093.47	0.431314
2094.93	-0.260158
2096.38	-0.0797424
2097.84	0.0495901
2099.29	0.362253
2100.75	-0.178723
2102.2	0.250504
2103.66	0.629806
2105.11	0.542609
2106.56	0.406796
2108.02	0.15534
2109.47	0.42125
2110.92	0.286431
2112.37	-0.0661383
2113.83	-0.0868282
2115.28	0.77294
2116.73	-0.281429
2118.18	0.294103
2119.63	0.322249
2121.09	0.435124
2122.54	-0.0804644
2123.99	-0.0638762
2125.44	-0.14619
2126.89	0.268674
2128.34	0.268079
2129.79	0.531332
2131.23	-0.101226
2132.68	0.772455
2134.13	0.536725
2135.58	0.0209188
2137.03	0.283715
2138.48	-0.245168
2139.92	0.252321
2141.37	0.321649
2142.82	0.210219
2144.26	0.595599
2145.71	0.369078
2147.16	0.556023
2148.6	0.311887
2150.05	0.447849
2151.49	0.616078
2152.94	0.650848
2154.38	0.138083
2155.83	0.46989
2157.27	0.735439
2158.72	0.0905819
2160.16	-0.0395994
2161.6	0.0802603
2163.05	0.201843
2164.49	0.457647
2165.93	0.714591
2167.38	0.573084
2168.82	0.895914
2170.26	0.385779
2171.7	0.355829
2173.14	0.490466
2174.58	0.806787
2176.03	0.889627
2177.47	0.556947
2178.91	0.790331
2180.35	0.359603
2181.79	0.445075
2183.23	0.547736
2184.67	0.501002
2186.1	0.720502
2187.54	0.424296
2188.98	1.0267
2190.42	0.447492
2191.86	0.0176649
2193.3	0.153181
2194.73	0.703761
2196.17	0.503439
2197.61	0.351327
2199.05	0.563604
2200.48	0.492166
2201.92	0.0388422
2203.35	0.947186
2204.79	0.61187
2206.22	0.228162
2207.66	0.607338
2209.09	0.538926
2210.53	0.32089
2211.96	0.565324
2213.4	0.461612
2214.83	0.40748
2216.27	0.287951
2217.7	-0.358313
2219.13	0.101976
2220.56	0.0516558
2222	0.644247
2223.43	0.115479
2224.86	0.376318
2226.29	0.503598
2227.72	0.0865889
2229.16	0.309709
2230.59	0.219929
2232.02	0.113766
2233.45	-0.18833
2234.88	0.410218
2236.31	0.371581
2237.74	0.595703
2239.17	0.0544891
2240.6	0.412682
2242.03	0.25052
2243.45	-0.138815
2244.88	0.255082
2246.31	0.273243
2247.74	0.15947
2249.17	-0.0214176
2250.59	0.170577
2252.02	0.409496
2253.45	0.370733
2254.87	0.00738049
2256.3	-0.159244
2257.73	-0.0152693
2259.15	0.488097
2260.58	0.247862
2262	0.139631
2263.43	0.0814991
2264.85	0.397351
2266.28	-0.148558
2267.7	0.75212
2269.13	0.513464
2270.55	-0.230773
2271.97	0.343061
2273.4	0.118959
2274.82	-0.137735
2276.24	0.355144
2277.66	0.196521
2279.09	0.282414
2280.51	0.384613
2281.93	0.0463486
2283.35	-0.1127
2284.77	-0.124914
2286.19	0.0752583
2287.61	-0.0343475
2289.04	0.11772
2290.46	-0.121896
2291.88	-0.165288
2293.29	-0.0123539
2294.71	0.0588903
2296.13	0.326546
2297.55	0.00485611
2298.97	-0.169614
2300.39	0.934347
2301.81	-0.239671
2303.23	0.455696
2304.64	0.478937
2306.06	-0.35188
2307.48	-0.0172138
2308.89	0.0378113
2310.31	-0.335197
2311.73	-0.0179443
2313.14	-0.177696
2314.56	0.008461
2315.97	0.211899
2317.39	0.119703
2318.8	-0.318353
2320.22	-0.212808
2321.63	0.0898714
2323.05	-0.0380926
2324.46	0.293901
2325.88	0.425673
2327.29	0.4403
2328.7	0.470654
2330.12	0.814107
2331.53	0.0385742
2332.94	-0.22512
2334.35	0.0715399
2335.76	-0.17457
2337.18	0.286223
2338.59	-0.207716
2340	0.250796
2341.41	-0.0639162
2342.82	0.573131
2344.23	0.700899
2345.64	-0.0398493
2347.05	-0.0259686
2348.46	-0.241241
2349.87	-0.0639801
2351.28	0.112329
2352.69	-0.00653839
2354.1	0.118698
2355.5	-0.0829544
2356.91	0.301669
2358.32	0.360141
2359.73	0.321125
2361.14	0.00636768
2362.54	-0.22667
2363.95	0.0751448
2365.36	-0.0443668
2366.76	0.305219
2368.17	-0.0718718
2369.58	0.149526
2370.98	0.00106239
2372.39	-0.0654364
2373.79	-0.340287
2375.2	0.158066
2376.6	0.752174
2378	-0.118659
2379.41	0.118937
2380.81	-0.0948896
2382.22	0.219577
2383.62	0.244198
2385.02	0.188544
2386.42	0.0295601
2387.83	-0.128242
2389.23	0.377028
2390.63	-0.073245
2392.03	0.369761
2393.43	-0.157413
2394.84	0.143717
2396.24	0.0637007
2397.64	0.000222206
2399.04	0.318646
2400.44	0.17671
2401.84	0.273374
2403.24	0.528859
2404.64	0.371069
2406.04	0.228405
2407.44	0.0690975
2408.83	-0.36041
2410.23	0.240544
2411.63	-0.0461254
2413.03	-0.0784101
2414.43	0.286287
2415.83	0.351464
2417.22	0.259591
2418.62	0.279402
2420.02	-0.112199
2421.41	0.351315
2422.81	0.386903
2424.21	0.137027
2425.6	-0.16039
2427	0.0497408
2428.39	-0.230704
2429.79	0.234922
2431.18	0.130376
2432.58	0.136995
2433.97	-0.22213
2435.36	0.100598
2436.76	0.00899601
2438.15	0.31319
2439.54	-0.0510817
2440.94	0.29859
2442.33	-0.114445
2443.72	0.107289
2445.11	0.0114517
2446.51	0.296056
2447.9	-0.00606823
2449.29	-0.133694
2450.68	0.32483
2452.07	0.150392
2453.46	0.166666
2454.85	0.452679
2456.24	-0.0674753
2457.63	-0.349989
2459.02	0.0475149
2460.41	0.207193
2461.8	0.31862
2463.19	-0.0133219
2464.58	-0.12437
2465.97	0.253962
2467.36	0.0951691
2468.75	0.315144
2470.13	0.471642
2471.52	0.15467
2472.91	-0.0365572
2474.29	-0.0708141
2475.68	-0.105612
2477.07	0.032198
2478.45	-0.22288
2479.84	0.00904942
2481.22	0.146688
2482.61	-0.0293007
2484	0.342473
2485.38	-0.0535898
2486.77	0.0812883
2488.15	-0.0192146
2489.54	-0.0889845
2490.92	0.121441
2492.3	0.145273
2493.69	-0.109449
2495.07	0.242543
2496.45	-0.257391
2497.84	0.250963
2499.22	0.108776
2500.6	0.105687
2501.98	-0.0835791
2503.36	0.112617
2504.74	0.261323
2506.13	0.224227
2507.51	0.0946379
2508.89	0.0269432
2510.27	0.220858
2511.65	0.000736237
2513.03	0.134295
2514.41	0.314377
2515.79	0.326655
2517.17	0.217282
2518.55	0.200274
2519.93	-0.183298
2521.3	0.0747499
2522.68	-0.0344219
2524.06	-0.266229
2525.44	0.157012
2526.82	0.137712
2528.19	-0.124638
2529.57	0.344245
2530.95	0.14536
2532.32	0.404024
2533.7	0.390421
2535.08	0.863675
2536.45	0.546868
2537.83	0.943415
2539.2	-0.0583758
2540.58	0.108675
2541.95	-0.0282717
2543.33	0.077879
2544.7	-0.088295
2546.08	0.18655
2547.45	-0.0987177
2548.82	-0.0646844
2550.2	0.227382
2551.57	-0.118302
2552.94	0.0511436
2554.32	0.416898
2555.69	0.189983
2557.06	-0.0525122
2558.43	0.235718
2559.8	-0.0368557
2561.17	-0.0208588
2562.55	0.0563283
2563.92	0.406812
2565.29	0.272759
2566.66	0.275328
2568.03	0.0203395
2569.4	0.0836115
2570.77	0.0862575
2572.14	-0.123265
2573.51	0.106856
2574.88	0.200659
2576.24	0.127733
2577.61	0.100212
2578.98	0.224107
2580.35	-0.0768838
2581.72	0.0311513
2583.09	0.0933504
2584.45	0.534308
2585.82	0.202058
2587.19	-0.130019
2588.55	-0.0678282
2589.92	-0.232869
2591.28	0.389987
2592.65	0.588033
2594.02	0.0278058
2595.38	0.299835
2596.75	0.192267
2598.11	0.356367
2599.48	0.353606
2600.84	0.0940776
2602.2	0.0769243
2603.57	-0.377369
2604.93	0.240564
2606.3	-0.0619206
2607.66	-0.168452
2609.02	0.146359
2610.38	-0.428947
2611.75	-0.0714788
2613.11	-0.0614939
2614.47	0.00785398
2615.83	-0.268311
2617.19	0.175818
2618.56	0.215288
2619.92	0.255408
2621.28	0.116723
2622.64	0.247675
2624	0.154688
2625.36	0.106539
2626.72	0.0880446
2628.08	0.143774
2629.44	0.139573
2630.8	-0.355783
2632.15	0.219898
2633.51	-0.0223627
2634.87	0.730152
2636.23	0.0577359
2637.59	-0.302427
2638.94	0.374455
2640.3	0.0443854
2641.66	0.114207
2643.02	0.0216789
2644.37	0.268976
2645.73	0.0290232
2647.08	0.0249133
2648.44	0.300036
2649.8	0.14715
2651.15	0.126228
2652.51	-0.291457
2653.86	0.201494
2655.22	0.0785708
2656.57	-0.453229
2657.92	0.392545
2659.28	0.433595
2660.63	0.32878
2661.99	0.15086
2663.34	0.206275
2664.69	0.129499
2666.04	0.0229611
2667.4	0.513656
2668.75	0.217142
2670.1	-0.253246
2671.45	0.164438
2672.81	-0.23155
2674.16	-0.43773
2675.51	-0.00455809
2676.86	0.385201
2678.21	-0.16744
2679.56	0.194469
2680.91	-0.1387
2682.26	0.225147
2683.61	-0.0333714
2684.96	0.564646
2686.31	-0.272994
2687.66	0.0643568
2689	-0.00567484
2690.35	0.111486
2691.7	0.299517
2693.05	0.471489
2694.4	0.352357
2695.74	0.175201
2697.09	0.245043
2698.44	0.0408826
2699.79	0.446465
2701.13	-0.0585971
2702.48	0.480402
2703.82	-0.167469
2705.17	0.112399
2706.52	0.175011
2707.86	0.164876
2709.21	0.226947
2710.55	0.0708795
2711.9	0.219513
2713.24	0.0338936
2714.58	-0.0937605
2715.93	0.403663
2717.27	-0.000492096
2718.61	0.438678
2719.96	0.23746
2721.3	0.443238
2722.64	0.430282
2723.99	0.154872
2725.33	0.373935
2726.67	0.359748
2728.01	0.403475
2729.35	0.112264
2730.7	-0.0189629
2732.04	-0.0483503
2733.38	0.067812
2734.72	0.0968308
2736.06	0.373284
2737.4	0.0244417
2738.74	-0.135326
2740.08	0.140966
2741.42	0.445843
2742.76	0.270278
2744.09	0.341208
2745.43	0.0483122
2746.77	-0.302832
2748.11	0.318666
2749.45	0.156185
2750.79	0.313082
2752.12	0.0496607
2753.46	0.279388
2754.8	-0.0414252
2756.13	0.130525
2757.47	0.114284
2758.81	-0.0175233
2760.14	0.256319
2761.48	0.0240307
2762.81	0.385484
2764.15	0.501213
2765.49	-0.0920339
2766.82	0.211352
2768.15	-0.137088
2769.49	-0.284046
2770.82	-0.0275135
2772.16	-0.0469031
2773.49	0.105951
2774.82	-0.174455
2776.16	-0.0655141
2777.49	0.173086
2778.82	-0.120267
2780.16	0.0758605
2781.49	0.315087
2782.82	-0.177824
2784.15	0.247722
2785.48	-0.0439234
2786.81	-0.134504
2788.15	0.0474429
2789.48	-0.356709
2790.81	0.384439
2792.14	-0.232487
2793.47	0.15195
2794.8	-0.149756
2796.13	0.205643
2797.46	0.0461154
2798.79	0.557252
2800.12	-0.117009
2801.44	-0.00632048
2802.77	-0.0955324
2804.1	-0.028132
2805.43	0.352125
2806.76	-0.0941801
2808.08	0.725386
2809.41	-0.0626307
2810.74	0.286657
2812.07	-0.1587
2813.39	-0.148638
2814.72	0.0186524
2816.05	-0.0538163
2817.37	0.413337
2818.7	0.285726
2820.02	-0.210388
2821.35	0.285232
2822.67	-0.0134401
2824	0.622511
2825.32	-0.243599
2826.65	0.0519552
2827.97	0.0222015
2829.29	0.00712013
2830.62	0.289735
2831.94	0.275259
2833.26	-0.0223684
2834.59	0.24591
2835.91	-0.165608
2837.23	0.00266457
2838.55	0.311931
2839.88	0.451149
2841.2	0.477281
2842.52	0.574454
2843.84	0.700454
2845.16	0.629246
2846.48	0.798856
2847.8	0.827477
2849.12	1.1812
2850.44	0.785563
2851.76	1.09618
2853.08	0.996436
2854.4	0.79745
2855.72	1.17763
2857.04	1.14801
2858.36	1.54218
2859.68	1.72439
2861	1.69458
2862.32	1.98916
2863.63	1.59169
2864.95	2.06899
2866.27	1.74195
2867.58	1.92303
2868.9	2.56973
2870.22	2.25798
2871.53	2.1861
2872.85	1.94487
2874.17	2.57663
2875.48	2.16471
2876.8	2.808
2878.11	2.57745
2879.43	2.20623
2880.74	2.42606
2882.06	2.50594
2883.37	2.15138
2884.69	2.16298
2886	2.04879
2887.31	2.43998
2888.63	2.25529
2889.94	2.50483
2891.25	2.6132
2892.57	2.90309
2893.88	2.57618
2895.19	2.51595
2896.5	2.91844
2897.82	2.8599
2899.13	2.64846
2900.44	2.81555
2901.75	2.35356
2903.06	2.66115
2904.37	2.95486
2905.68	3.03902
2906.99	2.87192
2908.3	3.22314
2909.61	3.35138
2910.92	3.29829
2912.23	3.37116
2913.54	3.31735
2914.85	3.50026
2916.16	3.63957
2917.46	3.87534
2918.77	3.97013
2920.08	4.44232
2921.39	4.28569
2922.7	4.36798
2924	4.18601
2925.31	4.50836
2926.62	4.31412
2927.92	4.48338
2929.23	4.7921
2930.53	4.69487
2931.84	4.51332
2933.15	5.04443
2934.45	4.66695
2935.76	4.68096
2937.06	4.19205
2938.37	4.54181
2939.67	4.86387
2940.98	4.08252
2942.28	4.2382
2943.58	4.33915
2944.89	3.92418
2946.19	4.04149
2947.49	4.04755
2948.8	3.6195
2950.1	2.99412
2951.4	3.92125
2952.7	3.18038
2954.01	3.53043
2955.31	3.29209
2956.61	3.22259
2957.91	2.81901
2959.21	3.20178
2960.51	2.73287
2961.81	2.72784
2963.11	2.42888
2964.41	2.81696
2965.71	2.95142
2967.01	2.62073
2968.31	2.11989
2969.61	2.46185
2970.91	2.12874
2972.21	1.93643
2973.51	2.47611
2974.81	1.55213
2976.1	2.45754
2977.4	2.1511
2978.7	1.64601
2980	1.47743
2981.29	1.71589
2982.59	1.92554
2983.89	1.79789
2985.18	1.81189
2986.48	1.58838
2987.78	1.16952
2989.07	1.22932
2990.37	1.44399
2991.66	1.37717
2992.96	0.859716
2994.25	1.01575
2995.55	0.833613
2996.84	0.777336
2998.14	0.734964
2999.43	0.538562
3000.72	0.412901
3002.02	1.0027
3003.31	0.863876
3004.6	0.753266
3005.9	0.376427
3007.19	0.223319
3008.48	0.727215
3009.77	0.153102
3011.07	0.459373
3012.36	0.290124
3013.65	0.218801
3014.94	0.510406
3016.23	0.467923
3017.52	0.217367
3018.81	0.0232372
3020.1	-0.114962
3021.39	0.260889
3022.68	0.149392
3023.97	0.43964
3025.26	0.326623
3026.55	-0.0218163
3027.84	-0.133923
3029.13	0.0178432
3030.42	-0.119417
3031.71	0.117667
3033	0.010397
3034.28	0.00012064
3035.57	0.0721755
3036.86	0.0189371
3038.15	0.115747
3039.43	-0.0507646
3040.72	-0.108309
3042.01	0.0531192
3043.29	-0.0463462
3044.58	0.197438
3045.86	-0.0773973
3047.15	0.292315
3048.44	0.0902781
3049.72	-0.218808
3051.01	-0.14424
3052.29	0.258542
3053.58	0.374802
3054.86	0.367675
3056.14	0.100492
3057.43	0.132463
3058.71	0.150096
3060	0.194716
3061.28	-0.00529146
3062.56	0.176636
3063.84	0.400484
3065.13	-0.040451
3066.41	0.118124
3067.69	0.304861
3068.97	0.070477
3070.25	0.10784
3071.54	0.171683
3072.82	0.00327826
3074.1	-0.0301633
3075.38	0.275308
3076.66	-0.139542
3077.94	-0.0513625
3079.22	-0.00297737
3080.5	-0.183861
3081.78	-0.268337
3083.06	0.150241
3084.34	0.271107
3085.62	-0.286463
3086.9	-0.016573
3088.17	0.0491695
3089.45	0.0057478
3090.73	-0.146582
3092.01	0.162327
3093.29	-0.0848227
3094.56	0.237997
3095.84	-0.0898151
3097.12	0.314646
3098.4	0.0277324
3099.67	0.201559
3100.95	0.023047
3102.22	0.291645
3103.5	0.397929
3104.77	-0.0231972
3106.05	-0.132194
3107.33	0.138596
3108.6	-0.0768399
3109.88	0.0876694
3111.15	-0.0853157
3112.43	0.121578
3113.7	0.0173912
3114.97	0.319857
3116.25	0.215333
3117.52	0.204979
3118.79	0.180119
3120.07	0.398442
3121.34	0.114244
3122.61	0.155016
3123.88	0.615562
3125.16	0.439546
3126.43	0.534818
3127.7	0.251798
3128.97	0.267053
3130.24	0.404366
3131.51	0.29846
3132.78	0.678976
3134.05	0.302564
3135.33	0.250095
3136.59	0.46705
3137.86	0.427178
3139.14	0.373625
3140.41	0.521961
3141.67	0.818079
3142.94	0.294438
3144.21	0.83276
3145.48	0.0964508
3146.75	0.286879
3148.02	0.303551
3149.28	0.575176
