200.388	0.798634
202.204	0.811135
204.019	0.825248
205.832	0.840601
207.646	-0.11601
209.459	0.628914
211.274	0.570595
213.087	0.244042
214.899	0.523263
216.711	-0.0467625
218.524	-0.0587215
220.335	0.898207
222.146	0.476315
223.956	0.708788
225.766	-0.266512
227.576	0.13618
229.388	0.296824
231.197	0.167205
233.005	-0.179638
234.813	-0.139911
236.621	-0.122947
238.429	-0.151946
240.236	0.159221
242.045	0.448988
243.852	0.378742
245.658	1.15326
247.464	1.13011
249.269	0.959146
251.074	0.808891
252.879	1.0901
254.683	1.00726
256.487	1.16514
258.291	0.914171
260.094	0.35214
261.897	0.0815973
263.702	0.126157
265.504	0.750252
267.306	0.0977917
269.108	0.481368
270.909	0.333892
272.71	0.112893
274.511	0.782535
276.311	0.606589
278.111	0.1637
279.91	0.224895
281.709	0.0913219
283.508	0.581287
285.306	0.155827
287.105	0.426444
288.9	-0.0467777
290.698	0.463901
292.495	-0.437049
294.291	-0.13902
296.088	0.11247
297.884	-0.0413074
299.679	0.04457
301.475	-0.299635
303.27	0.406153
305.064	0.632765
306.858	0.261845
308.652	0.606243
310.444	0.116981
312.237	-0.870701
314.03	0.834601
315.822	-0.220467
317.615	-0.154434
319.406	0.223003
321.198	0.29223
322.987	0.0524063
324.778	0.170788
326.568	0.958043
328.358	-0.189124
330.148	0.550226
331.935	0.260661
333.724	0.471535
335.513	0.39307
337.301	-0.0946589
339.089	0.109334
340.875	0.526757
342.662	0.0584879
344.449	0.33127
346.236	-0.422671
348.02	-0.0531254
349.806	-0.0890179
351.592	-0.220281
353.375	-0.256572
355.16	0.684149
356.944	0.668957
358.728	0.485499
360.51	0.0152216
362.294	0.544103
364.077	0.405559
365.858	1.05047
367.64	-0.0393438
369.422	0.223617
371.202	0.0113802
372.983	0.603313
374.764	0.0591021
376.543	-0.460202
378.324	0.10688
380.102	0.791571
381.881	0.676066
383.661	0.585734
385.438	0.61453
387.216	0.0572443
388.993	0.887556
390.771	-0.0193863
392.548	0.765705
394.324	1.03478
396.101	0.200562
397.875	0.517214
399.651	1.02166
401.425	0.82102
403.201	0.0325174
404.974	0.276682
406.749	0.496522
408.524	0.668667
410.296	1.00468
412.07	0.589612
413.841	0.926025
415.614	0.348116
417.385	0.00574303
419.156	0.508828
420.928	0.754201
422.698	-0.127355
424.469	0.375287
426.238	0.125745
428.009	0.27441
429.777	0.469454
431.548	0.594014
433.315	-0.0556021
435.083	0.468649
436.852	0.429643
438.618	0.155228
440.387	0.160954
442.153	0.0238171
443.919	-0.0216961
445.686	0.516515
447.451	0.0694647
449.218	0.254038
450.982	0.111271
452.746	-0.0309086
454.512	-0.242588
456.275	0.641504
458.038	-0.0595961
459.803	0.148009
461.565	0.0304356
463.327	0.68159
465.091	-0.384568
466.852	0.318372
468.613	0.303951
470.374	0.175349
472.136	0.0938854
473.896	0.523798
475.655	0.416513
477.415	0.00395775
479.176	0.660898
480.934	1.03708
482.692	1.62292
484.45	0.300253
486.21	0.470269
487.967	0.619455
489.724	0.654499
491.481	1.08762
493.237	0.283991
494.995	0.321033
496.75	0.287819
498.506	-0.214355
500.26	0.970521
502.015	0.584222
503.769	0.595628
505.525	1.35791
507.279	0.661512
509.032	0.409752
510.785	0.673747
512.537	0.0889339
514.289	0.443714
516.041	0.632224
517.793	0.795774
519.546	1.19314
521.297	1.3073
523.047	1.58516
524.797	0.994016
526.547	0.473842
528.297	0.587304
530.046	0.723973
531.795	0.508731
533.543	0.784439
535.291	0.918135
537.039	1.19026
538.787	0.853227
540.534	0.562193
542.281	0.620317
544.027	0.142756
545.773	0.73519
547.519	0.537278
549.264	0.247363
551.01	0.328846
552.754	0.849843
554.499	0.538084
556.243	0.68893
557.987	0.355621
559.73	0.16171
561.474	-0.284492
563.216	0.85776
564.959	0.504898
566.701	0.0383606
568.441	-0.105371
570.182	0.11928
571.923	-0.480703
573.664	0.0451908
575.405	0.0911589
577.145	0.253646
578.885	0.256986
580.624	0.812388
582.361	0.472322
584.1	0.637144
585.839	-0.371912
587.577	0.342434
589.315	-0.232656
591.052	-0.118588
592.787	0.47807
594.524	0.200242
596.26	0.152523
597.997	-0.217322
599.732	-0.656525
601.466	0.697808
603.201	-0.226522
604.936	0.181602
606.67	0.335206
608.403	-0.522696
610.136	0.0431671
611.87	-0.331625
613.603	0.0972109
615.334	0.503493
617.067	0.680582
618.799	-0.0132666
620.529	0.162251
622.26	-0.0297747
623.991	0.143283
625.72	-0.0266123
627.451	0.10153
629.181	-0.0651207
630.909	0.820367
632.638	0.430206
634.368	0.680217
636.095	-0.142838
637.823	0.0823288
639.551	0.532866
641.277	0.0446701
643.005	-0.240349
644.73	0.475618
646.457	0.417059
648.184	0.405993
649.908	0.580038
651.634	0.0764866
653.357	0.440583
655.083	0.149034
656.806	0.405893
658.53	0.0945415
660.253	0.740465
661.977	0.56382
663.7	0.635798
665.422	0.522305
667.145	0.383763
668.865	0.472993
670.588	0.723003
672.308	0.494681
674.027	0.108425
675.749	0.526042
677.468	0.418138
679.188	0.425074
680.907	0.385036
682.627	0.688152
684.345	0.229712
686.064	0.436522
687.781	-0.256516
689.498	0.661538
691.216	0.358027
692.932	0.261165
694.65	0.578106
696.366	0.410323
698.081	0.0341768
699.797	0.278294
701.512	0.152987
703.228	0.831243
704.942	0.382397
706.655	0.553294
708.371	-0.033309
710.083	0.755449
711.796	0.260426
713.51	0.36062
715.222	0.414721
716.934	1.01663
718.645	1.02443
720.358	0.690505
722.068	0.721701
723.779	0.889418
725.49	1.07944
727.2	0.928122
728.909	0.390838
730.618	0.398189
732.329	1.1525
734.037	0.502288
735.745	0.4863
737.453	0.696505
739.16	0.47836
740.869	0.486981
742.576	0.564421
744.282	1.61125
745.988	0.835817
747.694	0.197426
749.401	1.00022
751.107	1.0845
752.811	0.247953
754.516	0.762421
756.22	0.76109
757.924	1.34678
759.627	0.988481
761.332	1.01421
763.035	0.63444
764.738	1.67637
766.44	1.45326
768.142	1.36354
769.843	1.54273
771.544	1.04129
773.245	0.787015
774.946	1.301
776.646	1.09193
778.346	1.35902
780.046	1.76354
781.745	1.60396
783.444	1.67082
785.143	1.91764
786.841	1.52811
788.539	1.11263
790.237	1.75713
791.934	0.838197
793.631	1.29652
795.328	2.13708
797.024	2.03045
798.72	1.45287
800.416	1.59828
802.112	2.37508
803.807	1.44285
805.502	1.5903
807.196	1.37723
808.89	1.99404
810.584	1.12759
812.278	1.27048
813.971	1.18846
815.664	2.27042
817.354	2.2992
819.047	2.23859
820.739	2.0666
822.43	1.67216
824.122	1.83659
825.813	1.66808
827.503	2.01433
829.192	1.71759
830.882	1.26829
832.571	1.64616
834.261	1.53631
835.95	1.29367
837.637	1.85402
839.325	1.69921
841.013	1.74358
842.701	1.67476
844.389	1.27012
846.074	0.709494
847.761	1.76017
849.447	1.24842
851.131	1.74622
852.817	1.66434
854.503	1.51606
856.188	1.3898
857.871	0.969841
859.556	1.695
861.24	1.24836
862.922	1.20495
864.606	0.776973
866.289	1.15929
867.97	0.751903
869.653	1.38131
871.336	1.19853
873.016	0.970345
874.698	0.516364
876.379	0.964935
878.058	0.8494
879.739	1.7495
881.418	1.49809
883.098	1.58449
884.778	1.24079
886.456	0.805409
888.135	0.503986
889.812	1.21599
891.49	1.8129
893.167	0.763494
894.845	1.10958
896.523	0.824429
898.198	0.448966
899.875	0.970606
901.55	0.818031
903.226	0.956107
904.901	0.758386
906.576	1.11939
908.25	0.878234
909.925	0.928037
911.598	1.06769
913.271	0.452162
914.945	1.21485
916.617	1.84308
918.291	1.33974
919.962	0.239633
921.635	1.57551
923.306	0.655692
924.978	1.43983
926.648	0.900335
928.318	1.00319
929.989	1.35008
931.659	0.704763
933.328	0.876182
934.998	1.13596
936.666	1.0212
938.336	1.54693
940.004	1.16973
941.671	0.683456
943.34	1.41139
945.007	0.528382
946.673	0.63725
948.339	1.53889
950.007	1.04781
951.672	1.30573
953.337	1.60758
955.004	1.42583
956.669	1.02661
958.333	1.11603
959.997	0.74511
961.662	1.1485
963.326	0.668268
964.989	1.13673
966.651	0.983253
968.315	1.15856
969.977	1.243
971.639	0.729165
973.301	1.38803
974.962	0.920521
976.624	1.00784
978.285	1.16321
979.945	1.20881
981.605	1.25406
983.264	1.14291
984.924	0.918935
986.583	2.02071
988.243	0.553282
989.901	1.07597
991.56	1.02273
993.217	1.58779
994.875	1.11477
996.532	1.30428
998.188	1.51561
999.845	1.92475
1001.5	1.91451
1003.16	2.16785
1004.81	1.27687
1006.47	0.936415
1008.12	1.32123
1009.78	1.26696
1011.43	0.555352
1013.09	1.16013
1014.74	0.384683
1016.39	0.529985
1018.05	0.588149
1019.7	0.843942
1021.35	0.794575
1023	0.396708
1024.65	0.764933
1026.31	1.02446
1027.96	1.83022
1029.61	1.58644
1031.26	0.664351
1032.91	0.854565
1034.56	0.84641
1036.21	1.4472
1037.86	1.67576
1039.51	0.946034
1041.16	1.74072
1042.8	1.12287
1044.45	1.09427
1046.1	1.4371
1047.75	1.71681
1049.39	1.30346
1051.04	1.26076
1052.69	0.914845
1054.33	1.48185
1055.98	0.505985
1057.62	0.985913
1059.27	0.856696
1060.91	0.226632
1062.56	0.508968
1064.2	0.355452
1065.85	1.02697
1067.49	0.1539
1069.13	0.14939
1070.77	0.23105
1072.42	0.92026
1074.06	0.307508
1075.7	0.759123
1077.34	0.257726
1078.98	0.495074
1080.62	1.0802
1082.27	-0.0693893
1083.91	0.926819
1085.55	0.143443
1087.18	0.528536
1088.82	0.58618
1090.46	0.750008
1092.1	0.501513
1093.74	0.339268
1095.38	0.652167
1097.02	0.383312
1098.65	0.784077
1100.29	0.238997
1101.93	0.0407705
1103.56	0.489916
1105.2	0.273519
1106.84	0.423448
1108.47	-0.05058
1110.11	0.0764875
1111.74	0.825158
1113.38	0.325436
1115.01	0.297236
1116.64	0.482924
1118.28	0.26112
1119.91	0.297389
1121.54	0.291842
1123.18	0.458649
1124.81	1.0329
1126.44	0.688032
1128.07	0.536658
1129.7	0.557159
1131.33	0.107948
1132.97	0.129448
1134.6	0.450089
1136.23	0.834117
1137.86	0.832236
1139.49	0.572703
1141.11	0.525766
1142.74	0.286241
1144.37	0.772219
1146	0.853418
1147.63	0.168414
1149.26	0.763076
1150.88	0.548596
1152.51	0.398129
1154.14	0.481565
1155.76	0.351682
1157.39	0.115345
1159.01	0.32617
1160.64	0.686628
1162.27	0.559149
1163.89	0.432796
1165.51	0.115668
1167.14	-0.222957
1168.76	-0.243693
1170.39	0.137717
1172.01	0.219394
1173.63	-0.210479
1175.25	0.0590611
1176.88	-0.0751801
1178.5	-0.0819426
1180.12	-0.0456629
1181.74	0.0972519
1183.36	0.219579
1184.98	-0.292048
1186.6	0.230731
1188.22	0.0125761
1189.84	0.0456896
1191.46	0.0556774
1193.08	0.148129
1194.7	0.218424
1196.32	0.372366
1197.94	0.380272
1199.55	0.536384
1201.17	0.235038
1202.79	0.605165
1204.41	0.581186
1206.02	0.893433
1207.64	-0.378427
1209.25	0.14429
1210.87	-0.251603
1212.48	0.852158
1214.1	0.32715
1215.71	0.758236
1217.33	0.312856
1218.94	0.428292
1220.56	0.294212
1222.17	0.700305
1223.79	0.920498
1225.4	0.500142
1227.01	0.930403
1228.62	0.368966
1230.23	0.388266
1231.85	0.780903
1233.46	0.947363
1235.07	0.76382
1236.68	0.912293
1238.29	1.248
1239.9	0.695478
1241.51	1.4046
1243.12	0.996544
1244.73	1.41516
1246.34	1.23262
1247.94	1.25585
1249.55	0.926466
1251.16	1.15535
1252.77	1.07412
1254.37	1.57281
1255.98	1.07988
1257.59	0.526147
1259.2	0.842519
1260.8	0.808165
1262.41	1.41624
1264.01	0.968358
1265.62	1.07923
1267.22	1.37593
1268.83	0.0753374
1270.43	0.971137
1272.03	1.36825
1273.64	0.665363
1275.24	1.59913
1276.85	1.03937
1278.45	0.665499
1280.05	1.74067
1281.65	1.77969
1283.25	1.86016
1284.85	0.369511
1286.46	1.71304
1288.06	1.25888
1289.66	1.21923
1291.26	1.32482
1292.86	0.521218
1294.46	1.72092
1296.06	1.55558
1297.66	1.5124
1299.25	1.34358
1300.85	1.31759
1302.45	1.57864
1304.05	1.3236
1305.65	1.93173
1307.24	1.30573
1308.84	0.926884
1310.43	1.88095
1312.03	1.80977
1313.63	2.02592
1315.22	1.81371
1316.82	1.6438
1318.41	1.84206
1320.01	1.71372
1321.6	1.38089
1323.2	1.31152
1324.79	1.22005
1326.38	1.93924
1327.98	1.41916
1329.57	1.32617
1331.16	1.63963
1332.76	1.55082
1334.35	1.18203
1335.94	1.23932
1337.53	1.64008
1339.12	1.37453
1340.71	1.44993
1342.3	1.76431
1343.89	1.75411
1345.48	1.40132
1347.07	0.768653
1348.66	1.08064
1350.25	1.35466
1351.84	1.45115
1353.43	1.78981
1355.01	0.910573
1356.6	0.69167
1358.19	0.931917
1359.77	0.472076
1361.36	0.889706
1362.95	0.767371
1364.53	1.04349
1366.12	1.10034
1367.71	0.660131
1369.29	1.99326
1370.88	0.998744
1372.46	0.702595
1374.04	1.44238
1375.63	1.12835
1377.21	1.29201
1378.8	1.11686
1380.38	1.47783
1381.96	0.743112
1383.54	1.35962
1385.13	1.13966
1386.71	1.11802
1388.29	0.659675
1389.87	1.3934
1391.45	1.15527
1393.03	0.640454
1394.61	1.03866
1396.19	0.702828
1397.77	0.782721
1399.35	0.683138
1400.93	0.582603
1402.51	0.758636
1404.09	0.400252
1405.67	0.655746
1407.24	0.832849
1408.82	1.42567
1410.4	1.28788
1411.98	1.01191
1413.55	0.814451
1415.13	1.10944
1416.71	1.28486
1418.28	1.89322
1419.86	1.06321
1421.43	1.10153
1423.01	1.25965
1424.58	0.88814
1426.16	1.20694
1427.73	1.38861
1429.31	1.76684
1430.88	0.904077
1432.45	1.71292
1434.02	1.89073
1435.6	1.51721
1437.17	1.14409
1438.74	2.40345
1440.31	2.22881
1441.88	2.09467
1443.45	2.31512
1445.03	2.45745
1446.6	1.95137
1448.17	2.23167
1449.74	2.53201
1451.3	2.14478
1452.87	1.97439
1454.44	1.78469
1456.01	2.0671
1457.58	2.58507
1459.15	2.05857
1460.72	2.3566
1462.28	2.18011
1463.85	2.1001
1465.42	1.54711
1466.98	1.44608
1468.55	1.65966
1470.12	0.951663
1471.68	1.44212
1473.25	1.3451
1474.81	1.38628
1476.38	1.32989
1477.94	0.763918
1479.51	0.982103
1481.07	1.02372
1482.63	1.14361
1484.2	0.753881
1485.76	1.46096
1487.32	1.22678
1488.88	0.854259
1490.45	0.890983
1492.01	0.886162
1493.57	1.23053
1495.13	0.967271
1496.69	0.683924
1498.25	1.47128
1499.81	0.371964
1501.37	0.615917
1502.93	1.40364
1504.49	1.08646
1506.05	0.615312
1507.61	0.260442
1509.17	0.620016
1510.73	0.745968
1512.28	0.562286
1513.84	0.571086
1515.4	0.656914
1516.96	0.608751
1518.51	0.446478
1520.07	-0.0212717
1521.63	0.354169
1523.18	0.193271
1524.74	0.280114
1526.29	0.842384
1527.85	-0.197388
1529.4	0.514514
1530.96	0.407844
1532.51	0.264068
1534.06	0.689706
1535.62	-0.132994
1537.17	0.388654
1538.72	0.49468
1540.28	0.563205
1541.83	0.857776
1543.38	0.492939
1544.93	1.20031
1546.48	0.365824
1548.03	1.29661
1549.59	0.688412
1551.14	0.325065
1552.69	0.786047
1554.24	0.779914
1555.79	0.607176
1557.34	0.380518
1558.88	0.6599
1560.43	0.530738
1561.98	0.739092
1563.53	0.874057
1565.08	0.748468
1566.62	0.604301
1568.17	0.777143
1569.72	0.426977
1571.27	1.30835
1572.81	0.360076
1574.36	0.848992
1575.9	0.516557
1577.45	1.08038
1579	1.02861
1580.54	0.604035
1582.09	1.24466
1583.63	0.952443
1585.17	1.03461
1586.72	0.893021
1588.26	0.975927
1589.8	1.48906
1591.35	1.45926
1592.89	0.979509
1594.43	1.15468
1595.97	0.861584
1597.52	1.44959
1599.06	1.60752
1600.6	1.12859
1602.14	1.8321
1603.68	0.996535
1605.22	1.53088
1606.76	0.917791
1608.3	1.48648
1609.84	1.26328
1611.38	1.26308
1612.92	1.22313
1614.46	1.50081
1615.99	0.746017
1617.53	1.43595
1619.07	1.47064
1620.61	1.35713
1622.14	0.964365
1623.68	0.666256
1625.22	1.00473
1626.75	0.72471
1628.29	0.855097
1629.82	1.07739
1631.36	1.55995
1632.9	1.7239
1634.43	1.47729
1635.96	1.23182
1637.5	1.60302
1639.03	1.50858
1640.57	0.985611
1642.1	1.37526
1643.63	1.33508
1645.16	1.47971
1646.7	1.79047
1648.23	1.6544
1649.76	1.66747
1651.29	1.83005
1652.82	2.21642
1654.36	1.4728
1655.89	1.78692
1657.42	1.73022
1658.95	2.0061
1660.48	1.89149
1662.01	1.90485
1663.53	2.0832
1665.06	2.11279
1666.59	1.45984
1668.12	1.73117
1669.65	1.22964
1671.18	1.78046
1672.7	1.92693
1674.23	1.46618
1675.76	0.710871
1677.29	1.00425
1678.81	1.14907
1680.34	1.43967
1681.86	0.975695
1683.39	1.22806
1684.91	1.03973
1686.44	0.852001
1687.96	0.719948
1689.49	0.515181
1691.01	0.713702
1692.54	0.912105
1694.06	0.561496
1695.58	0.540133
1697.11	0.189624
1698.63	0.569609
1700.15	0.328172
1701.67	0.651866
1703.2	0.427748
1704.72	0.34905
1706.24	0.288171
1707.76	0.554317
1709.28	0.202314
1710.8	-0.021966
1712.32	0.0625544
1713.84	-0.160903
1715.36	0.430707
1716.88	0.189208
1718.4	-0.0701056
1719.91	0.501597
1721.43	0.495125
1722.95	0.579395
1724.47	0.106075
1725.99	0.030818
1727.5	0.371016
1729.02	0.172184
1730.54	-0.222025
1732.05	0.277339
1733.57	-0.37421
1735.09	0.0284681
1736.6	0.13919
1738.12	0.0937233
1739.63	0.377005
1741.15	0.362385
1742.66	0.199231
1744.18	0.395319
1745.69	0.155959
1747.2	-0.110136
1748.72	-0.0384693
1750.23	-0.146205
1751.74	0.238792
1753.25	-0.0591516
1754.77	0.0448151
1756.28	0.301781
1757.79	0.10562
1759.3	-0.173175
1760.81	-0.109447
1762.32	-0.234786
1763.83	-0.140769
1765.34	-0.214551
1766.85	0.0929956
1768.36	0.228799
1769.87	0.314725
1771.38	0.0944118
1772.89	0.329692
1774.4	-0.240314
1775.91	-0.192042
1777.41	0.131669
1778.92	0.287909
1780.43	0.379918
1781.94	0.00275421
1783.44	-0.214978
1784.95	-0.0387239
1786.45	-0.31012
1787.96	0.357491
1789.47	0.0321894
1790.97	0.00424671
1792.47	0.138778
1793.98	-0.0437059
1795.48	0.0932093
1796.99	0.096343
1798.49	-0.10426
1800	-0.0789976
1801.5	0.123651
1803	-0.0314846
1804.51	0.121342
1806.01	0.0799885
1807.51	0.0505867
1809.01	0.238936
1810.51	0.14553
1812.02	0.0438614
1813.52	-0.08955
1815.02	-0.0932121
1816.52	-0.0927505
1818.02	0.140836
1819.52	-0.0596294
1821.02	0.42907
1822.52	0.0612297
1824.02	-0.138825
1825.51	-0.276318
1827.01	-0.153868
1828.51	0.0255547
1830.01	0.148219
1831.51	0.0364647
1833	-0.351132
1834.5	-0.1281
1836	-0.0593147
1837.49	0.434783
1838.99	0.150017
1840.49	0.475056
1841.98	0.206829
1843.48	0.475389
1844.97	0.183796
1846.47	0.272397
1847.96	0.00845528
1849.46	0.265302
1850.95	0.098959
1852.45	0.20954
1853.94	0.163095
1855.43	0.205416
1856.92	-0.137329
1858.42	-0.246606
1859.91	0.0289049
1861.4	0.0764875
1862.89	0.0410089
1864.39	-0.0365191
1865.88	-0.0643892
1867.37	-0.176435
1868.86	-0.000548363
1870.35	0.184135
1871.84	0.0610104
1873.33	-0.0328903
1874.82	0.0981045
1876.31	0.0459871
1877.8	0.375694
1879.29	-0.0932636
1880.77	0.148387
1882.26	0.388651
1882.52	0.426164
1884.02	0.249513
1885.51	0.211522
1887.01	0.381608
1888.5	-0.127952
1889.99	-0.114804
1891.49	0.125464
1892.98	0.123916
1894.47	0.228682
1895.96	-0.116915
1897.46	0.0252419
1898.95	-0.197958
1900.44	0.412756
1901.93	0.882491
1903.42	-0.145624
1904.91	0.372551
1906.4	-0.0141163
1907.89	0.0510788
1909.38	0.203656
1910.87	0.0448265
1912.36	0.0258465
1913.85	-0.217971
1915.34	0.197339
1916.83	0.126696
1918.32	0.15949
1919.8	0.122467
1921.29	0.17197
1922.78	-0.280263
1924.27	0.238146
1925.75	0.203719
1927.24	0.257039
1928.73	0.380348
1930.21	-0.240959
1931.7	-0.0319805
1933.18	0.0888481
1934.67	0.346172
1936.15	0.289992
1937.64	0.19797
1939.12	0.0191631
1940.61	0.117187
1942.09	0.00893974
1943.57	0.022687
1945.06	-0.169561
1946.54	0.0869322
1948.02	0.0672827
1949.51	0.167427
1950.99	-0.129619
1952.47	-0.169214
1953.95	-0.0202236
1955.43	0.798633
1956.91	0.0541735
1958.39	-0.328227
1959.87	0.131109
1961.36	-0.249573
1962.84	0.0901604
1964.32	0.0867567
1965.79	0.168439
1967.27	-0.332639
1968.75	0.295078
1970.23	0.562366
1971.71	-0.247087
1973.19	0.258806
1974.66	0.235347
1976.14	-0.162848
1977.62	-0.424051
1979.1	-0.157137
1980.57	-0.213797
1982.05	0.154392
1983.53	-0.106744
1985	0.311081
1986.48	0.253101
1987.95	-0.177638
1989.43	0.120794
1990.9	-0.257373
1992.38	0.32997
1993.85	0.27544
1995.33	0.357064
1996.8	-0.118366
1998.27	0.301558
1999.75	0.416836
2001.22	0.413213
2002.69	-0.215017
2004.16	-0.35389
2005.64	0.114322
2007.11	-0.0570946
2008.58	0.260942
2010.05	-0.0936222
2011.52	0.293164
2012.99	0.360123
2014.46	0.190995
2015.93	0.189333
2017.4	0.523039
2018.87	0.368027
2020.34	0.0109291
2021.81	0.292184
2023.28	0.120326
2024.75	0.134055
2026.22	-0.0186682
2027.69	-0.0859156
2029.15	0.234226
2030.62	-0.1319
2032.09	-0.0944128
2033.56	-0.140321
2035.02	-0.203055
2036.49	-0.0310555
2037.95	0.291706
2039.42	0.194017
2040.89	0.163466
2042.35	0.0324392
2043.82	0.221728
2045.28	0.00831318
2046.75	0.536291
2048.21	0.290317
2049.67	-0.495593
2051.14	0.0824537
2052.6	0.0858049
2054.06	0.340159
2055.53	0.0698032
2056.99	0.000368118
2058.45	0.300838
2059.92	-0.224457
2061.38	0.143486
2062.84	0.225927
2064.3	0.00651169
2065.76	0.579185
2067.22	0.0252438
2068.68	0.481731
2070.14	0.282192
2071.6	0.150011
2073.06	0.556449
2074.52	0.0702076
2075.98	0.375019
2077.44	-0.112047
2078.9	0.242471
2080.36	0.242843
2081.82	0.309956
2083.27	0.207986
2084.73	0.290367
2086.19	0.422346
2087.65	-0.0349541
2089.1	0.0959291
2090.56	0.176072
2092.01	-0.197234
2093.47	-0.133975
2094.93	-0.171669
2096.38	0.611403
2097.84	0.404552
2099.29	0.180573
2100.75	0.324491
2102.2	0.401586
2103.66	-0.00476265
2105.11	0.391851
2106.56	0.22241
2108.02	-0.379411
2109.47	0.119958
2110.92	0.168408
2112.37	0.115438
2113.83	0.360446
2115.28	0.403686
2116.73	0.412612
2118.18	0.272378
2119.63	0.316394
2121.09	0.179964
2122.54	-0.252802
2123.99	0.0125828
2125.44	0.460996
2126.89	-0.102302
2128.34	0.278387
2129.79	0.491682
2131.23	0.504634
2132.68	0.400829
2134.13	0.313658
2135.58	0.0620832
2137.03	0.010603
2138.48	0.275065
2139.92	0.458887
2141.37	1.07433
2142.82	0.600086
2144.26	0.771389
2145.71	0.446484
2147.16	0.81639
2148.6	0.58962
2150.05	0.527445
2151.49	0.679574
2152.94	0.780941
2154.38	0.682583
2155.83	0.43464
2157.27	1.01508
2158.72	0.519553
2160.16	0.870292
2161.6	0.477393
2163.05	0.915126
2164.49	0.807569
2165.93	0.866823
2167.38	0.776544
2168.82	0.734887
2170.26	0.641364
2171.7	0.761781
2173.14	0.514129
2174.58	0.581079
2176.03	0.298156
2177.47	0.763768
2178.91	0.997323
2180.35	0.749804
2181.79	0.719374
2183.23	0.290461
2184.67	0.709974
2186.1	0.547474
2187.54	0.834199
2188.98	0.705018
2190.42	0.642361
2191.86	0.562747
2193.3	0.682125
2194.73	0.650241
2196.17	0.816153
2197.61	0.846663
2199.05	0.210161
2200.48	0.154968
2201.92	0.249119
2203.35	0.808354
2204.79	0.738015
2206.22	0.155112
2207.66	0.269074
2209.09	0.631151
2210.53	0.727226
2211.96	0.358955
2213.4	0.552355
2214.83	0.613209
2216.27	0.113413
2217.7	0.258806
2219.13	0.784666
2220.56	0.387912
2222	0.535416
2223.43	0.385509
2224.86	0.300123
2226.29	0.245919
2227.72	0.42021
2229.16	0.149337
2230.59	0.0914812
2232.02	0.295714
2233.45	0.15605
2234.88	0.426273
2236.31	0.223484
2237.74	0.300247
2239.17	0.00366879
2240.6	0.378211
2242.03	0.232644
2243.45	0.235219
2244.88	0.140316
2246.31	0.158902
2247.74	0.208431
2249.17	0.712079
2250.59	0.398148
2252.02	0.180439
2253.45	-0.0865688
2254.87	0.410819
2256.3	0.064765
2257.73	-0.116107
2259.15	0.0954628
2260.58	0.391248
2262	0.0243425
2263.43	0.064806
2264.85	-0.00811958
2266.28	0.129883
2267.7	-0.155783
2269.13	0.305978
2270.55	0.00206375
2271.97	0.544166
2273.4	0.434864
2274.82	0.0323963
2276.24	-0.141933
2277.66	0.596534
2279.09	0.03127
2280.51	0.134231
2281.93	0.0903091
2283.35	-0.149504
2284.77	-0.242515
2286.19	0.0400801
2287.61	0.51916
2289.04	-0.536315
2290.46	0.2706
2291.88	0.228434
2293.29	0.120948
2294.71	0.438748
2296.13	0.34752
2297.55	0.321657
2298.97	0.525186
2300.39	-0.221504
2301.81	-0.0503263
2303.23	0.318193
2304.64	0.293319
2306.06	-0.0929747
2307.48	0.440133
2308.89	0.479977
2310.31	0.108108
2311.73	0.245482
2313.14	0.234817
2314.56	0.323337
2315.97	0.00105572
2317.39	0.19003
2318.8	-0.114845
2320.22	0.12399
2321.63	0.477386
2323.05	0.11925
2324.46	0.418697
2325.88	0.616567
2327.29	-0.0285978
2328.7	0.611593
2330.12	0.477121
2331.53	-0.00196743
2332.94	0.014246
2334.35	0.113632
2335.76	-0.000614166
2337.18	0.361661
2338.59	0.196557
2340	-0.364004
2341.41	0.109662
2342.82	0.253959
2344.23	0.299627
2345.64	0.0341444
2347.05	0.014987
2348.46	0.421484
2349.87	-0.0890236
2351.28	0.135947
2352.69	0.408496
2354.1	0.173696
2355.5	-0.0124865
2356.91	0.257264
2358.32	0.0547256
2359.73	-0.0822535
2361.14	-0.105232
2362.54	0.115018
2363.95	-0.329336
2365.36	-0.238909
2366.76	0.174743
2368.17	-0.0414658
2369.58	0.227753
2370.98	-0.146795
2372.39	0.0605049
2373.79	0.204256
2375.2	0.316115
2376.6	-0.296535
2378	-0.137833
2379.41	0.436805
2380.81	-0.227422
2382.22	0.134459
2383.62	0.11017
2385.02	0.0856714
2386.42	-0.0501671
2387.83	-0.184755
2389.23	0.00105095
2390.63	-0.0670252
2392.03	0.136884
2393.43	-0.0720701
2394.84	0.0381508
2396.24	-0.105335
2397.64	0.181057
2399.04	-0.0405359
2400.44	0.15153
2401.84	0.089735
2403.24	0.377387
2404.64	0.378733
2406.04	0.268012
2407.44	-0.129254
2408.83	0.40871
2410.23	0.248309
2411.63	0.230902
2413.03	0.372752
2414.43	-0.402366
2415.83	0.201567
2417.22	-0.0796633
2418.62	0.352545
2420.02	0.120149
2421.41	0.0300922
2422.81	0.49413
2424.21	0.0706825
2425.6	0.613829
2427	0.349407
2428.39	-0.24712
2429.79	0.0133677
2431.18	0.0526648
2432.58	0.123911
2433.97	-0.138841
2435.36	-0.03757
2436.76	0.221073
2438.15	-0.173312
2439.54	0.161746
2440.94	0.32097
2442.33	0.574739
2443.72	-0.09235
2445.11	0.192592
2446.51	0.112471
2447.9	-0.252977
2449.29	-0.0161924
2450.68	-0.0643768
2452.07	-0.0170021
2453.46	0.157744
2454.85	0.143486
2456.24	-0.0282116
2457.63	0.480622
2459.02	-0.133766
2460.41	-0.0844126
2461.8	0.296097
2463.19	-0.33602
2464.58	0.0902615
2465.97	0.247396
2467.36	-0.195557
2468.75	0.261183
2470.13	0.370327
2471.52	-0.00977612
2472.91	0.11392
2474.29	-0.0782051
2475.68	0.0124054
2477.07	0.0238857
2478.45	0.0666962
2479.84	-0.0159254
2481.22	-0.0355215
2482.61	0.508862
2484	0.0186615
2485.38	0.185262
2486.77	-0.0558901
2488.15	-0.172818
2489.54	-0.103226
2490.92	-0.314121
2492.3	0.144456
2493.69	0.432299
2495.07	0.193601
2496.45	-0.089819
2497.84	0.154706
2499.22	-0.142564
2500.6	-0.0994864
2501.98	0.43726
2503.36	0.431583
2504.74	0.116421
2506.13	0.0323725
2507.51	-0.00558281
2508.89	0.325635
2510.27	-0.00376225
2511.65	-0.163055
2513.03	0.107956
2514.41	0.0424662
2515.79	0.0392179
2517.17	0.0520926
2518.55	-0.270826
2519.93	0.0944061
2521.3	-0.319935
2522.68	0.105013
2524.06	0.0404234
2525.44	0.0970926
2526.82	-0.166402
2528.19	0.316506
2529.57	0.450178
2530.95	0.129481
2532.32	0.266655
2533.7	0.0558128
2535.08	0.726933
2536.45	0.273746
2537.83	0.138896
2539.2	0.00306988
2540.58	-0.0272846
2541.95	-0.0276518
2543.33	0.15433
2544.7	0.185423
2546.08	0.0509739
2547.45	0.175688
2548.82	0.149629
2550.2	0.153976
2551.57	0.248875
2552.94	-0.0366116
2554.32	0.299004
2555.69	0.1177
2557.06	-0.155124
2558.43	0.11794
2559.8	0.633678
2561.17	0.285867
2562.55	0.332869
2563.92	0.244114
2565.29	-0.147259
2566.66	0.0677872
2568.03	0.631512
2569.4	-0.183896
2570.77	0.0767336
2572.14	-0.193084
2573.51	0.0828533
2574.88	0.449883
2576.24	0.286366
2577.61	-0.210832
2578.98	-0.0411568
2580.35	-0.463204
2581.72	0.0544262
2583.09	-0.489698
2584.45	0.148495
2585.82	0.165009
2587.19	0.0906963
2588.55	0.152992
2589.92	0.215392
2591.28	0.277646
2592.65	0.551505
2594.02	0.188139
2595.38	0.111595
2596.75	-0.268712
2598.11	-0.392279
2599.48	0.239848
2600.84	0.040287
2602.2	0.0226898
2603.57	0.594528
2604.93	0.18569
2606.3	0.456153
2607.66	0.394326
2609.02	-0.0300827
2610.38	0.0568132
2611.75	0.157229
2613.11	0.0156517
2614.47	-0.0663919
2615.83	0.421654
2617.19	-0.00546932
2618.56	0.317685
2619.92	0.162267
2621.28	-0.216413
2622.64	0.377219
2624	0.193829
2625.36	0.697043
2626.72	0.125622
2628.08	-0.132426
2629.44	0.19028
2630.8	0.229579
2632.15	0.179493
2633.51	0.352239
2634.87	0.316876
2636.23	0.355681
2637.59	0.379582
2638.94	-0.14434
2640.3	0.161224
2641.66	0.437021
2643.02	0.313846
2644.37	-0.0008955
2645.73	0.466592
2647.08	0.372779
2648.44	-0.0456915
2649.8	0.0801897
2651.15	-0.0595264
2652.51	0.549681
2653.86	0.468345
2655.22	0.431951
2656.57	0.338234
2657.92	-0.0907393
2659.28	0.0668678
2660.63	0.166253
2661.99	0.46998
2663.34	-0.00139046
2664.69	0.285961
2666.04	0.222035
2667.4	0.376283
2668.75	0.55929
2670.1	0.436749
2671.45	0.344046
2672.81	-0.0675125
2674.16	0.32077
2675.51	0.0706196
2676.86	0.213017
2678.21	0.28349
2679.56	0.00681591
2680.91	0.325751
2682.26	0.573456
2683.61	-0.105531
2684.96	0.31854
2686.31	0.3371
2687.66	0.195834
2689	0.0967884
2690.35	0.126597
2691.7	0.285085
2693.05	0.441816
2694.4	0.292817
2695.74	0.303183
2697.09	0.227278
2698.44	0.297616
2699.79	0.181495
2701.13	0.0527439
2702.48	0.142786
2703.82	0.205018
2705.17	0.137383
2706.52	0.229282
2707.86	0.175863
2709.21	0.426821
2710.55	0.0676222
2711.9	0.143684
2713.24	0.408546
2714.58	0.368245
2715.93	0.778577
2717.27	0.476325
2718.61	0.362743
2719.96	0.248704
2721.3	0.396091
2722.64	0.644863
2723.99	0.834917
2725.33	0.311252
2726.67	0.602267
2728.01	0.194305
2729.35	0.00443935
2730.7	0.309171
2732.04	0.308263
2733.38	0.583832
2734.72	0.33589
2736.06	0.640893
2737.4	0.422427
2738.74	0.523901
2740.08	0.203367
2741.42	0.434909
2742.76	0.665662
2744.09	0.401393
2745.43	0.310937
2746.77	0.771895
2748.11	0.187146
2749.45	0.0817385
2750.79	0.295683
2752.12	0.20528
2753.46	0.115185
2754.8	0.286106
2756.13	0.12394
2757.47	0.439857
2758.81	0.321605
2760.14	0.609066
2761.48	-0.188362
2762.81	-0.0011797
2764.15	0.432276
2765.49	-0.0892401
2766.82	0.314729
2768.15	0.298117
2769.49	0.10661
2770.82	0.202738
2772.16	0.45613
2773.49	-0.0567627
2774.82	0.237954
2776.16	-0.216902
2777.49	0.0345812
2778.82	0.0849056
2780.16	0.0207415
2781.49	0.258562
2782.82	0.151739
2784.15	-0.12711
2785.48	-0.434284
2786.81	0.0755234
2788.15	0.0269661
2789.48	0.122352
2790.81	0.132801
2792.14	0.101181
2793.47	-0.101478
2794.8	0.382005
2796.13	0.250493
2797.46	0.118461
2798.79	0.0144663
2800.12	0.166996
2801.44	-0.0232687
2802.77	0.328242
2804.1	0.337092
2805.43	0.259989
2806.76	0.210783
2808.08	0.14673
2809.41	-0.116652
2810.74	-0.0671902
2812.07	-0.23004
2813.39	0.487825
2814.72	0.15748
2816.05	0.183246
2817.37	0.167687
2818.7	0.110241
2820.02	0.534703
2821.35	0.193316
2822.67	0.1772
2824	0.0754099
2825.32	0.157431
2826.65	0.0412025
2827.97	0.0105095
2829.29	0.334333
2830.62	0.233932
2831.94	0.445188
2833.26	0.359111
2834.59	1.03701
2835.91	0.681103
2837.23	1.04633
2838.55	0.632882
2839.88	1.12449
2841.2	1.17768
2842.52	1.74018
2843.84	1.215
2845.16	1.68
2846.48	1.65106
2847.8	2.3716
2849.12	2.2018
2850.44	2.39913
2851.76	2.34146
2853.08	2.18426
2854.4	2.71904
2855.72	2.41986
2857.04	2.30439
2858.36	2.52801
2859.68	2.75155
2861	2.81948
2862.32	3.56464
2863.63	3.57509
2864.95	3.4582
2866.27	3.79275
2867.58	3.53514
2868.9	4.37797
2870.22	4.50206
2871.53	4.66862
2872.85	4.3415
2874.17	4.47855
2875.48	4.62826
2876.8	4.31184
2878.11	4.38871
2879.43	4.76046
2880.74	4.20453
2882.06	4.63361
2883.37	4.65639
2884.69	4.69443
2886	4.55074
2887.31	4.57561
2888.63	4.76832
2889.94	4.66535
2891.25	4.60347
2892.57	4.89125
2893.88	5.09451
2895.19	4.70996
2896.5	5.13857
2897.82	5.40034
2899.13	5.1037
2900.44	5.19987
2901.75	5.24067
2903.06	5.51953
2904.37	5.25304
2905.68	5.60236
2906.99	5.30898
2908.3	5.38027
2909.61	6.20819
2910.92	6.18352
2912.23	6.34079
2913.54	6.52516
2914.85	6.32974
2916.16	6.70611
2917.46	6.85637
2918.77	6.90733
2920.08	6.9021
2921.39	6.95367
2922.7	7.13263
2924	7.38326
2925.31	7.69128
2926.62	7.62272
2927.92	8.02954
2929.23	7.68097
2930.53	7.63924
2931.84	8.21198
2933.15	7.73595
2934.45	7.81905
2935.76	7.77652
2937.06	7.87396
2938.37	7.52449
2939.67	7.02171
2940.98	6.85497
2942.28	7.0666
2943.58	6.46918
2944.89	6.41844
2946.19	6.53695
2947.49	6.64235
2948.8	6.22967
2950.1	5.61931
2951.4	5.32863
2952.7	5.53979
2954.01	5.20322
2955.31	5.18826
2956.61	5.67824
2957.91	4.50502
2959.21	4.3846
2960.51	4.91165
2961.81	4.41844
2963.11	4.75317
2964.41	4.63849
2965.71	4.73275
2967.01	3.95379
2968.31	4.57861
2969.61	4.17636
2970.91	4.63178
2972.21	3.99043
2973.51	3.92614
2974.81	3.58029
2976.1	3.30399
2977.4	3.33597
2978.7	3.38011
2980	2.92959
2981.29	3.097
2982.59	2.85577
2983.89	2.40425
2985.18	2.69917
2986.48	2.44764
2987.78	2.3805
2989.07	2.0756
2990.37	1.9537
2991.66	2.21076
2992.96	2.22775
2994.25	1.6813
2995.55	1.58339
2996.84	1.44267
2998.14	1.21766
2999.43	1.18951
3000.72	0.951672
3002.02	1.09311
3003.31	0.912648
3004.6	0.95658
3005.9	1.07025
3007.19	0.581287
3008.48	0.46968
3009.77	0.413234
3011.07	0.244341
3012.36	0.717514
3013.65	0.604058
3014.94	0.198521
3016.23	0.421195
3017.52	0.212837
3018.81	0.325339
3020.1	-0.132346
3021.39	0.216217
3022.68	0.0634804
3023.97	-0.0483618
3025.26	0.29676
3026.55	0.073164
3027.84	-0.246325
3029.13	-0.17696
3030.42	-0.202845
3031.71	0.297646
3033	-0.0846319
3034.28	-0.162642
3035.57	0.21415
3036.86	0.203202
3038.15	0.162868
3039.43	0.148182
3040.72	-0.170465
3042.01	-0.146027
3043.29	0.344329
3044.58	0.122573
3045.86	0.491071
3047.15	0.0143366
3048.44	-0.227093
3049.72	-0.111217
3051.01	-0.130151
3052.29	0.192956
3053.58	0.0249252
3054.86	0.047308
3056.14	0.38233
3057.43	0.402451
3058.71	0.367255
3060	0.672253
3061.28	0.256145
3062.56	-0.00880527
3063.84	0.135848
3065.13	0.350102
3066.41	0.361984
3067.69	0.293448
3068.97	0.524561
3070.25	0.347495
3071.54	0.196766
3072.82	0.0856428
3074.1	-0.0538301
3075.38	-0.180498
3076.66	0.154424
3077.94	-0.229875
3079.22	0.038599
3080.5	-0.179791
3081.78	0.241108
3083.06	0.147923
3084.34	-0.229418
3085.62	0.126116
3086.9	-0.0479851
3088.17	0.103011
3089.45	0.253343
3090.73	0.118269
3092.01	0.335908
3093.29	0.0111599
3094.56	-0.245249
3095.84	-0.0944309
3097.12	-0.0925927
3098.4	0.0990386
3099.67	-0.0482264
3100.95	0.197413
3102.22	0.307671
3103.5	0.201639
3104.77	-0.0931964
3106.05	0.249002
3107.33	0.118561
3108.6	0.300564
3109.88	0.470316
3111.15	0.221568
3112.43	0.0277443
3113.7	0.024014
3114.97	0.0474906
3116.25	0.233332
3117.52	0.41848
3118.79	0.0464907
3120.07	0.134643
3121.34	0.154136
3122.61	0.28153
3123.88	0.30037
3125.16	0.427811
3126.43	0.136159
3127.7	0.548972
3128.97	0.48882
3130.24	0.375114
3131.51	0.815909
3132.78	0.71587
3134.05	0.77773
3135.33	0.488107
3136.59	0.414179
3137.86	0.78486
3139.14	0.669765
3140.41	0.770155
3141.67	0.897454
3142.94	0.823466
3144.21	0.830813
3145.48	0.570628
3146.75	0.646842
3148.02	0.857763
3149.28	0.801401
