200.43	-0.0860052
202.246	-0.0524597
204.061	-0.0182619
205.875	0.162792
207.688	0.975967
209.501	-0.0591755
211.316	-0.0746231
213.129	0.223767
214.941	-0.401413
216.753	-0.129758
218.566	0.286733
220.377	0.1707
222.188	0.346009
223.999	-0.251614
225.809	0.215151
227.618	-0.308966
229.43	-0.157084
231.239	0.235185
233.047	-0.314268
234.855	-0.260167
236.663	0.397771
238.471	0.551592
240.278	0.635951
242.087	-0.000380516
243.894	0.618597
245.7	0.706995
247.506	0.455468
249.311	1.31124
251.116	1.31792
252.921	1.32094
254.725	1.39396
256.529	1.34564
258.333	0.888578
260.136	0.963768
261.939	1.49889
263.744	1.55423
265.546	1.46627
267.348	0.727904
269.15	0.470845
270.951	1.08055
272.752	1.06195
274.552	0.12532
276.353	-0.138149
278.152	0.463804
279.952	0.508799
281.751	0.214224
283.55	0.759499
285.348	0.268831
287.146	0.498126
288.942	0.199312
290.739	0.404882
292.536	0.228552
294.333	0.389073
296.129	0.407608
297.925	0.0927267
299.721	0.877595
301.516	0.634642
303.311	0.892157
305.106	1.33877
306.9	1.21122
308.694	0.0583925
310.486	1.05161
312.279	0.497244
314.072	0.326054
315.864	0.823696
317.656	0.918657
319.448	0.777243
321.24	0.184211
323.029	0.545267
324.819	-0.142699
326.61	0.553384
328.4	0.174855
330.19	0.966416
331.977	0.561409
333.766	0.369332
335.555	0.509624
337.343	1.10179
339.131	0.088273
340.917	1.20185
342.704	0.831384
344.491	0.676127
346.277	0.115462
348.062	-0.276982
349.848	1.02624
351.633	0.825225
353.416	0.432671
355.201	-0.271029
356.986	0.025713
358.77	0.0346088
360.552	0.256428
362.335	0.0484533
364.118	-0.326575
365.899	0.46224
367.682	0.465411
369.464	0.491205
371.243	0.894838
373.025	0.444927
374.806	0.846292
376.585	0.680216
378.365	0.279265
380.143	0.304155
381.923	1.22473
383.702	1.01645
385.479	2.29099
387.258	0.910631
389.034	0.284318
390.812	0.645855
392.59	0.749908
394.365	0.220578
396.142	1.10074
397.916	0.830244
399.693	1.05273
401.467	1.36862
403.242	0.932093
405.015	0.424207
406.79	0.901793
408.565	1.54279
410.337	0.586907
412.111	0.828305
413.882	1.44552
415.656	1.0311
417.426	0.828826
419.197	1.19049
420.969	1.1301
422.739	1.91444
424.51	0.913872
426.279	1.43803
428.05	0.693442
429.819	0.629058
431.589	1.47997
433.356	-0.203552
435.124	0.671517
436.893	0.396552
438.66	0.425869
440.428	0.476959
442.194	0.197263
443.96	0.360733
445.727	0.240679
447.492	0.798122
449.259	0.348458
451.023	0.0164871
452.787	0.292371
454.553	0.171517
456.316	-0.415313
458.079	0.326036
459.844	0.437963
461.606	0.29469
463.368	0.19983
465.132	0.433062
466.893	-0.0739727
468.654	0.374836
470.415	-0.197003
472.177	0.324902
473.937	0.520602
475.696	-0.170652
477.456	0.0903854
479.217	1.09475
480.975	0.630313
482.733	1.09771
484.491	0.49512
486.251	-0.0587902
488.008	1.34716
489.765	1.17133
491.522	0.856505
493.278	0.892428
495.036	1.11579
496.791	1.15219
498.546	0.625997
500.301	1.01289
502.056	0.78944
503.81	0.141785
505.566	0.361551
507.319	0.60349
509.073	0.255714
510.825	0.282361
512.578	1.03665
514.33	0.636151
516.082	0.610529
517.833	0.724584
519.587	0.155624
521.337	0.38517
523.088	1.01314
524.838	1.12381
526.588	0.0144835
528.337	-0.179237
530.087	0.705106
531.835	0.838543
533.584	0.526133
535.332	0.703963
537.08	0.529296
538.827	0.306605
540.574	1.08578
542.321	0.278258
544.068	0.705229
545.814	0.0390158
547.56	0.952787
549.305	0.149263
551.05	0.297218
552.795	-0.0175533
554.54	0.870107
556.284	0.371284
558.027	0.0583973
559.771	0.483926
561.514	0.771256
563.257	0.943826
564.999	-0.147317
566.742	0.647328
568.481	0.362989
570.223	0.424385
571.964	0.487359
573.705	-0.112961
575.445	0.504603
577.185	0.183568
578.925	-0.296816
580.665	0.0730438
582.402	0.0987368
584.141	-0.17499
585.879	-0.128089
587.617	-0.105556
589.355	-0.130384
591.092	0.0738125
592.828	0.185386
594.564	-0.00232315
596.301	0.316179
598.037	-0.0325356
599.773	-0.059536
601.506	-0.179456
603.242	0.0212421
604.976	0.358104
606.711	0.371454
608.443	0.934978
610.177	0.00586796
611.91	-0.0729465
613.644	-0.334206
615.374	-0.319444
617.107	0.428666
618.839	0.053462
620.569	-0.162366
622.3	0.581451
624.032	0.248832
625.761	-0.0376368
627.491	0.111203
629.221	0.102389
630.949	0.0962925
632.679	0.183844
634.408	-0.366365
636.135	-0.00396824
637.863	-0.305391
639.592	0.348812
641.318	0.3376
643.045	0.118423
644.77	-0.101817
646.497	-0.503345
648.224	-0.220283
649.948	-0.0476809
651.674	-0.257114
653.398	0.65152
655.123	0.314075
656.846	0.639075
658.57	-0.0141888
660.293	0.927973
662.017	0.728202
663.738	0.776769
665.462	0.365247
667.185	0.271369
668.905	0.496755
670.628	0.356974
672.348	0.402438
674.067	-0.0530233
675.789	0.891415
677.508	0.577282
679.228	0.193842
680.947	0.889048
682.667	0.225934
684.385	-0.279342
686.104	0.847687
687.821	-0.122481
689.538	0.103652
691.256	-0.108685
692.972	-0.275631
694.69	0.109407
696.406	0.815626
698.121	0.71437
699.837	0.657719
701.552	0.277806
703.268	0.494809
704.982	0.526978
706.695	0.489647
708.41	0.0161724
710.123	0.688704
711.836	0.215019
713.55	0.61097
715.262	0.617507
716.973	0.692475
718.685	0.630552
720.398	0.135891
722.108	0.621488
723.818	0.924309
725.53	0.976406
727.24	0.460267
728.949	0.0580521
730.658	0.336221
732.369	0.568103
734.077	0.731438
735.785	0.849299
737.493	0.741549
739.2	1.10855
740.909	-0.552702
742.616	0.290215
744.322	0.975991
746.028	0.470058
747.734	0.910948
749.441	2.00549
751.146	0.514882
752.851	1.16259
754.555	1.56464
756.26	0.438357
757.963	0.528758
759.667	1.58968
761.372	0.601732
763.075	0.808792
764.777	0.857836
766.479	1.94504
768.181	1.22281
769.883	1.65069
771.584	1.51093
773.285	0.532777
774.986	0.797803
776.686	1.44775
778.386	1.14955
780.085	1.01134
781.785	1.80194
783.484	1.30329
785.182	2.13867
786.881	1.04726
788.579	1.31043
790.276	1.63745
791.974	1.82517
793.671	0.949323
795.367	2.03734
797.064	1.07347
798.76	1.1265
800.456	1.42911
802.151	1.53062
803.846	1.52043
805.541	1.46515
807.236	2.21786
808.93	2.09256
810.624	2.07816
812.317	2.51112
814.01	1.71037
815.703	1.64939
817.394	1.38717
819.086	1.55008
820.778	1.24399
822.47	1.80901
824.161	1.1701
825.852	1.5141
827.543	1.25883
829.231	1.09593
830.921	1.18147
832.611	1.51536
834.3	1.4954
835.989	1.56584
837.676	1.32374
839.364	2.1965
841.053	1.52683
842.74	1.70419
844.426	1.43408
846.113	1.34342
847.8	1.9926
849.486	0.922609
851.171	1.53329
852.857	1.72152
854.542	1.82153
856.227	1.71943
857.911	1.30103
859.595	0.947495
861.279	1.35695
862.961	1.13417
864.645	0.549122
866.329	1.6534
868.01	0.953585
869.692	1.06486
871.375	1.06301
873.055	1.76031
874.737	0.923373
876.418	1.66589
878.097	1.12215
879.778	1.25533
881.457	0.91404
883.137	1.40719
884.817	1.08637
886.495	0.26751
888.174	1.0267
889.851	1.24222
891.53	0.892313
893.206	0.608925
894.884	1.5622
896.562	0.871445
898.237	1.12409
899.914	1.30777
901.589	0.88516
903.265	0.709043
904.94	0.711946
906.615	1.00524
908.289	1.03102
909.964	0.946383
911.637	1.12994
913.31	1.0917
914.984	0.854103
916.656	1.54872
918.33	0.757067
920.001	0.985542
921.674	1.1036
923.345	1.42173
925.015	0.658902
926.687	1.24586
928.357	1.63569
930.028	1.21034
931.698	0.543294
933.366	0.913591
935.037	1.17369
936.705	1.743
938.373	1.56343
940.043	0.900068
941.71	0.61296
943.379	1.2092
945.046	1.03309
946.712	1.27502
948.378	1.80176
950.046	0.648763
951.711	0.995157
953.376	1.40752
955.043	1.35842
956.708	1.04797
958.372	0.322061
960.036	0.613919
961.701	0.156957
963.364	1.0255
965.027	0.743132
966.69	0.612324
968.354	1.34117
970.016	0.496667
971.678	1.19971
973.339	1.46069
975	1.39162
976.661	0.970882
978.324	1.21541
979.984	1.02939
981.644	0.842816
983.303	0.732097
984.962	1.48247
986.621	0.813644
988.282	1.33778
989.94	0.997519
991.598	0.656817
993.256	0.515078
994.913	1.41108
996.57	0.541252
998.227	1.12762
999.884	1.73505
1001.54	2.58348
1003.2	1.20751
1004.85	1.35043
1006.51	1.09742
1008.16	1.92092
1009.82	1.11978
1011.47	1.59215
1013.12	1.05633
1014.78	1.11301
1016.43	0.316325
1018.08	0.549443
1019.74	0.805112
1021.39	0.49334
1023.04	0.642035
1024.69	0.966618
1026.34	0.679957
1028	0.546339
1029.65	0.477575
1031.3	0.494811
1032.95	0.837654
1034.6	0.938186
1036.25	1.23314
1037.9	1.06914
1039.55	1.12294
1041.19	1.50368
1042.84	1.66812
1044.49	1.29136
1046.14	1.50372
1047.79	1.93549
1049.43	1.41374
1051.08	1.28443
1052.73	1.46023
1054.37	1.41927
1056.02	1.29134
1057.66	1.42387
1059.31	1.70803
1060.95	1.40434
1062.6	1.03442
1064.24	1.3809
1065.88	0.965132
1067.53	0.200485
1069.17	0.608384
1070.81	0.928308
1072.46	0.900457
1074.1	0.0920525
1075.74	1.04233
1077.38	0.757564
1079.02	0.864666
1080.66	0.387192
1082.3	0.126573
1083.94	1.05752
1085.58	0.707275
1087.22	0.918209
1088.86	1.23468
1090.5	0.769631
1092.14	0.390381
1093.78	0.42154
1095.42	0.668575
1097.05	0.872973
1098.69	0.75554
1100.33	0.0375595
1101.97	0.678082
1103.6	0.26614
1105.24	0.802291
1106.87	1.70464
1108.51	0.219359
1110.15	0.517877
1111.78	0.341554
1113.41	0.679045
1115.05	0.799972
1116.68	0.254941
1118.31	1.06134
1119.95	0.196385
1121.58	0.960913
1123.21	0.249157
1124.85	0.394909
1126.48	1.11906
1128.11	0.646272
1129.74	0.815918
1131.37	0.494479
1133	0.622368
1134.63	0.237062
1136.26	0.513661
1137.89	0.746189
1139.52	1.21208
1141.15	0.651518
1142.78	0.624334
1144.41	-0.0638762
1146.04	0.848206
1147.66	-0.242537
1149.29	0.479294
1150.92	0.17892
1152.55	0.922148
1154.17	0.259478
1155.8	0.490581
1157.43	1.10432
1159.05	0.144157
1160.68	0.631441
1162.3	0.354421
1163.93	0.355007
1165.55	-0.0265331
1167.17	0.229495
1168.8	0.505533
1170.42	0.566939
1172.05	0.222342
1173.67	-0.208887
1175.29	0.250094
1176.91	0.114173
1178.54	0.635307
1180.16	-0.30407
1181.78	0.0068531
1183.4	0.487289
1185.02	0.713669
1186.64	0.0940256
1188.26	0.127482
1189.88	0.242899
1191.5	0.250577
1193.12	1.30768
1194.74	0.261299
1196.36	0.140332
1197.97	0.523231
1199.59	0.0288076
1201.21	1.43945
1202.83	0.0532722
1204.44	0.716907
1206.06	1.15312
1207.68	-0.0155573
1209.29	0.568589
1210.91	0.692797
1212.52	0.627273
1214.14	1.18429
1215.75	0.655047
1217.37	0.727779
1218.98	0.695195
1220.6	0.600198
1222.21	0.609866
1223.82	0.393039
1225.44	1.19285
1227.05	1.33128
1228.66	0.478498
1230.27	0.992483
1231.88	0.639429
1233.49	0.866613
1235.1	1.46725
1236.72	0.746574
1238.33	0.957196
1239.94	1.10668
1241.55	1.31852
1243.16	1.92312
1244.76	1.03717
1246.37	1.45344
1247.98	1.16491
1249.59	1.06169
1251.2	0.813269
1252.8	1.14432
1254.41	1.57956
1256.02	1.27148
1257.63	0.964835
1259.23	1.23884
1260.84	1.47267
1262.44	1.00319
1264.05	1.23772
1265.66	1.07819
1267.26	1.56026
1268.87	1.58525
1270.47	1.38087
1272.07	1.2581
1273.68	0.677967
1275.28	0.905219
1276.88	1.33846
1278.48	1.70825
1280.09	1.5386
1281.69	1.78262
1283.29	1.40591
1284.89	1.6712
1286.49	1.02778
1288.09	1.97739
1289.69	1.68788
1291.3	1.60571
1292.9	1.52345
1294.49	1.10977
1296.09	1.7893
1297.69	1.90896
1299.29	1.69625
1300.89	1.66745
1302.49	1.67833
1304.09	2.55228
1305.68	2.27226
1307.28	1.41708
1308.88	1.97886
1310.47	1.33032
1312.07	1.7481
1313.66	0.713873
1315.26	2.01213
1316.86	2.10477
1318.45	1.36151
1320.05	1.43468
1321.64	1.5881
1323.23	1.73934
1324.83	1.6035
1326.42	1.93311
1328.01	1.85564
1329.61	1.3538
1331.2	2.04831
1332.79	1.85514
1334.38	1.22091
1335.98	2.0222
1337.57	1.81489
1339.16	1.80858
1340.75	2.70655
1342.34	2.43303
1343.93	1.83581
1345.52	1.31885
1347.11	1.44486
1348.7	1.69278
1350.29	1.52302
1351.87	2.0567
1353.46	0.873092
1355.05	1.41078
1356.64	0.849616
1358.23	0.767688
1359.81	1.60325
1361.4	0.919838
1362.99	0.95423
1364.57	1.60613
1366.16	0.623748
1367.74	1.39578
1369.33	1.15337
1370.91	0.674009
1372.5	0.912792
1374.08	0.39676
1375.67	1.39376
1377.25	0.401066
1378.83	0.959865
1380.42	1.49749
1382	1.41662
1383.58	0.737587
1385.16	1.34987
1386.75	0.749074
1388.33	1.18161
1389.91	1.25726
1391.49	0.599749
1393.07	1.45122
1394.65	0.259923
1396.23	0.952692
1397.81	0.910782
1399.39	1.20453
1400.97	1.49682
1402.55	1.09523
1404.13	1.1688
1405.7	0.92653
1407.28	1.12033
1408.86	1.13719
1410.44	0.779376
1412.01	1.0931
1413.59	1.09006
1415.17	1.0267
1416.74	0.96235
1418.32	0.739882
1419.89	1.64085
1421.47	1.22301
1423.05	1.18139
1424.62	1.02372
1426.19	1.28092
1427.77	1.04673
1429.34	1.48144
1430.92	1.87562
1432.49	1.99272
1434.06	2.02979
1435.63	1.90889
1437.2	2.22083
1438.78	1.78659
1440.35	1.98269
1441.92	2.43546
1443.49	2.27991
1445.06	3.02894
1446.63	2.10757
1448.2	2.32637
1449.77	2.86011
1451.34	2.01824
1452.91	2.6124
1454.48	2.45982
1456.05	2.60225
1457.62	2.15352
1459.18	2.90355
1460.75	2.2737
1462.32	1.95638
1463.89	2.42375
1465.45	1.80818
1467.02	1.54636
1468.59	1.8546
1470.15	1.57492
1471.72	1.74808
1473.28	1.45178
1474.85	1.37228
1476.41	0.646296
1477.98	1.66542
1479.54	1.35126
1481.11	0.88025
1482.67	1.36949
1484.23	1.66247
1485.8	1.58267
1487.36	0.933955
1488.92	1.69362
1490.48	0.982673
1492.05	1.07156
1493.61	1.66539
1495.17	1.3386
1496.73	1.24501
1498.29	0.606426
1499.85	1.34998
1501.41	1.1613
1502.97	0.644808
1504.53	0.672915
1506.09	0.604488
1507.65	0.767517
1509.2	0.0016346
1510.76	0.721892
1512.32	0.976754
1513.88	0.0949259
1515.44	0.349602
1516.99	0.335552
1518.55	0.0156364
1520.1	0.76983
1521.66	0.680698
1523.22	0.706052
1524.77	0.8449
1526.33	0.562671
1527.88	0.260965
1529.44	0.453786
1530.99	0.702937
1532.55	0.459011
1534.1	0.103156
1535.65	0.203309
1537.21	0.738924
1538.76	0.217255
1540.31	0.300486
1541.86	0.251799
1543.42	0.0336771
1544.97	0.454996
1546.52	0.443193
1548.07	0.0934496
1549.62	0.1005
1551.17	0.0328331
1552.72	0.901182
1554.27	0.423395
1555.82	1.33006
1557.37	0.483191
1558.92	0.628374
1560.47	0.663841
1562.02	0.08564
1563.57	0.217651
1565.11	1.09672
1566.66	0.875136
1568.21	1.1758
1569.75	0.3001
1571.3	0.917151
1572.85	0.787198
1574.39	0.99307
1575.94	1.10562
1577.49	0.863729
1579.03	0.323585
1580.58	0.344206
1582.12	0.552498
1583.67	1.21025
1585.21	0.449036
1586.75	1.2022
1588.3	0.609483
1589.84	0.745781
1591.38	0.806787
1592.93	0.698733
1594.47	0.665168
1596.01	1.24991
1597.55	1.19828
1599.09	1.48493
1600.63	1.20996
1602.18	1.96756
1603.72	1.35513
1605.26	1.07943
1606.8	1.4596
1608.34	1.3676
1609.87	1.19753
1611.41	1.66343
1612.95	1.24377
1614.49	1.21703
1616.03	1.18975
1617.57	0.975606
1619.11	0.894241
1620.64	0.833492
1622.18	1.33616
1623.72	0.884912
1625.25	1.40721
1626.79	0.880356
1628.32	0.950882
1629.86	0.851334
1631.4	0.993548
1632.93	1.22846
1634.47	1.35143
1636	1.38199
1637.53	0.77957
1639.07	1.70714
1640.6	0.956783
1642.14	1.2495
1643.67	1.13093
1645.2	1.42039
1646.73	1.28058
1648.27	1.67941
1649.8	1.2797
1651.33	1.82811
1652.86	1.17192
1654.39	2.11219
1655.92	1.71816
1657.45	1.52814
1658.98	1.68917
1660.51	1.49667
1662.04	1.48754
1663.57	1.34754
1665.1	1.63181
1666.63	1.49158
1668.16	1.3529
1669.69	1.60334
1671.21	1.52383
1672.74	1.70365
1674.27	1.23947
1675.79	1.54849
1677.32	1.52502
1678.85	1.24263
1680.37	0.995936
1681.9	0.987431
1683.42	0.996861
1684.95	1.15314
1686.47	1.18128
1688	1.15497
1689.52	0.70785
1691.05	0.591063
1692.57	0.840507
1694.1	0.650616
1695.62	0.698361
1697.14	0.855371
1698.66	0.756101
1700.19	0.492141
1701.71	0.300822
1703.23	0.50999
1704.75	0.226468
1706.27	0.288523
1707.79	0.477371
1709.32	0.0481987
1710.83	0.654289
1712.35	0.0265455
1713.88	0.740725
1715.39	0.295238
1716.91	0.175967
1718.43	0.273602
1719.95	0.208452
1721.47	-0.0548763
1722.99	0.205721
1724.5	0.0347624
1726.02	0.117684
1727.54	0.0761709
1729.06	0.161862
1730.57	0.176937
1732.09	0.138886
1733.61	0.270978
1735.12	-0.0980968
1736.64	-0.211644
1738.15	0.421022
1739.67	-0.0180397
1741.18	0.323647
1742.7	0.38413
1744.21	0.369631
1745.72	0.399045
1747.24	0.465301
1748.75	0.0451307
1750.26	-0.19586
1751.78	-0.069066
1753.29	-0.160638
1754.8	-0.372961
1756.31	0.078826
1757.82	-0.227077
1759.34	-0.485956
1760.85	-0.299295
1762.36	-0.0724621
1763.87	0.281736
1765.38	0.426363
1766.89	-0.0088768
1768.4	0.387067
1769.91	0.0585117
1771.41	0.150671
1772.92	-0.105464
1774.43	-0.00953293
1775.94	-0.378903
1777.45	0.348101
1778.96	0.223013
1780.46	-0.461595
1781.97	0.218409
1783.48	0.328189
1784.98	0.124562
1786.49	0.234702
1788	-0.0132561
1789.5	0.380342
1791.01	-0.202625
1792.51	0.0456257
1794.01	-0.118324
1795.52	0.149128
1797.02	0.142389
1798.53	0.264336
1800.03	-0.0664864
1801.54	-0.0286856
1803.04	0.030014
1804.54	-0.287868
1806.04	0.0573559
1807.54	0.0838413
1809.05	0.292386
1810.55	0.265715
1812.05	-0.0146713
1813.55	0.218609
1815.05	0.0627861
1816.55	0.285633
1818.05	0.277487
1819.55	0.217942
1821.05	0.0789862
1822.55	0.168242
1824.05	-0.0699425
1825.55	0.384591
1827.05	0.147069
1828.55	0.303281
1830.04	0.28571
1831.54	0.0118771
1833.04	0.268198
1834.54	-0.0234013
1836.03	0.41759
1837.53	0.265437
1839.03	0.0442982
1840.52	0.178312
1842.02	0.254857
1843.51	0.187197
1845.01	0.215563
1846.5	0.0936232
1848	0.0765944
1849.49	-0.221928
1850.99	-0.0657396
1852.48	0.00243473
1853.97	-0.052042
1855.47	0.0514078
1856.96	0.0958824
1858.45	0.0338154
1859.94	0.263403
1861.44	0.124853
1862.93	-0.0465918
1864.42	0.258377
1865.91	0.111814
1867.4	-0.137531
1868.89	-0.0683022
1870.38	0.0490799
1871.87	0.131289
1873.36	0.0965443
1874.85	-0.0694714
1876.34	-0.112888
1877.83	0.277927
1879.32	-0.190919
1880.81	0.153584
1882.3	0.0488949
1882.56	0.00432682
1884.06	-0.279266
1885.55	0.0463104
1887.04	0.231213
1888.54	0.0149517
1890.03	0.0949488
1891.52	0.245662
1893.02	-0.0711527
1894.51	-0.177047
1896	0.153594
1897.49	0.137525
1898.99	-0.209214
1900.48	0.382163
1901.97	0.119138
1903.46	0.184469
1904.95	0.0915451
1906.44	0.154136
1907.93	-0.0264597
1909.42	-0.570624
1910.91	0.326876
1912.4	0.340283
1913.89	-0.113883
1915.38	0.299243
1916.86	-0.10303
1918.35	-0.0551167
1919.84	-0.267659
1921.33	0.00483227
1922.82	0.329623
1924.3	-0.106364
1925.79	0.307399
1927.28	0.0126877
1928.76	-0.212033
1930.25	-0.19443
1931.74	-0.00462341
1933.22	-0.041688
1934.71	0.247996
1936.19	-0.0701513
1937.67	0.181204
1939.16	0.448963
1940.64	-0.543718
1942.13	-0.170874
1943.61	0.409877
1945.09	-0.319276
1946.58	0.210916
1948.06	-0.103951
1949.54	-0.023283
1951.03	0.0216646
1952.51	-0.0722017
1953.99	0.0912895
1955.47	0.374762
1956.95	0.143203
1958.43	0.256033
1959.91	0.0265913
1961.39	-0.219118
1962.87	0.0498171
1964.35	-0.110019
1965.83	0.466026
1967.31	-0.379931
1968.79	-0.0112619
1970.27	0.253664
1971.75	0.0396461
1973.22	-0.00344753
1974.7	0.294759
1976.18	0.0303402
1977.66	-0.09723
1979.13	0.0307989
1980.61	-0.232592
1982.09	-0.189871
1983.56	-0.0965977
1985.04	0.0300684
1986.52	-0.19991
1987.99	0.231381
1989.47	0.49308
1990.94	0.382999
1992.41	0.257356
1993.89	0.420497
1995.36	0.280373
1996.84	-0.0280361
1998.31	0.102792
1999.78	-0.32411
2001.26	-0.397017
2002.73	0.271676
2004.2	0.231527
2005.67	0.124469
2007.15	-0.18368
2008.62	-0.120017
2010.09	0.298228
2011.56	-0.124657
2013.03	-0.0256062
2014.5	0.342145
2015.97	-0.0146627
2017.44	0.283531
2018.91	0.143386
2020.38	0.305145
2021.85	0.332231
2023.32	0.141526
2024.79	0.186889
2026.25	-0.0514288
2027.72	0.181735
2029.19	-0.203829
2030.66	-0.118135
2032.13	-0.148686
2033.59	0.291382
2035.06	0.177556
2036.53	0.214375
2037.99	0.116129
2039.46	0.0677834
2040.92	-0.131928
2042.39	0.240449
2043.85	-0.126074
2045.32	0.181333
2046.78	0.153267
2048.25	0.428772
2049.71	0.23224
2051.18	0.118547
2052.64	0.087183
2054.1	0.171623
2055.56	-0.117081
2057.03	-0.0870104
2058.49	-0.479168
2059.95	0.54369
2061.42	0.185639
2062.88	-0.103809
2064.34	0.449598
2065.8	0.162728
2067.26	-0.0389299
2068.72	0.349196
2070.18	-0.120676
2071.64	0.251179
2073.1	0.319886
2074.56	-0.0832109
2076.02	-0.318362
2077.48	0.220698
2078.94	-0.0153656
2080.39	0.404744
2081.85	0.521012
2083.31	0.569063
2084.77	0.245947
2086.22	0.679088
2087.68	-0.284451
2089.14	0.130471
2090.6	0.0744286
2092.05	0.454849
2093.51	0.180373
2094.96	0.610211
2096.42	-0.452697
2097.87	-0.141644
2099.33	-0.30037
2100.78	0.310017
2102.24	0.0341549
2103.69	-0.0065012
2105.15	0.0879869
2106.6	0.451016
2108.05	0.331462
2109.51	0.0623074
2110.96	0.292715
2112.41	0.537977
2113.86	0.198007
2115.32	0.322453
2116.77	0.345859
2118.22	0.236781
2119.67	-0.00323868
2121.12	0.37319
2122.57	0.270777
2124.02	0.253112
2125.47	0.236236
2126.92	0.053237
2128.37	0.581852
2129.82	0.445632
2131.27	0.0926266
2132.72	0.0535564
2134.17	0.527342
2135.62	-0.271505
2137.06	-0.340694
2138.51	-0.0441246
2139.96	0.304248
2141.41	0.853084
2142.85	-0.0680113
2144.3	0.235168
2145.75	0.356713
2147.19	0.494555
2148.64	0.201093
2150.09	0.320596
2151.53	0.505223
2152.97	0.672107
2154.42	0.374071
2155.86	0.290912
2157.31	0.456362
2158.75	0.192003
2160.2	0.774114
2161.64	0.695797
2163.08	0.951307
2164.53	0.794278
2165.97	1.36859
2167.41	0.996558
2168.86	1.10482
2170.3	0.62879
2171.74	0.349519
2173.18	0.833112
2174.62	0.749419
2176.06	0.598548
2177.5	0.963443
2178.94	0.946832
2180.38	0.765211
2181.82	0.834069
2183.26	0.720752
2184.7	1.00694
2186.14	0.661164
2187.58	0.73127
2189.02	0.718259
2190.46	0.655285
2191.89	0.325586
2193.33	0.511064
2194.77	0.495137
2196.21	0.277265
2197.64	0.523015
2199.08	0.616766
2200.52	0.592834
2201.95	0.236742
2203.39	0.578777
2204.83	0.540387
2206.26	0.321008
2207.7	0.41722
2209.13	0.778066
2210.57	0.492106
2212	0.271396
2213.43	0.0666208
2214.87	-0.005867
2216.3	0.483695
2217.73	0.182234
2219.17	0.162899
2220.6	0.325956
2222.03	0.324252
2223.47	0.486416
2224.9	0.267984
2226.33	0.524903
2227.76	0.450544
2229.19	0.2762
2230.62	0.642638
2232.05	0.631124
2233.49	0.456326
2234.91	0.724342
2236.34	0.339913
2237.77	0.529443
2239.2	0.655885
2240.63	0.458557
2242.06	0.491915
2243.49	0.20062
2244.92	0.49693
2246.35	0.49881
2247.78	0.368221
2249.2	-0.00950146
2250.63	0.457616
2252.06	-0.233813
2253.48	0.554811
2254.91	0.53007
2256.34	0.40982
2257.76	0.714602
2259.19	0.195479
2260.61	-0.0766191
2262.04	0.936399
2263.46	0.312097
2264.89	0.369974
2266.31	0.118498
2267.74	0.10981
2269.16	0.327828
2270.59	-0.154987
2272.01	0.66398
2273.43	-0.0966702
2274.85	0.641135
2276.28	0.646337
2277.7	0.798456
2279.12	0.0377979
2280.54	0.157241
2281.97	0.0319328
2283.39	0.183824
2284.81	0.205294
2286.23	0.292352
2287.65	-0.0119457
2289.07	0.419123
2290.49	0.328143
2291.91	-0.040453
2293.33	0.244957
2294.75	0.546957
2296.17	0.243473
2297.59	0.430941
2299.01	0.585879
2300.42	0.151161
2301.84	-0.0540285
2303.26	-0.111415
2304.68	0.553594
2306.1	0.102416
2307.51	0.0447016
2308.93	0.150653
2310.35	0.35463
2311.76	0.360857
2313.18	0.317698
2314.59	0.32442
2316.01	0.760221
2317.43	0.0112247
2318.84	0.0532331
2320.26	-0.267878
2321.67	0.0694008
2323.08	0.42106
2324.5	0.489261
2325.91	0.0761337
2327.33	0.601206
2328.74	0.201883
2330.15	0.577407
2331.56	0.0482273
2332.98	-0.0512466
2334.39	-0.198984
2335.8	-0.214763
2337.21	0.377419
2338.62	-0.084178
2340.04	-0.497464
2341.45	-0.303798
2342.86	0.561867
2344.27	0.52437
2345.68	0.290621
2347.09	0.450624
2348.5	0.184881
2349.91	0.0334911
2351.31	0.453466
2352.72	-0.206409
2354.13	0.292234
2355.54	0.577129
2356.95	-0.360128
2358.36	0.168387
2359.76	-0.360122
2361.17	-0.189511
2362.58	0.191483
2363.98	0.00471401
2365.39	-0.392037
2366.8	0.133455
2368.21	0.0612841
2369.61	0.297034
2371.02	0.0827513
2372.42	-0.129598
2373.83	0.126473
2375.23	0.0447712
2376.64	-0.262581
2378.04	-0.0724554
2379.44	0.404727
2380.85	0.204784
2382.25	0.260038
2383.66	-0.0543032
2385.06	0.223668
2386.46	-0.0496721
2387.86	-0.32128
2389.26	-0.0727262
2390.67	0.0176287
2392.07	0.0137806
2393.47	-0.338861
2394.87	0.120946
2396.27	-0.197742
2397.67	0.136167
2399.07	-0.117279
2400.47	-0.163488
2401.87	0.235437
2403.27	0.173742
2404.67	0.127478
2406.07	0.254756
2407.47	-0.253895
2408.87	0.20438
2410.27	-0.0673475
2411.67	0.247678
2413.07	0.294243
2414.46	0.215743
2415.86	0.202444
2417.26	0.0483274
2418.66	-0.294719
2420.05	0.439481
2421.45	-0.0300541
2422.84	-0.135801
2424.24	0.0908346
2425.64	0.729617
2427.03	0.592668
2428.43	0.218988
2429.82	0.00484467
2431.22	0.188062
2432.61	0.0223627
2434.01	0.538782
2435.4	0.196252
2436.79	0.328371
2438.19	0.458577
2439.58	0.52357
2440.97	0.20625
2442.37	0.0948372
2443.76	0.760684
2445.15	0.791314
2446.54	0.0607138
2447.93	0.471587
2449.33	0.24848
2450.72	0.500858
2452.11	0.611289
2453.5	-0.0210171
2454.89	0.202311
2456.28	0.078434
2457.67	0.128958
2459.06	-0.0579767
2460.45	-0.466973
2461.84	0.16673
2463.23	0.277518
2464.62	0.0241194
2466	0.0864143
2467.39	0.243255
2468.78	0.147442
2470.17	0.508811
2471.55	-0.0292168
2472.94	0.314673
2474.33	-0.287353
2475.72	0.117432
2477.1	0.269654
2478.49	-0.269404
2479.87	0.228253
2481.26	-0.450608
2482.65	0.218876
2484.03	0.244867
2485.42	-0.152556
2486.8	-0.0506353
2488.19	-0.418391
2489.57	0.164503
2490.95	0.309953
2492.34	0.346898
2493.72	0.0745916
2495.1	-0.0558815
2496.49	-0.0450954
2497.87	0.121598
2499.25	0.412206
2500.63	-0.0868425
2502.02	0.202085
2503.4	0.149611
2504.78	0.219523
2506.16	0.442595
2507.54	0.0184851
2508.92	0.41026
2510.3	0.202825
2511.68	-0.325558
2513.06	0.328257
2514.44	0.20094
2515.82	0.212653
2517.2	0.577143
2518.58	-0.0671186
2519.96	-0.618821
2521.34	0.112629
2522.72	-0.210733
2524.1	0.212681
2525.47	0.345007
2526.85	0.431116
2528.23	-0.121424
2529.6	-0.0331964
2530.98	-0.201508
2532.36	0.0577765
2533.74	0.0451593
2535.11	0.170142
2536.49	-0.14552
2537.86	0.282384
2539.24	0.177394
2540.61	-0.0500259
2541.99	0.253481
2543.36	0.238532
2544.74	0.042634
2546.11	0.288183
2547.49	0.0802002
2548.86	0.26766
2550.23	0.288332
2551.61	0.520863
2552.98	0.570137
2554.35	0.511862
2555.72	0.391783
2557.09	0.195235
2558.47	0.0289736
2559.84	0.0602083
2561.21	-0.180729
2562.58	0.185359
2563.95	0.339954
2565.32	0.389008
2566.69	0.195896
2568.06	0.336304
2569.43	0.416108
2570.8	-0.0042448
2572.17	-0.151754
2573.54	0.307161
2574.91	-0.0826845
2576.28	0.346142
2577.65	0.153287
2579.02	0.0056181
2580.39	-0.00601482
2581.75	0.0273409
2583.12	-0.0307236
2584.49	0.593132
2585.85	0.74689
2587.22	0.339982
2588.59	-0.00599861
2589.95	0.602943
2591.32	0.302423
2592.68	0.168043
2594.05	-0.239954
2595.42	0.501934
2596.78	-0.105186
2598.15	0.618598
2599.51	0.161832
2600.88	0.47634
2602.24	0.745842
2603.6	0.0800571
2604.97	0.577393
2606.33	0.0639572
2607.69	0.681378
2609.06	0.106542
2610.42	0.0881443
2611.78	-0.217787
2613.14	-0.0283823
2614.51	0.279891
2615.87	-0.223043
2617.23	-0.394883
2618.59	0.0333557
2619.95	0.132596
2621.31	0.0232496
2622.67	0.407777
2624.03	0.209722
2625.39	0.549049
2626.75	0.574451
2628.11	-0.235054
2629.47	0.281453
2630.83	0.0530205
2632.19	0.657294
2633.55	0.280193
2634.91	0.319238
2636.26	0.224712
2637.62	0.234051
2638.98	0.0509672
2640.34	0.386169
2641.69	0.218555
2643.05	-0.0518761
2644.41	0.549253
2645.76	0.279071
2647.12	0.111959
2648.48	0.268295
2649.83	0.114326
2651.19	0.386137
2652.54	0.333941
2653.9	0.252803
2655.25	0.509876
2656.6	0.284603
2657.96	0.163538
2659.31	0.160736
2660.67	0.173047
2662.02	0.170539
2663.37	0.0358486
2664.73	0.732302
2666.08	0.376687
2667.43	0.312499
2668.78	0.0153322
2670.14	0.519216
2671.49	0.325137
2672.84	0.437238
2674.19	0.404773
2675.54	0.315006
2676.89	-0.180196
2678.24	0.674572
2679.59	0.12344
2680.94	0.182704
2682.29	-0.0175428
2683.64	0.363635
2684.99	0.22399
2686.34	0.244424
2687.69	0.540416
2689.04	0.530191
2690.39	0.445251
2691.74	0.256458
2693.08	-0.0936594
2694.43	0.265924
2695.78	0.523477
2697.13	0.26008
2698.47	0.4474
2699.82	0.694667
2701.17	0.654533
2702.51	0.775629
2703.86	0.246052
2705.21	0.629999
2706.55	0.651743
2707.9	0.615129
2709.24	0.127948
2710.58	0.220815
2711.93	0.371532
2713.27	0.246077
2714.62	0.382101
2715.96	0.678069
2717.3	0.377707
2718.65	0.469667
2719.99	-0.151798
2721.33	0.0264063
2722.68	0.480618
2724.02	0.541306
2725.36	0.193895
2726.71	0.704782
2728.05	0.443847
2729.39	0.4155
2730.73	0.32878
2732.07	0.460272
2733.41	0.65003
2734.75	0.563606
2736.09	0.17201
2737.43	0.289656
2738.77	0.552686
2740.11	0.233688
2741.45	0.423073
2742.79	0.771494
2744.13	0.377681
2745.47	0.448233
2746.81	0.314905
2748.14	0.544339
2749.48	0.396402
2750.82	0.147319
2752.16	0.275668
2753.49	0.085371
2754.83	0.373513
2756.17	0.690607
2757.5	0.211352
2758.84	0.239326
2760.18	0.426967
2761.51	0.484907
2762.85	0.181685
2764.18	0.124851
2765.52	0.371831
2766.85	0.64713
2768.19	0.602958
2769.52	0.701762
2770.86	0.0182791
2772.19	0.47482
2773.52	-0.470207
2774.86	0.157115
2776.19	0.22156
2777.52	0.372679
2778.86	0.0497026
2780.19	-0.12848
2781.52	-0.162436
2782.85	0.449536
2784.19	0.142781
2785.52	-0.00593853
2786.85	-0.096941
2788.18	0.156312
2789.51	0.281485
2790.84	0.221724
2792.17	-0.123014
2793.5	0.176227
2794.83	0.118076
2796.16	0.116697
2797.49	0.314622
2798.82	0.283269
2800.15	0.194333
2801.48	0.262065
2802.81	0.315232
2804.13	0.19701
2805.46	-0.00707531
2806.79	0.201107
2808.12	0.0526752
2809.45	0.245046
2810.77	0.93419
2812.1	0.431108
2813.43	0.213734
2814.75	0.14011
2816.08	-0.243574
2817.41	0.663936
2818.73	0.381527
2820.06	0.255024
2821.38	0.368917
2822.71	0.311911
2824.03	0.0274763
2825.36	0.210195
2826.68	-0.570063
2828	0.85929
2829.33	0.434419
2830.65	0.703834
2831.98	0.463885
2833.3	0.32296
2834.62	0.209966
2835.94	0.591726
2837.27	0.548226
2838.59	0.900291
2839.91	1.30849
2841.23	1.34902
2842.55	1.37595
2843.87	1.46022
2845.2	1.46062
2846.52	2.12601
2847.84	1.77433
2849.16	2.15759
2850.48	2.28608
2851.8	2.21603
2853.12	2.25839
2854.44	2.30024
2855.76	2.45487
2857.08	2.1574
2858.39	2.52392
2859.71	2.91856
2861.03	2.6492
2862.35	2.88774
2863.67	3.08334
2864.98	2.86931
2866.3	3.45942
2867.62	3.40086
2868.94	3.5826
2870.25	3.49697
2871.57	3.73577
2872.88	4.10095
2874.2	3.97183
2875.52	4.40476
2876.83	3.85036
2878.15	4.02713
2879.46	4.5268
2880.78	3.97219
2882.09	3.91095
2883.41	3.52809
2884.72	4.01723
2886.03	3.74885
2887.35	3.90172
2888.66	4.20828
2889.97	3.9806
2891.29	4.35492
2892.6	4.06941
2893.91	4.3583
2895.22	3.8213
2896.54	4.65748
2897.85	4.10921
2899.16	3.95423
2900.47	4.52774
2901.78	5.01782
2903.09	5.04652
2904.4	4.92154
2905.71	5.31446
2907.02	5.00877
2908.33	5.01185
2909.64	5.26788
2910.95	5.48276
2912.26	5.82368
2913.57	5.6877
2914.88	5.61982
2916.19	5.56371
2917.5	5.70154
2918.81	6.03388
2920.11	6.50568
2921.42	5.99937
2922.73	6.1799
2924.04	5.63534
2925.34	6.32232
2926.65	6.26924
2927.96	6.38397
2929.26	6.87566
2930.57	6.48588
2931.87	7.32568
2933.18	6.29198
2934.49	7.08937
2935.79	6.7967
2937.1	6.49031
2938.4	5.90472
2939.7	6.10204
2941.01	6.76113
2942.31	5.80038
2943.62	5.8193
2944.92	5.30868
2946.22	5.87607
2947.53	4.93358
2948.83	5.26375
2950.13	5.17267
2951.43	4.63125
2952.74	4.35352
2954.04	4.50821
2955.34	4.42445
2956.64	4.91566
2957.94	4.84953
2959.24	4.68877
2960.54	4.44727
2961.84	4.26405
2963.15	3.75878
2964.45	3.7575
2965.75	4.54123
2967.05	4.43827
2968.34	4.27733
2969.64	4.21379
2970.94	3.54528
2972.24	3.36922
2973.54	3.55935
2974.84	3.49619
2976.14	2.58743
2977.43	3.64824
2978.73	3.18631
2980.03	3.2573
2981.33	2.87635
2982.62	2.52318
2983.92	2.84554
2985.22	2.60685
2986.51	2.52468
2987.81	2.16326
2989.11	2.16838
2990.4	2.07543
2991.7	1.48997
2992.99	1.56384
2994.29	1.62216
2995.58	1.25774
2996.88	1.48242
2998.17	1.2576
2999.46	1.42602
3000.76	1.0341
3002.05	0.993546
3003.34	1.10765
3004.64	0.885602
3005.93	1.01346
3007.22	0.860535
3008.52	0.552853
3009.81	1.02748
3011.1	0.536496
3012.39	1.1766
3013.68	0.615998
3014.97	0.64222
3016.27	0.543872
3017.56	0.154176
3018.85	0.113375
3020.14	-0.10809
3021.43	0.462411
3022.72	-0.2327
3024.01	0.0713053
3025.3	-0.152903
3026.59	0.329428
3027.88	-0.184832
3029.16	-0.392751
3030.45	0.0506744
3031.74	-0.181369
3033.03	-0.0116806
3034.32	0.282447
3035.6	0.0239229
3036.89	-0.0979929
3038.18	-0.221771
3039.47	0.175482
3040.75	0.116445
3042.04	0.0565042
3043.33	0.120049
3044.61	0.0475731
3045.9	0.141291
3047.18	-0.0494652
3048.47	-0.0597401
3049.75	0.328243
3051.04	0.0629215
3052.32	0.0442362
3053.61	0.202939
3054.89	0.306276
3056.18	0.490168
3057.46	0.209129
3058.74	0.227187
3060.03	0.476398
3061.31	0.331161
3062.59	0.146445
3063.88	0.0315056
3065.16	0.421416
3066.44	-0.0163269
3067.72	0.13168
3069	0.552183
3070.29	0.0748444
3071.57	0.412489
3072.85	0.0415087
3074.13	0.104291
3075.41	0.261065
3076.69	0.621022
3077.97	0.112457
3079.25	0.0126677
3080.53	0.348783
3081.81	0.0627279
3083.09	-0.249015
3084.37	0.0505476
3085.65	0.472471
3086.93	0.256021
3088.21	0.296601
3089.49	0.146366
3090.76	0.0363626
3092.04	-0.0194769
3093.32	0.0334225
3094.6	-0.279469
3095.87	0.18092
3097.15	-0.00942326
3098.43	0.084877
3099.7	-0.308796
3100.98	0.286527
3102.26	-0.147585
3103.53	0.0822783
3104.81	0.0690222
3106.08	0.232594
3107.36	-0.00872517
3108.63	0.0353832
3109.91	-0.338851
3111.18	0.127353
3112.46	0.676065
3113.73	0.317823
3115	0.0812731
3116.28	0.250865
3117.55	-0.0551624
3118.83	0.356396
3120.1	0.251267
3121.37	-0.139569
3122.64	0.133272
3123.92	-0.122594
3125.19	0.20423
3126.46	-0.0912237
3127.73	-0.00695896
3129	0.334852
3130.27	0.163088
3131.55	-0.0354252
3132.82	0.266007
3134.09	0.229148
3135.36	0.245734
3136.63	0.666421
3137.9	0.438849
3139.17	0.345925
3140.44	0.508697
3141.71	0.321692
3142.98	0.753443
3144.24	0.406435
3145.51	0.275391
3146.78	0.239196
3148.05	0.52536
3149.32	1.01276
