200.563	0.500042
202.377	0.526493
204.194	0.554256
206.008	0.145161
207.821	0.66043
209.634	1.10171
211.449	0.132656
213.262	0.935073
215.074	0.765004
216.885	0.0128698
218.699	0.279087
220.51	0.303519
222.321	0.232125
224.131	0.717762
225.941	0.309383
227.751	0.263686
229.562	0.410756
231.371	-0.456615
233.18	0.461574
234.988	0.00491047
236.796	-0.209058
238.603	0.0853205
240.411	-0.148036
242.219	0.34417
244.026	0.379674
245.832	0.197785
247.638	0.182991
249.443	0.72064
251.248	0.409784
253.053	0.071991
254.857	-0.291434
256.661	-0.24504
258.465	0.26001
260.268	-0.197233
262.071	-0.146527
263.874	0.339446
265.678	-0.0649137
267.48	0.0610094
269.282	-0.247332
271.083	0.624687
272.884	0.265913
274.684	-0.0461931
276.484	0.146244
278.284	-0.145337
280.084	-0.222011
281.883	0.349114
283.682	0.436413
285.48	0.23372
287.276	0.678572
289.074	-0.0282669
290.871	0.00956059
292.668	-0.0470858
294.465	-0.365205
296.261	-0.275122
298.057	0.269978
299.853	0.313448
301.648	0.57158
303.443	0.613683
305.237	0.391862
307.032	0.121577
308.823	0.161213
310.617	-0.108332
312.41	0.0760555
314.203	-0.476143
315.995	0.30698
317.788	-0.0272646
319.579	0.187772
321.369	0.0465736
323.16	-0.52327
324.951	0.576975
326.741	-0.0166845
328.531	-0.468046
330.321	-0.0122128
332.108	0.131865
333.897	0.609232
335.686	0.749468
337.474	0.145412
339.26	0.328787
341.048	0.0321569
342.835	0.52374
344.622	0.871485
346.406	-0.18969
348.192	0.111512
349.978	-0.398624
351.764	0.356383
353.547	-0.34516
355.332	0.0260305
357.116	0.347861
358.901	0.644109
360.682	-0.513871
362.466	0.0897188
364.249	-0.0930357
366.03	0.578944
367.812	-0.0327482
369.594	0.019701
371.374	7.53403e-005
373.155	-0.588026
374.936	0.0772429
376.715	-0.0378714
378.495	0.57872
380.273	0.205677
382.053	-0.377334
383.832	0.0531235
385.609	0.0141764
387.388	-0.0235233
389.164	-0.201065
390.942	0.18609
392.72	0.456525
394.495	0.0934591
396.272	0.247405
398.047	0.354438
399.823	-0.0319633
401.597	0.567618
403.372	-0.101824
405.145	0.0969858
406.92	-0.151174
408.693	0.140102
410.467	-0.24978
412.239	0.0880117
414.012	0.543442
415.783	-0.337908
417.556	0.0720577
419.327	0.459221
421.099	-0.139054
422.869	0.177679
424.64	0.916322
426.409	0.433223
428.18	0.395302
429.948	-0.300355
431.718	-0.221383
433.486	-0.0951977
435.253	0.21905
437.022	0.228141
438.789	-0.11557
440.558	0.243246
442.324	0.552857
444.089	0.180077
445.857	0.204125
447.622	0.414155
449.386	-0.078126
451.153	0.715464
452.917	-0.756189
454.682	0.87681
456.446	0.31646
458.208	0.455449
459.973	-0.266654
461.735	0.594188
463.497	0.479529
465.259	0.646283
467.022	-0.345826
468.783	0.593472
470.544	-0.604145
472.306	-0.406386
474.066	0.0702057
475.825	-0.0135565
477.585	0.38969
479.346	0.13888
481.104	-0.275903
482.862	0.404187
484.62	0.410035
486.38	0.580956
488.137	0.730875
489.894	0.64985
491.65	0.569778
493.407	0.887441
495.164	0.410707
496.92	0.237275
498.675	0.930174
500.43	0.0290508
502.184	0.252362
503.939	0.756976
505.694	0.485427
507.448	0.588373
509.201	0.289877
510.954	0.342525
512.706	0.181797
514.459	0.25486
516.21	0.467671
517.962	0.937808
519.715	0.560287
521.466	0.816699
523.216	0.367865
524.966	0.928513
526.716	0.174898
528.466	0.899168
530.215	0.685214
531.964	0.283672
533.712	0.186049
535.46	-0.0763493
537.208	0.384716
538.955	0.353253
540.703	0.390625
542.449	0.380527
544.196	0.672486
545.942	0.708138
547.688	-0.0451317
549.433	-0.124198
551.178	0.514901
552.923	0.273871
554.667	0.357015
556.412	0.16329
558.155	0.17786
559.899	0.884035
561.642	0.530728
563.385	0.0865908
565.127	0.448133
566.867	0.327497
568.609	0.598084
570.35	-0.0483732
572.092	-0.00479603
573.832	0.567979
575.573	0.523179
577.313	0.181759
579.053	-0.0667772
580.79	0.420152
582.529	0.103348
584.268	0.797258
586.006	-0.188277
587.745	0.112628
589.482	0.159368
591.218	-0.208939
592.955	0.0664673
594.692	0.203678
596.428	-0.119212
598.164	-0.373119
599.898	0.108812
601.634	-0.123276
603.369	0.218422
605.104	0.098671
606.836	0.207527
608.57	0.246581
610.304	0.170734
612.037	0.347776
613.769	-0.00186253
615.501	0.222383
617.234	-0.0115938
618.966	0.601409
620.696	-0.0461884
622.427	-0.0995092
624.159	0.143594
625.887	-0.0247622
627.618	0.401719
629.348	-0.265577
631.076	0.963568
632.806	0.232322
634.535	0.52896
636.262	0.55137
637.99	0.22956
639.716	-0.0720282
641.444	0.262389
643.172	0.0242405
644.897	0.0358019
646.624	-0.134271
648.348	0.220591
650.075	0.350986
651.801	-0.24192
653.524	-0.240408
655.249	0.21918
656.972	0.47681
658.697	0.257165
660.419	-0.2829
662.143	0.0652256
663.865	0.434472
665.588	0.618778
667.309	0.778406
669.032	0.0682602
670.752	0.296595
672.474	-0.274038
674.194	0.553964
675.915	-0.0816565
677.634	0.429925
679.355	0.460293
681.073	1.01847
682.793	0.632378
684.511	0.473827
686.23	0.658576
687.947	0.312102
689.664	0.356069
691.382	0.261112
693.098	0.464987
694.816	0.391685
696.531	0.179268
698.247	0.518282
699.963	0.395594
701.678	0.2949
703.392	0.859895
705.108	1.10188
706.821	0.998742
708.534	1.26222
710.249	0.883331
711.962	0.13845
713.674	1.15568
715.388	0.68557
717.099	1.42628
718.81	1.13932
720.523	0.761875
722.234	0.840664
723.944	0.646345
725.654	1.06599
727.365	1.43916
729.075	0.903597
730.784	1.02598
732.492	1.10246
734.202	0.658231
735.91	0.44099
737.618	0.65354
739.325	0.956609
741.034	0.786792
742.741	0.640974
744.447	1.01445
746.153	0.488873
747.859	0.392437
749.564	0.67969
751.271	0.878175
752.976	0.965496
754.681	1.21171
756.385	1.43707
758.088	1.57415
759.792	0.699018
761.495	1.17659
763.2	1.1364
764.902	1.00552
766.604	1.25742
768.306	1.46252
770.008	2.11777
771.709	2.00221
773.41	1.07111
775.11	1.08937
776.811	2.19348
778.51	1.39967
780.21	1.80585
781.909	2.50748
783.608	1.35388
785.307	1.89622
787.005	1.87025
788.703	2.18045
790.401	1.67264
792.098	1.88597
793.795	1.19418
795.492	1.45087
797.188	1.07701
798.884	2.12414
800.58	1.21371
802.276	1.6329
803.971	1.73756
805.665	1.93187
807.36	1.76562
809.054	1.68815
810.748	1.22812
812.441	1.88898
814.135	2.34658
815.826	1.61675
817.518	2.16298
819.21	2.52959
820.902	1.80166
822.594	1.76696
824.285	1.84465
825.976	2.30253
827.665	1.53725
829.355	1.46554
831.045	1.68641
832.735	2.3113
834.424	2.06956
836.111	1.71703
837.8	1.60932
839.488	2.32649
841.177	2.01503
842.864	0.987061
844.55	1.70127
846.237	1.54482
847.924	1.47953
849.61	1.10339
851.295	1.64724
852.98	2.03712
854.666	1.19452
856.349	1.76511
858.034	1.18894
859.719	1.80276
861.403	1.69503
863.085	1.51792
864.769	1.11399
866.452	1.54302
868.133	1.56575
869.816	1.24972
871.498	0.955817
873.179	2.10553
874.86	0.818581
876.54	1.22382
878.221	1.20035
879.902	1.13162
881.58	0.610995
883.26	1.39899
884.938	1.7795
886.618	1.41364
888.297	1.00126
889.974	1.71518
891.653	1.34503
893.329	1.08665
895.007	0.917521
896.683	1.46696
898.36	0.869079
900.035	1.4155
901.712	0.705276
903.387	1.38352
905.063	1.14365
906.737	1.32873
908.412	1.64774
910.085	1.03172
911.76	1.24095
913.433	1.47268
915.107	1.14925
916.779	0.893019
918.452	1.32418
920.124	1.33401
921.797	0.990481
923.467	0.936025
925.138	1.39131
926.81	0.9869
928.48	1.71012
930.151	1.33088
931.82	1.06278
933.489	1.50093
935.16	1.12304
936.828	0.966227
938.496	0.766199
940.165	1.03053
941.833	1.84765
943.5	1.38604
945.168	1.34336
946.834	0.924192
948.5	1.1433
950.168	0.985275
951.834	1.04679
953.499	0.777577
955.163	0.532128
956.83	0.443738
958.494	0.490727
960.158	0.89355
961.821	1.0112
963.487	1.48251
965.15	1.04576
966.812	1.20329
968.474	1.13679
970.138	1.20096
971.8	0.578618
973.461	1.08486
975.123	1.52615
976.783	0.598157
978.446	0.666735
980.106	0.381886
981.766	0.0964546
983.425	0.274537
985.084	0.959952
986.743	1.00129
988.402	1.48329
990.06	1.34444
991.72	0.939901
993.378	0.469431
995.035	0.904618
996.692	0.876147
998.349	1.22249
1000.01	0.730864
1001.66	1.40655
1003.32	1.37672
1004.97	1.25864
1006.63	0.854953
1008.28	0.693524
1009.94	0.269333
1011.59	0.438207
1013.25	0.694969
1014.9	-0.209028
1016.55	0.486385
1018.21	0.393907
1019.86	0.542871
1021.51	0.408518
1023.16	0.559448
1024.81	0.470843
1026.47	1.30058
1028.12	0.841007
1029.77	0.664907
1031.42	1.16469
1033.07	0.74563
1034.72	0.761716
1036.37	0.623841
1038.02	1.53102
1039.67	1.43546
1041.31	1.5148
1042.96	1.63889
1044.61	1.69954
1046.26	1.41471
1047.91	1.26228
1049.55	1.87166
1051.2	1.85259
1052.84	1.29123
1054.49	0.404045
1056.14	0.690134
1057.78	0.867357
1059.43	1.1746
1061.07	1.61172
1062.72	0.28673
1064.36	0.309015
1066	0.112909
1067.65	-0.0406427
1069.29	0.760918
1070.93	0.214854
1072.58	1.14518
1074.22	0.339465
1075.86	0.728303
1077.5	0.879717
1079.14	0.685365
1080.78	0.838699
1082.42	0.428193
1084.06	0.168633
1085.7	0.644624
1087.34	0.771616
1088.98	0.0736427
1090.62	0.283751
1092.26	0.449168
1093.9	0.764988
1095.54	0.692102
1097.17	0.986619
1098.81	0.915907
1100.45	0.545687
1102.09	0.263768
1103.72	0.521516
1105.36	0.479278
1106.99	0.502087
1108.63	0.718103
1110.27	0.502942
1111.9	-0.336878
1113.53	0.0470123
1115.17	0.515194
1116.8	0.960743
1118.43	0.805604
1120.07	0.651366
1121.7	0.862303
1123.33	0.667455
1124.97	0.388153
1126.6	0.730129
1128.23	0.666414
1129.86	0.36823
1131.49	0.88306
1133.12	0.671259
1134.75	0.737216
1136.38	0.0758533
1138.01	-0.137523
1139.64	-0.223701
1141.27	0.244367
1142.9	0.135407
1144.53	0.0267124
1146.16	-0.102531
1147.78	0.152801
1149.41	-0.272967
1151.04	0.515985
1152.67	0.282407
1154.29	0.644696
1155.92	0.261508
1157.54	-0.249187
1159.17	0.240435
1160.8	0.0501728
1162.42	0.0736399
1164.05	0.0980349
1165.67	0.441802
1167.29	-0.0226622
1168.92	0.064662
1170.54	0.299136
1172.16	0.361639
1173.79	0.0190191
1175.41	-0.196966
1177.03	-0.116284
1178.65	-0.353228
1180.28	0.2998
1181.9	-0.0413685
1183.52	0.612087
1185.14	-0.0663223
1186.76	0.0364504
1188.38	-0.368792
1190	0.131226
1191.62	-0.466276
1193.24	-0.180606
1194.86	0.376489
1196.47	0.00969601
1198.09	0.565994
1199.71	-0.383015
1201.33	0.259906
1202.95	0.507625
1204.56	-0.0145988
1206.18	0.362639
1207.8	0.574056
1209.41	0.201571
1211.03	-0.21331
1212.64	0.204412
1214.26	0.161273
1215.87	0.0328455
1217.49	0.61024
1219.1	0.645295
1220.71	0.867023
1222.33	0.881648
1223.94	0.773192
1225.55	1.1633
1227.16	0.830215
1228.78	0.0645142
1230.39	0.623808
1232	0.79119
1233.61	1.0217
1235.22	0.716052
1236.83	0.824933
1238.44	0.624722
1240.05	1.06609
1241.66	1.36304
1243.27	1.72184
1244.88	0.859136
1246.49	0.947138
1248.1	1.30315
1249.71	1.09974
1251.32	1.12366
1252.92	1.47878
1254.53	1.11066
1256.14	1.42622
1257.74	0.936278
1259.35	1.04735
1260.96	1.32493
1262.56	1.10618
1264.17	0.990847
1265.77	1.16514
1267.38	1.69119
1268.98	1.51158
1270.59	1.45528
1272.19	1.0247
1273.79	1.60901
1275.4	1.13503
1277	1.92437
1278.6	1.61451
1280.21	1.13862
1281.81	1.73907
1283.41	2.09087
1285.01	1.61583
1286.61	1.57617
1288.21	2.19896
1289.81	1.74792
1291.41	2.12401
1293.01	1.73542
1294.61	1.71799
1296.21	1.90574
1297.81	1.98846
1299.41	1.63611
1301.01	1.61255
1302.6	1.67017
1304.2	2.24118
1305.8	1.90579
1307.4	1.69378
1308.99	0.702401
1310.59	1.47548
1312.19	1.77649
1313.78	1.40283
1315.38	1.39864
1316.97	1.76289
1318.57	2.24952
1320.16	1.73638
1321.76	1.22309
1323.35	1.93011
1324.94	1.90212
1326.54	1.71041
1328.13	1.70112
1329.72	1.71272
1331.32	2.35287
1332.91	1.49901
1334.5	2.38509
1336.09	1.07232
1337.68	1.65722
1339.27	1.51513
1340.87	1.4521
1342.45	1.70899
1344.04	1.78248
1345.64	1.69413
1347.22	1.76666
1348.81	1.34006
1350.4	1.09679
1351.99	1.43633
1353.58	1.27773
1355.17	1.44026
1356.75	0.943627
1358.34	1.20593
1359.93	0.289007
1361.51	1.08835
1363.1	1.06824
1364.69	0.649152
1366.27	1.26682
1367.86	1.20758
1369.44	0.870908
1371.03	1.1129
1372.61	0.480614
1374.2	1.56063
1375.78	0.850436
1377.37	1.3342
1378.95	1.04141
1380.53	0.847147
1382.11	1.00977
1383.7	0.673938
1385.28	0.198343
1386.86	0.577069
1388.44	0.63789
1390.02	0.818373
1391.6	0.820983
1393.19	0.586265
1394.77	0.550319
1396.35	0.633163
1397.93	1.05227
1399.51	0.618109
1401.08	0.381515
1402.66	0.0852804
1404.24	0.461984
1405.82	0.739915
1407.4	0.10922
1408.97	1.19867
1410.55	0.766994
1412.13	1.00687
1413.71	0.55515
1415.28	0.162154
1416.86	0.281529
1418.43	0.952304
1420.01	0.716578
1421.59	0.600228
1423.16	1.03657
1424.73	0.726353
1426.31	1.0865
1427.88	1.07317
1429.46	0.82334
1431.03	1.1828
1432.6	0.675249
1434.18	1.9966
1435.75	1.4288
1437.32	1.62832
1438.89	1.71054
1440.46	1.83304
1442.04	1.87786
1443.61	1.84475
1445.18	1.51721
1446.75	1.62222
1448.32	2.37609
1449.89	1.99016
1451.46	2.33213
1453.03	2.43877
1454.6	1.42455
1456.16	1.82646
1457.73	1.77522
1459.3	1.15196
1460.87	1.64878
1462.44	1.5337
1464	1.10251
1465.57	1.67309
1467.14	0.965938
1468.7	1.43786
1470.27	0.948641
1471.83	1.61825
1473.4	0.837198
1474.96	1.1945
1476.53	0.807014
1478.09	0.360896
1479.66	0.777318
1481.22	1.36993
1482.78	1.3548
1484.35	0.692943
1485.91	0.794971
1487.47	1.17039
1489.04	0.154319
1490.6	1.27023
1492.16	0.544808
1493.72	0.951468
1495.28	0.458236
1496.84	1.52388
1498.4	0.62139
1499.96	0.285287
1501.52	0.572096
1503.08	0.00612545
1504.64	0.410681
1506.2	0.543711
1507.76	0.0570993
1509.32	0.555728
1510.88	0.299716
1512.44	0.0821047
1513.99	0.480577
1515.55	0.858974
1517.11	0.334791
1518.66	0.311062
1520.22	0.0772381
1521.78	-0.0985355
1523.33	0.260918
1524.89	0.427937
1526.44	0.326718
1528	0.301105
1529.55	0.46522
1531.11	0.0403328
1532.66	0.432333
1534.21	-0.255186
1535.77	0.478312
1537.32	-0.017005
1538.87	0.414095
1540.43	0.561836
1541.98	0.257279
1543.53	0.310774
1545.08	0.533179
1546.63	0.360546
1548.18	0.544594
1549.74	0.540808
1551.29	0.481042
1552.84	0.683744
1554.39	0.550545
1555.94	0.120015
1557.48	0.736798
1559.03	0.813713
1560.58	0.481904
1562.13	0.375411
1563.68	0.45642
1565.23	0.780501
1566.78	0.134315
1568.32	0.588923
1569.87	0.595302
1571.42	0.844005
1572.96	0.495121
1574.51	0.444775
1576.05	0.898477
1577.6	1.03503
1579.14	0.873268
1580.69	0.562655
1582.24	0.794243
1583.78	1.25087
1585.32	0.418947
1586.87	0.652485
1588.41	1.18559
1589.95	0.6149
1591.5	1.20396
1593.04	0.837988
1594.58	1.29569
1596.12	1.6413
1597.67	1.38778
1599.21	1.19094
1600.75	0.938282
1602.29	1.32392
1603.83	1.07141
1605.37	1.75738
1606.91	1.48404
1608.45	1.41545
1609.99	1.51383
1611.53	0.858438
1613.07	0.896656
1614.6	0.896169
1616.14	0.388956
1617.68	1.08239
1619.22	1.10171
1620.75	1.15984
1622.29	0.900871
1623.83	1.56003
1625.37	1.35794
1626.9	1.56688
1628.44	1.26933
1629.97	1.02683
1631.51	0.74628
1633.04	1.45562
1634.58	1.17512
1636.11	1.71657
1637.65	1.62435
1639.18	2.03613
1640.72	1.29215
1642.25	1.55409
1643.78	1.6844
1645.31	1.51567
1646.85	1.68102
1648.38	2.23604
1649.91	1.71379
1651.44	2.56633
1652.97	2.95555
1654.5	2.19614
1656.03	1.25251
1657.56	2.36602
1659.1	2.53334
1660.62	2.45849
1662.15	2.08626
1663.68	1.51012
1665.21	1.74703
1666.74	1.61485
1668.27	2.33223
1669.8	1.99966
1671.32	2.03734
1672.85	2.03922
1674.38	1.74689
1675.91	1.67536
1677.43	1.6951
1678.96	2.04487
1680.49	1.17983
1682.01	1.19705
1683.54	1.59955
1685.06	1.70801
1686.59	1.74333
1688.11	1.17423
1689.64	1.11901
1691.16	1.5584
1692.68	1.08243
1694.21	0.990961
1695.73	1.17364
1697.25	0.698108
1698.78	0.496708
1700.3	0.696642
1701.82	0.421686
1703.34	0.0372705
1704.86	0.290294
1706.39	0.178636
1707.91	0.375959
1709.43	0.554708
1710.95	0.0254955
1712.47	0.530824
1713.99	0.437599
1715.51	0.416981
1717.02	0.1612
1718.54	0.26715
1720.06	0.120071
1721.58	0.352262
1723.1	0.205993
1724.62	0.583259
1726.13	-0.263201
1727.65	0.296154
1729.17	-0.0617781
1730.68	0.140668
1732.2	0.164627
1733.72	0.0766535
1735.23	0.225121
1736.75	0.0277662
1738.26	-0.183558
1739.78	0.0849228
1741.29	0.724152
1742.81	0.273629
1744.32	0.464372
1745.84	0.443487
1747.35	0.517606
1748.86	0.125066
1750.37	0.379085
1751.89	0.353733
1753.4	-0.120391
1754.91	-0.169588
1756.42	0.0130053
1757.93	0.112973
1759.45	0.261886
1760.96	-0.146184
1762.47	0.0784588
1763.98	0.657407
1765.49	0.339133
1767	0.0163856
1768.51	-0.0838847
1770.02	0.288141
1771.53	0.108478
1773.03	-0.0662832
1774.54	0.223002
1776.05	0.522952
1777.56	0.584164
1779.07	0.0447497
1780.57	-0.0672603
1782.08	0.12478
1783.59	-0.15332
1785.09	-0.0795665
1786.6	0.0722532
1788.11	-0.103353
1789.61	-0.0955238
1791.12	0.233953
1792.62	0.27392
1794.13	0.199494
1795.63	0.115645
1797.13	0.246577
1798.64	0.255907
1800.14	0.159631
1801.65	0.0799298
1803.15	0.0216894
1804.65	0.0805173
1806.15	0.0905209
1807.66	0.0313587
1809.16	0.271975
1810.66	0.265253
1812.16	0.351572
1813.66	0.137767
1815.16	-0.0337167
1816.66	0.201743
1818.16	0.00576353
1819.66	0.304567
1821.16	0.0491362
1822.66	-0.153368
1824.16	-0.00359058
1825.66	-0.0168161
1827.16	-0.0621519
1828.66	0.102683
1830.16	0.175618
1831.65	0.030149
1833.15	0.18808
1834.65	0.32597
1836.14	-0.0205102
1837.64	0.206939
1839.14	-0.0340323
1840.63	0.0442514
1842.13	0.0728912
1843.62	0.128264
1845.12	0.0104213
1846.61	0.0309262
1848.11	0.000114918
1849.6	0.15837
1851.1	0.0179639
1852.59	0.0428147
1854.08	0.17883
1855.58	-0.222334
1857.07	0.196377
1858.56	-0.00285482
1860.05	-0.0301547
1861.55	-0.0106263
1863.04	0.0266433
1864.53	-0.208411
1866.02	-0.45823
1867.51	-0.00983286
1869	0.0912099
1870.49	0.0689411
1871.98	0.264428
1873.47	0.0839195
1874.96	0.323973
1876.45	0.102794
1877.94	0.237516
1879.43	0.268656
1880.92	0.0828533
1882.41	-0.0398269
1882.51	-0.0485258
1884	0.283229
1885.5	0.404951
1886.99	0.160029
1888.48	0.228258
1889.98	0.070384
1891.47	0.400426
1892.96	-0.0681424
1894.46	0.0734367
1895.95	0.216329
1897.44	0.25564
1898.93	0.120927
1900.42	-0.0146823
1901.91	0.387621
1903.41	0.14477
1904.9	-0.0817661
1906.39	0.316721
1907.88	0.263261
1909.37	0.210366
1910.86	0.314469
1912.35	-0.309282
1913.83	0.108311
1915.32	0.439127
1916.81	0.526805
1918.3	-0.131323
1919.79	0.284812
1921.27	0.14632
1922.76	-0.130278
1924.25	0.234527
1925.74	0.132796
1927.22	0.308963
1928.71	0.156746
1930.19	-0.116749
1931.68	0.0246739
1933.17	0.545815
1934.65	0.632414
1936.14	-0.00921249
1937.62	-0.0978293
1939.11	0.34891
1940.59	0.173678
1942.07	-0.0696621
1943.56	0.343605
1945.04	-0.00144815
1946.52	-0.0356627
1948.01	-0.0355787
1949.49	-0.122237
1950.97	-0.106323
1952.45	-0.211637
1953.93	0.0954032
1955.42	0.0754571
1956.9	0.0215082
1958.38	-0.272091
1959.86	0.0184512
1961.34	0.0348248
1962.82	-0.0857697
1964.3	0.17051
1965.78	0.220634
1967.26	0.150313
1968.74	-0.0915294
1970.21	0.0425005
1971.69	0.654366
1973.17	-0.0489531
1974.65	0.0504432
1976.13	0.235063
1977.6	0.147049
1979.08	-0.0939569
1980.56	0.26068
1982.03	0.291723
1983.51	-0.0342484
1984.99	0.369834
1986.46	-0.0410094
1987.94	0.328327
1989.41	0.274002
1990.89	0.0849376
1992.36	0.471933
1993.84	0.369144
1995.31	0.0305572
1996.78	0.216273
1998.26	0.249843
1999.73	0.266144
2001.2	0.113164
2002.68	0.583969
2004.15	0.396711
2005.62	-0.110233
2007.09	0.495519
2008.56	0.141875
2010.04	0.395199
2011.51	0.16073
2012.98	0.330314
2014.45	-0.156817
2015.92	-0.0723429
2017.39	0.129069
2018.86	0.060658
2020.33	0.344696
2021.8	0.141303
2023.26	-0.145549
2024.73	0.189283
2026.2	0.390679
2027.67	0.0900621
2029.14	0.193242
2030.61	0.515654
2032.07	0.36919
2033.54	0.39092
2035.01	0.429444
2036.47	0.55166
2037.94	0.0517602
2039.4	0.559694
2040.87	-0.0248766
2042.33	0.517142
2043.8	0.320044
2045.27	0.291821
2046.73	0.617764
2048.19	0.455813
2049.66	0.0911632
2051.12	0.113153
2052.59	0.251929
2054.05	0.37236
2055.51	0.373243
2056.97	0.0863705
2058.44	0.489911
2059.9	0.438195
2061.36	0.252158
2062.82	0.40357
2064.28	0.370641
2065.74	0.523684
2067.21	0.00428486
2068.67	0.461485
2070.13	0.0773978
2071.59	0.518195
2073.05	0.538042
2074.51	0.540821
2075.96	0.459106
2077.42	-0.0944567
2078.88	0.429414
2080.34	0.599226
2081.8	0.684338
2083.26	0.550006
2084.72	0.516064
2086.17	0.817936
2087.63	0.480072
2089.09	0.327022
2090.54	0.610674
2092	0.138483
2093.45	0.572809
2094.91	0.268548
2096.37	0.617872
2097.82	0.5307
2099.28	0.593735
2100.73	0.321935
2102.19	0.535317
2103.64	0.532007
2105.09	0.813513
2106.55	0.929151
2108	0.428549
2109.45	0.995678
2110.91	0.861894
2112.36	1.02697
2113.81	1.10708
2115.26	1.16896
2116.72	1.09691
2118.17	1.19136
2119.62	0.954888
2121.07	0.703821
2122.52	0.935584
2123.97	0.820305
2125.42	1.1699
2126.87	1.38657
2128.32	1.40333
2129.77	1.15367
2131.22	1.20117
2132.67	1.0658
2134.11	1.39375
2135.56	1.42443
2137.01	1.34072
2138.46	1.24222
2139.91	1.64124
2141.35	1.21538
2142.8	1.56756
2144.25	1.63937
2145.7	1.67828
2147.14	1.96529
2148.59	1.62253
2150.03	1.64321
2151.48	1.8618
2152.92	2.02976
2154.37	2.19691
2155.81	2.03223
2157.26	2.38116
2158.7	1.80313
2160.15	1.72328
2161.59	2.42387
2163.03	2.16526
2164.47	1.69217
2165.92	1.88331
2167.36	2.17434
2168.8	2.31511
2170.24	1.97197
2171.69	2.35854
2173.13	2.51035
2174.57	2.36134
2176.01	2.12863
2177.45	2.09571
2178.89	1.93051
2180.33	1.6665
2181.77	2.38427
2183.21	2.5374
2184.65	2.19187
2186.09	1.87956
2187.53	2.08296
2188.97	2.0202
2190.4	2.27365
2191.84	1.96089
2193.28	1.81384
2194.72	1.71548
2196.16	1.93173
2197.59	1.71335
2199.03	2.04228
2200.47	1.75498
2201.9	1.36834
2203.34	1.77919
2204.77	1.27858
2206.21	2.07214
2207.64	1.22543
2209.08	1.45564
2210.51	1.60218
2211.95	1.35063
2213.38	1.77642
2214.82	1.39212
2216.25	1.23997
2217.68	0.924023
2219.12	0.840315
2220.55	1.0047
2221.98	1.16909
2223.41	1.15154
2224.85	0.737574
2226.28	1.3264
2227.71	1.07433
2229.14	1.1172
2230.57	1.12646
2232	0.725838
2233.43	0.620969
2234.86	0.974783
2236.29	0.773489
2237.72	0.737113
2239.15	0.653443
2240.58	1.20768
2242.01	0.980454
2243.44	0.640166
2244.87	0.854747
2246.29	0.644686
2247.72	0.580117
2249.15	0.774608
2250.58	0.690033
2252.01	0.0669289
2253.43	0.403709
2254.86	0.837578
2256.29	0.460215
2257.71	0.815458
2259.14	0.702434
2260.56	0.251173
2261.99	0.41845
2263.41	0.376069
2264.84	0.0901427
2266.26	0.665388
2267.69	0.557302
2269.11	0.139132
2270.53	0.550275
2271.96	0.27732
2273.38	0.313533
2274.8	0.805935
2276.23	0.38629
2277.65	0.390324
2279.07	0.541133
2280.49	0.382141
2281.91	0.271895
2283.34	0.520447
2284.76	0.263264
2286.18	0.267291
2287.6	0.0920014
2289.02	0.145612
2290.44	0.575406
2291.86	0.319208
2293.28	0.128309
2294.7	0.231726
2296.12	0.236948
2297.54	0.242127
2298.96	0.34564
2300.37	-0.107862
2301.79	0.159925
2303.21	-0.014761
2304.63	0.335763
2306.04	0.193894
2307.46	0.133763
2308.88	0.221088
2310.3	0.406661
2311.71	0.559122
2313.13	0.168658
2314.54	0.518937
2315.96	0.0632257
2317.37	-0.0628014
2318.79	0.30592
2320.2	0.361488
2321.62	0.135705
2323.03	0.0898275
2324.45	0.273146
2325.86	0.570052
2327.27	0.997215
2328.69	0.796964
2330.1	0.712388
2331.51	0.101811
2332.92	0.183844
2334.34	0.101976
2335.75	0.00389814
2337.16	0.119319
2338.57	0.201013
2339.98	-0.0304961
2341.39	-0.0654321
2342.8	0.309541
2344.21	-0.119615
2345.63	-0.0891037
2347.04	0.105383
2348.45	0.00501204
2349.85	0.182563
2351.26	0.244817
2352.67	0.371498
2354.08	0.089242
2355.49	0.312292
2356.9	0.143815
2358.3	-0.0893989
2359.71	0.132905
2361.12	-0.197014
2362.53	-0.0884948
2363.93	-0.0936599
2365.34	0.24088
2366.75	-0.00694942
2368.15	0.149828
2369.56	-0.0961533
2370.97	0.287944
2372.37	0.092659
2373.77	-0.182137
2375.18	0.106981
2376.59	-0.151474
2377.99	0.0719109
2379.39	0.293772
2380.8	0.305205
2382.2	-0.0533528
2383.6	-0.0434432
2385.01	0.238177
2386.41	0.327703
2387.81	0.417759
2389.21	0.0462408
2390.62	0.0746498
2392.02	-0.198539
2393.42	0.245397
2394.82	0.0215821
2396.22	-0.106097
2397.62	0.100556
2399.02	-0.35979
2400.42	0.0859389
2401.82	-0.214765
2403.22	0.437529
2404.62	0.0730925
2406.02	0.136738
2407.42	0.342397
2408.82	-0.0713024
2410.22	-0.120272
2411.62	-0.10566
2413.01	0.131271
2414.41	0.0999031
2415.81	0.0697117
2417.21	-0.0544109
2418.6	0.0596638
2420	0.41163
2421.4	0.240914
2422.79	0.11738
2424.19	-0.0222545
2425.59	-0.0509601
2426.98	-0.0792828
2428.38	0.416218
2429.77	0.215003
2431.17	0.0141807
2432.56	0.114918
2433.95	-0.118183
2435.35	0.203718
2436.74	0.206789
2438.14	-0.0138011
2439.53	-0.0606251
2440.92	0.320615
2442.31	0.304296
2443.71	0.160804
2445.1	0.461401
2446.49	0.317681
2447.88	0.300756
2449.27	-0.302258
2450.67	0.362093
2452.06	-0.255682
2453.45	0.298437
2454.84	-0.286065
2456.23	0.000153065
2457.62	-0.140504
2459.01	0.240691
2460.4	0.415752
2461.79	0.321295
2463.18	-0.0582604
2464.57	0.32036
2465.95	0.0667181
2467.34	0.113139
2468.73	0.175251
2470.12	-0.235982
2471.5	0.0464048
2472.89	0.375193
2474.28	0.0260062
2475.67	0.227366
2477.05	0.553839
2478.44	0.597049
2479.82	-0.0815091
2481.21	0.291677
2482.6	-0.197485
2483.98	0.346982
2485.37	0.0295753
2486.75	0.274342
2488.13	0.0183148
2489.52	-0.0662436
2490.9	-0.0106325
2492.29	-0.172394
2493.67	0.226021
2495.05	0.143801
2496.44	0.031734
2497.82	0.199316
2499.2	-0.360599
2500.58	-0.131142
2501.97	-0.103545
2503.35	0.0158949
2504.73	0.088119
2506.11	-0.225511
2507.49	0.230898
2508.87	0.102185
2510.25	0.143014
2511.63	-0.199285
2513.01	-0.678316
2514.39	-0.0378284
2515.77	0.0819864
2517.15	0.248153
2518.53	-0.0440874
2519.91	-0.0913887
2521.29	0.0291586
2522.67	-0.0951595
2524.05	-0.250468
2525.42	-0.177479
2526.8	0.108368
2528.18	0.150614
2529.55	0.254493
2530.93	-0.0204415
2532.31	-0.187497
2533.69	0.132729
2535.06	-0.0782537
2536.44	-0.0309806
2537.81	0.106918
2539.19	0.0162044
2540.56	-0.0447478
2541.94	-0.0148869
2543.31	0.531024
2544.69	-0.0755076
2546.06	0.122989
2547.44	0.170769
2548.81	0.128212
2550.18	0.389197
2551.56	0.133884
2552.93	0.348277
2554.3	0.212779
2555.67	0.395196
2557.04	-0.150981
2558.42	0.303812
2559.79	0.137037
2561.16	-0.241431
2562.53	0.0929646
2563.9	0.0489211
2565.27	-0.146319
2566.64	0.279958
2568.01	0.312311
2569.38	-0.019074
2570.75	-0.123138
2572.12	0.257854
2573.49	-0.0128565
2574.86	0.201578
2576.23	0.294784
2577.6	0.190835
2578.97	0.283812
2580.33	0.285532
2581.7	0.226267
2583.07	0.136382
2584.44	0.197921
2585.8	-0.134712
2587.17	0.00267029
2588.54	0.200797
2589.9	-0.025342
2591.27	-0.0848575
2592.64	-0.26593
2594	0.0675049
2595.37	0.218228
2596.73	-0.267728
2598.1	0.32029
2599.46	-0.0905309
2600.83	0.118717
2602.19	0.297923
2603.55	-0.156507
2604.92	0.249982
2606.28	0.0378742
2607.64	0.112171
2609.01	0.24602
2610.37	0.198004
2611.73	0.299492
2613.09	0.429927
2614.46	0.499366
2615.82	-0.0617971
2617.18	0.427696
2618.54	0.0780535
2619.9	0.0738091
2621.26	-0.139179
2622.62	0.066927
2623.98	-0.0257053
2625.34	-0.0884151
2626.7	0.102275
2628.06	-0.0204973
2629.42	-0.00931692
2630.78	0.120705
2632.14	-0.136091
2633.5	0.0828166
2634.86	0.24198
2636.21	0.222899
2637.57	0.292746
2638.93	-0.155701
2640.29	-0.0559163
2641.64	0.413503
2643	0.158587
2644.36	0.00750542
2645.71	0.136871
2647.07	0.0740948
2648.43	-0.0333171
2649.78	0.315016
2651.14	0.294584
2652.49	-0.166646
2653.85	0.0921102
2655.2	0.0431414
2656.56	-0.078115
2657.91	0.577433
2659.26	0.0480433
2660.62	0.250604
2661.97	-0.029418
2663.32	-0.0320859
2664.68	0.110581
2666.03	0.135758
2667.38	0.175084
2668.74	0.389
2670.09	0.253599
2671.44	0.293294
2672.79	0.0864382
2674.14	0.1272
2675.49	0.284492
2676.84	-0.0947123
2678.19	0.295566
2679.54	-0.299704
2680.89	-0.082087
2682.24	0.121926
2683.59	0.0224032
2684.94	0.228194
2686.29	0.0717502
2687.64	0.379555
2688.99	0.047791
2690.34	0.092103
2691.69	-0.0537186
2693.03	0.147563
2694.38	0.21737
2695.73	0.14202
2697.08	0.255538
2698.42	0.341038
2699.77	0.254119
2701.12	0.0962043
2702.46	-0.0750661
2703.81	0.580328
2705.15	0.0479426
2706.5	0.109786
2707.85	0.171478
2709.19	0.218383
2710.54	-0.0254254
2711.88	0.267879
2713.22	-0.165308
2714.57	-0.00284958
2715.91	0.261436
2717.26	0.133069
2718.6	0.0480781
2719.94	0.341084
2721.29	0.139018
2722.63	0.0675073
2723.97	0.141169
2725.31	-0.0620694
2726.66	0.331161
2728	0.316577
2729.34	-0.00380039
2730.68	0.257799
2732.02	0.373819
2733.36	0.329864
2734.7	0.11151
2736.04	0.111519
2737.38	0.0534606
2738.72	-0.0336952
2740.06	0.286148
2741.4	0.3729
2742.74	0.182891
2744.08	-0.10931
2745.42	0.251942
2746.76	0.264041
2748.09	0.319524
2749.43	-0.132828
2750.77	0.111497
2752.11	0.0803747
2753.45	0.10743
2754.78	0.192554
2756.12	-0.200232
2757.46	0.290592
2758.79	0.318129
2760.13	-0.0882268
2761.46	0.0992403
2762.8	-0.0457625
2764.14	-0.0168705
2765.47	-0.00245523
2766.8	0.185213
2768.14	0.0972738
2769.47	0.109582
2770.81	0.149632
2772.14	0.390711
2773.48	0.13997
2774.81	0.0477915
2776.14	0.171796
2777.48	0.151946
2778.81	0.161334
2780.14	0.0417924
2781.47	-0.0055275
2782.8	0.0477448
2784.14	0.158262
2785.47	0.139627
2786.8	0.135481
2788.13	-0.140241
2789.46	0.0141544
2790.79	0.0260987
2792.12	0.0243487
2793.45	0.108737
2794.78	-0.14988
2796.11	0.0485954
2797.44	0.0322714
2798.77	-0.0558739
2800.1	-0.215643
2801.43	-0.14723
2802.76	-0.178839
2804.09	-0.11086
2805.41	0.0136762
2806.74	-0.104382
2808.07	0.147023
2809.4	0.0282035
2810.72	0.0941949
2812.05	0.188941
2813.38	0.0433626
2814.71	0.296033
2816.03	0.237893
2817.36	-0.10279
2818.68	0.265687
2820.01	0.123929
2821.33	0.0243473
2822.66	0.165168
2823.98	0.390446
2825.31	0.00625801
2826.63	-0.0803308
2827.96	0.470638
2829.28	0.0450935
2830.6	0.469345
2831.93	0.0160971
2833.25	0.00164223
2834.57	0.638025
2835.9	0.410596
2837.22	0.479942
2838.54	0.690357
2839.86	0.85806
2841.18	0.87024
2842.5	1.00998
2843.83	1.20675
2845.15	1.23451
2846.47	1.24868
2847.79	1.30556
2849.11	1.1646
2850.43	1.3202
2851.75	1.61672
2853.07	1.65838
2854.39	1.26164
2855.71	1.65606
2857.03	1.79606
2858.35	1.97845
2859.66	2.16076
2860.98	2.20167
2862.3	2.38345
2863.62	2.19785
2864.94	2.25198
2866.25	2.78567
2867.57	2.7411
2868.89	2.99306
2870.2	2.93517
2871.52	3.0043
2872.84	3.34094
2874.15	3.02861
2875.47	3.16622
2876.78	3.40126
2878.1	3.11465
2879.41	3.30624
2880.73	3.27301
2882.04	3.32486
2883.36	3.04057
2884.67	3.59978
2885.99	3.41529
2887.3	3.79236
2888.61	3.24274
2889.93	3.66061
2891.24	3.74086
2892.55	3.35795
2893.86	3.2554
2895.18	3.75538
2896.49	3.8358
2897.8	4.15505
2899.11	3.95749
2900.42	3.91464
2901.73	4.06808
2903.05	4.30562
2904.36	4.47335
2905.67	4.20774
2906.98	4.67
2908.29	4.61551
2909.6	5.03755
2910.91	4.41072
2912.21	4.98741
2913.52	4.8776
2914.83	4.97643
2916.14	4.9896
2917.45	5.68703
2918.76	5.87936
2920.07	5.87559
2921.37	6.19407
2922.68	5.71685
2923.99	5.80027
2925.29	6.2762
2926.6	6.05387
2927.91	6.8381
2929.22	6.11214
2930.52	6.60187
2931.83	6.50395
2933.13	6.39179
2934.44	6.39142
2935.74	6.4331
2937.05	6.46097
2938.35	6.69862
2939.66	6.3776
2940.96	6.35055
2942.26	5.89116
2943.57	5.61455
2944.87	5.89837
2946.18	5.80593
2947.48	5.40623
2948.78	5.60785
2950.08	5.52846
2951.39	5.39127
2952.69	4.77609
2953.99	4.9997
2955.29	5.23685
2956.59	4.80294
2957.9	4.87489
2959.2	4.51544
2960.5	4.38246
2961.8	4.39143
2963.1	4.06447
2964.4	4.08752
2965.7	4.26383
2967	3.84848
2968.3	4.05016
2969.6	3.53406
2970.9	3.62241
2972.19	3.58444
2973.49	3.23717
2974.79	3.15716
2976.09	2.93577
2977.39	3.10746
2978.68	2.61587
2979.98	2.55931
2981.28	2.57198
2982.58	2.35911
2983.87	2.3435
2985.17	2.4975
2986.47	2.3436
2987.76	2.0786
2989.06	2.25009
2990.35	1.69105
2991.65	1.94671
2992.94	1.45663
2994.24	1.65413
2995.53	1.42918
2996.83	1.51265
2998.12	1.21696
2999.42	1.17422
3000.71	1.39835
3002	0.781816
3003.3	0.642439
3004.59	0.517242
3005.88	0.924071
3007.18	0.700186
3008.47	0.825611
3009.76	0.572638
3011.05	0.696651
3012.34	0.624661
3013.64	0.524877
3014.93	0.537093
3016.22	0.36876
3017.51	0.201238
3018.8	0.2987
3020.09	-0.00717926
3021.38	0.534792
3022.67	0.380922
3023.96	0.240377
3025.25	0.487667
3026.54	0.249533
3027.83	0.302806
3029.12	0.356878
3030.41	-0.0300555
3031.69	0.357959
3032.98	0.166703
3034.27	0.141456
3035.56	0.543472
3036.84	0.240876
3038.13	0.46077
3039.42	0.0456667
3040.71	-0.0398359
3041.99	0.258481
3043.28	0.24068
3044.57	-0.228099
3045.85	-0.339014
3047.14	0.166629
3048.42	0.318444
3049.71	-0.128661
3050.99	0.462776
3052.28	0.331595
3053.56	0.40513
3054.85	0.587268
3056.13	0.195665
3057.41	0.130664
3058.7	0.174101
3059.98	0.258126
3061.26	0.260697
3062.55	0.304847
3063.83	0.186918
3065.11	0.355777
3066.39	0.457788
3067.68	0.343107
3068.96	0.432721
3070.24	0.195755
3071.52	0.311714
3072.8	0.154719
3074.08	0.105575
3075.36	0.00139952
3076.65	-0.048593
3077.93	0.281829
3079.21	-0.0248604
3080.49	-0.167416
3081.77	0.193158
3083.04	-0.109965
3084.32	0.102999
3085.6	0.0854154
3086.88	-0.041101
3088.16	0.0218658
3089.44	-0.105701
3090.72	0.2685
3091.99	0.154057
3093.27	-0.204348
3094.55	-0.182652
3095.83	0.0968847
3097.1	-0.138721
3098.38	0.00523806
3099.66	-0.162603
3100.93	-0.00529146
3102.21	-0.0782161
3103.49	0.30944
3104.76	-0.0741825
3106.04	-0.0240088
3107.31	0.026885
3108.59	0.0109406
3109.86	-0.112446
3111.14	0.238786
3112.41	-0.0863662
3113.69	-0.0862012
3114.96	-0.140256
3116.23	0.0901198
3117.51	0.143652
3118.78	0.0607343
3120.05	-0.0230074
3121.33	0.204423
3122.6	0.187313
3123.87	0.156525
3125.14	-0.131313
3126.41	0.136361
3127.69	0.363707
3128.96	0.199125
3130.23	0.535218
3131.5	0.208915
3132.77	0.301619
3134.04	0.0158072
3135.31	0.323871
3136.58	0.132
3137.85	0.30402
3139.12	0.61022
3140.39	0.175516
3141.66	0.266111
3142.93	0.0746474
3144.2	0.152401
3145.47	0.243966
3146.74	0.604072
3148	0.428375
3149.27	0.454252
