200.563	0.047286
202.377	0.057827
204.194	0.0700083
206.008	0.788554
207.821	-0.0733118
209.634	1.00912
211.449	0.777942
213.262	-0.109589
215.074	-0.123744
216.885	0.0313272
218.699	-0.0315657
220.51	-0.166218
222.321	-0.178702
224.131	-0.0934553
225.941	0.765701
227.751	-0.042449
229.562	0.912438
231.371	0.490314
233.18	-0.00396347
234.988	0.684231
236.796	0.192321
238.603	0.594728
240.411	0.156293
242.219	0.0818319
244.026	0.225849
245.832	-0.112744
247.638	0.826468
249.443	0.435165
251.248	0.620076
253.053	0.36763
254.857	0.620266
256.661	0.221416
258.465	-0.248323
260.268	0.512753
262.071	0.31215
263.874	-0.055234
265.678	0.0844822
267.48	-0.0645599
269.282	-0.189819
271.083	0.79316
272.884	0.714268
274.684	-0.0411549
276.484	0.359029
278.284	0.588427
280.084	-0.196019
281.883	0.823526
283.682	0.468842
285.48	0.473707
287.276	-0.14615
289.074	0.577974
290.871	-0.422987
292.668	0.0152264
294.465	0.191422
296.261	-0.0134573
298.057	0.428291
299.853	0.488076
301.648	0.571558
303.443	0.415355
305.237	0.377332
307.032	0.266896
308.823	0.680848
310.617	-0.310572
312.41	0.200594
314.203	0.213283
315.995	0.228024
317.788	0.197124
319.579	0.0249615
321.369	0.378284
323.16	0.732898
324.951	0.539633
326.741	-0.202885
328.531	0.224223
330.321	0.770719
332.108	0.35976
333.897	0.209876
335.686	0.608087
337.474	0.309943
339.26	0.177157
341.048	0.353775
342.835	-0.761308
344.622	-0.131212
346.406	0.0451689
348.192	0.699788
349.978	-0.125385
351.764	0.0284109
353.547	-0.200216
355.332	0.524378
357.116	0.460196
358.901	0.251708
360.682	0.280421
362.466	-0.0725584
364.249	-0.116643
366.03	-0.683984
367.812	0.196699
369.594	0.102701
371.374	0.0790758
373.155	0.0548058
374.936	0.455601
376.715	0.383555
378.495	-0.300735
380.273	0.242249
382.053	-0.179411
383.832	-0.316814
385.609	-0.194113
387.388	0.399723
389.164	-0.0861712
390.942	0.157309
392.72	0.495572
394.495	0.599664
396.272	0.1171
398.047	0.738469
399.823	-0.0964737
401.597	0.26598
403.372	0.228505
405.145	0.331174
406.92	0.127803
408.693	0.323018
410.467	0.259663
412.239	-0.249473
414.012	0.274501
415.783	0.0483484
417.556	-0.552339
419.327	0.349431
421.099	-0.179977
422.869	-0.216843
424.64	0.872458
426.409	0.0827274
428.18	0.137305
429.948	0.613912
431.718	-0.693279
433.486	-0.052002
435.253	-0.0205708
437.022	0.456782
438.789	0.698665
440.558	-0.445519
442.324	0.379188
444.089	0.122478
445.857	0.145285
447.622	0.260458
449.386	0.0944023
451.153	-0.421642
452.917	0.300701
454.682	0.159149
456.446	0.111044
458.208	0.435491
459.973	0.0847549
461.735	0.177128
463.497	0.0154572
465.259	0.36764
467.022	0.513732
468.783	0.290895
470.544	0.604742
472.306	0.105114
474.066	-0.163065
475.825	0.73128
477.585	0.319208
479.346	-0.00165462
481.104	0.561655
482.862	-0.132564
484.62	0.245887
486.38	0.160596
488.137	-0.225546
489.894	0.299614
491.65	0.780021
493.407	0.163783
495.164	0.739438
496.92	0.379664
498.675	0.956184
500.43	0.853122
502.184	0.960411
503.939	0.432664
505.694	0.44357
507.448	0.217834
509.201	0.413744
510.954	0.255114
512.706	1.20075
514.459	0.356453
516.21	0.569558
517.962	0.969396
519.715	-0.0425606
521.466	0.543322
523.216	0.494084
524.966	0.890635
526.716	0.747231
528.466	0.275783
530.215	0.132782
531.964	0.293972
533.712	0.828611
535.46	1.12734
537.208	0.489272
538.955	0.784701
540.703	0.378676
542.449	-0.353297
544.196	0.335135
545.942	0.417804
547.688	0.0827684
549.433	0.815065
551.178	0.805033
552.923	0.30953
554.667	-0.0229568
556.412	-0.169808
558.155	0.491094
559.899	-0.000574112
561.642	0.522015
563.385	0.492387
565.127	-0.295022
566.867	-0.0241137
568.609	0.247311
570.35	-0.145861
572.092	0.632663
573.832	0.219893
575.573	-0.0762959
577.313	0.0880556
579.053	-0.320049
580.79	0.581398
582.529	0.242927
584.268	-0.326366
586.006	0.252788
587.745	0.78496
589.482	0.142641
591.218	-0.293656
592.955	-0.316327
594.692	-0.454172
596.428	0.282293
598.164	0.558577
599.898	0.788433
601.634	0.48825
603.369	0.462779
605.104	-0.024004
606.836	-0.534634
608.57	-0.172865
610.304	0.509664
612.037	0.022171
613.769	-0.395235
615.501	0.357183
617.234	0.0553436
618.966	-0.0178108
620.696	-0.252235
622.427	-0.0530071
624.159	0.419411
625.887	0.0232038
627.618	0.0167255
629.348	-0.193094
631.076	0.0330896
632.806	0.421057
634.535	0.901496
636.262	0.148984
637.99	0.627204
639.716	0.509017
641.444	0.342166
643.172	0.560427
644.897	-0.201914
646.624	0.902696
648.348	-0.219866
650.075	-0.17928
651.801	0.433175
653.524	0.208902
655.249	0.306244
656.972	-0.0721445
658.697	0.917324
660.419	0.105614
662.143	0.843774
663.865	0.917749
665.588	0.211819
667.309	0.235287
669.032	0.12082
670.752	0.441809
672.474	0.353076
674.194	0.816381
675.915	0.228238
677.634	0.44328
679.355	0.452137
681.073	0.459931
682.793	1.29413
684.511	1.34434
686.23	0.770606
687.947	0.8398
689.664	0.493243
691.382	0.698725
693.098	0.350708
694.816	0.439554
696.531	0.688531
698.247	0.844036
699.963	0.790987
701.678	0.920748
703.392	1.16425
705.108	0.786564
706.821	0.707215
708.534	0.971504
710.249	0.937081
711.962	0.764986
713.674	0.661475
715.388	0.489372
717.099	0.317546
718.81	0.511075
720.523	0.499309
722.234	0.715436
723.944	0.908483
725.654	0.464569
727.365	0.952286
729.075	0.894106
730.784	1.13025
732.492	0.73144
734.202	0.89879
735.91	0.83988
737.618	1.52657
739.325	1.82925
741.034	1.00548
742.741	0.972587
744.447	1.45894
746.153	1.5638
747.859	0.950204
749.564	1.86778
751.271	1.4146
752.976	1.12027
754.681	1.56973
756.385	1.57092
758.088	0.425426
759.792	1.26278
761.495	1.62891
763.2	1.74791
764.902	1.32479
766.604	1.50992
768.306	1.7837
770.008	1.19604
771.709	1.66893
773.41	1.91422
775.11	1.61634
776.811	2.02003
778.51	1.3624
780.21	1.79176
781.909	1.54377
783.608	1.63518
785.307	2.01966
787.005	1.9715
788.703	1.42203
790.401	1.91004
792.098	1.87469
793.795	1.65709
795.492	1.68779
797.188	1.96733
798.884	1.61766
800.58	1.85552
802.276	2.11711
803.971	1.50213
805.665	1.80909
807.36	1.89017
809.054	2.14954
810.748	1.3526
812.441	1.60974
814.135	1.55222
815.826	2.79289
817.518	1.81714
819.21	2.42977
820.902	1.16591
822.594	2.33644
824.285	1.90083
825.976	1.86841
827.665	1.3706
829.355	1.83348
831.045	1.67593
832.735	2.07825
834.424	1.23481
836.111	1.68508
837.8	1.89011
839.488	1.42419
841.177	1.06792
842.864	1.78257
844.55	1.15624
846.237	1.04446
847.924	1.13564
849.61	1.18464
851.295	1.46012
852.98	1.58114
854.666	1.03013
856.349	1.66826
858.034	1.27216
859.719	1.88626
861.403	1.7562
863.085	1.26379
864.769	0.431578
866.452	1.10836
868.133	0.815239
869.816	1.31091
871.498	0.655987
873.179	0.948216
874.86	0.879415
876.54	0.855729
878.221	1.17059
879.902	1.66599
881.58	1.93533
883.26	1.14282
884.938	1.049
886.618	1.31486
888.297	0.699047
889.974	0.69103
891.653	1.47029
893.329	1.21121
895.007	0.591317
896.683	1.07293
898.36	1.30552
900.035	2.14224
901.712	1.3855
903.387	0.853786
905.063	0.926554
906.737	1.37882
908.412	1.20646
910.085	0.701406
911.76	0.709915
913.433	0.807979
915.107	1.59445
916.779	1.1595
918.452	1.2128
920.124	0.95618
921.797	0.65635
923.467	0.557102
925.138	0.658401
926.81	1.62246
928.48	0.954262
930.151	0.861372
931.82	1.38695
933.489	1.40524
935.16	1.00461
936.828	0.803023
938.496	0.756719
940.165	0.755736
941.833	0.601528
943.5	1.35265
945.168	1.06657
946.834	0.668775
948.5	0.865075
950.168	1.56696
951.834	0.634653
953.499	0.893995
955.163	1.02255
956.83	-0.0148058
958.494	0.935833
960.158	0.808597
961.821	0.46177
963.487	0.932144
965.15	0.64929
966.812	1.09359
968.474	0.827119
970.138	1.00102
971.8	0.377757
973.461	1.41382
975.123	0.792721
976.783	0.593621
978.446	0.683497
980.106	0.508488
981.766	0.332927
983.425	1.63917
985.084	0.995327
986.743	0.703608
988.402	1.42793
990.06	0.469766
991.72	0.860051
993.378	0.587142
995.035	0.270498
996.692	0.373479
998.349	0.21172
1000.01	0.799095
1001.66	1.16512
1003.32	1.37614
1004.97	0.948814
1006.63	0.192366
1008.28	0.447206
1009.94	0.570353
1011.59	1.00077
1013.25	0.466836
1014.9	0.52529
1016.55	-0.138309
1018.21	0.774609
1019.86	0.375292
1021.51	0.414566
1023.16	0.739057
1024.81	0.474316
1026.47	0.95316
1028.12	0.361258
1029.77	0.555305
1031.42	0.660645
1033.07	0.960736
1034.72	1.32424
1036.37	1.05356
1038.02	1.63202
1039.67	1.6871
1041.31	2.54762
1042.96	3.29984
1044.61	3.44511
1046.26	3.028
1047.91	2.56994
1049.55	1.87496
1051.2	1.87631
1052.84	1.46577
1054.49	1.18581
1056.14	0.862224
1057.78	0.712101
1059.43	0.865802
1061.07	1.21455
1062.72	0.583988
1064.36	0.670028
1066	0.559311
1067.65	-0.204447
1069.29	0.31314
1070.93	1.06855
1072.58	0.585948
1074.22	0.25615
1075.86	0.101137
1077.5	0.814952
1079.14	1.00941
1080.78	0.0770159
1082.42	0.792587
1084.06	0.4447
1085.7	0.268701
1087.34	0.827445
1088.98	0.192551
1090.62	0.768426
1092.26	0.110043
1093.9	0.121847
1095.54	0.241714
1097.17	-0.0258036
1098.81	0.311543
1100.45	0.585606
1102.09	0.79679
1103.72	0.0200958
1105.36	0.36343
1106.99	0.556663
1108.63	0.684979
1110.27	0.919589
1111.9	0.572107
1113.53	0.416607
1115.17	0.260058
1116.8	0.725236
1118.43	0.93268
1120.07	0.112267
1121.7	0.685553
1123.33	0.510288
1124.97	0.550105
1126.6	0.0988359
1128.23	0.161765
1129.86	0.225365
1131.49	0.289507
1133.12	0.311158
1134.75	0.354019
1136.38	-0.0739841
1138.01	0.223625
1139.64	0.818871
1141.27	0.387826
1142.9	0.0207281
1144.53	0.293971
1146.16	0.205267
1147.78	0.543795
1149.41	0.00949574
1151.04	-0.22589
1152.67	0.0711803
1154.29	0.0696983
1155.92	0.0891056
1157.54	0.0232897
1159.17	0.12804
1160.8	-0.170424
1162.42	-0.276359
1164.05	-0.104935
1165.67	0.428398
1167.29	0.876382
1168.92	-0.441391
1170.54	0.280082
1172.16	0.765381
1173.79	0.399095
1175.41	0.626068
1177.03	0.322255
1178.65	0.20978
1180.28	0.098177
1181.9	0.0933733
1183.52	0.66001
1185.14	0.317446
1186.76	0.0376549
1188.38	-0.264445
1190	-0.0620546
1191.62	0.180127
1193.24	0.357162
1194.86	0.574902
1196.47	0.435719
1198.09	1.00973
1199.71	0.35041
1201.33	0.217173
1202.95	0.191198
1204.56	0.647825
1206.18	0.250875
1207.8	-0.332417
1209.41	0.169332
1211.03	-0.101574
1212.64	-0.353156
1214.26	-0.0231829
1215.87	0.387465
1217.49	-0.161206
1219.1	0.350001
1220.71	0.735522
1222.33	-0.143953
1223.94	0.844125
1225.55	0.445037
1227.16	0.999831
1228.78	0.314562
1230.39	0.830267
1232	0.933504
1233.61	1.51334
1235.22	0.5237
1236.83	0.134609
1238.44	0.842091
1240.05	1.26104
1241.66	0.811644
1243.27	0.940948
1244.88	0.572874
1246.49	0.679637
1248.1	0.971608
1249.71	0.724832
1251.32	0.953625
1252.92	0.479339
1254.53	0.936625
1256.14	1.3123
1257.74	0.882547
1259.35	0.577952
1260.96	0.72944
1262.56	0.633007
1264.17	1.59302
1265.77	1.04047
1267.38	1.44033
1268.98	1.05151
1270.59	1.2006
1272.19	1.12052
1273.79	1.01863
1275.4	0.977929
1277	1.49577
1278.6	0.955978
1280.21	0.560921
1281.81	1.18003
1283.41	0.805753
1285.01	0.825252
1286.61	0.742292
1288.21	1.56982
1289.81	1.8814
1291.41	1.26359
1293.01	1.51355
1294.61	1.24616
1296.21	1.43186
1297.81	1.30607
1299.41	0.951718
1301.01	1.04984
1302.6	1.84685
1304.2	0.830515
1305.8	0.843312
1307.4	1.24574
1308.99	1.19571
1310.59	1.08434
1312.19	0.973611
1313.78	1.00705
1315.38	0.714519
1316.97	1.34215
1318.57	1.70417
1320.16	1.0462
1321.76	1.16229
1323.35	1.419
1324.94	1.91719
1326.54	1.25566
1328.13	1.99403
1329.72	1.07103
1331.32	1.36528
1332.91	1.13599
1334.5	1.71698
1336.09	1.5927
1337.68	1.30774
1339.27	1.02235
1340.87	1.27939
1342.45	1.19169
1344.04	1.46392
1345.64	1.03178
1347.22	1.68365
1348.81	0.993985
1350.4	1.10863
1351.99	1.40574
1353.58	0.964987
1355.17	1.00551
1356.75	1.40602
1358.34	0.627252
1359.93	1.24583
1361.51	1.38375
1363.1	1.2015
1364.69	0.660309
1366.27	0.897031
1367.86	0.596673
1369.44	1.03432
1371.03	0.796515
1372.61	0.858667
1374.2	0.762757
1375.78	1.30424
1377.37	1.16926
1378.95	1.03372
1380.53	1.35476
1382.11	0.958187
1383.7	0.640052
1385.28	0.977111
1386.86	1.15448
1388.44	1.01416
1390.02	0.537227
1391.6	1.47035
1393.19	1.47141
1394.77	0.818359
1396.35	1.2163
1397.93	0.780714
1399.51	0.760525
1401.08	0.64038
1402.66	0.401037
1404.24	1.09174
1405.82	0.655233
1407.4	0.674571
1408.97	1.2282
1410.55	1.3672
1412.13	1.24934
1413.71	0.894051
1415.28	1.42597
1416.86	0.378904
1418.43	1.24437
1420.01	1.47894
1421.59	1.10408
1423.16	1.81377
1424.73	1.75738
1426.31	1.3284
1427.88	1.56915
1429.46	0.943525
1431.03	1.43885
1432.6	1.34249
1434.18	0.910756
1435.75	1.89483
1437.32	1.6596
1438.89	1.52359
1440.46	1.76211
1442.04	1.84439
1443.61	1.63263
1445.18	2.38431
1446.75	1.76039
1448.32	1.23483
1449.89	1.61381
1451.46	1.99341
1453.03	1.76405
1454.6	1.75136
1456.16	2.19114
1457.73	1.39053
1459.3	1.67083
1460.87	1.43763
1462.44	1.57635
1464	1.47728
1465.57	1.86853
1467.14	1.80722
1468.7	1.47154
1470.27	1.39225
1471.83	1.60848
1473.4	1.47269
1474.96	0.945582
1476.53	0.98764
1478.09	1.24543
1479.66	1.09146
1481.22	1.19221
1482.78	0.940105
1484.35	1.27574
1485.91	1.33659
1487.47	1.45532
1489.04	1.27886
1490.6	0.88537
1492.16	1.21351
1493.72	0.991904
1495.28	1.10056
1496.84	0.818216
1498.4	0.906069
1499.96	1.13035
1501.52	0.714654
1503.08	1.13491
1504.64	1.0709
1506.2	1.23953
1507.76	0.711002
1509.32	0.607436
1510.88	0.657294
1512.44	0.340029
1513.99	0.388883
1515.55	-0.042696
1517.11	-0.0694714
1518.66	0.345555
1520.22	0.434649
1521.78	0.542855
1523.33	0.841599
1524.89	0.737931
1526.44	0.404698
1528	0.490287
1529.55	0.499066
1531.11	0.545796
1532.66	0.630842
1534.21	0.508309
1535.77	0.311461
1537.32	0.81502
1538.87	0.299056
1540.43	0.105007
1541.98	0.909784
1543.53	0.263852
1545.08	0.201789
1546.63	0.252331
1548.18	0.227569
1549.74	0.427729
1551.29	0.796193
1552.84	0.771669
1554.39	0.579963
1555.94	0.539379
1557.48	0.631272
1559.03	0.501144
1560.58	0.783372
1562.13	0.712704
1563.68	0.68044
1565.23	0.742022
1566.78	0.355805
1568.32	0.865129
1569.87	0.590203
1571.42	0.968202
1572.96	0.599257
1574.51	0.678183
1576.05	0.589131
1577.6	0.761647
1579.14	0.691895
1580.69	0.921513
1582.24	1.2454
1583.78	0.710938
1585.32	0.606693
1586.87	0.671104
1588.41	1.46517
1589.95	1.23048
1591.5	1.46313
1593.04	1.02133
1594.58	1.51552
1596.12	0.848414
1597.67	1.02473
1599.21	0.564342
1600.75	0.835834
1602.29	1.29573
1603.83	1.13635
1605.37	1.37062
1606.91	0.927057
1608.45	1.42112
1609.99	0.935493
1611.53	1.19929
1613.07	1.25431
1614.6	0.838788
1616.14	1.09859
1617.68	1.11493
1619.22	0.757768
1620.75	0.589665
1622.29	0.348072
1623.83	0.725107
1625.37	1.00843
1626.9	1.04756
1628.44	1.12276
1629.97	0.691619
1631.51	1.13828
1633.04	1.41595
1634.58	1.18965
1636.11	0.964439
1637.65	1.71012
1639.18	1.30002
1640.72	1.16976
1642.25	1.22522
1643.78	1.68912
1645.31	1.23944
1646.85	1.84932
1648.38	1.43608
1649.91	1.63661
1651.44	1.33692
1652.97	1.16867
1654.5	0.779202
1656.03	1.52118
1657.56	1.16941
1659.1	1.15046
1660.62	0.815515
1662.15	1.27499
1663.68	1.65872
1665.21	1.87504
1666.74	1.53782
1668.27	1.03628
1669.8	1.60591
1671.32	1.71596
1672.85	0.924538
1674.38	0.612754
1675.91	0.797933
1677.43	0.374872
1678.96	0.852485
1680.49	0.997647
1682.01	1.16026
1683.54	0.642974
1685.06	1.17237
1686.59	0.454473
1688.11	1.11244
1689.64	0.341276
1691.16	1.03584
1692.68	0.796503
1694.21	0.154931
1695.73	0.921495
1697.25	0.225286
1698.78	0.0590858
1700.3	0.768624
1701.82	0.1819
1703.34	0.652404
1704.86	0.429694
1706.39	0.461609
1707.91	0.0932827
1709.43	0.706286
1710.95	0.610593
1712.47	0.388327
1713.99	0.383981
1715.51	-0.362469
1717.02	0.411535
1718.54	0.226308
1720.06	0.366348
1721.58	0.0192118
1723.1	-0.272744
1724.62	0.0672131
1726.13	0.101922
1727.65	0.0838766
1729.17	-0.203158
1730.68	0.13818
1732.2	-0.0950394
1733.72	-0.0255013
1735.23	0.495684
1736.75	0.423367
1738.26	0.0969057
1739.78	-0.428322
1741.29	-0.226727
1742.81	0.100509
1744.32	0.408435
1745.84	-0.247796
1747.35	0.118554
1748.86	0.263405
1750.37	0.26259
1751.89	-0.185606
1753.4	-0.0480223
1754.91	0.000370026
1756.42	-0.0207872
1757.93	0.099062
1759.45	-0.324847
1760.96	-0.0170126
1762.47	0.10671
1763.98	-0.0564556
1765.49	0.296563
1767	0.150323
1768.51	-0.0442266
1770.02	-0.0235205
1771.53	0.0523996
1773.03	-0.353164
1774.54	0.0631657
1776.05	0.0167046
1777.56	0.330913
1779.07	0.0215492
1780.57	0.156464
1782.08	-0.12917
1783.59	-0.030653
1785.09	0.143756
1786.6	0.192485
1788.11	0.0198469
1789.61	0.253598
1791.12	0.439095
1792.62	0.118398
1794.13	0.367659
1795.63	0.132898
1797.13	-0.0242577
1798.64	-0.0877581
1800.14	0.00500107
1801.65	-0.0643482
1803.15	-0.00378799
1804.65	0.282155
1806.15	0.263757
1807.66	0.178885
1809.16	0.0267601
1810.66	0.209803
1812.16	0.160398
1813.66	0.132547
1815.16	-0.118804
1816.66	-0.167401
1818.16	-0.382098
1819.66	-0.113023
1821.16	0.222054
1822.66	-0.237164
1824.16	-0.0501642
1825.66	0.196101
1827.16	-0.127692
1828.66	0.196886
1830.16	0.0220261
1831.65	-0.0214272
1833.15	0.0745506
1834.65	0.354489
1836.14	0.174436
1837.64	-0.0599556
1839.14	-0.0894079
1840.63	0.119036
1842.13	-0.0652742
1843.62	0.284811
1845.12	-0.0248547
1846.61	-0.0903082
1848.11	-0.00610352
1849.6	0.0608768
1851.1	0.155401
1852.59	-0.0760984
1854.08	0.103327
1855.58	-0.00584412
1857.07	0.176852
1858.56	-0.078352
1860.05	0.310078
1861.55	-0.012785
1863.04	-0.0543661
1864.53	-0.120007
1866.02	-0.0842314
1867.51	0.00879574
1869	0.167928
1870.49	0.0432558
1871.98	0.0334578
1873.47	-0.0379076
1874.96	-0.0350962
1876.45	-0.102267
1877.94	0.146913
1879.43	0.274552
1880.92	0.117921
1882.41	0.119011
1882.51	0.119504
1884	0.258562
1885.5	0.0656261
1886.99	0.115827
1888.48	0.148048
1889.98	0.163021
1891.47	0.161579
1892.96	0.266082
1894.46	0.23334
1895.95	0.236961
1897.44	0.0327511
1898.93	0.437194
1900.42	0.144836
1901.91	0.129169
1903.41	-0.0621881
1904.9	0.0406694
1906.39	-0.0484905
1907.88	0.157616
1909.37	-0.10452
1910.86	0.34588
1912.35	0.484697
1913.83	0.554682
1915.32	0.399318
1916.81	-0.501808
1918.3	0.104894
1919.79	0.0177202
1921.27	-0.294665
1922.76	-0.225522
1924.25	0.0348721
1925.74	0.382891
1927.22	-0.20285
1928.71	0.268125
1930.19	0.566025
1931.68	0.101182
1933.17	-0.157284
1934.65	0.309648
1936.14	0.411154
1937.62	0.511302
1939.11	0.00607777
1940.59	-0.0147095
1942.07	0.276005
1943.56	0.170757
1945.04	0.273401
1946.52	0.359137
1948.01	0.255018
1949.49	-0.0220375
1950.97	-0.644174
1952.45	-0.543765
1953.93	0.209395
1955.42	0.102259
1956.9	0.25324
1958.38	0.19878
1959.86	0.162278
1961.34	-0.388045
1962.82	0.279233
1964.3	0.414659
1965.78	0.138451
1967.26	-0.0696993
1968.74	0.0980453
1970.21	-0.367451
1971.69	0.363085
1973.17	0.307369
1974.65	0.0301085
1976.13	0.213607
1977.6	0.209665
1979.08	0.0356216
1980.56	0.0999212
1982.03	-0.0400143
1983.51	-0.0951157
1984.99	-0.269282
1986.46	0.285866
1987.94	0.196149
1989.41	-0.0285978
1990.89	-0.0492907
1992.36	0.438361
1993.84	0.0305586
1995.31	-0.038105
1996.78	-0.156967
1998.26	0.467306
1999.73	-0.141689
2001.2	0.56545
2002.68	0.0232916
2004.15	0.0547028
2005.62	-0.0315409
2007.09	0.320946
2008.56	0.236348
2010.04	-0.30189
2011.51	-0.0482845
2012.98	-0.316455
2014.45	0.374278
2015.92	0.12178
2017.39	-0.0810127
2018.86	0.387979
2020.33	0.654329
2021.8	0.198132
2023.26	0.330201
2024.73	0.261608
2026.2	0.0600605
2027.67	0.296079
2029.14	0.315545
2030.61	0.168613
2032.07	-0.0781126
2033.54	-0.0559254
2035.01	0.453276
2036.47	0.0217047
2037.94	-0.14179
2039.4	-0.0368414
2040.87	0.269814
2042.33	-0.213292
2043.8	0.0104713
2045.27	0.0501823
2046.73	0.259036
2048.19	0.232592
2049.66	0.576578
2051.12	0.262291
2052.59	0.26667
2054.05	-0.405371
2055.51	0.388078
2056.97	0.100883
2058.44	0.436565
2059.9	0.317023
2061.36	0.450541
2062.82	0.130314
2064.28	0.215146
2065.74	0.233641
2067.21	0.286644
2068.67	-0.114189
2070.13	0.427844
2071.59	0.212494
2073.05	0.468396
2074.51	-0.101033
2075.96	0.221653
2077.42	0.224035
2078.88	-0.0770988
2080.34	0.480126
2081.8	0.194855
2083.26	0.0941839
2084.72	0.295737
2086.17	0.395491
2087.63	0.662676
2089.09	0.156105
2090.54	0.472901
2092	0.453522
2093.45	0.568311
2094.91	0.296995
2096.37	0.478027
2097.82	0.52416
2099.28	0.418962
2100.73	0.397212
2102.19	0.459256
2103.64	0.421846
2105.09	0.1688
2106.55	0.501256
2108	0.617744
2109.45	0.467735
2110.91	0.600663
2112.36	0.682174
2113.81	0.545369
2115.26	0.673357
2116.72	0.517579
2118.17	0.51187
2119.62	0.490892
2121.07	0.571395
2122.52	0.720124
2123.97	0.323063
2125.42	0.639729
2126.87	0.558179
2128.32	0.724301
2129.77	0.75637
2131.22	0.869893
2132.67	0.469335
2134.11	0.846708
2135.56	0.893778
2137.01	0.710898
2138.46	1.20754
2139.91	0.516188
2141.35	0.685851
2142.8	0.426855
2144.25	1.16089
2145.7	1.03508
2147.14	1.0082
2148.59	1.27877
2150.03	1.3498
2151.48	1.55233
2152.92	1.17391
2154.37	1.34139
2155.81	1.35925
2157.26	1.32748
2158.7	1.26332
2160.15	1.33305
2161.59	1.58691
2163.03	1.4782
2164.47	1.22169
2165.92	1.34755
2167.36	1.75595
2168.8	0.966803
2170.24	1.58875
2171.69	1.07765
2173.13	1.21323
2174.57	1.26419
2176.01	1.56398
2177.45	1.11563
2178.89	1.03392
2180.33	1.36885
2181.77	1.28904
2183.21	1.69209
2184.65	1.5467
2186.09	1.28487
2187.53	1.18936
2188.97	1.72627
2190.4	1.66411
2191.84	1.03561
2193.28	1.10549
2194.72	1.04084
2196.16	0.941081
2197.59	1.03904
2199.03	1.45105
2200.47	1.19677
2201.9	1.07553
2203.34	0.888748
2204.77	1.21731
2206.21	0.999692
2207.64	1.29637
2209.08	0.963359
2210.51	0.845037
2211.95	1.08973
2213.38	1.08539
2214.82	1.21303
2216.25	0.631347
2217.68	0.777351
2219.12	0.891481
2220.55	0.610747
2221.98	0.379763
2223.41	0.626033
2224.85	0.87072
2226.28	0.718449
2227.71	0.909991
2229.14	0.689249
2230.57	0.665047
2232	0.411259
2233.43	0.763938
2234.86	0.429835
2236.29	0.505949
2237.72	0.648784
2239.15	0.287516
2240.58	0.874552
2242.01	0.386745
2243.44	0.92774
2244.87	0.620981
2246.29	0.623472
2247.72	0.477621
2249.15	0.411246
2250.58	0.798911
2252.01	0.712144
2253.43	0.559613
2254.86	0.537624
2256.29	0.338494
2257.71	-0.150184
2259.14	0.223929
2260.56	0.47102
2261.99	0.460937
2263.41	0.387459
2264.84	0.021699
2266.26	0.208017
2267.69	0.328699
2269.11	0.595047
2270.53	0.535195
2271.96	0.40966
2273.38	0.609616
2274.8	0.451356
2276.23	0.407282
2277.65	0.31446
2279.07	0.368372
2280.49	0.275492
2281.91	0.361858
2283.34	0.464499
2284.76	0.404029
2286.18	0.376385
2287.6	0.332748
2289.02	0.354844
2290.44	0.50807
2291.86	-0.155656
2293.28	0.128711
2294.7	0.495108
2296.12	0.157887
2297.54	0.115082
2298.96	0.219723
2300.37	-0.0031662
2301.79	0.249532
2303.21	0.273068
2304.63	0.231122
2306.04	0.468254
2307.46	0.11376
2308.88	-0.027874
2310.3	0.356024
2311.71	0.328553
2313.13	0.284569
2314.54	0.0763388
2315.96	0.329703
2317.37	0.22161
2318.79	0.262197
2320.2	0.121178
2321.62	-0.120022
2323.03	-0.0330334
2324.45	0.0187855
2325.86	0.72838
2327.27	0.396817
2328.69	0.658135
2330.1	0.342835
2331.51	-0.053606
2332.92	0.0450516
2334.34	-0.118802
2335.75	0.39213
2337.16	0.211638
2338.57	0.359127
2339.98	-0.0861902
2341.39	0.0592804
2342.8	0.0399618
2344.21	0.233826
2345.63	-0.0803757
2347.04	0.31039
2348.45	0.0459442
2349.85	0.386736
2351.26	0.121469
2352.67	-0.307646
2354.08	0.0789919
2355.49	-0.269302
2356.9	-0.0147228
2358.3	-0.362535
2359.71	-0.0108547
2361.12	0.29148
2362.53	0.252686
2363.93	-0.0128708
2365.34	0.094182
2366.75	0.0234098
2368.15	0.35698
2369.56	0.239257
2370.97	-0.102672
2372.37	0.0887289
2373.77	0.0876608
2375.18	0.022583
2376.59	0.0698376
2377.99	0.0517082
2379.39	0.0964041
2380.8	-0.101361
2382.2	-0.428326
2383.6	-0.178802
2385.01	0.213851
2386.41	0.254433
2387.81	0.29579
2389.21	-0.0125456
2390.62	-0.27136
2392.02	0.0603428
2393.42	0.281212
2394.82	0.184588
2396.22	-0.0861492
2397.62	0.20015
2399.02	0.24851
2400.42	0.233787
2401.82	0.20349
2403.22	-0.0332098
2404.62	0.0632687
2406.02	0.0319004
2407.42	0.364614
2408.82	0.204607
2410.22	0.0285778
2411.62	0.0588875
2413.01	0.05826
2414.41	0.074666
2415.81	0.0924606
2417.21	0.269844
2418.6	0.368983
2420	-0.0224342
2421.4	-0.144819
2422.79	-0.0774641
2424.19	-0.0261984
2425.59	-0.117491
2426.98	0.12449
2428.38	-0.552102
2429.77	0.167338
2431.17	0.269244
2432.56	0.212662
2433.95	0.0125875
2435.35	0.0813923
2436.74	0.291811
2438.14	0.135341
2439.53	0.485974
2440.92	0.422634
2442.31	0.311168
2443.71	0.199499
2445.1	0.262219
2446.49	0.308878
2447.88	0.0701094
2449.27	-0.0417423
2450.67	-0.0266218
2452.06	-0.216779
2453.45	0.242644
2454.84	0.0540495
2456.23	0.0401773
2457.62	-0.00502491
2459.01	0.0603533
2460.4	0.31495
2461.79	0.378934
2463.18	0.426293
2464.57	0.236047
2465.95	-0.00172234
2467.34	0.234184
2468.73	0.13848
2470.12	0.389632
2471.5	0.0568714
2472.89	0.133418
2474.28	-0.23165
2475.67	-0.109152
2477.05	0.295713
2478.44	-0.00684166
2479.82	0.397383
2481.21	0.111223
2482.6	0.248472
2483.98	-0.021965
2485.37	0.442322
2486.75	0.185896
2488.13	-0.00859356
2489.52	-0.0474663
2490.9	0.318277
2492.29	0.0773392
2493.67	0.319327
2495.05	0.158792
2496.44	-0.12425
2497.82	-0.220197
2499.2	0.272424
2500.58	0.361889
2501.97	-0.0750136
2503.35	0.429812
2504.73	0.0226965
2506.11	0.0934963
2507.49	-0.00539875
2508.87	0.203511
2510.25	0.120583
2511.63	0.437338
2513.01	-0.165457
2514.39	-0.0925169
2515.77	0.639284
2517.15	0.193071
2518.53	0.328862
2519.91	0.388283
2521.29	0.0961142
2522.67	0.139456
2524.05	-0.107859
2525.42	0.558951
2526.8	-0.00903893
2528.18	-0.210569
2529.55	0.0605669
2530.93	0.241689
2532.31	-0.229065
2533.69	0.152417
2535.06	-0.10355
2536.44	-0.0101089
2537.81	0.0827045
2539.19	0.493523
2540.56	0.371904
2541.94	0.401773
2543.31	0.264987
2544.69	0.0835786
2546.06	0.388759
2547.44	0.255241
2548.81	-0.438831
2550.18	-0.344002
2551.56	-0.264744
2552.93	0.405578
2554.3	0.103639
2555.67	0.0740247
2557.04	-0.0926137
2558.42	0.0894666
2559.79	0.423285
2561.16	0.227006
2562.53	0.09202
2563.9	0.093996
2565.27	-0.00969267
2566.64	0.159628
2568.01	0.238123
2569.38	0.134759
2570.75	0.122328
2572.12	-0.0264893
2573.49	0.143086
2574.86	0.206656
2576.23	-0.169403
2577.6	0.409631
2578.97	0.124229
2580.33	-0.025054
2581.7	0.295328
2583.07	0.494019
2584.44	-0.171675
2585.8	0.0115786
2587.17	-0.00213194
2588.54	0.151048
2589.9	0.0618424
2591.27	0.321066
2592.64	0.0949392
2594	0.140804
2595.37	-0.0717626
2596.73	-0.1943
2598.1	0.196909
2599.46	-0.017457
2600.83	0.25204
2602.19	-0.218285
2603.55	-0.0535378
2604.92	0.0965099
2606.28	0.322064
2607.64	0.381279
2609.01	0.108055
2610.37	0.165358
2611.73	-0.200087
2613.09	0.155773
2614.46	0.269854
2615.82	0.023313
2617.18	0.00234461
2618.54	0.0568614
2619.9	0.291573
2621.26	-0.0714703
2622.62	0.328556
2623.98	0.160843
2625.34	0.426052
2626.7	0.168738
2628.06	0.582024
2629.42	0.503026
2630.78	0.379307
2632.14	0.359739
2633.5	0.44413
2634.86	0.335412
2636.21	0.167521
2637.57	-0.0742021
2638.93	0.0990868
2640.29	0.198275
2641.64	0.22364
2643	0.382196
2644.36	0.0682878
2645.71	0.0202899
2647.07	0.281568
2648.43	0.202993
2649.78	0.197356
2651.14	0.529194
2652.49	-0.0651717
2653.85	0.0167446
2655.2	-0.0473804
2656.56	0.080018
2657.91	-0.33323
2659.26	0.17643
2660.62	0.144968
2661.97	-0.354249
2663.32	0.183569
2664.68	-0.0682483
2666.03	0.175489
2667.38	0.0103297
2668.74	0.151136
2670.09	-0.100871
2671.44	0.156862
2672.79	-0.0210586
2674.14	0.222955
2675.49	0.336631
2676.84	-0.173109
2678.19	0.304382
2679.54	0.2024
2680.89	0.043457
2682.24	0.161117
2683.59	0.0479174
2684.94	-0.122449
2686.29	0.0122237
2687.64	-0.172469
2688.99	0.0481677
2690.34	-0.182752
2691.69	0.136257
2693.03	0.00387096
2694.38	0.131704
2695.73	0.099802
2697.08	0.3727
2698.42	0.197713
2699.77	0.285029
2701.12	-0.0604076
2702.46	0.305177
2703.81	0.396704
2705.15	0.0538964
2706.5	0.378031
2707.85	-0.139419
2709.19	0.155261
2710.54	0.261015
2711.88	-0.0982628
2713.22	0.0361543
2714.57	0.315955
2715.91	-0.0293536
2717.26	0.323121
2718.6	0.515523
2719.94	0.198371
2721.29	0.0407596
2722.63	0.362967
2723.97	0.233545
2725.31	-0.0418534
2726.66	0.162725
2728	0.29421
2729.34	0.23626
2730.68	0.381894
2732.02	0.381972
2733.36	0.163929
2734.7	0.455192
2736.04	0.33936
2737.38	0.150956
2738.72	0.0788989
2740.06	0.297467
2741.4	0.210197
2742.74	-0.0520959
2744.08	0.426278
2745.42	-0.243944
2746.76	0.204125
2748.09	-0.24831
2749.43	-0.0619211
2750.77	0.124495
2752.11	0.209521
2753.45	0.106305
2754.78	0.206156
2756.12	0.175721
2757.46	0.174417
2758.79	0.361546
2760.13	0.0568795
2761.46	0.172432
2762.8	0.302882
2764.14	0.0718989
2765.47	-0.1446
2766.8	-0.202335
2768.14	0.404469
2769.47	0.0987778
2770.81	0.109925
2772.14	0.0764451
2773.48	-0.116674
2774.81	0.122524
2776.14	-0.12847
2777.48	-0.277969
2778.81	-0.0240741
2780.14	0.186819
2781.47	0.0243559
2782.8	0.16357
2784.14	0.08742
2785.47	0.154673
2786.8	0.0501375
2788.13	0.0320845
2789.46	-0.0424533
2790.79	-0.316326
2792.12	0.154189
2793.45	0.124585
2794.78	-0.233674
2796.11	0.0366263
2797.44	0.0634418
2798.77	0.00404501
2800.1	0.0299306
2801.43	0.0698056
2802.76	0.0381742
2804.09	-0.378435
2805.41	0.258973
2806.74	-0.0728378
2808.07	-0.177213
2809.4	0.428783
2810.72	-0.0738115
2812.05	0.247963
2813.38	0.0881891
2814.71	0.043345
2816.03	-0.0709953
2817.36	0.085031
2818.68	0.0856943
2820.01	0.185593
2821.33	0.185861
2822.66	-0.0270619
2823.98	0.0287037
2825.31	-0.170841
2826.63	-0.384412
2827.96	0.138796
2829.28	-0.116247
2830.6	0.308666
2831.93	0.238308
2833.25	0.521778
2834.57	0.12553
2835.9	0.37991
2837.22	0.350718
2838.54	0.448442
2839.86	0.263084
2841.18	0.629306
2842.5	0.614101
2843.83	0.641909
2845.15	0.896506
2846.47	0.953834
2847.79	1.03978
2849.11	0.616947
2850.43	0.631981
2851.75	0.886854
2853.07	0.773783
2854.39	1.19736
2855.71	0.871821
2857.03	1.22444
2858.35	0.955534
2859.66	1.35044
2860.98	1.50504
2862.3	1.39105
2863.62	1.36145
2864.94	1.67026
2866.25	1.78141
2867.57	1.65298
2868.89	1.96212
2870.2	1.77813
2871.52	2.14409
2872.84	1.96004
2874.15	1.91629
2875.47	2.15329
2876.78	2.33277
2878.1	1.77959
2879.41	2.22525
2880.73	2.2912
2882.04	2.35785
2883.36	2.07434
2884.67	2.53606
2885.99	1.9453
2887.3	2.61802
2888.61	2.0833
2889.93	2.36176
2891.24	1.92413
2892.55	2.50944
2893.86	2.61775
2895.18	2.68431
2896.49	2.55561
2897.8	2.53994
2899.11	2.53923
2900.42	2.60922
2901.73	2.81952
2903.05	2.89013
2904.36	2.31744
2905.67	2.78009
2906.98	3.25724
2908.29	3.17567
2909.6	3.47266
2910.91	3.46244
2912.21	3.74616
2913.52	3.79127
2914.83	4.05905
2916.14	3.56918
2917.45	3.51188
2918.76	4.15323
2920.07	3.92684
2921.37	3.81309
2922.68	4.18982
2923.99	4.37209
2925.29	3.8985
2926.6	4.87927
2927.91	4.69989
2929.22	4.74381
2930.52	4.59148
2931.83	4.76022
2933.13	4.67708
2934.44	4.66381
2935.74	4.97211
2937.05	4.79141
2938.35	5.43537
2939.66	4.33289
2940.96	4.86583
2942.26	4.49132
2943.57	4.49526
2944.87	4.20694
2946.18	4.38109
2947.48	4.26218
2948.78	3.72304
2950.08	4.30256
2951.39	4.02642
2952.69	3.83242
2953.99	3.6791
2955.29	3.69344
2956.59	3.75058
2957.9	3.52972
2959.2	2.97531
2960.5	3.47364
2961.8	3.23157
2963.1	3.38272
2964.4	2.80354
2965.7	3.17757
2967	3.26935
2968.3	3.00845
2969.6	2.6623
2970.9	2.76595
2972.19	2.75739
2973.49	2.52399
2974.79	2.64237
2976.09	2.74616
2977.39	2.35593
2978.68	2.49915
2979.98	2.17614
2981.28	1.82396
2982.58	2.54048
2983.87	1.86484
2985.17	1.65451
2986.47	1.90936
2987.76	2.22177
2989.06	1.67795
2990.35	1.51377
2991.65	1.50375
2992.94	1.4225
2994.24	1.5087
2995.53	1.13027
2996.83	1.0182
2998.12	1.1867
2999.42	1.15889
3000.71	0.809102
3002	0.936674
3003.3	0.700237
3004.59	0.85628
3005.88	0.59187
3007.18	0.845042
3008.47	0.621506
3009.76	0.411382
3011.05	0.620032
3012.34	0.49289
3013.64	0.631
3014.93	0.40684
3016.22	0.490115
3017.51	0.11455
3018.8	-0.0235624
3020.09	0.561726
3021.38	0.186924
3022.67	0.450742
3023.96	0.102641
3025.25	0.253574
3026.54	0.140854
3027.83	0.0979576
3029.12	0.222053
3030.41	-0.122427
3031.69	0.00433969
3032.98	0.00771761
3034.27	-0.278414
3035.56	0.373292
3036.84	-0.093606
3038.13	0.168707
3039.42	0.153581
3040.71	-0.0278797
3041.99	0.202066
3043.28	0.636905
3044.57	0.250102
3045.85	0.180242
3047.14	-0.0923858
3048.42	0.115331
3049.71	0.17468
3050.99	0.139951
3052.28	0.20153
3053.56	0.0448284
3054.85	0.405999
3056.13	0.22052
3057.41	0.238659
3058.7	0.365041
3059.98	0.436558
3061.26	0.372255
3062.55	0.308925
3063.83	0.586856
3065.11	-0.0446982
3066.39	-0.063139
3067.68	0.245648
3068.96	-0.0842433
3070.24	0.116004
3071.52	0.138701
3072.8	0.0379238
3074.08	0.0856142
3075.36	-0.0985537
3076.65	-0.214914
3077.93	0.171408
3079.21	0.219181
3080.49	0.241191
3081.77	0.142572
3083.04	-0.104116
3084.32	0.219662
3085.6	0.217941
3086.88	-0.313543
3088.16	-0.126297
3089.44	-0.333246
3090.72	0.165096
3091.99	0.0797606
3093.27	-0.195278
3094.55	0.153883
3095.83	-0.215416
3097.1	0.255995
3098.38	0.0495181
3099.66	0.100478
3100.93	0.24617
3102.21	0.364767
3103.49	0.280488
3104.76	0.0343175
3106.04	0.221988
3107.31	0.112761
3108.59	-0.36091
3109.86	-0.00807095
3111.14	-0.168684
3112.41	0.158918
3113.69	0.283931
3114.96	0.259916
3116.23	0.276176
3117.51	0.128917
3118.78	0.306192
3120.05	0.211207
3121.33	0.264565
3122.6	0.452875
3123.87	0.234461
3125.14	0.16538
3126.41	0.489273
3127.69	0.434645
3128.96	0.299414
3130.23	0.407983
3131.5	0.300361
3132.77	0.476459
3134.04	0.246907
3135.31	0.638089
3136.58	0.137901
3137.85	0.379435
3139.12	0.55293
3140.39	0.712523
3141.66	0.925725
3142.93	0.574532
3144.2	0.653995
3145.47	0.479063
3146.74	0.599965
3148	0.453393
3149.27	0.856543
