200.563	0.256879
202.377	0.268089
204.194	0.280764
206.008	0.343001
207.821	-0.615533
209.634	0.46757
211.449	0.552938
213.262	0.200189
215.074	0.113828
216.885	0.318013
218.699	-0.131801
220.51	0.799154
222.321	0.544737
224.131	0.436575
225.941	0.619104
227.751	0.366806
229.562	-0.368453
231.371	-0.500107
233.18	0.116003
234.988	0.394416
236.796	0.191819
238.603	-0.153293
240.411	0.25114
242.219	-0.282506
244.026	0.101311
245.832	0.702659
247.638	-0.0731764
249.443	0.790257
251.248	0.854007
253.053	0.456608
254.857	-0.617361
256.661	0.0694981
258.465	-0.135096
260.268	0.0715694
262.071	0.111338
263.874	0.321303
265.678	-0.0941181
267.48	-0.0996809
269.282	1.29265
271.083	0.635408
272.884	0.169862
274.684	0.619233
276.484	0.126893
278.284	0.524752
280.084	-0.139289
281.883	-0.0582085
283.682	-0.1472
285.48	0.771762
287.276	0.176265
289.074	-0.130241
290.871	-0.291702
292.668	0.76897
294.465	0.32281
296.261	0.404537
298.057	-0.0624371
299.853	0.140347
301.648	0.98772
303.443	0.783191
305.237	-0.138234
307.032	0.18074
308.823	0.594558
310.617	0.293806
312.41	-0.00550747
314.203	0.387432
315.995	0.710654
317.788	0.583217
319.579	0.576344
321.369	0.451414
323.16	-0.0305758
324.951	0.203177
326.741	0.389591
328.531	0.671616
330.321	0.499129
332.108	0.612352
333.897	0.245533
335.686	0.163738
337.474	0.582365
339.26	0.640049
341.048	0.289733
342.835	0.966842
344.622	0.28148
346.406	1.00634
348.192	-0.0832109
349.978	0.188972
351.764	0.174662
353.547	0.112111
355.332	0.120209
357.116	0.0555811
358.901	0.537891
360.682	-0.386435
362.466	0.331637
364.249	0.35841
366.03	-0.0193682
367.812	0.409775
369.594	0.173417
371.374	0.410452
373.155	0.00756836
374.936	0.408725
376.715	0.28979
378.495	0.124487
380.273	0.125277
382.053	0.809722
383.832	0.388984
385.609	0.346123
387.388	-0.235963
389.164	-0.0884428
390.942	0.43569
392.72	-0.072835
394.495	-0.392888
396.272	0.461631
398.047	-0.0928535
399.823	-0.154305
401.597	0.0422106
403.372	-0.255073
405.145	-0.130245
406.92	0.299184
408.693	0.0705452
410.467	0.123403
412.239	0.66912
414.012	0.4877
415.783	0.447797
417.556	0.455611
419.327	-0.146111
421.099	-0.184469
422.869	-0.457824
424.64	0.0663567
426.409	0.261074
428.18	0.36113
429.948	0.0382328
431.718	0.818516
433.486	0.824551
435.253	-0.201718
437.022	-0.195359
438.789	0.79604
440.558	0.284054
442.324	-0.0418797
444.089	0.169724
445.857	0.355941
447.622	-0.535795
449.386	0.0701523
451.153	0.511596
452.917	0.182311
454.682	0.366898
456.446	0.131677
458.208	0.0131454
459.973	0.337001
461.735	-0.0132723
463.497	-0.129271
465.259	-0.0803804
467.022	0.0872345
468.783	0.0713749
470.544	0.0804129
472.306	0.136512
474.066	0.0289736
475.825	0.12936
477.585	1.01987
479.346	0.371267
481.104	0.676842
482.862	0.540049
484.62	0.52087
486.38	0.596735
488.137	0.464899
489.894	0.381475
491.65	0.158833
493.407	0.0532169
495.164	1.16378
496.92	0.309878
498.675	0.813152
500.43	0.167723
502.184	0.248215
503.939	0.116606
505.694	0.641902
507.448	-0.126933
509.201	0.560751
510.954	0.235526
512.706	0.638238
514.459	0.568932
516.21	-0.160321
517.962	0.0033989
519.715	0.753772
521.466	0.281005
523.216	0.0900822
524.966	0.298174
526.716	0.388742
528.466	0.315121
530.215	0.82731
531.964	0.706183
533.712	-0.35182
535.46	0.297972
537.208	0.0340662
538.955	-0.347315
540.703	0.157209
542.449	0.0310135
544.196	0.137416
545.942	0.0576696
547.688	0.117525
549.433	-0.17024
551.178	0.191157
552.923	0.575057
554.667	0.450024
556.412	0.0485411
558.155	-0.121204
559.899	0.608289
561.642	-0.251217
563.385	0.133198
565.127	0.448626
566.867	0.235952
568.609	-0.136431
570.35	0.938184
572.092	0.178144
573.832	0.176888
575.573	-0.396273
577.313	0.110306
579.053	0.0444889
580.79	-0.0666618
582.529	0.212807
584.268	-0.0367537
586.006	-0.103452
587.745	0.334791
589.482	0.334941
591.218	0.380258
592.955	0.0569839
594.692	-0.0593433
596.428	0.537587
598.164	-0.0158634
599.898	-0.523614
601.634	0.279172
603.369	-0.253364
605.104	0.454542
606.836	0.517258
608.57	0.16582
610.304	-0.116448
612.037	0.0378475
613.769	-0.082407
615.501	0.118876
617.234	0.297234
618.966	-0.395279
620.696	0.147927
622.427	0.231888
624.159	-0.256495
625.887	-0.036025
627.618	-0.0888157
629.348	0.0199499
631.076	0.632769
632.806	0.0836811
634.535	-0.350526
636.262	0.401812
637.99	0.855848
639.716	0.37146
641.444	0.3865
643.172	0.330925
644.897	0.00116825
646.624	0.286487
648.348	0.209461
650.075	0.317168
651.801	0.405661
653.524	0.134081
655.249	0.206379
656.972	0.508528
658.697	0.72095
660.419	0.659523
662.143	0.2767
663.865	0.0740051
665.588	0.852055
667.309	0.668317
669.032	0.506723
670.752	0.711876
672.474	0.552821
674.194	0.166821
675.915	0.423923
677.634	0.223697
679.355	0.160964
681.073	1.08577
682.793	0.767959
684.511	-0.150808
686.23	-0.381258
687.947	0.515452
689.664	0.536124
691.382	0.671296
693.098	0.6216
694.816	1.05486
696.531	0.681069
698.247	0.674671
699.963	0.690107
701.678	0.888433
703.392	0.648964
705.108	0.684743
706.821	0.674097
708.534	0.731869
710.249	0.330937
711.962	0.937609
713.674	0.856777
715.388	0.410275
717.099	0.946255
718.81	0.728631
720.523	1.01292
722.234	0.682072
723.944	0.624839
725.654	0.635778
727.365	0.850816
729.075	0.974319
730.784	0.847804
732.492	0.290909
734.202	0.956606
735.91	1.10123
737.618	0.568552
739.325	0.939837
741.034	0.477394
742.741	0.669961
744.447	0.548341
746.153	0.855659
747.859	1.11905
749.564	0.6638
751.271	1.15447
752.976	0.971579
754.681	0.677428
756.385	0.744547
758.088	0.565423
759.792	0.860527
761.495	1.54032
763.2	1.20622
764.902	1.50359
766.604	0.941615
768.306	1.34939
770.008	1.39362
771.709	0.757538
773.41	1.5448
775.11	1.94718
776.811	1.60396
778.51	1.64637
780.21	1.7355
781.909	1.98408
783.608	2.23292
785.307	1.16776
787.005	2.36386
788.703	1.36125
790.401	1.37422
792.098	1.70108
793.795	1.21307
795.492	1.24457
797.188	1.36703
798.884	1.15304
800.58	1.79625
802.276	2.35016
803.971	1.98223
805.665	1.86167
807.36	1.85275
809.054	1.50585
810.748	1.60709
812.441	2.13333
814.135	1.0899
815.826	1.30157
817.518	1.42336
819.21	1.29919
820.902	2.22485
822.594	2.25695
824.285	1.06358
825.976	2.07901
827.665	0.801424
829.355	1.75395
831.045	1.19482
832.735	0.927626
834.424	1.50912
836.111	0.753839
837.8	1.89452
839.488	1.04794
841.177	1.18207
842.864	1.73959
844.55	1.35837
846.237	1.67056
847.924	1.35857
849.61	1.04854
851.295	1.07618
852.98	1.66599
854.666	1.45001
856.349	1.07611
858.034	1.24007
859.719	1.58279
861.403	0.865946
863.085	1.38592
864.769	0.981133
866.452	0.958491
868.133	1.04801
869.816	1.36269
871.498	0.932794
873.179	0.886116
874.86	1.06499
876.54	0.634618
878.221	1.17465
879.902	1.53414
881.58	0.516257
883.26	0.671541
884.938	1.3676
886.618	0.820838
888.297	0.814424
889.974	1.18994
891.653	1.20308
893.329	1.26001
895.007	1.18073
896.683	0.898299
898.36	0.817599
900.035	0.736238
901.712	0.295892
903.387	0.706409
905.063	0.445325
906.737	1.59121
908.412	1.17447
910.085	1.44981
911.76	0.991336
913.433	0.845532
915.107	0.87792
916.779	0.888109
918.452	0.743078
920.124	0.753425
921.797	1.11819
923.467	0.665624
925.138	1.12082
926.81	0.649912
928.48	0.600242
930.151	0.926797
931.82	0.900827
933.489	1.16188
935.16	0.717189
936.828	0.140676
938.496	0.822088
940.165	0.887076
941.833	1.06349
943.5	0.490376
945.168	0.733457
946.834	0.511996
948.5	0.686201
950.168	0.660031
951.834	0.721069
953.499	0.82629
955.163	0.756536
956.83	0.71138
958.494	0.691192
960.158	0.872129
961.821	0.657045
963.487	0.59621
965.15	0.931838
966.812	1.221
968.474	0.843832
970.138	0.33206
971.8	0.284244
973.461	0.391697
975.123	0.456208
976.783	0.544458
978.446	0.457082
980.106	0.425526
981.766	0.393557
983.425	0.725629
985.084	0.236867
986.743	0.963689
988.402	0.670731
990.06	0.797048
991.72	0.281769
993.378	0.694579
995.035	0.334433
996.692	0.0409851
998.349	1.02663
1000.01	0.84304
1001.66	1.12174
1003.32	0.233359
1004.97	0.445436
1006.63	0.305524
1008.28	0.253764
1009.94	-0.19261
1011.59	0.940857
1013.25	0.166684
1014.9	-0.0805635
1016.55	0.504663
1018.21	0.258316
1019.86	0.472196
1021.51	0.271454
1023.16	0.312237
1024.81	0.812778
1026.47	0.483337
1028.12	0.0447111
1029.77	-0.00113487
1031.42	0.847383
1033.07	0.296693
1034.72	0.312346
1036.37	0.326779
1038.02	0.68903
1039.67	0.702398
1041.31	0.803396
1042.96	1.10111
1044.61	0.379045
1046.26	0.875581
1047.91	1.26509
1049.55	0.418221
1051.2	0.897298
1052.84	0.660341
1054.49	0.423609
1056.14	-0.334887
1057.78	0.493018
1059.43	0.124924
1061.07	0.451994
1062.72	0.169543
1064.36	0.538584
1066	0.689182
1067.65	0.512717
1069.29	0.465836
1070.93	-0.0593204
1072.58	0.153895
1074.22	0.627752
1075.86	0.473209
1077.5	0.254888
1079.14	-0.179134
1080.78	0.276566
1082.42	-0.0917912
1084.06	0.363019
1085.7	0.209266
1087.34	0.422143
1088.98	-0.0815983
1090.62	0.409121
1092.26	0.508873
1093.9	0.370472
1095.54	0.124669
1097.17	-0.270842
1098.81	0.369336
1100.45	0.213758
1102.09	-0.0475616
1103.72	0.531796
1105.36	0.617379
1106.99	0.595897
1108.63	0.466576
1110.27	-0.244215
1111.9	-0.139218
1113.53	0.157626
1115.17	-0.384139
1116.8	0.211274
1118.43	0.377262
1120.07	0.0509272
1121.7	0.432439
1123.33	0.728926
1124.97	0.106128
1126.6	-0.0235796
1128.23	0.1896
1129.86	0.125374
1131.49	0.596137
1133.12	-0.450717
1134.75	-0.0867491
1136.38	0.490286
1138.01	0.0405102
1139.64	0.358884
1141.27	0.12102
1142.9	0.224376
1144.53	0.0505161
1146.16	0.154578
1147.78	0.238101
1149.41	-0.423327
1151.04	0.00225163
1152.67	-0.338994
1154.29	0.405363
1155.92	0.148662
1157.54	-0.0866966
1159.17	0.273957
1160.8	-0.0452499
1162.42	0.508366
1164.05	-0.23414
1165.67	0.0230761
1167.29	-0.464131
1168.92	0.66352
1170.54	0.875231
1172.16	0.426373
1173.79	0.0400925
1175.41	0.0563459
1177.03	0.0297585
1178.65	-0.314299
1180.28	0.422228
1181.9	-0.0259676
1183.52	-0.134815
1185.14	0.0311232
1186.76	-0.015152
1188.38	-0.147189
1190	-0.0488424
1191.62	0.342334
1193.24	-0.383005
1194.86	0.152569
1196.47	0.0997229
1198.09	0.529409
1199.71	0.248663
1201.33	0.0332994
1202.95	-0.471688
1204.56	0.695592
1206.18	0.278342
1207.8	-0.0124435
1209.41	0.155941
1211.03	0.427796
1212.64	0.00994205
1214.26	-0.180262
1215.87	-0.101441
1217.49	0.807754
1219.1	0.446706
1220.71	0.356184
1222.33	0.0798559
1223.94	0.343837
1225.55	-0.0123692
1227.16	0.233262
1228.78	0.541913
1230.39	0.644702
1232	0.810542
1233.61	0.48142
1235.22	0.711485
1236.83	0.632627
1238.44	0.906113
1240.05	0.332493
1241.66	0.317199
1243.27	0.736046
1244.88	0.740489
1246.49	0.702613
1248.1	0.76728
1249.71	0.458841
1251.32	0.812209
1252.92	0.793389
1254.53	1.00277
1256.14	0.861535
1257.74	0.576592
1259.35	0.996131
1260.96	0.58871
1262.56	0.989028
1264.17	0.851032
1265.77	0.629653
1267.38	0.614758
1268.98	0.909986
1270.59	0.706717
1272.19	0.751288
1273.79	0.504671
1275.4	0.775441
1277	1.52183
1278.6	1.3348
1280.21	0.712526
1281.81	1.68413
1283.41	0.710421
1285.01	1.28894
1286.61	1.24774
1288.21	1.08354
1289.81	0.982237
1291.41	1.33599
1293.01	1.35898
1294.61	1.36056
1296.21	1.27829
1297.81	1.60739
1299.41	1.25373
1301.01	0.342525
1302.6	0.729339
1304.2	0.86767
1305.8	0.511717
1307.4	0.874793
1308.99	1.91379
1310.59	1.1883
1312.19	0.628461
1313.78	1.05206
1315.38	0.760657
1316.97	1.18516
1318.57	0.793456
1320.16	1.27878
1321.76	1.39579
1323.35	1.24659
1324.94	1.25866
1326.54	1.33031
1328.13	1.72562
1329.72	1.16896
1331.32	1.52518
1332.91	1.11508
1334.5	1.7172
1336.09	1.77529
1337.68	1.24893
1339.27	1.0853
1340.87	1.24255
1342.45	1.07558
1344.04	1.34932
1345.64	1.17978
1347.22	1.55225
1348.81	1.32466
1350.4	1.27995
1351.99	0.877685
1353.58	0.857515
1355.17	1.27821
1356.75	0.959661
1358.34	0.860604
1359.93	0.481196
1361.51	0.979349
1363.1	0.758132
1364.69	0.317599
1366.27	0.415747
1367.86	0.853032
1369.44	0.713775
1371.03	0.914186
1372.61	0.260156
1374.2	0.641848
1375.78	0.566448
1377.37	0.451303
1378.95	0.614271
1380.53	1.05486
1382.11	1.21558
1383.7	1.45453
1385.28	0.440149
1386.86	0.181258
1388.44	0.875905
1390.02	0.816298
1391.6	0.658334
1393.19	-0.312188
1394.77	0.780679
1396.35	0.742631
1397.93	0.822879
1399.51	0.446427
1401.08	0.643815
1402.66	0.306067
1404.24	0.542383
1405.82	0.502106
1407.4	1.07532
1408.97	0.720259
1410.55	0.425117
1412.13	0.702721
1413.71	0.190033
1415.28	0.900249
1416.86	1.13574
1418.43	1.0553
1420.01	0.955586
1421.59	1.07356
1423.16	0.641753
1424.73	0.841388
1426.31	0.451652
1427.88	1.28266
1429.46	0.912762
1431.03	0.955357
1432.6	1.4298
1434.18	1.27361
1435.75	1.03846
1437.32	1.03958
1438.89	1.33622
1440.46	1.26028
1442.04	1.06731
1443.61	1.22873
1445.18	0.78122
1446.75	1.72937
1448.32	1.79322
1449.89	1.58215
1451.46	1.37146
1453.03	1.20052
1454.6	1.36424
1456.16	1.40992
1457.73	1.31722
1459.3	1.26266
1460.87	1.46231
1462.44	1.77816
1464	0.696031
1465.57	1.04875
1467.14	1.69542
1468.7	1.10492
1470.27	0.986788
1471.83	0.830534
1473.4	1.24407
1474.96	0.736522
1476.53	1.22942
1478.09	1.3498
1479.66	0.705607
1481.22	0.355478
1482.78	1.02439
1484.35	0.654505
1485.91	0.891694
1487.47	0.266322
1489.04	0.697343
1490.6	0.852343
1492.16	0.516381
1493.72	0.686876
1495.28	0.874912
1496.84	0.84722
1498.4	0.566458
1499.96	0.714465
1501.52	0.300156
1503.08	0.314379
1504.64	0.290563
1506.2	0.325056
1507.76	0.339581
1509.32	0.275877
1510.88	0.114842
1512.44	0.91694
1513.99	0.331046
1515.55	0.304204
1517.11	0.738688
1518.66	0.0415487
1520.22	0.725542
1521.78	0.33675
1523.33	0.846766
1524.89	0.324018
1526.44	0.507079
1528	-0.0537062
1529.55	0.356253
1531.11	0.556211
1532.66	0.301054
1534.21	0.747967
1535.77	0.494949
1537.32	0.640086
1538.87	0.747784
1540.43	0.535053
1541.98	0.944432
1543.53	0.449618
1545.08	0.538386
1546.63	0.551661
1548.18	0.545999
1549.74	1.36497
1551.29	0.609708
1552.84	1.16578
1554.39	0.675144
1555.94	0.354639
1557.48	0.558704
1559.03	0.0552912
1560.58	0.0760689
1562.13	-0.0137711
1563.68	1.10995
1565.23	0.853662
1566.78	0.48539
1568.32	0.415426
1569.87	0.755757
1571.42	0.666454
1572.96	0.894238
1574.51	0.711216
1576.05	1.01357
1577.6	0.812094
1579.14	0.778993
1580.69	0.391664
1582.24	0.658545
1583.78	0.608695
1585.32	1.28831
1586.87	0.585351
1588.41	1.02288
1589.95	0.599797
1591.5	0.70013
1593.04	1.43677
1594.58	0.843722
1596.12	1.37455
1597.67	1.30635
1599.21	0.732455
1600.75	1.28422
1602.29	0.898486
1603.83	0.587415
1605.37	1.40267
1606.91	0.958081
1608.45	0.69948
1609.99	1.09665
1611.53	0.758814
1613.07	0.795119
1614.6	1.28068
1616.14	1.20262
1617.68	0.48784
1619.22	0.992581
1620.75	0.412043
1622.29	0.638084
1623.83	0.22821
1625.37	0.567172
1626.9	0.811749
1628.44	1.2047
1629.97	0.904171
1631.51	1.14501
1633.04	0.880946
1634.58	0.860147
1636.11	0.765467
1637.65	0.46653
1639.18	0.932685
1640.72	1.39851
1642.25	1.6212
1643.78	1.2468
1645.31	0.983366
1646.85	0.756666
1648.38	1.51481
1649.91	1.69667
1651.44	1.37823
1652.97	1.76609
1654.5	1.83949
1656.03	1.63541
1657.56	1.32019
1659.1	1.59711
1660.62	1.24316
1662.15	0.832802
1663.68	1.16142
1665.21	1.58136
1666.74	1.57654
1668.27	1.0933
1669.8	1.09123
1671.32	1.45898
1672.85	1.64331
1674.38	1.58855
1675.91	1.03649
1677.43	1.14655
1678.96	1.10835
1680.49	0.83023
1682.01	0.643641
1683.54	0.879322
1685.06	0.931276
1686.59	0.433344
1688.11	0.321261
1689.64	0.942352
1691.16	0.610951
1692.68	0.536136
1694.21	1.13808
1695.73	0.806903
1697.25	-0.072298
1698.78	0.455264
1700.3	0.653316
1701.82	0.340007
1703.34	0.409321
1704.86	0.259536
1706.39	0.819154
1707.91	0.995828
1709.43	0.627251
1710.95	0.622313
1712.47	0.454363
1713.99	0.61292
1715.51	0.716964
1717.02	-0.174011
1718.54	0.255603
1720.06	0.467758
1721.58	0.0482616
1723.1	0.206804
1724.62	0.456076
1726.13	-0.122081
1727.65	0.237372
1729.17	0.651403
1730.68	0.436243
1732.2	0.507782
1733.72	0.328011
1735.23	0.59367
1736.75	-0.0333223
1738.26	-0.282037
1739.78	-0.00671482
1741.29	-0.224847
1742.81	0.116407
1744.32	0.343667
1745.84	0.255238
1747.35	0.648838
1748.86	0.454206
1750.37	-0.0369062
1751.89	0.249244
1753.4	-0.193916
1754.91	-0.0377369
1756.42	0.387821
1757.93	-0.04356
1759.45	0.0744982
1760.96	0.0228462
1762.47	0.0457411
1763.98	-0.0793848
1765.49	0.208694
1767	0.206524
1768.51	0.190485
1770.02	-0.0764055
1771.53	0.236955
1773.03	0.466839
1774.54	0.220606
1776.05	0.129276
1777.56	0.248297
1779.07	0.221994
1780.57	-0.124966
1782.08	0.223185
1783.59	0.0306778
1785.09	0.243721
1786.6	0.0727262
1788.11	0.00919247
1789.61	0.112838
1791.12	0.293262
1792.62	0.176785
1794.13	0.292964
1795.63	0.108209
1797.13	0.358457
1798.64	0.109255
1800.14	0.0983171
1801.65	0.0809889
1803.15	-0.0334435
1804.65	0.0664673
1806.15	-0.345559
1807.66	0.0185146
1809.16	-0.0378141
1810.66	0.178588
1812.16	0.077548
1813.66	0.172656
1815.16	0.128918
1816.66	0.0660028
1818.16	0.0218668
1819.66	0.137495
1821.16	0.0586281
1822.66	0.0999451
1824.16	0.31265
1825.66	0.246304
1827.16	0.12433
1828.66	-0.0274029
1830.16	-0.151121
1831.65	-0.200311
1833.15	0.102232
1834.65	0.00861835
1836.14	0.125913
1837.64	-0.343493
1839.14	0.181931
1840.63	0.140903
1842.13	0.175161
1843.62	0.0855999
1845.12	0.237899
1846.61	-0.151546
1848.11	-0.038455
1849.6	0.105056
1851.1	0.237246
1852.59	0.319296
1854.08	0.117384
1855.58	0.0966616
1857.07	0.264404
1858.56	-0.0680685
1860.05	0.143207
1861.55	0.198746
1863.04	0.0311289
1864.53	0.196349
1866.02	0.180474
1867.51	0.333848
1869	0.614171
1870.49	0.142411
1871.98	0.395618
1873.47	0.443736
1874.96	0.182387
1876.45	-0.180888
1877.94	0.178937
1879.43	-0.223408
1880.92	0.166897
1882.41	0.502593
1882.51	0.525721
1884	0.384899
1885.5	0.208596
1886.99	0.101315
1888.48	0.0110884
1889.98	-0.374651
1891.47	-0.0461626
1892.96	-0.012044
1894.46	0.128011
1895.95	-0.252153
1897.44	0.133527
1898.93	-0.141737
1900.42	0.45188
1901.91	-0.0519323
1903.41	0.0341434
1904.9	0.049324
1906.39	-0.0231037
1907.88	-0.217048
1909.37	0.422873
1910.86	-0.220835
1912.35	0.0560169
1913.83	0.159828
1915.32	0.055604
1916.81	0.332537
1918.3	0.22753
1919.79	0.00088501
1921.27	0.224642
1922.76	-0.0362158
1924.25	-0.15767
1925.74	-0.208854
1927.22	-0.189852
1928.71	0.0374994
1930.19	0.472684
1931.68	-0.0625715
1933.17	0.0242872
1934.65	0.0575991
1936.14	0.0374689
1937.62	0.500412
1939.11	0.150213
1940.59	0.180617
1942.07	0.159986
1943.56	0.105834
1945.04	-0.0854397
1946.52	-0.0349045
1948.01	-0.0190639
1949.49	0.392318
1950.97	0.0103836
1952.45	0.264709
1953.93	0.277434
1955.42	-0.173897
1956.9	0.028265
1958.38	-0.0952978
1959.86	0.125008
1961.34	-0.151651
1962.82	-0.342199
1964.3	0.203971
1965.78	0.440948
1967.26	0.214925
1968.74	0.433281
1970.21	0.0354586
1971.69	0.201608
1973.17	0.17971
1974.65	0.140879
1976.13	0.460194
1977.6	0.370447
1979.08	0.17879
1980.56	-0.335827
1982.03	0.0850182
1983.51	0.165278
1984.99	-0.348955
1986.46	0.273719
1987.94	0.251422
1989.41	-0.126178
1990.89	-0.265733
1992.36	0.103092
1993.84	0.0498085
1995.31	0.267696
1996.78	-0.156118
1998.26	-0.25881
1999.73	-0.15921
2001.2	-0.0264683
2002.68	-0.0966883
2004.15	0.507354
2005.62	0.285469
2007.09	0.28342
2008.56	-0.0882082
2010.04	0.029336
2011.51	0.197819
2012.98	0.332653
2014.45	0.147325
2015.92	0.264215
2017.39	-0.0570698
2018.86	0.0750618
2020.33	-0.0454626
2021.8	-0.1492
2023.26	-0.0846968
2024.73	0.53413
2026.2	0.398832
2027.67	-0.15438
2029.14	0.316895
2030.61	-0.233827
2032.07	0.172551
2033.54	0.0424519
2035.01	0.231327
2036.47	-0.016777
2037.94	0.221794
2039.4	0.224822
2040.87	0.362281
2042.33	0.0797873
2043.8	0.0501022
2045.27	0.0885038
2046.73	0.262313
2048.19	0.234453
2049.66	0.239982
2051.12	0.261474
2052.59	-0.106316
2054.05	0.131363
2055.51	0.0639143
2056.97	-0.156447
2058.44	0.145016
2059.9	0.294492
2061.36	0.208495
2062.82	0.274782
2064.28	0.493434
2065.74	0.460546
2067.21	0.394795
2068.67	0.21177
2070.13	0.214157
2071.59	0.0314159
2073.05	0.40414
2074.51	0.237853
2075.96	0.290161
2077.42	0.476866
2078.88	-0.313514
2080.34	0.158696
2081.8	0.175733
2083.26	0.108005
2084.72	0.308896
2086.17	0.307125
2087.63	0.0693941
2089.09	0.134017
2090.54	-0.154347
2092	0.464098
2093.45	0.51131
2094.91	0.474381
2096.37	0.302962
2097.82	0.248402
2099.28	0.293769
2100.73	0.455833
2102.19	0.918621
2103.64	0.780391
2105.09	0.142863
2106.55	0.674985
2108	0.423863
2109.45	0.673436
2110.91	0.689004
2112.36	0.436727
2113.81	0.532861
2115.26	0.26131
2116.72	0.00602436
2118.17	0.199926
2119.62	0.311699
2121.07	0.342105
2122.52	0.739098
2123.97	0.490577
2125.42	0.458274
2126.87	0.740765
2128.32	0.326044
2129.77	0.35773
2131.22	0.802283
2132.67	0.931102
2134.11	0.414561
2135.56	0.808676
2137.01	0.906303
2138.46	1.17089
2139.91	0.677045
2141.35	1.0607
2142.8	1.13152
2144.25	0.954887
2145.7	0.77824
2147.14	0.733633
2148.59	1.13561
2150.03	0.940588
2151.48	1.17535
2152.92	1.17724
2154.37	1.52627
2155.81	0.980184
2157.26	1.08031
2158.7	1.42955
2160.15	1.11746
2161.59	1.07202
2163.03	1.02829
2164.47	1.18503
2165.92	1.60843
2167.36	1.41765
2168.8	1.25884
2170.24	1.21461
2171.69	1.18498
2173.13	1.56939
2174.57	1.43674
2176.01	1.61954
2177.45	1.37014
2178.89	0.971914
2180.33	1.52229
2181.77	1.25884
2183.21	1.17883
2184.65	1.64795
2186.09	1.31878
2187.53	1.37222
2188.97	1.35915
2190.4	1.26283
2191.84	1.06633
2193.28	1.11885
2194.72	1.6363
2196.16	1.20302
2197.59	1.01771
2199.03	0.997256
2200.47	1.20845
2201.9	1.25314
2203.34	1.19885
2204.77	1.06276
2206.21	1.09353
2207.64	0.776891
2209.08	1.48705
2210.51	0.408264
2211.95	0.619995
2213.38	0.847294
2214.82	1.12369
2216.25	0.905079
2217.68	0.588797
2219.12	0.900594
2220.55	0.767864
2221.98	1.04737
2223.41	0.815309
2224.85	0.615102
2226.28	0.594584
2227.71	0.835624
2229.14	0.565863
2230.57	0.574843
2232	0.649149
2233.43	0.494382
2234.86	0.242497
2236.29	0.400557
2237.72	0.869946
2239.15	0.45944
2240.58	0.540434
2242.01	0.541493
2243.44	0.52738
2244.87	0.480988
2246.29	0.646058
2247.72	0.385637
2249.15	0.400573
2250.58	0.771897
2252.01	-0.112339
2253.43	0.337749
2254.86	0.121134
2256.29	0.182101
2257.71	0.00165272
2259.14	0.115787
2260.56	0.232458
2261.99	0.594825
2263.41	0.650438
2264.84	0.121391
2266.26	0.22556
2267.69	0.00378084
2269.11	0.155323
2270.53	0.208597
2271.96	0.635947
2273.38	0.802742
2274.8	0.432117
2276.23	0.0778022
2277.65	0.228701
2279.07	0.00478315
2280.49	0.188365
2281.91	0.274066
2283.34	0.163958
2284.76	0.119099
2286.18	0.351898
2287.6	0.160631
2289.02	0.296294
2290.44	-0.00876093
2291.86	-0.150352
2293.28	0.411279
2294.7	0.20439
2296.12	0.488303
2297.54	0.019136
2298.96	0.188527
2300.37	-0.264585
2301.79	0.134795
2303.21	0.190294
2304.63	0.31165
2306.04	0.0553355
2307.46	0.258538
2308.88	0.198436
2310.3	0.499527
2311.71	-0.153594
2313.13	0.229448
2314.54	0.399113
2315.96	0.0920358
2317.37	0.0654263
2318.79	0.220513
2320.2	0.573493
2321.62	0.0347815
2323.03	-0.1098
2324.45	-0.0913467
2325.86	0.618095
2327.27	0.286535
2328.69	0.828095
2330.1	0.940954
2331.51	0.0831871
2332.92	0.0170665
2334.34	-0.426716
2335.75	0.0511475
2337.16	0.150136
2338.57	0.0673661
2339.98	0.213714
2341.39	0.211254
2342.8	0.339622
2344.21	0.156183
2345.63	0.284618
2347.04	0.00367117
2348.45	0.181434
2349.85	-0.115758
2351.26	0.207966
2352.67	0.138317
2354.08	0.0353236
2355.49	0.567626
2356.9	0.105267
2358.3	0.0342169
2359.71	0.223379
2361.12	0.185005
2362.53	0.114273
2363.93	0.367515
2365.34	0.134803
2366.75	0.24214
2368.15	-0.0215511
2369.56	-0.00964165
2370.97	0.358027
2372.37	-0.224087
2373.77	0.25805
2375.18	-0.0646973
2376.59	-0.0335207
2377.99	0.237902
2379.39	0.0737548
2380.8	-0.252101
2382.2	0.0148091
2383.6	-0.184145
2385.01	0.129044
2386.41	0.258077
2387.81	0.243983
2389.21	0.270844
2390.62	0.0757461
2392.02	-0.0702691
2393.42	-0.11977
2394.82	0.11777
2396.22	0.180852
2397.62	0.323917
2399.02	0.244976
2400.42	0.277716
2401.82	0.294843
2403.22	0.0102654
2404.62	0.249445
2406.02	0.0750337
2407.42	0.312474
2408.82	-0.16469
2410.22	0.0716395
2411.62	0.0544181
2413.01	-0.00959826
2414.41	0.244173
2415.81	0.182543
2417.21	0.122099
2418.6	0.0782809
2420	-0.155277
2421.4	0.0545111
2422.79	0.0422626
2424.19	0.0139227
2425.59	-0.0777669
2426.98	0.00528765
2428.38	-0.0694084
2429.77	0.0152497
2431.17	0.354457
2432.56	0.297268
2433.95	0.064858
2435.35	-0.200459
2436.74	0.120734
2438.14	0.31351
2439.53	0.203259
2440.92	0.346321
2442.31	0.282425
2443.71	0.0913701
2445.1	0.0430617
2446.49	0.501997
2447.88	-0.00628662
2449.27	0.214518
2450.67	0.00782108
2452.06	-0.198258
2453.45	0.134433
2454.84	0.0405707
2456.23	0.421907
2457.62	0.0125833
2459.01	0.0618663
2460.4	-0.174017
2461.79	0.664629
2463.18	0.158589
2464.57	0.205364
2465.95	0.172862
2467.34	0.108727
2468.73	0.0761552
2470.12	0.358853
2471.5	-0.194559
2472.89	0.213012
2474.28	0.225819
2475.67	0.0335302
2477.05	-0.111636
2478.44	-0.413663
2479.82	0.116602
2481.21	-0.200532
2482.6	0.172143
2483.98	0.0428619
2485.37	0.0850825
2486.75	-0.201857
2488.13	0.306746
2489.52	0.0341916
2490.9	-0.0821605
2492.29	-0.0734291
2493.67	0.153571
2495.05	-0.146151
2496.44	-0.0877781
2497.82	-0.137184
2499.2	0.0613661
2500.58	0.0582771
2501.97	0.209062
2503.35	0.451362
2504.73	0.0907912
2506.11	0.115631
2507.49	-0.244578
2508.87	-0.0350609
2510.25	0.0822158
2511.63	-0.0149803
2513.01	0.179911
2514.39	0.160803
2515.77	0.173101
2517.15	-0.0586839
2518.53	0.0313225
2519.91	-0.337041
2521.29	-0.0637789
2522.67	0.117026
2524.05	-0.130218
2525.42	-0.0881357
2526.8	-0.000676155
2528.18	-0.049964
2529.55	0.00818872
2530.93	0.143622
2532.31	0.00692844
2533.69	-0.21969
2535.06	0.313956
2536.44	0.103127
2537.81	0.0740352
2539.19	0.271933
2540.56	0.180508
2541.94	-0.184382
2543.31	-0.123979
2544.69	0.270821
2546.06	0.0902109
2547.44	0.16854
2548.81	0.429692
2550.18	-0.0980425
2551.56	-0.0800018
2552.93	0.0586715
2554.3	0.120558
2555.67	-0.106635
2557.04	0.287673
2558.42	-0.0462022
2559.79	0.241853
2561.16	0.0149298
2562.53	0.349346
2563.9	0.244769
2565.27	0.00419283
2566.64	0.112372
2568.01	0.114553
2569.38	0.0257993
2570.75	0.33111
2572.12	-0.197186
2573.49	0.0172906
2574.86	0.474432
2576.23	0.0978155
2577.6	0.266912
2578.97	0.572292
2580.33	0.19502
2581.7	0.226784
2583.07	0.455305
2584.44	0.213606
2585.8	0.214436
2587.17	0.260834
2588.54	0.0497437
2589.9	0.17218
2591.27	0.142952
2592.64	0.173929
2594	-0.0987821
2595.37	0.0820847
2596.73	0.367855
2598.1	0.244155
2599.46	0.165606
2600.83	-0.00343418
2602.19	-0.156761
2603.55	0.037817
2604.92	0.368526
2606.28	0.0656247
2607.64	0.260265
2609.01	0.0169129
2610.37	0.315019
2611.73	0.461009
2613.09	0.380131
2614.46	0.0883865
2615.82	-0.0829506
2617.18	0.0760407
2618.54	-0.094244
2619.9	-0.128901
2621.26	-0.0881166
2622.62	0.207073
2623.98	0.0839629
2625.34	-0.0838051
2626.7	0.136153
2628.06	0.22139
2629.42	-0.125582
2630.78	0.271703
2632.14	-0.149387
2633.5	0.202562
2634.86	0.153178
2636.21	0.0445213
2637.57	0.0693831
2638.93	0.212694
2640.29	0.207963
2641.64	0.114759
2643	0.169662
2644.36	0.136055
2645.71	0.0139065
2647.07	0.18642
2648.43	0.196024
2649.78	0.0135775
2651.14	-0.154423
2652.49	0.118219
2653.85	0.375813
2655.2	0.223162
2656.56	0.291429
2657.91	-0.0784698
2659.26	-0.0668182
2660.62	0.354578
2661.97	0.395457
2663.32	0.0706019
2664.68	0.0811501
2666.03	0.13477
2667.38	0.144154
2668.74	0.240797
2670.09	0.337524
2671.44	0.100155
2672.79	-0.107281
2674.14	-0.125154
2675.49	0.365488
2676.84	0.362897
2678.19	0.0273199
2679.54	-0.307344
2680.89	0.0258803
2682.24	-0.118352
2683.59	-0.247107
2684.94	0.234087
2686.29	0.0485425
2687.64	0.298184
2688.99	0.430764
2690.34	-0.00433636
2691.69	-0.121603
2693.03	0.470796
2694.38	0.13371
2695.73	0.144629
2697.08	0.344374
2698.42	0.154119
2699.77	0.0522895
2701.12	0.154698
2702.46	0.142587
2703.81	-0.230879
2705.15	0.120634
2706.5	0.269469
2707.85	0.200541
2709.19	0.595728
2710.54	0.395455
2711.88	0.136691
2713.22	0.240907
2714.57	0.0108089
2715.91	0.15855
2717.26	0.378969
2718.6	0.351963
2719.94	0.048141
2721.29	0.165854
2722.63	0.385053
2723.97	0.0798507
2725.31	-0.19664
2726.66	0.327079
2728	0.210076
2729.34	-0.256379
2730.68	0.0628715
2732.02	0.294713
2733.36	0.279273
2734.7	-0.259656
2736.04	0.234331
2737.38	0.437498
2738.72	0.102527
2740.06	0.101847
2741.4	0.435174
2742.74	0.317147
2744.08	-0.0775762
2745.42	0.166633
2746.76	0.30861
2748.09	0.0874138
2749.43	0.258175
2750.77	-0.267184
2752.11	0.382387
2753.45	-0.0697508
2754.78	0.391308
2756.12	-0.147184
2757.46	0.198031
2758.79	0.0510979
2760.13	-0.196751
2761.46	-0.0678644
2762.8	-0.271408
2764.14	0.205384
2765.47	-0.0268316
2766.8	0.0588727
2768.14	-0.0876784
2769.47	0.0539312
2770.81	0.295302
2772.14	0.202986
2773.48	0.239745
2774.81	0.0164375
2776.14	0.297612
2777.48	0.146857
2778.81	-0.333913
2780.14	0.278594
2781.47	0.11507
2782.8	0.00924397
2784.14	-0.110845
2785.47	0.256497
2786.8	-0.0926313
2788.13	0.131674
2789.46	-0.0441904
2790.79	-0.247734
2792.12	0.250121
2793.45	0.0762768
2794.78	0.0883422
2796.11	0.114396
2797.44	0.22565
2798.77	0.16498
2800.1	-0.395545
2801.43	-0.24253
2802.76	-0.189637
2804.09	0.190742
2805.41	0.128792
2806.74	0.0806079
2808.07	0.0176959
2809.4	-0.116552
2810.72	-0.0659699
2812.05	0.197914
2813.38	0.150444
2814.71	0.175189
2816.03	0.187034
2817.36	-0.0694203
2818.68	0.114038
2820.01	0.0990787
2821.33	0.0553842
2822.66	-0.102256
2823.98	0.0796485
2825.31	0.0203619
2826.63	-0.123831
2827.96	0.185541
2829.28	-0.0143266
2830.6	0.423261
2831.93	-0.144033
2833.25	0.123806
2834.57	0.235649
2835.9	0.347037
2837.22	0.259821
2838.54	0.00251007
2839.86	0.65023
2841.18	0.421132
2842.5	0.927532
2843.83	0.869018
2845.15	0.726383
2846.47	0.683235
2847.79	1.00787
2849.11	0.710666
2850.43	0.964423
2851.75	0.723062
2853.07	1.08899
2854.39	1.2708
2855.71	0.943749
2857.03	1.36549
2858.35	1.26455
2859.66	1.29072
2860.98	1.13318
2862.3	1.3707
2863.62	1.53722
2864.94	1.80219
2866.25	1.89771
2867.57	1.66906
2868.89	1.65239
2870.2	2.17182
2871.52	1.69044
2872.84	1.85728
2874.15	2.00931
2875.47	2.08989
2876.78	2.15535
2878.1	2.48736
2879.41	1.989
2880.73	2.06774
2882.04	2.32976
2883.36	2.11501
2884.67	1.88722
2885.99	2.16543
2887.3	2.09272
2888.61	2.37046
2889.93	2.10028
2891.24	2.32031
2892.55	2.35742
2893.86	2.45036
2895.18	2.38953
2896.49	2.32946
2897.8	2.4243
2899.11	2.31015
2900.42	2.82625
2901.73	2.67127
2903.05	2.53048
2904.36	2.8654
2905.67	2.68303
2906.98	2.64103
2908.29	3.04739
2909.6	2.86699
2910.91	3.47072
2912.21	3.08088
2913.52	3.26424
2914.83	3.3344
2916.14	3.17904
2917.45	3.10633
2918.76	3.78831
2920.07	4.06408
2921.37	4.21447
2922.68	4.44981
2923.99	4.33698
2925.29	4.51879
2926.6	4.29582
2927.91	4.36645
2929.22	4.18511
2930.52	4.31084
2931.83	4.91141
2933.13	4.42137
2934.44	4.00127
2935.74	4.28015
2937.05	4.60107
2938.35	4.30727
2939.66	4.40502
2940.96	4.44736
2942.26	4.49051
2943.57	4.19937
2944.87	3.90938
2946.18	4.05383
2947.48	4.04508
2948.78	4.00813
2950.08	3.43809
2951.39	3.48235
2952.69	3.73497
2953.99	3.55223
2955.29	3.3412
2956.59	3.38295
2957.9	3.39855
2959.2	2.82857
2960.5	3.40928
2961.8	2.85711
2963.1	2.72574
2964.4	3.12722
2965.7	2.8958
2967	2.74701
2968.3	2.92026
2969.6	2.19296
2970.9	2.57636
2972.19	2.80547
2973.49	2.24696
2974.79	2.56091
2976.09	2.64918
2977.39	2.65184
2978.68	1.96302
2979.98	1.76557
2981.28	2.08774
2982.58	1.95906
2983.87	1.84484
2985.17	1.80197
2986.47	1.45132
2987.76	1.39713
2989.06	1.37194
2990.35	1.19242
2991.65	0.84383
2992.94	1.05655
2994.24	1.01523
2995.53	0.790354
2996.83	1.26702
2998.12	0.774785
2999.42	0.704023
3000.71	0.788029
3002	0.578154
3003.3	0.480898
3004.59	0.551917
3005.88	0.636687
3007.18	0.496908
3008.47	0.174664
3009.76	0.285504
3011.05	0.367624
3012.34	0.0443749
3013.64	0.419168
3014.93	0.459206
3016.22	0.318731
3017.51	0.123432
3018.8	0.165381
3020.09	0.624593
3021.38	-0.0567966
3022.67	0.262013
3023.96	0.0660248
3025.25	-0.268895
3026.54	0.0199261
3027.83	0.114892
3029.12	-0.0243483
3030.41	-0.162071
3031.69	-0.0221496
3032.98	0.0495801
3034.27	0.052577
3035.56	-3.19481e-005
3036.84	0.0152516
3038.13	0.0978804
3039.42	0.0135818
3040.71	-0.0856123
3041.99	0.308788
3043.28	0.126404
3044.57	-0.150529
3045.85	0.0531898
3047.14	-0.0420952
3048.42	0.110584
3049.71	0.114912
3050.99	0.13433
3052.28	0.0726585
3053.56	0.174788
3054.85	0.0853715
3056.13	0.145148
3057.41	0.0131021
3058.7	0.262006
3059.98	0.156394
3061.26	0.622787
3062.55	0.232738
3063.83	-0.223711
3065.11	-0.175591
3066.39	0.0776711
3067.68	0.114347
3068.96	-0.338134
3070.24	-0.0428519
3071.52	0.156568
3072.8	0.123753
3074.08	0.089889
3075.36	-0.0806017
3076.65	0.292044
3077.93	-0.244712
3079.21	-0.142348
3080.49	-0.106547
3081.77	0.0391526
3083.04	0.308119
3084.32	-0.114165
3085.6	0.39996
3086.88	0.248776
3088.16	0.137702
3089.44	-0.109647
3090.72	0.0362377
3091.99	0.0734563
3093.27	-0.065484
3094.55	-0.163371
3095.83	-0.0846648
3097.1	0.0754852
3098.38	-0.0490422
3099.66	0.0161257
3100.93	0.46053
3102.21	0.0787172
3103.49	0.279569
3104.76	0.128915
3106.04	0.182027
3107.31	0.168335
3108.59	0.0879545
3109.86	-0.153884
3111.14	0.2956
3112.41	-0.12075
3113.69	-0.116926
3114.96	-0.0317235
3116.23	0.0396714
3117.51	0.0697427
3118.78	0.26171
3120.05	0.27643
3121.33	0.439508
3122.6	0.222538
3123.87	0.574551
3125.14	0.195346
3126.41	0.480099
3127.69	0.332277
3128.96	0.360917
3130.23	0.322314
3131.5	0.189307
3132.77	0.272538
3134.04	0.422992
3135.31	0.545901
3136.58	0.533332
3137.85	0.412533
3139.12	0.614963
3140.39	-0.138659
3141.66	0.453947
3142.93	0.454679
3144.2	0.523032
3145.47	0.430944
3146.74	0.621195
3148	0.369754
3149.27	0.614645
