200.563	-0.149373
202.377	-0.105635
204.194	-0.0609512
206.008	0.592361
207.821	0.102511
209.634	-0.217649
211.449	0.286887
213.262	0.0367355
215.074	-0.0931854
216.885	0.260978
218.699	0.0817289
220.51	0.120922
222.321	0.91063
224.131	-0.427254
225.941	0.0729895
227.751	0.620929
229.562	0.926331
231.371	0.723752
233.18	0.593194
234.988	0.270051
236.796	-0.316874
238.603	-0.106324
240.411	0.275245
242.219	-0.0160522
244.026	-0.0412359
245.832	-0.235794
247.638	0.943818
249.443	-0.149018
251.248	0.0102673
253.053	0.890517
254.857	-0.306517
256.661	-0.200989
258.465	0.121966
260.268	0.590734
262.071	2.41016
263.874	1.87042
265.678	1.8135
267.48	0.648026
269.282	0.397501
271.083	-0.0711708
272.884	0.0614634
274.684	0.53
276.484	0.514418
278.284	0.0148001
280.084	0.934385
281.883	0.262038
283.682	-0.122758
285.48	-0.0759811
287.276	-0.15022
289.074	0.398934
290.871	0.0374365
292.668	-0.250503
294.465	-0.201848
296.261	0.35005
298.057	-0.388173
299.853	0.929052
301.648	-0.549378
303.443	0.120983
305.237	-0.212894
307.032	-0.0465994
308.823	0.214477
310.617	-0.000779152
312.41	0.547283
314.203	0.596535
315.995	0.576074
317.788	0.414371
319.579	0.754245
321.369	0.380325
323.16	0.268985
324.951	0.34866
326.741	0.380606
328.531	0.412172
330.321	0.99279
332.108	0.400569
333.897	0.571672
335.686	0.214088
337.474	0.787318
339.26	0.0423279
341.048	0.539735
342.835	0.533853
344.622	0.480035
346.406	0.235551
348.192	0.636478
349.978	0.369149
351.764	0.0540686
353.547	-0.404747
355.332	0.185166
357.116	0.367887
358.901	0.548999
360.682	0.657175
362.466	0.216889
364.249	0.537278
366.03	0.191136
367.812	0.509295
369.594	0.23313
371.374	0.169745
373.155	0.578883
374.936	0.230463
376.715	0.44929
378.495	0.196507
380.273	0.227673
382.053	0.612858
383.832	-0.0362434
385.609	0.773984
387.388	0.762163
389.164	-0.164777
390.942	-0.151029
392.72	0.473939
394.495	0.465245
396.272	0.738642
398.047	0.330935
399.823	1.00335
401.597	0.923628
403.372	0.49087
405.145	0.691431
406.92	0.233641
408.693	0.714437
410.467	0.396585
412.239	0.87672
414.012	-0.0273523
415.783	0.641358
417.556	0.395667
419.327	0.478986
421.099	0.327773
422.869	0.598694
424.64	-0.18752
426.409	-0.0826302
428.18	0.490923
429.948	0.383142
431.718	0.0875444
433.486	0.402405
435.253	-0.268215
437.022	0.422289
438.789	0.243651
440.558	0.46249
442.324	0.397723
444.089	0.11992
445.857	0.496601
447.622	0.473616
449.386	0.590487
451.153	0.403494
452.917	0.147039
454.682	0.63751
456.446	-0.434355
458.208	0.544549
459.973	0.12581
461.735	0.35937
463.497	0.733546
465.259	0.598572
467.022	0.210725
468.783	0.382987
470.544	0.440766
472.306	0.289648
474.066	-0.00214195
475.825	0.0535126
477.585	0.386724
479.346	0.0426912
481.104	0.44313
482.862	-0.0879717
484.62	1.12881
486.38	0.880163
488.137	1.00631
489.894	0.971313
491.65	0.703805
493.407	0.693432
495.164	1.01063
496.92	1.00053
498.675	1.34154
500.43	1.2136
502.184	0.920433
503.939	0.7903
505.694	0.376778
507.448	0.455275
509.201	0.626451
510.954	-0.0744524
512.706	0.470167
514.459	0.213336
516.21	0.19054
517.962	0.966184
519.715	1.15257
521.466	0.915092
523.216	0.841743
524.966	0.909067
526.716	1.11702
528.466	0.57449
530.215	0.24328
531.964	0.942511
533.712	0.703842
535.46	0.394167
537.208	1.39227
538.955	1.00969
540.703	0.580114
542.449	0.826184
544.196	0.466463
545.942	0.479317
547.688	0.329844
549.433	0.435901
551.178	0.611363
552.923	1.01789
554.667	0.360897
556.412	0.421024
558.155	0.665848
559.899	0.657263
561.642	0.280924
563.385	0.273717
565.127	0.657775
566.867	0.812238
568.609	0.324491
570.35	-0.368335
572.092	0.0875568
573.832	0.407127
575.573	0.613641
577.313	0.752969
579.053	0.136067
580.79	0.254245
582.529	-0.270844
584.268	-0.153211
586.006	0.0785837
587.745	-0.0126953
589.482	0.0789595
591.218	0.37686
592.955	0.168113
594.692	0.53441
596.428	0.0954885
598.164	0.507774
599.898	-0.115583
601.634	-0.210542
603.369	0.337336
605.104	0.745565
606.836	0.233108
608.57	0.179738
610.304	0.103377
612.037	-0.0183277
613.769	-0.345545
615.501	0.221875
617.234	0.170434
618.966	-0.133383
620.696	-0.323442
622.427	-0.0339994
624.159	0.300019
625.887	0.245289
627.618	0.488408
629.348	0.185478
631.076	-0.137962
632.806	0.453161
634.535	0.703032
636.262	0.838474
637.99	0.67545
639.716	0.55551
641.444	0.29602
643.172	0.0574665
644.897	0.228076
646.624	0.603421
648.348	0.275389
650.075	0.20055
651.801	0.356469
653.524	0.106874
655.249	0.223931
656.972	0.593699
658.697	0.668732
660.419	0.423988
662.143	0.656904
663.865	-0.0947523
665.588	0.591055
667.309	1.11544
669.032	0.655858
670.752	0.334158
672.474	0.128454
674.194	0.863672
675.915	0.455949
677.634	0.713984
679.355	-0.0609646
681.073	0.541099
682.793	0.659339
684.511	0.453448
686.23	0.959412
687.947	0.128266
689.664	0.839251
691.382	1.31927
693.098	0.785146
694.816	0.641911
696.531	1.05044
698.247	1.13533
699.963	0.758716
701.678	0.450393
703.392	0.48631
705.108	0.521527
706.821	0.648024
708.534	0.728076
710.249	0.968008
711.962	1.06985
713.674	0.57656
715.388	1.29506
717.099	1.28167
718.81	1.04031
720.523	0.936264
722.234	1.49292
723.944	0.797349
725.654	1.01213
727.365	1.13539
729.075	1.23534
730.784	0.654616
732.492	1.18435
734.202	1.39611
735.91	1.24592
737.618	1.09639
739.325	0.99293
741.034	0.687704
742.741	1.01477
744.447	0.757387
746.153	2.16679
747.859	1.10204
749.564	1.27616
751.271	0.956669
752.976	1.15575
754.681	1.13123
756.385	0.567968
758.088	1.53677
759.792	0.345109
761.495	0.866391
763.2	1.00532
764.902	1.57322
766.604	1.25956
768.306	1.48635
770.008	1.84688
771.709	1.48191
773.41	1.59048
775.11	1.31425
776.811	1.6943
778.51	1.3973
780.21	2.11941
781.909	1.59869
783.608	2.11878
785.307	1.82306
787.005	1.79657
788.703	1.72176
790.401	1.50814
792.098	1.69908
793.795	2.13655
795.492	1.46771
797.188	1.18412
798.884	1.78083
800.58	2.311
802.276	1.78468
803.971	1.9341
805.665	2.26305
807.36	1.66965
809.054	2.13117
810.748	1.62601
812.441	1.74856
814.135	1.80317
815.826	1.29785
817.518	1.86693
819.21	1.78705
820.902	2.04241
822.594	1.96309
824.285	1.90701
825.976	1.56275
827.665	1.53274
829.355	1.66124
831.045	1.59221
832.735	1.63722
834.424	1.81801
836.111	1.77688
837.8	1.95866
839.488	2.02783
841.177	1.9838
842.864	1.37991
844.55	1.80331
846.237	1.42293
847.924	1.73721
849.61	1.91994
851.295	1.50075
852.98	1.57575
854.666	1.29271
856.349	1.50305
858.034	1.01572
859.719	1.24611
861.403	0.754593
863.085	1.09465
864.769	1.07326
866.452	0.66778
868.133	1.41155
869.816	1.36584
871.498	1.45517
873.179	1.18338
874.86	1.13709
876.54	1.70012
878.221	1.49593
879.902	0.907855
881.58	1.04172
883.26	1.12977
884.938	0.58473
886.618	1.32504
888.297	1.56712
889.974	0.92802
891.653	0.513646
893.329	1.15708
895.007	1.2134
896.683	0.43694
898.36	1.65962
900.035	1.15168
901.712	1.27145
903.387	1.05481
905.063	1.15138
906.737	0.890891
908.412	1.43413
910.085	0.685488
911.76	1.02923
913.433	0.750688
915.107	0.806018
916.779	1.32712
918.452	0.584004
920.124	1.19297
921.797	0.938672
923.467	1.34899
925.138	0.589577
926.81	0.914511
928.48	1.46146
930.151	1.23694
931.82	1.47648
933.489	1.18676
935.16	1.20609
936.828	1.35818
938.496	1.22441
940.165	1.37852
941.833	1.37942
943.5	0.80728
945.168	1.16169
946.834	0.632156
948.5	0.983853
950.168	1.22336
951.834	0.777727
953.499	1.10441
955.163	0.925303
956.83	1.10165
958.494	1.50173
960.158	0.889515
961.821	0.763818
963.487	0.659872
965.15	0.620562
966.812	1.10978
968.474	1.24254
970.138	1.04148
971.8	1.06092
973.461	1.10296
975.123	0.792584
976.783	1.01466
978.446	1.34883
980.106	1.17481
981.766	1.00029
983.425	1.06791
985.084	1.24437
986.743	0.909769
988.402	1.43653
990.06	1.60783
991.72	0.916464
993.378	1.46259
995.035	1.41221
996.692	1.00904
998.349	0.826782
1000.01	1.81237
1001.66	1.78338
1003.32	1.15985
1004.97	1.1526
1006.63	1.10133
1008.28	0.655008
1009.94	0.560718
1011.59	0.971322
1013.25	0.812049
1014.9	1.04758
1016.55	0.714088
1018.21	0.819028
1019.86	0.552841
1021.51	1.14047
1023.16	1.44467
1024.81	0.635124
1026.47	0.809647
1028.12	0.787481
1029.77	0.458881
1031.42	1.11209
1033.07	1.15207
1034.72	1.58314
1036.37	1.31466
1038.02	1.39437
1039.67	1.14742
1041.31	1.88027
1042.96	1.74404
1044.61	1.95736
1046.26	1.78157
1047.91	1.21686
1049.55	1.47906
1051.2	0.917137
1052.84	0.725097
1054.49	0.555039
1056.14	0.428364
1057.78	0.888338
1059.43	0.67399
1061.07	1.11133
1062.72	0.2433
1064.36	0.179004
1066	0.852941
1067.65	0.482381
1069.29	0.3719
1070.93	0.0655136
1072.58	0.432199
1074.22	0.625465
1075.86	0.364057
1077.5	0.255777
1079.14	0.864213
1080.78	0.345681
1082.42	0.911333
1084.06	0.565421
1085.7	0.586646
1087.34	0.172682
1088.98	0.601813
1090.62	0.336452
1092.26	0.437975
1093.9	0.322952
1095.54	0.85557
1097.17	0.655146
1098.81	0.542483
1100.45	0.0440912
1102.09	0.494632
1103.72	0.279589
1105.36	0.538975
1106.99	0.540697
1108.63	0.628133
1110.27	0.49952
1111.9	-0.210715
1113.53	0.796779
1115.17	0.406641
1116.8	0.509909
1118.43	0.313064
1120.07	0.267064
1121.7	0.0935459
1123.33	0.56319
1124.97	0.562674
1126.6	0.220734
1128.23	0.307332
1129.86	0.0951986
1131.49	0.589117
1133.12	0.698421
1134.75	0.508305
1136.38	0.0184355
1138.01	1.0449
1139.64	-0.151741
1141.27	-0.302117
1142.9	0.571482
1144.53	0.484626
1146.16	0.569043
1147.78	0.696898
1149.41	-0.133238
1151.04	0.166325
1152.67	0.0398426
1154.29	-0.257188
1155.92	-0.277702
1157.54	-0.0429821
1159.17	0.043045
1160.8	-0.167915
1162.42	0.536414
1164.05	0.0721664
1165.67	-0.540505
1167.29	0.377436
1168.92	-0.00253963
1170.54	-0.0225182
1172.16	-0.086628
1173.79	0.145069
1175.41	0.20568
1177.03	-0.136971
1178.65	0.304822
1180.28	0.280943
1181.9	-0.0593967
1183.52	-0.335349
1185.14	0.00173569
1186.76	-0.000265121
1188.38	0.776922
1190	0.0333996
1191.62	-0.268051
1193.24	-0.00234413
1194.86	0.178001
1196.47	-0.103286
1198.09	0.580084
1199.71	0.698768
1201.33	0.025466
1202.95	0.378584
1204.56	0.837955
1206.18	0.568716
1207.8	0.384175
1209.41	-0.0712996
1211.03	0.598849
1212.64	0.078723
1214.26	0.598995
1215.87	0.408679
1217.49	0.445937
1219.1	0.336807
1220.71	0.310872
1222.33	1.19805
1223.94	0.572318
1225.55	0.942735
1227.16	1.43823
1228.78	1.66568
1230.39	1.08786
1232	1.50369
1233.61	0.742465
1235.22	0.933187
1236.83	1.5591
1238.44	1.33854
1240.05	1.09782
1241.66	1.27082
1243.27	1.21599
1244.88	1.09832
1246.49	1.5177
1248.1	0.46698
1249.71	1.15372
1251.32	1.75729
1252.92	1.78178
1254.53	1.39332
1256.14	1.85396
1257.74	1.36428
1259.35	1.14448
1260.96	1.07025
1262.56	1.61763
1264.17	1.17106
1265.77	1.2004
1267.38	1.72656
1268.98	1.44347
1270.59	1.49107
1272.19	1.45473
1273.79	1.21011
1275.4	1.93884
1277	2.27259
1278.6	1.38317
1280.21	1.0115
1281.81	1.30218
1283.41	1.42723
1285.01	1.46999
1286.61	1.59626
1288.21	1.99214
1289.81	0.98354
1291.41	1.60801
1293.01	1.42644
1294.61	2.11182
1296.21	1.80431
1297.81	1.45419
1299.41	1.84555
1301.01	1.55466
1302.6	2.14875
1304.2	1.40328
1305.8	1.39866
1307.4	1.66054
1308.99	2.29084
1310.59	1.36246
1312.19	1.91026
1313.78	1.94646
1315.38	1.73837
1316.97	2.00111
1318.57	1.42752
1320.16	2.28164
1321.76	1.64655
1323.35	1.62162
1324.94	1.43249
1326.54	1.58765
1328.13	1.57974
1329.72	2.11907
1331.32	1.60713
1332.91	1.58325
1334.5	1.31921
1336.09	1.6825
1337.68	1.66266
1339.27	1.94451
1340.87	1.47913
1342.45	1.77717
1344.04	1.48987
1345.64	2.00522
1347.22	1.75769
1348.81	2.07316
1350.4	1.46989
1351.99	1.26984
1353.58	0.751938
1355.17	1.29478
1356.75	0.878511
1358.34	1.14125
1359.93	1.64256
1361.51	0.805237
1363.1	1.34441
1364.69	1.10521
1366.27	1.14546
1367.86	0.549173
1369.44	0.989549
1371.03	1.13238
1372.61	0.898326
1374.2	1.24231
1375.78	1.02971
1377.37	0.956455
1378.95	0.464853
1380.53	1.02697
1382.11	0.65281
1383.7	0.933965
1385.28	0.816519
1386.86	0.321347
1388.44	0.77994
1390.02	1.09977
1391.6	0.408195
1393.19	1.02694
1394.77	0.277212
1396.35	0.618218
1397.93	0.819668
1399.51	0.12846
1401.08	0.506555
1402.66	0.784817
1404.24	0.706683
1405.82	0.767503
1407.4	1.00688
1408.97	0.535543
1410.55	1.09201
1412.13	0.463324
1413.71	0.426708
1415.28	0.705051
1416.86	0.982415
1418.43	0.924116
1420.01	1.20107
1421.59	0.750222
1423.16	1.14747
1424.73	1.2114
1426.31	1.11897
1427.88	1.22381
1429.46	0.836297
1431.03	0.40866
1432.6	0.885373
1434.18	0.849577
1435.75	1.14778
1437.32	1.8392
1438.89	1.44988
1440.46	1.84775
1442.04	1.91234
1443.61	1.84
1445.18	1.72869
1446.75	1.57821
1448.32	1.87996
1449.89	1.63159
1451.46	1.7375
1453.03	1.45059
1454.6	1.81303
1456.16	1.99848
1457.73	2.12432
1459.3	1.75695
1460.87	1.5651
1462.44	1.76509
1464	1.47183
1465.57	1.39409
1467.14	1.35544
1468.7	1.35643
1470.27	0.887251
1471.83	0.752882
1473.4	1.24707
1474.96	0.447524
1476.53	0.766119
1478.09	1.18273
1479.66	0.246646
1481.22	0.80027
1482.78	0.942129
1484.35	0.789921
1485.91	1.088
1487.47	0.46477
1489.04	1.30909
1490.6	1.40741
1492.16	1.13214
1493.72	1.2851
1495.28	1.0655
1496.84	0.981881
1498.4	0.489697
1499.96	0.834879
1501.52	0.850177
1503.08	0.92464
1504.64	0.612221
1506.2	0.397351
1507.76	0.607779
1509.32	0.507811
1510.88	0.831578
1512.44	-0.117985
1513.99	0.281735
1515.55	0.526823
1517.11	0.483875
1518.66	0.72928
1520.22	1.01297
1521.78	0.243867
1523.33	0.278859
1524.89	0.370381
1526.44	0.308324
1528	0.912054
1529.55	1.05735
1531.11	0.80355
1532.66	0.228596
1534.21	0.470106
1535.77	0.409273
1537.32	0.387137
1538.87	0.57321
1540.43	0.419821
1541.98	0.624701
1543.53	0.490355
1545.08	0.544103
1546.63	0.484876
1548.18	0.650776
1549.74	0.572655
1551.29	0.700816
1552.84	0.735643
1554.39	0.7899
1555.94	0.826586
1557.48	0.678077
1559.03	0.643282
1560.58	0.404855
1562.13	0.503524
1563.68	0.248604
1565.23	0.92701
1566.78	0.448627
1568.32	0.940446
1569.87	0.797396
1571.42	0.635333
1572.96	1.23839
1574.51	1.87866
1576.05	0.932225
1577.6	0.545964
1579.14	0.962795
1580.69	1.19351
1582.24	1.05147
1583.78	1.35841
1585.32	1.10552
1586.87	1.17067
1588.41	1.01152
1589.95	0.983018
1591.5	0.879233
1593.04	1.11204
1594.58	1.32601
1596.12	1.35279
1597.67	1.49241
1599.21	1.59522
1600.75	1.69872
1602.29	1.53995
1603.83	1.34341
1605.37	1.57816
1606.91	2.05615
1608.45	1.44236
1609.99	1.5407
1611.53	0.979376
1613.07	1.56239
1614.6	0.923773
1616.14	1.52346
1617.68	1.41059
1619.22	1.46748
1620.75	1.61927
1622.29	1.51005
1623.83	0.952239
1625.37	1.25562
1626.9	1.46463
1628.44	1.31692
1629.97	1.44862
1631.51	1.11207
1633.04	1.70946
1634.58	1.44779
1636.11	1.33637
1637.65	1.67342
1639.18	1.78702
1640.72	1.86328
1642.25	1.60355
1643.78	1.99476
1645.31	2.03087
1646.85	2.34501
1648.38	2.37972
1649.91	2.78612
1651.44	2.46929
1652.97	3.11845
1654.5	2.60014
1656.03	2.56467
1657.56	2.86261
1659.1	2.60391
1660.62	2.67737
1662.15	2.52733
1663.68	2.57976
1665.21	1.89282
1666.74	2.33305
1668.27	2.47861
1669.8	2.2015
1671.32	1.8339
1672.85	1.94643
1674.38	2.00403
1675.91	2.07975
1677.43	2.00744
1678.96	1.93416
1680.49	1.97031
1682.01	1.06868
1683.54	1.36143
1685.06	1.32357
1686.59	1.2494
1688.11	0.955754
1689.64	1.08406
1691.16	1.06597
1692.68	0.883238
1694.21	1.30422
1695.73	0.865393
1697.25	0.956676
1698.78	0.591047
1700.3	1.10145
1701.82	0.899506
1703.34	-0.0680308
1704.86	0.677134
1706.39	0.25631
1707.91	0.79942
1709.43	0.506056
1710.95	0.231406
1712.47	0.356249
1713.99	0.336071
1715.51	0.406475
1717.02	0.567133
1718.54	0.492471
1720.06	0.490101
1721.58	0.145085
1723.1	0.179639
1724.62	0.557225
1726.13	0.161148
1727.65	0.576438
1729.17	0.272433
1730.68	0.474069
1732.2	0.159834
1733.72	0.33743
1735.23	0.567235
1736.75	0.144817
1738.26	0.483981
1739.78	0.198779
1741.29	0.203228
1742.81	-0.218659
1744.32	0.910271
1745.84	2.03177
1747.35	1.62628
1748.86	0.295853
1750.37	-0.022912
1751.89	-0.0457315
1753.4	0.109783
1754.91	0.257124
1756.42	-0.564849
1757.93	-0.177294
1759.45	0.0374088
1760.96	-0.0557957
1762.47	-0.0981045
1763.98	0.46263
1765.49	0.218278
1767	0.35182
1768.51	0.213054
1770.02	-0.152628
1771.53	0.27192
1773.03	0.0407171
1774.54	0.0206389
1776.05	0.0498152
1777.56	0.320803
1779.07	0.04564
1780.57	-0.072948
1782.08	0.27949
1783.59	-0.127454
1785.09	-0.062604
1786.6	0.118645
1788.11	0.0178094
1789.61	0.0615401
1791.12	0.466804
1792.62	-0.0617199
1794.13	-0.0706682
1795.63	0.142793
1797.13	0.220077
1798.64	-0.0539331
1800.14	-0.0600343
1801.65	0.139269
1803.15	0.0667176
1804.65	0.131341
1806.15	0.108637
1807.66	0.224501
1809.16	-0.0853066
1810.66	0.0464215
1812.16	0.0618382
1813.66	-0.117994
1815.16	-0.0194693
1816.66	0.0176158
1818.16	-0.107156
1819.66	-0.071641
1821.16	0.0526257
1822.66	0.131184
1824.16	0.140424
1825.66	0.0136189
1827.16	-0.283373
1828.66	0.0504775
1830.16	0.0992436
1831.65	-0.0243735
1833.15	0.245547
1834.65	0.152129
1836.14	0.0327058
1837.64	-0.0172448
1839.14	-0.223801
1840.63	-0.0672727
1842.13	-0.197048
1843.62	-0.115099
1845.12	0.390004
1846.61	0.0602674
1848.11	0.481881
1849.6	0.00829601
1851.1	0.0124598
1852.59	-0.275931
1854.08	0.130307
1855.58	0.225469
1857.07	-0.197369
1858.56	0.25376
1860.05	0.123757
1861.55	-0.0525804
1863.04	0.0786867
1864.53	-0.0810213
1866.02	0.0279412
1867.51	0.147629
1869	0.309961
1870.49	0.110139
1871.98	-0.157558
1873.47	0.179449
1874.96	-0.0915952
1876.45	-0.060153
1877.94	0.107401
1879.43	-0.317006
1880.92	0.23411
1882.41	0.0171995
1882.51	-0.00134897
1884	-0.0705204
1885.5	-0.36676
1886.99	0.346844
1888.48	-0.107012
1889.98	0.0660877
1891.47	0.500611
1892.96	0.188482
1894.46	-0.0526309
1895.95	0.194235
1897.44	0.0765972
1898.93	0.184968
1900.42	-0.0031414
1901.91	0.433785
1903.41	0.399609
1904.9	-0.000734329
1906.39	0.154681
1907.88	0.292537
1909.37	0.274497
1910.86	0.0663204
1912.35	-0.158409
1913.83	0.0683007
1915.32	0.121591
1916.81	0.330639
1918.3	-0.223449
1919.79	-0.136453
1921.27	0.227543
1922.76	0.245297
1924.25	0.367578
1925.74	0.490702
1927.22	0.164544
1928.71	0.0465908
1930.19	-0.261899
1931.68	-0.0168514
1933.17	-0.188448
1934.65	0.106122
1936.14	0.174284
1937.62	-0.0178943
1939.11	0.100839
1940.59	0.0814829
1942.07	0.373413
1943.56	0.165611
1945.04	0.0965738
1946.52	0.286448
1948.01	0.131359
1949.49	-0.179212
1950.97	-0.0597715
1952.45	0.402997
1953.93	0.22848
1955.42	0.208783
1956.9	0.206568
1958.38	0.170542
1959.86	0.220874
1961.34	-0.105665
1962.82	-0.260387
1964.3	-0.0895877
1965.78	-0.14193
1967.26	0.044898
1968.74	-0.282119
1970.21	0.467717
1971.69	0.601387
1973.17	0.359309
1974.65	0.0835381
1976.13	0.0809889
1977.6	-0.313187
1979.08	0.110254
1980.56	-0.0792513
1982.03	-0.115643
1983.51	0.204508
1984.99	-0.0701394
1986.46	-0.19191
1987.94	-0.177932
1989.41	0.090251
1990.89	0.206237
1992.36	0.0352569
1993.84	0.186383
1995.31	0.0338116
1996.78	0.270222
1998.26	0.270015
1999.73	0.185072
2001.2	0.470984
2002.68	0.0647111
2004.15	-0.122112
2005.62	0.230678
2007.09	0.112098
2008.56	0.0279651
2010.04	0.0455141
2011.51	0.130775
2012.98	-0.0364161
2014.45	0.115877
2015.92	0.33483
2017.39	0.384772
2018.86	0.148256
2020.33	0.129977
2021.8	-0.157093
2023.26	0.328472
2024.73	0.679967
2026.2	0.0257244
2027.67	0.228146
2029.14	0.280708
2030.61	0.0323167
2032.07	0.506096
2033.54	-0.160973
2035.01	0.195865
2036.47	-0.220082
2037.94	0.0690813
2039.4	0.29086
2040.87	0.0419979
2042.33	0.247274
2043.8	0.570961
2045.27	0.155196
2046.73	0.143656
2048.19	0.216551
2049.66	-0.199479
2051.12	0.125278
2052.59	0.381647
2054.05	0.0295615
2055.51	0.165261
2056.97	0.0638742
2058.44	0.450639
2059.9	0.3148
2061.36	0.0615025
2062.82	0.313934
2064.28	0.516516
2065.74	0.248615
2067.21	0.267451
2068.67	0.000597954
2070.13	-0.0977612
2071.59	0.645668
2073.05	0.362084
2074.51	0.229789
2075.96	0.703463
2077.42	0.334866
2078.88	0.235404
2080.34	0.438706
2081.8	0.271144
2083.26	0.422962
2084.72	0.506825
2086.17	0.539601
2087.63	0.588681
2089.09	0.536548
2090.54	0.685872
2092	0.432053
2093.45	-0.0229225
2094.91	0.360921
2096.37	0.710426
2097.82	0.40576
2099.28	0.201468
2100.73	0.816666
2102.19	0.395057
2103.64	0.726104
2105.09	0.757336
2106.55	0.656164
2108	0.972847
2109.45	0.255812
2110.91	0.522292
2112.36	0.854234
2113.81	0.718205
2115.26	0.747504
2116.72	0.559919
2118.17	1.07052
2119.62	1.00044
2121.07	0.69973
2122.52	1.0144
2123.97	0.88237
2125.42	0.667988
2126.87	0.950836
2128.32	0.768674
2129.77	0.999803
2131.22	0.782518
2132.67	1.47523
2134.11	1.07526
2135.56	1.48654
2137.01	1.10531
2138.46	1.43638
2139.91	1.62025
2141.35	1.22699
2142.8	1.46286
2144.25	1.68291
2145.7	1.47296
2147.14	1.56061
2148.59	1.44904
2150.03	1.76741
2151.48	1.38915
2152.92	2.31899
2154.37	1.906
2155.81	1.90684
2157.26	2.25559
2158.7	2.0583
2160.15	1.89529
2161.59	2.28056
2163.03	1.88858
2164.47	1.86245
2165.92	2.4679
2167.36	2.44282
2168.8	1.93463
2170.24	2.43891
2171.69	2.50907
2173.13	2.71051
2174.57	2.02904
2176.01	2.5779
2177.45	2.46164
2178.89	2.51235
2180.33	1.81581
2181.77	2.59976
2183.21	2.08734
2184.65	2.07397
2186.09	2.1272
2187.53	2.52989
2188.97	2.1173
2190.4	2.12066
2191.84	2.17374
2193.28	1.92647
2194.72	2.11092
2196.16	2.01075
2197.59	2.00871
2199.03	2.00516
2200.47	2.01729
2201.9	1.71381
2203.34	1.54405
2204.77	1.52463
2206.21	1.32378
2207.64	1.28921
2209.08	1.45324
2210.51	1.16961
2211.95	1.2163
2213.38	0.832557
2214.82	1.47332
2216.25	1.13981
2217.68	1.36852
2219.12	0.987855
2220.55	1.02029
2221.98	1.1517
2223.41	1.03534
2224.85	0.93446
2226.28	0.980454
2227.71	1.2881
2229.14	1.18351
2230.57	0.881639
2232	0.826062
2233.43	0.688978
2234.86	1.45208
2236.29	0.956758
2237.72	0.789976
2239.15	0.836976
2240.58	0.836557
2242.01	0.380863
2243.44	0.692697
2244.87	0.645995
2246.29	0.827157
2247.72	0.664595
2249.15	0.533097
2250.58	0.628153
2252.01	0.558951
2253.43	0.830725
2254.86	0.192385
2256.29	0.773713
2257.71	1.04782
2259.14	0.561514
2260.56	0.401945
2261.99	0.406399
2263.41	0.298344
2264.84	0.369162
2266.26	0.488579
2267.69	0.379779
2269.11	0.319028
2270.53	0.420449
2271.96	0.326143
2273.38	0.655106
2274.8	0.821369
2276.23	0.287236
2277.65	0.470072
2279.07	0.587845
2280.49	0.379497
2281.91	0.513476
2283.34	0.158015
2284.76	0.275644
2286.18	0.115998
2287.6	0.054481
2289.02	0.368901
2290.44	0.193649
2291.86	0.280005
2293.28	0.399238
2294.7	0.0931559
2296.12	0.245065
2297.54	0.347935
2298.96	0.270717
2300.37	0.554138
2301.79	0.0673447
2303.21	0.400566
2304.63	0.110492
2306.04	0.279912
2307.46	0.399957
2308.88	0.0758877
2310.3	0.162243
2311.71	0.248365
2313.13	0.0383387
2314.54	0.503295
2315.96	0.145819
2317.37	0.0686364
2318.79	0.0246544
2320.2	0.310336
2321.62	0.28199
2323.03	0.0377164
2324.45	0.154852
2325.86	0.451819
2327.27	0.796766
2328.69	0.712241
2330.1	0.0679216
2331.51	0.280983
2332.92	0.14906
2334.34	0.0836406
2335.75	0.248739
2337.16	0.0351763
2338.57	0.281395
2339.98	0.148631
2341.39	0.261662
2342.8	0.013134
2344.21	0.0601039
2345.63	0.434982
2347.04	0.170819
2348.45	0.479921
2349.85	0.134011
2351.26	-0.0648508
2352.67	-0.541729
2354.08	0.189097
2355.49	0.363769
2356.9	0.391283
2358.3	0.10967
2359.71	0.0399609
2361.12	0.00292969
2362.53	0.274016
2363.93	0.0747728
2365.34	-0.350587
2366.75	0.19476
2368.15	-0.11628
2369.56	0.219205
2370.97	-0.395949
2372.37	0.198843
2373.77	0.262351
2375.18	0.0846429
2376.59	0.148168
2377.99	0.017909
2379.39	0.143827
2380.8	0.0436072
2382.2	-0.121545
2383.6	-0.0146775
2385.01	-0.132182
2386.41	0.0624065
2387.81	0.25718
2389.21	0.412563
2390.62	-0.132372
2392.02	-0.373204
2393.42	0.166588
2394.82	-0.0887833
2396.22	-0.136775
2397.62	0.0540943
2399.02	-0.42208
2400.42	0.420822
2401.82	-0.388228
2403.22	-0.117077
2404.62	0.201365
2406.02	0.328558
2407.42	0.248708
2408.82	0.104914
2410.22	-0.134083
2411.62	0.134291
2413.01	0.149605
2414.41	-0.00834322
2415.81	0.309708
2417.21	-0.115366
2418.6	0.0142913
2420	0.286788
2421.4	0.194989
2422.79	0.277173
2424.19	0.12151
2425.59	0.425391
2426.98	0.190865
2428.38	0.495876
2429.77	0.0563912
2431.17	0.0930347
2432.56	0.510828
2433.95	0.0233588
2435.35	-0.00453043
2436.74	0.252533
2438.14	0.222534
2439.53	-0.0943174
2440.92	0.223556
2442.31	0.556698
2443.71	-0.332466
2445.1	0.238218
2446.49	-0.000275135
2447.88	0.17338
2449.27	0.505266
2450.67	0.124526
2452.06	-0.176401
2453.45	0.203785
2454.84	0.173082
2456.23	0.490902
2457.62	0.302744
2459.01	0.193587
2460.4	-0.105725
2461.79	0.242762
2463.18	0.290177
2464.57	0.242334
2465.95	-0.295255
2467.34	-0.122097
2468.73	0.113981
2470.12	-0.123423
2471.5	0.0174041
2472.89	0.26787
2474.28	0.0451922
2475.67	0.0111432
2477.05	0.149774
2478.44	0.272438
2479.82	-0.028666
2481.21	0.0941772
2482.6	0.169782
2483.98	0.307553
2485.37	0.00652885
2486.75	-0.0603309
2488.13	-0.0185652
2489.52	0.0849156
2490.9	0.31253
2492.29	0.182407
2493.67	-0.0242872
2495.05	0.220235
2496.44	0.248234
2497.82	-0.0174775
2499.2	0.104333
2500.58	0.0401392
2501.97	0.145504
2503.35	-0.120582
2504.73	0.291937
2506.11	0.0559859
2507.49	0.17437
2508.87	0.046598
2510.25	-0.0652466
2511.63	-0.222445
2513.01	-0.148907
2514.39	-0.228074
2515.77	-0.184093
2517.15	-0.124348
2518.53	0.012146
2519.91	0.118062
2521.29	-0.142861
2522.67	0.0997686
2524.05	0.143204
2525.42	0.38419
2526.8	0.137298
2528.18	-0.230646
2529.55	-0.0195131
2530.93	0.162069
2532.31	0.192769
2533.69	0.254823
2535.06	0.211044
2536.44	0.10648
2537.81	0.0470405
2539.19	-0.240854
2540.56	-0.0888491
2541.94	0.13869
2543.31	0.381435
2544.69	0.533654
2546.06	0.216545
2547.44	0.0368381
2548.81	-0.0361176
2550.18	0.255146
2551.56	-0.0457053
2552.93	-0.028522
2554.3	-0.0727472
2555.67	0.185859
2557.04	-0.0110836
2558.42	0.216559
2559.79	-0.0559926
2561.16	0.0356956
2562.53	-0.160138
2563.9	0.32638
2565.27	-0.0202732
2566.64	-0.093987
2568.01	0.165774
2569.38	0.00119734
2570.75	0.20037
2572.12	-0.0399814
2573.49	0.416995
2574.86	0.131276
2576.23	-0.199948
2577.6	-0.121892
2578.97	0.137979
2580.33	0.2005
2581.7	-0.237637
2583.07	0.218553
2584.44	0.265174
2585.8	0.463326
2587.17	0.0249462
2588.54	-0.0191836
2589.9	0.0883188
2591.27	0.0138803
2592.64	0.242174
2594	-0.227008
2595.37	-0.045445
2596.73	-0.394501
2598.1	-0.0175757
2599.46	0.358654
2600.83	0.175435
2602.19	-0.0525322
2603.55	-0.189249
2604.92	-0.00858974
2606.28	0.126824
2607.64	0.156368
2609.01	-0.191489
2610.37	0.138028
2611.73	0.240399
2613.09	0.101178
2614.46	0.29214
2615.82	-0.0726871
2617.18	0.237958
2618.54	0.0242558
2619.9	-0.0987511
2621.26	0.122852
2622.62	0.0904894
2623.98	-0.135781
2625.34	-0.287177
2626.7	0.0684829
2628.06	0.0955791
2629.42	0.0926437
2630.78	-0.0145788
2632.14	-0.0473776
2633.5	0.187215
2634.86	0.243306
2636.21	-0.160447
2637.57	-0.0301037
2638.93	0.0260329
2640.29	-0.213704
2641.64	0.0497379
2643	-0.130202
2644.36	-0.206432
2645.71	0.218979
2647.07	-0.049356
2648.43	0.256708
2649.78	0.0907474
2651.14	0.203945
2652.49	-0.212007
2653.85	-0.113479
2655.2	0.161249
2656.56	0.143359
2657.91	0.316586
2659.26	-0.0217443
2660.62	0.459369
2661.97	-0.0246358
2663.32	0.134139
2664.68	-0.145739
2666.03	0.318121
2667.38	-0.0497804
2668.74	-0.0239892
2670.09	0.3948
2671.44	0.159058
2672.79	0.28734
2674.14	-0.121395
2675.49	0.298033
2676.84	0.412805
2678.19	0.252406
2679.54	0.397195
2680.89	0.136744
2682.24	-0.253332
2683.59	0.0388379
2684.94	0.259278
2686.29	-0.17275
2687.64	-0.213266
2688.99	0.108361
2690.34	0.254676
2691.69	0.0222917
2693.03	0.0646577
2694.38	-0.0966992
2695.73	0.118793
2697.08	0.117198
2698.42	0.14546
2699.77	0.0880036
2701.12	0.176562
2702.46	0.295184
2703.81	-0.0925326
2705.15	0.143155
2706.5	0.0310044
2707.85	0.382919
2709.19	0.139655
2710.54	-0.0605001
2711.88	0.160303
2713.22	0.352079
2714.57	0.209611
2715.91	0.0815511
2717.26	-0.00305223
2718.6	-0.0296783
2719.94	0.0452909
2721.29	0.35283
2722.63	0.354451
2723.97	0.239285
2725.31	0.29847
2726.66	0.0517278
2728	0.110425
2729.34	0.110735
2730.68	0.241897
2732.02	0.314806
2733.36	0.184101
2734.7	-0.135549
2736.04	-0.193212
2737.38	0.229169
2738.72	0.0843096
2740.06	0.0992627
2741.4	0.0993476
2742.74	0.113524
2744.08	-0.0617161
2745.42	0.125926
2746.76	0.00816679
2748.09	0.325835
2749.43	-0.0676866
2750.77	0.133881
2752.11	-0.0849686
2753.45	0.102292
2754.78	0.101202
2756.12	0.274009
2757.46	0.417869
2758.79	0.113081
2760.13	0.141578
2761.46	0.213815
2762.8	0.0837946
2764.14	0.445961
2765.47	0.22935
2766.8	0.0124536
2768.14	0.0553498
2769.47	-0.0327878
2770.81	-0.0495744
2772.14	0.250435
2773.48	-0.100064
2774.81	-0.0610967
2776.14	0.0641918
2777.48	0.0743704
2778.81	-0.332119
2780.14	-0.162862
2781.47	-0.122871
2782.8	0.247203
2784.14	0.100445
2785.47	0.0541887
2786.8	-0.149437
2788.13	0.0912676
2789.46	-0.240054
2790.79	0.144609
2792.12	0.0577216
2793.45	0.128444
2794.78	0.156291
2796.11	0.198179
2797.44	0.0396848
2798.77	-0.147641
2800.1	0.078783
2801.43	0.204957
2802.76	0.174029
2804.09	-0.25607
2805.41	-0.173256
2806.74	0.0798531
2808.07	0.204164
2809.4	-0.0841579
2810.72	-0.0596037
2812.05	-0.162406
2813.38	-0.00903988
2814.71	-0.0533257
2816.03	0.130182
2817.36	0.300245
2818.68	0.201419
2820.01	0.0600834
2821.33	0.0885243
2822.66	0.059814
2823.98	-0.0401597
2825.31	0.0438099
2826.63	0.141922
2827.96	0.0987592
2829.28	0.268344
2830.6	0.169265
2831.93	0.0844984
2833.25	0.452653
2834.57	0.325154
2835.9	0.268094
2837.22	0.720049
2838.54	0.478338
2839.86	0.32145
2841.18	0.390922
2842.5	0.559587
2843.83	0.700377
2845.15	0.869913
2846.47	1.01163
2847.79	0.955747
2849.11	0.899878
2850.43	1.14061
2851.75	1.07004
2853.07	1.19696
2854.39	0.913776
2855.71	1.56302
2857.03	1.27971
2858.35	1.53324
2859.66	1.39126
2860.98	1.74339
2862.3	1.67164
2863.62	1.68431
2864.94	2.19063
2866.25	2.28757
2867.57	2.35645
2868.89	2.79224
2870.2	2.55153
2871.52	2.76208
2872.84	2.66229
2874.15	2.6183
2875.47	2.9538
2876.78	2.48564
2878.1	2.96006
2879.41	2.92745
2880.73	2.92322
2882.04	2.97585
2883.36	2.91692
2884.67	2.78861
2885.99	3.06793
2887.3	2.88404
2888.61	2.93841
2889.93	2.68353
2891.24	3.04513
2892.55	3.06954
2893.86	3.13581
2895.18	3.39834
2896.49	3.67532
2897.8	3.63116
2899.11	3.65784
2900.42	3.89503
2901.73	3.65697
2903.05	4.07653
2904.36	4.1325
2905.67	4.0908
2906.98	4.63703
2908.29	4.41467
2909.6	4.75264
2910.91	4.64342
2912.21	5.44398
2913.52	5.19415
2914.83	5.58699
2916.14	5.7402
2917.45	5.80787
2918.76	5.84656
2920.07	6.20672
2921.37	6.11987
2922.68	6.59338
2923.99	6.71869
2925.29	6.4817
2926.6	6.63669
2927.91	7.01543
2929.22	7.29594
2930.52	6.98872
2931.83	6.79286
2933.13	7.64511
2934.44	7.12744
2935.74	7.35068
2937.05	7.49018
2938.35	6.94513
2939.66	7.00123
2940.96	6.97399
2942.26	6.86375
2943.57	6.50308
2944.87	6.64687
2946.18	6.19053
2947.48	6.21013
2948.78	6.10353
2950.08	5.64574
2951.39	5.41012
2952.69	5.29874
2953.99	5.18606
2955.29	5.25502
2956.59	4.97482
2957.9	4.92038
2959.2	4.98036
2960.5	4.80476
2961.8	4.5747
2963.1	4.69574
2964.4	4.63395
2965.7	4.02294
2967	4.09853
2968.3	3.73719
2969.6	3.58591
2970.9	3.49071
2972.19	3.55043
2973.49	3.79341
2974.79	4.02244
2976.09	3.81454
2977.39	3.53504
2978.68	3.31038
2979.98	3.0843
2981.28	3.12458
2982.58	2.92522
2983.87	2.88092
2985.17	2.83753
2986.47	2.78135
2987.76	2.61398
2989.06	2.26473
2990.35	2.18266
2991.65	1.77694
2992.94	1.77798
2994.24	1.72183
2995.53	1.69292
2996.83	1.52303
2998.12	1.32505
2999.42	1.43599
3000.71	1.23876
3002	1.25234
3003.3	1.028
3004.59	1.09804
3005.88	0.929757
3007.18	0.929118
3008.47	0.662021
3009.76	0.911921
3011.05	0.853518
3012.34	0.752976
3013.64	0.554914
3014.93	0.636228
3016.22	0.731844
3017.51	0.730421
3018.8	0.52065
3020.09	0.617108
3021.38	0.42125
3022.67	0.544478
3023.96	0.514132
3025.25	0.13667
3026.54	0.521523
3027.83	0.200257
3029.12	0.267431
3030.41	0.28027
3031.69	0.211264
3032.98	0.405344
3034.27	-0.0077095
3035.56	0.46206
3036.84	0.296211
3038.13	0.335956
3039.42	0.236645
3040.71	0.411323
3041.99	0.516213
3043.28	0.264387
3044.57	0.547647
3045.85	0.270842
3047.14	0.405933
3048.42	0.720006
3049.71	0.271106
3050.99	0.574079
3052.28	0.413661
3053.56	0.294206
3054.85	0.406228
3056.13	0.762919
3057.41	0.723161
3058.7	0.669185
3059.98	0.615039
3061.26	0.561209
3062.55	0.331311
3063.83	0.510474
3065.11	0.323616
3066.39	0.450459
3067.68	0.482866
3068.96	0.406775
3070.24	0.575286
3071.52	0.403147
3072.8	0.175748
3074.08	-0.0252376
3075.36	0.221679
3076.65	0.169331
3077.93	0.158016
3079.21	0.215287
3080.49	0.205746
3081.77	0.332949
3083.04	0.135472
3084.32	-0.020874
3085.6	-0.0686545
3086.88	0.0325408
3088.16	-0.165359
3089.44	-0.105841
3090.72	-0.100939
3091.99	0.120918
3093.27	0.315644
3094.55	0.415567
3095.83	0.203796
3097.1	0.276831
3098.38	0.241354
3099.66	0.151583
3100.93	0.210789
3102.21	-0.0143943
3103.49	0.153342
3104.76	0.0235639
3106.04	0.1244
3107.31	0.198782
3108.59	0.138556
3109.86	0.106131
3111.14	-0.0610294
3112.41	-0.173602
3113.69	-0.10982
3114.96	-0.0731187
3116.23	0.0582285
3117.51	0.148354
3118.78	0.197037
3120.05	-0.0263133
3121.33	0.251414
3122.6	0.121949
3123.87	0.425899
3125.14	0.147488
3126.41	0.343311
3127.69	0.0117373
3128.96	0.181162
3130.23	0.377761
3131.5	-0.0339365
3132.77	0.0679936
3134.04	0.250625
3135.31	0.108708
3136.58	0.047503
3137.85	0.0534248
3139.12	0.247663
3140.39	0.0645738
3141.66	0.110449
3142.93	-0.246653
3144.2	0.0684066
3145.47	0.0480103
3146.74	-0.105956
3148	0.196206
3149.27	0.284186
