200.533	0.458257
202.348	0.488894
204.162	0.520754
205.976	0.821051
207.792	0.659304
209.605	-0.183643
211.418	0.478454
213.23	0.0457001
215.044	0.121349
216.856	-0.240308
218.667	0.46404
220.478	0.611322
222.289	0.372369
224.102	-0.203876
225.912	0.767445
227.721	0.21598
229.531	0.050622
231.34	0.246553
233.148	0.20051
234.956	0.0824318
236.766	0.737203
238.574	0.622875
240.381	0.632046
242.188	0.113363
243.994	0.198759
245.801	0.235633
247.606	-0.212477
249.412	0.205089
251.217	0.111645
253.024	0.30439
254.828	0.325812
256.632	0.105486
258.436	0.464609
260.239	0.367648
262.042	-0.786996
263.845	0.204204
265.647	-0.369443
267.449	-0.0513783
269.25	0.314483
271.052	-0.285069
272.852	0.729156
274.653	-0.331973
276.453	0.147807
278.253	-0.00158024
280.052	-0.0570641
281.852	0.438484
283.65	0.233453
285.449	0.291186
287.247	0.875739
289.044	-0.267231
290.842	0.00603199
292.639	0.75899
294.436	0.364628
296.232	0.091959
298.028	0.37038
299.821	0.242931
301.617	0.186876
303.412	-0.0135536
305.206	-0.000641823
307	-0.0843554
308.794	-0.168331
310.588	-0.48989
312.381	0.547665
314.172	0.157908
315.964	0.580019
317.756	0.0993805
319.548	1.07352
321.34	0.214597
323.131	0.452684
324.921	0.953996
326.71	1.36046
328.5	0.787485
330.29	0.284596
332.079	0.616771
333.868	0.492363
335.654	0.149761
337.443	0.402501
339.231	0.461111
341.018	0.230725
342.804	0.859992
344.591	0.365647
346.377	-0.318808
348.163	-0.261856
349.947	0.798223
351.733	0.568982
353.518	0.0765905
355.303	-0.249894
357.085	-0.840031
358.869	-0.263504
360.653	0.0251226
362.435	-0.235131
364.218	0.40756
366.001	0.810667
367.781	0.3101
369.563	-0.14322
371.345	0.255951
373.124	0.0855341
374.905	0.387618
376.686	0.311399
378.464	0.613242
380.244	0.20892
382.022	0.4187
383.801	0.253425
385.58	0.348515
387.357	-0.212917
389.135	0.0495338
390.911	0.735786
392.689	0.31913
394.466	-0.284607
396.241	-0.0190163
398.018	0.458082
399.792	0.535689
401.568	0.354366
403.341	0.078269
405.117	0.0126438
406.889	0.157447
408.664	0.207533
410.436	0.468438
412.21	0.330335
413.981	0.145881
415.755	-0.0611181
417.525	0.507185
419.298	-0.425508
421.068	0.0266008
422.84	-0.272653
424.609	-0.103311
426.38	-0.122886
428.149	0.419921
429.919	-0.281998
431.688	0.189715
433.455	-0.0892487
435.225	0.265898
436.992	0.597543
438.76	0.106864
440.527	-0.197807
442.293	-0.199838
444.06	0.287776
445.826	-0.0942783
447.593	0.388766
449.357	0.075387
451.122	0.206585
452.888	0.314623
454.651	-0.34692
456.415	0.297685
458.18	0.149313
459.942	-0.0219784
461.705	0.0403948
463.469	0.220868
465.23	0.497198
466.991	0.0800629
468.752	0.526151
470.515	0.556413
472.275	-0.0873709
474.035	0.151941
475.797	0.552312
477.556	-0.447563
479.315	-0.168546
481.073	0.31891
482.834	-0.45114
484.592	0.573696
486.349	0.343336
488.106	0.418542
489.863	0.58978
491.622	0.459208
493.378	-0.13805
495.134	0.175986
496.889	0.79485
498.645	0.711585
500.401	0.111666
502.156	0.0262909
503.91	0.620889
505.664	0.862284
507.417	0.702389
509.171	0.822669
510.923	0.211508
512.678	0.798305
514.43	0.700798
516.182	0.31927
517.933	0.195131
519.684	0.65752
521.435	0.41368
523.186	0.803551
524.936	-0.145058
526.686	0.197541
528.435	0.141255
530.184	0.366114
531.933	0.449698
533.682	0.110852
535.43	1.12756
537.18	-0.125993
538.927	0.418671
540.674	0.354403
542.421	-0.176532
544.167	0.642614
545.913	0.298037
547.659	0.789999
549.403	0.261252
551.148	-0.173396
552.893	0.156436
554.637	0.508943
556.381	0.122495
558.125	-0.21654
559.868	0.367231
561.611	0.145088
563.354	-0.0529261
565.097	0.324733
566.839	-0.261977
568.581	-0.204164
570.322	-0.0762062
572.063	0.30579
573.802	-0.388309
575.542	0.227436
577.283	-0.416516
579.022	-0.0491724
580.762	0.296516
582.501	0.71165
584.24	0.137902
585.976	-0.897563
587.714	-0.140764
589.452	0.31575
591.19	0.103952
592.927	-0.430575
594.663	0.645266
596.398	0.570837
598.134	0.220312
599.87	-0.26867
601.605	-0.321526
603.338	0.406027
605.073	-0.110147
606.808	-0.259821
608.542	-0.0199089
610.274	0.586813
612.007	0.321901
613.74	-0.125095
615.473	0.597993
617.204	0.152382
618.936	0.553794
620.668	0.0378513
622.397	0.230095
624.128	0.146702
625.859	0.0634937
627.588	0.0731421
629.318	0.176616
631.048	0.328738
632.775	0.57481
634.505	0.525634
636.233	0.38469
637.96	-0.0324392
639.688	0.254599
641.416	0.0586433
643.142	0.201768
644.869	0.229259
646.594	-0.129484
648.32	0.219408
650.045	-0.723121
651.771	0.520639
653.496	0.383448
655.219	0.273179
656.944	-0.15313
658.667	0.309872
660.391	0.727663
662.113	0.64169
663.837	0.529712
665.558	0.368748
667.281	0.182399
669.002	-0.256485
670.724	0.403543
672.444	0.63171
674.166	-0.304637
675.885	0.73146
677.606	0.325631
679.325	0.309616
681.045	0.31531
682.763	0.663845
684.483	0.526655
686.2	0.340727
687.917	0.682467
689.636	0.285811
691.352	0.302844
693.07	0.0426788
694.786	0.196204
696.501	0.578728
698.219	0.061738
699.933	0.533027
701.65	0.864385
703.364	0.412736
705.078	1.08616
706.793	0.197376
708.506	0.341362
710.219	0.507562
711.934	1.06218
713.646	0.563348
715.358	0.659309
717.071	0.869193
718.782	0.850762
720.493	0.581921
722.204	0.678098
723.916	1.47947
725.626	1.27914
727.336	0.942513
729.045	0.288281
730.756	1.38025
732.464	1.29199
734.173	1.61089
735.881	0.708801
737.59	0.734712
739.297	0.716381
741.004	0.406325
742.711	1.53989
744.417	0.625241
746.125	1.10849
747.831	1.12082
749.537	1.31487
751.242	1.71303
752.946	1.57316
754.651	1.32264
756.357	1.32153
758.061	0.782083
759.764	0.89728
761.467	1.64537
763.17	1.74092
764.872	1.67818
766.575	1.20711
768.276	1.70521
769.978	1.68071
771.679	1.08818
773.382	1.82801
775.083	2.11497
776.783	1.86005
778.483	1.83299
780.182	2.16984
781.882	1.85227
783.581	2.07783
785.279	2.43778
786.978	1.45897
788.676	2.39996
790.373	1.48099
792.071	2.25481
793.768	1.96395
795.464	1.13197
797.161	1.47464
798.857	1.0307
800.552	1.24233
802.248	1.27556
803.941	1.30963
805.636	1.95039
807.33	1.12902
809.024	1.65438
810.718	1.23507
812.412	1.35337
814.105	1.1123
815.798	1.49812
817.49	1.72669
819.183	1.66445
820.873	1.93752
822.564	1.87597
824.256	2.17233
825.947	2.0246
827.637	1.85763
829.328	2.16207
831.016	2.27013
832.705	2.0256
834.395	2.25176
836.084	1.54269
837.772	1.76985
839.459	1.92872
841.147	0.991123
842.835	2.30792
844.522	1.83693
846.209	2.1937
847.894	1.12204
849.581	1.84235
851.267	2.11913
852.953	1.63686
854.637	1.53623
856.322	1.65978
858.007	1.08506
859.689	1.58736
861.374	1.23236
863.058	0.491904
864.739	1.93535
866.423	0.786016
868.106	0.740185
869.787	0.941871
871.469	1.6395
873.151	0.938314
874.831	0.868637
876.512	1.25029
878.193	1.18068
879.872	1.81066
881.553	1.06321
883.231	0.946856
884.911	1.59662
886.591	1.40928
888.268	1.28768
889.947	1.43472
891.623	1.19655
893.302	1.42987
894.978	1.3688
896.656	1.41881
898.331	0.434486
900.008	1.06607
901.683	0.619842
903.359	1.22562
905.033	1.09223
906.709	1.0041
908.383	0.471178
910.058	1.3657
911.731	0.346427
913.405	1.4857
915.078	1.37993
916.752	0.764201
918.423	1.43491
920.096	1.17461
921.768	0.672222
923.438	0.547872
925.111	0.779153
926.781	0.548864
928.452	0.387059
930.122	0.690257
931.791	1.06037
933.462	1.16598
935.13	1.29385
936.799	0.981174
938.468	0.912255
940.136	0.447883
941.803	1.2644
943.472	0.559635
945.139	0.56059
946.805	0.626313
948.473	0.888383
950.139	0.816931
951.804	1.05285
953.471	0.715333
955.136	0.62257
956.801	0.974361
958.465	0.624557
960.131	0.829741
961.794	0.882484
963.458	0.758232
965.12	0.432555
966.785	0.523613
968.447	0.854578
970.109	1.13861
971.771	0.470363
973.432	0.864491
975.095	0.972949
976.756	1.28282
978.417	1.17446
980.077	1.49839
981.737	1.6227
983.396	1.18068
985.057	0.957401
986.716	1.10772
988.375	1.36622
990.033	1.51227
991.691	0.86172
993.349	0.63136
995.006	1.46092
996.663	0.855719
998.32	1.66226
999.976	1.54204
1001.63	1.61961
1003.29	1.69649
1004.95	1.42097
1006.6	1.0578
1008.26	1.00273
1009.91	0.794565
1011.56	0.192521
1013.22	0.599919
1014.87	1.11685
1016.53	1.26158
1018.18	1.27558
1019.83	0.853235
1021.48	0.454437
1023.14	0.778575
1024.79	1.65017
1026.44	0.752303
1028.09	1.29669
1029.74	1.35945
1031.39	1.66074
1033.04	1.39203
1034.69	1.40498
1036.34	0.936436
1037.99	0.794311
1039.64	0.543494
1041.29	0.641936
1042.94	1.43751
1044.58	0.757195
1046.23	0.557755
1047.88	0.51282
1049.52	0.122484
1051.17	0.363528
1052.82	1.21396
1054.46	0.565851
1056.11	0.917237
1057.75	0.224905
1059.4	1.22762
1061.04	0.859816
1062.69	0.316983
1064.33	0.686222
1065.98	1.09749
1067.62	0.246593
1069.26	0.568183
1070.9	0.64983
1072.55	0.40566
1074.19	0.249119
1075.83	0.723022
1077.47	0.526134
1079.11	0.460981
1080.76	0.787096
1082.4	0.852938
1084.04	0.310492
1085.68	0.958368
1087.32	-0.390209
1088.95	0.252228
1090.59	0.437218
1092.23	0.901411
1093.87	0.392323
1095.51	0.294371
1097.15	0.585665
1098.78	0.232064
1100.42	0.591528
1102.06	-0.165829
1103.69	0.456269
1105.33	-0.232306
1106.97	-0.210316
1108.6	0.262874
1110.24	0.605495
1111.87	0.172155
1113.51	-0.0909691
1115.14	0.524829
1116.77	0.216641
1118.41	0.0590944
1120.04	0.459632
1121.67	-0.123964
1123.31	1.0065
1124.94	1.26019
1126.57	0.702115
1128.2	0.615776
1129.83	0.893865
1131.47	0.402987
1133.1	-0.0660658
1134.72	0.576297
1136.36	0.961195
1137.98	0.44712
1139.62	-0.068182
1141.24	-0.029213
1142.87	0.307837
1144.5	0.516776
1146.13	0.214792
1147.76	0.255228
1149.38	0.275423
1151.01	0.360104
1152.64	0.189191
1154.27	0.0179157
1155.89	0.527272
1157.52	0.142591
1159.14	-0.283916
1160.77	-0.581566
1162.39	-0.133608
1164.02	0.464345
1165.64	0.531366
1167.27	0.00269032
1168.89	0.280575
1170.51	0.0035944
1172.14	0.0218039
1173.76	-0.153282
1175.38	0.370453
1177	-0.167152
1178.63	0.44016
1180.25	-0.243683
1181.87	0.132152
1183.49	-0.400705
1185.11	-0.0666714
1186.73	-0.283242
1188.35	0.342403
1189.97	-0.21588
1191.59	0.129931
1193.21	-0.241791
1194.83	-0.0256548
1196.45	0.357643
1198.07	0.196791
1199.68	0.603207
1201.3	0.573095
1202.92	0.546494
1204.53	0.25196
1206.15	1.19131
1207.77	0.629993
1209.38	0.528031
1211	0.42502
1212.62	0.236472
1214.23	0.774576
1215.84	0.726068
1217.46	-0.177519
1219.07	0.519487
1220.69	1.04886
1222.3	0.499766
1223.91	0.450559
1225.53	1.25223
1227.14	1.18582
1228.75	0.790421
1230.36	0.562373
1231.97	1.12147
1233.59	1.39262
1235.2	1.6034
1236.81	1.73316
1238.42	0.892686
1240.03	1.04526
1241.64	1.34294
1243.25	1.84718
1244.85	0.6538
1246.46	1.44541
1248.07	1.13899
1249.68	1.01786
1251.29	0.689497
1252.9	1.8715
1254.5	1.21348
1256.11	1.23947
1257.72	1.37053
1259.32	1.68942
1260.93	1.07817
1262.54	2.35152
1264.14	2.03072
1265.75	1.29465
1267.35	1.44848
1268.96	1.76699
1270.56	1.7939
1272.16	1.65349
1273.77	1.7605
1275.37	1.3894
1276.97	2.13621
1278.57	1.94928
1280.18	1.26472
1281.78	1.4703
1283.38	1.38625
1284.98	1.59251
1286.58	1.40705
1288.18	2.00845
1289.78	1.45362
1291.38	1.06488
1292.99	1.95707
1294.58	1.98035
1296.18	1.85729
1297.78	2.12434
1299.38	2.12064
1300.98	1.16658
1302.58	1.88085
1304.17	1.48133
1305.77	1.55446
1307.37	2.22234
1308.97	1.7601
1310.56	1.23741
1312.16	2.57918
1313.76	1.75153
1315.35	1.51931
1316.95	1.57456
1318.54	1.93646
1320.14	1.50257
1321.73	1.8829
1323.32	1.99592
1324.92	1.98439
1326.51	2.29578
1328.1	1.67314
1329.7	2.00446
1331.29	1.87206
1332.88	1.80355
1334.47	1.79873
1336.07	2.09874
1337.66	2.35878
1339.25	1.97257
1340.84	1.76587
1342.43	1.93898
1344.02	2.24976
1345.61	2.17693
1347.2	1.2825
1348.79	1.81439
1350.37	0.9477
1351.96	1.76552
1353.55	2.2254
1355.14	1.08777
1356.73	1.46982
1358.31	1.53147
1359.9	1.53191
1361.49	1.27149
1363.07	1.1499
1364.66	1.0679
1366.25	1.26527
1367.83	1.56305
1369.42	1.16549
1371	1.28744
1372.59	1.15246
1374.17	1.15822
1375.75	1.04543
1377.34	0.256185
1378.92	1.09798
1380.5	0.485911
1382.09	0.847159
1383.67	0.749206
1385.25	1.46503
1386.83	0.590284
1388.42	0.709455
1390	0.749969
1391.58	0.831266
1393.16	1.42929
1394.74	0.936679
1396.32	0.166447
1397.9	0.922094
1399.48	0.784292
1401.06	1.29898
1402.64	0.387238
1404.21	0.445848
1405.79	0.920282
1407.37	0.861732
1408.95	0.824058
1410.53	0.905548
1412.1	0.631486
1413.68	0.534512
1415.26	0.692991
1416.83	0.751684
1418.41	1.32229
1419.98	1.71545
1421.56	0.770778
1423.13	0.931081
1424.71	1.21149
1426.28	1.17854
1427.86	0.713242
1429.43	1.60568
1431	1.07979
1432.58	1.20195
1434.15	1.18515
1435.72	1.58081
1437.29	1.95686
1438.87	1.88163
1440.44	2.10256
1442.01	2.06927
1443.58	2.21378
1445.15	2.63399
1446.72	2.30759
1448.29	1.90272
1449.86	1.75374
1451.43	2.27388
1453	2.57857
1454.57	2.07739
1456.14	2.24488
1457.71	2.33283
1459.27	2.79299
1460.84	1.89287
1462.41	1.77757
1463.98	1.24726
1465.54	1.95432
1467.11	2.05123
1468.67	1.28471
1470.24	1.16767
1471.81	1.58182
1473.37	1.34991
1474.94	1.3544
1476.5	0.379074
1478.07	0.972481
1479.63	1.0168
1481.19	1.0022
1482.76	1.12467
1484.32	0.561144
1485.88	0.898503
1487.45	0.333826
1489.01	0.316057
1490.57	0.472152
1492.13	-0.0197954
1493.69	0.111562
1495.26	0.455101
1496.82	-0.0412645
1498.38	0.689259
1499.94	0.15545
1501.5	0.381273
1503.06	0.200823
1504.62	0.448007
1506.17	-0.582495
1507.73	-0.238793
1509.29	0.547297
1510.85	0.0760384
1512.41	-0.433623
1513.97	0.577953
1515.52	0.299417
1517.08	0.329473
1518.64	0.475468
1520.19	0.564427
1521.75	0.0411625
1523.31	0.818274
1524.86	0.370846
1526.42	0.0948591
1527.97	-0.409962
1529.52	0.568996
1531.08	0.690814
1532.63	0.509613
1534.19	0.348942
1535.74	0.208865
1537.29	0.731506
1538.85	0.404592
1540.4	-0.0154848
1541.95	0.544898
1543.5	0.106673
1545.06	1.0039
1546.61	0.265075
1548.16	1.21615
1549.71	0.7408
1551.26	0.678577
1552.81	1.15961
1554.36	1.00556
1555.91	1.67527
1557.46	1.03992
1559.01	1.11667
1560.56	0.729412
1562.11	1.51946
1563.65	0.986394
1565.2	1.20027
1566.75	1.52628
1568.29	1.27349
1569.84	1.28148
1571.39	1.60631
1572.94	1.25877
1574.48	1.07906
1576.03	1.40342
1577.57	1.74674
1579.12	1.67991
1580.66	1.22176
1582.21	1.90371
1583.75	1.48488
1585.3	1.6087
1586.84	1.82671
1588.38	1.80194
1589.93	1.36517
1591.47	1.75113
1593.01	1.16305
1594.55	1.67936
1596.1	0.921982
1597.64	1.19548
1599.18	1.73252
1600.72	1.23918
1602.26	1.7782
1603.8	1.51025
1605.34	1.82355
1606.88	1.60908
1608.42	1.22284
1609.96	1.67946
1611.5	1.23109
1613.04	1.58816
1614.58	1.26757
1616.12	0.890638
1617.65	1.17081
1619.19	1.17112
1620.73	0.911103
1622.27	1.19587
1623.8	1.33177
1625.34	0.625291
1626.87	1.37786
1628.41	1.2491
1629.95	1.11873
1631.48	1.34231
1633.02	1.26631
1634.55	1.78814
1636.09	1.67612
1637.62	1.47214
1639.15	1.3623
1640.69	2.12847
1642.22	1.62645
1643.76	1.79379
1645.29	1.92218
1646.82	2.30955
1648.35	2.41726
1649.88	2.48824
1651.42	2.44913
1652.95	1.91096
1654.48	2.09776
1656.01	2.08136
1657.54	2.15749
1659.07	2.51034
1660.6	2.30577
1662.13	1.72955
1663.66	2.39118
1665.19	2.1091
1666.72	2.84297
1668.24	1.80686
1669.77	2.13791
1671.3	2.34163
1672.83	1.88356
1674.35	2.45755
1675.88	2.05515
1677.41	2.13044
1678.93	1.57878
1680.46	1.89046
1681.99	1.37397
1683.51	1.42696
1685.04	1.00289
1686.56	1.55172
1688.09	1.36737
1689.61	1.03717
1691.13	0.561134
1692.66	1.05556
1694.18	0.543409
1695.71	0.671421
1697.23	1.18268
1698.75	0.999018
1700.27	0.559544
1701.8	0.630642
1703.32	0.208905
1704.84	0.333434
1706.36	0.220702
1707.88	0.525936
1709.4	0.376474
1710.92	0.608468
1712.44	-0.0844364
1713.96	-0.0513315
1715.48	0.18091
1717	0.123291
1718.52	0.336688
1720.04	0.080164
1721.56	-0.0133429
1723.07	0.146357
1724.59	0.0727987
1726.11	0.144928
1727.63	0.32655
1729.14	0.383245
1730.66	-0.184519
1732.18	0.0226688
1733.69	0.052289
1735.21	0.44017
1736.72	0.406639
1738.24	0.298179
1739.75	0.394083
1741.27	-0.0380211
1742.78	-0.229232
1744.3	-0.128132
1745.81	0.236808
1747.32	-0.0509443
1748.84	0.228707
1750.35	0.449577
1751.86	-0.102559
1753.37	-0.175742
1754.89	-0.0662231
1756.4	0.138724
1757.91	0.0691595
1759.42	0.164697
1760.93	-0.419597
1762.44	0.212698
1763.95	-0.30487
1765.46	-0.509007
1766.97	-0.248356
1768.48	-0.0461721
1769.99	0.0959349
1771.5	0.449431
1773.01	0.131406
1774.52	0.309379
1776.03	0.179208
1777.53	0.227736
1779.04	0.096241
1780.55	-0.240326
1782.06	0.172113
1783.56	0.139388
1785.07	0.37195
1786.57	0.101354
1788.08	0.348073
1789.59	0.0672302
1791.09	0.0145559
1792.6	0.182748
1794.1	0.139291
1795.6	0.426302
1797.11	0.198895
1798.61	0.351889
1800.12	0.162851
1801.62	0.4533
1803.12	0.333431
1804.63	0.518804
1806.13	0.283797
1807.63	0.259718
1809.13	0.152451
1810.63	0.244869
1812.14	0.416492
1813.64	0.490765
1815.14	0.385824
1816.64	0.286863
1818.14	0.10934
1819.64	0.00391865
1821.14	0.502555
1822.64	0.548906
1824.14	0.455752
1825.63	0.433471
1827.13	0.681495
1828.63	0.0258179
1830.13	-0.0108757
1831.63	-0.101859
1833.12	0.377704
1834.62	0.444122
1836.12	0.613806
1837.62	0.346165
1839.11	0.625463
1840.61	0.709493
1842.1	0.305947
1843.6	0.563099
1845.09	0.416041
1846.59	0.575336
1848.08	0.442937
1849.58	0.425054
1851.07	0.138556
1852.57	0.634593
1854.06	0.458468
1855.55	0.883495
1857.04	0.855968
1858.54	0.877468
1860.03	0.681537
1861.52	0.184363
1863.01	0.531498
1864.5	0.321652
1866	0.513304
1867.49	0.807957
1868.98	0.308607
1870.47	0.576962
1871.96	0.633139
1873.45	0.708948
1874.94	0.75573
1876.43	0.526086
1877.92	0.728154
1879.41	0.662703
1880.89	0.956887
1882.38	0.63705
1882.48	0.613532
1883.97	0.562185
1885.47	0.788727
1886.96	0.839787
1888.46	0.524564
1889.95	0.697034
1891.44	1.18357
1892.94	0.69816
1894.43	0.528101
1895.92	0.655527
1897.41	0.836226
1898.9	0.564618
1900.4	0.744035
1901.89	0.904046
1903.38	0.0878696
1904.87	0.782905
1906.36	0.937651
1907.85	0.362814
1909.34	0.605043
1910.83	0.44913
1912.32	0.294403
1913.81	0.365895
1915.29	0.576203
1916.78	0.907388
1918.27	0.752429
1919.76	1.09946
1921.25	0.943806
1922.74	0.823368
1924.22	0.70406
1925.71	1.00164
1927.2	0.677332
1928.68	0.492287
1930.17	0.307174
1931.65	0.883052
1933.14	0.764482
1934.63	1.00727
1936.11	0.763299
1937.59	0.794735
1939.08	0.670009
1940.56	0.735713
1942.05	0.992199
1943.53	0.197486
1945.01	0.456321
1946.5	0.73269
1947.98	0.267575
1949.46	0.439311
1950.94	0.471948
1952.43	0.933597
1953.91	0.671691
1955.39	1.08018
1956.87	0.509741
1958.35	0.730301
1959.83	0.436891
1961.31	0.693112
1962.79	0.280903
1964.27	0.828267
1965.75	0.552524
1967.23	0.704112
1968.71	0.632336
1970.19	0.474452
1971.67	0.777641
1973.14	0.926681
1974.62	0.512758
1976.1	0.593904
1977.58	0.334487
1979.05	0.892555
1980.53	0.463252
1982.01	0.442274
1983.48	1.32125
1984.96	0.297442
1986.43	0.326435
1987.91	0.880711
1989.38	0.401493
1990.86	0.448345
1992.33	0.766853
1993.81	0.88339
1995.28	0.595255
1996.76	0.916034
1998.23	1.28723
1999.7	0.627808
2001.18	0.693789
2002.65	0.624158
2004.12	0.318387
2005.59	0.249181
2007.06	1.02305
2008.54	1.0735
2010.01	0.653602
2011.48	0.907814
2012.95	0.85907
2014.42	1.0286
2015.89	0.94472
2017.36	1.06158
2018.83	0.572105
2020.3	0.569678
2021.77	0.684606
2023.24	0.850142
2024.71	0.697673
2026.17	0.731228
2027.64	0.615541
2029.11	0.317137
2030.58	0.305411
2032.04	1.16743
2033.51	0.738017
2034.98	0.744903
2036.45	0.801729
2037.91	0.992349
2039.38	0.611127
2040.84	0.851613
2042.31	0.890875
2043.77	0.779663
2045.24	0.467522
2046.7	1.08193
2048.17	1.10781
2049.63	0.829956
2051.1	0.533761
2052.56	0.741478
2054.02	1.20004
2055.48	0.543394
2056.95	0.778837
2058.41	0.692943
2059.87	0.741632
2061.33	0.841253
2062.8	0.706115
2064.26	0.723694
2065.72	1.1127
2067.18	0.997855
2068.64	1.16985
2070.1	1.25811
2071.56	0.67304
2073.02	0.929518
2074.48	1.00048
2075.94	0.767916
2077.4	1.20849
2078.86	0.335032
2080.31	0.555634
2081.77	0.725018
2083.23	0.977695
2084.69	0.875936
2086.14	1.09295
2087.6	1.27536
2089.06	0.818436
2090.52	1.23516
2091.97	0.795122
2093.43	0.691021
2094.88	0.620259
2096.34	0.850676
2097.79	0.912492
2099.25	1.17427
2100.7	1.00041
2102.16	1.11113
2103.61	1.18927
2105.07	0.601282
2106.52	1.09988
2107.97	1.09908
2109.43	1.41555
2110.88	0.997705
2112.33	1.42838
2113.78	0.973864
2115.24	1.25015
2116.69	1.49157
2118.14	0.918987
2119.59	0.896601
2121.04	1.14194
2122.49	1.04115
2123.94	1.73812
2125.39	1.1093
2126.84	1.67402
2128.29	1.7566
2129.74	1.73795
2131.19	1.55201
2132.64	2.25908
2134.09	1.88994
2135.54	1.70404
2136.98	2.31348
2138.43	2.2144
2139.88	2.16738
2141.33	1.90759
2142.77	2.36021
2144.22	2.06961
2145.67	3.03676
2147.11	2.33206
2148.56	2.13945
2150.01	2.55855
2151.45	2.54569
2152.9	2.68061
2154.34	2.40019
2155.79	2.54991
2157.23	2.50087
2158.67	2.35335
2160.12	2.40629
2161.56	2.49464
2163	2.6186
2164.45	2.6618
2165.89	2.10851
2167.33	2.90007
2168.78	2.81021
2170.22	2.81767
2171.66	2.62269
2173.1	2.42507
2174.54	3.02403
2175.98	3.1563
2177.42	2.74005
2178.86	2.90679
2180.3	2.4929
2181.74	2.79508
2183.18	2.7489
2184.62	2.75296
2186.06	2.75712
2187.5	2.32868
2188.94	3.01515
2190.38	2.71976
2191.82	2.52378
2193.25	2.5599
2194.69	2.07816
2196.13	2.42651
2197.57	2.32279
2199	2.31668
2200.44	2.05995
2201.88	2.8659
2203.31	1.97925
2204.75	2.00705
2206.18	2.13557
2207.62	2.18184
2209.05	2.01257
2210.49	1.56111
2211.92	2.15098
2213.36	1.91261
2214.79	2.12033
2216.22	1.51967
2217.66	1.59749
2219.09	1.51185
2220.52	1.60869
2221.96	1.6562
2223.39	1.78519
2224.82	1.81352
2226.25	1.47763
2227.68	1.14018
2229.11	1.67225
2230.55	1.36548
2231.98	1.40321
2233.41	1.34295
2234.84	1.20195
2236.27	1.04627
2237.7	1.18657
2239.12	1.13316
2240.55	1.13113
2241.98	1.37593
2243.41	1.18188
2244.84	0.988277
2246.27	0.92439
2247.7	1.26637
2249.12	0.676326
2250.55	1.11064
2251.98	1.37936
2253.41	1.01228
2254.83	1.01985
2256.26	0.60698
2257.68	0.813929
2259.11	0.667149
2260.54	0.783383
2261.96	0.967486
2263.39	0.86136
2264.81	0.804276
2266.24	1.29955
2267.66	0.964699
2269.08	0.628441
2270.51	0.860765
2271.93	0.522686
2273.35	0.509954
2274.78	0.969693
2276.2	0.63149
2277.62	0.977825
2279.04	0.541906
2280.47	0.757944
2281.89	1.08811
2283.31	0.325242
2284.73	0.508508
2286.15	0.577841
2287.57	0.810904
2288.99	0.799623
2290.41	0.723456
2291.83	0.811018
2293.25	0.800672
2294.67	0.872093
2296.09	1.00894
2297.51	0.605442
2298.93	0.136113
2300.35	0.502439
2301.76	0.279112
2303.18	0.646498
2304.6	0.866709
2306.02	-0.0132809
2307.44	0.830718
2308.85	0.589922
2310.27	0.315356
2311.69	0.221068
2313.1	0.357013
2314.52	0.658076
2315.93	0.515619
2317.35	0.209177
2318.76	0.578778
2320.18	0.81659
2321.59	0.756331
2323.01	0.677311
2324.42	0.991604
2325.83	0.973062
2327.25	1.0349
2328.66	0.947371
2330.07	0.629519
2331.49	0.7246
2332.9	-0.248869
2334.31	0.638484
2335.72	0.22614
2337.13	0.389121
2338.55	0.304279
2339.96	0.267483
2341.37	0.443109
2342.78	0.256845
2344.19	0.283972
2345.6	0.57358
2347.01	0.699362
2348.42	-0.124393
2349.83	0.230299
2351.24	0.27303
2352.65	0.608556
2354.05	0.22438
2355.46	0.378066
2356.87	0.221641
2358.28	0.195625
2359.69	0.527226
2361.09	0.144087
2362.5	0.36163
2363.91	0.5462
2365.31	0.455245
2366.72	-0.00702953
2368.13	0.307278
2369.53	0.364073
2370.94	0.502887
2372.34	0.256434
2373.75	0.655533
2375.15	0.475287
2376.56	0.246513
2377.96	-0.0153971
2379.37	0.765727
2380.77	-0.0136147
2382.17	0.201213
2383.58	0.574633
2384.98	0.466937
2386.38	0.367941
2387.79	0.142506
2389.19	0.245742
2390.59	0.270576
2391.99	0.0101557
2393.39	0.212645
2394.8	-0.220293
2396.2	0.349506
2397.6	0.156772
2399	0.187254
2400.4	-0.385378
2401.8	0.0273209
2403.2	0.503475
2404.6	0.216889
2406	0.373937
2407.4	0.260039
2408.79	0.60525
2410.19	0.141273
2411.59	0.184985
2412.99	0.577975
2414.39	-0.0569134
2415.78	0.259927
2417.18	0.388317
2418.58	0.26448
2419.98	0.0143471
2421.37	0.112486
2422.77	0.0359945
2424.16	0.18099
2425.56	0.215152
2426.96	0.0280094
2428.35	0.0478468
2429.74	0.576281
2431.14	0.503072
2432.53	-0.268494
2433.93	0.245096
2435.32	0.583049
2436.72	0.951167
2438.11	0.650146
2439.5	0.347631
2440.9	0.171216
2442.29	0.661007
2443.68	-0.166981
2445.07	0.258563
2446.47	0.0176735
2447.86	0.585064
2449.25	0.391583
2450.64	0.420208
2452.03	0.00624943
2453.42	0.289653
2454.81	0.178416
2456.2	0.257853
2457.59	0.132034
2458.98	0.369862
2460.37	0.385582
2461.76	0.463603
2463.15	0.0980854
2464.54	-0.0940475
2465.93	-0.0178976
2467.32	0.452712
2468.7	-0.54455
2470.09	0.493355
2471.48	0.363256
2472.87	0.138
2474.25	0.022356
2475.64	0.472429
2477.03	0.371226
2478.41	0.191593
2479.8	0.0438223
2481.18	0.413925
2482.57	0.376022
2483.95	0.290689
2485.34	0.0324583
2486.72	0.25779
2488.11	-0.42374
2489.49	-0.0602293
2490.88	0.146499
2492.26	0.244474
2493.65	0.0173664
2495.03	-0.0215816
2496.41	0.157968
2497.79	0.276299
2499.18	0.472208
2500.56	0.327191
2501.94	0.366961
2503.32	0.374641
2504.7	0.0573177
2506.09	-0.0135164
2507.47	-0.115264
2508.85	0.152327
2510.23	0.0205259
2511.61	0.64151
2512.99	0.0512991
2514.37	0.106385
2515.75	0.0399475
2517.13	0.418112
2518.51	0.597758
2519.89	0.105085
2521.26	-0.341529
2522.64	-0.101465
2524.02	0.21362
2525.4	-0.00602055
2526.78	-0.195161
2528.15	-0.124887
2529.53	0.250625
2530.91	0.0499983
2532.28	-0.0269861
2533.66	0.0191793
2535.04	0.202932
2536.41	0.128402
2537.79	0.129107
2539.16	-0.0535135
2540.54	0.157783
2541.91	0.216738
2543.29	-0.0426607
2544.66	-0.0734262
2546.04	-0.390982
2547.41	-0.00940514
2548.78	-0.324636
2550.16	0.118874
2551.53	-0.060215
2552.9	-0.0278664
2554.27	0.59514
2555.65	-0.0423841
2557.02	0.442173
2558.39	0.0923214
2559.76	0.046155
2561.13	0.288607
2562.51	-0.074441
2563.88	0.139106
2565.25	0.0652447
2566.62	0.0674601
2567.99	0.160732
2569.36	-0.0945425
2570.73	-0.289203
2572.1	-0.120038
2573.47	0.246318
2574.84	-0.0693321
2576.2	0.433722
2577.57	0.390951
2578.94	0.120488
2580.31	0.0922394
2581.68	-0.0425997
2583.05	0.140561
2584.41	-0.161691
2585.78	-0.433607
2587.15	-0.280936
2588.51	0.493313
2589.88	0.0855598
2591.24	0.314198
2592.61	-0.185003
2593.98	0.239153
2595.34	-0.110406
2596.71	0.144621
2598.07	0.0202751
2599.44	0.12243
2600.8	-0.0625134
2602.16	-0.322183
2603.53	-0.0826912
2604.89	0.157274
2606.26	-0.206054
2607.62	0.199583
2608.98	-0.149649
2610.34	-0.108202
2611.71	-0.0983887
2613.07	-0.0297546
2614.43	0.112984
2615.79	0.120073
2617.15	-0.157401
2618.52	0.240294
2619.88	-0.46912
2621.24	-0.174742
2622.6	-0.104303
2623.96	-0.645902
2625.32	0.141306
2626.68	0.196479
2628.04	-0.00211239
2629.4	0.156624
2630.75	0.0470819
2632.11	0.160597
2633.47	0.244191
2634.83	-0.54806
2636.19	-0.00430965
2637.55	0.0347433
2638.9	-0.13348
2640.26	0.113017
2641.62	0.0637722
2642.98	0.14791
2644.33	0.0992908
2645.69	0.34574
2647.04	0.0606928
2648.4	0.202494
2649.76	0.254825
2651.11	0.15925
2652.47	-0.11272
2653.82	-0.0757828
2655.18	0.430982
2656.53	-0.321378
2657.88	0.0849485
2659.24	0.0383692
2660.59	0.0508366
2661.95	0.223931
2663.3	0.279338
2664.65	-0.0457525
2666	-0.0503407
2667.36	0.0174131
2668.71	-0.220834
2670.06	0.341882
2671.41	0.119241
2672.76	-0.0296869
2674.12	0.185349
2675.47	0.197641
2676.82	0.0365057
2678.17	0.137329
2679.52	0.0795679
2680.87	-0.237926
2682.22	-0.162586
2683.57	-0.0713882
2684.92	-0.124079
2686.27	-0.060153
2687.62	0.163367
2688.97	0.298588
2690.31	0.112526
2691.66	0.0550652
2693.01	0.300587
2694.36	-0.252789
2695.71	-0.240567
2697.05	0.0330648
2698.4	0.278983
2699.75	-0.298569
2701.09	-0.0922041
2702.44	0.188365
2703.78	0.325473
2705.13	-0.218026
2706.48	0.586947
2707.82	0.158971
2709.17	0.630221
2710.51	-0.118448
2711.86	-0.0544157
2713.2	0.343732
2714.54	0.102502
2715.89	0.29728
2717.23	0.201155
2718.57	0.35202
2719.92	0.327949
2721.26	0.361576
2722.6	0.380122
2723.95	0.296247
2725.29	0.109996
2726.63	0.0688934
2727.97	0.172996
2729.31	0.0730915
2730.65	0.220424
2732	0.265861
2733.34	0.209572
2734.68	-0.035573
2736.02	0.7086
2737.36	0.0857563
2738.7	0.321022
2740.04	0.177916
2741.38	0.150646
2742.72	0.369814
2744.05	0.384621
2745.39	0.703791
2746.73	0.267086
2748.07	0.483735
2749.41	0.366557
2750.75	0.061183
2752.08	0.379763
2753.42	0.524495
2754.76	0.292667
2756.09	0.263933
2757.43	0.0906258
2758.77	0.323047
2760.1	0.107158
2761.44	-0.223857
2762.78	-0.00439358
2764.11	0.0996647
2765.44	0.131393
2766.78	-0.141165
2768.11	0.207337
2769.45	0.163815
2770.78	0.0464478
2772.12	0.129876
2773.45	0.0677204
2774.78	-0.167948
2776.12	-0.0575457
2777.45	-0.018877
2778.78	0.293595
2780.12	0.103261
2781.45	0.243887
2782.78	0.140475
2784.11	-0.106259
2785.44	0.263611
2786.78	0.160553
2788.11	0.358809
2789.44	0.314539
2790.77	-0.0146856
2792.1	-0.485777
2793.43	-0.384313
2794.76	0.103066
2796.09	0.0897722
2797.42	-0.0098114
2798.75	-0.00998974
2800.08	-0.0534487
2801.4	0.145355
2802.73	0.129888
2804.06	0.0714121
2805.39	-0.0586815
2806.72	-0.0469341
2808.05	0.390802
2809.37	0.00309467
2810.7	0.198256
2812.03	0.209323
2813.35	-0.175471
2814.68	0.136393
2816.01	-0.0889263
2817.33	0.324886
2818.66	-0.0118303
2819.98	0.360171
2821.31	0.760011
2822.63	0.195365
2823.96	0.536964
2825.28	0.226429
2826.61	0.751599
2827.93	0.611705
2829.25	0.486673
2830.58	0.348056
2831.9	0.351267
2833.23	0.722455
2834.55	0.541245
2835.87	0.755781
2837.19	0.686651
2838.52	0.815092
2839.84	1.01394
2841.16	1.04313
2842.48	0.973837
2843.8	1.73916
2845.12	1.89753
2846.44	2.15559
2847.77	2.64026
2849.08	2.54552
2850.4	2.56349
2851.73	2.17097
2853.05	2.72477
2854.36	2.10509
2855.68	2.51676
2857	2.90002
2858.32	2.49225
2859.64	2.76247
2860.96	2.89119
2862.28	2.73713
2863.59	2.85085
2864.91	3.54271
2866.23	3.35955
2867.55	3.98066
2868.86	3.82654
2870.18	4.13823
2871.5	4.35138
2872.81	4.76142
2874.13	4.66308
2875.44	4.88737
2876.76	4.65949
2878.07	4.58553
2879.39	4.79252
2880.7	4.6342
2882.02	4.95475
2883.33	4.75676
2884.65	4.86904
2885.96	4.589
2887.28	4.84252
2888.59	4.71649
2889.9	4.89814
2891.21	5.14866
2892.53	5.01972
2893.84	5.21285
2895.15	5.21021
2896.46	4.63471
2897.78	5.18035
2899.09	5.20939
2900.4	5.2954
2901.71	5.31205
2903.02	5.55277
2904.33	6.04539
2905.64	5.29348
2906.95	6.16478
2908.26	6.50565
2909.57	6.56791
2910.88	6.35105
2912.19	6.94593
2913.5	7.13402
2914.81	7.13823
2916.12	7.91004
2917.43	7.23779
2918.73	7.59985
2920.04	7.59774
2921.35	8.14177
2922.66	8.05814
2923.96	8.20006
2925.27	8.44138
2926.58	9.04702
2927.88	8.88389
2929.19	8.95785
2930.5	9.59018
2931.8	9.21523
2933.11	9.42698
2934.41	9.26123
2935.72	9.22141
2937.02	8.88832
2938.33	8.90482
2939.63	9.21511
2940.94	9.05096
2942.24	8.76219
2943.54	7.99979
2944.85	7.93787
2946.15	7.91942
2947.45	7.48204
2948.76	7.15594
2950.06	7.19213
2951.36	7.07192
2952.66	6.51503
2953.97	6.75438
2955.27	6.86706
2956.57	6.28092
2957.87	6.57916
2959.17	6.58695
2960.47	6.19211
2961.77	6.50034
2963.07	6.19279
2964.37	5.79983
2965.67	5.03925
2966.97	5.55469
2968.27	5.80164
2969.57	5.34453
2970.87	5.22453
2972.17	5.02035
2973.47	5.01345
2974.77	4.75312
2976.07	4.92829
2977.36	4.42596
2978.66	4.20302
2979.96	4.45653
2981.26	4.08897
2982.55	4.14284
2983.85	3.64864
2985.15	3.32469
2986.44	3.56471
2987.74	3.21622
2989.03	2.99535
2990.33	3.2104
2991.63	3.46699
2992.92	2.3871
2994.21	2.58457
2995.51	2.56978
2996.8	2.35745
2998.1	2.69224
2999.39	2.21334
3000.69	2.02983
3001.98	1.77695
3003.27	1.65076
3004.57	1.65075
3005.86	2.01446
3007.15	1.29921
3008.44	1.39505
3009.74	1.34982
3011.03	1.4434
3012.32	1.13133
3013.61	1.26602
3014.9	0.968731
3016.19	0.825771
3017.48	1.24063
3018.78	1.23807
3020.07	0.665318
3021.36	0.954373
3022.65	0.825295
3023.94	1.04212
3025.23	0.508861
3026.51	0.308655
3027.8	0.745713
3029.09	1.21078
3030.38	0.958325
3031.67	0.859689
3032.96	0.762254
3034.24	1.06538
3035.53	0.912327
3036.82	0.799161
3038.11	0.697744
3039.39	0.704324
3040.68	0.708917
3041.97	0.753455
3043.25	0.893561
3044.54	0.815077
3045.83	0.57446
3047.11	0.828426
3048.4	0.374671
3049.68	0.305735
3050.97	0.634205
3052.25	0.635952
3053.54	0.883213
3054.82	0.993114
3056.11	0.897019
3057.39	0.922247
3058.67	0.919084
3059.96	1.22859
3061.24	1.0617
3062.52	0.787149
3063.81	0.623031
3065.09	0.977204
3066.37	0.775454
3067.65	0.561108
3068.94	0.537418
3070.22	0.744497
3071.5	0.678454
3072.78	0.66525
3074.06	0.799956
3075.34	0.552807
3076.62	0.536182
3077.9	0.451967
3079.18	0.409559
3080.46	0.151657
3081.74	-0.077487
3083.02	0.576376
3084.3	0.444098
3085.58	0.433838
3086.86	0.205727
3088.14	0.519548
3089.42	0.00445461
3090.69	-0.158389
3091.97	0.207575
3093.25	0.274956
3094.53	0.220407
3095.8	0.00330353
3097.08	0.369104
3098.36	-0.105809
3099.63	-0.174351
3100.91	0.25806
3102.19	0.378607
3103.46	-0.380818
3104.74	0.322309
3106.01	0.1326
3107.29	0.0655527
3108.56	0.0400658
3109.84	0.0426416
3111.11	0.00551414
3112.39	-0.179962
3113.66	0.379991
3114.94	0.235275
3116.21	0.1304
3117.48	-0.0570869
3118.76	0.160869
3120.03	-0.368582
3121.3	0.199113
3122.57	0.2776
3123.85	0.179435
3125.12	-0.0270109
3126.39	-0.111221
3127.66	-0.181452
3128.93	-0.00784016
3130.21	-0.158672
3131.48	0.487977
3132.75	0.187919
3134.02	0.184548
3135.29	0.0318203
3136.56	-0.175617
3137.83	-0.221855
3139.1	-0.160956
3140.37	0.168562
3141.64	-0.0944328
3142.91	-0.155397
3144.17	-0.0280561
3145.44	-0.155389
3146.71	-0.0273619
3147.98	0.221541
3149.25	-0.131978
