200.533	0.608376
202.348	0.666189
204.162	0.725792
205.976	0.665102
207.792	0.0697517
209.605	-0.0891705
211.418	-0.274694
213.23	0.11972
215.044	0.074667
216.856	-0.262659
218.667	0.175247
220.478	0.54071
222.289	-0.423264
224.102	-0.36953
225.912	0.772179
227.721	-0.30971
229.531	0.491589
231.34	-0.0366325
233.148	-0.420523
234.956	-0.176834
236.766	0.815964
238.574	0.462198
240.381	-0.152409
242.188	-0.59482
243.994	-0.0224476
245.801	0.187841
247.606	-0.232727
249.412	0.741787
251.217	0.0924759
253.024	0.0174408
254.828	0.204332
256.632	0.607002
258.436	0.191221
260.239	-0.317881
262.042	0.573523
263.845	0.624479
265.647	0.412043
267.449	0.272106
269.25	0.179411
271.052	0.157207
272.852	0.277246
274.653	-0.232449
276.453	1.01443
278.253	0.52191
280.052	0.772427
281.852	0.633463
283.65	0.346712
285.449	0.417988
287.247	0.247484
289.044	-0.16264
290.842	0.507061
292.639	0.00502968
294.436	0.60659
296.232	0.0863113
298.028	-0.0972424
299.821	0.26944
301.617	0.468147
303.412	-0.00359917
305.206	0.811243
307	-0.618616
308.794	-0.116673
310.588	0.40938
312.381	0.0557842
314.172	0.30043
315.964	0.286308
317.756	-0.367779
319.548	0.385883
321.34	0.641531
323.131	-0.12678
324.921	0.607918
326.71	-0.256319
328.5	0.406902
330.29	-0.197552
332.079	-0.0874023
333.868	0.545959
335.654	-0.571392
337.443	0.245262
339.231	-0.0427246
341.018	0.00134468
342.804	0.354517
344.591	0.0859623
346.377	-0.635422
348.163	-0.280804
349.947	0.193691
351.733	0.118929
353.518	-0.267178
355.303	0.370611
357.085	-0.162964
358.869	0.254684
360.653	-0.068615
362.435	-0.369455
364.218	0.208439
366.001	-0.35635
367.781	0.478643
369.563	0.267065
371.345	0.172644
373.124	0.644829
374.905	-0.0191364
376.686	0.215382
378.464	-0.115654
380.244	-0.0676041
382.022	0.264778
383.801	-0.388966
385.58	-0.0524349
387.357	0.285833
389.135	0.109007
390.911	-0.160028
392.689	0.464766
394.466	-0.788191
396.241	-0.0444622
398.018	-0.00515175
399.792	0.409525
401.568	-0.398024
403.341	-0.126369
405.117	0.35523
406.889	-0.0100822
408.664	0.304434
410.436	-0.203388
412.21	0.11039
413.981	-0.0914707
415.755	-0.151302
417.525	0.165648
419.298	0.577608
421.068	0.309402
422.84	0.392708
424.609	0.099041
426.38	-0.384167
428.149	0.210966
429.919	0.570375
431.688	-0.0795956
433.455	-0.0248814
435.225	-0.0400066
436.992	0.202915
438.76	0.0689926
440.527	0.706734
442.293	0.589725
444.06	0.58597
445.826	0.250824
447.593	0.382086
449.357	-0.399672
451.122	0.548908
452.888	0.375965
454.651	-0.472725
456.415	0.194719
458.18	0.488192
459.942	0.455563
461.705	-0.668669
463.469	-0.440861
465.23	0.255665
466.991	-0.436995
468.752	0.199646
470.515	-0.0668449
472.275	0.272381
474.035	0.680414
475.797	-0.0324707
477.556	0.13559
479.315	-0.142242
481.073	0.696239
482.834	0.97592
484.592	0.163143
486.349	0.238901
488.106	-0.287481
489.863	-0.11116
491.622	0.347443
493.378	0.107023
495.134	1.15284
496.889	0.491526
498.645	0.156485
500.401	-0.0627289
502.156	0.749229
503.91	0.292393
505.664	0.373407
507.417	0.475502
509.171	0.504276
510.923	0.600697
512.678	0.200047
514.43	1.06727
516.182	0.849524
517.933	0.676668
519.684	0.972216
521.435	0.843157
523.186	-0.108574
524.936	-0.0269737
526.686	0.453279
528.435	0.511044
530.184	-0.157919
531.933	0.414387
533.682	0.610014
535.43	-0.038826
537.18	0.502625
538.927	0.643606
540.674	1.1552
542.421	0.592703
544.167	0.682217
545.913	0.353235
547.659	0.466307
549.403	0.18553
551.148	0.83194
552.893	0.0894985
554.637	0.41184
556.381	0.295465
558.125	0.410635
559.868	0.89513
561.611	0.113832
563.354	0.323895
565.097	0.189974
566.839	0.608707
568.581	1.14326
570.322	0.899172
572.063	0.887331
573.802	0.282276
575.542	0.50639
577.283	0.412462
579.022	0.343897
580.762	0.598238
582.501	0.117668
584.24	0.693186
585.976	0.87628
587.714	0.458986
589.452	0.79854
591.19	0.193085
592.927	0.829094
594.663	0.659569
596.398	0.214083
598.134	0.297695
599.87	1.0248
601.605	0.254972
603.338	0.242014
605.073	0.939005
606.808	0.713818
608.542	0.441448
610.274	0.421665
612.007	0.448685
613.74	0.545969
615.473	1.10282
617.204	0.0787964
618.936	0.291225
620.668	1.0279
622.397	1.07512
624.128	0.549166
625.859	0.777824
627.588	0.186447
629.318	0.0557175
631.048	-0.253141
632.775	0.286034
634.505	0.553385
636.233	1.0941
637.96	0.604298
639.688	-0.0958519
641.416	0.59046
643.142	1.13455
644.869	1.10614
646.594	1.28323
648.32	1.30466
650.045	0.83243
651.771	0.867609
653.496	0.364714
655.219	0.367887
656.944	0.876249
658.667	-0.276644
660.391	0.712219
662.113	0.306782
663.837	0.8106
665.558	0.898836
667.281	0.457565
669.002	0.586597
670.724	-0.403774
672.444	0.85153
674.166	0.738739
675.885	0.790224
677.606	1.55545
679.325	1.15107
681.045	1.59463
682.763	0.700977
684.483	0.907145
686.2	0.741283
687.917	0.595436
689.636	0.931271
691.352	0.436514
693.07	1.25355
694.786	1.28594
696.501	1.2243
698.219	0.538857
699.933	1.04813
701.65	1.50869
703.364	1.39234
705.078	0.930286
706.793	1.13341
708.506	1.12908
710.219	1.67391
711.934	1.39294
713.646	1.08904
715.358	1.15092
717.071	1.23541
718.782	1.36558
720.493	1.54143
722.204	1.76282
723.916	0.596048
725.626	0.249426
727.336	1.15203
729.045	1.46224
730.756	0.410812
732.464	2.0331
734.173	1.3215
735.881	1.87712
737.59	1.16789
739.297	0.799692
741.004	1.13269
742.711	1.53505
744.417	1.51174
746.125	1.69366
747.831	1.13577
749.537	1.52532
751.242	1.91725
752.946	2.44668
754.651	1.13416
756.357	1.78168
758.061	2.1625
759.764	1.89318
761.467	1.51289
763.17	1.62942
764.872	2.85204
766.575	1.90493
768.276	2.82955
769.978	2.1451
771.679	2.90382
773.382	1.94122
775.083	2.28937
776.783	2.25419
778.483	2.89986
780.182	2.59883
781.882	2.2545
783.581	2.90597
785.279	2.17469
786.978	2.9554
788.676	2.50764
790.373	2.95866
792.071	2.92919
793.768	2.98698
795.464	2.70582
797.161	2.78757
798.857	2.87243
800.552	2.75814
802.248	2.46671
803.941	2.98639
805.636	3.30297
807.33	2.78625
809.024	2.17796
810.718	2.82486
812.412	1.98911
814.105	3.46128
815.798	3.49782
817.49	3.01977
819.183	3.43657
820.873	2.95987
822.564	3.04245
824.256	3.86226
825.947	3.5475
827.637	2.70282
829.328	2.95518
831.016	2.56758
832.705	2.83135
834.395	2.69816
836.084	2.18751
837.772	3.2158
839.459	3.30501
841.147	2.74336
842.835	2.9608
844.522	3.06568
846.209	2.76967
847.894	2.81239
849.581	3.03893
851.267	2.48696
852.953	2.45321
854.637	3.13918
856.322	2.45597
858.007	2.84844
859.689	2.5407
861.374	2.3866
863.058	2.9501
864.739	2.47483
866.423	2.62867
868.106	2.53328
869.787	2.43696
871.469	2.5881
873.151	2.64864
874.831	2.19009
876.512	1.82166
878.193	1.74658
879.872	2.37102
881.553	3.06256
883.231	3.05286
884.911	2.36369
886.591	2.43928
888.268	1.88003
889.947	1.65641
891.623	1.8584
893.302	2.50789
894.978	1.82654
896.656	1.70625
898.331	2.41513
900.008	2.26822
901.683	2.27691
903.359	1.81454
905.033	2.40331
906.709	1.85275
908.383	2.04044
910.058	2.34069
911.731	1.66331
913.405	1.25523
915.078	2.20295
916.752	0.975088
918.423	1.6996
920.096	1.49304
921.768	1.50917
923.438	1.92532
925.111	2.52074
926.781	1.72823
928.452	1.40307
930.122	1.3011
931.791	1.90644
933.462	0.923756
935.13	2.91938
936.799	1.98212
938.468	1.64215
940.136	1.94414
941.803	1.71913
943.472	0.678926
945.139	1.07252
946.805	1.30953
948.473	1.74167
950.139	1.5962
951.804	1.33817
953.471	1.16869
955.136	1.17874
956.801	1.26024
958.465	1.48032
960.131	0.911324
961.794	1.49304
963.458	1.0584
965.12	0.288147
966.785	1.06099
968.447	0.965878
970.109	1.57475
971.771	1.47399
973.432	1.68382
975.095	1.05615
976.756	0.409788
978.417	1.15962
980.077	0.915281
981.737	0.669973
983.396	0.798319
985.057	0.900808
986.716	1.57473
988.375	1.2934
990.033	1.38581
991.691	0.659187
993.349	1.32453
995.006	0.22337
996.663	0.623827
998.32	0.494587
999.976	1.2244
1001.63	1.66621
1003.29	1.0503
1004.95	0.984356
1006.6	1.18196
1008.26	0.457243
1009.91	0.941032
1011.56	-0.307394
1013.22	0.594297
1014.87	1.05758
1016.53	0.820616
1018.18	0.978708
1019.83	0.613325
1021.48	0.0315666
1023.14	1.06966
1024.79	1.36613
1026.44	1.16103
1028.09	1.52405
1029.74	1.47059
1031.39	1.41468
1033.04	1.13732
1034.69	1.18423
1036.34	0.378141
1037.99	0.72628
1039.64	0.986652
1041.29	0.138678
1042.94	0.663725
1044.58	0.778748
1046.23	0.441317
1047.88	1.17174
1049.52	0.363329
1051.17	0.0784435
1052.82	-0.03125
1054.46	0.0986958
1056.11	1.31542
1057.75	0.292927
1059.4	0.812845
1061.04	0.113935
1062.69	0.54418
1064.33	0.950872
1065.98	0.224947
1067.62	0.301397
1069.26	0.680084
1070.9	0.44919
1072.55	0.739195
1074.19	0.704454
1075.83	-0.347713
1077.47	0.294657
1079.11	1.37288
1080.76	0.370762
1082.4	0.192595
1084.04	0.858299
1085.68	0.696844
1087.32	0.46653
1088.95	0.232445
1090.59	-0.329163
1092.23	0.46979
1093.87	0.510448
1095.51	-0.138966
1097.15	0.831039
1098.78	0.359001
1100.42	0.299976
1102.06	0.244686
1103.69	0.988758
1105.33	1.30491
1106.97	0.740263
1108.6	0.304111
1110.24	0.704454
1111.87	0.198776
1113.51	0.785957
1115.14	0.425451
1116.77	0.407536
1118.41	0.196932
1120.04	0.330715
1121.67	1.02296
1123.31	0.732143
1124.94	-0.134186
1126.57	0.327785
1128.2	0.106722
1129.83	-0.0273781
1131.47	0.609262
1133.1	0.134729
1134.72	-0.361399
1136.36	0.594666
1137.98	-0.118357
1139.62	0.277414
1141.24	0.201235
1142.87	0.721611
1144.5	0.00477791
1146.13	0.355856
1147.76	1.0708
1149.38	0.0613441
1151.01	0.331285
1152.64	0.175165
1154.27	0.508081
1155.89	0.095108
1157.52	-1.06246
1159.14	0.0784321
1160.77	0.476154
1162.39	0.0892429
1164.02	0.257114
1165.64	0.872433
1167.27	0.168936
1168.89	-0.281488
1170.51	-0.628725
1172.14	-0.087141
1173.76	-0.0166187
1175.38	0.36965
1177	0.351563
1178.63	-0.365057
1180.25	-0.571312
1181.87	0.324375
1183.49	-0.111626
1185.11	0.74172
1186.73	0.0928802
1188.35	-0.0940628
1189.97	0.474251
1191.59	0.6586
1193.21	-0.442942
1194.83	0.766281
1196.45	0.00154114
1198.07	-0.173023
1199.68	0.409082
1201.3	0.618572
1202.92	0.45723
1204.53	0.405539
1206.15	0.0242271
1207.77	1.10588
1209.38	0.143532
1211	0.639721
1212.62	-0.139563
1214.23	0.140253
1215.84	0.72764
1217.46	0.374393
1219.07	0.310787
1220.69	0.330147
1222.3	0.309366
1223.91	0.829788
1225.53	0.896912
1227.14	1.50499
1228.75	0.646824
1230.36	0.949677
1231.97	1.5028
1233.59	1.47951
1235.2	1.10742
1236.81	1.68853
1238.42	1.23821
1240.03	0.685619
1241.64	0.939779
1243.25	0.365824
1244.85	0.969568
1246.46	0.992006
1248.07	0.971046
1249.68	0.638258
1251.29	0.987644
1252.9	1.70974
1254.5	1.52313
1256.11	0.759581
1257.72	0.536188
1259.32	1.78417
1260.93	1.27519
1262.54	1.36731
1264.14	0.361574
1265.75	1.03287
1267.35	1.37146
1268.96	1.58391
1270.56	1.06859
1272.16	1.04875
1273.77	1.40003
1275.37	1.54192
1276.97	1.6404
1278.57	1.71644
1280.18	1.27352
1281.78	1.03736
1283.38	1.91874
1284.98	0.670618
1286.58	1.49238
1288.18	1.01372
1289.78	1.9836
1291.38	1.21855
1292.99	0.370787
1294.58	1.11244
1296.18	1.60334
1297.78	1.6984
1299.38	1.97565
1300.98	1.30112
1302.58	1.67564
1304.17	1.80064
1305.77	1.49218
1307.37	1.22441
1308.97	1.42843
1310.56	1.52957
1312.16	1.07859
1313.76	1.16173
1315.35	1.6758
1316.95	2.12965
1318.54	1.09467
1320.14	1.54908
1321.73	1.288
1323.32	1.41089
1324.92	1.38776
1326.51	1.88964
1328.1	1.27419
1329.7	1.77502
1331.29	1.30726
1332.88	1.69351
1334.47	1.37706
1336.07	1.56868
1337.66	1.68047
1339.25	1.68991
1340.84	0.99099
1342.43	2.05972
1344.02	0.911242
1345.61	1.36932
1347.2	0.884327
1348.79	0.604111
1350.37	1.08969
1351.96	1.23964
1353.55	0.653814
1355.14	1.80976
1356.73	1.78688
1358.31	1.06393
1359.9	1.33798
1361.49	1.03084
1363.07	1.44047
1364.66	0.732582
1366.25	0.862827
1367.83	1.15387
1369.42	0.989294
1371	0.449545
1372.59	0.947411
1374.17	1.30814
1375.75	1.03346
1377.34	0.142067
1378.92	0.145098
1380.5	0.643572
1382.09	1.31834
1383.67	1.01569
1385.25	1.46661
1386.83	0.843424
1388.42	0.459463
1390	0.712337
1391.58	1.08587
1393.16	-0.00720787
1394.74	0.824762
1396.32	0.28779
1397.9	0.800297
1399.48	-0.0765629
1401.06	1.04581
1402.64	0.800104
1404.21	0.792042
1405.79	0.60709
1407.37	0.91814
1408.95	0.262526
1410.53	1.4255
1412.1	1.16594
1413.68	0.70793
1415.26	0.958773
1416.83	0.556938
1418.41	1.17968
1419.98	0.994833
1421.56	0.654844
1423.13	0.456024
1424.71	0.713203
1426.28	0.854733
1427.86	0.0918941
1429.43	1.63137
1431	0.787411
1432.58	0.905615
1434.15	1.63173
1435.72	1.21591
1437.29	1.05638
1438.87	1.50777
1440.44	1.33213
1442.01	1.35499
1443.58	2.26365
1445.15	1.42397
1446.72	2.51081
1448.29	2.18283
1449.86	1.8161
1451.43	1.64687
1453	1.81299
1454.57	1.56686
1456.14	1.47791
1457.71	0.836578
1459.27	2.04257
1460.84	1.69032
1462.41	1.3344
1463.98	1.36875
1465.54	1.61711
1467.11	1.13771
1468.67	1.15043
1470.24	0.281876
1471.81	0.90711
1473.37	0.9065
1474.94	0.417217
1476.5	0.987654
1478.07	0.832808
1479.63	0.560266
1481.19	-0.417971
1482.76	0.720348
1484.32	0.173006
1485.88	0.526276
1487.45	0.525293
1489.01	0.717415
1490.57	0.259932
1492.13	0.404787
1493.69	0.388828
1495.26	-0.0403271
1496.82	-0.0224094
1498.38	0.578814
1499.94	0.1691
1501.5	-0.819849
1503.06	-0.291855
1504.62	-1.13876
1506.17	-0.0092659
1507.73	-0.0627728
1509.29	0.905603
1510.85	-0.0214691
1512.41	0.34314
1513.97	0.552101
1515.52	0.222773
1517.08	0.0490532
1518.64	-0.448662
1520.19	0.607378
1521.75	0.188261
1523.31	0.151596
1524.86	0.037075
1526.42	0.283041
1527.97	-0.082737
1529.52	-0.0873241
1531.08	0.648512
1532.63	0.245823
1534.19	0.111088
1535.74	0.829897
1537.29	-0.113537
1538.85	0.626118
1540.4	-0.0490742
1541.95	0.765356
1543.5	0.524158
1545.06	0.809439
1546.61	0.755627
1548.16	0.288857
1549.71	0.272808
1551.26	0.612923
1552.81	0.523235
1554.36	0.603859
1555.91	0.0522251
1557.46	0.94203
1559.01	0.45433
1560.56	0.549021
1562.11	0.534983
1563.65	1.19479
1565.2	0.62442
1566.75	0.800539
1568.29	1.05089
1569.84	1.03921
1571.39	0.840082
1572.94	1.3124
1574.48	1.07511
1576.03	2.03262
1577.57	1.34783
1579.12	0.68251
1580.66	0.391766
1582.21	1.54056
1583.75	1.02901
1585.3	1.47175
1586.84	1.1306
1588.38	1.61245
1589.93	0.821808
1591.47	1.78927
1593.01	1.18353
1594.55	0.932741
1596.1	1.28149
1597.64	1.29396
1599.18	0.782816
1600.72	1.13555
1602.26	0.9828
1603.8	0.566921
1605.34	1.95286
1606.88	1.53282
1608.42	0.883022
1609.96	0.99917
1611.5	0.979134
1613.04	1.0491
1614.58	0.741083
1616.12	0.451433
1617.65	1.1003
1619.19	1.07643
1620.73	1.39272
1622.27	1.26225
1623.8	0.684172
1625.34	0.592949
1626.87	0.780935
1628.41	1.43395
1629.95	0.587643
1631.48	1.75857
1633.02	1.20903
1634.55	0.810144
1636.09	1.36484
1637.62	1.84633
1639.15	1.6203
1640.69	0.947189
1642.22	1.55872
1643.76	1.60885
1645.29	1.19126
1646.82	1.73933
1648.35	1.72859
1649.88	1.40307
1651.42	2.30473
1652.95	1.89121
1654.48	2.07365
1656.01	1.77538
1657.54	1.94032
1659.07	1.64048
1660.6	1.19015
1662.13	1.75488
1663.66	2.02075
1665.19	1.69402
1666.72	1.38706
1668.24	1.80206
1669.77	1.96162
1671.3	0.85284
1672.83	1.53369
1674.35	0.44725
1675.88	1.09142
1677.41	1.4391
1678.93	1.37957
1680.46	1.3915
1681.99	1.69585
1683.51	1.54013
1685.04	1.23797
1686.56	1.0103
1688.09	0.618885
1689.61	0.888138
1691.13	1.01115
1692.66	0.402197
1694.18	-0.316017
1695.71	0.227571
1697.23	0.879705
1698.75	0.142588
1700.27	0.281464
1701.8	0.674419
1703.32	0.810528
1704.84	0.690338
1706.36	0.733175
1707.88	-0.00630188
1709.4	0.908123
1710.92	-0.356461
1712.44	0.321543
1713.96	0.201624
1715.48	0.425966
1717	-0.344999
1718.52	0.0416679
1720.04	-0.0238819
1721.56	-0.323484
1723.07	0.640497
1724.59	-0.52071
1726.11	-0.0933361
1727.63	0.0483284
1729.14	0.101887
1730.66	0.286627
1732.18	0.75559
1733.69	-0.103012
1735.21	0.560568
1736.72	0.00983047
1738.24	-0.892832
1739.75	-0.151659
1741.27	-0.112202
1742.78	0.0655346
1744.3	0.391178
1745.81	0.286169
1747.32	-0.303921
1748.84	-0.0760593
1750.35	0.124119
1751.86	0.414951
1753.37	0.230698
1754.89	0.0192318
1756.4	0.48233
1757.91	-0.176483
1759.42	0.410311
1760.93	0.452362
1762.44	-0.345373
1763.95	-0.47245
1765.46	0.533342
1766.97	0.387934
1768.48	0.0224876
1769.99	-0.0270748
1771.5	0.269348
1773.01	0.373753
1774.52	0.0971012
1776.03	0.246122
1777.53	0.253851
1779.04	0.0361729
1780.55	0.133308
1782.06	0.178452
1783.56	-0.129848
1785.07	-0.225107
1786.57	0.477436
1788.08	0.243975
1789.59	0.0155716
1791.09	0.447441
1792.6	-0.186447
1794.1	0.433371
1795.6	-0.0481968
1797.11	0.0637054
1798.61	0.342472
1800.12	0.383385
1801.62	0.308668
1803.12	0.613785
1804.63	0.431805
1806.13	0.295023
1807.63	0.0593281
1809.13	0.337206
1810.63	0.0883846
1812.14	-0.195339
1813.64	0.246059
1815.14	0.0244064
1816.64	0.807617
1818.14	0.342278
1819.64	0.513842
1821.14	0.424976
1822.64	0.131897
1824.14	0.59984
1825.63	0.43556
1827.13	0.432291
1828.63	0.550667
1830.13	0.772083
1831.63	0.46829
1833.12	0.565258
1834.62	0.67873
1836.12	0.356318
1837.62	0.789211
1839.11	0.739763
1840.61	0.762459
1842.1	1.23826
1843.6	0.691252
1845.09	0.681843
1846.59	0.713099
1848.08	0.54727
1849.58	0.702209
1851.07	0.778893
1852.57	1.15189
1854.06	0.847404
1855.55	0.446201
1857.04	0.756268
1858.54	0.685812
1860.03	-0.179705
1861.52	0.415899
1863.01	0.534052
1864.5	0.442419
1866	0.71895
1867.49	0.8335
1868.98	0.328541
1870.47	0.607431
1871.96	0.839012
1873.45	0.280895
1874.94	0.818525
1876.43	1.34877
1877.92	1.26113
1879.41	1.14876
1880.89	1.21256
1882.38	1.00663
1882.48	0.996275
1883.97	0.924706
1885.47	1.14774
1886.96	1.07255
1888.46	0.787397
1889.95	0.694292
1891.44	0.690313
1892.94	0.898401
1894.43	0.745291
1895.92	0.978081
1897.41	0.360647
1898.9	0.647346
1900.4	0.845041
1901.89	1.00447
1903.38	0.777372
1904.87	0.703741
1906.36	0.472061
1907.85	1.28244
1909.34	0.652668
1910.83	0.6327
1912.32	0.909597
1913.81	0.788731
1915.29	0.962934
1916.78	0.824308
1918.27	0.49394
1919.76	0.266762
1921.25	0.992159
1922.74	0.436583
1924.22	0.610241
1925.71	0.0938168
1927.2	0.341385
1928.68	0.954002
1930.17	0.926039
1931.65	0.86175
1933.14	0.44808
1934.63	0.238573
1936.11	0.752377
1937.59	0.865314
1939.08	0.786989
1940.56	0.657555
1942.05	0.599094
1943.53	1.14671
1945.01	0.85084
1946.5	0.745646
1947.98	0.347097
1949.46	0.188478
1950.94	0.0795898
1952.43	0.60556
1953.91	0.28702
1955.39	1.2403
1956.87	0.870844
1958.35	0.520464
1959.83	0.343565
1961.31	0.510941
1962.79	0.815756
1964.27	0.623087
1965.75	0.224037
1967.23	0.748205
1968.71	0.090107
1970.19	0.0982571
1971.67	0.720758
1973.14	-0.159807
1974.62	0.00150871
1976.1	0.844727
1977.58	1.21026
1979.05	0.0946522
1980.53	0.851589
1982.01	0.468231
1983.48	0.985081
1984.96	0.210438
1986.43	0.895044
1987.91	0.748131
1989.38	0.873024
1990.86	0.728397
1992.33	0.535198
1993.81	0.209082
1995.28	0.256739
1996.76	0.676966
1998.23	0.961771
1999.7	1.12729
2001.18	0.633242
2002.65	0.796387
2004.12	-0.00187111
2005.59	0.852629
2007.06	1.25317
2008.54	0.392591
2010.01	0.140326
2011.48	-0.0602474
2012.95	1.0522
2014.42	0.345974
2015.89	0.513306
2017.36	0.644995
2018.83	0.791626
2020.3	0.298437
2021.77	0.493954
2023.24	0.606007
2024.71	0.719587
2026.17	0.265263
2027.64	0.702999
2029.11	0.892273
2030.58	0.530849
2032.04	0.137732
2033.51	0.937292
2034.98	0.511496
2036.45	0.403814
2037.91	0.513391
2039.38	0.235636
2040.84	0.495523
2042.31	0.167803
2043.77	0.514181
2045.24	0.55982
2046.7	0.674444
2048.17	0.419271
2049.63	0.837336
2051.1	0.646692
2052.56	0.50329
2054.02	0.727108
2055.48	0.896601
2056.95	1.09677
2058.41	0.233421
2059.87	0.734741
2061.33	1.0176
2062.8	0.763336
2064.26	0.124218
2065.72	0.665318
2067.18	0.602329
2068.64	1.43263
2070.1	0.496342
2071.56	0.822592
2073.02	0.710857
2074.48	0.95216
2075.94	0.872826
2077.4	1.19687
2078.86	0.661221
2080.31	0.68034
2081.77	0.950838
2083.23	0.209858
2084.69	0.578365
2086.14	1.23105
2087.6	0.88982
2089.06	0.665644
2090.52	0.50843
2091.97	0.72057
2093.43	0.764496
2094.88	0.690447
2096.34	0.866871
2097.79	0.388458
2099.25	0.712755
2100.7	1.15291
2102.16	0.473215
2103.61	1.19887
2105.07	1.04178
2106.52	0.604181
2107.97	1.03638
2109.43	1.08561
2110.88	1.20041
2112.33	1.11239
2113.78	1.27066
2115.24	1.17565
2116.69	0.979084
2118.14	1.03261
2119.59	1.63651
2121.04	0.535015
2122.49	0.997356
2123.94	1.29674
2125.39	1.06688
2126.84	1.48318
2128.29	1.33367
2129.74	1.01563
2131.19	1.00984
2132.64	1.41617
2134.09	1.80534
2135.54	1.61701
2136.98	1.67983
2138.43	1.61431
2139.88	1.43712
2141.33	1.7923
2142.77	1.58799
2144.22	1.64962
2145.67	2.04263
2147.11	1.73995
2148.56	1.2701
2150.01	1.9247
2151.45	2.03068
2152.9	2.23396
2154.34	1.0437
2155.79	2.10573
2157.23	1.87557
2158.67	2.12726
2160.12	1.68596
2161.56	1.51322
2163	2.45492
2164.45	1.82499
2165.89	2.09249
2167.33	1.4631
2168.78	1.81161
2170.22	2.09027
2171.66	1.99872
2173.1	1.91966
2174.54	1.37192
2175.98	2.17015
2177.42	1.97082
2178.86	1.80634
2180.3	2.70794
2181.74	1.78255
2183.18	1.80605
2184.62	1.36444
2186.06	1.95424
2187.5	2.21153
2188.94	2.33586
2190.38	2.07735
2191.82	2.06791
2193.25	2.02364
2194.69	1.44384
2196.13	1.8925
2197.57	1.87081
2199	1.28015
2200.44	2.18347
2201.88	1.5244
2203.31	1.71373
2204.75	1.59002
2206.18	1.75035
2207.62	1.66319
2209.05	1.31082
2210.49	1.55305
2211.92	1.37937
2213.36	1.36962
2214.79	1.06226
2216.22	1.41674
2217.66	1.36068
2219.09	1.22478
2220.52	1.63483
2221.96	1.33626
2223.39	1.08589
2224.82	0.898794
2226.25	1.13628
2227.68	1.04111
2229.11	0.861309
2230.55	0.72946
2231.98	0.957935
2233.41	1.00636
2234.84	1.10527
2236.27	0.846958
2237.7	1.19632
2239.12	0.733332
2240.55	1.09038
2241.98	1.02699
2243.41	1.01515
2244.84	0.955172
2246.27	1.08963
2247.7	0.845758
2249.12	0.581326
2250.55	1.07834
2251.98	0.577967
2253.41	0.613359
2254.83	0.730431
2256.26	0.850183
2257.68	0.747404
2259.11	0.715397
2260.54	0.851624
2261.96	1.18777
2263.39	0.748056
2264.81	0.942352
2266.24	0.794695
2267.66	0.384972
2269.08	1.06341
2270.51	1.49642
2271.93	0.023468
2273.35	0.340965
2274.78	0.675037
2276.2	1.12374
2277.62	0.366978
2279.04	0.702217
2280.47	0.988596
2281.89	0.964964
2283.31	0.712713
2284.73	0.737823
2286.15	0.649124
2287.57	0.626425
2288.99	0.588268
2290.41	0.91041
2291.83	0.808369
2293.25	0.59202
2294.67	0.457254
2296.09	0.240358
2297.51	0.760048
2298.93	0.412008
2300.35	0.326265
2301.76	0.700136
2303.18	0.861706
2304.6	0.465672
2306.02	0.233313
2307.44	0.476543
2308.85	0.653137
2310.27	0.927324
2311.69	0.0165195
2313.1	0.503633
2314.52	0.596828
2315.93	0.444574
2317.35	1.01867
2318.76	0.0942745
2320.18	0.834261
2321.59	0.500212
2323.01	0.83882
2324.42	0.743589
2325.83	0.528225
2327.25	1.08459
2328.66	0.600405
2330.07	0.693596
2331.49	-0.413376
2332.9	0.622259
2334.31	0.211107
2335.72	0.327114
2337.13	-0.0511875
2338.55	0.193575
2339.96	-0.0242767
2341.37	0.429506
2342.78	0.389309
2344.19	0.0210743
2345.6	-0.149479
2347.01	0.417824
2348.42	0.444332
2349.83	0.535484
2351.24	0.575901
2352.65	0.0425987
2354.05	0.161037
2355.46	0.522333
2356.87	0.263407
2358.28	0.281481
2359.69	0.185997
2361.09	0.399307
2362.5	-0.133673
2363.91	0.41943
2365.31	0.129921
2366.72	0.293926
2368.13	0.265041
2369.53	0.173771
2370.94	0.359327
2372.34	0.19294
2373.75	0.189827
2375.15	-0.0217094
2376.56	0.490261
2377.96	0.356352
2379.37	0.412312
2380.77	-0.145233
2382.17	0.754744
2383.58	0.161242
2384.98	1.02431
2386.38	0.42421
2387.79	-0.172722
2389.19	0.0231838
2390.59	0.42837
2391.99	0.134865
2393.39	0.25749
2394.8	0.238558
2396.2	0.125708
2397.6	0.332094
2399	0.126432
2400.4	0.620872
2401.8	-0.0278091
2403.2	0.0543594
2404.6	0.0087719
2406	-0.21307
2407.4	0.420246
2408.79	-0.0587902
2410.19	0.28624
2411.59	-0.303427
2412.99	0.629347
2414.39	0.392504
2415.78	0.111259
2417.18	0.576822
2418.58	0.347708
2419.98	-0.339966
2421.37	0.207436
2422.77	0.627592
2424.16	0.1917
2425.56	0.13612
2426.96	-0.0294018
2428.35	0.551828
2429.74	0.453444
2431.14	0.435787
2432.53	0.100971
2433.93	0.130138
2435.32	-0.192356
2436.72	0.308308
2438.11	0.138651
2439.5	0.268246
2440.9	0.602343
2442.29	0.379488
2443.68	0.203825
2445.07	-0.130659
2446.47	0.0739021
2447.86	0.325569
2449.25	-0.0566254
2450.64	0.321981
2452.03	-0.169163
2453.42	-0.278694
2454.81	0.0723171
2456.2	0.0924549
2457.59	-0.313801
2458.98	-0.277391
2460.37	-0.0048542
2461.76	-0.0818214
2463.15	-0.191925
2464.54	0.423672
2465.93	-0.335806
2467.32	-0.273949
2468.7	0.434677
2470.09	-0.419056
2471.48	0.335011
2472.87	0.125937
2474.25	0.230461
2475.64	0.317804
2477.03	-0.177301
2478.41	-0.153448
2479.8	-0.333294
2481.18	0.538065
2482.57	0.373888
2483.95	0.47521
2485.34	0.355646
2486.72	0.390285
2488.11	0.157347
2489.49	-0.0609283
2490.88	0.063446
2492.26	0.530533
2493.65	-0.181406
2495.03	-0.346249
2496.41	-0.291325
2497.79	0.508728
2499.18	-0.16218
2500.56	0.203583
2501.94	-0.437317
2503.32	-0.245152
2504.7	-0.0551033
2506.09	0.0100536
2507.47	0.120754
2508.85	0.139215
2510.23	-0.0565033
2511.61	0.409193
2512.99	0.277802
2514.37	0.0565052
2515.75	-0.208618
2517.13	0.3542
2518.51	0.1378
2519.89	0.548552
2521.26	0.45439
2522.64	0.191156
2524.02	-0.332659
2525.4	0.0878506
2526.78	0.248272
2528.15	-0.0168133
2529.53	-0.0208569
2530.91	0.22142
2532.28	-0.0800838
2533.66	-0.287571
2535.04	-0.159313
2536.41	0.333544
2537.79	0.141493
2539.16	-0.189037
2540.54	0.0255795
2541.91	0.14827
2543.29	-0.0168591
2544.66	-0.0892105
2546.04	0.341427
2547.41	0.365005
2548.78	0.481388
2550.16	0.02145
2551.53	-0.211864
2552.9	0.205645
2554.27	0.681776
2555.65	0.24563
2557.02	0.187775
2558.39	0.387474
2559.76	0.860485
2561.13	0.212835
2562.51	0.35474
2563.88	0.164455
2565.25	-0.130981
2566.62	-0.0318832
2567.99	0.264456
2569.36	0.363859
2570.73	0.29657
2572.1	0.199081
2573.47	-0.00433731
2574.84	0.156277
2576.2	0.392826
2577.57	-0.143961
2578.94	0.274054
2580.31	0.115244
2581.68	0.00114632
2583.05	-0.204601
2584.41	-0.0620747
2585.78	-0.26829
2587.15	0.0865898
2588.51	0.18417
2589.88	-0.718187
2591.24	-0.135555
2592.61	0.0521755
2593.98	-0.110096
2595.34	-0.198503
2596.71	0.316648
2598.07	0.330486
2599.44	0.267967
2600.8	0.0244141
2602.16	0.114393
2603.53	-0.247221
2604.89	0.162189
2606.26	-0.0768738
2607.62	0.12097
2608.98	0.271843
2610.34	0.314775
2611.71	-0.231916
2613.07	0.0922184
2614.43	0.143848
2615.79	0.284899
2617.15	-0.0835438
2618.52	-0.255377
2619.88	0.487448
2621.24	0.378317
2622.6	0.00149345
2623.96	0.476854
2625.32	0.0263405
2626.68	0.112841
2628.04	0.139004
2629.4	0.402813
2630.75	0.561689
2632.11	-0.00832367
2633.47	0.0612717
2634.83	0.308853
2636.19	0.0369606
2637.55	0.269352
2638.9	-0.00190926
2640.26	-0.035677
2641.62	0.611202
2642.98	-0.234348
2644.33	-0.295885
2645.69	0.0704155
2647.04	-0.139456
2648.4	-0.644855
2649.76	0.718102
2651.11	0.28351
2652.47	0.0254459
2653.82	0.00309372
2655.18	0.48061
2656.53	-0.138939
2657.88	0.181431
2659.24	0.547134
2660.59	0.299248
2661.95	0.533682
2663.3	0.328566
2664.65	0.092968
2666	-0.522955
2667.36	-0.351804
2668.71	-0.137402
2670.06	0.280912
2671.41	0.176233
2672.76	-0.406526
2674.12	0.363197
2675.47	-0.144024
2676.82	0.394978
2678.17	0.166201
2679.52	-0.0317936
2680.87	-0.227687
2682.22	0.535633
2683.57	0.300913
2684.92	0.213085
2686.27	-0.00440598
2687.62	0.5035
2688.97	0.0512753
2690.31	0.365211
2691.66	0.414299
2693.01	0.300801
2694.36	0.142016
2695.71	0.21492
2697.05	0.158562
2698.4	-0.170401
2699.75	0.662324
2701.09	0.354544
2702.44	-0.0662699
2703.78	0.166765
2705.13	0.0676298
2706.48	0.186102
2707.82	0.507388
2709.17	0.247528
2710.51	0.364312
2711.86	0.175642
2713.2	-0.0133944
2714.54	0.0880547
2715.89	0.596611
2717.23	0.159865
2718.57	0.362523
2719.92	0.084446
2721.26	0.547644
2722.6	0.675312
2723.95	0.336321
2725.29	0.476836
2726.63	0.660316
2727.97	0.202807
2729.31	0.749073
2730.65	0.14546
2732	0.41489
2733.34	0.233482
2734.68	0.256123
2736.02	0.875498
2737.36	0.447966
2738.7	0.980314
2740.04	-0.101997
2741.38	0.138225
2742.72	0.769703
2744.05	0.425823
2745.39	0.618528
2746.73	0.563401
2748.07	0.261221
2749.41	0.206059
2750.75	0.194856
2752.08	0.648113
2753.42	0.811674
2754.76	0.00479698
2756.09	-0.00468731
2757.43	0.348154
2758.77	-0.0803833
2760.1	0.244612
2761.44	0.599372
2762.78	0.463048
2764.11	0.298442
2765.44	0.336439
2766.78	0.373637
2768.11	0.00412941
2769.45	0.528949
2770.78	0.22683
2772.12	0.153595
2773.45	0.453711
2774.78	0.478354
2776.12	0.488481
2777.45	0.283422
2778.78	0.338618
2780.12	0.509719
2781.45	0.394038
2782.78	0.077796
2784.11	0.708462
2785.44	0.549988
2786.78	0.435052
2788.11	0.392791
2789.44	0.781304
2790.77	-0.230379
2792.1	0.77612
2793.43	-0.146797
2794.76	0.602981
2796.09	0.565944
2797.42	0.356507
2798.75	-0.0108814
2800.08	0.220685
2801.4	0.0235939
2802.73	0.596309
2804.06	0.882954
2805.39	0.328155
2806.72	0.370731
2808.05	0.625423
2809.37	0.495206
2810.7	-0.103412
2812.03	0.378463
2813.35	0.37961
2814.68	0.681201
2816.01	0.545966
2817.33	0.923167
2818.66	0.607001
2819.98	1.01375
2821.31	0.640134
2822.63	0.605442
2823.96	0.527075
2825.28	0.193117
2826.61	0.680738
2827.93	0.57445
2829.25	0.285204
2830.58	0.506483
2831.9	0.855554
2833.23	0.949715
2834.55	0.930054
2835.87	0.75381
2837.19	0.78889
2838.52	0.653396
2839.84	1.12569
2841.16	1.31513
2842.48	1.27907
2843.8	1.35726
2845.12	1.93138
2846.44	1.91308
2847.77	2.02264
2849.08	2.37254
2850.4	2.3827
2851.73	1.869
2853.05	2.37198
2854.36	2.39367
2855.68	2.69757
2857	2.95895
2858.32	2.78247
2859.64	2.64837
2860.96	2.18925
2862.28	2.54852
2863.59	2.9493
2864.91	3.40584
2866.23	3.36832
2867.55	3.5569
2868.86	3.18217
2870.18	3.86562
2871.5	3.90077
2872.81	4.04815
2874.13	4.02506
2875.44	4.59165
2876.76	4.49405
2878.07	4.12767
2879.39	4.18302
2880.7	3.84524
2882.02	3.90257
2883.33	3.63862
2884.65	4.03642
2885.96	4.14027
2887.28	4.41263
2888.59	4.30522
2889.9	4.5612
2891.21	4.10034
2892.53	4.56379
2893.84	4.298
2895.15	3.78097
2896.46	4.45546
2897.78	4.80944
2899.09	4.56344
2900.4	4.48673
2901.71	4.01915
2903.02	4.97869
2904.33	5.211
2905.64	4.98217
2906.95	5.45359
2908.26	4.9472
2909.57	5.79923
2910.88	5.84085
2912.19	5.46252
2913.5	5.51675
2914.81	5.80661
2916.12	5.9815
2917.43	6.0976
2918.73	6.42172
2920.04	6.61935
2921.35	6.73403
2922.66	6.66897
2923.96	6.74601
2925.27	7.34214
2926.58	6.4576
2927.88	6.91503
2929.19	7.66541
2930.5	7.14258
2931.8	7.03829
2933.11	7.07329
2934.41	7.45756
2935.72	7.68815
2937.02	7.16429
2938.33	7.50711
2939.63	6.81626
2940.94	6.6572
2942.24	6.55534
2943.54	6.21776
2944.85	6.44139
2946.15	6.03771
2947.45	5.90051
2948.76	5.53881
2950.06	5.46898
2951.36	5.31217
2952.66	4.62006
2953.97	5.14378
2955.27	5.23263
2956.57	4.98679
2957.87	5.06606
2959.17	5.17766
2960.47	4.52337
2961.77	5.06308
2963.07	4.66492
2964.37	4.79872
2965.67	4.4386
2966.97	4.52501
2968.27	4.55292
2969.57	4.00288
2970.87	4.02891
2972.17	4.44923
2973.47	3.75852
2974.77	3.94005
2976.07	4.19095
2977.36	3.56666
2978.66	3.1647
2979.96	3.60448
2981.26	3.16918
2982.55	3.19727
2983.85	3.66153
2985.15	2.51089
2986.44	3.00723
2987.74	2.52218
2989.03	2.8678
2990.33	2.94681
2991.63	3.09517
2992.92	2.2578
2994.21	2.51435
2995.51	2.41747
2996.8	2.08053
2998.1	2.05206
2999.39	1.88358
3000.69	2.08053
3001.98	1.18489
3003.27	1.92984
3004.57	1.35759
3005.86	1.19121
3007.15	1.37373
3008.44	1.55446
3009.74	1.45359
3011.03	1.63079
3012.32	0.857345
3013.61	1.13119
3014.9	0.931162
3016.19	1.05283
3017.48	0.994469
3018.78	1.32652
3020.07	0.865474
3021.36	0.90438
3022.65	1.20545
3023.94	1.26817
3025.23	1.19051
3026.51	0.890745
3027.8	0.633635
3029.09	0.613712
3030.38	0.831077
3031.67	0.912512
3032.96	1.03699
3034.24	0.968576
3035.53	0.926677
3036.82	0.923676
3038.11	0.807058
3039.39	1.15498
3040.68	1.03163
3041.97	1.08509
3043.25	0.987213
3044.54	0.97294
3045.83	0.852004
3047.11	0.871534
3048.4	0.92231
3049.68	1.3861
3050.97	1.03362
3052.25	0.92812
3053.54	0.331283
3054.82	0.961044
3056.11	0.811026
3057.39	0.958808
3058.67	1.0502
3059.96	1.16792
3061.24	0.836789
3062.52	1.39151
3063.81	1.26821
3065.09	0.862034
3066.37	0.906823
3067.65	1.33389
3068.94	1.31282
3070.22	0.325359
3071.5	0.750524
3072.78	0.520436
3074.06	0.165601
3075.34	0.366201
3076.62	0.742212
3077.9	0.398822
3079.18	0.287951
3080.46	0.423637
3081.74	0.778805
3083.02	-0.152782
3084.3	0.435995
3085.58	0.427696
3086.86	0.459028
3088.14	0.705955
3089.42	0.666242
3090.69	0.313251
3091.97	0.407485
3093.25	0.610113
3094.53	0.54164
3095.8	0.405568
3097.08	0.581164
3098.36	0.512273
3099.63	0.158264
3100.91	0.291588
3102.19	0.532912
3103.46	0.151452
3104.74	0.285069
3106.01	0.175987
3107.29	0.135863
3108.56	0.219028
3109.84	0.127811
3111.11	0.593109
3112.39	0.328362
3113.66	0.307754
3114.94	0.124102
3116.21	0.115421
3117.48	0.376107
3118.76	0.431035
3120.03	0.293648
3121.3	0.818511
3122.57	-0.325468
3123.85	0.0885239
3125.12	0.0281363
3126.39	-0.451405
3127.66	0.138803
3128.93	0.0799341
3130.21	0.170059
3131.48	-0.0915146
3132.75	-0.218489
3134.02	0.234332
3135.29	0.38833
3136.56	0.216836
3137.83	0.232868
3139.1	0.220735
3140.37	0.328942
3141.64	-0.074482
3142.91	-0.033803
3144.17	0.127999
3145.44	-0.206189
3146.71	-0.163834
3147.98	-0.0404415
3149.25	0.177087
