200.533	0.520932
202.348	0.549437
204.162	0.578902
205.976	0.755005
207.792	0.493456
209.605	0.425776
211.418	0.308306
213.23	0.505042
215.044	0.967081
216.856	0.773289
218.667	1.01561
220.478	0.556214
222.289	0.00137711
224.102	0.293994
225.912	0.175847
227.721	0.854832
229.531	0.0114965
231.34	0.278413
233.148	0.785853
234.956	0.569677
236.766	-0.10319
238.574	-0.291976
240.381	0.292712
242.188	-0.277781
243.994	0.213742
245.801	0.102058
247.606	0.568059
249.412	0.500236
251.217	0.936217
253.024	-0.078969
254.828	0.400537
256.632	0.131653
258.436	0.176973
260.239	0.199611
262.042	-0.161512
263.845	-0.352624
265.647	-0.639379
267.449	0.0861149
269.25	0.377563
271.052	0.0895615
272.852	0.137823
274.653	0.160513
276.453	0.88057
278.253	0.176558
280.052	-0.119439
281.852	-0.104196
283.65	0.173718
285.449	-0.174951
287.247	-0.11574
289.044	0.374818
290.842	-0.117034
292.639	0.589783
294.436	0.388087
296.232	0.0444803
298.028	0.180033
299.821	-0.281465
301.617	0.236309
303.412	-0.0828228
305.206	0.360719
307	0.373522
308.794	0.219159
310.588	0.0177584
312.381	0.651131
314.172	0.976121
315.964	0.231339
317.756	0.393036
319.548	0.532368
321.34	0.935035
323.131	-0.211308
324.921	0.216241
326.71	0.524921
328.5	0.403628
330.29	0.20974
332.079	0.349301
333.868	0.846152
335.654	0.575267
337.443	0.900297
339.231	0.816382
341.018	0.180903
342.804	0.429541
344.591	0.391159
346.377	0.400998
348.163	0.196537
349.947	0.517758
351.733	0.361458
353.518	0.848883
355.303	0.213789
357.085	0.483908
358.869	0.228178
360.653	0.519328
362.435	0.404592
364.218	-0.162492
366.001	0.45845
367.781	0.935063
369.563	0.0820694
371.345	-0.154216
373.124	-0.0594625
374.905	-0.130727
376.686	0.411889
378.464	-0.0836897
380.244	0.341215
382.022	-0.0338163
383.801	0.486629
385.58	0.161373
387.357	0.377968
389.135	0.102139
390.911	0.132624
392.689	0.422152
394.466	0.0781336
396.241	0.391973
398.018	0.236186
399.792	0.103647
401.568	0.510891
403.341	0.70609
405.117	0.172457
406.889	0.507058
408.664	0.0192242
410.436	-0.234018
412.21	0.357704
413.981	0.12834
415.755	0.814741
417.525	0.281759
419.298	0.14822
421.068	-0.478052
422.84	0.374115
424.609	0.0754356
426.38	-0.29457
428.149	0.297144
429.919	0.13718
431.688	-0.140146
433.455	0.545078
435.225	0.573456
436.992	0.460962
438.76	0.11309
440.527	0.256661
442.293	0.210585
444.06	-0.11881
445.826	0.651483
447.593	0.202338
449.357	0.735634
451.122	0.0766029
452.888	-0.300904
454.651	-0.094511
456.415	-0.121544
458.18	0.340349
459.942	-0.0128393
461.705	0.100189
463.469	-0.389741
465.23	0.0987005
466.991	0.659381
468.752	-0.357707
470.515	0.184134
472.275	0.145346
474.035	0.478316
475.797	-0.214938
477.556	0.533784
479.315	0.512118
481.073	0.163438
482.834	-0.324757
484.592	0.329375
486.349	0.170142
488.106	0.548865
489.863	0.206938
491.622	0.215649
493.378	0.365165
495.134	0.257882
496.889	0.618504
498.645	0.253149
500.401	0.449555
502.156	0.293591
503.91	0.230494
505.664	0.424772
507.417	0.124115
509.171	0.315787
510.923	0.223696
512.678	0.436002
514.43	0.223345
516.182	0.291761
517.933	0.899892
519.684	0.425258
521.435	0.161795
523.186	1.00186
524.936	0.503018
526.686	0.591142
528.435	0.374402
530.184	0.0406113
531.933	0.385998
533.682	0.238671
535.43	0.417881
537.18	0.361764
538.927	0.397807
540.674	0.432651
542.421	-0.0224571
544.167	0.22107
545.913	0.347812
547.659	0.544048
549.403	0.438743
551.148	0.426494
552.893	0.0675087
554.637	0.518158
556.381	0.598839
558.125	0.310806
559.868	0.484563
561.611	0.497439
563.354	0.257862
565.097	0.0881605
566.839	-0.42525
568.581	0.233486
570.322	-0.346562
572.063	-0.122019
573.802	0.264536
575.542	-0.0354481
577.283	-0.0815706
579.022	-0.057642
580.762	0.265594
582.501	0.589252
584.24	0.108026
585.976	-0.259556
587.714	-0.352431
589.452	0.358839
591.19	-0.150071
592.927	0.214835
594.663	0.418549
596.398	0.0011301
598.134	0.112844
599.87	0.339244
601.605	-0.148289
603.338	-0.429815
605.073	0.0921459
606.808	-0.00794411
608.542	0.00616169
610.274	-0.347035
612.007	-0.17184
613.74	0.233186
615.473	-0.140701
617.204	0.264792
618.936	-0.246567
620.668	0.569147
622.397	0.0788546
624.128	-0.114411
625.859	0.218011
627.588	-0.156654
629.318	0.315222
631.048	0.0133257
632.775	0.808688
634.505	0.486939
636.233	0.393013
637.96	0.11478
639.688	0.290503
641.416	0.0755253
643.142	0.314382
644.869	0.0507765
646.594	0.220191
648.32	0.300228
650.045	0.26961
651.771	0.219945
653.496	0.401272
655.219	0.35852
656.944	0.112933
658.667	0.619947
660.391	0.557127
662.113	0.40127
663.837	0.28867
665.558	0.173661
667.281	0.628508
669.002	0.511047
670.724	0.94336
672.444	0.622681
674.166	0.922386
675.885	0.124434
677.606	0.335708
679.325	-0.0496607
681.045	0.896734
682.763	0.347449
684.483	0.578115
686.2	0.0932016
687.917	0.712138
689.636	0.685237
691.352	0.496382
693.07	0.468163
694.786	0.715611
696.501	0.662665
698.219	0.953873
699.933	0.553326
701.65	0.979952
703.364	1.1983
705.078	0.956307
706.793	0.64529
708.506	0.838841
710.219	0.962971
711.934	1.407
713.646	0.84359
715.358	0.943683
717.071	1.386
718.782	1.0977
720.493	0.764519
722.204	1.79832
723.916	1.30604
725.626	1.56465
727.336	0.982161
729.045	0.990276
730.756	0.748554
732.464	1.41283
734.173	1.30636
735.881	0.996774
737.59	1.32036
739.297	0.967297
741.004	1.38219
742.711	1.32466
744.417	0.998433
746.125	1.21398
747.831	1.22831
749.537	1.60386
751.242	1.84572
752.946	1.48163
754.651	1.43383
756.357	1.59007
758.061	1.23014
759.764	1.72741
761.467	1.23444
763.17	1.55356
764.872	1.78253
766.575	1.46836
768.276	0.835509
769.978	1.57947
771.679	1.16835
773.382	1.84127
775.083	0.817851
776.783	1.87521
778.483	1.91642
780.182	2.20801
781.882	1.89005
783.581	1.16465
785.279	1.77329
786.978	1.361
788.676	1.89624
790.373	1.34201
792.071	2.11932
793.768	1.17765
795.464	1.97441
797.161	1.21563
798.857	1.8334
800.552	1.41686
802.248	1.36207
803.941	1.75775
805.636	1.61342
807.33	1.78294
809.024	2.06338
810.718	1.84855
812.412	1.67794
814.105	1.41743
815.798	1.98536
817.49	2.03786
819.183	1.77748
820.873	1.80799
822.564	1.66034
824.256	2.71769
825.947	1.90347
827.637	1.67138
829.328	1.70941
831.016	1.63911
832.705	1.95035
834.395	2.08565
836.084	1.44143
837.772	1.37648
839.459	2.15883
841.147	1.4436
842.835	1.41927
844.522	1.64029
846.209	1.50448
847.894	2.1977
849.581	1.82021
851.267	1.37751
852.953	1.63075
854.637	2.1098
856.322	1.4665
858.007	1.78762
859.689	1.63504
861.374	1.68306
863.058	1.2564
864.739	1.32393
866.423	1.30042
868.106	0.983131
869.787	1.56742
871.469	1.81323
873.151	1.0211
874.831	1.62765
876.512	1.42195
878.193	1.01307
879.872	1.55204
881.553	0.961987
883.231	1.27418
884.911	1.44982
886.591	1.24032
888.268	1.09707
889.947	1.67398
891.623	1.4149
893.302	1.53764
894.978	1.7715
896.656	1.14961
898.331	0.685174
900.008	1.07317
901.683	1.99716
903.359	0.792644
905.033	0.77537
906.709	0.936901
908.383	1.25472
910.058	1.1273
911.731	1.31247
913.405	1.05346
915.078	0.928505
916.752	1.40271
918.423	0.74576
920.096	1.10859
921.768	1.07315
923.438	0.862072
925.111	0.940009
926.781	0.997574
928.452	1.32158
930.122	1.44803
931.791	0.582259
933.462	1.12883
935.13	1.32251
936.799	1.60481
938.468	0.785236
940.136	0.84904
941.803	0.516929
943.472	1.06798
945.139	1.33219
946.805	0.844788
948.473	0.642502
950.139	1.01225
951.804	1.13793
953.471	0.888698
955.136	0.398589
956.801	0.594733
958.465	0.705786
960.131	1.08448
961.794	0.82456
963.458	0.343037
965.12	-0.118592
966.785	0.94358
968.447	0.830718
970.109	0.959189
971.771	0.954081
973.432	1.30329
975.095	0.946273
976.756	0.39197
978.417	0.812218
980.077	1.12267
981.737	1.43286
983.396	0.457761
985.057	0.941743
986.716	1.24648
988.375	1.41646
990.033	1.01009
991.691	1.0897
993.349	1.03653
995.006	0.652407
996.663	0.798295
998.32	0.833735
999.976	1.04517
1001.63	1.7624
1003.29	1.33392
1004.95	1.08162
1006.6	1.15916
1008.26	0.490126
1009.91	1.31449
1011.56	0.296144
1013.22	0.945097
1014.87	0.761352
1016.53	0.753334
1018.18	0.877104
1019.83	0.804729
1021.48	0.602256
1023.14	1.45014
1024.79	0.965562
1026.44	0.96242
1028.09	0.303788
1029.74	1.04285
1031.39	0.557303
1033.04	0.900084
1034.69	0.782701
1036.34	1.03473
1037.99	0.915237
1039.64	0.404068
1041.29	0.85134
1042.94	1.19063
1044.58	0.727465
1046.23	0.396887
1047.88	0.98037
1049.52	0.370958
1051.17	0.935553
1052.82	0.0672798
1054.46	0.415843
1056.11	0.655875
1057.75	0.80876
1059.4	0.678547
1061.04	0.634638
1062.69	0.415989
1064.33	0.500863
1065.98	0.649906
1067.62	0.993399
1069.26	0.9229
1070.9	0.764951
1072.55	0.368245
1074.19	0.384601
1075.83	0.293488
1077.47	0.247063
1079.11	1.02584
1080.76	0.634324
1082.4	0.871622
1084.04	0.370789
1085.68	-0.109761
1087.32	0.296475
1088.95	0.873499
1090.59	-0.0448923
1092.23	0.16121
1093.87	0.496015
1095.51	1.13241
1097.15	0.690759
1098.78	0.811193
1100.42	0.373534
1102.06	0.0887871
1103.69	0.214622
1105.33	0.449184
1106.97	0.275575
1108.6	0.488773
1110.24	1.5393
1111.87	0.438295
1113.51	0.367775
1115.14	0.983063
1116.77	0.867576
1118.41	0.816677
1120.04	1.0022
1121.67	0.481946
1123.31	0.862139
1124.94	0.836514
1126.57	0.469568
1128.2	0.91616
1129.83	0.91431
1131.47	0.806139
1133.1	0.954802
1134.72	0.35514
1136.36	0.310663
1137.98	-0.439926
1139.62	0.688446
1141.24	0.469887
1142.87	0.52844
1144.5	0.331157
1146.13	0.11342
1147.76	0.621325
1149.38	0.149755
1151.01	-0.00163174
1152.64	0.336815
1154.27	0.312831
1155.89	0.543852
1157.52	0.0086956
1159.14	0.261184
1160.77	0.0890894
1162.39	0.747338
1164.02	-0.0392818
1165.64	0.492801
1167.27	0.429273
1168.89	0.300895
1170.51	0.234663
1172.14	0.442754
1173.76	0.58518
1175.38	0.0260983
1177	0.421295
1178.63	-0.348887
1180.25	-0.355305
1181.87	0.0410261
1183.49	-0.0910244
1185.11	0.115133
1186.73	0.214521
1188.35	0.502043
1189.97	-0.0559816
1191.59	0.353768
1193.21	0.487714
1194.83	0.368566
1196.45	0.103038
1198.07	0.63475
1199.68	0.330432
1201.3	0.63496
1202.92	0.816414
1204.53	0.562051
1206.15	0.24738
1207.77	0.580798
1209.38	0.893515
1211	0.725594
1212.62	0.430922
1214.23	0.759419
1215.84	0.73126
1217.46	0.451726
1219.07	0.649687
1220.69	1.30381
1222.3	1.08638
1223.91	0.974267
1225.53	1.19516
1227.14	1.06558
1228.75	0.606666
1230.36	0.728286
1231.97	0.768354
1233.59	1.03698
1235.2	1.43085
1236.81	0.565177
1238.42	1.33347
1240.03	0.862062
1241.64	1.23864
1243.25	1.03576
1244.85	1.10099
1246.46	1.64112
1248.07	1.3318
1249.68	1.84934
1251.29	1.51825
1252.9	1.49777
1254.5	1.27123
1256.11	0.735563
1257.72	1.69053
1259.32	1.15724
1260.93	1.26623
1262.54	1.76923
1264.14	2.04475
1265.75	1.73976
1267.35	1.74472
1268.96	2.01818
1270.56	1.58559
1272.16	1.5458
1273.77	1.13175
1275.37	1.52518
1276.97	1.71021
1278.57	2.01853
1280.18	1.68407
1281.78	1.97046
1283.38	1.53269
1284.98	1.44741
1286.58	2.00399
1288.18	1.71403
1289.78	1.67312
1291.38	1.73607
1292.99	2.35674
1294.58	1.79889
1296.18	1.79749
1297.78	2.00078
1299.38	1.43872
1300.98	1.84473
1302.58	2.10458
1304.17	1.97194
1305.77	2.06489
1307.37	1.86959
1308.97	2.02311
1310.56	2.34026
1312.16	1.94071
1313.76	1.64503
1315.35	2.31132
1316.95	2.03837
1318.54	1.41963
1320.14	1.80056
1321.73	1.67068
1323.32	1.74285
1324.92	1.97562
1326.51	2.0642
1328.1	2.07089
1329.7	1.61254
1331.29	2.14796
1332.88	1.99778
1334.47	1.72918
1336.07	2.75405
1337.66	2.36664
1339.25	1.99903
1340.84	1.9926
1342.43	1.92348
1344.02	1.55086
1345.61	1.29845
1347.2	1.62832
1348.79	1.75897
1350.37	1.25163
1351.96	1.94767
1353.55	1.34574
1355.14	1.76488
1356.73	1.56473
1358.31	1.02464
1359.9	1.02309
1361.49	1.41963
1363.07	0.917276
1364.66	1.01322
1366.25	1.34841
1367.83	0.967198
1369.42	1.00559
1371	1.125
1372.59	0.808024
1374.17	1.22842
1375.75	1.19184
1377.34	0.876753
1378.92	0.998914
1380.5	0.881261
1382.09	1.6177
1383.67	1.07967
1385.25	1.15723
1386.83	0.737601
1388.42	0.993694
1390	1.07161
1391.58	1.54724
1393.16	1.09107
1394.74	1.52799
1396.32	0.8541
1397.9	0.933108
1399.48	1.05068
1401.06	0.870103
1402.64	1.40172
1404.21	1.27991
1405.79	0.348092
1407.37	1.21655
1408.95	0.99854
1410.53	0.682421
1412.1	1.0378
1413.68	0.780424
1415.26	1.37075
1416.83	0.855308
1418.41	0.891909
1419.98	0.396973
1421.56	1.45908
1423.13	0.888286
1424.71	0.791751
1426.28	0.440603
1427.86	1.5071
1429.43	1.25459
1431	1.3751
1432.58	0.943399
1434.15	1.53392
1435.72	1.43533
1437.29	1.41567
1438.87	1.3575
1440.44	1.79172
1442.01	1.87315
1443.58	1.81776
1445.15	1.78244
1446.72	1.45247
1448.29	1.94824
1449.86	2.3068
1451.43	1.56488
1453	2.06225
1454.57	1.59635
1456.14	1.95657
1457.71	2.59174
1459.27	2.16284
1460.84	2.57823
1462.41	1.98801
1463.98	1.92739
1465.54	1.35466
1467.11	1.60721
1468.67	1.64394
1470.24	0.994755
1471.81	1.56349
1473.37	0.936659
1474.94	0.722657
1476.5	0.803226
1478.07	1.13874
1479.63	0.768444
1481.19	0.770535
1482.76	0.615773
1484.32	0.656857
1485.88	0.717157
1487.45	0.737476
1489.01	0.638985
1490.57	0.440918
1492.13	0.651536
1493.69	0.11746
1495.26	0.538733
1496.82	-0.0357018
1498.38	-0.0640278
1499.94	0.568997
1501.5	0.231012
1503.06	0.612401
1504.62	0.373946
1506.17	-0.0380354
1507.73	0.0916138
1509.29	0.548408
1510.85	0.790774
1512.41	0.29942
1513.97	0.559519
1515.52	0.780711
1517.08	0.406872
1518.64	0.629109
1520.19	0.334302
1521.75	0.576063
1523.31	0.472925
1524.86	0.521957
1526.42	0.512654
1527.97	0.502473
1529.52	1.10019
1531.08	0.291257
1532.63	0.52789
1534.19	0.386081
1535.74	0.623925
1537.29	0.711042
1538.85	0.421191
1540.4	0.283139
1541.95	0.955442
1543.5	0.704216
1545.06	1.3557
1546.61	0.446795
1548.16	1.17189
1549.71	1.25821
1551.26	1.04498
1552.81	0.720499
1554.36	0.958258
1555.91	1.04768
1557.46	1.81077
1559.01	1.56778
1560.56	0.748674
1562.11	1.23717
1563.65	1.98804
1565.2	1.22833
1566.75	1.43891
1568.29	1.51864
1569.84	2.21396
1571.39	1.93827
1572.94	1.79293
1574.48	1.62877
1576.03	1.38997
1577.57	1.46875
1579.12	1.43597
1580.66	1.62792
1582.21	2.13828
1583.75	1.88389
1585.3	1.94785
1586.84	2.18066
1588.38	1.83398
1589.93	1.44935
1591.47	1.23242
1593.01	1.35192
1594.55	1.35883
1596.1	2.09652
1597.64	2.25413
1599.18	1.6251
1600.72	1.54028
1602.26	1.69985
1603.8	1.59665
1605.34	1.62412
1606.88	1.65015
1608.42	1.93726
1609.96	1.90238
1611.5	1.41409
1613.04	0.961727
1614.58	1.40943
1616.12	1.59359
1617.65	1.47814
1619.19	1.81369
1620.73	1.57001
1622.27	1.12196
1623.8	1.44244
1625.34	0.864347
1626.87	1.55828
1628.41	0.997005
1629.95	1.29498
1631.48	1.61027
1633.02	1.51389
1634.55	1.38064
1636.09	1.75213
1637.62	2.12427
1639.15	1.86294
1640.69	2.105
1642.22	1.80594
1643.76	1.69216
1645.29	1.80054
1646.82	1.6103
1648.35	1.7359
1649.88	2.06601
1651.42	1.56174
1652.95	2.22781
1654.48	2.46811
1656.01	2.18998
1657.54	2.06016
1659.07	2.05922
1660.6	2.20494
1662.13	2.08991
1663.66	1.73352
1665.19	1.52487
1666.72	1.68605
1668.24	2.03259
1669.77	2.03012
1671.3	1.97402
1672.83	1.97439
1674.35	2.32514
1675.88	2.14152
1677.41	1.57064
1678.93	1.58773
1680.46	1.64046
1681.99	1.49022
1683.51	1.652
1685.04	1.5017
1686.56	0.783483
1688.09	1.49615
1689.61	0.944484
1691.13	0.961219
1692.66	0.575412
1694.18	0.921556
1695.71	0.535921
1697.23	0.643769
1698.75	0.878981
1700.27	0.237502
1701.8	0.179935
1703.32	0.377037
1704.84	0.391205
1706.36	0.386719
1707.88	-0.0724897
1709.4	0.867536
1710.92	0.426865
1712.44	0.404142
1713.96	-0.469868
1715.48	0.377299
1717	0.734653
1718.52	0.386474
1720.04	-0.26816
1721.56	0.0888128
1723.07	-0.185217
1724.59	0.370819
1726.11	0.045166
1727.63	0.135068
1729.14	-0.0260906
1730.66	0.33638
1732.18	0.162708
1733.69	-0.0990887
1735.21	-0.168871
1736.72	0.12923
1738.24	0.263792
1739.75	-0.00857353
1741.27	0.223599
1742.78	-0.241309
1744.3	0.486972
1745.81	-0.0594797
1747.32	0.275479
1748.84	0.235044
1750.35	-0.175723
1751.86	0.0516891
1753.37	0.125434
1754.89	-0.0160675
1756.4	-0.0564804
1757.91	-0.0337858
1759.42	0.0231476
1760.93	-0.0296555
1762.44	-0.258893
1763.95	-0.268316
1765.46	-0.0550842
1766.97	0.00662613
1768.48	0.320997
1769.99	0.459775
1771.5	0.100954
1773.01	-0.207008
1774.52	-0.0695248
1776.03	-0.234154
1777.53	0.153261
1779.04	0.0358305
1780.55	-0.115815
1782.06	-0.0642843
1783.56	-0.368526
1785.07	-0.28478
1786.57	0.0921946
1788.08	-0.317571
1789.59	0.221836
1791.09	-0.0495081
1792.6	0.219568
1794.1	0.105702
1795.6	0.0554047
1797.11	-0.00839806
1798.61	0.138071
1800.12	-0.101636
1801.62	0.189245
1803.12	0.141171
1804.63	-0.0629253
1806.13	-0.0439014
1807.63	0.104045
1809.13	0.157471
1810.63	-0.102902
1812.14	0.0746002
1813.64	0.188406
1815.14	-0.123145
1816.64	-0.0012188
1818.14	-0.361467
1819.64	-0.0375271
1821.14	0.018734
1822.64	0.242631
1824.14	0.0946932
1825.63	0.13553
1827.13	0.286484
1828.63	0.0537443
1830.13	-0.0109243
1831.63	0.0678091
1833.12	-0.212655
1834.62	-0.149872
1836.12	0.19135
1837.62	0.100368
1839.11	0.276775
1840.61	0.190994
1842.1	-0.0453606
1843.6	0.240527
1845.09	0.413816
1846.59	0.123932
1848.08	0.537577
1849.58	-0.00521755
1851.07	-0.0374403
1852.57	0.468215
1854.06	0.292148
1855.55	0.20504
1857.04	-0.0322266
1858.54	-0.248535
1860.03	0.0110817
1861.52	0.561782
1863.01	0.0995598
1864.5	0.181644
1866	0.228293
1867.49	0.0725927
1868.98	0.300353
1870.47	0.0702457
1871.96	0.103773
1873.45	0.329967
1874.94	0.449024
1876.43	0.380795
1877.92	0.212752
1879.41	0.339469
1880.89	0.044137
1882.38	0.0989408
1882.48	0.106683
1883.97	0.0890493
1885.47	0.332056
1886.96	0.138533
1888.46	0.118774
1889.95	0.0817909
1891.44	0.480556
1892.94	0.480762
1894.43	0.465432
1895.92	0.399515
1897.41	-0.187307
1898.9	0.304048
1900.4	0.168281
1901.89	0.274467
1903.38	0.639723
1904.87	0.186191
1906.36	0.166646
1907.85	0.442279
1909.34	0.284298
1910.83	0.0406065
1912.32	0.45712
1913.81	0.145598
1915.29	0.597275
1916.78	0.181596
1918.27	0.545541
1919.76	0.423653
1921.25	-0.131292
1922.74	0.336112
1924.22	0.21552
1925.71	0.303804
1927.2	0.237337
1928.68	0.188822
1930.17	-0.275317
1931.65	0.402678
1933.14	0.213426
1934.63	0.0571384
1936.11	0.297283
1937.59	0.276597
1939.08	0.428239
1940.56	0.372735
1942.05	0.576997
1943.53	0.0403633
1945.01	0.86729
1946.5	0.0563745
1947.98	0.365938
1949.46	0.0199337
1950.94	0.20704
1952.43	0.0832882
1953.91	0.199863
1955.39	0.127151
1956.87	0.295314
1958.35	0.515425
1959.83	0.444416
1961.31	-0.00321579
1962.79	0.338176
1964.27	0.267914
1965.75	0.813717
1967.23	0.194391
1968.71	0.242224
1970.19	0.238121
1971.67	0.285003
1973.14	0.263464
1974.62	0.463773
1976.1	-0.137115
1977.58	0.0464907
1979.05	0.468238
1980.53	0.311047
1982.01	0.493862
1983.48	0.387356
1984.96	0.518291
1986.43	0.360434
1987.91	0.0333252
1989.38	0.452109
1990.86	0.210955
1992.33	0.360008
1993.81	0.256314
1995.28	0.2887
1996.76	-0.20221
1998.23	0.624469
1999.7	0.55538
2001.18	0.198854
2002.65	0.466232
2004.12	0.362306
2005.59	0.427292
2007.06	0.627687
2008.54	0.593154
2010.01	0.52584
2011.48	0.475914
2012.95	0.190426
2014.42	0.258011
2015.89	0.408938
2017.36	0.121594
2018.83	0.590157
2020.3	0.352005
2021.77	0.181106
2023.24	0.0106745
2024.71	0.260584
2026.17	0.494685
2027.64	0.377902
2029.11	0.245817
2030.58	0.584728
2032.04	0.0857248
2033.51	0.392654
2034.98	0.599029
2036.45	0.553184
2037.91	0.506767
2039.38	0.594377
2040.84	0.379355
2042.31	0.534506
2043.77	0.202693
2045.24	0.426782
2046.7	0.668664
2048.17	0.136253
2049.63	0.361387
2051.1	0.602606
2052.56	0.437681
2054.02	0.827465
2055.48	0.203631
2056.95	0.354177
2058.41	0.166791
2059.87	0.265712
2061.33	0.3986
2062.8	0.39752
2064.26	0.700354
2065.72	0.482434
2067.18	0.837553
2068.64	0.67157
2070.1	0.219704
2071.56	0.289668
2073.02	0.797283
2074.48	0.563807
2075.94	0.784637
2077.4	0.685132
2078.86	0.905174
2080.31	0.5522
2081.77	0.788011
2083.23	0.46757
2084.69	0.264342
2086.14	0.73339
2087.6	0.444772
2089.06	0.458502
2090.52	0.807946
2091.97	0.737227
2093.43	0.465125
2094.88	0.813563
2096.34	0.591244
2097.79	0.837502
2099.25	0.714551
2100.7	0.591437
2102.16	1.08698
2103.61	0.714304
2105.07	0.810666
2106.52	0.708148
2107.97	1.22388
2109.43	1.12276
2110.88	0.871116
2112.33	0.734955
2113.78	0.963577
2115.24	0.840769
2116.69	0.983212
2118.14	1.40806
2119.59	1.35226
2121.04	1.19902
2122.49	1.06451
2123.94	0.997896
2125.39	1.11438
2126.84	0.816101
2128.29	1.16339
2129.74	1.57534
2131.19	1.35615
2132.64	1.86465
2134.09	1.49568
2135.54	1.62396
2136.98	1.57186
2138.43	1.5548
2139.88	1.53974
2141.33	1.97276
2142.77	1.44823
2144.22	2.08202
2145.67	1.75659
2147.11	1.69548
2148.56	2.21333
2150.01	2.13409
2151.45	1.77205
2152.9	2.40301
2154.34	2.05547
2155.79	1.8234
2157.23	2.40312
2158.67	2.28783
2160.12	1.97519
2161.56	2.80772
2163	2.2338
2164.45	2.39092
2165.89	2.15077
2167.33	2.12618
2168.78	1.96743
2170.22	2.37206
2171.66	1.95946
2173.1	2.6592
2174.54	2.52556
2175.98	2.34136
2177.42	2.35695
2178.86	2.77236
2180.3	2.2412
2181.74	2.32616
2183.18	2.37855
2184.62	2.31484
2186.06	2.20127
2187.5	1.93792
2188.94	2.52326
2190.38	1.89368
2191.82	2.06269
2193.25	1.5483
2194.69	1.98151
2196.13	1.71352
2197.57	2.04254
2199	1.87045
2200.44	1.78051
2201.88	2.03914
2203.31	1.99944
2204.75	1.89464
2206.18	1.62534
2207.62	1.55565
2209.05	1.75079
2210.49	1.43184
2211.92	1.37683
2213.36	1.35413
2214.79	1.49648
2216.22	1.22655
2217.66	1.04058
2219.09	1.68058
2220.52	1.31542
2221.96	1.39562
2223.39	1.42561
2224.82	1.00952
2226.25	1.51367
2227.68	1.34116
2229.11	0.904807
2230.55	1.46929
2231.98	1.13097
2233.41	1.3993
2234.84	0.931994
2236.27	1.08756
2237.7	1.09756
2239.12	1.0279
2240.55	0.911408
2241.98	0.698937
2243.41	0.846554
2244.84	1.07612
2246.27	1.02776
2247.7	0.847334
2249.12	0.974573
2250.55	0.920179
2251.98	0.864033
2253.41	1.18111
2254.83	0.653004
2256.26	0.841499
2257.68	0.723797
2259.11	0.609005
2260.54	0.756715
2261.96	0.61479
2263.39	0.831629
2264.81	1.08158
2266.24	0.794876
2267.66	0.637209
2269.08	0.755142
2270.51	1.19791
2271.93	0.565688
2273.35	0.779875
2274.78	1.01051
2276.2	0.606001
2277.62	0.706692
2279.04	0.628174
2280.47	0.484324
2281.89	0.731728
2283.31	0.73443
2284.73	0.52502
2286.15	0.446289
2287.57	0.645432
2288.99	0.649133
2290.41	0.718602
2291.83	0.477813
2293.25	0.351411
2294.67	0.470295
2296.09	0.261827
2297.51	0.347873
2298.93	0.483176
2300.35	0.241807
2301.76	0.623584
2303.18	0.349789
2304.6	0.190758
2306.02	0.458489
2307.44	0.134636
2308.85	0.714053
2310.27	0.4218
2311.69	0.819792
2313.1	0.132017
2314.52	0.695086
2315.93	0.485384
2317.35	0.704605
2318.76	0.56187
2320.18	0.138375
2321.59	-0.0555534
2323.01	0.524337
2324.42	0.788451
2325.83	0.142745
2327.25	0.468832
2328.66	0.876176
2330.07	0.229039
2331.49	0.68647
2332.9	0.0584097
2334.31	0.139061
2335.72	0.483137
2337.13	0.0700865
2338.55	0.544148
2339.96	-0.00214481
2341.37	0.0752878
2342.78	0.644443
2344.19	0.491182
2345.6	0.256427
2347.01	-0.0432777
2348.42	0.181232
2349.83	0.0942793
2351.24	0.219212
2352.65	0.473651
2354.05	0.204516
2355.46	0.473136
2356.87	0.333758
2358.28	-0.0981302
2359.69	0.185895
2361.09	0.339563
2362.5	0.201041
2363.91	-0.0506592
2365.31	0.183464
2366.72	0.0940256
2368.13	0.0860519
2369.53	0.36944
2370.94	0.17007
2372.34	0.0528049
2373.75	0.548554
2375.15	0.223354
2376.56	0.0107145
2377.96	0.247525
2379.37	0.000469208
2380.77	0.45856
2382.17	0.0644112
2383.58	0.390987
2384.98	0.364578
2386.38	0.346603
2387.79	0.329529
2389.19	0.018693
2390.59	0.283133
2391.99	0.15032
2393.39	0.209602
2394.8	0.237827
2396.2	0.0123596
2397.6	0.312127
2399	0.199181
2400.4	-0.103864
2401.8	0.387683
2403.2	0.625027
2404.6	0.226791
2406	0.0184078
2407.4	-0.254206
2408.79	0.313242
2410.19	0.404224
2411.59	0.00416565
2412.99	0.270379
2414.39	0.45849
2415.78	0.0306129
2417.18	0.284803
2418.58	0.476634
2419.98	0.415526
2421.37	0.259251
2422.77	0.577856
2424.16	-0.0544052
2425.56	0.549244
2426.96	0.0599909
2428.35	0.205484
2429.74	0.209273
2431.14	0.499374
2432.53	0.377181
2433.93	0.14321
2435.32	0.0827475
2436.72	0.354487
2438.11	0.386407
2439.5	0.0198898
2440.9	0.383139
2442.29	0.253486
2443.68	0.361656
2445.07	0.56473
2446.47	0.133286
2447.86	0.161667
2449.25	-0.0951252
2450.64	0.551031
2452.03	0.0576162
2453.42	0.261492
2454.81	0.102257
2456.2	0.244313
2457.59	0.165232
2458.98	0.402361
2460.37	-0.104403
2461.76	-0.010931
2463.15	0.192363
2464.54	-0.126451
2465.93	0.0442715
2467.32	0.0411072
2468.7	0.116787
2470.09	0.586481
2471.48	0.014904
2472.87	0.0419464
2474.25	-0.0734701
2475.64	0.0780668
2477.03	0.150406
2478.41	0.238269
2479.8	0.279075
2481.18	0.272948
2482.57	0.204103
2483.95	0.119267
2485.34	0.0180922
2486.72	-0.16209
2488.11	-0.327309
2489.49	-0.118793
2490.88	0.0890141
2492.26	-0.122929
2493.65	0.241166
2495.03	0.109436
2496.41	0.149678
2497.79	-0.026124
2499.18	0.510623
2500.56	0.226522
2501.94	0.0966406
2503.32	-0.389112
2504.7	0.019907
2506.09	0.165507
2507.47	-0.0896368
2508.85	0.209364
2510.23	-0.290464
2511.61	0.346681
2512.99	-0.212231
2514.37	0.0730495
2515.75	0.0985603
2517.13	0.0942183
2518.51	-0.0471668
2519.89	-0.0812483
2521.26	-0.237711
2522.64	-0.196167
2524.02	-0.185967
2525.4	-0.0850239
2526.78	0.000263214
2528.15	-0.0663681
2529.53	0.354735
2530.91	0.21461
2532.28	0.106667
2533.66	-0.0606384
2535.04	0.0310869
2536.41	0.229145
2537.79	0.380973
2539.16	-0.0301371
2540.54	0.119931
2541.91	-0.00366306
2543.29	-0.506229
2544.66	0.205784
2546.04	0.251422
2547.41	0.34381
2548.78	-0.124236
2550.16	0.469868
2551.53	-0.180746
2552.9	-0.149369
2554.27	-0.346598
2555.65	0.198808
2557.02	-0.0756531
2558.39	0.165462
2559.76	0.0125656
2561.13	-0.00332165
2562.51	0.208752
2563.88	-0.108992
2565.25	0.316261
2566.62	0.135623
2567.99	0.121784
2569.36	-0.210306
2570.73	0.0486946
2572.1	0.0349407
2573.47	0.142549
2574.84	-0.325789
2576.2	0.524857
2577.57	0.0261431
2578.94	0.133685
2580.31	0.074111
2581.68	-0.25878
2583.05	-0.273582
2584.41	0.317796
2585.78	0.135935
2587.15	0.0754948
2588.51	-0.136289
2589.88	-0.181212
2591.24	-0.286837
2592.61	-0.0746698
2593.98	0.166968
2595.34	0.0743179
2596.71	-0.125227
2598.07	0.0226154
2599.44	0.336226
2600.8	0.24159
2602.16	0.0569611
2603.53	0.190195
2604.89	0.0975618
2606.26	-0.236131
2607.62	0.048378
2608.98	-0.240879
2610.34	0.0715456
2611.71	-0.0843258
2613.07	0.17996
2614.43	0.157561
2615.79	0.0449047
2617.15	-0.232187
2618.52	-0.0438862
2619.88	0.0401134
2621.24	-0.0248003
2622.6	-0.133905
2623.96	0.0411024
2625.32	0.484462
2626.68	0.106805
2628.04	0.0124989
2629.4	-0.0521736
2630.75	-0.176446
2632.11	0.160235
2633.47	0.0952845
2634.83	0.000741959
2636.19	0.0101509
2637.55	-0.113815
2638.9	-0.0746479
2640.26	0.21614
2641.62	-0.114169
2642.98	0.0142746
2644.33	-0.182058
2645.69	0.0939245
2647.04	-0.146823
2648.4	0.28973
2649.76	0.165499
2651.11	0.158437
2652.47	0.268567
2653.82	0.290671
2655.18	0.12294
2656.53	0.103065
2657.88	0.113668
2659.24	0.0374107
2660.59	0.327219
2661.95	0.265886
2663.3	-0.000437737
2664.65	-0.0190697
2666	-0.00923252
2667.36	0.0875692
2668.71	0.0967569
2670.06	0.251713
2671.41	-0.218226
2672.76	-0.00396538
2674.12	0.23971
2675.47	-0.0388069
2676.82	-0.040822
2678.17	-0.274234
2679.52	-0.100703
2680.87	0.0737877
2682.22	-0.0695038
2683.57	-0.574168
2684.92	0.140262
2686.27	-0.000436783
2687.62	0.177998
2688.97	0.253765
2690.31	0.226258
2691.66	0.124368
2693.01	0.0935736
2694.36	0.221349
2695.71	0.218362
2697.05	0.0711374
2698.4	0.214929
2699.75	-0.0161123
2701.09	-0.144052
2702.44	0.33779
2703.78	-0.0483713
2705.13	-0.158874
2706.48	0.0496883
2707.82	0.0840864
2709.17	-0.157678
2710.51	0.384197
2711.86	0.156284
2713.2	0.204192
2714.54	0.237544
2715.89	0.0527792
2717.23	0.0423203
2718.57	0.162557
2719.92	-0.328628
2721.26	0.227434
2722.6	0.390205
2723.95	-0.102466
2725.29	0.481552
2726.63	0.0317698
2727.97	0.411318
2729.31	0.339447
2730.65	-0.0963001
2732	0.210027
2733.34	0.690944
2734.68	0.255592
2736.02	0.300505
2737.36	0.0546999
2738.7	0.201585
2740.04	0.37732
2741.38	0.0291176
2742.72	0.421822
2744.05	0.290452
2745.39	-0.0738888
2746.73	0.0408678
2748.07	0.489206
2749.41	0.429399
2750.75	0.108801
2752.08	-0.153288
2753.42	0.295207
2754.76	0.0626507
2756.09	0.453197
2757.43	-0.039566
2758.77	0.0472393
2760.1	0.0765066
2761.44	0.135198
2762.78	0.208841
2764.11	-0.281479
2765.44	0.168714
2766.78	0.314618
2768.11	0.0979786
2769.45	0.183862
2770.78	0.326052
2772.12	0.163424
2773.45	0.0721703
2774.78	0.283287
2776.12	-0.341444
2777.45	-0.0148792
2778.78	0.038475
2780.12	0.178503
2781.45	-0.255745
2782.78	0.286576
2784.11	0.283156
2785.44	-0.0499125
2786.78	0.0759764
2788.11	0.159266
2789.44	0.357717
2790.77	0.285177
2792.1	0.442272
2793.43	0.0851641
2794.76	0.299963
2796.09	0.300023
2797.42	-0.257517
2798.75	-0.172658
2800.08	0.182902
2801.4	-0.232442
2802.73	0.0653563
2804.06	-0.0934081
2805.39	0.146394
2806.72	0.314156
2808.05	0.0685883
2809.37	0.149858
2810.7	0.17422
2812.03	0.213327
2813.35	0.409529
2814.68	-0.172751
2816.01	0.28146
2817.33	0.226434
2818.66	0.0444613
2819.98	0.245214
2821.31	0.119557
2822.63	0.390073
2823.96	0.348172
2825.28	0.121799
2826.61	0.334575
2827.93	0.236288
2829.25	0.577455
2830.58	0.352811
2831.9	0.156732
2833.23	0.427738
2834.55	0.613491
2835.87	0.543984
2837.19	0.728662
2838.52	0.771359
2839.84	0.969384
2841.16	0.842228
2842.48	1.22442
2843.8	1.16901
2845.12	1.5666
2846.44	1.73873
2847.77	1.51553
2849.08	1.71636
2850.4	1.84625
2851.73	1.91908
2853.05	2.14683
2854.36	2.09149
2855.68	2.09249
2857	1.92394
2858.32	1.99561
2859.64	1.91191
2860.96	2.54818
2862.28	2.22391
2863.59	2.95794
2864.91	2.78826
2866.23	3.08414
2867.55	3.08397
2868.86	3.32399
2870.18	3.24013
2871.5	3.36792
2872.81	3.87591
2874.13	3.42473
2875.44	4.35302
2876.76	4.11075
2878.07	3.85368
2879.39	4.18722
2880.7	3.66331
2882.02	4.13831
2883.33	4.15064
2884.65	4.27639
2885.96	4.00972
2887.28	3.95377
2888.59	4.37445
2889.9	4.58359
2891.21	4.42703
2892.53	3.96154
2893.84	3.74844
2895.15	4.124
2896.46	4.58411
2897.78	4.38742
2899.09	4.58371
2900.4	4.73887
2901.71	4.64275
2903.02	4.43497
2904.33	4.46513
2905.64	5.05506
2906.95	5.15605
2908.26	5.38385
2909.57	5.85052
2910.88	5.29645
2912.19	5.20404
2913.5	5.65675
2914.81	5.86995
2916.12	5.78716
2917.43	6.50033
2918.73	6.03662
2920.04	6.59396
2921.35	6.74621
2922.66	6.67616
2923.96	7.1389
2925.27	7.35137
2926.58	7.66246
2927.88	7.3026
2929.19	7.76707
2930.5	7.2802
2931.8	8.2466
2933.11	7.89856
2934.41	8.05367
2935.72	7.67778
2937.02	7.19032
2938.33	7.38784
2939.63	7.5437
2940.94	7.6163
2942.24	7.29863
2943.54	6.78661
2944.85	6.27594
2946.15	6.46553
2947.45	6.20824
2948.76	6.06243
2950.06	5.81723
2951.36	5.59789
2952.66	6.31455
2953.97	5.7133
2955.27	5.58767
2956.57	4.97309
2957.87	5.56444
2959.17	5.22091
2960.47	5.52456
2961.77	4.98981
2963.07	5.339
2964.37	5.21074
2965.67	4.74354
2966.97	4.63937
2968.27	4.73041
2969.57	4.90494
2970.87	4.46048
2972.17	4.43813
2973.47	4.19094
2974.77	3.99988
2976.07	4.28672
2977.36	3.8259
2978.66	4.09532
2979.96	3.41951
2981.26	3.3899
2982.55	3.51432
2983.85	3.68108
2985.15	3.16017
2986.44	2.95022
2987.74	2.48888
2989.03	2.28146
2990.33	2.50993
2991.63	2.4849
2992.92	2.38845
2994.21	2.50139
2995.51	2.16351
2996.8	2.16197
2998.1	2.06189
2999.39	1.75166
3000.69	1.79268
3001.98	1.70807
3003.27	1.63788
3004.57	1.51175
3005.86	1.21732
3007.15	1.62233
3008.44	1.29848
3009.74	1.30957
3011.03	0.998424
3012.32	1.03625
3013.61	0.864647
3014.9	0.484525
3016.19	0.84385
3017.48	0.980627
3018.78	0.881146
3020.07	0.573171
3021.36	0.709816
3022.65	0.47035
3023.94	0.632658
3025.23	0.682892
3026.51	0.497233
3027.8	0.478318
3029.09	0.529548
3030.38	0.471537
3031.67	0.566876
3032.96	0.538861
3034.24	0.897535
3035.53	0.827672
3036.82	0.604802
3038.11	0.986499
3039.39	0.580983
3040.68	0.53204
3041.97	0.935121
3043.25	0.624135
3044.54	0.848544
3045.83	0.636449
3047.11	0.467836
3048.4	0.451881
3049.68	0.478901
3050.97	0.343647
3052.25	1.10973
3053.54	1.22073
3054.82	0.839778
3056.11	1.11244
3057.39	0.865578
3058.67	1.14934
3059.96	0.833224
3061.24	0.735444
3062.52	0.665816
3063.81	0.951033
3065.09	0.91134
3066.37	0.505944
3067.65	0.80842
3068.94	0.784927
3070.22	0.285019
3071.5	0.627355
3072.78	0.437925
3074.06	0.342358
3075.34	0.408837
3076.62	0.420434
3077.9	0.540843
3079.18	0.295743
3080.46	0.635434
3081.74	0.406803
3083.02	0.0572023
3084.3	0.413639
3085.58	0.0508676
3086.86	0.162487
3088.14	0.476884
3089.42	0.328941
3090.69	0.0447221
3091.97	-0.117588
3093.25	0.520419
3094.53	0.168362
3095.8	-0.0207357
3097.08	-0.1556
3098.36	0.0346589
3099.63	-0.439404
3100.91	-0.181959
3102.19	-0.24978
3103.46	0.0480742
3104.74	0.373182
3106.01	0.292743
3107.29	-0.111703
3108.56	0.188426
3109.84	0.042851
3111.11	0.0875821
3112.39	0.214226
3113.66	-0.119479
3114.94	0.0886369
3116.21	-0.205457
3117.48	-0.120911
3118.76	0.355778
3120.03	0.12588
3121.3	0.138987
3122.57	-0.25528
3123.85	0.366345
3125.12	-0.0551815
3126.39	0.0923285
3127.66	-0.00343752
3128.93	0.279885
3130.21	0.198138
3131.48	0.156913
3132.75	0.0478063
3134.02	-0.358932
3135.29	0.205992
3136.56	-0.282845
3137.83	-0.259441
3139.1	0.100116
3140.37	0.108727
3141.64	0.0498981
3142.91	0.125583
3144.17	0.201387
3145.44	0.049407
3146.71	-0.168941
3147.98	0.12252
3149.25	-0.175138
