200.533	0.435669
202.348	0.460588
204.162	0.486381
205.976	0.464182
207.792	-0.165674
209.605	0.0305681
211.418	-0.0902195
213.23	0.97718
215.044	0.416981
216.856	-0.0461273
218.667	0.24213
220.478	0.506183
222.289	0.311012
224.102	-0.0283489
225.912	0.357876
227.721	0.381341
229.531	0.211136
231.34	0.257679
233.148	0.545016
234.956	0.0124712
236.766	0.0839243
238.574	0.59081
240.381	0.280231
242.188	-0.221594
243.994	-0.0956669
245.801	0.0542746
247.606	-0.255876
249.412	-0.109726
251.217	0.226848
253.024	0.24706
254.828	-0.0961838
256.632	0.187334
258.436	0.688075
260.239	0.322544
262.042	0.320045
263.845	0.1984
265.647	-0.259836
267.449	0.0531111
269.25	0.462225
271.052	-0.141939
272.852	-0.313304
274.653	0.647225
276.453	0.545346
278.253	0.417696
280.052	-0.072958
281.852	0.566374
283.65	0.746093
285.449	-0.205015
287.247	0.405036
289.044	0.0307846
290.842	0.208737
292.639	-0.234875
294.436	0.662811
296.232	0.723957
298.028	0.188454
299.821	0.0597878
301.617	0.241465
303.412	-0.461179
305.206	0.14822
307	-0.293276
308.794	-0.0670919
310.588	0.349853
312.381	-0.161434
314.172	0.424167
315.964	0.249234
317.756	0.385335
319.548	0.117752
321.34	0.899589
323.131	0.228137
324.921	1.03568
326.71	0.602609
328.5	1.05277
330.29	0.164017
332.079	0.708352
333.868	0.605528
335.654	0.548558
337.443	0.609187
339.231	1.00282
341.018	0.0316687
342.804	0.184037
344.591	0.742387
346.377	0.703597
348.163	0.378881
349.947	0.556017
351.733	-0.00683403
353.518	0.40837
355.303	0.154469
357.085	0.519514
358.869	0.525554
360.653	0.482913
362.435	0.296712
364.218	0.0150127
366.001	0.730889
367.781	0.519121
369.563	0.401806
371.345	0.18921
373.124	-0.236475
374.905	0.118292
376.686	0.330652
378.464	0.660866
380.244	0.0489502
382.022	0.12163
383.801	0.148205
385.58	0.551919
387.357	-0.101109
389.135	0.0224018
390.911	0.146624
392.689	-0.268669
394.466	0.514223
396.241	0.240597
398.018	0.436738
399.792	0.233419
401.568	-0.0877428
403.341	0.0368032
405.117	0.0432739
406.889	0.260442
408.664	0.47701
410.436	0.0594273
412.21	0.134867
413.981	0.679913
415.755	0.00537872
417.525	0.246608
419.298	0.112927
421.068	0.448805
422.84	0.244643
424.609	0.0163393
426.38	0.303727
428.149	-0.325148
429.919	-0.297073
431.688	-0.151688
433.455	-0.0530157
435.225	0.25715
436.992	0.26217
438.76	0.219644
440.527	0.152411
442.293	0.106968
444.06	0.0597515
445.826	0.175031
447.593	0.803999
449.357	0.54291
451.122	0.165564
452.888	0.39604
454.651	-0.120044
456.415	0.0638342
458.18	0.363729
459.942	0.174566
461.705	0.590858
463.469	0.264315
465.23	0.102712
466.991	0.245583
468.752	0.460493
470.515	0.119038
472.275	0.266341
474.035	0.50629
475.797	0.488716
477.556	0.376079
479.315	0.355037
481.073	0.519517
482.834	0.590965
484.592	0.477129
486.349	0.0620747
488.106	0.813895
489.863	0.378864
491.622	0.10749
493.378	0.583879
495.134	0.00887966
496.889	0.626617
498.645	0.261144
500.401	0.480931
502.156	0.559695
503.91	0.637813
505.664	0.809045
507.417	0.414855
509.171	0.677698
510.923	0.445157
512.678	0.587698
514.43	0.0465841
516.182	0.53958
517.933	0.0435739
519.684	0.29934
521.435	0.906677
523.186	1.11377
524.936	1.08576
526.686	-0.138593
528.435	0.49059
530.184	0.251976
531.933	0.481691
533.682	0.14869
535.43	0.423275
537.18	-0.14505
538.927	0.267064
540.674	0.0710297
542.421	0.876318
544.167	0.120738
545.913	0.29636
547.659	-0.270905
549.403	0.76282
551.148	0.798749
552.893	-0.113537
554.637	0.200869
556.381	0.330205
558.125	-0.0476727
559.868	0.312794
561.611	0.488971
563.354	0.136361
565.097	0.933998
566.839	0.697531
568.581	0.370249
570.322	-0.345895
572.063	-0.395141
573.802	0.290984
575.542	-0.260198
577.283	-0.0988755
579.022	0.224327
580.762	-0.140574
582.501	0.252573
584.24	0.369757
585.976	0.187181
587.714	-0.272602
589.452	-0.0202808
591.19	-0.0217543
592.927	-0.345746
594.663	0.204434
596.398	0.524582
598.134	-0.00654888
599.87	0.083209
601.605	-0.2878
603.338	0.145242
605.073	0.231964
606.808	0.3405
608.542	-0.0569496
610.274	-0.155662
612.007	-0.620865
613.74	0.130135
615.473	-0.150243
617.204	0.234122
618.936	0.594852
620.668	0.0845022
622.397	0.214226
624.128	-0.0683966
625.859	0.311852
627.588	0.350118
629.318	-0.226114
631.048	-0.0699883
632.775	0.133429
634.505	0.0182304
636.233	-0.257086
637.96	0.539049
639.688	0.488226
641.416	0.45769
643.142	0.311189
644.869	0.346047
646.594	-0.0510149
648.32	-0.104929
650.045	-0.224383
651.771	0.27277
653.496	-0.181307
655.219	0.18569
656.944	0.418585
658.667	0.447583
660.391	0.476267
662.113	0.161046
663.837	-0.225123
665.558	0.66671
667.281	0.322587
669.002	0.915461
670.724	-0.11495
672.444	-0.137487
674.166	0.46024
675.885	0.418885
677.606	0.40145
679.325	0.6597
681.045	0.61872
682.763	0.760175
684.483	0.715789
686.2	0.439349
687.917	0.852408
689.636	0.942157
691.352	0.178971
693.07	0.520924
694.786	0.631868
696.501	0.903118
698.219	0.689748
699.933	0.843616
701.65	0.697351
703.364	1.0101
705.078	0.357225
706.793	-0.0656528
708.506	0.681274
710.219	0.464371
711.934	0.568005
713.646	0.53398
715.358	0.659815
717.071	0.397252
718.782	0.408979
720.493	1.05896
722.204	1.1387
723.916	1.19558
725.626	0.797633
727.336	0.740805
729.045	0.524882
730.756	0.671688
732.464	0.591438
734.173	1.23515
735.881	0.747574
737.59	0.758008
739.297	0.701351
741.004	1.09644
742.711	0.478374
744.417	0.98784
746.125	1.52053
747.831	0.591857
749.537	1.05928
751.242	0.44813
752.946	0.737766
754.651	1.23113
756.357	1.20845
758.061	0.961956
759.764	1.12198
761.467	1.39592
763.17	1.46764
764.872	1.15534
766.575	1.3839
768.276	1.67889
769.978	2.06257
771.679	1.22333
773.382	1.49087
775.083	1.66754
776.783	2.22908
778.483	1.54824
780.182	1.2078
781.882	1.90882
783.581	1.63725
785.279	1.6814
786.978	1.88189
788.676	1.1742
790.373	1.61784
792.071	1.08668
793.768	1.77436
795.464	1.78381
797.161	1.86169
798.857	1.76081
800.552	1.95428
802.248	1.78888
803.941	1.78165
805.636	1.90913
807.33	2.03573
809.024	1.7569
810.718	1.3203
812.412	1.04049
814.105	1.50001
815.798	2.0257
817.49	1.96893
819.183	1.24189
820.873	1.81132
822.564	1.73312
824.256	1.78955
825.947	1.84719
827.637	1.72854
829.328	2.23598
831.016	1.67717
832.705	1.94496
834.395	1.30094
836.084	1.81689
837.772	1.81992
839.459	1.28598
841.147	1.39802
842.835	1.86646
844.522	1.75365
846.209	1.7532
847.894	1.75435
849.581	1.82483
851.267	1.56176
852.953	1.74819
854.637	1.35238
856.322	1.94394
858.007	1.4114
859.689	1.77656
861.374	1.12733
863.058	1.08424
864.739	1.76122
866.423	1.17536
868.106	1.42296
869.787	0.723003
871.469	1.35342
873.151	1.39728
874.831	1.39595
876.512	1.28179
878.193	1.14503
879.872	1.03071
881.553	1.32239
883.231	1.00392
884.911	1.00056
886.591	0.43177
888.268	0.696807
889.947	0.892652
891.623	0.523638
893.302	0.446788
894.978	0.684123
896.656	1.23483
898.331	1.13237
900.008	1.16388
901.683	1.44106
903.359	1.00105
905.033	1.00893
906.709	1.53032
908.383	1.22621
910.058	1.41343
911.731	1.42311
913.405	1.63337
915.078	0.977636
916.752	0.544972
918.423	1.08816
920.096	1.27618
921.768	1.15467
923.438	0.87963
925.111	0.562177
926.781	1.50509
928.452	0.881656
930.122	1.29674
931.791	0.917975
933.462	0.958679
935.13	1.17598
936.799	0.621685
938.468	0.597479
940.136	0.596331
941.803	1.10357
943.472	0.861394
945.139	0.92794
946.805	0.706545
948.473	0.483582
950.139	1.27428
951.804	0.894228
953.471	0.977641
955.136	1.10649
956.801	0.951073
958.465	1.12926
960.131	1.31005
961.794	0.785534
963.458	0.879055
965.12	0.550974
966.785	0.884116
968.447	0.949468
970.109	0.880282
971.771	0.69981
973.432	0.763076
975.095	0.495863
976.756	1.44653
978.417	1.04945
980.077	1.20592
981.737	1.36208
983.396	0.65369
985.057	0.806917
986.716	0.8034
988.375	0.931093
990.033	0.65958
991.691	1.38229
993.349	0.469618
995.006	0.418955
996.663	0.655232
998.32	0.428194
999.976	0.663957
1001.63	1.36151
1003.29	0.847431
1004.95	0.597664
1006.6	0.545923
1008.26	0.538273
1009.91	0.289526
1011.56	0.721265
1013.22	0.0351467
1014.87	1.43092
1016.53	1.00855
1018.18	0.762111
1019.83	0.560333
1021.48	0.512623
1023.14	0.137995
1024.79	0.660301
1026.44	1.42332
1028.09	0.656693
1029.74	0.938322
1031.39	0.235967
1033.04	0.73345
1034.69	1.31627
1036.34	0.567203
1037.99	1.10384
1039.64	-0.0799875
1041.29	1.13106
1042.94	0.559235
1044.58	0.532666
1046.23	0.594625
1047.88	0.940473
1049.52	0.353846
1051.17	0.37633
1052.82	0.442927
1054.46	0.618497
1056.11	0.576782
1057.75	0.773929
1059.4	0.470634
1061.04	0.75382
1062.69	0.666692
1064.33	0.448317
1065.98	0.533459
1067.62	0.55244
1069.26	0.244707
1070.9	0.696748
1072.55	0.0846882
1074.19	0.34144
1075.83	0.555488
1077.47	0.59706
1079.11	0.205966
1080.76	0.0974092
1082.4	0.595976
1084.04	0.204751
1085.68	0.15915
1087.32	0.87025
1088.95	0.45282
1090.59	1.07301
1092.23	-0.146205
1093.87	0.450407
1095.51	0.183084
1097.15	0.218712
1098.78	0.77234
1100.42	0.315002
1102.06	0.548278
1103.69	0.116008
1105.33	0.20118
1106.97	-0.0788536
1108.6	0.587125
1110.24	0.456417
1111.87	0.302959
1113.51	0.234221
1115.14	0.228942
1116.77	0.158842
1118.41	-0.103994
1120.04	0.255344
1121.67	0.293908
1123.31	0.440329
1124.94	0.822792
1126.57	0.521338
1128.2	0.926366
1129.83	0.6263
1131.47	-0.0152721
1133.1	0.113081
1134.72	0.262664
1136.36	-0.144011
1137.98	0.0682802
1139.62	0.108587
1141.24	0.169394
1142.87	0.229732
1144.5	0.0128784
1146.13	0.0952454
1147.76	0.412745
1149.38	0.496421
1151.01	0.0479574
1152.64	0.174649
1154.27	0.237116
1155.89	-0.403105
1157.52	-0.0217886
1159.14	0.104365
1160.77	0.12484
1162.39	0.146221
1164.02	0.125895
1165.64	-0.191704
1167.27	-0.0205097
1168.89	0.0434828
1170.51	-0.23399
1172.14	-0.151651
1173.76	-0.113265
1175.38	0.136236
1177	0.384941
1178.63	0.485172
1180.25	0.099021
1181.87	-0.307024
1183.49	-0.0144205
1185.11	0.362359
1186.73	0.294437
1188.35	0.37292
1189.97	0.196677
1191.59	0.419211
1193.21	-0.0328245
1194.83	-0.00141907
1196.45	0.365354
1198.07	0.145727
1199.68	0.24178
1201.3	1.02907
1202.92	0.0636873
1204.53	0.395409
1206.15	0.582637
1207.77	0.750041
1209.38	0.500422
1211	0.64642
1212.62	0.332181
1214.23	0.474771
1215.84	0.44871
1217.46	0.56679
1219.07	0.683784
1220.69	0.260751
1222.3	1.0834
1223.91	0.37243
1225.53	0.367803
1227.14	0.84037
1228.75	0.796597
1230.36	0.981385
1231.97	0.81573
1233.59	0.609852
1235.2	0.98376
1236.81	1.09005
1238.42	1.32132
1240.03	0.932919
1241.64	1.26842
1243.25	1.70721
1244.85	0.965986
1246.46	1.21698
1248.07	1.21877
1249.68	1.26126
1251.29	0.889737
1252.9	1.03563
1254.5	1.18214
1256.11	0.502242
1257.72	0.981749
1259.32	1.42108
1260.93	0.909264
1262.54	1.16368
1264.14	1.25257
1265.75	1.19608
1267.35	1.28401
1268.96	0.74915
1270.56	1.51952
1272.16	1.27301
1273.77	1.27439
1275.37	1.39924
1276.97	1.27452
1278.57	1.58415
1280.18	0.795589
1281.78	1.18714
1283.38	1.10265
1284.98	1.16348
1286.58	1.45245
1288.18	1.20485
1289.78	1.68143
1291.38	1.39382
1292.99	1.35409
1294.58	1.56158
1296.18	1.21019
1297.78	1.53884
1299.38	1.34987
1300.98	1.81949
1302.58	1.66927
1304.17	1.68307
1305.77	1.51115
1307.37	2.1195
1308.97	1.68006
1310.56	1.61042
1312.16	1.6846
1313.76	1.39122
1315.35	1.4875
1316.95	1.42114
1318.54	1.29418
1320.14	1.43229
1321.73	0.856444
1323.32	1.44019
1324.92	1.33008
1326.51	1.27989
1328.1	1.29019
1329.7	1.64516
1331.29	1.27275
1332.88	1.36777
1334.47	1.76751
1336.07	1.42162
1337.66	0.693381
1339.25	1.49722
1340.84	1.51297
1342.43	1.56699
1344.02	1.19702
1345.61	1.42921
1347.2	0.738719
1348.79	1.17286
1350.37	0.987967
1351.96	1.24555
1353.55	1.10483
1355.14	1.0253
1356.73	1.12594
1358.31	0.826624
1359.9	0.786291
1361.49	0.864843
1363.07	0.942608
1364.66	0.940258
1366.25	0.639285
1367.83	0.717681
1369.42	0.816947
1371	0.519345
1372.59	0.819944
1374.17	1.00206
1375.75	1.04546
1377.34	0.850147
1378.92	0.435501
1380.5	0.975105
1382.09	1.13545
1383.67	1.57294
1385.25	0.83649
1386.83	0.815541
1388.42	0.735194
1390	1.01277
1391.58	1.13219
1393.16	0.895165
1394.74	0.757732
1396.32	0.758993
1397.9	0.938046
1399.48	0.204645
1401.06	0.837666
1402.64	0.93511
1404.21	1.15114
1405.79	1.07082
1407.37	0.536748
1408.95	-0.0950022
1410.53	0.00486469
1412.1	0.519297
1413.68	0.796025
1415.26	0.302279
1416.83	0.518259
1418.41	0.103023
1419.98	0.614347
1421.56	0.535396
1423.13	-0.0146236
1424.71	0.381595
1426.28	0.955905
1427.86	0.585909
1429.43	1.04234
1431	0.927188
1432.58	1.30303
1434.15	0.910642
1435.72	0.45912
1437.29	1.34498
1438.87	1.26789
1440.44	0.936212
1442.01	1.66666
1443.58	1.08097
1445.15	1.43897
1446.72	1.58097
1448.29	1.05478
1449.86	1.25616
1451.43	1.57598
1453	1.52272
1454.57	1.29273
1456.14	1.55448
1457.71	1.65832
1459.27	1.66261
1460.84	1.37015
1462.41	0.899112
1463.98	1.01697
1465.54	0.780038
1467.11	0.3663
1468.67	1.3276
1470.24	0.620735
1471.81	0.955075
1473.37	1.07439
1474.94	0.723709
1476.5	0.628365
1478.07	0.141047
1479.63	0.379072
1481.19	0.675761
1482.76	0.443192
1484.32	0.328139
1485.88	0.193247
1487.45	0.782419
1489.01	0.35207
1490.57	0.624988
1492.13	-0.0427055
1493.69	0.382825
1495.26	-0.383994
1496.82	0.253043
1498.38	0.0905218
1499.94	0.123201
1501.5	-0.212155
1503.06	0.404331
1504.62	0.109753
1506.17	0.590184
1507.73	0.0829401
1509.29	0.580404
1510.85	0.265405
1512.41	-0.145865
1513.97	0.078722
1515.52	0.12991
1517.08	0.315841
1518.64	0.482802
1520.19	-0.0588012
1521.75	0.185395
1523.31	0.505236
1524.86	0.0600815
1526.42	0.339709
1527.97	0.351299
1529.52	0.552546
1531.08	0.829155
1532.63	-0.0700407
1534.19	0.378268
1535.74	0.429169
1537.29	0.556317
1538.85	0.740396
1540.4	-0.0749021
1541.95	0.0344772
1543.5	0.331764
1545.06	0.83511
1546.61	0.435758
1548.16	0.768814
1549.71	0.5014
1551.26	0.0287352
1552.81	0.530115
1554.36	0.564144
1555.91	0.636642
1557.46	0.411893
1559.01	0.692734
1560.56	0.639228
1562.11	0.773618
1563.65	0.535819
1565.2	0.951494
1566.75	0.975468
1568.29	0.905924
1569.84	0.686718
1571.39	0.784497
1572.94	1.27406
1574.48	0.960827
1576.03	1.37565
1577.57	0.931954
1579.12	0.7126
1580.66	0.829826
1582.21	1.52673
1583.75	0.973052
1585.3	0.88686
1586.84	0.987977
1588.38	1.33246
1589.93	1.07824
1591.47	0.93575
1593.01	0.9613
1594.55	1.08029
1596.1	1.23687
1597.64	1.4314
1599.18	1.13917
1600.72	1.27875
1602.26	1.73793
1603.8	1.20229
1605.34	1.52974
1606.88	1.48033
1608.42	1.07205
1609.96	0.849729
1611.5	0.944987
1613.04	1.41411
1614.58	1.03706
1616.12	0.641403
1617.65	0.996391
1619.19	0.640087
1620.73	0.884595
1622.27	1.37351
1623.8	0.795852
1625.34	1.00454
1626.87	1.13763
1628.41	0.820543
1629.95	1.34404
1631.48	1.17461
1633.02	1.06109
1634.55	1.02265
1636.09	1.41406
1637.62	1.63808
1639.15	1.28456
1640.69	1.04311
1642.22	1.28567
1643.76	1.95529
1645.29	1.02277
1646.82	1.70847
1648.35	1.87265
1649.88	1.62849
1651.42	1.73811
1652.95	1.70037
1654.48	2.12717
1656.01	1.47926
1657.54	1.8137
1659.07	1.40633
1660.6	1.72014
1662.13	1.6623
1663.66	2.02867
1665.19	1.69213
1666.72	1.15347
1668.24	1.57553
1669.77	1.57447
1671.3	1.59316
1672.83	1.24443
1674.35	1.26456
1675.88	1.56061
1677.41	1.65332
1678.93	1.28508
1680.46	1.04501
1681.99	1.33742
1683.51	1.46392
1685.04	1.18665
1686.56	0.744987
1688.09	1.05567
1689.61	1.05494
1691.13	0.779778
1692.66	0.321959
1694.18	0.468139
1695.71	1.08934
1697.23	0.777828
1698.75	0.338549
1700.27	0.665924
1701.8	0.281194
1703.32	0.69839
1704.84	0.477162
1706.36	0.365092
1707.88	0.289345
1709.4	-0.0406132
1710.92	0.519274
1712.44	0.334955
1713.96	0.29601
1715.48	-0.104862
1717	0.471574
1718.52	0.0710559
1720.04	0.357312
1721.56	0.192195
1723.07	-0.188541
1724.59	0.0806093
1726.11	0.422509
1727.63	0.513187
1729.14	-0.0252109
1730.66	-0.0572839
1732.18	0.160892
1733.69	0.425006
1735.21	0.61538
1736.72	0.32287
1738.24	-0.154456
1739.75	0.157978
1741.27	0.236289
1742.78	0.173526
1744.3	0.209692
1745.81	0.104045
1747.32	-0.150688
1748.84	-0.0428953
1750.35	-0.225494
1751.86	0.304254
1753.37	0.0110335
1754.89	-0.208964
1756.4	-0.290792
1757.91	0.0973892
1759.42	0.138267
1760.93	0.100757
1762.44	-0.094461
1763.95	-0.258062
1765.46	-0.17893
1766.97	-0.0186353
1768.48	0.238403
1769.99	0.144842
1771.5	-0.10908
1773.01	0.286506
1774.52	-0.0230098
1776.03	0.138967
1777.53	0.136373
1779.04	0.0927296
1780.55	-0.134704
1782.06	0.121296
1783.56	-0.0345058
1785.07	0.128613
1786.57	0.165602
1788.08	-0.171751
1789.59	0.0908632
1791.09	0.0750976
1792.6	-0.180828
1794.1	0.173251
1795.6	-0.136176
1797.11	-0.0330896
1798.61	0.0544286
1800.12	-0.168249
1801.62	0.0810084
1803.12	0.0408735
1804.63	0.08605
1806.13	0.0613565
1807.63	0.291597
1809.13	-0.00935555
1810.63	0.0643158
1812.14	-0.445578
1813.64	0.293055
1815.14	0.0576296
1816.64	0.107585
1818.14	0.116035
1819.64	0.3067
1821.14	0.222451
1822.64	0.263614
1824.14	0.0955129
1825.63	0.288929
1827.13	0.334422
1828.63	0.269371
1830.13	-0.0386138
1831.63	-0.147274
1833.12	0.109822
1834.62	-0.128525
1836.12	0.0309935
1837.62	0.047781
1839.11	0.240334
1840.61	-0.167785
1842.1	0.00121689
1843.6	0.174271
1845.09	0.161034
1846.59	0.231481
1848.08	0.212327
1849.58	0.148221
1851.07	0.449599
1852.57	0.479357
1854.06	-0.269939
1855.55	0.370511
1857.04	0.408011
1858.54	0.0899968
1860.03	0.440786
1861.52	0.0663671
1863.01	0.40344
1864.5	0.139603
1866	0.282233
1867.49	-0.0285335
1868.98	0.118524
1870.47	0.103435
1871.96	0.196288
1873.45	0.0550714
1874.94	0.132743
1876.43	0.0889997
1877.92	0.366712
1879.41	0.47604
1880.89	0.376883
1882.38	0.0575285
1882.48	0.0342441
1883.97	-0.121946
1885.47	0.313858
1886.96	0.382791
1888.46	0.607889
1889.95	0.467508
1891.44	0.258495
1892.94	0.381251
1894.43	0.470692
1895.92	0.231063
1897.41	0.513791
1898.9	0.570431
1900.4	0.22613
1901.89	0.384994
1903.38	0.211921
1904.87	0.020411
1906.36	0.106436
1907.85	0.157596
1909.34	0.313318
1910.83	0.139988
1912.32	0.297072
1913.81	0.142365
1915.29	0.386629
1916.78	0.387814
1918.27	0.2499
1919.76	0.284961
1921.25	0.233304
1922.74	-0.406754
1924.22	0.166005
1925.71	0.306722
1927.2	0.344425
1928.68	0.0710096
1930.17	0.0399461
1931.65	0.112169
1933.14	0.58151
1934.63	0.252918
1936.11	0.494183
1937.59	0.28462
1939.08	0.489623
1940.56	0.211085
1942.05	0.347732
1943.53	0.105587
1945.01	0.416131
1946.5	0.261335
1947.98	-0.117573
1949.46	0.261206
1950.94	0.105088
1952.43	0.430216
1953.91	0.651267
1955.39	0.253309
1956.87	0.543086
1958.35	0.077899
1959.83	-0.00882626
1961.31	0.693719
1962.79	0.521702
1964.27	0.264013
1965.75	0.605526
1967.23	-0.149275
1968.71	0.55021
1970.19	0.17142
1971.67	0.561579
1973.14	0.404926
1974.62	0.367961
1976.1	0.314139
1977.58	0.430857
1979.05	0.258128
1980.53	0.408795
1982.01	0.423126
1983.48	0.318291
1984.96	0.654647
1986.43	0.227051
1987.91	0.461038
1989.38	0.288477
1990.86	0.353606
1992.33	0.165695
1993.81	-0.00433588
1995.28	0.586869
1996.76	0.485383
1998.23	0.113721
1999.7	0.552331
2001.18	0.433213
2002.65	0.347527
2004.12	0.413519
2005.59	0.159547
2007.06	0.159007
2008.54	0.310743
2010.01	0.378914
2011.48	0.0266528
2012.95	0.600246
2014.42	0.348735
2015.89	0.433196
2017.36	0.382322
2018.83	0.582977
2020.3	0.161288
2021.77	-0.0081954
2023.24	0.359856
2024.71	0.342281
2026.17	0.577253
2027.64	0.32691
2029.11	0.0945311
2030.58	0.668376
2032.04	0.00149679
2033.51	0.0899777
2034.98	0.6991
2036.45	-0.0355697
2037.91	0.304317
2039.38	0.324718
2040.84	0.361868
2042.31	0.416136
2043.77	0.622389
2045.24	0.476162
2046.7	0.66712
2048.17	0.235272
2049.63	0.59484
2051.1	0.346939
2052.56	0.451811
2054.02	0.757638
2055.48	0.353728
2056.95	0.555762
2058.41	0.588472
2059.87	0.755746
2061.33	0.384404
2062.8	0.636749
2064.26	0.755153
2065.72	0.470467
2067.18	0.220122
2068.64	0.289991
2070.1	0.595784
2071.56	0.716513
2073.02	0.618264
2074.48	0.502928
2075.94	0.774621
2077.4	0.54081
2078.86	0.188792
2080.31	0.459478
2081.77	0.510788
2083.23	0.527869
2084.69	0.106813
2086.14	0.24058
2087.6	0.171975
2089.06	0.640891
2090.52	0.487654
2091.97	0.871743
2093.43	0.567375
2094.88	0.732697
2096.34	0.227009
2097.79	0.692883
2099.25	0.555058
2100.7	0.467335
2102.16	1.01488
2103.61	0.643886
2105.07	0.324431
2106.52	0.807146
2107.97	0.806736
2109.43	1.02339
2110.88	0.822742
2112.33	0.471186
2113.78	0.584922
2115.24	0.51416
2116.69	0.808517
2118.14	0.9697
2119.59	0.799736
2121.04	0.913564
2122.49	0.945975
2123.94	0.863511
2125.39	0.98059
2126.84	1.08087
2128.29	0.865328
2129.74	1.42759
2131.19	1.1601
2132.64	1.05772
2134.09	1.23663
2135.54	1.38292
2136.98	1.53032
2138.43	1.39831
2139.88	1.05311
2141.33	1.23814
2142.77	1.12663
2144.22	1.29681
2145.67	1.50036
2147.11	1.52169
2148.56	1.50936
2150.01	1.71162
2151.45	1.3663
2152.9	1.74912
2154.34	1.51814
2155.79	1.25365
2157.23	1.60215
2158.67	1.48738
2160.12	1.57252
2161.56	1.80833
2163	2.07909
2164.45	1.52209
2165.89	1.77854
2167.33	2.40082
2168.78	2.17512
2170.22	1.6648
2171.66	2.03398
2173.1	1.93566
2174.54	1.91924
2175.98	1.41999
2177.42	1.56953
2178.86	1.52014
2180.3	1.23883
2181.74	1.59004
2183.18	1.47621
2184.62	1.8283
2186.06	1.7314
2187.5	1.90071
2188.94	1.63741
2190.38	1.92328
2191.82	1.8261
2193.25	1.96134
2194.69	1.71246
2196.13	1.56193
2197.57	1.54287
2199	2.1209
2200.44	1.06886
2201.88	1.41284
2203.31	1.64072
2204.75	1.63711
2206.18	1.28635
2207.62	1.35053
2209.05	0.768688
2210.49	1.1964
2211.92	1.17618
2213.36	0.890854
2214.79	1.10133
2216.22	1.62561
2217.66	1.17688
2219.09	1.02643
2220.52	0.90978
2221.96	0.974607
2223.39	1.10472
2224.82	1.08538
2226.25	1.24562
2227.68	1.02605
2229.11	1.34778
2230.55	0.864257
2231.98	0.496317
2233.41	0.66956
2234.84	0.646789
2236.27	0.935373
2237.7	0.702364
2239.12	0.879062
2240.55	0.796251
2241.98	0.617078
2243.41	0.993459
2244.84	0.815603
2246.27	0.735089
2247.7	0.1967
2249.12	0.569914
2250.55	0.50111
2251.98	0.593778
2253.41	0.880724
2254.83	0.939874
2256.26	0.707857
2257.68	0.429317
2259.11	0.607417
2260.54	0.544436
2261.96	0.321032
2263.39	0.748282
2264.81	0.233771
2266.24	0.954151
2267.66	0.861229
2269.08	0.441978
2270.51	0.607845
2271.93	0.610551
2273.35	0.645672
2274.78	0.76231
2276.2	0.292586
2277.62	0.588758
2279.04	0.542785
2280.47	0.480428
2281.89	0.238519
2283.31	0.290075
2284.73	0.309038
2286.15	0.279197
2287.57	0.527181
2288.99	0.563328
2290.41	0.403744
2291.83	0.211546
2293.25	0.460831
2294.67	0.792124
2296.09	0.665313
2297.51	0.423713
2298.93	0.493199
2300.35	0.284259
2301.76	0.452477
2303.18	0.506241
2304.6	0.543765
2306.02	0.400614
2307.44	0.273482
2308.85	0.573198
2310.27	0.313585
2311.69	0.481144
2313.1	0.500677
2314.52	0.405306
2315.93	0.392751
2317.35	0.41374
2318.76	-0.207785
2320.18	0.439832
2321.59	0.509713
2323.01	0.462631
2324.42	0.16616
2325.83	0.198037
2327.25	0.44296
2328.66	0.785873
2330.07	0.716733
2331.49	-0.092504
2332.9	0.021368
2334.31	0.547165
2335.72	0.233948
2337.13	0.446829
2338.55	0.0834031
2339.96	0.606754
2341.37	0.373329
2342.78	0.00849485
2344.19	0.201709
2345.6	-0.16238
2347.01	0.162123
2348.42	-0.0211954
2349.83	-0.0082593
2351.24	0.216589
2352.65	0.309663
2354.05	0.0754771
2355.46	0.379129
2356.87	0.242225
2358.28	0.138113
2359.69	-0.225668
2361.09	0.287842
2362.5	-0.0266356
2363.91	0.0319877
2365.31	0.0904269
2366.72	0.0195808
2368.13	0.110766
2369.53	0.121897
2370.94	-0.15616
2372.34	0.292088
2373.75	-0.0161848
2375.15	0.191197
2376.56	0.221145
2377.96	0.266326
2379.37	0.262045
2380.77	0.288578
2382.17	0.185658
2383.58	0.0181913
2384.98	0.122865
2386.38	0.0917692
2387.79	-0.0662751
2389.19	0.56613
2390.59	0.401856
2391.99	0.2706
2393.39	0.124385
2394.8	0.0266666
2396.2	0.152142
2397.6	-0.182889
2399	0.134144
2400.4	0.117808
2401.8	0.324092
2403.2	0.196844
2404.6	0.180511
2406	0.147664
2407.4	0.352132
2408.79	0.555788
2410.19	0.204156
2411.59	0.0906849
2412.99	-0.101262
2414.39	0.166989
2415.78	0.0879898
2417.18	0.136662
2418.58	0.581909
2419.98	0.172418
2421.37	-0.110592
2422.77	-0.188
2424.16	0.162166
2425.56	0.338142
2426.96	-0.00845909
2428.35	-0.0850663
2429.74	0.187889
2431.14	0.207756
2432.53	0.323019
2433.93	0.0886049
2435.32	0.0597076
2436.72	-0.0497613
2438.11	0.15738
2439.5	0.268163
2440.9	-0.0823598
2442.29	0.0590434
2443.68	0.279453
2445.07	0.103008
2446.47	0.180266
2447.86	0.415826
2449.25	0.42939
2450.64	0.237286
2452.03	0.10905
2453.42	0.582772
2454.81	-0.0346313
2456.2	-0.0976729
2457.59	-0.0813656
2458.98	-0.0335302
2460.37	0.0929489
2461.76	0.18715
2463.15	-0.509593
2464.54	-0.0528951
2465.93	-0.102167
2467.32	-0.104113
2468.7	0.0990229
2470.09	0.443762
2471.48	0.425256
2472.87	0.264454
2474.25	0.197713
2475.64	0.350786
2477.03	0.283267
2478.41	0.215809
2479.8	0.132893
2481.18	0.112961
2482.57	0.108684
2483.95	-0.146407
2485.34	-0.0106816
2486.72	0.280155
2488.11	0.0389085
2489.49	0.140547
2490.88	-0.0850687
2492.26	-0.0921001
2493.65	-0.207022
2495.03	0.237741
2496.41	-0.0303082
2497.79	-0.111419
2499.18	-0.0683675
2500.56	0.0517306
2501.94	0.124698
2503.32	-0.34364
2504.7	0.14465
2506.09	0.18458
2507.47	-0.0374269
2508.85	0.340737
2510.23	0.242329
2511.61	0.0985937
2512.99	0.216324
2514.37	0.47239
2515.75	-0.128364
2517.13	-0.00879622
2518.51	0.0804825
2519.89	0.0170064
2521.26	0.411599
2522.64	-0.0647941
2524.02	0.0231743
2525.4	-0.0419407
2526.78	-0.000561237
2528.15	0.0866952
2529.53	0.0834188
2530.91	-0.00983381
2532.28	0.0198178
2533.66	0.126478
2535.04	-0.0397625
2536.41	0.158615
2537.79	0.174186
2539.16	0.128276
2540.54	0.0817542
2541.91	0.0805097
2543.29	0.0339508
2544.66	-0.072618
2546.04	0.231303
2547.41	-0.0705667
2548.78	-0.159451
2550.16	0.222126
2551.53	-0.0642786
2552.9	0.119074
2554.27	0.149872
2555.65	0.119277
2557.02	0.148939
2558.39	0.117827
2559.76	0.223372
2561.13	0.344451
2562.51	0.208384
2563.88	-0.184805
2565.25	0.119442
2566.62	-0.0307279
2567.99	0.349604
2569.36	0.169221
2570.73	0.155554
2572.1	0.12677
2573.47	0.173849
2574.84	0.205861
2576.2	0.25308
2577.57	-0.109118
2578.94	-0.168256
2580.31	-0.0153565
2581.68	-0.0598736
2583.05	0.0166349
2584.41	-0.210242
2585.78	0.0934348
2587.15	-0.0878654
2588.51	0.0947518
2589.88	-0.0256438
2591.24	0.0508976
2592.61	0.081635
2593.98	-0.0548687
2595.34	0.186532
2596.71	-0.178515
2598.07	0.121861
2599.44	0.164575
2600.8	-0.170439
2602.16	-0.202658
2603.53	0.188335
2604.89	0.534199
2606.26	0.231361
2607.62	0.0943847
2608.98	-0.3596
2610.34	-0.0156355
2611.71	-0.335362
2613.07	0.12652
2614.43	0.0611677
2615.79	0.145804
2617.15	0.0955334
2618.52	0.165642
2619.88	-0.0779963
2621.24	0.127907
2622.6	0.304059
2623.96	0.181525
2625.32	0.402356
2626.68	-0.346597
2628.04	-0.230429
2629.4	0.302271
2630.75	-0.0140676
2632.11	0.116008
2633.47	-0.0957942
2634.83	-0.262736
2636.19	0.19346
2637.55	0.0561857
2638.9	-0.0956225
2640.26	0.270762
2641.62	-0.117177
2642.98	-0.0315752
2644.33	-0.0492873
2645.69	-0.33256
2647.04	-0.0702429
2648.4	0.117516
2649.76	-0.0930047
2651.11	0.299131
2652.47	-0.0440865
2653.82	-0.166364
2655.18	-0.0533242
2656.53	-0.188629
2657.88	0.145508
2659.24	-0.0759254
2660.59	-0.135956
2661.95	0.0524392
2663.3	-0.051919
2664.65	-0.0107765
2666	0.292284
2667.36	0.201009
2668.71	0.0661287
2670.06	0.353642
2671.41	0.248582
2672.76	0.260426
2674.12	0.200151
2675.47	0.0968661
2676.82	0.12471
2678.17	0.18206
2679.52	0.051537
2680.87	0.182837
2682.22	-0.177878
2683.57	0.274271
2684.92	0.0166698
2686.27	0.049489
2687.62	-0.0628872
2688.97	-0.0455179
2690.31	0.289995
2691.66	-0.130724
2693.01	0.115074
2694.36	-0.205628
2695.71	0.0680742
2697.05	0.110193
2698.4	0.0374217
2699.75	-0.352583
2701.09	0.113051
2702.44	0.275847
2703.78	0.0483627
2705.13	-0.323868
2706.48	-0.0291982
2707.82	0.134974
2709.17	0.226409
2710.51	0.303103
2711.86	0.466815
2713.2	0.151005
2714.54	-0.237718
2715.89	0.0275927
2717.23	0.61294
2718.57	-0.110891
2719.92	-0.107766
2721.26	-0.0176406
2722.6	0.144939
2723.95	0.219862
2725.29	0.17802
2726.63	-0.00964737
2727.97	0.253653
2729.31	0.080163
2730.65	0.226726
2732	0.155011
2733.34	-0.0620799
2734.68	-0.0317044
2736.02	0.362446
2737.36	0.363995
2738.7	0.365544
2740.04	0.0615392
2741.38	0.149844
2742.72	-0.067636
2744.05	0.0923467
2745.39	0.0919604
2746.73	0.207432
2748.07	-0.141822
2749.41	0.00257874
2750.75	0.147021
2752.08	0.190075
2753.42	-0.288448
2754.76	0.0882916
2756.09	0.0883331
2757.43	0.030592
2758.77	0.277084
2760.1	0.0895839
2761.44	0.134065
2762.78	-0.211763
2764.11	0.122748
2765.44	0.384902
2766.78	0.125874
2768.11	0.358026
2769.45	-0.00376177
2770.78	-0.0194654
2772.12	-0.108367
2773.45	0.090703
2774.78	-0.186734
2776.12	0.0260301
2777.45	0.0803971
2778.78	-0.0662217
2780.12	0.434448
2781.45	0.231029
2782.78	-0.129902
2784.11	-0.0744672
2785.44	0.138542
2786.78	-0.278797
2788.11	0.0204768
2789.44	-0.0949006
2790.77	0.0765424
2792.1	-0.108976
2793.43	0.0776296
2794.76	-0.207428
2796.09	0.379014
2797.42	0.207664
2798.75	-0.0782156
2800.08	0.235259
2801.4	0.0917606
2802.73	-0.0659928
2804.06	0.16101
2805.39	-0.153775
2806.72	-0.0273647
2808.05	0.325983
2809.37	0.166839
2810.7	0.433993
2812.03	-0.00833273
2813.35	0.146439
2814.68	-0.222408
2816.01	0.147098
2817.33	0.177199
2818.66	0.17942
2819.98	0.550182
2821.31	0.141078
2822.63	0.0858288
2823.96	0.0868073
2825.28	0.285828
2826.61	0.173241
2827.93	0.500005
2829.25	0.246693
2830.58	0.446782
2831.9	0.463011
2833.23	0.394278
2834.55	0.452705
2835.87	0.383383
2837.19	0.525924
2838.52	0.540754
2839.84	0.244296
2841.16	0.669117
2842.48	0.599327
2843.8	0.897514
2845.12	1.02663
2846.44	1.01491
2847.77	1.21548
2849.08	1.09102
2850.4	1.17835
2851.73	1.25117
2853.05	1.25291
2854.36	1.31088
2855.68	1.45345
2857	1.31343
2858.32	1.45599
2859.64	1.51376
2860.96	1.35958
2862.28	2.03814
2863.59	2.19388
2864.91	1.9119
2866.23	2.01092
2867.55	2.11009
2868.86	2.30826
2870.18	2.25296
2871.5	2.46562
2872.81	1.98743
2874.13	2.91787
2875.44	2.73414
2876.76	3.01423
2878.07	2.95562
2879.39	2.93899
2880.7	2.69774
2882.02	2.76648
2883.33	3.00456
2884.65	2.72381
2885.96	2.51388
2887.28	2.99183
2888.59	2.72552
2889.9	3.00579
2891.21	2.90655
2892.53	2.54059
2893.84	2.87526
2895.15	3.30791
2896.46	2.81707
2897.78	3.08303
2899.09	3.06991
2900.4	3.35122
2901.71	3.47901
2903.02	3.25725
2904.33	3.46923
2905.64	3.80731
2906.95	3.7542
2908.26	3.98153
2909.57	4.04176
2910.88	3.87858
2912.19	4.05127
2913.5	3.95738
2914.81	4.28231
2916.12	4.15776
2917.43	4.50775
2918.73	4.85665
2920.04	5.1212
2921.35	4.63113
2922.66	5.07894
2923.96	5.49991
2925.27	5.54448
2926.58	5.58962
2927.88	5.24337
2929.19	5.4979
2930.5	5.5422
2931.8	5.46023
2933.11	5.83928
2934.41	5.743
2935.72	5.7167
2937.02	5.41104
2938.33	5.81822
2939.63	5.17759
2940.94	5.52952
2942.24	5.30926
2943.54	4.93626
2944.85	5.05357
2946.15	4.94821
2947.45	5.05317
2948.76	4.61212
2950.06	4.4778
2951.36	4.43989
2952.66	4.42832
2953.97	4.07946
2955.27	4.26227
2956.57	4.30573
2957.87	4.05695
2959.17	4.00636
2960.47	4.09813
2961.77	3.93945
2963.07	3.73912
2964.37	3.56612
2965.67	3.63049
2966.97	3.21568
2968.27	3.53046
2969.57	3.16975
2970.87	3.28693
2972.17	2.78534
2973.47	3.07179
2974.77	2.72493
2976.07	3.27846
2977.36	2.71867
2978.66	2.93184
2979.96	2.52408
2981.26	2.66422
2982.55	2.60681
2983.85	2.74646
2985.15	2.60578
2986.44	2.45232
2987.74	2.03308
2989.03	2.31722
2990.33	1.8708
2991.63	1.77527
2992.92	1.86158
2994.21	1.8906
2995.51	1.60961
2996.8	1.97402
2998.1	1.46779
2999.39	1.38295
3000.69	1.25648
3001.98	1.21459
3003.27	1.31314
3004.57	1.03343
3005.86	1.07573
3007.15	1.0055
3008.44	0.962605
3009.74	0.541482
3011.03	0.595377
3012.32	0.983881
3013.61	0.911324
3014.9	1.07611
3016.19	0.85109
3017.48	0.724335
3018.78	0.890277
3020.07	0.763991
3021.36	0.470668
3022.65	0.649262
3023.94	0.64635
3025.23	0.642771
3026.51	0.597383
3027.8	0.483165
3029.09	0.604945
3030.38	0.575631
3031.67	0.505991
3032.96	0.437156
3034.24	0.36856
3035.53	0.409924
3036.82	0.698385
3038.11	0.461475
3039.39	0.0858755
3040.68	0.355915
3041.97	0.569554
3043.25	0.41237
3044.54	0.420402
3045.83	0.785058
3047.11	0.371956
3048.4	0.234201
3049.68	0.630351
3050.97	0.427052
3052.25	0.238003
3053.54	0.908526
3054.82	0.664268
3056.11	0.801084
3057.39	1.00498
3058.67	0.635683
3059.96	0.37542
3061.24	0.659952
3062.52	0.56399
3063.81	0.972158
3065.09	0.456858
3066.37	0.826292
3067.65	0.829389
3068.94	0.329573
3070.22	0.713378
3071.5	0.402826
3072.78	0.458466
3074.06	0.662539
3075.34	0.17262
3076.62	0.5248
3077.9	0.170988
3079.18	0.510139
3080.46	0.212582
3081.74	0.201023
3083.02	0.529471
3084.3	0.112183
3085.58	0.0746984
3086.86	0.538984
3088.14	0.0118113
3089.42	0.149091
3090.69	0.448704
3091.97	0.0967636
3093.25	0.233259
3094.53	0.342686
3095.8	-0.049499
3097.08	0.209107
3098.36	0.0879531
3099.63	0.183434
3100.91	0.00774956
3102.19	0.184182
3103.46	0.00858927
3104.74	0.036365
3106.01	-0.0978551
3107.29	0.404527
3108.56	0.122653
3109.84	0.382832
3111.11	0.0480232
3112.39	0.0927119
3113.66	0.273147
3114.94	0.00625086
3116.21	-0.0172086
3117.48	0.0128183
3118.76	0.272501
3120.03	-0.024869
3121.3	0.0295525
3122.57	-0.296115
3123.85	0.258691
3125.12	-0.0264902
3126.39	0.216586
3127.66	-0.176122
3128.93	0.256695
3130.21	-0.0272365
3131.48	0.148518
3132.75	0.0131149
3134.02	-0.136118
3135.29	0.105747
3136.56	0.130881
3137.83	-0.0602922
3139.1	0.031261
3140.37	0.49923
3141.64	0.0114465
3142.91	0.0216851
3144.17	0.17977
3145.44	0.109839
3146.71	-0.0803056
3147.98	-0.216288
3149.25	-0.25812
