200.533	0.336221
202.348	0.36383
204.162	0.392335
205.976	0.470145
207.792	0.523672
209.605	0.406357
211.418	-0.00347328
213.23	0.435353
215.044	0.435884
216.856	0.241821
218.667	0.144832
220.478	0.290405
222.289	0.388108
224.102	-0.238894
225.912	0.101608
227.721	0.562501
229.531	-0.1365
231.34	-0.232141
233.148	0.106114
234.956	0.588925
236.766	0.301104
238.574	-0.442816
240.381	-0.292912
242.188	0.0758209
243.994	0.0598459
245.801	0.0436058
247.606	-0.191487
249.412	0.102078
251.217	-0.283252
253.024	0.0290833
254.828	0.411864
256.632	0.0946198
258.436	-0.149397
260.239	0.258541
262.042	0.451113
263.845	0.0427742
265.647	-0.22031
267.449	-0.242352
269.25	-0.192492
271.052	0.314642
272.852	0.145619
274.653	-0.193528
276.453	0.30958
278.253	0.569695
280.052	-0.280232
281.852	0.0242939
283.65	0.0140285
285.449	0.338798
287.247	0.398156
289.044	-0.309896
290.842	0.636747
292.639	0.218627
294.436	0.137261
296.232	0.224536
298.028	0.14529
299.821	0.233658
301.617	-0.0126534
303.412	-0.307374
305.206	-0.173413
307	0.436559
308.794	0.568844
310.588	0.248761
312.381	0.382451
314.172	0.112649
315.964	0.32068
317.756	0.220649
319.548	0.360063
321.34	0.524373
323.131	-0.0259638
324.921	0.306257
326.71	0.280718
328.5	0.756631
330.29	0.132719
332.079	-0.0385141
333.868	-0.57032
335.654	0.283754
337.443	0.250501
339.231	-0.023859
341.018	0.250602
342.804	-0.527677
344.591	0.223798
346.377	-0.00419807
348.163	-0.0882483
349.947	0.13843
351.733	-0.160105
353.518	0.0659122
355.303	1.17341
357.085	0.490509
358.869	0.140685
360.653	0.195078
362.435	-0.251165
364.218	0.277443
366.001	0.115575
367.781	-0.0467348
369.563	-0.162086
371.345	0.172043
373.124	0.5521
374.905	0.670987
376.686	0.553597
378.464	0.271858
380.244	-0.0556555
382.022	0.0890942
383.801	0.117087
385.58	0.404697
387.357	0.340607
389.135	0.559405
390.911	-0.0430813
392.689	0.036293
394.466	-0.00127602
396.241	-0.226465
398.018	0.0415878
399.792	-0.0663319
401.568	0.365575
403.341	0.468056
405.117	0.0531607
406.889	0.0368948
408.664	-0.00337505
410.436	0.120374
412.21	0.26756
413.981	0.391575
415.755	0.0703745
417.525	-0.226707
419.298	0.391888
421.068	0.259766
422.84	0.174314
424.609	0.4873
426.38	-0.0926151
428.149	0.265777
429.919	0.154241
431.688	0.113099
433.455	0.259973
435.225	0.40713
436.992	0.34301
438.76	0.48948
440.527	0.30609
442.293	0.121032
444.06	0.145264
445.826	0.495812
447.593	-0.0446234
449.357	0.16376
451.122	-0.212203
452.888	-0.0970755
454.651	0.0413609
456.415	-0.566245
458.18	-0.404539
459.942	0.641203
461.705	0.17458
463.469	0.197932
465.23	0.54862
466.991	0.0187817
468.752	0.0953217
470.515	0.359532
472.275	0.135848
474.035	0.516599
475.797	0.10422
477.556	0.0858021
479.315	0.135718
481.073	0.0217648
482.834	0.164166
484.592	0.610354
486.349	0.382792
488.106	0.133593
489.863	-0.0208893
491.622	0.455573
493.378	0.115612
495.134	0.242939
496.889	0.48747
498.645	0.638472
500.401	0.672081
502.156	0.259191
503.91	-0.131632
505.664	0.0401525
507.417	0.422625
509.171	0.239493
510.923	0.313713
512.678	0.433655
514.43	0.43464
516.182	0.269763
517.933	0.362629
519.684	0.431057
521.435	0.898192
523.186	0.378138
524.936	0.656453
526.686	0.113425
528.435	0.743282
530.184	0.52877
531.933	0.595175
533.682	0.730999
535.43	0.491354
537.18	0.578019
538.927	0.219733
540.674	0.32759
542.421	0.0385695
544.167	0.564131
545.913	0.344893
547.659	0.590486
549.403	0.279408
551.148	0.0849895
552.893	0.330616
554.637	0.622101
556.381	0.336193
558.125	0.189554
559.868	0.734766
561.611	-0.446857
563.354	0.0529461
565.097	0.0698328
566.839	0.202093
568.581	0.357851
570.322	0.4685
572.063	0.0985336
573.802	0.0741949
575.542	0.0972309
577.283	0.25937
579.022	-0.0363817
580.762	-0.722233
582.501	0.636494
584.24	0.0418682
585.976	0.296848
587.714	0.389875
589.452	0.596929
591.19	0.343042
592.927	0.318786
594.663	0.478466
596.398	0.339101
598.134	0.0846767
599.87	0.10603
601.605	0.425714
603.338	-0.01474
605.073	0.164566
606.808	-0.392642
608.542	0.0375605
610.274	-0.106575
612.007	-0.181336
613.74	-0.11781
615.473	0.427505
617.204	0.124889
618.936	-0.0176353
620.668	0.663089
622.397	0.449816
624.128	0.144652
625.859	0.662287
627.588	0.381219
629.318	0.307532
631.048	0.852001
632.775	0.736539
634.505	0.576334
636.233	0.392933
637.96	0.641708
639.688	0.751072
641.416	0.515565
643.142	0.392225
644.869	0.951056
646.594	0.462871
648.32	0.409016
650.045	0.766969
651.771	0.628373
653.496	0.220395
655.219	0.155972
656.944	0.184422
658.667	0.46444
660.391	0.333923
662.113	0.818432
663.837	1.05021
665.558	0.571243
667.281	0.707758
669.002	1.14102
670.724	0.637244
672.444	0.45526
674.166	0.549993
675.885	0.532097
677.606	0.92825
679.325	0.613279
681.045	0.480742
682.763	0.346432
684.483	0.716587
686.2	1.13137
687.917	0.969134
689.636	0.575533
691.352	1.47122
693.07	0.776931
694.786	0.680899
696.501	0.653112
698.219	1.01563
699.933	0.778493
701.65	1.18448
703.364	0.302119
705.078	0.70646
706.793	0.926154
708.506	1.14515
710.219	1.06558
711.934	0.940024
713.646	1.54632
715.358	0.825982
717.071	1.04294
718.782	1.32805
720.493	0.701193
722.204	0.918082
723.916	1.24839
725.626	1.25978
727.336	1.31631
729.045	1.07737
730.756	0.815796
732.464	1.14323
734.173	1.26622
735.881	1.23082
737.59	1.17323
739.297	1.1615
741.004	0.88017
742.711	1.09588
744.417	0.952312
746.125	0.967638
747.831	1.29913
749.537	1.2493
751.242	1.11067
752.946	1.9404
754.651	1.12933
756.357	1.17435
758.061	1.28831
759.764	1.42622
761.467	1.52023
763.17	1.45689
764.872	1.32544
766.575	1.30576
768.276	1.39746
769.978	1.12549
771.679	1.80145
773.382	1.72992
775.083	2.0876
776.783	1.76748
778.483	1.42592
780.182	2.03551
781.882	2.26184
783.581	2.12632
785.279	1.21998
786.978	2.14497
788.676	1.50521
790.373	1.45114
792.071	1.62078
793.768	1.78871
795.464	2.06888
797.161	1.80851
798.857	1.61764
800.552	1.90129
802.248	2.18593
803.941	1.72882
805.636	1.76647
807.33	1.53369
809.024	1.74922
810.718	1.46974
812.412	2.51279
814.105	1.58204
815.798	2.42108
817.49	1.31275
819.183	1.97184
820.873	1.93777
822.564	1.92642
824.256	1.84894
825.947	2.21851
827.637	2.23336
829.328	2.38441
831.016	2.00383
832.705	1.78162
834.395	1.44964
836.084	1.67576
837.772	1.6118
839.459	1.65836
841.147	1.27913
842.835	1.50179
844.522	1.34423
846.209	2.14835
847.894	2.08259
849.581	2.24279
851.267	1.68898
852.953	2.12215
854.637	1.59214
856.322	1.8021
858.007	1.71914
859.689	1.92704
861.374	1.36798
863.058	1.43764
864.739	1.30339
866.423	1.32605
868.106	1.10011
869.787	1.43752
871.469	1.07548
873.151	1.25461
874.831	1.23065
876.512	1.88368
878.193	1.58895
879.872	1.33919
881.553	1.22448
883.231	1.31228
884.911	1.19594
886.591	1.41693
888.268	1.90713
889.947	1.33556
891.623	0.830925
893.302	1.38424
894.978	1.19313
896.656	1.85559
898.331	1.88706
900.008	1.1325
901.683	1.58877
903.359	1.50638
905.033	1.17824
906.709	0.828779
908.383	1.21638
910.058	1.04714
911.731	1.01251
913.405	0.667384
915.078	1.67758
916.752	1.13315
918.423	0.9886
920.096	1.68573
921.768	0.877914
923.438	0.823933
925.111	0.881841
926.781	1.58154
928.452	1.50969
930.122	0.776988
931.791	1.56747
933.462	0.681387
935.13	1.44996
936.799	1.49094
938.468	1.68708
940.136	1.31089
941.803	0.891535
943.472	0.958056
945.139	1.1348
946.805	0.979465
948.473	1.37434
950.139	0.950858
951.804	0.769238
953.471	0.389317
955.136	0.870856
956.801	1.00189
958.465	1.44462
960.131	0.764546
961.794	1.12303
963.458	0.774505
965.12	1.26452
966.785	1.08881
968.447	0.97693
970.109	1.15084
971.771	0.704639
973.432	1.36475
975.095	0.964575
976.756	1.18521
978.417	1.11966
980.077	1.24271
981.737	1.34331
983.396	0.523972
985.057	1.31891
986.716	1.31499
988.375	1.37582
990.033	0.55097
991.691	0.831439
993.349	1.15561
995.006	1.08216
996.663	0.58972
998.32	1.24432
999.976	0.862283
1001.63	1.55937
1003.29	2.01308
1004.95	1.41029
1006.6	1.55537
1008.26	0.778097
1009.91	0.770207
1011.56	1.00392
1013.22	1.12814
1014.87	1.07734
1016.53	1.13641
1018.18	1.0427
1019.83	1.19037
1021.48	1.05465
1023.14	1.09484
1024.79	0.720624
1026.44	0.652916
1028.09	0.628914
1029.74	0.975731
1031.39	1.12473
1033.04	1.22851
1034.69	0.458003
1036.34	0.842806
1037.99	0.594593
1039.64	0.607906
1041.29	0.882775
1042.94	1.24537
1044.58	0.392469
1046.23	1.0188
1047.88	0.973303
1049.52	0.516612
1051.17	0.994884
1052.82	0.800542
1054.46	0.67161
1056.11	0.433925
1057.75	0.695889
1059.4	0.653114
1061.04	1.34907
1062.69	0.848409
1064.33	0.955759
1065.98	0.714312
1067.62	0.667619
1069.26	0.620109
1070.9	0.78924
1072.55	0.589109
1074.19	0.866911
1075.83	0.407943
1077.47	0.991274
1079.11	0.491297
1080.76	0.295574
1082.4	0.620235
1084.04	0.683886
1085.68	0.57268
1087.32	0.828127
1088.95	1.16807
1090.59	0.467443
1092.23	0.804558
1093.87	0.427976
1095.51	0.742648
1097.15	1.27304
1098.78	0.899173
1100.42	0.914843
1102.06	0.587914
1103.69	0.843549
1105.33	0.992676
1106.97	1.18526
1108.6	0.9259
1110.24	0.364626
1111.87	0.769485
1113.51	0.442213
1115.14	0.436263
1116.77	0.0436993
1118.41	0.552122
1120.04	0.974777
1121.67	0.541356
1123.31	0.515917
1124.94	0.85504
1126.57	0.916664
1128.2	0.358804
1129.83	0.571455
1131.47	0.998328
1133.1	1.25436
1134.72	0.462805
1136.36	0.803606
1137.98	0.780087
1139.62	0.371043
1141.24	0.239027
1142.87	0.682845
1144.5	0.571832
1146.13	0.482844
1147.76	0.0111561
1149.38	0.0943871
1151.01	0.00756073
1152.64	0.580895
1154.27	0.621403
1155.89	-0.0620728
1157.52	-0.000569344
1159.14	0.125008
1160.77	0.251234
1162.39	0.420878
1164.02	-0.0252361
1165.64	0.23069
1167.27	0.252495
1168.89	0.018259
1170.51	0.271545
1172.14	0.310554
1173.76	0.135715
1175.38	-0.167195
1177	0.165887
1178.63	0.0961819
1180.25	-0.205677
1181.87	0.0647221
1183.49	-0.150909
1185.11	-0.0704975
1186.73	0.832495
1188.35	0.656691
1189.97	0.289774
1191.59	0.195707
1193.21	0.689265
1194.83	0.403995
1196.45	0.287266
1198.07	0.255419
1199.68	0.266962
1201.3	0.196904
1202.92	-0.0795956
1204.53	0.773275
1206.15	0.751129
1207.77	1.00134
1209.38	0.375598
1211	0.87553
1212.62	0.393766
1214.23	0.160579
1215.84	0.258969
1217.46	1.14612
1219.07	0.866956
1220.69	0.982674
1222.3	0.476672
1223.91	0.283473
1225.53	0.982137
1227.14	0.419024
1228.75	0.788404
1230.36	0.724408
1231.97	0.930216
1233.59	1.30237
1235.2	1.13827
1236.81	0.975237
1238.42	1.16451
1240.03	1.33379
1241.64	1.46193
1243.25	1.46568
1244.85	1.57216
1246.46	1.76046
1248.07	1.28564
1249.68	1.34815
1251.29	1.3483
1252.9	0.976339
1254.5	1.41175
1256.11	1.18626
1257.72	0.879095
1259.32	1.42123
1260.93	1.01229
1262.54	1.03834
1264.14	1.37515
1265.75	1.17302
1267.35	1.05301
1268.96	1.47115
1270.56	0.913918
1272.16	1.66196
1273.77	1.49674
1275.37	1.99392
1276.97	1.61964
1278.57	1.53483
1280.18	1.4288
1281.78	1.42608
1283.38	1.27866
1284.98	1.31797
1286.58	0.923957
1288.18	1.62647
1289.78	1.77162
1291.38	1.87588
1292.99	1.8767
1294.58	1.64955
1296.18	1.35933
1297.78	1.66648
1299.38	2.11616
1300.98	1.6567
1302.58	1.67054
1304.17	1.49826
1305.77	0.914483
1307.37	1.27613
1308.97	0.918741
1310.56	1.56624
1312.16	1.43486
1313.76	1.63164
1315.35	1.50207
1316.95	1.55732
1318.54	1.38859
1320.14	1.3219
1321.73	1.70258
1323.32	1.4503
1324.92	1.33924
1326.51	1.22717
1328.1	1.11494
1329.7	1.24645
1331.29	1.43979
1332.88	1.55395
1334.47	0.922981
1336.07	1.10135
1337.66	1.27999
1339.25	1.51825
1340.84	0.94901
1342.43	1.18373
1344.02	1.67747
1345.61	1.60698
1347.2	1.39649
1348.79	1.02782
1350.37	1.20235
1351.96	1.41892
1353.55	0.857441
1355.14	1.23685
1356.73	0.976945
1358.31	1.07636
1359.9	1.17485
1361.49	1.05276
1363.07	0.351599
1364.66	0.707537
1366.25	0.923817
1367.83	1.06093
1369.42	0.701365
1371	0.741269
1372.59	1.04103
1374.17	0.605512
1375.75	1.06598
1377.34	0.452003
1378.92	0.673326
1380.5	1.03302
1382.09	0.754881
1383.67	0.555319
1385.25	1.20976
1386.83	0.254005
1388.42	0.232595
1390	0.966024
1391.58	0.906004
1393.16	1.20379
1394.74	0.688603
1396.32	0.589882
1397.9	0.569889
1399.48	0.469801
1401.06	0.586856
1402.64	0.822065
1404.21	0.898746
1405.79	1.19332
1407.37	0.342051
1408.95	1.03326
1410.53	0.104799
1412.1	0.756538
1413.68	0.538807
1415.26	0.655891
1416.83	0.57495
1418.41	0.651456
1419.98	0.0190382
1421.56	0.982992
1423.13	0.727228
1424.71	0.925674
1426.28	0.869324
1427.86	0.655964
1429.43	0.481709
1431	0.700335
1432.58	0.681788
1434.15	1.44935
1435.72	1.13441
1437.29	1.07545
1438.87	1.01719
1440.44	1.94251
1442.01	1.47325
1443.58	1.29943
1445.15	1.59765
1446.72	1.85677
1448.29	1.09389
1449.86	1.76628
1451.43	1.82976
1453	1.53975
1454.57	1.93846
1456.14	1.56994
1457.71	1.732
1459.27	1.7945
1460.84	1.50115
1462.41	1.91444
1463.98	1.83425
1465.54	0.927664
1467.11	1.37714
1468.67	1.55161
1470.24	0.882931
1471.81	1.00045
1473.37	0.432395
1474.94	1.06138
1476.5	0.23965
1478.07	0.378829
1479.63	0.557125
1481.19	0.774493
1482.76	0.031498
1484.32	0.170322
1485.88	-0.0438137
1487.45	0.524901
1489.01	0.955062
1490.57	0.443996
1492.13	0.225023
1493.69	0.29761
1495.26	0.153962
1496.82	0.594281
1498.38	0.177158
1499.94	0.208532
1501.5	0.0272045
1503.06	0.157498
1504.62	0.113893
1506.17	0.438352
1507.73	0.355554
1509.29	0.387949
1510.85	0.612224
1512.41	0.449806
1513.97	0.0950375
1515.52	0.375623
1517.08	-0.0158644
1518.64	0.610478
1520.19	0.0867138
1521.75	0.253047
1523.31	0.208487
1524.86	-0.256617
1526.42	0.117506
1527.97	0.0710163
1529.52	0.00520134
1531.08	-0.155366
1532.63	0.196859
1534.19	-0.246392
1535.74	0.125552
1537.29	0.232942
1538.85	0.246308
1540.4	0.316535
1541.95	1.02717
1543.5	0.757751
1545.06	0.545087
1546.61	0.633158
1548.16	0.158062
1549.71	0.133742
1551.26	0.59644
1552.81	0.591055
1554.36	0.493061
1555.91	0.90067
1557.46	0.58139
1559.01	0.749221
1560.56	0.396278
1562.11	0.380536
1563.65	0.365714
1565.2	1.35895
1566.75	0.803618
1568.29	0.527893
1569.84	1.24108
1571.39	0.92734
1572.94	1.09868
1574.48	0.747219
1576.03	0.694461
1577.57	0.847244
1579.12	1.67253
1580.66	0.855412
1582.21	0.841785
1583.75	1.35198
1585.3	0.667106
1586.84	0.711278
1588.38	0.699492
1589.93	0.930765
1591.47	1.48005
1593.01	1.03686
1594.55	0.836645
1596.1	1.31087
1597.64	0.567507
1599.18	1.28668
1600.72	1.01288
1602.26	1.4149
1603.8	1.51684
1605.34	1.20491
1606.88	1.211
1608.42	0.726638
1609.96	0.672573
1611.5	1.36812
1613.04	1.38528
1614.58	1.15729
1616.12	1.51064
1617.65	0.851849
1619.19	1.13153
1620.73	0.962841
1622.27	0.364794
1623.8	0.816001
1625.34	0.892715
1626.87	1.02487
1628.41	1.36159
1629.95	1.07971
1631.48	1.3205
1633.02	1.07505
1634.55	0.755513
1636.09	1.33257
1637.62	0.660412
1639.15	1.25701
1640.69	1.55503
1642.22	0.976667
1643.76	1.92467
1645.29	1.49347
1646.82	1.30376
1648.35	2.04309
1649.88	1.09211
1651.42	1.98032
1652.95	1.57045
1654.48	1.62548
1656.01	1.90345
1657.54	1.71795
1659.07	1.77261
1660.6	1.34471
1662.13	1.52647
1663.66	1.50362
1665.19	0.944697
1666.72	1.75264
1668.24	1.32483
1669.77	1.93109
1671.3	1.85649
1672.83	1.91192
1674.35	1.17591
1675.88	1.50782
1677.41	1.52592
1678.93	1.34066
1680.46	1.00754
1681.99	1.207
1683.51	1.38755
1685.04	0.962405
1686.56	1.12494
1688.09	0.792842
1689.61	0.553037
1691.13	0.551703
1692.66	0.422334
1694.18	0.494238
1695.71	0.218578
1697.23	0.271883
1698.75	0.525712
1700.27	0.559874
1701.8	0.538826
1703.32	0.0799518
1704.84	0.458946
1706.36	-0.0363731
1707.88	0.377844
1709.4	0.119256
1710.92	-0.501744
1712.44	0.0751367
1713.96	-0.0915952
1715.48	-0.0226784
1717	-0.170979
1718.52	-0.0842042
1720.04	0.110708
1721.56	0.305449
1723.07	0.17586
1724.59	-0.0608025
1726.11	0.280107
1727.63	-0.206167
1729.14	-0.241476
1730.66	0.172397
1732.18	-0.0415812
1733.69	0.0134115
1735.21	-0.0491056
1736.72	-0.168755
1738.24	0.462254
1739.75	-0.291709
1741.27	-0.178566
1742.78	0.197146
1744.3	0.105672
1745.81	0.471118
1747.32	0.446887
1748.84	0.469779
1750.35	0.130901
1751.86	-0.0635586
1753.37	0.0873828
1754.89	-0.0714741
1756.4	-0.0879226
1757.91	0.0902858
1759.42	0.308616
1760.93	0.0211701
1762.44	-0.127444
1763.95	-0.0785685
1765.46	-0.281623
1766.97	-0.0483813
1768.48	0.100319
1769.99	-0.268655
1771.5	-0.194963
1773.01	-0.0706172
1774.52	-0.16008
1776.03	-0.171322
1777.53	0.124526
1779.04	0.298812
1780.55	0.0856333
1782.06	-0.120087
1783.56	0.120163
1785.07	0.0373149
1786.57	-0.0711765
1788.08	0.0976677
1789.59	0.205504
1791.09	-0.0123644
1792.6	-0.00388384
1794.1	-0.167488
1795.6	-0.0147858
1797.11	-0.024857
1798.61	0.114165
1800.12	0.121141
1801.62	0.128937
1803.12	-0.138916
1804.63	-0.132946
1806.13	-0.0249104
1807.63	0.0409718
1809.13	0.12494
1810.63	-0.000422955
1812.14	0.21251
1813.64	0.131103
1815.14	0.156284
1816.64	0.116544
1818.14	0.0607743
1819.64	0.13125
1821.14	0.0142794
1822.64	0.0700893
1824.14	0.157601
1825.63	-0.0412741
1827.13	0.0963087
1828.63	0.0277753
1830.13	-0.0735822
1831.63	0.106768
1833.12	0.284119
1834.62	0.109412
1836.12	0.336979
1837.62	0.32807
1839.11	0.278994
1840.61	0.0874953
1842.1	0.0246296
1843.6	0.0917134
1845.09	0.428256
1846.59	-0.0413384
1848.08	-0.0496054
1849.58	0.169809
1851.07	-0.102346
1852.57	0.087141
1854.06	0.168448
1855.55	0.0467386
1857.04	0.135475
1858.54	0.231884
1860.03	0.160435
1861.52	0.214478
1863.01	0.21457
1864.5	0.0928712
1866	0.352824
1867.49	0.223906
1868.98	0.230051
1870.47	0.310879
1871.96	0.314856
1873.45	0.328048
1874.94	0.148199
1876.43	0.515687
1877.92	-0.00313568
1879.41	0.0365586
1880.89	0.136009
1882.38	0.31027
1882.48	0.324636
1883.97	0.30696
1885.47	0.480307
1886.96	0.234704
1888.46	0.232616
1889.95	0.317661
1891.44	-0.0834923
1892.94	0.125466
1894.43	0.422831
1895.92	0.738974
1897.41	-0.0396619
1898.9	0.225019
1900.4	0.314969
1901.89	0.333942
1903.38	0.612235
1904.87	0.558736
1906.36	0.469809
1907.85	0.363561
1909.34	0.327362
1910.83	0.291995
1912.32	0.326819
1913.81	0.587597
1915.29	0.570923
1916.78	0.241901
1918.27	0.259224
1919.76	0.206835
1921.25	0.240991
1922.74	0.154246
1924.22	0.154837
1925.71	0.208315
1927.2	0.43583
1928.68	0.542762
1930.17	0.164846
1931.65	-0.248426
1933.14	0.168317
1934.63	-0.178245
1936.11	0.0277538
1937.59	0.509158
1939.08	0.194682
1940.56	0.0880604
1942.05	0.310164
1943.53	0.515701
1945.01	0.342474
1946.5	0.635152
1947.98	0.0830131
1949.46	0.116367
1950.94	0.0283298
1952.43	0.266553
1953.91	0.383597
1955.39	0.105161
1956.87	0.291072
1958.35	0.357195
1959.83	0.338111
1961.31	0.559579
1962.79	0.266843
1964.27	0.231192
1965.75	0.332146
1967.23	0.158559
1968.71	-0.083806
1970.19	0.784699
1971.67	-0.07341
1973.14	0.43512
1974.62	0.056076
1976.1	0.137904
1977.58	0.11757
1979.05	-0.0558524
1980.53	0.298246
1982.01	0.294748
1983.48	0.172098
1984.96	0.33789
1986.43	0.0961556
1987.91	-0.263854
1989.38	0.494596
1990.86	0.321775
1992.33	0.522058
1993.81	0.452526
1995.28	0.0288796
1996.76	0.349227
1998.23	0.162692
1999.7	0.533042
2001.18	0.160063
2002.65	0.141206
2004.12	0.0548029
2005.59	0.170948
2007.06	0.186536
2008.54	0.590191
2010.01	0.219984
2011.48	0.271178
2012.95	0.541219
2014.42	0.25548
2015.89	0.322518
2017.36	0.338284
2018.83	0.689538
2020.3	0.468676
2021.77	0.617354
2023.24	0.564734
2024.71	0.143703
2026.17	0.243925
2027.64	0.311762
2029.11	0.313768
2030.58	0.535002
2032.04	-0.316806
2033.51	0.526727
2034.98	0.195325
2036.45	0.78731
2037.91	0.63982
2039.38	0.323835
2040.84	0.31023
2042.31	0.481884
2043.77	0.418787
2045.24	0.255448
2046.7	0.159937
2048.17	0.435171
2049.63	0.238532
2051.1	0.597265
2052.56	0.819965
2054.02	0.417083
2055.48	0.265673
2056.95	0.517736
2058.41	0.465591
2059.87	0.615449
2061.33	0.260399
2062.8	0.343905
2064.26	0.529196
2065.72	0.328248
2067.18	0.313142
2068.64	0.433186
2070.1	0.267365
2071.56	0.707624
2073.02	0.524884
2074.48	0.66181
2075.94	0.51218
2077.4	-0.0924749
2078.86	0.211907
2080.31	0.600066
2081.77	0.448895
2083.23	0.785348
2084.69	0.683441
2086.14	0.395908
2087.6	0.276211
2089.06	0.761279
2090.52	0.640962
2091.97	0.503908
2093.43	0.501153
2094.88	0.531719
2096.34	0.377462
2097.79	0.59131
2099.25	0.352415
2100.7	0.68218
2102.16	0.242935
2103.61	0.639928
2105.07	0.636983
2106.52	0.418366
2107.97	0.81791
2109.43	0.650624
2110.88	0.499646
2112.33	0.747571
2113.78	1.12696
2115.24	0.456033
2116.69	0.832797
2118.14	0.827106
2119.59	1.03834
2121.04	1.08514
2122.49	1.10049
2123.94	0.818675
2125.39	0.620419
2126.84	0.720429
2128.29	0.902432
2129.74	1.18254
2131.19	0.765601
2132.64	0.927739
2134.09	1.02345
2135.54	1.53309
2136.98	1.13457
2138.43	1.10148
2139.88	1.3345
2141.33	1.10624
2142.77	1.22617
2144.22	1.09865
2145.67	1.4511
2147.11	1.52211
2148.56	1.55946
2150.01	1.49662
2151.45	1.8139
2152.9	1.76576
2154.34	1.40203
2155.79	1.81654
2157.23	1.55185
2158.67	1.1553
2160.12	1.82012
2161.56	1.40971
2163	1.63066
2164.45	1.93624
2165.89	1.72841
2167.33	1.80264
2168.78	2.05888
2170.22	1.94777
2171.66	1.7514
2173.1	1.70285
2174.54	1.40348
2175.98	1.91854
2177.42	1.6022
2178.86	1.96827
2180.3	2.00272
2181.74	1.75537
2183.18	1.59165
2184.62	1.76079
2186.06	1.73043
2187.5	1.7999
2188.94	1.4201
2190.38	1.57278
2191.82	1.64203
2193.25	1.89376
2194.69	1.72803
2196.13	2.05999
2197.57	1.45806
2199	1.62003
2200.44	1.26571
2201.88	1.19398
2203.31	1.22246
2204.75	1.26845
2206.18	1.14957
2207.62	1.19696
2209.05	1.21104
2210.49	1.17476
2211.92	1.00528
2213.36	1.26512
2214.79	0.913291
2216.22	0.677983
2217.66	0.773854
2219.09	1.01911
2220.52	1.03415
2221.96	1.18116
2223.39	1.06386
2224.82	1.14303
2226.25	0.907914
2227.68	1.08271
2229.11	0.845402
2230.55	0.657108
2231.98	1.10812
2233.41	0.739898
2234.84	0.798251
2236.27	0.53074
2237.7	0.477217
2239.12	0.81693
2240.55	0.733994
2241.98	0.750518
2243.41	0.817059
2244.84	0.525094
2246.27	0.558804
2247.7	1.06413
2249.12	1.17599
2250.55	0.66662
2251.98	0.237854
2253.41	0.605977
2254.83	0.518704
2256.26	0.384058
2257.68	0.803217
2259.11	0.640518
2260.54	0.610145
2261.96	0.516929
2263.39	0.457475
2264.81	0.26824
2266.24	0.53378
2267.66	0.701317
2269.08	0.77055
2270.51	0.415864
2271.93	0.337357
2273.35	0.502947
2274.78	0.261424
2276.2	0.0525389
2277.62	0.560797
2279.04	0.873753
2280.47	0.485633
2281.89	0.472355
2283.31	0.44267
2284.73	0.380359
2286.15	-0.0245891
2287.57	0.354249
2288.99	0.211022
2290.41	0.394824
2291.83	0.00686264
2293.25	0.256474
2294.67	0.408121
2296.09	0.232457
2297.51	0.547853
2298.93	0.22464
2300.35	0.0324073
2301.76	-0.0941911
2303.18	-0.00741291
2304.6	0.358624
2306.02	-0.0140519
2307.44	0.565622
2308.85	0.537149
2310.27	0.508146
2311.69	-0.0146952
2313.1	0.367061
2314.52	0.189763
2315.93	0.358716
2317.35	0.0177531
2318.76	0.121867
2320.18	0.456831
2321.59	0.0651879
2323.01	0.282436
2324.42	0.349264
2325.83	0.579151
2327.25	0.724931
2328.66	0.540236
2330.07	0.20764
2331.49	0.188908
2332.9	-0.256815
2334.31	0.203371
2335.72	0.137144
2337.13	-0.3899
2338.55	0.0690718
2339.96	0.313095
2341.37	0.391819
2342.78	0.355115
2344.19	0.0724206
2345.6	0.281985
2347.01	0.39325
2348.42	0.160654
2349.83	0.271574
2351.24	0.00572491
2352.65	0.245821
2354.05	-0.0048275
2355.46	0.396463
2356.87	0.29184
2358.28	-0.300542
2359.69	-0.0466924
2361.09	-0.134146
2362.5	0.378469
2363.91	0.258261
2365.31	0.364751
2366.72	-0.0621667
2368.13	0.109641
2369.53	0.0883908
2370.94	0.310039
2372.34	0.290866
2373.75	0.304777
2375.15	-0.147782
2376.56	-0.0531931
2377.96	0.0404534
2379.37	-0.124362
2380.77	0.111097
2382.17	0.0562692
2383.58	0.257063
2384.98	0.201206
2386.38	0.00999975
2387.79	-0.180061
2389.19	0.0696754
2390.59	0.0332284
2391.99	0.12516
2393.39	0.0427876
2394.8	0.0566082
2396.2	0.0233064
2397.6	0.0223308
2399	0.133052
2400.4	0.418887
2401.8	0.228387
2403.2	-0.120821
2404.6	-0.0256019
2406	0.132389
2407.4	-0.0913148
2408.79	0.303069
2410.19	0.173664
2411.59	0.187147
2412.99	0.248793
2414.39	0.121464
2415.78	0.201196
2417.18	0.424526
2418.58	-0.0796638
2419.98	0.429863
2421.37	0.0524468
2422.77	0.197427
2424.16	0.183773
2425.56	0.15431
2426.96	0.125254
2428.35	-0.0299349
2429.74	-0.05758
2431.14	-0.0846715
2432.53	0.0788436
2433.93	0.257987
2435.32	-0.0402465
2436.72	0.0733027
2438.11	0.233279
2439.5	-0.0526447
2440.9	0.391307
2442.29	0.167773
2443.68	-0.166912
2445.07	0.0536876
2446.47	-0.217518
2447.86	-0.108249
2449.25	0.238513
2450.64	0.220988
2452.03	0.0298119
2453.42	-0.0498466
2454.81	-0.176233
2456.2	0.0143538
2457.59	0.284276
2458.98	0.111182
2460.37	0.048368
2461.76	-0.0466919
2463.15	0.268606
2464.54	0.361992
2465.93	0.15498
2467.32	0.0585685
2468.7	-0.0535769
2470.09	-0.0238328
2471.48	0.147388
2472.87	-0.375281
2474.25	-0.0635128
2475.64	0.263007
2477.03	0.384366
2478.41	-0.0441899
2479.8	-0.158076
2481.18	0.183081
2482.57	-0.0873814
2483.95	-0.0916348
2485.34	0.372629
2486.72	0.335054
2488.11	0.171793
2489.49	0.257663
2490.88	0.249777
2492.26	-0.0530138
2493.65	0.0960717
2495.03	-0.0953212
2496.41	-0.26986
2497.79	0.0677004
2499.18	0.312166
2500.56	0.0765362
2501.94	0.304292
2503.32	0.0676088
2504.7	0.123726
2506.09	0.240843
2507.47	-0.0580707
2508.85	0.028131
2510.23	0.0377059
2511.61	0.00176048
2512.99	0.211789
2514.37	-0.0985727
2515.75	-0.530218
2517.13	-0.257047
2518.51	0.169148
2519.89	-0.0467429
2521.26	0.439952
2522.64	0.00972891
2524.02	-0.0087719
2525.4	-0.195472
2526.78	-0.168892
2528.15	0.284008
2529.53	0.113727
2530.91	0.294522
2532.28	0.00558281
2533.66	-0.114989
2535.04	-0.143782
2536.41	-0.0814233
2537.79	0.0563745
2539.16	-0.201511
2540.54	0.359961
2541.91	-0.354161
2543.29	0.161385
2544.66	-0.172122
2546.04	0.0718346
2547.41	0.104442
2548.78	-0.438735
2550.16	0.0650134
2551.53	0.128445
2552.9	0.175974
2554.27	0.101244
2555.65	0.0106297
2557.02	0.162287
2558.39	0.0408134
2559.76	-0.141012
2561.13	0.117216
2562.51	-0.0938902
2563.88	0.0895267
2565.25	0.121772
2566.62	0.123933
2567.99	-0.101144
2569.36	0.219394
2570.73	-0.051137
2572.1	-0.0336566
2573.47	-0.197999
2574.84	0.259275
2576.2	0.110225
2577.57	0.0065937
2578.94	0.0999022
2580.31	0.299088
2581.68	0.0278916
2583.05	0.438702
2584.41	0.212526
2585.78	0.0318379
2587.15	0.169586
2588.51	-0.0865631
2589.88	0.233311
2591.24	-0.0227757
2592.61	-0.0215845
2593.98	-0.202806
2595.34	-0.00612974
2596.71	0.15929
2598.07	-0.0240588
2599.44	-0.630835
2600.8	-0.16399
2602.16	-0.0295076
2603.53	-0.317275
2604.89	-0.257279
2606.26	0.0743761
2607.62	-0.137285
2608.98	0.343887
2610.34	0.0704126
2611.71	0.127361
2613.07	-0.0874085
2614.43	-0.407528
2615.79	0.0231047
2617.15	0.0932708
2618.52	-0.225592
2619.88	-0.169156
2621.24	-0.112206
2622.6	-0.114665
2623.96	-0.0870461
2625.32	0.000208378
2626.68	-0.181262
2628.04	0.188632
2629.4	0.170594
2630.75	0.0929127
2632.11	0.0152736
2633.47	0.234828
2634.83	0.14233
2636.19	-0.0241776
2637.55	0.283778
2638.9	0.0878744
2640.26	-0.0927806
2641.62	-0.0807505
2642.98	0.153106
2644.33	-0.159435
2645.69	-0.235535
2647.04	0.292602
2648.4	-0.0202384
2649.76	-0.0241361
2651.11	-0.102077
2652.47	0.0108175
2653.82	0.197021
2655.18	0.148963
2656.53	0.0726147
2657.88	0.0705261
2659.24	-0.0332003
2660.59	0.214464
2661.95	0.0379772
2663.3	0.299409
2664.65	0.282522
2666	0.279621
2667.36	0.290905
2668.71	0.156481
2670.06	0.109809
2671.41	0.0927348
2672.76	0.0907502
2674.12	-0.143057
2675.47	0.0738187
2676.82	0.174908
2678.17	-0.0135956
2679.52	0.190193
2680.87	0.162811
2682.22	0.223423
2683.57	0.502557
2684.92	0.304015
2686.27	0.178324
2687.62	0.241159
2688.97	0.30308
2690.31	0.145866
2691.66	-0.0853615
2693.01	0.0160437
2694.36	0.232578
2695.71	0.332783
2697.05	-0.102575
2698.4	-0.029726
2699.75	0.102358
2701.09	-0.068222
2702.44	0.124462
2703.78	0.158765
2705.13	-0.038403
2706.48	-0.148672
2707.82	0.0745234
2709.17	0.2105
2710.51	0.491491
2711.86	0.234981
2713.2	0.196167
2714.54	0.142751
2715.89	0.27829
2717.23	0.297458
2718.57	0.200056
2719.92	0.276941
2721.26	0.0187678
2722.6	0.473347
2723.95	-0.0767283
2725.29	0.522733
2726.63	0.365001
2727.97	0.527219
2729.31	0.427276
2730.65	0.0653367
2732	0.372713
2733.34	-0.0327044
2734.68	0.24576
2736.02	0.306191
2737.36	0.148591
2738.7	0.354583
2740.04	0.240446
2741.38	0.344065
2742.72	0.0110192
2744.05	0.17172
2745.39	0.2156
2746.73	0.0848465
2748.07	0.0846992
2749.41	0.012053
2750.75	0.40374
2752.08	0.0704603
2753.42	-0.0159998
2754.76	0.433815
2756.09	-0.0869408
2757.43	0.0298548
2758.77	0.146804
2760.1	0.408754
2761.44	0.453965
2762.78	0.38383
2764.11	0.299516
2765.44	0.0850091
2766.78	0.159539
2768.11	0.117615
2769.45	0.363884
2770.78	0.204106
2772.12	0.375571
2773.45	-0.03126
2774.78	0.095592
2776.12	-0.123507
2777.45	0.478398
2778.78	0.332012
2780.12	0.44496
2781.45	0.184665
2782.78	0.111371
2784.11	0.238929
2785.44	0.280315
2786.78	0.321802
2788.11	-0.0371556
2789.44	-0.00880194
2790.77	-0.0655689
2792.1	0.235785
2793.43	0.280069
2794.76	-0.204414
2796.09	0.182684
2797.42	0.0263472
2798.75	0.283757
2800.08	0.198083
2801.4	-0.187294
2802.73	0.325833
2804.06	0.282458
2805.39	0.139088
2806.72	0.337026
2808.05	0.164376
2809.37	0.190618
2810.7	-0.109791
2812.03	0.229305
2813.35	0.356138
2814.68	0.228847
2816.01	0.37213
2817.33	0.0202346
2818.66	0.335002
2819.98	0.0403337
2821.31	-0.212136
2822.63	0.243496
2823.96	0.344272
2825.28	0.175587
2826.61	0.474334
2827.93	0.560998
2829.25	0.492387
2830.58	0.225996
2831.9	0.412786
2833.23	0.670301
2834.55	0.191529
2835.87	0.646512
2837.19	0.464192
2838.52	0.507935
2839.84	1.14545
2841.16	0.637506
2842.48	0.978248
2843.8	0.966074
2845.12	0.770783
2846.44	1.31089
2847.77	1.20122
2849.08	1.4025
2850.4	1.53289
2851.73	1.76181
2853.05	1.76412
2854.36	1.51174
2855.68	1.51358
2857	1.7273
2858.32	1.57376
2859.64	1.80156
2860.96	1.73262
2862.28	1.6352
2863.59	2.03151
2864.91	2.06053
2866.23	2.06128
2867.55	2.88021
2868.86	2.62756
2870.18	2.7701
2871.5	2.92685
2872.81	2.56185
2874.13	2.95723
2875.44	3.112
2876.76	2.98406
2878.07	2.86959
2879.39	3.30344
2880.7	3.17484
2882.02	3.11732
2883.33	3.28549
2884.65	3.08937
2885.96	3.0904
2887.28	3.27396
2888.59	2.86771
2889.9	3.21849
2891.21	3.24577
2892.53	3.18836
2893.84	3.60714
2895.15	2.96164
2896.46	3.53511
2897.78	3.49342
2899.09	3.78845
2900.4	3.93022
2901.71	3.61078
2903.02	3.8091
2904.33	4.16138
2905.64	4.33204
2906.95	3.91571
2908.26	4.38134
2909.57	4.38615
2910.88	4.08359
2912.19	4.41076
2913.5	4.41538
2914.81	4.65674
2916.12	4.74251
2917.43	5.21865
2918.73	4.92402
2920.04	5.38465
2921.35	4.9647
2922.66	5.27298
2923.96	5.48459
2925.27	5.62737
2926.58	5.64492
2927.88	5.48077
2929.19	5.83351
2930.5	5.93404
2931.8	5.95021
2933.11	5.81234
2934.41	5.73033
2935.72	5.95587
2937.02	5.21725
2938.33	5.86228
2939.63	5.45947
2940.94	5.61604
2942.24	5.01877
2943.54	5.21906
2944.85	4.84746
2946.15	4.99411
2947.45	4.91754
2948.76	4.67273
2950.06	4.65074
2951.36	4.30505
2952.66	4.3637
2953.97	4.29504
2955.27	4.05801
2956.57	4.15764
2957.87	4.03502
2959.17	4.55873
2960.47	4.06273
2961.77	4.14267
2963.07	4.29358
2964.37	3.70013
2965.67	3.98964
2966.97	3.77198
2968.27	3.69351
2969.57	3.69862
2970.87	3.52071
2972.17	3.46954
2973.47	3.62969
2974.77	3.7195
2976.07	3.44269
2977.36	3.16461
2978.66	2.70196
2979.96	2.9699
2981.26	2.98318
2982.55	2.88334
2983.85	2.74161
2985.15	2.44626
2986.44	2.36305
2987.74	2.32319
2989.03	2.57925
2990.33	2.52637
2991.63	2.26219
2992.92	2.17976
2994.21	2.11025
2995.51	1.91332
2996.8	2.10894
2998.1	1.77085
2999.39	1.41916
3000.69	1.51682
3001.98	1.30645
3003.27	1.23663
3004.57	1.33497
3005.86	1.23692
3007.15	1.13838
3008.44	1.03917
3009.74	1.26087
3011.03	1.07636
3012.32	0.989414
3013.61	0.944357
3014.9	0.969324
3016.19	0.939018
3017.48	0.686532
3018.78	0.281613
3020.07	0.711567
3021.36	0.556856
3022.65	0.762719
3023.94	0.773097
3025.23	0.782732
3026.51	0.736656
3027.8	0.64943
3029.09	0.632286
3030.38	0.754445
3031.67	0.960464
3032.96	0.670141
3034.24	0.725231
3035.53	0.628028
3036.82	0.433284
3038.11	0.898572
3039.39	0.769554
3040.68	0.87306
3041.97	0.536174
3043.25	0.556414
3044.54	1.04255
3045.83	1.0776
3047.11	0.759176
3048.4	0.798044
3049.68	0.674791
3050.97	0.470943
3052.25	0.472399
3053.54	0.978634
3054.82	1.02027
3056.11	0.815405
3057.39	1.25036
3058.67	0.634964
3059.96	0.537344
3061.24	0.902678
3062.52	0.588241
3063.81	0.696563
3065.09	0.724429
3066.37	0.590213
3067.65	0.48389
3068.94	0.704145
3070.22	0.883344
3071.5	0.517701
3072.78	0.518179
3074.06	0.857362
3075.34	0.393666
3076.62	0.283112
3077.9	0.362874
3079.18	0.714645
3080.46	0.212729
3081.74	0.56662
3083.02	0.107491
3084.3	0.259258
3085.58	-0.0368333
3086.86	0.616654
3088.14	0.482252
3089.42	0.157144
3090.69	0.211572
3091.97	0.401387
3093.25	0.577536
3094.53	0.292648
3095.8	0.265567
3097.08	0.129984
3098.36	0.49574
3099.63	0.359723
3100.91	0.264193
3102.19	0.249868
3103.46	0.113773
3104.74	0.113353
3106.01	0.38403
3107.29	0.181611
3108.56	0.318208
3109.84	0.320205
3111.11	0.146846
3112.39	0.285386
3113.66	0.342942
3114.94	0.373287
3116.21	0.362442
3117.48	0.28292
3118.76	0.215905
3120.03	0.513992
3121.3	0.390697
3122.57	0.456533
3123.85	0.251039
3125.12	-0.00846672
3126.39	-0.254043
3127.66	0.0420017
3128.93	0.162262
3130.21	-0.00137329
3131.48	-0.0703683
3132.75	-0.112579
3134.02	-0.0876837
3135.29	0.179598
3136.56	-0.1342
3137.83	-0.00328064
3139.1	0.409832
3140.37	-0.0798821
3141.64	0.264851
3142.91	0.313411
3144.17	0.0130143
3145.44	0.236571
3146.71	0.460142
3147.98	0.228267
3149.25	0.0772915
