200.533	0.297752
202.348	0.340529
204.162	0.384227
205.976	0.331293
207.792	0.594441
209.605	0.613398
211.418	0.703654
213.23	0.427976
215.044	0.442277
216.856	0.431362
218.667	0.15385
220.478	0.215919
222.289	0.423726
224.102	0.801257
225.912	0.0912399
227.721	-0.135297
229.531	-0.193324
231.34	-0.396965
233.148	-0.57688
234.956	0.0632687
236.766	0.39067
238.574	0.213691
240.381	0.328302
242.188	0.0351048
243.994	0.0080719
245.801	0.0771341
247.606	0.337463
249.412	0.618938
251.217	0.269066
253.024	-0.131971
254.828	0.743789
256.632	-0.600056
258.436	0.491913
260.239	0.139104
262.042	0.125397
263.845	-0.20007
265.647	0.173924
267.449	-0.0543861
269.25	-0.235173
271.052	0.185645
272.852	0.147006
274.653	0.154902
276.453	0.594789
278.253	0.0683928
280.052	0.166389
281.852	0.454517
283.65	0.307206
285.449	0.783133
287.247	0.417117
289.044	-0.523747
290.842	0.334233
292.639	0.593538
294.436	0.303776
296.232	-0.0082674
298.028	-0.0801992
299.821	-0.151834
301.617	0.0867033
303.412	0.324018
305.206	0.249448
307	0.388498
308.794	0.169443
310.588	-0.120462
312.381	0.543531
314.172	-0.648656
315.964	0.684973
317.756	-0.0990829
319.548	0.404243
321.34	0.694453
323.131	0.627872
324.921	0.203543
326.71	0.494907
328.5	0.81014
330.29	0.0729771
332.079	0.170821
333.868	-0.331294
335.654	0.552073
337.443	0.499832
339.231	0.277864
341.018	0.15
342.804	0.116901
344.591	0.250918
346.377	0.647921
348.163	0.328919
349.947	0.225267
351.733	0.598896
353.518	0.351233
355.303	0.0786533
357.085	0.520128
358.869	0.697564
360.653	0.135252
362.435	0.334148
364.218	0.222771
366.001	-0.00803947
367.781	0.282814
369.563	0.643259
371.345	-0.300711
373.124	0.483645
374.905	0.320503
376.686	0.960235
378.464	0.160707
380.244	-0.0239449
382.022	0.734209
383.801	-0.106936
385.58	0.394003
387.357	0.00265884
389.135	0.293798
390.911	0.726573
392.689	0.103189
394.466	0.302298
396.241	0.407719
398.018	0.113894
399.792	0.195543
401.568	0.253193
403.341	-0.206621
405.117	0.624535
406.889	0.632769
408.664	0.147275
410.436	-0.00981331
412.21	-0.0730057
413.981	0.591544
415.755	0.0834436
417.525	0.725794
419.298	0.172004
421.068	0.697867
422.84	0.308058
424.609	0.574709
426.38	-0.356911
428.149	0.494757
429.919	0.219065
431.688	0.764795
433.455	0.184192
435.225	-0.137955
436.992	-0.0612326
438.76	0.43718
440.527	0.370791
442.293	0.419644
444.06	0.37245
445.826	0.112604
447.593	0.413656
449.357	-0.268404
451.122	0.616054
452.888	0.0987005
454.651	-0.0211401
456.415	0.301933
458.18	-0.260629
459.942	0.0386744
461.705	0.128881
463.469	-0.0119619
465.23	0.198081
466.991	0.596699
468.752	0.0683613
470.515	0.12271
472.275	0.643023
474.035	-0.00104046
475.797	0.470564
477.556	0.730551
479.315	-0.10618
481.073	0.756549
482.834	0.361602
484.592	-0.195241
486.349	0.321184
488.106	0.979899
489.863	0.428596
491.622	0.484429
493.378	0.844718
495.134	0.808256
496.889	0.397044
498.645	0.61739
500.401	0.626575
502.156	0.517712
503.91	0.337283
505.664	0.507998
507.417	0.842105
509.171	1.08078
510.923	0.494333
512.678	1.12973
514.43	1.01056
516.182	0.725287
517.933	0.603526
519.684	1.06849
521.435	0.451423
523.186	0.820768
524.936	0.837426
526.686	0.103364
528.435	0.706481
530.184	0.160576
531.933	1.20744
533.682	0.122214
535.43	0.814852
537.18	0.289725
538.927	0.34781
540.674	0.497859
542.421	0.623448
544.167	0.236553
545.913	0.477879
547.659	0.370681
549.403	0.61168
551.148	0.667084
552.893	0.653146
554.637	0.223528
556.381	0.395171
558.125	0.105664
559.868	0.416161
561.611	-0.00993347
563.354	-0.342794
565.097	0.451605
566.839	0.372725
568.581	-0.187368
570.322	0.653882
572.063	0.440671
573.802	0.55036
575.542	0.317733
577.283	0.109632
579.022	-0.00550461
580.762	0.109655
582.501	0.638649
584.24	0.477869
585.976	0.499899
587.714	-0.05445
589.452	0.172071
591.19	0.282673
592.927	-0.044385
594.663	0.272617
596.398	-0.0775433
598.134	0.285463
599.87	-0.456202
601.605	-0.278412
603.338	-0.032896
605.073	-0.156782
606.808	0.269642
608.542	0.120708
610.274	-0.280605
612.007	-0.222275
613.74	0.68505
615.473	0.583913
617.204	0.116456
618.936	0.358748
620.668	-0.0869684
622.397	-0.0529909
624.128	0.00296021
625.859	0.241596
627.588	-0.500644
629.318	-0.0308504
631.048	0.212819
632.775	0.549782
634.505	0.431415
636.233	0.266987
637.96	0.534504
639.688	0.182998
641.416	1.17447
643.142	0.726263
644.869	0.209253
646.594	0.626169
648.32	0.180632
650.045	0.533995
651.771	0.164061
653.496	0.0706091
655.219	-0.0879478
656.944	0.802867
658.667	0.579504
660.391	0.674681
662.113	0.380118
663.837	0.265611
665.558	-0.171505
667.281	0.121073
669.002	0.458805
670.724	0.339943
672.444	0.543368
674.166	0.6808
675.885	0.408044
677.606	-0.139325
679.325	0.736368
681.045	0.440247
682.763	0.855046
684.483	0.600584
686.2	0.689279
687.917	0.384862
689.636	0.355693
691.352	0.37187
693.07	0.571687
694.786	0.724647
696.501	0.646265
698.219	0.474608
699.933	0.808043
701.65	0.886969
703.364	0.803947
705.078	1.01887
706.793	0.865719
708.506	0.689458
710.219	0.833852
711.934	0.886034
713.646	0.640484
715.358	0.806497
717.071	0.857989
718.782	0.36206
720.493	1.05228
722.204	0.967257
723.916	0.836911
725.626	1.32045
727.336	1.07604
729.045	0.355114
730.756	1.2446
732.464	1.67903
734.173	0.890691
735.881	0.601231
737.59	0.741701
739.297	1.08566
741.004	1.13703
742.711	1.12204
744.417	1.6713
746.125	1.81652
747.831	1.3783
749.537	0.964203
751.242	1.13633
752.946	1.55725
754.651	1.57484
756.357	0.918877
758.061	1.09708
759.764	0.984097
761.467	1.27795
763.17	1.25689
764.872	1.46132
766.575	1.43886
768.276	1.55007
769.978	1.56861
771.679	1.31364
773.382	1.21549
775.083	1.20737
776.783	1.65204
778.483	1.71373
780.182	1.5509
781.882	1.41178
783.581	1.31796
785.279	1.74354
786.978	1.32912
788.676	1.88468
790.373	1.28271
792.071	1.89921
793.768	1.65494
795.464	1.79434
797.161	1.23585
798.857	1.53573
800.552	1.1394
802.248	0.969869
803.941	2.03803
805.636	1.80133
807.33	1.63136
809.024	1.23576
810.718	1.55756
812.412	2.3488
814.105	2.06275
815.798	1.68735
817.49	1.31255
819.183	1.16194
820.873	1.88262
822.564	2.42404
824.256	1.76161
825.947	1.72548
827.637	2.449
829.328	1.61633
831.016	2.45734
832.705	2.00968
834.395	1.89829
836.084	0.87332
837.772	1.87788
839.459	2.21238
841.147	1.6966
842.835	2.00578
844.522	1.73359
846.209	1.4397
847.894	1.59472
849.581	1.66301
851.267	1.59969
852.953	1.74004
854.637	1.0065
856.322	1.43931
858.007	1.5795
859.689	1.22309
861.374	1.04444
863.058	1.65244
864.739	1.71871
866.423	1.4008
868.106	1.46538
869.787	1.48441
871.469	1.50312
873.151	1.49905
874.831	0.840571
876.512	1.33284
878.193	0.583901
879.872	1.55022
881.553	1.25214
883.231	0.862963
884.911	1.0596
886.591	1.25473
888.268	1.38042
889.947	1.43665
891.623	0.95038
893.302	1.184
894.978	0.898536
896.656	1.26434
898.331	0.617887
900.008	1.54196
901.683	1.27568
903.359	1.07656
905.033	1.52584
906.709	0.925228
908.383	1.17389
910.058	0.999793
911.731	0.649067
913.405	0.944203
915.078	1.30576
916.752	1.2674
918.423	1.0296
920.096	0.54882
921.768	1.441
923.438	0.719391
925.111	1.52464
926.781	0.851734
928.452	1.08604
930.122	1.03466
931.791	1.46939
933.462	0.823335
935.13	1.30256
936.799	0.855854
938.468	1.0938
940.136	1.00222
941.803	1.41928
943.472	1.57252
945.139	1.01936
946.805	0.685513
948.473	1.03402
950.139	0.563899
951.804	0.644355
953.471	0.879251
955.136	0.432145
956.801	0.737673
958.465	0.45107
960.131	0.542244
961.794	0.98851
963.458	1.16998
965.12	0.708414
966.785	0.995897
968.447	1.01501
970.109	1.00979
971.771	0.738279
973.432	1.13083
975.095	1.37009
976.756	0.571902
978.417	0.460737
980.077	0.58252
981.737	0.703938
983.396	1.25567
985.057	1.25189
986.716	1.02453
988.375	1.30424
990.033	0.565185
991.691	0.312462
993.349	1.00959
995.006	1.15418
996.663	0.857507
998.32	1.75175
999.976	0.81577
1001.63	2.14867
1003.29	1.87288
1004.95	1.02536
1006.6	1.49739
1008.26	0.717248
1009.91	1.10155
1011.56	0.696381
1013.22	0.730516
1014.87	1.35641
1016.53	0.909402
1018.18	0.725982
1019.83	0.740435
1021.48	0.428044
1023.14	0.903863
1024.79	0.615622
1026.44	1.3988
1028.09	0.608657
1029.74	0.779271
1031.39	1.14505
1033.04	1.00672
1034.69	0.77947
1036.34	0.965291
1037.99	1.14997
1039.64	0.724832
1041.29	1.10583
1042.94	1.0313
1044.58	1.17604
1046.23	0.758099
1047.88	0.754977
1049.52	0.905634
1051.17	1.05766
1052.82	0.645777
1054.46	0.494858
1056.11	1.12632
1057.75	0.192518
1059.4	0.431988
1061.04	0.627358
1062.69	0.213078
1064.33	0.406688
1065.98	-0.379094
1067.62	0.203614
1069.26	0.0463104
1070.9	0.366249
1072.55	1.03309
1074.19	0.63675
1075.83	0.567168
1077.47	0.759278
1079.11	0.605708
1080.76	0.561371
1082.4	0.126689
1084.04	0.775233
1085.68	0.879884
1087.32	1.13392
1088.95	0.692498
1090.59	0.46621
1092.23	0.433635
1093.87	0.335822
1095.51	1.05823
1097.15	0.896505
1098.78	0.801154
1100.42	0.427999
1102.06	0.509109
1103.69	0.613552
1105.33	-0.377638
1106.97	0.245003
1108.6	0.99621
1110.24	0.606436
1111.87	0.559082
1113.51	-0.0699091
1115.14	0.631531
1116.77	-0.084383
1118.41	0.937211
1120.04	0.844224
1121.67	0.623969
1123.31	0.298073
1124.94	1.00041
1126.57	0.933276
1128.2	0.161362
1129.83	0.202944
1131.47	0.373386
1133.1	0.54411
1134.72	0.223018
1136.36	-0.141407
1137.98	0.668437
1139.62	-0.146794
1141.24	-0.0656824
1142.87	-0.0278187
1144.5	0.394069
1146.13	0.112816
1147.76	0.365547
1149.38	0.192944
1151.01	0.489523
1152.64	0.296178
1154.27	-0.110319
1155.89	-0.368
1157.52	0.267947
1159.14	0.414717
1160.77	0.413486
1162.39	-0.096837
1164.02	-0.244621
1165.64	-0.221813
1167.27	0.268481
1168.89	0.226095
1170.51	-0.0943394
1172.14	-0.0553637
1173.76	-0.0606794
1175.38	0.187354
1177	-0.159046
1178.63	0.151957
1180.25	0.399732
1181.87	0.309698
1183.49	-0.0120811
1185.11	0.51167
1186.73	0.104684
1188.35	0.561607
1189.97	0.109302
1191.59	0.30861
1193.21	-0.229957
1194.83	-0.138037
1196.45	0.205247
1198.07	0.590497
1199.68	-0.257123
1201.3	0.445484
1202.92	0.356416
1204.53	0.395409
1206.15	0.853916
1207.77	0.500069
1209.38	0.522044
1211	0.417993
1212.62	0.124549
1214.23	1.2043
1215.84	0.843488
1217.46	0.460542
1219.07	0.887705
1220.69	0.753427
1222.3	0.951998
1223.91	0.592178
1225.53	1.26978
1227.14	0.934292
1228.75	1.49006
1230.36	0.496158
1231.97	0.434295
1233.59	0.828431
1235.2	1.30654
1236.81	0.773228
1238.42	1.00579
1240.03	1.25984
1241.64	1.36945
1243.25	1.23047
1244.85	1.44233
1246.46	1.50825
1248.07	1.22126
1249.68	1.49213
1251.29	1.28681
1252.9	1.57824
1254.5	1.72569
1256.11	1.25385
1257.72	1.797
1259.32	1.72093
1260.93	1.45952
1262.54	1.59191
1264.14	1.14437
1265.75	1.17269
1267.35	1.26241
1268.96	1.68287
1270.56	1.81197
1272.16	0.758045
1273.77	1.56902
1275.37	1.30081
1276.97	1.57046
1278.57	1.77689
1280.18	1.94105
1281.78	2.16683
1283.38	1.73058
1284.98	1.87435
1286.58	1.48158
1288.18	2.04092
1289.78	1.58853
1291.38	1.75671
1292.99	1.71813
1294.58	1.90594
1296.18	1.32806
1297.78	1.32684
1299.38	1.67452
1300.98	1.71082
1302.58	1.68388
1304.17	1.42957
1305.77	1.58612
1307.37	1.61858
1308.97	1.7327
1310.56	1.70316
1312.16	1.69461
1313.76	1.29838
1315.35	2.273
1316.95	2.0221
1318.54	2.07825
1320.14	1.88953
1321.73	2.29074
1323.32	1.91616
1324.92	2.12983
1326.51	1.89478
1328.1	1.7814
1329.7	1.16283
1331.29	2.14515
1332.88	1.75416
1334.47	1.44712
1336.07	1.566
1337.66	1.46349
1339.25	1.98516
1340.84	2.10138
1342.43	1.43019
1344.02	1.62248
1345.61	1.83322
1347.2	1.76299
1348.79	1.33435
1350.37	1.18939
1351.96	1.22742
1353.55	1.86741
1355.14	0.989428
1356.73	0.931557
1358.31	1.55243
1359.9	0.993715
1361.49	0.93332
1363.07	1.21122
1364.66	0.930268
1366.25	1.00856
1367.83	0.928345
1369.42	0.849508
1371	1.13045
1372.59	0.795939
1374.17	1.01979
1375.75	1.14486
1377.34	0.692973
1378.92	0.698208
1380.5	0.443729
1382.09	0.665428
1383.67	1.34302
1385.25	0.548155
1386.83	0.826385
1388.42	1.28326
1390	0.529682
1391.58	0.452245
1393.16	0.792255
1394.74	0.458165
1396.32	0.996489
1397.9	0.740862
1399.48	0.702336
1401.06	1.2372
1402.64	0.682243
1404.21	0.286158
1405.79	0.938999
1407.37	0.623699
1408.95	0.902266
1410.53	0.608382
1412.1	1.44015
1413.68	0.790282
1415.26	0.574059
1416.83	0.968517
1418.41	0.593522
1419.98	0.652677
1421.56	0.771984
1423.13	0.814127
1424.71	0.838297
1426.28	0.726002
1427.86	0.909487
1429.43	1.42729
1431	0.566367
1432.58	1.29842
1434.15	1.24222
1435.72	1.77559
1437.29	1.77807
1438.87	1.89933
1440.44	1.82514
1442.01	2.18442
1443.58	2.36762
1445.15	2.11889
1446.72	1.73276
1448.29	2.0151
1449.86	2.12091
1451.43	2.1683
1453	2.43265
1454.57	1.75333
1456.14	2.2542
1457.71	2.30188
1459.27	1.99386
1460.84	1.99876
1462.41	2.1196
1463.98	2.14018
1465.54	2.2578
1467.11	1.4124
1468.67	1.23585
1470.24	1.25668
1471.81	1.08255
1473.37	0.713515
1474.94	0.816053
1476.5	0.448432
1478.07	0.610337
1479.63	0.732938
1481.19	0.796619
1482.76	0.683833
1484.32	0.316225
1485.88	0.575267
1487.45	0.108762
1489.01	0.346025
1490.57	0.0333719
1492.13	0.110023
1493.69	-0.0304174
1495.26	0.35444
1496.82	-0.25633
1498.38	0.885492
1499.94	0.606378
1501.5	0.523172
1503.06	0.538329
1504.62	0.108754
1506.17	0.222208
1507.73	0.141441
1509.29	0.156403
1510.85	0.208775
1512.41	0.0867491
1513.97	-0.189275
1515.52	0.458191
1517.08	0.490376
1518.64	0.312374
1520.19	0.212008
1521.75	0.37993
1523.31	0.222231
1524.86	-0.0313435
1526.42	0.496417
1527.97	0.279312
1529.52	-0.565139
1531.08	0.529351
1532.63	0.218334
1534.19	-0.147761
1535.74	0.395902
1537.29	0.580345
1538.85	0.916108
1540.4	0.742517
1541.95	0.776573
1543.5	1.01748
1545.06	0.580896
1546.61	0.295225
1548.16	1.17323
1549.71	0.531256
1551.26	0.452507
1552.81	0.131289
1554.36	0.633932
1555.91	0.707674
1557.46	0.671166
1559.01	1.06585
1560.56	0.36168
1562.11	1.17028
1563.65	0.599526
1565.2	1.05546
1566.75	1.49296
1568.29	1.53837
1569.84	1.09807
1571.39	1.38531
1572.94	1.07492
1574.48	1.64176
1576.03	1.14458
1577.57	1.80506
1579.12	1.4019
1580.66	1.69021
1582.21	1.47522
1583.75	1.54126
1585.3	1.08486
1586.84	1.48864
1588.38	1.42531
1589.93	1.19326
1591.47	1.39111
1593.01	1.08302
1594.55	1.31765
1596.1	1.83352
1597.64	1.8254
1599.18	1.57425
1600.72	1.7551
1602.26	1.14831
1603.8	1.34835
1605.34	1.69815
1606.88	2.42258
1608.42	1.3407
1609.96	1.72229
1611.5	1.21819
1613.04	1.87678
1614.58	1.91391
1616.12	1.78177
1617.65	1.29421
1619.19	1.35173
1620.73	1.82279
1622.27	1.17165
1623.8	1.68229
1625.34	1.83713
1626.87	2.08463
1628.41	1.41385
1629.95	1.80802
1631.48	2.12591
1633.02	1.93872
1634.55	1.43478
1636.09	2.27557
1637.62	1.88577
1639.15	2.6901
1640.69	2.13341
1642.22	2.13531
1643.76	2.37803
1645.29	2.76798
1646.82	2.48695
1648.35	2.57762
1649.88	2.44583
1651.42	2.81637
1652.95	2.87266
1654.48	2.61504
1656.01	2.98847
1657.54	2.78718
1659.07	2.97406
1660.6	3.01112
1662.13	2.52846
1663.66	2.80308
1665.19	2.76264
1666.72	2.90726
1668.24	2.94233
1669.77	2.70265
1671.3	2.18856
1672.83	2.597
1674.35	2.39804
1675.88	1.83068
1677.41	2.69829
1678.93	2.34984
1680.46	1.48577
1681.99	1.54063
1683.51	2.05411
1685.04	2.01652
1686.56	2.10776
1688.09	1.3563
1689.61	1.3205
1691.13	1.41316
1692.66	0.975098
1694.18	1.01297
1695.71	0.611872
1697.23	1.10624
1698.75	0.887533
1700.27	0.650396
1701.8	0.212439
1703.32	0.26659
1704.84	0.775359
1706.36	0.864384
1707.88	-0.0831928
1709.4	0.332991
1710.92	0.258576
1712.44	0.184463
1713.96	0.59978
1715.48	-0.107845
1717	0.361287
1718.52	0.45
1720.04	-0.183777
1721.56	-0.0946522
1723.07	0.391483
1724.59	0.211313
1726.11	-0.129436
1727.63	-0.28865
1729.14	0.200938
1730.66	0.671008
1732.18	0.0508614
1733.69	0.301091
1735.21	-0.15983
1736.72	0.176299
1738.24	0.456103
1739.75	0.253808
1741.27	-0.192074
1742.78	-0.185217
1744.3	0.122688
1745.81	0.207119
1747.32	0.165999
1748.84	0.0373211
1750.35	0.00871849
1751.86	0.0900984
1753.37	0.0993729
1754.89	0.236567
1756.4	0.219519
1757.91	-0.225415
1759.42	-0.0659494
1760.93	-0.272216
1762.44	0.0629797
1763.95	0.0388832
1765.46	0.258589
1766.97	-0.0832367
1768.48	-0.0488281
1769.99	-0.317353
1771.5	0.0547361
1773.01	0.0525017
1774.52	-0.156919
1776.03	-0.0756502
1777.53	-0.0629539
1779.04	0.0111561
1780.55	-0.0676956
1782.06	0.197199
1783.56	-0.0492363
1785.07	0.160308
1786.57	-0.298287
1788.08	-0.124954
1789.59	-0.13975
1791.09	-0.196677
1792.6	-0.0151787
1794.1	0.0560503
1795.6	0.173821
1797.11	-0.0653105
1798.61	-0.105704
1800.12	0.112827
1801.62	0.146181
1803.12	0.0908337
1804.63	-0.197398
1806.13	0.100339
1807.63	0.120936
1809.13	0.245824
1810.63	0.0276089
1812.14	0.0890684
1813.64	-0.19429
1815.14	0.198227
1816.64	0.202032
1818.14	0.0638914
1819.64	0.145009
1821.14	0.356958
1822.64	0.107082
1824.14	-0.373497
1825.63	-0.116402
1827.13	-0.000145912
1828.63	0.0798807
1830.13	0.0502071
1831.63	0.0389566
1833.12	0.364923
1834.62	0.0787277
1836.12	0.371999
1837.62	0.0986748
1839.11	0.158743
1840.61	0.19153
1842.1	0.216416
1843.6	0.0369778
1845.09	0.0297823
1846.59	0.13252
1848.08	0.0611496
1849.58	-0.0126257
1851.07	0.235299
1852.57	0.250685
1854.06	0.356665
1855.55	0.295277
1857.04	-0.0214691
1858.54	-0.00622368
1860.03	0.220684
1861.52	0.180973
1863.01	0.342985
1864.5	0.140743
1866	0.1223
1867.49	0.101397
1868.98	0.732045
1870.47	-0.109599
1871.96	0.532335
1873.45	0.31546
1874.94	-0.0271502
1876.43	-0.0973797
1877.92	0.288243
1879.41	0.0498285
1880.89	-0.162819
1882.38	0.532741
1882.48	0.587108
1883.97	0.275295
1885.47	0.45088
1886.96	0.224841
1888.46	0.25965
1889.95	0.433758
1891.44	0.243413
1892.94	0.750169
1894.43	0.319764
1895.92	0.638498
1897.41	0.401653
1898.9	0.52992
1900.4	0.518077
1901.89	0.78297
1903.38	0.472078
1904.87	0.385956
1906.36	0.0558767
1907.85	0.403334
1909.34	0.334434
1910.83	0.0756054
1912.32	0.0779734
1913.81	0.115556
1915.29	0.11853
1916.78	0.0865202
1918.27	0.625983
1919.76	0.159716
1921.25	0.611651
1922.74	0.163252
1924.22	0.183307
1925.71	0.187093
1927.2	0.209186
1928.68	0.353095
1930.17	0.393117
1931.65	0.0860424
1933.14	0.435638
1934.63	0.333322
1936.11	0.66201
1937.59	0.366671
1939.08	0.209472
1940.56	0.346272
1942.05	0.0522442
1943.53	0.380477
1945.01	0.191947
1946.5	0.262481
1947.98	0.0742569
1949.46	0.643458
1950.94	0.264175
1952.43	0.452272
1953.91	0.416009
1955.39	0.585894
1956.87	0.360936
1958.35	0.565954
1959.83	0.359753
1961.31	0.29143
1962.79	0.977524
1964.27	0.29222
1965.75	0.257802
1967.23	0.102961
1968.71	0.272669
1970.19	0.715071
1971.67	-0.192797
1973.14	0.163625
1974.62	0.758394
1976.1	0.466185
1977.58	0.566287
1979.05	0.615273
1980.53	0.153852
1982.01	0.406823
1983.48	0.0816145
1984.96	0.265772
1986.43	0.178031
1987.91	0.564916
1989.38	0.714401
1990.86	0.644309
1992.33	0.609021
1993.81	0.253523
1995.28	0.0849648
1996.76	0.271691
1998.23	0.660924
1999.7	0.610527
2001.18	0.30645
2002.65	0.491307
2004.12	0.0857878
2005.59	0.304397
2007.06	0.675075
2008.54	0.692782
2010.01	-0.197809
2011.48	0.612511
2012.95	0.513783
2014.42	0.498827
2015.89	0.651378
2017.36	0.718856
2018.83	0.600541
2020.3	1.05307
2021.77	0.950764
2023.24	0.479585
2024.71	0.680685
2026.17	0.715024
2027.64	0.146922
2029.11	0.485931
2030.58	0.507525
2032.04	0.73141
2033.51	0.603382
2034.98	0.743931
2036.45	0.531431
2037.91	0.351891
2039.38	0.844146
2040.84	0.37834
2042.31	0.602036
2043.77	1.07883
2045.24	0.866969
2046.7	0.302091
2048.17	0.629662
2049.63	0.653913
2051.1	0.727799
2052.56	0.783375
2054.02	0.297518
2055.48	0.737531
2056.95	0.737696
2058.41	0.989817
2059.87	0.466717
2061.33	0.584206
2062.8	0.752858
2064.26	0.366994
2065.72	1.05917
2067.18	0.557279
2068.64	0.527134
2070.1	0.615102
2071.56	0.719972
2073.02	0.723695
2074.48	1.01341
2075.94	0.258746
2077.4	1.00246
2078.86	1.12269
2080.31	0.720428
2081.77	1.07535
2083.23	0.48683
2084.69	1.02537
2086.14	1.17591
2087.6	1.1239
2089.06	1.34041
2090.52	0.498229
2091.97	1.23496
2093.43	0.98081
2094.88	0.860834
2096.34	0.807551
2097.79	0.904423
2099.25	1.43566
2100.7	0.82856
2102.16	0.991243
2103.61	0.90398
2105.07	1.26866
2106.52	1.16725
2107.97	1.23374
2109.43	1.38393
2110.88	1.48349
2112.33	1.11506
2113.78	1.02843
2115.24	1.14
2116.69	0.967831
2118.14	1.16165
2119.59	1.35642
2121.04	1.12151
2122.49	1.48572
2123.94	1.58593
2125.39	1.18935
2126.84	1.22367
2128.29	1.47249
2129.74	1.30551
2131.19	1.98204
2132.64	1.41551
2134.09	1.72633
2135.54	1.69036
2136.98	2.36661
2138.43	2.0364
2139.88	1.60906
2141.33	2.45609
2142.77	1.66782
2144.22	2.25268
2145.67	1.81206
2147.11	2.51319
2148.56	2.20383
2150.01	2.57257
2151.45	2.21132
2152.9	2.14718
2154.34	2.51293
2155.79	2.24855
2157.23	2.49777
2158.67	2.94647
2160.12	2.71744
2161.56	2.5565
2163	2.57979
2164.45	2.82043
2165.89	2.5809
2167.33	2.73966
2168.78	2.83101
2170.22	2.75415
2171.66	2.59174
2173.1	2.80976
2174.54	2.46065
2175.98	2.5101
2177.42	3.00863
2178.86	2.54356
2180.3	2.92748
2181.74	2.48104
2183.18	2.94975
2184.62	2.30453
2186.06	2.94009
2187.5	2.21151
2188.94	2.58105
2190.38	2.56786
2191.82	2.32129
2193.25	2.19041
2194.69	2.59091
2196.13	1.8741
2197.57	2.30373
2199	2.59801
2200.44	2.1098
2201.88	2.23639
2203.31	2.11458
2204.75	1.99404
2206.18	1.94098
2207.62	1.80569
2209.05	2.03464
2210.49	2.13015
2211.92	2.2741
2213.36	2.06989
2214.79	1.88232
2216.22	1.7616
2217.66	1.74114
2219.09	1.68896
2220.52	1.60472
2221.96	1.61955
2223.39	1.6831
2224.82	1.41585
2226.25	1.64086
2227.68	1.18974
2229.11	1.49368
2230.55	1.10711
2231.98	1.11446
2233.41	1.10564
2234.84	1.5227
2236.27	1.61335
2237.7	1.46056
2239.12	1.16298
2240.55	1.32431
2241.98	1.11222
2243.41	0.917672
2244.84	0.902882
2246.27	1.36051
2247.7	0.8543
2249.12	1.45487
2250.55	0.879588
2251.98	1.11732
2253.41	0.914692
2254.83	0.923869
2256.26	0.885651
2257.68	0.930804
2259.11	0.816378
2260.54	0.931854
2261.96	1.19581
2263.39	0.974359
2264.81	0.91549
2266.24	0.88873
2267.66	0.975055
2269.08	1.14192
2270.51	1.32438
2271.93	0.920214
2273.35	1.21598
2274.78	0.974371
2276.2	0.912064
2277.62	0.833581
2279.04	1.01595
2280.47	0.611302
2281.89	1.07079
2283.31	0.943071
2284.73	0.603168
2286.15	0.328567
2287.57	0.805198
2288.99	0.5802
2290.41	0.616842
2291.83	0.997047
2293.25	0.870711
2294.67	0.596984
2296.09	0.928558
2297.51	0.441581
2298.93	0.150806
2300.35	0.466338
2301.76	0.552845
2303.18	0.967808
2304.6	0.792421
2306.02	0.666042
2307.44	0.621367
2308.85	0.461065
2310.27	0.497416
2311.69	0.533401
2313.1	0.602257
2314.52	0.457535
2315.93	-0.197116
2317.35	0.449794
2318.76	0.0592966
2320.18	0.657773
2321.59	0.711297
2323.01	0.317486
2324.42	0.532123
2325.83	0.794075
2327.25	0.922262
2328.66	0.604547
2330.07	0.764998
2331.49	0.465113
2332.9	0.495636
2334.31	0.247211
2335.72	0.328142
2337.13	0.260618
2338.55	0.405985
2339.96	0.336545
2341.37	0.381251
2342.78	0.392582
2344.19	0.420247
2345.6	0.202256
2347.01	0.0830612
2348.42	0.275053
2349.83	0.417377
2351.24	0.378974
2352.65	0.290727
2354.05	0.315976
2355.46	0.650228
2356.87	0.41353
2358.28	0.535133
2359.69	0.624062
2361.09	0.388271
2362.5	0.152952
2363.91	0.43631
2365.31	0.443944
2366.72	0.0961618
2368.13	0.508442
2369.53	0.130458
2370.94	0.431264
2372.34	0.249593
2373.75	0.262263
2375.15	0.516727
2376.56	0.802811
2377.96	0.331813
2379.37	0.518802
2380.77	0.238366
2382.17	0.14962
2383.58	0.204375
2384.98	0.386714
2386.38	0.289361
2387.79	0.193016
2389.19	0.392905
2390.59	0.243097
2391.99	0.221942
2393.39	0.265378
2394.8	0.134573
2396.2	0.417869
2397.6	0.781013
2399	0.238827
2400.4	0.301001
2401.8	0.188723
2403.2	-0.114058
2404.6	0.63091
2406	0.231815
2407.4	-0.0409298
2408.79	0.542281
2410.19	0.395401
2411.59	0.391439
2412.99	0.451561
2414.39	0.0695066
2415.78	-0.0419741
2417.18	-0.0731192
2418.58	-0.198459
2419.98	0.230787
2421.37	0.470019
2422.77	-0.0039115
2424.16	0.218933
2425.56	0.204177
2426.96	0.142318
2428.35	0.493393
2429.74	0.227069
2431.14	0.278508
2432.53	0.37777
2433.93	0.317847
2435.32	0.193319
2436.72	0.0673919
2438.11	-0.218795
2439.5	0.415275
2440.9	-0.0952063
2442.29	0.219625
2443.68	0.391129
2445.07	0.27682
2446.47	0.00391054
2447.86	0.555188
2449.25	-0.0820799
2450.64	0.15225
2452.03	0.41852
2453.42	0.258109
2454.81	0.699732
2456.2	0.0820565
2457.59	0.129131
2458.98	0.207705
2460.37	0.538777
2461.76	0.204912
2463.15	0.55014
2464.54	0.0255904
2465.93	-0.277714
2467.32	0.0663648
2468.7	0.0156245
2470.09	0.075151
2471.48	0.19726
2472.87	0.0193052
2474.25	0.0770268
2475.64	0.181258
2477.03	0.0649271
2478.41	0.137181
2479.8	0.0839248
2481.18	0.140665
2482.57	0.0249171
2483.95	0.0968037
2485.34	0.292893
2486.72	0.425045
2488.11	0.477828
2489.49	-0.0936332
2490.88	0.0833063
2492.26	-0.0195556
2493.65	0.127212
2495.03	0.383491
2496.41	0.237492
2497.79	0.588178
2499.18	0.0408983
2500.56	0.174674
2501.94	0.431179
2503.32	0.207651
2504.7	0.539028
2506.09	0.36062
2507.47	0.243927
2508.85	-0.010766
2510.23	0.257631
2511.61	-0.041605
2512.99	-0.0330005
2514.37	0.160174
2515.75	0.36917
2517.13	0.135023
2518.51	0.345033
2519.89	-0.270175
2521.26	0.443788
2522.64	-0.0952864
2524.02	0.0977445
2525.4	0.259342
2526.78	0.0397201
2528.15	-0.285709
2529.53	0.104953
2530.91	0.223042
2532.28	-0.0828414
2533.66	0.372286
2535.04	-0.311386
2536.41	-0.0379148
2537.79	0.143804
2539.16	0.279041
2540.54	-0.026866
2541.91	0.334899
2543.29	-0.168168
2544.66	0.209596
2546.04	0.285032
2547.41	0.0127425
2548.78	0.0597816
2550.16	0.167649
2551.53	0.381366
2552.9	0.275562
2554.27	0.259854
2555.65	0.212963
2557.02	0.241415
2558.39	0.148417
2559.76	0.0708742
2561.13	0.0696468
2562.51	0.266025
2563.88	-0.0219879
2565.25	0.0692716
2566.62	0.115316
2567.99	-0.262881
2569.36	0.162173
2570.73	0.0416389
2572.1	0.209134
2573.47	0.119044
2574.84	-0.0619164
2576.2	0.0906849
2577.57	-0.0145011
2578.94	0.183375
2580.31	0.289975
2581.68	-0.225467
2583.05	-0.0134196
2584.41	-0.0441766
2585.78	0.36462
2587.15	0.136874
2588.51	0.212468
2589.88	0.470034
2591.24	0.151636
2592.61	0.211685
2593.98	-0.289506
2595.34	0.117301
2596.71	0.25038
2598.07	-0.0863886
2599.44	0.0153403
2600.8	0.177481
2602.16	0.0680766
2603.53	0.306606
2604.89	0.304062
2606.26	0.0905528
2607.62	0.178508
2608.98	0.0546274
2610.34	0.291288
2611.71	-0.120793
2613.07	0.113349
2614.43	-0.179423
2615.79	-0.321776
2617.15	-0.268752
2618.52	-0.245253
2619.88	-0.0714445
2621.24	-0.0467539
2622.6	-0.305501
2623.96	-0.0858345
2625.32	0.0290642
2626.68	-0.00552988
2628.04	-0.397994
2629.4	0.326625
2630.75	0.0679688
2632.11	-0.086307
2633.47	0.234983
2634.83	0.125314
2636.19	0.238267
2637.55	0.173221
2638.9	-0.261823
2640.26	0.250851
2641.62	-0.00576591
2642.98	0.122378
2644.33	-0.16284
2645.69	0.186663
2647.04	-0.246001
2648.4	-0.0157433
2649.76	0.139804
2651.11	-0.146623
2652.47	-0.18308
2653.82	0.000807285
2655.18	0.0384474
2656.53	0.355327
2657.88	-0.205321
2659.24	-0.281719
2660.59	0.0371475
2661.95	0.107157
2663.3	-0.305434
2664.65	0.0408049
2666	0.0212326
2667.36	-0.202773
2668.71	0.330717
2670.06	0.252512
2671.41	0.378496
2672.76	-0.0181532
2674.12	0.0364547
2675.47	-0.184226
2676.82	0.103632
2678.17	-0.333284
2679.52	-0.174695
2680.87	0.0282803
2682.22	0.0873685
2683.57	-0.0554223
2684.92	-0.139349
2686.27	0.139878
2687.62	-0.0597758
2688.97	0.000745773
2690.31	-0.245094
2691.66	0.0445409
2693.01	-0.247729
2694.36	-0.0910711
2695.71	0.0362635
2697.05	0.265437
2698.4	-0.0546336
2699.75	-0.17031
2701.09	0.0776234
2702.44	0.486395
2703.78	-0.1758
2705.13	-0.0117183
2706.48	-0.137491
2707.82	-0.118479
2709.17	0.0889254
2710.51	-0.0668974
2711.86	0.0674849
2713.2	0.550586
2714.54	0.118201
2715.89	0.0780983
2717.23	0.168764
2718.57	0.0701418
2719.92	-0.0579395
2721.26	0.0318413
2722.6	0.0921173
2723.95	0.122873
2725.29	0.0368028
2726.63	-0.209697
2727.97	0.125725
2729.31	0.257147
2730.65	0.184714
2732	-0.0768447
2733.34	0.360007
2734.68	0.258769
2736.02	-0.118589
2737.36	0.435054
2738.7	0.0433416
2740.04	0.116829
2741.38	0.102649
2742.72	0.16059
2744.05	-0.159984
2745.39	0.187384
2746.73	0.0694046
2748.07	0.227153
2749.41	-0.0214305
2750.75	0.179992
2752.08	0.00457001
2753.42	-0.257446
2754.76	0.161831
2756.09	0.218898
2757.43	0.160264
2758.77	0.217726
2760.1	-0.0718136
2761.44	-0.201614
2762.78	0.189977
2764.11	0.277986
2765.44	0.192389
2766.78	0.0774798
2768.11	-0.038209
2769.45	-0.0971346
2770.78	0.11728
2772.12	0.214646
2773.45	0.0511732
2774.78	0.0604792
2776.12	-0.16073
2777.45	0.0505381
2778.78	-0.18381
2780.12	0.0281591
2781.45	-0.219384
2782.78	0.208013
2784.11	-0.0535917
2785.44	0.0721154
2786.78	0.0975761
2788.11	0.166424
2789.44	0.164402
2790.77	-0.0369945
2792.1	0.334412
2793.43	-0.108723
2794.76	-0.151418
2796.09	0.177131
2797.42	-0.0234985
2798.75	0.175309
2800.08	0.130943
2801.4	-0.15613
2802.73	0.298346
2804.06	0.068099
2805.39	-0.247733
2806.72	0.333011
2808.05	-0.0121317
2809.37	0.0265923
2810.7	-0.0625305
2812.03	0.0760803
2813.35	0.215561
2814.68	-0.0123448
2816.01	0.0588861
2817.33	0.315406
2818.66	0.048069
2819.98	-0.0491452
2821.31	0.221761
2822.63	0.251105
2823.96	0.16652
2825.28	-0.272461
2826.61	0.0251937
2827.93	0.323191
2829.25	0.579167
2830.58	0.53829
2831.9	0.299466
2833.23	0.230484
2834.55	0.387701
2835.87	0.544444
2837.19	0.474257
2838.52	0.714908
2839.84	0.941099
2841.16	1.15313
2842.48	1.42202
2843.8	1.71973
2845.12	1.24086
2846.44	1.51166
2847.77	2.27751
2849.08	1.89863
2850.4	2.22616
2851.73	2.10089
2853.05	2.34258
2854.36	2.18814
2855.68	2.76825
2857	2.62771
2858.32	2.5014
2859.64	2.72818
2860.96	2.62996
2862.28	2.64438
2863.59	2.89836
2864.91	3.40592
2866.23	3.20785
2867.55	3.75761
2868.86	3.72951
2870.18	3.98384
2871.5	3.82951
2872.81	3.91453
2874.13	3.74511
2875.44	4.0113
2876.76	4.54357
2878.07	4.9196
2879.39	4.38073
2880.7	4.36284
2882.02	4.72522
2883.33	4.56884
2884.65	4.34346
2885.96	4.49789
2887.28	4.34358
2888.59	4.14678
2889.9	4.20173
2891.21	4.70443
2892.53	4.67341
2893.84	4.58618
2895.15	4.19135
2896.46	4.52555
2897.78	4.95863
2899.09	5.09887
2900.4	4.82029
2901.71	4.73811
2903.02	5.45349
2904.33	5.03598
2905.64	5.73775
2906.95	5.81072
2908.26	5.71675
2909.57	6.01547
2910.88	5.93711
2912.19	6.34862
2913.5	6.32542
2914.81	6.11859
2916.12	7.19772
2917.43	7.09891
2918.73	7.30671
2920.04	7.17846
2921.35	7.37263
2922.66	8.43487
2923.96	7.8212
2925.27	8.00573
2926.58	8.17707
2927.88	8.68398
2929.19	8.19786
2930.5	8.85738
2931.8	8.55165
2933.11	8.49721
2934.41	9.19745
2935.72	8.72374
2937.02	8.47387
2938.33	8.54563
2939.63	8.72949
2940.94	8.00568
2942.24	7.81385
2943.54	8.01473
2944.85	7.6022
2946.15	7.23278
2947.45	6.84978
2948.76	6.25626
2950.06	6.16508
2951.36	6.82801
2952.66	6.43857
2953.97	5.9215
2955.27	5.97802
2956.57	5.92344
2957.87	5.46514
2959.17	5.83566
2960.47	5.50914
2961.77	5.68914
2963.07	5.28108
2964.37	5.16664
2965.67	5.06452
2966.97	5.14316
2968.27	4.84074
2969.57	4.38258
2970.87	4.68352
2972.17	4.2533
2973.47	4.31572
2974.77	4.64559
2976.07	4.1583
2977.36	4.04965
2978.66	3.93914
2979.96	3.86899
2981.26	3.90996
2982.55	3.7111
2983.85	3.65326
2985.15	3.1468
2986.44	3.17606
2987.74	3.03816
2989.03	2.63426
2990.33	2.65216
2991.63	2.64144
2992.92	2.34853
2994.21	2.37755
2995.51	2.16656
2996.8	2.01107
2998.1	1.95366
2999.39	2.37338
3000.69	1.97998
3001.98	1.72756
3003.27	1.26547
3004.57	1.18192
3005.86	1.63027
3007.15	1.57369
3008.44	1.04057
3009.74	1.1643
3011.03	1.51064
3012.32	0.73901
3013.61	0.931082
3014.9	0.872245
3016.19	0.897649
3017.48	0.770514
3018.78	0.852666
3020.07	0.920833
3021.36	1.12743
3022.65	0.652275
3023.94	0.690324
3025.23	0.90772
3026.51	0.570355
3027.8	0.427691
3029.09	0.673326
3030.38	0.353424
3031.67	0.670428
3032.96	0.808629
3034.24	0.353554
3035.53	0.73977
3036.82	0.752039
3038.11	0.597175
3039.39	0.523297
3040.68	0.654165
3041.97	0.385649
3043.25	0.761895
3044.54	0.809279
3045.83	0.215404
3047.11	0.867713
3048.4	0.538267
3049.68	0.716032
3050.97	1.05891
3052.25	0.665618
3053.54	0.831742
3054.82	0.80612
3056.11	1.10671
3057.39	0.710629
3058.67	0.81815
3059.96	1.03407
3061.24	0.719257
3062.52	0.827214
3063.81	0.868324
3065.09	0.73408
3066.37	0.859414
3067.65	0.60494
3068.94	0.758659
3070.22	0.232031
3071.5	0.574915
3072.78	0.481322
3074.06	0.427252
3075.34	0.385795
3076.62	0.669846
3077.9	0.153012
3079.18	0.2209
3080.46	0.0729489
3081.74	0.279007
3083.02	0.201251
3084.3	0.422521
3085.58	0.277397
3086.86	0.389586
3088.14	0.324538
3089.42	0.0958405
3090.69	-0.0655074
3091.97	0.2342
3093.25	0.316756
3094.53	0.0468316
3095.8	-0.0330524
3097.08	0.0361571
3098.36	0.240678
3099.63	-0.0294151
3100.91	0.269347
3102.19	0.229282
3103.46	0.148726
3104.74	0.0685258
3106.01	0.354279
3107.29	0.018189
3108.56	0.264832
3109.84	-0.191477
3111.11	0.0838904
3112.39	-0.141154
3113.66	0.121697
3114.94	-0.116962
3116.21	-0.234307
3117.48	-0.0406613
3118.76	0.1112
3120.03	-0.104314
3121.3	-0.0224876
3122.57	-0.0227551
3123.85	-0.0640278
3125.12	0.0978127
3126.39	0.0973306
3127.66	0.367777
3128.93	0.259661
3130.21	0.138252
3131.48	0.138498
3132.75	0.16545
3134.02	-0.199845
3135.29	-0.106461
3136.56	0.148002
3137.83	0.0239444
3139.1	-0.100488
3140.37	-0.3193
3141.64	0.188294
3142.91	-0.00363207
3144.17	0.342009
3145.44	0.110624
3146.71	0.134703
3147.98	-0.282942
3149.25	-0.0570707
