200.533	-0.133458
202.348	-0.0965853
204.162	-0.0589104
205.976	0.173902
207.792	0.455148
209.605	0.273627
211.418	0.382401
213.23	-0.117252
215.044	0.619511
216.856	0.433394
218.667	0.513787
220.478	0.0135899
222.289	0.312844
224.102	0.0805454
225.912	0.332015
227.721	0.389838
229.531	0.133106
231.34	-0.148278
233.148	-0.068058
234.956	0.277438
236.766	0.696017
238.574	0.561858
240.381	0.0683069
242.188	-0.471876
243.994	0.797704
245.801	-0.514375
247.606	0.0540628
249.412	-0.0077486
251.217	-0.145046
253.024	-0.0435591
254.828	0.0801754
256.632	0.56487
258.436	-0.492591
260.239	0.0660849
262.042	0.312929
263.845	0.175637
265.647	-0.0573215
267.449	0.23992
269.25	0.657311
271.052	-0.131602
272.852	0.163078
274.653	0.215182
276.453	-0.0959826
278.253	0.627349
280.052	-0.217502
281.852	0.477037
283.65	-0.057807
285.449	0.391888
287.247	-0.0721579
289.044	-0.319627
290.842	0.0806236
292.639	-0.236824
294.436	-0.0263996
296.232	0.113209
298.028	0.157898
299.821	0.847892
301.617	0.557887
303.412	-0.114875
305.206	0.30944
307	0.0406733
308.794	0.200941
310.588	0.456717
312.381	0.332185
314.172	0.732927
315.964	0.325636
317.756	0.157919
319.548	0.205745
321.34	0.182994
323.131	0.423095
324.921	0.0910225
326.71	0.522545
328.5	0.380852
330.29	0.0469828
332.079	-0.0253248
333.868	0.0681591
335.654	0.422895
337.443	0.368701
339.231	0.145057
341.018	0.470095
342.804	0.00520325
344.591	0.209595
346.377	0.103663
348.163	0.0699358
349.947	0.25138
351.733	-0.0208158
353.518	0.0882902
355.303	0.31556
357.085	-0.388512
358.869	0.813271
360.653	0.250212
362.435	-0.0750227
364.218	-0.0913954
366.001	0.105345
367.781	0.751887
369.563	-0.0737362
371.345	-0.0932045
373.124	0.525442
374.905	0.315188
376.686	0.671897
378.464	0.792445
380.244	0.489529
382.022	0.65887
383.801	0.241066
385.58	-0.057622
387.357	0.326359
389.135	0.00627041
390.911	-0.125026
392.689	0.871575
394.466	0.295156
396.241	0.376532
398.018	-0.270134
399.792	0.116333
401.568	-0.155285
403.341	0.112688
405.117	0.497353
406.889	0.435023
408.664	0.325162
410.436	0.543606
412.21	0.527268
413.981	0.300076
415.755	-0.137668
417.525	0.786138
419.298	0.349533
421.068	0.0303097
422.84	-0.148438
424.609	-0.327893
426.38	0.243071
428.149	-0.290109
429.919	0.420403
431.688	0.332713
433.455	0.0340462
435.225	0.134619
436.992	0.0473461
438.76	0.0532951
440.527	-0.129786
442.293	0.178061
444.06	-0.0320415
445.826	0.17816
447.593	-0.0109224
449.357	0.641686
451.122	0.755864
452.888	0.449941
454.651	0.634486
456.415	-0.346614
458.18	0.140775
459.942	0.0689697
461.705	0.811705
463.469	0.392912
465.23	0.487729
466.991	0.0506067
468.752	0.475595
470.515	0.553723
472.275	-0.344941
474.035	0.128398
475.797	0.274532
477.556	0.581884
479.315	0.212062
481.073	0.307261
482.834	0.65876
484.592	0.731812
486.349	0.550375
488.106	0.39399
489.863	0.495768
491.622	0.0850458
493.378	0.912511
495.134	0.829548
496.889	0.418586
498.645	0.943827
500.401	0.0155516
502.156	0.000478745
503.91	-0.132839
505.664	0.649335
507.417	0.678622
509.171	-0.0698032
510.923	0.544703
512.678	0.452006
514.43	0.522668
516.182	0.803787
517.933	0.777917
519.684	0.18697
521.435	0.606193
523.186	0.202642
524.936	1.04326
526.686	0.686587
528.435	0.470973
530.184	0.560102
531.933	0.555065
533.682	0.876973
535.43	0.35533
537.18	0.347381
538.927	0.735068
540.674	0.351326
542.421	0.550035
544.167	0.32919
545.913	1.01499
547.659	0.469347
549.403	0.666968
551.148	0.887475
552.893	0.228736
554.637	0.357142
556.381	0.347024
558.125	-0.308394
559.868	0.281874
561.611	0.181032
563.354	1.02388
565.097	0.188168
566.839	-0.232409
568.581	-0.169729
570.322	-0.129177
572.063	-0.110442
573.802	-0.205026
575.542	0.390084
577.283	-0.367
579.022	-0.159359
580.762	0.0720587
582.501	-0.178794
584.24	0.144403
585.976	0.420978
587.714	0.23651
589.452	0.603088
591.19	-0.0664673
592.927	0.436911
594.663	0.226918
596.398	0.0859957
598.134	0.336151
599.87	0.539956
601.605	0.282904
603.338	-0.15915
605.073	0.271413
606.808	0.126028
608.542	-0.433228
610.274	0.568668
612.007	-0.0128107
613.74	0.438676
615.473	0.294514
617.204	0.63172
618.936	0.143741
620.668	0.387721
622.397	-0.216045
624.128	0.666107
625.859	-0.371755
627.588	0.190672
629.318	0.0468311
631.048	0.452713
632.775	0.609383
634.505	0.515971
636.233	0.536344
637.96	1.67366
639.688	0.480196
641.416	0.813185
643.142	0.0724182
644.869	0.24258
646.594	0.0260658
648.32	0.879857
650.045	0.735939
651.771	0.550175
653.496	0.481511
655.219	0.893457
656.944	0.306315
658.667	0.539403
660.391	0.475936
662.113	0.981887
663.837	0.937948
665.558	0.571619
667.281	-0.0481873
669.002	0.131672
670.724	0.380913
672.444	-0.0316734
674.166	0.267281
675.885	0.981132
677.606	-0.0692863
679.325	0.417157
681.045	0.512842
682.763	-0.0601168
684.483	0.67654
686.2	0.951503
687.917	0.948776
689.636	0.922014
691.352	0.7103
693.07	0.63622
694.786	1.57487
696.501	-0.0437498
698.219	0.570389
699.933	1.09092
701.65	1.31088
703.364	1.09302
705.078	0.645134
706.793	0.748194
708.506	0.919522
710.219	0.631985
711.934	1.28317
713.646	0.903707
715.358	0.66185
717.071	1.10529
718.782	0.81812
720.493	1.12416
722.204	1.20211
723.916	1.00694
725.626	1.74403
727.336	1.77547
729.045	1.05763
730.756	1.0888
732.464	1.25546
734.173	1.10487
735.881	0.886847
737.59	0.895365
739.297	1.10754
741.004	1.47804
742.711	1.44369
744.417	1.4332
746.125	1.33404
747.831	1.46123
749.537	1.22976
751.242	1.13449
752.946	1.33283
754.651	1.30754
756.357	1.35114
758.061	1.26112
759.764	1.71307
761.467	1.73832
763.17	0.906657
764.872	1.31544
766.575	1.49777
768.276	1.45254
769.978	1.02085
771.679	2.17018
773.382	1.82574
775.083	1.63921
776.783	1.67933
778.483	1.40412
780.182	2.14799
781.882	1.7395
783.581	1.73822
785.279	2.21123
786.978	2.20665
788.676	1.42952
790.373	1.78095
792.071	1.33838
793.768	1.45962
795.464	1.6932
797.161	1.6117
798.857	1.73456
800.552	1.43131
802.248	1.44462
803.941	2.02074
805.636	1.15754
807.33	2.15927
809.024	1.49708
810.718	2.67474
812.412	1.42808
814.105	1.37033
815.798	2.11833
817.49	1.76907
819.183	1.39812
820.873	2.12209
822.564	1.95279
824.256	2.09667
825.947	1.68468
827.637	2.07695
829.328	1.13548
831.016	1.80034
832.705	2.40131
834.395	2.18009
836.084	2.11571
837.772	1.76088
839.459	1.73951
841.147	2.2304
842.835	1.73722
844.522	1.53391
846.209	1.24177
847.894	1.62186
849.581	1.91512
851.267	2.00965
852.953	1.72512
854.637	1.28376
856.322	1.73982
858.007	1.52119
859.689	1.66067
861.374	1.03306
863.058	1.25939
864.739	2.18342
866.423	1.28111
868.106	1.25716
869.787	0.691507
871.469	0.892326
873.151	1.27352
874.831	1.69989
876.512	1.58478
878.193	0.995672
879.872	1.85099
881.553	1.69024
883.231	1.34819
884.911	1.23086
886.591	1.40568
888.268	0.992365
889.947	1.88587
891.623	1.83043
893.302	1.00811
894.978	0.613572
896.656	1.34273
898.331	1.1264
900.008	0.842372
901.683	1.67847
903.359	0.811459
905.033	0.818009
906.709	1.07026
908.383	0.988092
910.058	1.26318
911.731	0.871175
913.405	1.25837
915.078	1.11229
916.752	1.54324
918.423	1.24201
920.096	1.11857
921.768	1.34982
923.438	1.31653
925.111	1.52777
926.781	0.945697
928.452	1.27053
930.122	1.0226
931.791	1.32694
933.462	1.25641
935.13	0.766983
936.799	1.88807
938.468	0.672108
940.136	0.93492
941.803	1.02241
943.472	1.35332
945.139	0.580643
946.805	1.39602
948.473	1.06191
950.139	1.01305
951.804	0.830754
953.471	0.758936
955.136	0.953189
956.801	1.03968
958.465	1.21742
960.131	1.1551
961.794	1.00572
963.458	0.347544
965.12	0.991994
966.785	1.03718
968.447	1.01344
970.109	0.744454
971.771	1.49226
973.432	0.205709
975.095	1.04359
976.756	1.30819
978.417	1.39732
980.077	0.967077
981.737	0.536192
983.396	1.2219
985.057	1.52949
986.716	1.835
988.375	2.2049
990.033	1.04747
991.691	1.48185
993.349	1.18672
995.006	0.936172
996.663	1.10518
998.32	1.20782
999.976	1.90505
1001.63	2.40281
1003.29	1.55712
1004.95	1.15208
1006.6	1.18701
1008.26	1.222
1009.91	0.79644
1011.56	0.788504
1013.22	1.10972
1014.87	1.08049
1016.53	0.876533
1018.18	1.17651
1019.83	0.383447
1021.48	0.772514
1023.14	1.05307
1024.79	-0.0205517
1026.44	0.698442
1028.09	1.26433
1029.74	0.737157
1031.39	1.08268
1033.04	0.92436
1034.69	0.961029
1036.34	0.865577
1037.99	1.07451
1039.64	0.934783
1041.29	0.708905
1042.94	1.24531
1044.58	1.04412
1046.23	0.410491
1047.88	0.951526
1049.52	1.03795
1051.17	0.821464
1052.82	1.32257
1054.46	0.868105
1056.11	0.913332
1057.75	0.893088
1059.4	0.633217
1061.04	0.764098
1062.69	0.676827
1064.33	0.9801
1065.98	0.499704
1067.62	0.561884
1069.26	0.253827
1070.9	0.814097
1072.55	0.505527
1074.19	1.06556
1075.83	0.780245
1077.47	-0.479599
1079.11	0.256894
1080.76	0.408486
1082.4	0.061305
1084.04	1.0143
1085.68	0.38306
1087.32	0.443792
1088.95	0.45931
1090.59	0.819419
1092.23	0.896841
1093.87	0.67133
1095.51	1.00736
1097.15	0.804706
1098.78	0.560556
1100.42	0.490536
1102.06	0.788108
1103.69	1.60341
1105.33	-0.312018
1106.97	0.268314
1108.6	0.439645
1110.24	0.588428
1111.87	0.99359
1113.51	0.602087
1115.14	0.639252
1116.77	0.804559
1118.41	0.583888
1120.04	0.856882
1121.67	0.466723
1123.31	0.998206
1124.94	0.824164
1126.57	0.201884
1128.2	0.585646
1129.83	0.178818
1131.47	-0.0563812
1133.1	0.35003
1134.72	0.627991
1136.36	0.648825
1137.98	0.818251
1139.62	0.0893764
1141.24	0.385001
1142.87	-0.173627
1144.5	0.14287
1146.13	0.0546436
1147.76	0.0951805
1149.38	-0.204432
1151.01	0.0290003
1152.64	0.0706644
1154.27	0.112003
1155.89	0.748877
1157.52	0.00234222
1159.14	0.341323
1160.77	-0.0633526
1162.39	0.107141
1164.02	-0.104228
1165.64	0.216372
1167.27	0.430419
1168.89	0.515903
1170.51	0.366022
1172.14	0.129536
1173.76	0.146536
1175.38	0.904961
1177	0.474671
1178.63	0.405344
1180.25	0.442582
1181.87	0.163294
1183.49	-0.115085
1185.11	0.0716934
1186.73	0.447432
1188.35	-0.339229
1189.97	0.538937
1191.59	1.09768
1193.21	0.223996
1194.83	0.0028038
1196.45	0.767587
1198.07	0.400627
1199.68	0.914486
1201.3	-0.0121078
1202.92	0.526607
1204.53	0.524458
1206.15	0.691149
1207.77	0.420871
1209.38	0.88096
1211	0.797884
1212.62	1.08852
1214.23	0.272425
1215.84	0.496481
1217.46	0.926562
1219.07	0.689921
1220.69	0.972632
1222.3	1.46281
1223.91	0.896648
1225.53	0.581252
1227.14	1.21949
1228.75	0.679486
1230.36	1.07147
1231.97	1.05095
1233.59	0.948904
1235.2	1.55074
1236.81	1.43038
1238.42	1.45568
1240.03	1.46094
1241.64	0.969974
1243.25	1.43013
1244.85	0.730956
1246.46	1.2723
1248.07	1.48163
1249.68	1.50399
1251.29	1.05026
1252.9	1.11399
1254.5	1.13703
1256.11	0.892195
1257.72	1.10357
1259.32	0.881566
1260.93	1.55034
1262.54	2.15792
1264.14	1.64731
1265.75	1.50893
1267.35	1.55632
1268.96	1.4577
1270.56	0.69455
1272.16	1.63059
1273.77	1.73625
1275.37	1.86164
1276.97	1.77881
1278.57	1.36381
1280.18	1.98383
1281.78	1.27847
1283.38	1.64957
1284.98	1.40055
1286.58	1.54535
1288.18	1.29838
1289.78	1.23834
1291.38	1.86068
1292.99	1.7803
1294.58	1.34802
1296.18	1.65818
1297.78	1.47113
1299.38	1.81907
1300.98	1.2374
1302.58	2.05613
1304.17	1.90528
1305.77	2.10349
1307.37	1.9106
1308.97	2.06656
1310.56	1.89434
1312.16	1.64099
1313.76	2.37053
1315.35	1.40384
1316.95	1.52174
1318.54	1.57878
1320.14	1.00364
1321.73	1.52847
1323.32	1.56251
1324.92	1.43223
1326.51	1.32124
1328.1	1.89931
1329.7	1.58563
1331.29	1.8203
1332.88	1.38992
1334.47	1.89111
1336.07	1.96949
1337.66	1.90713
1339.25	1.56196
1340.84	1.23579
1342.43	1.55209
1344.02	1.60456
1345.61	1.95702
1347.2	0.504301
1348.79	1.33967
1350.37	1.37529
1351.96	0.633227
1353.55	0.813358
1355.14	1.19438
1356.73	1.25581
1358.31	1.57648
1359.9	0.937551
1361.49	0.517766
1363.07	0.815804
1364.66	0.834114
1366.25	0.175241
1367.83	1.11086
1369.42	1.19082
1371	1.11285
1372.59	1.13567
1374.17	1.23912
1375.75	0.98501
1377.34	0.67127
1378.92	0.993823
1380.5	0.459853
1382.09	1.23782
1383.67	0.482971
1385.25	0.761447
1386.83	0.522743
1388.42	0.741142
1390	0.920254
1391.58	1.29848
1393.16	0.982916
1394.74	0.588504
1396.32	0.769128
1397.9	0.711148
1399.48	1.12787
1401.06	0.612529
1402.64	0.41393
1404.21	0.888164
1405.79	0.947151
1407.37	0.848755
1408.95	0.79072
1410.53	0.812177
1412.1	0.339918
1413.68	0.439897
1415.26	0.617939
1416.83	0.814803
1418.41	1.07026
1419.98	1.03029
1421.56	0.479414
1423.13	0.34367
1424.71	1.21317
1426.28	1.07992
1427.86	0.848732
1429.43	1.42428
1431	0.798356
1432.58	1.70646
1434.15	1.09846
1435.72	1.21808
1437.29	1.29852
1438.87	1.51721
1440.44	1.18646
1442.01	1.72138
1443.58	1.3529
1445.15	1.71196
1446.72	1.48157
1448.29	1.89999
1449.86	2.02389
1451.43	2.50222
1453	1.99792
1454.57	1.67081
1456.14	1.65831
1457.71	1.74358
1459.27	1.63085
1460.84	1.91005
1462.41	1.67585
1463.98	1.36161
1465.54	1.63632
1467.11	1.2229
1468.67	0.928082
1470.24	0.595104
1471.81	0.93035
1473.37	0.36417
1474.94	0.563634
1476.5	0.449686
1478.07	0.296652
1479.63	0.359224
1481.19	0.206112
1482.76	0.856436
1484.32	0.134893
1485.88	0.216487
1487.45	0.219049
1489.01	0.2988
1490.57	-0.503537
1492.13	0.159796
1493.69	0.234228
1495.26	-0.219706
1496.82	0.0669804
1498.38	-0.172588
1499.94	-0.0224123
1501.5	0.186537
1503.06	0.570566
1504.62	0.334643
1506.17	0.989777
1507.73	0.753551
1509.29	0.420291
1510.85	0.0288973
1512.41	0.196591
1513.97	0.613735
1515.52	-0.0655708
1517.08	0.447528
1518.64	-0.420489
1520.19	0.169613
1521.75	0.509878
1523.31	0.122828
1524.86	0.041441
1526.42	-0.0405865
1527.97	0.276696
1529.52	0.250414
1531.08	0.736817
1532.63	0.0847645
1534.19	0.192609
1535.74	0.41456
1537.29	0.24008
1538.85	0.746005
1540.4	0.251927
1541.95	0.56889
1543.5	0.47114
1545.06	0.824621
1546.61	0.40717
1548.16	0.590824
1549.71	0.699108
1551.26	0.245638
1552.81	0.597854
1554.36	1.00633
1555.91	0.985898
1557.46	0.724452
1559.01	0.744852
1560.56	0.505739
1562.11	0.827688
1563.65	0.57228
1565.2	0.97036
1566.75	0.547513
1568.29	0.982899
1569.84	1.28738
1571.39	1.18088
1572.94	1.24212
1574.48	0.967234
1576.03	1.45774
1577.57	1.23908
1579.12	1.24482
1580.66	1.10175
1582.21	1.16477
1583.75	1.30332
1585.3	0.508189
1586.84	1.00291
1588.38	1.46075
1589.93	1.39483
1591.47	1.01022
1593.01	0.943259
1594.55	1.40047
1596.1	1.14603
1597.64	1.51031
1599.18	1.38798
1600.72	1.96027
1602.26	1.40743
1603.8	1.47367
1605.34	1.46419
1606.88	1.11515
1608.42	1.32809
1609.96	1.03152
1611.5	1.31548
1613.04	2.06692
1614.58	0.883246
1616.12	1.57625
1617.65	1.16296
1619.19	1.40688
1620.73	1.35233
1622.27	1.69225
1623.8	1.39628
1625.34	0.875772
1626.87	1.73964
1628.41	1.36708
1629.95	1.27405
1631.48	1.57265
1633.02	1.51569
1634.55	1.42176
1636.09	2.07497
1637.62	1.796
1639.15	1.4619
1640.69	1.83624
1642.22	2.11655
1643.76	1.98589
1645.29	2.52411
1646.82	1.87066
1648.35	1.62666
1649.88	2.21894
1651.42	2.25473
1652.95	2.31025
1654.48	2.10726
1656.01	2.29423
1657.54	2.05484
1659.07	2.09268
1660.6	2.14773
1662.13	2.27531
1663.66	2.03192
1665.19	2.45328
1666.72	2.1177
1668.24	2.13409
1669.77	2.05975
1671.3	1.83951
1672.83	1.73098
1674.35	1.7334
1675.88	1.49624
1677.41	1.88422
1678.93	1.84776
1680.46	2.03096
1681.99	1.25779
1683.51	1.49522
1685.04	1.36542
1686.56	0.594266
1688.09	0.777456
1689.61	0.594412
1691.13	0.777943
1692.66	0.723453
1694.18	0.504343
1695.71	1.10797
1697.23	0.614439
1698.75	0.742038
1700.27	0.522369
1701.8	0.229594
1703.32	0.720378
1704.84	0.499773
1706.36	0.806773
1707.88	-0.0685863
1709.4	0.0382833
1710.92	0.199483
1712.44	0.288026
1713.96	0.195389
1715.48	0.265871
1717	0.13722
1718.52	0.117104
1720.04	0.151134
1721.56	0.149173
1723.07	0.0755692
1724.59	0.128997
1726.11	0.201445
1727.63	0.328914
1729.14	-0.316672
1730.66	0.0302982
1732.18	-0.210678
1733.69	0.00602531
1735.21	0.404284
1736.72	0.0407681
1738.24	-0.312978
1739.75	0.281695
1741.27	0.478875
1742.78	0.157405
1744.3	0.040174
1745.81	0.141304
1747.32	0.337909
1748.84	0.319777
1750.35	-0.0836825
1751.86	0.215827
1753.37	0.195191
1754.89	0.293687
1756.4	0.224591
1757.91	0.0827394
1759.42	-0.160618
1760.93	0.010376
1762.44	-0.358674
1763.95	-0.2217
1765.46	0.172324
1766.97	0.22722
1768.48	-0.070015
1769.99	-0.0865769
1771.5	0.0837317
1773.01	0.182161
1774.52	-0.0792623
1776.03	0.0457625
1777.53	0.0316148
1779.04	0.0654354
1780.55	-0.315684
1782.06	-0.187303
1783.56	-0.146207
1785.07	-0.242738
1786.57	-0.129923
1788.08	0.191238
1789.59	0.559892
1791.09	0.325805
1792.6	-0.106128
1794.1	0.0965204
1795.6	0.156197
1797.11	-0.0323248
1798.61	0.0656114
1800.12	0.142589
1801.62	-0.319886
1803.12	-0.25647
1804.63	0.129676
1806.13	0.0692191
1807.63	-0.0118523
1809.13	0.141337
1810.63	0.213603
1812.14	0.088634
1813.64	-0.226578
1815.14	-0.0326066
1816.64	-0.0524955
1818.14	0.295224
1819.64	0.136184
1821.14	0.095387
1822.64	-0.0572119
1824.14	0.371099
1825.63	0.112316
1827.13	0.0872846
1828.63	-0.0694628
1830.13	0.192243
1831.63	-0.391857
1833.12	-0.0824704
1834.62	-0.0610843
1836.12	0.287766
1837.62	0.129138
1839.11	0.15697
1840.61	0.166401
1842.1	0.0937395
1843.6	0.216555
1845.09	0.0717316
1846.59	-0.0589237
1848.08	0.0349708
1849.58	-0.243203
1851.07	0.239966
1852.57	0.198752
1854.06	0.17819
1855.55	-0.0688028
1857.04	-0.236188
1858.54	-0.154567
1860.03	0.0213828
1861.52	-0.160592
1863.01	0.0191598
1864.5	0.070724
1866	0.153202
1867.49	0.448994
1868.98	0.0337744
1870.47	0.411694
1871.96	0.172378
1873.45	0.0505872
1874.94	0.0534234
1876.43	0.172012
1877.92	0.0604048
1879.41	0.0643458
1880.89	0.472255
1882.38	0.373686
1882.48	0.368639
1883.97	0.33482
1885.47	0.126111
1886.96	0.230381
1888.46	0.00335979
1889.95	0.194272
1891.44	0.246657
1892.94	0.126443
1894.43	0.025125
1895.92	0.272801
1897.41	-0.139616
1898.9	-0.099999
1900.4	-0.0263538
1901.89	0.0460052
1903.38	-0.0569944
1904.87	0.221356
1906.36	0.325026
1907.85	0.185421
1909.34	0.653944
1910.83	0.203264
1912.32	0.308696
1913.81	0.345182
1915.29	0.0349245
1916.78	0.14061
1918.27	0.523122
1919.76	0.0213513
1921.25	0.281936
1922.74	-0.219225
1924.22	0.457767
1925.71	-0.145514
1927.2	0.360025
1928.68	0.0697346
1930.17	0.0910544
1931.65	-0.0267925
1933.14	0.304434
1934.63	0.166695
1936.11	-0.179913
1937.59	0.337448
1939.08	0.00707102
1940.56	0.41984
1942.05	0.0907168
1943.53	-0.0302405
1945.01	0.0565114
1946.5	0.402098
1947.98	-0.148857
1949.46	0.230254
1950.94	0.143324
1952.43	0.0385308
1953.91	0.60403
1955.39	0.103269
1956.87	0.341896
1958.35	0.151711
1959.83	-0.209233
1961.31	0.322223
1962.79	0.0306721
1964.27	0.37314
1965.75	-0.0214853
1967.23	0.131447
1968.71	0.369184
1970.19	0.349717
1971.67	0.176324
1973.14	-0.0480886
1974.62	-0.118608
1976.1	-0.274121
1977.58	0.269049
1979.05	0.0626202
1980.53	-0.194592
1982.01	0.109354
1983.48	0.293734
1984.96	0.0871673
1986.43	0.0503116
1987.91	-0.139036
1989.38	0.298702
1990.86	0.29635
1992.33	0.0241351
1993.81	0.17562
1995.28	0.395227
1996.76	0.0913339
1998.23	0.598257
1999.7	0.277236
2001.18	0.175349
2002.65	0.0900149
2004.12	0.156363
2005.59	0.408242
2007.06	0.458372
2008.54	0.32401
2010.01	0.291423
2011.48	0.0909395
2012.95	0.176682
2014.42	0.211581
2015.89	0.363616
2017.36	0.161628
2018.83	0.328972
2020.3	0.0420318
2021.77	0.494171
2023.24	0.526469
2024.71	0.49226
2026.17	0.391935
2027.64	0.292808
2029.11	0.379379
2030.58	-0.0530076
2032.04	0.287065
2033.51	0.527035
2034.98	0.666401
2036.45	0.519965
2037.91	0.541021
2039.38	0.208809
2040.84	0.296638
2042.31	0.45205
2043.77	0.439941
2045.24	0.613645
2046.7	0.535607
2048.17	0.525117
2049.63	0.244699
2051.1	0.114964
2052.56	0.236907
2054.02	0.205656
2055.48	0.392226
2056.95	0.442717
2058.41	0.492494
2059.87	0.306255
2061.33	0.474055
2062.8	0.187906
2064.26	0.323412
2065.72	0.712113
2067.18	0.411505
2068.64	0.279645
2070.1	0.737162
2071.56	0.302568
2073.02	0.541241
2074.48	0.779737
2075.94	0.782218
2077.4	0.49809
2078.86	0.196791
2080.31	0.535022
2081.77	0.535995
2083.23	0.856231
2084.69	0.384755
2086.14	0.484922
2087.6	0.819887
2089.06	0.414709
2090.52	0.597662
2091.97	0.108808
2093.43	0.627174
2094.88	1.16153
2096.34	0.437807
2097.79	1.08787
2099.25	0.531436
2100.7	0.761552
2102.16	0.339772
2103.61	0.553787
2105.07	0.718497
2106.52	1.15114
2107.97	0.817201
2109.43	0.833903
2110.88	0.500086
2112.33	0.748652
2113.78	1.14541
2115.24	1.22404
2116.69	0.952581
2118.14	1.13031
2119.59	1.05991
2121.04	1.3396
2122.49	1.00715
2123.94	0.875073
2125.39	1.35709
2126.84	1.07615
2128.29	1.34146
2129.74	1.6054
2131.19	1.30481
2132.64	1.16933
2134.09	1.08358
2135.54	1.09776
2136.98	1.4272
2138.43	0.931765
2139.88	1.39651
2141.33	1.82976
2142.77	1.50368
2144.22	1.87273
2145.67	1.39818
2147.11	1.60179
2148.56	2.13624
2150.01	1.84184
2151.45	1.92749
2152.9	1.68085
2154.34	1.91393
2155.79	1.93116
2157.23	1.79935
2158.67	2.08227
2160.12	2.0351
2161.56	2.20494
2163	2.36004
2164.45	2.00251
2165.89	2.49198
2167.33	2.25107
2168.78	2.05875
2170.22	1.78141
2171.66	2.23396
2173.1	2.40195
2174.54	2.10283
2175.98	2.25224
2177.42	2.20223
2178.86	2.41892
2180.3	2.3705
2181.74	1.99038
2183.18	2.37566
2184.62	2.02949
2186.06	2.23224
2187.5	2.38517
2188.94	1.73935
2190.38	1.8423
2191.82	1.8618
2193.25	1.86399
2194.69	1.6985
2196.13	1.96421
2197.57	1.77868
2199	2.02408
2200.44	2.01892
2201.88	1.33288
2203.31	1.46133
2204.75	1.22575
2206.18	1.53822
2207.62	1.40358
2209.05	1.25236
2210.49	1.51439
2211.92	1.46095
2213.36	1.67137
2214.79	1.23717
2216.22	1.29923
2217.66	1.65915
2219.09	1.26123
2220.52	1.52379
2221.96	0.929295
2223.39	0.730025
2224.82	1.04028
2226.25	0.838614
2227.68	0.833168
2229.11	1.27009
2230.55	0.819477
2231.98	0.84489
2233.41	0.837708
2234.84	0.912905
2236.27	1.11961
2237.7	0.919174
2239.12	0.736872
2240.55	0.801019
2241.98	0.703524
2243.41	0.835399
2244.84	0.625062
2246.27	0.593625
2247.7	0.772954
2249.12	0.852603
2250.55	0.702234
2251.98	0.290188
2253.41	0.675037
2254.83	0.0357914
2256.26	0.648741
2257.68	0.500137
2259.11	0.613456
2260.54	0.583089
2261.96	0.34366
2263.39	0.495039
2264.81	0.663123
2266.24	0.473396
2267.66	0.738341
2269.08	0.530799
2270.51	1.10385
2271.93	0.764915
2273.35	0.458238
2274.78	0.607593
2276.2	0.610531
2277.62	0.532117
2279.04	0.470013
2280.47	0.554584
2281.89	0.280258
2283.31	0.201494
2284.73	0.889681
2286.15	0.141979
2287.57	0.390115
2288.99	0.377416
2290.41	0.936924
2291.83	0.581694
2293.25	0.209897
2294.67	0.328595
2296.09	0.398219
2297.51	0.500602
2298.93	0.226307
2300.35	0.361649
2301.76	0.694099
2303.18	0.76462
2304.6	0.162344
2306.02	0.331263
2307.44	0.072875
2308.85	0.175474
2310.27	-0.0676227
2311.69	0.132928
2313.1	0.267744
2314.52	0.337106
2315.93	0.687016
2317.35	0.461267
2318.76	0.647747
2320.18	0.191017
2321.59	0.475527
2323.01	0.247108
2324.42	0.62746
2325.83	0.51088
2327.25	0.409503
2328.66	0.538324
2330.07	0.601235
2331.49	0.401363
2332.9	0.317733
2334.31	0.415827
2335.72	0.168621
2337.13	0.365251
2338.55	0.0842233
2339.96	0.509139
2341.37	0.423719
2342.78	0.0754051
2344.19	0.153919
2345.6	0.248912
2347.01	-0.0490971
2348.42	-0.150285
2349.83	-0.120753
2351.24	0.349524
2352.65	0.311961
2354.05	0.0126328
2355.46	0.283873
2356.87	0.244888
2358.28	0.205955
2359.69	0.215925
2361.09	0.063643
2362.5	-0.12076
2363.91	0.116251
2365.31	0.158553
2366.72	-0.138493
2368.13	0.033721
2369.53	0.109601
2370.94	0.138001
2372.34	0.280167
2373.75	0.342473
2375.15	-0.0778518
2376.56	0.0328684
2377.96	0.190912
2379.37	0.0583243
2380.77	0.165478
2382.17	0.335444
2383.58	0.328102
2384.98	0.33656
2386.38	0.209497
2387.79	0.0834055
2389.19	0.0780659
2390.59	0.296734
2391.99	-0.13674
2393.39	0.131196
2394.8	0.383597
2396.2	0.318392
2397.6	0.237842
2399	0.0465684
2400.4	0.2688
2401.8	0.268837
2403.2	0.0148134
2404.6	0.379856
2406	0.140853
2407.4	0.31384
2408.79	-0.148345
2410.19	-0.103082
2411.59	0.0373425
2412.99	-0.0593047
2414.39	0.0983796
2415.78	0.146322
2417.18	0.337784
2418.58	0.292518
2419.98	0.405916
2421.37	0.20247
2422.77	0.252167
2424.16	0.38088
2425.56	0.430432
2426.96	0.242665
2428.35	0.356705
2429.74	0.170249
2431.14	0.253931
2432.53	0.194953
2433.93	0.437285
2435.32	0.170547
2436.72	0.172648
2438.11	-0.303072
2439.5	0.094039
2440.9	-0.0179224
2442.29	0.0602646
2443.68	0.154035
2445.07	0.0572538
2446.47	-0.182254
2447.86	0.291487
2449.25	0.368778
2450.64	0.113678
2452.03	-0.0300183
2453.42	-0.188861
2454.81	-0.18879
2456.2	-0.0932822
2457.59	0.129008
2458.98	-0.01262
2460.37	0.430493
2461.76	0.145505
2463.15	0.112947
2464.54	0.364346
2465.93	0.0783439
2467.32	0.502866
2468.7	0.390501
2470.09	0.0572915
2471.48	0.0708528
2472.87	-0.0106344
2474.25	0.190768
2475.64	0.0138373
2477.03	0.27699
2478.41	0.0528197
2479.8	0.0331368
2481.18	-0.11182
2482.57	0.103769
2483.95	-0.32318
2485.34	-0.155675
2486.72	0.182515
2488.11	-0.229945
2489.49	0.0126195
2490.88	0.0987797
2492.26	0.247299
2493.65	-0.0384698
2495.03	0.0496864
2496.41	0.216158
2497.79	0.290134
2499.18	-0.0381989
2500.56	-0.165228
2501.94	-0.107168
2503.32	0.150801
2504.7	0.28417
2506.09	-0.261209
2507.47	0.194855
2508.85	-0.195572
2510.23	-0.0166025
2511.61	0.0550928
2512.99	0.142591
2514.37	-0.0144434
2515.75	0.426366
2517.13	0.117695
2518.51	0.161457
2519.89	-0.100295
2521.26	-0.102313
2522.64	-0.211647
2524.02	-0.0468946
2525.4	0.0103846
2526.78	-0.00877666
2528.15	0.124554
2529.53	-0.0912023
2530.91	0.287233
2532.28	-0.077806
2533.66	-0.152987
2535.04	0.25857
2536.41	-0.256624
2537.79	-0.0886321
2539.16	0.200106
2540.54	-0.19518
2541.91	0.00144482
2543.29	-0.135656
2544.66	-0.196204
2546.04	-0.134477
2547.41	0.277062
2548.78	0.355621
2550.16	0.0397806
2551.53	-0.139914
2552.9	-0.123005
2554.27	0.348383
2555.65	0.0754919
2557.02	0.0753207
2558.39	0.150865
2559.76	0.105303
2561.13	-0.0459104
2562.51	0.0458937
2563.88	0.244226
2565.25	-0.0420165
2566.62	0.12657
2567.99	0.0679269
2569.36	-0.00585604
2570.73	0.314439
2572.1	-0.15338
2573.47	0.273171
2574.84	0.351201
2576.2	0.0199361
2577.57	0.11312
2578.94	-0.0364509
2580.31	-0.110463
2581.68	-0.0331426
2583.05	-0.016747
2584.41	0.31783
2585.78	-0.0752912
2587.15	-0.165096
2588.51	-0.0122437
2589.88	-0.0714717
2591.24	-0.373221
2592.61	0.0217547
2593.98	0.0827365
2595.34	-0.281101
2596.71	-0.115618
2598.07	0.0188522
2599.44	0.031929
2600.8	0.407716
2602.16	0.164307
2603.53	-0.319857
2604.89	-0.0637889
2606.26	-0.0641708
2607.62	0.191573
2608.98	-0.186546
2610.34	-0.143379
2611.71	0.109463
2613.07	0.0452056
2614.43	0.160744
2615.79	-0.0242772
2617.15	-0.208738
2618.52	-0.107833
2619.88	-0.126218
2621.24	0.140098
2622.6	-0.146407
2623.96	-0.0142193
2625.32	0.490842
2626.68	-0.138301
2628.04	-0.00681162
2629.4	0.0349236
2630.75	0.0169363
2632.11	0.236763
2633.47	0.0700059
2634.83	0.140988
2636.19	-0.0106063
2637.55	0.134418
2638.9	-0.0464811
2640.26	0.00975752
2641.62	-0.00780058
2642.98	0.122633
2644.33	0.0906425
2645.69	0.324213
2647.04	0.0264459
2648.4	0.0821528
2649.76	0.225448
2651.11	-0.278925
2652.47	0.260226
2653.82	-0.0965004
2655.18	-0.144161
2656.53	0.204536
2657.88	-0.0757222
2659.24	-0.0477409
2660.59	0.316852
2661.95	0.286411
2663.3	0.0656805
2664.65	0.0197754
2666	0.07547
2667.36	-0.0295916
2668.71	-0.0762992
2670.06	0.153738
2671.41	-0.0523419
2672.76	0.120144
2674.12	0.36553
2675.47	0.233748
2676.82	0.189606
2678.17	-0.11504
2679.52	-0.114375
2680.87	0.119049
2682.22	-0.154063
2683.57	-0.0203147
2684.92	0.0852342
2686.27	0.278297
2687.62	-0.1382
2688.97	0.141081
2690.31	-0.147035
2691.66	-0.146133
2693.01	0.0277524
2694.36	0.128235
2695.71	0.213974
2697.05	0.329075
2698.4	0.169966
2699.75	0.0701528
2701.09	-0.245524
2702.44	-0.0967026
2703.78	0.0530257
2705.13	0.217804
2706.48	0.455319
2707.82	0.388141
2709.17	0.2335
2710.51	0.238192
2711.86	0.315328
2713.2	0.174448
2714.54	0.047976
2715.89	0.313976
2717.23	0.100084
2718.57	0.336879
2719.92	0.29705
2721.26	0.460611
2722.6	0.158092
2723.95	0.33551
2725.29	0.527164
2726.63	0.340088
2727.97	0.545752
2729.31	0.227314
2730.65	0.228961
2732	0.230594
2733.34	0.421413
2734.68	0.248708
2736.02	0.134378
2737.36	-0.00890255
2738.7	0.182325
2740.04	0.155231
2741.38	0.127799
2742.72	0.0708332
2744.05	0.274976
2745.39	0.231544
2746.73	0.100693
2748.07	0.21658
2749.41	0.0857558
2750.75	0.17275
2752.08	0.259887
2753.42	0.448607
2754.76	0.318615
2756.09	0.14537
2757.43	-0.027638
2758.77	0.436595
2760.1	0.278589
2761.44	0.352562
2762.78	-0.00718212
2764.11	-0.0338392
2765.44	0.243356
2766.78	0.404453
2768.11	0.3623
2769.45	0.290265
2770.78	-0.01404
2772.12	-0.318977
2773.45	0.183877
2774.78	0.281788
2776.12	0.264264
2777.45	0.0311809
2778.78	0.316602
2780.12	0.113424
2781.45	0.0974827
2782.78	0.411723
2784.11	0.10882
2785.44	0.0786233
2786.78	0.0772538
2788.11	-0.195714
2789.44	-0.00997496
2790.77	0.00464964
2792.1	-0.380494
2793.43	0.0783043
2794.76	0.265403
2796.09	0.223559
2797.42	0.081346
2798.75	0.11016
2800.08	0.281355
2801.4	0.00996876
2802.73	0.00961685
2804.06	0.165844
2805.39	0.364309
2806.72	0.206236
2808.05	0.531489
2809.37	0.315859
2810.7	0.341996
2812.03	0.212451
2813.35	-0.213918
2814.68	0.0983901
2816.01	0.496644
2817.33	0.0877914
2818.66	0.118804
2819.98	0.433313
2821.31	0.378977
2822.63	0.182429
2823.96	0.226335
2825.28	0.397433
2826.61	0.157807
2827.93	0.428368
2829.25	0.274582
2830.58	0.446768
2831.9	0.53418
2833.23	0.706478
2834.55	0.65205
2835.87	0.328363
2837.19	0.754296
2838.52	0.741176
2839.84	0.798604
2841.16	0.955043
2842.48	1.18241
2843.8	1.69288
2845.12	1.08742
2846.44	1.74028
2847.77	1.8847
2849.08	1.91608
2850.4	2.07443
2851.73	1.90727
2853.05	2.12127
2854.36	2.27837
2855.68	2.27983
2857	2.33778
2858.32	2.42399
2859.64	2.3407
2860.96	2.52557
2862.28	2.39951
2863.59	2.61191
2864.91	3.09206
2866.23	2.76786
2867.55	3.40303
2868.86	3.0372
2870.18	3.41906
2871.5	3.60362
2872.81	3.9288
2874.13	3.45002
2875.44	3.6889
2876.76	3.96881
2878.07	3.95215
2879.39	4.14617
2880.7	3.72178
2882.02	3.73407
2883.33	3.55068
2884.65	3.4525
2885.96	3.84623
2887.28	3.87496
2888.59	3.63666
2889.9	4.40776
2891.21	3.85944
2892.53	3.87162
2893.84	4.33189
2895.15	3.88189
2896.46	4.2588
2897.78	4.07669
2899.09	4.45524
2900.4	4.47068
2901.71	4.66841
2903.02	4.76839
2904.33	4.29498
2905.64	4.89885
2906.95	4.87378
2908.26	5.19917
2909.57	5.31557
2910.88	5.5865
2912.19	5.47959
2913.5	5.7079
2914.81	5.48686
2916.12	6.2861
2917.43	6.34165
2918.73	6.50805
2920.04	6.46431
2921.35	6.46318
2922.66	6.30947
2923.96	7.0238
2925.27	7.25
2926.58	7.11341
2927.88	7.64786
2929.19	7.09148
2930.5	7.7787
2931.8	6.98353
2933.11	7.96337
2934.41	7.69903
2935.72	7.92398
2937.02	7.72978
2938.33	7.61962
2939.63	7.24422
2940.94	7.03699
2942.24	7.13802
2943.54	6.51348
2944.85	6.3793
2946.15	6.35805
2947.45	5.98758
2948.76	6.00847
2950.06	5.87425
2951.36	5.20611
2952.66	5.54428
2953.97	5.39097
2955.27	5.51723
2956.57	5.09833
2957.87	5.07319
2959.17	4.71447
2960.47	5.10037
2961.77	4.9139
2963.07	4.54551
2964.37	4.41472
2965.67	4.32461
2966.97	4.62638
2968.27	4.29444
2969.57	4.53809
2970.87	4.17687
2972.17	4.40657
2973.47	4.22855
2974.77	3.59994
2976.07	3.42098
2977.36	3.91672
2978.66	3.21406
2979.96	3.43912
2981.26	3.42357
2982.55	2.92924
2983.85	3.01195
2985.15	2.81436
2986.44	3.0537
2987.74	2.98508
2989.03	2.80487
2990.33	2.75132
2991.63	2.52864
2992.92	2.29096
2994.21	2.10842
2995.51	1.82664
2996.8	2.13407
2998.1	1.93576
2999.39	1.69566
3000.69	1.62437
3001.98	1.74977
3003.27	1.48302
3004.57	1.24446
3005.86	1.22984
3007.15	1.22868
3008.44	0.904993
3009.74	1.26605
3011.03	1.36047
3012.32	1.24486
3013.61	0.724765
3014.9	1.02817
3016.19	0.844018
3017.48	0.590994
3018.78	0.93691
3020.07	0.893034
3021.36	0.751499
3022.65	1.06775
3023.94	0.411205
3025.23	0.600884
3026.51	0.859171
3027.8	0.632909
3029.09	0.573709
3030.38	0.418918
3031.67	0.652011
3032.96	0.554321
3034.24	0.78809
3035.53	0.717697
3036.82	0.839297
3038.11	0.766335
3039.39	0.788249
3040.68	0.533835
3041.97	0.924369
3043.25	0.765375
3044.54	0.798982
3045.83	0.806356
3047.11	0.692389
3048.4	1.15376
3049.68	0.988582
3050.97	0.947519
3052.25	0.988928
3053.54	0.811952
3054.82	0.675326
3056.11	1.21974
3057.39	1.04021
3058.67	0.941793
3059.96	0.815906
3061.24	1.05774
3062.52	0.905542
3063.81	0.672884
3065.09	0.699741
3066.37	0.985906
3067.65	1.0009
3068.94	0.553763
3070.22	0.745423
3071.5	0.6915
3072.78	0.5957
3074.06	0.417264
3075.34	0.373991
3076.62	0.357518
3077.9	0.653408
3079.18	0.407024
3080.46	0.243199
3081.74	0.243245
3083.02	0.352656
3084.3	0.25899
3085.58	0.572374
3086.86	0.383164
3088.14	0.641164
3089.42	0.301268
3090.69	0.313772
3091.97	0.448108
3093.25	0.161881
3094.53	0.0928335
3095.8	0.254377
3097.08	0.198893
3098.36	0.156793
3099.63	0.182212
3100.91	-0.00933981
3102.19	0.124124
3103.46	0.28464
3104.74	0.0933919
3106.01	0.092083
3107.29	-0.125209
3108.56	0.172377
3109.84	-0.111342
3111.11	0.119904
3112.39	0.0943937
3113.66	0.326511
3114.94	-0.105585
3116.21	-0.104538
3117.48	0.0313654
3118.76	0.0306888
3120.03	-0.0252376
3121.3	-0.163358
3122.57	-0.12582
3123.85	-0.0886426
3125.12	-0.105704
3126.39	0.0804076
3127.66	-0.0174899
3128.93	-0.0474777
3130.21	0.0443363
3131.48	0.217112
3132.75	-0.0564313
3134.02	-0.262693
3135.29	-0.0103364
3136.56	0.308566
3137.83	0.235441
3139.1	0.17538
3140.37	0.195826
3141.64	0.0815759
3142.91	-0.0727849
3144.17	-0.0522065
3145.44	0.116166
3146.71	0.163945
3147.98	0.104798
3149.25	0.032578
