200.533	0.134969
202.348	0.160036
204.162	0.185895
205.976	0.650113
207.792	-0.198772
209.605	-0.14846
211.418	-0.512138
213.23	-0.269785
215.044	0.529087
216.856	-0.128036
218.667	0.305537
220.478	0.351644
222.289	-0.303139
224.102	0.324695
225.912	-0.159406
227.721	0.226411
229.531	0.249242
231.34	0.923075
233.148	-0.165101
234.956	0.26695
236.766	0.241641
238.574	0.531242
240.381	0.822843
242.188	0.417119
243.994	0.0843954
245.801	0.49932
247.606	0.116345
249.412	0.551836
251.217	-0.053627
253.024	0.0146828
254.828	0.00903893
256.632	0.31639
258.436	0.455338
260.239	0.378647
262.042	-0.298771
263.845	0.205443
265.647	0.614132
267.449	0.709826
269.25	0.588211
271.052	0.176423
272.852	0.48681
274.653	0.217264
276.453	0.356122
278.253	0.276389
280.052	0.435806
281.852	0.400679
283.65	0.676571
285.449	0.734434
287.247	0.719437
289.044	0.152959
290.842	-0.244227
292.639	0.341507
294.436	0.0665112
296.232	0.486239
298.028	-0.0256481
299.821	0.179841
301.617	-0.307679
303.412	0.183268
305.206	0.386333
307	0.636045
308.794	0.503835
310.588	0.562768
312.381	0.789313
314.172	0.898023
315.964	0.341557
317.756	0.667583
319.548	0.113527
321.34	0.370262
323.131	0.770913
324.921	0.98143
326.71	0.523639
328.5	0.399515
330.29	0.752743
332.079	0.746484
333.868	0.619039
335.654	0.513574
337.443	0.597568
339.231	0.536174
341.018	0.37781
342.804	0.218848
344.591	0.728955
346.377	0.546394
348.163	0.937551
349.947	0.397865
351.733	0.0493174
353.518	0.129921
355.303	0.42425
357.085	1.21789
358.869	0.603553
360.653	0.250903
362.435	0.46904
364.218	0.4484
366.001	0.142075
367.781	0.547628
369.563	0.0980616
371.345	0.335539
373.124	0.287977
374.905	0.783687
376.686	0.570172
378.464	0.593328
380.244	-0.183733
382.022	0.853776
383.801	0.338457
385.58	0.341967
387.357	0.6989
389.135	0.680661
390.911	0.61626
392.689	0.458606
394.466	-0.0977826
396.241	0.33242
398.018	0.410426
399.792	0.300348
401.568	0.518713
403.341	0.337218
405.117	0.108138
406.889	0.0898242
408.664	0.352744
410.436	0.404008
412.21	0.455271
413.981	0.295663
415.755	-0.168372
417.525	0.400622
419.298	-0.390884
421.068	-0.196684
422.84	0.0677748
424.609	0.636895
426.38	0.195786
428.149	0.293931
429.919	0.321242
431.688	0.0903416
433.455	0.0474634
435.225	0.356887
436.992	0.52545
438.76	0.763805
440.527	0.813108
442.293	0.46187
444.06	0.413888
445.826	0.223881
447.593	0.126817
449.357	0.660889
451.122	0.376418
452.888	0.186056
454.651	0.159443
456.415	0.0163093
458.18	0.502028
459.942	-0.153151
461.705	0.146547
463.469	0.0752792
465.23	0.2848
466.991	0.0783358
468.752	0.129597
470.515	0.135859
472.275	0.282196
474.035	0.334936
475.797	0.153355
477.556	0.482426
479.315	-0.0751734
481.073	0.717471
482.834	0.6251
484.592	0.510452
486.349	-0.0685592
488.106	0.635624
489.863	0.759253
491.622	0.720576
493.378	0.659018
495.134	0.620907
496.889	0.301732
498.645	0.59094
500.401	0.786481
502.156	-0.215259
503.91	0.190078
505.664	0.689067
507.417	0.387905
509.171	0.0381608
510.923	0.581079
512.678	0.534535
514.43	1.16909
516.182	-0.291436
517.933	0.458477
519.684	0.384266
521.435	0.45048
523.186	0.798031
524.936	0.182749
526.686	0.764469
528.435	-0.0142627
530.184	-0.253302
531.933	0.374167
533.682	0.344854
535.43	0.642054
537.18	0.353366
538.927	0.787766
540.674	0.730537
542.421	0.41656
544.167	-0.176122
545.913	0.301403
547.659	0.708318
549.403	0.48864
551.148	0.686419
552.893	0.213168
554.637	0.0645647
556.381	0.308876
558.125	0.0687866
559.868	0.106009
561.611	0.212677
563.354	0.227648
565.097	0.174129
566.839	0.0523047
568.581	0.275634
570.322	-0.0740561
572.063	-0.101227
573.802	0.0105538
575.542	-0.197427
577.283	0.0547595
579.022	-0.0591307
580.762	0.194964
582.501	-0.194038
584.24	-0.170016
585.976	0.129219
587.714	0.0365543
589.452	0.126958
591.19	0.561756
592.927	0.0758333
594.663	0.257021
596.398	-0.320974
598.134	-0.162771
599.87	0.156184
601.605	0.106364
603.338	0.0785437
605.073	-0.0653744
606.808	0.157449
608.542	-0.194696
610.274	0.0501895
612.007	0.180503
613.74	-0.170125
615.473	0.557234
617.204	0.757274
618.936	-0.211252
620.668	-0.1726
622.397	0.139557
624.128	0.336316
625.859	-0.4951
627.588	-0.137491
629.318	0.403892
631.048	0.353721
632.775	0.48781
634.505	0.48587
636.233	0.301013
637.96	0.342968
639.688	0.291385
641.416	0.374254
643.142	0.318285
644.869	0.534608
646.594	0.79635
648.32	-0.0771785
650.045	0.506944
651.771	-0.110178
653.496	0.707587
655.219	-0.0859938
656.944	0.509863
658.667	0.287084
660.391	0.337302
662.113	0.774557
663.837	0.319194
665.558	0.364351
667.281	0.225039
669.002	0.656883
670.724	0.654923
672.444	0.448648
674.166	0.679309
675.885	0.49954
677.606	0.572864
679.325	0.485657
681.045	0.236523
682.763	0.790778
684.483	0.791452
686.2	0.514084
687.917	0.419524
689.636	0.508332
691.352	0.919043
693.07	1.05279
694.786	0.563994
696.501	0.604152
698.219	1.08066
699.933	0.819396
701.65	0.718374
703.364	0.294931
705.078	0.904969
706.793	0.87109
708.506	0.424161
710.219	1.00868
711.934	0.676193
713.646	0.549891
715.358	0.743574
717.071	0.662889
718.782	0.605256
720.493	0.958097
722.204	1.24216
723.916	0.16067
725.626	0.240281
727.336	0.569354
729.045	1.26055
730.756	1.79134
732.464	1.4149
734.173	0.744925
735.881	1.25162
737.59	0.854458
739.297	1.45123
741.004	1.30403
742.711	1.06802
744.417	1.12615
746.125	1.02792
747.831	1.06594
749.537	1.0826
751.242	0.920444
752.946	1.0293
754.651	0.891896
756.357	0.77817
758.061	1.83649
759.764	0.869576
761.467	1.16491
763.17	1.86727
764.872	1.14784
766.575	1.23987
768.276	0.968735
769.978	1.39656
771.679	1.77755
773.382	1.02666
775.083	1.67738
776.783	1.67284
778.483	1.08155
780.182	0.921068
781.882	0.557783
783.581	1.82383
785.279	1.84452
786.978	1.74991
788.676	1.58461
790.373	2.07252
792.071	1.8115
793.768	1.54953
795.464	1.96455
797.161	2.2219
798.857	1.80476
800.552	1.41229
802.248	1.94381
803.941	1.12617
805.636	1.34309
807.33	1.71638
809.024	1.63913
810.718	1.69559
812.412	1.88568
814.105	1.87333
815.798	1.43546
817.49	1.46799
819.183	2.1486
820.873	1.44384
822.564	1.65531
824.256	1.46585
825.947	1.52298
827.637	1.55964
829.328	1.2869
831.016	1.86307
832.705	1.43942
834.395	1.97573
836.084	1.5321
837.772	1.42252
839.459	0.909874
841.147	1.49004
842.835	1.48851
844.522	1.84411
846.209	1.64171
847.894	1.44075
849.581	1.53257
851.267	2.05214
852.953	1.61054
854.637	0.989283
856.322	0.860739
858.007	1.24816
859.689	1.16228
861.374	0.984687
863.058	1.68416
864.739	1.23371
866.423	0.714548
868.106	0.916164
869.787	0.801743
871.469	1.72466
873.151	0.887947
874.831	1.42733
876.512	1.6058
878.193	1.03951
879.872	0.766426
881.553	1.17022
883.231	1.00905
884.911	1.68219
886.591	0.932015
888.268	0.361443
889.947	0.895045
891.623	1.02118
893.302	1.55135
894.978	1.40464
896.656	0.897573
898.331	0.458053
900.008	0.893485
901.683	1.32725
903.359	0.909194
905.033	1.09541
906.709	0.65642
908.383	0.865512
910.058	0.696284
911.731	1.32899
913.405	1.11651
915.078	0.727121
916.752	0.848663
918.423	0.726161
920.096	0.714674
921.768	0.947018
923.438	0.450523
925.111	1.23722
926.781	0.721987
928.452	0.340975
930.122	0.954147
931.791	0.927813
933.462	0.7914
935.13	0.522833
936.799	1.20304
938.468	1.44284
940.136	1.17644
941.803	1.13162
943.472	0.447463
945.139	0.976761
946.805	1.35073
948.473	0.994683
950.139	0.681238
951.804	1.11706
953.471	0.736668
955.136	0.490102
956.801	0.0252886
958.465	0.334868
960.131	0.161339
961.794	0.187552
963.458	0.390509
965.12	0.990449
966.785	0.902738
968.447	0.701982
970.109	0.521633
971.771	0.495494
973.432	0.713027
975.095	0.909625
976.756	0.576995
978.417	0.95337
980.077	0.910049
981.737	0.866333
983.396	0.555773
985.057	1.4611
986.716	1.01425
988.375	0.521881
990.033	1.02398
991.691	0.552603
993.349	0.412937
995.006	0.0527706
996.663	0.35494
998.32	0.96541
999.976	1.11221
1001.63	1.03826
1003.29	1.31613
1004.95	0.801667
1006.6	0.617459
1008.26	0.257949
1009.91	0.557506
1011.56	0.528089
1013.22	0.76207
1014.87	0.339018
1016.53	1.16455
1018.18	-0.0889139
1019.83	0.387184
1021.48	0.273467
1023.14	0.488575
1024.79	0.311006
1026.44	0.702092
1028.09	0.612402
1029.74	0.478501
1031.39	1.30456
1033.04	1.01526
1034.69	0.419367
1036.34	0.804175
1037.99	0.599554
1039.64	0.569332
1041.29	0.800727
1042.94	0.598206
1044.58	0.853632
1046.23	0.893343
1047.88	-0.107767
1049.52	0.152132
1051.17	0.608551
1052.82	0.109892
1054.46	0.567424
1056.11	-0.0398569
1057.75	0.439336
1059.4	0.352979
1061.04	0.46177
1062.69	0.43945
1064.33	0.0467348
1065.98	0.283715
1067.62	0.128505
1069.26	0.624366
1070.9	0.294097
1072.55	-0.318162
1074.19	-0.0833235
1075.83	0.434143
1077.47	-0.0884943
1079.11	-0.610026
1080.76	0.517061
1082.4	0.343032
1084.04	-0.0702219
1085.68	0.230704
1087.32	-0.250229
1088.95	-0.169271
1090.59	0.0400295
1092.23	0.312893
1093.87	0.00178051
1095.51	-0.52432
1097.15	0.567826
1098.78	0.647015
1100.42	0.576913
1102.06	0.142702
1103.69	0.204993
1105.33	0.182278
1106.97	0.418097
1108.6	0.610584
1110.24	0.393554
1111.87	0.132355
1113.51	0.407101
1115.14	0.165288
1116.77	-0.29118
1118.41	1.0109
1120.04	0.19098
1121.67	0.486241
1123.31	-0.0953827
1124.94	0.779068
1126.57	1.84622
1128.2	1.18148
1129.83	1.13767
1131.47	0.0681925
1133.1	0.516925
1134.72	0.366942
1136.36	0.451548
1137.98	0.385661
1139.62	0.4256
1141.24	-0.111755
1142.87	0.673983
1144.5	0.179417
1146.13	0.0269775
1147.76	0.131161
1149.38	0.235984
1151.01	0.554141
1152.64	0.148115
1154.27	-0.428302
1155.89	-0.323653
1157.52	-0.134057
1159.14	0.0982637
1160.77	-0.072855
1162.39	0.267268
1164.02	0.0128479
1165.64	0.375421
1167.27	0.525142
1168.89	0.525095
1170.51	0.141032
1172.14	0.392968
1173.76	0.133615
1175.38	0.10698
1177	0.334352
1178.63	-0.328065
1180.25	0.0481958
1181.87	0.657374
1183.49	0.737865
1185.11	0.0787506
1186.73	-0.136929
1188.35	0.173846
1189.97	0.629965
1191.59	0.451898
1193.21	0.0838022
1194.83	-0.0949945
1196.45	-0.105542
1198.07	-0.094347
1199.68	0.127358
1201.3	0.183394
1202.92	0.199782
1204.53	0.406114
1206.15	0.697545
1207.77	0.426721
1209.38	0.719374
1211	0.510676
1212.62	0.300628
1214.23	0.359801
1215.84	0.854262
1217.46	0.743081
1219.07	0.423461
1220.69	0.602613
1222.3	-0.0889587
1223.91	0.775702
1225.53	0.356635
1227.14	0.767072
1228.75	0.371665
1230.36	0.18438
1231.97	0.969704
1233.59	1.13577
1235.2	0.393551
1236.81	1.03714
1238.42	0.668803
1240.03	0.921224
1241.64	1.3394
1243.25	0.557525
1244.85	0.643758
1246.46	0.977469
1248.07	0.668848
1249.68	0.173437
1251.29	0.877769
1252.9	1.04433
1254.5	1.10809
1256.11	0.469536
1257.72	0.907645
1259.32	0.312282
1260.93	0.876484
1262.54	0.116179
1264.14	0.784706
1265.75	0.541549
1267.35	1.00241
1268.96	1.25534
1270.56	1.44521
1272.16	0.908442
1273.77	1.1794
1275.37	0.993386
1276.97	1.01387
1278.57	0.743647
1280.18	1.86038
1281.78	1.46505
1283.38	0.884009
1284.98	1.27584
1286.58	1.27542
1288.18	0.883246
1289.78	0.946622
1291.38	0.762452
1292.99	0.474921
1294.58	0.682639
1296.18	0.703316
1297.78	1.19741
1299.38	0.988112
1300.98	0.71595
1302.58	1.04052
1304.17	1.30196
1305.77	1.5417
1307.37	1.06173
1308.97	1.40309
1310.56	1.49782
1312.16	0.999071
1313.76	1.25866
1315.35	2.23381
1316.95	1.5545
1318.54	1.36637
1320.14	0.892998
1321.73	0.86771
1323.32	1.02429
1324.92	0.772552
1326.51	1.31191
1328.1	0.815556
1329.7	1.15106
1331.29	1.10296
1332.88	1.5822
1334.47	1.07341
1336.07	1.53522
1337.66	1.25079
1339.25	0.925753
1340.84	1.20395
1342.43	1.15785
1344.02	1.5121
1345.61	1.2222
1347.2	1.23393
1348.79	1.14701
1350.37	1.00237
1351.96	1.00014
1353.55	0.959684
1355.14	0.96034
1356.73	1.50081
1358.31	1.22156
1359.9	0.88177
1361.49	1.35966
1363.07	1.31769
1364.66	1.07613
1366.25	1.21364
1367.83	1.35172
1369.42	0.873704
1371	0.437016
1372.59	0.658264
1374.17	0.979897
1375.75	0.247498
1377.34	0.430473
1378.92	1.0906
1380.5	0.575864
1382.09	0.855906
1383.67	0.717097
1385.25	0.458321
1386.83	0.278899
1388.42	0.616081
1390	0.973384
1391.58	0.477974
1393.16	0.499279
1394.74	0.580378
1396.32	1.31562
1397.9	0.919939
1399.48	0.365171
1401.06	0.384475
1402.64	0.442888
1404.21	0.916677
1405.79	0.559968
1407.37	0.975126
1408.95	0.600394
1410.53	0.838634
1412.1	0.523794
1413.68	0.0507612
1415.26	0.0706615
1416.83	0.464581
1418.41	0.325639
1419.98	0.226537
1421.56	0.423753
1423.13	0.818963
1424.71	0.211621
1426.28	0.628809
1427.86	0.436276
1429.43	1.46385
1431	0.463343
1432.58	0.918336
1434.15	0.880511
1435.72	1.09802
1437.29	0.745436
1438.87	1.003
1440.44	1.59544
1442.01	0.970187
1443.58	1.62299
1445.15	1.72588
1446.72	1.69137
1448.29	1.32282
1449.86	1.36731
1451.43	1.56954
1453	1.55598
1454.57	1.8575
1456.14	1.62786
1457.71	1.7124
1459.27	1.44156
1460.84	1.28728
1462.41	1.36751
1463.98	0.915321
1465.54	1.07195
1467.11	1.09063
1468.67	1.03109
1470.24	0.776145
1471.81	0.600815
1473.37	0.975609
1474.94	0.213574
1476.5	0.687322
1478.07	-0.230872
1479.63	1.00734
1481.19	0.637998
1482.76	0.77821
1484.32	0.44802
1485.88	0.411503
1487.45	0.158937
1489.01	0.414488
1490.57	0.198715
1492.13	0.274756
1493.69	0.739544
1495.26	0.0508652
1496.82	0.395642
1498.38	0.408597
1499.94	0.558028
1501.5	0.378013
1503.06	0.315704
1504.62	0.641713
1506.17	0.367282
1507.73	0.402255
1509.29	0.706752
1510.85	0.488633
1512.41	-0.115052
1513.97	0.321762
1515.52	0.373213
1517.08	0.425042
1518.64	0.43905
1520.19	0.223683
1521.75	0.487283
1523.31	0.444229
1524.86	-0.477521
1526.42	0.203769
1527.97	0.78734
1529.52	0.494247
1531.08	0.486771
1532.63	0.328088
1534.19	0.68182
1535.74	0.638405
1537.29	0.199137
1538.85	0.440798
1540.4	0.324044
1541.95	0.264103
1543.5	0.37358
1545.06	-0.0249224
1546.61	0.647743
1548.16	0.605958
1549.71	0.957835
1551.26	0.710013
1552.81	0.968185
1554.36	0.572594
1555.91	0.683042
1557.46	0.813503
1559.01	1.18807
1560.56	1.04177
1562.11	1.45653
1563.65	1.42455
1565.2	1.09454
1566.75	1.1564
1568.29	0.975448
1569.84	1.83942
1571.39	0.967149
1572.94	1.77463
1574.48	1.05128
1576.03	1.05599
1577.57	1.06089
1579.12	1.55157
1580.66	1.70683
1582.21	1.35859
1583.75	1.25379
1585.3	1.28039
1586.84	1.38221
1588.38	1.35332
1589.93	1.41777
1591.47	0.602072
1593.01	1.73286
1594.55	1.30945
1596.1	1.37299
1597.64	1.66185
1599.18	1.52027
1600.72	1.13533
1602.26	1.4073
1603.8	1.11617
1605.34	1.3502
1606.88	1.0946
1608.42	1.15675
1609.96	1.17937
1611.5	1.25639
1613.04	1.51946
1614.58	1.12426
1616.12	1.01056
1617.65	1.15983
1619.19	0.879063
1620.73	1.04924
1622.27	1.07068
1623.8	1.09278
1625.34	1.41439
1626.87	1.30476
1628.41	0.801205
1629.95	1.3815
1631.48	1.25013
1633.02	1.30536
1634.55	1.23016
1636.09	1.77142
1637.62	1.5484
1639.15	1.60574
1640.69	1.14123
1642.22	1.23541
1643.76	1.29133
1645.29	1.1973
1646.82	1.23281
1648.35	1.23086
1649.88	1.41495
1651.42	1.54399
1652.95	2.10057
1654.48	1.32281
1656.01	1.95473
1657.54	1.9562
1659.07	1.43837
1660.6	1.82694
1662.13	1.78828
1663.66	1.89654
1665.19	1.17303
1666.72	1.669
1668.24	1.50133
1669.77	1.50105
1671.3	1.5942
1672.83	1.22776
1674.35	1.54325
1675.88	1.26923
1677.41	1.21554
1678.93	0.848245
1680.46	0.958488
1681.99	1.15985
1683.51	0.920019
1685.04	0.662219
1686.56	0.753465
1688.09	1.22986
1689.61	1.04662
1691.13	1.04686
1692.66	0.66287
1694.18	0.46212
1695.71	0.791595
1697.23	0.572371
1698.75	0.170513
1700.27	0.736021
1701.8	0.424987
1703.32	0.405518
1704.84	0.185338
1706.36	0.911259
1707.88	0.272342
1709.4	0.597084
1710.92	0.667286
1712.44	0.320488
1713.96	0.101217
1715.48	0.353007
1717	0.134067
1718.52	0.0780354
1720.04	0.130387
1721.56	0.0745444
1723.07	0.163459
1724.59	0.0188198
1726.11	-0.322715
1727.63	0.0210233
1729.14	0.293294
1730.66	0.597627
1732.18	0.414356
1733.69	0.0591993
1735.21	0.263843
1736.72	0.0309615
1738.24	0.0284915
1739.75	0.589378
1741.27	0.212545
1742.78	0.600015
1744.3	0.000992775
1745.81	0.561495
1747.32	0.710474
1748.84	0.249323
1750.35	-0.166175
1751.86	0.0789924
1753.37	-0.0350671
1754.89	0.203462
1756.4	0.141479
1757.91	-0.0047121
1759.42	0.175821
1760.93	0.263713
1762.44	-0.0550909
1763.95	-0.187784
1765.46	-0.0461025
1766.97	0.0150037
1768.48	0.10645
1769.99	0.13175
1771.5	0.326007
1773.01	0.425767
1774.52	0.224387
1776.03	0.092154
1777.53	0.237027
1779.04	0.00644636
1780.55	0.079812
1782.06	0.0568037
1783.56	0.559698
1785.07	0.163406
1786.57	-0.0596981
1788.08	-0.036674
1789.59	0.274896
1791.09	0.0829616
1792.6	-0.0472641
1794.1	-0.0355449
1795.6	-0.130603
1797.11	0.112044
1798.61	0.0354519
1800.12	0.19007
1801.62	0.246114
1803.12	0.00588608
1804.63	0.000932693
1806.13	0.055954
1807.63	0.0938964
1809.13	-0.0258303
1810.63	0.379378
1812.14	0.308114
1813.64	0.187945
1815.14	0.230843
1816.64	-0.00661135
1818.14	0.0636353
1819.64	0.0269012
1821.14	0.144432
1822.64	-0.0798516
1824.14	-0.125008
1825.63	0.0163975
1827.13	-0.141212
1828.63	-0.227233
1830.13	-0.0823827
1831.63	0.248755
1833.12	0.193447
1834.62	-0.0142355
1836.12	0.0574136
1837.62	-0.105897
1839.11	-0.351128
1840.61	-0.0194235
1842.1	-0.136049
1843.6	0.0685725
1845.09	0.321699
1846.59	0.0719714
1848.08	-0.000813961
1849.58	0.109828
1851.07	0.30713
1852.57	-0.243112
1854.06	0.237855
1855.55	-0.133262
1857.04	-0.108032
1858.54	0.323508
1860.03	-0.0248475
1861.52	0.18008
1863.01	-0.208331
1864.5	-0.400097
1866	-0.0941858
1867.49	-0.0374856
1868.98	0.395611
1870.47	0.336399
1871.96	-0.0718589
1873.45	0.122418
1874.94	0.246635
1876.43	-0.192959
1877.92	0.151578
1879.41	-0.0450754
1880.89	-0.125777
1882.38	-0.00366688
1882.48	0.00423098
1883.97	-0.151144
1885.47	0.268071
1886.96	0.442377
1888.46	-0.219495
1889.95	-0.323782
1891.44	-0.0620661
1892.94	0.113719
1894.43	-0.0742588
1895.92	0.017117
1897.41	-0.0995317
1898.9	0.0272403
1900.4	0.379465
1901.89	0.3825
1903.38	0.140653
1904.87	0.245521
1906.36	0.280154
1907.85	0.019495
1909.34	0.210828
1910.83	0.229206
1912.32	0.144193
1913.81	-0.0790935
1915.29	0.408741
1916.78	0.0812888
1918.27	0.0135713
1919.76	-0.24505
1921.25	0.171932
1922.74	0.363842
1924.22	-0.0149784
1925.71	-0.0120115
1927.2	0.303371
1928.68	0.151831
1930.17	0.156088
1931.65	0.177063
1933.14	0.0930476
1934.63	0.0769706
1936.11	0.198045
1937.59	-0.079628
1939.08	0.610304
1940.56	0.332557
1942.05	0.0730524
1943.53	0.470102
1945.01	-0.0636611
1946.5	0.213442
1947.98	-0.21637
1949.46	0.0426645
1950.94	0.317934
1952.43	0.334056
1953.91	0.315304
1955.39	0.0387378
1956.87	-0.0654573
1958.35	-0.151872
1959.83	-0.134739
1961.31	0.602956
1962.79	0.226086
1964.27	0.620375
1965.75	0.140537
1967.23	0.533556
1968.71	-0.15202
1970.19	-0.0337639
1971.67	0.118287
1973.14	0.116444
1974.62	0.404624
1976.1	0.419818
1977.58	0.0604033
1979.05	-0.00909758
1980.53	0.176623
1982.01	0.0899792
1983.48	0.224057
1984.96	-0.100612
1986.43	0.338243
1987.91	0.217134
1989.38	-0.259194
1990.86	0.162538
1992.33	-0.0413575
1993.81	-0.0583558
1995.28	0.347737
1996.76	-0.175277
1998.23	0.247775
1999.7	0.214389
2001.18	0.129941
2002.65	0.331923
2004.12	-0.0733128
2005.59	0.415132
2007.06	0.364717
2008.54	0.247698
2010.01	0.282902
2011.48	0.318498
2012.95	0.219476
2014.42	0.170653
2015.89	0.154922
2017.36	0.256243
2018.83	-0.0634217
2020.3	0.389712
2021.77	0.27127
2023.24	0.153176
2024.71	0.169983
2026.17	-0.013648
2027.64	0.0554008
2029.11	0.410664
2030.58	0.582499
2032.04	0.38599
2033.51	0.407964
2034.98	0.34597
2036.45	0.636415
2037.91	0.388899
2039.38	-0.0775352
2040.84	0.195412
2042.31	0.250163
2043.77	0.103642
2045.24	0.496124
2046.7	0.232967
2048.17	0.542481
2049.63	0.413885
2051.1	0.621606
2052.56	0.0524788
2054.02	0.443187
2055.48	0.596419
2056.95	0.310188
2058.41	-0.0101719
2059.87	0.275963
2061.33	0.629506
2062.8	0.192297
2064.26	0.849958
2065.72	0.515369
2067.18	0.316071
2068.64	0.655777
2070.1	0.844306
2071.56	0.477359
2073.02	0.430112
2074.48	0.56787
2075.94	0.334903
2077.4	0.337395
2078.86	0.070138
2080.31	0.661339
2081.77	0.511175
2083.23	-0.00978136
2084.69	0.394516
2086.14	0.562478
2087.6	0.477595
2089.06	0.342039
2090.52	0.32403
2091.97	0.289185
2093.43	0.94227
2094.88	0.202488
2096.34	0.0665679
2097.79	0.399305
2099.25	0.546978
2100.7	0.309527
2102.16	0.590598
2103.61	0.487803
2105.07	0.719882
2106.52	0.252129
2107.97	0.636075
2109.43	0.736625
2110.88	0.219921
2112.33	0.819048
2113.78	0.716784
2115.24	0.679951
2116.69	0.775449
2118.14	0.605225
2119.59	0.569036
2121.04	0.467965
2122.49	0.434755
2123.94	0.518717
2125.39	1.03427
2126.84	1.00241
2128.29	0.837155
2129.74	0.604629
2131.19	1.10004
2132.64	0.816278
2134.09	1.02907
2135.54	1.02728
2136.98	0.67952
2138.43	0.977834
2139.88	0.847891
2141.33	0.950597
2142.77	1.10389
2144.22	1.02622
2145.67	0.965143
2147.11	0.738207
2148.56	0.792183
2150.01	0.81239
2151.45	1.03066
2152.9	0.751106
2154.34	1.13366
2155.79	1.08503
2157.23	1.26834
2158.67	1.13745
2160.12	1.38859
2161.56	1.22694
2163	1.01687
2164.45	1.33863
2165.89	1.32947
2167.33	1.287
2168.78	1.52628
2170.22	1.96391
2171.66	1.65143
2173.1	0.87142
2174.54	1.07181
2175.98	1.60424
2177.42	1.52141
2178.86	1.09005
2180.3	1.65702
2181.74	1.44329
2183.18	1.22997
2184.62	1.49915
2186.06	1.30268
2187.5	1.13941
2188.94	1.45872
2190.38	1.34536
2191.82	1.19843
2193.25	1.36722
2194.69	1.53496
2196.13	1.28503
2197.57	1.26659
2199	1.18026
2200.44	1.07657
2201.88	1.28833
2203.31	1.2846
2204.75	1.38121
2206.18	0.782465
2207.62	1.39402
2209.05	1.42534
2210.49	0.628426
2211.92	1.28726
2213.36	0.820599
2214.79	1.31249
2216.22	1.20991
2217.66	1.07535
2219.09	0.760477
2220.52	0.875119
2221.96	0.676656
2223.39	0.972053
2224.82	0.854445
2226.25	1.06475
2227.68	0.845938
2229.11	0.659365
2230.55	0.70225
2231.98	0.679299
2233.41	0.65658
2234.84	0.814331
2236.27	1.10335
2237.7	0.821766
2239.12	0.427757
2240.55	0.394386
2241.98	0.394956
2243.41	0.787879
2244.84	0.479738
2246.27	0.725689
2247.7	0.399609
2249.12	0.740517
2250.55	0.883853
2251.98	0.683741
2253.41	0.613404
2254.83	0.44589
2256.26	0.523207
2257.68	0.504786
2259.11	0.358683
2260.54	0.425637
2261.96	0.332101
2263.39	0.75935
2264.81	0.602337
2266.24	0.900149
2267.66	0.530659
2269.08	0.436811
2270.51	0.488801
2271.93	0.491574
2273.35	0.461626
2274.78	0.545736
2276.2	0.46709
2277.62	0.421121
2279.04	0.86424
2280.47	0.149766
2281.89	0.804931
2283.31	0.39988
2284.73	0.77794
2286.15	0.519754
2287.57	0.604566
2288.99	0.787755
2290.41	0.775312
2291.83	0.419779
2293.25	0.194854
2294.67	0.264215
2296.09	0.366301
2297.51	0.157291
2298.93	0.488742
2300.35	0.755049
2301.76	0.103553
2303.18	0.403148
2304.6	0.391284
2306.02	0.100156
2307.44	0.0878158
2308.85	0.223014
2310.27	0.571655
2311.69	0.344497
2313.1	0.36396
2314.52	0.136819
2315.93	0.469871
2317.35	0.540208
2318.76	0.545024
2320.18	0.170331
2321.59	0.240008
2323.01	0.473416
2324.42	0.276041
2325.83	0.308053
2327.25	0.652101
2328.66	0.50074
2330.07	0.168473
2331.49	0.117042
2332.9	-0.0652375
2334.31	0.246805
2335.72	0.443737
2337.13	0.39355
2338.55	0.0960712
2339.96	0.258124
2341.37	0.304333
2342.78	0.23521
2344.19	0.330138
2345.6	0.212058
2347.01	0.307259
2348.42	0.46784
2349.83	0.317114
2351.24	0.591036
2352.65	0.53711
2354.05	0.449909
2355.46	0.215641
2356.87	0.470083
2358.28	0.301049
2359.69	0.311169
2361.09	-0.100663
2362.5	-0.0414543
2363.91	0.195708
2365.31	-0.0207
2366.72	0.280644
2368.13	0.339606
2369.53	-0.00407648
2370.94	0.362973
2372.34	0.0377774
2373.75	0.389967
2375.15	0.259248
2376.56	0.305361
2377.96	0.254163
2379.37	0.314372
2380.77	0.501661
2382.17	0.3347
2383.58	0.247503
2384.98	0.000355721
2386.38	0.233386
2387.79	0.466517
2389.19	0.429009
2390.59	0.0579429
2391.99	0.388772
2393.39	0.131216
2394.8	0.0335622
2396.2	0.238558
2397.6	0.110115
2399	0.25227
2400.4	0.394724
2401.8	0.156157
2403.2	0.203558
2404.6	-0.1304
2406	0.344772
2407.4	0.136621
2408.79	0.165967
2410.19	-0.122004
2411.59	0.271716
2412.99	0.0480237
2414.39	0.221187
2415.78	0.332033
2417.18	0.0955701
2418.58	0.42975
2419.98	0.162523
2421.37	0.512879
2422.77	0.387808
2424.16	0.214956
2425.56	0.580869
2426.96	0.138968
2428.35	0.553571
2429.74	0.382371
2431.14	0.00528812
2432.53	0.104202
2433.93	-0.0353751
2435.32	-0.239375
2436.72	0.191068
2438.11	0.175575
2439.5	0.333865
2440.9	0.364338
2442.29	0.0133877
2443.68	0.217871
2445.07	-0.101376
2446.47	0.277138
2447.86	0.259026
2449.25	0.288432
2450.64	0.207139
2452.03	0.205429
2453.42	0.0935178
2454.81	0.267041
2456.2	0.203753
2457.59	0.536166
2458.98	0.0301409
2460.37	0.29873
2461.76	-0.0183735
2463.15	0.169909
2464.54	0.152232
2465.93	0.308056
2467.32	0.479452
2468.7	0.0984063
2470.09	-0.0616393
2471.48	0.109174
2472.87	0.405332
2474.25	0.369935
2475.64	0.302629
2477.03	0.0622473
2478.41	0.02637
2479.8	-0.0721059
2481.18	-0.342789
2482.57	0.420981
2483.95	-0.11617
2485.34	0.254143
2486.72	-0.00205946
2488.11	0.0536222
2489.49	0.435896
2490.88	0.272288
2492.26	0.125016
2493.65	0.00991201
2495.03	-0.08848
2496.41	0.0621877
2497.79	0.0428739
2499.18	0.286934
2500.56	0.0663924
2501.94	0.170188
2503.32	0.396619
2504.7	-0.164765
2506.09	0.245326
2507.47	-0.11524
2508.85	0.0477943
2510.23	0.210776
2511.61	0.0210142
2512.99	0.0774307
2514.37	-0.034101
2515.75	-0.129543
2517.13	0.219302
2518.51	0.292964
2519.89	0.0763512
2521.26	-0.354033
2522.64	-0.00591469
2524.02	0.0818567
2525.4	-0.212044
2526.78	-0.124962
2528.15	-0.0225348
2529.53	0.171752
2530.91	-0.225777
2532.28	0.213866
2533.66	0.00106478
2535.04	-0.0440507
2536.41	0.275444
2537.79	0.0323644
2539.16	0.396182
2540.54	0.030406
2541.91	0.0592136
2543.29	0.346124
2544.66	-0.170453
2546.04	-0.0337934
2547.41	0.0279002
2548.78	-0.0918231
2550.16	-0.211501
2551.53	0.169282
2552.9	0.215581
2554.27	0.549434
2555.65	0.139064
2557.02	0.122837
2558.39	0.273314
2559.76	0.423905
2561.13	0.104995
2562.51	0.51408
2563.88	0.2871
2565.25	0.257472
2566.62	0.197731
2567.99	0.168373
2569.36	0.548239
2570.73	0.458292
2572.1	0.277429
2573.47	-0.0701313
2574.84	0.158406
2576.2	0.205084
2577.57	0.0697775
2578.94	0.419519
2580.31	0.329293
2581.68	0.102304
2583.05	0.0266891
2584.41	-0.200677
2585.78	0.0873494
2587.15	0.148059
2588.51	0.0421958
2589.88	0.0879884
2591.24	-0.16937
2592.61	-0.426987
2593.98	-0.0942512
2595.34	0.207302
2596.71	0.129439
2598.07	0.126711
2599.44	-0.133317
2600.8	-0.0756569
2602.16	-0.0781074
2603.53	0.0859799
2604.89	0.159824
2606.26	0.294121
2607.62	0.156678
2608.98	-0.207322
2610.34	0.30186
2611.71	0.132065
2613.07	0.172209
2614.43	-0.178857
2615.79	0.220903
2617.15	0.00539637
2618.52	0.105254
2619.88	0.250412
2621.24	0.0519943
2622.6	-0.0112543
2623.96	0.358808
2625.32	0.0269976
2626.68	0.127923
2628.04	0.302979
2629.4	-0.0882702
2630.75	0.041687
2632.11	-0.259762
2633.47	-0.0259895
2634.83	0.326136
2636.19	0.158617
2637.55	0.0654616
2638.9	-0.160756
2640.26	-0.120187
2641.62	0.245753
2642.98	0.153412
2644.33	0.120398
2645.69	0.205413
2647.04	0.113125
2648.4	0.182515
2649.76	-0.13143
2651.11	0.010488
2652.47	-0.0390296
2653.82	-0.000259399
2655.18	-0.0782881
2656.53	0.122888
2657.88	-0.231552
2659.24	-0.0582857
2660.59	-0.148068
2661.95	-0.106309
2663.3	-0.0357833
2664.65	0.0340867
2666	0.103316
2667.36	-0.0319424
2668.71	0.255244
2670.06	-0.0689297
2671.41	0.0585051
2672.76	0.200773
2674.12	0.00933981
2675.47	-0.355636
2676.82	0.165155
2678.17	0.323452
2679.52	0.2068
2680.87	0.0764809
2682.22	0.0485535
2683.57	0.00699711
2684.92	0.285249
2686.27	0.244841
2687.62	0.117247
2688.97	-0.0983582
2690.31	0.0477571
2691.66	0.22155
2693.01	0.00237799
2694.36	-0.246298
2695.71	0.0993595
2697.05	-0.00394678
2698.4	0.0820155
2699.75	0.31397
2701.09	0.330048
2702.44	0.0286279
2703.78	0.133528
2705.13	0.0504651
2706.48	0.0979199
2707.82	0.0146508
2709.17	-0.315747
2710.51	-0.0802994
2711.86	0.0534501
2713.2	-0.00171089
2714.54	0.248304
2715.89	0.353043
2717.23	0.079607
2718.57	-0.165052
2719.92	0.186524
2721.26	-0.26252
2722.6	0.234064
2723.95	0.177273
2725.29	0.396727
2726.63	-0.0390787
2727.97	0.238093
2729.31	0.020268
2730.65	-0.0811954
2732	0.108327
2733.34	0.268785
2734.68	-0.0361061
2736.02	-0.0789866
2737.36	0.31457
2738.7	-0.0772424
2740.04	0.0688977
2741.38	0.112901
2742.72	0.185511
2744.05	0.402912
2745.39	0.111235
2746.73	0.138959
2748.07	0.224588
2749.41	0.179605
2750.75	0.36687
2752.08	0.0902658
2753.42	-0.0265322
2754.76	0.117673
2756.09	0.117063
2757.43	0.0441866
2758.77	0.31897
2760.1	0.101847
2761.44	-0.172719
2762.78	0.493666
2764.11	0.190797
2765.44	0.437772
2766.78	0.163574
2768.11	0.0768385
2769.45	-0.502368
2770.78	-0.330534
2772.12	-0.073184
2773.45	0.139762
2774.78	0.380777
2776.12	0.232427
2777.45	0.0846128
2778.78	-0.263875
2780.12	0.222013
2781.45	-0.412652
2782.78	0.00124884
2784.11	0.070374
2785.44	-0.0755854
2786.78	0.00795221
2788.11	0.134698
2789.44	0.0901985
2790.77	0.103614
2792.1	-0.139758
2793.43	0.131961
2794.76	0.46078
2796.09	0.174806
2797.42	-0.0828261
2798.75	0.0876837
2800.08	0.129302
2801.4	0.199224
2802.73	-0.130285
2804.06	0.210161
2805.39	0.179615
2806.72	0.205607
2808.05	0.0462017
2809.37	0.1994
2810.7	-0.158864
2812.03	-0.175593
2813.35	-0.0780468
2814.68	0.00625896
2816.01	0.417582
2817.33	-0.134144
2818.66	-0.104279
2819.98	0.109871
2821.31	0.139457
2822.63	0.0977063
2823.96	0.140531
2825.28	0.268069
2826.61	0.452222
2827.93	0.565899
2829.25	0.0995569
2830.58	-0.168174
2831.9	0.201277
2833.23	0.344194
2834.55	0.21795
2835.87	0.16215
2837.19	0.601219
2838.52	0.601247
2839.84	0.332426
2841.16	0.770732
2842.48	0.516522
2843.8	0.573806
2845.12	1.05558
2846.44	0.831194
2847.77	0.607078
2849.08	0.94832
2850.4	1.36005
2851.73	1.20606
2853.05	1.0517
2854.36	1.15143
2855.68	1.01082
2857	1.11038
2858.32	1.05459
2859.64	1.22477
2860.96	1.33829
2862.28	1.47978
2863.59	1.74795
2864.91	1.73358
2866.23	1.2819
2867.55	1.6486
2868.86	1.86036
2870.18	1.91729
2871.5	2.05891
2872.81	2.05936
2874.13	2.20015
2875.44	2.01608
2876.76	2.16923
2878.07	2.3216
2879.39	2.67046
2880.7	2.54126
2882.02	2.53928
2883.33	2.43982
2884.65	2.56583
2885.96	2.22901
2887.28	2.49591
2888.59	2.21512
2889.9	2.15834
2891.21	2.32532
2892.53	2.04319
2893.84	2.34955
2895.15	2.52987
2896.46	2.4447
2897.78	2.68224
2899.09	2.80853
2900.4	2.73957
2901.71	2.39121
2903.02	2.68649
2904.33	2.85595
2905.64	2.80182
2906.95	2.70614
2908.26	2.76491
2909.57	2.92227
2910.88	2.84221
2912.19	3.57397
2913.5	3.26943
2914.81	3.29976
2916.12	3.73474
2917.43	3.98636
2918.73	4.27896
2920.04	4.29148
2921.35	4.19266
2922.66	3.74539
2923.96	4.12401
2925.27	3.88848
2926.58	4.53409
2927.88	4.39695
2929.19	4.51112
2930.5	4.89045
2931.8	4.59833
2933.11	4.8232
2934.41	4.72652
2935.72	4.81162
2937.02	5.05055
2938.33	4.11577
2939.63	4.78823
2940.94	4.25934
2942.24	4.23415
2943.54	4.25182
2944.85	3.96301
2946.15	3.67493
2947.45	3.73686
2948.76	3.58872
2950.06	3.43959
2951.36	3.05099
2952.66	3.29104
2953.97	3.34794
2955.27	3.2645
2956.57	3.11171
2957.87	2.87641
2959.17	2.85302
2960.47	3.01375
2961.77	2.96593
2963.07	3.01686
2964.37	3.19381
2965.67	3.24343
2966.97	3.17933
2968.27	2.41117
2969.57	3.09033
2970.87	2.36317
2972.17	2.40962
2973.47	2.18894
2974.77	2.50302
2976.07	2.35214
2977.36	2.51001
2978.66	2.51166
2979.96	2.2163
2981.26	2.35627
2982.55	2.45343
2983.85	1.5525
2985.15	1.65085
2986.44	1.86262
2987.74	1.52739
2989.03	1.75497
2990.33	1.5471
2991.63	1.50747
2992.92	1.24218
2994.21	1.59424
2995.51	1.13053
2996.8	0.736781
2998.1	1.25534
2999.39	1.07221
3000.69	0.819455
3001.98	1.24007
3003.27	1.01611
3004.57	0.69426
3005.86	0.918537
3007.15	0.862191
3008.44	0.959129
3009.74	0.845491
3011.03	0.731387
3012.32	0.547259
3013.61	0.642362
3014.9	0.709682
3016.19	0.847014
3017.48	0.567017
3018.78	0.34333
3020.07	0.21725
3021.36	0.688617
3022.65	-0.0357819
3023.94	0.26715
3025.23	0.402557
3026.51	0.246604
3027.8	0.713884
3029.09	0.406861
3030.38	0.51582
3031.67	0.418548
3032.96	0.239253
3034.24	0.0878692
3035.53	0.322447
3036.82	0.252489
3038.11	0.332824
3039.39	0.452859
3040.68	0.0765543
3041.97	0.290714
3043.25	0.271129
3044.54	0.279487
3045.83	0.316275
3047.11	0.463777
3048.4	0.462564
3049.68	0.435581
3050.97	0.532549
3052.25	0.261642
3053.54	0.550149
3054.82	0.769828
3056.11	0.579372
3057.39	1.02885
3058.67	0.836772
3059.96	0.236127
3061.24	0.412021
3062.52	0.289113
3063.81	0.72469
3065.09	0.372673
3066.37	0.157613
3067.65	0.160714
3068.94	0.476821
3070.22	0.371125
3071.5	0.264713
3072.78	0.27974
3074.06	0.701569
3075.34	0.415661
3076.62	-0.0876036
3077.9	0.522839
3079.18	0.3465
3080.46	0.171283
3081.74	0.349835
3083.02	0.230803
3084.3	0.207147
3085.58	0.305594
3086.86	-0.0578337
3088.14	0.0395975
3089.42	0.0957084
3090.69	0.151366
3091.97	-0.0102792
3093.25	-0.131161
3094.53	-0.0755925
3095.8	0.210549
3097.08	0.198316
3098.36	0.11817
3099.63	0.119154
3100.91	-0.313517
3102.19	-0.204318
3103.46	0.148593
3104.74	-0.093977
3106.01	0.354154
3107.29	0.315596
3108.56	0.0882354
3109.84	-0.124977
3111.11	0.176817
3112.39	0.045836
3113.66	-0.274754
3114.94	0.176996
3116.21	-0.0087285
3117.48	-0.127458
3118.76	-0.328462
3120.03	-0.00141716
3121.3	0.0670915
3122.57	-0.0276451
3123.85	-0.149674
3125.12	-0.109126
3126.39	0.134582
3127.66	0.0536771
3128.93	0.257101
3130.21	0.163075
3131.48	0.285326
3132.75	-0.0927024
3134.02	-0.173695
3135.29	-0.0256186
3136.56	-0.0806365
3137.83	0.0930877
3139.1	0.198756
3140.37	0.25012
3141.64	-0.102168
3142.91	-0.0372758
3144.17	-0.0394316
3145.44	-0.135205
3146.71	0.0644102
3147.98	-0.0976348
3149.25	0.262966
