200.388	1.25976
202.204	1.27041
204.019	1.28212
205.832	0.371046
207.646	0.458139
209.459	0.326148
211.274	-0.972511
213.087	-0.498909
214.899	0.312661
216.711	0.759008
218.524	-0.151348
220.335	0.634648
222.146	0.332418
223.956	0.394412
225.766	-0.267784
227.576	0.351195
229.388	0.389935
231.197	-0.271756
233.005	0.104322
234.813	0.287683
236.621	-0.612279
238.429	-0.0392504
240.236	-0.0900106
242.045	0.657647
243.852	-0.44982
245.658	-0.230742
247.464	0.131907
249.269	0.636797
251.074	-0.551855
252.879	-0.149875
254.683	0.828851
256.487	0.504184
258.291	0.735151
260.094	-0.260682
261.897	0.287861
263.702	0.742108
265.504	-0.247821
267.306	0.0638294
269.108	-0.251329
270.909	0.107697
272.71	0.320964
274.511	0.605066
276.311	0.453414
278.111	0.396203
279.91	0.360907
281.709	0.178969
283.508	0.115499
285.306	-0.117611
287.105	0.608991
288.9	0.279148
290.698	-0.240781
292.495	0.199135
294.291	0.20972
296.088	0.580718
297.884	-0.146595
299.679	0.178533
301.475	-0.666987
303.27	0.254091
305.064	0.576446
306.858	0.0626106
308.652	0.168903
310.444	-0.200794
312.237	0.45534
314.03	-0.791897
315.822	0.130013
317.615	0.411158
319.406	0.861089
321.198	0.335689
322.987	0.788454
324.778	0.645854
326.568	0.503292
328.358	1.33991
330.148	0.575135
331.935	0.740977
333.724	0.689696
335.513	0.827361
337.301	0.00518894
339.089	-0.26887
340.875	0.459916
342.662	0.326618
344.449	0.456207
346.236	0.777366
348.02	3.10494
349.806	3.30748
351.592	3.36687
353.375	0.800712
355.16	4.19617e-005
356.944	0.581468
358.728	0.136059
360.51	0.285241
362.294	0.480754
364.077	0.532419
365.858	0.084259
367.64	0.0632639
369.422	-0.148351
371.202	0.231678
372.983	0.562753
374.764	1.08169
376.543	1.12739
378.324	1.07932
380.102	1.4094
381.881	1.83454
383.661	2.47242
385.438	2.71169
387.216	2.81148
388.993	1.9262
390.771	2.02916
392.548	2.10973
394.324	1.53361
396.101	1.49816
397.875	1.53333
399.651	2.0146
401.425	0.968628
403.201	1.09631
404.974	1.05866
406.749	0.785306
408.524	1.02782
410.296	-0.0211897
412.07	0.408761
413.841	0.182008
415.614	0.566165
417.385	-0.0107927
419.156	0.398515
420.928	0.620501
422.698	-0.214053
424.469	0.288598
426.238	0.555479
428.009	0.375341
429.777	-0.509543
431.548	-0.0564957
433.315	0.255989
435.083	-0.158706
436.852	-0.174427
438.618	0.25501
440.387	0.565415
442.153	0.498
443.919	0.428112
445.686	-0.0889759
447.451	-0.466203
449.218	0.255735
450.982	0.67273
452.746	0.202302
454.512	-0.523686
456.275	-0.479404
458.038	0.356457
459.803	0.632548
461.565	-0.160717
463.327	-0.486509
465.091	0.491678
466.852	0.241426
468.613	0.273123
470.374	0.423347
472.136	0.295311
473.896	0.329294
475.655	0.431172
477.415	-0.0518141
479.176	0.255008
480.934	0.23448
482.692	0.912751
484.45	0.986784
486.21	0.946698
487.967	-0.0231171
489.724	0.197751
491.481	-0.0467062
493.237	0.667093
494.995	0.891374
496.75	0.97551
498.506	0.426852
500.26	1.09609
502.015	0.709531
503.771	0.908511
505.525	0.589309
507.279	1.34982
509.032	1.19165
510.785	1.40786
512.537	2.18688
514.289	2.14036
516.041	1.45684
517.793	1.85393
519.546	2.64903
521.297	2.19706
523.047	1.62745
524.797	1.52757
526.547	1.54505
528.297	1.77356
530.046	1.34553
531.795	1.52642
533.543	1.86996
535.291	0.784698
537.039	0.564179
538.787	0.552526
540.534	0.982573
542.281	0.898159
544.027	0.906503
545.773	1.03094
547.519	0.760714
549.264	0.839134
551.01	0.338715
552.754	0.232831
554.499	0.982333
556.243	0.0916662
557.987	0.517661
559.73	0.252224
561.474	-0.173261
563.216	0.0926352
564.959	0.0829496
566.701	0.487462
568.441	-0.0259085
570.182	0.334409
571.923	-0.290469
573.664	0.0271826
575.405	-0.203777
577.145	0.186588
578.885	0.326223
580.624	0.788438
582.361	0.309134
584.1	-0.378132
585.839	0.013835
587.577	-0.0784531
589.315	-0.034111
591.052	-0.289944
592.787	0.143829
594.524	0.600382
596.26	0.389751
597.997	0.823275
599.732	0.428144
601.466	0.837245
603.201	0.738727
604.936	0.73047
606.67	1.57081
608.403	0.250498
610.136	0.721677
611.87	0.229435
613.603	0.380549
615.334	0.646931
617.067	-0.140557
618.799	-0.447062
620.529	0.0696259
622.26	0.904573
623.991	0.0685329
625.72	-0.332353
627.451	-0.480516
629.181	-0.14723
630.909	0.371014
632.638	-0.0896339
634.368	0.204024
636.095	0.406186
637.823	0.629279
639.551	0.278629
641.277	-0.348831
643.005	0.00181007
644.73	0.145446
646.457	0.493776
648.184	0.389009
649.908	0.46971
651.634	0.0094738
653.357	0.235367
655.083	0.397109
656.806	-0.0301628
658.53	0.500167
660.253	0.278229
661.977	-0.402615
663.7	0.124204
665.422	0.46596
667.145	0.599869
668.865	0.229692
670.588	0.614942
672.308	0.361891
674.027	-0.048933
675.749	-0.503811
677.468	0.188997
679.188	0.217417
680.907	0.152869
682.627	-0.143833
684.345	0.0401297
686.064	0.314109
687.781	0.263963
689.498	0.511989
691.216	1.03559
692.932	0.10727
694.65	0.237704
696.366	0.0446129
698.081	-0.0806484
699.797	0.368049
701.512	-0.288931
703.228	0.340882
704.942	0.53266
706.655	0.654684
708.371	-0.393539
710.083	0.621724
711.796	-0.0821857
713.51	-0.23628
715.222	0.20386
716.934	0.894289
718.645	0.785154
720.358	0.608011
722.068	0.249198
723.779	0.277858
725.49	0.647324
727.2	1.47011
728.909	0.520861
730.618	0.298341
732.329	0.551417
734.037	0.69063
735.745	0.852204
737.453	0.833214
739.16	0.589417
740.869	1.02337
742.576	1.16526
744.282	0.385516
745.988	0.620799
747.694	0.902497
749.401	0.780726
751.107	0.750455
752.811	1.55392
754.516	0.784437
756.22	1.07398
757.924	1.05035
759.627	1.32129
761.332	1.9547
763.035	2.2513
764.738	2.93193
766.44	3.72505
768.142	3.16023
769.843	3.47392
771.544	4.37287
773.245	4.34262
774.946	4.42468
776.646	4.71095
778.346	4.36595
780.046	4.18139
781.745	3.68165
783.444	3.24977
785.143	3.17843
786.841	2.5381
788.539	2.59554
790.237	1.97016
791.934	1.54565
793.631	2.61019
795.328	1.16828
797.024	0.969636
798.72	1.76411
800.416	0.961606
802.112	0.701539
803.807	1.85933
805.502	1.59981
807.196	1.4744
808.89	1.57232
810.584	1.33211
812.278	0.822056
813.971	0.849899
815.664	1.59379
817.354	1.5535
819.047	1.28985
820.739	0.892835
822.43	0.987771
824.122	0.994257
825.813	1.87135
827.503	1.03497
829.192	1.56066
830.882	0.419478
832.571	1.53111
834.261	0.862981
835.95	1.35513
837.637	1.73614
839.325	0.530901
841.013	1.19921
842.701	0.481171
844.389	1.01362
846.074	1.4129
847.761	1.14365
849.447	1.92846
851.131	0.635011
852.817	0.462111
854.503	0.918209
856.188	0.92593
857.871	0.685146
859.556	1.25218
861.24	0.984841
862.922	0.377408
864.606	0.48919
866.289	0.532391
867.97	0.529803
869.653	0.504158
871.336	-0.108336
873.016	0.56473
874.698	0.132282
876.379	0.173638
878.058	0.508451
879.739	0.640098
881.418	0.83912
883.098	0.45041
884.778	0.805476
886.456	0.256104
888.135	1.3749
889.812	0.348553
891.49	0.471073
893.167	0.389276
894.845	0.756312
896.523	0.33466
898.198	0.182236
899.875	0.791783
901.55	1.35421
903.226	1.35513
904.901	0.640646
906.576	-0.228064
908.25	0.466651
909.925	-0.0863867
911.598	0.697577
913.271	0.569551
914.945	0.397781
916.617	1.06941
918.291	0.675888
919.962	0.858939
921.635	0.710432
923.306	0.430843
924.978	0.418544
926.648	0.761617
928.318	1.04016
929.989	0.569767
931.659	0.850545
933.328	1.02129
934.998	0.243732
936.666	0.238763
938.336	0.300905
940.004	0.121791
941.671	0.054287
943.34	0.00966835
945.007	0.273933
946.673	-0.147193
948.339	0.202283
950.007	0.439226
951.672	0.476078
953.337	-0.281075
955.004	-0.132161
956.669	0.438663
958.333	0.241297
959.997	0.378004
961.662	-0.123818
963.326	0.633538
964.989	-0.0475607
966.651	0.639562
968.315	-0.402076
969.977	-0.00792408
971.639	-0.32271
973.301	0.358231
974.962	-0.109291
976.624	-0.0661821
978.285	0.59804
979.945	0.588551
981.605	0.578674
983.264	-0.329271
984.924	0.465191
986.583	0.106211
988.243	-0.0112057
989.901	-0.0856829
991.56	-0.160818
993.217	0.559091
994.875	0.638105
996.532	0.38625
998.188	0.928459
999.845	0.94091
1001.5	1.06301
1003.16	1.44853
1004.81	1.45926
1006.47	1.27204
1008.12	1.94167
1009.78	1.51354
1011.43	2.05147
1013.09	1.5154
1014.74	1.30905
1016.39	1.89155
1018.05	1.35817
1019.7	1.15436
1021.35	1.52045
1023	1.64727
1024.65	1.75344
1026.31	2.58148
1027.96	2.07659
1029.61	2.92552
1031.26	2.78964
1032.91	2.91366
1034.56	2.99162
1036.21	2.67511
1037.86	2.57577
1039.51	2.25876
1041.16	2.57387
1042.8	2.28163
1044.45	2.01375
1046.1	2.00926
1047.75	2.20271
1049.39	1.31246
1051.04	1.29251
1052.69	1.42567
1054.33	1.23344
1055.98	1.28024
1057.62	1.06587
1059.27	0.850847
1060.91	1.02642
1062.56	0.766193
1064.2	0.330959
1065.85	-0.127092
1067.49	0.304935
1069.13	0.626947
1070.77	0.64389
1072.42	1.05137
1074.06	1.56755
1075.7	0.93503
1077.34	0.629743
1078.98	1.58377
1080.62	1.90986
1082.27	1.84568
1083.91	1.49856
1085.55	2.49353
1087.18	2.77009
1088.82	1.65765
1090.46	2.05909
1092.1	1.80976
1093.74	2.22967
1095.38	2.58428
1097.02	1.71058
1098.65	1.78782
1100.29	2.12555
1101.93	0.787021
1103.56	0.89294
1105.2	0.892904
1106.84	0.743067
1108.47	0.980056
1110.11	0.0331717
1111.74	0.740026
1113.38	-0.0593834
1115.01	-0.150847
1116.64	0.400702
1118.28	0.479955
1119.91	0.367065
1121.54	0.191237
1123.18	0.551898
1124.81	0.742296
1126.44	1.08335
1128.07	0.633985
1129.7	0.164266
1131.33	0.443615
1132.97	0.872942
1134.6	-0.450731
1136.23	0.170158
1137.86	-0.0436888
1139.49	-0.0237923
1141.11	0.0376444
1142.74	0.311817
1144.37	0.329899
1146	-0.354766
1147.63	0.645757
1149.26	0.00620365
1150.88	-0.419422
1152.51	0.0708857
1154.14	-0.205842
1155.76	0.00665855
1157.39	-0.0789919
1159.01	0.218656
1160.64	-0.0782948
1162.27	0.178936
1163.89	-0.0942326
1165.51	0.590004
1167.14	0.25343
1168.76	-0.148058
1170.39	0.405184
1172.01	0.233456
1173.63	0.208473
1175.25	0.33058
1176.88	0.0914764
1178.5	0.467251
1180.12	0.546924
1181.74	0.521777
1183.36	-0.517324
1184.98	0.0507317
1186.6	-0.0797415
1188.22	0.0835695
1189.84	0.518362
1191.46	0.486785
1193.08	0.0540018
1194.7	0.818202
1196.32	0.51096
1197.94	0.373126
1199.55	0.530431
1201.17	0.48123
1202.79	0.309969
1204.41	-0.0250244
1206.02	0.644191
1207.64	0.417706
1209.25	0.108226
1210.87	0.256818
1212.48	0.06985
1214.1	-0.056921
1215.71	0.459452
1217.33	0.619184
1218.94	0.133128
1220.56	0.416018
1222.17	0.740574
1223.79	0.257883
1225.4	0.668032
1227.01	-0.0379858
1228.62	0.271804
1230.23	0.830902
1231.85	0.6056
1233.46	0.340454
1235.07	0.820817
1236.68	0.785903
1238.29	0.979605
1239.9	0.285056
1241.51	0.107492
1243.12	0.405337
1244.73	0.68176
1246.34	1.45371
1247.94	0.775979
1249.55	0.821601
1251.16	0.618577
1252.77	0.519253
1254.37	0.606901
1255.98	0.923307
1257.59	-0.206901
1259.2	0.753653
1260.8	0.61874
1262.41	-0.178346
1264.01	1.19913
1265.62	0.131908
1267.22	0.576389
1268.83	1.331
1270.43	1.37962
1272.03	0.473219
1273.64	1.16211
1275.24	0.73031
1276.85	0.546308
1278.45	1.48009
1280.05	1.12861
1281.65	0.570088
1283.25	0.88105
1284.85	0.303142
1286.46	0.822289
1288.06	1.07366
1289.66	0.892054
1291.26	1.51699
1292.86	0.984694
1294.46	0.844214
1296.06	0.640405
1297.66	1.44647
1299.25	1.48635
1300.85	1.1945
1302.45	1.06642
1304.05	1.06092
1305.65	1.19849
1307.24	1.80755
1308.84	1.67636
1310.43	0.807681
1312.03	1.37431
1313.63	0.938514
1315.22	0.974654
1316.82	0.909747
1318.41	1.21286
1320.01	0.659175
1321.6	0.920191
1323.2	1.48425
1324.79	1.15068
1326.38	0.978651
1327.98	0.96858
1329.57	0.959096
1331.16	1.21434
1332.76	0.744216
1334.35	0.5601
1335.94	1.16507
1337.53	0.94316
1339.12	1.46661
1340.71	1.26234
1342.3	0.613205
1343.89	1.04862
1345.48	0.397569
1347.07	1.29212
1348.66	0.98475
1350.25	0.440616
1351.84	0.320135
1353.43	0.362003
1355.01	1.0649
1356.6	0.948623
1358.19	0.971775
1359.77	1.0138
1361.36	0.91483
1362.95	0.435958
1364.53	0.595178
1366.12	0.196567
1367.71	0.755113
1369.29	0.0604124
1370.88	0.422438
1372.46	-0.109568
1374.04	0.633158
1375.63	-0.354486
1377.21	0.608028
1378.8	0.256721
1380.38	0.481364
1381.96	0.306642
1383.54	-0.127937
1385.13	0.470355
1386.71	0.193381
1388.29	0.691268
1389.87	1.12989
1391.45	0.338959
1393.03	0.422245
1394.61	0.664614
1396.19	0.252327
1397.77	0.98924
1399.35	0.773351
1400.93	0.794214
1402.51	0.359075
1404.09	0.794827
1405.67	0.20245
1407.24	0.184737
1408.82	0.4841
1410.4	0.803618
1411.98	0.648995
1413.55	0.118772
1415.13	0.377233
1416.71	0.871145
1418.28	0.516517
1419.86	1.12786
1421.43	0.735582
1423.01	1.38864
1424.58	0.704987
1426.16	1.22347
1427.73	0.60104
1429.31	1.29706
1430.88	1.95265
1432.45	2.40986
1434.02	2.4328
1435.6	1.9831
1437.17	1.7305
1438.74	2.42239
1440.31	2.27017
1441.88	1.43132
1443.45	1.49738
1445.03	1.66216
1446.6	2.53478
1448.17	1.8941
1449.74	1.7451
1451.3	1.65558
1452.87	1.72398
1454.44	1.93057
1456.01	2.45204
1457.58	1.75283
1459.15	2.25249
1460.72	1.51025
1462.28	0.962816
1463.85	1.57415
1465.42	1.35807
1466.98	0.90602
1468.55	1.00456
1470.12	1.31985
1471.68	0.517977
1473.25	0.541465
1474.81	0.722685
1476.38	0.629822
1477.94	0.90959
1479.51	0.640342
1481.07	1.03743
1482.63	1.02277
1484.2	0.576881
1485.76	0.228719
1487.32	0.545794
1488.88	0.998268
1490.45	1.15471
1492.01	0.839159
1493.57	0.50213
1495.13	0.24183
1496.69	0.546005
1498.25	0.479344
1499.81	0.432853
1501.37	0.562356
1502.93	0.440775
1504.49	-0.00895309
1506.05	0.161901
1507.61	0.273774
1509.17	0.307027
1510.73	0.686258
1512.28	0.369764
1513.84	0.303823
1515.4	0.257434
1516.96	0.480562
1518.51	0.416362
1520.07	0.429604
1521.63	0.136897
1523.18	0.341457
1524.74	0.162858
1526.29	0.0789433
1527.85	0.127522
1529.4	-0.0718498
1530.96	-0.0998392
1532.51	0.119262
1534.06	-0.361984
1535.62	-0.141129
1537.17	0.477001
1538.72	0.433961
1540.28	0.598862
1541.83	0.217228
1543.38	0.212626
1544.93	0.0197954
1546.48	0.0337181
1548.03	0.235055
1549.59	0.1735
1551.14	0.561648
1552.69	0.893436
1554.24	0.440642
1555.79	1.12933
1557.34	0.587157
1558.88	0.252873
1560.43	0.946844
1561.98	0.50453
1563.53	0.69774
1565.08	0.798335
1566.62	0.824427
1568.17	0.626297
1569.72	1.23033
1571.27	1.08731
1572.81	0.887932
1574.36	1.11771
1575.9	0.936814
1577.45	0.681436
1579	1.04256
1580.54	0.694877
1582.09	0.198488
1583.63	0.711504
1585.17	0.590249
1586.72	1.08639
1588.26	1.19032
1589.8	1.05086
1591.35	1.36004
1592.89	0.770076
1594.43	1.26576
1595.97	1.72427
1597.52	1.49006
1599.06	1.85641
1600.6	1.07961
1602.14	0.903149
1603.68	1.1396
1605.22	1.01861
1606.76	1.02759
1608.3	0.7337
1609.84	0.907178
1611.38	1.19078
1612.92	0.70195
1614.46	0.794023
1615.99	1.12928
1617.53	1.07093
1619.07	0.901475
1620.61	0.977244
1622.14	1.63492
1623.68	0.739452
1625.22	0.948697
1626.75	1.06349
1628.29	0.709076
1629.82	1.08274
1631.36	1.28661
1632.9	0.948063
1634.43	0.890208
1635.96	1.4303
1637.5	1.16898
1639.03	1.71023
1640.57	0.834744
1642.1	1.03978
1643.63	1.16896
1645.16	1.35246
1646.7	0.846624
1648.23	1.25163
1649.76	1.19222
1651.29	1.67207
1652.82	1.54072
1654.36	1.13264
1655.89	1.5411
1657.42	1.52307
1658.95	1.26342
1660.48	1.31728
1662.01	1.36945
1663.53	1.29081
1665.06	1.58102
1666.59	1.16979
1668.12	1.20294
1669.65	0.574081
1671.18	0.979189
1672.7	1.32995
1674.23	0.686626
1675.76	0.687777
1677.29	0.964154
1678.81	0.632054
1680.34	0.813954
1681.86	0.590543
1683.39	0.532287
1684.91	0.0520744
1686.44	1.16832
1687.96	-0.00738621
1689.49	0.650498
1691.01	0.41078
1692.54	1.0132
1694.06	0.0967474
1695.58	0.716725
1697.11	0.787591
1698.63	0.584059
1700.15	0.325539
1701.67	0.285635
1703.2	0.19049
1704.72	0.568353
1706.24	-0.0556641
1707.76	-0.0608358
1709.28	-0.211432
1710.8	-0.0894823
1712.32	-0.0763826
1713.84	0.0817947
1715.36	0.113044
1716.88	-0.036726
1718.4	0.0666237
1719.91	-0.209513
1721.43	-0.30462
1722.95	0.141841
1724.47	0.174291
1725.99	0.460161
1727.5	0.0451908
1729.02	0.441325
1730.54	-0.00847149
1732.05	-0.133517
1733.57	0.200012
1735.09	0.183627
1736.6	0.0284996
1738.12	-0.0167713
1739.63	-0.0202579
1741.15	0.186311
1742.66	0.530169
1744.18	0.0964832
1745.69	0.910807
1747.2	0.157901
1748.72	0.599436
1750.23	-0.0192795
1751.74	-0.383018
1753.25	-0.0929956
1754.77	0.182634
1756.28	0.180648
1757.79	-0.0304556
1759.3	0.0782986
1760.81	0.00443459
1762.32	-0.218704
1763.83	0.240201
1765.34	0.0469837
1766.85	-0.224517
1768.36	0.182394
1769.87	-0.11524
1771.38	-0.31087
1772.89	0.0843163
1774.4	0.223516
1775.91	-0.0653458
1777.41	0.0459805
1778.92	-0.0640364
1780.43	-0.0143595
1781.94	-0.222422
1783.44	0.237374
1784.95	0.0120564
1786.45	0.278346
1787.96	0.13381
1789.47	0.206987
1790.97	0.279084
1792.48	-0.176737
1793.98	0.00592709
1795.48	-0.0899973
1796.99	0.271569
1798.49	0.195318
1800	-0.0893612
1801.5	-0.144424
1803	0.155005
1804.51	0.0881023
1806.01	-0.0740128
1807.51	-0.241245
1809.01	0.23314
1810.51	0.264961
1812.02	0.407981
1813.52	-0.29908
1815.02	-0.0361977
1816.52	0.156923
1818.02	-0.0709114
1819.52	0.0254583
1821.02	0.102139
1822.52	-0.0473289
1824.02	-0.149379
1825.51	0.152138
1827.01	-0.360807
1828.51	0.286777
1830.01	0.107879
1831.51	-0.1662
1833	0.144246
1834.5	0.381006
1836	0.0211878
1837.5	0.152486
1838.99	-0.116288
1840.49	0.11762
1841.98	0.276577
1843.48	-0.0172873
1844.97	0.27565
1846.47	0.158855
1847.96	0.0111132
1849.46	-0.142283
1850.95	0.270264
1852.45	-0.0978031
1853.94	0.0977821
1855.43	0.223785
1856.92	0.505327
1858.42	0.275193
1859.91	0.139688
1861.4	0.198895
1862.89	0.32421
1864.39	0.39393
1865.88	0.402162
1867.37	0.423633
1868.86	0.14017
1870.35	0.201949
1871.84	0.125464
1873.33	0.149794
1874.82	0.522749
1876.31	0.320896
1877.8	0.256903
1879.29	-0.167779
1880.77	-0.0324821
1882.26	0.124886
1882.51	0.147578
1884	-0.185063
1885.5	0.196235
1886.99	0.280218
1888.48	0.659518
1889.98	-0.0575066
1891.47	0.061861
1892.97	0.21749
1894.46	0.131491
1895.95	-0.0573053
1897.44	0.293791
1898.93	0.192657
1900.42	0.247057
1901.92	0.0562935
1903.41	0.437744
1904.9	0.069953
1906.39	-0.159291
1907.88	0.393096
1909.37	0.147113
1910.86	0.648355
1912.35	0.230854
1913.84	0.611912
1915.32	0.351326
1916.81	0.00382137
1918.3	0.0892591
1919.79	0.520725
1921.28	0.345576
1922.76	-0.158062
1924.25	0.239626
1925.74	-0.0887346
1927.22	-0.087121
1928.71	0.174835
1930.2	-0.203882
1931.68	0.195853
1933.17	0.351703
1934.65	-0.325173
1936.14	0.034976
1937.62	0.531861
1939.11	0.198239
1940.59	-0.100125
1942.08	0.137671
1943.56	0.0830183
1945.04	-0.0224676
1946.53	0.131071
1948.01	0.404922
1949.49	-0.424674
1950.97	-0.169725
1952.45	0.135661
1953.94	0.250924
1955.42	-0.149568
1956.9	0.172083
1958.38	0.785789
1959.86	-0.144266
1961.34	-0.181296
1962.82	0.313239
1964.3	0.121869
1965.78	-0.360948
1967.26	-0.296226
1968.74	0.349355
1970.22	0.00209808
1971.69	-0.122888
1973.17	0.0424023
1974.65	-0.406464
1976.13	0.338551
1977.61	-0.0584669
1979.08	0.617486
1980.56	-0.136325
1982.03	0.266603
1983.51	0.277983
1984.99	0.424788
1986.46	-0.124253
1987.94	0.174891
1989.41	-0.169622
1990.89	-0.411467
1992.36	0.0243912
1993.84	0.0719566
1995.31	-0.133198
1996.78	0.287292
1998.26	0.302158
1999.73	0.130879
2001.2	-0.023984
2002.68	-0.196057
2004.15	0.575951
2005.62	0.471349
2007.09	0.16547
2008.56	0.466931
2010.04	0.0620489
2011.51	0.011322
2012.98	-0.123491
2014.45	0.296671
2015.92	0.211163
2017.39	0.360255
2018.86	0.340285
2020.33	-0.201095
2021.8	0.0136452
2023.27	0.362768
2024.74	0.410365
2026.2	0.375263
2027.67	-0.195074
2029.14	0.0243769
2030.61	0.110981
2032.07	0.181808
2033.54	0.118876
2035.01	0.0726843
2036.47	0.479662
2037.94	0.0629816
2039.41	0.284368
2040.87	0.135969
2042.34	0.122389
2043.8	0.0758972
2045.27	0.0639114
2046.73	0.490396
2048.2	0.243855
2049.66	0.300101
2051.12	0.321686
2052.59	0.00444221
2054.05	-0.24718
2055.51	0.477606
2056.98	0.155495
2058.44	0.422587
2059.9	0.402951
2061.36	0.41742
2062.82	0.348538
2064.29	0.314373
2065.75	0.685118
2067.21	0.333083
2068.67	0.604348
2070.13	0.202681
2071.59	0.423886
2073.05	0.459801
2074.51	0.512294
2075.97	0.412903
2077.43	0.633105
2078.88	0.516103
2080.34	0.634389
2081.8	0.465865
2083.26	0.448224
2084.72	0.0259819
2086.17	0.578955
2087.63	0.441472
2089.09	0.0347996
2090.54	0.820941
2092	0.414217
2093.46	0.444104
2094.91	0.121531
2096.37	0.68714
2097.82	0.229671
2099.28	0.542098
2100.73	0.218255
2102.19	0.563526
2103.64	0.775553
2105.09	0.504663
2106.55	0.785981
2108	0.951477
2109.46	1.00054
2110.91	0.78231
2112.36	0.646194
2113.81	0.908148
2115.27	0.801985
2116.72	1.04417
2118.17	0.920842
2119.62	0.334343
2121.07	0.762433
2122.52	0.860484
2123.97	0.9766
2125.42	0.612537
2126.87	0.845158
2128.32	0.579406
2129.77	0.660409
2131.22	1.18721
2132.67	1.14981
2134.12	1.19512
2135.57	1.17509
2137.01	0.941747
2138.46	1.3219
2139.91	1.35699
2141.36	1.65834
2142.8	0.803642
2144.25	1.35514
2145.7	1.65901
2147.14	1.71446
2148.59	1.05708
2150.03	1.42556
2151.48	1.57772
2152.92	1.76199
2154.37	0.951243
2155.81	1.76369
2157.26	1.83063
2158.7	1.86522
2160.15	1.63621
2161.59	1.90613
2163.03	1.28304
2164.48	1.70603
2165.92	1.73208
2167.36	1.94084
2168.8	1.74975
2170.25	1.53992
2171.69	1.92659
2173.13	1.77885
2174.57	2.26169
2176.01	2.44436
2177.45	1.91222
2178.89	1.76345
2180.33	1.54926
2181.77	1.61867
2183.21	1.52243
2184.65	1.7924
2186.09	1.74647
2187.53	1.70056
2188.97	1.55483
2190.41	1.59214
2191.84	0.746815
2193.28	1.4157
2194.72	1.93339
2196.16	1.55009
2197.59	1.0651
2199.03	1.26059
2200.47	1.4381
2201.9	1.24993
2203.34	1.02953
2204.78	1.55669
2206.21	1.45464
2207.65	1.32013
2209.08	1.51675
2210.51	1.06687
2211.95	1.07961
2213.38	0.926266
2214.82	1.20245
2216.25	1.2313
2217.68	0.865359
2219.12	0.814364
2220.55	1.04455
2221.98	1.04402
2223.42	0.663855
2224.85	0.743717
2226.28	0.887583
2227.71	1.16104
2229.14	1.00561
2230.57	0.62003
2232	0.530043
2233.43	0.653337
2234.86	0.80982
2236.29	0.950879
2237.72	0.636245
2239.15	0.536031
2240.58	0.878318
2242.01	0.830898
2243.44	0.246535
2244.87	0.787973
2246.3	0.366429
2247.73	0.449001
2249.15	0.562019
2250.58	0.640121
2252.01	0.390784
2253.43	0.498825
2254.86	0.509474
2256.29	0.294243
2257.71	0.260065
2259.14	-0.112019
2260.56	0.427273
2261.99	-0.0858059
2263.41	-0.354263
2264.84	0.254818
2266.26	0.311446
2267.69	0.334825
2269.11	0.243402
2270.54	0.606974
2271.96	0.123517
2273.38	0.209698
2274.81	0.133101
2276.23	0.154435
2277.65	0.893082
2279.07	0.246485
2280.49	-0.0906782
2281.92	0.273243
2283.34	0.474115
2284.76	0.446676
2286.18	0.027688
2287.6	0.441537
2289.02	0.0394163
2290.44	0.536096
2291.86	-0.0617809
2293.28	0.010479
2294.7	0.148232
2296.12	0.0241327
2297.54	0.0636377
2298.96	0.267054
2300.38	0.208597
2301.79	0.101174
2303.21	0.0267353
2304.63	0.0836945
2306.05	-0.122117
2307.46	0.427383
2308.88	0.286458
2310.3	0.111962
2311.71	0.315295
2313.13	0.452905
2314.55	0.327648
2315.96	0.384149
2317.38	0.490905
2318.79	0.0212746
2320.21	0.441566
2321.62	0.0856676
2323.03	0.00833225
2324.45	0.374383
2325.86	0.309141
2327.27	-0.00504017
2328.69	1.18011
2330.1	0.684048
2331.51	0.386951
2332.93	0.0911999
2334.34	-0.0060997
2335.75	-0.103108
2337.16	-0.118242
2338.57	0.260303
2339.99	-0.0527306
2341.4	-0.152818
2342.81	-0.072731
2344.22	0.318812
2345.63	0.382329
2347.04	-0.209105
2348.45	0.411536
2349.86	0.39305
2351.26	0.0142107
2352.67	0.386344
2354.08	0.218419
2355.49	0.425061
2356.9	-0.362283
2358.31	-0.107018
2359.71	-0.17713
2361.12	-0.246991
2362.53	-0.187
2363.94	-0.17582
2365.34	0.466246
2366.75	-0.3797
2368.15	0.375017
2369.56	-0.0321016
2370.97	0.207462
2372.37	0.190248
2373.78	0.141829
2375.18	-0.0188341
2376.59	0.190351
2377.99	0.173181
2379.39	0.363433
2380.8	0.326999
2382.2	-0.239907
2383.61	0.298739
2385.01	0.531924
2386.41	0.3096
2387.81	0.0248251
2389.22	0.00484562
2390.62	0.17727
2392.02	-0.127037
2393.42	-0.254997
2394.82	-0.207109
2396.22	0.222944
2397.63	0.462603
2399.02	0.257812
2400.43	-0.375324
2401.82	0.2945
2403.23	0.471855
2404.62	0.140688
2406.02	0.062849
2407.42	0.158724
2408.82	0.0317268
2410.22	0.491033
2411.62	0.569844
2413.02	-0.0157413
2414.41	0.112721
2415.81	0.0842285
2417.21	0.405297
2418.61	0.283996
2420	0.226353
2421.4	-0.132372
2422.79	0.173841
2424.19	0.289744
2425.59	0.183876
2426.98	-0.111728
2428.38	-0.121299
2429.77	0.0127296
2431.17	0.163397
2432.56	0.0921192
2433.96	-0.0273571
2435.35	0.662248
2436.74	0.127254
2438.14	0.496361
2439.53	0.00632191
2440.92	0.0555849
2442.32	-0.371927
2443.71	0.739819
2445.1	0.0740118
2446.49	-0.337705
2447.88	0.455219
2449.28	0.201962
2450.67	0.693313
2452.06	-0.144708
2453.45	0.205259
2454.84	-0.140209
2456.23	0.211091
2457.62	0.341193
2459.01	0.328783
2460.4	-0.269307
2461.79	-0.188036
2463.18	0.192768
2464.57	0.177759
2465.96	0.209846
2467.34	0.447021
2468.73	0.273694
2470.12	0.0214825
2471.51	0.368078
2472.89	0.382809
2474.28	0.113412
2475.67	-0.124745
2477.05	-0.0013752
2478.44	0.168858
2479.83	0.213431
2481.21	0.289459
2482.6	0.365305
2483.98	0.252728
2485.37	-0.28276
2486.75	0.212929
2488.14	0.285134
2489.52	0.153843
2490.9	0.00717735
2492.29	0.0168066
2493.67	0.229255
2495.06	0.0236998
2496.44	0.176181
2497.82	0.0659342
2499.2	-0.260599
2500.59	-0.385895
2501.97	0.106511
2503.35	-0.159443
2504.73	0.145022
2506.11	0.201723
2507.49	-0.219054
2508.88	-0.11608
2510.26	-0.120448
2511.63	0.504812
2513.01	0.0259991
2514.39	0.25335
2515.77	0.312829
2517.15	0.112927
2518.53	-0.193256
2519.91	-0.0252552
2521.29	-0.438034
2522.67	0.171735
2524.05	0.520609
2525.42	0.517721
2526.8	-0.140224
2528.18	0.344431
2529.56	-0.128541
2530.93	-0.0828042
2532.31	0.116379
2533.69	-0.184607
2535.06	0.016448
2536.44	0.749192
2537.81	0.281109
2539.19	0.541259
2540.56	0.147593
2541.94	-0.397937
2543.31	0.164718
2544.69	0.0149002
2546.06	0.0937681
2547.44	0.0220795
2548.81	0.118033
2550.18	0.259625
2551.56	0.0972829
2552.93	0.298295
2554.3	-0.0783401
2555.68	0.0753198
2557.05	0.0312014
2558.42	0.244751
2559.79	0.185553
2561.16	0.566411
2562.53	0.15973
2563.9	0.011271
2565.28	0.787606
2566.64	0.306386
2568.02	0.128315
2569.38	0.253343
2570.76	0.302596
2572.12	0.39735
2573.49	0.249656
2574.86	0.0716915
2576.23	-0.0456276
2577.6	-0.0114255
2578.97	0.0225754
2580.34	0.268528
2581.7	0.104693
2583.07	0.516651
2584.44	0.230942
2585.81	-0.00929499
2587.17	0.0385938
2588.54	0.147259
2589.91	0.0589976
2591.27	0.228235
2592.64	0.33639
2594	0.307405
2595.37	0.110881
2596.73	-0.146995
2598.1	0.230037
2599.46	0.500435
2600.83	0.120863
2602.19	0.074409
2603.55	0.0889893
2604.92	0.134247
2606.28	-0.00136518
2607.64	0.058846
2609.01	-0.379128
2610.37	0.191483
2611.73	0.293494
2613.09	0.048378
2614.46	-0.00171995
2615.82	-0.142001
2617.18	0.197892
2618.54	-0.465747
2619.9	0.0695467
2621.26	0.275702
2622.62	0.198143
2623.98	0.494211
2625.34	0.133235
2626.7	0.100577
2628.06	-0.170774
2629.42	0.436494
2630.78	0.224316
2632.14	0.502937
2633.5	0.52853
2634.86	0.405623
2636.22	0.282874
2637.57	-0.00270176
2638.93	0.111984
2640.29	-0.0100951
2641.64	0.223039
2643	0.54472
2644.36	0.674188
2645.72	0.228037
2647.07	0.224398
2648.43	0.308484
2649.78	0.215053
2651.14	0.253451
2652.49	0.276776
2653.85	0.432279
2655.2	-0.056757
2656.56	0.290838
2657.91	0.214549
2659.27	0.431754
2660.62	0.0934982
2661.97	0.456924
2663.33	0.0890832
2664.68	0.319387
2666.03	0.140247
2667.38	0.223248
2668.74	0.116713
2670.09	0.345229
2671.44	0.210393
2672.79	0.250677
2674.14	0.276962
2675.49	0.31826
2676.84	0.214959
2678.2	0.503929
2679.55	0.271518
2680.89	0.301116
2682.24	0.0418491
2683.59	0.247627
2684.94	0.454382
2686.29	0.139349
2687.64	0.448088
2688.99	0.0445023
2690.34	0.176448
2691.69	0.408262
2693.04	-0.043416
2694.38	0.0844493
2695.73	-0.0488791
2697.08	0.354425
2698.43	-0.0523415
2699.77	-0.0520234
2701.12	0.442188
2702.46	0.21376
2703.81	0.348405
2705.16	0.353169
2706.5	0.0243812
2707.85	0.377051
2709.19	0.236052
2710.54	0.283364
2711.88	0.461183
2713.23	0.275679
2714.57	0.235347
2715.92	0.413013
2717.26	0.430649
2718.6	-0.192063
2719.95	0.0722046
2721.29	0.467126
2722.63	0.221264
2723.97	0.440687
2725.32	0.0483594
2726.66	0.136003
2728	-0.0677466
2729.34	0.397714
2730.68	0.397301
2732.02	0.353195
2733.36	0.17824
2734.7	-0.112898
2736.04	0.541574
2737.39	0.381631
2738.72	0.527074
2740.06	0.294161
2741.4	0.220784
2742.74	0.408489
2744.08	0.043179
2745.42	-0.0173931
2746.76	-0.13641
2748.1	-0.182932
2749.44	-0.127833
2750.77	0.0869164
2752.11	-0.205708
2753.45	-0.00517654
2754.78	-0.123374
2756.12	0.0337958
2757.46	0.408201
2758.79	0.102261
2760.13	0.028368
2761.47	0.0706954
2762.8	0.142372
2764.14	-0.046123
2765.47	0.0258121
2766.81	0.0973186
2768.14	0.370449
2769.48	0.179519
2770.81	0.204172
2772.14	0.343041
2773.48	-0.0243297
2774.81	0.199493
2776.14	-0.0812678
2777.48	-0.202931
2778.81	0.0643401
2780.14	-0.0132017
2781.47	0.168136
2782.81	-0.282147
2784.14	0.272013
2785.47	0.38111
2786.8	0.361318
2788.13	0.155924
2789.46	0.10884
2790.79	0.177031
2792.12	0.0743146
2793.46	0.358031
2794.79	-0.23015
2796.11	-0.146803
2797.44	-0.0640011
2798.77	-0.0388846
2800.1	0.142802
2801.43	-0.146687
2802.76	0.148501
2804.09	-0.0841341
2805.42	0.0533881
2806.74	0.0620794
2808.07	-0.0720615
2809.4	0.0352001
2810.73	0.255918
2812.05	-0.232691
2813.38	0.0320058
2814.71	-0.0566778
2816.03	0.408799
2817.36	0.407484
2818.68	0.449252
2820.01	0.0233035
2821.33	-0.147918
2822.66	0.204619
2823.98	-0.378639
2825.31	0.87944
2826.63	-0.0721831
2827.96	0.0672503
2829.28	-0.274182
2830.61	0.432389
2831.93	0.105749
2833.25	0.302811
2834.57	0.358017
2835.9	0.228781
2837.22	0.636765
2838.54	0.662212
2839.86	0.814721
2841.18	0.627933
2842.51	0.978747
2843.83	1.24526
2845.15	0.975411
2846.47	1.17254
2847.79	1.96362
2849.11	2.14705
2850.43	1.70829
2851.75	1.9192
2853.07	1.52186
2854.39	2.14165
2855.71	1.96987
2857.03	1.81225
2858.35	1.44286
2859.67	2.25985
2860.98	1.9327
2862.3	1.81711
2863.62	1.77179
2864.94	2.27654
2866.25	2.21675
2867.57	2.25595
2868.89	2.39428
2870.21	2.3638
2871.52	2.16435
2872.84	2.30295
2874.15	2.56761
2875.47	2.66208
2876.78	2.33304
2878.1	2.4257
2879.42	2.27891
2880.73	2.27313
2882.04	2.57722
2883.36	2.91016
2884.67	2.30314
2885.99	3.19903
2887.3	3.09816
2888.61	2.89868
2889.93	3.04926
2891.24	2.89042
2892.55	3.27773
2893.87	2.824
2895.18	2.6371
2896.49	2.94102
2897.8	2.5601
2899.11	3.10373
2900.42	2.43092
2901.74	2.86377
2903.05	3.10096
2904.36	3.1005
2905.67	3.64581
2906.98	3.50632
2908.29	3.45155
2909.6	3.83134
2910.91	3.40018
2912.22	3.8927
2913.53	3.72669
2914.83	3.92336
2916.14	3.90839
2917.45	4.11587
2918.76	4.19635
2920.07	4.98993
2921.37	5.0147
2922.68	4.98484
2923.99	4.99837
2925.3	4.91525
2926.6	5.0145
2927.91	5.51927
2929.22	5.07307
2930.52	5.53503
2931.83	5.12979
2933.13	5.87057
2934.44	5.11571
2935.74	5.9823
2937.05	5.63317
2938.35	5.452
2939.66	5.59255
2940.96	5.25857
2942.27	4.95342
2943.57	4.88706
2944.87	4.83604
2946.18	4.47854
2947.48	4.38724
2948.78	4.42166
2950.09	4.31502
2951.39	4.10861
2952.69	4.23644
2953.99	3.80286
2955.29	3.35509
2956.6	3.87405
2957.9	3.8071
2959.2	3.50477
2960.5	3.79326
2961.8	3.1309
2963.1	3.33818
2964.4	2.91354
2965.7	2.66973
2967	2.41018
2968.3	2.38829
2969.6	2.45014
2970.9	2.38536
2972.2	2.2646
2973.49	2.5804
2974.79	2.27706
2976.09	2.09978
2977.39	2.4987
2978.69	1.85417
2979.98	2.29224
2981.28	1.9268
2982.58	1.58933
2983.88	1.7305
2985.17	1.66179
2986.47	1.69291
2987.76	1.52871
2989.06	1.43575
2990.36	1.76473
2991.65	1.2782
2992.95	1.64809
2994.24	1.66548
2995.54	1.5133
2996.83	0.841121
2998.12	1.01141
2999.42	0.817142
3000.71	0.721735
3002	0.851263
3003.3	0.742968
3004.59	0.354749
3005.88	1.14295
3007.18	0.236293
3008.47	0.505077
3009.76	0.367353
3011.05	0.354985
3012.35	0.216684
3013.64	0.455342
3014.93	0.234082
3016.22	0.139223
3017.51	0.198387
3018.8	0.522429
3020.09	0.137027
3021.38	-0.0814271
3022.67	0.0747762
3023.96	0.0912108
3025.25	0.204087
3026.54	-0.0711637
3027.83	-0.179322
3029.12	0.00410938
3030.41	-0.101451
3031.69	-0.0950165
3032.98	0.188565
3034.27	-0.217675
3035.56	0.258947
3036.85	0.0171094
3038.13	-0.170732
3039.42	0.135703
3040.71	-0.192088
3041.99	0.00188112
3043.28	0.250206
3044.57	0.307129
3045.85	0.201473
3047.14	0.303032
3048.42	0.256553
3049.71	0.239475
3050.99	0.278562
3052.28	-0.0635157
3053.56	-0.296245
3054.85	0.0163774
3056.13	0.150816
3057.42	0.270691
3058.7	0.280874
3059.98	0.318187
3061.27	0.260666
3062.55	0.517036
3063.83	0.380318
3065.11	-0.284971
3066.4	0.301876
3067.68	0.0604529
3068.96	0.51302
3070.24	-0.0543981
3071.52	0.0575724
3072.8	0.331828
3074.09	0.102016
3075.37	-0.128255
3076.65	0.361362
3077.93	0.0637369
3079.21	0.283056
3080.49	-0.0524192
3081.77	-0.209973
3083.05	-0.325627
3084.32	0.183616
3085.61	-0.148118
3086.88	0.18492
3088.16	0.2461
3089.44	0.143991
3090.72	0.0552707
3092	0.0480475
3093.27	0.0411568
3094.55	0.23814
3095.83	0.381254
3097.11	0.538151
3098.38	0.3292
3099.66	0.296577
3100.94	0.656942
3102.21	0.150661
3103.49	0.525115
3104.76	0.466915
3106.04	0.477271
3107.31	0.475109
3108.59	0.25754
3109.86	0.501267
3111.14	0.488927
3112.41	0.328474
3113.69	0.547855
3114.96	0.767658
3116.23	0.553478
3117.51	0.813376
3118.78	0.719927
3120.05	0.761352
3121.33	0.639477
3122.6	0.896873
3123.87	0.58516
3125.14	0.504349
3126.42	0.857341
3127.69	0.872587
3128.96	1.26724
3130.23	0.905048
3131.5	0.840837
3132.77	1.29028
3134.04	0.847871
3135.31	0.905158
3136.58	1.23203
3137.85	1.2482
3139.12	1.37204
3140.39	1.07859
3141.66	1.01462
3142.93	1.2738
3144.2	1.13049
3145.47	1.22975
3146.74	1.3298
3148	1.64491
3149.27	1.35804
