200.388	1.23652
202.204	1.2389
204.019	1.24352
205.832	1.83366
207.646	1.23293
209.459	1.58023
211.274	1.41608
213.087	0.935164
214.899	0.647822
216.711	0.384716
218.524	0.7037
220.335	0.902393
222.146	1.29599
223.956	0.917143
225.766	1.04734
227.576	0.670634
229.388	0.70463
231.197	1.17263
233.005	0.651
234.813	0.51644
236.621	0.432156
238.429	0.784832
240.236	0.273475
242.045	0.633335
243.852	0.271983
245.658	0.827744
247.464	0.247531
249.269	0.219213
251.074	0.380219
252.879	-0.06567
254.683	-0.682119
256.487	-0.0204411
258.291	0.521354
260.094	0.583374
261.897	0.214647
263.702	0.739839
265.504	0.616343
267.306	0.951492
269.108	0.394746
270.909	0.439697
272.71	0.531576
274.511	0.621784
276.311	-0.157821
278.111	0.699422
279.91	0.565895
281.709	-0.436563
283.508	0.00321293
285.306	0.536569
287.105	0.707916
288.9	0.0638103
290.698	-0.88934
292.495	-0.522602
294.291	-0.249916
296.088	0.502745
297.884	0.587256
299.679	0.290346
301.475	0.232443
303.27	-0.112867
305.064	0.113414
306.858	1.05387
308.652	0.586618
310.444	-0.046073
312.237	0.323807
314.03	1.05301
315.822	0.451392
317.615	0.924005
319.406	0.184219
321.198	0.827962
322.987	1.23512
324.778	0.641403
326.568	1.7425
328.358	1.62634
330.148	1.17454
331.935	1.79697
333.724	0.431726
335.513	0.738078
337.301	1.16102
339.089	0.552207
340.875	0.467764
342.662	0.477933
344.449	0.726995
346.236	0.427259
348.02	0.5108
349.806	-0.0971985
351.592	0.703416
353.375	1.12121
355.16	0.559365
356.944	0.282328
358.728	0.170633
360.51	0.200441
362.294	1.10949
364.077	0.708311
365.858	0.235569
367.64	-0.0711918
369.422	0.759708
371.202	0.521819
372.983	0.851356
374.764	1.06147
376.543	2.14464
378.324	2.21229
380.102	2.09279
381.881	2.61088
383.661	2.87154
385.438	3.36914
387.216	3.56289
388.993	3.66452
390.771	3.29813
392.548	2.65149
394.324	2.78094
396.101	2.58231
397.875	2.14903
399.651	1.80947
401.425	2.03299
403.201	1.66842
404.974	2.1483
406.749	0.630954
408.524	1.83672
410.296	0.858522
412.07	-0.213098
413.841	-0.204432
415.614	0.0867243
417.385	0.378948
419.156	0.0619736
420.928	0.684133
422.698	0.085515
424.469	1.2231
426.238	0.0588055
428.009	0.489749
429.777	0.591313
431.548	0.0825682
433.315	0.841629
435.083	0.216452
436.852	0.224948
438.618	-0.236836
440.387	-0.418793
442.153	0.757237
443.919	0.569443
445.686	0.191863
447.451	0.234497
449.218	-0.869491
450.982	0.364937
452.746	-0.0831175
454.512	0.192945
456.275	0.235476
458.038	-0.257915
459.803	0.157063
461.565	0.24672
463.327	0.0129099
465.091	0.0147724
466.852	-0.119001
468.613	-0.0168161
470.374	0.157789
472.136	-0.131881
473.896	0.368776
475.655	0.261948
477.415	0.431619
479.176	0.645284
480.934	0.251837
482.692	0.836754
484.45	0.771072
486.21	1.08081
487.967	0.158543
489.724	0.474129
491.481	0.511525
493.237	1.18075
494.995	1.19672
496.75	1.04872
498.506	1.11089
500.26	1.24287
502.015	2.07822
503.771	1.76265
505.525	0.739816
507.279	1.73616
509.032	1.53135
510.785	2.14756
512.537	2.33793
514.289	2.12592
516.041	3.0175
517.793	3.24815
519.546	3.1008
521.297	2.92882
523.047	2.56832
524.797	2.81809
526.547	1.68344
528.297	3.12916
530.046	1.78446
531.795	1.68196
533.543	1.74223
535.291	1.54335
537.039	1.20248
538.787	1.25707
540.534	1.00659
542.281	1.43097
544.027	0.969639
545.773	0.95082
547.519	0.792998
549.264	1.35452
551.01	0.641442
552.754	0.624108
554.499	0.306649
556.243	0.867344
557.987	0.320505
559.73	0.604768
561.474	0.474917
563.216	-0.0909948
564.959	-0.149635
566.701	0.0452938
568.441	0.332868
570.182	-0.135749
571.923	0.246581
573.664	-0.263663
575.405	0.0542669
577.145	-0.0155516
578.885	-0.496856
580.624	0.193735
582.361	0.195808
584.1	-0.00973511
585.839	0.128148
587.577	-0.448718
589.315	0.67509
591.052	0.394243
592.787	1.21697
594.524	0.704969
596.26	0.446082
597.997	0.693287
599.732	-0.0492859
601.466	0.978414
603.201	1.35998
604.936	1.09543
606.67	0.576406
608.403	1.02126
610.136	0.616099
611.87	1.31304
613.603	-0.397006
615.334	0.50803
617.067	0.221278
618.799	0.575307
620.529	0.58417
622.26	0.362476
623.991	0.39127
625.72	0.694067
627.451	0.495571
629.181	0.779176
630.909	0.769316
632.638	1.08184
634.368	1.35041
636.095	0.751248
637.823	0.126801
639.551	0.34327
641.277	1.1941
643.005	0.376436
644.73	0.264179
646.457	-0.188839
648.184	0.452355
649.908	0.642642
651.634	-0.0934439
653.357	0.902939
655.083	-0.142033
656.806	0.430937
658.53	0.14033
660.253	0.0995998
661.977	-0.0117779
663.7	0.353502
665.422	0.212872
667.145	-0.0448618
668.865	-0.0293589
670.588	-0.150361
672.308	0.55496
674.027	-0.0867119
675.749	-0.405602
677.468	0.354922
679.188	-0.306679
680.907	0.431478
682.627	0.13318
684.345	0.430092
686.064	0.65539
687.781	-0.0887928
689.498	-0.350965
691.216	-0.130435
692.932	0.596021
694.65	-0.452163
696.366	0.363938
698.081	0.303205
699.797	0.102694
701.512	0.26878
703.228	0.111545
704.942	0.229156
706.655	0.506504
708.371	1.21851
710.083	0.462347
711.796	0.737144
713.51	0.324762
715.222	0.941213
716.934	-0.0874805
718.645	-0.0192671
720.358	0.504837
722.068	-0.543036
723.779	0.299438
725.49	-0.0646086
727.2	0.798146
728.909	0.45603
730.618	0.635347
732.329	0.881677
734.037	0.561585
735.745	0.242167
737.453	0.578669
739.16	0.825181
740.869	0.802051
742.576	0.690516
744.282	0.738556
745.988	1.10353
747.694	1.04275
749.401	1.07383
751.107	0.499444
752.811	1.07395
754.516	1.53804
756.22	1.64442
757.924	1.84318
759.627	2.44983
761.332	2.33759
763.035	2.47423
764.738	3.9655
766.44	3.58175
768.142	4.48315
769.843	4.6354
771.544	5.4626
773.245	5.72194
774.946	5.52809
776.646	6.46564
778.346	6.00363
780.046	5.1824
781.745	4.86047
783.444	3.99555
785.143	2.83415
786.841	3.163
788.539	2.92116
790.237	2.94589
791.934	2.42392
793.631	2.75839
795.328	1.85098
797.024	1.30709
798.72	1.68972
800.416	1.87183
802.112	1.78587
803.807	1.76848
805.502	0.829241
807.196	1.23794
808.89	1.2853
810.584	1.28607
812.278	1.39765
813.971	1.06011
815.664	1.26004
817.354	1.1017
819.047	1.05544
820.739	0.741491
822.43	1.32107
824.122	1.23193
825.813	1.79103
827.503	1.2834
829.192	1.64839
830.882	0.681317
832.571	0.809341
834.261	1.47537
835.95	1.2738
837.637	0.87096
839.325	0.912754
841.013	0.930129
842.701	1.1691
844.389	0.491241
846.074	0.998551
847.761	0.166934
849.447	0.926155
851.131	0.637483
852.817	0.463019
854.503	0.379286
856.188	0.205399
857.871	0.119715
859.556	0.301784
861.24	0.999615
862.922	0.456987
864.606	0.948817
866.289	0.425249
867.97	0.734849
869.653	0.931192
871.336	0.337667
873.016	0.713812
874.698	0.774062
876.379	0.337883
878.058	1.16555
879.739	0.819527
881.418	0.427814
883.098	0.757531
884.778	-0.0655022
886.456	0.892881
888.135	-0.159429
889.812	0.523503
891.49	0.0542469
893.167	0.372099
894.845	0.665323
896.523	0.32709
898.198	0.257683
899.875	0.276851
901.55	-0.0859756
903.226	0.379267
904.901	0.150267
906.576	0.435497
908.25	-0.19318
909.925	0.873233
911.598	-0.0635576
913.271	0.513805
914.945	0.402231
916.617	-0.152682
918.291	-0.0639229
919.962	0.844095
921.635	0.401736
923.306	1.02271
924.978	0.0103827
926.648	0.238172
928.318	0.313603
929.989	0.501067
931.659	0.777734
933.328	-0.00414085
934.998	1.13343
936.666	-0.0444145
938.336	0.543395
940.004	0.537421
941.671	0.466995
943.34	0.287286
945.007	0.217742
946.673	0.12464
948.339	0.60301
950.007	-0.00278187
951.672	0.603477
953.337	0.216883
955.004	0.935075
956.669	0.201667
958.333	0.0459709
959.997	-0.0839186
961.662	0.18583
963.326	-0.11876
964.989	0.281846
966.651	0.657076
968.315	-0.0999222
969.977	-0.0190868
971.639	-0.0279989
973.301	-0.235379
974.962	0.0235949
976.624	-0.0466623
978.285	-0.490896
979.945	-0.20416
981.605	0.0823107
983.264	0.699203
984.924	0.472239
986.583	0.508007
988.243	0.253575
989.901	0.0639553
991.56	0.35983
993.217	0.98643
994.875	0.795678
996.532	1.17896
998.188	1.27516
999.845	1.70147
1001.5	2.61118
1003.16	2.88081
1004.81	2.84165
1006.47	4.23075
1008.12	4.41027
1009.78	3.75621
1011.43	3.47662
1013.09	3.24202
1014.74	3.03029
1016.39	3.23543
1018.05	2.21591
1019.7	2.94832
1021.35	2.71991
1023	1.88144
1024.65	2.46541
1026.31	2.89727
1027.96	3.35098
1029.61	3.89096
1031.26	2.878
1032.91	3.89339
1034.56	4.35943
1036.21	4.32092
1037.86	3.27884
1039.51	3.02187
1041.16	2.22257
1042.8	2.36119
1044.45	2.3938
1046.1	2.01687
1047.75	2.55527
1049.39	1.70642
1051.04	1.66312
1052.69	1.44733
1054.33	1.21035
1055.98	0.90812
1057.62	0.974942
1059.27	1.12807
1060.91	0.584496
1062.56	1.10525
1064.2	0.972338
1065.85	0.120528
1067.49	1.13666
1069.13	0.47783
1070.77	0.687217
1072.42	0.375253
1074.06	1.23593
1075.7	1.03469
1077.34	1.39942
1078.98	1.22388
1080.62	1.26644
1082.27	2.48002
1083.91	2.91156
1085.55	2.64667
1087.18	2.53032
1088.82	2.454
1090.46	2.67782
1092.1	3.26677
1093.74	3.48656
1095.38	2.58428
1097.02	2.46101
1098.65	2.96485
1100.29	1.77027
1101.93	2.2584
1103.56	1.26474
1105.2	0.897357
1106.84	1.28378
1108.47	1.13211
1110.11	0.484425
1111.74	0.372186
1113.38	0.30067
1115.01	0.141563
1116.64	0.646819
1118.28	0.872833
1119.91	1.03528
1121.54	1.64873
1123.18	1.17171
1124.81	0.504088
1126.44	1.16433
1128.07	1.5047
1129.7	1.71781
1131.33	0.798713
1132.97	0.0940514
1134.6	0.736045
1136.23	-0.332792
1137.86	0.0717316
1139.49	0.581118
1141.11	0.255966
1142.74	0.485191
1144.37	0.693028
1146	0.47532
1147.63	0.664125
1149.26	0.044549
1150.88	0.256763
1152.51	0.0643387
1154.14	-0.362621
1155.76	0.508389
1157.39	-0.706382
1159.01	0.270863
1160.64	0.270656
1162.27	0.612284
1163.89	0.445122
1165.51	0.682751
1167.14	-0.0792189
1168.76	0.369268
1170.39	-0.183754
1172.01	-0.186728
1173.63	0.2112
1175.25	0.0975971
1176.88	-0.101403
1178.5	-0.00326252
1180.12	0.455571
1181.74	0.280494
1183.36	-0.0413313
1184.98	0.12334
1186.6	0.687759
1188.22	0.215135
1189.84	-0.0908442
1191.46	0.19064
1193.08	0.258975
1194.7	0.325902
1196.32	0.266848
1197.94	0.146461
1199.55	0.00793743
1201.17	0.1656
1202.79	-0.362166
1204.41	0.283069
1206.02	-0.00790119
1207.64	0.162176
1209.25	0.0615377
1210.87	-0.248686
1212.48	-0.0189619
1214.1	0.207469
1215.71	-0.11097
1217.33	0.317473
1218.94	0.120117
1220.56	-0.305371
1222.17	0.432317
1223.79	-0.342171
1225.4	1.2057
1227.01	1.01564
1228.62	0.66244
1230.23	1.20049
1231.85	1.40932
1233.46	1.12391
1235.07	0.81976
1236.68	1.01346
1238.29	1.02272
1239.9	0.267934
1241.51	1.08505
1243.12	1.13665
1244.73	0.297445
1246.34	1.05001
1247.94	1.5735
1249.55	1.04056
1251.16	1.35547
1252.77	1.02937
1254.37	0.497541
1255.98	0.484382
1257.59	0.88674
1259.2	1.58068
1260.8	0.434151
1262.41	1.00623
1264.01	0.833097
1265.62	0.597133
1267.22	1.2306
1268.83	0.888592
1270.43	0.607201
1272.03	1.31955
1273.64	1.6364
1275.24	0.66654
1276.85	1.41576
1278.45	1.64542
1280.05	1.12855
1281.65	0.922133
1283.25	2.24694
1284.85	1.25536
1286.46	1.77494
1288.06	1.11773
1289.66	1.84672
1291.26	1.62585
1292.86	1.63223
1294.46	1.45163
1296.06	1.12471
1297.66	1.60081
1299.25	1.6407
1300.85	2.48231
1302.45	1.59033
1304.05	1.25415
1305.65	1.67827
1307.24	1.93647
1308.84	1.20889
1310.43	1.07722
1312.03	1.70384
1313.63	1.57358
1315.22	1.50635
1316.82	1.2365
1318.41	1.31478
1320.01	1.35206
1321.6	1.81581
1323.2	1.32001
1324.79	1.43255
1326.38	0.872814
1327.98	1.91535
1329.57	1.45758
1331.16	0.356013
1332.76	1.98757
1334.35	1.13634
1335.94	1.35815
1337.53	1.56045
1339.12	0.915063
1340.71	1.59762
1342.3	0.907555
1343.89	1.24122
1345.48	1.17093
1347.07	0.800076
1348.66	0.933191
1350.25	1.40978
1351.84	0.389354
1353.43	1.13227
1355.01	1.01715
1356.6	0.463106
1358.19	0.847709
1359.77	0.971146
1361.36	0.893358
1362.95	0.395532
1364.53	0.755024
1366.12	0.994866
1367.71	0.916947
1369.29	0.641763
1370.88	0.508057
1372.46	0.674833
1374.04	0.266153
1375.63	0.733954
1377.21	0.883595
1378.8	0.515206
1380.38	0.523519
1381.96	1.12681
1383.54	0.216554
1385.13	1.51198
1386.71	0.898235
1388.29	0.463988
1389.87	0.765472
1391.45	0.512403
1393.03	0.855751
1394.61	0.326859
1396.19	0.809262
1397.77	1.07239
1399.35	0.838527
1400.93	0.860974
1402.51	0.447055
1404.09	0.389628
1405.67	1.10413
1407.24	0.396108
1408.82	1.2705
1410.4	1.07849
1411.98	0.847075
1413.55	0.970327
1415.13	1.05273
1416.71	0.83802
1418.28	1.21424
1419.86	1.2359
1421.43	1.41657
1423.01	1.36317
1424.58	1.66649
1426.16	1.1844
1427.73	1.41171
1429.31	2.17012
1430.88	1.96276
1432.45	2.5802
1434.02	2.3499
1435.6	2.21734
1437.17	3.04851
1438.74	3.17276
1440.31	3.08237
1441.88	2.40395
1443.45	2.96479
1445.03	2.42566
1446.6	3.10539
1448.17	3.05813
1449.74	2.63778
1451.3	2.27698
1452.87	2.5462
1454.44	2.59975
1456.01	2.98779
1457.58	2.46979
1459.15	2.1269
1460.72	1.80117
1462.28	1.64989
1463.85	1.75199
1465.42	1.4789
1466.98	1.24484
1468.55	1.62013
1470.12	0.583354
1471.68	0.981021
1473.25	0.948448
1474.81	1.34842
1476.38	0.650891
1477.94	1.26721
1479.51	1.43244
1481.07	0.754687
1482.63	0.978463
1484.2	1.04523
1485.76	0.758876
1487.32	0.726225
1488.88	0.770107
1490.45	0.557048
1492.01	1.41662
1493.57	0.494056
1495.13	0.917138
1496.69	1.14277
1498.25	-0.072608
1499.81	1.04806
1501.37	1.02219
1502.93	1.13382
1504.49	1.07216
1506.05	0.972321
1507.61	0.562397
1509.17	1.5815
1510.73	1.6318
1512.28	0.601422
1513.84	0.631692
1515.4	1.14266
1516.96	0.578051
1518.51	0.859626
1520.07	1.08398
1521.63	0.887206
1523.18	1.30209
1524.74	-0.0797338
1526.29	0.104048
1527.85	0.533638
1529.4	0.523913
1530.96	0.305268
1532.51	0.637795
1534.06	0.951704
1535.62	-0.190153
1537.17	0.580173
1538.72	0.80246
1540.28	0.251723
1541.83	0.625302
1543.38	0.922742
1544.93	0.636464
1546.48	0.143847
1548.03	0.496362
1549.59	0.941808
1551.14	0.543959
1552.69	0.727477
1554.24	1.51001
1555.79	0.612349
1557.34	0.539526
1558.88	1.55161
1560.43	1.03611
1561.98	0.765471
1563.53	0.477717
1565.08	1.53411
1566.62	0.519524
1568.17	1.03479
1569.72	0.821692
1571.27	1.22401
1572.81	0.879252
1574.36	1.4863
1575.9	0.431953
1577.45	1.11395
1579	0.58304
1580.54	1.04243
1582.09	1.33492
1583.63	0.339683
1585.17	1.49389
1586.72	1.56532
1588.26	1.0946
1589.8	0.847737
1591.35	1.76066
1592.89	1.55002
1594.43	2.18167
1595.97	2.13922
1597.52	1.70372
1599.06	2.18754
1600.6	2.05374
1602.14	1.67649
1603.68	2.0124
1605.22	1.33322
1606.76	1.91079
1608.3	1.15139
1609.84	1.59168
1611.38	2.00978
1612.92	1.4857
1614.46	1.41078
1615.99	1.52285
1617.53	1.65409
1619.07	1.28091
1620.61	0.984984
1622.14	0.990639
1623.68	1.20335
1625.22	0.929376
1626.75	1.77742
1628.29	2.11807
1629.82	1.83933
1631.36	2.64335
1632.9	1.3538
1634.43	1.76487
1635.96	1.16904
1637.5	1.7686
1639.03	1.93977
1640.57	1.47725
1642.1	1.83396
1643.63	2.2633
1645.16	2.28102
1646.7	2.66927
1648.23	2.55473
1649.76	2.5894
1651.29	2.16147
1652.82	2.49623
1654.36	1.8682
1655.89	2.50189
1657.42	2.33836
1658.95	2.93326
1660.48	2.34094
1662.01	2.6537
1663.53	2.48367
1665.06	2.14678
1666.59	1.33102
1668.12	1.20026
1669.65	1.27436
1671.18	1.88469
1672.7	1.7225
1674.23	1.81889
1675.76	1.27056
1677.29	1.40247
1678.81	2.12148
1680.34	1.3306
1681.86	1.18268
1683.39	1.40171
1684.91	0.923178
1686.44	1.28929
1687.96	0.922403
1689.49	0.812895
1691.01	1.0517
1692.54	0.61324
1694.06	1.16286
1695.58	0.8707
1697.11	0.870849
1698.63	0.176582
1700.15	0.0300951
1701.67	0.9774
1703.2	0.719757
1704.72	0.625637
1706.24	0.14893
1707.76	0.563441
1709.28	0.214207
1710.8	0.192325
1712.32	-0.0469198
1713.84	0.348557
1715.36	0.490011
1716.88	0.540689
1718.4	-0.0956879
1719.91	0.11761
1721.43	0.222475
1722.95	0.111512
1724.47	0.272203
1725.99	0.434355
1727.5	-0.391941
1729.02	0.493086
1730.54	0.660236
1732.05	0.0639849
1733.57	-0.0339746
1735.09	-0.195298
1736.6	-0.0790892
1738.12	-0.241019
1739.63	0.257811
1741.15	0.0795765
1742.66	0.262179
1744.18	-0.0123625
1745.69	-0.236373
1747.2	-0.223294
1748.72	0.134562
1750.23	-0.0426588
1751.74	0.319631
1753.25	-0.228684
1754.77	0.0306978
1756.28	-0.140652
1757.79	0.319236
1759.3	0.388404
1760.81	0.136874
1762.32	0.112583
1763.83	-0.149945
1765.34	0.167315
1766.85	0.11397
1768.36	0.0750074
1769.87	0.122699
1771.38	-0.0663757
1772.89	0.0220976
1774.4	0.0373793
1775.91	-0.236752
1777.41	-0.356211
1778.92	-0.338766
1780.43	0.165412
1781.94	0.254065
1783.44	-0.0701733
1784.95	-0.0205431
1786.45	0.107111
1787.96	0.0343609
1789.47	-0.089077
1790.97	-0.136037
1792.48	-0.012269
1793.98	0.125794
1795.48	0.352748
1796.99	0.00379467
1798.49	-0.164915
1800	0.0472879
1801.5	0.334291
1803	-0.01754
1804.51	0.42452
1806.01	0.0346889
1807.51	0.433269
1809.01	0.405283
1810.51	0.0218544
1812.02	0.0399923
1813.52	0.463279
1815.02	0.019803
1816.52	0.57254
1818.02	0.0743237
1819.52	-0.0550423
1821.02	0.0599823
1822.52	0.40849
1824.02	0.240038
1825.51	0.474797
1827.01	0.115744
1828.51	0.212616
1830.01	-0.0284815
1831.51	0.111103
1833	-0.17929
1834.5	0.115791
1836	-0.0118914
1837.5	0.416105
1838.99	0.155806
1840.49	0.651051
1841.98	0.246719
1843.48	0.26443
1844.97	0.139347
1846.47	0.106616
1847.96	-0.0954113
1849.46	0.3946
1850.95	-0.13131
1852.45	0.0228138
1853.94	0.169436
1855.43	0.0417681
1856.92	0.0512037
1858.42	0.479443
1859.91	0.266535
1861.4	-0.088273
1862.89	-0.114451
1864.39	0.53246
1865.88	-0.161802
1867.37	0.129498
1868.86	0.057579
1870.35	-0.0474129
1871.84	0.152366
1873.33	-0.115194
1874.82	-0.0161095
1876.31	-0.106848
1877.8	-0.240623
1879.29	0.518364
1880.77	-0.368015
1882.26	0.0608912
1882.51	0.186506
1884	0.238416
1885.5	0.132421
1886.99	0.216968
1888.48	-0.39556
1889.98	-0.276488
1891.47	-0.069376
1892.97	0.695985
1894.46	0.455184
1895.95	0.199022
1897.44	0.274296
1898.93	0.245091
1900.42	0.666875
1901.92	0.0427485
1903.41	0.025239
1904.9	0.579524
1906.39	0.107115
1907.88	-0.000195503
1909.37	-0.210794
1910.86	0.482194
1912.35	0.412684
1913.84	-0.124331
1915.32	-0.140825
1916.81	0.483724
1918.3	0.535285
1919.79	0.15304
1921.28	-0.0385723
1922.76	0.549648
1924.25	0.203856
1925.74	0.673243
1927.22	0.607368
1928.71	0.109481
1930.2	0.373359
1931.68	0.0820713
1933.17	-0.107148
1934.65	0.272696
1936.14	0.217512
1937.62	0.48934
1939.11	0.846566
1940.59	0.357601
1942.08	0.0256348
1943.56	0.126579
1945.04	0.176816
1946.53	0.0723515
1948.01	-0.0668116
1949.49	0.430562
1950.97	0.289115
1952.45	0.353086
1953.94	0.467791
1955.42	0.29009
1956.9	0.181804
1958.38	-0.165764
1959.86	0.431436
1961.34	0.651571
1962.82	0.237596
1964.3	0.0807171
1965.78	0.23157
1967.26	0.193106
1968.74	0.666965
1970.22	0.0967312
1971.69	0.261411
1973.17	0.0843954
1974.65	0.385316
1976.13	0.259933
1977.61	0.679976
1979.08	0.0442591
1980.56	0.259843
1982.03	0.406914
1983.51	0.332553
1984.99	-0.115562
1986.46	0.0302887
1987.94	0.497875
1989.41	0.744993
1990.89	-0.175024
1992.36	-0.16251
1993.84	0.426015
1995.31	0.136366
1996.78	0.202243
1998.26	0.0822601
1999.73	0.907203
2001.2	0.34692
2002.68	0.849084
2004.15	-0.0486641
2005.62	-0.507027
2007.09	0.0801773
2008.56	0.752376
2010.04	0.432115
2011.51	0.66815
2012.98	0.399255
2014.45	0.0120888
2015.92	0.330724
2017.39	0.311613
2018.86	0.241013
2020.33	0.236959
2021.8	0.36706
2023.27	-0.0732527
2024.74	0.14216
2026.2	0.459569
2027.67	0.644549
2029.14	0.16058
2030.61	0.449898
2032.07	0.0358105
2033.54	0.578945
2035.01	0.551472
2036.47	0.338694
2037.94	0.393944
2039.41	0.952894
2040.87	0.049511
2042.34	0.491328
2043.8	0.900732
2045.27	0.790019
2046.73	0.68022
2048.2	0.368567
2049.66	0.15729
2051.12	0.855017
2052.59	0.707872
2054.05	0.457087
2055.51	0.575015
2056.98	0.657354
2058.44	0.637452
2059.9	0.246774
2061.36	0.698787
2062.82	1.10108
2064.29	0.949184
2065.75	0.546249
2067.21	0.699809
2068.67	1.02248
2070.13	0.436656
2071.59	1.01241
2073.05	0.695722
2074.51	1.00166
2075.97	0.599901
2077.43	0.568126
2078.88	0.822099
2080.34	0.890208
2081.8	1.00806
2083.26	0.939808
2084.72	0.567691
2086.17	1.33871
2087.63	0.998507
2089.09	1.12861
2090.54	1.19111
2092	0.951238
2093.46	1.04709
2094.91	1.09218
2096.37	0.650502
2097.82	1.34741
2099.28	1.0383
2100.73	1.13057
2102.19	1.70756
2103.64	0.949002
2105.09	1.66176
2106.55	1.39152
2108	1.43983
2109.46	1.30517
2110.91	1.38656
2112.36	1.73269
2113.81	1.84291
2115.27	1.50141
2116.72	1.00959
2118.17	1.51565
2119.62	1.98954
2121.07	1.85179
2122.52	1.46813
2123.97	1.94895
2125.42	1.71762
2126.87	1.91704
2128.32	1.65086
2129.77	2.27771
2131.22	2.60402
2132.67	2.15079
2134.12	2.32667
2135.57	2.02398
2137.01	2.4013
2138.46	2.33491
2139.91	2.42001
2141.36	2.49101
2142.8	2.74568
2144.25	3.0677
2145.7	3.04265
2147.14	3.1827
2148.59	3.13971
2150.03	3.22791
2151.48	2.28736
2152.92	2.93589
2154.37	2.78789
2155.81	2.954
2157.26	3.69994
2158.7	3.27081
2160.15	3.32406
2161.59	3.39656
2163.03	3.53826
2164.48	3.0023
2165.92	3.72864
2167.36	3.44244
2168.8	3.52001
2170.25	3.32884
2171.69	2.83492
2173.13	3.02009
2174.57	2.75406
2176.01	3.68463
2177.45	3.58427
2178.89	3.11933
2180.33	3.45392
2181.77	3.1248
2183.21	2.94616
2184.65	3.05064
2186.09	2.77264
2187.53	3.45964
2188.97	3.06522
2190.41	2.23783
2191.84	2.64176
2193.28	2.39538
2194.72	2.61329
2196.16	2.84517
2197.59	3.25696
2199.03	2.48516
2200.47	2.36087
2201.9	3.01684
2203.34	2.8101
2204.78	1.69328
2206.21	2.1038
2207.65	2.03428
2209.08	2.49448
2210.51	2.55591
2211.95	2.74813
2213.38	1.91417
2214.82	1.85751
2216.25	2.4125
2217.68	2.02808
2219.12	2.27245
2220.55	1.62766
2221.98	1.70861
2223.42	2.06863
2224.85	2.27817
2226.28	1.44834
2227.71	1.83413
2229.14	1.6754
2230.57	1.30265
2232	1.30731
2233.43	1.09955
2234.86	1.07308
2236.29	1.32596
2237.72	1.51527
2239.15	1.70694
2240.58	1.1183
2242.01	1.21733
2243.44	1.0897
2244.87	1.02781
2246.3	1.04662
2247.73	0.818723
2249.15	1.14242
2250.58	0.94149
2252.01	1.16173
2253.43	0.957627
2254.86	0.591809
2256.29	0.682997
2257.71	0.923151
2259.14	0.517958
2260.56	0.21388
2261.99	0.594425
2263.41	0.782508
2264.84	0.759977
2266.26	0.623158
2267.69	0.859338
2269.11	0.850389
2270.54	0.31947
2271.96	0.569203
2273.38	0.932823
2274.81	0.628829
2276.23	0.862653
2277.65	0.591607
2279.07	0.581342
2280.49	0.91344
2281.92	0.593119
2283.34	0.810914
2284.76	0.653551
2286.18	0.953425
2287.6	0.519208
2289.02	0.444611
2290.44	0.860684
2291.86	0.00240612
2293.28	1.15513
2294.7	0.230926
2296.12	0.287932
2297.54	0.541427
2298.96	0.270967
2300.38	0.36108
2301.79	0.271269
2303.21	0.427822
2304.63	0.863797
2306.05	0.249055
2307.46	0.389104
2308.88	-0.0302925
2310.3	-0.0889702
2311.71	0.394642
2313.13	0.0722599
2314.55	0.128734
2315.96	0.169697
2317.38	0.640032
2318.79	0.699357
2320.21	0.610015
2321.62	-0.107832
2323.03	0.0958138
2324.45	0.626685
2325.86	0.18106
2327.27	0.558191
2328.69	0.554869
2330.1	0.205888
2331.51	0.0888557
2332.93	0.121426
2334.34	0.0563307
2335.75	0.698963
2337.16	0.353942
2338.57	-0.205804
2339.99	0.120879
2341.4	-0.0630522
2342.81	0.0480137
2344.22	0.372083
2345.63	0.384682
2347.04	0.0536747
2348.45	0.607055
2349.86	-0.47659
2351.26	-0.5952
2352.67	0.0855284
2354.08	-0.00303841
2355.49	0.315221
2356.9	-0.0514708
2358.31	0.412081
2359.71	0.208652
2361.12	0.281701
2362.53	-0.456063
2363.94	-0.657928
2365.34	0.434848
2366.75	0.184156
2368.15	0.0961876
2369.56	0.203237
2370.97	-0.171807
2372.37	0.373552
2373.78	0.00177765
2375.18	0.162001
2376.59	0.337723
2377.99	-0.131278
2379.39	0.298262
2380.8	0.387872
2382.2	-0.26213
2383.61	0.177338
2385.01	-0.00840092
2386.41	0.142304
2387.81	0.293789
2389.22	0.318931
2390.62	-0.387209
2392.02	0.087225
2393.42	-0.058218
2394.82	-0.107054
2396.22	0.385558
2397.63	0.0839911
2399.02	-0.327908
2400.43	0.436546
2401.82	-0.291913
2403.23	0.202767
2404.62	0.331626
2406.02	0.11013
2407.42	0.442986
2408.82	0.140157
2410.22	0.3286
2411.62	-0.10076
2413.02	0.500639
2414.41	0.454144
2415.81	0.0296125
2417.21	0.303342
2418.61	0.166617
2420	0.157002
2421.4	0.115581
2422.79	0.121232
2424.19	0.522659
2425.59	0.147779
2426.98	0.391541
2428.38	-0.0610361
2429.77	0.18507
2431.17	0.0831861
2432.56	0.171915
2433.96	0.275965
2435.35	0.331028
2436.74	0.130047
2438.14	-0.215846
2439.53	0.0880632
2440.92	0.184249
2442.32	0.0415735
2443.71	0.358823
2445.1	0.231473
2446.49	-0.0227957
2447.88	-0.0392923
2449.28	0.292692
2450.67	-0.119499
2452.06	0.118212
2453.45	-0.117964
2454.84	-0.0524015
2456.23	-0.160006
2457.62	-0.156473
2459.01	-0.105668
2460.4	0.561197
2461.79	0.388814
2463.18	0.168105
2464.57	0.199614
2465.96	-0.227265
2467.34	-0.748595
2468.73	0.00851727
2470.12	0.0234642
2471.51	0.25852
2472.89	0.0356236
2474.28	0.300078
2475.67	0.0442381
2477.05	-0.195944
2478.44	-0.215937
2479.83	-0.0473976
2481.21	-0.0827494
2482.6	0.32057
2483.98	-0.216611
2485.37	0.153221
2486.75	-0.197751
2488.14	0.0905333
2489.52	-0.105936
2490.9	-0.0530624
2492.29	-0.217325
2493.67	-0.162545
2495.06	-0.121774
2496.44	0.0599518
2497.82	0.134042
2499.2	0.130984
2500.59	-0.150885
2501.97	0.184939
2503.35	-0.206741
2504.73	0.0953836
2506.11	-0.00451088
2507.49	-0.0429258
2508.88	-0.0657339
2510.26	0.0963106
2511.63	0.228137
2513.01	-0.221805
2514.39	0.386883
2515.77	0.215172
2517.15	0.105838
2518.53	0.10433
2519.91	0.332256
2521.29	0.131985
2522.67	-0.0230675
2524.05	0.0498486
2525.42	0.548508
2526.8	-0.00470448
2528.18	-0.0848503
2529.56	-0.604545
2530.93	0.398028
2532.31	-0.345391
2533.69	0.432384
2535.06	0.10191
2536.44	-0.0310812
2537.81	0.0933876
2539.19	0.307772
2540.56	0.247713
2541.94	0.00510311
2543.31	0.294017
2544.69	0.0680742
2546.06	0.147058
2547.44	0.303393
2548.81	-0.130859
2550.18	0.102513
2551.56	0.411254
2552.93	0.202888
2554.3	-0.143311
2555.68	0.480497
2557.05	-0.00393867
2558.42	0.209237
2559.79	0.104269
2561.16	-0.121252
2562.53	-0.391405
2563.9	-0.130445
2565.28	0.600801
2566.64	0.392808
2568.02	-0.118187
2569.38	-0.129081
2570.76	-0.246073
2572.12	0.0916882
2573.49	-0.100954
2574.86	0.328026
2576.23	0.0900383
2577.6	-0.178415
2578.97	0.417128
2580.34	-0.109816
2581.7	-0.121706
2583.07	0.472404
2584.44	0.308111
2585.81	-0.098752
2587.17	0.131187
2588.54	0.331003
2589.91	-0.120719
2591.27	0.0942259
2592.64	0.00552654
2594	0.27945
2595.37	0.521659
2596.73	0.444494
2598.1	-0.042058
2599.46	0.03088
2600.83	0.330496
2602.19	-0.0643034
2603.55	-0.0352468
2604.92	0.296256
2606.28	0.341162
2607.64	0.00866604
2609.01	-0.0683422
2610.37	-0.222026
2611.73	-0.181409
2613.09	0.308838
2614.46	-0.179225
2615.82	0.203718
2617.18	-0.253315
2618.54	0.369547
2619.9	-0.0252781
2621.26	0.388853
2622.62	0.0858192
2623.98	-0.0970621
2625.34	-0.249928
2626.7	0.238335
2628.06	0.218844
2629.42	0.0798826
2630.78	0.565751
2632.14	0.158731
2633.5	0.480146
2634.86	0.058898
2636.22	0.127681
2637.57	0.433418
2638.93	0.309338
2640.29	0.244819
2641.64	0.165926
2643	0.294306
2644.36	0.156983
2645.72	-0.231047
2647.07	0.044385
2648.43	0.0534115
2649.78	-0.041584
2651.14	0.480208
2652.49	0.501214
2653.85	0.0529604
2655.2	0.119476
2656.56	0.0260973
2657.91	0.651433
2659.27	0.209283
2660.62	0.119006
2661.97	0.218629
2663.33	0.0545053
2664.68	0.663195
2666.03	0.336583
2667.38	0.592808
2668.74	0.397081
2670.09	0.289288
2671.44	0.0078249
2672.79	0.366825
2674.14	0.261459
2675.49	0.0988503
2676.84	0.749552
2678.2	0.0517673
2679.55	0.0948849
2680.89	0.298715
2682.24	-0.467402
2683.59	0.0147591
2684.94	0.106654
2686.29	-0.221618
2687.64	0.451222
2688.99	0.455132
2690.34	0.239178
2691.69	0.0500507
2693.04	-0.489
2694.38	0.261857
2695.73	0.0986376
2697.08	0.139099
2698.43	0.253482
2699.77	-0.23828
2701.12	-0.322543
2702.46	-0.289225
2703.81	0.426396
2705.16	0.186445
2706.5	-0.111682
2707.85	-0.366874
2709.19	0.33534
2710.54	0.108205
2711.88	0.301851
2713.23	0.00136471
2714.57	0.136681
2715.92	0.519165
2717.26	0.247197
2718.6	0.0329571
2719.95	-0.0945282
2721.29	0.126671
2722.63	0.187227
2723.97	0.23265
2725.32	0.0300865
2726.66	-0.187491
2728	0.118509
2729.34	0.103999
2730.68	0.249359
2732.02	-0.216413
2733.36	0.379939
2734.7	0.758185
2736.04	0.962086
2737.39	0.278954
2738.72	0.250294
2740.06	0.163161
2741.4	0.0027647
2742.74	0.234142
2744.08	-0.160369
2745.42	-0.13407
2746.76	0.661324
2748.1	0.338117
2749.44	-0.420047
2750.77	-0.10413
2752.11	0.545275
2753.45	-0.124344
2754.78	0.293286
2756.12	0.421132
2757.46	-0.247289
2758.79	0.0258741
2760.13	-0.163776
2761.47	0.197098
2762.8	0.182243
2764.14	0.312461
2765.47	0.399241
2766.81	0.615644
2768.14	0.0786781
2769.48	0.162187
2770.81	-0.233045
2772.14	0.251503
2773.48	0.0846987
2774.81	-0.111335
2776.14	0.585946
2777.48	0.735579
2778.81	0.0659714
2780.14	0.547606
2781.47	0.483274
2782.81	0.404779
2784.14	-0.0322437
2785.47	-0.182081
2786.8	-0.302876
2788.13	0.135318
2789.46	0.244903
2790.79	0.384094
2792.12	0.266794
2793.46	-0.00712967
2794.79	-0.00933838
2796.11	0.145217
2797.44	0.213306
2798.77	0.194979
2800.1	0.104768
2801.43	-0.527778
2802.76	-0.0905895
2804.09	-0.181439
2805.42	0.0975895
2806.74	-0.136868
2808.07	0.168705
2809.4	0.41643
2810.73	-0.188265
2812.05	0.0600853
2813.38	0.0967312
2814.71	-0.0492182
2816.03	-0.122487
2817.36	-0.0243254
2818.68	-0.180592
2820.01	0.0600166
2821.33	0.144169
2822.66	0.369196
2823.98	0.0691462
2825.31	0.165402
2826.63	0.389102
2827.96	0.641651
2829.28	0.0312643
2830.61	0.143493
2831.93	0.397523
2833.25	0.552375
2834.57	0.791735
2835.9	0.605862
2837.22	0.758959
2838.54	1.26507
2839.86	1.23326
2841.18	1.34297
2842.51	1.49555
2843.83	1.50759
2845.15	1.87386
2846.47	2.38226
2847.79	2.24106
2849.11	2.65109
2850.43	2.04309
2851.75	2.26836
2853.07	2.54944
2854.39	2.60386
2855.71	2.8558
2857.03	2.16116
2858.35	2.70974
2859.67	2.90508
2860.98	2.71889
2862.3	2.99822
2863.62	2.78295
2864.94	3.18828
2866.25	2.94446
2867.57	3.84343
2868.89	3.51589
2870.21	4.38735
2871.52	3.72233
2872.84	4.15645
2874.15	3.8708
2875.47	3.93603
2876.78	3.76042
2878.1	3.96382
2879.42	3.4072
2880.73	4.31338
2882.04	4.09581
2883.36	3.99217
2884.67	4.35323
2885.99	3.92881
2887.3	4.03801
2888.61	4.48336
2889.93	4.4084
2891.24	4.79507
2892.55	4.21352
2893.87	4.68293
2895.18	4.45229
2896.49	4.79679
2897.8	3.95308
2899.11	5.20971
2900.42	5.48783
2901.74	4.81535
2903.05	5.19233
2904.36	4.92607
2905.67	4.88398
2906.98	5.61196
2908.29	5.44585
2909.6	6.20429
2910.91	6.58598
2912.22	6.00201
2913.53	5.8648
2914.83	6.95774
2916.14	6.95625
2917.45	6.7286
2918.76	7.43708
2920.07	7.29171
2921.37	7.72063
2922.68	7.5081
2923.99	7.80084
2925.3	8.17908
2926.6	8.16687
2927.91	8.47629
2929.22	8.23997
2930.52	8.79971
2931.83	8.35222
2933.13	8.53344
2934.44	8.43506
2935.74	8.7282
2937.05	8.65822
2938.35	8.28111
2939.66	8.57517
2940.96	8.25516
2942.27	8.11805
2943.57	8.10847
2944.87	7.69545
2946.18	7.32585
2947.48	7.33461
2948.78	7.14713
2950.09	6.56593
2951.39	6.09409
2952.69	6.58584
2953.99	6.20754
2955.29	6.65472
2956.6	5.99729
2957.9	5.93054
2959.2	5.99349
2960.5	6.10236
2961.8	4.85445
2963.1	5.41556
2964.4	5.44332
2965.7	4.79495
2967	4.39676
2968.3	4.20748
2969.6	4.70617
2970.9	4.55796
2972.2	4.8603
2973.49	4.64262
2974.79	4.14332
2976.09	4.38921
2977.39	4.29559
2978.69	4.2842
2979.98	3.96082
2981.28	3.6359
2982.58	3.61995
2983.88	3.61852
2985.17	3.30938
2986.47	3.1148
2987.76	3.09084
2989.06	2.67476
2990.36	3.10227
2991.65	2.32056
2992.95	2.39488
2994.24	2.08824
2995.54	1.82251
2996.83	2.28618
2998.12	2.17383
2999.42	1.71126
3000.71	1.33391
3002	1.63042
3003.3	1.35281
3004.59	1.11758
3005.88	1.14831
3007.18	1.65426
3008.47	1.71099
3009.76	0.941587
3011.05	0.507672
3012.35	1.07917
3013.64	0.659343
3014.93	1.06318
3016.22	0.993741
3017.51	0.43813
3018.8	0.384781
3020.09	-0.0994587
3021.38	0.208662
3022.67	0.321004
3023.96	0.223912
3025.25	0.264788
3026.54	0.23613
3027.83	0.291183
3029.12	0.48581
3030.41	0.447186
3031.69	0.45194
3032.98	0.430477
3034.27	0.0920973
3035.56	-0.149992
3036.85	-0.145087
3038.13	0.615522
3039.42	0.216484
3040.71	0.0639515
3041.99	0.07551
3043.28	0.292644
3044.57	0.0175409
3045.85	-0.336891
3047.14	-0.0459843
3048.42	0.124491
3049.71	-0.125642
3050.99	-0.223587
3052.28	0.375481
3053.56	0.12865
3054.85	0.358701
3056.13	0.451127
3057.42	0.664933
3058.7	0.182796
3059.98	0.395422
3061.27	0.213711
3062.55	0.71351
3063.83	0.208578
3065.11	0.902202
3066.4	0.156549
3067.68	0.363874
3068.96	0.0687084
3070.24	0.317337
3071.52	0.0754538
3072.8	-0.0180893
3074.09	-0.0313406
3075.37	0.17186
3076.65	0.211645
3077.93	0.034811
3079.21	0.0359039
3080.49	0.48654
3081.77	-0.403798
3083.05	0.158934
3084.32	0.0308008
3085.61	0.011447
3086.88	-0.171185
3088.16	0.0391273
3089.44	-0.063385
3090.72	0.11871
3092	-0.269086
3093.27	0.00823879
3094.55	0.435132
3095.83	0.0488434
3097.11	0.218765
3098.38	0.117653
3099.66	0.61279
3100.94	-0.0707912
3102.21	0.23484
3103.49	-0.163207
3104.76	0.427788
3106.04	0.15348
3107.31	-0.200731
3108.59	0.502014
3109.86	-0.187822
3111.14	0.693938
3112.41	0.0332603
3113.69	0.321242
3114.96	-0.0545883
3116.23	0.450423
3117.51	0.113955
3118.78	0.413861
3120.05	0.482081
3121.33	0.400243
3122.6	0.589012
3123.87	0.642101
3125.14	0.492501
3126.42	0.952802
3127.69	0.777772
3128.96	1.07707
3130.23	0.60613
3131.5	0.865762
3132.77	0.99016
3134.04	0.79008
3135.31	0.92726
3136.58	0.861501
3137.85	1.10553
3139.12	0.554164
3140.39	1.28243
3141.66	1.01465
3142.93	1.07039
3144.2	1.16712
3145.47	0.741548
3146.74	0.82706
3148	0.819673
3149.27	0.853463
