200.388	0.676447
202.204	0.668118
204.019	0.660899
205.832	1.38476
207.646	0.382607
209.459	0.426142
211.274	0.371727
213.087	0.364931
214.899	0.45436
216.711	0.204038
218.524	0.341957
220.335	-0.0276222
222.146	0.596285
223.956	1.05159
225.766	0.34747
227.576	1.432
229.388	-0.0439959
231.197	0.098156
233.005	-0.194074
234.813	0.189771
236.621	-0.0759354
238.429	0.914224
240.236	0.509396
242.045	0.34834
243.852	0.333726
245.658	-0.21152
247.464	0.255597
249.269	-0.221256
251.074	0.071579
252.879	-0.0245295
254.683	-0.00155735
256.487	0.623908
258.291	-0.509361
260.094	-0.0979834
261.897	-0.166269
263.702	0.369763
265.504	-0.200975
267.306	0.240957
269.108	0.0321999
270.909	0.280867
272.71	0.239285
274.511	0.582201
276.311	-0.161263
278.111	0.0578642
279.91	0.684341
281.709	0.176751
283.508	-0.0914135
285.306	0.408396
287.105	0.0184669
288.9	0.756436
290.698	0.511842
292.495	0.0299711
294.291	-0.210095
296.088	0.627801
297.884	-0.397729
299.679	0.250685
301.475	-0.510465
303.27	0.184696
305.064	-0.482154
306.858	-0.0758181
308.652	0.592191
310.444	0.593147
312.237	-0.0950518
314.03	0.338286
315.822	0.011838
317.615	0.401987
319.406	0.413125
321.198	0.783339
322.987	0.606578
324.778	0.692845
326.568	0.493057
328.358	0.0540533
330.148	0.116014
331.935	0.129098
333.724	0.595106
335.513	0.72408
337.301	0.419853
339.089	0.209157
340.875	0.546994
342.662	-0.0963383
344.449	0.192805
346.236	0.243554
348.02	-0.158477
349.806	-0.0105028
351.592	-0.101061
353.375	0.142056
355.16	0.121631
356.944	0.0283642
358.728	0.052989
360.51	-0.256987
362.294	0.146482
364.077	0.168145
365.858	-0.119762
367.64	0.683933
369.422	0.27588
371.202	0.223097
372.983	0.14607
374.764	0.281582
376.543	0.0156517
378.324	0.434824
380.102	-0.0880184
381.881	0.780235
383.661	0.331599
385.438	0.872503
387.216	0.75653
388.993	0.642113
390.771	0.740439
392.548	0.229255
394.324	0.940127
396.101	0.312981
397.875	0.860322
399.651	-0.00158691
401.425	1.15604
403.201	0.387042
404.974	0.627253
406.749	0.13868
408.524	-0.373806
410.296	0.451591
412.07	-0.412948
413.841	0.0139084
415.614	0.206927
417.385	1.12835
419.156	0.642795
420.928	-0.241447
422.698	-0.586217
424.469	0.429919
426.238	0.224412
428.009	-0.381028
429.777	0.139842
431.548	0.871887
433.315	0.336927
435.083	-0.526094
436.852	-0.0982151
438.618	0.42286
440.387	0.261786
442.153	-0.182896
443.919	0.19102
445.686	0.0469913
447.451	-0.28539
449.218	-0.360458
450.982	0.148848
452.746	0.214171
454.512	-0.0701637
456.275	0.415156
458.038	-0.03195
459.803	0.243153
461.565	-0.0859556
463.327	0.63299
465.091	0.262164
466.852	0.359514
468.613	0.460136
470.374	-0.483296
472.136	0.132069
473.896	0.118794
475.655	0.173466
477.415	0.295613
479.176	-0.0269566
480.934	0.231682
482.692	-0.278137
484.45	-0.0879192
486.21	0.360819
487.967	0.416203
489.724	0.474133
491.481	-0.0968046
493.237	0.103106
494.995	0.724651
496.75	1.20686
498.506	0.63534
500.26	1.02377
502.015	-0.0664816
503.771	1.18938
505.525	0.330364
507.279	0.315352
509.032	0.486795
510.785	0.844739
512.537	0.447917
514.289	0.567024
516.041	0.849189
517.793	0.894608
519.546	0.468648
521.297	0.253669
523.047	-0.0320797
524.797	0.433338
526.547	1.08593
528.297	0.612461
530.046	0.25657
531.795	-0.0993547
533.543	0.574218
535.291	0.0760326
537.039	1.07278
538.787	0.361668
540.534	0.0238218
542.281	0.291476
544.027	0.581313
545.773	-0.779398
547.519	-0.349536
549.264	0.496899
551.01	0.207025
552.754	-0.220762
554.499	-0.393223
556.243	0.150566
557.987	0.209451
559.73	0.775686
561.474	0.190617
563.216	0.205243
564.959	-0.40007
566.701	0.00687027
568.441	0.000997543
570.182	0.248752
571.923	0.291434
573.664	0.0148649
575.405	-0.0302744
577.145	0.38541
578.885	0.573397
580.624	-0.0183706
582.361	-0.0820522
584.1	0.060565
585.839	-0.0507956
587.577	0.319475
589.315	-0.0477324
591.052	-0.00191402
592.787	0.158336
594.524	0.0653143
596.26	-0.0276527
597.997	0.983686
599.732	-0.236991
601.466	0.427911
603.201	0.4472
604.936	0.119948
606.67	-0.024682
608.403	0.266243
610.136	-0.705669
611.87	0.204937
613.603	0.129637
615.334	0.0322742
617.067	0.118505
618.799	0.410253
620.529	-0.306648
622.26	-0.292059
623.991	0.155886
625.72	-0.219229
627.451	-0.387291
629.181	0.702067
630.909	0.94936
632.638	-0.238477
634.368	0.354857
636.095	0.286123
637.823	0.238323
639.551	0.370089
641.277	0.13342
643.005	-0.151305
644.73	-0.528047
646.457	0.620248
648.184	-0.277061
649.908	-0.0338945
651.634	0.258817
653.357	0.0559816
655.083	0.12964
656.806	-0.112734
658.53	0.739613
660.253	0.498103
661.977	0.163035
663.7	-0.335075
665.422	0.466812
667.145	0.215086
668.865	-0.540832
670.588	0.602272
672.308	1.03887
674.027	0.288033
675.749	0.524076
677.468	0.440841
679.188	1.00075
680.907	0.526139
682.627	0.186737
684.345	0.304881
686.064	0.904428
687.781	0.765379
689.498	1.03962
691.216	0.875315
692.932	0.848484
694.65	0.383161
696.366	0.354398
698.081	1.01492
699.797	0.776035
701.512	0.628017
703.228	0.134291
704.942	0.536164
706.655	0.0417795
708.371	-0.0166149
710.083	0.726634
711.796	0.827179
713.51	-0.0564098
715.222	1.27809
716.934	0.41821
718.645	1.13397
720.358	1.78028
722.068	0.603873
723.779	0.703706
725.49	0.871418
727.2	0.447962
728.909	1.11405
730.618	0.531429
732.329	1.42165
734.037	0.386652
735.745	0.438712
737.453	1.07814
739.16	0.566547
740.869	1.52211
742.576	1.12609
744.282	0.484467
745.988	0.812696
747.694	1.23224
749.401	1.58564
751.107	0.523526
752.811	0.812407
754.516	2.00279
756.22	1.41771
757.924	2.00476
759.627	1.01719
761.332	1.35979
763.035	1.59071
764.738	1.52817
766.44	1.48685
768.142	2.30236
769.843	2.46006
771.544	2.81876
773.245	2.24847
774.946	1.58715
776.646	3.09703
778.346	2.00824
780.046	2.66243
781.745	2.52658
783.444	2.09669
785.143	1.64263
786.841	1.88753
788.539	1.78921
790.237	1.73233
791.934	1.9661
793.631	1.99424
795.328	1.77376
797.024	1.78005
798.72	1.65309
800.416	2.27117
802.112	2.19291
803.807	1.71076
805.502	1.45365
807.196	1.82499
808.89	1.67807
810.584	1.64215
812.278	2.03123
813.971	2.32936
815.664	1.50729
817.354	2.16286
819.047	1.90103
820.739	0.768911
822.43	1.69182
824.122	1.43246
825.813	2.28917
827.503	1.38786
829.192	1.55911
830.882	1.64469
832.571	1.88953
834.261	1.44609
835.95	1.67247
837.637	1.74273
839.325	1.27587
841.013	1.34291
842.701	1.05098
844.389	1.24992
846.074	1.09199
847.761	1.51721
849.447	1.34151
851.131	1.95208
852.817	2.00571
854.503	1.11825
856.188	1.4192
857.871	1.38227
859.556	1.05087
861.24	1.07722
862.922	0.741312
864.606	0.606499
866.289	1.05669
867.97	1.57403
869.653	0.534858
871.336	1.52509
873.016	-0.033967
874.698	0.73049
876.379	0.524776
878.058	0.341586
879.739	1.24172
881.418	1.91589
883.098	0.422038
884.778	0.778146
886.456	1.62915
888.135	1.44
889.812	1.09129
891.49	1.05677
893.167	1.47119
894.845	0.420944
896.523	1.39463
898.198	0.860591
899.875	0.84255
901.55	1.22694
903.226	0.625099
904.901	0.650308
906.576	1.38994
908.25	0.902264
909.925	1.06248
911.598	0.489229
913.271	0.517962
914.945	1.01331
916.617	1.01976
918.291	0.826632
919.962	1.03253
921.635	1.37137
923.306	0.0972672
924.978	0.682263
926.648	1.04782
928.318	0.92941
929.989	0.657998
931.659	0.431606
933.328	0.315886
934.998	1.17089
936.666	0.702859
938.336	0.478404
940.004	0.696361
941.671	1.04807
943.34	0.959486
945.007	1.06936
946.673	0.714478
948.339	0.445828
950.007	0.373761
951.672	0.388603
953.337	0.072587
955.004	0.331606
956.669	0.791973
958.333	0.439932
959.997	1.01767
961.662	0.272728
963.326	1.09604
964.989	-0.0498447
966.651	0.725255
968.315	0.67886
969.977	0.563684
971.639	0.690804
973.301	0.376005
974.962	0.39451
976.624	-0.115811
978.285	0.348638
979.945	0.172386
981.605	-0.00434208
983.264	0.725109
984.924	0.589131
986.583	0.827107
988.243	0.554004
989.901	0.611403
991.56	0.756365
993.217	0.392921
994.875	1.00126
996.532	0.417678
998.188	0.34187
999.845	0.133679
1001.5	0.541938
1003.16	0.420998
1004.81	-0.0300274
1006.47	0.00290489
1008.12	0.211574
1009.78	0.529999
1011.43	-0.0725889
1013.09	0.136987
1014.74	0.565772
1016.39	0.512892
1018.05	0.394983
1019.7	0.45303
1021.35	0.687091
1023	0.747396
1024.65	1.57369
1026.31	1.28604
1027.96	1.50104
1029.61	1.10356
1031.26	1.40371
1032.91	0.784849
1034.56	0.339232
1036.21	0.830133
1037.86	0.883598
1039.51	0.436168
1041.16	0.729671
1042.8	0.611219
1044.45	0.929391
1046.1	0.94548
1047.75	0.833468
1049.39	0.571363
1051.04	0.440993
1052.69	0.39841
1054.33	0.508349
1055.98	0.531415
1057.62	0.380263
1059.27	0.0110931
1060.91	-0.0326986
1062.56	0.42279
1064.2	0.420613
1065.85	0.439003
1067.49	0.651745
1069.13	0.23318
1070.77	0.639411
1072.42	0.13341
1074.06	0.474555
1075.7	0.556298
1077.34	0.249133
1078.98	0.377147
1080.62	0.4193
1082.27	0.700003
1083.91	0.654471
1085.55	0.780542
1087.18	0.882507
1088.82	0.85199
1090.46	0.75452
1092.1	0.763891
1093.74	0.448645
1095.38	0.651991
1097.02	0.144488
1098.65	0.824021
1100.29	1.18176
1101.93	0.530037
1103.56	-0.162206
1105.2	-0.293468
1106.84	0.823398
1108.47	-0.146276
1110.11	0.861272
1111.74	0.0610218
1113.38	0.226336
1115.01	-0.16813
1116.64	0.0593653
1118.28	0.522449
1119.91	0.19296
1121.54	-0.220689
1123.18	0.26615
1124.81	0.347201
1126.44	-0.0841551
1128.07	-0.0867472
1129.7	0.381829
1131.33	-0.046977
1132.97	0.208714
1134.6	0.335987
1136.23	0.483905
1137.86	0.160499
1139.49	0.412646
1141.11	0.407217
1142.74	0.48653
1144.37	-0.137964
1146	0.901729
1147.63	-0.061533
1149.26	-0.0431786
1150.88	-0.428971
1152.51	0.463152
1154.14	0.0132065
1155.76	-0.436933
1157.39	0.325784
1159.01	-0.251578
1160.64	-0.125998
1162.27	0.128327
1163.89	0.57511
1165.51	0.490958
1167.14	0.151407
1168.76	0.150892
1170.39	0.552333
1172.01	-0.450914
1173.63	-0.0112753
1175.25	-0.443496
1176.88	0.1207
1178.5	0.578288
1180.12	-0.14941
1181.74	0.351778
1183.36	-0.626781
1184.98	0.466587
1186.6	0.734056
1188.22	0.80934
1189.84	-0.129617
1191.46	-0.310732
1193.08	-0.0305119
1194.7	0.122008
1196.32	-0.627481
1197.94	0.657063
1199.55	-0.0255423
1201.17	0.340622
1202.79	-0.272126
1204.41	-0.171739
1206.02	0.139606
1207.64	-0.131774
1209.25	0.556824
1210.87	0.0972614
1212.48	-0.0303402
1214.1	0.277324
1215.71	0.35299
1217.33	0.0311823
1218.94	-0.270415
1220.56	0.258825
1222.17	0.331466
1223.79	0.0116701
1225.4	-0.181713
1227.01	0.537313
1228.62	0.678057
1230.23	-0.0482359
1231.85	1.21164
1233.46	-0.0696974
1235.07	0.0766001
1236.68	0.53428
1238.29	0.187012
1239.9	0.378
1241.51	0.838209
1243.12	0.325933
1244.73	0.495439
1246.34	0.270677
1247.94	0.35516
1249.55	0.521529
1251.16	0.459918
1252.77	0.419224
1254.37	-0.158455
1255.98	-0.3006
1257.59	0.592902
1259.2	0.0189095
1260.8	0.666842
1262.41	-0.0508919
1264.01	0.473804
1265.62	0.356058
1267.22	0.258165
1268.83	0.511643
1270.43	0.12127
1272.03	0.144401
1273.64	0.560305
1275.24	0.539674
1276.85	0.766664
1278.45	0.992558
1280.05	0.824122
1281.65	0.821037
1283.25	1.21113
1284.85	0.794999
1286.46	0.545563
1288.06	0.834808
1289.66	1.06302
1291.26	0.981847
1292.86	1.1279
1294.46	1.00452
1296.06	0.776475
1297.66	0.319692
1299.25	1.01689
1300.85	0.680579
1302.45	0.755359
1304.05	1.17874
1305.65	0.490244
1307.24	0.788387
1308.84	1.14709
1310.43	0.562292
1312.03	0.388576
1313.63	0.911406
1315.22	0.719205
1316.82	0.936764
1318.41	1.09346
1320.01	0.332401
1321.6	0.875277
1323.2	0.927025
1324.79	1.70843
1326.38	0.456104
1327.98	0.970201
1329.57	1.34178
1331.16	0.723284
1332.76	0.512679
1334.35	0.708772
1335.94	0.946852
1337.53	0.943345
1339.12	0.677109
1340.71	1.35606
1342.3	0.723352
1343.89	1.2153
1345.48	1.16269
1347.07	1.25057
1348.66	0.599089
1350.25	0.792181
1351.84	0.787926
1353.43	0.36622
1355.01	0.825752
1356.6	0.406292
1358.19	0.925506
1359.77	0.344998
1361.36	1.20085
1362.95	0.518792
1364.53	0.315566
1366.12	0.670696
1367.71	0.448818
1369.29	0.467367
1370.88	0.567092
1372.46	0.0117207
1374.04	0.731124
1375.63	0.894176
1377.21	0.540015
1378.8	0.284801
1380.38	0.227475
1381.96	0.307979
1383.54	0.227889
1385.13	0.62378
1386.71	0.859806
1388.29	0.341154
1389.87	0.955116
1391.45	0.63705
1393.03	0.14156
1394.61	0.340931
1396.19	0.361571
1397.77	0.24267
1399.35	-0.174487
1400.93	0.516791
1402.51	0.870146
1404.09	0.530616
1405.67	0.725902
1407.24	0.862696
1408.82	0.486676
1410.4	0.289277
1411.98	0.526405
1413.55	0.466632
1415.13	0.267764
1416.71	0.876677
1418.28	0.360983
1419.86	0.358358
1421.43	0.514421
1423.01	0.0815916
1424.58	0.418359
1426.16	0.854935
1427.73	1.42997
1429.31	0.843454
1430.88	0.590531
1432.45	1.0251
1434.02	1.08453
1435.6	1.30071
1437.17	1.20238
1438.74	1.32117
1440.31	1.28388
1441.88	1.18878
1443.45	1.88065
1445.03	1.2759
1446.6	2.32235
1448.17	1.81623
1449.74	1.34966
1451.3	1.82731
1452.87	1.47981
1454.44	1.42769
1456.01	1.41488
1457.58	1.42101
1459.15	0.835255
1460.72	0.956002
1462.28	1.05489
1463.85	0.443819
1465.42	0.657595
1466.98	0.988554
1468.55	0.691257
1470.12	1.65121
1471.68	1.5328
1473.25	1.23925
1474.81	0.397713
1476.38	0.792148
1477.94	0.637689
1479.51	0.777229
1481.07	1.26941
1482.63	1.03627
1484.2	0.607099
1485.76	0.863345
1487.32	0.64856
1488.88	0.843551
1490.45	1.0949
1492.01	1.24555
1493.57	0.983086
1495.13	1.10918
1496.69	1.23362
1498.25	0.403856
1499.81	0.878971
1501.37	0.519436
1502.93	0.569308
1504.49	0.658897
1506.05	0.438924
1507.61	0.160665
1509.17	1.17619
1510.73	0.7215
1512.28	0.209053
1513.84	0.871505
1515.4	0.590538
1516.96	0.349343
1518.51	0.397254
1520.07	0.177585
1521.63	-0.156165
1523.18	0.332388
1524.74	0.207999
1526.29	0.521338
1527.85	0.528083
1529.4	0.0968008
1530.96	0.141362
1532.51	0.413893
1534.06	0.762441
1535.62	1.07353
1537.17	0.478141
1538.72	0.205685
1540.28	0.141646
1541.83	0.454629
1543.38	0.221093
1544.93	0.476644
1546.48	0.0552454
1548.03	0.478865
1549.59	0.376726
1551.14	0.480967
1552.69	0.622972
1554.24	0.29852
1555.79	0.536426
1557.34	0.51469
1558.88	0.476549
1560.43	0.906984
1561.98	0.0893564
1563.53	0.616199
1565.08	0.882614
1566.62	0.757346
1568.17	0.538465
1569.72	0.599094
1571.27	1.06995
1572.81	1.09248
1574.36	0.44281
1575.9	0.931862
1577.45	0.207724
1579	0.380097
1580.54	0.329109
1582.09	0.540422
1583.63	0.192335
1585.17	0.891378
1586.72	1.19893
1588.26	0.796166
1589.8	0.748367
1591.35	0.737475
1592.89	0.875826
1594.43	0.639301
1595.97	0.796112
1597.52	0.766049
1599.06	0.455462
1600.6	0.595581
1602.14	0.379773
1603.68	0.971198
1605.22	0.762169
1606.76	0.863821
1608.3	1.0865
1609.84	1.10775
1611.38	1.16387
1612.92	0.61664
1614.46	1.21338
1615.99	0.66467
1617.53	1.20431
1619.07	0.377034
1620.61	0.694525
1622.14	0.189532
1623.68	1.16463
1625.22	0.286374
1626.75	0.848667
1628.29	0.342804
1629.82	0.658607
1631.36	0.281362
1632.9	0.800629
1634.43	0.666224
1635.96	0.961979
1637.5	0.997414
1639.03	0.940347
1640.57	0.4361
1642.1	0.732654
1643.63	0.822893
1645.16	1.39548
1646.7	0.701709
1648.23	1.06769
1649.76	0.356574
1651.29	0.66807
1652.82	1.24026
1654.36	1.51662
1655.89	0.959506
1657.42	0.662114
1658.95	0.456708
1660.48	0.213065
1662.01	0.726642
1663.53	0.979366
1665.06	1.12017
1666.59	0.652065
1668.12	0.333376
1669.65	0.385321
1671.18	0.973186
1672.7	0.272515
1674.23	0.364624
1675.76	0.824675
1677.29	0.786644
1678.81	0.710621
1680.34	0.467997
1681.86	0.573895
1683.39	-0.147056
1684.91	0.766176
1686.44	0.963405
1687.96	0.904308
1689.49	0.809095
1691.01	0.0368099
1692.54	0.674535
1694.06	-0.0420208
1695.58	0.68624
1697.11	0.77391
1698.63	0.587148
1700.15	-0.110897
1701.67	0.81456
1703.2	0.790357
1704.72	0.820152
1706.24	-0.0422392
1707.76	0.13274
1709.28	-0.237621
1710.8	0.0460711
1712.32	0.909706
1713.84	-0.0396948
1715.36	0.478884
1716.88	-0.0706806
1718.4	0.0311489
1719.91	-0.228445
1721.43	0.0538425
1722.95	0.174027
1724.47	-0.0471764
1725.99	0.00342274
1727.5	-0.196544
1729.02	0.162572
1730.54	0.270763
1732.05	0.590083
1733.57	0.145384
1735.09	-0.120252
1736.6	-0.62855
1738.12	0.0879107
1739.63	0.32882
1741.15	-0.197674
1742.66	-0.0371542
1744.18	-0.166004
1745.69	0.536448
1747.2	-0.265126
1748.72	-0.461303
1750.23	0.0303345
1751.74	0.3838
1753.25	-0.0101757
1754.77	0.347242
1756.28	-0.0514822
1757.79	0.233868
1759.3	-0.00434017
1760.81	0.100097
1762.32	0.492098
1763.83	0.126698
1765.34	0.281219
1766.85	0.17392
1768.36	-0.0350885
1769.87	0.606115
1771.38	-0.243903
1772.89	-0.345604
1774.4	0.204752
1775.91	0.0759525
1777.41	0.249842
1778.92	0.63439
1780.43	0.0902309
1781.94	-0.32273
1783.44	0.130371
1784.95	-0.0852509
1786.45	0.0380898
1787.96	-0.219197
1789.47	0.356384
1790.97	0.105806
1792.48	-0.0611153
1793.98	-0.173671
1795.48	0.35372
1796.99	-0.238032
1798.49	0.121498
1800	0.249196
1801.5	0.383976
1803	0.299622
1804.51	0.121231
1806.01	-0.0120211
1807.51	-0.128305
1809.01	0.387319
1810.51	0.07831
1812.02	-0.13843
1813.52	0.0534325
1815.02	0.137362
1816.52	0.212055
1818.02	-0.12466
1819.52	-0.0762529
1821.02	0.29016
1822.52	-0.00974274
1824.02	0.0406952
1825.51	0.142849
1827.01	0.0282621
1828.51	-0.337569
1830.01	0.0530863
1831.51	0.332202
1833	-0.099267
1834.5	0.196864
1836	0.204666
1837.5	-0.170184
1838.99	0.26896
1840.49	0.410033
1841.98	0.255333
1843.48	-0.128044
1844.97	-0.0884495
1846.47	0.246542
1847.96	-0.0827074
1849.46	0.015954
1850.95	0.0595989
1852.45	-0.145495
1853.94	0.0389137
1855.43	0.202653
1856.92	0.00513077
1858.42	0.580035
1859.91	-0.0951557
1861.4	-0.0207462
1862.89	-0.0703249
1864.39	0.017065
1865.88	0.0862885
1867.37	0.170916
1868.86	-0.057991
1870.35	-0.100332
1871.84	0.133701
1873.33	0.17654
1874.82	-0.0262861
1876.31	0.0464773
1877.8	0.0836344
1879.29	-0.154115
1880.77	0.0347805
1882.26	0.0471745
1882.51	0.0393286
1884	-0.137045
1885.5	0.348067
1886.99	-0.160995
1888.48	-0.0433922
1889.98	-0.221502
1891.47	0.0885057
1892.97	0.382618
1894.46	-0.0689497
1895.95	0.506967
1897.44	0.857922
1898.93	0.339147
1900.42	-0.163486
1901.92	0.271548
1903.41	0.287122
1904.9	-0.0291805
1906.39	0.244694
1907.88	0.396681
1909.37	0.306173
1910.86	0.234101
1912.35	0.197742
1913.84	0.162013
1915.32	0.646612
1916.81	0.541195
1918.3	-0.0847349
1919.79	0.311493
1921.28	0.447536
1922.76	0.0644636
1924.25	-0.0751276
1925.74	0.201978
1927.22	0.549479
1928.71	-0.0891542
1930.2	0.0339565
1931.68	0.364047
1933.17	0.813735
1934.65	0.395715
1936.14	-0.24873
1937.62	0.385781
1939.11	0.155019
1940.59	-0.0406046
1942.08	-0.252365
1943.56	-0.221334
1945.04	-0.206676
1946.53	-0.243351
1948.01	0.288465
1949.49	0.0783463
1950.97	-0.356468
1952.45	-0.103466
1953.94	0.0454235
1955.42	0.709518
1956.9	0.0337057
1958.38	0.372033
1959.86	0.213331
1961.34	-0.150396
1962.82	-0.153674
1964.3	0.562442
1965.78	0.386863
1967.26	-0.200063
1968.74	0.205084
1970.22	0.113356
1971.69	-0.217662
1973.17	0.0491123
1974.65	-0.0425749
1976.13	-0.0146379
1977.61	-0.122829
1979.08	0.381992
1980.56	-0.0494375
1982.03	0.267459
1983.51	0.209882
1984.99	0.15202
1986.46	0.365332
1987.94	0.120723
1989.41	0.588047
1990.89	0.226236
1992.36	-0.0495453
1993.84	-0.0366001
1995.31	-0.445282
1996.78	0.160393
1998.26	0.46165
1999.73	0.407696
2001.2	0.184366
2002.68	-0.123631
2004.15	0.394564
2005.62	0.508215
2007.09	-0.303811
2008.56	0.0643864
2010.04	0.433328
2011.51	0.19674
2012.98	0.0780907
2014.45	0.362908
2015.92	-0.143971
2017.39	0.138957
2018.86	0.185423
2020.33	0.584084
2021.8	-0.260545
2023.27	0.154899
2024.74	0.201684
2026.2	0.0484238
2027.67	-0.220664
2029.14	0.367226
2030.61	0.000480652
2032.07	0.121239
2033.54	0.125089
2035.01	-0.257318
2036.47	0.165967
2037.94	0.404089
2039.41	0.440201
2040.87	0.106436
2042.34	0.36142
2043.8	0.566905
2045.27	-0.000498772
2046.73	0.18998
2048.2	0.616826
2049.66	0.521297
2051.12	0.778646
2052.59	0.342949
2054.05	0.495435
2055.51	0.443606
2056.98	0.525133
2058.44	0.588848
2059.9	0.618632
2061.36	-0.0414944
2062.82	0.376948
2064.29	0.308245
2065.75	0.106016
2067.21	0.308601
2068.67	0.343547
2070.13	0.311512
2071.59	0.128017
2073.05	-0.224051
2074.51	0.736978
2075.97	0.48529
2077.43	0.23318
2078.88	0.0816813
2080.34	0.367514
2081.8	0.231772
2083.26	0.516173
2084.72	0.345264
2086.17	0.644661
2087.63	0.421883
2089.09	0.534959
2090.54	0.815663
2092	0.642701
2093.46	0.436257
2094.91	0.296837
2096.37	0.643085
2097.82	0.854141
2099.28	0.963763
2100.73	0.654771
2102.19	0.547013
2103.64	0.891172
2105.09	0.201618
2106.55	0.598586
2108	0.74629
2109.46	0.744236
2110.91	0.841614
2112.36	0.720818
2113.81	0.764769
2115.27	0.673734
2116.72	0.0166044
2118.17	0.374157
2119.62	0.88195
2121.07	0.628152
2122.52	0.774732
2123.97	0.342496
2125.42	1.13807
2126.87	0.872127
2128.32	0.986403
2129.77	0.436241
2131.22	1.07762
2132.67	0.45939
2134.12	0.834404
2135.57	1.09413
2137.01	1.23959
2138.46	0.560798
2139.91	0.660881
2141.36	0.812368
2142.8	1.31252
2144.25	0.80467
2145.7	1.33922
2147.14	0.781125
2148.59	1.41443
2150.03	0.870868
2151.48	0.88935
2152.92	0.724483
2154.37	1.45342
2155.81	1.4859
2157.26	1.33623
2158.7	1.18738
2160.15	1.20567
2161.59	1.37506
2163.03	1.18195
2164.48	1.48804
2165.92	1.38048
2167.36	1.62158
2168.8	1.08044
2170.25	1.2852
2171.69	1.38791
2173.13	1.18898
2174.57	1.20475
2176.01	1.63561
2177.45	0.91925
2178.89	0.769172
2180.33	1.21868
2181.77	1.43644
2183.21	1.42212
2184.65	1.84057
2186.09	1.16129
2187.53	0.79792
2188.97	1.48293
2190.41	1.25268
2191.84	1.4549
2193.28	2.02263
2194.72	0.923882
2196.16	0.988621
2197.59	1.41714
2199.03	1.62705
2200.47	0.938229
2201.9	0.914346
2203.34	0.808255
2204.78	0.670322
2206.21	1.1303
2207.65	1.37512
2209.08	0.890909
2210.51	1.44902
2211.95	1.02941
2213.38	0.460749
2214.82	0.982878
2216.25	1.62051
2217.68	0.872905
2219.12	1.00141
2220.55	0.438402
2221.98	0.930666
2223.42	0.845201
2224.85	0.873538
2226.28	1.04802
2227.71	0.710666
2229.14	1.07873
2230.57	0.477206
2232	0.728865
2233.43	0.898435
2234.86	0.283586
2236.29	0.9618
2237.72	0.726491
2239.15	0.265154
2240.58	0.638227
2242.01	0.458611
2243.44	0.247749
2244.87	0.233006
2246.3	0.870025
2247.73	0.477733
2249.15	0.213742
2250.58	0.745924
2252.01	0.884665
2253.43	0.518071
2254.86	0.444912
2256.29	0.730581
2257.71	0.1423
2259.14	0.611958
2260.56	0.468267
2261.99	-0.240935
2263.41	0.074007
2264.84	0.503423
2266.26	0.363859
2267.69	0.678792
2269.11	0.309443
2270.54	0.459917
2271.96	0.723886
2273.38	0.320037
2274.81	1.02381
2276.23	0.115059
2277.65	0.493598
2279.07	0.252917
2280.49	0.762157
2281.92	0.325494
2283.34	0.231132
2284.76	0.00622559
2286.18	0.744483
2287.6	0.340625
2289.02	0.55766
2290.44	0.399489
2291.86	0.0453386
2293.28	0.884886
2294.7	0.628925
2296.12	0.274443
2297.54	0.558242
2298.96	0.612986
2300.38	0.323802
2301.79	0.379012
2303.21	0.106474
2304.63	0.162122
2306.05	0.677604
2307.46	0.322371
2308.88	0.377183
2310.3	0.0696278
2311.71	0.139765
2313.13	0.127636
2314.55	0.0665483
2315.96	0.253193
2317.38	0.572666
2318.79	0.695184
2320.21	0.0423908
2321.62	0.592348
2323.03	0.100806
2324.45	0.530879
2325.86	0.595327
2327.27	0.839218
2328.69	0.669942
2330.1	0.63283
2331.51	0.333327
2332.93	0.00237274
2334.34	0.182606
2335.75	0.116279
2337.16	0.658022
2338.57	-0.412806
2339.99	0.356506
2341.4	0.171454
2342.81	0.166594
2344.22	0.653691
2345.63	0.320999
2347.04	0.316625
2348.45	0.132235
2349.86	-0.444926
2351.26	0.0567904
2352.67	-0.308965
2354.08	-0.0549946
2355.49	-0.0467634
2356.9	0.335593
2358.31	0.164071
2359.71	0.610451
2361.12	0.341866
2362.53	0.430532
2363.94	-0.161341
2365.34	-0.137228
2366.75	0.339553
2368.15	0.121776
2369.56	0.373316
2370.97	0.384131
2372.37	-0.489652
2373.78	0.36152
2375.18	0.407573
2376.59	0.0348663
2377.99	0.0955591
2379.39	-0.198981
2380.8	0.452345
2382.2	0.0745039
2383.61	-0.287428
2385.01	0.183057
2386.41	0.0616827
2387.81	-0.0584497
2389.22	0.22154
2390.62	0.247517
2392.02	0.274755
2393.42	0.175779
2394.82	0.300482
2396.22	0.187398
2397.63	0.138663
2399.02	0.328927
2400.43	0.0748549
2401.82	0.313608
2403.23	0.488821
2404.62	0.13959
2406.02	-0.0516586
2407.42	-0.0692215
2408.82	0.515052
2410.22	0.131435
2411.62	0.318799
2413.02	0.142647
2414.41	0.237148
2415.81	0.111603
2417.21	0.715766
2418.61	-0.103941
2420	0.454295
2421.4	-0.0961809
2422.79	0.271659
2424.19	0.25903
2425.59	0.294003
2426.98	0.583138
2428.38	0.128276
2429.77	-0.135538
2431.17	-0.351233
2432.56	0.0839138
2433.96	0.0742207
2435.35	-0.0319939
2436.74	0.463948
2438.14	0.132049
2439.53	0.132409
2440.92	0.195292
2442.32	-0.155192
2443.71	-0.156616
2445.1	-0.427866
2446.49	0.0461197
2447.88	0.139211
2449.28	0.485647
2450.67	0.00869846
2452.06	-0.0716095
2453.45	0.133781
2454.84	0.245093
2456.23	-0.0541382
2457.62	-0.337152
2459.01	0.518522
2460.4	0.124038
2461.79	-0.429271
2463.18	-0.097971
2464.57	0.61165
2465.96	0.30963
2467.34	0.149839
2468.73	0.163697
2470.12	0.16156
2471.51	-0.0459747
2472.89	0.171337
2474.28	0.214367
2475.67	0.225166
2477.05	0.204104
2478.44	-0.507979
2479.83	-0.0732288
2481.21	0.141508
2482.6	0.136499
2483.98	-0.401248
2485.37	0.187126
2486.75	0.132543
2488.14	0.0144749
2489.52	0.332256
2490.9	0.150998
2492.29	0.297201
2493.67	0.0249977
2495.06	-0.291729
2496.44	0.261418
2497.82	0.319037
2499.2	0.160194
2500.59	0.00122261
2501.97	0.0116682
2503.35	0.298988
2504.73	0.307109
2506.11	0.037178
2507.49	0.444773
2508.88	0.620996
2510.26	0.183031
2511.63	0.283651
2513.01	-0.258857
2514.39	-0.232835
2515.77	-0.144708
2517.15	0.097105
2518.53	-0.0735474
2519.91	0.352132
2521.29	-0.398913
2522.67	0.239209
2524.05	-0.1616
2525.42	0.0470581
2526.8	-0.034236
2528.18	0.0524092
2529.56	0.109691
2530.93	-0.241741
2532.31	0.533262
2533.69	0.200443
2535.06	0.157133
2536.44	0.0834169
2537.81	0.0393877
2539.19	0.0702944
2540.56	-0.0667152
2541.94	0.220944
2543.31	0.159743
2544.69	0.0539923
2546.06	0.525985
2547.44	-0.487188
2548.81	0.381537
2550.18	0.188483
2551.56	-0.0810184
2552.93	0.0734177
2554.3	0.120512
2555.68	-0.212675
2557.05	0.0300846
2558.42	0.242246
2559.79	-0.212427
2561.16	0.13696
2562.53	0.532403
2563.9	-0.0262423
2565.28	-0.0388432
2566.64	0.282224
2568.02	-0.214951
2569.38	0.272981
2570.76	0.260798
2572.12	-0.0241728
2573.49	0.433694
2574.86	0.285343
2576.23	0.137019
2577.6	-0.132704
2578.97	-0.0690956
2580.34	0.0699654
2581.7	0.405708
2583.07	-0.00191116
2584.44	-0.167144
2585.81	0.349722
2587.17	0.0633173
2588.54	-0.374384
2589.91	0.127688
2591.27	0.190116
2592.64	0.0247641
2594	0.343367
2595.37	0.221511
2596.73	-0.0224628
2598.1	0.595258
2599.46	0.138398
2600.83	0.498133
2602.19	0.178442
2603.55	0.116424
2604.92	0.719026
2606.28	-0.202102
2607.64	0.44531
2609.01	0.0513
2610.37	-0.298371
2611.73	0.0584497
2613.09	0.172831
2614.46	-0.0443268
2615.82	-0.111256
2617.18	-0.357687
2618.54	-0.108792
2619.9	0.29012
2621.26	0.285507
2622.62	0.176897
2623.98	0.0836353
2625.34	0.393349
2626.7	0.0760689
2628.06	-0.0920992
2629.42	-0.0667639
2630.78	0.017828
2632.14	-0.0910854
2633.5	0.112063
2634.86	0.344549
2636.22	0.280031
2637.57	0.408247
2638.93	-0.129964
2640.29	0.161353
2641.64	0.496861
2643	0.123096
2644.36	0.0748348
2645.72	-0.10621
2647.07	-0.125243
2648.43	0.753529
2649.78	0.202395
2651.14	0.40133
2652.49	0.144251
2653.85	-0.449501
2655.2	-0.205868
2656.56	0.00920677
2657.91	0.0203028
2659.27	-0.2017
2660.62	0.249559
2661.97	0.334874
2663.33	-0.0625439
2664.68	0.0651436
2666.03	0.191841
2667.38	0.18666
2668.74	0.545428
2670.09	0.278276
2671.44	-0.33684
2672.79	0.0957146
2674.14	0.165376
2675.49	0.206567
2676.84	-0.114364
2678.2	0.102281
2679.55	-0.231298
2680.89	0.277218
2682.24	-0.343878
2683.59	0.312208
2684.94	0.374952
2686.29	-0.156641
2687.64	-0.00654411
2688.99	0.244015
2690.34	0.318593
2691.69	0.30407
2693.04	0.273378
2694.38	0.241647
2695.73	-0.485897
2697.08	0.178537
2698.43	0.568701
2699.77	-0.154333
2701.12	0.282935
2702.46	0.47578
2703.81	0.119287
2705.16	0.139984
2706.5	-0.129313
2707.85	-0.224994
2709.19	0.0272255
2710.54	0.206632
2711.88	0.31324
2713.23	0.492413
2714.57	-0.549356
2715.92	0.0802803
2717.26	-0.0607042
2718.6	0.248964
2719.95	0.718444
2721.29	0.0960903
2722.63	0.0843639
2723.97	0.348688
2725.32	0.0885534
2726.66	0.221011
2728	0.149362
2729.34	-0.111709
2730.68	0.034544
2732.02	0.253471
2733.36	0.385159
2734.7	-0.035717
2736.04	0.329098
2737.39	0.0250082
2738.72	0.288109
2740.06	0.245538
2741.4	-0.0737925
2742.74	-0.175627
2744.08	0.230523
2745.42	0.185382
2746.76	0.0236397
2748.1	-0.0220404
2749.44	0.41116
2750.77	-0.0404701
2752.11	0.0884314
2753.45	-0.362222
2754.78	-0.232869
2756.12	-0.146909
2757.46	0.112926
2758.79	-0.220619
2760.13	-0.00363636
2761.47	0.286141
2762.8	-0.176056
2764.14	-0.0880308
2765.47	0.115727
2766.81	-0.201834
2768.14	0.333141
2769.48	0.273602
2770.81	0.0824814
2772.14	0.352257
2773.48	0.17317
2774.81	0.0802946
2776.14	-0.156498
2777.48	0.211936
2778.81	0.00514889
2780.14	-0.286993
2781.47	0.0247498
2782.81	0.235717
2784.14	0.00175095
2785.47	0.298364
2786.8	0.00754738
2788.13	0.161369
2789.46	-0.471057
2790.79	0.228073
2792.12	0.327066
2793.46	0.340752
2794.79	0.0972281
2796.11	0.110658
2797.44	0.352036
2798.77	-0.178391
2800.1	0.647002
2801.43	-0.0122366
2802.76	0.269991
2804.09	-0.0326271
2805.42	-0.406584
2806.74	-0.254064
2808.07	0.452293
2809.4	0.261764
2810.73	-0.0846567
2812.05	0.577619
2813.38	0.304244
2814.71	-0.123251
2816.03	-0.0103559
2817.36	-0.0522194
2818.68	-0.135981
2820.01	-0.20555
2821.33	0.390553
2822.66	0.0363607
2823.98	0.205843
2825.31	-0.00757217
2826.63	0.274795
2827.96	0.0337276
2829.28	0.359589
2830.61	-0.135142
2831.93	0.276342
2833.25	0.135692
2834.57	0.376883
2835.9	0.461827
2837.22	0.631061
2838.54	0.460242
2839.86	0.798393
2841.18	0.910262
2842.51	0.965987
2843.83	1.192
2845.15	1.26331
2846.47	1.08092
2847.79	0.64451
2849.11	1.63561
2850.43	1.38264
2851.75	1.22807
2853.07	1.00231
2854.39	1.66643
2855.71	1.07271
2857.03	1.2561
2858.35	1.34061
2859.67	1.38271
2860.98	1.43874
2862.3	1.6497
2863.62	0.971
2864.94	1.7175
2866.25	2.05448
2867.57	1.30563
2868.89	2.06625
2870.21	1.88249
2871.52	1.96677
2872.84	2.20576
2874.15	1.88029
2875.47	1.59618
2876.78	1.90253
2878.1	2.39067
2879.42	2.24511
2880.73	2.18436
2882.04	2.16665
2883.36	2.20619
2884.67	1.88165
2885.99	2.10533
2887.3	2.03426
2888.61	1.34539
2889.93	2.29735
2891.24	1.73343
2892.55	1.84213
2893.87	2.39882
2895.18	2.36727
2896.49	2.49053
2897.8	2.58679
2899.11	1.87258
2900.42	2.04069
2901.74	2.25117
2903.05	2.32197
2904.36	2.82649
2905.67	2.63191
2906.98	2.43788
2908.29	2.70623
2909.6	2.34588
2910.91	2.71363
2912.22	2.40966
2913.53	2.90285
2914.83	2.72274
2916.14	3.14296
2917.45	3.4355
2918.76	3.02733
2920.07	3.41645
2921.37	3.42847
2922.68	2.98038
2923.99	3.17671
2925.3	3.34616
2926.6	2.83124
2927.91	3.63042
2929.22	3.50659
2930.52	3.39621
2931.83	3.57894
2933.13	3.60762
2934.44	3.79001
2935.74	3.41346
2937.05	3.33057
2938.35	2.88454
2939.66	4.0178
2940.96	3.64239
2942.27	3.11406
2943.57	2.64264
2944.87	2.8433
2946.18	2.87736
2947.48	3.0939
2948.78	2.35861
2950.09	2.41984
2951.39	2.22743
2952.69	2.31332
2953.99	2.7339
2955.29	2.62204
2956.6	2.53902
2957.9	2.21994
2959.2	2.43531
2960.5	2.31725
2961.8	2.48137
2963.1	2.87096
2964.4	2.43225
2965.7	1.48588
2967	2.16732
2968.3	2.11695
2969.6	2.75484
2970.9	2.14109
2972.2	2.24482
2973.49	1.72974
2974.79	1.83373
2976.09	1.65558
2977.39	1.72961
2978.69	1.63303
2979.98	2.11191
2981.28	2.06849
2982.58	1.56035
2983.88	1.53096
2985.17	1.15127
2986.47	1.0402
2987.76	1.18347
2989.06	1.03261
2990.36	1.26146
2991.65	0.759007
2992.95	1.30959
2994.24	1.02971
2995.54	1.22638
2996.83	0.200665
2998.12	0.214092
2999.42	0.466175
3000.71	0.382031
3002	0.14432
3003.3	0.453641
3004.59	0.440681
3005.88	0.539481
3007.18	0.931533
3008.47	0.482854
3009.76	0.369323
3011.05	0.297074
3012.35	0.475777
3013.64	0.221706
3014.93	-0.198865
3016.22	-0.297776
3017.51	0.161037
3018.8	0.452864
3020.09	0.00736427
3021.38	0.242958
3022.67	-0.00876045
3023.96	-0.0251865
3025.25	0.345806
3026.54	0.120256
3027.83	-0.159755
3029.12	0.266929
3030.41	-0.424627
3031.69	0.391327
3032.98	0.0756931
3034.27	0.022809
3035.56	0.576392
3036.85	-0.319646
3038.13	0.285365
3039.42	0.364289
3040.71	0.083971
3041.99	-0.347588
3043.28	0.0443325
3044.57	-0.111489
3045.85	-0.0875406
3047.14	-0.00680351
3048.42	0.0898676
3049.71	-0.275386
3050.99	0.534674
3052.28	-0.0190611
3053.56	-0.217963
3054.85	-0.0218477
3056.13	-0.00418854
3057.42	0.284955
3058.7	0.314072
3059.98	0.274758
3061.27	0.181418
3062.55	-0.0468569
3063.83	0.161537
3065.11	0.181108
3066.4	0.460433
3067.68	0.183396
3068.96	0.165073
3070.24	-0.0167341
3071.52	0.630184
3072.8	0.0653706
3074.09	0.152027
3075.37	-0.0749054
3076.65	0.268391
3077.93	-0.12123
3079.21	0.413191
3080.49	0.162122
3081.77	0.0890846
3083.05	0.45147
3084.32	-0.026557
3085.61	0.39103
3086.88	0.52319
3088.16	0.315228
3089.44	0.215088
3090.72	0.033041
3092	0.0408192
3093.27	-0.385301
3094.55	0.0298185
3095.83	-0.205754
3097.11	0.0739689
3098.38	0.407714
3099.66	-0.098959
3100.94	0.220838
3102.21	0.0258908
3103.49	-0.0739098
3104.76	-0.105471
3106.04	0.269722
3107.31	0.118028
3108.59	-0.222058
3109.86	-0.195684
3111.14	0.210817
3112.41	0.455861
3113.69	0.322104
3114.96	0.201788
3116.23	0.243603
3117.51	0.230255
3118.78	0.242857
3120.05	0.308496
3121.33	0.332403
3122.6	-0.0238271
3123.87	0.500486
3125.14	0.225666
3126.42	0.465831
3127.69	0.395229
3128.96	0.866216
3130.23	-0.0418487
3131.5	0.334846
3132.77	-0.234724
3134.04	0.397841
3135.31	0.502742
3136.58	0.215644
3137.85	-0.0985999
3139.12	1.04207
3140.39	0.632807
3141.66	0.0763559
3142.93	0.569169
3144.2	0.618613
3145.47	0.346679
3146.74	0.102659
3148	0.931378
3149.27	0.246777
