200.388	0.424442
202.204	0.466946
204.019	0.510489
205.832	-0.320162
207.646	0.187387
209.459	-0.0111008
211.274	-0.308296
213.087	0.46068
214.899	0.207994
216.711	-0.287781
218.524	-0.153166
220.335	-0.429476
222.146	0.04566
223.956	-0.832386
225.766	0.200277
227.576	0.0242329
229.388	-0.297195
231.197	0.201231
233.005	0.433174
234.813	0.64115
236.621	-0.0652561
238.429	-0.0452976
240.236	0.0506191
242.045	-0.28404
243.852	0.0583649
245.658	0.738813
247.464	0.0170097
249.269	0.328974
251.074	-0.474648
252.879	0.576229
254.683	0.0311089
256.487	0.136637
258.291	0.628681
260.094	0.424107
261.897	-0.187057
263.702	0.384695
265.504	-0.0539036
267.306	0.0379581
269.108	-0.0394726
270.909	-0.166508
272.71	-0.536543
274.511	0.417238
276.311	0.669092
278.111	-0.16659
279.91	0.295889
281.709	0.441637
283.508	-0.0892601
285.306	-0.0208893
287.105	0.766037
288.9	-0.942504
290.698	0.41942
292.495	-0.636694
294.291	0.344088
296.088	0.226107
297.884	-0.129206
299.679	-0.364153
301.475	0.212776
303.27	0.644682
305.064	-0.286096
306.858	-0.0487528
308.652	0.0686016
310.444	0.972708
312.237	0.448754
314.03	0.80855
315.822	0.480515
317.615	0.369438
319.406	1.14202
321.198	1.05897
322.987	1.69236
324.778	1.82609
326.568	1.38705
328.358	1.80708
330.148	2.51332
331.935	2.33324
333.724	2.34146
335.513	1.79559
337.301	1.43718
339.089	0.644693
340.875	1.54801
342.662	0.895332
344.449	0.84032
346.236	0.642672
348.02	0.684879
349.806	0.441309
351.592	0.627435
353.375	0.168254
355.16	0.828835
356.944	0.437624
358.728	0.807211
360.51	1.1744
362.294	0.706583
364.077	0.57107
365.858	0.648365
367.64	0.486848
369.422	0.822151
371.202	1.03686
372.983	1.1079
374.764	1.81614
376.543	2.56995
378.324	3.13425
380.102	3.60471
381.881	4.42944
383.661	5.25533
385.438	5.401
387.216	5.90146
388.993	6.35687
390.771	5.78073
392.548	6.35719
394.324	5.57281
396.101	5.3998
397.875	4.38146
399.651	3.78546
401.425	3.68181
403.201	2.73143
404.974	3.35331
406.749	2.40033
408.524	2.38566
410.296	1.38447
412.07	0.970362
413.841	1.49554
415.614	1.38818
417.385	0.859683
419.156	1.34114
420.928	-0.0545359
422.698	0.802452
424.469	0.78991
426.238	0.282856
428.009	0.0327168
429.777	-0.00697136
431.548	0.586913
433.315	0.570885
435.083	0.273681
436.852	-0.0001297
438.618	0.358659
440.387	0.550911
442.153	0.247344
443.919	0.667462
445.686	0.826347
447.451	0.725497
449.218	0.132879
450.982	0.265629
452.746	1.54244
454.512	0.811471
456.275	-0.0116329
458.038	-0.135059
459.803	0.0907574
461.565	-0.101439
463.327	0.63845
465.091	-0.52398
466.852	-0.28792
468.613	0.0683432
470.374	0.683563
472.136	0.625698
473.896	0.38039
475.655	0.73773
477.415	0.392962
479.176	-0.0712843
480.934	0.627512
482.692	0.511119
484.45	0.745779
486.21	0.960173
487.967	0.24579
489.724	0.839804
491.481	1.10956
493.237	1.42759
494.995	0.904657
496.75	1.48075
498.506	1.65913
500.26	1.27425
502.015	2.08462
503.771	1.67341
505.525	2.78741
507.279	3.38294
509.032	3.17637
510.785	3.41383
512.537	3.43664
514.289	4.60963
516.041	4.01524
517.793	4.12437
519.546	4.60758
521.297	4.31347
523.047	4.08915
524.797	4.42793
526.547	3.96869
528.297	3.53341
530.046	3.94205
531.795	4.39635
533.543	3.98252
535.291	2.98227
537.039	2.3784
538.787	2.26345
540.534	1.93676
542.281	1.5861
544.027	1.53802
545.773	1.09492
547.519	1.02447
549.264	1.27911
551.01	1.8577
552.754	1.44064
554.499	0.793703
556.243	0.702502
557.987	1.48837
559.73	1.09853
561.474	0.664218
563.216	0.944576
564.959	0.374965
566.701	0.473254
568.441	0.618581
570.182	-0.014864
571.923	0.937161
573.664	-0.196022
575.405	0.325209
577.145	0.734481
578.885	0.480442
580.624	0.503029
582.361	0.732665
584.1	0.731823
585.839	0.131433
587.577	-0.0571756
589.315	0.718576
591.052	0.31954
592.787	1.3001
594.524	1.52109
596.26	0.660808
597.997	0.99685
599.732	1.07926
601.466	2.54056
603.201	1.53834
604.936	1.82168
606.67	1.59701
608.403	1.14153
610.136	0.961675
611.87	0.989195
613.603	0.284261
615.334	0.704041
617.067	0.642687
618.799	0.969952
620.529	0.219373
622.26	0.542869
623.991	-0.00416756
625.72	0.683078
627.451	0.297976
629.181	0.121645
630.909	0.0174932
632.638	0.555454
634.368	-0.000199318
636.095	0.44799
637.823	0.0490494
639.551	0.718733
641.277	-0.167817
643.005	0.310459
644.73	-0.398109
646.457	0.123317
648.184	-0.330791
649.908	-0.143536
651.634	0.481115
653.357	0.112011
655.083	0.430113
656.806	0.00107098
658.53	-0.586804
660.253	0.534852
661.977	0.286059
663.7	0.170467
665.422	-0.406211
667.145	-0.277263
668.865	-0.149488
670.588	0.528237
672.308	-0.163684
674.027	-0.0511427
675.749	0.523304
677.468	-0.298637
679.188	0.279068
680.907	0.741532
682.627	-0.270393
684.345	-0.343051
686.064	0.52534
687.781	0.124953
689.498	-0.162068
691.216	0.309908
692.932	-0.39382
694.65	-0.0621176
696.366	0.245008
698.081	0.780355
699.797	0.461895
701.512	0.371924
703.228	0.740213
704.942	0.0503855
706.655	0.00335789
708.371	-0.11306
710.083	0.892908
711.796	0.179572
713.51	0.0159254
715.222	0.0351067
716.934	-0.219824
718.645	1.46485
720.358	0.822016
722.068	0.362772
723.779	0.882791
725.49	0.378704
727.2	0.919922
728.909	1.02834
730.618	0.183656
732.329	1.03864
734.037	0.0363083
735.745	0.731275
737.453	-0.200415
739.16	0.449864
740.869	0.920138
742.576	0.941105
744.282	1.32441
745.988	0.651939
747.694	0.544578
749.401	1.1366
751.107	1.23578
752.811	0.144906
754.516	1.71054
756.22	2.01916
757.924	2.37565
759.627	2.10423
761.332	2.64603
763.035	3.03169
764.738	4.18528
766.44	5.11254
768.142	6.10522
769.843	6.77773
771.544	7.83068
773.245	8.22477
774.946	8.8438
776.646	8.49165
778.346	8.5267
780.046	8.74611
781.745	8.38002
783.444	7.56157
785.143	6.60461
786.841	5.52957
788.539	4.8561
790.237	3.90556
791.934	3.35815
793.631	2.71845
795.328	2.71104
797.024	1.46549
798.72	2.52174
800.416	2.29667
802.112	1.57928
803.807	1.65079
805.502	1.1376
807.196	2.06171
808.89	1.59065
810.584	1.54471
812.278	1.07128
813.971	1.89725
815.664	1.46777
817.354	1.32975
819.047	0.99091
820.739	1.01019
822.43	0.829189
824.122	1.1402
825.813	0.829006
827.503	0.833172
829.192	1.5096
830.882	0.988071
832.571	1.20595
834.261	0.736385
835.95	0.535593
837.637	1.62881
839.325	0.868185
841.013	1.35539
842.701	1.12584
844.389	0.537823
846.074	1.00103
847.761	0.371561
849.447	0.505791
851.131	0.532043
852.817	0.606171
854.503	0.121044
856.188	0.959972
857.871	0.44998
859.556	0.319168
861.24	0.478186
862.922	0.815155
864.606	0.834927
866.289	1.01108
867.97	0.600061
869.653	0.503916
871.336	0.723064
873.016	-0.208593
874.698	-0.0575638
876.379	1.06392
878.058	0.357601
879.739	0.079855
881.418	0.952873
883.098	-1.31308
884.778	0.573208
886.456	0.357933
888.135	0.208082
889.812	0.0334377
891.49	0.442707
893.167	0.0386696
894.845	0.713554
896.523	-0.120623
898.198	-0.146154
899.875	0.0961323
901.55	-0.0890255
903.226	-0.274609
904.901	0.366924
906.576	0.0696659
908.25	-0.515732
909.925	-0.0072937
911.598	0.746176
913.271	-0.278761
914.945	0.0310783
916.617	-0.0588264
918.291	0.338919
919.962	-0.570267
921.635	0.735218
923.306	0.117174
924.978	0.783718
926.648	0.370546
928.318	0.62254
929.989	0.457117
931.659	0.734171
933.328	-0.245806
934.998	0.980494
936.666	0.178137
938.336	1.05333
940.004	0.32044
941.671	0.361382
943.34	0.028429
945.007	0.158688
946.673	0.971643
948.339	-0.425541
950.007	-0.170052
951.672	0.392294
953.337	0.226471
955.004	0.393806
956.669	-0.118227
958.333	0.521545
959.997	0.415941
961.662	-0.106909
963.326	-0.586338
964.989	-0.338898
966.651	0.546432
968.315	-0.607874
969.977	-0.128176
971.639	-0.446314
973.301	0.62952
974.962	0.491125
976.624	-0.15307
978.285	-0.219971
979.945	-0.097702
981.605	0.0241375
983.264	0.0222816
984.924	-0.181753
986.583	0.629194
988.243	0.352678
989.901	-0.27939
991.56	0.546816
993.217	0.532463
994.875	-0.585455
996.532	-0.00311279
998.188	-0.325462
999.845	0.233698
1001.5	0.637421
1003.16	0.555786
1004.81	-0.471891
1006.47	0.611382
1008.12	0.375696
1009.78	-0.232199
1011.43	0.959694
1013.09	0.923515
1014.74	1.01948
1016.39	0.656286
1018.05	0.841335
1019.7	1.24624
1021.35	1.36837
1023	2.03876
1024.65	2.81986
1026.31	3.64559
1027.96	5.21412
1029.61	5.01149
1031.26	5.833
1032.91	5.51543
1034.56	6.11109
1036.21	6.33238
1037.86	5.59295
1039.51	4.48439
1041.16	4.46638
1042.8	4.01618
1044.45	4.48237
1046.1	4.51763
1047.75	4.1223
1049.39	3.23077
1051.04	3.08002
1052.69	2.56146
1054.33	2.52144
1055.98	2.52493
1057.62	2.11489
1059.27	2.81273
1060.91	1.13947
1062.56	1.37827
1064.2	0.724049
1065.85	0.69873
1067.49	0.64991
1069.13	0.751614
1070.77	0.808706
1072.42	0.822083
1074.06	1.55225
1075.7	2.15351
1077.34	2.49656
1078.98	3.64414
1080.62	3.55713
1082.27	4.51101
1083.91	5.1379
1085.55	5.43616
1087.18	5.66503
1088.82	5.58612
1090.46	6.13107
1092.1	7.01835
1093.74	6.4558
1095.38	5.85152
1097.02	5.68114
1098.65	4.39375
1100.29	3.5852
1101.93	3.14694
1103.56	3.29321
1105.2	1.97931
1106.84	2.0218
1108.47	1.37567
1110.11	1.09347
1111.74	1.28166
1113.38	1.01579
1115.01	0.812515
1116.64	0.822981
1118.28	0.704958
1119.91	0.9524
1121.54	0.173422
1123.18	0.253075
1124.81	0.676615
1126.44	0.844671
1128.07	1.63412
1129.7	0.842333
1131.33	0.77862
1132.97	0.116882
1134.6	0.245991
1136.23	0.352726
1137.86	0.158613
1139.49	0.923876
1141.11	0.768761
1142.74	0.207472
1144.37	0.350752
1146	0.409729
1147.63	0.107941
1149.26	0.532148
1150.88	0.317991
1152.51	0.018816
1154.14	0.145054
1155.76	-0.836126
1157.39	0.140493
1159.01	0.627861
1160.64	0.265778
1162.27	-0.0518456
1163.89	-0.0913754
1165.51	0.231413
1167.14	-0.275349
1168.76	0.364363
1170.39	1.42621
1172.01	0.805634
1173.63	0.713499
1175.25	0.683029
1176.88	0.609282
1178.5	1.12906
1180.12	1.88206
1181.74	0.456758
1183.36	0.19714
1184.98	1.18462
1186.6	0.691242
1188.22	0.195921
1189.84	0.899748
1191.46	0.819855
1193.08	1.07399
1194.7	1.07403
1196.32	1.38854
1197.94	1.11746
1199.55	0.0761337
1201.17	0.628769
1202.79	0.871721
1204.41	0.993568
1206.02	0.701712
1207.64	0.474836
1209.25	1.10382
1210.87	1.71049
1212.48	1.14639
1214.1	1.66261
1215.71	1.11232
1217.33	0.497448
1218.94	0.630154
1220.56	0.700058
1222.17	1.28938
1223.79	1.05088
1225.4	1.08448
1227.01	1.01713
1228.62	1.09701
1230.23	1.36505
1231.85	1.32491
1233.46	1.43152
1235.07	1.60224
1236.68	2.06442
1238.29	1.49488
1239.9	1.38122
1241.51	1.41264
1243.12	1.38149
1244.73	1.287
1246.34	1.17011
1247.94	0.617002
1249.55	2.06967
1251.16	1.63886
1252.77	0.463839
1254.37	1.48261
1255.98	1.22074
1257.59	1.93318
1259.2	1.90299
1260.8	1.23265
1262.41	1.39094
1264.01	1.05228
1265.62	1.29298
1267.22	1.1388
1268.83	1.2318
1270.43	0.97064
1272.03	1.91032
1273.64	1.60423
1275.24	1.29654
1276.85	1.29829
1278.45	2.06511
1280.05	1.81567
1281.65	1.44171
1283.25	1.06823
1284.85	2.0401
1286.46	1.48299
1288.06	1.1966
1289.66	1.69712
1291.26	2.1571
1292.86	2.03838
1294.46	2.24899
1296.06	2.80844
1297.66	1.44481
1299.25	1.66841
1300.85	1.62117
1302.45	1.96329
1304.05	2.07677
1305.65	7.61648
1307.24	7.90654
1308.84	8.03115
1310.43	7.66362
1312.03	1.89293
1313.63	1.59594
1315.22	1.26028
1316.82	1.35553
1318.41	0.370274
1320.01	1.26197
1321.6	1.56011
1323.2	0.797014
1324.79	1.51663
1326.38	1.11561
1327.98	0.998507
1329.57	1.06472
1331.16	1.57823
1332.76	1.64978
1334.35	1.11924
1335.94	1.15711
1337.53	1.05474
1339.12	0.911217
1340.71	1.71197
1342.3	1.64256
1343.89	1.73078
1345.48	0.552059
1347.07	1.70225
1348.66	1.39036
1350.25	1.5434
1351.84	1.22046
1353.43	0.801281
1355.01	1.38392
1356.6	1.16763
1358.19	0.830948
1359.77	1.21188
1361.36	1.51088
1362.95	0.531467
1364.53	1.18735
1366.12	0.487949
1367.71	0.865903
1369.29	0.289933
1370.88	0.373271
1372.46	0.856718
1374.04	0.406715
1375.63	0.395557
1377.21	-0.212372
1378.8	0.790773
1380.38	0.717783
1381.96	0.5035
1383.54	1.26167
1385.13	1.28211
1386.71	0.427572
1388.29	0.427941
1389.87	0.985109
1391.45	0.789277
1393.03	0.396472
1394.61	0.79784
1396.19	0.306462
1397.77	0.86489
1399.35	1.4015
1400.93	0.807123
1402.51	1.32087
1404.09	0.211688
1405.67	1.10159
1407.24	0.825909
1408.82	0.709882
1410.4	0.575034
1411.98	0.874659
1413.55	0.126964
1415.13	1.17399
1416.71	1.98195
1418.28	0.699084
1419.86	1.44709
1421.43	1.23125
1423.01	2.00236
1424.58	2.08707
1426.16	2.09525
1427.73	2.04537
1429.31	3.33351
1430.88	3.36034
1432.45	3.4441
1434.02	3.46699
1435.6	3.56765
1437.17	3.62925
1438.74	3.77074
1440.31	3.20649
1441.88	3.19434
1443.45	2.8297
1445.03	2.91778
1446.6	3.12411
1448.17	3.01622
1449.74	2.88912
1451.3	2.92007
1452.87	2.79464
1454.44	2.59114
1456.01	3.43033
1457.58	2.85185
1459.15	2.38916
1460.72	2.19906
1462.28	2.49772
1463.85	2.73433
1465.42	2.08428
1466.98	2.16109
1468.55	0.785495
1470.12	1.78717
1471.68	1.8875
1473.25	1.75419
1474.81	0.994751
1476.38	1.33422
1477.94	1.00723
1479.51	1.17026
1481.07	1.25468
1482.63	1.24095
1484.2	0.619589
1485.76	0.899051
1487.32	1.37304
1488.88	0.885286
1490.45	1.47122
1492.01	1.15337
1493.57	1.24268
1495.13	0.938585
1496.69	1.47126
1498.25	0.892887
1499.81	0.608345
1501.37	0.792087
1502.93	1.22945
1504.49	0.291791
1506.05	0.324203
1507.61	-0.0891819
1509.17	0.153552
1510.73	-0.0691719
1512.28	-0.234902
1513.84	0.657738
1515.4	0.664089
1516.96	-0.40378
1518.51	0.430516
1520.07	0.267823
1521.63	0.35459
1523.18	0.555373
1524.74	0.697186
1526.29	0.570093
1527.85	0.841703
1529.4	0.0848255
1530.96	0.0895052
1532.51	0.227658
1534.06	0.00697327
1535.62	0.299129
1537.17	0.573213
1538.72	0.394817
1540.28	-0.0466032
1541.83	0.210027
1543.38	0.334258
1544.93	-0.0309143
1546.48	0.149005
1548.03	0.853654
1549.59	0.432134
1551.14	0.367515
1552.69	1.29524
1554.24	1.02657
1555.79	0.23757
1557.34	0.702893
1558.88	0.443134
1560.43	0.447639
1561.98	0.56656
1563.53	0.575319
1565.08	1.21939
1566.62	0.781447
1568.17	1.1829
1569.72	0.557225
1571.27	1.33084
1572.81	0.853322
1574.36	0.916896
1575.9	1.29783
1577.45	1.41773
1579	0.978208
1580.54	1.23039
1582.09	1.53991
1583.63	1.08499
1585.17	1.50928
1586.72	1.01861
1588.26	1.05145
1589.8	1.34598
1591.35	1.39669
1592.89	1.7088
1594.43	1.10282
1595.97	1.58317
1597.52	1.80206
1599.06	1.68467
1600.6	1.53078
1602.14	1.58394
1603.68	1.58081
1605.22	1.98994
1606.76	1.47634
1608.3	1.54207
1609.84	1.60413
1611.38	1.32423
1612.92	1.11649
1614.46	1.03826
1615.99	1.09067
1617.53	0.993704
1619.07	1.08594
1620.61	0.730933
1622.14	0.827604
1623.68	1.01914
1625.22	1.17327
1626.75	1.30749
1628.29	0.20483
1629.82	1.41979
1631.36	1.82813
1632.9	1.11457
1634.43	0.96229
1635.96	1.38976
1637.5	1.38934
1639.03	1.66957
1640.57	1.70742
1642.1	1.74428
1643.63	1.27661
1645.16	2.01713
1646.7	2.23445
1648.23	2.15356
1649.76	2.83466
1651.29	2.10614
1652.82	1.58445
1654.36	2.95617
1655.89	2.12241
1657.42	2.62318
1658.95	1.974
1660.48	2.43405
1662.01	2.24363
1663.53	1.49697
1665.06	2.09887
1666.59	2.46037
1668.12	2.15915
1669.65	2.06345
1671.18	2.1361
1672.7	1.47373
1674.23	2.00948
1675.76	1.67934
1677.29	1.25611
1678.81	1.58576
1680.34	1.38017
1681.86	1.57781
1683.39	1.27883
1684.91	1.01699
1686.44	1.37954
1687.96	0.862572
1689.49	0.548282
1691.01	1.05863
1692.54	0.250935
1694.06	1.0353
1695.58	0.776507
1697.11	1.12056
1698.63	0.331446
1700.15	0.327368
1701.67	0.340721
1703.2	0.571859
1704.72	0.127975
1706.24	0.666626
1707.76	0.549426
1709.28	-0.00368023
1710.8	0.260944
1712.32	0.616015
1713.84	0.282266
1715.36	0.275005
1716.88	-0.0036869
1718.4	0.38658
1719.91	-0.361594
1721.43	0.118613
1722.95	-0.0862284
1724.47	-0.23526
1725.99	0.158021
1727.5	0.678968
1729.02	-0.0405397
1730.54	0.086937
1732.05	0.247622
1733.57	-0.000811577
1735.09	0.119967
1736.6	-0.0621347
1738.12	-0.359444
1739.63	-0.00481033
1741.15	-0.258012
1742.66	0.447573
1744.18	-0.0946484
1745.69	-0.0427465
1747.2	0.19079
1748.72	-0.0715275
1750.23	-0.181681
1751.74	-0.211741
1753.25	0.256024
1754.77	0.692306
1756.28	0.410874
1757.79	0.507908
1759.3	-0.189607
1760.81	0.631935
1762.32	0.301421
1763.83	-0.383713
1765.34	-0.329018
1766.85	-0.216341
1768.36	0.0259352
1769.87	-0.46786
1771.38	-0.0242338
1772.89	0.458734
1774.4	0.353663
1775.91	0.145052
1777.41	0.443254
1778.92	0.0722275
1780.43	0.1271
1781.94	0.0166264
1783.44	0.194002
1784.95	0.663166
1786.45	0.566181
1787.96	0.0547504
1789.47	0.456249
1790.97	0.230603
1792.48	-0.0597515
1793.98	-0.196059
1795.48	-0.0263376
1796.99	-0.148688
1798.49	0.240121
1800	-0.0459642
1801.5	-0.158426
1803	-0.0989561
1804.51	0.64031
1806.01	-0.0815725
1807.51	0.499516
1809.01	0.520741
1810.51	0.27599
1812.02	-0.210238
1813.52	0.0832834
1815.02	0.0570526
1816.52	0.0460539
1818.02	-0.04638
1819.52	-0.179152
1821.02	-0.23315
1822.52	-0.12772
1824.02	0.440946
1825.51	0.162074
1827.01	0.314762
1828.51	0.176576
1830.01	0.334498
1831.51	0.418116
1833	-0.0434933
1834.5	0.193495
1836	-0.152064
1837.5	0.581188
1838.99	0.289136
1840.49	0.0573711
1841.98	0.326529
1843.48	0.23673
1844.97	0.559621
1846.47	0.210196
1847.96	0.391489
1849.46	0.128474
1850.95	0.0199385
1852.45	0.0648623
1853.94	0.324308
1855.43	0.442319
1856.92	-0.313826
1858.42	-0.214955
1859.91	-0.241567
1861.4	0.102949
1862.89	0.381039
1864.39	0.0575895
1865.88	0.194831
1867.37	0.344625
1868.86	0.165885
1870.35	0.169509
1871.84	0.401708
1873.33	-0.225766
1874.82	0.125155
1876.31	0.394069
1877.8	0.0253706
1879.29	0.283857
1880.77	0.152992
1882.26	0.0387802
1882.51	0.026083
1884	0.861186
1885.5	0.492087
1886.99	0.330998
1888.48	0.0474491
1889.98	-0.409523
1891.47	0.126591
1892.97	0.00398922
1894.46	0.0231552
1895.95	0.11413
1897.44	0.258542
1898.93	-0.24076
1900.42	0.667497
1901.92	0.529563
1903.41	-0.0109959
1904.9	-0.240393
1906.39	0.102627
1907.88	-0.0410023
1909.37	0.927244
1910.86	0.0222158
1912.35	0.281283
1913.84	0.228893
1915.32	-0.360898
1916.81	0.0892792
1918.3	-0.189503
1919.79	-0.260859
1921.28	0.23927
1922.76	0.0643597
1924.25	1.05074
1925.74	0.394056
1927.22	0.656527
1928.71	0.365969
1930.2	-0.167132
1931.68	0.0778103
1933.17	0.164787
1934.65	0.162575
1936.14	0.0886841
1937.62	0.341629
1939.11	-0.166719
1940.59	-0.155974
1942.08	0.615299
1943.56	0.335142
1945.04	0.0564947
1946.53	-0.014554
1948.01	0.344944
1949.49	0.169057
1950.97	-0.18031
1952.45	0.106035
1953.94	0.305173
1955.42	0.0571308
1956.9	0.307973
1958.38	-0.24713
1959.86	0.0914202
1961.34	0.258992
1962.82	0.289598
1964.3	-0.0398865
1965.78	0.00693893
1967.26	-0.0328655
1968.74	-0.398563
1970.22	0.346396
1971.69	0.61165
1973.17	-0.0793962
1974.65	-0.138245
1976.13	0.331607
1977.61	0.0516243
1979.08	-0.176778
1980.56	0.309499
1982.03	-0.157047
1983.51	0.378807
1984.99	0.115613
1986.46	-0.707236
1987.94	0.131965
1989.41	0.157481
1990.89	-0.289901
1992.36	-0.177268
1993.84	0.240977
1995.31	0.676985
1996.78	0.4714
1998.26	0.434778
1999.73	-0.0245171
2001.2	0.140046
2002.68	0.522982
2004.15	0.214138
2005.62	0.226232
2007.09	0.0204258
2008.56	-0.150197
2010.04	0.11822
2011.51	-0.117672
2012.98	0.0168571
2014.45	0.352683
2015.92	-0.103512
2017.39	0.448349
2018.86	0.477398
2020.33	0.102329
2021.8	0.936548
2023.27	0.293324
2024.74	0.624978
2026.2	0.0188475
2027.67	0.0355892
2029.14	0.356402
2030.61	0.712829
2032.07	0.366098
2033.54	0.0702257
2035.01	-0.00756168
2036.47	0.955573
2037.94	0.473369
2039.41	-0.110504
2040.87	0.683725
2042.34	0.453202
2043.8	0.257296
2045.27	0.500067
2046.73	0.592684
2048.2	0.63533
2049.66	0.643827
2051.12	0.111289
2052.59	0.453115
2054.05	0.303247
2055.51	0.437475
2056.98	0.704441
2058.44	0.801481
2059.9	0.712898
2061.36	0.204058
2062.82	0.353203
2064.29	0.150347
2065.75	0.655805
2067.21	0.0686255
2068.67	0.49208
2070.13	0.545772
2071.59	0.818433
2073.05	1.05727
2074.51	0.841095
2075.97	1.44954
2077.43	0.659697
2078.88	0.542854
2080.34	0.56005
2081.8	0.256522
2083.26	0.743259
2084.72	0.673313
2086.17	0.46773
2087.63	1.3543
2089.09	0.760465
2090.54	1.12435
2092	1.35343
2093.46	0.827042
2094.91	1.40767
2096.37	1.08181
2097.82	0.889314
2099.28	0.763083
2100.73	0.987732
2102.19	1.14551
2103.64	1.57151
2105.09	0.780688
2106.55	1.09378
2108	1.14143
2109.46	1.27298
2110.91	1.48699
2112.36	1.51548
2113.81	1.69113
2115.27	1.23166
2116.72	1.33678
2118.17	1.65812
2119.62	2.04744
2121.07	1.49378
2122.52	1.37482
2123.97	1.97124
2125.42	2.17064
2126.87	1.87221
2128.32	1.82092
2129.77	1.5852
2131.22	1.977
2132.67	2.44984
2134.12	2.5912
2135.57	2.10539
2137.01	1.87027
2138.46	3.22471
2139.91	1.93795
2141.36	2.15775
2142.8	2.67724
2144.25	2.58612
2145.7	2.26346
2147.14	3.19838
2148.59	3.27166
2150.03	3.92333
2151.48	3.62905
2152.92	3.26671
2154.37	3.61541
2155.81	2.95267
2157.26	3.16812
2158.7	2.37429
2160.15	3.53735
2161.59	3.42789
2163.03	3.68626
2164.48	3.68214
2165.92	4.4432
2167.36	3.4275
2168.8	3.7885
2170.25	3.88069
2171.69	3.68645
2173.13	3.15607
2174.57	4.03726
2176.01	3.81952
2177.45	3.83496
2178.89	3.70209
2180.33	2.85602
2181.77	3.47451
2183.21	2.83031
2184.65	3.86626
2186.09	3.27241
2187.53	3.75992
2188.97	2.81644
2190.41	3.10434
2191.84	2.69267
2193.28	3.02894
2194.72	2.9135
2196.16	2.89495
2197.59	2.98957
2199.03	2.68215
2200.47	2.50632
2201.9	2.87837
2203.34	2.68686
2204.78	2.64662
2206.21	2.27666
2207.65	2.73622
2209.08	2.73144
2210.51	2.06335
2211.95	2.45301
2213.38	1.96489
2214.82	1.65891
2216.25	1.76694
2217.68	2.61899
2219.12	1.97162
2220.55	2.3812
2221.98	2.13152
2223.42	1.38663
2224.85	1.48008
2226.28	2.64031
2227.71	1.85597
2229.14	1.41595
2230.57	1.84513
2232	1.40447
2233.43	1.70182
2234.86	1.18211
2236.29	1.40036
2237.72	1.66967
2239.15	1.38686
2240.58	1.35208
2242.01	1.49952
2243.44	1.73045
2244.87	1.26062
2246.3	1.32804
2247.73	1.32779
2249.15	1.37312
2250.58	1.26832
2252.01	1.11211
2253.43	0.841048
2254.86	0.652142
2256.29	0.920219
2257.71	0.85075
2259.14	0.753151
2260.56	0.93576
2261.99	0.76506
2263.41	0.515386
2264.84	0.899688
2266.26	0.812378
2267.69	0.707513
2269.11	1.00803
2270.54	0.656389
2271.96	1.11793
2273.38	0.846528
2274.81	0.591413
2276.23	1.03712
2277.65	0.63583
2279.07	0.136613
2280.49	0.860049
2281.92	0.653955
2283.34	0.773925
2284.76	0.910336
2286.18	1.07979
2287.6	1.29888
2289.02	-0.196237
2290.44	-0.270308
2291.86	0.783909
2293.28	0.0402584
2294.7	0.293975
2296.12	0.465949
2297.54	0.605236
2298.96	0.89216
2300.38	0.0487204
2301.79	1.00864
2303.21	0.788724
2304.63	0.0927954
2306.05	0.906973
2307.46	0.439818
2308.88	0.464595
2310.3	0.603625
2311.71	0.166432
2313.13	0.568067
2314.55	0.427384
2315.96	0.155931
2317.38	0.70911
2318.79	0.274498
2320.21	0.00401306
2321.62	0.55674
2323.03	0.842972
2324.45	0.4491
2325.86	1.05843
2327.27	1.16997
2328.69	0.901137
2330.1	0.171681
2331.51	0.333273
2332.93	-0.178415
2334.34	0.101206
2335.75	0.13431
2337.16	0.643705
2338.57	0.756758
2339.99	0.194276
2341.4	0.156539
2342.81	0.347846
2344.22	0.0468473
2345.63	-0.105865
2347.04	0.642879
2348.45	0.163072
2349.86	0.304952
2351.26	0.0858755
2352.67	0.715016
2354.08	0.558379
2355.49	-0.0390825
2356.9	0.504004
2358.31	-0.108948
2359.71	-0.0867653
2361.12	0.600955
2362.53	-0.0909014
2363.94	0.271272
2365.34	0.37373
2366.75	0.1207
2368.15	0.0789471
2369.56	-0.251618
2370.97	0.371261
2372.37	-0.309637
2373.78	-0.00612831
2375.18	-0.362267
2376.59	-0.284202
2377.99	0.194287
2379.39	0.509214
2380.8	-0.254393
2382.2	-0.0242939
2383.61	0.396157
2385.01	0.543299
2386.41	0.355145
2387.81	0.16874
2389.22	0.0801191
2390.62	-0.102116
2392.02	0.163377
2393.42	0.445921
2394.82	0.522666
2396.22	0.0439806
2397.63	-0.369882
2399.02	-0.178914
2400.43	-0.257387
2401.82	-0.160666
2403.23	-0.0321407
2404.62	0.191086
2406.02	-0.126734
2407.42	0.331835
2408.82	-0.146878
2410.22	0.16697
2411.62	0.0847235
2413.02	0.00372028
2414.41	-0.281229
2415.81	0.512486
2417.21	0.0416269
2418.61	-0.0163107
2420	0.211329
2421.4	0.375549
2422.79	0.238288
2424.19	0.449168
2425.59	-0.0687542
2426.98	0.206352
2428.38	0.0230942
2429.77	0.808518
2431.17	0.294579
2432.56	0.209015
2433.96	0.376728
2435.35	0.368168
2436.74	0.0555544
2438.14	0.392106
2439.53	0.313659
2440.92	0.583257
2442.32	0.35975
2443.71	0.199455
2445.1	0.530731
2446.49	0.290733
2447.88	0.0190544
2449.28	0.476243
2450.67	0.616694
2452.06	0.536243
2453.45	0.172189
2454.84	-0.332835
2456.23	0.00165653
2457.62	0.225838
2459.01	-0.119627
2460.4	0.214194
2461.79	-0.164762
2463.18	0.166617
2464.57	0.259912
2465.96	0.194756
2467.34	-0.344044
2468.73	-0.0304155
2470.12	0.440347
2471.51	-0.177645
2472.89	0.511601
2474.28	0.348727
2475.67	0.421084
2477.05	0.225569
2478.44	0.203038
2479.83	-0.00752449
2481.21	0.111765
2482.6	0.559793
2483.98	0.114101
2485.37	0.34044
2486.75	0.595899
2488.14	-0.227575
2489.52	0.0408335
2490.9	-0.283113
2492.29	0.840139
2493.67	-0.195937
2495.06	-0.173121
2496.44	-0.303558
2497.82	0.791039
2499.2	0.537918
2500.59	-0.179362
2501.97	-0.324818
2503.35	0.208008
2504.73	0.414557
2506.11	0.527291
2507.49	-0.0224056
2508.88	0.0288715
2510.26	0.00385571
2511.63	-0.0201797
2513.01	0.0489092
2514.39	-0.40164
2515.77	-0.161536
2517.15	-0.348955
2518.53	-0.0614405
2519.91	-0.308804
2521.29	0.772459
2522.67	0.279359
2524.05	0.0144644
2525.42	-0.0529385
2526.8	-0.029254
2528.18	-0.126761
2529.56	-0.0705366
2530.93	0.38304
2532.31	-0.0577049
2533.69	0.141779
2535.06	-0.189452
2536.44	-0.156094
2537.81	0.742199
2539.19	0.195957
2540.56	0.104273
2541.94	0.710268
2543.31	0.345223
2544.69	0.345675
2546.06	-0.167777
2547.44	-0.133405
2548.81	0.144924
2550.18	0.377965
2551.56	0.0943899
2552.93	0.386162
2554.3	0.767432
2555.68	-0.112041
2557.05	0.327687
2558.42	0.372725
2559.79	0.0391417
2561.16	0.100536
2562.53	0.405308
2563.9	0.119899
2565.28	0.456449
2566.64	0.156887
2568.02	0.418187
2569.38	0.0126581
2570.76	0.304301
2572.12	-0.0860615
2573.49	0.342219
2574.86	0.0126991
2576.23	-0.0439157
2577.6	0.490674
2578.97	0.145553
2580.34	0.285121
2581.7	0.287628
2583.07	-0.0288095
2584.44	0.579223
2585.81	0.201757
2587.17	0.370182
2588.54	0.508548
2589.91	-0.337989
2591.27	0.391388
2592.64	0.347205
2594	0.680571
2595.37	0.633622
2596.73	0.358109
2598.1	0.142206
2599.46	0.379563
2600.83	0.0728159
2602.19	0.265496
2603.55	0.836359
2604.92	0.381512
2606.28	-0.163212
2607.64	0.136422
2609.01	-0.0175571
2610.37	-0.368896
2611.73	0.54264
2613.09	0.263001
2614.46	0.373297
2615.82	0.407947
2617.18	0.292954
2618.54	0.358784
2619.9	-0.142991
2621.26	-0.119576
2622.62	-0.274753
2623.98	0.302299
2625.34	-0.106378
2626.7	-0.201695
2628.06	0.209289
2629.42	0.172519
2630.78	0.150375
2632.14	-0.0948877
2633.5	0.477141
2634.86	0.499048
2636.22	-0.235461
2637.57	-0.124173
2638.93	0.0610371
2640.29	0.216586
2641.64	-0.100807
2643	0.158811
2644.36	0.0197163
2645.72	0.441294
2647.07	0.139344
2648.43	0.588067
2649.78	0.298985
2651.14	0.568083
2652.49	0.131231
2653.85	0.106368
2655.2	0.639607
2656.56	0.675622
2657.91	0.991427
2659.27	-0.0522118
2660.62	0.879726
2661.97	-0.162395
2663.33	0.43163
2664.68	0.600429
2666.03	0.359454
2667.38	0.628211
2668.74	0.270242
2670.09	0.393382
2671.44	0.0663834
2672.79	0.380068
2674.14	-0.0318041
2675.49	0.297837
2676.84	0.468413
2678.2	0.799374
2679.55	-0.463584
2680.89	-0.231343
2682.24	0.553488
2683.59	0.22368
2684.94	0.112701
2686.29	0.103905
2687.64	0.704509
2688.99	0.316469
2690.34	-0.00150871
2691.69	0.31659
2693.04	-0.325283
2694.38	0.0906048
2695.73	0.592727
2697.08	-0.0925951
2698.43	0.325005
2699.77	0.730397
2701.12	0.370931
2702.46	-0.30512
2703.81	0.092145
2705.16	-0.0748968
2706.5	0.483212
2707.85	-0.133932
2709.19	0.902725
2710.54	-0.122521
2711.88	0.565292
2713.23	0.497699
2714.57	0.996864
2715.92	0.202169
2717.26	0.730316
2718.6	0.807389
2719.95	0.141836
2721.29	0.319473
2722.63	0.161686
2723.97	0.498076
2725.32	0.0769424
2726.66	-0.0972862
2728	0.368423
2729.34	0.440774
2730.68	0.265534
2732.02	0.570387
2733.36	0.846195
2734.7	0.0603809
2736.04	0.700352
2737.39	0.438731
2738.72	0.424334
2740.06	-0.215727
2741.4	0.176033
2742.74	0.130611
2744.08	0.403932
2745.42	0.283905
2746.76	0.163333
2748.1	0.27483
2749.44	0.226681
2750.77	0.0338287
2752.11	-0.028039
2753.45	-0.408372
2754.78	-0.0203457
2756.12	0.411076
2757.46	0.321212
2758.79	0.130436
2760.13	0.142919
2761.47	0.17057
2762.8	0.661935
2764.14	0.169817
2765.47	-0.177583
2766.81	-0.65577
2768.14	0.239031
2769.48	0.0759583
2770.81	-0.117962
2772.14	-0.154734
2773.48	0.831542
2774.81	-0.231855
2776.14	-0.0547171
2777.48	0.108225
2778.81	0.185401
2780.14	-0.110395
2781.47	0.0254927
2782.81	0.089571
2784.14	0.15347
2785.47	0.0166025
2786.8	0.0950117
2788.13	-0.255395
2789.46	-0.690185
2790.79	-0.0221157
2792.12	0.0318108
2793.46	-0.142344
2794.79	0.112399
2796.11	0.209369
2797.44	0.0340948
2798.77	0.215087
2800.1	0.19549
2801.43	-0.152588
2802.76	-0.443577
2804.09	0.234412
2805.42	-0.242624
2806.74	0.205222
2808.07	-0.159181
2809.4	0.371694
2810.73	-0.220097
2812.05	0.239959
2813.38	-0.0080719
2814.71	0.0297585
2816.03	-0.0579271
2817.36	0.437133
2818.68	0.422789
2820.01	-0.271863
2821.33	0.365148
2822.66	0.179143
2823.98	0.629847
2825.31	0.640714
2826.63	0.255126
2827.96	0.479258
2829.28	0.152037
2830.61	0.420098
2831.93	0.914939
2833.25	0.574521
2834.57	1.02629
2835.9	0.599803
2837.22	1.3329
2838.54	0.961631
2839.86	1.66502
2841.18	1.37852
2842.51	1.89848
2843.83	2.06594
2845.15	2.30516
2846.47	1.99419
2847.79	2.56002
2849.11	1.9387
2850.43	2.67378
2851.75	2.31978
2853.07	3.05325
2854.39	2.82505
2855.71	2.68139
2857.03	3.18756
2858.35	3.14281
2859.67	2.87209
2860.98	2.57296
2862.3	2.83815
2863.62	2.87684
2864.94	3.23964
2866.25	3.3624
2867.57	3.31625
2868.89	3.34128
2870.21	3.5925
2871.52	4.29496
2872.84	3.93978
2874.15	3.8936
2875.47	3.53596
2876.78	4.09212
2878.1	4.09769
2879.42	4.0325
2880.73	4.29112
2882.04	4.24165
2883.36	4.30618
2884.67	3.97901
2885.99	4.20039
2887.3	4.43583
2888.61	4.64244
2889.93	4.35678
2891.24	4.53276
2892.55	4.51144
2893.87	4.69999
2895.18	4.83293
2896.49	5.07898
2897.8	5.00468
2899.11	5.37972
2900.42	5.58803
2901.74	5.25151
2903.05	5.2231
2904.36	5.93624
2905.67	5.74062
2906.98	5.93752
2908.29	6.10773
2909.6	6.22337
2910.91	6.71781
2912.22	6.42859
2913.53	6.9781
2914.83	7.70748
2916.14	7.32807
2917.45	8.21985
2918.76	8.87159
2920.07	8.52959
2921.37	9.25156
2922.68	9.01072
2923.99	10.3658
2925.3	10.6466
2926.6	10.0339
2927.91	10.3298
2929.22	10.6112
2930.52	10.7518
2931.83	11.6184
2933.13	11.6597
2934.44	11.3934
2935.74	11.3511
2937.05	11.1553
2938.35	11.6586
2939.66	11.7291
2940.96	11.7867
2942.27	10.7698
2943.57	10.9988
2944.87	10.4195
2946.18	10.2197
2947.48	10.2446
2948.78	9.33137
2950.09	8.70956
2951.39	8.98064
2952.69	8.75837
2953.99	7.97366
2955.29	8.00042
2956.6	7.62273
2957.9	7.61234
2959.2	8.29253
2960.5	7.21298
2961.8	7.20093
2963.1	7.72332
2964.4	6.92587
2965.7	6.88364
2967	6.23432
2968.3	6.67892
2969.6	5.87097
2970.9	6.30018
2972.2	6.11106
2973.49	5.21878
2974.79	6.14189
2976.09	5.81134
2977.39	5.76023
2978.69	5.22759
2979.98	5.28352
2981.28	4.91509
2982.58	5.37586
2983.88	4.99322
2985.17	4.73915
2986.47	4.7687
2987.76	4.78664
2989.06	4.52521
2990.36	4.19395
2991.65	3.9181
2992.95	3.19087
2994.24	3.23467
2995.54	3.389
2996.83	2.64349
2998.12	2.85256
2999.42	2.68309
3000.71	2.87915
3002	2.79568
3003.3	2.30659
3004.59	2.8546
3005.88	2.5336
3007.18	1.83393
3008.47	1.74922
3009.76	1.73316
3011.05	1.71596
3012.35	1.4189
3013.64	1.01069
3014.93	1.62134
3016.22	1.00633
3017.51	0.894451
3018.8	0.741745
3020.09	1.00657
3021.38	0.90908
3022.67	0.282704
3023.96	0.044486
3025.25	0.124509
3026.54	0.314878
3027.83	0.131967
3029.12	0.351925
3030.41	0.767183
3031.69	0.217516
3032.98	0.415353
3034.27	0.420354
3035.56	0.162519
3036.85	0.330517
3038.13	0.123783
3039.42	0.520274
3040.71	0.308805
3041.99	0.192635
3043.28	-0.128863
3044.57	0.277187
3045.85	0.506922
3047.14	0.179353
3048.42	0.169697
3049.71	-0.0415688
3050.99	-0.141269
3052.28	0.578997
3053.56	0.589735
3054.85	0.258512
3056.13	0.0623808
3057.42	0.519216
3058.7	0.511225
3059.98	0.325874
3061.27	0.386246
3062.55	0.0263443
3063.83	0.470938
3065.11	0.251493
3066.4	0.183682
3067.68	0.307706
3068.96	0.378008
3070.24	0.0536079
3071.52	0.598451
3072.8	-0.150393
3074.09	0.418057
3075.37	0.237411
3076.65	0.110841
3077.93	0.188608
3079.21	-0.206986
3080.49	0.0237951
3081.77	-0.502832
3083.05	0.111839
3084.32	0.130738
3085.61	0.122689
3086.88	0.222623
3088.16	0.213018
3089.44	0.216045
3090.72	0.232032
3092	-0.349075
3093.27	0.0333624
3094.55	-0.465322
3095.83	-0.0278311
3097.11	0.0301323
3098.38	0.0202951
3099.66	0.213588
3100.94	-0.175763
3102.21	0.125917
3103.49	0.116504
3104.76	0.459817
3106.04	0.35755
3107.31	-0.0951471
3108.59	-0.0861816
3109.86	-0.319292
3111.14	0.0311365
3112.41	0.112069
3113.69	0.396976
3114.96	0.194187
3116.23	0.912792
3117.51	0.504794
3118.78	-0.162497
3120.05	0.511437
3121.33	0.207664
3122.6	-0.0695515
3123.87	0.195092
3125.14	0.202614
3126.42	0.427396
3127.69	0.720549
3128.96	0.825011
3130.23	0.456774
3131.5	0.508063
3132.77	0.410581
3134.04	0.501836
3135.31	0.956822
3136.58	0.682037
3137.85	0.75748
3139.12	0.576392
3140.39	0.624286
3141.66	0.47058
3142.93	0.666998
3144.2	0.716187
3145.47	0.430944
3146.74	0.830874
3148	0.588255
3149.27	0.721822
