200.388	0.431766
202.204	0.443343
204.019	0.455931
205.832	0.20199
207.646	0.337668
209.459	0.691645
211.274	0.752973
213.087	0.885948
214.899	0.848031
216.711	0.252256
218.524	-0.00340939
220.335	0.0323372
222.146	0.794626
223.956	0.324017
225.766	0.289487
227.576	-0.397058
229.388	0.389729
231.197	-0.224457
233.005	0.343819
234.813	-0.0766869
236.621	-0.158255
238.429	-0.213834
240.236	0.50415
242.045	-0.125638
243.852	0.282649
245.658	0.450065
247.464	0.519785
249.269	0.273305
251.074	0.33798
252.879	0.327785
254.683	0.316045
256.487	0.400393
258.291	0.557728
260.094	-0.415813
261.897	0.395339
263.702	0.702167
265.504	-0.194605
267.306	0.137783
269.108	-0.42178
270.909	0.65727
272.71	1.1569
274.511	0.112222
276.311	0.705569
278.111	0.260767
279.91	0.296295
281.709	0.450335
283.508	0.674619
285.306	0.536794
287.105	0.830572
288.9	-0.00318336
290.698	0.0756483
292.495	0.490623
294.291	1.05001
296.088	-0.0155382
297.884	0.402637
299.679	0.343216
301.475	-0.0984201
303.27	-0.182279
305.064	-0.290947
306.858	-0.0186653
308.652	0.133924
310.444	-0.142043
312.237	0.393062
314.03	0.262636
315.822	0.419678
317.615	0.506983
319.406	0.548157
321.198	0.328326
322.987	0.25209
324.778	0.152368
326.568	0.458562
328.358	0.573843
330.148	-0.00456905
331.935	1.01786
333.724	1.41749
335.513	0.905916
337.301	0.822832
339.089	0.594246
340.875	0.531734
342.662	0.109948
344.449	0.476963
346.236	0.461978
348.02	0.925212
349.806	0.982907
351.592	1.61348
353.375	0.286573
355.16	1.05868
356.944	1.04211
358.728	0.166379
360.51	1.14822
362.294	0.91414
364.077	0.441917
365.858	0.0648546
367.64	0.827093
369.422	0.259183
371.202	1.34974
372.983	1.27787
374.764	0.354991
376.543	0.709001
378.324	0.496771
380.102	0.686294
381.881	1.27672
383.661	1.58528
385.438	0.860436
387.216	1.82938
388.993	1.43634
390.771	0.974061
392.548	1.35818
394.324	0.991396
396.101	0.648495
397.875	1.01025
399.651	0.831705
401.425	0.887621
403.201	0.755062
404.974	0.222555
406.749	0.74622
408.524	0.799574
410.296	0.359648
412.07	0.436231
413.841	0.325427
415.614	0.19182
417.385	0.528207
419.156	1.24072
420.928	0.216886
422.698	0.436663
424.469	0.421125
426.238	-0.182159
428.009	0.622373
429.777	-0.240259
431.548	0.0707598
433.315	0.616676
435.083	0.435334
436.852	0.25399
438.618	-0.0452909
440.387	0.968303
442.153	0.642431
443.919	0.385181
445.686	0.454515
447.451	-0.132753
449.218	0.09902
450.982	0.564075
452.746	0.631773
454.512	0.0931072
456.275	-0.211641
458.038	0.578535
459.803	-0.261443
461.565	0.156094
463.327	-0.215794
465.091	0.344032
466.852	-0.162591
468.613	-0.341673
470.374	0.457424
472.136	0.210928
473.896	0.0100937
475.655	0.599459
477.415	0.464986
479.176	-0.253603
480.934	0.308062
482.692	0.962854
484.45	0.314407
486.21	0.226613
487.967	0.303806
489.724	1.01268
491.481	0.556514
493.237	0.380559
494.995	0.251261
496.75	0.215263
498.506	0.600676
500.26	0.986365
502.015	0.926175
503.771	0.747621
505.525	0.379714
507.279	0.527481
509.032	0.909222
510.785	1.00731
512.537	1.19802
514.289	1.10491
516.041	0.72818
517.793	0.656239
519.546	1.05356
521.297	1.2618
523.047	0.694377
524.797	1.13661
526.547	1.39067
528.297	0.612831
530.046	1.47613
531.795	0.722013
533.543	0.412779
535.291	0.45377
537.039	0.56354
538.787	0.508383
540.534	0.708775
542.281	0.418776
544.027	0.198893
545.773	0.699837
547.519	0.155315
549.264	-0.387728
551.01	-0.396766
552.754	-0.313116
554.499	-0.0446424
556.243	-0.00734425
557.987	0.0993834
559.73	0.160254
561.474	0.175462
563.216	0.237155
564.959	-0.183429
566.701	0.201074
568.441	0.218491
570.182	0.558082
571.923	0.118657
573.664	0.0019865
575.405	0.0933104
577.145	0.0255041
578.885	0.188374
580.624	-0.290991
582.361	-0.0813627
584.1	0.288964
585.839	0.0147591
587.577	0.107364
589.315	0.175928
591.052	-0.147472
592.787	-0.172254
594.524	0.308969
596.26	0.445102
597.997	-0.408082
599.732	-0.088212
601.466	0.0238924
603.201	0.249865
604.936	0.175542
606.67	0.628611
608.403	0.0929432
610.136	0.269216
611.87	-0.563604
613.603	-0.133939
615.334	0.433469
617.067	0.175845
618.799	-0.265224
620.529	0.346188
622.26	0.475393
623.991	-0.0821867
625.72	0.0462999
627.451	0.243968
629.181	0.58007
630.909	0.0282497
632.638	0.391035
634.368	0.800567
636.095	-0.136793
637.823	0.202619
639.551	0.106008
641.277	-0.175555
643.005	-0.344878
644.73	0.0997658
646.457	-0.00217819
648.184	-0.17061
649.908	0.163634
651.634	0.455611
653.357	0.0465603
655.083	0.345121
656.806	0.441345
658.53	0.333553
660.253	0.111132
661.977	0.252373
663.7	-0.110918
665.422	0.0491848
667.145	-0.0209475
668.865	0.754418
670.588	0.363939
672.308	0.249542
674.027	0.526461
675.749	0.301525
677.468	0.375574
679.188	0.495899
680.907	0.43171
682.627	0.526895
684.345	0.574251
686.064	0.82707
687.781	0.318487
689.498	0.453747
691.216	0.104618
692.932	0.653303
694.65	0.671501
696.366	0.61973
698.081	0.566913
699.797	1.50246
701.512	0.527099
703.228	0.379427
704.942	0.438038
706.655	0.633797
708.371	0.117962
710.083	0.312956
711.796	0.209686
713.51	0.701022
715.222	0.642836
716.934	0.6532
718.645	0.777684
720.358	0.605796
722.068	0.548231
723.779	0.263285
725.49	1.1154
727.2	0.284979
728.909	1.08958
730.618	1.12143
732.329	1.06226
734.037	0.618385
735.745	0.695312
737.453	1.20144
739.16	0.646894
740.869	0.747862
742.576	0.804712
744.282	0.817676
745.988	1.86707
747.694	0.577403
749.401	0.481646
751.107	0.724418
752.811	0.788396
754.516	1.41605
756.22	1.05522
757.924	0.785573
759.627	0.990047
761.332	1.73693
763.035	1.53784
764.738	1.20275
766.44	1.88295
768.142	1.61277
769.843	2.74223
771.544	2.78452
773.245	2.3504
774.946	2.6846
776.646	2.31836
778.346	2.20211
780.046	2.60752
781.745	2.17727
783.444	2.60694
785.143	1.63232
786.841	1.8098
788.539	2.12008
790.237	2.24593
791.934	2.05248
793.631	1.45129
795.328	1.36977
797.024	1.22158
798.72	1.36787
800.416	1.49312
802.112	1.48459
803.807	1.7691
805.502	1.22152
807.196	1.77473
808.89	1.36063
810.584	1.91096
812.278	1.60747
813.971	1.6176
815.664	1.85135
817.354	2.06231
819.047	1.58014
820.739	1.18824
822.43	1.66753
824.122	1.38873
825.813	1.24525
827.503	1.90567
829.192	1.49933
830.882	1.00672
832.571	1.0511
834.261	1.34263
835.95	1.25628
837.637	0.634091
839.325	1.70727
841.013	1.32803
842.701	1.1931
844.389	1.7727
846.074	0.989713
847.761	1.84002
849.447	0.791726
851.131	0.706941
852.817	1.27369
854.503	0.406489
856.188	0.54812
857.871	1.63343
859.556	1.32407
861.24	0.629821
862.922	1.1724
864.606	1.3988
866.289	1.08345
867.97	0.564412
869.653	0.653701
871.336	0.900652
873.016	0.989585
874.698	0.875403
876.379	1.21254
878.058	0.827558
879.739	1.02929
881.418	0.892138
883.098	0.167397
884.778	0.976844
886.456	0.769232
888.135	0.831114
889.812	0.530751
891.49	1.06332
893.167	0.715684
894.845	0.840095
896.523	1.50287
898.198	0.703695
899.875	0.825126
901.55	0.766341
903.226	0.796701
904.901	0.648027
906.576	0.790086
908.25	1.19989
909.925	1.03053
911.598	0.884611
913.271	1.2508
914.945	0.972711
916.617	0.761768
918.291	0.639815
919.962	0.451773
921.635	1.08305
923.306	0.697473
924.978	0.777748
926.648	1.32324
928.318	0.986976
929.989	0.629979
931.659	0.869467
933.328	0.756186
934.998	0.973957
936.666	1.12589
938.336	1.14626
940.004	0.726607
941.671	1.12416
943.34	0.904736
945.007	0.574775
946.673	1.01635
948.339	0.507202
950.007	0.791019
951.672	0.477906
953.337	0.253215
955.004	0.316545
956.669	0.404212
958.333	0.693194
959.997	0.322765
961.662	1.07973
963.326	0.400988
964.989	0.272922
966.651	0.43015
968.315	0.673557
969.977	0.583228
971.639	0.425767
973.301	0.733125
974.962	0.621503
976.624	0.555695
978.285	0.225739
979.945	0.250262
981.605	0.274523
983.264	0.452669
984.924	0.894841
986.583	0.206291
988.243	0.423717
989.901	0.485073
991.56	0.612085
993.217	0.40748
994.875	0.159044
996.532	-0.331677
998.188	-0.0721588
999.845	0.252995
1001.5	-0.08323
1003.16	0.350896
1004.81	0.300332
1006.47	0.579372
1008.12	0.792235
1009.78	0.171194
1011.43	0.538225
1013.09	0.313453
1014.74	0.965456
1016.39	1.15736
1018.05	0.693128
1019.7	0.273789
1021.35	0.883256
1023	0.619052
1024.65	1.57967
1026.31	1.49173
1027.96	1.64421
1029.61	1.24992
1031.26	1.40069
1032.91	1.78998
1034.56	1.91543
1036.21	1.18902
1037.86	1.2254
1039.51	1.17454
1041.16	0.732832
1042.8	1.27108
1044.45	1.02818
1046.1	1.33028
1047.75	0.569902
1049.39	0.723233
1051.04	0.877733
1052.69	0.707178
1054.33	1.1236
1055.98	1.12729
1057.62	0.608987
1059.27	-0.062109
1060.91	0.440307
1062.56	0.594195
1064.2	0.247189
1065.85	0.660267
1067.49	0.289793
1069.13	0.63567
1070.77	0.43777
1072.42	0.543808
1074.06	0.563372
1075.7	0.800726
1077.34	0.34518
1078.98	0.606454
1080.62	0.911779
1082.27	0.848498
1083.91	0.957927
1085.55	1.30432
1087.18	0.84687
1088.82	1.05929
1090.46	0.70723
1092.1	0.657324
1093.74	0.736605
1095.38	0.708007
1097.02	0.184366
1098.65	1.14902
1100.29	0.757764
1101.93	0.691404
1103.56	0.605186
1105.2	0.434161
1106.84	0.60784
1108.47	0.286635
1110.11	1.19017
1111.74	0.200377
1113.38	0.584894
1115.01	0.366751
1116.64	0.899205
1118.28	0.616355
1119.91	0.505861
1121.54	0.396375
1123.18	0.180913
1124.81	0.907869
1126.44	0.950705
1128.07	1.50747
1129.7	-0.223063
1131.33	0.035574
1132.97	0.508209
1134.6	-0.0239811
1136.23	0.191495
1137.86	0.256446
1139.49	0.277617
1141.11	-0.000999451
1142.74	0.0402994
1144.37	0.380239
1146	0.166154
1147.63	-0.66497
1149.26	0.65694
1150.88	0.18942
1152.51	-0.128786
1154.14	-0.255498
1155.76	0.34116
1157.39	0.0224562
1159.01	0.0232773
1160.64	-0.251647
1162.27	0.133557
1163.89	0.00928211
1165.51	0.310699
1167.14	-0.11097
1168.76	-0.512169
1170.39	0.424491
1172.01	0.551509
1173.63	0.634354
1175.25	-0.0690317
1176.88	0.203364
1178.5	0.200106
1180.12	0.0492573
1181.74	-0.375645
1183.36	0.109622
1184.98	0.171809
1186.6	0.0431242
1188.22	0.482969
1189.84	0.456585
1191.46	0.260165
1193.08	-0.000146866
1194.7	0.621374
1196.32	0.171852
1197.94	0.143086
1199.55	0.220403
1201.17	-0.264608
1202.79	0.714906
1204.41	0.0468674
1206.02	0.445216
1207.64	-0.0107489
1209.25	-0.341174
1210.87	0.0995741
1212.48	-0.17015
1214.1	0.0378599
1215.71	-0.0894032
1217.33	0.0941029
1218.94	0.15168
1220.56	0.582681
1222.17	0.328992
1223.79	0.263309
1225.4	0.613108
1227.01	0.736146
1228.62	0.260476
1230.23	0.923445
1231.85	0.450184
1233.46	0.43283
1235.07	0.519874
1236.68	0.380588
1238.29	0.490212
1239.9	0.765897
1241.51	0.855748
1243.12	0.697109
1244.73	0.786055
1246.34	1.12246
1247.94	0.671639
1249.55	0.861613
1251.16	0.616813
1252.77	0.351549
1254.37	1.01768
1255.98	0.547095
1257.59	1.0084
1259.2	1.28468
1260.8	0.87886
1262.41	1.01156
1264.01	1.41371
1265.62	0.779667
1267.22	0.828637
1268.83	1.51951
1270.43	1.17291
1272.03	0.638729
1273.64	0.704951
1275.24	0.936127
1276.85	1.4772
1278.45	0.794999
1280.05	1.35515
1281.65	1.31431
1283.25	0.963266
1284.85	0.654329
1286.46	0.677119
1288.06	1.4655
1289.66	1.55181
1291.26	1.16333
1292.86	1.35339
1294.46	1.54275
1296.06	1.75151
1297.66	1.07097
1299.25	0.699114
1300.85	1.79023
1302.45	1.72491
1304.05	1.32951
1305.65	1.09869
1307.24	1.2581
1308.84	0.739864
1310.43	1.18595
1312.03	1.22195
1313.63	0.992651
1315.22	1.21418
1316.82	0.884901
1318.41	0.311801
1320.01	0.840389
1321.6	0.939628
1323.2	1.22053
1324.79	0.970822
1326.38	0.862584
1327.98	1.11905
1329.57	1.25378
1331.16	1.02551
1332.76	1.26434
1334.35	0.939415
1335.94	1.62531
1337.53	1.48407
1339.12	0.959461
1340.71	1.52182
1342.3	0.873929
1343.89	1.17039
1345.48	0.662102
1347.07	1.19775
1348.66	1.13272
1350.25	0.14932
1351.84	0.94949
1353.43	0.651004
1355.01	0.953465
1356.6	1.11624
1358.19	1.41839
1359.77	0.621208
1361.36	1.02136
1362.95	1.10118
1364.53	0.821712
1366.12	1.04086
1367.71	0.862164
1369.29	1.08277
1370.88	0.74722
1372.46	0.910435
1374.04	1.07458
1375.63	0.702084
1377.21	0.648038
1378.8	0.573689
1380.38	0.777068
1381.96	0.859922
1383.54	1.04103
1385.13	0.724171
1386.71	0.784667
1388.29	0.865064
1389.87	0.747434
1391.45	0.789386
1393.03	0.554256
1394.61	0.240238
1396.19	1.05647
1397.77	0.900333
1399.35	0.72362
1400.93	0.863131
1402.51	-0.027359
1404.09	0.487719
1405.67	0.271026
1407.24	0.312154
1408.82	0.946686
1410.4	0.633142
1411.98	0.497478
1413.55	0.558824
1415.13	0.639097
1416.71	1.31019
1418.28	0.699039
1419.86	0.975255
1421.43	0.976417
1423.01	0.821427
1424.58	0.785982
1426.16	0.830342
1427.73	1.13105
1429.31	1.49061
1430.88	0.983347
1432.45	2.18722
1434.02	1.20589
1435.6	1.24739
1437.17	1.21035
1438.74	1.72433
1440.31	1.6494
1441.88	1.83084
1443.45	1.52159
1445.03	1.88091
1446.6	1.59179
1448.17	1.89246
1449.74	2.09514
1451.3	1.88537
1452.87	1.51868
1454.44	1.50624
1456.01	1.71021
1457.58	1.8153
1459.15	1.36821
1460.72	0.958992
1462.28	1.21725
1463.85	1.3559
1465.42	1.65067
1466.98	1.41436
1468.55	1.06078
1470.12	1.63064
1471.68	1.3771
1473.25	1.32077
1474.81	1.32398
1476.38	1.17071
1477.94	1.194
1479.51	0.687962
1481.07	1.27954
1482.63	1.85126
1484.2	0.815987
1485.76	1.42634
1487.32	0.978153
1488.88	1.33181
1490.45	1.91829
1492.01	1.46567
1493.57	1.51969
1495.13	1.02564
1496.69	1.50605
1498.25	0.681152
1499.81	0.772243
1501.37	1.03872
1502.93	0.626871
1504.49	0.681586
1506.05	0.620282
1507.61	0.94538
1509.17	0.496169
1510.73	0.587294
1512.28	0.793079
1513.84	0.536048
1515.4	0.510461
1516.96	1.69491
1518.51	0.710318
1520.07	0.494662
1521.63	0.891976
1523.18	0.466242
1524.74	0.365389
1526.29	0.454639
1527.85	0.657123
1529.4	0.421215
1530.96	0.64162
1532.51	1.14624
1534.06	0.968519
1535.62	0.678638
1537.17	0.579144
1538.72	1.15994
1540.28	0.401075
1541.83	0.378471
1543.38	0.769868
1544.93	1.16032
1546.48	0.310122
1548.03	0.624837
1549.59	0.995091
1551.14	1.38345
1552.69	1.09801
1554.24	0.926029
1555.79	0.662088
1557.34	0.829234
1558.88	0.923203
1560.43	0.645608
1561.98	0.425347
1563.53	0.653724
1565.08	0.86396
1566.62	0.831738
1568.17	1.22858
1569.72	1.34518
1571.27	1.49878
1572.81	0.998757
1574.36	1.13327
1575.9	0.969094
1577.45	1.47713
1579	0.846704
1580.54	1.15024
1582.09	1.00631
1583.63	0.564075
1585.17	0.869668
1586.72	1.23198
1588.26	1.08971
1589.8	1.09684
1591.35	1.06616
1592.89	1.07248
1594.43	1.39696
1595.97	1.45933
1597.52	0.772377
1599.06	1.56666
1600.6	1.1617
1602.14	1.05701
1603.68	0.783196
1605.22	1.10975
1606.76	1.30389
1608.3	1.36489
1609.84	1.08561
1611.38	1.06753
1612.92	1.4046
1614.46	0.914326
1615.99	1.11824
1617.53	1.00358
1619.07	0.98364
1620.61	0.684012
1622.14	1.02226
1623.68	1.08027
1625.22	1.13829
1626.75	1.10209
1628.29	0.5597
1629.82	1.04513
1631.36	0.968474
1632.9	1.45187
1634.43	1.80425
1635.96	1.18673
1637.5	1.57764
1639.03	0.943406
1640.57	1.65153
1642.1	1.46437
1643.63	1.18332
1645.16	1.49705
1646.7	1.43762
1648.23	1.02491
1649.76	1.11442
1651.29	1.44583
1652.82	1.83357
1654.36	1.35054
1655.89	1.38739
1657.42	1.33153
1658.95	1.21949
1660.48	1.10648
1662.01	1.28838
1663.53	1.46901
1665.06	1.48259
1666.59	1.03502
1668.12	0.810271
1669.65	1.19525
1671.18	1.34157
1672.7	1.32294
1674.23	1.06533
1675.76	1.82025
1677.29	1.10167
1678.81	0.750657
1680.34	0.913938
1681.86	1.26012
1683.39	1.01794
1684.91	1.08806
1686.44	0.974966
1687.96	0.862363
1689.49	0.603643
1691.01	0.345383
1692.54	0.691352
1694.06	0.50646
1695.58	0.467862
1697.11	0.86762
1698.63	0.68226
1700.15	0.442006
1701.67	0.0374861
1703.2	0.50787
1704.72	0.685709
1706.24	0.517147
1707.76	-0.105872
1709.28	0.616216
1710.8	0.121177
1712.32	0.479338
1713.84	0.474666
1715.36	0.107977
1716.88	0.501528
1718.4	0.496698
1719.91	0.166757
1721.43	0.631361
1722.95	0.158149
1724.47	0.677316
1725.99	0.584661
1727.5	1.0872
1729.02	0.366576
1730.54	0.222688
1732.05	0.417623
1733.57	0.590557
1735.09	0.638756
1736.6	0.132956
1738.12	0.474821
1739.63	0.683484
1741.15	0.316089
1742.66	0.742368
1744.18	0.496349
1745.69	0.582747
1747.2	0.618187
1748.72	0.5629
1750.23	0.141558
1751.74	0.359502
1753.25	0.430505
1754.77	0.526756
1756.28	0.48807
1757.79	0.126858
1759.3	0.312675
1760.81	0.59201
1762.32	0.476541
1763.83	0.147624
1765.34	0.651533
1766.85	0.319487
1768.36	0.403178
1769.87	0.266444
1771.38	0.221443
1772.89	0.112148
1774.4	0.520862
1775.91	0.757776
1777.41	0.342952
1778.92	0.461055
1780.43	0.384116
1781.94	0.22597
1783.44	0.752328
1784.95	0.354723
1786.45	0.310379
1787.96	0.144786
1789.47	0.356795
1790.97	0.333168
1792.48	0.238803
1793.98	0.170248
1795.48	0.555452
1796.99	0.353191
1798.49	0.238549
1800	0.00826216
1801.5	0.0475168
1803	0.406556
1804.51	0.157547
1806.01	0.287759
1807.51	0.170425
1809.01	0.584505
1810.51	0.322816
1812.02	0.0258083
1813.52	0.53716
1815.02	0.236746
1816.52	0.438532
1818.02	0.251354
1819.52	0.401083
1821.02	0.216643
1822.52	-0.062449
1824.02	0.453328
1825.51	0.496971
1827.01	0.369367
1828.51	0.637399
1830.01	0.393351
1831.51	-0.0780725
1833	0.115603
1834.5	0.106952
1836	0.250245
1837.5	0.160574
1838.99	0.125693
1840.49	0.279546
1841.98	0.172915
1843.48	0.150514
1844.97	0.123473
1846.47	0.186148
1847.96	0.0510669
1849.46	0.134258
1850.95	0.332633
1852.45	0.448673
1853.94	0.405674
1855.43	0.33776
1856.92	0.216512
1858.42	0.497412
1859.91	0.481309
1861.4	0.430096
1862.89	0.124722
1864.39	0.279658
1865.88	0.260879
1867.37	0.268759
1868.86	0.347135
1870.35	0.396606
1871.84	0.328623
1873.33	0.122178
1874.82	0.369
1876.31	0.144702
1877.8	0.327929
1879.29	0.253996
1880.77	0.267169
1882.26	0.451267
1882.51	0.488715
1884	0.486483
1885.5	0.204797
1886.99	0.427774
1888.48	0.180091
1889.98	0.158992
1891.47	0.434312
1892.97	0.345614
1894.46	-0.00239134
1895.95	0.53754
1897.44	0.295721
1898.93	0.071115
1900.42	0.384972
1901.92	0.175669
1903.41	0.0867863
1904.9	0.309746
1906.39	-0.0762496
1907.88	0.406387
1909.37	0.10795
1910.86	-0.276283
1912.35	-0.0698314
1913.84	0.154301
1915.32	-0.055088
1916.81	-0.0739431
1918.3	-0.145191
1919.79	-0.164758
1921.28	-0.478843
1922.76	-0.0651846
1924.25	0.279683
1925.74	0.417623
1927.22	0.417926
1928.71	0.3495
1930.2	0.107871
1931.68	0.385104
1933.17	-0.014133
1934.65	0.32977
1936.14	0.395234
1937.62	0.217591
1939.11	0.126198
1940.59	0.294154
1942.08	-0.0724101
1943.56	0.217689
1945.04	0.180604
1946.53	-0.149221
1948.01	-0.203273
1949.49	-0.137249
1950.97	0.255105
1952.45	-0.179661
1953.94	-0.150025
1955.42	0.343457
1956.9	0.252725
1958.38	0.402919
1959.86	0.0389204
1961.34	0.207237
1962.82	-0.292894
1964.3	-0.450085
1965.78	0.0774932
1967.26	0.0563083
1968.74	0.393838
1970.22	0.0638204
1971.69	-0.214699
1973.17	-0.0661626
1974.65	-0.258885
1976.13	0.469177
1977.61	0.395847
1979.08	-0.0687923
1980.56	-0.0395465
1982.03	0.278503
1983.51	0.273128
1984.99	0.0638108
1986.46	-0.1793
1987.94	-0.0661588
1989.41	0.267185
1990.89	0.19444
1992.36	-0.181911
1993.84	0.186713
1995.31	0.217697
1996.78	0.282801
1998.26	0.22962
1999.73	-0.330324
2001.2	0.307852
2002.68	0.0511107
2004.15	0.199108
2005.62	-0.00662518
2007.09	0.175782
2008.56	-0.0621548
2010.04	-0.0131159
2011.51	0.170987
2012.98	0.321427
2014.45	0.151754
2015.92	0.318035
2017.39	0.163944
2018.86	-0.0579114
2020.33	0.156876
2021.8	0.102636
2023.27	0.132631
2024.74	-0.12202
2026.2	-0.174321
2027.67	0.244092
2029.14	-0.174979
2030.61	0.346319
2032.07	-0.0207429
2033.54	-0.119071
2035.01	0.0344296
2036.47	0.28854
2037.94	0.0886955
2039.41	0.123743
2040.87	-0.110198
2042.34	0.328616
2043.8	0.145947
2045.27	0.047987
2046.73	-0.0326371
2048.2	0.173264
2049.66	0.244308
2051.12	0.0617256
2052.59	-0.358265
2054.05	0.232227
2055.51	0.433431
2056.98	0.414278
2058.44	0.0406208
2059.9	0.44195
2061.36	0.506549
2062.82	0.352946
2064.29	-0.119533
2065.75	0.485902
2067.21	0.55348
2068.67	0.369098
2070.13	0.639431
2071.59	0.101794
2073.05	0.0353646
2074.51	0.507574
2075.97	0.440704
2077.43	0.642986
2078.88	0.491303
2080.34	0.608684
2081.8	0.338353
2083.26	0.219081
2084.72	0.78923
2086.17	0.500485
2087.63	0.362799
2089.09	0.64505
2090.54	0.540517
2092	0.519979
2093.46	0.566511
2094.91	0.629558
2096.37	0.407209
2097.82	0.703816
2099.28	0.447195
2100.73	0.959954
2102.19	0.369253
2103.64	0.448007
2105.09	0.0103264
2106.55	0.324857
2108	0.423206
2109.46	1.22214
2110.91	0.803278
2112.36	1.0668
2113.81	0.8956
2115.27	1.52196
2116.72	1.13235
2118.17	1.34165
2119.62	0.987473
2121.07	0.651968
2122.52	1.3466
2123.97	0.566396
2125.42	0.881271
2126.87	1.19589
2128.32	0.763621
2129.77	0.811002
2131.22	1.1057
2132.67	1.30007
2134.12	1.01444
2135.57	1.55651
2137.01	1.30608
2138.46	1.38792
2139.91	1.38881
2141.36	1.37463
2142.8	1.22921
2144.25	1.28277
2145.7	1.60132
2147.14	1.8371
2148.59	1.22778
2150.03	1.42913
2151.48	1.87822
2152.92	1.97852
2154.37	1.43189
2155.81	1.58073
2157.26	1.76275
2158.7	1.51471
2160.15	1.89735
2161.59	1.8509
2163.03	1.93875
2164.48	1.82905
2165.92	2.20145
2167.36	2.09251
2168.8	2.21521
2170.25	1.8873
2171.69	1.72361
2173.13	2.04056
2174.57	1.85718
2176.01	1.92278
2177.45	1.98854
2178.89	1.65596
2180.33	1.45731
2181.77	1.75823
2183.21	1.92673
2184.65	1.28055
2186.09	1.10001
2187.53	1.96769
2188.97	1.12159
2190.41	1.69003
2191.84	1.50927
2193.28	1.51097
2194.72	1.66136
2196.16	1.56041
2197.59	1.2082
2199.03	1.43685
2200.47	1.11598
2201.9	1.02788
2203.34	1.67046
2204.78	1.35151
2206.21	1.26583
2207.65	1.09787
2209.08	0.863676
2210.51	0.926991
2211.95	1.15481
2213.38	0.770112
2214.82	0.963951
2216.25	0.910437
2217.68	0.461986
2219.12	1.07037
2220.55	1.49772
2221.98	1.24923
2223.42	1.14857
2224.85	0.832761
2226.28	1.02602
2227.71	0.658581
2229.14	0.914885
2230.57	0.431757
2232	0.555829
2233.43	0.859916
2234.86	0.33004
2236.29	0.422922
2237.72	0.272032
2239.15	0.563361
2240.58	0.529849
2242.01	0.351027
2243.44	0.0590425
2244.87	0.58289
2246.3	0.323314
2247.73	0.241957
2249.15	0.566528
2250.58	0.0418243
2252.01	0.655972
2253.43	0.292621
2254.86	0.401333
2256.29	0.121371
2257.71	0.427724
2259.14	0.476573
2260.56	0.43043
2261.99	-0.214354
2263.41	0.197096
2264.84	0.479282
2266.26	0.0623407
2267.69	0.0673313
2269.11	0.738872
2270.54	0.238121
2271.96	0.160064
2273.38	0.244704
2274.81	0.117681
2276.23	0.414403
2277.65	0.108402
2279.07	0.503303
2280.49	0.409168
2281.92	0.0213003
2283.34	-0.0568361
2284.76	-0.13497
2286.18	-0.000780582
2287.6	0.133769
2289.02	0.121749
2290.44	0.322464
2291.86	-0.0976148
2293.28	-0.0436778
2294.7	0.141187
2296.12	0.0478897
2297.54	0.23286
2298.96	0.0576196
2300.38	-0.429033
2301.79	-0.0140572
2303.21	0.253898
2304.63	0.0954833
2306.05	0.101087
2307.46	-0.517942
2308.88	0.440151
2310.3	0.395441
2311.71	-0.603657
2313.13	-0.106078
2314.55	0.0793934
2315.96	0.0844407
2317.38	0.0406733
2318.79	0.359873
2320.21	0.085485
2321.62	0.38752
2323.03	-0.153449
2324.45	-0.00309038
2325.86	-0.118458
2327.27	0.556535
2328.69	0.389674
2330.1	0.536103
2331.51	0.189197
2332.93	-0.238846
2334.34	-0.106563
2335.75	0.0916615
2337.16	-0.187483
2338.57	0.00960398
2339.99	0.0906291
2341.4	0.285791
2342.81	-0.0612602
2344.22	-0.0962729
2345.63	-0.0163064
2347.04	0.260334
2348.45	0.0947042
2349.86	0.387036
2351.26	0.171607
2352.67	0.0700841
2354.08	0.0985575
2355.49	-0.313653
2356.9	0.398251
2358.31	-0.208854
2359.71	0.0303035
2361.12	0.236577
2362.53	-0.0439792
2363.94	0.307616
2365.34	0.108352
2366.75	-0.445883
2368.15	0.0186024
2369.56	0.07973
2370.97	0.0450673
2372.37	-0.181847
2373.78	0.188042
2375.18	0.235996
2376.59	0.122734
2377.99	0.0730891
2379.39	-0.138351
2380.8	-0.0938234
2382.2	-0.210805
2383.61	0.120253
2385.01	0.242376
2386.41	0.300606
2387.81	0.359421
2389.22	-0.10708
2390.62	-0.0779424
2392.02	-0.0797982
2393.42	0.364638
2394.82	0.348073
2396.22	-0.0494566
2397.63	-0.191936
2399.02	-0.318014
2400.43	-0.125949
2401.82	-0.124314
2403.23	-0.0114698
2404.62	0.132818
2406.02	0.0858965
2407.42	0.228703
2408.82	-0.152599
2410.22	0.0685792
2411.62	0.0520477
2413.02	0.257866
2414.41	-0.26374
2415.81	-0.15085
2417.21	-0.131964
2418.61	-0.0965476
2420	0.240066
2421.4	0.291607
2422.79	-0.164078
2424.19	0.314739
2425.59	-0.204607
2426.98	0.211366
2428.38	-0.212031
2429.77	0.221411
2431.17	0.00521755
2432.56	-0.449174
2433.96	-0.0149746
2435.35	0.29161
2436.74	-0.0383711
2438.14	0.138875
2439.53	-0.0979223
2440.92	0.220511
2442.32	-0.0966616
2443.71	-0.0964518
2445.1	-0.0963707
2446.49	0.299955
2447.88	-0.159931
2449.28	-0.00164604
2450.67	0.0616708
2452.06	0.204478
2453.45	0.237037
2454.84	-0.188538
2456.23	0.224918
2457.62	0.00584841
2459.01	0.498446
2460.4	-0.274677
2461.79	0.106089
2463.18	0.169922
2464.57	0.312252
2465.96	-0.0195508
2467.34	0.280277
2468.73	-0.272231
2470.12	0.0430212
2471.51	-0.320172
2472.89	0.0727024
2474.28	0.0866718
2475.67	0.257424
2477.05	0.0661106
2478.44	0.110635
2479.83	-0.15863
2481.21	-0.0667081
2482.6	0.260035
2483.98	0.0692911
2485.37	-0.231259
2486.75	0.0460229
2488.14	-0.130682
2489.52	0.160025
2490.9	0.37204
2492.29	0.366295
2493.67	-0.042304
2495.06	0.078372
2496.44	0.0912957
2497.82	-0.111987
2499.2	-0.0980844
2500.59	-0.208182
2501.97	-0.195041
2503.35	-0.259836
2504.73	0.0604644
2506.11	0.00981808
2507.49	-0.0716877
2508.88	0.27754
2510.26	0.134903
2511.63	0.131132
2513.01	0.127961
2514.39	0.0335536
2515.77	0.246066
2517.15	0.0152988
2518.53	0.35089
2519.91	0.288964
2521.29	0.0894437
2522.67	0.0270281
2524.05	0.497894
2525.42	0.159732
2526.8	0.248282
2528.18	0.245702
2529.56	0.198349
2530.93	-0.014925
2532.31	0.593731
2533.69	0.322078
2535.06	0.233341
2536.44	0.281314
2537.81	0.29838
2539.19	0.314693
2540.56	0.132964
2541.94	-0.0489306
2543.31	-0.245681
2544.69	-0.274865
2546.06	0.000192165
2547.44	-0.0272207
2548.81	0.234246
2550.18	0.0406466
2551.56	-0.016788
2552.93	0.183081
2554.3	0.23039
2555.68	0.29215
2557.05	0.323101
2558.42	0.262945
2559.79	-0.236603
2561.16	0.0222716
2562.53	0.22092
2563.9	0.0562892
2565.28	-0.138319
2566.64	0.167337
2568.02	0.306381
2569.38	-0.206271
2570.76	0.175269
2572.12	-0.0494328
2573.49	0.089705
2574.86	0.0924821
2576.23	0.0498023
2577.6	0.0980225
2578.97	-0.00555229
2580.34	0.0573921
2581.7	0.529415
2583.07	0.152031
2584.44	0.259645
2585.81	0.412657
2587.17	0.535413
2588.54	0.112692
2589.91	0.660007
2591.27	0.0706244
2592.64	0.390106
2594	0.390725
2595.37	0.526816
2596.73	0.162462
2598.1	0.145801
2599.46	-0.00721073
2600.83	-0.35641
2602.19	-0.342428
2603.55	0.170153
2604.92	0.0640583
2606.28	0.0939441
2607.64	0.229111
2609.01	0.137439
2610.37	0.0600066
2611.73	0.282688
2613.09	0.00787306
2614.46	0.108523
2615.82	0.133731
2617.18	0.219013
2618.54	-0.129734
2619.9	-0.0732851
2621.26	0.402282
2622.62	0.235058
2623.98	0.0981002
2625.34	0.140341
2626.7	0.286714
2628.06	0.358104
2629.42	-0.27068
2630.78	0.708179
2632.14	0.258235
2633.5	0.477399
2634.86	0.41418
2636.22	0.173068
2637.57	0.0656891
2638.93	0.387891
2640.29	0.280652
2641.64	-0.121907
2643	0.0820122
2644.36	0.285766
2645.72	0.444907
2647.07	0.515048
2648.43	0.628702
2649.78	0.579609
2651.14	0.441831
2652.49	0.87682
2653.85	0.284115
2655.2	0.015583
2656.56	0.143756
2657.91	0.11161
2659.27	-0.285544
2660.62	0.224531
2661.97	0.0178885
2663.33	-0.115954
2664.68	0.319022
2666.03	0.125611
2667.38	0.107008
2668.74	0.204844
2670.09	0.142662
2671.44	0.0809617
2672.79	0.266821
2674.14	0.147969
2675.49	0.218361
2676.84	0.202063
2678.2	0.229781
2679.55	0.577107
2680.89	0.272719
2682.24	-0.393187
2683.59	0.261172
2684.94	0.379876
2686.29	0.673132
2687.64	0.0375209
2688.99	0.141086
2690.34	0.112737
2691.69	0.242661
2693.04	0.356809
2694.38	0.368568
2695.73	0.148271
2697.08	0.3777
2698.43	0.159025
2699.77	-0.0438199
2701.12	0.0731859
2702.46	-0.0693769
2703.81	0.339367
2705.16	0.0674834
2706.5	0.506095
2707.85	0.10326
2709.19	0.425601
2710.54	0.384829
2711.88	0.300228
2713.23	0.593256
2714.57	0.246838
2715.92	0.438128
2717.26	0.14945
2718.6	0.485974
2719.95	0.458577
2721.29	0.605443
2722.63	0.184303
2723.97	0.0975046
2725.32	0.257809
2726.66	0.0539279
2728	0.0681305
2729.34	0.56236
2730.68	0.0814686
2732.02	0.226247
2733.36	0.0364656
2734.7	0.0795679
2736.04	0.675498
2737.39	0.0352306
2738.72	-0.052362
2740.06	0.16525
2741.4	0.0916467
2742.74	0.424611
2744.08	0.0302072
2745.42	0.0714097
2746.76	0.242937
2748.1	0.283524
2749.44	0.382129
2750.77	0.321262
2752.11	-0.188804
2753.45	0.504553
2754.78	0.226872
2756.12	0.427419
2757.46	0.135656
2758.79	0.119276
2760.13	0.320276
2761.47	0.362396
2762.8	0.129944
2764.14	-0.000962734
2765.47	0.0996213
2766.81	0.21431
2768.14	0.169145
2769.48	-0.223995
2770.81	0.364843
2772.14	-0.145653
2773.48	0.151887
2774.81	0.174576
2776.14	0.0675435
2777.48	0.018518
2778.81	0.502042
2780.14	-0.0350232
2781.47	-0.0541363
2782.81	-0.202328
2784.14	0.0798678
2785.47	-0.0969653
2786.8	-0.187508
2788.13	-0.220332
2789.46	-0.352725
2790.79	0.00189495
2792.12	0.199578
2793.46	0.111609
2794.79	0.109457
2796.11	0.0784693
2797.44	-0.0814757
2798.77	0.0152755
2800.1	0.154428
2801.43	0.293239
2802.76	0.0753002
2804.09	-0.114122
2805.42	0.109365
2806.74	0.189774
2808.07	-0.228229
2809.4	-0.12009
2810.73	0.115703
2812.05	0.181302
2813.38	0.16258
2814.71	-0.223639
2816.03	0.256064
2817.36	-0.170612
2818.68	0.211064
2820.01	0.0966721
2821.33	0.0811553
2822.66	0.0793009
2823.98	0.119471
2825.31	0.159346
2826.63	0.156744
2827.96	0.423537
2829.28	0.74732
2830.61	0.193762
2831.93	0.334035
2833.25	0.219463
2834.57	0.500968
2835.9	0.315008
2837.22	0.156992
2838.54	0.720145
2839.86	0.787867
2841.18	1.19495
2842.51	1.07918
2843.83	1.09119
2845.15	1.01899
2846.47	1.52672
2847.79	1.15854
2849.11	1.85039
2850.43	1.90599
2851.75	2.03183
2853.07	1.71908
2854.39	1.95718
2855.71	1.95484
2857.03	1.40157
2858.35	1.62534
2859.67	1.93377
2860.98	1.73363
2862.3	1.92859
2863.62	2.09492
2864.94	2.33149
2866.25	1.82029
2867.57	2.49418
2868.89	2.57596
2870.21	2.5171
2871.52	2.38791
2872.84	2.25855
2874.15	2.50907
2875.47	2.36416
2876.78	2.48597
2878.1	2.36776
2879.42	2.4604
2880.73	2.44074
2882.04	2.60441
2883.36	2.36155
2884.67	2.5549
2885.99	2.74866
2887.3	3.39154
2888.61	2.70073
2889.93	2.57076
2891.24	2.74866
2892.55	2.82779
2893.87	2.65455
2895.18	2.98587
2896.49	2.78571
2897.8	3.00637
2899.11	2.72414
2900.42	2.73643
2901.74	3.26669
2903.05	2.88787
2904.36	2.87288
2905.67	3.66939
2906.98	2.98372
2908.29	3.30583
2909.6	3.61477
2910.91	3.37854
2912.22	3.64613
2913.53	3.6612
2914.83	3.82912
2916.14	4.28956
2917.45	4.24461
2918.76	4.45065
2920.07	4.19488
2921.37	4.31737
2922.68	4.41292
2923.99	4.38387
2925.3	4.59346
2926.6	4.67781
2927.91	4.37081
2929.22	4.77646
2930.52	4.91603
2931.83	4.49602
2933.13	4.62101
2934.44	5.06743
2935.74	4.78717
2937.05	4.87045
2938.35	4.53469
2939.66	4.43676
2940.96	4.12969
2942.27	4.11679
2943.57	3.99311
2944.87	4.42973
2946.18	4.05653
2947.48	3.92143
2948.78	3.78606
2950.09	3.57968
2951.39	3.66584
2952.69	2.96633
2953.99	3.32989
2955.29	3.67905
2956.6	3.427
2957.9	3.05069
2959.2	3.18049
2960.5	2.65426
2961.8	3.18042
2963.1	3.24507
2964.4	2.81802
2965.7	2.64218
2967	2.6476
2968.3	2.73634
2969.6	2.37455
2970.9	1.87188
2972.2	2.15706
2973.49	2.21754
2974.79	2.16547
2976.09	2.57755
2977.39	1.83413
2978.69	1.77934
2979.98	2.08927
2981.28	1.83513
2982.58	1.60891
2983.88	1.29881
2985.17	1.70657
2986.47	1.44085
2987.76	1.82274
2989.06	1.51692
2990.36	1.29564
2991.65	0.821029
2992.95	1.30137
2994.24	1.23265
2995.54	0.896249
2996.83	1.17733
2998.12	0.98091
2999.42	1.00932
3000.71	0.533405
3002	0.562917
3003.3	0.634819
3004.59	0.720821
3005.88	0.400509
3007.18	0.164024
3008.47	0.388913
3009.76	0.487089
3011.05	0.333111
3012.35	-0.114098
3013.64	0.220667
3014.93	0.415885
3016.22	0.109919
3017.51	0.0555587
3018.8	0.0295391
3020.09	0.337444
3021.38	0.450142
3022.67	0.228757
3023.96	-0.103977
3025.25	-0.0345545
3026.54	-0.0207667
3027.83	-0.0896168
3029.12	-0.102164
3030.41	-0.0306311
3031.69	-0.165165
3032.98	0.156834
3034.27	0.175317
3035.56	0.193469
3036.85	-0.0926299
3038.13	0.116383
3039.42	-0.350648
3040.71	-0.0479474
3041.99	0.0337501
3043.28	0.416784
3044.57	-0.0765004
3045.85	0.157353
3047.14	0.365162
3048.42	0.410775
3049.71	0.171504
3050.99	-0.0936394
3052.28	0.460699
3053.56	0.36014
3054.85	0.259193
3056.13	-0.142435
3057.42	-0.108238
3058.7	0.061687
3059.98	0.272158
3061.27	0.169765
3062.55	0.476336
3063.83	0.185586
3065.11	0.249716
3066.4	0.00231171
3067.68	0.109227
3068.96	0.134985
3070.24	0.201482
3071.52	0.0634279
3072.8	0.278172
3074.09	-0.214918
3075.37	0.0799117
3076.65	0.4558
3077.93	0.0987563
3079.21	0.190681
3080.49	0.0531888
3081.77	0.174728
3083.05	-0.136786
3084.32	0.203541
3085.61	0.218471
3086.88	-0.174024
3088.16	0.274599
3089.44	0.342763
3090.72	-0.0506864
3092	-0.0776653
3093.27	0.0719366
3094.55	-0.0629478
3095.83	-0.156774
3097.11	0.00720406
3098.38	-0.0320835
3099.66	0.172589
3100.94	-0.00206327
3102.21	0.0267043
3103.49	0.12349
3104.76	0.410241
3106.04	-0.0602798
3107.31	0.29558
3108.59	0.300492
3109.86	0.455246
3111.14	0.543268
3112.41	0.46955
3113.69	0.409761
3114.96	0.48565
3116.23	0.791916
3117.51	0.731589
3118.78	0.507781
3120.05	0.500293
3121.33	0.668506
3122.6	0.524608
3123.87	0.380823
3125.14	0.53537
3126.42	0.48728
3127.69	0.696876
3128.96	0.704031
3130.23	0.589923
3131.5	0.651889
3132.77	0.943594
3134.04	0.762232
3135.31	0.837293
3136.58	0.534284
3137.85	0.999943
3139.12	0.346696
3140.39	0.731
3141.66	0.590442
3142.93	0.746142
3144.2	0.942403
3145.47	0.495137
3146.74	0.518426
3148	0.98444
3149.27	1.11585
