200.388	1.26859
202.204	1.28039
204.019	1.2936
205.832	0.749243
207.646	0.935511
209.459	0.732401
211.274	1.1111
213.087	0.395357
214.899	0.358358
216.711	0.441973
218.524	0.453131
220.335	0.441206
222.146	-0.246361
223.956	-0.109604
225.766	1.33315
227.576	1.05997
229.388	1.17308
231.197	0.247639
233.005	0.336023
234.813	0.810848
236.621	0.0339241
238.429	0.441603
240.236	-0.0868397
242.045	0.907167
243.852	0.456902
245.658	0.658096
247.464	0.784992
249.269	0.497635
251.074	1.19566
252.879	0.465204
254.683	0.26354
256.487	-0.468884
258.291	0.415327
260.094	-0.0717468
261.897	-0.314728
263.702	-0.193699
265.504	0.459196
267.306	0.799795
269.108	-0.426583
270.909	0.033247
272.71	0.0576496
274.511	0.200682
276.311	-0.574607
278.111	0.816792
279.91	0.686682
281.709	0.505568
283.508	0.490324
285.306	-0.103622
287.105	-0.0494423
288.9	-0.0193024
290.698	-0.0838718
292.495	-0.960154
294.291	0.367804
296.088	0.381639
297.884	0.373366
299.679	-0.255179
301.475	-0.119131
303.27	0.517119
305.064	0.29193
306.858	0.447243
308.652	0.292171
310.444	0.638466
312.237	1.74852
314.03	0.860506
315.822	0.642423
317.615	1.47508
319.406	1.88197
321.198	1.4094
322.987	1.2239
324.778	1.73103
326.568	2.35849
328.358	0.907903
330.148	1.77347
331.935	1.68143
333.724	1.03635
335.513	1.91918
337.301	1.31479
339.089	1.16176
340.875	0.886758
342.662	0.491173
344.449	0.382571
346.236	0.51368
348.02	0.574173
349.806	0.44452
351.592	0.649202
353.375	1.30639
355.16	0.959723
356.944	0.587448
358.728	0.404156
360.51	1.17191
362.294	1.05663
364.077	1.10678
365.858	0.846868
367.64	1.1796
369.422	1.81859
371.202	1.00996
372.983	1.64525
374.764	2.06576
376.543	2.41462
378.324	2.29199
380.102	3.91448
381.881	4.54767
383.661	4.94722
385.438	5.04332
387.216	5.84681
388.993	4.93727
390.771	5.25154
392.548	4.58113
394.324	5.29764
396.101	4.0658
397.875	3.58567
399.651	2.65899
401.425	1.80198
403.201	2.77601
404.974	2.29253
406.749	2.20711
408.524	1.0407
410.296	1.00093
412.07	1.14895
413.841	0.969074
415.614	0.57919
417.385	0.0263062
419.156	1.21088
420.928	0.776758
422.698	0.576891
424.469	-0.0935764
426.238	0.572671
428.009	0.721142
429.777	0.211555
431.548	0.570402
433.315	0.295979
435.083	-0.846291
436.852	0.170627
438.618	0.247745
440.387	-0.381244
442.153	-0.0745716
443.919	0.720887
445.686	0.270774
447.451	0.287576
449.218	0.467236
450.982	1.06722
452.746	0.429437
454.512	0.72606
456.275	0.0899029
458.038	0.153173
459.803	0.518913
461.565	0.21072
463.327	-0.0483313
465.091	0.649001
466.852	-0.0900345
468.613	0.476356
470.374	0.511347
472.136	0.593986
473.896	1.16455
475.655	-0.0372639
477.415	0.177959
479.176	0.879504
480.934	0.274921
482.692	0.322701
484.45	0.581803
486.21	1.03034
487.967	1.06311
489.724	0.39952
491.481	1.46394
493.237	0.732299
494.995	0.677865
496.75	1.34882
498.506	1.59884
500.26	1.49679
502.015	1.65169
503.771	1.92281
505.525	2.3804
507.279	1.61335
509.032	3.05435
510.785	2.37565
512.537	3.90592
514.289	3.78628
516.041	4.22868
517.793	3.65727
519.546	4.04819
521.297	4.17883
523.047	3.67433
524.797	3.52201
526.547	2.99445
528.297	3.05365
530.046	2.9017
531.795	3.24107
533.543	1.9869
535.291	2.18263
537.039	3.05337
538.787	2.54246
540.534	1.37751
542.281	2.12391
544.027	0.704144
545.773	0.798116
547.519	1.79727
549.264	0.267576
551.01	0.964709
552.754	0.758449
554.499	0.160089
556.243	0.7406
557.987	0.421158
559.73	0.44866
561.474	-0.0525045
563.216	0.598105
564.959	0.0533867
566.701	0.544048
568.441	0.0711222
570.182	0.449308
571.923	-0.180112
573.664	0.0877848
575.405	1.06952
577.145	-0.240345
578.885	0.493998
580.624	0.610125
582.361	1.20913
584.1	0.405527
585.839	0.519597
587.577	0.309706
589.315	0.857051
591.052	0.528648
592.787	0.59049
594.524	0.698044
596.26	1.49584
597.997	1.39632
599.732	0.652053
601.466	1.99992
603.201	1.71229
604.936	1.58328
606.67	1.17641
608.403	0.768595
610.136	1.11832
611.87	0.50495
613.603	0.787596
615.334	0.91068
617.067	1.37764
618.799	0.263221
620.529	0.864941
622.26	0.228632
623.991	0.0489655
625.72	0.212132
627.451	-0.331144
629.181	1.1829
630.909	0.281283
632.638	0.980305
634.368	1.06508
636.095	0.167912
637.823	-0.161282
639.551	-0.471593
641.277	0.924592
643.005	0.719524
644.73	0.854239
646.457	-0.125633
648.184	0.399089
649.908	0.155482
651.634	-0.0594578
653.357	-0.677694
655.083	-0.0633659
656.806	0.100173
658.53	0.288416
660.253	0.157065
661.977	0.20583
663.7	0.251149
665.422	0.018424
667.145	0.720134
668.865	0.734672
670.588	0.452746
672.308	0.127875
674.027	0.5621
675.749	-0.0997467
677.468	-0.0955162
679.188	0.161683
680.907	0.234038
682.627	-0.133307
684.345	-0.27416
686.064	-0.579361
687.781	0.886395
689.498	0.36986
691.216	0.888662
692.932	0.185643
694.65	-0.0347719
696.366	0.802684
698.081	0.095438
699.797	0.399236
701.512	1.02291
703.228	0.127338
704.942	0.563989
706.655	1.34342
708.371	0.538583
710.083	1.08634
711.796	0.396313
713.51	0.278786
715.222	0.572515
716.934	1.0026
718.645	1.13548
720.358	1.10882
722.068	0.467633
723.779	0.4647
725.49	0.00688648
727.2	0.230872
728.909	0.453805
730.618	1.40108
732.329	0.941632
734.037	1.13893
735.745	1.29067
737.453	0.720076
739.16	1.57288
740.869	0.892889
742.576	1.02678
744.282	1.47782
745.988	0.445448
747.694	1.08075
749.401	1.15552
751.107	1.43478
752.811	1.13131
754.516	1.57236
756.22	2.35362
757.924	2.98051
759.627	3.20513
761.332	3.70264
763.035	4.69829
764.738	4.92734
766.44	5.56133
768.142	5.80821
769.843	6.77456
771.544	7.55611
773.245	8.10845
774.946	7.2125
776.646	7.87779
778.346	8.5006
780.046	6.97842
781.745	5.95556
783.444	5.67929
785.143	4.92545
786.841	3.8502
788.539	3.81067
790.237	3.5165
791.934	3.48909
793.631	2.51041
795.328	2.88653
797.024	2.40694
798.72	1.72813
800.416	1.36824
802.112	1.37097
803.807	2.20694
805.502	2.68238
807.196	1.31357
808.89	0.820196
810.584	0.707161
812.278	0.839533
813.971	1.06043
815.664	1.70591
817.354	2.08183
819.047	1.04918
820.739	1.49234
822.43	0.931276
824.122	1.42021
825.813	0.21711
827.503	1.71348
829.192	0.785864
830.882	1.08787
832.571	1.26073
834.261	0.812973
835.95	1.23623
837.637	1.97224
839.325	1.34523
841.013	0.648228
842.701	1.78082
844.389	0.723118
846.074	1.20817
847.761	0.0192051
849.447	0.779089
851.131	0.961697
852.817	0.721832
854.503	0.617636
856.188	1.00722
857.871	0.698975
859.556	0.432713
861.24	0.838842
862.922	0.724796
864.606	0.946714
866.289	0.107807
867.97	0.349834
869.653	0.230431
871.336	1.05792
873.016	0.261011
874.698	0.0955448
876.379	0.268562
878.058	0.238556
879.739	1.65306
881.418	-0.115715
883.098	1.0265
884.778	0.135347
886.456	0.348282
888.135	0.355675
889.812	0.834244
891.49	0.250696
893.167	0.206436
894.845	1.128
896.523	0.764822
898.198	-0.0483208
899.875	0.596931
901.55	-0.17206
903.226	0.111681
904.901	0.103893
906.576	0.408928
908.25	0.379778
909.925	0.352016
911.598	-0.67537
913.271	0.478424
914.945	0.0318642
916.617	0.695463
918.291	1.11392
919.962	0.114697
921.635	0.00299072
923.306	0.268969
924.978	0.581205
926.648	0.189457
928.318	0.0434456
929.989	0.561464
931.659	1.49963
933.328	0.143749
934.998	0.795738
936.666	0.477835
938.336	0.668558
940.004	-0.109253
941.671	0.0190716
943.34	1.31813
945.007	1.02856
946.673	0.339825
948.339	0.0897064
950.007	0.30018
951.672	0.574799
953.337	0.452259
955.004	-0.483761
956.669	-0.709932
958.333	-0.335838
959.997	0.705042
961.662	-0.238043
963.326	-0.453079
964.989	0.191774
966.651	0.0809383
968.315	-0.012125
969.977	0.00215912
971.639	0.125616
973.301	0.271776
974.962	0.972975
976.624	0.0848083
978.285	-0.00489235
979.945	0.216278
981.605	0.437075
983.264	-0.141033
984.924	0.163361
986.583	0.46446
988.243	-0.564932
989.901	0.638098
991.56	-0.592268
993.217	0.188473
994.875	0.394516
996.532	0.0269203
998.188	0.718117
999.845	0.570789
1001.5	0.797424
1003.16	-0.0332623
1004.81	0.368233
1006.47	0.30748
1008.12	-0.236109
1009.78	0.66991
1011.43	0.610518
1013.09	1.18755
1014.74	0.932236
1016.39	1.20329
1018.05	1.75938
1019.7	2.2726
1021.35	3.35572
1023	3.41296
1024.65	5.00184
1026.31	4.36262
1027.96	5.64642
1029.61	5.13726
1031.26	5.0627
1032.91	4.96316
1034.56	5.31855
1036.21	5.40899
1037.86	4.23399
1039.51	4.69321
1041.16	3.97842
1042.8	4.26704
1044.45	3.71137
1046.1	3.83321
1047.75	2.76421
1049.39	2.65398
1051.04	2.24199
1052.69	2.30933
1054.33	1.29094
1055.98	1.09805
1057.62	1.86115
1059.27	1.29743
1060.91	0.710777
1062.56	0.949104
1064.2	1.16418
1065.85	1.07311
1067.49	1.34975
1069.13	1.97217
1070.77	1.18136
1072.42	1.3895
1074.06	1.96713
1075.7	1.11454
1077.34	3.04054
1078.98	2.8866
1080.62	3.3847
1082.27	3.6877
1083.91	4.63953
1085.55	4.41732
1087.18	4.14792
1088.82	4.65425
1090.46	4.42067
1092.1	5.33077
1093.74	4.42395
1095.38	4.53325
1097.02	3.28585
1098.65	3.33548
1100.29	3.66823
1101.93	2.49803
1103.56	2.45059
1105.2	1.33015
1106.84	1.78111
1108.47	0.898222
1110.11	1.06741
1111.74	1.06195
1113.38	0.795982
1115.01	1.02198
1116.64	0.131073
1118.28	0.42065
1119.91	1.01088
1121.54	0.831245
1123.18	0.439573
1124.81	1.84708
1126.44	0.538818
1128.07	1.30683
1129.7	0.536364
1131.33	0.79327
1132.97	0.623131
1134.6	0.153605
1136.23	0.409891
1137.86	0.108862
1139.49	0.575048
1141.11	0.0997906
1142.74	0.306997
1144.37	0.300894
1146	-0.0451908
1147.63	0.612175
1149.26	0.652754
1150.88	0.332083
1152.51	0.352354
1154.14	-0.30917
1155.76	-0.0344791
1157.39	0.15472
1159.01	0.131678
1160.64	0.280134
1162.27	0.49416
1163.89	0.561024
1165.51	0.607538
1167.14	1.16399
1168.76	0.31551
1170.39	0.909922
1172.01	0.395929
1173.63	0.919901
1175.25	0.465101
1176.88	0.455276
1178.5	0.996515
1180.12	1.87679
1181.74	1.69977
1183.36	0.424826
1184.98	0.96866
1186.6	1.23582
1188.22	0.402697
1189.84	0.811447
1191.46	0.668724
1193.08	0.649956
1194.7	1.46966
1196.32	1.90966
1197.94	1.42877
1199.55	0.910217
1201.17	0.981783
1202.79	1.01601
1204.41	1.47205
1206.02	0.992647
1207.64	0.515759
1209.25	0.811363
1210.87	0.709368
1212.48	1.12591
1214.1	1.37165
1215.71	1.32171
1217.33	0.707039
1218.94	1.40103
1220.56	0.910038
1222.17	1.10554
1223.79	1.53071
1225.4	1.27454
1227.01	1.10409
1228.62	0.770752
1230.23	0.584536
1231.85	0.338398
1233.46	1.3344
1235.07	0.988972
1236.68	0.521532
1238.29	1.23403
1239.9	0.624605
1241.51	1.04941
1243.12	1.43255
1244.73	1.7732
1246.34	1.88458
1247.94	1.41484
1249.55	0.902489
1251.16	0.98966
1252.77	1.57357
1254.37	1.08304
1255.98	1.46304
1257.59	0.728071
1259.2	1.27766
1260.8	0.752718
1262.41	1.26357
1264.01	1.36061
1265.62	0.793968
1267.22	1.13787
1268.83	0.60965
1270.43	1.61396
1272.03	1.53843
1273.64	1.56486
1275.24	1.81761
1276.85	1.42627
1278.45	1.69668
1280.05	0.806293
1281.65	1.94447
1283.25	1.28196
1284.85	1.82029
1286.46	0.933313
1288.06	1.24727
1289.66	1.66598
1291.26	2.04418
1292.86	1.82302
1294.46	2.63364
1296.06	1.95473
1297.66	2.57412
1299.25	1.33315
1300.85	1.08089
1302.45	1.75397
1304.05	1.88914
1305.65	1.63221
1307.24	1.23118
1308.84	1.87681
1310.43	1.7423
1312.03	1.363
1313.63	2.06967
1315.22	1.97979
1316.82	1.87128
1318.41	1.4171
1320.01	1.06541
1321.6	1.18141
1323.2	2.1291
1324.79	1.38472
1326.38	1.10672
1327.98	1.41644
1329.57	1.11872
1331.16	1.81527
1332.76	1.60479
1334.35	1.80224
1335.94	2.56725
1337.53	1.92068
1339.12	1.91885
1340.71	1.16904
1342.3	2.08731
1343.89	0.849503
1345.48	1.58026
1347.07	1.50719
1348.66	1.87771
1350.25	0.390376
1351.84	1.30938
1353.43	1.35118
1355.01	1.19529
1356.6	1.08013
1358.19	1.14418
1359.77	1.00699
1361.36	2.00586
1362.95	1.36649
1364.53	2.00315
1366.12	1.46389
1367.71	1.20532
1369.29	0.829506
1370.88	0.993531
1372.46	1.29903
1374.04	1.2482
1375.63	1.27809
1377.21	1.42759
1378.8	1.59622
1380.38	1.26575
1381.96	1.11228
1383.54	0.320429
1385.13	1.29667
1386.71	1.55599
1388.29	0.584085
1389.87	1.22189
1391.45	0.769321
1393.03	0.794424
1394.61	0.840006
1396.19	1.42069
1397.77	0.453738
1399.35	1.20981
1400.93	0.993169
1402.51	0.41946
1404.09	1.2905
1405.67	0.915705
1407.24	1.21465
1408.82	0.744194
1410.4	1.10451
1411.98	0.931417
1413.55	0.836483
1415.13	0.957223
1416.71	1.47087
1418.28	1.0175
1419.86	1.33336
1421.43	1.67031
1423.01	1.77339
1424.58	1.48555
1426.16	2.43984
1427.73	1.89927
1429.31	2.44084
1430.88	3.05957
1432.45	2.6725
1434.02	2.4806
1435.6	3.40901
1437.17	3.41309
1438.74	3.30052
1440.31	2.18743
1441.88	2.74667
1443.45	3.52331
1445.03	2.98389
1446.6	2.81818
1448.17	3.26206
1449.74	2.72355
1451.3	3.48338
1452.87	3.08413
1454.44	3.37387
1456.01	2.97507
1457.58	2.6931
1459.15	2.19245
1460.72	2.43674
1462.28	2.71713
1463.85	2.73881
1465.42	1.95268
1466.98	2.56145
1468.55	2.40441
1470.12	1.58177
1471.68	2.01715
1473.25	2.2187
1474.81	2.46074
1476.38	1.70349
1477.94	2.43656
1479.51	1.81679
1481.07	2.86297
1482.63	2.90927
1484.2	2.46546
1485.76	2.62851
1487.32	1.75217
1488.88	1.89226
1490.45	2.9879
1492.01	2.20121
1493.57	2.91612
1495.13	2.51417
1496.69	2.01379
1498.25	1.74772
1499.81	1.98852
1501.37	1.12399
1502.93	1.13597
1504.49	1.73067
1506.05	1.18264
1507.61	0.673342
1509.17	1.16804
1510.73	0.887886
1512.28	0.876787
1513.84	1.09601
1515.4	0.85358
1516.96	0.363098
1518.51	0.852983
1520.07	1.51516
1521.63	0.473257
1523.18	1.01961
1524.74	1.06708
1526.29	0.216614
1527.85	0.509439
1529.4	0.857598
1530.96	1.48948
1532.51	1.21026
1534.06	0.649118
1535.62	0.961098
1537.17	0.0835371
1538.72	1.02092
1540.28	0.561657
1541.83	0.668615
1543.38	0.530539
1544.93	0.937674
1546.48	1.53146
1548.03	1.09176
1549.59	0.765348
1551.14	0.926722
1552.69	1.46269
1554.24	0.821657
1555.79	1.19234
1557.34	1.00535
1558.88	0.914905
1560.43	1.18195
1561.98	0.966477
1563.53	1.33114
1565.08	0.931796
1566.62	1.26031
1568.17	0.916643
1569.72	1.65492
1571.27	0.525975
1572.81	1.15119
1574.36	1.3655
1575.9	1.1878
1577.45	1.66378
1579	1.72973
1580.54	1.21781
1582.09	1.54733
1583.63	1.33659
1585.17	1.20161
1586.72	1.19818
1588.26	1.75609
1589.8	1.7902
1591.35	2.31033
1592.89	1.63161
1594.43	2.56276
1595.97	2.12677
1597.52	1.78485
1599.06	1.8187
1600.6	2.8479
1602.14	1.68301
1603.68	2.18816
1605.22	2.20426
1606.76	2.06783
1608.3	1.92819
1609.84	1.86
1611.38	1.63779
1612.92	2.06985
1614.46	1.91744
1615.99	1.22051
1617.53	0.712549
1619.07	1.5183
1620.61	1.29562
1622.14	1.71182
1623.68	2.05433
1625.22	1.18011
1626.75	1.72738
1628.29	1.52397
1629.82	1.87952
1631.36	1.20503
1632.9	2.30506
1634.43	1.94817
1635.96	1.70485
1637.5	1.81757
1639.03	1.91256
1640.57	2.43623
1642.1	2.00841
1643.63	2.78953
1645.16	1.986
1646.7	2.16758
1648.23	2.19966
1649.76	2.73361
1651.29	2.35911
1652.82	2.84024
1654.36	2.93348
1655.89	2.61998
1657.42	2.21397
1658.95	2.5479
1660.48	2.65726
1662.01	2.02407
1663.53	2.1663
1665.06	2.58435
1666.59	2.94687
1668.12	2.42535
1669.65	2.2018
1671.18	2.4415
1672.7	2.1855
1674.23	2.05934
1675.76	0.993978
1677.29	1.51083
1678.81	1.4737
1680.34	1.80266
1681.86	1.52361
1683.39	1.5565
1684.91	0.892076
1686.44	2.17295
1687.96	1.56516
1689.49	1.21511
1691.01	1.10383
1692.54	0.571856
1694.06	1.1195
1695.58	0.825331
1697.11	1.20714
1698.63	0.27312
1700.15	1.05509
1701.67	0.667976
1703.2	0.280512
1704.72	0.639402
1706.24	0.633068
1707.76	0.789895
1709.28	0.365029
1710.8	0.394703
1712.32	-0.17383
1713.84	0.164705
1715.36	0.683798
1716.88	-0.118526
1718.4	0.815293
1719.91	0.302773
1721.43	-0.533462
1722.95	0.327146
1724.47	0.161006
1725.99	-0.183103
1727.5	0.375063
1729.02	0.286515
1730.54	-0.106431
1732.05	0.0915222
1733.57	0.175366
1735.09	0.488037
1736.6	0.133336
1738.12	0.495042
1739.63	-0.06569
1741.15	0.0936852
1742.66	0.433403
1744.18	-0.156845
1745.69	0.219115
1747.2	0.276548
1748.72	0.472218
1750.23	0.512826
1751.74	0.502534
1753.25	0.210129
1754.77	0.117673
1756.28	-0.273839
1757.79	0.530178
1759.3	0.507805
1760.81	0.053421
1762.32	0.3741
1763.83	0.281169
1765.34	-0.115443
1766.85	0.346554
1768.36	0.356482
1769.87	-0.115783
1771.38	-0.208495
1772.89	-0.455484
1774.4	0.0533781
1775.91	-0.278158
1777.41	-0.415026
1778.92	0.0671978
1780.43	0.420142
1781.94	0.231991
1783.44	0.0648441
1784.95	0.159573
1786.45	-0.143729
1787.96	0.208157
1789.47	0.0660486
1790.97	0.0399475
1792.48	-0.108065
1793.98	-0.292813
1795.48	-0.211084
1796.99	0.324634
1798.49	0.00593281
1800	0.533879
1801.5	0.126411
1803	0.122866
1804.51	0.196952
1806.01	0.159245
1807.51	0.187369
1809.01	0.0973101
1810.51	0.210336
1812.02	-0.0107822
1813.52	0.177691
1815.02	-0.109036
1816.52	0.0907812
1818.02	-0.273022
1819.52	0.318782
1821.02	0.270793
1822.52	-0.0391512
1824.02	0.193979
1825.51	0.145546
1827.01	0.527926
1828.51	0.147943
1830.01	0.0562258
1831.51	0.339996
1833	0.320853
1834.5	0.427999
1836	0.145015
1837.5	0.222693
1838.99	0.485141
1840.49	0.206
1841.98	0.476486
1843.48	0.317453
1844.97	-0.162274
1846.47	0.217249
1847.96	-0.224189
1849.46	0.484403
1850.95	0.125915
1852.45	0.244196
1853.94	0.373942
1855.43	0.208325
1856.92	0.535099
1858.42	-0.109785
1859.91	0.268861
1861.4	0.497477
1862.89	0.187535
1864.39	0.349113
1865.88	0.194395
1867.37	0.0406208
1868.86	0.358912
1870.35	0.18073
1871.84	0.311007
1873.33	-0.244007
1874.82	0.0726137
1876.31	0.21545
1877.8	-0.103251
1879.29	0.184464
1880.77	-0.0740576
1882.26	0.0342817
1882.51	0.0642414
1884	0.342071
1885.5	0.47916
1886.99	0.371017
1888.48	0.0881615
1889.98	-0.385531
1891.47	0.620758
1892.97	0.324686
1894.46	0.570242
1895.95	-0.051342
1897.44	0.354127
1898.93	0.0290155
1900.42	0.398275
1901.92	-0.0871611
1903.41	-0.279237
1904.9	0.0483418
1906.39	-0.389989
1907.88	-0.550085
1909.37	0.262772
1910.86	0.174016
1912.35	0.0171814
1913.84	0.225416
1915.32	0.589763
1916.81	0.121312
1918.3	0.328279
1919.79	-0.14127
1921.28	0.359308
1922.76	0.0289745
1924.25	-0.126874
1925.74	-0.731238
1927.22	0.206587
1928.71	0.0719891
1930.2	0.197062
1931.68	0.165174
1933.17	0.0446882
1934.65	-0.216691
1936.14	0.523311
1937.62	0.223328
1939.11	0.0958462
1940.59	-0.238288
1942.08	0.447319
1943.56	0.374737
1945.04	0.42415
1946.53	-0.112058
1948.01	-0.182945
1949.49	-0.375381
1950.97	0.343552
1952.45	-0.299015
1953.94	0.244933
1955.42	-0.432029
1956.9	-0.094409
1958.38	0.552657
1959.86	0.582534
1961.34	-0.107002
1962.82	-0.110094
1964.3	-0.301898
1965.78	-0.0318499
1967.26	0.0486965
1968.74	-0.538848
1970.22	0.668315
1971.69	0.575265
1973.17	0.00434303
1974.65	0.167769
1976.13	0.160769
1977.61	1.02267
1979.08	0.232487
1980.56	0.140721
1982.03	-0.291134
1983.51	-0.926634
1984.99	-8.86917e-005
1986.46	0.653316
1987.94	0.37359
1989.41	0.0608492
1990.89	0.426386
1992.36	0.0655346
1993.84	0.196694
1995.31	0.244396
1996.78	0.0561695
1998.26	-0.0137663
1999.73	-0.0336065
2001.2	0.215729
2002.68	-0.480401
2004.15	0.931212
2005.62	0.100877
2007.09	0.215506
2008.56	-0.12327
2010.04	0.313726
2011.51	0.330497
2012.98	0.246351
2014.45	-0.107615
2015.92	0.227304
2017.39	0.0561934
2018.86	0.0185566
2020.33	-0.6415
2021.8	0.0423956
2023.27	0.474265
2024.74	0.0679398
2026.2	0.602857
2027.67	0.166849
2029.14	0.588367
2030.61	0.508623
2032.07	-0.190683
2033.54	0.419625
2035.01	0.173888
2036.47	0.179438
2037.94	0.184245
2039.41	-0.147641
2040.87	-0.193977
2042.34	0.31504
2043.8	0.203059
2045.27	-0.395743
2046.73	0.739991
2048.2	-0.346168
2049.66	0.504266
2051.12	0.173823
2052.59	0.363815
2054.05	0.365787
2055.51	0.938608
2056.98	0.413401
2058.44	0.10647
2059.9	1.04598
2061.36	0.0827236
2062.82	0.366823
2064.29	0.786857
2065.75	0.299495
2067.21	0.318219
2068.67	0.43876
2070.13	0.59344
2071.59	0.310533
2073.05	0.380939
2074.51	0.450985
2075.97	0.72265
2077.43	0.370716
2078.88	0.4729
2080.34	0.187138
2081.8	1.11288
2083.26	0.673856
2084.72	0.570547
2086.17	0.567182
2087.63	0.798329
2089.09	0.591698
2090.54	0.771312
2092	0.749166
2093.46	0.492002
2094.91	0.872026
2096.37	1.21737
2097.82	1.02531
2099.28	1.03344
2100.73	0.940739
2102.19	1.11585
2103.64	1.04144
2105.09	1.23603
2106.55	1.09884
2108	1.69717
2109.46	1.97891
2110.91	1.39285
2112.36	1.28846
2113.81	1.71453
2115.27	1.40541
2116.72	1.77705
2118.17	1.73325
2119.62	1.39276
2121.07	1.7855
2122.52	1.56725
2123.97	1.58346
2125.42	1.91571
2126.87	1.75012
2128.32	1.61624
2129.77	1.61293
2131.22	1.78985
2132.67	2.13088
2134.12	2.02479
2135.57	2.2507
2137.01	2.54481
2138.46	2.67645
2139.91	2.5632
2141.36	2.28721
2142.8	2.4098
2144.25	2.41771
2145.7	2.72376
2147.14	3.11238
2148.59	3.25183
2150.03	2.64443
2151.48	2.53231
2152.92	2.78314
2154.37	2.58531
2155.81	2.80095
2157.26	3.19886
2158.7	2.91872
2160.15	3.35302
2161.59	3.32636
2163.03	3.07058
2164.48	3.04924
2165.92	2.33196
2167.36	4.22195
2168.8	2.38879
2170.25	3.17883
2171.69	2.96786
2173.13	3.15299
2174.57	3.38577
2176.01	2.98556
2177.45	2.88509
2178.89	3.43424
2180.33	3.51941
2181.77	3.3234
2183.21	2.94537
2184.65	2.60094
2186.09	2.98847
2187.53	3.17653
2188.97	2.96532
2190.41	3.07026
2191.84	2.79191
2193.28	2.42909
2194.72	2.66359
2196.16	2.6788
2197.59	2.80734
2199.03	2.70024
2200.47	2.17623
2201.9	2.43307
2203.34	2.49146
2204.78	2.23643
2206.21	2.04956
2207.65	2.47664
2209.08	2.29039
2210.51	2.16933
2211.95	1.25292
2213.38	2.23748
2214.82	2.17984
2216.25	2.20573
2217.68	1.55693
2219.12	1.966
2220.55	1.78261
2221.98	1.53362
2223.42	2.10752
2224.85	2.06953
2226.28	1.51887
2227.71	1.72285
2229.14	1.51391
2230.57	1.40269
2232	1.30775
2233.43	1.16434
2234.86	1.33299
2236.29	1.33968
2237.72	1.78946
2239.15	0.250935
2240.58	0.690121
2242.01	1.22953
2243.44	1.02045
2244.87	1.05658
2246.3	0.586128
2247.73	1.25517
2249.15	1.10559
2250.58	0.513092
2252.01	1.1398
2253.43	0.755924
2254.86	0.43815
2256.29	0.86967
2257.71	0.833446
2259.14	0.50929
2260.56	0.951835
2261.99	1.31698
2263.41	0.889043
2264.84	0.997358
2266.26	0.958972
2267.69	0.333747
2269.11	0.715716
2270.54	0.722409
2271.96	0.321309
2273.38	1.23897
2274.81	0.642201
2276.23	0.208386
2277.65	0.605814
2279.07	0.416659
2280.49	0.439317
2281.92	0.380264
2283.34	0.418956
2284.76	0.702514
2286.18	0.496833
2287.6	0.61811
2289.02	0.0540771
2290.44	0.290846
2291.86	0.054141
2293.28	1.07669
2294.7	-0.0268784
2296.12	0.243443
2297.54	0.563049
2298.96	0.194942
2300.38	0.220125
2301.79	0.163736
2303.21	0.419402
2304.63	0.265198
2306.05	0.324242
2307.46	0.317155
2308.88	0.52302
2310.3	0.547336
2311.71	0.324371
2313.13	0.496114
2314.55	0.240578
2315.96	-0.063549
2317.38	0.0943956
2318.79	0.434465
2320.21	0.560188
2321.62	0.172991
2323.03	0.542174
2324.45	0.495582
2325.86	0.528337
2327.27	0.789565
2328.69	0.818677
2330.1	0.353875
2331.51	-0.0598364
2332.93	-0.307134
2334.34	0.0392017
2335.75	-0.321642
2337.16	-0.403299
2338.57	0.582444
2339.99	0.218299
2341.4	0.0995855
2342.81	0.259304
2344.22	-0.286427
2345.63	-0.224675
2347.04	0.312384
2348.45	0.194073
2349.86	0.00997162
2351.26	-0.452804
2352.67	0.357814
2354.08	0.415079
2355.49	0.128967
2356.9	-0.580335
2358.31	-0.165891
2359.71	0.524037
2361.12	0.368676
2362.53	-0.321391
2363.94	-0.0221949
2365.34	0.0821476
2366.75	-0.411433
2368.15	-0.0636587
2369.56	0.446166
2370.97	0.376737
2372.37	-0.190155
2373.78	0.500931
2375.18	-0.272789
2376.59	0.0960073
2377.99	-0.0194168
2379.39	-0.201036
2380.8	0.177289
2382.2	0.232185
2383.61	-0.114684
2385.01	-0.0291395
2386.41	-0.0790749
2387.81	-0.127687
2389.22	0.168205
2390.62	0.114823
2392.02	0.0153761
2393.42	0.0924559
2394.82	0.250127
2396.22	-0.179574
2397.63	0.218317
2399.02	-0.368337
2400.43	0.539219
2401.82	0.525664
2403.23	0.0198736
2404.62	-0.0734034
2406.02	0.244939
2407.42	0.19684
2408.82	-0.0743332
2410.22	0.193256
2411.62	-0.157016
2413.02	0.349291
2414.41	-0.0612535
2415.81	-0.0580673
2417.21	0.0260735
2418.61	0.143164
2420	-0.277673
2421.4	0.299138
2422.79	0.13105
2424.19	0.152681
2425.59	0.443783
2426.98	-0.120172
2428.38	0.521653
2429.77	0.229513
2431.17	0.239567
2432.56	0.662611
2433.96	0.00535679
2435.35	0.188107
2436.74	-0.218946
2438.14	0.674742
2439.53	-0.00621223
2440.92	0.534694
2442.32	0.391879
2443.71	0.0107517
2445.1	0.105541
2446.49	-0.180467
2447.88	0.405207
2449.28	0.499287
2450.67	0.197769
2452.06	-0.0552998
2453.45	0.215002
2454.84	-0.114814
2456.23	0.268248
2457.62	0.224617
2459.01	-0.0406399
2460.4	0.405047
2461.79	0.106353
2463.18	0.407357
2464.57	0.249153
2465.96	0.153832
2467.34	-0.351956
2468.73	0.215561
2470.12	-0.0220251
2471.51	-0.165401
2472.89	-0.0417099
2474.28	-0.218307
2475.67	-0.238201
2477.05	0.102942
2478.44	0.145071
2479.83	-0.0480251
2481.21	0.229812
2482.6	-0.213576
2483.98	0.188488
2485.37	0.541727
2486.75	-0.169695
2488.14	-0.303597
2489.52	0.0137968
2490.9	-0.0589371
2492.29	0.10237
2493.67	-0.604797
2495.06	0.133877
2496.44	-0.522035
2497.82	-0.0761232
2499.2	-0.017417
2500.59	0.210913
2501.97	0.236925
2503.35	0.23068
2504.73	0.392889
2506.11	0.107056
2507.49	-0.0399637
2508.88	-0.186493
2510.26	-0.301429
2511.63	-0.154468
2513.01	-0.190696
2514.39	-0.0878763
2515.77	0.3833
2517.15	0.319559
2518.53	-0.354898
2519.91	0.530236
2521.29	0.115902
2522.67	-0.359883
2524.05	0.612856
2525.42	0.501057
2526.8	-0.143911
2528.18	0.0952044
2529.56	0.0769367
2530.93	0.106411
2532.31	-0.196142
2533.69	-0.208112
2535.06	-0.127975
2536.44	-0.1998
2537.81	0.183244
2539.19	0.169999
2540.56	-0.0721045
2541.94	0.155957
2543.31	-0.237844
2544.69	0.568026
2546.06	0.0557623
2547.44	-0.0149536
2548.81	0.112676
2550.18	0.361869
2551.56	0.337317
2552.93	0.205271
2554.3	0.32981
2555.68	0.680642
2557.05	-0.0160484
2558.42	0.348892
2559.79	0.168255
2561.16	-0.223773
2562.53	0.370204
2563.9	-0.0655775
2565.28	0.241783
2566.64	0.428251
2568.02	0.523936
2569.38	0.271049
2570.76	0.56378
2572.12	0.326075
2573.49	-0.199554
2574.86	0.108641
2576.23	0.689835
2577.6	-0.21489
2578.97	-0.0737677
2580.34	0.00623894
2581.7	0.237331
2583.07	0.164649
2584.44	-0.135737
2585.81	0.170186
2587.17	-0.0997505
2588.54	0.28229
2589.91	0.876601
2591.27	0.212911
2592.64	-0.102788
2594	-0.116464
2595.37	-0.176909
2596.73	0.578695
2598.1	0.969352
2599.46	0.0890121
2600.83	0.116442
2602.19	-0.0971327
2603.55	0.35458
2604.92	-0.0383358
2606.28	0.052001
2607.64	-0.0391006
2609.01	0.0496254
2610.37	0.196892
2611.73	0.131458
2613.09	0.365293
2614.46	0.0568295
2615.82	0.393881
2617.18	0.385768
2618.54	0.513281
2619.9	-0.390869
2621.26	0.352144
2622.62	0.347695
2623.98	-0.179055
2625.34	0.548292
2626.7	0.200639
2628.06	-0.0426693
2629.42	0.175562
2630.78	0.0212135
2632.14	0.208876
2633.5	0.36645
2634.86	-0.0105848
2636.22	0.63622
2637.57	0.36323
2638.93	-0.086936
2640.29	0.410672
2641.64	0.61219
2643	0.104692
2644.36	0.705344
2645.72	-0.0374346
2647.07	0.104827
2648.43	0.3785
2649.78	0.223816
2651.14	0.421314
2652.49	0.280191
2653.85	0.0809536
2655.2	0.46938
2656.56	0.302096
2657.91	0.209797
2659.27	0.265103
2660.62	0.686447
2661.97	0.800277
2663.33	0.44575
2664.68	0.630603
2666.03	-0.0318213
2667.38	0.195126
2668.74	-0.0298433
2670.09	0.0805407
2671.44	0.205986
2672.79	0.0705605
2674.14	0.560562
2675.49	0.673449
2676.84	-0.0109463
2678.2	0.0892353
2679.55	-0.143046
2680.89	0.466989
2682.24	0.208687
2683.59	0.401449
2684.94	-0.0281067
2686.29	-0.138103
2687.64	0.390273
2688.99	0.438245
2690.34	0.367788
2691.69	0.309369
2693.04	0.031291
2694.38	0.0421753
2695.73	0.255677
2697.08	0.151075
2698.43	0.308914
2699.77	0.512373
2701.12	0.385148
2702.46	0.0136728
2703.81	0.10702
2705.16	0.462085
2706.5	0.295403
2707.85	0.157227
2709.19	0.26516
2710.54	-0.135611
2711.88	0.407216
2713.23	0.150958
2714.57	0.185165
2715.92	0.437391
2717.26	0.23869
2718.6	0.0831804
2719.95	0.23267
2721.29	0.177852
2722.63	0.340688
2723.97	0.575671
2725.32	0.213277
2726.66	0.24336
2728	0.142019
2729.34	0.695214
2730.68	0.15678
2732.02	0.622277
2733.36	0.476793
2734.7	0.098835
2736.04	0.47751
2737.39	0.798141
2738.72	0.406082
2740.06	0.20278
2741.4	-0.13198
2742.74	0.651881
2744.08	0.0101566
2745.42	0.602859
2746.76	0.352239
2748.1	0.217685
2749.44	0.271899
2750.77	0.369833
2752.11	0.294044
2753.45	-0.0712433
2754.78	0.244868
2756.12	-0.0908222
2757.46	0.124107
2758.79	0.0642014
2760.13	0.164021
2761.47	0.00396156
2762.8	0.350992
2764.14	-0.0829325
2765.47	-0.198536
2766.81	0.58224
2768.14	-0.244001
2769.48	0.215399
2770.81	-0.15128
2772.14	0.101672
2773.48	-0.0223246
2774.81	0.386564
2776.14	0.08887
2777.48	0.554902
2778.81	0.330657
2780.14	-0.136848
2781.47	0.330142
2782.81	0.208224
2784.14	0.000318527
2785.47	-0.365005
2786.8	0.158383
2788.13	-0.563584
2789.46	-0.0819817
2790.79	0.200134
2792.12	-0.103125
2793.46	-0.176916
2794.79	0.106671
2796.11	0.175348
2797.44	-0.613778
2798.77	-0.132304
2800.1	0.29111
2801.43	0.214479
2802.76	0.294486
2804.09	0.0177813
2805.42	0.338972
2806.74	0.118071
2808.07	0.36597
2809.4	0.115474
2810.73	0.0784016
2812.05	0.0421591
2813.38	0.0216274
2814.71	-0.181298
2816.03	0.326491
2817.36	0.268704
2818.68	0.495183
2820.01	-0.100391
2821.33	0.111329
2822.66	0.435482
2823.98	0.262779
2825.31	0.401284
2826.63	0.525604
2827.96	0.693039
2829.28	0.266605
2830.61	0.945027
2831.93	0.406315
2833.25	0.999949
2834.57	0.842908
2835.9	1.02486
2837.22	1.23429
2838.54	1.49958
2839.86	1.59471
2841.18	1.25165
2842.51	1.77155
2843.83	1.62794
2845.15	2.47463
2846.47	2.44598
2847.79	2.40373
2849.11	2.55939
2850.43	2.38953
2851.75	2.82671
2853.07	2.93803
2854.39	2.42699
2855.71	2.38206
2857.03	2.84566
2858.35	2.05212
2859.67	3.39126
2860.98	2.69643
2862.3	3.27196
2863.62	3.19744
2864.94	3.92686
2866.25	2.97718
2867.57	3.60785
2868.89	3.99917
2870.21	3.65788
2871.52	3.58474
2872.84	4.10316
2874.15	3.67627
2875.47	3.9383
2876.78	3.81844
2878.1	3.66939
2879.42	3.82948
2880.73	4.7629
2882.04	4.57264
2883.36	4.52451
2884.67	4.64632
2885.99	4.17936
2887.3	4.44253
2888.61	4.64883
2889.93	4.41903
2891.24	4.5948
2892.55	4.58734
2893.87	5.08394
2895.18	4.44642
2896.49	4.49643
2897.8	5.23358
2899.11	4.86664
2900.42	4.97659
2901.74	5.94051
2903.05	5.50586
2904.36	5.81278
2905.67	5.89631
2906.98	5.67294
2908.29	6.15017
2909.6	6.4749
2910.91	6.77263
2912.22	6.46859
2913.53	7.71731
2914.83	7.71803
2916.14	7.80005
2917.45	8.29943
2918.76	8.83888
2920.07	8.56651
2921.37	9.28808
2922.68	9.48013
2923.99	9.46479
2925.3	9.81476
2926.6	10.0819
2927.91	9.83199
2929.22	10.0847
2930.52	10.5322
2931.83	10.881
2933.13	10.5583
2934.44	11.3259
2935.74	10.8497
2937.05	10.7931
2938.35	10.3176
2939.66	10.7369
2940.96	10.5422
2942.27	10.5028
2943.57	9.50096
2944.87	10.0388
2946.18	9.12454
2947.48	9.53975
2948.78	9.29707
2950.09	8.73033
2951.39	7.76838
2952.69	7.78354
2953.99	7.25045
2955.29	8.03276
2956.6	7.83647
2957.9	7.20951
2959.2	6.92258
2960.5	6.87784
2961.8	6.80821
2963.1	7.14658
2964.4	6.74053
2965.7	6.79536
2967	6.0185
2968.3	6.22313
2969.6	5.56893
2970.9	5.68783
2972.2	5.76503
2973.49	5.68803
2974.79	5.34355
2976.09	5.84276
2977.39	5.12921
2978.69	5.27196
2979.98	5.45423
2981.28	4.73377
2982.58	5.08197
2983.88	5.44444
2985.17	4.69808
2986.47	4.4884
2987.76	4.50588
2989.06	3.69582
2990.36	3.51852
2991.65	3.83243
2992.95	3.51238
2994.24	2.89548
2995.54	2.90936
2996.83	3.02044
2998.12	2.68205
2999.42	2.75111
3000.71	2.06377
3002	2.33092
3003.3	2.01003
3004.59	1.88564
3005.88	1.80299
3007.18	1.78957
3008.47	1.67706
3009.76	1.80114
3011.05	1.18346
3012.35	1.18044
3013.64	1.31696
3014.93	1.03568
3016.22	1.11799
3017.51	1.22914
3018.8	1.28529
3020.09	0.368049
3021.38	0.730014
3022.67	0.632066
3023.96	0.671754
3025.25	0.890596
3026.54	0.623983
3027.83	0.372403
3029.12	0.288716
3030.41	-0.0829544
3031.69	0.321138
3032.98	0.0775414
3034.27	0.759246
3035.56	0.294802
3036.85	0.0911036
3038.13	0.13339
3039.42	0.049325
3040.71	0.51323
3041.99	0.164907
3043.28	0.0505371
3044.57	0.211413
3045.85	0.387831
3047.14	0.334674
3048.42	0.161963
3049.71	0.538244
3050.99	0.166062
3052.28	0.572945
3053.56	0.0793571
3054.85	0.0762529
3056.13	0.126446
3057.42	-0.138282
3058.7	0.495514
3059.98	0.529186
3061.27	0.631427
3062.55	0.326915
3063.83	0.160547
3065.11	0.309075
3066.4	0.581893
3067.68	0.625069
3068.96	0.0569515
3070.24	0.236503
3071.52	0.224626
3072.8	0.197658
3074.09	-0.034749
3075.37	0.26183
3076.65	0.259019
3077.93	0.0532322
3079.21	0.310443
3080.49	0.135529
3081.77	0.0713415
3083.05	-0.0317936
3084.32	-0.079649
3085.61	0.212006
3086.88	-0.0261011
3088.16	-0.34647
3089.44	0.0517616
3090.72	0.272999
3092	-0.36062
3093.27	-0.112009
3094.55	0.0556545
3095.83	0.0881624
3097.11	-0.204433
3098.38	0.0859432
3099.66	0.267747
3100.94	0.192098
3102.21	0.0354557
3103.49	-0.174753
3104.76	0.184423
3106.04	-0.0373592
3107.31	0.0128708
3108.59	0.714198
3109.86	0.18552
3111.14	0.172544
3112.41	0.17426
3113.69	0.2986
3114.96	0.111422
3116.23	0.262688
3117.51	0.385948
3118.78	0.0468111
3120.05	0.248933
3121.33	0.205892
3122.6	-0.20361
3123.87	0.348896
3125.14	0.63055
3126.42	0.939797
3127.69	0.492111
3128.96	0.830042
3130.23	0.627565
3131.5	0.885146
3132.77	0.656114
3134.04	0.76462
3135.31	1.10199
3136.58	1.10112
3137.85	0.99189
3139.12	0.936364
3140.39	0.665571
3141.66	1.29654
3142.93	1.02679
3144.2	0.986547
3145.47	1.20232
3146.74	1.21783
3148	1.39515
3149.27	1.07794
