200.388	0.960018
202.204	0.968863
204.019	0.979059
205.832	1.3556
207.646	0.662837
209.459	0.820969
211.274	0.686543
213.087	0.890845
214.899	0.511709
216.711	1.34458
218.524	0.602287
220.335	1.09639
222.146	0.526965
223.956	0.709001
225.766	0.698522
227.576	0.543508
229.388	0.267754
231.197	1.15035
233.005	0.536294
234.813	0.333365
236.621	0.156363
238.429	0.150765
240.236	0.341119
242.045	0.196928
243.852	0.874643
245.658	0.80507
247.464	0.130305
249.269	0.297527
251.074	0.702778
252.879	-0.898506
254.683	0.34636
256.487	-0.0981369
258.291	1.02532
260.094	0.632343
261.897	0.121585
263.702	0.191201
265.504	-0.0750542
267.306	0.0689077
269.108	0.0199394
270.909	-0.0297852
272.71	0.449785
274.511	0.156367
276.311	-0.162807
278.111	0.865723
279.91	-0.252495
281.709	0.361425
283.508	0.298978
285.306	-0.0532446
287.105	-0.0215378
288.9	0.44178
290.698	-0.460254
292.495	-0.162379
294.291	-0.0304852
296.088	0.342179
297.884	-0.550731
299.679	-0.00878048
301.475	0.126736
303.27	0.237461
305.064	-0.297563
306.858	-0.21287
308.652	0.300619
310.444	0.170952
312.237	0.114327
314.03	0.0835428
315.822	0.578854
317.615	0.385859
319.406	0.790294
321.198	0.171736
322.987	-0.327217
324.778	0.152195
326.568	0.727938
328.358	0.420248
330.148	0.0158796
331.935	-0.0553598
333.724	0.158629
335.513	0.394285
337.301	0.100909
339.089	-0.075139
340.875	-0.10936
342.662	-0.24006
344.449	0.0832901
346.236	0.168136
348.02	-0.128279
349.806	0.220682
351.592	0.521876
353.375	-0.32303
355.16	0.262715
356.944	0.560405
358.728	0.0698528
360.51	0.412097
362.294	-0.175273
364.077	0.664109
365.858	0.313392
367.64	0.603288
369.422	0.251405
371.202	-0.100736
372.983	1.36896
374.764	0.896953
376.543	1.01627
378.324	0.947334
380.102	1.2095
381.881	0.578238
383.661	0.937429
385.438	1.25078
387.216	1.23644
388.993	1.66989
390.771	1.23546
392.548	0.731784
394.324	1.16829
396.101	0.830334
397.875	0.985702
399.651	0.929543
401.425	0.614496
403.201	1.05034
404.974	0.35792
406.749	0.956334
408.524	0.520778
410.296	0.131938
412.07	0.118786
413.841	-0.0816307
415.614	1.05622
417.385	-0.386064
419.156	-0.372893
420.928	0.34471
422.698	0.123291
424.469	0.253205
426.238	0.100353
428.009	0.181312
429.777	0.0738821
431.548	-0.103987
433.315	-0.0702972
435.083	-0.223991
436.852	-0.401165
438.618	0.523956
440.387	0.062808
442.153	0.608261
443.919	0.166039
445.686	0.471863
447.451	0.518268
449.218	0.119679
450.982	0.773244
452.746	0.0954399
454.512	0.585279
456.275	0.235266
458.038	-0.0677977
459.803	0.257961
461.565	0.211894
463.327	0.237318
465.091	-0.129596
466.852	0.18056
468.613	-0.0871887
470.374	0.019062
472.136	0.172729
473.896	1.11735
475.655	0.430338
477.415	0.602309
479.176	-0.159724
480.934	0.334917
482.692	0.200718
484.45	0.417143
486.21	1.14836
487.967	0.414347
489.724	0.684771
491.481	0.536669
493.237	0.529273
494.995	0.63905
496.75	0.44459
498.506	0.882011
500.26	0.944457
502.015	1.07662
503.771	0.83212
505.525	1.12645
507.279	1.3724
509.032	1.35788
510.785	1.05898
512.537	1.93461
514.289	1.11414
516.041	2.03302
517.793	1.28009
519.546	1.53726
521.297	1.2763
523.047	1.86039
524.797	1.43428
526.547	0.914725
528.297	1.49773
530.046	1.44725
531.795	1.23236
533.543	0.689042
535.291	0.168459
537.039	1.32977
538.787	1.10969
540.534	0.771985
542.281	0.736873
544.027	0.142981
545.773	0.433445
547.519	0.816219
549.264	0.50289
551.01	0.838887
552.754	0.757974
554.499	0.122866
556.243	-0.0720701
557.987	0.77151
559.73	0.346871
561.474	-0.329627
563.216	0.260681
564.959	0.184158
566.701	-0.0753374
568.441	0.0106993
570.182	0.556739
571.923	0.163323
573.664	0.138904
575.405	-0.135911
577.145	0.00402832
578.885	0.0307398
580.624	-0.286179
582.361	-0.0288315
584.1	0.228186
585.839	0.691242
587.577	0.00290394
589.315	0.417254
591.052	0.27837
592.787	-0.0222244
594.524	0.942362
596.26	0.273445
597.997	0.777826
599.732	0.361524
601.466	0.243384
603.201	0.0778522
604.936	-0.61798
606.67	-0.0738049
608.403	0.331049
610.136	0.023715
611.87	0.0842094
613.603	0.626966
615.334	0.32205
617.067	0.0633783
618.799	0.60591
620.529	0.620235
622.26	0.358551
623.991	0.484797
625.72	-0.0516872
627.451	0.349634
629.181	0.296287
630.909	-0.370485
632.638	0.242854
634.368	0.53805
636.095	0.353668
637.823	0.213018
639.551	0.503011
641.277	0.127914
643.005	-0.18109
644.73	-0.0356216
646.457	0.109783
648.184	-0.515957
649.908	-0.183455
651.634	0.0620842
653.357	0.721141
655.083	-0.298468
656.806	0.299279
658.53	-0.171916
660.253	0.519154
661.977	0.250643
663.7	0.41335
665.422	0.504886
667.145	0.502773
668.865	0.476831
670.588	0.451516
672.308	-0.395534
674.027	0.430764
675.749	0.183516
677.468	0.327252
679.188	-0.240472
680.907	0.109206
682.627	-0.117614
684.345	0.274474
686.064	0.641629
687.781	0.984103
689.498	0.0124006
691.216	0.0993528
692.932	0.462024
694.65	0.224949
696.366	0.769798
698.081	1.03674
699.797	1.32497
701.512	0.461607
703.228	0.402566
704.942	-0.0246916
706.655	0.420195
708.371	-0.282725
710.083	0.504443
711.796	0.351216
713.51	0.518095
715.222	-0.138268
716.934	0.530746
718.645	0.856453
720.358	0.611946
722.068	0.618546
723.779	0.784453
725.49	0.904449
727.2	0.978487
728.909	0.688806
730.618	0.920575
732.329	0.268121
734.037	1.06478
735.745	1.02356
737.453	0.869904
739.16	0.627028
740.869	1.15204
742.576	1.47492
744.282	0.830892
745.988	1.29178
747.694	1.07905
749.401	1.47525
751.107	0.770798
752.811	1.28241
754.516	1.34579
756.22	0.893315
757.924	1.38786
759.627	2.42534
761.332	1.97766
763.035	2.45506
764.738	2.50388
766.44	2.64177
768.142	3.1618
769.843	3.54371
771.544	3.4707
773.245	3.62185
774.946	3.56878
776.646	3.26766
778.346	3.44302
780.046	2.87412
781.745	2.19328
783.444	2.10065
785.143	2.6858
786.841	2.20428
788.539	2.64697
790.237	2.22565
791.934	2.25357
793.631	2.18906
795.328	1.65053
797.024	1.79013
798.72	1.72871
800.416	1.26434
802.112	1.72451
803.807	1.48796
805.502	1.45378
807.196	1.98048
808.89	2.07854
810.584	1.74868
812.278	2.02364
813.971	1.64768
815.664	1.58545
817.354	1.99301
819.047	2.1541
820.739	1.33255
822.43	1.24907
824.122	1.54563
825.813	1.30858
827.503	1.49735
829.192	1.845
830.882	1.12711
832.571	2.28356
834.261	1.12538
835.95	2.44287
837.637	2.08796
839.325	1.88762
841.013	1.95331
842.701	1.41419
844.389	1.79041
846.074	1.38523
847.761	1.5631
849.447	1.29648
851.131	1.27863
852.817	1.55436
854.503	1.27087
856.188	1.21127
857.871	1.3302
859.556	1.42498
861.24	0.729748
862.922	0.955555
864.606	1.15758
866.289	1.26851
867.97	-0.0192652
869.653	0.879592
871.336	0.943805
873.016	0.534048
874.698	1.25227
876.379	1.33883
878.058	1.67372
879.739	0.99281
881.418	0.582265
883.098	0.780446
884.778	0.819418
886.456	1.35338
888.135	1.45656
889.812	1.58036
891.49	1.38673
893.167	1.55214
894.845	1.58087
896.523	1.5633
898.198	1.40985
899.875	0.80697
901.55	1.03359
903.226	0.721924
904.901	1.68473
906.576	0.145375
908.25	1.10745
909.925	0.197624
911.598	1.13724
913.271	0.764497
914.945	0.637126
916.617	0.598826
918.291	1.53568
919.962	0.367427
921.635	0.949541
923.306	0.957233
924.978	0.988833
926.648	1.26539
928.318	0.903632
929.989	0.874521
931.659	0.735936
933.328	1.01688
934.998	0.746517
936.666	1.09424
938.336	1.44291
940.004	1.3519
941.671	0.181375
943.34	0.908829
945.007	0.841983
946.673	1.14915
948.339	0.593405
950.007	0.653596
951.672	0.756477
953.337	0.285866
955.004	0.214034
956.669	0.343629
958.333	1.55772
959.997	1.45202
961.662	0.884279
963.326	0.735662
964.989	0.540806
966.651	0.541968
968.315	0.495762
969.977	0.447178
971.639	1.32657
973.301	0.901335
974.962	0.256688
976.624	0.189014
978.285	0.698164
979.945	0.290088
981.605	-0.118579
983.264	0.611308
984.924	0.497922
986.583	0.847033
988.243	0.90624
989.901	0.189982
991.56	0.689276
993.217	0.127596
994.875	0.869078
996.532	0.859748
998.188	1.26936
999.845	1.8325
1001.5	1.66774
1003.16	0.644413
1004.81	1.11755
1006.47	1.01851
1008.12	0.787995
1009.78	1.2604
1011.43	1.62306
1013.09	1.10917
1014.74	1.14399
1016.39	1.52952
1018.05	1.36826
1019.7	1.42685
1021.35	1.74902
1023	1.85382
1024.65	1.80683
1026.31	1.97915
1027.96	2.67589
1029.61	3.06582
1031.26	2.493
1032.91	3.42482
1034.56	2.84796
1036.21	2.77141
1037.86	2.06208
1039.51	2.0503
1041.16	2.25686
1042.8	1.37794
1044.45	1.52328
1046.1	1.69263
1047.75	1.3865
1049.39	1.42993
1051.04	1.54011
1052.69	1.19516
1054.33	1.21994
1055.98	1.41865
1057.62	0.964953
1059.27	1.64115
1060.91	0.990335
1062.56	1.05612
1064.2	0.555513
1065.85	1.22779
1067.49	0.876981
1069.13	1.72018
1070.77	0.346798
1072.42	1.25367
1074.06	1.55279
1075.7	0.985315
1077.34	1.35225
1078.98	1.78568
1080.62	2.13334
1082.27	1.48357
1083.91	1.72182
1085.55	1.65455
1087.18	1.32481
1088.82	1.62086
1090.46	1.48157
1092.1	1.60043
1093.74	0.746575
1095.38	0.951756
1097.02	1.37309
1098.65	1.32149
1100.29	1.03531
1101.93	0.665634
1103.56	1.18034
1105.2	0.98665
1106.84	1.35296
1108.47	0.256531
1110.11	0.685844
1111.74	0.704757
1113.38	0.872143
1115.01	1.08079
1116.64	0.945163
1118.28	1.02422
1119.91	0.996842
1121.54	0.456798
1123.18	0.881661
1124.81	0.729707
1126.44	0.814167
1128.07	1.2203
1129.7	0.665003
1131.33	0.90157
1132.97	1.24537
1134.6	1.11874
1136.23	0.77769
1137.86	0.264642
1139.49	0.519513
1141.11	0.196569
1142.74	0.428165
1144.37	-0.00151634
1146	0.337437
1147.63	0.528041
1149.26	0.975218
1150.88	0.166081
1152.51	0.0388212
1154.14	0.869294
1155.76	0.0813265
1157.39	0.463891
1159.01	0.655193
1160.64	0.145643
1162.27	0.381705
1163.89	1.0654
1165.51	0.388976
1167.14	-0.308949
1168.76	0.225181
1170.39	0.417193
1172.01	-0.179183
1173.63	0.00870991
1175.25	-0.335436
1176.88	0.0623331
1178.5	-0.19698
1180.12	0.984237
1181.74	0.472609
1183.36	0.385248
1184.98	-0.187896
1186.6	0.94911
1188.22	0.31024
1189.84	0.745282
1191.46	0.903459
1193.08	0.386612
1194.7	0.395111
1196.32	0.403584
1197.94	-0.0266466
1199.55	0.968258
1201.17	0.751986
1202.79	0.434804
1204.41	0.600997
1206.02	0.832187
1207.64	0.251287
1209.25	0.108966
1210.87	0.758395
1212.48	0.19632
1214.1	1.04927
1215.71	0.836526
1217.33	0.622007
1218.94	1.00934
1220.56	0.918242
1222.17	0.620719
1223.79	0.946797
1225.4	0.508031
1227.01	0.671692
1228.62	0.816123
1230.23	0.796512
1231.85	0.550927
1233.46	1.40223
1235.07	1.28352
1236.68	1.39363
1238.29	1.25694
1239.9	1.38984
1241.51	0.654358
1243.12	1.55256
1244.73	1.41563
1246.34	1.54647
1247.94	1.20019
1249.55	1.59789
1251.16	0.402187
1252.77	1.23412
1254.37	1.28076
1255.98	1.49414
1257.59	1.25392
1259.2	1.40815
1260.8	1.29445
1262.41	1.76105
1264.01	1.81378
1265.62	0.933575
1267.22	1.54444
1268.83	1.82277
1270.43	1.58156
1272.03	2.14771
1273.64	1.36495
1275.24	1.47255
1276.85	1.12311
1278.45	1.45654
1280.05	1.76827
1281.65	2.76235
1283.25	1.6662
1284.85	1.77102
1286.46	1.7528
1288.06	1.83919
1289.66	2.91862
1291.26	2.18011
1292.86	1.68961
1294.46	2.31393
1296.06	2.58532
1297.66	2.33841
1299.25	1.94525
1300.85	1.98371
1302.45	1.52621
1304.05	2.30317
1305.65	2.52264
1307.24	2.08379
1308.84	1.5224
1310.43	1.94593
1312.03	2.08238
1313.63	2.4649
1315.22	1.6219
1316.82	2.04737
1318.41	2.16686
1320.01	2.14336
1321.6	2.15959
1323.2	1.48205
1324.79	2.36909
1326.38	1.38454
1327.98	1.63858
1329.57	2.2975
1331.16	2.45113
1332.76	1.79896
1334.35	2.44281
1335.94	1.67534
1337.53	1.73637
1339.12	2.01835
1340.71	1.63331
1342.3	1.48792
1343.89	1.92343
1345.48	2.27625
1347.07	1.38501
1348.66	1.79971
1350.25	1.43601
1351.84	1.09583
1353.43	1.51811
1355.01	1.44198
1356.6	0.986717
1358.19	1.11057
1359.77	1.11347
1361.36	1.47442
1362.95	1.37519
1364.53	1.13608
1366.12	0.857667
1367.71	1.13802
1369.29	1.08107
1370.88	1.7422
1372.46	1.64859
1374.04	1.21808
1375.63	1.26593
1377.21	1.03534
1378.8	1.28179
1380.38	1.58675
1381.96	0.676636
1383.54	0.97863
1385.13	0.981097
1386.71	0.506192
1388.29	1.24322
1389.87	1.28559
1391.45	0.89242
1393.03	0.817784
1394.61	1.04115
1396.19	1.22457
1397.77	0.574538
1399.35	0.359809
1400.93	1.0553
1402.51	0.601281
1404.09	0.899483
1405.67	1.2177
1407.24	1.0227
1408.82	0.986885
1410.4	0.991203
1411.98	0.817775
1413.55	0.387212
1415.13	1.0807
1416.71	0.56958
1418.28	1.18202
1419.86	0.986442
1421.43	1.46169
1423.01	1.66281
1424.58	1.8461
1426.16	1.26331
1427.73	1.42909
1429.31	1.9489
1430.88	1.81813
1432.45	2.31572
1434.02	2.06431
1435.6	2.10747
1437.17	2.58335
1438.74	2.76502
1440.31	2.92822
1441.88	1.73657
1443.45	2.41282
1445.03	2.65722
1446.6	2.74463
1448.17	3.0681
1449.74	2.52698
1451.3	2.6941
1452.87	2.76362
1454.44	2.57792
1456.01	2.47081
1457.58	2.61873
1459.15	2.05666
1460.72	2.16166
1462.28	2.40211
1463.85	2.73871
1465.42	2.09083
1466.98	1.69855
1468.55	1.54268
1470.12	1.9178
1471.68	1.27383
1473.25	1.88665
1474.81	1.69616
1476.38	1.95718
1477.94	1.82618
1479.51	2.00876
1481.07	2.40676
1482.63	2.60858
1484.2	2.26153
1485.76	1.95336
1487.32	1.95779
1488.88	2.19559
1490.45	2.02003
1492.01	1.92028
1493.57	1.779
1495.13	1.42125
1496.69	1.88143
1498.25	1.01683
1499.81	1.39888
1501.37	1.02411
1502.93	1.44661
1504.49	0.900559
1506.05	1.03336
1507.61	0.256295
1509.17	0.619552
1510.73	0.343961
1512.28	0.64626
1513.84	0.812604
1515.4	0.824906
1516.96	0.530631
1518.51	0.237877
1520.07	0.80843
1521.63	0.84221
1523.18	0.206578
1524.74	0.774369
1526.29	0.233748
1527.85	0.893197
1529.4	0.694511
1530.96	-0.0923042
1532.51	0.337123
1534.06	0.425442
1535.62	0.514636
1537.17	0.283432
1538.72	0.865082
1540.28	0.57858
1541.83	0.87675
1543.38	0.421408
1544.93	0.380389
1546.48	0.902699
1548.03	1.23611
1549.59	0.912738
1551.14	1.07706
1552.69	1.2416
1554.24	1.35078
1555.79	0.658218
1557.34	0.789713
1558.88	0.829865
1560.43	1.37572
1561.98	0.617434
1563.53	0.662519
1565.08	1.06274
1566.62	0.884673
1568.17	1.06093
1569.72	1.10614
1571.27	0.590914
1572.81	0.878016
1574.36	1.50097
1575.9	1.26523
1577.45	1.23503
1579	1.8587
1580.54	1.41886
1582.09	1.24117
1583.63	1.49397
1585.17	1.14973
1586.72	0.974006
1588.26	1.28459
1589.8	1.01514
1591.35	1.1381
1592.89	1.14826
1594.43	1.38285
1595.97	1.86116
1597.52	1.64674
1599.06	1.92036
1600.6	1.85736
1602.14	1.49452
1603.68	1.99508
1605.22	1.46211
1606.76	2.03602
1608.3	1.687
1609.84	1.48573
1611.38	1.24441
1612.92	1.43305
1614.46	1.41356
1615.99	1.46859
1617.53	1.88015
1619.07	1.29956
1620.61	0.533778
1622.14	0.780919
1623.68	1.29093
1625.22	1.6511
1626.75	1.59859
1628.29	1.39503
1629.82	1.9381
1631.36	1.88131
1632.9	1.31977
1634.43	1.7112
1635.96	1.48735
1637.5	1.37661
1639.03	1.80729
1640.57	1.84635
1642.1	2.35045
1643.63	2.36869
1645.16	2.0133
1646.7	1.58294
1648.23	2.19338
1649.76	2.2277
1651.29	2.30017
1652.82	2.54091
1654.36	2.76421
1655.89	2.17261
1657.42	2.656
1658.95	1.89721
1660.48	2.95184
1662.01	2.39398
1663.53	2.44555
1665.06	2.0715
1666.59	1.99369
1668.12	2.24914
1669.65	1.51057
1671.18	2.30362
1672.7	1.66063
1674.23	1.75515
1675.76	2.01506
1677.29	1.51936
1678.81	1.85068
1680.34	1.38987
1681.86	1.20435
1683.39	1.05541
1684.91	1.21865
1686.44	0.758493
1687.96	0.610914
1689.49	0.53716
1691.01	0.536958
1692.54	0.921141
1694.06	0.646365
1695.58	0.481372
1697.11	1.22988
1698.63	0.662337
1700.15	0.423513
1701.67	1.00516
1703.2	0.8746
1704.72	0.652573
1706.24	0.757914
1707.76	0.590058
1709.28	0.785647
1710.8	0.618002
1712.32	0.396396
1713.84	0.392731
1715.36	0.733082
1716.88	0.403524
1718.4	0.110508
1719.91	0.648557
1721.43	0.265655
1722.95	-0.188215
1724.47	0.530612
1725.99	0.151433
1727.5	0.205933
1729.02	0.531307
1730.54	0.711287
1732.05	0.461008
1733.57	0.372128
1735.09	0.193493
1736.6	0.322261
1738.12	0.116162
1739.63	0.49047
1741.15	0.404898
1742.66	0.290579
1744.18	0.457856
1745.69	0.380843
1747.2	0.113134
1748.72	0.353025
1750.23	0.266459
1751.74	0.188258
1753.25	0.165441
1754.77	-0.12161
1756.28	-0.143114
1757.79	-0.158375
1759.3	0.0328836
1760.81	-0.273874
1762.32	0.180647
1763.83	-0.00936985
1765.34	-0.0563908
1766.85	0.294328
1768.36	0.339761
1769.87	0.0817966
1771.38	0.165114
1772.89	-0.0307837
1774.4	0.0887499
1775.91	-0.0836163
1777.41	-0.029007
1778.92	0.0709772
1780.43	0.28901
1781.94	0.328831
1783.44	0.175026
1784.95	-0.044241
1786.45	-0.09165
1787.96	-0.0240602
1789.47	-0.283065
1790.97	0.0990458
1792.48	0.0508804
1793.98	-0.29823
1795.48	0.195173
1796.99	-0.264755
1798.49	0.0740843
1800	0.0222387
1801.5	0.149325
1803	0.320363
1804.51	-0.143964
1806.01	-0.0982885
1807.51	0.0463085
1809.01	0.243192
1810.51	-0.238662
1812.02	0.12339
1813.52	0.0626745
1815.02	0.23527
1816.52	-0.0874567
1818.02	-0.167991
1819.52	-0.125853
1821.02	0.258558
1822.52	-0.0102777
1824.02	-0.0790844
1825.51	-0.232318
1827.01	-0.311866
1828.51	0.375829
1830.01	0.242185
1831.51	-0.197456
1833	0.0745955
1834.5	0.132925
1836	0.329731
1837.5	-0.0850916
1838.99	0.177556
1840.49	0.00558662
1841.98	-0.0899382
1843.48	0.154292
1844.97	-0.0263443
1846.47	0.0389757
1847.96	-0.00237751
1849.46	0.203872
1850.95	0.127447
1852.45	-0.0758562
1853.94	0.151486
1855.43	-0.168209
1856.92	0.197391
1858.42	0.288097
1859.91	0.0628643
1861.4	-0.134639
1862.89	-0.117163
1864.39	0.608974
1865.88	0.122794
1867.37	0.106842
1868.86	0.257361
1870.35	0.21568
1871.84	0.0941496
1873.33	0.302883
1874.82	0.171007
1876.31	0.00869465
1877.8	-0.169248
1879.29	0.154079
1880.77	0.173065
1882.26	0.44203
1882.51	0.496296
1884	-0.0274124
1885.5	0.232667
1886.99	0.352324
1888.48	0.558379
1889.98	0.0336514
1891.47	0.0320625
1892.97	0.118904
1894.46	0.190059
1895.95	0.140985
1897.44	0.457915
1898.93	0.0442724
1900.42	-0.179086
1901.92	0.257088
1903.41	0.134881
1904.9	0.359032
1906.39	-0.0432978
1907.88	-0.202144
1909.37	0.316644
1910.86	0.193915
1912.35	-0.136045
1913.84	0.0202799
1915.32	0.367376
1916.81	0.159226
1918.3	0.210639
1919.79	0.642761
1921.28	0.329697
1922.76	0.34621
1924.25	0.0865574
1925.74	0.00115013
1927.22	-0.273699
1928.71	0.508173
1930.2	-0.216339
1931.68	0.0280647
1933.17	0.219144
1934.65	0.235337
1936.14	0.00767899
1937.62	0.0557871
1939.11	-0.0175714
1940.59	0.168434
1942.08	0.562108
1943.56	-0.0785723
1945.04	0.385674
1946.53	0.436255
1948.01	-0.0648947
1949.49	-0.118484
1950.97	0.257496
1952.45	-0.0733442
1953.94	0.180339
1955.42	0.0899134
1956.9	0.102998
1958.38	0.494287
1959.86	0.0624743
1961.34	-0.316989
1962.82	-0.147478
1964.3	-0.0125446
1965.78	0.0704184
1967.26	-0.223893
1968.74	-0.484253
1970.22	0.0927391
1971.69	0.139165
1973.17	-0.207108
1974.65	0.0953217
1976.13	0.0566092
1977.61	0.222493
1979.08	-0.173457
1980.56	-0.0926323
1982.03	0.174904
1983.51	0.305882
1984.99	0.11384
1986.46	-0.264713
1987.94	-0.303757
1989.41	0.0470142
1990.89	0.14407
1992.36	-0.0287209
1993.84	0.0869875
1995.31	-0.0501184
1996.78	-0.0515699
1998.26	0.0989399
1999.73	-0.20688
2001.2	0.415105
2002.68	0.20956
2004.15	0.206374
2005.62	0.186654
2007.09	0.0497437
2008.56	0.452645
2010.04	0.283796
2011.51	0.368012
2012.98	0.0314779
2014.45	0.216328
2015.92	0.248946
2017.39	-0.190239
2018.86	0.109841
2020.33	0.173875
2021.8	0.18732
2023.27	-0.403213
2024.74	0.215524
2026.2	0.063364
2027.67	0.013237
2029.14	0.518007
2030.61	0.470605
2032.07	0.440915
2033.54	0.512407
2035.01	0.466385
2036.47	0.134381
2037.94	-0.0302868
2039.41	0.476861
2040.87	0.143657
2042.34	-0.0212088
2043.8	0.453678
2045.27	0.576433
2046.73	0.380179
2048.2	0.150325
2049.66	0.425534
2051.12	0.244794
2052.59	0.517801
2054.05	0.333743
2055.51	0.316644
2056.98	0.365652
2058.44	0.683454
2059.9	0.0744238
2061.36	0.729054
2062.82	0.239448
2064.29	0.794475
2065.75	0.441632
2067.21	0.375727
2068.67	0.882637
2070.13	0.649326
2071.59	0.618044
2073.05	0.300375
2074.51	0.369681
2075.97	0.691278
2077.43	0.60837
2078.88	0.946062
2080.34	1.09803
2081.8	1.01367
2083.26	0.777169
2084.72	0.455901
2086.17	0.840631
2087.63	1.25805
2089.09	1.06962
2090.54	0.76358
2092	0.978227
2093.46	0.806627
2094.91	1.38962
2096.37	0.999321
2097.82	0.86007
2099.28	1.33962
2100.73	1.23278
2102.19	1.41041
2103.64	1.27138
2105.09	1.33414
2106.55	1.39832
2108	1.54699
2109.46	1.17904
2110.91	1.11079
2112.36	1.67443
2113.81	1.56952
2115.27	2.01212
2116.72	1.83784
2118.17	1.43167
2119.62	1.87405
2121.07	1.85349
2122.52	1.66924
2123.97	1.91781
2125.42	1.70278
2126.87	1.68647
2128.32	1.96748
2129.77	2.27994
2131.22	2.52441
2132.67	2.20488
2134.12	2.01803
2135.57	2.14639
2137.01	2.32587
2138.46	2.57346
2139.91	2.52575
2141.36	2.56257
2142.8	2.38583
2144.25	2.39167
2145.7	2.94385
2147.14	2.66829
2148.59	2.83899
2150.03	3.17443
2151.48	3.47566
2152.92	3.37804
2154.37	3.16344
2155.81	3.03114
2157.26	2.79956
2158.7	2.90012
2160.15	3.30044
2161.59	3.27217
2163.03	3.17981
2164.48	3.17214
2165.92	2.68402
2167.36	2.85967
2168.8	3.46658
2170.25	3.22376
2171.69	2.96161
2173.13	2.99656
2174.57	2.797
2176.01	3.4117
2177.45	2.96227
2178.89	3.02923
2180.33	3.09734
2181.77	3.13326
2183.21	2.85392
2184.65	2.70789
2186.09	2.74489
2187.53	2.53234
2188.97	2.85232
2190.41	3.15576
2191.84	2.59329
2193.28	2.44608
2194.72	2.49718
2196.16	2.31319
2197.59	2.01065
2199.03	2.05575
2200.47	2.19931
2201.9	2.11006
2203.34	2.08801
2204.78	2.16667
2206.21	2.19668
2207.65	2.26039
2209.08	2.17483
2210.51	2.32021
2211.95	1.90191
2213.38	1.71476
2214.82	1.8911
2216.25	1.88628
2217.68	1.7672
2219.12	1.79799
2220.55	1.36809
2221.98	1.69673
2223.42	1.89261
2224.85	1.42817
2226.28	1.70297
2227.71	1.30151
2229.14	1.60568
2230.57	1.48184
2232	1.22693
2233.43	1.25116
2234.86	1.17798
2236.29	1.1715
2237.72	0.954414
2239.15	0.804761
2240.58	1.42386
2242.01	0.886603
2243.44	1.49235
2244.87	0.940462
2246.3	1.07297
2247.73	1.02448
2249.15	0.941244
2250.58	0.98621
2252.01	0.964217
2253.43	0.63244
2254.86	0.480268
2256.29	0.816751
2257.71	0.895514
2259.14	0.522811
2260.56	0.785733
2261.99	0.7915
2263.41	0.685173
2264.84	0.319026
2266.26	0.748887
2267.69	0.56023
2269.11	0.744829
2270.54	0.359013
2271.96	0.249319
2273.38	0.611714
2274.81	0.534522
2276.23	0.392319
2277.65	0.739168
2279.07	0.287448
2280.49	0.406171
2281.92	0.378046
2283.34	0.186681
2284.76	0.256368
2286.18	0.489519
2287.6	0.33129
2289.02	0.598047
2290.44	0.130098
2291.86	0.217832
2293.28	0.338475
2294.7	0.328312
2296.12	0.367172
2297.54	-0.00337029
2298.96	0.182825
2300.38	0.0907316
2301.79	0.703916
2303.21	0.284411
2304.63	0.176506
2306.05	0.314774
2307.46	0.502155
2308.88	0.0645475
2310.3	0.283817
2311.71	0.321918
2313.13	0.0144758
2314.55	0.464342
2315.96	0.322456
2317.38	0.247079
2318.79	0.0731382
2320.21	0.294647
2321.62	0.548351
2323.03	0.156754
2324.45	0.307557
2325.86	0.472689
2327.27	0.504154
2328.69	0.617248
2330.1	0.417433
2331.51	-0.0612211
2332.93	0.0210905
2334.34	0.104145
2335.75	0.23675
2337.16	0.0564079
2338.57	0.0561409
2339.99	0.219147
2341.4	0.0854969
2342.81	0.0828314
2344.22	-0.264257
2345.63	0.126865
2347.04	-0.170154
2348.45	-0.286716
2349.86	0.18545
2351.26	0.100465
2352.67	0.0473785
2354.08	0.0424747
2355.49	0.330349
2356.9	-0.0665579
2358.31	0.0903568
2359.71	0.117069
2361.12	-0.0996332
2362.53	0.0408096
2363.94	0.00269985
2365.34	0.320546
2366.75	-0.170166
2368.15	0.341672
2369.56	0.176018
2370.97	-0.358889
2372.37	0.187457
2373.78	-0.441335
2375.18	0.121897
2376.59	-0.0718794
2377.99	-0.169935
2379.39	-0.0924854
2380.8	0.159924
2382.2	0.346352
2383.61	-0.0130377
2385.01	0.236073
2386.41	-0.0822296
2387.81	-0.398999
2389.22	0.266478
2390.62	0.326579
2392.02	-0.344633
2393.42	0.0201197
2394.82	0.114891
2396.22	0.337424
2397.63	0.353798
2399.02	0.148265
2400.43	0.308667
2401.82	0.0881062
2403.23	0.248809
2404.62	-0.083106
2406.02	0.0447092
2407.42	0.123986
2408.82	0.345201
2410.22	0.201295
2411.62	0.501343
2413.02	0.247614
2414.41	0.0269108
2415.81	0.0292568
2417.21	0.222795
2418.61	-0.279462
2420	0.136983
2421.4	-0.0167542
2422.79	0.130145
2424.19	0.181764
2425.59	0.106673
2426.98	0.253913
2428.38	0.433737
2429.77	0.487704
2431.17	0.193313
2432.56	-0.0853305
2433.96	0.159403
2435.35	0.435059
2436.74	0.328107
2438.14	-0.066278
2439.53	0.268966
2440.92	0.364984
2442.32	0.365173
2443.71	0.34922
2445.1	0.237941
2446.49	0.301011
2447.88	0.110341
2449.28	0.410869
2450.67	0.315513
2452.06	-0.491515
2453.45	0.158366
2454.84	0.349949
2456.23	-0.13807
2457.62	0.275893
2459.01	-0.148623
2460.4	-0.162377
2461.79	0.566261
2463.18	0.456031
2464.57	0.250522
2465.96	0.0764799
2467.34	0.218206
2468.73	0.280861
2470.12	0.0909395
2471.51	-0.241072
2472.89	0.0410662
2474.28	0.259171
2475.67	-0.294425
2477.05	0.504212
2478.44	0.264997
2479.83	0.198929
2481.21	-0.117757
2482.6	0.255363
2483.98	0.142161
2485.37	0.388067
2486.75	-0.195612
2488.14	-0.310809
2489.52	0.197
2490.9	0.143045
2492.29	-0.516555
2493.67	-0.102319
2495.06	-0.339282
2496.44	0.0142589
2497.82	-0.0036993
2499.2	-0.0678191
2500.59	-0.240417
2501.97	0.03476
2503.35	-0.123761
2504.73	0.241671
2506.11	-0.0413928
2507.49	0.0299287
2508.88	0.439418
2510.26	0.264836
2511.63	0.0605216
2513.01	-0.265341
2514.39	0.237181
2515.77	0.173443
2517.15	0.156388
2518.53	0.155142
2519.91	-0.0445971
2521.29	0.473455
2522.67	0.227121
2524.05	0.483661
2525.42	0.205713
2526.8	0.293425
2528.18	-0.33378
2529.56	0.257306
2530.93	0.0436497
2532.31	-0.0467739
2533.69	0.0463681
2535.06	0.170531
2536.44	0.112349
2537.81	-0.0527644
2539.19	0.14582
2540.56	0.0398793
2541.94	-0.0359764
2543.31	0.25259
2544.69	-0.034657
2546.06	0.240483
2547.44	0.365057
2548.81	0.0201335
2550.18	0.312485
2551.56	-0.154327
2552.93	0.106451
2554.3	-0.0889797
2555.68	-0.163785
2557.05	0.428319
2558.42	0.671203
2559.79	0.338144
2561.16	0.611982
2562.53	-0.0077796
2563.9	-0.217767
2565.28	0.178784
2566.64	0.196706
2568.02	0.351106
2569.38	0.429738
2570.76	0.265865
2572.12	-0.0495772
2573.49	0.195879
2574.86	-0.0739903
2576.23	0.156438
2577.6	-0.0528822
2578.97	0.344089
2580.34	0.301014
2581.7	0.378856
2583.07	0.259226
2584.44	0.18487
2585.81	-0.010797
2587.17	0.430252
2588.54	0.23486
2589.91	-0.0967999
2591.27	0.238221
2592.64	0.0878906
2594	-0.0631204
2595.37	0.617915
2596.73	-0.0648656
2598.1	0.175131
2599.46	0.323777
2600.83	0.502545
2602.19	0.0321865
2603.55	0.0761189
2604.92	0.211051
2606.28	0.195216
2607.64	0.209249
2609.01	0.433491
2610.37	0.00867319
2611.73	-0.0705862
2613.09	-0.105645
2614.46	-0.0962801
2615.82	0.182923
2617.18	0.131959
2618.54	0.216415
2619.9	0.136815
2621.26	-0.181234
2622.62	0.0993123
2623.98	0.215428
2625.34	-0.0715804
2626.7	0.20823
2628.06	0.323412
2629.42	0.229669
2630.78	0.150741
2632.14	0.190753
2633.5	0.141514
2634.86	0.300108
2636.22	0.0876513
2637.57	0.142239
2638.93	-0.0105176
2640.29	0.251344
2641.64	0.409543
2643	-0.229986
2644.36	-0.0860476
2645.72	0.264141
2647.07	0.185944
2648.43	0.401813
2649.78	-0.0751195
2651.14	0.0362816
2652.49	0.176529
2653.85	0.257985
2655.2	0.0321422
2656.56	-0.0458899
2657.91	-0.342347
2659.27	0.0791078
2660.62	-0.0405078
2661.97	0.0444584
2663.33	-0.236359
2664.68	-0.225618
2666.03	0.52828
2667.38	0.318677
2668.74	0.458789
2670.09	0.235159
2671.44	0.579376
2672.79	0.153616
2674.14	0.455024
2675.49	0.161539
2676.84	0.202525
2678.2	0.244068
2679.55	0.112336
2680.89	-0.061914
2682.24	0.272337
2683.59	-0.18981
2684.94	0.276976
2686.29	0.0479999
2687.64	0.0219336
2688.99	-0.164896
2690.34	0.53232
2691.69	0.429346
2693.04	0.252445
2694.38	-0.273222
2695.73	0.360896
2697.08	-0.0915155
2698.43	0.485703
2699.77	0.658818
2701.12	0.239889
2702.46	0.0539312
2703.81	0.332481
2705.16	0.423278
2706.5	0.267632
2707.85	-0.00449944
2709.19	0.0276132
2710.54	0.132006
2711.88	0.207159
2713.23	0.383927
2714.57	0.197344
2715.92	0.214132
2717.26	0.288964
2718.6	0.378138
2719.95	0.277833
2721.29	0.380808
2722.63	0.468786
2723.97	0.38165
2725.32	0.425086
2726.66	0.337155
2728	0.365354
2729.34	-0.145127
2730.68	0.11554
2732.02	0.128769
2733.36	0.243884
2734.7	0.242754
2736.04	0.430877
2737.39	0.313671
2738.72	0.0946393
2740.06	0.0935326
2741.4	0.41187
2742.74	-0.142746
2744.08	0.392254
2745.42	0.0691762
2746.76	0.413932
2748.1	-0.0546503
2749.44	0.289692
2750.77	0.140812
2752.11	-0.0947251
2753.45	0.148359
2754.78	0.29001
2756.12	0.199939
2757.46	0.00870037
2758.79	0.208628
2760.13	-0.372743
2761.47	0.0305166
2762.8	-0.231511
2764.14	0.244683
2765.47	0.02633
2766.81	-0.177941
2768.14	0.267915
2769.48	0.0905848
2770.81	-0.0301151
2772.14	0.0502696
2773.48	0.158425
2774.81	-0.00803804
2776.14	-0.203071
2777.48	-0.167206
2778.81	-0.0302739
2780.14	0.0781755
2781.47	0.02879
2782.81	0.295264
2784.14	0.131062
2785.47	-0.161943
2786.8	-0.253899
2788.13	-0.202174
2789.46	0.107701
2790.79	0.189284
2792.12	-0.0573306
2793.46	-0.217649
2794.79	0.0794787
2796.11	0.0903864
2797.44	-0.0706267
2798.77	0.36764
2800.1	-0.108274
2801.43	-0.156056
2802.76	0.138219
2804.09	-0.109582
2805.42	-0.229329
2806.74	-0.121744
2808.07	0.0135617
2809.4	0.119833
2810.73	0.154949
2812.05	-0.0506959
2813.38	0.08532
2814.71	0.0807462
2816.03	0.0491447
2817.36	0.0185685
2818.68	0.0168738
2820.01	0.142751
2821.33	0.225688
2822.66	-0.00377846
2823.98	0.38965
2825.31	-0.010654
2826.63	0.0565815
2827.96	0.279991
2829.28	-0.0624218
2830.61	0.33175
2831.93	0.358042
2833.25	0.695686
2834.57	0.877285
2835.9	0.902686
2837.22	0.8568
2838.54	1.36218
2839.86	0.990278
2841.18	1.46697
2842.51	1.54806
2843.83	1.96899
2845.15	2.60258
2846.47	2.26172
2847.79	2.07669
2849.11	2.48529
2850.43	2.54025
2851.75	2.18479
2853.07	2.71919
2854.39	2.50412
2855.71	2.43019
2857.03	2.56816
2858.35	2.76264
2859.67	2.78758
2860.98	3.05237
2862.3	3.17555
2863.62	3.08656
2864.94	3.27952
2866.25	3.40182
2867.57	3.3551
2868.89	3.36528
2870.21	3.22084
2871.52	3.59816
2872.84	4.13011
2874.15	3.92832
2875.47	3.50013
2876.78	3.78914
2878.1	4.10511
2879.42	4.58918
2880.73	3.87831
2882.04	4.06822
2883.36	4.16081
2884.67	4.15615
2885.99	4.13813
2887.3	4.40092
2888.61	4.18603
2889.93	4.11068
2891.24	4.23077
2892.55	4.30805
2893.87	4.95941
2895.18	4.53243
2896.49	4.66659
2897.8	4.07421
2899.11	4.63047
2900.42	4.72581
2901.74	5.05949
2903.05	4.84787
2904.36	5.16795
2905.67	5.12468
2906.98	4.9002
2908.29	5.02633
2909.6	5.48924
2910.91	5.75708
2912.22	5.39514
2913.53	5.95625
2914.83	5.85786
2916.14	6.62548
2917.45	6.95709
2918.76	6.8396
2920.07	6.87586
2921.37	6.99678
2922.68	7.21699
2923.99	7.45282
2925.3	7.20082
2926.6	7.20119
2927.91	7.46727
2929.22	7.67701
2930.52	7.45273
2931.83	8.08064
2933.13	8.24688
2934.44	8.09162
2935.74	7.92257
2937.05	7.72582
2938.35	7.31974
2939.66	7.44503
2940.96	7.57096
2942.27	7.16693
2943.57	6.70836
2944.87	6.18129
2946.18	6.49438
2947.48	6.10889
2948.78	6.07278
2950.09	6.13341
2951.39	6.03804
2952.69	6.10855
2953.99	5.53342
2955.29	5.42
2956.6	5.83947
2957.9	5.18347
2959.2	4.85228
2960.5	5.43441
2961.8	4.85609
2963.1	5.10556
2964.4	5.07406
2965.7	4.67574
2967	4.54228
2968.3	4.42137
2969.6	4.15898
2970.9	3.8823
2972.2	4.12639
2973.49	3.90662
2974.79	3.63047
2976.09	3.60701
2977.39	3.6386
2978.69	3.40091
2979.98	3.18967
2981.28	2.90687
2982.58	2.93319
2983.88	2.7068
2985.17	2.46767
2986.47	2.75015
2987.76	2.47207
2989.06	2.20911
2990.36	2.21348
2991.65	2.20338
2992.95	2.0658
2994.24	1.98325
2995.54	1.61875
2996.83	1.67505
2998.12	1.2961
2999.42	1.10014
3000.71	1.18534
3002	1.20102
3003.3	1.11908
3004.59	1.14943
3005.88	0.731455
3007.18	0.621253
3008.47	0.678345
3009.76	0.468945
3011.05	0.776182
3012.35	0.398508
3013.64	0.202848
3014.93	0.37038
3016.22	0.273715
3017.51	0.651304
3018.8	0.208081
3020.09	-0.234495
3021.38	0.309963
3022.67	0.0335708
3023.96	0.0759916
3025.25	0.436599
3026.54	0.0761724
3027.83	-0.227694
3029.12	0.230456
3030.41	0.21965
3031.69	0.168899
3032.98	-0.170628
3034.27	0.111497
3035.56	0.199917
3036.85	0.232003
3038.13	0.166065
3039.42	0.181188
3040.71	-0.162425
3041.99	0.125521
3043.28	0.166008
3044.57	0.275725
3045.85	-0.16008
3047.14	0.144708
3048.42	-0.285907
3049.71	0.282162
3050.99	0.264781
3052.28	0.261964
3053.56	0.423017
3054.85	0.174286
3056.13	0.238533
3057.42	0.0292077
3058.7	0.13286
3059.98	0.345208
3061.27	0.203962
3062.55	0.363101
3063.83	0.0476484
3065.11	0.508785
3066.4	-0.170664
3067.68	0.0209994
3068.96	-0.00435972
3070.24	-0.342605
3071.52	-0.0694413
3072.8	-0.00120878
3074.09	0.079627
3075.37	-0.288676
3076.65	0.280306
3077.93	-0.0466266
3079.21	0.224824
3080.49	-0.126355
3081.77	0.175182
3083.05	0.111753
3084.32	-0.168005
3085.61	0.0273924
3086.88	0.222594
3088.16	0.213743
3089.44	0.285863
3090.72	0.208444
3092	0.131091
3093.27	0.135468
3094.55	0.0996108
3095.83	0.0370779
3097.11	-0.052278
3098.38	-0.11435
3099.66	-0.0272684
3100.94	0.168256
3102.21	-0.218397
3103.49	0.0319085
3104.76	0.215056
3106.04	-0.0882106
3107.31	0.516253
3108.59	0.445201
3109.86	0.727243
3111.14	0.211679
3112.41	0.103008
3113.69	0.40131
3114.96	0.18494
3116.23	0.266555
3117.51	0.225605
3118.78	0.333116
3120.05	0.643276
3121.33	0.573054
3122.6	0.42126
3123.87	0.350893
3125.14	0.348717
3126.42	0.509582
3127.69	0.508713
3128.96	0.697903
3130.23	0.522452
3131.5	0.739472
3132.77	0.564622
3134.04	0.795031
3135.31	0.619995
3136.58	0.795723
3137.85	1.01146
3139.12	0.512819
3140.39	0.916933
3141.66	0.782789
3142.93	0.541928
3144.2	0.986831
3145.47	1.00263
3146.74	0.952281
3148	1.13059
3149.27	1.40328
