200.388	0.0130453
202.204	0.0326576
204.019	0.0533485
205.832	0.950597
207.646	0.704823
209.459	0.385981
211.274	0.260831
213.087	0.0618296
214.899	0.250223
216.711	-0.119622
218.524	-0.537245
220.335	0.0870247
222.146	0.130883
223.956	0.248137
225.766	-0.0691042
227.576	0.0247393
229.388	0.311426
231.197	0.669772
233.005	0.23143
234.813	0.0590916
236.621	-0.232475
238.429	-0.16049
240.236	0.0825176
242.045	0.110801
243.852	0.0197887
245.658	-0.167807
247.464	0.17429
249.269	0.465843
251.074	0.126732
252.879	0.798908
254.683	0.0937643
256.487	0.0640173
258.291	0.565217
260.094	0.296697
261.897	0.222839
263.702	0.463799
265.504	0.0793896
267.306	-0.111994
269.108	0.32304
270.909	0.347647
272.71	0.564094
274.511	0.248808
276.311	0.486525
278.111	0.505514
279.91	0.353999
281.709	0.0804071
283.508	-0.122333
285.306	0.466855
287.105	-0.0979519
288.9	-0.110171
290.698	-0.0258818
292.495	0.442411
294.291	-0.188824
296.088	0.3057
297.884	1.23104
299.679	0.770553
301.475	-0.048048
303.27	0.350856
305.064	0.724423
306.858	-0.0720358
308.652	0.443247
310.444	0.458105
312.237	0.759881
314.03	0.539208
315.822	0.748956
317.615	0.436551
319.406	0.744859
321.198	1.12606
322.987	0.0776014
324.778	-0.112622
326.568	0.484939
328.358	0.246834
330.148	-0.231227
331.935	0.221922
333.724	0.267182
335.513	0.190863
337.301	-0.126854
339.089	0.749806
340.875	0.428661
342.662	-0.203776
344.449	0.21557
346.236	-0.153206
348.02	0.0519085
349.806	0.424492
351.592	0.844689
353.375	0.142649
355.16	0.0364304
356.944	0.0960131
358.728	0.17815
360.51	-0.193376
362.294	-0.184458
364.077	-0.628025
365.858	0.235175
367.64	0.241635
369.422	0.768942
371.202	0.441588
372.983	0.682124
374.764	0.023674
376.543	0.830322
378.324	0.928246
380.102	0.602784
381.881	0.679144
383.661	0.85068
385.438	0.0829
387.216	0.938343
388.993	1.15998
390.771	0.325584
392.548	0.431544
394.324	1.05468
396.101	0.316092
397.875	0.422998
399.651	0.694172
401.425	0.518657
403.201	0.906261
404.974	0.987764
406.749	0.293591
408.524	0.186017
410.296	0.477184
412.07	0.0172434
413.841	-0.184114
415.614	-0.056366
417.385	0.0954933
419.156	0.271385
420.928	-0.280033
422.698	0.177528
424.469	0.399819
426.238	0.151737
428.009	0.278507
429.777	0.076148
431.548	0.272764
433.315	0.0471277
435.083	0.314629
436.852	0.488231
438.618	0.121403
440.387	0.551197
442.153	-0.217375
443.919	0.302279
445.686	0.491581
447.451	0.000655174
449.218	0.515655
450.982	-0.231873
452.746	0.63288
454.512	0.190179
456.275	0.377443
458.038	0.517677
459.803	0.331921
461.565	0.193498
463.327	-0.199118
465.091	-0.705632
466.852	0.509663
468.613	1.00727
470.374	0.553674
472.136	0.612103
473.896	-0.00524807
475.655	0.120618
477.415	0.361094
479.176	0.297056
480.934	0.208765
482.692	0.143833
484.45	0.382634
486.21	0.0174885
487.967	0.935806
489.724	0.294443
491.481	0.423339
493.237	0.459584
494.995	0.496083
496.75	0.509122
498.506	0.943633
500.26	0.909467
502.015	0.757261
503.771	0.580493
505.525	0.496412
507.279	0.857763
509.032	0.912164
510.785	1.08271
512.537	1.55767
514.289	0.736963
516.041	0.856179
517.793	0.856586
519.546	0.85602
521.297	0.760722
523.047	1.27563
524.797	0.897824
526.547	1.17723
528.297	0.917068
530.046	0.727364
531.795	0.865388
533.543	1.35361
535.291	-0.0312138
537.039	0.735018
538.787	1.14831
540.534	0.206933
542.281	0.408353
544.027	0.352989
545.773	0.111798
547.519	0.289072
549.264	0.396576
551.01	0.50401
552.754	0.680747
554.499	0.21026
556.243	0.0641279
557.987	0.310623
559.73	-0.0419703
561.474	0.987711
563.216	0.130075
564.959	0.331542
566.701	-0.0639658
568.441	0.32223
570.182	0.571247
571.923	0.24775
573.664	0.797479
575.405	0.22471
577.145	0.0662355
578.885	-0.0223513
580.624	0.440845
582.361	0.376087
584.1	0.264823
585.839	-0.0314178
587.577	0.545232
589.315	0.315737
591.052	0.33843
592.787	0.475657
594.524	-0.0545025
596.26	0.174587
597.997	0.541669
599.732	-0.0118265
601.466	0.101157
603.201	0.0290289
604.936	-0.573068
606.67	-0.371475
608.403	-0.12487
610.136	0.71799
611.87	0.183986
613.603	0.499499
615.334	0.58616
617.067	-0.128963
618.799	0.18662
620.529	0.500998
622.26	-0.101159
623.991	0.371145
625.72	0.568601
627.451	-0.0780497
629.181	0.258848
630.909	0.369404
632.638	0.116641
634.368	0.595106
636.095	0.571301
637.823	0.409032
639.551	0.221629
641.277	0.259902
643.005	0.79733
644.73	0.26248
646.457	-0.111986
648.184	0.515824
649.908	0.441264
651.634	-0.0843744
653.357	-0.0159817
655.083	-0.422409
656.806	-0.258455
658.53	-0.0933475
660.253	0.665031
661.977	0.144612
663.7	0.0327797
665.422	0.627507
667.145	0.146101
668.865	0.0526009
670.588	-0.452231
672.308	-0.177785
674.027	0.534022
675.749	1.01963
677.468	0.727277
679.188	0.641211
680.907	0.554121
682.627	0.557344
684.345	1.20321
686.064	0.811507
687.781	0.164763
689.498	1.10625
691.216	0.918429
692.932	0.845199
694.65	0.679155
696.366	0.235954
698.081	0.82788
699.797	0.7509
701.512	0.258978
703.228	0.847024
704.942	0.468992
706.655	0.733644
708.371	0.401249
710.083	0.985589
711.796	0.492595
713.51	1.2582
715.222	1.19954
716.934	0.729938
718.645	0.945601
720.358	0.203751
722.068	0.601942
723.779	0.999498
725.49	0.418703
727.2	0.520087
728.909	0.802463
730.618	0.7665
732.329	0.730241
734.037	1.19164
735.745	1.4487
737.453	0.621695
739.16	1.28579
740.869	0.845047
742.576	1.01425
744.282	0.599081
745.988	1.22071
747.694	1.32573
749.401	0.847096
751.107	0.684603
752.811	1.22051
754.516	1.30784
756.22	1.89168
757.924	1.75699
759.627	1.46583
761.332	1.76154
763.035	2.12591
764.738	1.63258
766.44	1.79277
768.142	1.68017
769.843	2.08551
771.544	2.37592
773.245	2.16741
774.946	2.52369
776.646	2.56387
778.346	1.61041
780.046	2.26385
781.745	2.46629
783.444	1.78646
785.143	2.1239
786.841	1.68955
788.539	1.97662
790.237	0.993653
791.934	1.4109
793.631	1.3743
795.328	1.72095
797.024	1.68459
798.72	1.69484
800.416	1.39162
802.112	1.98994
803.807	1.91377
805.502	1.41041
807.196	2.36731
808.89	1.88484
810.584	1.28964
812.278	2.06234
813.971	1.8922
815.664	1.61016
817.354	1.61934
819.047	1.53915
820.739	1.61555
822.43	1.40209
824.122	1.45721
825.813	1.02325
827.503	1.59388
829.192	2.25572
830.882	1.31685
832.571	1.49408
834.261	1.49508
835.95	1.85393
837.637	1.72209
839.325	1.7677
841.013	1.29816
842.701	1.29631
844.389	1.29398
846.074	0.956921
847.761	1.53788
849.447	1.78602
851.131	1.27552
852.817	1.14689
854.503	1.26569
856.188	1.72155
857.871	1.63775
859.556	1.32726
861.24	1.10476
862.922	0.812979
864.606	1.21845
866.289	1.55574
867.97	0.855355
869.653	1.66534
871.336	0.828647
873.016	1.0293
874.698	1.43301
876.379	0.663363
878.058	1.40571
879.739	1.40326
881.418	1.08446
883.098	1.30679
884.778	1.09925
886.456	1.04852
888.135	1.51535
889.812	0.627282
891.49	0.753077
893.167	1.59822
894.845	0.978302
896.523	0.695746
898.198	1.44592
899.875	1.1393
901.55	1.07912
903.226	1.21996
904.901	1.20383
906.576	1.47809
908.25	1.2172
909.925	1.18038
911.598	0.83301
913.271	0.820339
914.945	0.519353
916.617	1.08417
918.291	0.982968
919.962	0.660646
921.635	1.15789
923.306	0.550067
924.978	1.049
926.648	0.135933
928.318	0.968709
929.989	1.02978
931.659	1.6872
933.328	0.778413
934.998	0.730268
936.666	0.903053
938.336	0.833965
940.004	0.942387
941.671	1.16223
943.34	0.809149
945.007	0.49996
946.673	0.587075
948.339	0.518145
950.007	0.778642
951.672	0.662848
953.337	0.414796
955.004	0.609141
956.669	0.607336
958.333	0.76273
959.997	0.744174
961.662	0.484055
963.326	1.19611
964.989	0.315206
966.651	0.227772
968.315	0.691126
969.977	1.0641
971.639	0.838899
973.301	0.459338
974.962	0.656029
976.624	0.611032
978.285	0.810694
979.945	0.745564
981.605	0.680103
983.264	0.369966
984.924	0.987931
986.583	0.519388
988.243	0.691154
989.901	0.618412
991.56	0.965066
993.217	0.228869
994.875	0.906384
996.532	0.987556
998.188	0.759939
999.845	0.907012
1001.5	0.855366
1003.16	1.28756
1004.81	0.927161
1006.47	0.808895
1008.12	1.28382
1009.78	0.902526
1011.43	0.938828
1013.09	0.668674
1014.74	0.749668
1016.39	0.108503
1018.05	0.978216
1019.7	0.776156
1021.35	1.16551
1023	1.09664
1024.65	0.526062
1026.31	0.852115
1027.96	1.85549
1029.61	1.50354
1031.26	1.67477
1032.91	1.77884
1034.56	0.877546
1036.21	1.2625
1037.86	1.88572
1039.51	1.09292
1041.16	1.43302
1042.8	1.14349
1044.45	0.834171
1046.1	1.13503
1047.75	0.633985
1049.39	0.525402
1051.04	0.939225
1052.69	0.680488
1054.33	1.0087
1055.98	0.750245
1057.62	1.31752
1059.27	0.623508
1060.91	0.863769
1062.56	0.494514
1064.2	0.624577
1065.85	0.775437
1067.49	0.773119
1069.13	0.24851
1070.77	0.679273
1072.42	0.393201
1074.06	0.563435
1075.7	1.16827
1077.34	0.602944
1078.98	0.342496
1080.62	0.277932
1082.27	0.343512
1083.91	0.755283
1085.55	0.688609
1087.18	1.01019
1088.82	0.420066
1090.46	0.586518
1092.1	0.51384
1093.74	0.268048
1095.38	0.217055
1097.02	0.533302
1098.65	0.699442
1100.29	0.479432
1101.93	0.41196
1103.56	0.690311
1105.2	0.389001
1106.84	0.496952
1108.47	0.0455246
1110.11	0.5179
1111.74	0.580278
1113.38	0.104125
1115.01	0.443237
1116.64	0.716987
1118.28	0.518804
1119.91	0.321468
1121.54	0.853266
1123.18	0.91465
1124.81	0.0141258
1126.44	0.933
1128.07	0.847076
1129.7	0.890134
1131.33	0.591657
1132.97	0.186632
1134.6	-0.432166
1136.23	-0.132275
1137.86	0.230762
1139.49	0.165365
1141.11	0.355357
1142.74	-0.223495
1144.37	0.115443
1146	-0.206244
1147.63	-0.249837
1149.26	0.516919
1150.88	0.0909367
1152.51	-0.0366802
1154.14	0.0271025
1155.76	0.55874
1157.39	0.111227
1159.01	0.408724
1160.64	-0.292643
1162.27	0.176565
1163.89	0.689105
1165.51	0.415435
1167.14	0.205363
1168.76	-0.154371
1170.39	0.696148
1172.01	0.120932
1173.63	0.988557
1175.25	0.241423
1176.88	-0.335449
1178.5	0.105498
1180.12	-0.448503
1181.74	0.183589
1183.36	-0.36843
1184.98	0.538218
1186.6	-0.330778
1188.22	-0.123737
1189.84	0.16562
1191.46	0.136927
1193.08	0.0649538
1194.7	0.622341
1196.32	0.0879021
1197.94	0.183845
1199.55	0.218269
1201.17	-0.0796728
1202.79	0.251486
1204.41	-0.104205
1206.02	0.606266
1207.64	0.0242386
1209.25	0.0684271
1210.87	0.174545
1212.48	0.383453
1214.1	-0.264071
1215.71	-0.2879
1217.33	0.123702
1218.94	0.367355
1220.56	0.236707
1222.17	0.583886
1223.79	0.0819597
1225.4	0.472442
1227.01	0.325718
1228.62	0.407878
1230.23	0.635804
1231.85	0.616605
1233.46	1.01184
1235.07	0.126761
1236.68	0.276107
1238.29	0.385025
1239.9	1.01154
1241.51	0.376869
1243.12	1.35532
1244.73	0.864348
1246.34	1.15871
1247.94	1.24522
1249.55	0.793076
1251.16	0.547621
1252.77	1.00568
1254.37	1.19541
1255.98	0.744906
1257.59	1.30908
1259.2	1.27448
1260.8	1.1372
1262.41	1.04169
1264.01	0.86329
1265.62	0.808764
1267.22	1.16814
1268.83	1.1122
1270.43	1.24191
1272.03	1.37068
1273.64	1.35336
1275.24	0.568198
1276.85	0.963776
1278.45	0.674785
1280.05	0.696074
1281.65	0.903346
1283.25	1.11052
1284.85	1.46275
1286.46	1.60882
1288.06	0.825716
1289.66	1.53162
1291.26	1.32867
1292.86	1.291
1294.46	1.60388
1296.06	1.15132
1297.66	1.60596
1299.25	1.04764
1300.85	1.04536
1302.45	1.37156
1304.05	1.40817
1305.65	1.09454
1307.24	1.52045
1308.84	1.76054
1310.43	0.831964
1312.03	1.46157
1313.63	1.59973
1315.22	1.77943
1316.82	1.40845
1318.41	1.0182
1320.01	1.58664
1321.6	0.564539
1323.2	1.19137
1324.79	1.16488
1326.38	1.13718
1327.98	1.45368
1329.57	1.02064
1331.16	1.29789
1332.76	1.51593
1334.35	1.00881
1335.94	1.43207
1337.53	0.988166
1339.12	1.14894
1340.71	1.32822
1342.3	1.32417
1343.89	1.25803
1345.48	0.970175
1347.07	1.20438
1348.66	0.758511
1350.25	1.33628
1351.84	0.915469
1353.43	0.556892
1355.01	1.15909
1356.6	0.382565
1358.19	0.584975
1359.77	0.646687
1361.36	1.18645
1362.95	1.08655
1364.53	0.56778
1366.12	0.727235
1367.71	1.00667
1369.29	0.629997
1370.88	-0.0835447
1372.46	0.537481
1374.04	0.721602
1375.63	1.22469
1377.21	0.991664
1378.8	0.559227
1380.38	0.523936
1381.96	0.845636
1383.54	-0.10667
1385.13	0.173355
1386.71	0.909678
1388.29	0.771658
1389.87	0.733566
1391.45	0.835176
1393.03	1.15564
1394.61	0.425146
1396.19	0.785437
1397.77	0.609725
1399.35	0.334215
1400.93	0.493878
1402.51	0.969581
1404.09	0.415956
1405.67	0.594959
1407.24	0.952403
1408.82	0.40144
1410.4	0.503108
1411.98	0.683687
1413.55	0.172774
1415.13	0.253471
1416.71	0.451721
1418.28	0.314345
1419.86	0.610737
1421.43	0.710808
1423.01	0.851496
1424.58	0.796725
1426.16	1.45161
1427.73	1.45751
1429.31	0.656192
1430.88	0.8973
1432.45	1.2751
1434.02	1.65186
1435.6	1.33962
1437.17	1.95178
1438.74	1.20801
1440.31	1.91977
1441.88	1.64966
1443.45	1.14437
1445.03	1.3273
1446.6	1.84455
1448.17	1.49709
1449.74	1.40539
1451.3	1.76629
1452.87	1.79349
1454.44	2.31284
1456.01	1.75025
1457.58	1.60012
1459.15	1.25203
1460.72	1.9651
1462.28	1.10228
1463.85	1.35954
1465.42	1.24211
1466.98	1.28161
1468.55	1.39989
1470.12	1.44033
1471.68	0.55972
1473.25	1.11224
1474.81	1.2142
1476.38	1.12045
1477.94	1.30128
1479.51	1.50161
1481.07	1.3098
1482.63	1.58829
1484.2	1.7686
1485.76	1.18451
1487.32	0.776288
1488.88	1.15032
1490.45	0.563623
1492.01	1.40315
1493.57	1.22353
1495.13	0.652453
1496.69	1.28989
1498.25	0.991362
1499.81	0.655176
1501.37	0.825437
1502.93	0.686053
1504.49	0.760849
1506.05	0.816393
1507.61	1.1034
1509.17	1.02186
1510.73	0.688618
1512.28	0.355431
1513.84	0.311463
1515.4	0.6714
1516.96	0.704544
1518.51	0.220501
1520.07	0.4468
1521.63	-0.0734758
1523.18	0.190821
1524.74	0.282073
1526.29	0.429493
1527.85	0.956585
1529.4	0.245748
1530.96	0.467279
1532.51	0.6886
1534.06	0.910067
1535.62	0.734675
1537.17	0.673859
1538.72	0.500509
1540.28	0.5164
1541.83	0.400479
1543.38	0.359981
1544.93	0.657835
1546.48	0.316293
1548.03	1.19493
1549.59	0.216049
1551.14	0.962012
1552.69	0.565796
1554.24	1.14298
1555.79	1.17879
1557.34	0.656112
1558.88	0.65799
1560.43	0.120431
1561.98	0.703526
1563.53	0.933124
1565.08	0.174352
1566.62	0.852386
1568.17	0.7092
1569.72	1.05098
1571.27	1.39246
1572.81	0.464331
1574.36	0.768088
1575.9	0.82918
1577.45	0.405055
1579	0.205235
1580.54	0.88342
1582.09	0.591315
1583.63	0.673359
1585.17	0.905558
1586.72	1.17574
1588.26	0.642003
1589.8	1.08066
1591.35	1.40698
1592.89	1.47094
1594.43	1.02896
1595.97	1.29868
1597.52	1.32525
1599.06	1.5024
1600.6	1.26763
1602.14	2.10282
1603.68	1.41784
1605.22	1.12615
1606.76	1.17136
1608.3	1.9104
1609.84	0.880723
1611.38	1.23989
1612.92	1.84121
1614.46	1.08932
1615.99	1.06947
1617.53	1.33116
1619.07	1.29377
1620.61	1.20149
1622.14	1.24151
1623.68	0.720588
1625.22	1.28554
1626.75	1.36309
1628.29	0.896938
1629.82	1.19671
1631.36	0.915877
1632.9	1.68099
1634.43	1.49339
1635.96	1.21338
1637.5	1.64311
1639.03	1.36462
1640.57	1.44048
1642.1	1.92562
1643.63	1.88796
1645.16	1.79341
1646.7	2.18164
1648.23	1.49123
1649.76	2.06477
1651.29	2.08171
1652.82	2.24815
1654.36	1.97052
1655.89	2.19412
1657.42	2.1396
1658.95	2.12147
1660.48	1.91706
1662.01	1.76706
1663.53	1.33895
1665.06	1.48358
1666.59	1.59133
1668.12	1.36786
1669.65	1.71733
1671.18	1.92038
1672.7	1.00067
1674.23	1.22361
1675.76	1.88812
1677.29	1.22641
1678.81	1.5393
1680.34	1.63031
1681.86	0.379169
1683.39	0.561624
1684.91	1.09253
1686.44	0.907807
1687.96	0.558702
1689.49	0.741539
1691.01	0.558187
1692.54	0.814293
1694.06	0.75913
1695.58	0.173699
1697.11	0.611924
1698.63	0.921544
1700.15	0.536918
1701.67	0.462404
1703.2	0.296409
1704.72	0.239482
1706.24	0.473399
1707.76	0.215829
1709.28	0.285566
1710.8	-0.38884
1712.32	0.0259838
1713.84	0.476471
1715.36	0.310758
1716.88	0.724082
1718.4	0.341382
1719.91	0.139835
1721.43	0.425896
1722.95	0.00879192
1724.47	0.223624
1725.99	-0.0109968
1727.5	-0.154399
1729.02	0.188899
1730.54	0.20816
1732.05	0.279598
1733.57	0.0849648
1735.09	0.0299077
1736.6	0.148944
1738.12	-0.0307217
1739.63	0.313721
1741.15	0.377148
1742.66	-0.141971
1744.18	0.268631
1745.69	0.419489
1747.2	0.0932446
1748.72	0.261972
1750.23	-0.0123229
1751.74	0.229225
1753.25	0.0782337
1754.77	0.198197
1756.28	-0.0122046
1757.79	-0.0880299
1759.3	-0.335968
1760.81	-0.270064
1762.32	0.15521
1763.83	0.145011
1765.34	-0.0351186
1766.85	0.0217628
1768.36	0.388265
1769.87	-0.116916
1771.38	0.0991607
1772.89	0.402298
1774.4	-0.0194645
1775.91	-0.0331998
1777.41	-0.010344
1778.92	-0.0622654
1780.43	0.102501
1781.94	-0.141221
1783.44	0.104264
1784.95	0.199155
1786.45	0.310722
1787.96	-0.0840631
1789.47	0.0600929
1790.97	0.120061
1792.48	0.00606918
1793.98	0.0303574
1795.48	0.0364428
1796.99	-0.0360451
1798.49	-0.00444555
1800	0.015357
1801.5	0.0572238
1803	0.104816
1804.51	0.109616
1806.01	0.231458
1807.51	0.244808
1809.01	0.236391
1810.51	0.549783
1812.02	0.201727
1813.52	0.290036
1815.02	0.133359
1816.52	0.209654
1818.02	0.42611
1819.52	0.213205
1821.02	0.226617
1822.52	0.197823
1824.02	0.171443
1825.51	0.334181
1827.01	0.0892935
1828.51	0.298089
1830.01	-0.0172787
1831.51	0.275321
1833	0.0334578
1834.5	0.344767
1836	0.0122838
1837.5	-0.0346842
1838.99	0.301789
1840.49	-0.0492172
1841.98	0.00433826
1843.48	-0.0624795
1844.97	0.0710964
1846.47	0.0513663
1847.96	-0.00279665
1849.46	-0.036231
1850.95	0.0774155
1852.45	0.140848
1853.94	0.0428171
1855.43	0.00082016
1856.92	-0.0396061
1858.42	0.138423
1859.91	0.210301
1861.4	0.000590324
1862.89	-0.112545
1864.39	-0.379273
1865.88	0.0809617
1867.37	0.0252166
1868.86	0.196348
1870.35	0.0380235
1871.84	-0.0589042
1873.33	-0.35141
1874.82	-0.0143752
1876.31	-0.203062
1877.8	-0.19513
1879.29	0.111312
1880.77	0.0513225
1882.26	0.222404
1882.51	0.260168
1884	-0.245769
1885.5	0.119383
1886.99	0.274541
1888.48	0.220244
1889.98	0.305326
1891.47	0.304116
1892.97	0.234586
1894.46	-0.0247841
1895.95	0.238601
1897.44	0.380971
1898.93	0.175416
1900.42	-0.0135684
1901.92	0.492072
1903.41	0.230936
1904.9	0.212238
1906.39	0.106072
1907.88	0.104174
1909.37	0.068006
1910.86	0.119313
1912.35	0.0845251
1913.84	0.240954
1915.32	0.137287
1916.81	0.570848
1918.3	0.102498
1919.79	0.29249
1921.28	0.343713
1922.76	0.377892
1924.25	0.135728
1925.74	0.275321
1927.22	-0.0343933
1928.71	0.262317
1930.2	0.178113
1931.68	0.335732
1933.17	0.405649
1934.65	0.335677
1936.14	-0.133459
1937.62	-0.0496507
1939.11	0.448381
1940.59	0.0998759
1942.08	0.0803103
1943.56	-0.16271
1945.04	-0.163502
1946.53	0.232473
1948.01	0.0248566
1949.49	0.523129
1950.97	-0.0817719
1952.45	0.104853
1953.94	-0.035913
1955.42	0.321769
1956.9	-0.402601
1958.38	-0.0272126
1959.86	0.159616
1961.34	0.0894756
1962.82	0.0881023
1964.3	0.240788
1965.78	0.136083
1967.26	0.493078
1968.74	0.318893
1970.22	0.247031
1971.69	-0.183628
1973.17	0.222622
1974.65	0.28724
1976.13	0.317811
1977.61	0.178142
1979.08	0.208944
1980.56	-0.253607
1982.03	0.304243
1983.51	-0.20905
1984.99	0.754852
1986.46	0.512899
1987.94	0.356042
1989.41	0.436735
1990.89	-0.108313
1992.36	0.176736
1993.84	0.276279
1995.31	0.308769
1996.78	-0.0469856
1998.26	-0.0816579
1999.73	0.153496
2001.2	0.388006
2002.68	0.402644
2004.15	0.299149
2005.62	0.533006
2007.09	0.194561
2008.56	0.210663
2010.04	0.412598
2011.51	-0.176286
2012.98	-0.0244093
2014.45	0.295402
2015.92	0.210713
2017.39	0.142208
2018.86	0.442975
2020.33	0.0373287
2021.8	-0.21687
2023.27	0.167252
2024.74	0.199267
2026.2	0.399883
2027.67	0.618299
2029.14	0.200514
2030.61	0.236586
2032.07	-0.0118771
2033.54	0.478497
2035.01	0.347855
2036.47	-0.0687428
2037.94	0.270172
2039.41	0.138356
2040.87	0.342644
2042.34	0.446421
2043.8	-0.0715032
2045.27	0.151217
2046.73	0.341041
2048.2	0.379696
2049.66	0.182192
2051.12	0.270395
2052.59	0.18884
2054.05	0.0553188
2055.51	0.44327
2056.98	-0.0128942
2058.44	0.474315
2059.9	0.337778
2061.36	0.689941
2062.82	0.251381
2064.29	0.436483
2065.75	0.521341
2067.21	0.489054
2068.67	0.474052
2070.13	0.492958
2071.59	0.259386
2073.05	0.665473
2074.51	0.498905
2075.97	0.584655
2077.43	0.501722
2078.88	0.637398
2080.34	0.873728
2081.8	0.351924
2083.26	0.418942
2084.72	0.586325
2086.17	0.467053
2087.63	0.801377
2089.09	0.429206
2090.54	0.477179
2092	0.407523
2093.46	0.304314
2094.91	0.804752
2096.37	0.617051
2097.82	0.345325
2099.28	1.02746
2100.73	0.70492
2102.19	0.784083
2103.64	0.997375
2105.09	0.911049
2106.55	1.10954
2108	0.891829
2109.46	0.791229
2110.91	0.773612
2112.36	0.888268
2113.81	0.801604
2115.27	1.2296
2116.72	0.575513
2118.17	1.35128
2119.62	1.01487
2121.07	1.11177
2122.52	0.629723
2123.97	1.1108
2125.42	1.01198
2126.87	1.09535
2128.32	1.31049
2129.77	1.17638
2131.22	1.3063
2132.67	1.15401
2134.12	1.46506
2135.57	1.56149
2137.01	1.36158
2138.46	1.37815
2139.91	1.29715
2141.36	1.77954
2142.8	1.84984
2144.25	1.52373
2145.7	1.41263
2147.14	2.17871
2148.59	2.10009
2150.03	2.236
2151.48	2.07281
2152.92	1.94184
2154.37	1.67759
2155.81	2.20819
2157.26	2.50682
2158.7	1.99442
2160.15	2.1458
2161.59	2.49767
2163.03	2.43706
2164.48	2.09578
2165.92	2.28606
2167.36	1.97812
2168.8	2.18422
2170.25	2.50536
2171.69	2.62512
2173.13	2.42698
2174.57	2.29411
2176.01	2.49334
2177.45	1.9112
2178.89	2.22766
2180.33	2.02957
2181.77	1.74911
2183.21	2.06777
2184.65	2.48657
2186.09	2.05718
2187.53	2.09353
2188.97	1.84702
2190.41	1.98325
2191.84	1.83627
2193.28	2.50446
2194.72	1.34004
2196.16	1.70584
2197.59	1.58718
2199.03	2.01589
2200.47	1.28003
2201.9	1.27564
2203.34	0.923377
2204.78	1.35173
2206.21	1.69762
2207.65	1.29817
2209.08	0.932046
2210.51	0.995987
2211.95	1.77031
2213.38	1.89832
2214.82	1.67916
2216.25	1.6754
2217.68	1.30966
2219.12	1.04425
2220.55	0.977554
2221.98	1.30656
2223.42	1.17347
2224.85	1.61569
2226.28	0.936972
2227.71	1.0307
2229.14	1.15605
2230.57	0.952391
2232	0.667065
2233.43	0.595388
2234.86	1.09673
2236.29	0.715876
2237.72	1.00619
2239.15	0.824489
2240.58	0.823946
2242.01	0.873758
2243.44	0.255838
2244.87	0.877798
2246.3	0.5043
2247.73	0.667868
2249.15	0.829685
2250.58	0.614883
2252.01	0.480433
2253.43	0.605772
2254.86	0.568626
2256.29	0.597568
2257.71	0.498462
2259.14	0.482692
2260.56	0.323102
2261.99	0.246392
2263.41	0.333188
2264.84	0.501585
2266.26	-0.224392
2267.69	0.138291
2269.11	0.565719
2270.54	-0.211812
2271.96	0.507913
2273.38	0.185507
2274.81	0.156236
2276.23	0.518152
2277.65	0.261067
2279.07	0.313642
2280.49	0.0726795
2281.92	0.174036
2283.34	0.210121
2284.76	0.556312
2286.18	0.674319
2287.6	0.727369
2289.02	0.519461
2290.44	0.507789
2291.86	0.349202
2293.28	0.403182
2294.7	-0.229991
2296.12	0.232924
2297.54	0.679819
2298.96	0.0131269
2300.38	-0.0475955
2301.79	0.186985
2303.21	-0.0537686
2304.63	-0.0320234
2306.05	-0.108841
2307.46	0.290531
2308.88	0.558364
2310.3	-0.0455713
2311.71	-0.140273
2313.13	0.143384
2314.55	0.229995
2315.96	0.350143
2317.38	0.520413
2318.79	0.015348
2320.21	0.251773
2321.62	0.091619
2323.03	0.474655
2324.45	0.377405
2325.86	0.42699
2327.27	0.458777
2328.69	0.605309
2330.1	0.158847
2331.51	0.372023
2332.93	0.174411
2334.34	0.142083
2335.75	0.570574
2337.16	0.192657
2338.57	0.307481
2339.99	0.306334
2341.4	0.0910039
2342.81	-0.0916014
2344.22	-0.241185
2345.63	0.379904
2347.04	0.165098
2348.45	0.0815334
2349.86	0.226828
2351.26	0.289622
2352.67	-0.0730524
2354.08	-0.158347
2355.49	0.0494514
2356.9	0.158881
2358.31	0.528279
2359.71	-0.0778651
2361.12	-0.130822
2362.53	0.254086
2363.94	0.00645828
2365.34	-0.111249
2366.75	-0.034637
2368.15	0.0260987
2369.56	0.281026
2370.97	0.0368199
2372.37	-0.028903
2373.78	-0.061636
2375.18	0.0830002
2376.59	0.275517
2377.99	-0.0796609
2379.39	-0.258698
2380.8	0.203547
2382.2	-0.121903
2383.61	0.305498
2385.01	-0.0521126
2386.41	0.158591
2387.81	0.161995
2389.22	-0.463534
2390.62	0.346679
2392.02	0.0102954
2393.42	-0.213573
2394.82	0.0722966
2396.22	-0.309285
2397.63	0.0568037
2399.02	0.311878
2400.43	-0.306521
2401.82	0.0761757
2403.23	0.0776434
2404.62	0.158241
2406.02	0.095324
2407.42	0.253925
2408.82	-0.349448
2410.22	0.0461845
2411.62	-0.287221
2413.02	-0.0813317
2414.41	-0.22301
2415.81	-0.284481
2417.21	-0.202567
2418.61	0.291687
2420	0.232081
2421.4	-0.001863
2422.79	0.0331879
2424.19	-0.0270109
2425.59	-0.0079546
2426.98	0.0273132
2428.38	-0.333128
2429.77	0.242545
2431.17	-0.101072
2432.56	-0.190902
2433.96	-0.21764
2435.35	0.136121
2436.74	0.282429
2438.14	0.14164
2439.53	-0.0794687
2440.92	-0.0629072
2442.32	0.159626
2443.71	0.47699
2445.1	-0.125996
2446.49	0.0641475
2447.88	0.364959
2449.28	0.0952411
2450.67	0.237591
2452.06	-0.0313048
2453.45	0.0328031
2454.84	0.20823
2456.23	0.0993814
2457.62	-0.0883069
2459.01	0.214242
2460.4	-0.116261
2461.79	0.201042
2463.18	-0.130429
2464.57	0.0751057
2465.96	-0.193517
2467.34	0.0273752
2468.73	0.374258
2470.12	-0.0836387
2471.51	0.0103002
2472.89	0.198174
2474.28	-0.197212
2475.67	0.0996614
2477.05	0.00286388
2478.44	0.314503
2479.83	0.0451555
2481.21	0.0899491
2482.6	0.134628
2483.98	-0.0246024
2485.37	0.269391
2486.75	0.327621
2488.14	-0.0208044
2489.52	0.0207181
2490.9	0.155406
2492.29	0.165762
2493.67	-0.0249977
2495.06	0.250949
2496.44	-0.0151701
2497.82	0.137922
2499.2	-0.157875
2500.59	0.0414748
2501.97	-0.347312
2503.35	0.236693
2504.73	0.15564
2506.11	0.182163
2507.49	0.285401
2508.88	-0.226449
2510.26	0.0923934
2511.63	-0.0185418
2513.01	0.438432
2514.39	-0.375989
2515.77	0.00523472
2517.15	0.310029
2518.53	-0.18013
2519.91	0.262478
2521.29	-0.0286565
2522.67	0.061677
2524.05	-0.184258
2525.42	0.0421438
2526.8	0.374579
2528.18	-0.0235829
2529.56	-0.146719
2530.93	-0.19265
2532.31	0.00570488
2533.69	-0.0837278
2535.06	0.0248528
2536.44	-0.216014
2537.81	0.438957
2539.19	-0.380171
2540.56	0.121482
2541.94	0.0761528
2543.31	-0.0599923
2544.69	0.0320487
2546.06	-0.193606
2547.44	0.127646
2548.81	0.146146
2550.18	0.361985
2551.56	0.0919023
2552.93	-0.027102
2554.3	-0.0861111
2555.68	0.24874
2557.05	0.0521579
2558.42	0.219506
2559.79	-0.219426
2561.16	0.130328
2562.53	0.404652
2563.9	0.194437
2565.28	0.302779
2566.64	0.259757
2568.02	0.444128
2569.38	-0.12928
2570.76	0.146034
2572.12	0.194035
2573.49	0.211785
2574.86	0.320558
2576.23	0.247442
2577.6	-0.0228543
2578.97	0.252532
2580.34	0.103108
2581.7	0.135351
2583.07	0.0611897
2584.44	0.168792
2585.81	0.24601
2587.17	0.0201626
2588.54	0.264303
2589.91	-0.00676632
2591.27	0.328255
2592.64	0.162866
2594	0.163597
2595.37	0.209024
2596.73	-0.033916
2598.1	-0.0956278
2599.46	0.296032
2600.83	0.0677853
2602.19	-0.0239449
2603.55	0.277355
2604.92	-0.251123
2606.28	-0.0248623
2607.64	-0.0704064
2609.01	0.260301
2610.37	0.258404
2611.73	-0.165852
2613.09	0.0112786
2614.46	0.292667
2615.82	-0.207006
2617.18	0.118965
2618.54	0.0104079
2619.9	0.15696
2621.26	0.109418
2622.62	-0.0721641
2623.98	0.0602365
2625.34	0.0581183
2626.7	0.160212
2628.06	0.217215
2629.42	-0.128112
2630.78	-0.160611
2632.14	0.193382
2633.5	-0.0176926
2634.86	0.320712
2636.22	-0.112624
2637.57	0.0178165
2638.93	0.162883
2640.29	-0.195192
2641.64	-0.00555944
2643	-0.0228381
2644.36	0.196229
2645.72	-0.307944
2647.07	0.14655
2648.43	0.172688
2649.78	0.68382
2651.14	0.634791
2652.49	0.468127
2653.85	0.125905
2655.2	0.151299
2656.56	0.250648
2657.91	0.0433159
2659.27	0.173312
2660.62	0.0548973
2661.97	0.214172
2663.33	0.168365
2664.68	0.268001
2666.03	0.294015
2667.38	0.159327
2668.74	0.316014
2670.09	-0.0802641
2671.44	0.39678
2672.79	0.147122
2674.14	0.101511
2675.49	0.230524
2676.84	0.37433
2678.2	0.184921
2679.55	0.0977077
2680.89	0.0547414
2682.24	0.0271001
2683.59	0.145278
2684.94	0.264183
2686.29	0.470555
2687.64	0.0383101
2688.99	-0.177211
2690.34	0.0271115
2691.69	0.273662
2693.04	0.330349
2694.38	0.197761
2695.73	0.427485
2697.08	-0.0234151
2698.43	0.0627103
2699.77	0.222349
2701.12	0.0791197
2702.46	0.226575
2703.81	0.389366
2705.16	0.277222
2706.5	0.455101
2707.85	0.22664
2709.19	0.273506
2710.54	0.087781
2711.88	0.482801
2713.23	0.224054
2714.57	-0.10758
2715.92	0.374775
2717.26	0.246448
2718.6	0.379729
2719.95	0.440044
2721.29	0.398171
2722.63	0.399591
2723.97	0.211437
2725.32	0.0811801
2726.66	-0.13667
2728	0.198332
2729.34	0.111078
2730.68	0.358397
2732.02	-0.252745
2733.36	0.0236702
2734.7	0.227413
2736.04	-0.150525
2737.39	-0.0629287
2738.72	0.0682659
2740.06	0.359232
2741.4	0.184507
2742.74	0.387345
2744.08	0.182649
2745.42	0.00669432
2746.76	0.17909
2748.1	0.0173473
2749.44	0.232998
2750.77	0.144039
2752.11	0.0698161
2753.45	0.474063
2754.78	0.110294
2756.12	0.442059
2757.46	-0.181917
2758.79	-0.0381689
2760.13	0.43865
2761.47	-0.198612
2762.8	-0.0685225
2764.14	0.23539
2765.47	-0.111818
2766.81	0.293002
2768.14	0.320971
2769.48	0.347989
2770.81	0.0126448
2772.14	0.312175
2773.48	0.0477443
2774.81	0.172622
2776.14	0.354856
2777.48	0.263585
2778.81	-0.100383
2780.14	-0.262277
2781.47	-0.0216441
2782.81	0.161321
2784.14	-0.129283
2785.47	-0.362192
2786.8	0.450885
2788.13	-0.182443
2789.46	-0.313817
2790.79	-0.287176
2792.12	0.369075
2793.46	0.0389714
2794.79	-0.019413
2796.11	0.107745
2797.44	0.0344706
2798.77	0.21786
2800.1	-0.0987315
2801.43	0.141117
2802.76	0.166718
2804.09	0.249106
2805.42	-0.0534611
2806.74	0.270183
2808.07	-0.00444126
2809.4	0.00527763
2810.73	-0.0844131
2812.05	-0.00328207
2813.38	-0.162596
2814.71	-0.179023
2816.03	-0.109436
2817.36	0.130968
2818.68	0.215856
2820.01	0.0739737
2821.33	0.0735164
2822.66	-0.196656
2823.98	0.4821
2825.31	0.352903
2826.63	0.351243
2827.96	0.194209
2829.28	0.504786
2830.61	0.277726
2831.93	0.206548
2833.25	0.36181
2834.57	0.0639048
2835.9	0.586537
2837.22	0.924659
2838.54	0.908647
2839.86	0.623782
2841.18	0.763284
2842.51	0.662722
2843.83	1.19865
2845.15	1.70677
2846.47	1.56527
2847.79	1.25446
2849.11	1.84821
2850.43	1.66438
2851.75	1.8335
2853.07	1.64886
2854.39	1.46397
2855.71	1.75934
2857.03	1.68733
2858.35	1.61537
2859.67	1.79762
2860.98	1.4996
2862.3	2.03437
2863.62	1.98993
2864.94	2.0723
2866.25	2.06997
2867.57	2.19475
2868.89	2.46082
2870.21	2.17732
2871.52	2.38738
2872.84	2.16027
2874.15	2.07359
2875.47	2.59183
2876.78	2.44709
2878.1	3.11797
2879.42	2.53624
2880.73	2.7144
2882.04	2.79469
2883.36	2.53867
2884.67	2.90138
2885.99	2.61866
2887.3	2.35015
2888.61	2.93736
2889.93	2.48561
2891.24	3.09917
2892.55	2.49238
2893.87	2.76856
2895.18	2.6387
2896.49	2.97148
2897.8	3.10898
2899.11	2.92545
2900.42	2.6307
2901.74	3.04977
2903.05	3.06331
2904.36	3.60849
2905.67	3.31464
2906.98	3.41288
2908.29	3.79156
2909.6	3.31757
2910.91	3.44562
2912.22	4.06364
2913.53	3.88328
2914.83	3.81375
2916.14	4.12083
2917.45	3.90867
2918.76	4.10156
2920.07	4.37811
2921.37	4.57114
2922.68	4.59736
2923.99	4.30325
2925.3	4.35955
2926.6	4.51422
2927.91	4.52916
2929.22	5.27077
2930.52	4.82361
2931.83	5.18688
2933.13	5.17248
2934.44	4.71079
2935.74	5.12976
2937.05	5.12956
2938.35	4.51468
2939.66	5.00398
2940.96	4.54351
2942.27	4.46102
2943.57	4.36552
2944.87	4.46682
2946.18	4.35938
2947.48	3.73469
2948.78	3.96314
2950.09	3.78483
2951.39	3.45103
2952.69	3.29777
2953.99	3.18549
2955.29	3.22692
2956.6	3.15704
2957.9	3.5786
2959.2	3.31639
2960.5	3.35032
2961.8	3.24572
2963.1	3.09953
2964.4	2.81232
2965.7	2.7625
2967	2.38818
2968.3	2.57496
2969.6	2.56442
2970.9	2.15996
2972.2	2.36049
2973.49	2.47696
2974.79	2.2979
2976.09	2.34358
2977.39	1.8392
2978.69	1.91088
2979.98	2.15021
2981.28	2.12106
2982.58	1.64144
2983.88	1.62642
2985.17	1.71058
2986.47	1.7115
2987.76	1.34817
2989.06	1.04178
2990.36	0.932301
2991.65	0.934951
2992.95	0.950972
2994.24	0.614873
2995.54	1.31761
2996.83	0.85398
2998.12	0.615158
2999.42	0.811567
3000.71	0.797883
3002	0.700542
3003.3	0.19722
3004.59	0.60484
3005.88	0.577929
3007.18	0.634625
3008.47	0.173033
3009.76	0.452459
3011.05	0.605259
3012.35	0.492273
3013.64	0.421332
3014.93	0.197472
3016.22	0.169458
3017.51	0.183787
3018.8	0.170657
3020.09	-0.0927
3021.38	-0.230917
3022.67	0.283314
3023.96	-0.0781689
3025.25	0.0596199
3026.54	0.0723653
3027.83	0.389849
3029.12	0.182222
3030.41	-0.0516605
3031.69	-0.229012
3032.98	0.119114
3034.27	0.0256419
3035.56	0.22162
3036.85	0.27866
3038.13	-0.0788817
3039.42	0.416234
3040.71	0.111931
3041.99	-0.205904
3043.28	0.135033
3044.57	0.256662
3045.85	-0.126689
3047.14	0.106941
3048.42	0.246331
3049.71	-0.131487
3050.99	0.0105305
3052.28	0.248656
3053.56	0.159346
3054.85	0.356143
3056.13	0.265759
3057.42	0.174716
3058.7	0.20587
3059.98	0.100688
3061.27	0.295296
3062.55	0.000776768
3063.83	0.101779
3065.11	0.203849
3066.4	0.320525
3067.68	0.0980601
3068.96	-0.273726
3070.24	-0.115283
3071.52	0.0698719
3072.8	0.118248
3074.09	0.342515
3075.37	0.0632491
3076.65	0.368043
3077.93	0.0349126
3079.21	-0.215733
3080.49	0.118106
3081.77	0.113881
3083.05	0.015615
3084.32	0.18924
3085.61	-0.396951
3086.88	-0.209869
3088.16	-0.00957918
3089.44	0.0410037
3090.72	0.0234785
3092	-0.143306
3093.27	0.0699334
3094.55	-0.354003
3095.83	-0.140281
3097.11	0.290397
3098.38	0.097486
3099.66	-0.0140581
3100.94	0.30795
3102.21	0.169454
3103.49	-0.104087
3104.76	-0.119904
3106.04	0.0137143
3107.31	-0.109128
3108.59	0.107122
3109.86	0.378374
3111.14	0.041225
3112.41	0.0295315
3113.69	0.0859265
3114.96	0.142462
3116.23	0.198808
3117.51	0.268246
3118.78	0.0522041
3120.05	0.0389681
3121.33	0.337034
3122.6	0.228011
3123.87	0.389935
3125.14	0.34885
3126.42	0.362337
3127.69	0.281593
3128.96	0.404231
3130.23	0.175581
3131.5	0.204081
3132.77	0.1515
3134.04	0.193367
3135.31	0.329441
3136.58	0.303204
3137.85	0.182391
3139.12	0.277148
3140.39	0.60057
3141.66	0.345341
3142.93	0.346148
3144.2	0.293676
3145.47	0.362566
3146.74	0.324685
3148	0.407967
3149.27	0.505076
