200.398	0.316532
202.213	0.3554
204.027	0.397011
205.843	0.124632
207.657	0.339346
209.47	-0.103308
211.283	-0.159286
213.097	-0.290823
214.909	0.133219
216.721	0.191723
218.533	-0.258436
220.344	0.0435925
222.157	-0.0155869
223.967	0.79759
225.777	0.886299
227.587	-0.69171
229.396	0.555923
231.205	-0.226202
233.016	0.077261
234.824	-0.390575
236.632	-0.373381
238.439	0.805071
240.247	1.33825
242.053	1.73219
243.86	2.12963
245.666	2.74463
247.474	3.33241
249.279	3.74483
251.085	4.51154
252.889	4.64317
254.694	4.1669
256.498	4.75073
258.301	4.51659
260.105	5.22642
261.908	5.122
263.71	5.07023
265.513	3.06963
267.315	3.88889
269.116	3.79173
270.918	3.08975
272.718	3.22863
274.519	2.93001
276.319	3.44699
278.119	3.47712
279.918	3.21311
281.718	1.86114
283.516	1.82938
285.315	2.17855
287.113	1.54094
288.911	1.62375
290.708	1.89963
292.505	0.741829
294.302	1.00044
296.098	2.4097
297.894	0.35486
299.69	1.05014
301.485	1.57735
303.278	1.19488
305.073	1.12008
306.867	0.518312
308.661	1.10842
310.454	0.5315
312.247	0.886486
314.04	0.125721
315.833	0.559698
317.623	1.49779
319.415	-0.132977
321.206	1.02605
322.997	1.35336
324.788	-0.0598755
326.579	0.292175
328.367	0.88295
330.156	0.27763
331.946	-0.187523
333.735	0.491566
335.523	-0.0303555
337.31	0.375708
339.098	0.944302
340.885	0.360903
342.673	0.301825
344.458	0.576979
346.244	-0.0308609
348.03	-0.708527
349.816	-0.286718
351.6	0.0632782
353.385	0.17321
355.17	-0.244135
356.953	0.0749798
358.737	0.533665
360.521	-0.130262
362.304	-0.20056
364.085	0.559656
365.868	-0.346191
367.65	-0.0180416
369.431	0.544533
371.212	-0.104197
372.994	1.63643
374.773	0.93787
376.554	-0.136845
378.332	1.00839
380.112	1.54073
381.892	1.46276
383.669	0.752775
385.448	0.305143
387.225	1.576
389.003	0.73431
390.781	1.11654
392.557	1.50048
394.334	1.11082
396.109	2.43635
397.885	2.51745
399.66	2.78597
401.436	4.08686
403.211	4.32912
404.984	3.53594
406.759	3.96202
408.532	3.16543
410.306	3.21323
412.078	3.61303
413.851	4.69416
415.623	4.13448
417.395	4.77358
419.166	4.42889
420.938	5.53999
422.708	5.12495
424.477	5.3183
426.248	3.51361
428.017	2.78662
429.788	2.95036
431.556	2.69143
433.326	1.89342
435.093	0.13397
436.86	0.838713
438.629	1.58872
440.395	1.49035
442.163	1.10566
443.929	1.48972
445.694	0.931616
447.461	0.792635
449.226	0.442162
450.99	-0.678638
452.756	0.233984
454.52	1.1689
456.285	0.680441
458.048	1.54308
459.811	-0.0390358
461.573	-0.0594101
463.337	1.13215
465.099	0.37657
466.86	0.278332
468.623	0.163055
470.384	0.610216
472.144	1.03616
473.906	0.646025
475.666	1.01996
477.425	1.27235
479.184	0.68153
480.944	1.08978
482.703	1.56802
484.461	1.60643
486.218	1.55632
487.975	1.16182
489.734	1.07505
491.491	0.827269
493.247	1.23487
495.003	1.29294
496.759	0.578434
498.516	1.17397
500.271	1.58186
502.025	1.37862
503.779	0.750092
505.533	0.65851
507.287	0.939779
509.042	1.59395
510.795	1.35038
512.547	1.83228
514.299	2.1927
516.051	1.2321
517.803	2.33848
519.554	0.9496
521.305	1.88616
523.055	2.0455
524.805	2.13362
526.555	1.70542
528.307	1.79345
530.056	1.81081
531.805	1.96764
533.553	1.20935
535.301	2.27358
537.049	1.57972
538.797	1.32714
540.544	1.7017
542.291	0.908579
544.037	0.767698
545.783	0.975508
547.529	1.43845
549.275	1.90084
551.02	0.440693
552.765	1.64423
554.509	2.5452
556.253	1.06736
557.997	0.723326
559.738	1.30272
561.482	1.32989
563.224	0.461344
564.967	0.422941
566.709	0.983335
568.451	0.764408
570.192	0.479397
571.933	0.106106
573.674	-0.0337429
575.415	0.862967
577.153	0.479149
578.893	0.626322
580.632	0.959318
582.371	-0.338511
584.11	0.683123
585.849	0.0702629
587.587	0.62718
589.323	0.744171
591.06	1.47999
592.797	0.856955
594.534	0.969721
596.271	-0.274862
598.005	0.52812
599.741	-0.786371
601.476	0.473787
603.211	0.442505
604.944	0.108786
606.679	-0.0211411
608.413	-0.244875
610.147	-0.193392
611.878	-0.163816
613.611	-0.178322
615.344	-0.672482
617.077	1.23981
618.807	-0.423225
620.539	-0.00436974
622.27	0.66258
623.999	0.709202
625.73	0.892611
627.461	-0.20019
629.189	-0.00920677
630.919	-0.291819
632.648	1.43871
634.376	0.365303
636.105	0.523529
637.833	-0.166988
639.559	0.231625
641.287	0.00666237
643.013	-0.543133
644.74	0.703468
646.467	0.674446
648.192	0.627337
649.918	0.110834
651.642	0.990072
653.368	0.74308
655.091	0.640896
656.816	1.70572
658.538	1.27106
660.263	0.925867
661.987	1.16991
663.708	1.637
665.432	0.383556
667.153	1.02245
668.875	1.63659
670.596	1.24601
672.318	1.24923
674.037	1.37333
675.759	1.22827
677.478	-0.0149364
679.196	-0.364408
680.917	0.133743
682.635	0.559376
684.355	-0.285866
686.072	-0.0775394
687.791	0.172989
689.508	0.0753517
691.224	-0.162355
692.942	-0.816267
694.658	1.13078
696.376	0.518608
698.091	-0.648731
699.805	0.0686054
701.522	-0.551628
703.236	0.4354
704.95	0.45463
706.665	-0.262007
708.379	0.787214
710.093	0.206821
711.806	-0.121668
713.518	-0.336037
715.23	-0.641981
716.943	0.193985
718.655	0.298714
720.366	0.81391
722.078	-0.516029
723.788	0.750313
725.498	0.536505
727.208	0.435879
728.919	1.06046
730.628	1.02526
732.337	0.0605297
734.045	0.997704
735.755	1.02888
737.463	0.40608
739.17	1.22995
740.877	0.071146
742.584	0.065876
744.292	0.69426
745.998	-0.452166
747.704	0.205393
749.409	-0.258696
751.114	0.8549
752.819	-0.524921
754.526	0.460436
756.23	0.482344
757.934	0.373066
759.637	1.0784
761.34	0.908361
763.043	0.468781
764.746	-0.0848866
766.448	1.00744
768.152	1.32789
769.853	0.851692
771.554	1.79483
773.255	0.812174
774.956	1.43374
776.656	1.15211
778.356	1.37114
780.056	0.870417
781.755	0.983171
783.454	1.11917
785.153	1.32051
786.851	0.587994
788.549	1.1153
790.247	0.932713
791.944	1.24068
793.641	1.02451
795.338	0.830441
797.034	0.278244
798.73	0.744385
800.426	0.809273
802.121	0.720228
803.817	0.857931
805.511	0.837881
807.206	1.33265
808.9	0.835835
810.592	0.583574
812.286	0.755329
813.979	0.499603
815.672	0.982409
817.364	-0.21336
819.057	0.559757
820.748	1.53296
822.44	0.742779
824.129	0.22336
825.82	0.777565
827.511	1.58149
829.201	1.74613
830.891	0.604605
832.581	1.36351
834.269	1.81657
835.958	1.53692
837.646	0.453161
839.335	0.794506
841.023	0.953499
842.709	0.572985
844.396	0.302691
846.084	0.994961
847.77	0.685904
849.455	1.36716
851.141	1.45134
852.827	1.09256
854.513	1.00491
856.196	0.871897
857.881	0.263765
859.566	0.528011
861.248	0.562922
862.932	0.0980911
864.616	0.395845
866.297	1.32267
867.98	-0.119352
869.663	0.850065
871.343	0.7363
873.026	0.306112
874.707	0.146376
876.387	0.618534
878.068	0.413774
879.747	0.727936
881.428	0.363993
883.108	0.269114
884.786	0.194094
886.465	-0.539015
888.143	0.551899
889.822	0.916094
891.498	0.577322
893.177	-0.192451
894.855	1.10607
896.53	0.780861
898.208	-0.310011
899.883	-0.0998554
901.56	0.197239
903.234	1.00684
904.91	0.27166
906.584	0.610353
908.26	-0.276453
909.933	0.444496
911.608	-0.702541
913.28	-0.334112
914.955	0.434175
916.627	0.824121
918.298	0.171507
919.972	-0.0590019
921.643	0.376032
923.315	-0.0930882
924.986	-0.181736
926.656	0.83849
928.328	0.670536
929.997	1.07987
931.668	0.829063
933.337	0.1159
935.006	-0.773029
936.676	0.677134
938.344	-0.605312
940.012	0.0342178
941.681	-1.17592
943.348	0.660496
945.014	0.246298
946.683	1.06518
948.349	1.19495
950.015	0.127693
951.682	0.160685
953.347	0.392197
955.012	1.22301
956.676	0.605827
958.343	0.967825
960.006	-0.317392
961.67	0.58675
963.333	-0.0993748
964.998	0.425735
966.661	0.169821
968.323	0.547878
969.985	0.167877
971.649	-0.83387
973.31	0.355232
974.971	0.663397
976.632	0.467936
978.293	1.073
979.953	1.1272
981.615	1.18048
983.274	0.654533
984.933	1.18579
986.592	1.75531
988.251	0.94759
989.909	1.24262
991.567	1.07129
993.225	2.3574
994.884	0.971167
996.541	2.01373
998.198	3.56217
999.855	4.35887
1001.51	3.43565
1003.17	2.90844
1004.82	3.54649
1006.48	2.62295
1008.13	3.17236
1009.79	2.42723
1011.44	1.28964
1013.1	2.96014
1014.75	2.54899
1016.4	1.92058
1018.06	0.484753
1019.71	0.911566
1021.36	0.947477
1023.01	1.20515
1024.66	1.31256
1026.32	1.77137
1027.97	1.79323
1029.62	1.92255
1031.27	2.35402
1032.92	1.53608
1034.57	2.24133
1036.22	2.004
1037.87	2.94084
1039.52	3.09217
1041.16	2.33165
1042.81	3.4672
1044.46	2.69492
1046.11	4.10123
1047.76	4.31853
1049.4	4.5846
1051.05	6.65761
1052.7	5.58409
1054.34	5.70655
1055.99	5.2423
1057.63	6.10302
1059.28	5.57093
1060.92	4.23204
1062.57	2.28168
1064.21	2.6769
1065.85	2.63403
1067.5	2.06622
1069.14	1.30023
1070.78	1.0975
1072.43	0.764269
1074.07	0.823193
1075.71	0.36446
1077.35	2.64233
1078.99	0.868399
1080.63	1.11363
1082.27	2.20464
1083.91	0.951307
1085.55	2.81515
1087.19	1.29132
1088.83	0.607424
1090.47	1.21745
1092.11	2.27674
1093.75	0.46015
1095.39	0.740229
1097.03	0.720358
1098.66	0.510664
1100.3	1.03824
1101.94	1.74316
1103.57	0.215702
1105.21	0.84376
1106.84	0.656216
1108.48	0.812004
1110.11	-0.196384
1111.75	0.747133
1113.38	0.525023
1115.02	-0.881353
1116.65	0.501265
1118.29	0.209997
1119.92	0.585203
1121.55	1.15565
1123.19	0.915415
1124.82	0.935146
1126.45	1.04305
1128.08	1.04633
1129.71	0.64555
1131.34	1.14454
1132.97	0.319
1134.6	-0.250227
1136.23	-0.521852
1137.86	0.272007
1139.49	-0.561466
1141.12	-0.244322
1142.75	0.711096
1144.38	0.00229836
1146.01	0.511278
1147.64	0.532587
1149.26	1.25959
1150.89	-0.291344
1152.52	0.437132
1154.15	0.248789
1155.77	1.40018
1157.4	-0.00269508
1159.02	0.787058
1160.65	0.409401
1162.27	0.205309
1163.9	-0.420933
1165.52	0.676624
1167.15	0.391523
1168.77	0.315956
1170.39	0.384197
1172.02	-0.976812
1173.64	0.185013
1175.26	-0.29217
1176.89	-0.219124
1178.51	1.10411
1180.13	-0.133799
1181.75	0.346085
1183.37	1.37714
1184.99	0.125191
1186.61	0.223518
1188.23	0.380161
1189.85	1.60553
1191.47	1.11686
1193.09	0.183052
1194.71	1.3488
1196.33	1.12746
1197.94	0.930389
1199.56	0.71817
1201.18	0.659798
1202.8	1.79981
1204.41	2.23717
1206.03	1.72137
1207.65	1.982
1209.26	1.32578
1210.88	1.58503
1212.49	1.35939
1214.11	1.73137
1215.72	1.40864
1217.34	1.89202
1218.95	1.51904
1220.57	2.72404
1222.18	2.93324
1223.79	2.04784
1225.41	1.64488
1227.02	2.88198
1228.63	2.69519
1230.24	3.31901
1231.85	3.28493
1233.47	2.2421
1235.08	3.76619
1236.69	3.26878
1238.3	2.87799
1239.91	4.51576
1241.52	3.90055
1243.13	3.84262
1244.74	3.61665
1246.34	3.24249
1247.95	2.43047
1249.56	3.68515
1251.17	2.7042
1252.78	3.11004
1254.38	2.23569
1255.99	3.49524
1257.6	2.33863
1259.2	3.15107
1260.81	2.97335
1262.42	3.14915
1264.02	2.53806
1265.63	3.14795
1267.23	2.57439
1268.84	3.07569
1270.44	1.97728
1272.04	2.20248
1273.65	2.48661
1275.25	3.14062
1276.85	2.29929
1278.46	2.55378
1280.06	2.5369
1281.66	2.95369
1283.26	2.72904
1284.86	2.36151
1286.46	3.96098
1288.07	2.77277
1289.67	2.5799
1291.27	3.19467
1292.87	3.33389
1294.47	3.59474
1296.06	3.45898
1297.66	3.77226
1299.26	3.44017
1300.86	4.52613
1302.46	4.2878
1304.06	4.02607
1305.65	4.25587
1307.25	3.51813
1308.85	3.8478
1310.44	4.44308
1312.04	3.87138
1313.64	4.48952
1315.23	3.98588
1316.83	4.67051
1318.42	4.19307
1320.02	4.53156
1321.61	2.87029
1323.2	4.87019
1324.8	4.80692
1326.39	4.57663
1327.99	4.62867
1329.58	4.64179
1331.17	5.22632
1332.76	4.42302
1334.36	3.992
1335.95	4.23301
1337.54	5.14128
1339.13	3.93004
1340.72	4.91049
1342.31	4.07096
1343.9	5.11601
1345.49	5.47202
1347.08	4.06272
1348.67	4.0042
1350.26	3.75377
1351.85	3.89228
1353.43	3.1579
1355.02	3.42782
1356.61	2.6199
1358.2	3.12956
1359.78	4.2948
1361.37	3.16008
1362.96	4.33767
1364.54	3.43928
1366.13	4.09679
1367.71	3.08342
1369.3	3.6276
1370.88	3.53933
1372.47	3.11745
1374.05	2.36117
1375.64	2.98012
1377.22	2.72398
1378.8	4.19746
1380.39	3.18032
1381.97	2.79575
1383.55	2.92413
1385.13	2.71117
1386.72	2.91403
1388.3	3.77243
1389.88	2.78624
1391.46	2.75622
1393.04	2.13374
1394.62	2.04837
1396.2	1.76425
1397.78	3.36126
1399.36	2.12027
1400.94	2.99639
1402.52	3.11741
1404.1	3.23811
1405.68	3.49879
1407.25	3.54468
1408.83	2.96118
1410.41	2.9329
1411.98	3.20079
1413.56	3.90086
1415.14	3.33451
1416.71	3.33772
1418.29	2.68911
1419.87	3.46051
1421.44	3.26984
1423.02	3.39949
1424.59	4.12511
1426.16	4.00872
1427.74	4.26826
1429.31	4.46797
1430.89	4.03481
1432.46	4.91629
1434.03	5.30214
1435.6	5.54846
1437.18	6.34575
1438.75	5.33683
1440.32	6.33645
1441.89	6.57292
1443.46	7.02815
1445.03	7.17042
1446.6	6.50751
1448.17	6.61167
1449.74	5.69458
1451.31	7.11872
1452.88	7.444
1454.45	5.98081
1456.02	5.00876
1457.59	6.76967
1459.16	6.28296
1460.72	5.79015
1462.29	6.41233
1463.86	5.94656
1465.43	4.96622
1466.99	5.18385
1468.56	4.59743
1470.13	5.30983
1471.69	3.55381
1473.26	3.31263
1474.82	3.48603
1476.38	4.05299
1477.95	2.85581
1479.51	3.44253
1481.08	3.24478
1482.64	3.7523
1484.2	4.0437
1485.77	2.6099
1487.33	2.32979
1488.89	3.43557
1490.46	3.06655
1492.02	2.86661
1493.58	1.54624
1495.14	2.11522
1496.7	2.67902
1498.26	1.60585
1499.82	2.2669
1501.38	3.06576
1502.94	2.74219
1504.5	1.66665
1506.06	3.28483
1507.62	2.15171
1509.18	2.15727
1510.73	2.13967
1512.29	1.77215
1513.85	1.71223
1515.41	1.749
1516.96	2.09485
1518.52	1.50275
1520.08	1.4696
1521.63	2.41311
1523.19	2.07291
1524.75	1.31083
1526.3	1.78672
1527.85	1.72506
1529.41	1.98484
1530.96	2.94631
1532.52	2.23809
1534.07	1.49688
1535.62	2.19844
1537.18	1.16331
1538.73	1.66161
1540.28	1.19847
1541.84	1.60321
1543.39	2.21388
1544.94	1.54413
1546.49	1.75781
1548.04	1.68904
1549.59	2.44497
1551.14	2.60077
1552.69	3.1508
1554.25	2.97403
1555.79	2.67153
1557.34	2.78601
1558.89	1.82479
1560.44	2.82925
1561.99	3.298
1563.54	2.20358
1565.08	2.67828
1566.63	2.18313
1568.18	3.6095
1569.73	1.37642
1571.27	3.04313
1572.82	2.59961
1574.37	3.85433
1575.91	2.66369
1577.46	2.29509
1579	3.42136
1580.55	3.01887
1582.09	2.41343
1583.64	2.44567
1585.18	3.69516
1586.73	3.3769
1588.27	3.95673
1589.81	2.98331
1591.35	3.26185
1592.9	3.20196
1594.44	2.59786
1595.98	3.99825
1597.52	3.58293
1599.06	4.12579
1600.61	4.16512
1602.15	4.48767
1603.69	4.64158
1605.23	3.72255
1606.77	4.54602
1608.31	3.18288
1609.85	4.04851
1611.39	4.39855
1612.93	3.10757
1614.46	3.16487
1616	3.42683
1617.54	3.12757
1619.08	3.90038
1620.61	3.19813
1622.15	3.28738
1623.69	3.36078
1625.23	2.47973
1626.76	3.33706
1628.3	3.70321
1629.83	3.3537
1631.37	3.22522
1632.9	4.12274
1634.44	3.02274
1635.97	4.27747
1637.51	3.76251
1639.04	3.49253
1640.57	3.22296
1642.11	4.16255
1643.64	4.18518
1645.17	3.88726
1646.71	4.23742
1648.24	4.64166
1649.77	3.43107
1651.3	4.86041
1652.83	4.8087
1654.36	6.2443
1655.89	4.45623
1657.42	3.96621
1658.96	4.71495
1660.48	4.68108
1662.01	5.01217
1663.54	4.48834
1665.07	3.66777
1666.6	4.78745
1668.13	4.63662
1669.66	4.36213
1671.19	3.54034
1672.71	5.19121
1674.24	4.11749
1675.77	2.50973
1677.29	2.79602
1678.82	2.60021
1680.35	3.30197
1681.87	2.9897
1683.4	1.77684
1684.92	1.99712
1686.45	2.97013
1687.97	1.83572
1689.5	2.15111
1691.02	2.0825
1692.54	1.95938
1694.07	1.96421
1695.59	1.45661
1697.11	1.97193
1698.64	0.568104
1700.16	1.33632
1701.68	0.55162
1703.2	1.60682
1704.72	0.892166
1706.25	0.577436
1707.77	0.680384
1709.29	1.43677
1710.81	0.849113
1712.33	0.770782
1713.85	0.348862
1715.37	0.778738
1716.89	0.285215
1718.41	1.07524
1719.92	0.0940418
1721.44	0.829098
1722.96	0.356836
1724.48	0.465086
1725.99	1.51387
1727.51	-0.00782776
1729.03	1.15609
1730.55	0.254971
1732.06	1.10577
1733.58	1.14619
1735.09	-0.00649452
1736.61	-0.41888
1738.13	0.171392
1739.64	0.749508
1741.15	0.0882435
1742.67	0.314194
1744.18	0.863689
1745.7	1.09113
1747.21	1.07184
1748.72	0.274265
1750.24	0.072607
1751.75	0.687004
1753.26	0.483055
1754.77	-0.21895
1756.29	0.967091
1757.8	0.162312
1759.31	-0.0199718
1760.82	-0.134558
1762.33	-0.497374
1763.84	0.845407
1765.35	-0.65748
1766.86	0.732241
1768.37	-0.0851955
1769.88	-0.206163
1771.39	-0.0764904
1772.9	-0.426922
1774.4	0.292822
1775.91	0.370356
1777.42	-0.263908
1778.93	-0.265326
1780.44	-0.137156
1781.94	0.250139
1783.45	0.0926533
1784.96	0.0911007
1786.46	0.154913
1787.97	-0.0818214
1789.47	-0.293512
1790.98	0.220602
1792.48	0.321938
1793.99	0.13789
1795.49	-0.513498
1797	-0.228828
1798.5	-0.0709476
1800.01	0.163286
1801.51	0.642761
1803.01	-0.550713
1804.51	-0.0364113
1806.02	0.400875
1807.52	0.309439
1809.02	0.330832
1810.52	0.00885391
1812.02	-0.0559158
1813.52	0.110493
1815.02	0.144924
1816.53	0.0754395
1818.03	-0.0518646
1819.52	0.0307789
1821.02	0.244778
1822.52	0.275574
1824.02	-0.256388
1825.52	0.508673
1827.02	0.0644188
1828.52	0.570198
1830.02	0.318195
1831.51	-0.454004
1833.01	0.2288
1834.51	0.31049
1836.01	0.306755
1837.5	-0.102892
1839	-0.424755
1840.49	0.155651
1841.99	0.575092
1843.49	0.323326
1844.98	0.33086
1846.48	0.718847
1847.97	-0.263657
1849.47	-0.292347
1850.96	-0.0899887
1852.45	-0.127764
1853.95	0.0794296
1855.44	0.427523
1856.93	0.396603
1858.42	0.448729
1859.92	-0.265324
1861.41	0.0367432
1862.9	0.413027
1864.39	0.855726
1865.88	0.643517
1867.38	-0.160881
1868.87	-0.0142574
1870.36	0.0618172
1871.85	0.562971
1873.34	0.396551
1874.83	-0.197176
1876.32	0.412363
1877.81	0.220554
1879.29	0.0884914
1880.78	-0.219402
1882.27	0.192085
1882.53	0.294737
1884.03	-0.0952606
1885.52	0.157141
1887.01	0.754709
1888.51	0.166208
1890	0.414165
1891.5	0.421854
1892.99	0.243839
1894.48	0.54158
1895.97	0.0448723
1897.47	0.43786
1898.96	0.517538
1900.45	-0.154305
1901.94	0.977528
1903.43	0.155035
1904.92	0.0409393
1906.41	0.306524
1907.9	0.398121
1909.39	-0.271971
1910.88	0.53652
1912.37	0.549717
1913.86	0.582247
1915.35	0.788513
1916.84	0.646839
1918.33	0.451408
1919.81	0.549133
1921.3	0.940968
1922.79	0.208506
1924.28	0.552814
1925.76	0.485531
1927.25	0.750898
1928.73	1.1398
1930.22	0.593594
1931.71	-0.336418
1933.19	0.910519
1934.68	0.281321
1936.16	0.0967522
1937.65	-0.610329
1939.13	-0.212177
1940.62	-0.348801
1942.1	0.190693
1943.58	0.284769
1945.07	-0.239012
1946.55	0.255938
1948.03	-0.318651
1949.51	-0.550764
1951	0.178221
1952.48	0.507496
1953.96	-0.64439
1955.44	-0.07658
1956.92	0.543329
1958.4	0.701498
1959.88	-0.390167
1961.36	-0.81024
1962.84	-0.543671
1964.32	0.253201
1965.8	0.311317
1967.28	-0.488712
1968.76	-0.246605
1970.24	0.762384
1971.72	0.761328
1973.2	0.435833
1974.67	0.418161
1976.15	0.128452
1977.63	0.827642
1979.1	0.300774
1980.58	0.539968
1982.06	-0.683577
1983.54	0.284822
1985.01	-0.225973
1986.49	0.365582
1987.96	0.278313
1989.44	0.293924
1990.91	-0.398912
1992.39	0.840382
1993.86	-0.115742
1995.33	-0.0881176
1996.81	0.549164
1998.28	0.0375423
1999.75	0.0819454
2001.23	0.664267
2002.7	0.164923
2004.17	0.761389
2005.65	-0.00636482
2007.12	-0.619297
2008.59	0.371014
2010.06	0.522087
2011.53	0.186802
2013	0.121105
2014.47	0.18865
2015.94	-0.0660934
2017.41	0.349003
2018.88	0.391136
2020.35	-0.0558643
2021.82	0.202456
2023.29	-0.176159
2024.76	-0.23296
2026.23	-0.0844269
2027.69	0.655958
2029.16	0.227388
2030.63	-0.515478
2032.1	0.79188
2033.56	-0.0134373
2035.03	0.356218
2036.5	0.674423
2037.96	-0.11799
2039.43	0.314825
2040.89	0.10886
2042.36	0.240425
2043.83	0.694212
2045.29	0.394283
2046.75	0.534386
2048.22	-0.33498
2049.68	1.47345
2051.15	0.767746
2052.61	1.30428
2054.07	0.97447
2055.54	0.503782
2057	0.888363
2058.46	0.140957
2059.92	0.336901
2061.39	0.567799
2062.85	0.279562
2064.31	-0.207056
2065.77	0.0502834
2067.23	0.327305
2068.69	0.337095
2070.15	0.937151
2071.61	0.375948
2073.07	0.0667114
2074.53	0.0764999
2075.99	1.02824
2077.45	0.345301
2078.91	-0.170549
2080.37	-0.536283
2081.82	-0.129267
2083.28	0.208096
2084.74	0.0716515
2086.2	0.151543
2087.65	0.296591
2089.11	-0.484179
2090.57	0.650061
2092.02	0.674864
2093.48	0.531565
2094.94	0.0186443
2096.39	0.0242672
2097.85	0.379423
2099.3	0.263395
2100.76	0.464247
2102.21	1.08331
2103.66	0.284973
2105.12	-0.257723
2106.57	0.00543976
2108.03	-0.211742
2109.48	0.239302
2110.93	0.438307
2112.38	-0.316975
2113.84	0.754791
2115.29	0.105867
2116.74	0.80168
2118.19	0.965845
2119.64	-0.0109673
2121.09	-0.43281
2122.54	0.395809
2123.99	0.0515442
2125.45	0.837013
2126.89	0.212234
2128.34	-0.481897
2129.79	0.725567
2131.24	0.635897
2132.69	1.30514
2134.14	0.63357
2135.59	0.659803
2137.04	0.228079
2138.48	0.331409
2139.93	0.0442295
2141.38	0.44001
2142.83	0.443003
2144.27	0.679741
2145.72	0.238573
2147.17	-0.0714436
2148.61	0.361654
2150.06	0.510599
2151.5	0.159359
2152.95	-0.161924
2154.39	0.475212
2155.84	0.414991
2157.28	-0.274408
2158.73	0.181482
2160.17	0.906693
2161.61	0.461296
2163.06	0.684612
2164.5	0.382177
2165.94	0.613308
2167.38	0.77803
2168.83	1.07264
2170.27	0.646673
2171.71	0.479879
2173.15	0.55648
2174.59	0.512289
2176.03	0.399775
2177.47	0.869915
2178.91	0.178591
2180.36	0.354956
2181.8	0.500866
2183.23	-0.415623
2184.67	1.18003
2186.11	0.697037
2187.55	0.446894
2188.99	0.41317
2190.43	0.0131989
2191.87	0.261555
2193.3	-0.2083
2194.74	0.932724
2196.18	0.835854
2197.62	0.43322
2199.05	-0.124062
2200.49	1.2269
2201.93	0.400496
2203.36	-0.0907898
2204.8	0.831404
2206.23	-0.0339298
2207.67	0.0971775
2209.1	0.509134
2210.54	0.0575848
2211.97	-0.0327053
2213.41	-0.0260487
2214.84	1.13643
2216.27	0.0544472
2217.71	0.379667
2219.14	-0.0829849
2220.57	0.182816
2222.01	0.0203819
2223.44	0.135902
2224.87	0.345724
2226.3	0.697882
2227.73	-0.0902596
2229.16	1.36899
2230.6	1.13285
2232.03	0.519657
2233.46	-0.287653
2234.89	0.397156
2236.32	0.169619
2237.75	1.43316
2239.18	0.498772
2240.61	0.240477
2242.03	0.75469
2243.46	0.506378
2244.89	0.53651
2246.32	0.0751991
2247.75	0.880953
2249.17	0.619551
2250.6	0.269716
2252.03	0.761154
2253.46	1.13512
2254.88	0.437132
2256.31	-0.319893
2257.73	0.0836029
2259.16	0.139105
2260.59	0.366297
2262.01	0.147045
2263.44	-0.0509987
2264.86	0.72674
2266.29	0.203377
2267.71	0.0836201
2269.14	0.676882
2270.56	0.4214
2271.98	0.766617
2273.4	1.04627
2274.83	-0.40036
2276.25	0.548166
2277.67	-0.441708
2279.09	0.410305
2280.52	1.0017
2281.94	1.20151
2283.36	0.552765
2284.78	0.654516
2286.2	0.642788
2287.62	0.0281372
2289.04	0.182219
2290.46	-0.070797
2291.88	0.853888
2293.3	0.487783
2294.72	0.90666
2296.14	-0.393082
2297.56	0.647612
2298.98	-0.358459
2300.4	0.68396
2301.82	-0.40345
2303.23	-0.17853
2304.65	1.11409
2306.07	-0.400574
2307.49	0.727589
2308.9	-0.380608
2310.32	0.333769
2311.73	0.142624
2313.15	-0.427179
2314.57	-0.222466
2315.98	0.643433
2317.4	0.804268
2318.81	-0.549841
2320.23	-0.520723
2321.64	0.478493
2323.06	0.0198555
2324.47	0.741919
2325.88	1.42332
2327.3	0.301163
2328.71	0.562115
2330.12	-0.0330868
2331.54	-0.542517
2332.95	0.350922
2334.36	-0.579773
2335.77	-0.620914
2337.18	-0.153616
2338.6	0.474693
2340.01	0.556471
2341.42	-0.120325
2342.83	0.416527
2344.24	0.263788
2345.65	-0.182844
2347.06	-0.23489
2348.47	0.515326
2349.88	0.249134
2351.29	-0.1663
2352.7	-0.290218
2354.1	0.301043
2355.51	0.106524
2356.92	-0.316607
2358.33	0.399616
2359.74	-0.168795
2361.14	0.221891
2362.55	0.336109
2363.96	-0.0361233
2365.36	-0.666538
2366.77	0.547346
2368.18	-0.257397
2369.58	-0.170134
2370.99	0.662724
2372.39	0.113401
2373.8	0.1154
2375.2	0.199121
2376.61	0.168961
2378.01	-0.0736694
2379.42	0.145073
2380.82	0.29389
2382.22	0.453859
2383.63	0.162155
2385.03	0.270281
2386.43	-0.027914
2387.84	-0.322548
2389.24	-0.158403
2390.64	-0.0223675
2392.04	-0.153419
2393.44	0.196243
2394.84	0.150652
2396.25	-0.194687
2397.65	0.336348
2399.05	0.63063
2400.45	0.418056
2401.85	-0.158731
2403.25	-0.0364361
2404.65	0.227554
2406.05	-0.257401
2407.45	0.254702
2408.84	-0.124304
2410.24	0.526356
2411.64	-0.0269947
2413.04	0.119562
2414.44	0.159271
2415.83	-0.239603
2417.23	0.948917
2418.63	0.43058
2420.02	-0.118422
2421.42	0.203196
2422.82	-0.157419
2424.21	-0.107067
2425.61	0.0861225
2427	-0.305397
2428.4	-0.218801
2429.8	0.917612
2431.19	-0.180044
2432.58	-0.103537
2433.98	0.447897
2435.37	0.932533
2436.77	0.729342
2438.16	0.1399
2439.55	0.642534
2440.95	0.316219
2442.34	0.305874
2443.73	-0.41942
2445.12	0.298702
2446.51	0.0169029
2447.91	0.844236
2449.3	0.609505
2450.69	0.10655
2452.08	0.0330276
2453.47	0.325956
2454.86	-0.12208
2456.25	0.444599
2457.64	-0.284855
2459.03	0.17156
2460.42	-0.0381336
2461.81	0.824829
2463.2	0.199039
2464.59	-0.0805607
2465.98	0.0339355
2467.36	-0.372873
2468.75	0.293436
2470.14	0.974264
2471.53	0.722963
2472.92	0.453999
2474.3	0.135721
2475.69	0.633821
2477.08	0.139769
2478.46	0.0389767
2479.85	-0.0768147
2481.23	-0.0821285
2482.62	-0.0406284
2484	0.578545
2485.39	-0.119894
2486.77	0.179398
2488.16	0.412157
2489.54	-0.074873
2490.93	0.201532
2492.31	0.0591908
2493.69	0.339788
2495.08	-0.4618
2496.46	-0.111116
2497.84	-0.39333
2499.23	-0.550488
2500.61	-0.399105
2501.99	0.0896626
2503.37	0.35837
2504.75	-0.332602
2506.13	0.362696
2507.52	0.0553017
2508.9	-0.496973
2510.28	0.427563
2511.66	0.0941963
2513.04	0.33106
2514.42	-0.762268
2515.8	0.459854
2517.18	0.39794
2518.55	0.016758
2519.93	0.752022
2521.31	0.279135
2522.69	0.0489578
2524.07	0.579094
2525.45	0.32893
2526.82	0.535172
2528.2	-0.185783
2529.58	1.05922
2530.95	0.49929
2532.33	0.142616
2533.71	-0.0577412
2535.08	-0.483747
2536.46	-0.0287285
2537.84	0.105185
2539.21	-0.553652
2540.59	-0.0911293
2541.96	0.461031
2543.34	0.346102
2544.71	-0.236341
2546.08	0.398567
2547.46	-0.373404
2548.83	0.510736
2550.2	0.378687
2551.58	0.533466
2552.95	0.184582
2554.32	0.196699
2555.7	0.43362
2557.07	0.441179
2558.44	0.417992
2559.81	0.259226
2561.18	-0.0190716
2562.55	-0.0831566
2563.93	0.203102
2565.3	-0.388271
2566.67	0.612322
2568.04	-0.129585
2569.41	0.234861
2570.78	0.720577
2572.15	0.0999756
2573.51	0.510324
2574.88	0.420765
2576.25	-0.00227737
2577.62	0.211205
2578.99	0.257214
2580.36	-0.0465946
2581.73	0.512596
2583.09	0.918966
2584.46	-0.43404
2585.83	0.941559
2587.19	-0.213926
2588.56	0.162079
2589.93	0.386801
2591.29	-0.298098
2592.66	-0.0600052
2594.02	0.508799
2595.39	0.771259
2596.75	0.0918312
2598.12	0.605762
2599.48	0.619015
2600.85	0.647694
2602.21	-0.228226
2603.58	-0.08988
2604.94	0.91016
2606.3	0.00945282
2607.67	0.420259
2609.03	0.0745506
2610.39	1.05098
2611.76	0.471703
2613.12	0.987473
2614.48	0.298143
2615.84	0.554758
2617.2	0.181984
2618.56	-0.547628
2619.92	1.07565
2621.28	0.126862
2622.65	0.212051
2624.01	0.626345
2625.37	0.681793
2626.72	-0.20307
2628.08	0.342833
2629.44	0.946545
2630.8	0.447704
2632.16	0.187181
2633.52	0.966711
2634.88	0.349752
2636.24	0.297237
2637.59	0.437407
2638.95	0.518288
2640.31	0.555136
2641.67	0.917969
2643.02	0.291367
2644.38	-0.0533428
2645.74	0.988918
2647.09	0.392118
2648.45	0.368586
2649.8	0.37204
2651.16	0.329294
2652.51	0.682201
2653.87	0.800352
2655.22	1.16977
2656.58	0.868305
2657.93	0.424498
2659.29	0.510576
2660.64	-0.17712
2661.99	-0.192318
2663.35	0.433388
2664.7	0.0633087
2666.05	0.318644
2667.41	0.542984
2668.76	0.737558
2670.11	0.612564
2671.46	0.518457
2672.81	0.150347
2674.16	0.815611
2675.51	0.843302
2676.87	-0.389505
2678.22	0.657606
2679.57	-0.178328
2680.92	0.0185051
2682.27	0.610331
2683.62	0.553345
2684.97	0.252634
2686.31	0.765697
2687.66	0.625431
2689.01	-0.142752
2690.36	0.593754
2691.71	0.366608
2693.06	0.613794
2694.4	-0.142723
2695.75	0.39085
2697.1	0.476681
2698.45	0.826992
2699.79	0.907177
2701.14	0.500345
2702.49	0.735189
2703.83	0.567642
2705.18	0.734962
2706.52	0.583487
2707.87	0.924402
2709.21	1.23536
2710.56	1.37109
2711.9	0.765179
2713.25	0.463615
2714.59	0.481424
2715.94	0.775312
2717.28	1.0253
2718.62	0.896368
2719.97	0.751709
2721.31	0.707489
2722.65	1.21485
2723.99	0.862047
2725.34	0.478786
2726.68	0.894922
2728.02	0.465908
2729.36	0.516474
2730.7	1.23591
2732.04	1.34401
2733.39	0.521351
2734.73	0.673918
2736.07	0.827065
2737.41	0.675171
2738.75	0.784996
2740.08	0.792255
2741.43	0.536354
2742.76	0.511202
2744.1	0.527569
2745.44	0.585648
2746.78	0.497175
2748.12	0.596909
2749.46	0.377493
2750.79	0.260357
2752.13	0.463011
2753.47	0.695189
2754.81	0.406164
2756.14	0.161169
2757.48	0.539406
2758.81	0.136507
2760.15	0.762508
2761.49	0.203133
2762.82	-0.282372
2764.16	0.940434
2765.49	0.629433
2766.83	-0.232637
2768.16	0.609632
2769.5	0.363176
2770.83	0.936329
2772.16	0.479347
2773.5	0.0199814
2774.83	-0.526707
2776.17	0.310192
2777.5	0.124933
2778.83	0.401764
2780.16	0.0330677
2781.5	-0.24802
2782.83	0.0886211
2784.16	0.582409
2785.49	0.0149078
2786.82	0.537226
2788.15	-0.256531
2789.49	-0.675192
2790.82	-0.0611897
2792.15	0.211515
2793.48	0.556911
2794.81	-0.226791
2796.14	-0.339539
2797.46	0.1604
2798.79	0.144335
2800.12	-0.0585136
2801.45	0.651007
2802.78	-0.0950546
2804.11	0.355927
2805.44	0.947538
2806.76	-0.299471
2808.09	0.458822
2809.42	-0.178009
2810.75	0.350693
2812.07	-0.070385
2813.4	-0.118895
2814.73	-0.489262
2816.05	0.392052
2817.38	-0.211815
2818.7	-0.0344181
2820.03	0.724113
2821.36	-0.00686455
2822.68	0.124796
2824.01	-0.269611
2825.33	1.0774
2826.65	0.512142
2827.98	0.387556
2829.3	1.69447
2830.63	0.426224
2831.95	0.61672
2833.27	1.0052
2834.6	1.20869
2835.92	1.1135
2837.24	1.85157
2838.56	2.23436
2839.88	2.54562
2841.21	3.45084
2842.53	3.05652
2843.85	3.54057
2845.17	3.54626
2846.49	4.4018
2847.81	4.76386
2849.13	3.62783
2850.45	4.89364
2851.77	4.19333
2853.09	4.93308
2854.41	4.54103
2855.73	5.54727
2857.05	5.14052
2858.37	6.51373
2859.69	6.41777
2861	5.96831
2862.32	7.74854
2863.64	6.83107
2864.96	7.69111
2866.28	8.64937
2867.59	8.84643
2868.91	8.76283
2870.23	8.90618
2871.54	9.65611
2872.86	9.95395
2874.17	10.2211
2875.49	9.42822
2876.81	10.1249
2878.12	10.3257
2879.44	9.13318
2880.75	10.1638
2882.07	9.48194
2883.38	9.71686
2884.69	10.039
2886.01	9.18362
2887.32	9.98501
2888.63	9.6481
2889.95	9.54742
2891.26	10.594
2892.57	10.2362
2893.89	10.6067
2895.2	11.5101
2896.51	10.9178
2897.82	10.8609
2899.13	10.1777
2900.44	11.078
2901.76	11.3082
2903.07	10.8396
2904.38	11.7703
2905.69	12.1283
2907	12.4601
2908.31	13.1723
2909.62	12.6142
2910.93	13.2331
2912.24	12.9145
2913.55	13.8254
2914.85	14.2
2916.16	14.0513
2917.47	15.2272
2918.78	16.0774
2920.09	15.556
2921.4	16.9526
2922.7	16.144
2924.01	15.8013
2925.32	16.5945
2926.62	17.0823
2927.93	16.7175
2929.24	17.6657
2930.54	17.6474
2931.85	17.7814
2933.15	17.4393
2934.46	16.4542
2935.76	17.5521
2937.07	16.4285
2938.37	16.8427
2939.68	16.2377
2940.98	15.5086
2942.29	15.397
2943.59	14.4505
2944.89	13.5498
2946.2	13.589
2947.5	13.7421
2948.8	13.0548
2950.11	11.5936
2951.41	12.5351
2952.71	11.7768
2954.01	12.0506
2955.32	10.9514
2956.62	10.9889
2957.92	11.0043
2959.22	10.4115
2960.52	11.2132
2961.82	10.2136
2963.12	10.1969
2964.42	9.82755
2965.72	9.9313
2967.02	8.83577
2968.32	9.47897
2969.62	9.50162
2970.92	9.2286
2972.22	8.886
2973.51	7.74212
2974.81	8.66688
2976.11	8.23865
2977.41	7.84886
2978.71	7.38378
2980	7.33618
2981.3	6.63758
2982.6	6.1349
2983.9	6.44905
2985.19	5.96506
2986.49	5.86505
2987.78	5.5023
2989.08	5.56403
2990.38	5.06445
2991.67	4.40889
2992.97	3.97535
2994.26	4.39553
2995.56	3.95553
2996.85	3.93504
2998.14	3.0159
2999.44	2.81367
3000.73	3.24412
3002.03	2.47054
3003.32	1.90885
3004.61	2.37047
3005.91	2.38302
3007.2	1.81997
3008.49	1.63298
3009.78	1.66753
3011.07	1.30881
3012.37	1.88494
3013.66	1.02336
3014.95	0.303701
3016.24	0.993996
3017.53	0.599634
3018.82	1.0699
3020.11	0.775089
3021.4	0.0764217
3022.69	0.584839
3023.98	0.0491199
3025.27	0.330387
3026.56	0.0150623
3027.85	0.559608
3029.14	-0.0135231
3030.43	0.330206
3031.71	-0.15094
3033	0.254776
3034.29	0.178156
3035.58	-0.327364
3036.87	0.253441
3038.15	0.291483
3039.44	-0.170948
3040.73	-0.526407
3042.01	-0.443998
3043.3	-0.361828
3044.59	0.749107
3045.87	0.0299397
3047.16	0.356409
3048.44	0.265678
3049.73	-0.14662
3051.01	-0.02215
3052.3	0.636751
3053.58	-0.0550289
3054.87	0.34317
3056.15	0.479357
3057.43	0.571739
3058.72	0.83913
3060	1.01028
3061.29	1.25042
3062.57	0.609097
3063.85	0.71998
3065.13	0.712809
3066.42	0.600851
3067.7	0.709318
3068.98	0.859804
3070.26	0.207294
3071.54	-0.325001
3072.82	0.526854
3074.11	0.165245
3075.39	-0.225584
3076.67	-0.141413
3077.95	0.0525074
3079.23	0.425673
3080.51	0.178818
3081.79	-0.307768
3083.07	-0.343323
3084.35	-0.349768
3085.63	0.349844
3086.9	0.49214
3088.18	0.334108
3089.46	0.201551
3090.74	0.366533
3092.02	0.151382
3093.29	0.506592
3094.57	0.293091
3095.85	-0.407511
3097.13	-0.0364914
3098.4	0.863007
3099.68	0.650829
3100.95	0.194901
3102.23	0.511509
3103.51	0.5175
3104.78	0.21376
3106.06	0.169426
3107.33	0.790815
3108.61	0.657339
3109.88	0.526888
3111.16	0.575211
3112.43	0.910259
3113.71	1.28757
3114.98	1.09597
3116.25	0.496355
3117.53	1.03371
3118.8	1.2022
3120.07	0.649216
3121.35	0.826378
3122.62	0.582003
3123.89	1.2587
3125.16	0.865898
3126.44	0.501892
3127.71	0.897589
3128.98	0.848341
3130.25	0.962585
3131.52	1.45572
3132.79	0.975628
3134.06	1.37313
3135.33	1.43169
3136.6	1.38096
3137.87	1.55849
3139.14	1.2501
3140.41	2.32842
3141.68	2.02019
3142.95	2.13017
3144.22	1.61061
3145.49	1.81815
3146.76	1.51817
3148.02	1.502
3149.29	1.74203
