200.398	0.861452
202.213	0.913973
204.027	0.968065
205.843	-0.0218563
207.657	-0.0624409
209.47	0.794956
211.283	0.288965
213.097	1.01868
214.909	-0.0500641
216.721	0.480986
218.533	0.720455
220.344	-1.29032
222.157	0.0652485
223.967	0.308727
225.777	-0.123739
227.587	-0.676678
229.396	1.25702
231.205	0.556862
233.016	0.893864
234.824	0.700447
236.632	0.871016
238.439	0.94908
240.247	1.77928
242.053	1.16771
243.86	1.71623
245.666	1.541
247.474	3.36624
249.279	3.15785
251.085	3.6666
252.889	2.91354
254.694	3.09775
256.498	3.7386
258.301	3.56105
260.105	3.2667
261.908	2.66345
263.71	2.71419
265.513	2.35757
267.315	2.79675
269.116	2.03002
270.918	1.96028
272.718	2.10489
274.519	2.80085
276.319	1.56446
278.119	1.31265
279.918	1.34575
281.718	2.52967
283.516	1.42289
285.315	1.94863
287.113	1.00733
288.911	0.978807
290.708	0.496468
292.505	1.88434
294.302	0.61817
296.098	1.05375
297.894	0.989145
299.69	1.78561
301.485	0.670301
303.278	0.819321
305.073	0.6315
306.867	1.0619
308.661	0.609104
310.454	0.419731
312.247	0.947174
314.04	0.501162
315.833	-0.250795
317.623	1.19139
319.415	0.493267
321.206	0.487965
322.997	1.0564
324.788	0.194578
326.579	0.167429
328.367	0.187372
330.156	1.06656
331.946	0.796135
333.735	1.40717
335.523	1.5354
337.31	1.22798
339.098	0.0788727
340.885	1.41431
342.673	0.308525
344.458	0.254673
346.244	-0.705971
348.03	-0.733612
349.816	0.457069
351.6	0.215092
353.385	0.234533
355.17	0.275642
356.953	0.552402
358.737	0.0873604
360.521	0.977879
362.304	0.223106
364.085	0.418943
365.868	0.850451
367.65	0.448717
369.431	1.16034
371.212	0.139439
372.994	0.160273
374.773	0.841862
376.554	1.0025
378.332	0.432684
380.112	0.949327
381.892	0.831739
383.669	0.999067
385.448	1.30976
387.225	1.03511
389.003	1.09174
390.781	1.33816
392.557	2.61942
394.334	2.58673
396.109	2.60177
397.885	2.12378
399.66	2.46733
401.436	3.20922
403.211	2.46992
404.984	2.80931
406.759	3.14689
408.532	2.70813
410.306	3.04332
412.078	2.62734
413.851	3.19787
415.623	2.62008
417.395	3.42841
419.166	4.14441
420.938	4.32139
422.708	2.19738
424.477	2.41896
426.248	2.3568
428.017	2.38663
429.788	1.94585
431.556	2.42033
433.326	0.87697
435.093	1.65778
436.86	1.07726
438.629	0.495331
440.395	0.661482
442.163	0.471605
443.929	1.89506
445.694	1.18083
447.461	2.00982
449.226	0.918694
450.99	1.46503
452.756	0.843805
454.52	1.32032
456.285	1.2832
458.048	1.0129
459.811	1.23173
461.573	0.219028
463.337	0.651499
465.099	1.15807
466.86	1.01977
468.623	0.654585
470.384	1.13017
472.144	1.0492
473.906	1.05982
475.666	1.92854
477.425	1.53508
479.184	1.1608
480.944	1.90236
482.703	2.17816
484.461	1.75767
486.218	1.34113
487.975	1.34834
489.734	1.84971
491.491	1.25699
493.247	1.73942
495.003	0.913582
496.759	1.06915
498.516	1.69302
500.271	1.02724
502.025	1.11001
503.779	0.956186
505.533	1.59888
507.287	1.06363
509.042	0.901085
510.795	1.51157
512.547	1.27172
514.299	1.38162
516.051	1.32388
517.803	1.38117
519.554	2.47056
521.305	1.3956
523.055	1.61225
524.805	1.73428
526.555	2.25488
528.307	0.9461
530.056	2.09911
531.805	1.39967
533.553	1.93995
535.301	1.86879
537.049	1.72458
538.797	1.69429
540.544	1.26501
542.291	1.76665
544.037	1.10293
545.783	0.370974
547.529	1.47461
549.275	0.999752
551.02	1.96212
552.765	1.09537
554.509	1.22446
556.253	1.28456
557.997	0.930254
559.738	1.24581
561.482	1.28572
563.224	0.843742
564.967	1.16217
566.709	1.04508
568.451	0.355852
570.192	1.04634
571.933	0.500368
573.674	-0.0419941
575.415	1.39215
577.153	0.765223
578.893	0.875303
580.632	1.58433
582.371	0.961607
584.11	0.521133
585.849	0.124222
587.587	-0.114447
589.323	0.54163
591.06	1.28787
592.797	0.997622
594.534	0.776049
596.271	1.06072
598.005	1.29934
599.741	0.409927
601.476	0.462112
603.211	0.741676
604.944	0.420301
606.679	0.303249
608.413	0.552011
610.147	-0.439215
611.878	0.452547
613.611	0.382057
615.344	0.404741
617.077	0.886055
618.807	1.34312
620.539	0.0349064
622.27	0.555708
623.999	0.776815
625.73	-0.327469
627.461	0.740601
629.189	0.00884819
630.919	0.514454
632.648	0.225695
634.376	0.509802
636.105	1.54678
637.833	1.11936
639.559	0.86894
641.287	0.543972
643.013	0.966354
644.74	0.451635
646.467	0.370573
648.192	-0.00205421
649.918	0.563652
651.642	0.228296
653.368	0.901066
655.091	0.125982
656.816	0.60676
658.538	0.0649891
660.263	1.27831
661.987	0.458174
663.708	1.59736
665.432	0.926359
667.153	1.07404
668.875	1.3344
670.596	0.864159
672.318	0.329084
674.037	1.21836
675.759	-0.292892
677.478	0.81122
679.196	-0.585352
680.917	0.174442
682.635	-0.264391
684.355	-0.270697
686.072	0.156475
687.791	1.15642
689.508	-0.21822
691.224	0.570795
692.942	0.206783
694.658	0.186813
696.376	0.717501
698.091	0.232557
699.805	0.527763
701.522	-0.467665
703.236	0.0760994
704.95	0.112396
706.665	-0.0360756
708.379	0.135921
710.093	0.260994
711.806	0.087532
713.518	-0.337873
715.23	-0.305872
716.943	-0.0685863
718.655	0.44224
720.366	0.382734
722.078	0.460276
723.788	0.424091
725.498	0.819693
727.208	0.305483
728.919	0.540173
730.628	-0.0879574
732.337	-0.375896
734.045	0.309225
735.755	-0.114513
737.463	0.276243
739.17	-0.0994167
740.877	-0.111824
742.584	0.28367
744.292	-0.0390358
745.998	0.114042
747.704	0.472321
749.409	-0.718824
751.114	-0.04035
752.819	-0.303959
754.526	0.0200233
756.23	0.392183
757.934	0.204926
759.637	0.155617
761.34	0.401676
763.043	0.175461
764.746	0.151712
766.448	0.826235
768.152	0.616266
769.853	-0.751389
771.554	1.58522
773.255	0.843582
774.956	0.394974
776.656	0.96489
778.356	1.40178
780.056	1.45753
781.755	1.13115
783.454	0.895529
785.153	1.65368
786.851	0.0530052
788.549	1.00399
790.247	1.47254
791.944	1.25673
793.641	0.0443439
795.338	0.0968895
797.034	0.241194
798.73	0.974049
800.426	1.28199
802.121	0.917685
803.817	1.49972
805.511	0.147776
807.206	0.97504
808.9	0.968197
810.592	0.689722
812.286	0.813377
813.979	1.00288
815.672	0.967691
817.364	0.261433
819.057	1.29976
820.748	0.304604
822.44	1.27537
824.129	1.22065
825.82	0.879162
827.511	0.943232
829.201	0.968279
830.891	1.11088
832.581	1.41537
834.269	0.810705
835.958	1.25587
837.646	1.38887
839.335	0.827539
841.023	2.02717
842.709	0.588326
844.396	0.3992
846.084	2.28995
847.77	0.540943
849.455	1.86028
851.141	0.880516
852.827	1.38235
854.513	0.900051
856.196	0.708513
857.881	0.716812
859.566	0.69931
861.248	0.385406
862.932	0.586006
864.616	-0.252502
866.297	0.191568
867.98	1.13068
869.663	0.422869
871.343	-0.376045
873.026	0.110359
874.707	0.0101166
876.387	-0.27063
878.068	0.644812
879.747	0.16083
881.428	0.601624
883.108	0.0928783
884.786	0.417269
886.465	0.174507
888.143	0.44768
889.822	0.60461
891.498	-0.436142
893.177	-0.126913
894.855	0.0219536
896.53	0.483152
898.208	-0.0243187
899.883	0.0955429
901.56	0.840788
903.234	-0.184727
904.91	0.333956
906.584	0.583994
908.26	0.366486
909.933	0.195873
911.608	0.00520325
913.28	0.21648
914.955	0.317076
916.627	0.528593
918.298	0.0968819
919.972	-0.599535
921.643	-0.298048
923.315	0.977766
924.986	0.973972
926.656	0.576689
928.328	0.735109
929.997	-0.00859833
931.668	0.440874
933.337	-0.0136108
935.006	-0.092598
936.676	0.446831
938.344	0.988001
940.012	0.759838
941.681	0.159195
943.348	0.994186
945.014	-0.245296
946.683	-0.207138
948.349	1.7257
950.015	0.586294
951.682	0.592041
953.347	0.00234985
955.012	0.981665
956.676	-0.150286
958.343	0.488716
960.006	0.33971
961.67	0.569414
963.333	0.136261
964.998	-0.345024
966.661	0.583845
968.323	-0.019537
969.985	0.523108
971.649	0.178858
973.31	0.145226
974.971	0.733761
976.632	1.06085
978.293	0.683508
979.953	0.561975
981.615	0.439663
983.274	-0.0507278
984.933	0.251774
986.592	2.03272
988.251	0.799637
989.909	1.90886
991.567	0.606434
993.225	1.64639
994.884	0.875187
996.541	2.09076
998.198	2.84186
999.855	4.09841
1001.51	3.54665
1003.17	2.57645
1004.82	2.50849
1006.48	2.33044
1008.13	2.61408
1009.79	2.83224
1011.44	2.83184
1013.1	1.78055
1014.75	1.56378
1016.4	1.63276
1018.06	0.958897
1019.71	0.353052
1021.36	0.230921
1023.01	-0.19475
1024.66	0.649384
1026.32	1.80056
1027.97	0.919586
1029.62	0.889544
1031.27	1.97073
1032.92	1.4539
1034.57	1.43567
1036.22	1.87221
1037.87	1.28223
1039.52	2.32551
1041.16	2.56385
1042.81	2.04408
1044.46	2.41973
1046.11	3.79879
1047.76	4.61729
1049.4	4.33233
1051.05	5.13658
1052.7	4.81358
1054.34	4.68702
1055.99	4.10402
1057.63	2.88966
1059.28	2.95653
1060.92	2.17386
1062.57	1.51979
1064.21	1.9291
1065.85	1.61852
1067.5	0.805725
1069.14	0.40406
1070.78	0.783064
1072.43	0.792402
1074.07	0.564068
1075.71	0.706879
1077.35	0.744118
1078.99	0.263704
1080.63	0.283812
1082.27	0.997887
1083.91	1.21133
1085.55	0.0555077
1087.19	-0.0638428
1088.83	0.310558
1090.47	0.0963802
1092.11	1.02564
1093.75	0.0515499
1095.39	0.546762
1097.03	0.331474
1098.66	1.02421
1100.3	0.0192127
1101.94	0.0737991
1103.57	0.82062
1105.21	-0.0645828
1106.84	0.514261
1108.48	0.361246
1110.11	0.528492
1111.75	0.520273
1113.38	0.401093
1115.02	-0.600925
1116.65	0.220587
1118.29	0.912498
1119.92	1.60498
1121.55	0.371826
1123.19	0.961485
1124.82	0.804104
1126.45	0.135445
1128.08	0.773294
1129.71	-0.233843
1131.34	-0.0849895
1132.97	0.192791
1134.6	0.256536
1136.23	0.361687
1137.86	-0.219221
1139.49	0.457876
1141.12	0.555725
1142.75	0.310863
1144.38	0.0238495
1146.01	0.33548
1147.64	0.0735836
1149.26	-0.271441
1150.89	0.0877094
1152.52	0.830082
1154.15	0.4217
1155.77	0.672436
1157.4	-0.20492
1159.02	0.301537
1160.65	0.384279
1162.27	0.788391
1163.9	0.429314
1165.52	0.90066
1167.15	0.712397
1168.77	1.01081
1170.39	-0.118675
1172.02	-0.423016
1173.64	0.500574
1175.26	0.0410652
1176.89	-0.524961
1178.51	0.583719
1180.13	-0.106972
1181.75	0.00906754
1183.37	-0.084959
1184.99	0.138233
1186.61	-0.443218
1188.23	0.68177
1189.85	0.851809
1191.47	0.280281
1193.09	0.463667
1194.71	-0.0481796
1196.33	1.45415
1197.94	0.776855
1199.56	1.29721
1201.18	0.463707
1202.8	0.284767
1204.41	1.21791
1206.03	0.465311
1207.65	1.13465
1209.26	1.40823
1210.88	0.67889
1212.49	1.69753
1214.11	1.14732
1215.72	1.19654
1217.34	1.38713
1218.95	1.26319
1220.57	2.09408
1222.18	2.3234
1223.79	1.83
1225.41	1.7343
1227.02	2.32514
1228.63	2.00861
1230.24	2.17085
1231.85	2.25314
1233.47	2.21424
1235.08	2.4676
1236.69	3.48862
1238.3	2.96195
1239.91	3.4086
1241.52	2.03582
1243.13	2.1926
1244.74	2.49253
1246.34	2.70737
1247.95	2.91982
1249.56	2.32348
1251.17	2.7195
1252.78	3.01247
1254.38	3.03817
1255.99	1.65989
1257.6	2.06326
1259.2	2.80056
1260.81	2.62966
1262.42	2.79112
1264.02	2.22777
1265.63	2.07757
1267.23	2.27798
1268.84	2.28975
1270.44	2.17473
1272.04	3.11471
1273.65	2.2899
1275.25	2.35434
1276.85	3.16258
1278.46	2.64258
1280.06	2.57704
1281.66	2.49012
1283.26	2.3828
1284.86	2.52493
1286.46	2.79305
1288.07	2.09205
1289.67	2.59201
1291.27	3.11375
1292.87	3.30466
1294.47	3.03934
1296.06	3.22551
1297.66	3.16002
1299.26	3.02873
1300.86	3.12082
1302.46	3.31278
1304.06	3.89309
1305.65	3.68925
1307.25	4.20337
1308.85	3.25904
1310.44	3.75124
1312.04	3.79289
1313.64	4.20439
1315.23	4.80144
1316.83	3.37854
1318.42	3.12216
1320.02	3.64067
1321.61	2.48592
1323.2	3.46652
1324.8	3.40421
1326.39	3.66349
1327.99	3.57596
1329.58	3.7936
1331.17	5.26837
1332.76	4.66452
1334.36	4.47112
1335.95	3.29332
1337.54	3.87291
1339.13	3.44255
1340.72	3.43185
1342.31	2.89289
1343.9	3.95844
1345.49	3.57318
1347.08	3.30926
1348.67	3.81104
1350.26	3.85747
1351.85	2.63001
1353.43	3.38798
1355.02	4.14864
1356.61	3.651
1358.2	3.91175
1359.78	2.9719
1361.37	3.16799
1362.96	3.36181
1364.54	3.13584
1366.13	2.59187
1367.71	3.60362
1369.3	3.18411
1370.88	3.10656
1372.47	2.79358
1374.05	3.47822
1375.64	2.51297
1377.22	2.3041
1378.8	2.81046
1380.39	1.66298
1381.97	2.84036
1383.55	2.28391
1385.13	2.38147
1386.72	2.73609
1388.3	2.57436
1389.88	2.85098
1391.46	2.79219
1393.04	1.98148
1394.62	1.7671
1396.2	2.38525
1397.78	1.99049
1399.36	2.82225
1400.94	2.54187
1402.52	1.80507
1404.1	1.93943
1405.68	2.25275
1407.25	1.73761
1408.83	2.90428
1410.41	3.2221
1411.98	2.17716
1413.56	2.82919
1415.14	1.86061
1416.71	3.41524
1418.29	3.07505
1419.87	2.85412
1421.44	3.10843
1423.02	2.59856
1424.59	3.13593
1426.16	3.61724
1427.74	3.05676
1429.31	4.46398
1430.89	4.03851
1432.46	4.43678
1434.03	4.69471
1435.6	5.2463
1437.18	5.58172
1438.75	5.52569
1440.32	5.76705
1441.89	5.55885
1443.46	5.50971
1445.03	6.09051
1446.6	5.51217
1448.17	5.42556
1449.74	5.24133
1451.31	6.08065
1452.88	5.74168
1454.45	5.54125
1456.02	5.77352
1457.59	5.57138
1459.16	5.34634
1460.72	4.82176
1462.29	4.56813
1463.86	4.78254
1465.43	4.48292
1466.99	4.45765
1468.56	4.60993
1470.13	3.66525
1471.69	3.56758
1473.26	3.15874
1474.82	2.67351
1476.38	2.75802
1477.95	2.9212
1479.51	2.49613
1481.08	2.61971
1482.64	2.52747
1484.2	2.67009
1485.77	1.63644
1487.33	2.57965
1488.89	2.07047
1490.46	2.47717
1492.02	1.99841
1493.58	2.00373
1495.14	2.02436
1496.7	1.82798
1498.26	2.31255
1499.82	1.59213
1501.38	1.86589
1502.94	1.71515
1504.5	1.48926
1506.06	0.877285
1507.62	0.864634
1509.18	1.50659
1510.73	2.45322
1512.29	2.68235
1513.85	2.4865
1515.41	1.65715
1516.96	1.10002
1518.52	1.50473
1520.08	1.12459
1521.63	2.37223
1523.19	1.32275
1524.75	1.78214
1526.3	2.31436
1527.85	1.43389
1529.41	1.77145
1530.96	1.72821
1532.52	1.89475
1534.07	2.11972
1535.62	1.62777
1537.18	1.61145
1538.73	2.46505
1540.28	1.86589
1541.84	2.43614
1543.39	1.78174
1544.94	2.18103
1546.49	1.8465
1548.04	2.16897
1549.59	2.00331
1551.14	1.91329
1552.69	1.86201
1554.25	1.64469
1555.79	2.49538
1557.34	2.62107
1558.89	0.903988
1560.44	1.8411
1561.99	1.5318
1563.54	2.12051
1565.08	1.87107
1566.63	2.0697
1568.18	1.80126
1569.73	1.55056
1571.27	1.93363
1572.82	2.16673
1574.37	3.07152
1575.91	1.6429
1577.46	2.73487
1579	2.50233
1580.55	2.68194
1582.09	2.26575
1583.64	2.4304
1585.18	2.3352
1586.73	2.50281
1588.27	2.44646
1589.81	2.46445
1591.35	3.04302
1592.9	2.98424
1594.44	3.22438
1595.98	3.44599
1597.52	3.70616
1599.06	3.55559
1600.61	4.19443
1602.15	4.10307
1603.69	3.05392
1605.23	3.09187
1606.77	3.23948
1608.31	3.79617
1609.85	3.97153
1611.39	2.78843
1612.93	3.14162
1614.46	2.68428
1616	2.88288
1617.54	2.81979
1619.08	2.9842
1620.61	2.57134
1622.15	3.43509
1623.69	2.09142
1625.23	3.25657
1626.76	3.42771
1628.3	2.69773
1629.83	2.90012
1631.37	2.52046
1632.9	3.16755
1634.44	2.32112
1635.97	2.72744
1637.51	2.76249
1639.04	3.13456
1640.57	3.24559
1642.11	3.85815
1643.64	3.42484
1645.17	3.64048
1646.71	3.6119
1648.24	3.87985
1649.77	3.64688
1651.3	3.58348
1652.83	3.31903
1654.36	3.65075
1655.89	3.53894
1657.42	3.24182
1658.96	4.33229
1660.48	3.53047
1662.01	2.89267
1663.54	3.73195
1665.07	3.94049
1666.6	3.74341
1668.13	3.27247
1669.66	2.98987
1671.19	2.61884
1672.71	2.58214
1674.24	2.28875
1675.77	3.24697
1677.29	3.42981
1678.82	2.78216
1680.35	2.24301
1681.87	2.23561
1683.4	2.35594
1684.92	2.40284
1686.45	1.60682
1687.97	2.2607
1689.5	2.29191
1691.02	2.52506
1692.54	1.20262
1694.07	1.39954
1695.59	0.901173
1697.11	1.2981
1698.64	0.872057
1700.16	0.372576
1701.68	1.64171
1703.2	1.43155
1704.72	1.51182
1706.25	0.717545
1707.77	0.432968
1709.29	1.07504
1710.81	0.754286
1712.33	1.19604
1713.85	0.803984
1715.37	0.702368
1716.89	-0.0684891
1718.41	1.0593
1719.92	-0.577816
1721.44	0.278042
1722.96	0.286327
1724.48	0.368797
1725.99	-0.302364
1727.51	0.0559006
1729.03	1.06387
1730.55	0.48591
1732.06	0.727741
1733.58	0.419331
1735.09	0.432661
1736.61	0.163397
1738.13	0.240898
1739.64	0.0382786
1741.15	-0.240824
1742.67	0.0435696
1744.18	0.0310059
1745.7	0.375847
1747.21	-0.169521
1748.72	0.249207
1750.24	0.241001
1751.75	0.346828
1753.26	-0.188908
1754.77	0.747032
1756.29	0.0979481
1757.8	0.427868
1759.31	0.0286369
1760.82	-0.170208
1762.33	0.0467281
1763.84	-0.408926
1765.35	-0.184032
1766.86	-0.110764
1768.37	0.150684
1769.88	-0.0728531
1771.39	-0.109768
1772.9	-0.0667419
1774.4	0.355667
1775.91	0.0295334
1777.42	0.319725
1778.93	0.578985
1780.44	0.038517
1781.94	0.0245323
1783.45	0.0395641
1784.96	0.343142
1786.46	0.265932
1787.97	0.271452
1789.47	0.0248165
1790.98	0.52013
1792.48	-0.0097065
1793.99	0.0589638
1795.49	0.513639
1797	-0.156818
1798.5	0.302635
1800.01	-0.16503
1801.51	-0.0705185
1803.01	0.263544
1804.51	0.0699749
1806.02	0.0958939
1807.52	-0.0741158
1809.02	0.110916
1810.52	-0.110176
1812.02	-0.0331802
1813.52	0.269087
1815.02	0.227493
1816.53	-0.136717
1818.03	-0.0941563
1819.52	0.226471
1821.02	-0.141562
1822.52	-0.207108
1824.02	-0.0835876
1825.52	-0.0727501
1827.02	0.219782
1828.52	0.0562134
1830.02	-0.468121
1831.51	0.00909996
1833.01	0.384081
1834.51	-0.024107
1836.01	0.0257607
1837.5	-0.241018
1839	0.119226
1840.49	-0.132137
1841.99	0.439434
1843.49	0.213562
1844.98	-0.15136
1846.48	-0.16959
1847.97	0.00900459
1849.47	0.130348
1850.96	0.00227928
1852.45	0.133766
1853.95	0.314396
1855.44	0.109703
1856.93	-0.0437489
1858.42	0.540556
1859.92	0.961994
1861.41	0.209557
1862.9	0.312126
1864.39	0.291607
1865.88	0.103115
1867.38	0.47666
1868.87	0.479284
1870.36	0.156231
1871.85	-0.157383
1873.34	-0.0549145
1874.83	0.386482
1876.32	0.389887
1877.81	0.136515
1879.29	0.226685
1880.78	-0.113506
1882.27	0.0934086
1882.53	0.149984
1884.03	0.1661
1885.52	-0.185383
1887.01	-0.242245
1888.51	0.222145
1890	0.234091
1891.5	-0.32579
1892.99	0.213333
1894.48	0.199785
1895.97	-0.297386
1897.47	-0.16691
1898.96	0.137339
1900.45	0.248192
1901.94	0.233883
1903.43	0.285437
1904.92	0.247005
1906.41	0.102711
1907.9	0.531567
1909.39	0.16287
1910.88	0.0566998
1912.37	-0.0995712
1913.86	0.525858
1915.35	0.214869
1916.84	-0.0620155
1918.33	0.284084
1919.81	0.490433
1921.3	0.696459
1922.79	0.712772
1924.28	0.453974
1925.76	0.00722694
1927.25	0.670687
1928.73	0.0543804
1930.22	0.840492
1931.71	-0.141357
1933.19	-0.208387
1934.68	0.0325775
1936.16	0.0103703
1937.65	-0.0142651
1939.13	0.167526
1940.62	0.384235
1942.1	-0.191353
1943.58	0.236284
1945.07	-0.248539
1946.55	0.595119
1948.03	0.679495
1949.51	0.779449
1951	-0.241961
1952.48	0.267317
1953.96	0.172913
1955.44	-0.127718
1956.92	0.345604
1958.4	0.356413
1959.88	-0.163017
1961.36	0.0564651
1962.84	-0.323715
1964.32	-0.224234
1965.8	0.696119
1967.28	0.022356
1968.76	-0.155941
1970.24	0.245937
1971.72	0.151381
1973.2	0.329939
1974.67	0.610781
1976.15	0.226898
1977.63	0.593334
1979.1	-0.197926
1980.58	0.491657
1982.06	-0.264894
1983.54	-0.018816
1985.01	-0.0453472
1986.49	-0.123232
1987.96	0.646307
1989.44	0.0437088
1990.91	0.374104
1992.39	0.317066
1993.86	-0.921173
1995.33	0.209099
1996.81	0.0724792
1998.28	0.408747
1999.75	-0.032692
2001.23	0.689335
2002.7	0.3302
2004.17	0.91518
2005.65	0.236574
2007.12	-0.103016
2008.59	0.569868
2010.06	0.25098
2011.53	0.724468
2013	-0.215874
2014.47	0.324099
2015.94	0.307049
2017.41	0.153576
2018.88	-0.152769
2020.35	0.464188
2021.82	-0.162487
2023.29	0.219255
2024.76	-0.50507
2026.23	-0.16979
2027.69	0.403093
2029.16	-0.379536
2030.63	-0.27055
2032.1	0.276775
2033.56	0.221106
2035.03	-0.539944
2036.5	0.747179
2037.96	0.0511513
2039.43	0.160723
2040.89	-0.0155563
2042.36	0.262867
2043.83	0.0888538
2045.29	0.943045
2046.75	0.132887
2048.22	-0.18898
2049.68	0.111757
2051.15	-0.196293
2052.61	-0.0354252
2054.07	-0.114321
2055.54	0.191111
2057	0.173294
2058.46	-0.284252
2059.92	-0.0511475
2061.39	0.0984325
2062.85	0.232754
2064.31	0.75618
2065.77	0.642117
2067.23	0.597147
2068.69	-0.0356789
2070.15	0.0894928
2071.61	-0.273411
2073.07	0.0031414
2074.53	0.632851
2075.99	-0.102091
2077.45	-0.0126343
2078.91	0.345455
2080.37	-0.055151
2081.82	0.603891
2083.28	0.0493774
2084.74	-0.0351715
2086.2	-0.0202103
2087.65	0.128016
2089.11	0.157627
2090.57	0.589931
2092.02	0.232582
2093.48	0.630505
2094.94	-0.465069
2096.39	0.048624
2097.85	0.158365
2099.3	0.484253
2100.76	0.340765
2102.21	0.298223
2103.66	-0.0932465
2105.12	0.536388
2106.57	1.08488
2108.03	0.284269
2109.48	0.368507
2110.93	0.0015316
2112.38	-0.384451
2113.84	0.00933647
2115.29	0.332846
2116.74	-0.52631
2118.19	-0.104382
2119.64	0.269726
2121.09	0.265671
2122.54	-0.0330257
2123.99	0.0360756
2125.45	0.753115
2126.89	-0.105558
2128.34	0.625395
2129.79	0.441788
2131.24	0.752613
2132.69	0.118011
2134.14	-0.251221
2135.59	0.323933
2137.04	-0.189386
2138.48	-0.0048027
2139.93	0.18342
2141.38	-0.121025
2142.83	0.271154
2144.27	0.0858917
2145.72	0.264847
2147.17	0.559269
2148.61	0.769848
2150.06	0.150494
2151.5	0.108896
2152.95	-0.232851
2154.39	0.103174
2155.84	0.2726
2157.28	-0.270151
2158.73	0.778709
2160.17	-0.4062
2161.61	0.234503
2163.06	0.216051
2164.5	-0.413359
2165.94	0.186506
2167.38	0.537849
2168.83	0.638266
2170.27	0.15321
2171.71	0.87822
2173.15	0.318636
2174.59	0.887558
2176.03	0.0582256
2177.47	0.509871
2178.91	0.04846
2180.36	0.736105
2181.8	0.594173
2183.23	0.619635
2184.67	0.146677
2186.11	0.289215
2187.55	-0.0839691
2188.99	0.574621
2190.43	0.0848866
2191.87	0.426889
2193.3	0.484495
2194.74	0.0733852
2196.18	-0.0247822
2197.62	-0.0101585
2199.05	-0.298079
2200.49	-0.0724678
2201.93	0.484558
2203.36	-0.202236
2204.8	0.0921822
2206.23	0.437983
2207.67	0.801081
2209.1	0.666729
2210.54	-0.0979595
2211.97	0.40995
2213.41	0.485971
2214.84	0.0991688
2216.27	-0.1374
2217.71	0.222382
2219.14	0.386337
2220.57	0.51889
2222.01	0.470325
2223.44	0.156807
2224.87	0.384279
2226.3	0.196749
2227.73	0.00629425
2229.16	0.175028
2230.6	0.456728
2232.03	0.491575
2233.46	0.395954
2234.89	0.530947
2236.32	0.308607
2237.75	0.628477
2239.18	0.217487
2240.61	0.577408
2242.03	0.011116
2243.46	0.279099
2244.89	-0.593992
2246.32	0.374813
2247.75	0.312891
2249.17	-0.437889
2250.6	0.713951
2252.03	0.118896
2253.46	0.108681
2254.88	0.21279
2256.31	0.0922871
2257.73	-0.18574
2259.16	-0.0849686
2260.59	0.913837
2262.01	0.213778
2263.44	0.328238
2264.86	0.313398
2266.29	0.557987
2267.71	0.150517
2269.14	0.229118
2270.56	0.420145
2271.98	-0.0736122
2273.4	0.392954
2274.83	0.273468
2276.25	0.496475
2277.67	-0.143848
2279.09	0.242672
2280.52	-0.104515
2281.94	0.608065
2283.36	-0.457497
2284.78	0.353153
2286.2	0.38114
2287.62	0.344555
2289.04	0.455828
2290.46	0.535294
2291.88	-0.087553
2293.3	0.385036
2294.72	0.399872
2296.14	0.0544338
2297.56	-0.422415
2298.98	0.42741
2300.4	0.147455
2301.82	0.0973454
2303.23	0.293829
2304.65	-0.0672817
2306.07	0.0801945
2307.49	0.736506
2308.9	-0.0542583
2310.32	0.320744
2311.73	0.21817
2313.15	-0.1478
2314.57	0.309744
2315.98	0.242151
2317.4	0.0277424
2318.81	0.357958
2320.23	0.0777969
2321.64	0.207724
2323.06	0.235001
2324.47	0.488747
2325.88	0.803885
2327.3	0.686626
2328.71	0.732763
2330.12	0.103912
2331.54	0.0207253
2332.95	0.170181
2334.36	0.650305
2335.77	-0.152437
2337.18	0.458698
2338.6	0.311256
2340.01	0.22739
2341.42	0.355225
2342.83	-0.371471
2344.24	-0.457672
2345.65	0.0139828
2347.06	-0.267832
2348.47	0.269199
2349.88	0.150454
2351.29	-0.427347
2352.7	-0.0425053
2354.1	0.241913
2355.51	0.198397
2356.92	0.251993
2358.33	-0.263844
2359.74	1.05759
2361.14	0.493729
2362.55	0.336346
2363.96	0.000921249
2365.36	-0.544195
2366.77	0.463652
2368.18	-0.160015
2369.58	0.219589
2370.99	-0.140293
2372.39	-0.174948
2373.8	0.694132
2375.2	-0.175173
2376.61	0.258757
2378.01	0.111231
2379.42	-0.199799
2380.82	0.176737
2382.22	0.389357
2383.63	0.183313
2385.03	0.20122
2386.43	0.139996
2387.84	0.0806637
2389.24	-0.0400066
2390.64	-0.142082
2392.04	0.554258
2393.44	-0.0848045
2394.84	0.137211
2396.25	0.233229
2397.65	0.282742
2399.05	0.44458
2400.45	-0.107542
2401.85	-0.182365
2403.25	-0.145929
2404.65	0.127949
2406.05	-0.155581
2407.45	-0.123356
2408.84	-0.394018
2410.24	0.492079
2411.64	-0.333347
2413.04	0.221292
2414.44	-0.23522
2415.83	0.0711021
2417.23	0.142519
2418.63	-0.100969
2420.02	0.590553
2421.42	0.0940666
2422.82	0.246273
2424.21	-0.188293
2425.61	0.391315
2427	0.322296
2428.4	0.254923
2429.8	-0.127829
2431.19	0.23616
2432.58	-0.0659771
2433.98	0.250002
2435.37	0.0873814
2436.77	0.525579
2438.16	-0.00838661
2439.55	0.185959
2440.95	0.219616
2442.34	0.410921
2443.73	-0.255367
2445.12	0.299856
2446.51	0.0615692
2447.91	0.0133858
2449.3	-0.383276
2450.69	0.249992
2452.08	0.0291023
2453.47	0.316187
2454.86	-0.376051
2456.25	0.720722
2457.64	0.457617
2459.03	0.210041
2460.42	-0.275822
2461.81	0.865438
2463.2	-0.271534
2464.59	-0.492458
2465.98	0.0442505
2467.36	-0.445749
2468.75	-0.0045166
2470.14	0.293972
2471.53	0.733118
2472.92	-0.0425892
2474.3	0.456326
2475.69	0.0566044
2477.08	0.112579
2478.46	-0.00440025
2479.85	-0.230728
2481.23	-0.0487194
2482.62	0.383537
2484	0.563684
2485.39	-0.134062
2486.77	0.0422897
2488.16	-0.267611
2489.54	0.356874
2490.93	-0.281223
2492.31	0.342373
2493.69	0.283396
2495.08	0.165102
2496.46	0.700436
2497.84	0.260862
2499.23	0.441545
2500.61	0.281017
2501.99	-0.0044384
2503.37	0.295439
2504.75	0.191919
2506.13	0.102808
2507.52	0.521286
2508.9	0.0781574
2510.28	0.0360832
2511.66	-0.265503
2513.04	0.0480766
2514.42	0.914165
2515.8	-0.209021
2517.18	-0.105585
2518.55	-0.00123978
2519.93	0.164438
2521.31	0.0239601
2522.69	0.0655251
2524.07	-0.291155
2525.45	0.204792
2526.82	-0.305616
2528.2	-0.0993233
2529.58	0.0935383
2530.95	0.395613
2532.33	0.579199
2533.71	0.0209484
2535.08	0.162994
2536.46	0.107426
2537.84	0.354387
2539.21	0.477886
2540.59	0.387114
2541.96	0.326027
2543.34	0.326191
2544.71	0.252157
2546.08	0.0591698
2547.46	0.156729
2548.83	0.195257
2550.2	0.689131
2551.58	-0.0167236
2552.95	0.671791
2554.32	0.478027
2555.7	0.297718
2557.07	-0.42963
2558.44	-0.0954113
2559.81	0.330069
2561.18	0.34716
2562.55	-0.286173
2563.93	0.263685
2565.3	0.268787
2566.67	0.183434
2568.04	0.0679188
2569.41	0.40708
2570.78	0.00356674
2572.15	0.388273
2573.51	0.136503
2574.88	0.476099
2576.25	0.23967
2577.62	-0.0272789
2578.99	0.524092
2580.36	0.407614
2581.73	0.00222588
2583.09	0.369394
2584.46	0.296377
2585.83	-0.246639
2587.19	0.620224
2588.56	-0.301048
2589.93	0.414684
2591.29	0.114777
2592.66	0.526148
2594.02	0.178354
2595.39	0.0407753
2596.75	0.113224
2598.12	0.365595
2599.48	0.571558
2600.85	0.611267
2602.21	0.455574
2603.58	0.105089
2604.94	0.103014
2606.3	0.523659
2607.67	0.294958
2609.03	0.577232
2610.39	0.450115
2611.76	0.44096
2613.12	0.173922
2614.48	0.221329
2615.84	0.628241
2617.2	0.315224
2618.56	-0.265589
2619.92	0.0838127
2621.28	0.105099
2622.65	-0.066906
2624.01	0.40383
2625.37	0.664911
2626.72	0.597055
2628.08	0.320007
2629.44	-0.195471
2630.8	0.256493
2632.16	0.558855
2633.52	-0.134592
2634.88	0.122885
2636.24	-0.154009
2637.59	0.206675
2638.95	0.359575
2640.31	0.704838
2641.67	0.163074
2643.02	0.346498
2644.38	0.338058
2645.74	0.403225
2647.09	0.24637
2648.45	0.20624
2649.8	0.0615768
2651.16	0.842016
2652.51	0.0929146
2653.87	-0.0380745
2655.22	0.404232
2656.58	0.144907
2657.93	0.561436
2659.29	0.467224
2660.64	-0.12324
2661.99	0.572636
2663.35	0.638525
2664.7	0.46917
2666.05	0.356897
2667.41	0.506168
2668.76	0.625872
2670.11	-0.185281
2671.46	0.0235195
2672.81	0.116989
2674.16	0.443878
2675.51	0.394157
2676.87	-0.118696
2678.22	0.283791
2679.57	0.731144
2680.92	0.383003
2682.27	0.211193
2683.62	0.172134
2684.97	0.265427
2686.31	-0.119164
2687.66	0.453636
2689.01	0.458241
2690.36	0.924097
2691.71	0.544363
2693.06	0.553581
2694.4	0.459366
2695.75	0.843128
2697.1	0.431019
2698.45	0.137569
2699.79	0.397671
2701.14	-0.00497627
2702.49	0.377235
2703.83	0.602343
2705.18	0.480717
2706.52	0.504116
2707.87	0.425419
2709.21	0.331356
2710.56	0.468826
2711.9	0.896378
2713.25	0.975168
2714.59	0.545107
2715.94	0.230976
2717.28	0.86175
2718.62	0.604919
2719.97	0.347239
2721.31	0.656158
2722.65	0.483877
2723.99	0.630856
2725.34	0.660534
2726.68	1.1552
2728.02	0.819599
2729.36	0.934683
2730.7	0.409222
2732.04	0.509409
2733.39	0.522448
2734.73	0.128542
2736.07	0.855007
2737.41	0.374506
2738.75	0.679333
2740.08	0.503738
2741.43	-0.0798807
2742.76	0.135014
2744.1	0.0868683
2745.44	0.284517
2746.78	0.0455399
2748.12	0.140238
2749.46	0.19141
2750.79	-0.2357
2752.13	0.149866
2753.47	0.187771
2754.81	0.00864792
2756.14	0.727884
2757.48	0.390007
2758.81	0.400221
2760.15	0.440134
2761.49	0.292852
2762.82	-0.0126419
2764.16	-0.143872
2765.49	0.390429
2766.83	-0.465075
2768.16	0.413654
2769.5	0.132668
2770.83	-0.0786247
2772.16	-0.104506
2773.5	0.271696
2774.83	0.415524
2776.17	0.213314
2777.5	-0.0022316
2778.83	0.215033
2780.16	0.203051
2781.5	-0.00934601
2782.83	0.0513802
2784.16	-0.146227
2785.49	0.157999
2786.82	-0.182341
2788.15	-0.277966
2789.49	0.600887
2790.82	-0.00664711
2792.15	0.0740185
2793.48	0.16983
2794.81	0.0513
2796.14	-0.124967
2797.46	0.183475
2798.79	0.20505
2800.12	-0.25947
2801.45	0.103308
2802.78	0.023365
2804.11	-0.0712509
2805.44	-0.00993347
2806.76	-0.00678635
2808.09	-0.0048542
2809.42	-0.245326
2810.75	-0.32916
2812.07	0.0423756
2813.4	0.089426
2814.73	0.11088
2816.05	0.177639
2817.38	-0.136132
2818.7	-0.179463
2820.03	-0.251112
2821.36	0.243324
2822.68	-0.0146713
2824.01	0.604649
2825.33	-0.0659485
2826.65	-0.0988741
2827.98	0.0390987
2829.3	0.54619
2830.63	0.473738
2831.95	0.883007
2833.27	0.71179
2834.6	1.03537
2835.92	1.06072
2837.24	1.368
2838.56	1.80159
2839.88	2.03656
2841.21	2.54026
2842.53	2.62057
2843.85	2.57504
2845.17	2.84194
2846.49	2.70032
2847.81	3.2237
2849.13	3.01224
2850.45	3.54929
2851.77	3.43517
2853.09	4.01251
2854.41	3.82586
2855.73	3.96387
2857.05	4.24308
2858.37	4.29636
2859.69	4.51908
2861	4.76962
2862.32	5.28763
2863.64	5.38123
2864.96	6.10919
2866.28	6.86494
2867.59	6.35166
2868.91	7.00991
2870.23	7.6548
2871.54	7.25681
2872.86	7.95763
2874.17	7.81108
2875.49	7.31011
2876.81	7.5533
2878.12	8.08994
2879.44	7.71125
2880.75	6.72934
2882.07	7.54848
2883.38	7.73735
2884.69	7.67556
2886.01	7.30633
2887.32	7.58305
2888.63	7.1852
2889.95	8.21668
2891.26	8.23601
2892.57	8.0998
2893.89	8.21556
2895.2	7.954
2896.51	8.6043
2897.82	9.00473
2899.13	9.09955
2900.44	8.93041
2901.76	8.72043
2903.07	8.7208
2904.38	9.21107
2905.69	9.07257
2907	10.2782
2908.31	9.83511
2909.62	10.1214
2910.93	10.1573
2912.24	10.9351
2913.55	11.5155
2914.85	11.4207
2916.16	11.5601
2917.47	12.1436
2918.78	12.3189
2920.09	12.8013
2921.4	12.4602
2922.7	12.276
2924.01	12.6541
2925.32	12.6715
2926.62	12.9001
2927.93	13.6041
2929.24	13.4965
2930.54	12.6608
2931.85	13.4596
2933.15	13.0836
2934.46	12.7356
2935.76	13.1567
2937.07	12.9213
2938.37	12.6306
2939.68	11.8235
2940.98	11.381
2942.29	11.4575
2943.59	11.5646
2944.89	10.1369
2946.2	10.4172
2947.5	10.1254
2948.8	9.17507
2950.11	9.14587
2951.41	8.903
2952.71	9.03434
2954.01	9.05079
2955.32	8.73055
2956.62	8.60826
2957.92	8.85422
2959.22	7.85992
2960.52	8.07529
2961.82	7.51018
2963.12	7.57722
2964.42	8.06447
2965.72	8.05781
2967.02	7.61207
2968.32	6.67128
2969.62	7.00815
2970.92	6.47297
2972.22	6.38842
2973.51	6.78307
2974.81	6.34749
2976.11	6.36104
2977.41	5.42866
2978.71	5.45038
2980	4.97603
2981.3	5.32965
2982.6	5.58348
2983.9	4.89592
2985.19	4.39386
2986.49	3.88107
2987.78	4.00365
2989.08	3.01814
2990.38	3.41041
2991.67	3.35214
2992.97	3.02493
2994.26	2.2318
2995.56	2.85571
2996.85	2.6214
2998.14	1.64325
2999.44	2.19545
3000.73	1.90706
3002.03	2.1247
3003.32	1.51639
3004.61	0.964802
3005.91	1.58951
3007.2	1.06485
3008.49	1.01495
3009.78	0.879657
3011.07	0.980802
3012.37	0.648326
3013.66	0.428094
3014.95	0.766693
3016.24	0.395813
3017.53	0.555974
3018.82	0.522248
3020.11	0.0438347
3021.4	0.121245
3022.69	0.211051
3023.98	-0.214387
3025.27	0.0251837
3026.56	0.208641
3027.85	-0.0499983
3029.14	-0.181561
3030.43	0.311701
3031.71	0.13063
3033	0.1175
3034.29	-0.0742846
3035.58	0.243691
3036.87	-0.130267
3038.15	-0.0108299
3039.44	0.0500612
3040.73	0.0119019
3042.01	-0.151181
3043.3	0.124863
3044.59	0.306123
3045.87	-0.425841
3047.16	-0.414587
3048.44	0.447479
3049.73	0.00272942
3051.01	-0.0293102
3052.3	-0.346233
3053.58	0.0739117
3054.87	0.31565
3056.15	0.146379
3057.43	-0.0381756
3058.72	0.743544
3060	0.366693
3061.29	0.467448
3062.57	0.502119
3063.85	0.240388
3065.13	0.0633764
3066.42	0.405749
3067.7	0.559897
3068.98	0.674212
3070.26	0.516242
3071.54	0.248075
3072.82	0.0323591
3074.11	-0.0900784
3075.39	0.438315
3076.67	-0.14776
3077.95	0.285722
3079.23	0.0969086
3080.51	0.670789
3081.79	-0.14944
3083.07	0.185819
3084.35	0.359846
3085.63	-0.117152
3086.9	0.314556
3088.18	-0.0284023
3089.46	0.102698
3090.74	0.273906
3092.02	0.105878
3093.29	0.0333986
3094.57	0.599111
3095.85	0.501014
3097.13	0.579606
3098.4	0.468576
3099.68	0.222124
3100.95	0.32812
3102.23	0.0823545
3103.51	0.270729
3104.78	0.785062
3106.06	0.407648
3107.33	0.329953
3108.61	0.105522
3109.88	0.817182
3111.16	0.475131
3112.43	0.500223
3113.71	0.621228
3114.98	0.647681
3116.25	0.605791
3117.53	0.928839
3118.8	0.721235
3120.07	0.878193
3121.35	0.816799
3122.62	0.930891
3123.89	1.15322
3125.16	0.780284
3126.44	0.692962
3127.71	1.20238
3128.98	1.0906
3130.25	1.60184
3131.52	1.04542
3132.79	1.21918
3134.06	1.37899
3135.33	2.05103
3136.6	1.69622
3137.87	2.13674
3139.14	1.40431
3140.41	1.723
3141.68	1.88023
3142.95	2.02473
3144.22	1.88836
3145.49	1.78051
3146.76	1.36617
3148.02	1.7444
3149.29	1.74866
