200.398	-0.357376
202.213	-0.333576
204.027	-0.307508
205.843	1.1308
207.657	0.623524
209.47	0.942289
211.283	1.74492
213.097	1.33098
214.909	1.06142
216.721	1.00953
218.533	1.22429
220.344	0.350668
222.157	0.640759
223.967	0.932037
225.777	0.644077
227.587	1.00884
229.396	0.527683
231.205	0.601303
233.016	0.96394
234.824	0.989231
236.632	0.727276
238.439	0.613369
240.247	0.744503
242.053	2.56723
243.86	2.34341
245.666	2.69871
247.474	3.22086
249.279	2.12077
251.085	2.85037
252.889	3.09211
254.694	3.28227
256.498	2.89283
258.301	3.73427
260.105	4.24091
261.908	3.37798
263.71	2.49415
265.513	3.25059
267.315	2.46566
269.116	2.52367
270.918	2.24285
272.718	2.24941
274.519	1.98843
276.319	1.72482
278.119	2.18125
279.918	2.60984
281.718	1.32549
283.516	1.43488
285.315	1.58977
287.113	1.47902
288.911	1.80006
290.708	1.18748
292.505	1.48764
294.302	0.402599
296.098	1.01865
297.894	1.11018
299.69	-0.11153
301.485	0.793056
303.278	0.907822
305.073	0.925127
306.867	0.606977
308.661	0.908573
310.454	0.567394
312.247	0.70471
314.04	0.677858
315.833	1.03494
317.623	0.585257
319.415	0.304594
321.206	0.168562
322.997	0.152863
324.788	0.233294
326.579	0.242393
328.367	1.03956
330.156	0.258924
331.946	0.0496893
333.735	0.0051899
335.523	0.603563
337.31	-0.237331
339.098	-0.243816
340.885	-0.180937
342.673	0.191357
344.458	-0.105858
346.244	0.290549
348.03	0.520611
349.816	0.46489
351.6	0.361515
353.385	0.424407
355.17	0.103983
356.953	0.187117
358.737	1.45963
360.521	-0.271972
362.304	0.61508
364.085	0.239314
365.868	0.338191
367.65	1.07652
369.431	0.247016
371.212	0.578509
372.994	0.174674
374.773	-0.1816
376.554	-0.419003
378.332	0.453136
380.112	-0.182834
381.892	0.855264
383.669	0.176736
385.448	0.394349
387.225	1.34208
389.003	1.37484
390.781	0.211394
392.557	0.928275
394.334	1.50518
396.109	1.68349
397.885	2.33174
399.66	1.28866
401.436	2.47619
403.211	2.74662
404.984	2.82781
406.759	1.99184
408.532	2.2116
410.306	1.49176
412.078	2.18033
413.851	2.23583
415.623	2.38638
417.395	2.773
419.166	2.71496
420.938	2.49312
422.708	3.16283
424.477	2.00033
426.248	2.38562
428.017	2.32337
429.788	1.95512
431.556	1.37562
433.326	0.867104
435.093	0.0540304
436.86	0.907262
438.629	0.984917
440.395	0.215522
442.163	0.38171
443.929	1.24764
445.694	0.375847
447.461	-0.215658
449.226	-0.0819902
450.99	-0.205488
452.756	0.371989
454.52	-0.357367
456.285	0.38273
458.048	-0.0430241
459.811	0.299861
461.573	0.875756
463.337	0.268004
465.099	0.338212
466.86	-0.470168
468.623	0.282472
470.384	0.178255
472.144	-0.157753
473.906	-0.215805
475.666	-0.276559
477.425	-0.200854
479.184	0.0117674
480.944	0.152872
482.703	0.410525
484.461	0.320544
486.218	0.256781
487.975	0.149657
489.734	0.418762
491.491	0.246386
493.247	0.635489
495.003	0.581307
496.759	0.456657
498.516	1.29195
500.271	1.07272
502.025	0.359179
503.779	0.253801
505.533	0.851596
507.287	0.0369635
509.042	0.136697
510.795	0.422235
512.547	0.305333
514.299	0.327259
516.051	1.21743
517.803	0.952781
519.554	0.592634
521.305	1.12443
523.055	2.03061
524.805	1.50367
526.555	1.16489
528.307	0.943707
530.056	0.722582
531.805	1.53161
533.553	1.30843
535.301	1.48125
537.049	0.669903
538.797	0.5582
540.544	1.40097
542.291	0.400255
544.037	0.890225
545.783	0.519144
547.529	0.566957
549.275	1.19458
551.02	1.84428
552.765	0.22597
554.509	0.275103
556.253	0.278344
557.997	-0.225185
559.738	0.102396
561.482	0.61437
563.224	0.160329
564.967	-0.0393066
566.709	0.451408
568.451	-0.228095
570.192	-0.216926
571.933	0.186286
573.674	0.362469
575.415	0.495539
577.153	0.975513
578.893	0.539752
580.632	0.288598
582.371	-0.376225
584.11	0.70473
585.849	0.290092
587.587	0.471322
589.323	-0.361622
591.06	0.966578
592.797	0.108181
594.534	0.445903
596.271	0.00141525
598.005	0.914286
599.741	0.23913
601.476	0.114873
603.211	0.0347004
604.944	-0.415504
606.679	0.327512
608.413	0.241658
610.147	-0.211596
611.878	0.253878
613.611	0.284446
615.344	-0.509033
617.077	0.325027
618.807	-0.124799
620.539	-0.530093
622.27	-0.159018
623.999	0.96459
625.73	0.715861
627.461	-0.0331964
629.189	0.043026
630.919	0.510714
632.648	-0.0680437
634.376	-0.143111
636.105	1.47059
637.833	8.4877e-005
639.559	0.762334
641.287	1.13138
643.013	-0.327352
644.74	0.172508
646.467	0.671794
648.192	-0.00885105
649.918	-0.434074
651.642	0.2827
653.368	-0.107968
655.091	0.643444
656.816	0.648498
658.538	1.31619
660.263	0.935123
661.987	1.30446
663.708	1.05355
665.432	1.1413
667.153	1.04297
668.875	0.851758
670.596	0.592813
672.318	-0.258262
674.037	0.359057
675.759	0.453564
677.478	-0.0691786
679.196	0.234138
680.917	0.513608
682.635	0.514671
684.355	0.121033
686.072	-0.529395
687.791	0.475733
689.508	0.0512829
691.224	-0.144023
692.942	0.581078
694.658	0.821227
696.376	0.921535
698.091	0.720607
699.805	0.517802
701.522	0.658284
703.236	0.475304
704.95	0.819663
706.665	0.474119
708.379	0.311906
710.093	0.653396
711.806	1.03953
713.518	0.509507
715.23	-0.111319
716.943	0.38761
718.655	0.292677
720.366	0.745166
722.078	0.172325
723.788	0.874728
725.498	0.552733
727.208	0.775955
728.919	0.748446
730.628	0.81097
732.337	0.850088
734.045	1.45441
735.755	0.565748
737.463	1.23747
739.17	0.758425
740.877	1.45388
742.584	0.167915
744.292	0.956835
745.998	0.93709
747.704	0.82958
749.409	1.37652
751.114	-0.0763454
752.819	0.339645
754.526	0.510349
756.23	0.998495
757.934	1.10671
759.637	1.26243
761.34	0.676195
763.043	1.33092
764.746	0.789547
766.448	0.607246
768.152	1.30358
769.853	1.31866
771.554	0.946035
773.255	0.752029
774.956	0.647701
776.656	1.08678
778.356	1.41478
780.056	1.1799
781.755	1.39917
783.454	0.849438
785.153	0.343052
786.851	1.07816
788.549	1.8309
790.247	0.949118
791.944	1.21693
793.641	0.917141
795.338	0.93321
797.034	0.499794
798.73	0.970377
800.426	0.970451
802.121	1.6252
803.817	1.78578
805.511	2.10339
807.206	1.5431
808.9	0.801872
810.592	0.979889
812.286	1.98585
813.979	1.44324
815.672	1.48316
817.364	1.27687
819.057	1.40626
820.748	0.955074
822.44	1.71009
824.129	2.79968
825.82	1.1047
827.511	0.996185
829.201	1.31506
830.891	1.70549
832.581	1.29861
834.269	1.22916
835.958	1.65199
837.646	1.74035
839.335	1.89399
841.023	1.50912
842.709	2.08256
844.396	0.77829
846.084	1.26253
847.77	0.944832
849.455	1.18992
851.141	1.93193
852.827	1.5354
854.513	1.45378
856.196	2.71949
857.881	1.24298
859.566	1.08883
861.248	1.44947
862.932	1.24469
864.616	1.42078
866.297	0.558491
867.98	1.27313
869.663	0.859682
871.343	0.851612
873.026	0.572481
874.707	0.721855
876.387	1.1421
878.068	1.15622
879.747	-0.0713024
881.428	0.822409
883.108	0.586351
884.786	0.86784
886.465	1.1019
888.143	0.949795
889.822	0.885456
891.498	0.232864
893.177	0.299726
894.855	1.1972
896.53	1.19213
898.208	1.3875
899.883	1.73794
901.56	0.271351
903.234	1.15708
904.91	1.41443
906.584	0.6001
908.26	0.546686
909.933	1.16289
911.608	0.867073
913.28	1.32867
914.955	0.679747
916.627	0.941689
918.298	1.55763
919.972	1.75185
921.643	1.37147
923.315	1.12616
924.986	0.618763
926.656	0.556461
928.328	1.29148
929.997	0.991041
931.668	1.17726
933.337	1.58451
935.006	1.30817
936.676	0.988466
938.344	1.22155
940.012	0.79496
941.681	0.767305
943.348	1.31459
945.014	0.736355
946.683	0.994953
948.349	0.853321
950.015	0.664476
951.682	1.06936
953.347	1.51811
955.012	0.822514
956.676	1.54275
958.343	0.967216
960.006	0.969692
961.67	0.930649
963.333	1.37778
964.998	0.739044
966.661	0.914043
968.323	1.0845
969.985	1.03017
971.649	0.753119
973.31	0.897022
974.971	0.976883
976.632	0.130865
978.293	0.592148
979.953	0.745041
981.615	0.897463
983.274	1.66765
984.933	1.37204
986.592	1.18364
988.251	1.94362
989.909	1.79407
991.567	1.55508
993.225	1.40439
994.884	2.00453
996.541	2.07472
998.198	3.42365
999.855	2.98565
1001.51	2.92184
1003.17	1.82298
1004.82	1.09892
1006.48	1.82604
1008.13	1.43237
1009.79	0.952019
1011.44	1.63534
1013.1	1.70492
1014.75	1.33705
1016.4	0.422976
1018.06	1.69877
1019.71	0.590815
1021.36	1.91229
1023.01	1.5956
1024.66	1.98008
1026.32	1.2511
1027.97	2.22663
1029.62	1.8682
1031.27	2.03197
1032.92	1.97448
1034.57	1.10682
1036.22	1.67687
1037.87	2.09205
1039.52	1.89686
1041.16	2.89942
1042.81	2.53352
1044.46	2.82303
1046.11	3.61551
1047.76	3.47748
1049.4	3.19065
1051.05	3.75331
1052.7	4.5133
1054.34	4.34004
1055.99	3.38427
1057.63	2.99278
1059.28	3.07858
1060.92	1.68459
1062.57	2.02864
1064.21	1.5013
1065.85	1.60271
1067.5	1.61521
1069.14	0.865553
1070.78	1.30976
1072.43	0.494322
1074.07	1.1341
1075.71	1.12444
1077.35	1.20382
1078.99	1.26369
1080.63	1.19483
1082.27	1.08266
1083.91	1.20756
1085.55	0.917795
1087.19	0.689764
1088.83	1.10808
1090.47	1.50107
1092.11	1.5886
1093.75	1.15673
1095.39	1.04955
1097.03	0.943947
1098.66	0.927025
1100.3	0.654772
1101.94	0.213915
1103.57	0.443224
1105.21	1.04037
1106.84	0.993216
1108.48	1.01013
1110.11	1.00372
1111.75	0.607731
1113.38	1.32638
1115.02	0.36746
1116.65	-0.162165
1118.29	0.595337
1119.92	0.753084
1121.55	0.762474
1123.19	0.773682
1124.82	0.315924
1126.45	0.394657
1128.08	1.03068
1129.71	0.620041
1131.34	0.616709
1132.97	0.442909
1134.6	-0.201317
1136.23	0.0726414
1137.86	0.152475
1139.49	-0.0901279
1141.12	0.0714378
1142.75	-0.130816
1144.38	-0.439308
1146.01	-0.0642357
1147.64	1.18589
1149.26	0.157131
1150.89	-0.401644
1152.52	-0.236061
1154.15	0.567572
1155.77	0.540024
1157.4	0.81012
1159.02	-0.238071
1160.65	0.374323
1162.27	-0.499956
1163.9	0.817501
1165.52	0.434923
1167.15	1.13633
1168.77	0.00749779
1170.39	0.342838
1172.02	0.0798073
1173.64	0.811937
1175.26	-0.326132
1176.89	0.25374
1178.51	0.557638
1180.13	0.904594
1181.75	0.27956
1183.37	0.882679
1184.99	0.555521
1186.61	0.311686
1188.23	0.192074
1189.85	1.50265
1191.47	0.848944
1193.09	1.07721
1194.71	0.463526
1196.33	1.19339
1197.94	1.31563
1199.56	0.834146
1201.18	1.48606
1202.8	1.6615
1204.41	2.44675
1206.03	1.48291
1207.65	0.855719
1209.26	1.35568
1210.88	1.45787
1212.49	1.11918
1214.11	1.61038
1215.72	1.38892
1217.34	1.20614
1218.95	2.74666
1220.57	1.75105
1222.18	1.69189
1223.79	1.7387
1225.41	2.01594
1227.02	2.19216
1228.63	1.54349
1230.24	1.95211
1231.85	3.1482
1233.47	1.67999
1235.08	2.52904
1236.69	2.24361
1238.3	2.04272
1239.91	2.07048
1241.52	2.36753
1243.13	2.49865
1244.74	2.27666
1246.34	2.54939
1247.95	2.34431
1249.56	2.84131
1251.17	2.77901
1252.78	2.11724
1254.38	2.11875
1255.99	2.51522
1257.6	2.39688
1259.2	2.4462
1260.81	2.45583
1262.42	1.9073
1264.02	2.02133
1265.63	3.02582
1267.23	1.68727
1268.84	3.20749
1270.44	2.05146
1272.04	1.93012
1273.65	1.93133
1275.25	1.53693
1276.85	1.96994
1278.46	2.69121
1280.06	2.39614
1281.66	2.26632
1283.26	2.50917
1284.86	1.98764
1286.46	2.12962
1288.07	2.33541
1289.67	3.12147
1291.27	2.75119
1292.87	2.48419
1294.47	2.87701
1296.06	2.68903
1297.66	3.0143
1299.26	2.8203
1300.86	2.80928
1302.46	2.40453
1304.06	2.36915
1305.65	2.84651
1307.25	2.99328
1308.85	2.58526
1310.44	2.93635
1312.04	2.7551
1313.64	2.86194
1315.23	2.62302
1316.83	2.6109
1318.42	3.31395
1320.02	2.03826
1321.61	3.14628
1323.2	3.04881
1324.8	2.98889
1326.39	2.70315
1327.99	2.98467
1329.58	2.73999
1331.17	3.0246
1332.76	2.6056
1334.36	3.48368
1335.95	2.85039
1337.54	3.00549
1339.13	2.05066
1340.72	2.64511
1342.31	3.37549
1343.9	3.49754
1345.49	2.09127
1347.08	2.75382
1348.67	2.07593
1350.26	3.245
1351.85	2.41716
1353.43	1.99389
1355.02	2.6127
1356.61	2.43264
1358.2	2.47168
1359.78	2.5489
1361.37	2.46439
1362.96	2.49805
1364.54	2.4313
1366.13	2.50451
1367.71	2.51936
1369.3	1.87953
1370.88	1.79991
1372.47	2.0412
1374.05	1.66772
1375.64	1.43477
1377.22	2.09748
1378.8	1.84398
1380.39	1.7678
1381.97	2.18663
1383.55	2.76189
1385.13	1.84401
1386.72	1.78039
1388.3	1.22064
1389.88	1.51605
1391.46	1.51521
1393.04	1.79353
1394.62	0.723783
1396.2	1.8156
1397.78	2.41001
1399.36	1.57547
1400.94	2.64125
1402.52	1.8045
1404.1	2.05668
1405.68	1.38015
1407.25	1.79286
1408.83	2.14754
1410.41	1.77213
1411.98	2.404
1413.56	1.77106
1415.14	2.12353
1416.71	1.90219
1418.29	1.93655
1419.87	2.79878
1421.44	2.40196
1423.02	2.55951
1424.59	2.09028
1426.16	2.11552
1427.74	2.47643
1429.31	2.3842
1430.89	3.43189
1432.46	3.68995
1434.03	3.72956
1435.6	4.2009
1437.18	4.20045
1438.75	4.29972
1440.32	5.18711
1441.89	4.18971
1443.46	4.45156
1445.03	4.81251
1446.6	5.29182
1448.17	3.68785
1449.74	5.09201
1451.31	4.05935
1452.88	3.79439
1454.45	3.64809
1456.02	4.05261
1457.59	4.14124
1459.16	3.69607
1460.72	4.27088
1462.29	3.75972
1463.86	2.93104
1465.43	3.22136
1466.99	2.60701
1468.56	2.87745
1470.13	2.97266
1471.69	2.61871
1473.26	2.58079
1474.82	2.23062
1476.38	2.37153
1477.95	2.04211
1479.51	1.90869
1481.08	2.12792
1482.64	1.26911
1484.2	0.469114
1485.77	1.9021
1487.33	1.35499
1488.89	1.56946
1490.46	1.83914
1492.02	1.57661
1493.58	1.60355
1495.14	1.74422
1496.7	1.96041
1498.26	1.22202
1499.82	1.26388
1501.38	1.07455
1502.94	0.616234
1504.5	1.0129
1506.06	1.08027
1507.62	0.779009
1509.18	1.11411
1510.73	0.944714
1512.29	0.330885
1513.85	0.449341
1515.41	1.22128
1516.96	1.474
1518.52	0.730314
1520.08	1.57932
1521.63	0.609053
1523.19	1.07393
1524.75	0.810886
1526.3	1.30944
1527.85	1.88117
1529.41	1.10018
1530.96	1.42263
1532.52	1.46061
1534.07	1.12136
1535.62	0.330832
1537.18	1.11195
1538.73	0.892307
1540.28	1.06978
1541.84	1.02105
1543.39	1.81917
1544.94	1.28043
1546.49	1.24952
1548.04	1.53736
1549.59	1.18721
1551.14	1.56838
1552.69	1.89358
1554.25	1.39748
1555.79	1.78245
1557.34	1.21813
1558.89	1.62805
1560.44	0.642033
1561.99	1.4312
1563.54	1.32692
1565.08	1.69016
1566.63	1.21395
1568.18	2.00636
1569.73	1.249
1571.27	2.00287
1572.82	1.87892
1574.37	2.38939
1575.91	1.46249
1577.46	1.39465
1579	2.11164
1580.55	1.89628
1582.09	2.46664
1583.64	1.37619
1585.18	2.19254
1586.73	2.01956
1588.27	1.69707
1589.81	1.91662
1591.35	1.63016
1592.9	2.07294
1594.44	2.30941
1595.98	2.19009
1597.52	2.18388
1599.06	2.44134
1600.61	2.81289
1602.15	3.09185
1603.69	3.18331
1605.23	2.2028
1606.77	2.60979
1608.31	1.90447
1609.85	2.07839
1611.39	2.84932
1612.93	2.48916
1614.46	2.12696
1616	2.43958
1617.54	2.17151
1619.08	2.31797
1620.61	1.94262
1622.15	1.96317
1623.69	2.3971
1625.23	2.64385
1626.76	1.97213
1628.3	2.04685
1629.83	2.56781
1631.37	2.45083
1632.9	2.29585
1634.44	2.02954
1635.97	2.26869
1637.51	2.36009
1639.04	2.19159
1640.57	1.87423
1642.11	2.67383
1643.64	3.2659
1645.17	3.33398
1646.71	2.93532
1648.24	3.72583
1649.77	3.79171
1651.3	3.30263
1652.83	2.96484
1654.36	3.01881
1655.89	2.9813
1657.42	3.85167
1658.96	3.16416
1660.48	3.56708
1662.01	3.67075
1663.54	2.92171
1665.07	3.0039
1666.6	3.1973
1668.13	3.17108
1669.66	2.74216
1671.19	2.66648
1672.71	2.39029
1674.24	2.59395
1675.77	2.61303
1677.29	2.37302
1678.82	1.68974
1680.35	2.23714
1681.87	2.24964
1683.4	1.52697
1684.92	2.01648
1686.45	1.534
1687.97	1.7677
1689.5	1.04928
1691.02	1.94328
1692.54	1.3542
1694.07	1.58872
1695.59	1.29252
1697.11	0.685566
1698.64	0.644825
1700.16	0.566893
1701.68	0.743515
1703.2	0.117016
1704.72	-0.218094
1706.25	0.774837
1707.77	0.492996
1709.29	0.592936
1710.81	0.311707
1712.33	0.41205
1713.85	0.603085
1715.37	-0.0388107
1716.89	0.423626
1718.41	-0.542711
1719.92	0.49688
1721.44	0.939596
1722.96	0.282787
1724.48	-0.0651016
1725.99	0.201826
1727.51	0.272755
1729.03	0.00342178
1730.55	-0.119207
1732.06	0.948505
1733.58	0.292336
1735.09	0.135691
1736.61	0.413755
1738.13	-0.429745
1739.64	-0.386108
1741.15	0.257151
1742.67	0.119013
1744.18	0.120075
1745.7	-0.51242
1747.21	0.437532
1748.72	0.0624943
1750.24	0.561476
1751.75	0.573195
1753.26	0.182495
1754.77	0.207848
1756.29	0.12122
1757.8	0.178614
1759.31	0.326616
1760.82	0.032999
1762.33	0.316059
1763.84	-0.303314
1765.35	-0.13065
1766.86	0.449341
1768.37	0.359875
1769.88	0.568264
1771.39	0.148022
1772.9	0.0820236
1774.4	0.0174942
1775.91	-0.0238724
1777.42	-0.119627
1778.93	0.0262966
1780.44	0.0242767
1781.94	0.189713
1783.45	0.0377445
1784.96	-0.0359821
1786.46	-0.45929
1787.97	0.0115299
1789.47	-0.0124836
1790.98	-0.0140934
1792.48	0.60708
1793.99	0.285439
1795.49	0.00135231
1797	-0.183182
1798.5	-0.28813
1800.01	0.0361595
1801.51	-0.115807
1803.01	-0.135582
1804.51	-0.264601
1806.02	-0.166615
1807.52	0.318632
1809.02	0.0657425
1810.52	0.019989
1812.02	0.553246
1813.52	0.329466
1815.02	0.197208
1816.53	0.162132
1818.03	-0.161884
1819.52	0.0734215
1821.02	-0.185608
1822.52	0.00126076
1824.02	0.227558
1825.52	-0.148209
1827.02	0.480721
1828.52	0.0888615
1830.02	0.0145836
1831.51	-0.172522
1833.01	0.0536022
1834.51	0.103298
1836.01	-0.0575695
1837.5	0.315861
1839	0.0537186
1840.49	-0.119406
1841.99	0.368694
1843.49	-0.0893269
1844.98	0.0541096
1846.48	0.251738
1847.97	0.283731
1849.47	0.208935
1850.96	-0.0716476
1852.45	-0.202677
1853.95	0.00115013
1855.44	0.46402
1856.93	0.204468
1858.42	0.321856
1859.92	0.0632286
1861.41	0.245354
1862.9	0.209684
1864.39	0.0722752
1865.88	0.0747833
1867.38	0.340975
1868.87	0.2467
1870.36	0.470474
1871.85	-0.176296
1873.34	-0.153
1874.83	0.243347
1876.32	0.374201
1877.81	0.689293
1879.29	0.729322
1880.78	0.309326
1882.27	-0.0137215
1882.53	-0.0630188
1884.03	0.197624
1885.52	0.561245
1887.01	0.295954
1888.51	0.273746
1890	0.0257435
1891.5	-0.0985374
1892.99	-0.0112953
1894.48	-0.0773468
1895.97	-0.175472
1897.47	0.00609779
1898.96	0.396286
1900.45	0.123693
1901.94	-0.0299873
1903.43	0.230679
1904.92	0.106171
1906.41	0.154142
1907.9	0.288849
1909.39	0.285656
1910.88	-0.340494
1912.37	0.284252
1913.86	0.0425644
1915.35	0.304007
1916.84	0.304708
1918.33	0.00981426
1919.81	0.164811
1921.3	-0.0268621
1922.79	0.353731
1924.28	0.129786
1925.76	0.202205
1927.25	0.709329
1928.73	0.958011
1930.22	0.583294
1931.71	0.414875
1933.19	0.122684
1934.68	0.416039
1936.16	0.377446
1937.65	0.19846
1939.13	0.243521
1940.62	0.116385
1942.1	0.146232
1943.58	0.315909
1945.07	0.193852
1946.55	0.210455
1948.03	-0.11802
1949.51	-0.103009
1951	0.271836
1952.48	-0.129683
1953.96	-0.0673933
1955.44	0.149336
1956.92	-0.423462
1958.4	-0.13626
1959.88	-0.191169
1961.36	0.012126
1962.84	0.47271
1964.32	0.247276
1965.8	0.175288
1967.28	0.358896
1968.76	0.250348
1970.24	0.00416374
1971.72	0.201962
1973.2	0.0580339
1974.67	-0.341352
1976.15	0.299809
1977.63	0.821188
1979.1	-0.206854
1980.58	-0.0599041
1982.06	0.358528
1983.54	0.198325
1985.01	0.173568
1986.49	-0.0211878
1987.96	0.292736
1989.44	0.0140705
1990.91	-0.00918579
1992.39	0.239837
1993.86	0.0508499
1995.33	0.0324478
1996.81	0.149976
1998.28	0.301147
1999.75	0.265756
2001.23	-0.0744162
2002.7	-0.415115
2004.17	0.390631
2005.65	0.623302
2007.12	0.873972
2008.59	0.301113
2010.06	-0.0847473
2011.53	0.0522633
2013	0.0883474
2014.47	-0.145563
2015.94	-0.313392
2017.41	0.307797
2018.88	0.305047
2020.35	0.738202
2021.82	0.213442
2023.29	0.277277
2024.76	0.325677
2026.23	0.694841
2027.69	0.244636
2029.16	0.400912
2030.63	0.358269
2032.1	0.48514
2033.56	0.142898
2035.03	-0.38433
2036.5	0.229756
2037.96	-0.148109
2039.43	0.0278072
2040.89	0.0524063
2042.36	0.111317
2043.83	-0.316224
2045.29	0.48584
2046.75	0.566044
2048.22	0.444748
2049.68	0.862083
2051.15	0.316907
2052.61	-0.146987
2054.07	0.532738
2055.54	0.281853
2057	0.483846
2058.46	0.616888
2059.92	-0.37897
2061.39	-0.0263586
2062.85	0.697746
2064.31	0.295734
2065.77	0.097517
2067.23	0.0185671
2068.69	0.310899
2070.15	0.0146923
2071.61	0.442437
2073.07	0.331248
2074.53	0.573206
2075.99	0.747252
2077.45	0.16285
2078.91	0.33557
2080.37	0.524327
2081.82	0.00494957
2083.28	0.359925
2084.74	0.477855
2086.2	0.594426
2087.65	-0.0299892
2089.11	0.252987
2090.57	0.232988
2092.02	0.431132
2093.48	0.0584145
2094.94	0.121699
2096.39	0.502509
2097.85	0.128006
2099.3	0.288527
2100.76	0.180703
2102.21	0.959053
2103.66	0.251602
2105.12	0.365001
2106.57	-0.570352
2108.03	-0.135736
2109.48	0.0657787
2110.93	0.132931
2112.38	-0.218746
2113.84	0.442945
2115.29	-0.0471296
2116.74	0.14373
2118.19	0.368018
2119.64	0.527846
2121.09	-0.205055
2122.54	0.0277309
2123.99	0.528145
2125.45	0.0678558
2126.89	-0.0114517
2128.34	0.156262
2129.79	0.537007
2131.24	0.252751
2132.69	0.77855
2134.14	0.426928
2135.59	-0.0883188
2137.04	-0.468507
2138.48	0.261672
2139.93	0.234667
2141.38	0.309547
2142.83	-0.0931253
2144.27	-0.0814734
2145.72	-0.0364876
2147.17	-0.356199
2148.61	-0.147135
2150.06	0.0109673
2151.5	0.0184164
2152.95	0.0408468
2154.39	0.161373
2155.84	0.165173
2157.28	0.0365829
2158.73	0.29014
2160.17	0.429913
2161.61	-0.156544
2163.06	0.33711
2164.5	-0.410481
2165.94	-0.211456
2167.38	0.120625
2168.83	0.734107
2170.27	0.447164
2171.71	0.406127
2173.15	0.0458708
2174.59	0.16585
2176.03	0.118566
2177.47	0.470672
2178.91	-0.289987
2180.36	0.530375
2181.8	-0.2107
2183.23	0.0301027
2184.67	0.00531578
2186.11	0.246814
2187.55	0.238853
2188.99	0.147752
2190.43	0.289627
2191.87	0.0149174
2193.3	0.288403
2194.74	0.50983
2196.18	-0.153957
2197.62	0.493968
2199.05	0.140759
2200.49	0.151902
2201.93	-0.00322628
2203.36	0.29086
2204.8	-0.159784
2206.23	0.402642
2207.67	0.120555
2209.1	0.186163
2210.54	0.283557
2211.97	-0.150084
2213.41	0.308226
2214.84	-0.506127
2216.27	-0.0309401
2217.71	-0.32988
2219.14	0.412339
2220.57	-0.0809822
2222.01	0.23377
2223.44	0.481259
2224.87	0.182852
2226.3	-0.3648
2227.73	-0.371665
2229.16	0.128571
2230.6	0.806931
2232.03	-0.0405159
2233.46	0.587523
2234.89	0.414286
2236.32	-0.148749
2237.75	0.303831
2239.18	0.465281
2240.61	-0.153001
2242.03	-0.132052
2243.46	0.755339
2244.89	0.485312
2246.32	0.148932
2247.75	0.478666
2249.17	0.315559
2250.6	0.24669
2252.03	0.386634
2253.46	0.102124
2254.88	-0.0513916
2256.31	0.0574484
2257.73	-0.365475
2259.16	-0.378003
2260.59	0.230668
2262.01	0.486576
2263.44	-0.229065
2264.86	0.387514
2266.29	-0.134018
2267.71	0.56274
2269.14	0.0867901
2270.56	0.439438
2271.98	0.270372
2273.4	0.23123
2274.83	-0.0847092
2276.25	0.0557499
2277.67	0.424747
2279.09	0.190855
2280.52	-0.0921688
2281.94	0.391058
2283.36	0.238094
2284.78	0.183039
2286.2	0.144635
2287.62	-0.170765
2289.04	0.0696955
2290.46	0.294639
2291.88	-0.133658
2293.3	0.206526
2294.72	0.301548
2296.14	0.560194
2297.56	-0.0489388
2298.98	0.0131741
2300.4	0.501796
2301.82	0.0402584
2303.23	-0.158775
2304.65	0.364484
2306.07	-0.212202
2307.49	-0.0834799
2308.9	-0.0705948
2310.32	0.18801
2311.73	0.0677929
2313.15	0.161346
2314.57	0.502518
2315.98	0.202975
2317.4	0.316313
2318.81	0.0678453
2320.23	0.198067
2321.64	0.343095
2323.06	0.188011
2324.47	0.243621
2325.88	0.691439
2327.3	0.575399
2328.71	0.210999
2330.12	0.506172
2331.54	0.0616741
2332.95	1.08411
2334.36	0.16587
2335.77	-0.0935249
2337.18	0.370104
2338.6	0.108459
2340.01	0.305246
2341.42	-0.189465
2342.83	0.316692
2344.24	-0.391453
2345.65	0.262062
2347.06	0.325586
2348.47	0.0125971
2349.88	0.042902
2351.29	0.464207
2352.7	0.425884
2354.1	0.19026
2355.51	0.198462
2356.92	-0.200957
2358.33	0.148603
2359.74	-0.168511
2361.14	0.716223
2362.55	0.577653
2363.96	-0.111454
2365.36	-0.18439
2366.77	0.179475
2368.18	0.317557
2369.58	-0.0106974
2370.99	-0.158969
2372.39	-0.369354
2373.8	0.178906
2375.2	-0.0613995
2376.61	-0.446899
2378.01	0.324036
2379.42	-0.161878
2380.82	-0.360699
2382.22	-0.000144958
2383.63	0.27806
2385.03	0.267262
2386.43	0.353024
2387.84	0.440081
2389.24	0.38545
2390.64	0.364887
2392.04	-0.194989
2393.44	0.0748215
2394.84	0.647894
2396.25	0.188306
2397.65	-0.0474234
2399.05	0.115136
2400.45	-0.0869522
2401.85	-0.113742
2403.25	0.478903
2404.65	0.308576
2406.05	0.200397
2407.45	0.106641
2408.84	-0.257929
2410.24	0.455216
2411.64	0.550115
2413.04	0.297883
2414.44	-0.0470772
2415.83	-0.16793
2417.23	0.235785
2418.63	0.102708
2420.02	-0.267385
2421.42	-0.368537
2422.82	0.21096
2424.21	-0.0496111
2425.61	0.260318
2427	-0.0944815
2428.4	-0.368812
2429.8	-0.578396
2431.19	0.529871
2432.58	0.242441
2433.98	0.62094
2435.37	0.187596
2436.77	0.053544
2438.16	0.139455
2439.55	0.19147
2440.95	0.321371
2442.34	0.561413
2443.73	0.197809
2445.12	0.199018
2446.51	0.168261
2447.91	0.232389
2449.3	0.106353
2450.69	-0.193377
2452.08	-0.412895
2453.47	0.0176802
2454.86	0.354505
2456.25	-0.019474
2457.64	-0.155622
2459.03	0.0243254
2460.42	0.203317
2461.81	-0.15664
2463.2	-0.075099
2464.59	0.479421
2465.98	-0.00931263
2467.36	0.133636
2468.75	0.292145
2470.14	0.00859261
2471.53	-0.338458
2472.92	0.195979
2474.3	0.445123
2475.69	-0.0150194
2477.08	0.0122023
2478.46	0.0235863
2479.85	0.113674
2481.23	0.564519
2482.62	0.356518
2484	0.398545
2485.39	0.141904
2486.77	0.352634
2488.16	0.124179
2489.54	0.19119
2490.93	-0.162436
2492.31	0.0452538
2493.69	0.192053
2495.08	-0.310805
2496.46	0.212156
2497.84	-0.054224
2499.23	0.314798
2500.61	-0.0132713
2501.99	-0.20299
2503.37	0.239143
2504.75	-0.0459957
2506.13	0.0382681
2507.52	0.337417
2508.9	-0.270929
2510.28	0.719846
2511.66	0.0220394
2513.04	0.123856
2514.42	-0.0334988
2515.8	0.13218
2517.18	-0.267102
2518.55	0.206361
2519.93	0.297582
2521.31	-0.024086
2522.69	0.0198889
2524.07	0.443776
2525.45	0.149569
2526.82	0.0685921
2528.2	-0.0572624
2529.58	0.0620747
2530.95	0.60935
2532.33	0.201738
2533.71	-0.0819988
2535.08	0.531788
2536.46	0.264309
2537.84	0.193271
2539.21	0.181473
2540.59	0.0013361
2541.96	-0.0881977
2543.34	0.839306
2544.71	0.402512
2546.08	-0.0473394
2547.46	0.445203
2548.83	0.317215
2550.2	0.0071764
2551.58	0.0605173
2552.95	0.00618172
2554.32	0.177831
2555.7	0.256964
2557.07	0.198656
2558.44	-0.0417967
2559.81	0.0366373
2561.18	0.0855541
2562.55	0.180921
2563.93	0.0801964
2565.3	0.419607
2566.67	-0.0589132
2568.04	0.250729
2569.41	0.120888
2570.78	0.142584
2572.15	0.285604
2573.51	0.474237
2574.88	0.769167
2576.25	-0.133544
2577.62	0.403891
2578.99	0.273847
2580.36	0.598125
2581.73	0.0119543
2583.09	-0.0440836
2584.46	0.202699
2585.83	0.616077
2587.19	0.195939
2588.56	-0.163208
2589.93	0.235575
2591.29	0.588642
2592.66	0.0923824
2594.02	0.367577
2595.39	0.353251
2596.75	0.488637
2598.12	0.0477371
2599.48	0.166136
2600.85	-0.0780792
2602.21	0.297923
2603.58	0.312338
2604.94	0.735051
2606.3	0.313043
2607.67	-0.0187101
2609.03	-0.00485229
2610.39	0.308333
2611.76	0.257751
2613.12	0.0249739
2614.48	0.151936
2615.84	0.038126
2617.2	-0.12007
2618.56	0.516719
2619.92	0.375519
2621.28	0.0861893
2622.65	-0.0674257
2624.01	0.406669
2625.37	0.148852
2626.72	0.263777
2628.08	0.3333
2629.44	0.566009
2630.8	-0.198809
2632.16	0.033433
2633.52	0.235513
2634.88	0.511418
2636.24	-0.221612
2637.59	0.00967884
2638.95	0.107417
2640.31	0.279204
2641.67	0.451137
2643.02	0.0914364
2644.38	0.0720396
2645.74	0.11155
2647.09	0.813724
2648.45	-0.121294
2649.8	0.356757
2651.16	0.332958
2652.51	0.249962
2653.87	0.431555
2655.22	0.20358
2656.58	-0.432374
2657.93	0.0759535
2659.29	0.40952
2660.64	0.23164
2661.99	0.696721
2663.35	0.41543
2664.7	0.673233
2666.05	0.0689116
2667.41	0.20802
2668.76	0.303061
2670.11	0.398376
2671.46	0.50892
2672.81	0.0972404
2674.16	0.253378
2675.51	0.671515
2676.87	0.800014
2678.22	0.131799
2679.57	0.204767
2680.92	0.0763626
2682.27	-0.224165
2683.62	0.144084
2684.97	0.296399
2686.31	0.435028
2687.66	0.442848
2689.01	0.303612
2690.36	0.103625
2691.71	0.423349
2693.06	0.33422
2694.4	-0.118876
2695.75	0.457189
2697.1	0.121048
2698.45	0.525694
2699.79	0.715654
2701.14	0.358152
2702.49	0.625716
2703.83	0.561857
2705.18	-0.110131
2706.52	0.189116
2707.87	0.691361
2709.21	0.00300598
2710.56	0.0977163
2711.9	0.264692
2713.25	-0.0625105
2714.59	0.423964
2715.94	0.154544
2717.28	0.611946
2718.62	0.749116
2719.97	0.216405
2721.31	0.890711
2722.65	0.370887
2723.99	0.490677
2725.34	0.667994
2726.68	0.670026
2728.02	0.45323
2729.36	0.250637
2730.7	0.0624094
2732.04	0.485204
2733.39	0.340698
2734.73	0.574671
2736.07	0.852553
2737.41	0.505227
2738.75	0.448755
2740.08	0.610021
2741.43	0.668704
2742.76	0.173919
2744.1	0.404931
2745.44	0.605746
2746.78	0.471719
2748.12	0.192347
2749.46	0.145419
2750.79	0.707952
2752.13	0.197631
2753.47	0.36918
2754.81	-0.0241547
2756.14	0.205754
2757.48	0.0158663
2758.81	0.709496
2760.15	-0.174129
2761.49	0.173309
2762.82	0.0438967
2764.16	-0.0416164
2765.49	0.393714
2766.83	0.17724
2768.16	-0.286489
2769.5	0.477112
2770.83	0.327293
2772.16	0.175522
2773.5	-0.381648
2774.83	0.113699
2776.17	0.190389
2777.5	0.468991
2778.83	-0.201084
2780.16	-0.0502968
2781.5	-0.114645
2782.83	0.639238
2784.16	-0.21422
2785.49	-0.407316
2786.82	0.05896
2788.15	0.0101137
2789.49	-0.0517969
2790.82	-0.0121689
2792.15	-0.343132
2793.48	0.39888
2794.81	0.168773
2796.14	-0.20463
2797.46	-0.307257
2798.79	0.0747995
2800.12	-0.000825882
2801.45	-0.190916
2802.78	0.317521
2804.11	-0.10126
2805.44	0.19186
2806.76	0.341344
2808.09	0.0629396
2809.42	0.168019
2810.75	0.173572
2812.07	-0.0753851
2813.4	0.00390434
2814.73	-0.042264
2816.05	-0.0153332
2817.38	0.268422
2818.7	0.0711632
2820.03	-0.267817
2821.36	0.087018
2822.68	-0.0552197
2824.01	-6.67572e-006
2825.33	-0.101153
2826.65	-0.188025
2827.98	0.632048
2829.3	0.249445
2830.63	0.363091
2831.95	0.845097
2833.27	0.279512
2834.6	0.704271
2835.92	0.547941
2837.24	1.52276
2838.56	1.03943
2839.88	1.57423
2841.21	2.00995
2842.53	2.7006
2843.85	2.65722
2845.17	2.30418
2846.49	3.0404
2847.81	2.74556
2849.13	2.70515
2850.45	2.80558
2851.77	3.01826
2853.09	2.84848
2854.41	3.29986
2855.73	3.75079
2857.05	3.74952
2858.37	4.11558
2859.69	4.14257
2861	4.39518
2862.32	4.7036
2863.64	5.26528
2864.96	5.47345
2866.28	5.38523
2867.59	5.87575
2868.91	6.02847
2870.23	6.84449
2871.54	6.43426
2872.86	6.78469
2874.17	7.21812
2875.49	6.74785
2876.81	6.82499
2878.12	6.91461
2879.44	6.56764
2880.75	6.62927
2882.07	6.79067
2883.38	6.39211
2884.69	7.00647
2886.01	6.63901
2887.32	6.69289
2888.63	6.57758
2889.95	7.20437
2891.26	7.02993
2892.57	7.45717
2893.89	7.36541
2895.2	7.21842
2896.51	7.47896
2897.82	7.25152
2899.13	7.24992
2900.44	7.30573
2901.76	7.81002
2903.07	7.3355
2904.38	8.28798
2905.69	7.78629
2907	8.47455
2908.31	8.5629
2909.62	8.06519
2910.93	9.28966
2912.24	9.11489
2913.55	9.75064
2914.85	9.72586
2916.16	10.1738
2917.47	10.5347
2918.78	10.7675
2920.09	10.1327
2921.4	11.0236
2922.7	10.8402
2924.01	11.2185
2925.32	11.5431
2926.62	11.4496
2927.93	11.2024
2929.24	11.4298
2930.54	11.9078
2931.85	11.5461
2933.15	11.9948
2934.46	11.8562
2935.76	11.6621
2937.07	11.3704
2938.37	10.8556
2939.68	10.2995
2940.98	10.8482
2942.29	10.5182
2943.59	9.46357
2944.89	9.7251
2946.2	8.92603
2947.5	8.75704
2948.8	9.23136
2950.11	8.4439
2951.41	7.457
2952.71	7.97911
2954.01	7.53271
2955.32	6.91785
2956.62	7.06046
2957.92	6.98252
2959.22	7.34316
2960.52	6.60213
2961.82	7.2795
2963.12	6.7106
2964.42	6.88404
2965.72	5.87531
2967.02	6.01532
2968.32	6.01272
2969.62	5.57296
2970.92	5.45633
2972.22	5.60745
2973.51	4.81638
2974.81	5.62963
2976.11	5.45668
2977.41	5.32383
2978.71	4.21665
2980	4.88074
2981.3	4.2618
2982.6	4.72548
2983.9	4.10681
2985.19	4.09474
2986.49	3.77602
2987.78	3.58621
2989.08	3.74936
2990.38	3.29465
2991.67	3.17646
2992.97	3.02853
2994.26	2.79436
2995.56	2.54451
2996.85	2.51837
2998.14	2.18323
2999.44	1.66645
3000.73	1.97822
3002.03	1.32358
3003.32	2.04324
3004.61	1.16575
3005.91	1.29672
3007.2	1.34272
3008.49	0.967727
3009.78	0.913457
3011.07	0.928041
3012.37	0.551096
3013.66	0.20269
3014.95	0.663992
3016.24	0.401364
3017.53	0.070632
3018.82	0.228095
3020.11	0.357758
3021.4	0.319889
3022.69	0.058671
3023.98	0.0324087
3025.27	-0.28598
3026.56	0.199306
3027.85	0.0617638
3029.14	-0.115306
3030.43	0.0969925
3031.71	0.297488
3033	0.306207
3034.29	-0.222754
3035.58	0.420564
3036.87	0.0824747
3038.15	-0.175026
3039.44	0.157057
3040.73	0.170015
3042.01	-0.0104837
3043.3	0.124756
3044.59	0.0419836
3045.87	-0.10644
3047.16	0.0765514
3048.44	0.331081
3049.73	0.233813
3051.01	0.398334
3052.3	0.646001
3053.58	0.252476
3054.87	0.144676
3056.15	0.594627
3057.43	0.415621
3058.72	0.153963
3060	0.00123787
3061.29	0.488891
3062.57	0.84158
3063.85	0.285226
3065.13	0.356874
3066.42	0.158798
3067.7	0.261412
3068.98	0.405524
3070.26	0.182158
3071.54	0.338444
3072.82	-0.268495
3074.11	0.101995
3075.39	0.253531
3076.67	-0.0843401
3077.95	0.12177
3079.23	0.261556
3080.51	-0.0305023
3081.79	-0.170879
3083.07	-0.0651951
3084.35	0.0280733
3085.63	0.0401564
3086.9	-0.00257301
3088.18	0.415286
3089.46	-0.0635509
3090.74	-0.298531
3092.02	-0.00439167
3093.29	-0.116932
3094.57	-0.215301
3095.85	0.18856
3097.13	-0.166593
3098.4	-0.291143
3099.68	0.153416
3100.95	0.24556
3102.23	0.134752
3103.51	-0.327447
3104.78	0.348424
3106.06	-0.328063
3107.33	0.160813
3108.61	0.272404
3109.88	0.00670719
3111.16	0.324651
3112.43	0.46798
3113.71	0.381826
3114.98	0.0517054
3116.25	0.154783
3117.53	0.500984
3118.8	0.425319
3120.07	0.660165
3121.35	0.120931
3122.62	0.70622
3123.89	0.464604
3125.16	0.616298
3126.44	0.890463
3127.71	0.583711
3128.98	1.02197
3130.25	0.946883
3131.52	0.62884
3132.79	0.702872
3134.06	0.695461
3135.33	0.336514
3136.6	0.476519
3137.87	0.764147
3139.14	0.929769
3140.41	0.67785
3141.68	1.13935
3142.95	0.633341
3144.22	0.773485
3145.49	1.02179
3146.76	0.909022
3148.02	1.13251
3149.29	1.35676
