200.398	0.789768
202.213	0.804379
204.027	0.826626
205.843	-0.073452
207.657	0.486622
209.47	0.826889
211.283	0.533661
213.097	0.263012
214.909	0.185045
216.721	-0.232992
218.533	-0.650206
220.344	-0.194412
222.157	0.383434
223.967	0.430441
225.777	0.0677204
227.587	-0.366863
229.396	-0.0288467
231.205	0.13913
233.016	0.668409
234.824	0.884399
236.632	1.53639
238.439	0.938633
240.247	0.538237
242.053	2.04661
243.86	2.06323
245.666	2.32136
247.474	2.48053
249.279	3.50417
251.085	3.58019
252.889	3.9404
254.694	4.68277
256.498	4.72433
258.301	5.0086
260.105	5.05536
261.908	4.19094
263.71	4.14927
265.513	3.55581
267.315	4.45724
269.116	2.99626
270.918	3.22096
272.718	3.32303
274.519	3.18134
276.319	3.0125
278.119	2.28601
279.918	2.4235
281.718	1.78679
283.516	1.62861
285.315	1.97266
287.113	1.30651
288.911	0.473848
290.708	1.15326
292.505	1.21154
294.302	0.0526428
296.098	1.19287
297.894	0.374384
299.69	1.37324
301.485	0.460474
303.278	1.00337
305.073	0.302742
306.867	0.865335
308.661	0.330332
310.454	0.535427
312.247	0.0993614
314.04	-0.0240822
315.833	-0.120523
317.623	-0.333015
319.415	1.19612
321.206	0.273727
322.997	1.2119
324.788	0.290833
326.579	0.514944
328.367	0.691177
330.156	0.53187
331.946	0.968338
333.735	0.68441
335.523	0.54022
337.31	-0.110481
339.098	0.00100136
340.885	0.277132
342.673	-0.0221252
344.458	-0.249596
346.244	0.12105
348.03	0.229977
349.816	0.268129
351.6	0.258615
353.385	-0.658552
355.17	-0.169502
356.953	-0.0883904
358.737	0.0380325
360.521	0.471889
362.304	-0.0245934
364.085	0.619713
365.868	0.00251389
367.65	0.0021801
369.431	0.427172
371.212	1.25241
372.994	1.03349
374.773	0.129017
376.554	0.619389
378.332	0.425737
380.112	0.563829
381.892	1.29215
383.669	1.08086
385.448	0.59008
387.225	1.27687
389.003	1.30747
390.781	1.05805
392.557	2.07836
394.334	1.80815
396.109	1.67958
397.885	2.60811
399.66	2.80832
401.436	2.67891
403.211	3.06501
404.984	2.81547
406.759	2.82283
408.532	2.87594
410.306	2.69363
412.078	3.6614
413.851	3.43299
415.623	3.25302
417.395	3.98983
419.166	3.8364
420.938	3.96519
422.708	4.32831
424.477	4.43187
426.248	3.92313
428.017	2.21545
429.788	1.58682
431.556	1.4511
433.326	1.59759
435.093	0.829403
436.86	0.788748
438.629	0.441792
440.395	1.14832
442.163	0.560711
443.929	0.579311
445.694	-0.0145378
447.461	0.841513
449.226	0.19854
450.99	0.958632
452.756	-0.00951958
454.52	0.120607
456.285	0.320383
458.048	-0.411968
459.811	-0.212307
461.573	-0.430449
463.337	0.632486
465.099	0.049057
466.86	0.0748253
468.623	0.0355797
470.384	0.534508
472.144	0.94212
473.906	-0.00140953
475.666	0.238991
477.425	-0.33963
479.184	0.243164
480.944	0.451353
482.703	0.45006
484.461	0.311012
486.218	0.431534
487.975	0.0897942
489.734	0.427643
491.491	0.511103
493.247	0.61928
495.003	0.236946
496.759	0.462353
498.516	-0.296364
500.271	0.115276
502.025	0.338737
503.779	0.842842
505.533	1.08706
507.287	1.44662
509.042	0.274549
510.795	0.463642
512.547	0.249928
514.299	0.904146
516.051	0.920485
517.803	1.49899
519.554	1.65202
521.305	0.464138
523.055	0.849976
524.805	0.483877
526.555	1.3145
528.307	1.58154
530.056	0.981026
531.805	1.80915
533.553	1.27716
535.301	1.16472
537.049	1.09659
538.797	0.582359
540.544	0.346886
542.291	1.04218
544.037	0.455456
545.783	1.00864
547.529	0.887712
549.275	1.09205
551.02	0.578451
552.765	1.31539
554.509	0.965057
556.253	-0.0996628
557.997	0.0836601
559.738	0.613102
561.482	1.07351
563.224	0.545141
564.967	0.524288
566.709	-0.483141
568.451	0.279747
570.192	0.883097
571.933	1.1444
573.674	0.00938225
575.415	-0.136023
577.153	-0.163803
578.893	-0.281097
580.632	0.521564
582.371	0.130373
584.11	0.404587
585.849	-0.265709
587.587	0.0735645
589.323	-0.463448
591.06	0.470284
592.797	-0.29953
594.534	-0.172348
596.271	0.000886917
598.005	0.427151
599.741	-0.642633
601.476	-0.402466
603.211	0.157415
604.944	0.50746
606.679	0.119457
608.413	0.0518532
610.147	-0.314356
611.878	-0.174713
613.611	0.287102
615.344	0.130949
617.077	-0.276768
618.807	0.895222
620.539	0.667833
622.27	-0.957058
623.999	-0.180973
625.73	-0.251347
627.461	0.205219
629.189	-0.133928
630.919	0.307022
632.648	0.135548
634.376	0.559458
636.105	0.343864
637.833	0.102398
639.559	0.632172
641.287	0.768269
643.013	0.808443
644.74	0.390669
646.467	0.997732
648.192	-0.279497
649.918	0.26786
651.642	1.18545
653.368	0.0422516
655.091	0.0866699
656.816	1.09165
658.538	0.68741
660.263	0.0991306
661.987	0.443331
663.708	0.852488
665.432	1.32615
667.153	1.29335
668.875	0.161154
670.596	0.242041
672.318	0.94433
674.037	0.690121
675.759	0.554136
677.478	0.466169
679.196	0.1717
680.917	0.311756
682.635	0.126793
684.355	0.00682831
686.072	-0.185905
687.791	0.608807
689.508	0.180922
691.224	0.00503159
692.942	0.334761
694.658	0.202477
696.376	0.183584
698.091	-0.0445957
699.805	0.530535
701.522	0.964939
703.236	0.316832
704.95	-0.193926
706.665	0.0524292
708.379	-0.138039
710.093	0.816727
711.806	0.349823
713.518	-0.414217
715.23	0.331015
716.943	0.481092
718.655	0.996071
720.366	-0.153368
722.078	-0.13921
723.788	-0.602762
725.498	0.230076
727.208	0.470392
728.919	0.25561
730.628	-0.639679
732.337	0.708292
734.045	0.695631
735.755	-0.401932
737.463	0.264597
739.17	0.750555
740.877	-0.182749
742.584	-0.256588
744.292	0.00964165
745.998	0.323097
747.704	0.548801
749.409	0.146986
751.114	-0.274973
752.819	0.205019
754.526	-0.0324039
756.23	0.857882
757.934	1.39144
759.637	1.04965
761.34	0.258589
763.043	1.00163
764.746	0.322872
766.448	0.65802
768.152	0.380007
769.853	0.912035
771.554	0.830009
773.255	1.19765
774.956	1.49648
776.656	1.57008
778.356	1.01289
780.056	0.774912
781.755	1.08182
783.454	0.642462
785.153	1.10647
786.851	0.910017
788.549	1.61333
790.247	1.81241
791.944	1.55408
793.641	0.277004
795.338	0.490614
797.034	1.5843
798.73	0.899981
800.426	0.647444
802.121	0.240219
803.817	1.34134
805.511	0.867764
807.206	1.15715
808.9	0.994995
810.592	1.01049
812.286	1.67454
813.979	1.26095
815.672	0.668467
817.364	1.75448
819.057	0.514441
820.748	0.951553
822.44	1.58942
824.129	0.956858
825.82	1.41944
827.511	1.10577
829.201	1.04215
830.891	1.13986
832.581	1.33187
834.269	0.770102
835.958	0.655676
837.646	0.76405
839.335	0.937559
841.023	0.482977
842.709	0.673702
844.396	0.260201
846.084	0.942823
847.77	0.824009
849.455	1.24638
851.141	0.128904
852.827	0.783508
854.513	1.14955
856.196	0.505404
857.881	0.824854
859.566	1.00691
861.248	0.217766
862.932	0.596272
864.616	0.296703
866.297	0.40107
867.98	0.774914
869.663	0.742125
871.343	0.776438
873.026	0.810371
874.707	0.189816
876.387	0.381538
878.068	0.257351
879.747	0.381285
881.428	0.0305328
883.108	0.0848618
884.786	0.814531
886.465	0.999771
888.143	0.595442
889.822	0.301273
891.498	-0.243134
893.177	-0.203653
894.855	0.171196
896.53	0.58844
898.208	0.621191
899.883	0.248402
901.56	0.726339
903.234	0.127981
904.91	0.201147
906.584	0.698662
908.26	0.571777
909.933	0.402279
911.608	-0.00999069
913.28	0.624451
914.955	-0.740078
916.627	1.29218
918.298	0.173403
919.972	0.5625
921.643	0.774935
923.315	0.414305
924.986	0.366432
926.656	0.145342
928.328	-0.160809
929.997	0.418182
931.668	0.79966
933.337	0.387415
935.006	0.30648
936.676	0.0719147
938.344	0.21386
940.012	-0.259558
941.681	0.504448
943.348	0.431719
945.014	0.513262
946.683	0.438286
948.349	0.315832
950.015	0.498859
951.682	-0.114819
953.347	0.0659065
955.012	0.624121
956.676	0.569893
958.343	-0.294523
960.006	0.257996
961.67	0.54917
963.333	0.641752
964.998	0.28907
966.661	0.594923
968.323	0.276091
969.985	0.793983
971.649	0.358803
973.31	0.742815
974.971	-0.108948
976.632	0.0156765
978.293	0.674072
979.953	0.803106
981.615	0.931547
983.274	0.304852
984.933	0.515696
986.592	-0.29553
988.251	0.483345
989.909	1.14854
991.567	0.485672
993.225	0.728788
994.884	1.28079
996.541	1.06024
998.198	2.03056
999.855	2.97725
1001.51	1.47749
1003.17	2.02549
1004.82	0.988661
1006.48	1.13972
1008.13	0.522192
1009.79	0.959471
1011.44	0.695242
1013.1	0.366478
1014.75	0.520754
1016.4	0.544264
1018.06	0.306162
1019.71	0.419737
1021.36	0.731977
1023.01	0.740185
1024.66	0.837711
1026.32	1.52641
1027.97	0.22673
1029.62	0.979788
1031.27	2.01407
1032.92	0.577477
1034.57	0.949995
1036.22	1.3847
1037.87	1.27238
1039.52	0.898777
1041.16	2.37585
1042.81	2.81017
1044.46	2.85664
1046.11	3.42854
1047.76	2.61447
1049.4	3.86723
1051.05	3.73291
1052.7	4.92562
1054.34	5.83726
1055.99	4.59762
1057.63	4.09593
1059.28	4.28873
1060.92	3.02323
1062.57	2.90837
1064.21	3.05244
1065.85	1.1507
1067.5	1.74693
1069.14	1.55862
1070.78	1.26049
1072.43	1.24451
1074.07	0.426624
1075.71	0.999531
1077.35	0.66395
1078.99	0.265915
1080.63	0.997042
1082.27	0.730726
1083.91	1.19998
1085.55	1.05888
1087.19	0.848791
1088.83	0.699749
1090.47	0.287724
1092.11	0.522512
1093.75	-0.151203
1095.39	0.018055
1097.03	0.231661
1098.66	0.318325
1100.3	1.09712
1101.94	0.458818
1103.57	0.792542
1105.21	-0.2693
1106.84	-0.598455
1108.48	-0.110849
1110.11	-0.549948
1111.75	0.12587
1113.38	0.368313
1115.02	0.092701
1116.65	0.0307789
1118.29	0.35495
1119.92	-0.176979
1121.55	1.13513
1123.19	0.436226
1124.82	0.445929
1126.45	0.671249
1128.08	0.448946
1129.71	0.677168
1131.34	1.01339
1132.97	-0.573774
1134.6	-1.00662
1136.23	0.440304
1137.86	-0.423082
1139.49	0.1215
1141.12	0.599569
1142.75	-0.460329
1144.38	-0.857758
1146.01	0.174774
1147.64	0.334637
1149.26	0.155266
1150.89	0.360376
1152.52	-0.115982
1154.15	0.407831
1155.77	0.973101
1157.4	0.324999
1159.02	-0.00300217
1160.65	0.351307
1162.27	0.0273228
1163.9	-0.294605
1165.52	0.107412
1167.15	0.253868
1168.77	0.12187
1170.39	-0.310959
1172.02	0.633657
1173.64	0.0237198
1175.26	0.451662
1176.89	0.305422
1178.51	-0.200336
1180.13	-0.555841
1181.75	0.106245
1183.37	0.324903
1184.99	0.311007
1186.61	-0.0214081
1188.23	-0.0611382
1189.85	0.422249
1191.47	-0.173027
1193.09	0.638803
1194.71	0.606855
1196.33	0.365299
1197.94	0.482143
1199.56	0.769482
1201.18	0.496857
1202.8	1.33671
1204.41	0.908007
1206.03	0.546679
1207.65	1.52344
1209.26	0.560696
1210.88	1.2443
1212.49	1.25689
1214.11	1.72327
1215.72	0.934896
1217.34	1.35061
1218.95	1.70091
1220.57	1.34432
1222.18	1.38386
1223.79	0.990763
1225.41	1.90585
1227.02	1.82972
1228.63	1.73599
1230.24	2.12058
1231.85	2.4662
1233.47	1.9256
1235.08	2.25579
1236.69	2.31991
1238.3	1.78677
1239.91	1.1308
1241.52	2.02621
1243.13	1.78353
1244.74	1.66332
1246.34	1.83068
1247.95	2.09934
1249.56	2.92495
1251.17	2.11532
1252.78	2.34056
1254.38	0.953955
1255.99	1.76209
1257.6	1.80755
1259.2	2.04171
1260.81	1.92604
1262.42	2.30833
1264.02	1.86238
1265.63	1.91265
1267.23	2.43817
1268.84	2.36069
1270.44	1.94921
1272.04	2.80024
1273.65	1.16108
1275.25	0.950605
1276.85	2.89342
1278.46	1.37382
1280.06	1.75904
1281.66	1.27402
1283.26	1.47229
1284.86	2.0437
1286.46	1.93438
1288.07	1.51726
1289.67	1.55686
1291.27	1.65955
1292.87	1.47282
1294.47	2.46218
1296.06	1.87881
1297.66	2.92332
1299.26	2.5189
1300.86	2.91578
1302.46	2.60889
1304.06	3.43232
1305.65	2.36107
1307.25	2.25612
1308.85	2.47902
1310.44	2.74235
1312.04	2.92402
1313.64	2.80017
1315.23	3.27125
1316.83	2.17153
1318.42	3.21696
1320.02	2.73163
1321.61	2.63215
1323.2	2.40751
1324.8	2.56576
1326.39	2.86268
1327.99	3.01554
1329.58	3.04765
1331.17	2.5572
1332.76	3.2445
1334.36	2.19921
1335.95	3.56019
1337.54	3.10581
1339.13	3.79954
1340.72	2.33346
1342.31	3.03854
1343.9	2.29053
1345.49	2.44518
1347.08	3.24119
1348.67	2.41662
1350.26	2.27934
1351.85	1.50776
1353.43	1.96088
1355.02	2.81631
1356.61	2.37332
1358.2	2.38915
1359.78	2.56268
1361.37	2.43432
1362.96	2.32414
1364.54	1.93418
1366.13	1.76431
1367.71	2.77122
1369.3	1.9883
1370.88	1.88558
1372.47	1.98484
1374.05	2.50439
1375.64	2.16985
1377.22	2.15393
1378.8	2.23646
1380.39	2.476
1381.97	1.45937
1383.55	2.28992
1385.13	2.12374
1386.72	1.85733
1388.3	1.75032
1389.88	1.82342
1391.46	1.24357
1393.04	1.9949
1394.62	1.97324
1396.2	2.10986
1397.78	2.26474
1399.36	1.38693
1400.94	2.11207
1402.52	2.73617
1404.1	1.95482
1405.68	3.15274
1407.25	3.97595
1408.83	3.89166
1410.41	2.52477
1411.98	1.75104
1413.56	2.59523
1415.14	2.66723
1416.71	2.44143
1418.29	2.76681
1419.87	2.8955
1421.44	2.51445
1423.02	1.88122
1424.59	2.23594
1426.16	3.34134
1427.74	2.75536
1429.31	3.17265
1430.89	2.60383
1432.46	3.88237
1434.03	3.70224
1435.6	4.44546
1437.18	3.81238
1438.75	4.2624
1440.32	4.93079
1441.89	4.93319
1443.46	3.36505
1445.03	4.86378
1446.6	4.12238
1448.17	4.87517
1449.74	4.88172
1451.31	4.88937
1452.88	4.70165
1454.45	4.67214
1456.02	4.97707
1457.59	3.94247
1459.16	3.92816
1460.72	3.53601
1462.29	4.28083
1463.86	4.31331
1465.43	4.04828
1466.99	3.82192
1468.56	2.83086
1470.13	2.76507
1471.69	2.40759
1473.26	2.83717
1474.82	3.07227
1476.38	2.01422
1477.95	2.03493
1479.51	2.29075
1481.08	2.48748
1482.64	2.13526
1484.2	1.6653
1485.77	1.82165
1487.33	2.6422
1488.89	1.99099
1490.46	1.78639
1492.02	1.57733
1493.58	0.934151
1495.14	1.12745
1496.7	1.27887
1498.26	0.884449
1499.82	0.900297
1501.38	1.55895
1502.94	2.12183
1504.5	1.92997
1506.06	1.50683
1507.62	1.08315
1509.18	1.23771
1510.73	0.73337
1512.29	1.26902
1513.85	1.86019
1515.41	2.62311
1516.96	1.56165
1518.52	1.15635
1520.08	0.925732
1521.63	1.19356
1523.19	2.30121
1524.75	0.731699
1526.3	0.136356
1527.85	1.23536
1529.41	1.17012
1530.96	0.972086
1532.52	1.66679
1534.07	1.62307
1535.62	2.03569
1537.18	1.93934
1538.73	1.54279
1540.28	1.41186
1541.84	1.86544
1543.39	0.435902
1544.94	1.35894
1546.49	1.15272
1548.04	1.32182
1549.59	1.52793
1551.14	2.22088
1552.69	1.45445
1554.25	1.99972
1555.79	2.06159
1557.34	1.38062
1558.89	1.63744
1560.44	2.23408
1561.99	1.97608
1563.54	1.36613
1565.08	1.57831
1566.63	2.20138
1568.18	2.24555
1569.73	2.25156
1571.27	2.36873
1572.82	2.5786
1574.37	1.23876
1575.91	2.56841
1577.46	2.74114
1579	2.24269
1580.55	2.21231
1582.09	1.586
1583.64	1.83921
1585.18	1.92602
1586.73	1.45312
1588.27	2.36426
1589.81	2.32145
1591.35	2.31509
1592.9	2.08301
1594.44	2.33712
1595.98	2.27294
1597.52	2.41577
1599.06	2.78516
1600.61	3.5504
1602.15	2.98495
1603.69	2.90716
1605.23	1.83215
1606.77	2.35085
1608.31	3.14751
1609.85	3.16849
1611.39	2.3575
1612.93	2.59443
1614.46	2.97833
1616	2.66669
1617.54	2.33766
1619.08	2.14265
1620.61	2.28817
1622.15	2.28686
1623.69	2.4372
1625.23	1.63299
1626.76	2.30599
1628.3	2.35844
1629.83	2.61349
1631.37	2.67902
1632.9	1.8283
1634.44	2.60322
1635.97	2.24092
1637.51	2.32859
1639.04	1.97017
1640.57	2.63718
1642.11	2.4827
1643.64	2.66114
1645.17	2.53897
1646.71	2.74964
1648.24	2.81062
1649.77	3.0951
1651.3	3.01022
1652.83	3.39193
1654.36	2.9045
1655.89	2.90079
1657.42	2.48937
1658.96	2.70636
1660.48	2.97588
1662.01	3.59332
1663.54	2.6729
1665.07	3.08251
1666.6	2.49557
1668.13	2.39134
1669.66	2.60386
1671.19	2.46939
1672.71	2.65063
1674.24	2.48299
1675.77	3.08825
1677.29	2.36628
1678.82	2.26799
1680.35	1.81814
1681.87	1.33041
1683.4	1.66885
1684.92	1.80514
1686.45	1.75859
1687.97	1.03492
1689.5	1.13725
1691.02	1.64284
1692.54	1.78211
1694.07	1.84794
1695.59	1.25521
1697.11	1.44825
1698.64	0.5812
1700.16	1.33853
1701.68	0.871841
1703.2	0.933081
1704.72	1.24799
1706.25	0.815393
1707.77	1.74634
1709.29	0.550343
1710.81	1.2984
1712.33	1.32029
1713.85	0.581535
1715.37	1.38293
1716.89	1.47745
1718.41	-0.0731602
1719.92	0.509544
1721.44	0.496204
1722.96	0.772511
1724.48	1.24878
1725.99	1.47524
1727.51	0.768457
1729.03	0.89213
1730.55	0.190218
1732.06	0.774961
1733.58	0.505096
1735.09	0.312601
1736.61	0.852892
1738.13	1.15881
1739.64	-0.36829
1741.15	0.54183
1742.67	0.0793037
1744.18	0.0248833
1745.7	0.210382
1747.21	-0.211338
1748.72	-0.225986
1750.24	0.406601
1751.75	0.372114
1753.26	0.279451
1754.77	0.320623
1756.29	0.110886
1757.8	0.24505
1759.31	0.0470448
1760.82	0.0124035
1762.33	0.767519
1763.84	-0.123871
1765.35	0.545473
1766.86	0.335695
1768.37	0.07197
1769.88	0.639599
1771.39	0.768665
1772.9	0.31568
1774.4	-0.03508
1775.91	0.7159
1777.42	0.54324
1778.93	0.272808
1780.44	0.799145
1781.94	0.811806
1783.45	0.527756
1784.96	0.160824
1786.46	0.226686
1787.97	0.763474
1789.47	0.0123596
1790.98	0.716116
1792.48	0.640661
1793.99	0.342678
1795.49	0.548014
1797	0.987587
1798.5	0.668699
1800.01	0.0441494
1801.51	0.710722
1803.01	0.262283
1804.51	0.751278
1806.02	0.284939
1807.52	0.444233
1809.02	0.365337
1810.52	0.886568
1812.02	0.537006
1813.52	0.0675182
1815.02	0.358257
1816.53	0.616194
1818.03	0.193495
1819.52	0.487162
1821.02	0.498985
1822.52	0.58148
1824.02	0.31008
1825.52	0.194342
1827.02	-0.243807
1828.52	0.464039
1830.02	0.551411
1831.51	0.601576
1833.01	0.37925
1834.51	0.788069
1836.01	0.248814
1837.5	0.388397
1839	0.391132
1840.49	0.544907
1841.99	0.496401
1843.49	0.250134
1844.98	0.168797
1846.48	0.740906
1847.97	0.670839
1849.47	0.575087
1850.96	0.834688
1852.45	0.465113
1853.95	0.196402
1855.44	0.097023
1856.93	0.0251579
1858.42	0.929457
1859.92	0.3902
1861.41	0.431179
1862.9	0.929499
1864.39	0.244419
1865.88	0.4928
1867.38	0.324156
1868.87	0.488464
1870.36	-0.133909
1871.85	0.246059
1873.34	0.185421
1874.83	0.816889
1876.32	-0.106243
1877.81	-0.178596
1879.29	0.569422
1880.78	-0.211489
1882.27	0.393496
1882.53	0.566544
1884.03	0.001091
1885.52	0.653566
1887.01	-0.160173
1888.51	0.226595
1890	0.509176
1891.5	0.411884
1892.99	0.823696
1894.48	0.875847
1895.97	0.63714
1897.47	0.296555
1898.96	0.947054
1900.45	-0.110203
1901.94	0.254246
1903.43	0.213356
1904.92	-0.405397
1906.41	0.833212
1907.9	-0.186979
1909.39	0.930576
1910.88	0.505867
1912.37	0.274954
1913.86	0.0111809
1915.35	0.250675
1916.84	1.02657
1918.33	0.743216
1919.81	0.164165
1921.3	0.382008
1922.79	1.05119
1924.28	-0.285471
1925.76	-0.12966
1927.25	-0.21306
1928.73	0.432655
1930.22	0.818703
1931.71	-0.425407
1933.19	-0.0459576
1934.68	0.795517
1936.16	0.0741787
1937.65	-0.252153
1939.13	0.647381
1940.62	-0.99161
1942.1	-0.227373
1943.58	-0.219797
1945.07	0.0662403
1946.55	-0.698343
1948.03	0.139622
1949.51	0.0618095
1951	-0.363199
1952.48	0.00113487
1953.96	0.105406
1955.44	-0.0827656
1956.92	0.176949
1958.4	0.0951691
1959.88	1.25079
1961.36	-0.559349
1962.84	0.92351
1964.32	0.245876
1965.8	0.132515
1967.28	0.308207
1968.76	-0.305042
1970.24	0.516594
1971.72	-0.200918
1973.2	-0.149456
1974.67	0.158064
1976.15	0.755457
1977.63	0.415804
1979.1	0.570568
1980.58	0.33383
1982.06	0.572866
1983.54	0.606867
1985.01	0.164606
1986.49	-0.396435
1987.96	-0.363487
1989.44	-0.397348
1990.91	0.0784893
1992.39	0.742596
1993.86	-0.450474
1995.33	0.675026
1996.81	-0.530231
1998.28	-0.0797329
1999.75	-0.711241
2001.23	0.562881
2002.7	0.60313
2004.17	0.120354
2005.65	0.0434685
2007.12	-0.216373
2008.59	0.722279
2010.06	0.939224
2011.53	0.130909
2013	-0.592859
2014.47	0.146461
2015.94	0.075655
2017.41	0.389063
2018.88	1.0696
2020.35	0.302889
2021.82	1.11512
2023.29	0.58478
2024.76	0.0908642
2026.23	0.607246
2027.69	0.792355
2029.16	0.176908
2030.63	0.169231
2032.1	0.617552
2033.56	-0.107489
2035.03	0.0738049
2036.5	0.287703
2037.96	-0.659231
2039.43	0.325069
2040.89	0.0152454
2042.36	-0.142229
2043.83	0.190197
2045.29	-0.231634
2046.75	0.307997
2048.22	0.714392
2049.68	0.24387
2051.15	-0.0783081
2052.61	-0.371449
2054.07	0.544399
2055.54	-0.38307
2057	0.304251
2058.46	0.0788231
2059.92	0.493204
2061.39	0.285536
2062.85	-0.424528
2064.31	1.00604
2065.77	0.133812
2067.23	-0.483446
2068.69	0.112766
2070.15	0.070406
2071.61	0.432287
2073.07	0.0698547
2074.53	0.767469
2075.99	0.504322
2077.45	0.492712
2078.91	-0.0926151
2080.37	0.398493
2081.82	-0.459013
2083.28	-0.0893173
2084.74	0.395864
2086.2	0.34029
2087.65	0.148466
2089.11	0.594246
2090.57	0.350323
2092.02	0.828339
2093.48	0.231722
2094.94	0.859247
2096.39	0.261126
2097.85	-0.0534153
2099.3	0.0491047
2100.76	0.451584
2102.21	-0.599627
2103.66	0.206553
2105.12	0.0642319
2106.57	0.409885
2108.03	0.491562
2109.48	0.340759
2110.93	0.355192
2112.38	0.715719
2113.84	-0.244642
2115.29	1.4208
2116.74	-0.875805
2118.19	0.42025
2119.64	0.473326
2121.09	0.581718
2122.54	-0.415487
2123.99	0.432491
2125.45	-0.193544
2126.89	0.555918
2128.34	0.224829
2129.79	0.387115
2131.24	0.098402
2132.69	0.387098
2134.14	0.0798607
2135.59	0.304314
2137.04	-0.062254
2138.48	0.353287
2139.93	-0.0687065
2141.38	0.0262299
2142.83	-0.0904274
2144.27	0.10898
2145.72	0.457909
2147.17	0.442047
2148.61	-0.30434
2150.06	0.255241
2151.5	0.447758
2152.95	-0.406319
2154.39	1.13983
2155.84	-0.512939
2157.28	0.187094
2158.73	-0.336752
2160.17	-0.244064
2161.61	0.781427
2163.06	0.652369
2164.5	-0.368435
2165.94	0.338312
2167.38	-0.449461
2168.83	0.70401
2170.27	0.140646
2171.71	0.835434
2173.15	0.659899
2174.59	0.447289
2176.03	0.1999
2177.47	0.618256
2178.91	-0.623917
2180.36	1.49501
2181.8	0.324514
2183.23	0.119877
2184.67	0.714334
2186.11	0.760252
2187.55	0.47348
2188.99	0.120163
2190.43	0.315985
2191.87	0.477856
2193.3	-0.228086
2194.74	-0.105152
2196.18	-0.869366
2197.62	0.10865
2199.05	-0.48205
2200.49	0.586763
2201.93	0.0597553
2203.36	-0.033308
2204.8	-0.00714493
2206.23	0.403019
2207.67	-0.626953
2209.1	0.380264
2210.54	-0.0886669
2211.97	0.432634
2213.41	0.0751038
2214.84	0.5271
2216.27	0.914148
2217.71	0.363663
2219.14	0.476824
2220.57	0.394529
2222.01	0.362097
2223.44	-0.18301
2224.87	0.832844
2226.3	-0.181376
2227.73	0.0508728
2229.16	0.26265
2230.6	0.553816
2232.03	1.02398
2233.46	0.364498
2234.89	-0.127897
2236.32	0.184437
2237.75	0.190598
2239.18	0.136835
2240.61	-0.270058
2242.03	0.698263
2243.46	0.316339
2244.89	-0.26033
2246.32	0.759659
2247.75	0.404997
2249.17	0.321539
2250.6	0.59024
2252.03	0.0884953
2253.46	-0.577341
2254.88	-0.201326
2256.31	0.973612
2257.73	0.223038
2259.16	0.422039
2260.59	0.0777302
2262.01	-0.633202
2263.44	0.0400848
2264.86	-0.178814
2266.29	-0.00873184
2267.71	0.842566
2269.14	0.438789
2270.56	0.227797
2271.98	0.389765
2273.4	0.095293
2274.83	0.159327
2276.25	-0.0204487
2277.67	0.175051
2279.09	0.0121918
2280.52	-0.216127
2281.94	0.0443974
2283.36	-0.706711
2284.78	0.598091
2286.2	0.190279
2287.62	-0.0534401
2289.04	0.896299
2290.46	0.834826
2291.88	0.512568
2293.3	-0.300259
2294.72	0.505945
2296.14	0.65786
2297.56	-0.45117
2298.98	0.25746
2300.4	-0.606165
2301.82	0.153551
2303.23	0.324207
2304.65	0.692469
2306.07	0.666731
2307.49	0.541376
2308.9	0.595154
2310.32	-0.026926
2311.73	-0.272224
2313.15	0.0910301
2314.57	0.142931
2315.98	0.756823
2317.4	0.780451
2318.81	-0.365015
2320.23	0.285393
2321.64	0.0917492
2323.06	0.899385
2324.47	0.396614
2325.88	1.35588
2327.3	0.446039
2328.71	1.00174
2330.12	0.602055
2331.54	0.60046
2332.95	-0.451218
2334.36	0.161943
2335.77	0.364265
2337.18	0.318497
2338.6	-0.157465
2340.01	0.38253
2341.42	-0.296001
2342.83	0.94496
2344.24	-0.193777
2345.65	0.800337
2347.06	0.549229
2348.47	-1.33838
2349.88	0.374189
2351.29	-0.0592098
2352.7	-0.396709
2354.1	0.454893
2355.51	-0.0989666
2356.92	0.356882
2358.33	0.714071
2359.74	0.274757
2361.14	0.356001
2362.55	-0.276333
2363.96	0.922459
2365.36	0.371309
2366.77	-0.53368
2368.18	-0.159695
2369.58	-0.219036
2370.99	-0.145601
2372.39	-0.00408745
2373.8	0.236752
2375.2	-0.422924
2376.61	0.284498
2378.01	0.280592
2379.42	-0.338285
2380.82	0.21105
2382.22	0.0817528
2383.63	0.462723
2385.03	0.810055
2386.43	0.662474
2387.84	0.517818
2389.24	0.807377
2390.64	0.3195
2392.04	0.0744972
2393.44	0.580488
2394.84	0.293163
2396.25	0.326054
2397.65	-0.0206966
2399.05	0.698935
2400.45	0.0852604
2401.85	0.695723
2403.25	0.21031
2404.65	0.200348
2406.05	-0.288273
2407.45	-0.207933
2408.84	-0.018858
2410.24	-0.385702
2411.64	0.167345
2413.04	-0.117159
2414.44	-0.00209427
2415.83	0.354517
2417.23	-0.504133
2418.63	0.0962772
2420.02	0.191133
2421.42	0.745043
2422.82	-0.159407
2424.21	0.250198
2425.61	0.374834
2427	-0.22809
2428.4	-0.178913
2429.8	0.142569
2431.19	0.624931
2432.58	0.314415
2433.98	-0.0296116
2435.37	0.147179
2436.77	0.923628
2438.16	0.154579
2439.55	-0.236713
2440.95	0.703548
2442.34	-0.0569248
2443.73	0.229643
2445.12	0.11894
2446.51	-0.340916
2447.91	0.0549965
2449.3	-0.0563812
2450.69	0.244635
2452.08	0.594385
2453.47	0.566381
2454.86	0.350988
2456.25	0.0427074
2457.64	-0.0906525
2459.03	0.661297
2460.42	0.573254
2461.81	-0.181128
2463.2	-0.241858
2464.59	-0.904541
2465.98	0.153852
2467.36	-0.446413
2468.75	-0.241621
2470.14	0.451309
2471.53	0.574791
2472.92	0.23933
2474.3	0.799419
2475.69	0.995014
2477.08	0.309042
2478.46	0.173679
2479.85	0.0546799
2481.23	0.845749
2482.62	0.00597382
2484	-0.9277
2485.39	0.468199
2486.77	0.202044
2488.16	-0.175837
2489.54	0.162006
2490.93	0.482986
2492.31	0.291658
2493.69	0.647243
2495.08	0.152748
2496.46	0.29814
2497.84	0.213383
2499.23	0.377144
2500.61	-0.0171127
2501.99	0.62252
2503.37	0.146509
2504.75	0.147057
2506.13	0.207479
2507.52	-0.225431
2508.9	0.0193901
2510.28	0.37236
2511.66	0.0820446
2513.04	0.499554
2514.42	0.719692
2515.8	0.788954
2517.18	0.355532
2518.55	0.719135
2519.93	0.0743122
2521.31	0.544302
2522.69	0.0655518
2524.07	0.469713
2525.45	0.322586
2526.82	0.129244
2528.2	0.409018
2529.58	0.159269
2530.95	-1.05849
2532.33	-0.0373039
2533.71	0.182039
2535.08	-0.568975
2536.46	0.411814
2537.84	0.433578
2539.21	0.543743
2540.59	0.560383
2541.96	-0.0614777
2543.34	-0.0752811
2544.71	0.0194454
2546.08	0.360224
2547.46	0.810612
2548.83	0.671852
2550.2	0.472504
2551.58	0.0289192
2552.95	0.81201
2554.32	0.969879
2555.7	0.290663
2557.07	0.18656
2558.44	-0.0543327
2559.81	0.0997639
2561.18	0.66448
2562.55	0.457933
2563.93	-0.444019
2565.3	0.26153
2566.67	0.164604
2568.04	0.855974
2569.41	-0.0591106
2570.78	0.889965
2572.15	0.884321
2573.51	0.606037
2574.88	0.691797
2576.25	0.428942
2577.62	0.696489
2578.99	0.478197
2580.36	0.683464
2581.73	0.81172
2583.09	0.211138
2584.46	0.489254
2585.83	0.73683
2587.19	-0.0914459
2588.56	0.353987
2589.93	0.572325
2591.29	0.502357
2592.66	0.173492
2594.02	0.66049
2595.39	0.402283
2596.75	0.413824
2598.12	0.0449162
2599.48	0.718554
2600.85	0.832626
2602.21	0.902674
2603.58	0.959457
2604.94	0.655642
2606.3	0.0961475
2607.67	1.13447
2609.03	1.11446
2610.39	0.217367
2611.76	0.597082
2613.12	0.251123
2614.48	1.01521
2615.84	0.561529
2617.2	-0.595142
2618.56	0.213945
2619.92	0.11096
2621.28	0.638151
2622.65	-0.223555
2624.01	0.245487
2625.37	0.146694
2626.72	0.256084
2628.08	0.900806
2629.44	0.397184
2630.8	0.533472
2632.16	0.639492
2633.52	0.37385
2634.88	0.717049
2636.24	0.644352
2637.59	0.83844
2638.95	0.57336
2640.31	-0.0311661
2641.67	-0.264475
2643.02	0.0499001
2644.38	0.570963
2645.74	0.722252
2647.09	0.370958
2648.45	0.769451
2649.8	0.237822
2651.16	0.881365
2652.51	1.34646
2653.87	0.637573
2655.22	0.489122
2656.58	-0.153969
2657.93	0.14373
2659.29	0.150969
2660.64	0.817282
2661.99	0.38645
2663.35	1.09365
2664.7	0.65913
2666.05	0.412678
2667.41	0.733614
2668.76	0.296551
2670.11	0.661186
2671.46	0.735958
2672.81	1.11754
2674.16	0.585573
2675.51	0.868608
2676.87	1.80586
2678.22	-0.0548286
2679.57	0.842821
2680.92	0.757236
2682.27	0.530046
2683.62	0.712154
2684.97	0.418369
2686.31	1.12687
2687.66	0.340353
2689.01	0.15988
2690.36	1.01996
2691.71	0.742538
2693.06	1.433
2694.4	0.408949
2695.75	0.457903
2697.1	0.783747
2698.45	0.200653
2699.79	0.780781
2701.14	0.35215
2702.49	0.579323
2703.83	-0.233763
2705.18	0.0991497
2706.52	0.272955
2707.87	0.634808
2709.21	1.41683
2710.56	0.658993
2711.9	0.800518
2713.25	0.854538
2714.59	0.239748
2715.94	0.903925
2717.28	1.10266
2718.62	0.777033
2719.97	0.813984
2721.31	0.849665
2722.65	0.461872
2723.99	1.17892
2725.34	0.904961
2726.68	1.00836
2728.02	0.717873
2729.36	1.0234
2730.7	0.731857
2732.04	0.542131
2733.39	0.250851
2734.73	0.600107
2736.07	0.906223
2737.41	0.863623
2738.75	1.44631
2740.08	0.763044
2741.43	0.602018
2742.76	0.511925
2744.1	0.666979
2745.44	0.718473
2746.78	0.333076
2748.12	0.179708
2749.46	0.432846
2750.79	0.323723
2752.13	-0.0020752
2753.47	1.10776
2754.81	0.478777
2756.14	0.299557
2757.48	0.511831
2758.81	1.02869
2760.15	0.026762
2761.49	0.835361
2762.82	-0.293823
2764.16	1.16795
2765.49	0.603973
2766.83	0.284727
2768.16	0.252304
2769.5	0.838068
2770.83	-0.141544
2772.16	1.12914
2773.5	0.288265
2774.83	0.514101
2776.17	0.422522
2777.5	0.231382
2778.83	0.243402
2780.16	0.113132
2781.5	-0.116611
2782.83	0.0990868
2784.16	0.113558
2785.49	0.0276165
2786.82	-0.0863457
2788.15	-0.127224
2789.49	-0.0944023
2790.82	-0.259371
2792.15	0.0640182
2793.48	0.74589
2794.81	-0.41608
2796.14	0.407663
2797.46	0.486654
2798.79	0.549742
2800.12	-0.173388
2801.45	0.330215
2802.78	0.105635
2804.11	0.0515652
2805.44	-0.188808
2806.76	0.338049
2808.09	0.890862
2809.42	1.2569
2810.75	0.0319748
2812.07	1.05267
2813.4	0.0613594
2814.73	0.0532284
2816.05	0.346746
2817.38	1.16772
2818.7	0.941484
2820.03	-0.177652
2821.36	0.799644
2822.68	0.740402
2824.01	1.0903
2825.33	0.532528
2826.65	1.19301
2827.98	1.04767
2829.3	-0.0869865
2830.63	0.110485
2831.95	0.506708
2833.27	1.35571
2834.6	1.31202
2835.92	1.16791
2837.24	1.178
2838.56	1.76684
2839.88	1.3366
2841.21	2.6176
2842.53	2.3585
2843.85	2.77974
2845.17	2.89208
2846.49	2.45504
2847.81	3.20618
2849.13	3.25078
2850.45	3.39351
2851.77	3.06845
2853.09	3.53345
2854.41	3.96902
2855.73	3.7258
2857.05	3.75103
2858.37	3.60692
2859.69	4.1972
2861	4.29262
2862.32	4.17538
2863.64	4.91815
2864.96	5.39172
2866.28	6.03427
2867.59	4.99903
2868.91	5.86897
2870.23	5.96444
2871.54	6.00397
2872.86	5.85954
2874.17	6.40355
2875.49	5.97244
2876.81	7.10142
2878.12	6.4681
2879.44	5.49718
2880.75	6.97393
2882.07	6.25983
2883.38	6.41999
2884.69	6.90569
2886.01	6.17156
2887.32	6.37832
2888.63	6.76622
2889.95	5.86129
2891.26	6.72151
2892.57	6.6263
2893.89	7.09115
2895.2	6.49243
2896.51	7.49212
2897.82	6.94086
2899.13	6.12685
2900.44	7.24575
2901.76	7.45652
2903.07	7.86371
2904.38	7.02642
2905.69	8.07821
2907	7.77481
2908.31	7.87925
2909.62	8.12596
2910.93	8.57024
2912.24	8.6088
2913.55	8.44939
2914.85	9.21033
2916.16	9.08473
2917.47	9.80876
2918.78	8.7949
2920.09	10.3268
2921.4	10.6572
2922.7	9.87249
2924.01	9.94441
2925.32	10.7043
2926.62	11.0606
2927.93	10.3827
2929.24	10.4586
2930.54	10.3794
2931.85	10.5786
2933.15	10.3718
2934.46	10.3886
2935.76	10.5037
2937.07	11.0384
2938.37	10.5676
2939.68	10.6286
2940.98	9.71282
2942.29	9.0229
2943.59	8.8391
2944.89	8.63078
2946.2	7.58625
2947.5	7.33999
2948.8	8.00281
2950.11	7.3192
2951.41	7.82121
2952.71	8.24854
2954.01	7.3002
2955.32	7.02318
2956.62	6.27266
2957.92	6.35309
2959.22	7.15441
2960.52	7.06697
2961.82	6.78847
2963.12	6.0767
2964.42	5.78375
2965.72	6.80751
2967.02	5.95893
2968.32	6.00622
2969.62	5.40483
2970.92	5.15457
2972.22	5.21453
2973.51	5.34584
2974.81	4.12595
2976.11	4.87516
2977.41	4.94557
2978.71	5.06801
2980	4.04581
2981.3	3.93562
2982.6	3.50071
2983.9	4.00904
2985.19	3.24096
2986.49	3.47487
2987.78	2.85541
2989.08	3.13795
2990.38	3.18243
2991.67	2.62141
2992.97	2.2265
2994.26	2.09554
2995.56	2.38324
2996.85	1.99501
2998.14	1.5365
2999.44	1.528
3000.73	0.693722
3002.03	1.38944
3003.32	1.2732
3004.61	1.05935
3005.91	0.719042
3007.2	1.13342
3008.49	0.91576
3009.78	0.346581
3011.07	0.209501
3012.37	-0.430944
3013.66	-0.121655
3014.95	0.313812
3016.24	0.625235
3017.53	-0.537374
3018.82	0.111675
3020.11	0.0789204
3021.4	0.350946
3022.69	-0.171125
3023.98	0.165585
3025.27	-0.0685768
3026.56	0.126631
3027.85	-0.202953
3029.14	0.0102882
3030.43	0.02005
3031.71	0.102879
3033	0.119564
3034.29	-0.193991
3035.58	-0.0119171
3036.87	0.249426
3038.15	0.271643
3039.44	0.522909
3040.73	0.27474
3042.01	-0.441696
3043.3	-0.333767
3044.59	-0.278473
3045.87	-0.177832
3047.16	-0.576956
3048.44	0.668997
3049.73	-0.195709
3051.01	-0.195967
3052.3	0.24271
3053.58	1.00903
3054.87	-0.0817165
3056.15	0.44841
3057.43	0.334743
3058.72	0.62801
3060	0.688923
3061.29	-0.0110893
3062.57	0.421268
3063.85	0.435604
3065.13	0.658136
3066.42	0.313589
3067.7	0.434143
3068.98	-0.259996
3070.26	0.622864
3071.54	0.252493
3072.82	0.151186
3074.11	0.577066
3075.39	-0.521471
3076.67	0.390324
3077.95	-0.231289
3079.23	-0.0624142
3080.51	0.0561905
3081.79	-0.309231
3083.07	0.0477161
3084.35	0.135418
3085.63	0.549259
3086.9	0.324316
3088.18	-0.105885
3089.46	-0.659737
3090.74	0.386862
3092.02	0.415421
3093.29	-0.0843716
3094.57	-0.176107
3095.85	0.153461
3097.13	0.564735
3098.4	0.528681
3099.68	0.194445
3100.95	0.632545
3102.23	0.637474
3103.51	0.53508
3104.78	0.677988
3106.06	0.417059
3107.33	0.429487
3108.61	0.918554
3109.88	0.788181
3111.16	1.08034
3112.43	0.277834
3113.71	0.614321
3114.98	0.137918
3116.25	1.613
3117.53	0.686064
3118.8	1.47889
3120.07	1.30611
3121.35	0.751631
3122.62	0.846806
3123.89	1.91699
3125.16	1.28103
3126.44	0.99893
3127.71	1.42241
3128.98	1.92845
3130.25	1.69182
3131.52	2.07764
3132.79	1.46331
3134.06	2.18594
3135.33	1.39487
3136.6	1.91214
3137.87	1.80761
3139.14	1.25808
3140.41	1.67847
3141.68	1.81622
3142.95	1.49811
3144.22	2.61866
3145.49	2.34426
3146.76	2.30039
3148.02	1.76307
3149.29	2.13868
