200.398	-3.93222
202.213	-3.80059
204.027	-3.66596
205.843	-4.74657
207.657	-4.44118
209.47	-4.52688
211.283	-4.08131
213.097	-3.85813
214.909	-3.49306
216.721	-4.43954
218.533	-3.2785
220.344	-2.74822
222.157	-3.40294
223.967	-2.87167
225.777	-2.92077
227.587	-2.3426
229.396	-2.94983
231.205	-1.79672
233.016	-2.11777
234.824	-1.98086
236.632	-2.10775
238.439	-0.423834
240.247	-0.519423
242.053	0.305006
243.86	0.794338
245.666	1.69338
247.474	1.84046
249.279	4.17777
251.085	4.23697
252.889	5.13305
254.694	5.44395
256.498	6.52403
258.301	6.90546
260.105	6.8325
261.908	7.46256
263.71	6.65101
265.513	5.72092
267.315	5.73055
269.116	5.40115
270.918	3.93563
272.718	3.9852
274.519	4.56099
276.319	3.49271
278.119	3.23918
279.918	2.37829
281.718	2.01849
283.516	2.54416
285.315	1.8876
287.113	1.39788
288.911	0.764515
290.708	0.492508
292.505	0.845264
294.302	-0.115562
296.098	0.481026
297.894	-0.164145
299.69	0.194939
301.485	0.505005
303.278	0.430399
305.073	-0.387033
306.867	-0.371386
308.661	0.787275
310.454	-0.318377
312.247	-0.230606
314.04	-0.259455
315.833	0.643246
317.623	0.76305
319.415	-0.0674725
321.206	0.771336
322.997	-0.176615
324.788	0.592543
326.579	0.717543
328.367	0.984844
330.156	-0.327206
331.946	0.222017
333.735	0.576345
335.523	0.926039
337.31	-0.0695019
339.098	-0.279882
340.885	0.917225
342.673	0.198763
344.458	-0.0180988
346.244	-0.401592
348.03	-0.449825
349.816	0.863104
351.6	0.0984688
353.385	0.143969
355.17	-0.218596
356.953	0.36982
358.737	-0.832668
360.521	-0.274061
362.304	0.352886
364.085	1.28598
365.868	0.338791
367.65	1.07652
369.431	1.02812
371.212	0.882914
372.994	0.996429
374.773	0.943016
376.554	1.59756
378.332	1.16651
380.112	1.72712
381.892	1.81789
383.669	2.42817
385.448	2.85193
387.225	2.73701
389.003	2.90607
390.781	2.98283
392.557	3.74195
394.334	4.47853
396.109	4.39362
397.885	4.8723
399.66	6.33672
401.436	6.36714
403.211	7.17077
404.984	7.03263
406.759	7.31503
408.532	6.84413
410.306	6.37227
412.078	6.36968
413.851	8.01036
415.623	7.77515
417.395	7.56524
419.166	9.985
420.938	10.6926
422.708	10.4136
424.477	9.92106
426.248	9.51961
428.017	7.77751
429.788	6.62096
431.556	5.39383
433.326	3.93262
435.093	3.10561
436.86	3.80381
438.629	3.44416
440.395	2.98736
442.163	2.47941
443.929	1.54519
445.694	2.31825
447.461	2.26804
449.226	1.39816
450.99	1.95487
452.756	1.13368
454.52	1.92348
456.285	2.19897
458.048	1.16931
459.811	1.23481
461.573	1.71977
463.337	2.2069
465.099	2.81439
466.86	2.03331
468.623	1.95456
470.384	2.78635
472.144	2.66623
473.906	2.61418
475.666	2.97746
477.425	2.68386
479.184	3.9235
480.944	2.7614
482.703	2.8339
484.461	2.74553
486.218	3.01039
487.975	1.64828
489.734	2.62089
491.491	2.05633
493.247	2.23966
495.003	3.00825
496.759	3.09909
498.516	2.55677
500.271	1.51987
502.025	2.07572
503.779	2.39561
505.533	2.12589
507.287	2.32322
509.042	2.23513
510.795	1.97885
512.547	2.42507
514.299	2.49158
516.051	2.57858
517.803	2.28658
519.554	2.62727
521.305	3.05989
523.055	4.21888
524.805	2.95843
526.555	3.3178
528.307	3.02017
530.056	3.19122
531.805	2.91609
533.553	2.49905
535.301	2.29053
537.049	3.29459
538.797	2.1924
540.544	2.76906
542.291	2.08468
544.037	2.23852
545.783	1.95025
547.529	1.75573
549.275	2.55886
551.02	2.04058
552.765	2.77279
554.509	1.63206
556.253	1.99453
557.997	2.05713
559.738	1.36025
561.482	2.18488
563.224	1.3761
564.967	1.42007
566.709	1.57999
568.451	1.14431
570.192	0.756908
571.933	1.10645
573.674	1.55073
575.415	1.79201
577.153	0.820551
578.893	1.36606
580.632	1.15566
582.371	1.19802
584.11	1.5842
585.849	1.60065
587.587	0.648371
589.323	1.00472
591.06	1.10611
592.797	1.25236
594.534	2.0194
596.271	1.7051
598.005	1.94288
599.741	1.07559
601.476	1.12691
603.211	1.56665
604.944	0.92264
606.679	0.78203
608.413	1.37472
610.147	0.520418
611.878	2.97103
613.611	2.4402
615.344	2.64463
617.077	2.64311
618.807	3.60242
620.539	3.32236
622.27	1.91889
623.999	2.20707
625.73	1.78649
627.461	1.98491
629.189	2.1415
630.919	2.23441
632.648	2.286
634.376	2.77361
636.105	2.64446
637.833	1.94104
639.559	2.73848
641.287	1.52168
643.013	1.80563
644.74	1.67645
646.467	0.319555
648.192	1.78705
649.918	1.16874
651.642	1.64899
653.368	1.84189
655.091	1.92824
656.816	2.42946
658.538	1.99934
660.263	2.50309
661.987	2.77619
663.708	2.70201
665.432	2.5768
667.153	2.53883
668.875	2.49907
670.596	2.55209
672.318	2.10577
674.037	2.71753
675.759	1.01995
677.478	1.5473
679.196	1.45605
680.917	1.10986
682.635	1.08166
684.355	0.565775
686.072	1.40412
687.791	0.74259
689.508	0.30905
691.224	0.0122433
692.942	-0.331846
694.658	0.543451
696.376	0.54151
698.091	0.330091
699.805	1.52006
701.522	0.889587
703.236	0.993454
704.95	0.613415
706.665	0.852491
708.379	0.35656
710.093	0.410542
711.806	-0.0170174
713.518	0.195999
715.23	-0.323065
716.943	-0.110739
718.655	-0.217974
720.366	0.108335
722.078	-0.134987
723.788	0.236576
725.498	0.243546
727.208	0.704224
728.919	0.0285625
730.628	0.0561485
732.337	1.17006
734.045	0.0187588
735.755	0.24856
737.463	-0.176245
739.17	0.100344
740.877	0.445887
742.584	0.680561
744.292	1.05259
745.998	0.774469
747.704	0.454277
749.409	1.26146
751.114	0.27169
752.819	0.38656
754.526	1.1115
756.23	1.07461
757.934	1.2659
759.637	1.03226
761.34	1.31914
763.043	1.15634
764.746	0.654192
766.448	1.50496
768.152	1.53936
769.853	1.79564
771.554	1.86702
773.255	2.16164
774.956	1.88993
776.656	2.18451
778.356	1.84859
780.056	2.60123
781.755	1.81827
783.454	1.23893
785.153	1.76642
786.851	1.42933
788.549	1.35781
790.247	0.895424
791.944	1.82969
793.641	1.99129
795.338	1.92632
797.034	2.1562
798.73	1.60075
800.426	1.13966
802.121	0.614384
803.817	1.53023
805.511	2.0405
807.206	1.15561
808.9	1.527
810.592	1.11019
812.286	2.35151
813.979	1.57315
815.672	1.84776
817.364	0.913927
819.057	2.12733
820.748	1.93221
822.44	1.40347
824.129	1.74668
825.82	0.977985
827.511	1.23875
829.201	1.99462
830.891	1.08616
832.581	1.43052
834.269	0.352861
835.958	1.43954
837.646	1.32215
839.335	1.96165
841.023	0.72226
842.709	0.931828
844.396	1.92257
846.084	1.17162
847.77	0.982603
849.455	1.42462
851.141	1.02139
852.827	0.688549
854.513	1.29937
856.196	1.21499
857.881	0.81361
859.566	0.970898
861.248	1.10239
862.932	0.667627
864.616	1.2216
866.297	0.556776
867.98	0.679554
869.663	0.711304
871.343	0.449238
873.026	0.0739002
874.707	-0.414488
876.387	0.699303
878.068	0.707518
879.747	0.87361
881.428	0.33923
883.108	-0.173971
884.786	-0.0570679
886.465	0.282848
888.143	0.574486
889.822	-0.467766
891.498	-0.181948
893.177	-0.236895
894.855	0.651052
896.53	-0.240604
898.208	1.38272
899.883	0.824764
901.56	0.983385
903.234	0.670595
904.91	0.179323
906.584	-0.243275
908.26	-0.284704
909.933	-0.457933
911.608	0.349743
913.28	0.223803
914.955	-0.878191
916.627	0.750639
918.298	0.492464
919.972	0.0799503
921.643	0.377209
923.315	0.256153
924.986	0.359411
926.656	0.753254
928.328	-0.350693
929.997	0.203506
931.668	0.2735
933.337	0.344095
935.006	0.701799
936.676	-0.615923
938.344	0.78089
940.012	0.658381
941.681	0.847166
943.348	-0.330444
945.014	0.587954
946.683	0.930574
948.349	0.673576
950.015	0.854147
951.682	0.61285
953.347	0.879015
955.012	0.927631
956.676	0.210049
958.343	0.998705
960.006	0.381386
961.67	0.274572
963.333	0.521221
964.998	1.05243
966.661	0.406071
968.323	0.06353
969.985	0.712284
971.649	0.606867
973.31	1.05523
974.971	0.887291
976.632	1.12123
978.293	1.00454
979.953	1.39826
981.615	1.79148
983.274	1.51792
984.933	1.63869
986.592	1.99841
988.251	3.10615
989.909	3.54659
991.567	3.87448
993.225	4.84209
994.884	5.54384
996.541	6.15686
998.198	8.00389
999.855	9.05483
1001.51	10.1474
1003.17	10.2689
1004.82	11.4229
1006.48	12.0034
1008.13	12.0783
1009.79	10.9252
1011.44	11.2443
1013.1	9.28503
1014.75	7.6578
1016.4	6.73402
1018.06	4.78418
1019.71	3.97545
1021.36	3.3229
1023.01	2.54222
1024.66	2.41973
1026.32	2.6046
1027.97	2.13406
1029.62	2.558
1031.27	2.52037
1032.92	2.61015
1034.57	3.35055
1036.22	3.08382
1037.87	3.20761
1039.52	3.43975
1041.16	3.65129
1042.81	4.77857
1044.46	4.69223
1046.11	6.3267
1047.76	5.51141
1049.4	6.69854
1051.05	8.58429
1052.7	10.3644
1054.34	10.9948
1055.99	11.6907
1057.63	12.5816
1059.28	12.406
1060.92	10.8801
1062.57	8.78624
1064.21	6.71162
1065.85	5.43906
1067.5	3.94689
1069.14	3.32228
1070.78	3.19604
1072.43	2.5486
1074.07	2.42351
1075.71	3.49385
1077.35	2.00781
1078.99	2.25985
1080.63	1.90652
1082.27	2.81096
1083.91	3.82174
1085.55	3.00744
1087.19	2.53559
1088.83	2.96886
1090.47	2.01256
1092.11	1.89815
1093.75	1.91234
1095.39	1.86209
1097.03	2.76224
1098.66	1.29468
1100.3	1.53362
1101.94	1.36778
1103.57	1.22757
1105.21	0.896822
1106.84	1.04068
1108.48	0.280701
1110.11	1.32479
1111.75	1.13969
1113.38	0.220808
1115.02	0.652716
1116.65	0.782364
1118.29	0.440353
1119.92	1.10717
1121.55	1.51848
1123.19	1.4181
1124.82	1.6838
1126.45	2.22937
1128.08	1.49343
1129.71	1.89259
1131.34	1.43783
1132.97	1.8176
1134.6	1.25652
1136.23	0.395002
1137.86	0.792244
1139.49	0.503111
1141.12	0.916533
1142.75	0.858894
1144.38	0.545631
1146.01	0.511255
1147.64	1.62982
1149.26	1.5779
1150.89	1.80406
1152.52	1.02933
1154.15	0.488419
1155.77	1.35161
1157.4	1.10759
1159.02	0.524158
1160.65	1.19751
1162.27	0.363523
1163.9	0.55245
1165.52	0.721285
1167.15	1.88896
1168.77	1.31081
1170.39	0.580311
1172.02	0.270954
1173.64	0.106649
1175.26	0.491436
1176.89	1.51035
1178.51	0.113276
1180.13	0.137968
1181.75	0.54534
1183.37	0.0869083
1184.99	1.19275
1186.61	0.331434
1188.23	0.100824
1189.85	1.70014
1191.47	2.07043
1193.09	0.691038
1194.71	0.678236
1196.33	0.833168
1197.94	1.09437
1199.56	1.44245
1201.18	1.85783
1202.8	1.75675
1204.41	2.12099
1206.03	1.73895
1207.65	1.13074
1209.26	1.94189
1210.88	2.16705
1212.49	1.63761
1214.11	2.43715
1215.72	2.50152
1217.34	2.37419
1218.95	3.05503
1220.57	2.59231
1222.18	1.57213
1223.79	2.25578
1225.41	1.67883
1227.02	2.45121
1228.63	2.3574
1230.24	2.20463
1231.85	1.97208
1233.47	3.43722
1235.08	2.42505
1236.69	2.6145
1238.3	2.70308
1239.91	2.66928
1241.52	2.03613
1243.13	2.47777
1244.74	2.97988
1246.34	2.5899
1247.95	2.96314
1249.56	3.45863
1251.17	3.12568
1252.78	2.6692
1254.38	3.55889
1255.99	3.58242
1257.6	3.42278
1259.2	2.62443
1260.81	3.31812
1262.42	2.12912
1264.02	2.61727
1265.63	2.95983
1267.23	2.86558
1268.84	3.1008
1270.44	2.81528
1272.04	2.61017
1273.65	2.09169
1275.25	1.98564
1276.85	3.26589
1278.46	2.80329
1280.06	2.29815
1281.66	2.20666
1283.26	2.90158
1284.86	2.58386
1286.46	2.16507
1288.07	2.14158
1289.67	3.50482
1291.27	3.25727
1292.87	3.09226
1294.47	3.21482
1296.06	3.08649
1297.66	2.56223
1299.26	2.13778
1300.86	3.79265
1302.46	2.86699
1304.06	3.68995
1305.65	3.8311
1307.25	2.14279
1308.85	3.47319
1310.44	3.48907
1312.04	3.56721
1313.64	3.44246
1315.23	2.76856
1316.83	2.69019
1318.42	2.69487
1320.02	2.67898
1321.61	4.02581
1323.2	3.22978
1324.8	2.98006
1326.39	3.33662
1327.99	3.79215
1329.58	3.15435
1331.17	3.3914
1332.76	3.39081
1334.36	3.29465
1335.95	3.021
1337.54	3.95917
1339.13	4.10871
1340.72	2.28013
1342.31	2.70348
1343.9	3.46302
1345.49	3.21416
1347.08	2.78554
1348.67	2.74237
1350.26	2.78507
1351.85	2.9338
1353.43	2.66747
1355.02	2.40452
1356.61	2.24256
1358.2	2.09974
1359.78	2.63379
1361.37	2.74571
1362.96	3.31425
1364.54	3.36289
1366.13	2.43572
1367.71	2.96512
1369.3	2.52151
1370.88	1.86262
1372.47	2.85875
1374.05	3.14112
1375.64	2.88792
1377.22	2.5554
1378.8	2.83861
1380.39	2.30363
1381.97	2.38245
1383.55	2.00076
1385.13	2.63074
1386.72	1.88814
1388.3	1.76215
1389.88	1.95535
1391.46	1.55521
1393.04	1.85146
1394.62	2.42619
1396.2	2.80199
1397.78	2.50195
1399.36	1.70437
1400.94	1.51922
1402.52	2.00591
1404.1	2.74911
1405.68	2.26677
1407.25	2.20196
1408.83	2.238
1410.41	2.88762
1411.98	3.16162
1413.56	2.78263
1415.14	3.90133
1416.71	2.49253
1418.29	3.46914
1419.87	3.14525
1421.44	3.74968
1423.02	3.09771
1424.59	3.35542
1426.16	4.06894
1427.74	3.01247
1429.31	2.97888
1430.89	4.24217
1432.46	5.01029
1434.03	5.22468
1435.6	4.94605
1437.18	6.18193
1438.75	6.94734
1440.32	5.82846
1441.89	5.69499
1443.46	5.97612
1445.03	5.35424
1446.6	4.81139
1448.17	5.7038
1449.74	5.0637
1451.31	5.52571
1452.88	6.14661
1454.45	4.97875
1456.02	6.17139
1457.59	5.23755
1459.16	5.46145
1460.72	5.03149
1462.29	4.91169
1463.86	4.65008
1465.43	4.20898
1466.99	3.84596
1468.56	3.52341
1470.13	3.57619
1471.69	3.8671
1473.26	2.82683
1474.82	3.35766
1476.38	2.67376
1477.95	2.63727
1479.51	2.46344
1481.08	1.93661
1482.64	2.8991
1484.2	2.70496
1485.77	2.19662
1487.33	0.94253
1488.89	1.95732
1490.46	1.75373
1492.02	1.6822
1493.58	2.09398
1495.14	2.11038
1496.7	1.69536
1498.26	2.35105
1499.82	1.16
1501.38	0.789526
1502.94	1.54739
1504.5	1.58899
1506.06	1.66993
1507.62	0.995054
1509.18	1.0147
1510.73	1.61055
1512.29	0.776701
1513.85	0.483006
1515.41	1.20914
1516.96	1.74286
1518.52	0.666269
1520.08	0.876957
1521.63	1.94876
1523.19	2.11916
1524.75	1.08452
1526.3	1.61364
1527.85	1.41559
1529.41	1.36881
1530.96	1.18918
1532.52	1.29556
1534.07	1.17648
1535.62	1.2114
1537.18	0.87055
1538.73	0.852921
1540.28	1.94876
1541.84	0.989347
1543.39	0.840853
1544.94	1.95189
1546.49	2.00837
1548.04	2.00805
1549.59	2.15755
1551.14	2.04504
1552.69	2.32678
1554.25	2.32984
1555.79	2.00003
1557.34	2.0481
1558.89	2.64186
1560.44	1.449
1561.99	1.93907
1563.54	1.66693
1565.08	2.08651
1566.63	2.24524
1568.18	2.79543
1569.73	2.0009
1571.27	2.19469
1572.82	2.40649
1574.37	2.39395
1575.91	2.32544
1577.46	2.89214
1579	3.42254
1580.55	2.53549
1582.09	2.39701
1583.64	2.37256
1585.18	2.57412
1586.73	2.60877
1588.27	2.66253
1589.81	2.54748
1591.35	2.11311
1592.9	2.66975
1594.44	2.10221
1595.98	3.16444
1597.52	2.76641
1599.06	3.49465
1600.61	3.38113
1602.15	3.81294
1603.69	3.81331
1605.23	3.34243
1606.77	2.94312
1608.31	3.15928
1609.85	2.73095
1611.39	3.4622
1612.93	2.98612
1614.46	2.33848
1616	3.05974
1617.54	2.86264
1619.08	2.63101
1620.61	2.49676
1622.15	3.43312
1623.69	2.57397
1625.23	2.48269
1626.76	3.28805
1628.3	2.33127
1629.83	2.868
1631.37	2.056
1632.9	2.38333
1634.44	2.48689
1635.97	3.00268
1637.51	2.40119
1639.04	2.60336
1640.57	3.06646
1642.11	1.72075
1643.64	2.25445
1645.17	3.49188
1646.71	3.44233
1648.24	2.76027
1649.77	2.98988
1651.3	3.27713
1652.83	2.91788
1654.36	3.41452
1655.89	3.0598
1657.42	2.872
1658.96	2.92336
1660.48	1.86095
1662.01	2.97945
1663.54	2.22657
1665.07	3.30208
1666.6	3.84141
1668.13	2.59357
1669.66	2.45673
1671.19	2.72886
1672.71	2.43243
1674.24	2.41356
1675.77	2.48628
1677.29	1.8762
1678.82	1.79763
1680.35	2.47053
1681.87	1.70762
1683.4	2.9831
1684.92	2.09171
1686.45	1.66071
1687.97	1.46954
1689.5	1.07799
1691.02	1.65783
1692.54	1.13927
1694.07	1.31615
1695.59	1.63875
1697.11	1.17471
1698.64	1.60525
1700.16	1.15825
1701.68	1.02069
1703.2	1.15537
1704.72	0.505537
1706.25	-0.180674
1707.77	0.606161
1709.29	0.646732
1710.81	0.832575
1712.33	1.19985
1713.85	-0.0637283
1715.37	0.937824
1716.89	0.544811
1718.41	0.170206
1719.92	0.301708
1721.44	0.270962
1722.96	0.710243
1724.48	1.09714
1725.99	0.514183
1727.51	0.744829
1729.03	0.293802
1730.55	-0.00993347
1732.06	0.383202
1733.58	0.821373
1735.09	0.00592804
1736.61	0.683727
1738.13	0.25345
1739.64	-0.567768
1741.15	0.131817
1742.67	-0.100758
1744.18	-0.221697
1745.7	-0.12788
1747.21	-0.290911
1748.72	0.548704
1750.24	0.0774879
1751.75	0.566462
1753.26	-0.25836
1754.77	-0.14893
1756.29	-0.426931
1757.8	-0.43236
1759.31	-0.0874443
1760.82	0.498898
1762.33	0.190516
1763.84	-0.157799
1765.35	0.643454
1766.86	0.181623
1768.37	0.162951
1769.88	-0.0724239
1771.39	0.114229
1772.9	0.0493774
1774.4	-0.0211067
1775.91	0.21624
1777.42	0.144192
1778.93	0.115198
1780.44	-0.125233
1781.94	-0.138622
1783.45	-0.00571442
1784.96	0.31909
1786.46	-0.119043
1787.97	0.142895
1789.47	0.115818
1790.98	-0.0163555
1792.48	-0.0647469
1793.99	0.565592
1795.49	0.257238
1797	0.397892
1798.5	0.00924683
1800.01	0.24264
1801.51	-0.114935
1803.01	0.565269
1804.51	0.229933
1806.02	-0.0926476
1807.52	-0.199633
1809.02	0.0772076
1810.52	-0.268188
1812.02	0.286358
1813.52	0.851366
1815.02	0.0593224
1816.53	-0.0409164
1818.03	0.050312
1819.52	0.53245
1821.02	0.0633202
1822.52	0.513197
1824.02	-0.499578
1825.52	0.440292
1827.02	0.654886
1828.52	0.871916
1830.02	-0.0847607
1831.51	-0.21306
1833.01	-0.000225067
1834.51	-0.00699425
1836.01	0.193888
1837.5	-0.00709152
1839	-0.551775
1840.49	-0.0391693
1841.99	0.329809
1843.49	0.655491
1844.98	0.257978
1846.48	-0.193781
1847.97	0.725868
1849.47	0.218361
1850.96	0.417082
1852.45	-0.166416
1853.95	-0.111788
1855.44	-0.0884056
1856.93	0.186335
1858.42	0.0639343
1859.92	0.711292
1861.41	-0.0497894
1862.9	0.249039
1864.39	0.279472
1865.88	0.22858
1867.38	-0.761276
1868.87	-0.122925
1870.36	-0.0381489
1871.85	-0.195599
1873.34	-0.277765
1874.83	-0.0595608
1876.32	0.292511
1877.81	-0.149313
1879.29	0.405344
1880.78	0.131037
1882.27	0.532135
1882.53	0.635977
1884.03	-0.396194
1885.52	0.434963
1887.01	-0.112829
1888.51	0.417944
1890	0.183153
1891.5	-0.135799
1892.99	0.0711651
1894.48	0.248007
1895.97	0.341944
1897.47	0.159838
1898.96	0.273098
1900.45	0.17502
1901.94	-0.101177
1903.43	-0.225246
1904.92	0.238161
1906.41	-0.378096
1907.9	-0.14287
1909.39	-0.0104542
1910.88	0.696867
1912.37	0.29595
1913.86	0.642479
1915.35	-0.172674
1916.84	0.519958
1918.33	0.56959
1919.81	-0.57749
1921.3	-0.390333
1922.79	0.213341
1924.28	0.611269
1925.76	0.198467
1927.25	-0.0557499
1928.73	1.37116
1930.22	0.962786
1931.71	0.777344
1933.19	0.570803
1934.68	-0.124931
1936.16	0.438631
1937.65	0.289587
1939.13	0.467854
1940.62	0.422203
1942.1	0.119991
1943.58	0.0622902
1945.07	0.093092
1946.55	-0.375072
1948.03	-0.412678
1949.51	0.443665
1951	0.194721
1952.48	0.167383
1953.96	0.344967
1955.44	-0.594786
1956.92	0.356642
1958.4	0.278959
1959.88	0.048893
1961.36	0.797827
1962.84	-0.184458
1964.32	0.598289
1965.8	0.676931
1967.28	-0.598392
1968.76	0.46946
1970.24	-0.260334
1971.72	0.581635
1973.2	1.04678
1974.67	-0.108782
1976.15	0.288748
1977.63	-0.233549
1979.1	-0.159128
1980.58	0.000175476
1982.06	0.124842
1983.54	0.622272
1985.01	-0.137892
1986.49	-0.0664883
1987.96	-0.656147
1989.44	-0.0417652
1990.91	0.0657845
1992.39	-0.0273342
1993.86	0.23724
1995.33	-0.290535
1996.81	0.247469
1998.28	-0.988216
1999.75	0.325102
2001.23	-0.287909
2002.7	0.734463
2004.17	0.558565
2005.65	0.569075
2007.12	-0.0248108
2008.59	0.748039
2010.06	0.613701
2011.53	0.817472
2013	0.684713
2014.47	0.214333
2015.94	0.061842
2017.41	-0.429214
2018.88	-0.350365
2020.35	0.466345
2021.82	-0.0951881
2023.29	-0.08461
2024.76	0.448109
2026.23	0.195175
2027.69	-0.154596
2029.16	0.136808
2030.63	0.297487
2032.1	0.678915
2033.56	0.608589
2035.03	0.588589
2036.5	-0.272371
2037.96	0.511574
2039.43	6.00078
2040.89	28.5881
2042.36	12.3298
2043.83	0.724144
2045.29	0.234806
2046.75	0.588722
2048.22	0.0341911
2049.68	0.624329
2051.15	0.082716
2052.61	-0.159575
2054.07	0.521101
2055.54	0.859947
2057	0.352188
2058.46	0.129221
2059.92	0.57979
2061.39	0.172382
2062.85	0.457468
2064.31	1.19943
2065.77	-0.243851
2067.23	0.41869
2068.69	0.510578
2070.15	0.249819
2071.61	0.342695
2073.07	0.199516
2074.53	0.0893326
2075.99	0.584538
2077.45	0.0684357
2078.91	0.898529
2080.37	0.178221
2081.82	0.146959
2083.28	0.450693
2084.74	0.314873
2086.2	0.564178
2087.65	0.811712
2089.11	0.284895
2090.57	1.11866
2092.02	0.322897
2093.48	-0.119881
2094.94	1.09744
2096.39	0.652834
2097.85	0.357853
2099.3	0.413176
2100.76	0.283676
2102.21	1.07398
2103.66	1.01369
2105.12	0.556267
2106.57	0.686708
2108.03	-0.197641
2109.48	0.636784
2110.93	0.385874
2112.38	0.381792
2113.84	0.107027
2115.29	0.194761
2116.74	-0.334961
2118.19	0.665131
2119.64	0.521778
2121.09	0.0516434
2122.54	0.996353
2123.99	0.402201
2125.45	0.0419292
2126.89	-0.186274
2128.34	0.0970459
2129.79	0.40999
2131.24	-0.208
2132.69	0.26523
2134.14	-0.254715
2135.59	-0.176958
2137.04	0.94557
2138.48	0.43609
2139.93	-0.11828
2141.38	-0.239086
2142.83	-0.390221
2144.27	-0.0436325
2145.72	0.336678
2147.17	0.683474
2148.61	0.648033
2150.06	0.709848
2151.5	0.0402374
2152.95	-0.134758
2154.39	0.367624
2155.84	-0.622169
2157.28	0.591572
2158.73	0.0841732
2160.17	0.126568
2161.61	0.0239735
2163.06	0.456184
2164.5	-0.00335121
2165.94	-0.909794
2167.38	0.491634
2168.83	0.0637321
2170.27	0.762175
2171.71	0.590921
2173.15	0.548077
2174.59	1.86587
2176.03	0.487694
2177.47	-0.00824738
2178.91	0.212626
2180.36	0.0533981
2181.8	1.09337
2183.23	0.85454
2184.67	-0.0656242
2186.11	0.594463
2187.55	-0.0596409
2188.99	0.45108
2190.43	0.995255
2191.87	0.939629
2193.3	1.08197
2194.74	0.388628
2196.18	0.689865
2197.62	-0.0287933
2199.05	0.479687
2200.49	0.253948
2201.93	-0.00502014
2203.36	0.0531597
2204.8	0.113867
2206.23	0.740454
2207.67	0.340664
2209.1	0.0898113
2210.54	0.68144
2211.97	0.227905
2213.41	0.682261
2214.84	0.92095
2216.27	0.0713787
2217.71	0.842291
2219.14	-0.346878
2220.57	0.181347
2222.01	0.594194
2223.44	1.5487
2224.87	0.489952
2226.3	0.613047
2227.73	0.287991
2229.16	0.929386
2230.6	0.287895
2232.03	0.843521
2233.46	-0.287329
2234.89	0.597254
2236.32	0.339457
2237.75	0.608362
2239.18	0.359476
2240.61	0.409313
2242.03	0.740814
2243.46	0.276176
2244.89	0.464813
2246.32	1.02701
2247.75	-0.176168
2249.17	0.65391
2250.6	1.15176
2252.03	0.798027
2253.46	0.296457
2254.88	-0.300936
2256.31	0.615925
2257.73	0.320503
2259.16	0.129608
2260.59	0.724638
2262.01	0.449533
2263.44	-0.081768
2264.86	0.735857
2266.29	0.220179
2267.71	0.38529
2269.14	-0.216618
2270.56	0.204725
2271.98	0.299402
2273.4	0.0842457
2274.83	0.0972691
2276.25	0.72994
2277.67	0.255108
2279.09	0.285559
2280.52	0.283279
2281.94	-0.55118
2283.36	0.44099
2284.78	-0.00230217
2286.2	0.142332
2287.62	0.108332
2289.04	0.500069
2290.46	0.566275
2291.88	0.289938
2293.3	0.111776
2294.72	-0.230209
2296.14	0.900475
2297.56	0.443552
2298.98	0.363159
2300.4	-0.372425
2301.82	0.170984
2303.23	0.157814
2304.65	0.325571
2306.07	0.0334549
2307.49	-0.0461864
2308.9	-0.258734
2310.32	0.875551
2311.73	0.315323
2313.15	-0.360516
2314.57	-0.295151
2315.98	0.875294
2317.4	0.269455
2318.81	-0.286493
2320.23	0.739759
2321.64	0.741198
2323.06	0.440847
2324.47	0.365755
2325.88	1.04404
2327.3	1.07444
2328.71	0.657904
2330.12	0.127014
2331.54	-0.450567
2332.95	0.110552
2334.36	0.772154
2335.77	0.266083
2337.18	0.318312
2338.6	-0.0428848
2340.01	-0.422979
2341.42	-0.131617
2342.83	0.453533
2344.24	0.496634
2345.65	0.0323009
2347.06	0.224401
2348.47	0.563662
2349.88	0.378069
2351.29	0.0436974
2352.7	0.0341015
2354.1	0.0222397
2355.51	0.139116
2356.92	-0.412647
2358.33	-0.0524826
2359.74	-0.0177288
2361.14	-0.210041
2362.55	0.538363
2363.96	-0.512804
2365.36	0.444258
2366.77	-0.119402
2368.18	0.0460682
2369.58	0.617023
2370.99	1.17426
2372.39	0.123152
2373.8	0.234985
2375.2	0.234985
2376.61	0.282335
2378.01	0.294819
2379.42	0.0624866
2380.82	-0.0450954
2382.22	0.341177
2383.63	0.179848
2385.03	-0.0136833
2386.43	-0.04599
2387.84	-0.0760593
2389.24	0.4389
2390.64	0.462221
2392.04	0.154081
2393.44	0.214739
2394.84	0.325087
2396.25	-0.341923
2397.65	0.884302
2399.05	-0.542175
2400.45	-0.171741
2401.85	0.262852
2403.25	0.0621662
2404.65	-0.314009
2406.05	0.609558
2407.45	-0.0565338
2408.84	0.624107
2410.24	0.0351505
2411.64	1.03164
2413.04	0.271416
2414.44	-0.0735397
2415.83	1.02576
2417.23	-0.135542
2418.63	-0.0915203
2420.02	0.381001
2421.42	0.188108
2422.82	-0.90873
2424.21	-0.184402
2425.61	0.112394
2427	0.0459957
2428.4	-0.620802
2429.8	0.363609
2431.19	0.747581
2432.58	0.465536
2433.98	-0.0403709
2435.37	-0.215759
2436.77	0.224911
2438.16	0.2806
2439.55	0.412537
2440.95	0.970919
2442.34	0.257633
2443.73	0.274103
2445.12	0.290131
2446.51	0.289906
2447.91	0.0199394
2449.3	0.478825
2450.69	-0.249636
2452.08	0.131668
2453.47	-0.27655
2454.86	-0.0497437
2456.25	-0.517363
2457.64	0.34453
2459.03	-0.233389
2460.42	0.104687
2461.81	1.00986
2463.2	-0.237009
2464.59	0.269333
2465.98	-0.630991
2467.36	-0.0942917
2468.75	0.504904
2470.14	-0.48979
2471.53	0.138969
2472.92	0.0249805
2474.3	-0.23238
2475.69	-0.302151
2477.08	-0.0740681
2478.46	0.122108
2479.85	0.318367
2481.23	-0.269253
2482.62	-0.260757
2484	-0.535172
2485.39	0.189777
2486.77	0.145016
2488.16	-0.151957
2489.54	0.594164
2490.93	0.637625
2492.31	0.231476
2493.69	-0.0779667
2495.08	-0.0888348
2496.46	-0.143183
2497.84	0.269247
2499.23	-0.525549
2500.61	0.304031
2501.99	0.125906
2503.37	0.393499
2504.75	0.457863
2506.13	0.166197
2507.52	0.336294
2508.9	0.260347
2510.28	0.999531
2511.66	-0.0715542
2513.04	-0.311037
2514.42	-0.0732784
2515.8	0.0896873
2517.18	-0.219906
2518.55	-0.099781
2519.93	0.448494
2521.31	-0.37899
2522.69	0.441372
2524.07	0.556992
2525.45	0.0763283
2526.82	0.250587
2528.2	0.106012
2529.58	-0.567928
2530.95	0.100035
2532.33	0.665176
2533.71	0.15476
2535.08	0.588074
2536.46	-0.194124
2537.84	0.237467
2539.21	-0.335743
2540.59	-0.105913
2541.96	0.168434
2543.34	0.579811
2544.71	0.401453
2546.08	0.150284
2547.46	0.417793
2548.83	0.0805779
2550.2	-0.180742
2551.58	0.436954
2552.95	0.0357113
2554.32	0.694269
2555.7	0.3491
2557.07	0.0937576
2558.44	0.535753
2559.81	0.12924
2561.18	0.284966
2562.55	0.578569
2563.93	-0.475138
2565.3	-0.436729
2566.67	0.496378
2568.04	0.838726
2569.41	0.42334
2570.78	-0.143667
2572.15	0.53229
2573.51	0.132265
2574.88	0.369127
2576.25	-0.106478
2577.62	0.0241604
2578.99	0.821451
2580.36	-0.140991
2581.73	-0.710152
2583.09	0.675735
2584.46	-0.15255
2585.83	0.44409
2587.19	0.0557041
2588.56	0.00126839
2589.93	0.689667
2591.29	0.332081
2592.66	0.731033
2594.02	0.461351
2595.39	0.204498
2596.75	0.308662
2598.12	0.501593
2599.48	0.330532
2600.85	-0.142262
2602.21	0.0360298
2603.58	0.215733
2604.94	0.592796
2606.3	0.034832
2607.67	0.351068
2609.03	-0.0584011
2610.39	0.252708
2611.76	0.259216
2613.12	-0.052803
2614.48	0.730492
2615.84	0.101044
2617.2	0.252922
2618.56	-0.0582924
2619.92	0.291273
2621.28	0.0738564
2622.65	-0.0971756
2624.01	-0.207699
2625.37	0.0399418
2626.72	0.167358
2628.08	0.65143
2629.44	0.30023
2630.8	-0.169949
2632.16	0.133402
2633.52	0.317327
2634.88	0.486048
2636.24	0.50613
2637.59	0.333517
2638.95	0.457438
2640.31	0.0933132
2641.67	-0.269627
2643.02	-0.0109215
2644.38	0.055912
2645.74	0.860092
2647.09	-0.0626106
2648.45	0.354877
2649.8	0.254646
2651.16	0.417599
2652.51	-0.0226288
2653.87	-0.021307
2655.22	0.201635
2656.58	0.763659
2657.93	0.493425
2659.29	0.43047
2660.64	0.0761337
2661.99	0.627892
2663.35	0.710241
2664.7	0.425625
2666.05	0.372969
2667.41	0.0423717
2668.76	0.0033226
2670.11	0.299635
2671.46	-0.0865898
2672.81	0.401001
2674.16	0.642628
2675.51	0.348364
2676.87	0.621555
2678.22	-0.177116
2679.57	-0.349884
2680.92	-0.244724
2682.27	0.820086
2683.62	0.0318794
2684.97	0.057827
2686.31	0.476662
2687.66	0.547035
2689.01	0.0920067
2690.36	-0.323473
2691.71	0.534199
2693.06	0.459192
2694.4	0.39645
2695.75	0.260889
2697.1	0.489065
2698.45	0.0829697
2699.79	0.245668
2701.14	0.383505
2702.49	0.351116
2703.83	0.43712
2705.18	0.35047
2706.52	0.0462933
2707.87	0.684429
2709.21	0.770517
2710.56	0.405579
2711.9	0.722498
2713.25	0.370859
2714.59	0.265949
2715.94	0.553421
2717.28	0.666197
2718.62	0.603842
2719.97	0.482393
2721.31	0.68001
2722.65	1.63337
2723.99	1.23203
2725.34	0.815048
2726.68	1.05215
2728.02	0.0950527
2729.36	0.781982
2730.7	1.1192
2732.04	0.496059
2733.39	0.527891
2734.73	1.20013
2736.07	0.8692
2737.41	0.364105
2738.75	0.222597
2740.08	0.400459
2741.43	0.0682755
2742.76	-0.0472202
2744.1	0.300791
2745.44	0.806925
2746.78	0.338707
2748.12	0.668785
2749.46	-0.11849
2750.79	0.342609
2752.13	0.0790749
2753.47	0.294533
2754.81	0.336405
2756.14	1.13173
2757.48	0.42112
2758.81	0.449774
2760.15	0.349081
2761.49	-0.488447
2762.82	0.238022
2764.16	0.0246468
2765.49	0.129576
2766.83	-0.0269661
2768.16	0.0169239
2769.5	-0.462677
2770.83	-0.0780602
2772.16	0.0719204
2773.5	0.118284
2774.83	-0.254772
2776.17	0.121729
2777.5	0.268177
2778.83	0.0130444
2780.16	0.291187
2781.5	0.799475
2782.83	0.417557
2784.16	0.021677
2785.49	0.371544
2786.82	0.134172
2788.15	-0.230564
2789.49	-0.135281
2790.82	-0.0237064
2792.15	0.361263
2793.48	-0.0533905
2794.81	0.332588
2796.14	-0.182549
2797.46	-0.184416
2798.79	0.0123444
2800.12	0.193687
2801.45	-0.610035
2802.78	0.368843
2804.11	0.662094
2805.44	-0.213882
2806.76	0.503944
2808.09	0.479717
2809.42	-0.156551
2810.75	0.131289
2812.07	0.264015
2813.4	0.32832
2814.73	-0.0435448
2816.05	0.055891
2817.38	-0.125589
2818.7	0.459654
2820.03	0.718937
2821.36	0.608662
2822.68	0.255941
2824.01	0.369444
2825.33	0.453775
2826.65	1.01965
2827.98	1.07682
2829.3	0.201
2830.63	1.01096
2831.95	1.53826
2833.27	1.30103
2834.6	2.08214
2835.92	2.57884
2837.24	3.21552
2838.56	3.15767
2839.88	4.45693
2841.21	4.62476
2842.53	6.17888
2843.85	5.52955
2845.17	5.5183
2846.49	6.3567
2847.81	6.30578
2849.13	5.67543
2850.45	5.87817
2851.77	6.53188
2853.09	5.92632
2854.41	6.05468
2855.73	7.21391
2857.05	6.93186
2858.37	6.69242
2859.69	6.77782
2861	7.21575
2862.32	7.25738
2863.64	7.72143
2864.96	7.08395
2866.28	8.337
2867.59	8.33497
2868.91	9.96974
2870.23	9.50455
2871.54	10.224
2872.86	9.47675
2874.17	9.62954
2875.49	10.4132
2876.81	11.2072
2878.12	11.0694
2879.44	11.3951
2880.75	11.0607
2882.07	11.2909
2883.38	11.5941
2884.69	9.73773
2886.01	11.1967
2887.32	10.5361
2888.63	9.60791
2889.95	10.3053
2891.26	10.2148
2892.57	10.0666
2893.89	9.30171
2895.2	9.39265
2896.51	10.4515
2897.82	10.0291
2899.13	11.3306
2900.44	10.5914
2901.76	10.2453
2903.07	10.2914
2904.38	11.3171
2905.69	11.0566
2907	10.7416
2908.31	10.7784
2909.62	11.3911
2910.93	11.8655
2912.24	12.0742
2913.55	12.421
2914.85	12.2041
2916.16	12.2487
2917.47	12.0373
2918.78	13.3066
2920.09	13.3718
2921.4	13.0752
2922.7	13.1454
2924.01	13.1074
2925.32	14.0089
2926.62	13.8637
2927.93	14.2637
2929.24	14.4252
2930.54	14.1098
2931.85	14.4363
2933.15	14.8879
2934.46	14.1374
2935.76	14.4634
2937.07	13.4902
2938.37	13.2302
2939.68	13.0408
2940.98	13.5654
2942.29	12.4712
2943.59	13.001
2944.89	11.0041
2946.2	11.0506
2947.5	10.8888
2948.8	10.5723
2950.11	10.1828
2951.41	10.5591
2952.71	9.76867
2954.01	9.64703
2955.32	10.0564
2956.62	9.20821
2957.92	9.72256
2959.22	8.73149
2960.52	8.33447
2961.82	7.94172
2963.12	8.64449
2964.42	7.73241
2965.72	7.8414
2967.02	7.83424
2968.32	7.86616
2969.62	7.50257
2970.92	6.8291
2972.22	6.67652
2973.51	6.58095
2974.81	6.24601
2976.11	6.34595
2977.41	5.97831
2978.71	6.1418
2980	4.93579
2981.3	4.72665
2982.6	5.54317
2983.9	4.54615
2985.19	4.83127
2986.49	4.16417
2987.78	3.79555
2989.08	3.94911
2990.38	3.85035
2991.67	3.48345
2992.97	3.3391
2994.26	3.12168
2995.56	3.08445
2996.85	2.65249
2998.14	1.93977
2999.44	2.65896
3000.73	2.27107
3002.03	1.98289
3003.32	2.15824
3004.61	2.29171
3005.91	1.44423
3007.2	1.28194
3008.49	1.87348
3009.78	1.21791
3011.07	1.2462
3012.37	1.23162
3013.66	1.04965
3014.95	0.757368
3016.24	0.118784
3017.53	0.485022
3018.82	0.364967
3020.11	0.328671
3021.4	0.625031
3022.69	0.32193
3023.98	0.641636
3025.27	-0.219324
3026.56	-0.0680237
3027.85	0.277729
3029.14	0.5009
3030.43	-0.115734
3031.71	0.196789
3033	0.207666
3034.29	-0.00156403
3035.58	0.39521
3036.87	-0.14879
3038.15	-0.323893
3039.44	-0.516407
3040.73	-0.120773
3042.01	0.120895
3043.3	0.0328426
3044.59	0.138548
3045.87	-0.203571
3047.16	0.0880833
3048.44	0.329834
3049.73	-0.106319
3051.01	0.0206814
3052.3	-0.082531
3053.58	0.523848
3054.87	-0.153667
3056.15	0.162483
3057.43	0.435163
3058.72	0.951069
3060	0.226742
3061.29	0.769615
3062.57	0.756464
3063.85	1.2631
3065.13	-0.0214653
3066.42	0.464531
3067.7	0.368181
3068.98	-0.325686
3070.26	0.312582
3071.54	-0.0709629
3072.82	0.0869255
3074.11	-0.206516
3075.39	0.191259
3076.67	-0.0639
3077.95	0.184313
3079.23	-0.216578
3080.51	-0.0849781
3081.79	0.253479
3083.07	-0.0293522
3084.35	-0.0529366
3085.63	0.0729237
3086.9	-0.412914
3088.18	0.321323
3089.46	0.266819
3090.74	-0.304289
3092.02	-0.12929
3093.29	-0.0760822
3094.57	0.0184631
3095.85	0.384771
3097.13	-0.184198
3098.4	-0.0753822
3099.68	0.141529
3100.95	0.23625
3102.23	-0.115807
3103.51	0.182802
3104.78	0.116957
3106.06	0.485834
3107.33	0.112387
3108.61	0.201349
3109.88	0.130243
3111.16	0.643482
3112.43	0.0616264
3113.71	0.0764923
3114.98	0.579395
3116.25	0.010355
3117.53	0.564976
3118.8	0.235698
3120.07	0.283865
3121.35	0.465619
3122.62	1.05255
3123.89	0.35172
3125.16	0.586188
3126.44	0.266541
3127.71	0.286653
3128.98	0.943579
3130.25	0.519263
3131.52	0.757765
3132.79	0.806706
3134.06	0.733275
3135.33	0.523829
3136.6	0.353882
3137.87	0.803292
3139.14	0.766313
3140.41	0.51373
3141.68	1.00135
3142.95	0.978278
3144.22	0.835524
3145.49	0.493119
3146.76	0.179554
3148.02	1.24774
3149.29	1.32512
