200.398	0.303549
202.213	0.340246
204.027	0.379566
205.843	0.421085
207.657	0.171555
209.47	-0.443169
211.283	0.154995
213.097	-0.342386
214.909	-0.283474
216.721	-0.20158
218.533	0.776457
220.344	0.423294
222.157	-0.0966911
223.967	-1.00105
225.777	0.44084
227.587	0.239105
229.396	-0.784143
231.205	1.18524
233.016	0.32966
234.824	0.102499
236.632	1.30031
238.439	1.27293
240.247	2.04652
242.053	2.43985
243.86	2.86085
245.666	3.30645
247.474	4.61817
249.279	5.32033
251.085	9.2016
252.889	9.2115
254.694	6.99699
256.498	7.94198
258.301	7.53874
260.105	7.09219
261.908	6.62703
263.71	6.50377
265.513	6.72082
267.315	5.63763
269.116	6.40942
270.918	6.14276
272.718	5.02921
274.519	4.03269
276.319	4.21362
278.119	3.85982
279.918	4.29628
281.718	3.64406
283.516	2.57946
285.315	1.92181
287.113	2.72771
288.911	1.20605
290.708	2.20417
292.505	2.00669
294.302	0.736576
296.098	1.35986
297.894	1.12463
299.69	0.986254
301.485	1.18199
303.278	0.659441
305.073	0.540403
306.867	0.276281
308.661	0.893847
310.454	1.08295
312.247	0.726603
314.04	1.01685
315.833	1.16813
317.623	-0.0341759
319.415	0.743456
321.206	0.904503
322.997	0.805077
324.788	1.32686
326.579	0.751188
328.367	0.0547409
330.156	0.168869
331.946	0.519796
333.735	1.48941
335.523	0.755764
337.31	1.16559
339.098	-0.00831032
340.885	0.010828
342.673	0.625689
344.458	0.0689259
346.244	-0.223732
348.03	0.9417
349.816	0.317125
351.6	-0.259443
353.385	-1.05168
355.17	0.325111
356.953	0.0765915
358.737	-0.126896
360.521	0.357962
362.304	0.316511
364.085	1.01051
365.868	0.0861759
367.65	-0.0075264
369.431	-0.268953
371.212	0.984192
372.994	1.33385
374.773	0.358313
376.554	1.17903
378.332	1.4566
380.112	1.33502
381.892	1.9929
383.669	0.935549
385.448	2.02152
387.225	1.91075
389.003	2.48379
390.781	3.12926
392.557	2.60223
394.334	2.9456
396.109	3.97087
397.885	4.47979
399.66	4.63598
401.436	5.89502
403.211	5.06198
404.984	6.88094
406.759	5.85603
408.532	5.15848
410.306	5.14099
412.078	5.73369
413.851	5.10706
415.623	6.50021
417.395	6.20608
419.166	7.60327
420.938	6.95967
422.708	8.40442
424.477	8.22768
426.248	7.32051
428.017	4.86164
429.788	4.32658
431.556	4.16698
433.326	2.52954
435.093	2.46536
436.86	2.54191
438.629	1.25563
440.395	1.63238
442.163	1.39447
443.929	0.448545
445.694	1.51431
447.461	1.14771
449.226	1.295
450.99	1.2318
452.756	0.819145
454.52	0.92075
456.285	0.765667
458.048	0.540558
459.811	-0.172892
461.573	0.487967
463.337	0.105268
465.099	0.517828
466.86	1.00607
468.623	0.756657
470.384	0.953058
472.144	0.40649
473.906	0.393232
475.666	0.748758
477.425	1.05303
479.184	-0.114506
480.944	0.951828
482.703	0.527542
484.461	1.57297
486.218	0.433109
487.975	1.16163
489.734	1.2192
491.491	0.415487
493.247	1.64449
495.003	1.7069
496.759	0.551968
498.516	0.870295
500.271	1.14122
502.025	0.613132
503.779	1.37404
505.533	2.08637
507.287	1.03264
509.042	1.48002
510.795	1.05335
512.547	1.65829
514.299	2.42442
516.051	2.85763
517.803	2.41747
519.554	2.09268
521.305	1.86028
523.055	1.95565
524.805	2.42585
526.555	2.8954
528.307	2.26241
530.056	2.989
531.805	2.40217
533.553	2.5865
535.301	2.53381
537.049	1.91689
538.797	2.8386
540.544	1.98299
542.291	1.75622
544.037	1.76159
545.783	1.83646
547.529	1.33122
549.275	2.0563
551.02	2.29388
552.765	0.541985
554.509	1.63633
556.253	1.96718
557.997	0.199663
559.738	1.33951
561.482	1.87999
563.224	1.4778
564.967	0.456888
566.709	1.48312
568.451	1.06354
570.192	1.31221
571.933	1.47203
573.674	1.22266
575.415	1.18382
577.153	0.712831
578.893	1.34641
580.632	0.604334
582.371	0.298388
584.11	1.25539
585.849	1.15291
587.587	0.288298
589.323	1.35318
591.06	1.42663
592.797	0.509405
594.534	0.143946
596.271	0.215639
598.005	0.632345
599.741	0.933153
601.476	0.863947
603.211	0.124893
604.944	0.394548
606.679	0.316223
608.413	0.626411
610.147	0.798067
611.878	1.31462
613.611	0.181585
615.344	0.494886
617.077	0.0293846
618.807	0.433409
620.539	0.445436
622.27	0.889204
623.999	1.14742
625.73	0.377079
627.461	1.71036
629.189	1.4038
630.919	0.73782
632.648	0.966585
634.376	1.44906
636.105	0.972307
637.833	1.92967
639.559	1.26002
641.287	0.880329
643.013	1.88556
644.74	1.29192
646.467	1.76902
648.192	0.772163
649.918	1.14683
651.642	1.34854
653.368	1.60503
655.091	0.118359
656.816	2.0726
658.538	1.41205
660.263	1.43377
661.987	2.3197
663.708	1.37318
665.432	1.74582
667.153	1.9768
668.875	1.81701
670.596	1.81874
672.318	2.09973
674.037	1.17329
675.759	1.3049
677.478	0.820383
679.196	1.34591
680.917	0.743782
682.635	0.205555
684.355	-0.1541
686.072	0.0801067
687.791	-0.0577374
689.508	0.58506
691.224	0.350863
692.942	0.898336
694.658	0.223303
696.376	0.513323
698.091	-0.212448
699.805	0.094944
701.522	0.422295
703.236	0.379307
704.95	0.51841
706.665	0.74778
708.379	0.42543
710.093	0.354643
711.806	-0.449471
713.518	-0.0406532
715.23	0.00125694
716.943	-0.0713234
718.655	-0.234829
720.366	-0.0102634
722.078	0.191393
723.788	0.21081
725.498	0.798227
727.208	0.339085
728.919	0.333555
730.628	0.28166
732.337	0.160984
734.045	0.153137
735.755	1.54665
737.463	1.2221
739.17	1.05759
740.877	0.963202
742.584	0.308529
744.292	0.400614
745.998	1.05843
747.704	0.346684
749.409	0.695457
751.114	0.642258
752.819	1.31182
754.526	-0.782461
756.23	0.613657
757.934	0.84362
759.637	1.07722
761.34	0.547255
763.043	0.920313
764.746	0.661198
766.448	1.0093
768.152	1.69271
769.853	1.03746
771.554	1.28177
773.255	0.572956
774.956	1.01622
776.656	0.917917
778.356	1.86264
780.056	2.49461
781.755	0.957846
783.454	2.54365
785.153	1.97733
786.851	1.72233
788.549	1.07531
790.247	1.86886
791.944	1.00491
793.641	0.996613
795.338	0.96496
797.034	1.63398
798.73	0.549017
800.426	2.03551
802.121	1.09411
803.817	0.604921
805.511	1.44218
807.206	0.861235
808.9	0.255754
810.592	1.28665
812.286	0.676796
813.979	1.16442
815.672	0.934214
817.364	1.39765
819.057	1.90512
820.748	0.491648
822.44	2.00428
824.129	1.3983
825.82	1.50935
827.511	0.511517
829.201	1.4802
830.891	0.36237
832.581	1.65668
834.269	0.906502
835.958	0.380989
837.646	2.04167
839.335	1.31232
841.023	0.556324
842.709	1.33841
844.396	0.778782
846.084	0.667393
847.77	0.850603
849.455	0.681686
851.141	1.01096
852.827	1.52479
854.513	0.830437
856.196	1.6393
857.881	0.985834
859.566	1.29493
861.248	1.03728
862.932	0.279823
864.616	-0.00801468
866.297	1.32495
867.98	1.57472
869.663	-0.0935555
871.343	-0.206703
873.026	0.0631638
874.707	1.41599
876.387	0.241753
878.068	0.759975
879.747	0.984695
881.428	0.350761
883.108	0.347218
884.786	0.47662
886.465	0.828365
888.143	0.296288
889.822	-0.509766
891.498	1.45372
893.177	0.0556316
894.855	-0.19548
896.53	0.360657
898.208	-0.321928
899.883	-0.1528
901.56	1.53748
903.234	-0.402866
904.91	0.0300465
906.584	0.194574
908.26	0.0702324
909.933	0.215517
911.608	0.451548
913.28	-0.22238
914.955	0.238203
916.627	-0.0783081
918.298	0.0488605
919.972	-0.222603
921.643	0.259905
923.315	-0.0957756
924.986	0.436546
926.656	-0.175404
928.328	-0.341393
929.997	0.0253658
931.668	0.30541
933.337	-0.406591
935.006	1.4848
936.676	0.553736
938.344	0.308599
940.012	1.21334
941.681	0.135958
943.348	1.28866
945.014	0.477364
946.683	0.192846
948.349	-0.47131
950.015	0.250488
951.682	0.858479
953.347	0.980921
955.012	1.19527
956.676	0.424175
958.343	0.278446
960.006	0.360346
961.67	0.181324
963.333	-0.528524
964.998	0.526194
966.661	0.800962
968.323	1.11302
969.985	0.86651
971.649	0.484982
973.31	0.193115
974.971	0.479794
976.632	0.196049
978.293	0.535435
979.953	0.555967
981.615	0.575653
983.274	1.06803
984.933	1.28989
986.592	1.10791
988.251	0.655863
989.909	1.26237
991.567	1.86646
993.225	1.6742
994.884	1.30574
996.541	2.23972
998.198	4.42938
999.855	4.05964
1001.51	4.3499
1003.17	3.9783
1004.82	2.85855
1006.48	3.43213
1008.13	2.73153
1009.79	3.26169
1011.44	3.33182
1013.1	2.0005
1014.75	2.0299
1016.4	1.53494
1018.06	1.32634
1019.71	2.10425
1021.36	1.83495
1023.01	1.3284
1024.66	1.93926
1026.32	2.50792
1027.97	2.22447
1029.62	2.63853
1031.27	2.17547
1032.92	2.5816
1034.57	2.74269
1036.22	2.22381
1037.87	2.61829
1039.52	4.23079
1041.16	2.66694
1042.81	3.0435
1044.46	4.18505
1046.11	4.7667
1047.76	5.61445
1049.4	7.90062
1051.05	8.38851
1052.7	9.14006
1054.34	9.06755
1055.99	8.73425
1057.63	9.29118
1059.28	8.15078
1060.92	7.50809
1062.57	5.18847
1064.21	4.77955
1065.85	3.69368
1067.5	3.73522
1069.14	2.731
1070.78	1.85597
1072.43	1.84958
1074.07	1.36708
1075.71	1.12633
1077.35	1.64836
1078.99	0.634127
1080.63	2.31102
1082.27	0.822062
1083.91	1.52093
1085.55	1.89003
1087.19	1.42987
1088.83	1.28932
1090.47	1.98788
1092.11	1.25512
1093.75	0.219948
1095.39	1.27994
1097.03	0.0983028
1098.66	0.473125
1100.3	0.184729
1101.94	-0.0121593
1103.57	0.634821
1105.21	-0.284998
1106.84	0.195038
1108.48	0.416222
1110.11	-0.698496
1111.75	-0.505554
1113.38	0.370428
1115.02	-0.260796
1116.65	-0.120489
1118.29	-0.323196
1119.92	0.483068
1121.55	0.563089
1123.19	0.667326
1124.82	0.367746
1126.45	0.648258
1128.08	0.374788
1129.71	1.32213
1131.34	1.50124
1132.97	0.783379
1134.6	0.621103
1136.23	0.200768
1137.86	0.611128
1139.49	0.0568104
1141.12	0.695789
1142.75	0.159027
1144.38	0.454941
1146.01	-0.825191
1147.64	-0.759138
1149.26	0.715357
1150.89	0.017889
1152.52	0.577284
1154.15	0.347771
1155.77	0.457838
1157.4	0.992992
1159.02	0.42275
1160.65	-0.633938
1162.27	-0.113878
1163.9	0.111227
1165.52	0.040144
1167.15	0.159857
1168.77	0.4681
1170.39	0.516581
1172.02	0.665913
1173.64	-0.187767
1175.26	0.292875
1176.89	0.0504608
1178.51	-0.275785
1180.13	-0.0493393
1181.75	0.115789
1183.37	0.176905
1184.99	0.047987
1186.61	-0.0198517
1188.23	0.836376
1189.85	-0.506584
1191.47	0.358774
1193.09	0.439718
1194.71	0.287142
1196.33	1.16232
1197.94	0.00661278
1199.56	1.13815
1201.18	1.0203
1202.8	1.39046
1204.41	1.28771
1206.03	1.44164
1207.65	1.97498
1209.26	1.8208
1210.88	0.705097
1212.49	1.21154
1214.11	1.77378
1215.72	1.62081
1217.34	1.10917
1218.95	1.53067
1220.57	1.53566
1222.18	1.39737
1223.79	1.15928
1225.41	2.74795
1227.02	2.10422
1228.63	2.31334
1230.24	2.23658
1231.85	2.26677
1233.47	2.4452
1235.08	2.64797
1236.69	2.58566
1238.3	2.17497
1239.91	3.31704
1241.52	1.52327
1243.13	3.32755
1244.74	3.28874
1246.34	2.56406
1247.95	2.60202
1249.56	3.21706
1251.17	2.50699
1252.78	1.4254
1254.38	3.07624
1255.99	2.26884
1257.6	1.94071
1259.2	2.94018
1260.81	3.05287
1262.42	1.96612
1264.02	2.49452
1265.63	2.46271
1267.23	0.957092
1268.84	2.9105
1270.44	2.1038
1272.04	2.06118
1273.65	1.99488
1275.25	2.25743
1276.85	2.51715
1278.46	1.49002
1280.06	1.80781
1281.66	1.85541
1283.26	3.39275
1284.86	2.36614
1286.46	2.10777
1288.07	2.96863
1289.67	1.49676
1291.27	2.52706
1292.87	2.56526
1294.47	2.99391
1296.06	2.96432
1297.66	3.19841
1299.26	3.36542
1300.86	3.34216
1302.46	2.36763
1304.06	2.79144
1305.65	2.86283
1307.25	3.11734
1308.85	3.84232
1310.44	3.35656
1312.04	3.7737
1313.64	3.57873
1315.23	4.02051
1316.83	3.2803
1318.42	3.88953
1320.02	3.60059
1321.61	3.79835
1323.2	3.82841
1324.8	3.9344
1326.39	2.47271
1327.99	3.30397
1329.58	2.37305
1331.17	3.12751
1332.76	3.76579
1334.36	4.00601
1335.95	3.5044
1337.54	3.26736
1339.13	3.71415
1340.72	3.34977
1342.31	3.4022
1343.9	3.8104
1345.49	3.77243
1347.08	3.87506
1348.67	2.82077
1350.26	3.05661
1351.85	3.33984
1353.43	2.80939
1355.02	2.56317
1356.61	0.839632
1358.2	1.85271
1359.78	3.14198
1361.37	2.96991
1362.96	3.6931
1364.54	2.5603
1366.13	3.68096
1367.71	3.01055
1369.3	2.4041
1370.88	2.93662
1372.47	3.05528
1374.05	3.1774
1375.64	2.96339
1377.22	2.59058
1378.8	1.83827
1380.39	3.25195
1381.97	2.3338
1383.55	2.10832
1385.13	2.19808
1386.72	2.14728
1388.3	1.67992
1389.88	2.54481
1391.46	2.16167
1393.04	2.35646
1394.62	2.3739
1396.2	2.70815
1397.78	2.00937
1399.36	2.6754
1400.94	2.11
1402.52	2.47377
1404.1	2.06544
1405.68	2.46977
1407.25	2.52053
1408.83	2.63315
1410.41	2.11523
1411.98	1.89381
1413.56	3.28952
1415.14	2.80693
1416.71	2.49971
1418.29	2.44781
1419.87	3.00756
1421.44	3.07768
1423.02	2.36515
1424.59	2.85849
1426.16	2.96205
1427.74	3.81531
1429.31	4.13647
1430.89	3.84474
1432.46	5.67479
1434.03	5.57288
1435.6	5.88253
1437.18	5.24886
1438.75	6.30833
1440.32	5.73947
1441.89	7.19814
1443.46	5.43608
1445.03	5.50306
1446.6	6.86793
1448.17	5.79604
1449.74	7.39857
1451.31	6.68294
1452.88	6.67686
1454.45	5.29512
1456.02	6.23443
1457.59	5.55847
1459.16	4.8784
1460.72	5.09819
1462.29	6.13828
1463.86	5.06807
1465.43	4.64393
1466.99	4.72978
1468.56	4.05089
1470.13	4.4744
1471.69	3.88103
1473.26	3.52672
1474.82	2.64558
1476.38	2.76599
1477.95	2.74951
1479.51	3.14454
1481.08	2.6964
1482.64	2.5421
1484.2	3.26921
1485.77	1.58546
1487.33	2.66179
1488.89	2.91125
1490.46	1.39389
1492.02	1.82734
1493.58	3.11293
1495.14	2.55625
1496.7	1.97798
1498.26	2.52905
1499.82	2.12804
1501.38	1.38172
1502.94	1.68783
1504.5	2.03481
1506.06	1.93684
1507.62	1.64386
1509.18	2.27575
1510.73	1.031
1512.29	1.5982
1513.85	0.507565
1515.41	1.93825
1516.96	1.6969
1518.52	1.30501
1520.08	1.27986
1521.63	1.67639
1523.19	1.57422
1524.75	2.00453
1526.3	1.49647
1527.85	1.63439
1529.41	1.46593
1530.96	1.63964
1532.52	1.15064
1534.07	1.1769
1535.62	2.34107
1537.18	1.67276
1538.73	1.98954
1540.28	1.08118
1541.84	1.39946
1543.39	1.81098
1544.94	1.69463
1546.49	2.00991
1548.04	1.31083
1549.59	2.26254
1551.14	1.34036
1552.69	1.50651
1554.25	2.2171
1555.79	0.614819
1557.34	2.39821
1558.89	2.63717
1560.44	1.16555
1561.99	2.31066
1563.54	2.02274
1565.08	2.07244
1566.63	2.90633
1568.18	2.99322
1569.73	2.55635
1571.27	2.36096
1572.82	2.01535
1574.37	2.64003
1575.91	1.9954
1577.46	1.87406
1579	2.96745
1580.55	3.01731
1582.09	3.20031
1583.64	2.39588
1585.18	3.08823
1586.73	3.42745
1588.27	2.90708
1589.81	2.21729
1591.35	2.87346
1592.9	3.24781
1594.44	2.51642
1595.98	4.42644
1597.52	3.28399
1599.06	4.67393
1600.61	4.67923
1602.15	4.77989
1603.69	4.37368
1605.23	3.19481
1606.77	4.60442
1608.31	3.82833
1609.85	4.19161
1611.39	2.9317
1612.93	3.9016
1614.46	3.96547
1616	3.29633
1617.54	3.30416
1619.08	2.71593
1620.61	3.14403
1622.15	3.23904
1623.69	2.43801
1625.23	2.57336
1626.76	2.61293
1628.3	2.8545
1629.83	3.03562
1631.37	2.97038
1632.9	2.95999
1634.44	3.36112
1635.97	2.79402
1637.51	3.83413
1639.04	2.69415
1640.57	3.15797
1642.11	2.79998
1643.64	3.29565
1645.17	4.02904
1646.71	4.23793
1648.24	3.66506
1649.77	3.48403
1651.3	3.23193
1652.83	4.17093
1654.36	4.51932
1655.89	2.88633
1657.42	4.58948
1658.96	4.02947
1660.48	4.39166
1662.01	4.23093
1663.54	3.97441
1665.07	3.47636
1666.6	3.88442
1668.13	4.12915
1669.66	3.41967
1671.19	2.99179
1672.71	3.26752
1674.24	2.77116
1675.77	2.71633
1677.29	2.9169
1678.82	2.48866
1680.35	1.74513
1681.87	2.24973
1683.4	1.77943
1684.92	1.42002
1686.45	1.83231
1687.97	2.64866
1689.5	2.29292
1691.02	2.45099
1692.54	0.760815
1694.07	0.480608
1695.59	2.28438
1697.11	0.778236
1698.64	0.697224
1700.16	1.27208
1701.68	1.3158
1703.2	1.6858
1704.72	0.414673
1706.25	0.945606
1707.77	0.184023
1709.29	0.894783
1710.81	1.22342
1712.33	0.536594
1713.85	0.757286
1715.37	0.199406
1716.89	-0.140659
1718.41	0.929153
1719.92	0.100903
1721.44	0.790119
1722.96	0.54232
1724.48	0.171667
1725.99	0.273376
1727.51	0.324852
1729.03	0.739105
1730.55	1.56158
1732.06	0.0597858
1733.58	0.305206
1735.09	0.929441
1736.61	-0.473848
1738.13	0.270794
1739.64	-1.21772
1741.15	0.339018
1742.67	-0.460724
1744.18	-0.394373
1745.7	0.637909
1747.21	0.251814
1748.72	0.253418
1750.24	0.547636
1751.75	0.0568428
1753.26	-0.104725
1754.77	-0.0575905
1756.29	-0.0472622
1757.8	0.12343
1759.31	0.576351
1760.82	-0.145552
1762.33	0.553532
1763.84	0.158419
1765.35	-0.21174
1766.86	-0.105354
1768.37	0.49482
1769.88	-0.0989513
1771.39	0.3179
1772.9	-0.190035
1774.4	0.0601063
1775.91	0.338671
1777.42	0.0990276
1778.93	0.071537
1780.44	-0.181995
1781.94	0.799501
1783.45	0.180706
1784.96	-0.4279
1786.46	-0.049633
1787.97	0.747084
1789.47	-0.121405
1790.98	-0.0877991
1792.48	-0.195795
1793.99	-0.290092
1795.49	-0.080349
1797	0.324627
1798.5	0.181988
1800.01	0.042326
1801.51	0.662956
1803.01	-0.0236721
1804.51	-0.167498
1806.02	-0.0978909
1807.52	0.489498
1809.02	0.00225258
1810.52	-0.0249023
1812.02	-0.364273
1813.52	0.355238
1815.02	0.130684
1816.53	-0.162689
1818.03	0.251417
1819.52	0.656677
1821.02	0.153248
1822.52	0.280933
1824.02	0.446363
1825.52	0.271061
1827.02	0.285133
1828.52	-0.126814
1830.02	0.654499
1831.51	0.080162
1833.01	-0.107908
1834.51	0.522161
1836.01	0.152073
1837.5	0.33267
1839	0.608585
1840.49	0.519669
1841.99	0.305256
1843.49	-0.388941
1844.98	-0.139692
1846.48	0.110237
1847.97	0.0600662
1849.47	-0.0813713
1850.96	0.249166
1852.45	0.452419
1853.95	-0.0300446
1855.44	0.18037
1856.93	-0.053545
1858.42	0.455189
1859.92	0.14311
1861.41	0.372461
1862.9	0.480682
1864.39	-0.284195
1865.88	0.679583
1867.38	0.382437
1868.87	0.304329
1870.36	-0.308029
1871.85	0.296724
1873.34	0.450121
1874.83	0.0785828
1876.32	0.0700302
1877.81	0.201643
1879.29	0.42696
1880.78	0.539736
1882.27	0.368992
1882.53	0.329969
1884.03	0.294323
1885.52	0.134434
1887.01	-0.132338
1888.51	0.470104
1890	-0.232378
1891.5	-0.635689
1892.99	-0.321318
1894.48	0.641472
1895.97	0.443943
1897.47	0.492315
1898.96	-0.138035
1900.45	1.17697
1901.94	0.243084
1903.43	1.23475
1904.92	0.343981
1906.41	0.511583
1907.9	0.17536
1909.39	0.761189
1910.88	0.29093
1912.37	0.396048
1913.86	0.103897
1915.35	1.00862
1916.84	0.55974
1918.33	1.09744
1919.81	0.472612
1921.3	-0.100096
1922.79	-0.255669
1924.28	0.110733
1925.76	0.37649
1927.25	-0.306793
1928.73	-0.382339
1930.22	-0.406048
1931.71	0.174068
1933.19	0.871153
1934.68	0.195221
1936.16	0.622253
1937.65	0.56119
1939.13	0.0841885
1940.62	-0.460373
1942.1	-0.0181656
1943.58	-0.3841
1945.07	0.252874
1946.55	-0.00587845
1948.03	0.20018
1949.51	0.886278
1951	0.484093
1952.48	-0.195639
1953.96	0.637064
1955.44	-0.267099
1956.92	0.153324
1958.4	0.661055
1959.88	-0.236212
1961.36	0.223518
1962.84	0.186398
1964.32	0.251585
1965.8	0.469387
1967.28	0.3769
1968.76	0.641804
1970.24	0.596968
1971.72	-0.763744
1973.2	-0.142756
1974.67	0.0682907
1976.15	-0.640802
1977.63	0.0652618
1979.1	-0.0633354
1980.58	0.437523
1982.06	0.223288
1983.54	-0.2293
1985.01	0.879377
1986.49	0.0861073
1987.96	0.700613
1989.44	0.366837
1990.91	0.289343
1992.39	0.163937
1993.86	0.531834
1995.33	0.361063
1996.81	0.884333
1998.28	0.545868
1999.75	0.088213
2001.23	0.793545
2002.7	0.822126
2004.17	-0.00946045
2005.65	1.16587
2007.12	0.354931
2008.59	0.3892
2010.06	1.18357
2011.53	0.262291
2013	0.603735
2014.47	0.725082
2015.94	-0.013895
2017.41	0.405443
2018.88	0.704397
2020.35	0.060564
2021.82	0.206278
2023.29	1.10814
2024.76	0.333721
2026.23	0.989025
2027.69	0.440752
2029.16	0.584532
2030.63	0.614788
2032.1	0.060545
2033.56	0.0109119
2035.03	0.498623
2036.5	-0.0559902
2037.96	0.395779
2039.43	-0.212187
2040.89	0.221663
2042.36	0.623188
2043.83	0.791639
2045.29	0.525368
2046.75	1.20382
2048.22	0.485756
2049.68	1.04691
2051.15	0.239872
2052.61	0.844559
2054.07	0.853821
2055.54	0.0148754
2057	0.908752
2058.46	0.603287
2059.92	0.482906
2061.39	0.19545
2062.85	0.667973
2064.31	0.621477
2065.77	0.426443
2067.23	1.04163
2068.69	0.211166
2070.15	-0.0462551
2071.61	0.538197
2073.07	1.08872
2074.53	-0.0116253
2075.99	0.890892
2077.45	0.849371
2078.91	-0.0352955
2080.37	0.611177
2081.82	0.363605
2083.28	0.467724
2084.74	0.283621
2086.2	0.921818
2087.65	0.330305
2089.11	0.275961
2090.57	0.993767
2092.02	0.468277
2093.48	0.379364
2094.94	-0.632523
2096.39	0.517456
2097.85	0.659178
2099.3	0.748716
2100.76	0.770336
2102.21	0.608763
2103.66	0.349583
2105.12	0.478191
2106.57	0.493814
2108.03	1.36301
2109.48	1.28228
2110.93	0.383232
2112.38	1.06411
2113.84	0.773582
2115.29	0.196091
2116.74	0.182327
2118.19	0.784042
2119.64	0.127136
2121.09	0.687368
2122.54	0.88772
2123.99	0.926262
2125.45	0.485771
2126.89	0.475706
2128.34	0.694954
2129.79	-0.365658
2131.24	0.0948963
2132.69	0.685228
2134.14	-0.396011
2135.59	0.0637245
2137.04	0.32869
2138.48	0.119287
2139.93	0.328157
2141.38	0.425808
2142.83	0.559805
2144.27	0.910734
2145.72	0.252754
2147.17	0.222599
2148.61	-0.0908279
2150.06	0.736364
2151.5	0.0534077
2152.95	0.42816
2154.39	0.237381
2155.84	0.741211
2157.28	0.499731
2158.73	0.210497
2160.17	0.951866
2161.61	0.322851
2163.06	0.842201
2164.5	0.934881
2165.94	-0.182001
2167.38	0.161316
2168.83	0.169857
2170.27	0.606184
2171.71	1.22015
2173.15	0.348433
2174.59	0.637527
2176.03	-0.0229206
2177.47	0.497919
2178.91	0.638247
2180.36	0.781166
2181.8	-0.121071
2183.23	-0.323578
2184.67	1.18776
2186.11	0.354189
2187.55	0.834845
2188.99	1.14939
2190.43	0.698305
2191.87	0.462778
2193.3	0.574862
2194.74	0.75005
2196.18	0.221233
2197.62	0.253248
2199.05	0.44698
2200.49	-0.060112
2201.93	0.811142
2203.36	-0.158651
2204.8	0.484005
2206.23	0.76413
2207.67	0.730684
2209.1	0.796137
2210.54	0.875973
2211.97	0.539486
2213.41	0.647717
2214.84	1.58132
2216.27	0.121908
2217.71	0.877909
2219.14	-0.0125065
2220.57	0.534254
2222.01	0.916224
2223.44	0.47226
2224.87	1.07881
2226.3	1.21916
2227.73	0.549129
2229.16	0.435261
2230.6	0.64765
2232.03	0.400164
2233.46	0.514091
2234.89	0.531719
2236.32	0.405481
2237.75	0.398026
2239.18	1.1952
2240.61	0.349852
2242.03	0.569855
2243.46	0.271296
2244.89	1.19701
2246.32	0.865002
2247.75	0.691772
2249.17	0.659475
2250.6	0.344191
2252.03	0.578058
2253.46	0.240061
2254.88	0.585859
2256.31	0.366833
2257.73	0.900879
2259.16	0.744841
2260.59	0.807764
2262.01	0.179455
2263.44	0.659235
2264.86	0.474083
2266.29	-0.021225
2267.71	0.440651
2269.14	0.249454
2270.56	0.055954
2271.98	-0.090147
2273.4	1.08241
2274.83	0.186903
2276.25	-0.26856
2277.67	0.531176
2279.09	0.532692
2280.52	0.517754
2281.94	0.893906
2283.36	0.470568
2284.78	0.14505
2286.2	0.652424
2287.62	0.556959
2289.04	0.887323
2290.46	0.042532
2291.88	0.211317
2293.3	0.217022
2294.72	0.0917835
2296.14	0.178991
2297.56	-0.192392
2298.98	0.189638
2300.4	0.572521
2301.82	-0.0601578
2303.23	0.455723
2304.65	0.18465
2306.07	0.0116215
2307.49	0.461878
2308.9	0.680914
2310.32	0.0434227
2311.73	0.473619
2313.15	0.361004
2314.57	0.562132
2315.98	0.320808
2317.4	1.1852
2318.81	0.732996
2320.23	0.345606
2321.64	0.400381
2323.06	0.367569
2324.47	1.31865
2325.88	0.844223
2327.3	0.959202
2328.71	0.594028
2330.12	0.14744
2331.54	0.54332
2332.95	0.629225
2334.36	0.240246
2335.77	0.460779
2337.18	-0.158773
2338.6	-0.402376
2340.01	0.337128
2341.42	0.646284
2342.83	0.18236
2344.24	-0.264627
2345.65	0.141932
2347.06	0.253933
2348.47	-0.305243
2349.88	-0.194033
2351.29	0.160168
2352.7	-0.142128
2354.1	0.369473
2355.51	0.486994
2356.92	-0.0967789
2358.33	0.882029
2359.74	-0.610479
2361.14	0.221323
2362.55	0.305546
2363.96	-0.307112
2365.36	0.003582
2366.77	0.330275
2368.18	0.399612
2369.58	0.229662
2370.99	-0.0492954
2372.39	-0.0182552
2373.8	0.192562
2375.2	-0.786903
2376.61	0.40554
2378.01	0.532581
2379.42	0.0446949
2380.82	0.11504
2382.22	0.886976
2383.63	-0.0109062
2385.03	0.500362
2386.43	0.204699
2387.84	-0.0878868
2389.24	0.428446
2390.64	0.389711
2392.04	-0.585098
2393.44	0.114601
2394.84	0.402308
2396.25	-0.278093
2397.65	0.521681
2399.05	-0.361658
2400.45	0.106991
2401.85	-0.583172
2403.25	0.251568
2404.65	-0.312233
2406.05	0.185501
2407.45	0.458288
2408.84	0.0308952
2410.24	0.490723
2411.64	0.0793114
2413.04	-0.361242
2414.44	-0.529036
2415.83	0.383511
2417.23	0.967127
2418.63	0.666651
2420.02	-0.0605469
2421.42	-0.0913792
2422.82	-0.376617
2424.21	-0.0288887
2425.61	0.224009
2427	0.494207
2428.4	0.243664
2429.8	-0.0203648
2431.19	0.891352
2432.58	-0.545158
2433.98	0.318569
2435.37	-0.0115967
2436.77	0.718752
2438.16	0.142244
2439.55	0.626722
2440.95	-0.114252
2442.34	-0.0148201
2443.73	0.464617
2445.12	0.324602
2446.51	0.374544
2447.91	-0.479202
2449.3	0.283468
2450.69	-0.14142
2452.08	0.131823
2453.47	-0.257626
2454.86	0.937349
2456.25	0.172359
2457.64	-0.306948
2459.03	-0.486074
2460.42	-0.0182362
2461.81	0.54217
2463.2	-0.259117
2464.59	0.0130005
2465.98	-0.363375
2467.36	0.775724
2468.75	-0.263723
2470.14	-0.198782
2471.53	0.38508
2472.92	-0.199242
2474.3	0.0652847
2475.69	-0.364386
2477.08	0.00724792
2478.46	-0.344255
2479.85	-0.443689
2481.23	0.382574
2482.62	0.141989
2484	0.0727673
2485.39	0.110855
2486.77	0.0990391
2488.16	-0.39933
2489.54	0.114601
2490.93	-0.229176
2492.31	-0.244295
2493.69	-0.241089
2495.08	0.215424
2496.46	0.147449
2497.84	0.174753
2499.23	0.109861
2500.61	0.399933
2501.99	-0.177952
2503.37	0.230835
2504.75	-0.350693
2506.13	0.515766
2507.52	-0.344074
2508.9	-0.0794048
2510.28	-0.428476
2511.66	-0.115496
2513.04	-0.460201
2514.42	0.0862198
2515.8	-0.0699558
2517.18	0.510311
2518.55	0.204638
2519.93	-0.37532
2521.31	0.388649
2522.69	0.0205402
2524.07	0.413374
2525.45	-0.308788
2526.82	-0.132023
2528.2	-0.487043
2529.58	0.332052
2530.95	0.120878
2532.33	0.233311
2533.71	0.379644
2535.08	-0.0798664
2536.46	-0.812939
2537.84	-0.165197
2539.21	0.160963
2540.59	0.469622
2541.96	0.397692
2543.34	0.189987
2544.71	0.454844
2546.08	-0.217573
2547.46	0.417665
2548.83	-0.294977
2550.2	0.175867
2551.58	0.28141
2552.95	0.081068
2554.32	0.53059
2555.7	0.85626
2557.07	-0.0179367
2558.44	0.336235
2559.81	0.599957
2561.18	0.561836
2562.55	-0.0656223
2563.93	0.141987
2565.3	0.335522
2566.67	0.0296288
2568.04	-0.41247
2569.41	-0.00583458
2570.78	0.173471
2572.15	0.246809
2573.51	0.199093
2574.88	0.0303421
2576.25	0.604528
2577.62	0.11726
2578.99	-0.00673866
2580.36	0.20196
2581.73	-0.591141
2583.09	0.434309
2584.46	0.458397
2585.83	0.361094
2587.19	0.582397
2588.56	-0.453735
2589.93	0.0714531
2591.29	-0.646326
2592.66	0.619759
2594.02	0.216986
2595.39	0.311552
2596.75	0.206617
2598.12	-0.550732
2599.48	-0.0381603
2600.85	0.292759
2602.21	0.0960331
2603.58	0.203119
2604.94	-0.231674
2606.3	0.737192
2607.67	-0.406504
2609.03	0.0462666
2610.39	0.359917
2611.76	0.0677204
2613.12	-0.0765476
2614.48	-0.748211
2615.84	0.501553
2617.2	0.415239
2618.56	0.28574
2619.92	-0.185692
2621.28	0.661285
2622.65	-0.120262
2624.01	-0.168489
2625.37	0.395033
2626.72	0.420319
2628.08	0.0125923
2629.44	-0.127272
2630.8	0.387188
2632.16	0.603237
2633.52	0.313799
2634.88	0.0692825
2636.24	-0.189743
2637.59	0.322165
2638.95	0.211535
2640.31	0.412163
2641.67	0.450544
2643.02	0.445278
2644.38	0.292839
2645.74	0.509228
2647.09	-0.160208
2648.45	0.627886
2649.8	0.529562
2651.16	0.767797
2652.51	0.520121
2653.87	0.258862
2655.22	0.351788
2656.58	0.740284
2657.93	-0.010416
2659.29	0.617107
2660.64	0.236166
2661.99	-0.627026
2663.35	0.232758
2664.7	0.242859
2666.05	0.338552
2667.41	0.491184
2668.76	-0.0264854
2670.11	0.577711
2671.46	0.542625
2672.81	-0.275402
2674.16	0.361284
2675.51	-0.0898304
2676.87	0.171804
2678.22	0.173834
2679.57	0.250463
2680.92	-0.105244
2682.27	-0.0664997
2683.62	0.395721
2684.97	0.512442
2686.31	0.0500298
2687.66	0.298117
2689.01	-0.284119
2690.36	0.30533
2691.71	0.643318
2693.06	0.483948
2694.4	0.583279
2695.75	0.725525
2697.1	0.333237
2698.45	0.132753
2699.79	0.298521
2701.14	-0.0961037
2702.49	0.208063
2703.83	0.254227
2705.18	-0.118702
2706.52	0.683004
2707.87	0.280342
2709.21	0.224758
2710.56	0.0955677
2711.9	0.474037
2713.25	0.1985
2714.59	0.663933
2715.94	-0.208191
2717.28	0.664133
2718.62	-0.0349102
2719.97	0.123341
2721.31	1.11008
2722.65	-0.0146484
2723.99	0.664192
2725.34	1.10908
2726.68	0.577784
2728.02	0.49692
2729.36	1.27406
2730.7	0.581049
2732.04	0.659204
2733.39	1.14488
2734.73	0.496349
2736.07	0.357492
2737.41	0.102631
2738.75	-0.00682259
2740.08	0.101263
2741.43	0.120928
2742.76	0.139002
2744.1	0.0826931
2745.44	0.693167
2746.78	0.314625
2748.12	0.952009
2749.46	-0.108583
2750.79	0.0504436
2752.13	0.00700951
2753.47	0.398954
2754.81	-0.338987
2756.14	0.256355
2757.48	0.185694
2758.81	0.651318
2760.15	0.0901222
2761.49	-0.0934391
2762.82	0.635792
2764.16	0.251596
2765.49	0.200182
2766.83	-0.214014
2768.16	0.0495033
2769.5	-0.225229
2770.83	0.522808
2772.16	0.212347
2773.5	-0.215614
2774.83	-0.21167
2776.17	0.58437
2777.5	-0.562889
2778.83	0.104944
2780.16	0.255733
2781.5	-0.325266
2782.83	-0.159016
2784.16	0.250692
2785.49	0.272848
2786.82	-0.0769539
2788.15	-0.0672359
2789.49	-0.542084
2790.82	0.63036
2792.15	-0.269241
2793.48	-0.338171
2794.81	0.207581
2796.14	0.0521374
2797.46	-0.418777
2798.79	0.0802212
2800.12	0.192432
2801.45	0.232567
2802.78	0.129614
2804.11	-0.144875
2805.44	0.405941
2806.76	-0.426012
2808.09	0.235071
2809.42	0.0840797
2810.75	0.00440598
2812.07	0.309475
2813.4	0.546043
2814.73	0.0771179
2816.05	-0.402203
2817.38	0.538626
2818.7	0.14852
2820.03	0.353729
2821.36	0.0476208
2822.68	0.17927
2824.01	-0.00233078
2825.33	0.806841
2826.65	0.63862
2827.98	0.95314
2829.3	0.348791
2830.63	0.694138
2831.95	0.88427
2833.27	0.465588
2834.6	1.43327
2835.92	1.29567
2837.24	1.66615
2838.56	1.80906
2839.88	2.57362
2841.21	2.89977
2842.53	3.50957
2843.85	3.58382
2845.17	3.8437
2846.49	3.73777
2847.81	3.22293
2849.13	4.13561
2850.45	4.11473
2851.77	4.03606
2853.09	3.7441
2854.41	4.12952
2855.73	4.18941
2857.05	5.16747
2858.37	5.28381
2859.69	5.4848
2861	5.0499
2862.32	5.63078
2863.64	6.59152
2864.96	6.90202
2866.28	6.85964
2867.59	7.77697
2868.91	7.65172
2870.23	8.4863
2871.54	8.06655
2872.86	8.47772
2874.17	8.68944
2875.49	8.98266
2876.81	8.35755
2878.12	9.18021
2879.44	8.49643
2880.75	8.64356
2882.07	8.79274
2883.38	9.18342
2884.69	7.91969
2886.01	8.35671
2887.32	9.11657
2888.63	8.37351
2889.95	9.29808
2891.26	8.74745
2892.57	8.93849
2893.89	9.26903
2895.2	9.09618
2896.51	8.6177
2897.82	9.47165
2899.13	9.44655
2900.44	9.1158
2901.76	9.73757
2903.07	10.2759
2904.38	9.97533
2905.69	9.95528
2907	10.1885
2908.31	10.6756
2909.62	11.1372
2910.93	11.1526
2912.24	11.476
2913.55	11.6715
2914.85	12.4373
2916.16	12.4986
2917.47	12.9195
2918.78	12.3301
2920.09	14.0485
2921.4	14.5092
2922.7	14.3861
2924.01	14.0013
2925.32	14.5282
2926.62	15.2106
2927.93	14.5791
2929.24	14.7015
2930.54	15.2697
2931.85	15.2495
2933.15	15.0608
2934.46	14.383
2935.76	15.8718
2937.07	14.9712
2938.37	14.7281
2939.68	13.4377
2940.98	14.3285
2942.29	12.3989
2943.59	13.0297
2944.89	12.0007
2946.2	11.7572
2947.5	11.7529
2948.8	11.3281
2950.11	10.4522
2951.41	10.7757
2952.71	10.0724
2954.01	10.0518
2955.32	10.4222
2956.62	10.0109
2957.92	9.88474
2959.22	9.51324
2960.52	9.52654
2961.82	9.16644
2963.12	8.54119
2964.42	9.05088
2965.72	8.57441
2967.02	8.41665
2968.32	7.98847
2969.62	7.68478
2970.92	7.71824
2972.22	7.40074
2973.51	6.73211
2974.81	6.64026
2976.11	6.4765
2977.41	6.40825
2978.71	6.32187
2980	5.96393
2981.3	6.57399
2982.6	5.56475
2983.9	5.10549
2985.19	5.54866
2986.49	4.68845
2987.78	4.50636
2989.08	4.76229
2990.38	4.21788
2991.67	3.72852
2992.97	4.03783
2994.26	3.9647
2995.56	3.65017
2996.85	3.53072
2998.14	3.14427
2999.44	2.02937
3000.73	2.59921
3002.03	2.3711
3003.32	1.96198
3004.61	1.86159
3005.91	2.1528
3007.2	1.92447
3008.49	1.34469
3009.78	1.65844
3011.07	1.1038
3012.37	0.758499
3013.66	1.3903
3014.95	0.697859
3016.24	0.133417
3017.53	0.281431
3018.82	0.0269527
3020.11	0.84384
3021.4	0.477446
3022.69	0.470806
3023.98	0.420395
3025.27	0.28525
3026.56	0.343834
3027.85	-0.067009
3029.14	-0.5299
3030.43	-0.14599
3031.71	-0.394457
3033	0.243196
3034.29	0.163555
3035.58	0.248413
3036.87	-0.0419254
3038.15	-0.101519
3039.44	0.399139
3040.73	-0.80908
3042.01	0.0839577
3043.3	0.0699024
3044.59	0.249523
3045.87	0.145386
3047.16	-0.00821114
3048.44	0.21232
3049.73	0.492102
3051.01	0.748167
3052.3	0.610415
3053.58	0.390949
3054.87	-0.279989
3056.15	0.110964
3057.43	-0.0595779
3058.72	0.163527
3060	0.671793
3061.29	0.159807
3062.57	0.208273
3063.85	0.3822
3065.13	0.00220108
3066.42	0.468313
3067.7	0.73291
3068.98	0.413792
3070.26	-0.449951
3071.54	-0.00982285
3072.82	0.210125
3074.11	0.155464
3075.39	0.357044
3076.67	0.0146008
3077.95	-0.122883
3079.23	-0.13567
3080.51	0.411083
3081.79	0.676493
3083.07	-0.208307
3084.35	0.265139
3085.63	-0.15671
3086.9	0.357016
3088.18	-0.107924
3089.46	0.253689
3090.74	-0.294838
3092.02	-0.409191
3093.29	0.399284
3094.57	-0.25635
3095.85	0.282139
3097.13	0.454752
3098.4	0.166487
3099.68	0.542141
3100.95	0.294418
3102.23	0.101288
3103.51	-0.266989
3104.78	0.570814
3106.06	0.47629
3107.33	0.0591621
3108.61	-0.0307827
3109.88	0.206549
3111.16	0.270248
3112.43	0.701521
3113.71	0.294054
3114.98	0.496397
3116.25	0.887854
3117.53	0.219806
3118.8	-0.0572519
3120.07	0.734965
3121.35	0.792857
3122.62	0.48368
3123.89	1.13627
3125.16	1.03063
3126.44	0.966808
3127.71	0.688045
3128.98	1.00588
3130.25	1.21632
3131.52	0.994476
3132.79	1.29968
3134.06	1.32036
3135.33	0.867588
3136.6	1.07531
3137.87	1.10663
3139.14	1.48753
3140.41	1.46388
3141.68	1.01024
3142.95	1.44507
3144.22	1.34346
3145.49	1.48499
3146.76	1.29294
3148.02	1.47794
3149.29	1.27589
