200.43	0.690842
202.246	0.726405
204.061	0.763565
205.875	-0.12232
207.688	0.378604
209.501	0.732577
211.316	0.47755
213.129	0.730731
214.941	0.230136
216.753	0.286879
218.566	0.755274
220.377	-0.25269
222.188	-0.581065
223.999	0.32493
225.809	0.0224047
227.618	0.227437
229.43	-0.22017
231.239	-0.185494
233.047	0.741231
234.855	0.293015
236.663	0.0394478
238.471	1.04178
240.278	0.287667
242.087	0.548765
243.894	0.184456
245.7	0.688504
247.506	-0.23356
249.311	0.0479107
251.116	-0.30231
252.921	0.164767
254.725	0.460267
256.529	0.417244
258.333	-0.10681
260.136	-0.122658
261.939	-0.47352
263.744	0.285727
265.546	0.540355
267.348	0.530334
269.15	0.302862
270.951	0.291176
272.752	0.060935
274.552	-0.267585
276.353	0.125067
278.152	0.900693
279.952	0.468707
281.751	0.612199
283.55	0.752985
285.348	0.0987167
287.146	0.668722
288.942	0.685959
290.739	0.129111
292.536	0.316714
294.333	-0.116037
296.129	0.361909
297.925	0.601707
299.721	-0.0182133
301.516	-0.0170517
303.311	-0.279631
305.106	-0.42423
306.9	0.407995
308.694	-0.143702
310.486	0.139592
312.279	0.019104
314.072	0.686357
315.864	0.950914
317.656	0.288938
319.448	0.724302
321.24	0.374871
323.029	-0.284092
324.819	0.273572
326.61	-0.266374
328.4	0.0766106
330.19	0.0844193
331.977	0.282022
333.766	-0.120513
335.555	0.0723696
337.343	0.836703
339.131	0.377958
340.917	-0.106483
342.704	0.316736
344.491	0.142056
346.277	-0.246968
348.062	0.343946
349.848	1.34094
351.633	0.762208
353.416	0.0874901
355.201	-0.540462
356.986	0.23723
358.77	0.345175
360.552	-0.0724487
362.335	0.413581
364.118	-0.124601
365.899	-0.472795
367.682	0.460333
369.464	0.821435
371.243	0.0436611
373.025	0.118395
374.806	-0.398403
376.585	-0.394745
378.365	0.811994
380.143	0.13273
381.923	-0.00263405
383.702	-0.183394
385.479	0.342719
387.258	0.0942965
389.034	0.082201
390.812	-0.140169
392.59	0.272473
394.365	-0.0188036
396.142	0.230436
397.916	0.315326
399.693	0.517381
401.467	0.460456
403.242	0.402698
405.015	-0.21972
406.79	0.260733
408.565	-0.198915
410.337	0.162683
412.111	0.125129
413.882	0.0410538
415.656	-0.08918
417.426	-0.21857
419.197	-0.183049
420.969	-0.194221
422.739	0.428026
424.51	0.39219
426.279	0.754253
428.05	0.0118656
429.819	0.325193
431.589	0.145467
433.356	0.341555
435.124	0.678794
436.893	0.476152
438.66	-0.173297
440.428	0.818202
442.194	0.188112
443.96	0.071702
445.727	0.515361
447.492	0.488625
449.259	-0.0765676
451.023	0.200355
452.787	0.220333
454.553	-0.226019
456.316	0.143992
458.079	-0.348499
459.844	-0.351558
461.606	0.134403
463.368	0.296133
465.132	-0.352713
466.893	0.930393
468.654	-0.0140448
470.415	0.601035
472.177	-0.318237
473.937	0.343741
475.696	-0.160397
477.456	0.241118
479.217	0.0580349
480.975	-0.405804
482.733	0.877271
484.491	-0.307162
486.251	0.839873
488.008	0.0558233
489.765	0.696006
491.522	0.474721
493.278	0.253831
495.036	0.640808
496.791	0.466545
498.546	0.22127
500.301	1.12406
502.056	0.525424
503.81	0.370987
505.566	0.637983
507.319	0.597843
509.073	0.767459
510.825	0.629247
512.578	0.700777
514.33	0.840993
516.082	1.28522
517.833	-0.200792
519.587	0.804841
521.337	0.32833
523.088	0.744051
524.838	0.76
526.588	0.0720949
528.337	0.486883
530.087	0.760468
531.835	0.424263
533.584	0.227887
535.332	0.287633
537.08	0.392303
538.827	0.0981464
540.574	0.269563
542.321	0.276512
544.068	0.655159
545.814	1.28839
547.56	0.249274
549.305	0.0705681
551.05	0.216676
552.795	1.10283
554.54	1.06305
556.284	-0.176648
558.027	0.131579
559.771	0.324586
561.514	0.402798
563.257	0.228541
564.999	0.032239
566.742	0.135547
568.481	0.354465
570.223	0.505565
571.964	-0.167673
573.705	0.331139
575.445	0.212666
577.185	0.37152
578.925	-0.294321
580.665	0.739715
582.402	-0.0174456
584.141	-0.0632925
585.879	0.671556
587.617	0.508116
589.355	0.0900173
591.092	0.153868
592.828	-0.128056
594.564	0.118971
596.301	0.389024
598.037	-0.0541878
599.773	0.077342
601.506	-0.0221701
603.242	0.221805
604.976	0.325914
606.711	0.497241
608.443	0.39178
610.177	0.263268
611.91	0.135441
613.644	0.123311
615.374	0.295364
617.107	-0.334379
618.839	0.501469
620.569	-0.541749
622.3	0.107583
624.032	-0.205131
625.761	0.145028
627.491	-0.234621
629.221	0.415316
630.949	-0.00463581
632.679	0.171187
634.408	0.0744905
636.135	0.822029
637.863	0.403356
639.592	0.209709
641.318	0.651263
643.045	0.4054
644.77	0.818668
646.497	0.640044
648.224	0.123036
649.948	-0.139709
651.674	0.329245
653.398	-0.583444
655.123	0.394696
656.846	0.625948
658.57	0.790545
660.293	0.453023
662.017	0.729572
663.738	0.0667133
665.462	0.360461
667.185	-0.171194
668.905	0.210869
670.628	0.616723
672.348	0.224253
674.067	1.00224
675.789	0.500644
677.508	1.23866
679.228	0.164005
680.947	0.212559
682.667	0.397106
684.385	0.625335
686.104	0.459802
687.821	0.845001
689.538	0.238451
691.256	0.966962
692.972	0.612065
694.69	0.210219
696.406	0.797508
698.121	0.416152
699.837	0.309654
701.552	0.845807
703.268	0.322868
704.982	0.534728
706.695	0.424333
708.41	0.726342
710.123	1.09614
711.836	0.869623
713.55	1.28352
715.262	0.599524
716.973	1.24094
718.685	0.69512
720.398	1.58632
722.108	0.74555
723.818	1.22594
725.53	0.455017
727.24	1.0479
728.949	1.25342
730.658	1.16326
732.369	0.733045
734.077	1.45734
735.785	0.620684
737.493	0.644167
739.2	0.961713
740.909	0.693817
742.616	1.53161
744.322	1.40204
746.028	1.27443
747.734	1.28369
749.441	0.574879
751.146	1.53221
752.851	1.20914
754.555	1.1802
756.26	1.33317
757.963	0.632656
759.667	1.0371
761.372	1.21806
763.075	1.15181
764.777	1.4013
766.479	1.60456
768.181	1.69272
769.883	1.59727
771.584	1.09214
773.285	1.73848
774.986	1.95451
776.686	2.30686
778.386	2.48006
780.085	1.8638
781.785	1.65593
783.484	2.24027
785.182	1.89543
786.881	1.8871
788.579	1.6937
790.276	2.33317
791.974	1.72511
793.671	2.08694
795.367	2.31234
797.064	1.9525
798.76	1.3927
800.456	1.0835
802.151	1.78879
803.846	1.63982
805.541	1.35594
807.236	1.94764
808.93	1.75124
810.624	2.22683
812.317	1.89324
814.01	1.78351
815.703	1.71841
817.394	2.3468
819.086	1.23098
820.778	0.988142
822.47	1.63867
824.161	2.20003
825.852	1.4478
827.543	2.36953
829.231	1.55732
830.921	2.06304
832.611	1.97117
834.3	1.61451
835.989	0.7458
837.676	1.6613
839.364	1.45993
841.053	2.39562
842.74	1.4757
844.426	1.31454
846.113	1.51174
847.8	1.26409
849.486	1.35483
851.171	1.51601
852.857	1.20928
854.542	1.03777
856.227	1.29254
857.911	0.826999
859.595	0.853715
861.279	0.653128
862.961	1.01358
864.645	1.48546
866.329	0.987131
868.01	1.41227
869.692	0.979991
871.375	1.13367
873.055	1.06157
874.737	1.19244
876.418	1.07514
878.097	1.11585
879.778	1.69822
881.457	1.60302
883.137	1.01025
884.817	0.574205
886.495	1.51336
888.174	0.442013
889.851	0.993338
891.53	0.93371
893.206	0.87254
894.884	1.03502
896.562	1.35323
898.237	0.771301
899.914	1.19888
901.589	1.13157
903.265	1.3546
904.94	1.08519
906.615	0.615847
908.289	1.15168
909.964	0.796613
911.637	0.643681
913.31	0.336362
914.984	0.629576
916.656	1.34384
918.33	0.261531
920.001	0.399211
921.674	1.28945
923.345	0.300794
925.015	0.0886707
926.687	0.14392
928.357	0.112883
930.028	0.480568
931.698	0.495984
933.366	0.511763
935.037	0.638059
936.705	0.279665
938.373	0.120857
940.043	0.933971
941.71	0.601724
943.379	0.226144
945.046	0.931747
946.712	0.488391
948.378	0.705004
950.046	0.654382
951.711	1.50682
953.376	0.351779
955.043	0.76478
956.708	0.85039
958.372	0.035675
960.036	0.327188
961.701	-0.129972
963.364	0.163688
965.027	0.27884
966.69	0.302423
968.354	0.654527
970.016	0.694272
971.678	0.755013
973.339	0.993209
975	0.923604
976.661	0.458225
978.324	0.282157
979.984	0.538362
981.644	0.794288
983.303	0.97119
984.962	2.16398
986.621	1.80435
988.282	0.911532
989.94	1.12355
991.598	0.9146
993.256	0.418549
994.913	0.364693
996.57	0.553748
998.227	0.874879
999.884	1.26148
1001.54	1.71317
1003.2	0.821303
1004.85	0.699966
1006.51	0.358912
1008.16	0.874937
1009.82	0.907894
1011.47	0.700162
1013.12	0.559046
1014.78	0.243387
1016.43	0.497788
1018.08	0.949522
1019.74	1.27065
1021.39	0.587204
1023.04	0.670612
1024.69	1.01749
1026.34	0.578405
1028	1.75635
1029.65	1.97194
1031.3	1.48691
1032.95	0.716318
1034.6	1.14439
1036.25	1.11228
1037.9	1.64554
1039.55	1.28537
1041.19	0.926641
1042.84	0.983111
1044.49	0.889698
1046.14	1.14641
1047.79	0.8843
1049.43	1.31935
1051.08	0.822184
1052.73	0.760434
1054.37	0.612248
1056.02	0.550972
1057.66	0.771947
1059.31	1.27505
1060.95	0.668494
1062.6	0.800227
1064.24	0.474193
1065.88	0.973046
1067.53	0.644417
1069.17	1.14034
1070.81	0.766377
1072.46	1.21742
1074.1	1.01779
1075.74	0.60275
1077.38	0.211301
1079.02	0.0600624
1080.66	0.0832872
1082.3	0.626966
1083.94	0.388967
1085.58	0.409201
1087.22	0.881914
1088.86	0.701859
1090.5	0.498207
1092.14	0.682491
1093.78	0.196317
1095.42	0.811647
1097.05	1.10357
1098.69	0.922927
1100.33	0.680243
1101.97	0.935182
1103.6	0.202712
1105.24	0.547675
1106.87	0.420166
1108.51	0.141815
1110.15	0.743781
1111.78	0.956549
1113.41	-0.100367
1115.05	0.431046
1116.68	-0.154542
1118.31	0.0968952
1119.95	-0.165342
1121.58	-0.0406284
1123.21	0.106679
1124.85	0.832777
1126.48	0.789548
1128.11	0.469376
1129.74	0.620627
1131.37	0.494664
1133	0.155362
1134.63	0.0297337
1136.26	-0.310321
1137.89	0.374167
1139.52	0.0742245
1141.15	0.0721922
1142.78	0.240258
1144.41	1.06948
1146.04	0.150709
1147.66	0.491218
1149.29	0.363925
1150.92	0.237344
1152.55	-0.165975
1154.17	-0.356586
1155.8	0.197347
1157.43	-0.419384
1159.05	-0.120713
1160.68	0.6254
1162.3	0.479684
1163.93	-0.345089
1165.55	0.425433
1167.17	0.366469
1168.8	-0.0551882
1170.42	-0.436196
1172.05	0.519203
1173.67	0.60086
1175.29	0.277719
1176.91	0.0816193
1178.54	-0.0927477
1180.16	0.07267
1181.78	-0.0994873
1183.4	-0.207173
1185.02	0.382628
1186.64	0.315991
1188.26	-0.132317
1189.88	-0.055233
1191.5	-0.485872
1193.12	-0.517726
1194.74	0.310352
1196.36	0.528132
1197.97	0.725548
1199.59	0.631905
1201.21	1.23097
1202.83	0.266647
1204.44	-0.0672321
1206.06	0.248543
1207.68	0.440691
1209.29	0.0908365
1210.91	-0.197282
1212.52	0.409272
1214.14	0.199903
1215.75	0.779295
1217.37	0.336101
1218.98	0.619829
1220.6	0.0309238
1222.21	0.89574
1223.82	0.351572
1225.44	0.638351
1227.05	1.54746
1228.66	0.80284
1230.27	0.577345
1231.88	1.15965
1233.49	0.606565
1235.1	0.69582
1236.72	1.11731
1238.33	1.47822
1239.94	1.11646
1241.55	1.4787
1243.16	1.61314
1244.76	1.25003
1246.37	2.08574
1247.98	0.954332
1249.59	2.32563
1251.2	2.04118
1252.8	1.79846
1254.41	1.76357
1256.02	1.31643
1257.63	1.36729
1259.23	1.68869
1260.84	2.11497
1262.44	1.96239
1264.05	1.43688
1265.66	1.94661
1267.26	2.26914
1268.87	2.44542
1270.47	1.87389
1272.07	1.84001
1273.68	2.57185
1275.28	1.8097
1276.88	2.33144
1278.48	2.16816
1280.09	2.27334
1281.69	2.64707
1283.29	1.98623
1284.89	2.05045
1286.49	2.83936
1288.09	2.65789
1289.69	1.96115
1291.3	3.001
1292.9	2.61491
1294.49	2.88898
1296.09	2.06659
1297.69	2.37804
1299.29	2.50124
1300.89	2.99331
1302.49	2.39112
1304.09	3.1881
1305.68	2.11164
1307.28	2.72079
1308.88	2.5076
1310.47	2.2744
1312.07	2.04219
1313.66	2.83404
1315.26	2.19543
1316.86	2.39629
1318.45	2.12838
1320.05	2.71698
1321.64	2.10163
1323.23	2.03483
1324.83	1.68134
1326.42	2.56522
1328.01	2.29044
1329.61	2.48277
1331.2	2.09026
1332.79	2.02477
1334.38	2.5075
1335.98	2.52773
1337.57	1.76214
1339.16	1.80288
1340.75	1.90187
1342.34	1.89734
1343.93	1.87014
1345.52	2.1427
1347.11	2.15403
1348.7	1.94721
1350.29	1.92411
1351.87	1.46437
1353.46	1.50754
1355.05	1.07267
1356.64	2.05725
1358.23	2.00198
1359.81	1.18672
1361.4	1.60829
1362.99	1.4698
1364.57	1.49049
1366.16	1.2126
1367.74	1.21479
1369.33	1.91519
1370.91	1.24381
1372.5	0.793314
1374.08	0.762092
1375.67	1.26894
1377.25	0.721325
1378.83	1.50633
1380.42	1.19565
1382	0.783988
1383.58	0.609619
1385.16	0.851612
1386.75	0.993475
1388.33	1.15523
1389.91	1.1787
1391.49	1.16358
1393.07	1.40735
1394.65	1.235
1396.23	0.24954
1397.81	0.96856
1399.39	1.2103
1400.97	1.15356
1402.55	1.21491
1404.13	1.11786
1405.7	0.88313
1407.28	1.49955
1408.86	0.773009
1410.44	1.11419
1412.01	1.04046
1413.59	0.946332
1415.17	1.22606
1416.74	1.68195
1418.32	1.28932
1419.89	2.00065
1421.47	0.782994
1423.05	1.45781
1424.62	1.09125
1426.19	1.19865
1427.77	2.52707
1429.34	1.35546
1430.92	1.89511
1432.49	2.27573
1434.06	2.18273
1435.63	2.69886
1437.2	2.97899
1438.78	2.02161
1440.35	2.52023
1441.92	2.37149
1443.49	2.87222
1445.06	2.50874
1446.63	3.79651
1448.2	2.50958
1449.77	2.83483
1451.34	2.76754
1452.91	2.91726
1454.48	3.38229
1456.05	2.785
1457.62	2.61956
1459.18	3.0822
1460.75	2.26337
1462.32	2.87858
1463.89	2.50788
1465.45	1.93953
1467.02	2.09812
1468.59	2.15881
1470.15	1.84771
1471.72	2.26411
1473.28	0.936108
1474.85	0.45279
1476.41	0.813193
1477.98	1.85978
1479.54	1.27906
1481.11	1.01195
1482.67	1.56786
1484.23	1.5944
1485.8	0.915255
1487.36	0.685953
1488.92	0.846815
1490.48	0.750985
1492.05	0.535407
1493.61	0.727844
1495.17	0.449514
1496.73	-0.199614
1498.29	0.24235
1499.85	0.45058
1501.41	0.213041
1502.97	0.248857
1504.53	0.963755
1506.09	1.19372
1507.65	0.648953
1509.2	0.644999
1510.76	0.11871
1512.32	0.614086
1513.88	0.491853
1515.44	0.370108
1516.99	0.498925
1518.55	0.954323
1520.1	1.0455
1521.66	0.467011
1523.22	0.634846
1524.77	0.438648
1526.33	1.00445
1527.88	1.26297
1529.44	0.930644
1530.99	0.276419
1532.55	0.876024
1534.1	0.944857
1535.65	0.40948
1537.21	1.10453
1538.76	0.421082
1540.31	1.02168
1541.86	1.69659
1543.42	1.35378
1544.97	0.860983
1546.52	1.34559
1548.07	1.43497
1549.62	0.961802
1551.17	0.658331
1552.72	0.730164
1554.27	1.00853
1555.82	1.47483
1557.37	1.4947
1558.92	1.27436
1560.47	1.56012
1562.02	1.77317
1563.57	1.39063
1565.11	2.03494
1566.66	1.82111
1568.21	1.98021
1569.75	2.45616
1571.3	2.98767
1572.85	2.82813
1574.39	2.27635
1575.94	2.63928
1577.49	2.49845
1579.03	2.00339
1580.58	1.75171
1582.12	2.41601
1583.67	2.33444
1585.21	2.29114
1586.75	1.42578
1588.3	2.35545
1589.84	2.23776
1591.38	2.38148
1592.93	3.0677
1594.47	2.18058
1596.01	1.92996
1597.55	2.78547
1599.09	2.57371
1600.63	1.81864
1602.18	2.26456
1603.72	2.29779
1605.26	2.38657
1606.8	2.51128
1608.34	2.22005
1609.87	2.05748
1611.41	2.23031
1612.95	1.55542
1614.49	2.26854
1616.03	2.13617
1617.57	2.19195
1619.11	2.36148
1620.64	2.28928
1622.18	2.16267
1623.72	1.88735
1625.25	2.62296
1626.79	2.15961
1628.32	2.1439
1629.86	2.74356
1631.4	2.27592
1632.93	2.51806
1634.47	1.73358
1636	2.70469
1637.53	2.35195
1639.07	2.11211
1640.6	2.61797
1642.14	2.8246
1643.67	2.58274
1645.2	3.64219
1646.73	2.67208
1648.27	2.8364
1649.8	2.75957
1651.33	3.70469
1652.86	2.90695
1654.39	3.24234
1655.92	2.87403
1657.45	2.89497
1658.98	2.58152
1660.51	3.1923
1662.04	2.57948
1663.57	2.98275
1665.1	2.60885
1666.63	2.93728
1668.16	2.34445
1669.69	2.30715
1671.21	2.51125
1672.74	2.4587
1674.27	2.7935
1675.79	2.24412
1677.32	2.09899
1678.85	2.28376
1680.37	1.87868
1681.9	2.0611
1683.42	1.82052
1684.95	1.41515
1686.47	1.30411
1688	1.39532
1689.52	1.19377
1691.05	1.1758
1692.57	1.39583
1694.1	0.975354
1695.62	1.17668
1697.14	1.61502
1698.66	0.865442
1700.19	1.04701
1701.71	0.771787
1703.23	0.405159
1704.75	0.475503
1706.27	0.472425
1707.79	0.705348
1709.32	0.810603
1710.83	0.770572
1712.35	0.00548458
1713.88	0.202059
1715.39	-0.0542002
1716.91	0.431479
1718.43	0.518589
1719.95	0.49711
1721.47	0.151061
1722.99	0.563355
1724.5	0.868058
1726.02	0.273504
1727.54	0.346947
1729.06	0.763316
1730.57	0.38776
1732.09	0.477586
1733.61	0.285419
1735.12	0.567705
1736.64	0.447784
1738.15	0.558914
1739.67	-0.193434
1741.18	0.715015
1742.7	0.344872
1744.21	0.746476
1745.72	0.496554
1747.24	-0.20118
1748.75	0.291531
1750.26	0.0872068
1751.78	-0.0140867
1753.29	0.468833
1754.8	-0.130725
1756.31	-0.0419064
1757.82	0.231009
1759.34	0.133185
1760.85	0.327063
1762.36	-0.104193
1763.87	-0.370751
1765.38	0.426336
1766.89	0.146338
1768.4	0.183946
1769.91	0.0243902
1771.41	-0.00732327
1772.92	0.266573
1774.43	0.0736485
1775.94	0.178861
1777.45	-0.0270596
1778.96	-0.217469
1780.46	0.0208921
1781.97	-0.255081
1783.48	0.370735
1784.98	0.220451
1786.49	-0.145285
1788	-0.246833
1789.5	-0.0677147
1791.01	0.0199966
1792.51	0.22961
1794.01	-0.0560493
1795.52	-0.0188007
1797.02	0.00349903
1798.53	0.273649
1800.03	-0.0804253
1801.54	0.216174
1803.04	0.10306
1804.54	0.176635
1806.04	0.272984
1807.54	-0.0181303
1809.05	0.165479
1810.55	0.267416
1812.05	-0.000994682
1813.55	0.380952
1815.05	0.185487
1816.55	0.117251
1818.05	-0.0544357
1819.55	0.0905323
1821.05	0.05445
1822.55	-0.162118
1824.05	0.100039
1825.55	-0.218719
1827.05	-0.0484838
1828.55	0.450691
1830.04	0.108041
1831.54	-0.0136261
1833.04	-0.244802
1834.54	-0.361474
1836.03	0.0397015
1837.53	0.502047
1839.03	-0.0225792
1840.52	-0.0340481
1842.02	0.161414
1843.51	-0.31923
1845.01	0.374116
1846.5	0.133589
1848	0.387409
1849.49	0.0166941
1850.99	0.0752497
1852.48	-0.0354528
1853.97	-0.123619
1855.47	0.0879717
1856.96	0.0977516
1858.45	-0.0332413
1859.94	0.0175867
1861.44	0.16432
1862.93	0.207211
1864.42	-0.233904
1865.91	-0.0457239
1867.4	0.175555
1868.89	-0.0706749
1870.38	-0.254084
1871.87	0.0186014
1873.36	0.0545988
1874.85	0.169651
1876.34	-0.0334406
1877.83	0.283784
1879.32	-0.336989
1880.81	-0.00960445
1882.3	-0.186995
1882.56	-0.251041
1884.06	0.0625315
1885.55	-0.0257835
1887.04	0.181119
1888.54	0.0913258
1890.03	0.349811
1891.52	0.383082
1893.02	-0.173007
1894.51	0.298754
1896	0.302776
1897.49	0.116388
1898.99	0.29507
1900.48	0.12471
1901.97	0.248272
1903.46	-0.0823355
1904.95	0.0377035
1906.44	-0.0169649
1907.93	0.188873
1909.42	0.551397
1910.91	0.185945
1912.4	0.324746
1913.89	0.117225
1915.38	-0.159503
1916.86	-0.228452
1918.35	0.274009
1919.84	-0.107976
1921.33	-0.0567923
1922.82	0.0467491
1924.3	0.203134
1925.79	0.274167
1927.28	0.277117
1928.76	-0.0309019
1930.25	0.5614
1931.74	0.217722
1933.22	-0.300688
1934.71	0.287072
1936.19	0.249663
1937.67	0.0207996
1939.16	-0.121867
1940.64	0.271249
1942.13	-0.111744
1943.61	0.0760021
1945.09	0.04035
1946.58	0.211973
1948.06	-0.168251
1949.54	-0.0494452
1951.03	-0.0351315
1952.51	0.236272
1953.99	0.334741
1955.47	-0.374623
1956.95	0.0335484
1958.43	0.0987158
1959.91	-0.075552
1961.39	-0.163359
1962.87	-0.233755
1964.35	0.278202
1965.83	0.172646
1967.31	-0.00202751
1968.79	-0.296936
1970.27	0.177082
1971.75	0.308532
1973.22	0.38852
1974.7	0.0762205
1976.18	0.173595
1977.66	0.0496063
1979.13	0.215229
1980.61	0.176477
1982.09	-0.406359
1983.56	0.353184
1985.04	-0.280562
1986.52	0.341413
1987.99	-0.139116
1989.47	0.27891
1990.94	0.561713
1992.41	-0.0173206
1993.89	-0.0199146
1995.36	0.485332
1996.84	0.0277739
1998.31	0.0770969
1999.78	0.210311
2001.26	0.0727501
2002.73	-0.284486
2004.2	0.251948
2005.67	-0.256445
2007.15	0.0111628
2008.62	-0.00664997
2010.09	-0.225557
2011.56	0.599805
2013.03	-0.544246
2014.5	0.0617352
2015.97	0.0609503
2017.44	0.0423565
2018.91	0.628057
2020.38	0.120457
2021.85	0.486464
2023.32	0.281794
2024.79	0.547969
2026.25	0.14436
2027.72	-0.156904
2029.19	0.0633793
2030.66	0.167715
2032.13	0.239579
2033.59	0.513456
2035.06	0.0317793
2036.53	0.338912
2037.99	0.19193
2039.46	0.464621
2040.92	0.19943
2042.39	0.220385
2043.85	0.208539
2045.32	0.399591
2046.78	0.221272
2048.25	0.497902
2049.71	0.605905
2051.18	0.527357
2052.64	0.767433
2054.1	0.145351
2055.56	0.617522
2057.03	0.514777
2058.49	0.613426
2059.95	0.678144
2061.42	0.776961
2062.88	0.708327
2064.34	0.0181694
2065.8	0.0192118
2067.26	0.206264
2068.72	0.713762
2070.18	1.00289
2071.64	0.214691
2073.1	0.369029
2074.56	0.624136
2076.02	0.609461
2077.48	0.661727
2078.94	0.6125
2080.39	0.731139
2081.85	1.00064
2083.31	0.696956
2084.77	1.36858
2086.22	1.1978
2087.68	0.673347
2089.14	1.32529
2090.6	1.53961
2092.05	1.28355
2093.51	1.229
2094.96	1.24126
2096.42	1.38699
2097.87	1.26376
2099.33	1.2069
2100.78	1.30027
2102.24	1.29351
2103.69	0.887
2105.15	1.83429
2106.6	2.03171
2108.05	1.3797
2109.51	1.37872
2110.96	2.07719
2112.41	1.52379
2113.86	1.71825
2115.32	2.06023
2116.77	1.5527
2118.22	2.04304
2119.67	2.03638
2121.12	2.09851
2122.57	2.47814
2124.02	2.16303
2125.47	2.72758
2126.92	2.59532
2128.37	3.15796
2129.82	2.77389
2131.27	2.55406
2132.72	2.99552
2134.17	3.07252
2135.62	2.62142
2137.06	2.85029
2138.51	2.80057
2139.96	3.34831
2141.41	2.84048
2142.85	3.7395
2144.3	3.56479
2145.75	3.96938
2147.19	3.56256
2148.64	3.45269
2150.09	3.49065
2151.53	3.49411
2152.97	3.67847
2154.42	4.20962
2155.86	3.5141
2157.31	3.91214
2158.75	4.02955
2160.2	3.75126
2161.64	4.18788
2163.08	3.89798
2164.53	4.37304
2165.97	3.68777
2167.41	4.14775
2168.86	3.92521
2170.3	3.91613
2171.74	4.05381
2173.18	4.27195
2174.62	4.32176
2176.06	4.48715
2177.5	4.58629
2178.94	3.955
2180.38	4.25618
2181.82	3.41136
2183.26	3.69794
2184.7	3.83529
2186.14	3.27409
2187.58	3.41154
2189.02	3.36604
2190.46	3.58683
2191.89	3.64082
2193.33	3.494
2194.77	3.19551
2196.21	3.16099
2197.64	2.95747
2199.08	3.59989
2200.52	3.01055
2201.95	3.45121
2203.39	3.16219
2204.83	3.12371
2206.26	2.72203
2207.7	2.71897
2209.13	2.66598
2210.57	2.46306
2212	2.35833
2213.43	2.40156
2214.87	2.44458
2216.3	2.1582
2217.73	2.20353
2219.17	1.80512
2220.6	1.98502
2222.03	2.52753
2223.47	1.66839
2224.9	1.92804
2226.33	1.79035
2227.76	1.45359
2229.19	2.05205
2230.62	1.84446
2232.05	1.63707
2233.49	1.56144
2234.91	1.91201
2236.34	1.46288
2237.77	1.08166
2239.2	1.14363
2240.63	0.897955
2242.06	1.11108
2243.49	1.40716
2244.92	1.63841
2246.35	1.42847
2247.78	1.20036
2249.2	1.18179
2250.63	0.118071
2252.06	0.616685
2253.48	1.17855
2254.91	0.894928
2256.34	0.629667
2257.76	0.854154
2259.19	0.951925
2260.61	1.15038
2262.04	0.978424
2263.46	0.678164
2264.89	0.849155
2266.31	0.6134
2267.74	0.522933
2269.16	0.447652
2270.59	0.957514
2272.01	0.734336
2273.43	0.57602
2274.85	0.727239
2276.28	0.650651
2277.7	0.509027
2279.12	0.774962
2280.54	0.910517
2281.97	0.312005
2283.39	0.414655
2284.81	0.566354
2286.23	0.83264
2287.65	0.31575
2289.07	0.485014
2290.49	0.295362
2291.91	0.040473
2293.33	0.89759
2294.75	0.47922
2296.17	0.207713
2297.59	0.312562
2299.01	0.384795
2300.42	0.162276
2301.84	-0.0765429
2303.26	0.258918
2304.68	0.0696163
2306.1	0.0278549
2307.51	0.248576
2308.93	0.386723
2310.35	0.359898
2311.76	0.299729
2313.18	0.0420485
2314.59	0.0809107
2316.01	-0.241692
2317.43	0.507104
2318.84	0.152708
2320.26	0.259481
2321.67	0.497165
2323.08	0.303806
2324.5	0.503982
2325.91	0.668619
2327.33	0.963183
2328.74	0.679778
2330.15	0.429868
2331.56	0.39522
2332.98	-0.0496311
2334.39	0.0496387
2335.8	0.346519
2337.21	0.494737
2338.62	-0.295294
2340.04	0.310892
2341.45	0.045042
2342.86	-0.270215
2344.27	-0.240687
2345.68	-0.0634136
2347.09	0.130319
2348.5	0.192893
2349.91	0.287683
2351.31	-0.190605
2352.72	0.261772
2354.13	-0.201397
2355.54	0.281018
2356.95	0.192199
2358.36	0.0710239
2359.76	-0.48843
2361.17	0.0894804
2362.58	-0.0796232
2363.98	0.237383
2365.39	0.230088
2366.8	-0.148671
2368.21	-0.0255404
2369.61	-0.12737
2371.02	0.159194
2372.42	0.0923948
2373.83	0.445395
2375.23	-0.0545931
2376.64	0.169442
2378.04	-0.347571
2379.44	0.0503712
2380.85	0.0124731
2382.25	0.4061
2383.66	-0.050951
2385.06	-0.0112734
2386.46	-0.0750895
2387.86	-0.137819
2389.26	0.0479479
2390.67	0.0594797
2392.07	0.0881557
2393.47	0.101956
2394.87	0.164332
2396.27	0.052536
2397.67	0.163986
2399.07	0.561993
2400.47	-0.0880919
2401.87	0.35833
2403.27	0.137654
2404.67	0.0277996
2406.07	0.15518
2407.47	-0.511864
2408.87	-0.179956
2410.27	-0.0706282
2411.67	0.102201
2413.07	-0.0251398
2414.46	-0.008564
2415.86	0.199514
2417.26	0.219028
2418.66	0.112837
2420.05	0.624642
2421.45	0.423693
2422.84	0.063858
2424.24	0.0205355
2425.64	-0.0227261
2427.03	-0.509234
2428.43	-0.0280228
2429.82	0.327619
2431.22	0.113095
2432.61	0.279504
2434.01	0.0325632
2435.4	0.244975
2436.79	0.0268831
2438.19	0.331475
2439.58	-0.0643225
2440.97	0.873042
2442.37	0.190017
2443.76	-0.159566
2445.15	0.363316
2446.54	-0.0815239
2447.93	0.123622
2449.33	-0.305025
2450.72	0.169428
2452.11	0.0109863
2453.5	-0.11489
2454.89	0.171504
2456.28	-0.0951014
2457.67	0.239736
2459.06	0.447814
2460.45	0.354739
2461.84	-0.181873
2463.23	-0.118391
2464.62	0.21303
2466	0.575444
2467.39	-0.120163
2468.78	-0.0105286
2470.17	0.0357103
2471.55	-0.0289154
2472.94	0.315385
2474.33	0.154672
2475.72	0.496858
2477.1	0.288006
2478.49	0.267894
2479.87	0.310761
2481.26	-0.320469
2482.65	-0.151765
2484.03	0.219675
2485.42	0.198525
2486.8	0.379292
2488.19	0.152761
2489.57	0.393519
2490.95	-0.362546
2492.34	0.0807314
2493.72	0.353312
2495.1	0.192452
2496.49	-0.168281
2497.87	-0.00098896
2499.25	0.166338
2500.63	-0.0381432
2502.02	-0.104046
2503.4	-0.0164433
2504.78	0.332271
2506.16	0.00165081
2507.54	0.164001
2508.92	0.126277
2510.3	0.15052
2511.68	0.206079
2513.06	-0.212795
2514.44	0.0438118
2515.82	-0.112299
2517.2	-0.481566
2518.58	-0.0243111
2519.96	0.218711
2521.34	0.232098
2522.72	-0.106285
2524.1	-0.109544
2525.47	-0.265931
2526.85	-0.0873251
2528.23	0.213149
2529.6	-0.0786381
2530.98	0.102688
2532.36	0.224878
2533.74	0.196542
2535.11	-0.1349
2536.49	0.202074
2537.86	-0.282014
2539.24	0.0683889
2540.61	-0.0984688
2541.99	-0.144162
2543.36	-0.0378056
2544.74	0.554786
2546.11	0.101987
2547.49	0.090373
2548.86	-0.0720816
2550.23	0.0841141
2551.61	0.0121994
2552.98	0.288374
2554.35	0.184048
2555.72	-0.0273924
2557.09	0.382564
2558.47	0.0491667
2559.84	0.231647
2561.21	0.172111
2562.58	-0.29591
2563.95	0.327806
2565.32	0.179102
2566.69	0.197345
2568.06	0.412703
2569.43	0.26434
2570.8	0.206905
2572.17	-0.00207138
2573.54	-0.0594063
2574.91	0.15622
2576.28	0.280944
2577.65	-0.185727
2579.02	0.241925
2580.39	-0.179909
2581.75	-0.0411377
2583.12	0.112394
2584.49	-0.0527048
2585.85	0.297552
2587.22	0.208322
2588.59	0.483033
2589.95	0.18195
2591.32	0.123217
2592.68	-0.0269146
2594.05	0.200872
2595.42	0.0640116
2596.78	-0.149496
2598.15	0.0599833
2599.51	0.359548
2600.88	0.492665
2602.24	-0.0533981
2603.6	0.277275
2604.97	0.38192
2606.33	0.230252
2607.69	-0.102605
2609.06	0.0763702
2610.42	0.389431
2611.78	0.0233774
2613.14	0.0927858
2614.51	-0.169207
2615.87	-0.26586
2617.23	-0.182199
2618.59	0.201425
2619.95	0.285926
2621.31	0.296309
2622.67	-0.126083
2624.03	0.109323
2625.39	0.135438
2626.75	0.146338
2628.11	-0.00704384
2629.47	-0.100954
2630.83	-0.120549
2632.19	-0.0659027
2633.55	-0.115377
2634.91	0.117188
2636.26	-0.0214043
2637.62	-0.322786
2638.98	0.53122
2640.34	0.422418
2641.69	0.151441
2643.05	0.250463
2644.41	0.290461
2645.76	-0.0679951
2647.12	0.310699
2648.48	0.364005
2649.83	0.225037
2651.19	0.0562048
2652.54	0.372015
2653.9	-0.0901175
2655.25	0.372806
2656.6	0.20636
2657.96	0.24627
2659.31	-0.268812
2660.67	0.59143
2662.02	-0.0399866
2663.37	0.161174
2664.73	0.317433
2666.08	0.253886
2667.43	-0.10153
2668.78	-0.223483
2670.14	0.135171
2671.49	0.0285845
2672.84	0.286036
2674.19	0.32601
2675.54	0.482664
2676.89	0.349626
2678.24	0.391431
2679.59	0.0136175
2680.94	-0.377485
2682.29	0.305509
2683.64	-0.0541754
2684.99	0.399231
2686.34	0.49065
2687.69	0.146473
2689.04	-0.141055
2690.39	0.20841
2691.74	0.570381
2693.08	0.466206
2694.43	0.375585
2695.78	0.313862
2697.13	0.412202
2698.47	0.149828
2699.82	0.280259
2701.17	-0.0653515
2702.51	0.416071
2703.86	0.623604
2705.21	-0.00899315
2706.55	-0.163502
2707.9	0.624798
2709.24	0.208409
2710.58	0.00912571
2711.93	0.114492
2713.27	0.452273
2714.62	0.339573
2715.96	0.212186
2717.3	-0.2645
2718.65	0.422136
2719.99	0.453887
2721.33	0.805327
2722.68	0.414009
2724.02	0.356894
2725.36	0.663194
2726.71	0.677956
2728.05	0.313957
2729.39	0.37178
2730.73	0.443981
2732.07	0.41428
2733.41	-0.0662804
2734.75	0.297068
2736.09	0.413304
2737.43	0.238784
2738.77	0.238762
2740.11	0.383883
2741.45	-0.111305
2742.79	0.192543
2744.13	0.524567
2745.47	0.594193
2746.81	0.198611
2748.14	0.296674
2749.48	0.351162
2750.82	0.507332
2752.16	0.373693
2753.49	0.341841
2754.83	-0.29831
2756.17	0.206261
2757.5	0.0301666
2758.84	-0.275858
2760.18	0.388322
2761.51	0.28583
2762.85	-0.13448
2764.18	0.21243
2765.52	0.212035
2766.85	0.254541
2768.19	0.252646
2769.52	0.263837
2770.86	0.0133524
2772.19	0.151655
2773.52	-0.0720539
2774.86	-0.295943
2776.19	0.37353
2777.52	-0.0371218
2778.86	0.358739
2780.19	0.208503
2781.52	0.101881
2782.85	-0.148031
2784.19	-0.325979
2785.52	0.212873
2786.85	-0.494847
2788.18	0.258841
2789.51	0.383031
2790.84	0.322145
2792.17	0.176332
2793.5	0.145422
2794.83	-0.171286
2796.16	-0.116704
2797.49	-0.0912905
2798.82	-0.480535
2800.15	-0.0135832
2801.48	-0.0180864
2802.81	0.362167
2804.13	0.356975
2805.46	-0.189898
2806.79	-0.0962582
2808.12	-0.0176182
2809.45	0.103103
2810.77	0.209469
2812.1	0.174417
2813.43	0.0129604
2814.75	-0.0476046
2816.08	-0.0783129
2817.41	-0.037015
2818.73	0.472589
2820.06	0.429417
2821.38	-0.0536041
2822.71	0.256339
2824.03	0.0271301
2825.36	0.0951195
2826.68	0.361371
2828	0.642218
2829.33	0.75372
2830.65	0.0588274
2831.98	0.907149
2833.3	0.84942
2834.62	0.663943
2835.94	0.831759
2837.27	1.01307
2838.59	1.47671
2839.91	1.88331
2841.23	1.69602
2842.55	2.15952
2843.87	2.25619
2845.2	2.50918
2846.52	3.00316
2847.84	3.04537
2849.16	3.46921
2850.48	3.41211
2851.8	3.05756
2853.12	3.59276
2854.44	3.27949
2855.76	3.60185
2857.08	3.64157
2858.39	3.22937
2859.71	3.66459
2861.03	3.76057
2862.35	3.57375
2863.67	4.12046
2864.98	4.08804
2866.3	4.45058
2867.62	4.24916
2868.94	4.28809
2870.25	5.1593
2871.57	5.28338
2872.88	5.75936
2874.2	5.98047
2875.52	5.98868
2876.83	6.13613
2878.15	6.07122
2879.46	5.85131
2880.78	6.7003
2882.09	5.83564
2883.41	6.16688
2884.72	5.78319
2886.03	5.97603
2887.35	5.88816
2888.66	5.82778
2889.97	6.01885
2891.29	5.95623
2892.6	5.5705
2893.91	5.87132
2895.22	5.7383
2896.54	5.70446
2897.85	5.83995
2899.16	6.17261
2900.47	6.1705
2901.78	6.70056
2903.09	6.37759
2904.4	5.95692
2905.71	7.18711
2907.02	6.9774
2908.33	6.97861
2909.64	7.52665
2910.95	7.52989
2912.26	7.84105
2913.57	7.99724
2914.88	8.33345
2916.19	8.3592
2917.5	8.24274
2918.81	8.86648
2920.11	8.44065
2921.42	9.38627
2922.73	9.69023
2924.04	9.71663
2925.34	9.563
2926.65	9.41024
2927.96	10.0963
2929.26	10.2646
2930.57	9.90075
2931.87	10.7245
2933.18	10.3316
2934.49	10.3861
2935.79	10.1612
2937.1	10.23
2938.4	10.886
2939.7	9.53021
2941.01	9.09745
2942.31	9.46243
2943.62	8.94872
2944.92	8.67439
2946.22	7.98197
2947.53	8.50707
2948.83	7.87049
2950.13	7.66593
2951.43	7.1928
2952.74	6.81513
2954.04	7.02373
2955.34	7.51175
2956.64	6.39127
2957.94	7.05116
2959.24	6.39879
2960.54	6.28182
2961.84	6.74212
2963.15	5.81516
2964.45	6.14966
2965.75	5.94894
2967.05	5.85833
2968.34	5.94872
2969.64	5.43351
2970.94	4.72102
2972.24	5.26067
2973.54	4.68929
2974.84	4.75104
2976.14	4.46003
2977.43	4.36451
2978.73	4.04163
2980.03	4.22352
2981.33	4.37556
2982.62	3.64071
2983.92	3.49737
2985.22	3.38358
2986.51	3.46837
2987.81	3.13335
2989.11	2.61681
2990.4	3.1124
2991.7	2.58148
2992.99	2.30235
2994.29	2.54174
2995.58	2.20382
2996.88	2.21633
2998.17	1.79359
2999.46	1.83439
3000.76	1.58134
3002.05	1.45528
3003.34	1.42787
3004.64	1.48465
3005.93	1.30305
3007.22	1.2049
3008.52	1.4417
3009.81	0.950179
3011.1	0.500436
3012.39	0.749002
3013.68	0.829805
3014.97	0.701873
3016.27	0.616694
3017.56	0.755206
3018.85	0.768913
3020.14	0.71317
3021.43	0.476345
3022.72	0.766706
3024.01	0.403348
3025.3	0.746901
3026.59	0.314
3027.88	0.380599
3029.16	0.337718
3030.45	-0.256128
3031.74	0.381287
3033.03	0.68801
3034.32	0.40147
3035.6	0.307714
3036.89	0.640071
3038.18	0.226139
3039.47	0.292656
3040.75	0.219953
3042.04	0.352384
3043.33	0.648914
3044.61	0.425523
3045.9	0.888135
3047.18	0.532743
3048.47	-0.215432
3049.75	0.513254
3051.04	0.601995
3052.32	0.432407
3053.61	0.658573
3054.89	0.884
3056.18	0.767239
3057.46	0.962911
3058.74	0.762431
3060.03	0.752566
3061.31	0.770397
3062.59	0.830154
3063.88	0.524378
3065.16	0.614719
3066.44	0.475533
3067.72	0.337449
3069	0.553375
3070.29	0.184299
3071.57	0.43995
3072.85	0.354339
3074.13	0.484993
3075.41	-0.0511751
3076.69	0.132678
3077.97	-0.117494
3079.25	0.0272045
3080.53	0.227706
3081.81	0.239978
3083.09	0.240076
3084.37	-0.0575514
3085.65	-0.015851
3086.93	0.269763
3088.21	-0.110363
3089.49	-0.0432081
3090.76	0.21351
3092.04	-0.194702
3093.32	-0.100646
3094.6	-0.155407
3095.87	0.0613818
3097.15	0.0342555
3098.43	0.0613723
3099.7	0.210366
3100.98	-0.250298
3102.26	0.156152
3103.53	-0.0870824
3104.81	-0.0859427
3106.08	0.0919771
3107.36	0.122055
3108.63	0.288642
3109.91	0.212847
3111.18	0.111054
3112.46	0.104894
3113.73	0.410927
3115	0.120767
3116.28	0.182597
3117.55	0.0537744
3118.83	0.181618
3120.1	0.0100455
3121.37	0.339339
3122.64	0.180021
3123.92	0.535473
3125.19	-0.043303
3126.46	0.366969
3127.73	0.561164
3129	0.525978
3130.27	0.139732
3131.55	0.362217
3132.82	0.516958
3134.09	0.0905271
3135.36	0.555028
3136.63	0.519373
3137.9	0.564226
3139.17	0.406688
3140.44	0.54544
3141.71	0.832098
3142.98	0.876861
3144.24	0.479167
3145.51	0.740215
3146.78	0.733633
3148.05	0.80826
3149.32	0.776471
