200.43	0.716832
202.246	0.713869
204.061	0.712701
205.875	0.0805225
207.688	1.24861
209.501	1.44358
211.316	1.03045
213.129	0.713981
214.941	1.12489
216.753	0.953279
218.566	1.29093
220.377	0.515764
222.188	0.782933
223.999	0.519169
225.809	0.159896
227.618	0.622675
229.43	0.288223
231.239	0.122824
233.047	0.898424
234.855	0.61301
236.663	0.305244
238.471	-0.217004
240.278	0.0829096
242.087	-0.458519
243.894	0.279695
245.7	-0.47748
247.506	0.1157
249.311	0.320611
251.116	0.329665
252.921	-0.00156975
254.725	0.389766
256.529	0.081336
258.333	-0.00888729
260.136	0.577335
261.939	0.226011
263.744	-0.0993166
265.546	0.588534
267.348	0.120457
269.15	-0.0585928
270.951	0.798483
272.752	0.714501
274.552	0.219477
276.353	0.349961
278.152	0.743872
279.952	0.798447
281.751	0.393777
283.55	0.781683
285.348	0.542953
287.146	0.184092
288.942	1.00099
290.739	0.930957
292.536	0.431744
294.333	-0.232452
296.129	0.420644
297.925	0.0945702
299.721	-0.0633478
301.516	-0.0300684
303.311	-0.0451765
305.106	0.0103216
306.9	0.398938
308.694	-0.0711136
310.486	-0.182623
312.279	0.397927
314.072	0.00364304
315.864	0.230478
317.656	0.435457
319.448	-0.0486355
321.24	0.18319
323.029	0.821558
324.819	-0.23288
326.61	0.0964861
328.4	0.545648
330.19	-0.00921154
331.977	-0.0873222
333.766	-0.501925
335.555	-0.0810061
337.343	0.122548
339.131	0.539428
340.917	0.811095
342.704	0.364687
344.491	0.0859642
346.277	-0.0964212
348.062	-0.0391512
349.848	-0.0290489
351.633	-0.0188103
353.416	-0.00900459
355.201	0.190736
356.986	0.317604
358.77	0.180984
360.552	-0.432796
362.335	0.119536
364.118	-0.32829
365.899	1.05332
367.682	0.390515
369.464	0.0127325
371.243	0.0850058
373.025	0.180169
374.806	-0.0324068
376.585	1.00672
378.365	-0.620397
380.143	0.112423
381.923	0.32729
383.702	0.355005
385.479	-0.0391064
387.258	0.0853691
389.034	0.610245
390.812	0.0320759
392.59	0.112486
394.365	-0.0647879
396.142	-0.335578
397.916	0.0043869
399.693	0.391263
401.467	-0.373132
403.242	0.0363312
405.015	-0.0481272
406.79	0.1016
408.565	0.250732
410.337	0.0708885
412.111	0.689116
413.882	-0.475744
415.656	0.00275707
417.426	-0.174965
419.197	-0.0470009
420.969	-0.129944
422.739	0.0451012
424.51	0.313478
426.279	-0.123283
428.05	-0.49035
429.819	0.128057
431.589	0.323879
433.356	0.144485
435.124	0.364438
436.893	-0.166619
438.66	0.334343
440.428	0.411463
442.194	-0.00599766
443.96	-0.0734606
445.727	0.255652
447.492	0.0681429
449.259	0.231271
451.023	0.324118
452.787	0.113672
454.553	-0.212816
456.316	0.183726
458.079	-0.09585
459.844	0.392994
461.606	-0.0251312
463.368	-0.557501
465.132	-0.0184889
466.893	-0.0113373
468.654	0.161091
470.415	0.475041
472.177	-0.0244312
473.937	0.0568943
475.696	0.416123
477.456	-0.0884981
479.217	0.453313
480.975	0.0390711
482.733	0.510042
484.491	0.376565
486.251	0.431311
488.008	0.255117
489.765	0.313946
491.522	0.233824
493.278	0.247665
495.036	-0.0422783
496.791	0.392791
498.546	0.992393
500.301	0.443513
502.056	0.503279
503.81	-0.236339
505.566	0.220634
507.319	0.559229
509.073	0.614305
510.825	-0.0380774
512.578	0.437365
514.33	0.370148
516.082	-0.0983086
517.833	0.39655
519.587	0.560948
521.337	0.160533
523.088	0.722876
524.838	0.486375
526.588	0.437757
528.337	0.482988
530.087	0.668667
531.835	0.713211
533.584	0.358977
535.332	0.471886
537.08	0.466389
538.827	0.249403
540.574	0.474811
542.321	0.489259
544.068	0.177571
545.814	0.0757103
547.56	0.531251
549.305	0.313676
551.05	0.11995
552.795	0.366297
554.54	0.51986
556.284	0.327111
558.027	0.665489
559.771	0.450768
561.514	-0.131359
563.257	0.369052
564.999	0.363594
566.742	0.818159
568.481	0.285791
570.223	0.167997
571.964	0.143327
573.705	0.0972567
575.445	0.0987101
577.185	0.37708
578.925	-0.1236
580.665	-0.0728178
582.402	0.070013
584.141	0.672276
585.879	0.308087
587.617	0.724587
589.355	0.242737
591.092	0.565162
592.828	-0.0792761
594.564	0.564527
596.301	0.219027
598.037	0.747742
599.773	-0.173306
601.506	-0.0368328
603.242	-0.0165768
604.976	0.25518
606.711	0.410537
608.443	0.771585
610.177	0.741864
611.91	0.253856
613.644	0.225608
615.374	-0.283281
617.107	0.330972
618.839	-0.406932
620.569	-0.549983
622.3	0.0609245
624.032	0.967357
625.761	0.296258
627.491	0.471693
629.221	0.7401
630.949	0.485873
632.679	0.00544453
634.408	0.758354
636.135	0.461164
637.863	0.139459
639.592	-0.0705643
641.318	0.241454
643.045	0.23164
644.77	0.47107
646.497	0.232579
648.224	0.359881
649.948	0.149145
651.674	0.919076
653.398	0.0338354
655.123	0.310789
656.846	0.294364
658.57	0.780292
660.293	-0.079402
662.017	0.862017
663.738	0.705651
665.462	0.935382
667.185	0.68308
668.905	0.429887
670.628	0.703337
672.348	0.772851
674.067	0.272288
675.789	0.918993
677.508	0.627468
679.228	0.473311
680.947	0.892636
682.667	0.896783
684.385	0.668601
686.104	0.737596
687.821	0.782021
689.538	1.05571
691.256	0.914032
692.972	0.472265
694.69	0.88201
696.406	0.784042
698.121	1.12233
699.837	1.0909
701.552	0.50637
703.268	1.30058
704.982	0.875735
706.695	1.48371
708.41	1.173
710.123	1.61852
711.836	1.30742
713.55	1.38533
715.262	1.16581
716.973	1.31191
718.685	1.09284
720.398	1.94549
722.108	1.15726
723.818	0.711686
725.53	0.925995
727.24	1.32135
728.949	1.21632
730.658	1.33772
732.369	1.11874
734.077	0.718994
735.785	1.29198
737.493	1.11901
739.2	0.766523
740.909	0.956524
742.616	0.764455
744.322	1.13672
746.028	0.834879
747.734	1.14198
749.441	1.2028
751.146	1.28737
752.851	1.21575
754.555	1.34792
756.26	1.34659
757.963	1.12161
759.667	1.84403
761.372	1.41874
763.075	1.53487
764.777	1.24447
766.479	1.63041
768.181	1.24637
769.883	1.787
771.584	1.42119
773.285	1.98105
774.986	1.20628
776.686	2.06001
778.386	1.71665
780.085	1.87227
781.785	2.05173
783.484	1.86939
785.182	1.82166
786.881	1.95267
788.579	1.83151
790.276	1.88807
791.974	1.96438
793.671	1.76791
795.367	1.90984
797.064	1.9397
798.76	2.08377
800.456	1.53174
802.151	1.7691
803.846	2.59167
805.541	2.24447
807.236	1.04289
808.93	1.50324
810.624	1.715
812.317	2.1946
814.01	2.2023
815.703	1.5381
817.394	2.23942
819.086	1.88919
820.778	1.85233
822.47	1.86051
824.161	2.76132
825.852	1.96892
827.543	1.89222
829.231	2.08555
830.921	1.43561
832.611	2.08035
834.3	1.47952
835.989	1.97194
837.676	1.88452
839.364	1.48325
841.053	1.66086
842.74	1.79255
844.426	1.61093
846.113	2.07804
847.8	1.76462
849.486	1.27432
851.171	1.23354
852.857	1.4187
854.542	1.58273
856.227	0.848493
857.911	1.03358
859.595	1.55497
861.279	1.24222
862.961	1.716
864.645	1.17475
866.329	0.970372
868.01	0.720172
869.692	1.28136
871.375	1.2785
873.055	0.824224
874.737	1.09178
876.418	1.31428
878.097	1.92054
879.778	1.10477
881.457	1.66554
883.137	1.54839
884.817	0.798087
886.495	1.26543
888.174	1.37
889.851	0.931705
891.53	2.00242
893.206	1.60648
894.884	1.47997
896.562	1.62236
898.237	0.910106
899.914	1.32003
901.589	1.14571
903.265	1.12786
904.94	1.40041
906.615	1.20374
908.289	1.11964
909.964	1.3706
911.637	0.976783
913.31	0.873348
914.984	0.992479
916.656	1.48857
918.33	1.25229
920.001	1.03872
921.674	1.04726
923.345	1.72002
925.015	0.979703
926.687	0.83813
928.357	1.05145
930.028	0.603848
931.698	0.686607
933.366	0.769606
935.037	0.80863
936.705	0.56134
938.373	0.314876
940.043	0.863519
941.71	1.1267
943.379	1.56725
945.046	0.992622
946.712	0.571229
948.378	0.766161
950.046	0.760606
951.711	0.180269
953.376	1.18828
955.043	0.47732
956.708	1.07006
958.372	1.04854
960.036	0.742812
961.701	0.614912
963.364	0.420443
965.027	0.865597
966.69	0.998855
968.354	0.244392
970.016	0.395087
971.678	1.05363
973.339	1.09312
975	1.26671
976.661	0.579594
978.324	0.889146
979.984	0.679527
981.644	0.469445
983.303	0.844694
984.962	0.708967
986.621	1.14673
988.282	1.73728
989.94	0.667532
991.598	0.6812
993.256	0.429637
994.913	0.421271
996.57	0.655711
998.227	1.02216
999.884	0.991314
1001.54	0.277453
1003.2	0.840533
1004.85	0.193002
1006.51	0.513196
1008.16	0.130344
1009.82	0.58221
1011.47	0.792662
1013.12	0.893718
1014.78	1.30169
1016.43	0.155327
1018.08	0.761096
1019.74	0.317267
1021.39	0.618116
1023.04	0.963581
1024.69	0.523115
1026.34	0.476686
1028	0.801751
1029.65	0.295988
1031.3	0.684767
1032.95	0.853431
1034.6	0.845757
1036.25	0.945741
1037.9	0.456562
1039.55	0.0116024
1041.19	1.134
1042.84	0.582406
1044.49	0.445906
1046.14	1.15846
1047.79	0.765047
1049.43	0.829384
1051.08	0.243379
1052.73	0.222808
1054.37	0.376432
1056.02	0.638822
1057.66	0.44454
1059.31	0.0758018
1060.95	0.902331
1062.6	0.901892
1064.24	0.922288
1065.88	0.398164
1067.53	0.134047
1069.17	0.434064
1070.81	0.646354
1072.46	0.25054
1074.1	0.506446
1075.74	0.177505
1077.38	-0.431956
1079.02	0.456122
1080.66	0.650962
1082.3	0.173607
1083.94	-0.174387
1085.58	0.646849
1087.22	-0.28948
1088.86	0.267435
1090.5	0.324284
1092.14	0.228577
1093.78	0.737246
1095.42	0.295812
1097.05	0.718205
1098.69	0.667369
1100.33	0.209309
1101.97	0.635761
1103.6	-0.162539
1105.24	0.395801
1106.87	0.201821
1108.51	0.545259
1110.15	0.565044
1111.78	-0.190414
1113.41	0.277767
1115.05	0.529552
1116.68	0.694591
1118.31	0.623696
1119.95	0.53213
1121.58	0.420238
1123.21	0.116864
1124.85	1.0342
1126.48	1.01072
1128.11	0.154066
1129.74	0.239179
1131.37	0.431724
1133	0.346635
1134.63	-0.700448
1136.26	0.0902224
1137.89	0.53775
1139.52	0.343063
1141.15	-0.129977
1142.78	0.506591
1144.41	0.268183
1146.04	-0.182523
1147.66	0.156513
1149.29	0.0274601
1150.92	-0.0584507
1152.55	0.579736
1154.17	0.19539
1155.8	0.0237236
1157.43	0.0435305
1159.05	0.0636635
1160.68	-0.149328
1162.3	-0.16986
1163.93	0.490918
1165.55	-0.0384645
1167.17	0.239886
1168.8	0.0495157
1170.42	-0.227354
1172.05	-0.399552
1173.67	0.339799
1175.29	0.143456
1176.91	-0.286268
1178.54	-0.355042
1180.16	0.233098
1181.78	-0.0460072
1183.4	-0.218427
1185.02	0.0531349
1186.64	0.21794
1188.26	0.591964
1189.88	-0.343431
1191.5	-0.289019
1193.12	-0.257131
1194.74	0.0048666
1196.36	0.24518
1197.97	0.31821
1199.59	0.622763
1201.21	-0.220166
1202.83	0.0473289
1204.44	0.379561
1206.06	-0.413054
1207.68	-0.348821
1209.29	0.216311
1210.91	0.238302
1212.52	0.112761
1214.14	0.360353
1215.75	-0.0816288
1217.37	-0.191682
1218.98	0.362532
1220.6	1.04001
1222.21	0.596932
1223.82	0.259498
1225.44	0.151793
1227.05	0.707827
1228.66	0.520063
1230.27	0.271652
1231.88	0.169221
1233.49	0.750007
1235.1	0.525887
1236.72	0.757647
1238.33	0.763072
1239.94	0.459001
1241.55	0.279075
1243.16	1.54697
1244.76	0.476392
1246.37	0.894532
1247.98	0.566773
1249.59	0.7349
1251.2	0.98543
1252.8	0.760357
1254.41	0.556701
1256.02	0.664341
1257.63	1.0835
1259.23	0.90391
1260.84	0.476694
1262.44	1.16784
1264.05	1.30024
1265.66	0.644888
1267.26	1.23214
1268.87	0.326012
1270.47	1.07741
1272.07	0.874067
1273.68	0.960001
1275.28	1.62532
1276.88	1.4812
1278.48	0.569889
1280.09	1.33589
1281.69	1.81116
1283.29	1.16899
1284.89	0.879442
1286.49	1.19048
1288.09	1.56439
1289.69	1.1125
1291.3	1.79773
1292.9	1.09844
1294.49	1.70008
1296.09	1.80448
1297.69	1.57685
1299.29	1.96667
1300.89	1.15865
1302.49	1.25702
1304.09	1.25135
1305.68	1.34777
1307.28	1.25864
1308.88	1.45662
1310.47	1.55171
1312.07	1.62651
1313.66	1.31334
1315.26	1.26738
1316.86	1.65122
1318.45	1.01496
1320.05	2.07164
1321.64	2.08686
1323.23	1.08296
1324.83	0.994179
1326.42	1.04635
1328.01	1.36139
1329.61	1.23068
1331.2	1.76926
1332.79	0.834001
1334.38	1.13409
1335.98	1.96006
1337.57	1.2731
1339.16	1.37239
1340.75	1.38934
1342.34	1.04194
1343.93	1.27623
1345.52	1.68954
1347.11	1.46028
1348.7	1.17314
1350.29	0.748867
1351.87	1.10769
1353.46	0.948357
1355.05	0.450642
1356.64	0.732868
1358.23	0.515142
1359.81	0.696069
1361.4	0.915745
1362.99	1.17427
1364.57	1.35239
1366.16	1.0922
1367.74	0.673757
1369.33	0.575333
1370.91	0.537996
1372.5	0.661159
1374.08	0.845053
1375.67	0.651541
1377.25	0.617313
1378.83	1.1597
1380.42	0.54701
1382	0.868253
1383.58	0.909655
1385.16	0.53264
1386.75	1.00982
1388.33	0.473938
1389.91	0.375826
1391.49	0.715157
1393.07	1.15423
1394.65	0.343987
1396.23	0.44608
1397.81	0.210484
1399.39	1.12341
1400.97	0.291729
1402.55	0.172957
1404.13	0.88518
1405.7	0.509602
1407.28	1.14319
1408.86	1.16462
1410.44	0.0606747
1412.01	0.793786
1413.59	0.795502
1415.17	1.03312
1416.74	0.579452
1418.32	0.263864
1419.89	0.874754
1421.47	0.659061
1423.05	0.661523
1424.62	1.09854
1426.19	0.631362
1427.77	1.36534
1429.34	1.64639
1430.92	2.10364
1432.49	1.65436
1434.06	1.8338
1435.63	1.12766
1437.2	1.52314
1438.78	1.3491
1440.35	1.43161
1441.92	1.61331
1443.49	1.55989
1445.06	1.09411
1446.63	2.16158
1448.2	1.55851
1449.77	1.60434
1451.34	1.88661
1452.91	2.20885
1454.48	3.55454
1456.05	3.20871
1457.62	2.11419
1459.18	1.76595
1460.75	1.92764
1462.32	1.55615
1463.89	1.49791
1465.45	0.888289
1467.02	1.45759
1468.59	1.06458
1470.15	0.849415
1471.72	0.851264
1473.28	1.26598
1474.85	1.11262
1476.41	0.763648
1477.98	1.17944
1479.54	0.673765
1481.11	0.305319
1482.67	0.79915
1484.23	0.469763
1485.8	0.747459
1487.36	0.201744
1488.92	0.986469
1490.48	0.986014
1492.05	0.611966
1493.61	0.822488
1495.17	0.445538
1496.73	0.47766
1498.29	0.431614
1499.85	0.133516
1501.41	0.846559
1502.97	0.318029
1504.53	0.488857
1506.09	0.504758
1507.65	0.713457
1509.2	0.708243
1510.76	0.701941
1512.32	0.2901
1513.88	0.687304
1515.44	0.353194
1516.99	0.404428
1518.55	0.417901
1520.1	0.52769
1521.66	0.52262
1523.22	0.307016
1524.77	0.683011
1526.33	0.847394
1527.88	0.553443
1529.44	0.544991
1530.99	0.403603
1532.55	0.471645
1534.1	0.313077
1535.65	0.515208
1537.21	0.453252
1538.76	0.0523138
1540.31	0.425633
1541.86	0.383875
1543.42	0.266817
1544.97	1.14628
1546.52	0.802911
1548.07	0.628932
1549.62	0.492763
1551.17	0.825145
1552.72	0.895447
1554.27	1.1721
1555.82	0.478477
1557.37	0.589982
1558.92	0.833793
1560.47	1.07926
1562.02	1.17698
1563.57	0.977302
1565.11	0.89008
1566.66	0.914897
1568.21	0.640873
1569.75	1.43037
1571.3	1.36093
1572.85	1.27252
1574.39	1.29595
1575.94	1.26339
1577.49	1.45504
1579.03	0.937654
1580.58	1.63442
1582.12	1.19295
1583.67	1.16305
1585.21	1.67579
1586.75	0.899394
1588.3	1.31953
1589.84	1.51528
1591.38	1.29892
1592.93	1.28792
1594.47	1.01438
1596.01	1.00301
1597.55	1.44181
1599.09	1.31907
1600.63	1.2344
1602.18	1.65684
1603.72	1.42245
1605.26	1.18719
1606.8	0.743723
1608.34	1.57639
1609.87	1.14764
1611.41	1.39323
1612.95	0.960643
1614.49	0.996496
1616.03	0.844316
1617.57	0.917656
1619.11	1.04817
1620.64	0.86158
1622.18	0.320597
1623.72	1.29694
1625.25	1.44943
1626.79	1.09584
1628.32	1.5831
1629.86	1.5263
1631.4	1.86098
1632.93	1.7092
1634.47	1.10987
1636	1.05299
1637.53	1.72437
1639.07	1.79926
1640.6	1.55731
1642.14	1.0914
1643.67	1.42554
1645.2	2.09308
1646.73	1.71744
1648.27	1.8437
1649.8	1.74732
1651.33	1.91182
1652.86	2.02172
1654.39	2.16974
1655.92	1.87349
1657.45	1.92941
1658.98	1.65113
1660.51	2.18634
1662.04	1.35047
1663.57	2.15986
1665.1	1.39739
1666.63	1.37468
1668.16	2.33047
1669.69	1.20373
1671.21	1.38765
1672.74	1.09357
1674.27	1.13156
1675.79	1.22455
1677.32	1.66641
1678.85	1.35261
1680.37	0.964545
1681.9	1.31119
1683.42	1.45505
1684.95	1.58043
1686.47	1.68764
1688	1.117
1689.52	1.44497
1691.05	0.747509
1692.57	0.782825
1694.1	0.433917
1695.62	0.798191
1697.14	0.686764
1698.66	0.721222
1700.19	0.426726
1701.71	0.679263
1703.23	0.56641
1704.75	0.416786
1706.27	0.485311
1707.79	0.389832
1709.32	0.112782
1710.83	0.380709
1712.35	0.956575
1713.88	0.0278578
1715.39	0.548941
1716.91	0.164699
1718.43	-0.164818
1719.95	0.35485
1721.47	0.025775
1722.99	0.617168
1724.5	0.505972
1726.02	0.45011
1727.54	0.683517
1729.06	-0.0360622
1730.57	0.110676
1732.09	0.78842
1733.61	0.205615
1735.12	0.689766
1736.64	0.507823
1738.15	0.167131
1739.67	0.0222969
1741.18	0.335478
1742.7	0.505469
1744.21	-0.234923
1745.72	-0.0378971
1747.24	0.34675
1748.75	0.0741434
1750.26	0.188416
1751.78	0.0077858
1753.29	0.295765
1754.8	-0.00626945
1756.31	0.456857
1757.82	0.142653
1759.34	0.192192
1760.85	-0.101576
1762.36	-0.0557508
1763.87	-0.089468
1765.38	0.332464
1766.89	-0.175707
1768.4	0.329035
1769.91	0.215659
1771.41	0.257604
1772.92	0.239904
1774.43	0.187499
1775.94	0.694684
1777.45	0.0735044
1778.96	0.301525
1780.46	0.232594
1781.97	0.319231
1783.48	0.121233
1784.98	0.186829
1786.49	0.460526
1788	0.274349
1789.5	0.262976
1791.01	0.277559
1792.51	0.100192
1794.01	0.172934
1795.52	0.653367
1797.02	0.305772
1798.53	0.0418415
1800.03	0.149114
1801.54	-0.078826
1803.04	0.171272
1804.54	-0.197669
1806.04	-0.00324631
1807.54	-0.000190735
1809.05	0.209812
1810.55	0.148853
1812.05	0.305163
1813.55	0.0688238
1815.05	-0.11992
1816.55	-0.095953
1818.05	0.261107
1819.55	0.275379
1821.05	-0.0756359
1822.55	0.324642
1824.05	0.231377
1825.55	0.319307
1827.05	0.308252
1828.55	-0.0439291
1830.04	0.144524
1831.54	0.373796
1833.04	0.255522
1834.54	0.0754585
1836.03	0.189248
1837.53	0.0935774
1839.03	0.0703087
1840.52	0.0424099
1842.02	0.0550079
1843.51	0.0908222
1845.01	0.160629
1846.5	0.297259
1848	0.173285
1849.49	0.296371
1850.99	0.222629
1852.48	-0.0849209
1853.97	0.263854
1855.47	0.0836792
1856.96	0.677161
1858.45	0.308294
1859.94	0.472969
1861.44	0.0535946
1862.93	-0.216677
1864.42	-0.14675
1865.91	0.0664787
1867.4	-0.474453
1868.89	0.127094
1870.38	0.114558
1871.87	0.166641
1873.36	-0.0110607
1874.85	-0.109605
1876.34	-0.0798454
1877.83	-0.0247717
1879.32	0.0125761
1880.81	0.199692
1882.3	-0.0257759
1882.56	-0.0843925
1884.06	-0.138347
1885.55	0.172953
1887.04	0.343821
1888.54	0.131072
1890.03	-0.0812569
1891.52	0.350978
1893.02	-0.0848637
1894.51	0.228662
1896	-0.151867
1897.49	0.129094
1898.99	0.462234
1900.48	0.0985918
1901.97	-0.144802
1903.46	0.218965
1904.95	0.389904
1906.44	0.47306
1907.93	0.260909
1909.42	0.153686
1910.91	-0.473114
1912.4	-0.283468
1913.89	0.340172
1915.38	-0.0767689
1916.86	-0.181796
1918.35	0.0767097
1919.84	-0.11584
1921.33	0.176639
1922.82	0.469327
1924.3	-0.016325
1925.79	0.710982
1927.28	-0.118775
1928.76	0.350479
1930.25	0.352243
1931.74	-0.218244
1933.22	0.110397
1934.71	-0.133973
1936.19	-0.0509405
1937.67	0.324846
1939.16	0.319594
1940.64	0.31464
1942.13	0.137932
1943.61	-0.0376196
1945.09	-0.350208
1946.58	0.0100355
1948.06	-0.147173
1949.54	0.263519
1951.03	0.41462
1952.51	0.203324
1953.99	0.0949326
1955.47	0.192818
1956.95	0.634386
1958.43	0.0120306
1959.91	0.162937
1961.39	0.245622
1962.87	-0.117217
1964.35	0.256766
1965.83	0.201816
1967.31	0.420106
1968.79	0.569086
1970.27	0.666019
1971.75	0.0110264
1973.22	0.329781
1974.7	-0.238715
1976.18	0.0118408
1977.66	-0.487198
1979.13	-0.16849
1980.61	-0.0033226
1982.09	-0.0425186
1983.56	0.0879269
1985.04	0.336664
1986.52	0.21167
1987.99	-0.3368
1989.47	0.419748
1990.94	-0.364058
1992.41	-0.266593
1993.89	0.474062
1995.36	0.522042
1996.84	0.131178
1998.31	0.314713
1999.78	0.0925341
2001.26	0.258083
2002.73	0.237478
2004.2	0.132482
2005.67	0.162712
2007.15	-0.26115
2008.62	0.259075
2010.09	-0.011384
2011.56	-0.331782
2013.03	0.23999
2014.5	0.171707
2015.97	0.035429
2017.44	0.23475
2018.91	-0.0711842
2020.38	-0.192493
2021.85	-0.196252
2023.32	-0.0150652
2024.79	-0.353433
2026.25	0.148168
2027.72	0.23163
2029.19	0.249413
2030.66	0.0335894
2032.13	0.64084
2033.59	0.208137
2035.06	0.127762
2036.53	-0.121013
2037.99	-0.000742912
2039.46	0.102419
2040.92	0.272818
2042.39	0.174636
2043.85	0.312592
2045.32	-0.103788
2046.78	0.035717
2048.25	0.226183
2049.71	0.349119
2051.18	0.353156
2052.64	0.591814
2054.1	0.0192223
2055.56	0.507439
2057.03	0.606389
2058.49	-0.020071
2059.95	0.414989
2061.42	0.378671
2062.88	0.44416
2064.34	0.291809
2065.8	0.241415
2067.26	0.29279
2068.72	0.243743
2070.18	0.396977
2071.64	0.58398
2073.1	0.232092
2074.56	0.418732
2076.02	0.487203
2077.48	0.370083
2078.94	0.437825
2080.39	0.437766
2081.85	0.302485
2083.31	0.621103
2084.77	0.417182
2086.22	0.565944
2087.68	0.0414381
2089.14	-0.0460157
2090.6	0.756677
2092.05	0.551177
2093.51	0.664612
2094.96	0.727358
2096.42	0.688975
2097.87	0.683495
2099.33	1.06233
2100.78	1.02221
2102.24	0.681623
2103.69	0.292255
2105.15	0.622211
2106.6	1.30355
2108.05	0.951478
2109.51	0.916722
2110.96	0.881431
2112.41	0.811519
2113.86	1.22291
2115.32	1.33258
2116.77	1.10868
2118.22	1.31736
2119.67	1.21177
2121.12	1.37372
2122.57	1.04003
2124.02	1.28832
2125.47	1.58696
2126.92	1.65314
2128.37	1.25409
2129.82	1.68235
2131.27	1.69483
2132.72	1.35886
2134.17	1.56918
2135.62	1.79665
2137.06	1.76108
2138.51	1.74403
2139.96	1.61332
2141.41	1.40164
2142.85	1.8029
2144.3	1.79157
2145.75	1.97898
2147.19	1.9013
2148.64	1.92226
2150.09	1.9423
2151.53	1.71274
2152.97	1.74722
2154.42	2.19505
2155.86	2.12875
2157.31	2.32761
2158.75	1.93092
2160.2	2.16516
2161.64	2.2357
2163.08	2.39122
2164.53	2.10067
2165.97	2.42492
2167.41	2.11816
2168.86	1.56047
2170.3	1.86522
2171.74	2.08478
2173.18	1.95296
2174.62	1.85297
2176.06	2.7336
2177.5	1.90156
2178.94	1.83534
2180.38	2.3188
2181.82	2.13819
2183.26	2.07458
2184.7	2.27738
2186.14	2.13098
2187.58	2.01782
2189.02	2.22089
2190.46	1.49185
2191.89	1.5614
2193.33	1.51366
2194.77	1.39796
2196.21	1.63
2197.64	1.46051
2199.08	1.60538
2200.52	1.21733
2201.95	1.46061
2203.39	1.67104
2204.83	1.28546
2206.26	1.29907
2207.7	1.3629
2209.13	1.40991
2210.57	1.04232
2212	1.55079
2213.43	1.14875
2214.87	1.34176
2216.3	0.973942
2217.73	1.25109
2219.17	0.902583
2220.6	1.21459
2222.03	1.18044
2223.47	1.22795
2224.9	1.04348
2226.33	0.758812
2227.76	0.883985
2229.19	0.728476
2230.62	1.01548
2232.05	0.891994
2233.49	0.719968
2234.91	0.990531
2236.34	0.346922
2237.77	0.783264
2239.2	0.600909
2240.63	0.583743
2242.06	0.7151
2243.49	1.02706
2244.92	0.393337
2246.35	0.819179
2247.78	0.672588
2249.2	1.12715
2250.63	0.357174
2252.06	0.254076
2253.48	0.394332
2254.91	-0.0989723
2256.34	0.416362
2257.76	0.414064
2259.19	0.609148
2260.61	0.206701
2262.04	0.520487
2263.46	0.283877
2264.89	0.421039
2266.31	0.460443
2267.74	0.434059
2269.16	0.634627
2270.59	0.508988
2272.01	0.171133
2273.43	0.647297
2274.85	0.455869
2276.28	0.28085
2277.7	0.0407209
2279.12	0.566749
2280.54	0.0982828
2281.97	0.738612
2283.39	0.155569
2284.81	-0.101338
2286.23	0.278432
2287.65	0.0056448
2289.07	0.141426
2290.49	0.277689
2291.91	0.218166
2293.33	0.22412
2294.75	0.279148
2296.17	-0.0586996
2297.59	0.0125141
2299.01	0.493412
2300.42	0.302926
2301.84	0.342109
2303.26	-0.176213
2304.68	0.191479
2306.1	0.329565
2307.51	0.598908
2308.93	-0.0690126
2310.35	0.0184565
2311.76	-0.00951195
2313.18	-0.0375156
2314.59	0.198196
2316.01	0.121911
2317.43	-0.250289
2318.84	0.152288
2320.26	-0.104667
2321.67	0.115659
2323.08	0.284876
2324.5	0.385927
2325.91	0.699292
2327.33	0.763433
2328.74	0.69494
2330.15	0.330254
2331.56	0.411301
2332.98	0.0325308
2334.39	-0.0490742
2335.8	-0.130424
2337.21	-0.0805759
2338.62	0.165642
2340.04	0.311996
2341.45	0.0139236
2342.86	0.240926
2344.27	-0.171974
2345.68	0.120644
2347.09	0.101967
2348.5	-0.0639768
2349.91	-0.475432
2351.31	0.27359
2352.72	0.269219
2354.13	-0.209196
2355.54	-0.247171
2356.95	0.219382
2358.36	0.148203
2359.76	0.288496
2361.17	-0.0745277
2362.58	-0.0801215
2363.98	-0.247743
2365.39	-0.0267863
2366.8	-0.242455
2368.21	-0.00508785
2369.61	-0.057559
2371.02	0.407066
2372.42	0.0346479
2373.83	-0.127137
2375.23	0.27492
2376.64	0.113158
2378.04	0.175679
2379.44	0.429484
2380.85	0.247861
2382.25	-0.0148711
2383.66	-0.00555038
2385.06	-0.0924211
2386.46	0.0289922
2387.86	0.150957
2389.26	0.210017
2390.67	-0.319292
2392.07	0.124336
2393.47	0.138749
2394.87	-0.00512457
2396.27	-0.084641
2397.67	0.186115
2399.07	-0.0511899
2400.47	0.0456662
2401.87	0.0633578
2403.27	0.398705
2404.67	0.114339
2406.07	-0.440538
2407.47	0.210075
2408.87	0.0664225
2410.27	-0.156626
2411.67	0.270321
2413.07	-0.0783253
2414.46	0.476854
2415.86	-0.0274134
2417.26	0.387777
2418.66	0.0755401
2420.05	-0.0939488
2421.45	0.243285
2422.84	-0.053412
2424.24	0.330889
2425.64	0.160721
2427.03	0.418917
2428.43	0.234164
2429.82	0.129467
2431.22	0.310935
2432.61	0.191071
2434.01	-0.0246854
2435.4	0.28265
2436.79	0.000844002
2438.19	0.289605
2439.58	0.0211325
2440.97	0.133091
2442.37	0.149242
2443.76	0.117522
2445.15	0.307723
2446.54	0.0378456
2447.93	-0.168524
2449.33	0.35392
2450.72	0.369465
2452.11	0.559611
2453.5	-0.246459
2454.89	-0.00727892
2456.28	0.0900927
2457.67	-0.22353
2459.06	0.585724
2460.45	-0.060678
2461.84	-0.122566
2463.23	0.162596
2464.62	0.0678434
2466	0.0834475
2467.39	0.20945
2468.78	0.19329
2470.17	0.0192513
2471.55	-0.123503
2472.94	-0.0776734
2474.33	0.471152
2475.72	0.483749
2477.1	0.0716209
2478.49	-0.167132
2479.87	0.0653973
2481.26	0.360433
2482.65	0.137927
2484.03	0.228424
2485.42	0.192826
2486.8	0.218741
2488.19	0.430827
2489.57	0.0183458
2490.95	-0.206431
2492.34	0.347033
2493.72	0.387828
2495.1	0.0109839
2496.49	-0.131573
2497.87	-0.118279
2499.25	0.0345259
2500.63	0.0940046
2502.02	0.446306
2503.4	0.164021
2504.78	0.267072
2506.16	-0.169927
2507.54	-0.0829005
2508.92	-0.0113225
2510.3	0.183342
2511.68	0.0100002
2513.06	-0.0550113
2514.44	0.539443
2515.82	0.00124264
2517.2	0.489293
2518.58	-0.0928841
2519.96	-0.154768
2521.34	0.195529
2522.72	-0.126762
2524.1	-0.0223103
2525.47	-0.162492
2526.85	0.0323277
2528.23	-0.0162363
2529.6	0.0883155
2530.98	-0.0793877
2532.36	-0.108725
2533.74	-0.0153146
2535.11	-0.0124483
2536.49	-0.100786
2537.86	-0.0529976
2539.24	-0.0668283
2540.61	-0.233212
2541.99	-0.293554
2543.36	0.14708
2544.74	-0.0488453
2546.11	0.272093
2547.49	0.0632463
2548.86	0.113015
2550.23	0.314585
2551.61	-0.243049
2552.98	-0.0427394
2554.35	0.20216
2555.72	0.0517035
2557.09	-0.19018
2558.47	0.0986691
2559.84	0.26633
2561.21	0.222219
2562.58	0.163549
2563.95	0.105411
2565.32	-0.0432639
2566.69	0.156818
2568.06	0.0993581
2569.43	0.329855
2570.8	0.181456
2572.17	0.0785475
2573.54	0.187915
2574.91	0.13062
2576.28	0.0278559
2577.65	0.167596
2579.02	-0.011282
2580.39	0.0976143
2581.75	-0.112284
2583.12	0.268806
2584.49	0.482851
2585.85	-0.167213
2587.22	0.077198
2588.59	-0.148092
2589.95	0.278387
2591.32	0.00761986
2592.68	0.145573
2594.05	0.0252199
2595.42	0.116021
2596.78	-0.566121
2598.15	-0.0682669
2599.51	0.201907
2600.88	0.214992
2602.24	0.243621
2603.6	0.212451
2604.97	0.37797
2606.33	0.151343
2607.69	0.392007
2609.06	0.254879
2610.42	0.538514
2611.78	0.323843
2613.14	0.183642
2614.51	0.418523
2615.87	-0.262623
2617.23	0.167079
2618.59	0.0423784
2619.95	0.412382
2621.31	0.199342
2622.67	0.360621
2624.03	0.342701
2625.39	0.414273
2626.75	-0.00658035
2628.11	0.139091
2629.47	-0.0879674
2630.83	0.369507
2632.19	0.0531273
2633.55	-0.114258
2634.91	0.149005
2636.26	0.18936
2637.62	0.0814543
2638.98	0.166237
2640.34	0.0882859
2641.69	-0.0336728
2643.05	0.391375
2644.41	0.299278
2645.76	0.0892119
2647.12	0.0412264
2648.48	0.331453
2649.83	0.39968
2651.19	0.18782
2652.54	0.372616
2653.9	0.0437703
2655.25	0.317165
2656.6	0.166376
2657.96	-0.0270753
2659.31	0.321728
2660.67	0.0710568
2662.02	-0.0333757
2663.37	0.28533
2664.73	0.106623
2666.08	0.23377
2667.43	0.156255
2668.78	0.413684
2670.14	0.161716
2671.49	0.25954
2672.84	0.0381389
2674.19	0.00632954
2675.54	0.16374
2676.89	0.379547
2678.24	0.146186
2679.59	0.131207
2680.94	0.189653
2682.29	0.0751839
2683.64	0.179252
2684.99	0.646846
2686.34	-0.0311413
2687.69	0.480454
2689.04	-0.0540662
2690.39	0.266355
2691.74	0.338295
2693.08	0.52485
2694.43	-0.130689
2695.78	0.301241
2697.13	0.313217
2698.47	-0.00670385
2699.82	0.0224838
2701.17	0.603467
2702.51	0.418372
2703.86	-0.186136
2705.21	0.0501232
2706.55	0.620239
2707.9	0.42153
2709.24	0.367438
2710.58	0.341986
2711.93	0.112889
2713.27	0.0142913
2714.62	0.249885
2715.96	-0.0669746
2717.3	0.15398
2718.65	0.331174
2719.99	0.115219
2721.33	0.160731
2722.68	0.307693
2724.02	0.483344
2725.36	0.45481
2726.71	0.265809
2728.05	0.57136
2729.39	0.614677
2730.73	0.00307417
2732.07	0.0753632
2733.41	0.685936
2734.75	0.365626
2736.09	-0.187173
2737.43	0.0455613
2738.77	0.190977
2740.11	0.263427
2741.45	0.204555
2742.79	0.203255
2744.13	0.346646
2745.47	0.0680661
2746.81	0.0361819
2748.14	-0.0103655
2749.48	0.276855
2750.82	-0.0596156
2752.16	-0.0186844
2753.49	0.268785
2754.83	0.338892
2756.17	0.249744
2757.5	0.291105
2758.84	0.130008
2760.18	-0.059628
2761.51	-0.219842
2762.85	-0.249401
2764.18	0.227712
2765.52	-0.0331354
2766.85	0.110709
2768.19	0.0367084
2769.52	0.308604
2770.86	-0.114727
2772.19	-0.148837
2773.52	0.0037899
2774.86	0.0115075
2776.19	0.192012
2777.52	0.185429
2778.86	-0.108252
2780.19	-0.113661
2781.52	0.053524
2782.85	0.134446
2784.19	-0.186364
2785.52	-0.0624852
2786.85	0.0470681
2788.18	-0.0721016
2789.51	-0.161854
2790.84	-0.350878
2792.17	-0.195985
2793.5	0.216522
2794.83	0.0429006
2796.16	0.0833726
2797.49	-0.0195155
2798.82	0.0627785
2800.15	0.0589857
2801.48	0.0406814
2802.81	0.0935016
2804.13	-0.0107384
2805.46	0.0983672
2806.79	-0.220211
2808.12	-0.0268879
2809.45	0.464213
2810.77	0.343958
2812.1	-0.0168018
2813.43	-0.0357213
2814.75	-0.280194
2816.08	-0.168939
2817.41	-0.0284171
2818.73	0.211808
2820.06	0.111858
2821.38	0.238268
2822.71	0.193983
2824.03	0.0641384
2825.36	0.203167
2826.68	0.313841
2828	0.0568223
2829.33	0.225076
2830.65	0.37956
2831.98	0.435127
2833.3	0.462314
2834.62	0.7015
2835.94	0.31748
2837.27	0.697146
2838.59	0.765027
2839.91	1.20036
2841.23	1.1266
2842.55	1.36425
2843.87	1.235
2845.2	1.85548
2846.52	2.26458
2847.84	2.00982
2849.16	2.16492
2850.48	2.3904
2851.8	2.19133
2853.12	2.20374
2854.44	2.22989
2855.76	1.66244
2857.08	2.29589
2858.39	2.08175
2859.71	2.16421
2861.03	2.26059
2862.35	2.37073
2863.67	2.40988
2864.98	2.46285
2866.3	2.27597
2867.62	2.3574
2868.94	2.9186
2870.25	2.81745
2871.57	3.06886
2872.88	3.27763
2874.2	3.42918
2875.52	3.49502
2876.83	3.64413
2878.15	3.24348
2879.46	3.50395
2880.78	3.25847
2882.09	3.5058
2883.41	3.6557
2884.72	3.41339
2886.03	3.67715
2887.35	3.43561
2888.66	3.69885
2889.97	3.32991
2891.29	3.29691
2892.6	3.27735
2893.91	3.6779
2895.22	3.07033
2896.54	3.44384
2897.85	3.38438
2899.16	3.77367
2900.47	3.40824
2901.78	3.9246
2903.09	3.92357
2904.4	3.89471
2905.71	3.54444
2907.02	3.51643
2908.33	3.88091
2909.64	3.82659
2910.95	3.78679
2912.26	4.20888
2913.57	4.50438
2914.88	4.2385
2916.19	4.85288
2917.5	4.84964
2918.81	4.80343
2920.11	4.74315
2921.42	4.9073
2922.73	4.66726
2924.04	4.98778
2925.34	5.33739
2926.65	5.31023
2927.96	5.70251
2929.26	5.22765
2930.57	5.18562
2931.87	5.40874
2933.18	5.14236
2934.49	5.3652
2935.79	5.07104
2937.1	4.79109
2938.4	4.94455
2939.7	5.23803
2941.01	4.88925
2942.31	4.69504
2943.62	4.65572
2944.92	4.15638
2946.22	4.06342
2947.53	4.11089
2948.83	3.85024
2950.13	4.16239
2951.43	3.75884
2952.74	4.05361
2954.04	3.731
2955.34	3.9541
2956.64	3.91209
2957.94	3.24221
2959.24	3.17666
2960.54	3.16964
2961.84	3.27666
2963.15	2.71113
2964.45	2.91646
2965.75	3.12079
2967.05	2.46653
2968.34	2.69635
2969.64	2.82721
2970.94	2.92993
2972.24	2.39991
2973.54	2.33434
2974.84	2.35321
2976.14	1.93508
2977.43	2.19162
2978.73	2.16506
2980.03	2.12289
2981.33	2.10774
2982.62	1.92335
2983.92	2.14717
2985.22	1.5708
2986.51	1.64246
2987.81	1.32201
2989.11	1.63483
2990.4	1.49823
2991.7	1.05201
2992.99	1.12492
2994.29	0.775227
2995.58	1.01471
2996.88	0.846271
2998.17	0.916397
2999.46	0.720219
3000.76	0.833179
3002.05	0.526126
3003.34	0.499923
3004.64	0.768041
3005.93	0.237581
3007.22	-0.152977
3008.52	0.393572
3009.81	0.197725
3011.1	0.183186
3012.39	0.447579
3013.68	0.16756
3014.97	0.0277858
3016.27	0.08389
3017.56	0.252002
3018.85	0.281287
3020.14	0.435816
3021.43	0.242356
3022.72	0.117888
3024.01	0.256467
3025.3	0.0475974
3026.59	-0.0917416
3027.88	-0.0227766
3029.16	0.102414
3030.45	0.090651
3031.74	-0.0578289
3033.03	-0.0809612
3034.32	0.393064
3035.6	0.217946
3036.89	-0.0684085
3038.18	-0.107882
3039.47	-0.0387402
3040.75	0.235109
3042.04	0.0134048
3043.33	0.244643
3044.61	0.284497
3045.9	0.161787
3047.18	0.232605
3048.47	0.401102
3049.75	0.107449
3051.04	-0.00718784
3052.32	0.0700374
3053.61	0.406571
3054.89	0.265035
3056.18	0.272736
3057.46	0.470369
3058.74	0.0132165
3060.03	0.21002
3061.31	0.366194
3062.59	0.468779
3063.88	-0.0935726
3065.16	0.0254793
3066.44	0.132238
3067.72	0.0904117
3069	0.212201
3070.29	0.102678
3071.57	0.00607061
3072.85	0.1669
3074.13	-0.0539727
3075.41	-0.0171924
3076.69	0.41321
3077.97	0.178573
3079.25	0.0130615
3080.53	-0.00172186
3081.81	0.283389
3083.09	-0.1357
3084.37	0.273492
3085.65	0.113009
3086.93	0.087904
3088.21	-0.00557327
3089.49	-0.126657
3090.76	-0.247966
3092.04	-0.00292253
3093.32	0.0930829
3094.6	-0.136021
3095.87	0.055634
3097.15	0.138977
3098.43	-0.0351458
3099.7	-0.0601215
3100.98	-0.112113
3102.26	0.134052
3103.53	0.150313
3104.81	0.15362
3106.08	0.0494466
3107.36	0.474005
3108.63	0.182372
3109.91	0.568545
3111.18	0.12999
3112.46	0.396296
3113.73	0.229688
3115	0.469738
3116.28	0.479155
3117.55	0.311627
3118.83	0.278897
3120.1	0.923424
3121.37	0.251887
3122.64	0.651059
3123.92	0.69768
3125.19	0.433199
3126.46	0.440197
3127.73	0.434329
3129	0.469672
3130.27	0.275594
3131.55	0.730727
3132.82	0.753222
3134.09	0.599952
3135.36	0.487021
3136.63	0.738193
3137.9	0.597799
3139.17	0.726901
3140.44	0.586629
3141.71	0.675495
3142.98	0.563135
3144.24	1.04226
3145.51	0.582398
3146.78	0.861291
3148.05	0.551133
3149.32	0.737479
