200.43	-6.48499e-005
202.246	0.00989723
204.061	0.0210819
205.875	-0.355909
207.688	0.361823
209.501	0.155217
211.316	-0.197715
213.129	0.371126
214.941	0.0166502
216.753	-0.0468569
218.566	0.398501
220.377	-0.0274124
222.188	0.0560894
223.999	0.333825
225.809	-0.0888834
227.618	0.45522
229.43	0.201837
231.239	0.0689697
233.047	-0.0398197
234.855	0.358266
236.663	0.202851
238.471	-0.312081
240.278	0.380443
242.087	0.110946
243.894	-0.157467
245.7	-0.377784
247.506	0.0765619
249.311	0.480604
251.116	0.0851765
252.921	0.26683
254.725	0.374468
256.529	0.0235844
258.333	-0.446669
260.136	0.747224
261.939	-0.0568819
263.744	-0.0162058
265.546	0.290539
267.348	0.284517
269.15	-0.300228
270.951	0.0785875
272.752	-0.00155735
274.552	0.47167
276.353	-0.117253
278.152	-0.0326681
279.952	0.050168
281.751	0.131175
283.55	0.306657
285.348	-0.0720034
287.146	-0.33054
288.942	-0.204889
290.739	0.496124
292.536	-0.238946
294.333	-0.349639
296.129	0.521358
297.925	0.221602
299.721	0.0659418
301.516	-0.137475
303.311	0.446486
305.106	0.289092
306.9	0.250318
308.694	0.0683947
310.486	-0.231951
312.279	0.207357
314.072	0.100261
315.864	-0.362288
317.656	0.295989
319.448	0.33664
321.24	0.402283
323.029	0.540293
324.819	-0.108482
326.61	1.08061
328.4	-0.118151
330.19	-0.0279713
331.977	-0.201787
333.766	0.460266
335.555	0.331069
337.343	0.558756
339.131	0.234236
340.917	-0.139303
342.704	0.203899
344.491	0.809608
346.277	0.125557
348.062	0.0873041
349.848	-0.0936632
351.633	-0.107411
353.416	-0.00229168
355.201	0.388145
356.986	-0.152774
358.77	0.258924
360.552	0.0499315
362.335	0.387759
364.118	0.605512
365.899	0.0857887
367.682	0.183437
369.464	0.232728
371.243	0.328532
373.025	0.731084
374.806	-0.0492296
376.585	0.234552
378.365	0.09375
380.143	0.330976
381.923	0.0274878
383.702	0.525344
385.479	0.365573
387.258	0.489084
389.034	0.237709
390.812	-0.083087
392.59	0.0666304
394.365	0.827472
396.142	0.555396
397.916	0.142493
399.693	0.152197
401.467	0.37292
403.242	0.170332
405.015	-0.173807
406.79	0.162503
408.565	0.779908
410.337	0.340477
412.111	0.347174
413.882	-0.161981
415.656	0.174276
417.426	0.323526
419.197	-0.0194082
420.969	0.0133476
422.739	0.0224333
424.51	0.312657
426.279	0.508189
428.05	0.374313
429.819	0.474742
431.589	0.316961
433.356	-0.333374
435.124	-0.13849
436.893	-0.0844212
438.66	0.156812
440.428	0.537536
442.194	-0.18622
443.96	-0.489161
445.727	0.0969238
447.492	-0.372233
449.259	0.000849724
451.023	-0.000468254
452.787	0.465382
454.553	0.417537
456.316	-0.259521
458.079	0.578118
459.844	0.576767
461.606	0.0876999
463.368	-0.0972805
465.132	0.300815
466.893	0.28313
468.654	-0.10402
470.415	0.579899
472.177	0.17153
473.937	0.018157
475.696	0.585148
477.456	0.59137
479.217	-0.219438
480.975	0.343213
482.733	-0.491535
484.491	-0.160775
486.251	0.101818
488.008	0.0634604
489.765	0.21344
491.522	0.457953
493.278	0.586681
495.036	0.528765
496.791	0.353609
498.546	0.248158
500.301	0.470423
502.056	0.809837
503.81	0.0215311
505.566	0.617841
507.319	0.249436
509.073	0.585075
510.825	0.731209
512.578	-0.0418072
514.33	-0.0161047
516.082	-0.367979
517.833	0.0789099
519.587	0.171982
521.337	0.170316
523.088	0.144735
524.838	0.0485716
526.588	0.233987
528.337	0.301991
530.087	0.627608
531.835	0.413815
533.584	0.620883
535.332	-0.0388222
537.08	0.399704
538.827	0.602691
540.574	0.570954
542.321	0.212446
544.068	0.785024
545.814	0.403487
547.56	0.440774
549.305	0.315916
551.05	0.608347
552.795	-0.209987
554.54	0.406191
556.284	0.813577
558.027	0.528701
559.771	0.360006
561.514	0.583442
563.257	0.324006
564.999	-0.417215
566.742	0.152403
568.481	0.492463
570.223	0.121742
571.964	0.119534
573.705	0.50871
575.445	0.165371
577.185	0.28231
578.925	0.1939
580.665	-0.238424
582.402	-0.165553
584.141	0.0448875
585.879	0.0706406
587.617	0.578404
589.355	0.233987
591.092	-0.226362
592.828	0.164098
594.564	0.16327
596.301	0.300506
598.037	0.920852
599.773	0.344529
601.506	0.342641
603.242	0.36263
604.976	0.0364666
606.711	0.283894
608.443	0.599213
610.177	-0.325323
611.91	0.150776
613.644	0.00802898
615.374	0.255604
617.107	0.411507
618.839	0.543942
620.569	0.469283
622.3	-0.407076
624.032	0.317187
625.761	0.789125
627.491	0.256868
629.221	0.320181
630.949	0.453982
632.679	0.498327
634.408	0.33825
636.135	0.634405
637.863	0.609487
639.592	0.422394
641.318	0.369669
643.045	0.0185575
644.77	0.327245
646.497	0.271614
648.224	0.490447
649.948	0.439144
651.674	0.186747
653.398	0.41496
655.123	-0.0360432
656.846	0.720911
658.57	0.682521
660.293	0.826225
662.017	0.397834
663.738	0.469513
665.462	0.104731
667.185	0.469817
668.905	0.58275
670.628	0.353152
672.348	0.491246
674.067	0.494227
675.789	0.361596
677.508	0.551029
679.228	0.350558
680.947	0.447701
682.667	0.750504
684.385	0.223065
686.104	0.130933
687.821	0.636227
689.538	0.726062
691.256	0.584873
692.972	0.742567
694.69	0.692264
696.406	0.618059
698.121	0.404702
699.837	0.765651
701.552	1.21719
703.268	1.32251
704.982	1.56482
706.695	1.34724
708.41	1.08372
710.123	0.476563
711.836	0.396644
713.55	1.23149
715.262	0.6478
716.973	0.498911
718.685	1.14875
720.398	1.04547
722.108	0.646473
723.818	0.976281
725.53	0.600673
727.24	1.27027
728.949	0.939804
730.658	1.10829
732.369	1.4799
734.077	1.6922
735.785	1.36165
737.493	0.964327
739.2	0.793947
740.909	0.692313
742.616	0.704513
744.322	1.52835
746.028	1.45255
747.734	1.37811
749.441	1.16998
751.146	1.39042
752.851	1.47711
754.555	1.02515
756.26	0.686792
757.963	1.65541
759.667	1.81538
761.372	1.30029
763.075	0.830043
764.777	1.82656
766.479	1.26438
768.181	0.451263
769.883	2.03255
771.584	1.44152
773.285	1.48228
774.986	1.27386
776.686	2.10597
778.386	2.05749
780.085	1.55813
781.785	1.51201
783.484	1.35287
785.182	1.89438
786.881	1.86792
788.579	1.36324
790.276	1.60243
791.974	1.31896
793.671	1.89252
795.367	2.17144
797.064	1.90976
798.76	1.9203
800.456	1.12224
802.151	1.72113
803.846	2.16273
805.541	1.7496
807.236	1.94275
808.93	1.28123
810.624	1.36006
812.317	1.63973
814.01	2.20969
815.703	1.8382
817.394	1.82518
819.086	2.25919
820.778	1.91107
822.47	1.96549
824.161	1.55232
825.852	1.31923
827.543	1.71191
829.231	2.21823
830.921	1.59154
832.611	2.28166
834.3	1.3472
835.989	1.79549
837.676	1.57463
839.364	1.73207
841.053	1.12873
842.74	1.26114
844.426	1.05795
846.113	1.48106
847.8	1.59296
849.486	0.968856
851.171	1.71192
852.857	0.911551
854.542	1.45665
856.227	0.991986
857.911	1.71706
859.595	1.4968
861.279	1.11694
862.961	2.10939
864.645	1.07316
866.329	0.914586
868.01	0.958296
869.692	1.2046
871.375	1.54092
873.055	1.67412
874.737	1.37855
876.418	1.03776
878.097	0.674329
879.778	1.25876
881.457	1.54952
883.137	1.27526
884.817	1.18062
886.495	0.723638
888.174	1.16802
889.851	1.09194
891.53	1.64563
893.206	1.85951
894.884	1.14935
896.562	0.911563
898.237	1.01022
899.914	0.659168
901.589	0.913173
903.265	1.21078
904.94	0.568841
906.615	1.26791
908.289	1.49768
909.964	0.681047
911.637	1.20173
913.31	0.810789
914.984	1.08701
916.656	1.0522
918.33	0.995222
920.001	1.40342
921.674	1.08134
923.345	1.00397
925.015	1.28157
926.687	0.522802
928.357	1.17871
930.028	0.820291
931.698	0.859771
933.366	0.89948
935.037	1.11578
936.705	0.648713
938.373	1.06461
940.043	1.81246
941.71	1.28217
943.379	0.796474
945.046	1.10499
946.712	0.419272
948.378	0.438305
950.046	0.323293
951.711	-0.101563
953.376	0.554557
955.043	0.439865
956.708	0.658285
958.372	0.703115
960.036	0.529715
961.701	0.489979
963.364	0.980622
965.027	0.563611
966.69	0.851918
968.354	1.07146
970.016	0.470508
971.678	0.687357
973.339	0.97084
975	0.592127
976.661	0.878449
978.324	0.878645
979.984	1.02329
981.644	1.16769
983.303	0.989921
984.962	1.49663
986.621	0.230653
988.282	1.19841
989.94	0.572029
991.598	0.652935
993.256	0.0267963
994.913	-0.0246105
996.57	0.409495
998.227	0.887182
999.884	0.989492
1001.54	0.672906
1003.2	0.202305
1004.85	0.435796
1006.51	0.317235
1008.16	0.945561
1009.82	0.585803
1011.47	0.884804
1013.12	1.03042
1014.78	0.234368
1016.43	0.468464
1018.08	0.41832
1019.74	0.784452
1021.39	0.910732
1023.04	0.753795
1024.69	0.313682
1026.34	0.94495
1028	0.876924
1029.65	0.655437
1031.3	0.564017
1032.95	0.689567
1034.6	-0.0155611
1036.25	0.805218
1037.9	1.34081
1039.55	0.351723
1041.19	0.952553
1042.84	0.553832
1044.49	0.700249
1046.14	0.544206
1047.79	0.389902
1049.43	0.171901
1051.08	0.302477
1052.73	0.542428
1054.37	0.283038
1056.02	0.675579
1057.66	0.481086
1059.31	1.19927
1060.95	1.3082
1062.6	0.481373
1064.24	0.545251
1065.88	0.542974
1067.53	0.800537
1069.17	0.60081
1070.81	0.16177
1072.46	-0.0599442
1074.1	0.673623
1075.74	0.0627441
1077.38	-0.308158
1079.02	0.167773
1080.66	-0.114635
1082.3	0.535394
1083.94	0.143855
1085.58	0.596484
1087.22	0.678649
1088.86	0.867125
1090.5	0.0584574
1092.14	0.136418
1093.78	0.105808
1095.42	0.399034
1097.05	0.563091
1098.69	0.598845
1100.33	0.119466
1101.97	0.524446
1103.6	0.285363
1105.24	0.155078
1106.87	1.0577
1108.51	0.605054
1110.15	-0.0849028
1111.78	0.66424
1113.41	0.551998
1115.05	0.352895
1116.68	0.32513
1118.31	0.726248
1119.95	0.206202
1121.58	-0.419429
1123.21	0.283392
1124.85	-0.126025
1126.48	0.49222
1128.11	-0.086669
1129.74	-0.36541
1131.37	0.0405254
1133	0.0404806
1134.63	0.189966
1136.26	0.296135
1137.89	0.166324
1139.52	-0.284834
1141.15	-0.224066
1142.78	0.433702
1144.41	-0.0181513
1146.04	-0.27713
1147.66	-0.130205
1149.29	0.294329
1150.92	0.335685
1152.55	-0.155337
1154.17	-0.305762
1155.8	0.0330744
1157.43	0.201376
1159.05	0.242265
1160.68	-0.226483
1162.3	0.283914
1163.93	0.43368
1165.55	-0.0539484
1167.17	1.01034
1168.8	0.245191
1170.42	-0.436115
1172.05	0.304873
1173.67	0.0880985
1175.29	-0.150683
1176.91	0.0556297
1178.54	0.282963
1180.16	0.214221
1181.78	0.336731
1183.4	0.501982
1185.02	0.117726
1186.64	0.0710058
1188.26	0.00187206
1189.88	0.711047
1191.5	0.195872
1193.12	-0.319339
1194.74	0.467868
1196.36	-0.0889339
1197.97	0.0475054
1199.59	0.122338
1201.21	-0.302409
1202.83	-0.264914
1204.44	0.0668755
1206.06	-0.0796137
1207.68	0.192332
1209.29	0.31846
1210.91	0.0684643
1212.52	-0.245378
1214.14	-0.310708
1215.75	0.455076
1217.37	0.448271
1218.98	0.835386
1220.6	-0.0654936
1222.21	0.280334
1223.82	-0.28509
1225.44	0.104065
1227.05	0.556083
1228.66	0.450431
1230.27	-0.23294
1231.88	0.656074
1233.49	1.13248
1235.1	0.452584
1236.72	0.786518
1238.33	0.625316
1239.94	0.278554
1241.55	0.883244
1243.16	0.370765
1244.76	0.374727
1246.37	0.29505
1247.98	0.607659
1249.59	0.44368
1251.2	0.796645
1252.8	0.405057
1254.41	0.67603
1256.02	1.27891
1257.63	0.476308
1259.23	0.398651
1260.84	0.34242
1262.44	0.742134
1264.05	0.603586
1265.66	0.79616
1267.26	0.511457
1268.87	0.661183
1270.47	1.28693
1272.07	0.501828
1273.68	1.14642
1275.28	1.16807
1276.88	1.06451
1278.48	0.628834
1280.09	1.14542
1281.69	1.30943
1283.29	0.707956
1284.89	0.934628
1286.49	1.51338
1288.09	0.976732
1289.69	1.24707
1291.3	1.26987
1292.9	1.58185
1294.49	0.612268
1296.09	1.00506
1297.69	1.10712
1299.29	0.79493
1300.89	1.03844
1302.49	1.21865
1304.09	1.02721
1305.68	1.04107
1307.28	1.17767
1308.88	1.21112
1310.47	1.20351
1312.07	1.70806
1313.66	1.04655
1315.26	1.20452
1316.86	1.32227
1318.45	0.338672
1320.05	0.967007
1321.64	1.10468
1323.23	0.976171
1324.83	1.04965
1326.42	0.0254469
1328.01	1.05105
1329.61	0.859608
1331.2	1.01385
1332.79	0.907084
1334.38	0.580416
1335.98	0.901329
1337.57	1.12157
1339.16	1.54255
1340.75	1.1759
1342.34	0.928651
1343.93	0.418825
1345.52	1.17402
1347.11	0.924874
1348.7	0.99827
1350.29	1.01371
1351.87	0.731427
1353.46	1.4909
1355.05	0.772053
1356.64	1.113
1358.23	0.933996
1359.81	1.13368
1361.4	0.593719
1362.99	1.01107
1364.57	0.570381
1366.16	1.08677
1367.74	0.985985
1369.33	0.0105171
1370.91	-0.0079031
1372.5	0.392684
1374.08	0.714579
1375.67	0.59932
1377.25	0.563751
1378.83	0.786444
1380.42	0.928632
1382	0.810997
1383.58	0.453637
1385.16	0.413721
1386.75	0.572109
1388.33	0.790043
1389.91	0.611381
1391.49	0.493168
1393.07	0.633611
1394.65	1.052
1396.23	0.399302
1397.81	0.896071
1399.39	0.598999
1400.97	0.974726
1402.55	0.617126
1404.13	0.63577
1405.7	-0.412927
1407.28	0.813004
1408.86	0.497618
1410.44	0.459422
1412.01	0.63844
1413.59	0.165429
1415.17	0.205041
1416.74	0.480549
1418.32	0.440059
1419.89	0.104397
1421.47	0.0849762
1423.05	0.0274878
1424.62	1.01453
1426.19	0.506763
1427.77	0.865504
1429.34	0.90911
1430.92	0.577966
1432.49	1.07239
1434.06	0.975529
1435.63	1.35031
1437.2	1.25318
1438.78	0.822605
1440.35	1.33645
1441.92	1.00602
1443.49	0.656575
1445.06	1.03466
1446.63	1.33432
1448.2	1.71281
1449.77	1.32491
1451.34	0.858687
1452.91	1.35643
1454.48	1.22526
1456.05	1.68428
1457.62	1.25733
1459.18	1.18338
1460.75	0.734
1462.32	1.85704
1463.89	1.03087
1465.45	1.26584
1467.02	0.576965
1468.59	0.929692
1470.15	0.870744
1471.72	0.812839
1473.28	0.893193
1474.85	0.621251
1476.41	1.01639
1477.98	0.196054
1479.54	0.924438
1481.11	0.750962
1482.67	0.675445
1484.23	0.325517
1485.8	0.62189
1487.36	0.623693
1488.92	0.42858
1490.48	0.310345
1492.05	-0.0441971
1493.61	0.322788
1495.17	0.160694
1496.73	0.485186
1498.29	0.555645
1499.85	0.412611
1501.41	0.426144
1502.97	0.634603
1504.53	0.184699
1506.09	0.0842886
1507.65	0.35101
1509.2	0.42312
1510.76	0.359003
1512.32	0.641155
1513.88	0.344853
1515.44	-0.181213
1516.99	0.427207
1518.55	0.191113
1520.1	-0.0822372
1521.66	0.314887
1523.22	0.577092
1524.77	0.398908
1526.33	0.163091
1527.88	0.155598
1529.44	0.775125
1530.99	0.348556
1532.55	1.13713
1534.1	0.352677
1535.65	0.592425
1537.21	1.04031
1538.76	0.732908
1540.31	0.690461
1541.86	0.459802
1543.42	0.775283
1544.97	0.469525
1546.52	0.765225
1548.07	0.647381
1549.62	0.885877
1551.17	0.899352
1552.72	1.0442
1554.27	0.853208
1555.82	1.52287
1557.37	1.48405
1558.92	0.60748
1560.47	1.0949
1562.02	1.13597
1563.57	1.45792
1565.11	1.42598
1566.66	1.22617
1568.21	1.32472
1569.75	1.36695
1571.3	1.31548
1572.85	1.59975
1574.39	1.88388
1575.94	1.88803
1577.49	2.00438
1579.03	1.72908
1580.58	1.04353
1582.12	1.72179
1583.67	1.42975
1585.21	1.45592
1586.75	1.63213
1588.3	1.19139
1589.84	1.10562
1591.38	0.907082
1592.93	0.726717
1594.47	1.80091
1596.01	1.6954
1597.55	1.02794
1599.09	1.11056
1600.63	1.38146
1602.18	0.883542
1603.72	1.15501
1605.26	1.351
1606.8	1.52712
1608.34	1.49477
1609.87	0.877666
1611.41	0.860023
1612.95	1.10359
1614.49	1.15803
1616.03	0.668083
1617.57	0.853922
1619.11	1.13422
1620.64	1.64035
1622.18	1.23
1623.72	0.970322
1625.25	1.16001
1626.79	1.19924
1628.32	1.19988
1629.86	0.993574
1631.4	0.842611
1632.93	0.990308
1634.47	0.802069
1636	1.26773
1637.53	1.49135
1639.07	1.39844
1640.6	1.34291
1642.14	1.82713
1643.67	1.09957
1645.2	1.41383
1646.73	0.685507
1648.27	0.998514
1649.8	1.36709
1651.33	1.75461
1652.86	1.27112
1654.39	1.88295
1655.92	1.36436
1657.45	1.21662
1658.98	1.34614
1660.51	1.71502
1662.04	0.916651
1663.57	0.876314
1665.1	0.983292
1666.63	0.684372
1668.16	1.58555
1669.69	0.699028
1671.21	1.06751
1672.74	0.976204
1674.27	1.45624
1675.79	0.960073
1677.32	1.43894
1678.85	0.775897
1680.37	0.829647
1681.9	0.441687
1683.42	0.898596
1684.95	0.896197
1686.47	0.435625
1688	0.709105
1689.52	0.982622
1691.05	0.230736
1692.57	0.175084
1694.1	0.192596
1695.62	0.100258
1697.14	0.135712
1698.66	0.809985
1700.19	-0.0134296
1701.71	-0.106693
1703.23	0.0913
1704.75	0.324957
1706.27	0.193941
1707.79	0.0992641
1709.32	-0.0316596
1710.83	0.436584
1712.35	0.360198
1713.88	0.537714
1715.39	0.352938
1716.91	0.059875
1718.43	0.291299
1719.95	0.558383
1721.47	0.157574
1722.99	-0.260169
1724.5	0.188278
1726.02	0.169072
1727.54	-0.0650153
1729.06	0.349676
1730.57	-0.169327
1732.09	0.401886
1733.61	0.17327
1735.12	0.506196
1736.64	-0.0844646
1738.15	0.0123811
1739.67	0.155664
1741.18	0.330298
1742.7	-0.125885
1744.21	0.0618472
1745.72	-0.23195
1747.24	-0.230926
1748.75	0.306372
1750.26	-0.00796175
1751.78	0.0305481
1753.29	0.395594
1754.8	-0.0106616
1756.31	-0.296552
1757.82	0.26646
1759.34	-0.0201073
1760.85	0.0346913
1762.36	0.43054
1763.87	0.108331
1765.38	-0.0925031
1766.89	-0.452754
1768.4	0.131763
1769.91	0.485866
1771.41	0.161701
1772.92	0.272766
1774.43	0.0268197
1775.94	0.131252
1777.45	-0.126304
1778.96	0.211485
1780.46	0.0733795
1781.97	0.165865
1783.48	0.0362883
1784.98	-0.101355
1786.49	0.131964
1788	0.133452
1789.5	-0.0489502
1791.01	0.260406
1792.51	0.0565972
1794.01	0.157811
1795.52	0.0214934
1797.02	-0.097981
1798.53	-0.12527
1800.03	-0.00874376
1801.54	-0.0717778
1803.04	0.190514
1804.54	-0.0690713
1806.04	-0.203647
1807.54	0.259188
1809.05	0.217185
1810.55	0.308776
1812.05	0.726618
1813.55	1.12534
1815.05	0.352859
1816.55	0.105138
1818.05	0.263636
1819.55	0.184484
1821.05	0.193724
1822.55	0.0410852
1824.05	-0.0386519
1825.55	0.155646
1827.05	0.337049
1828.55	0.304949
1830.04	0.228601
1831.54	-0.130847
1833.04	-0.0661907
1834.54	-0.128543
1836.03	0.0640697
1837.53	0.304362
1839.03	0.189202
1840.52	0.155438
1842.02	0.0530243
1843.51	0.0102673
1845.01	0.0942822
1846.5	0.231585
1848	-0.157248
1849.49	-0.10373
1850.99	0.0988698
1852.48	0.0542722
1853.97	0.0397964
1855.47	0.279273
1856.96	0.134131
1858.45	0.216061
1859.94	0.387202
1861.44	0.00289059
1862.93	0.315587
1864.42	0.249099
1865.91	-0.00358486
1867.4	-0.0183067
1868.89	-0.109619
1870.38	0.143745
1871.87	0.0265603
1873.36	0.413226
1874.85	0.090425
1876.34	0.164238
1877.83	0.134648
1879.32	0.0903597
1880.81	-0.0183482
1882.3	0.360177
1882.56	0.447945
1884.06	0.0462832
1885.55	-0.164076
1887.04	0.199799
1888.54	0.284351
1890.03	-0.100757
1891.52	-0.0673003
1893.02	-0.275946
1894.51	-0.0831952
1896	-0.167375
1897.49	-0.0248275
1898.99	-0.334611
1900.48	-0.106006
1901.97	0.416978
1903.46	-0.244344
1904.95	-0.00243998
1906.44	0.0648441
1907.93	0.427248
1909.42	0.00877094
1910.91	0.337504
1912.4	0.319883
1913.89	0.493529
1915.38	0.0776048
1916.86	0.389696
1918.35	0.111876
1919.84	0.0937376
1921.33	0.0582204
1922.82	0.421334
1924.3	0.127183
1925.79	0.491898
1927.28	0.372803
1928.76	0.184977
1930.25	-0.0895286
1931.74	0.501105
1933.22	0.0861211
1934.71	0.154491
1936.19	0.0310783
1937.67	0.442801
1939.16	0.628974
1940.64	0.262636
1942.13	-0.0334988
1943.61	-0.173223
1945.09	0.0672216
1946.58	-0.209351
1948.06	-0.0895877
1949.54	0.305085
1951.03	-0.0418172
1952.51	0.230352
1953.99	-0.168925
1955.47	0.274256
1956.95	0.030304
1958.43	0.233441
1959.91	-0.232018
1961.39	-0.0793381
1962.87	0.0733719
1964.35	0.328585
1965.83	0.446126
1967.31	0.237751
1968.79	0.165891
1970.27	0.144904
1971.75	0.0724783
1973.22	-0.0681648
1974.7	-0.123249
1976.18	0.247982
1977.66	0.465561
1979.13	0.0871997
1980.61	0.576798
1982.09	0.198679
1983.56	0.00767946
1985.04	0.122182
1986.52	0.422854
1987.99	0.18076
1989.47	0.430384
1990.94	0.0371962
1992.41	0.22032
1993.89	0.032196
1995.36	0.250481
1996.84	0.435194
1998.31	0.265093
1999.78	-0.124736
2001.26	0.0758586
2002.73	0.17465
2004.2	-0.266215
2005.67	0.237214
2007.15	-0.23606
2008.62	0.0494752
2010.09	0.453443
2011.56	0.521073
2013.03	0.083786
2014.5	0.672784
2015.97	-0.0850883
2017.44	0.182647
2018.91	-0.122089
2020.38	0.0770793
2021.85	0.359891
2023.32	-0.0790424
2024.79	-0.0807028
2026.25	0.237313
2027.72	0.288086
2029.19	0.13886
2030.66	0.410122
2032.13	0.51454
2033.59	0.451569
2035.06	-0.165667
2036.53	0.241103
2037.99	-0.0412893
2039.46	0.0456123
2040.92	0.0484519
2042.39	0.253387
2043.85	-0.0286951
2045.32	0.245049
2046.78	0.351334
2048.25	0.222148
2049.71	0.497035
2051.18	0.568928
2052.64	-0.0351009
2054.1	0.151882
2055.56	0.0338521
2057.03	0.656463
2058.49	0.603912
2059.95	0.163874
2061.42	0.398021
2062.88	0.211909
2064.34	0.0603886
2065.8	0.515566
2067.26	0.51707
2068.72	0.451761
2070.18	0.11737
2071.64	0.591042
2073.1	0.340688
2074.56	0.881488
2076.02	0.782139
2077.48	0.3288
2078.94	0.548716
2080.39	0.582977
2081.85	0.212673
2083.31	0.548897
2084.77	0.581404
2086.22	0.596421
2087.68	0.762202
2089.14	0.473702
2090.6	0.504457
2092.05	0.43438
2093.51	-0.00484991
2094.96	0.478524
2096.42	0.374307
2097.87	0.487384
2099.33	0.48261
2100.78	0.561185
2102.24	0.740097
2103.69	0.568834
2105.15	0.849512
2106.6	0.647367
2108.05	0.896589
2109.51	0.362264
2110.96	0.961287
2112.41	0.72554
2113.86	0.405277
2115.32	0.566638
2116.77	0.560722
2118.22	0.870694
2119.67	0.832831
2121.12	0.846504
2122.57	0.745793
2124.02	1.19361
2125.47	0.862605
2126.92	1.06195
2128.37	1.19399
2129.82	1.07614
2131.27	1.33812
2132.72	1.15218
2134.17	1.34691
2135.62	1.1619
2137.06	1.19326
2138.51	1.42462
2139.96	1.49246
2141.41	1.34696
2142.85	1.219
2144.3	1.27349
2145.75	1.55986
2147.19	1.38257
2148.64	1.28737
2150.09	1.32385
2151.53	1.65766
2152.97	1.57634
2154.42	1.47769
2155.86	1.6437
2157.31	1.99197
2158.75	2.02618
2160.2	1.7635
2161.64	1.3201
2163.08	1.35884
2164.53	1.71422
2165.97	1.77203
2167.41	1.79659
2168.86	1.55415
2170.3	1.55927
2171.74	1.64561
2173.18	1.96304
2174.62	1.79674
2176.06	1.81288
2177.5	1.56318
2178.94	1.68002
2180.38	1.24913
2181.82	2.06602
2183.26	1.52003
2184.7	1.40657
2186.14	1.6924
2187.58	1.69548
2189.02	1.68196
2190.46	1.05252
2191.89	1.75449
2193.33	1.45692
2194.77	0.95832
2196.21	1.40703
2197.64	0.888634
2199.08	1.15077
2200.52	0.846733
2201.95	1.45613
2203.39	1.30212
2204.83	1.21562
2206.26	0.964415
2207.7	1.37654
2209.13	1.19199
2210.57	1.10621
2212	1.28426
2213.43	0.899418
2214.87	1.27479
2216.3	1.3531
2217.73	1.00345
2219.17	1.19942
2220.6	1.03335
2222.03	1.19708
2223.47	0.981132
2224.9	0.895848
2226.33	1.05596
2227.76	1.04992
2229.19	0.878491
2230.62	0.78877
2232.05	1.14149
2233.49	0.462498
2234.91	0.488693
2236.34	0.728217
2237.77	0.903439
2239.2	0.427488
2240.63	0.932302
2242.06	0.96554
2243.49	0.738919
2244.92	0.838798
2246.35	0.350876
2247.78	0.465117
2249.2	0.642657
2250.63	0.524842
2252.06	0.747513
2253.48	0.822709
2254.91	0.26444
2256.34	0.698591
2257.76	0.274298
2259.19	0.566486
2260.61	-0.0961266
2262.04	0.395299
2263.46	0.401287
2264.89	0.553784
2266.31	0.884995
2267.74	0.386145
2269.16	0.504514
2270.59	0.166471
2272.01	0.430303
2273.43	0.677823
2274.85	0.632306
2276.28	0.000366211
2277.7	0.117965
2279.12	0.741058
2280.54	0.304477
2281.97	0.324273
2283.39	0.572417
2284.81	0.673844
2286.23	0.187886
2287.65	0.126483
2289.07	0.343076
2290.49	0.217025
2291.91	0.369009
2293.33	0.210481
2294.75	0.346305
2296.17	0.449437
2297.59	0.225096
2299.01	0.459323
2300.42	0.464458
2301.84	-0.136882
2303.26	-0.0987501
2304.68	0.317091
2306.1	0.536223
2307.51	0.262319
2308.93	0.119217
2310.35	0.172851
2311.76	0.308437
2313.18	0.0162759
2314.59	0.349732
2316.01	0.239466
2317.43	-0.00206137
2318.84	0.201597
2320.26	0.273319
2321.67	0.0141582
2323.08	0.1659
2324.5	0.398249
2325.91	0.5956
2327.33	0.494521
2328.74	0.590673
2330.15	0.456301
2331.56	-0.088748
2332.98	0.256254
2334.39	0.141059
2335.8	0.0261087
2337.21	0.38777
2338.62	-0.155835
2340.04	-0.190495
2341.45	0.0533013
2342.86	0.0666356
2344.27	0.0963259
2345.68	0.421204
2347.09	0.401967
2348.5	-0.0755525
2349.91	-0.0456867
2351.31	0.114276
2352.72	0.452811
2354.13	0.512539
2355.54	0.180367
2356.95	0.174255
2358.36	-0.222198
2359.76	0.438331
2361.17	-0.0385342
2362.58	0.134093
2363.98	0.354852
2365.39	0.251528
2366.8	0.245553
2368.21	0.320827
2369.61	-0.377426
2371.02	0.00643396
2372.42	0.229787
2373.83	0.0994916
2375.23	-0.352308
2376.64	-0.144377
2378.04	-0.307359
2379.44	0.155288
2380.85	0.342871
2382.25	-0.00026226
2383.66	0.281246
2385.06	0.353937
2386.46	0.155221
2387.86	-0.0422926
2389.26	0.223933
2390.67	0.060616
2392.07	-0.212936
2393.47	0.0874515
2394.87	0.197367
2396.27	0.132906
2397.67	0.355086
2399.07	0.00563335
2400.47	-0.216175
2401.87	0.134144
2403.27	0.103242
2404.67	0.119673
2406.07	-0.324956
2407.47	0.293091
2408.87	0.164541
2410.27	0.400423
2411.67	0.160974
2413.07	0.144143
2414.46	0.191718
2415.86	0.351321
2417.26	0.306241
2418.66	0.182746
2420.05	0.439599
2421.45	0.0311508
2422.84	-0.124243
2424.24	0.0686851
2425.64	-0.055213
2427.03	0.312602
2428.43	0.0630364
2429.82	0.226438
2431.22	0.120819
2432.61	0.285083
2434.01	0.258465
2435.4	0.13556
2436.79	0.217917
2438.19	0.426106
2439.58	0.124828
2440.97	0.124667
2442.37	0.330424
2443.76	0.154961
2445.15	-0.35359
2446.54	-0.0849719
2447.93	-0.29211
2449.33	0.324603
2450.72	0.32348
2452.11	0.101237
2453.5	0.227887
2454.89	0.0229759
2456.28	-0.371139
2457.67	0.199935
2459.06	-0.0358529
2460.45	0.0758557
2461.84	0.155234
2463.23	0.139079
2464.62	0.233047
2466	-0.147075
2467.39	0.0571132
2468.78	0.0559611
2470.17	-0.213458
2471.55	-0.136199
2472.94	0.365745
2474.33	0.315419
2475.72	0.358994
2477.1	-0.0378857
2478.49	0.288231
2479.87	0.174603
2481.26	-0.126858
2482.65	0.465118
2484.03	0.3826
2485.42	0.221272
2486.8	0.0905576
2488.19	-0.0563684
2489.57	0.435404
2490.95	0.132059
2492.34	0.0941744
2493.72	-0.160105
2495.1	0.176669
2496.49	-0.0440822
2497.87	0.0304708
2499.25	-0.142519
2500.63	0.102067
2502.02	0.0519915
2503.4	0.109282
2504.78	-0.0656452
2506.16	0.329379
2507.54	-0.0615721
2508.92	0.317111
2510.3	0.48035
2511.68	0.383006
2513.06	-0.203976
2514.44	0.0837221
2515.82	-0.179286
2517.2	-0.135412
2518.58	0.184038
2519.96	0.197682
2521.34	-0.185997
2522.72	-0.096602
2524.1	-0.206279
2525.47	-0.0267944
2526.85	-0.243716
2528.23	-0.0339289
2529.6	-0.0364156
2530.98	0.0535765
2532.36	-0.280557
2533.74	0.419613
2535.11	-0.201456
2536.49	0.119381
2537.86	0.135804
2539.24	0.227365
2540.61	-0.182837
2541.99	0.226522
2543.36	-0.335174
2544.74	-0.2133
2546.11	0.212875
2547.49	-0.0425272
2548.86	0.142664
2550.23	0.252091
2551.61	0.239732
2552.98	0.226602
2554.35	0.242962
2555.72	-0.242091
2557.09	-0.166144
2558.47	0.0158076
2559.84	0.076611
2561.21	0.122674
2562.58	-0.0277586
2563.95	0.33754
2565.32	-0.00904846
2566.69	-0.052361
2568.06	0.101418
2569.43	0.270374
2570.8	-0.091135
2572.17	0.0627127
2573.54	0.292441
2574.91	0.249409
2576.28	-0.0816646
2577.65	-0.443175
2579.02	0.0138998
2580.39	0.000662804
2581.75	0.153883
2583.12	0.276457
2584.49	0.0653009
2585.85	0.172472
2587.22	0.203942
2588.59	0.0688562
2589.95	0.327899
2591.32	-0.125419
2592.68	-0.50326
2594.05	-0.033277
2595.42	0.0873284
2596.78	-0.0957251
2598.15	0.159482
2599.51	0.172197
2600.88	-0.147423
2602.24	0.0773821
2603.6	0.166667
2604.97	0.331789
2606.33	0.270685
2607.69	-0.122377
2609.06	0.0117154
2610.42	0.280233
2611.78	-0.0848308
2613.14	0.316635
2614.51	0.205971
2615.87	0.0653214
2617.23	0.120029
2618.59	0.205082
2619.95	-0.0684791
2621.31	0.0925951
2622.67	0.268811
2624.03	0.0119529
2625.39	0.0687509
2626.75	-0.143143
2628.11	0.196331
2629.47	0.0734792
2630.83	-0.287392
2632.19	-0.00854826
2633.55	0.180688
2634.91	0.369599
2636.26	0.246758
2637.62	0.138925
2638.98	0.208982
2640.34	-0.0907936
2641.69	0.216212
2643.05	0.0945945
2644.41	-0.292442
2645.76	0.0438571
2647.12	0.364598
2648.48	-0.00801945
2649.83	0.104965
2651.19	0.437684
2652.54	0.41702
2653.9	0.0738473
2655.25	-0.0188723
2656.6	0.182369
2657.96	0.150104
2659.31	0.177126
2660.67	0.0582399
2662.02	-0.133725
2663.37	-0.106871
2664.73	0.0360703
2666.08	0.338634
2667.43	0.144843
2668.78	0.0532265
2670.14	0.136584
2671.49	-0.0269065
2672.84	0.129991
2674.19	0.316259
2675.54	0.125441
2676.89	0.0803571
2678.24	0.282405
2679.59	0.10805
2680.94	0.108595
2682.29	0.0956244
2683.64	0.30114
2684.99	-0.043642
2686.34	0.148596
2687.69	-0.210753
2689.04	-0.121167
2690.39	0.228412
2691.74	-0.0767217
2693.08	-0.00565958
2694.43	0.296575
2695.78	-0.082787
2697.13	-0.157072
2698.47	0.00142097
2699.82	-0.244226
2701.17	-0.0396161
2702.51	0.340088
2703.86	0.286201
2705.21	0.16021
2706.55	0.005126
2707.9	0.0528445
2709.24	0.24545
2710.58	0.176485
2711.93	-0.0234809
2713.27	0.15413
2714.62	0.477154
2715.96	0.451357
2717.3	-0.0109072
2718.65	0.0646563
2719.99	0.169056
2721.33	0.24402
2722.68	0.0711679
2724.02	0.363688
2725.36	0.088191
2726.71	-0.202154
2728.05	-0.318063
2729.39	0.147956
2730.73	0.0899401
2732.07	0.221046
2733.41	0.192179
2734.75	0.105282
2736.09	0.29491
2737.43	-0.00986195
2738.77	-0.169193
2740.11	0.282064
2741.45	0.165767
2742.79	0.0199084
2744.13	0.149688
2745.47	-0.273163
2746.81	0.16075
2748.14	0.260301
2749.48	0.0406113
2750.82	0.0968237
2752.16	0.0662131
2753.49	0.296682
2754.83	0.106993
2756.17	0.207204
2757.5	0.278537
2758.84	0.523762
2760.18	0.190294
2761.51	-0.157128
2762.85	-0.0410666
2764.18	0.104164
2765.52	0.0323386
2766.85	0.29289
2768.19	0.219917
2769.52	-0.027585
2770.86	-0.160414
2772.19	-0.221942
2773.52	0.0476947
2774.86	0.100198
2776.19	-0.0202546
2777.52	0.133221
2778.86	-0.0294542
2780.19	0.110293
2781.52	-0.123258
2782.85	0.145847
2784.19	-0.187788
2785.52	0.0809455
2786.85	0.0200682
2788.18	0.217333
2789.51	0.229046
2790.84	-0.0874538
2792.17	0.0401101
2793.5	0.339517
2794.83	0.0385637
2796.16	-0.262519
2797.49	0.236027
2798.82	0.14836
2800.15	-0.110841
2801.48	-0.156042
2802.81	-0.21561
2804.13	0.0381842
2805.46	-0.0647125
2806.79	-0.0825725
2808.12	-0.0297914
2809.45	-0.147955
2810.77	-0.0528955
2812.1	-0.0284371
2813.43	0.0110888
2814.75	-0.00496435
2816.08	0.107717
2817.41	0.207097
2818.73	-0.0615673
2820.06	-0.301886
2821.38	0.27949
2822.71	-0.103419
2824.03	0.150871
2825.36	0.206471
2826.68	0.219601
2828	-0.00753832
2829.33	0.190542
2830.65	0.148319
2831.98	0.361066
2833.3	0.248184
2834.62	0.389821
2835.94	0.177224
2837.27	0.388741
2838.59	0.401771
2839.91	0.103516
2841.23	0.300335
2842.55	0.596347
2843.87	0.666662
2845.2	0.963678
2846.52	0.907892
2847.84	1.17746
2849.16	0.839317
2850.48	1.038
2851.8	1.02427
2853.12	1.40583
2854.44	1.12284
2855.76	1.27776
2857.08	0.924075
2858.39	1.03664
2859.71	1.24802
2861.03	1.36035
2862.35	1.50061
2863.67	1.66872
2864.98	1.52611
2866.3	1.53873
2867.62	1.70669
2868.94	1.46605
2870.25	1.83203
2871.57	1.45095
2872.88	2.21133
2874.2	2.32262
2875.52	2.13715
2876.83	1.65526
2878.15	1.97525
2879.46	2.0556
2880.78	2.51564
2882.09	1.96439
2883.41	2.20093
2884.72	2.03095
2886.03	2.3669
2887.35	1.76241
2888.66	2.04183
2889.97	2.54489
2891.29	2.2196
2892.6	2.13234
2893.91	2.2972
2895.22	2.65825
2896.54	2.26387
2897.85	2.33238
2899.16	2.13588
2900.47	2.13593
2901.78	2.51402
2903.09	2.65446
2904.4	2.4593
2905.71	2.55811
2907.02	2.74132
2908.33	2.54751
2909.64	2.76008
2910.95	3.09915
2912.26	2.99041
2913.57	3.03501
2914.88	3.19046
2916.19	3.37248
2917.5	3.27321
2918.81	3.13123
2920.11	3.3249
2921.42	3.25335
2922.73	3.42049
2924.04	3.53281
2925.34	3.688
2926.65	3.85767
2927.96	3.98547
2929.26	3.91722
2930.57	4.01626
2931.87	4.15684
2933.18	3.57034
2934.49	3.59889
2935.79	3.69742
2937.1	3.68428
2938.4	3.71321
2939.7	3.75634
2941.01	3.5903
2942.31	3.67649
2943.62	3.1068
2944.92	2.97132
2946.22	3.24226
2947.53	3.20607
2948.83	3.02968
2950.13	3.14627
2951.43	2.70136
2952.74	2.91305
2954.04	2.84359
2955.34	3.02584
2956.64	2.80287
2957.94	2.63754
2959.24	2.65632
2960.54	2.71935
2961.84	2.43361
2963.15	2.14804
2964.45	2.45127
2965.75	2.5571
2967.05	2.38065
2968.34	2.04836
2969.64	2.02469
2970.94	2.01498
2972.24	1.75227
2973.54	1.94
2974.84	1.94484
2976.14	1.83653
2977.43	1.9384
2978.73	1.53205
2980.03	1.57495
2981.33	1.78566
2982.62	1.89731
2983.92	1.47491
2985.22	1.47532
2986.51	1.26614
2987.81	1.52185
2989.11	0.907085
2990.4	1.27621
2991.7	0.942267
2992.99	0.860496
2994.29	1.15714
2995.58	1.12967
2996.88	0.877005
2998.17	0.862961
2999.46	0.708863
3000.76	0.387055
3002.05	0.430351
3003.34	0.614067
3004.64	0.853787
3005.93	0.154892
3007.22	0.659879
3008.52	0.590106
3009.81	0.282006
3011.1	0.672341
3012.39	0.852333
3013.68	0.222939
3014.97	0.222126
3016.27	0.319375
3017.56	0.361407
3018.85	0.000287056
3020.14	-0.0683413
3021.43	0.0573568
3022.72	0.112793
3024.01	0.0702477
3025.3	-0.111432
3026.59	0.0394816
3027.88	0.0797935
3029.16	-0.224712
3030.45	0.149359
3031.74	0.455135
3033.03	0.0298615
3034.32	0.0191336
3035.6	0.145945
3036.89	0.28538
3038.18	0.133894
3039.47	0.325229
3040.75	0.19875
3042.04	0.2503
3043.33	0.109813
3044.61	-0.0843515
3045.9	0.119738
3047.18	0.106597
3048.47	0.163608
3049.75	0.39969
3051.04	-0.0316911
3052.32	0.206276
3053.61	0.116758
3054.89	0.0267577
3056.18	0.140573
3057.46	0.485185
3058.74	0.501825
3060.03	0.3957
3061.31	0.0859079
3062.59	0.0492377
3063.88	0.204051
3065.16	-0.0070343
3066.44	-0.149025
3067.72	0.321583
3069	0.289486
3070.29	-0.191646
3071.57	0.387381
3072.85	0.0814261
3074.13	0.209663
3075.41	0.22837
3076.69	0.0159645
3077.97	-0.0330086
3079.25	-0.121783
3080.53	0.00769806
3081.81	0.219768
3083.09	-0.136919
3084.37	0.293829
3085.65	-0.143775
3086.93	-0.0389214
3088.21	-0.0160251
3089.49	-0.0343618
3090.76	-0.0530272
3092.04	-0.098907
3093.32	0.194463
3094.6	0.447288
3095.87	-0.303068
3097.15	-0.117704
3098.43	0.189541
3099.7	-0.180935
3100.98	-0.14488
3102.26	0.0131092
3103.53	0.130638
3104.81	-0.441763
3106.08	0.150476
3107.36	0.283244
3108.63	0.173271
3109.91	-0.0982952
3111.18	0.24009
3112.46	0.240702
3113.73	0.241668
3115	0.120611
3116.28	0.0940537
3117.55	0.4466
3118.83	0.160856
3120.1	0.0641565
3121.37	0.0752721
3122.64	0.140156
3123.92	0.0287638
3125.19	-0.00110865
3126.46	0.334837
3127.73	0.413951
3129	0.561085
3130.27	0.235198
3131.55	0.274583
3132.82	0.530044
3134.09	0.406843
3135.36	0.188857
3136.63	0.334972
3137.9	0.480508
3139.17	0.517786
3140.44	0.37991
3141.71	0.538209
3142.98	0.656198
3144.24	0.358236
3145.51	0.450305
3146.78	0.717079
3148.05	0.327631
3149.32	0.474721
