200.43	0.150194
202.246	0.172031
204.061	0.195239
205.875	0.608737
207.688	0.438847
209.501	0.292958
211.316	0.510449
213.129	1.06611
214.941	0.819424
216.753	0.08776
218.566	0.422978
220.377	-0.0402365
222.188	0.223865
223.999	-0.139853
225.809	0.319119
227.618	0.222268
229.43	0.342507
231.239	0.341393
233.047	-0.2631
234.855	0.12201
236.663	0.0984354
238.471	0.101273
240.278	-0.0136623
242.087	-0.463698
243.894	0.0040226
245.7	0.496318
247.506	-0.0507917
249.311	-0.238774
251.116	-0.0678492
252.921	0.341415
254.725	-0.192373
256.529	0.0213432
258.333	0.57312
260.136	-0.487803
261.939	0.236317
263.744	-0.362716
265.546	0.412651
267.348	-0.233184
269.15	0.880111
270.951	0.642791
272.752	0.307703
274.552	-0.318232
276.353	-0.343073
278.152	0.473598
279.952	-0.446754
281.751	0.100076
283.55	0.45168
285.348	-0.232038
287.146	-0.459214
288.942	0.560832
290.739	0.214331
292.536	0.0852585
294.333	-0.400754
296.129	0.621543
297.925	0.258019
299.721	0.0864487
301.516	0.129768
303.311	0.0527859
305.106	-0.192502
306.9	-0.271578
308.694	-0.20781
310.486	0.571188
312.279	0.326703
314.072	0.155578
315.864	0.0817146
317.656	0.462243
319.448	0.106125
321.24	0.203816
323.029	0.0162392
324.819	0.091404
326.61	0.142887
328.4	0.194164
330.19	-0.0181932
331.977	0.533297
333.766	-0.0172138
335.555	-0.546334
337.343	0.788598
339.131	0.661449
340.917	0.00646591
342.704	0.426792
344.491	0.153731
346.277	-0.0230827
348.062	0.135189
349.848	0.198423
351.633	0.261644
353.416	0.276485
355.201	0.314033
356.986	0.040143
358.77	0.313169
360.552	0.941786
362.335	0.0454512
364.118	0.409867
365.899	-0.224944
367.682	-0.574643
369.464	0.332134
371.243	0.0280685
373.025	-0.0631752
374.806	0.55432
376.585	-0.175088
378.365	-0.0770912
380.143	-0.308206
381.923	0.168371
383.702	-0.0130482
385.479	-0.0753965
387.258	0.0985365
389.034	0.390931
390.812	0.237981
392.59	0.391211
394.365	-0.182963
396.142	-0.334064
397.916	0.313398
399.693	0.185634
401.467	0.527113
403.242	0.656495
405.015	-0.20141
406.79	0.32554
408.565	-0.322279
410.337	-0.33647
412.111	0.0482922
413.882	-0.528767
415.656	0.27929
417.426	0.524978
419.197	0.161223
420.969	0.0557966
422.739	0.161298
424.51	0.289547
426.279	0.182021
428.05	0.0735798
429.819	-0.387506
431.589	-0.0505867
433.356	-0.182845
435.124	0.600509
436.893	0.257277
438.66	0.640817
440.428	0.0840893
442.194	-0.00534821
443.96	-0.143866
445.727	0.418602
447.492	-0.00421238
449.259	0.438369
451.023	0.366217
452.787	-0.125699
454.553	-0.103467
456.316	0.244964
458.079	0.522781
459.844	-0.0375586
461.606	-0.317392
463.368	-0.0608444
465.132	0.523185
466.893	-0.46993
468.654	0.143032
470.415	0.316605
472.177	0.816802
473.937	0.385436
475.696	0.34771
477.456	0.820099
479.217	0.754668
480.975	-0.0805635
482.733	0.248941
484.491	0.696048
486.251	0.353268
488.008	0.315475
489.765	1.00283
491.522	0.478529
493.278	0.841865
495.036	0.878676
496.791	0.236568
498.546	1.02216
500.301	0.495371
502.056	0.835353
503.81	0.329287
505.566	0.220832
507.319	0.345922
509.073	0.610608
510.825	0.497203
512.578	0.0761204
514.33	0.406394
516.082	0.311633
517.833	0.638916
519.587	0.0950451
521.337	0.420186
523.088	0.274766
524.838	0.833366
526.588	0.546787
528.337	1.17492
530.087	0.677393
531.835	0.695208
533.584	0.665282
535.332	0.984943
537.08	0.367708
538.827	0.637258
540.574	0.345218
542.321	0.798315
544.068	1.01721
545.814	0.468698
547.56	1.10529
549.305	0.604733
551.05	0.429697
552.795	0.833487
554.54	0.612715
556.284	0.69274
558.027	0.288727
559.771	0.0933199
561.514	0.474298
563.257	0.717236
564.999	0.408783
566.742	0.170314
568.481	0.369147
570.223	0.155801
571.964	0.219307
573.705	-0.243113
575.445	0.122102
577.185	-0.451659
578.925	0.490589
580.665	0.446907
582.402	0.0815763
584.141	0.451004
585.879	0.451656
587.617	0.726986
589.355	0.356861
591.092	0.537832
592.828	0.120008
594.564	0.25416
596.301	-0.0948219
598.037	-0.535878
599.773	0.0809889
601.506	0.00679398
603.242	-0.137693
604.976	0.567001
606.711	-0.109035
608.443	0.179297
610.177	0.558891
611.91	-0.300126
613.644	0.424477
615.374	0.232445
617.107	1.14044
618.839	0.581463
620.569	-0.161302
622.3	-0.0352421
624.032	0.386899
625.761	0.328689
627.491	-0.184988
629.221	0.809987
630.949	0.392326
632.679	0.41045
634.408	1.09162
636.135	0.0150023
637.863	0.899591
639.592	0.59424
641.318	0.354334
643.045	0.362783
644.77	0.62029
646.497	0.240644
648.224	0.272692
649.948	-0.441859
651.674	0.642673
653.398	0.595322
655.123	0.983759
656.846	0.328053
658.57	-0.00882053
660.293	0.702796
662.017	0.614761
663.738	0.249863
665.462	0.362121
667.185	-0.19077
668.905	0.147291
670.628	0.852152
672.348	0.300884
674.067	0.369896
675.789	0.762188
677.508	0.422419
679.228	0.426658
680.947	0.958628
682.667	0.454228
684.385	1.1669
686.104	0.910777
687.821	0.606667
689.538	0.854103
691.256	0.709137
692.972	0.770796
694.69	0.946771
696.406	0.661054
698.121	1.1799
699.837	1.2367
701.552	1.33811
703.268	1.07055
704.982	0.779584
706.695	0.511401
708.41	0.403673
710.123	0.63941
711.836	0.508052
713.55	0.719652
715.262	1.09063
716.973	1.9175
718.685	0.758385
720.398	0.855008
722.108	0.496212
723.818	0.661386
725.53	1.16713
727.24	1.21742
728.949	0.858677
730.658	0.86284
732.369	0.979785
734.077	0.915283
735.785	1.16739
737.493	0.922606
739.2	0.34061
740.909	1.22579
742.616	1.45775
744.322	1.08307
746.028	1.52046
747.734	1.21672
749.441	1.13952
751.146	1.35617
752.851	1.70924
754.555	0.894113
756.26	1.6105
757.963	1.76633
759.667	1.36077
761.372	1.8127
763.075	2.17568
764.777	1.29703
766.479	1.61345
768.181	1.43089
769.883	1.58495
771.584	1.62372
773.285	1.86439
774.986	1.67486
776.686	1.48594
778.386	2.06722
780.085	1.70055
781.785	2.19466
783.484	2.21406
785.182	1.73421
786.881	0.912099
788.579	1.8974
790.276	1.90558
791.974	1.84282
793.671	1.3493
795.367	1.62334
797.064	2.30354
798.76	2.0837
800.456	1.97878
802.151	1.11068
803.846	1.52596
805.541	2.59269
807.236	1.52292
808.93	1.68811
810.624	1.67225
812.317	1.54325
814.01	2.06357
815.703	1.55295
817.394	1.26684
819.086	1.69643
820.778	1.85752
822.47	1.5279
824.161	1.51181
825.852	2.12121
827.543	1.97511
829.231	2.14401
830.921	1.58141
832.611	1.48961
834.3	1.28862
835.989	0.910125
837.676	1.66922
839.364	1.26679
841.053	1.44308
842.74	1.61802
844.426	1.52431
846.113	1.25246
847.8	2.1898
849.486	1.74373
851.171	1.16551
852.857	1.46251
854.542	1.06561
856.227	1.65607
857.911	1.39213
859.595	1.39595
861.279	0.879902
862.961	0.812096
864.645	1.73449
866.329	1.21369
868.01	1.27818
869.692	1.52263
871.375	1.31568
873.055	1.26637
874.737	0.991335
876.418	1.12245
878.097	0.576537
879.778	1.88136
881.457	1.0866
883.137	0.945675
884.817	1.61625
886.495	1.74342
888.174	1.14675
889.851	1.40578
891.53	0.941658
893.206	1.85047
894.884	1.2264
896.562	2.01847
898.237	1.19095
899.914	0.723046
901.589	1.08437
903.265	0.48197
904.94	1.28886
906.615	0.955604
908.289	1.53793
909.964	0.984166
911.637	0.632821
913.31	1.32751
914.984	0.755647
916.656	0.628614
918.33	1.32175
920.001	0.906665
921.674	1.22294
923.345	1.05368
925.015	0.798089
926.687	0.633101
928.357	0.646665
930.028	0.242296
931.698	1.07438
933.366	1.20061
935.037	0.312388
936.705	1.16718
938.373	0.898057
940.043	0.872873
941.71	0.937279
943.379	0.428836
945.046	0.515956
946.712	0.381211
948.378	1.41446
950.046	0.790113
951.711	0.49569
953.376	1.06164
955.043	0.526469
956.708	0.567657
958.372	0.832933
960.036	0.902902
961.701	1.35024
963.364	0.62662
965.027	-0.0333424
966.69	0.0777683
968.354	0.318802
970.016	0.292125
971.678	0.220286
973.339	1.16622
975	1.36171
976.661	0.917941
978.324	0.542079
979.984	0.6536
981.644	0.764808
983.303	0.985313
984.962	1.18157
986.621	1.2205
988.282	1.10248
989.94	0.739921
991.598	0.64223
993.256	0.434036
994.913	0.733906
996.57	0.901205
998.227	1.17855
999.884	1.60958
1001.54	1.53314
1003.2	1.14821
1004.85	0.433582
1006.51	0.467021
1008.16	0.434674
1009.82	0.753847
1011.47	0.941514
1013.12	1.28289
1014.78	0.791983
1016.43	1.22155
1018.08	0.907351
1019.74	0.419385
1021.39	0.894929
1023.04	0.912444
1024.69	0.66881
1026.34	0.97222
1028	0.926031
1029.65	0.551491
1031.3	1.31149
1032.95	0.999421
1034.6	0.860348
1036.25	0.763515
1037.9	1.55909
1039.55	1.09078
1041.19	-0.202582
1042.84	1.11567
1044.49	0.609398
1046.14	1.56095
1047.79	0.86383
1049.43	0.277268
1051.08	0.517384
1052.73	0.628151
1054.37	1.10881
1056.02	0.459519
1057.66	0.853139
1059.31	1.15939
1060.95	0.573493
1062.6	0.138906
1064.24	0.834022
1065.88	0.919111
1067.53	0.133609
1069.17	-0.087553
1070.81	0.0382481
1072.46	0.31575
1074.1	0.289772
1075.74	0.742139
1077.38	0.263239
1079.02	0.241227
1080.66	0.675449
1082.3	0.329057
1083.94	0.285344
1085.58	0.131562
1087.22	0.344082
1088.86	0.380915
1090.5	0.156171
1092.14	0.362859
1093.78	0.1151
1095.42	0.515273
1097.05	0.549163
1098.69	0.58451
1100.33	0.428023
1101.97	0.273802
1103.6	0.0355844
1105.24	0.573239
1106.87	0.896365
1108.51	0.78902
1110.15	-0.0504904
1111.78	0.484384
1113.41	0.351092
1115.05	0.0877991
1116.68	0.424881
1118.31	0.0970535
1119.95	0.198871
1121.58	0.815556
1123.21	0.533933
1124.85	0.360635
1126.48	0.10286
1128.11	0.487604
1129.74	0.124668
1131.37	1.02383
1133	0.448153
1134.63	-0.0420456
1136.26	0.00154495
1137.89	0.0440369
1139.52	-0.0429106
1141.15	0.210744
1142.78	0.420932
1144.41	0.119175
1146.04	0.266138
1147.66	0.0517521
1149.29	-0.374594
1150.92	-0.374195
1152.55	0.137323
1154.17	0.350183
1155.8	0.221971
1157.43	0.0724325
1159.05	-0.246778
1160.68	0.0304832
1162.3	-0.0100832
1163.93	0.0992765
1165.55	-0.0671968
1167.17	0.255116
1168.8	-0.0615129
1170.42	0.470379
1172.05	-0.12619
1173.67	0.358814
1175.29	-0.325065
1176.91	0.1575
1178.54	-0.228951
1180.16	-0.0425844
1181.78	-0.109355
1183.4	0.205234
1185.02	-0.177736
1186.64	-0.0332842
1188.26	0.29915
1189.88	0.0175972
1191.5	-0.349565
1193.12	-0.149691
1194.74	0.00678349
1196.36	0.728922
1197.97	-0.434298
1199.59	0.35212
1201.21	-0.364902
1202.83	0.258286
1204.44	0.570538
1206.06	0.321623
1207.68	0.345485
1209.29	0.0776463
1210.91	-0.232642
1212.52	0.518807
1214.14	-0.233124
1215.75	0.117173
1217.37	0.527369
1218.98	0.520014
1220.6	0.429486
1222.21	0.464322
1223.82	0.251817
1225.44	0.641731
1227.05	0.515496
1228.66	0.618455
1230.27	1.0122
1231.88	0.414871
1233.49	0.563138
1235.1	1.68413
1236.72	0.615662
1238.33	0.747088
1239.94	0.672551
1241.55	1.03256
1243.16	1.30964
1244.76	1.31697
1246.37	0.640285
1247.98	1.2661
1249.59	1.51855
1251.2	1.33613
1252.8	1.67112
1254.41	1.32434
1256.02	1.26838
1257.63	1.04831
1259.23	1.47094
1260.84	1.17037
1262.44	1.73984
1264.05	1.52261
1265.66	1.51201
1267.26	1.14818
1268.87	1.40511
1270.47	1.30845
1272.07	1.52161
1273.68	1.52624
1275.28	1.59192
1276.88	1.92588
1278.48	2.21723
1280.09	1.59653
1281.69	1.94877
1283.29	1.08025
1284.89	1.57789
1286.49	1.14592
1288.09	1.41807
1289.69	1.62917
1291.3	1.77885
1292.9	2.17635
1294.49	1.78787
1296.09	2.63722
1297.69	2.74083
1299.29	3.23424
1300.89	2.03454
1302.49	2.19476
1304.09	1.8802
1305.68	2.42889
1307.28	1.51768
1308.88	1.55177
1310.47	1.44234
1312.07	2.09102
1313.66	1.22584
1315.26	1.97764
1316.86	2.13719
1318.45	1.48111
1320.05	1.90639
1321.64	1.75962
1323.23	2.05905
1324.83	2.09157
1326.42	1.47274
1328.01	1.92936
1329.61	1.47427
1331.2	1.87148
1332.79	1.52283
1334.38	1.37921
1335.98	2.02461
1337.57	0.975828
1339.16	1.68117
1340.75	1.88016
1342.34	1.83489
1343.93	1.0638
1345.52	1.19672
1347.11	1.32939
1348.7	1.20323
1350.29	0.999964
1351.87	0.799765
1353.46	1.10181
1355.05	0.985364
1356.64	1.66869
1358.23	1.43227
1359.81	1.19495
1361.4	1.31591
1362.99	1.15653
1364.57	0.9172
1366.16	1.03703
1367.74	1.13768
1369.33	1.9761
1370.91	0.745925
1372.5	0.572334
1374.08	0.996873
1375.67	0.606329
1377.25	1.7282
1378.83	1.17804
1380.42	0.686515
1382	1.02926
1383.58	0.833471
1385.16	0.795773
1386.75	0.936414
1388.33	0.779201
1389.91	0.523577
1391.49	0.804837
1393.07	1.04711
1394.65	0.337692
1396.23	1.15524
1397.81	0.702917
1399.39	0.586704
1400.97	0.449783
1402.55	0.985389
1404.13	1.14448
1405.7	0.394369
1407.28	1.20728
1408.86	1.2697
1410.44	1.01661
1412.01	1.39553
1413.59	0.806319
1415.17	1.42018
1416.74	0.888709
1418.32	1.55965
1419.89	1.69833
1421.47	0.420372
1423.05	0.739398
1424.62	1.13875
1426.19	1.44102
1427.77	1.48804
1429.34	1.43635
1430.92	1.63954
1432.49	2.11686
1434.06	1.58951
1435.63	2.18294
1437.2	2.0881
1438.78	2.17105
1440.35	1.92102
1441.92	2.22241
1443.49	2.64252
1445.06	2.67006
1446.63	2.54056
1448.2	2.27362
1449.77	2.55739
1451.34	2.58619
1452.91	2.77295
1454.48	2.60617
1456.05	2.51797
1457.62	2.40931
1459.18	2.06297
1460.75	2.3444
1462.32	1.99397
1463.89	1.87789
1465.45	2.25202
1467.02	1.58418
1468.59	1.66351
1470.15	1.97923
1471.72	1.35434
1473.28	1.82928
1474.85	0.971479
1476.41	1.15355
1477.98	1.19844
1479.54	1.22366
1481.11	1.24875
1482.67	0.862198
1484.23	0.808701
1485.8	1.44051
1487.36	1.2486
1488.92	0.174411
1490.48	0.586446
1492.05	0.643744
1493.61	0.835387
1495.17	0.224813
1496.73	0.764193
1498.29	0.523537
1499.85	0.711616
1501.41	0.822713
1502.97	0.682711
1504.53	0.427673
1506.09	0.270164
1507.65	1.17598
1509.2	0.610627
1510.76	0.547015
1512.32	0.540439
1513.88	0.687443
1515.44	0.968773
1516.99	0.808477
1518.55	0.841143
1520.1	0.433822
1521.66	0.238068
1523.22	0.348236
1524.77	0.190072
1526.33	0.755836
1527.88	0.728833
1529.44	0.66328
1530.99	0.768743
1532.55	0.305605
1534.1	0.507372
1535.65	0.955587
1537.21	0.723624
1538.76	1.4555
1540.31	1.82807
1541.86	0.448064
1543.42	1.00908
1544.97	0.929537
1546.52	0.906256
1548.07	1.03293
1549.62	1.74035
1551.17	1.54774
1552.72	1.99209
1554.27	1.39004
1555.82	1.03326
1557.37	1.07078
1558.92	1.12901
1560.47	0.760149
1562.02	1.73617
1563.57	0.903844
1565.11	1.39671
1566.66	1.44194
1568.21	1.69222
1569.75	1.71813
1571.3	2.41561
1572.85	1.78741
1574.39	1.77503
1575.94	2.21069
1577.49	1.88118
1579.03	1.73879
1580.58	1.7464
1582.12	1.66149
1583.67	1.16644
1585.21	1.6997
1586.75	1.72911
1588.3	1.64646
1589.84	1.90032
1591.38	1.59232
1592.93	1.95767
1594.47	2.15432
1596.01	2.27616
1597.55	2.02368
1599.09	1.22798
1600.63	1.76418
1602.18	2.50786
1603.72	2.27582
1605.26	1.70462
1606.8	2.05234
1608.34	2.02213
1609.87	2.32763
1611.41	1.97274
1612.95	1.82248
1614.49	1.98997
1616.03	1.85665
1617.57	1.63024
1619.11	1.5552
1620.64	1.98747
1622.18	1.70951
1623.72	1.4887
1625.25	1.39903
1626.79	1.79517
1628.32	1.8155
1629.86	2.00257
1631.4	1.0669
1632.93	1.58875
1634.47	1.43827
1636	2.10971
1637.53	1.66256
1639.07	2.24181
1640.6	2.22431
1642.14	1.83355
1643.67	2.7081
1645.2	2.40789
1646.73	2.49752
1648.27	2.17783
1649.8	2.80598
1651.33	2.17256
1652.86	2.61698
1654.39	2.58025
1655.92	2.59989
1657.45	2.19328
1658.98	2.26765
1660.51	2.6552
1662.04	2.15261
1663.57	2.20399
1665.1	2.27308
1666.63	2.26861
1668.16	2.24689
1669.69	2.3743
1671.21	2.31903
1672.74	2.17294
1674.27	2.0827
1675.79	1.53198
1677.32	2.12181
1678.85	2.08449
1680.37	1.60474
1681.9	1.65757
1683.42	1.4896
1684.95	2.00085
1686.47	1.77827
1688	1.31815
1689.52	1.8848
1691.05	0.876505
1692.57	1.20522
1694.1	1.42377
1695.62	0.17936
1697.14	0.982458
1698.66	0.962523
1700.19	0.54065
1701.71	0.684154
1703.23	0.681059
1704.75	0.804858
1706.27	0.891571
1707.79	0.686954
1709.32	0.646048
1710.83	0.750463
1712.35	0.727932
1713.88	-0.127825
1715.39	0.73764
1716.91	0.570588
1718.43	0.620538
1719.95	0.616138
1721.47	0.557765
1722.99	0.950753
1724.5	-0.00705719
1726.02	0.388052
1727.54	0.424103
1729.06	0.281153
1730.57	0.193384
1732.09	-0.0699558
1733.61	0.495584
1735.12	0.316663
1736.64	0.0276852
1738.15	0.300751
1739.67	0.540186
1741.18	0.703209
1742.7	0.659061
1744.21	0.598418
1745.72	0.323915
1747.24	0.445601
1748.75	0.33576
1750.26	0.0572062
1751.78	0.390694
1753.29	0.374482
1754.8	0.20001
1756.31	0.373969
1757.82	0.0693645
1759.34	0.783449
1760.85	0.207582
1762.36	0.171461
1763.87	0.284929
1765.38	0.101192
1766.89	0.63837
1768.4	0.220399
1769.91	-0.255939
1771.41	0.272944
1772.92	0.285162
1774.43	0.0266905
1775.94	0.230088
1777.45	-0.189759
1778.96	0.223078
1780.46	0.290077
1781.97	0.408987
1783.48	0.600085
1784.98	0.446856
1786.49	0.203402
1788	0.187065
1789.5	0.25721
1791.01	-0.0986996
1792.51	0.0532341
1794.01	-0.14294
1795.52	0.0339785
1797.02	-0.264764
1798.53	0.411538
1800.03	0.160964
1801.54	0.0776329
1803.04	0.461614
1804.54	-0.146892
1806.04	-0.036953
1807.54	-0.363265
1809.05	0.142895
1810.55	0.261575
1812.05	0.347257
1813.55	0.240652
1815.05	0.045784
1816.55	-0.00840855
1818.05	0.0684328
1819.55	0.187977
1821.05	-0.0405483
1822.55	-0.0997992
1824.05	-0.0186558
1825.55	-0.105412
1827.05	0.0495119
1828.55	0.191453
1830.04	0.420111
1831.54	0.328627
1833.04	0.479476
1834.54	0.116158
1836.03	0.177196
1837.53	-0.102551
1839.03	0.380272
1840.52	0.299078
1842.02	0.283635
1843.51	0.068819
1845.01	0.179629
1846.5	0.123529
1848	0.092227
1849.49	-0.168193
1850.99	-0.0553055
1852.48	0.142102
1853.97	0.411603
1855.47	0.299552
1856.96	0.157353
1858.45	-0.120119
1859.94	-0.0364294
1861.44	0.0466061
1862.93	-0.065774
1864.42	-0.00257969
1865.91	-0.23058
1867.4	0.0280972
1868.89	0.213874
1870.38	0.368499
1871.87	-0.0507193
1873.36	0.274337
1874.85	0.157003
1876.34	0.136784
1877.83	0.0996599
1879.32	0.431087
1880.81	0.200553
1882.3	0.056901
1882.56	0.0364351
1884.06	-0.243774
1885.55	-0.141179
1887.04	-0.00468349
1888.54	0.409698
1890.03	-0.0286713
1891.52	-0.083065
1893.02	0.0379877
1894.51	0.317251
1896	0.476355
1897.49	-0.198464
1898.99	0.256996
1900.48	0.189646
1901.97	0.346807
1903.46	0.310821
1904.95	-0.143783
1906.44	0.391613
1907.93	0.457577
1909.42	-0.239614
1910.91	0.140397
1912.4	-0.415667
1913.89	-0.155834
1915.38	-0.208156
1916.86	-0.260787
1918.35	0.327372
1919.84	0.187018
1921.33	0.115952
1922.82	-0.283664
1924.3	-0.387949
1925.79	0.218608
1927.28	0.44534
1928.76	-0.0371456
1930.25	-0.104209
1931.74	0.104998
1933.22	-0.206702
1934.71	-0.00067234
1936.19	-0.0386505
1937.67	0.233484
1939.16	0.211082
1940.64	0.206277
1942.13	0.23684
1943.61	0.216667
1945.09	0.04216
1946.58	-0.114648
1948.06	0.366029
1949.54	-0.17076
1951.03	0.170068
1952.51	0.0450191
1953.99	0.1431
1955.47	0.258155
1956.95	0.201727
1958.43	0.351995
1959.91	0.314145
1961.39	-0.134656
1962.87	0.39407
1964.35	0.151184
1965.83	0.199122
1967.31	0.0751677
1968.79	0.036232
1970.27	-0.208335
1971.75	0.0595846
1973.22	0.412393
1974.7	0.338403
1976.18	-0.502271
1977.66	0.072031
1979.13	0.4414
1980.61	0.231915
1982.09	-0.130451
1983.56	0.0169744
1985.04	0.265678
1986.52	-0.1816
1987.99	-0.187586
1989.47	-0.159397
1990.94	0.444761
1992.41	-0.320806
1993.89	-0.154871
1995.36	0.383482
1996.84	0.31373
1998.31	-0.161348
1999.78	0.25822
2001.26	0.389968
2002.73	0.0151005
2004.2	0.348497
2005.67	0.0584803
2007.15	0.207363
2008.62	0.0876703
2010.09	0.339259
2011.56	0.01896
2013.03	0.321533
2014.5	0.573091
2015.97	0.285366
2017.44	-0.0031004
2018.91	-0.0231752
2020.38	0.107462
2021.85	0.00272179
2023.32	0.166976
2024.79	0.398984
2026.25	0.0281897
2027.72	0.447223
2029.19	0.331021
2030.66	0.182576
2032.13	0.387419
2033.59	0.206761
2035.06	0.328228
2036.53	-0.34016
2037.99	0.0995789
2039.46	0.455105
2040.92	-0.0802212
2042.39	0.847446
2043.85	0.464491
2045.32	0.401884
2046.78	0.542018
2048.25	0.530997
2049.71	0.148828
2051.18	0.540886
2052.64	0.391918
2054.1	0.24107
2055.56	0.189685
2057.03	0.0526886
2058.49	0.403687
2059.95	0.316328
2061.42	0.49885
2062.88	0.294945
2064.34	0.243607
2065.8	0.294245
2067.26	-0.00769901
2068.72	0.347294
2070.18	0.433345
2071.64	0.216437
2073.1	0.672833
2074.56	0.219737
2076.02	0.776649
2077.48	0.423837
2078.94	0.205346
2080.39	0.306355
2081.85	0.591982
2083.31	0.371847
2084.77	0.773699
2086.22	0.619412
2087.68	1.06991
2089.14	0.780101
2090.6	0.591151
2092.05	0.654139
2093.51	0.733744
2094.96	0.896837
2096.42	1.07596
2097.87	1.03642
2099.33	0.879124
2100.78	1.07291
2102.24	0.982587
2103.69	0.626112
2105.15	1.22268
2106.6	1.26967
2108.05	1.20102
2109.51	1.04938
2110.96	1.01391
2112.41	1.02704
2113.86	1.08831
2115.32	1.09788
2116.77	1.45559
2118.22	1.23172
2119.67	1.37481
2121.12	1.55302
2122.57	1.73324
2124.02	1.43413
2125.47	1.3845
2126.92	1.68273
2128.37	1.83056
2129.82	1.79446
2131.27	1.49195
2132.72	2.11581
2134.17	1.9449
2135.62	2.30419
2137.06	2.16906
2138.51	1.97006
2139.96	1.87239
2141.41	2.45431
2142.85	1.96308
2144.3	2.59715
2145.75	2.18924
2147.19	2.6416
2148.64	2.59665
2150.09	2.7163
2151.53	3.00048
2152.97	2.47159
2154.42	2.3394
2155.86	2.7534
2157.31	3.05147
2158.75	2.93629
2160.2	2.8393
2161.64	2.42953
2163.08	2.48582
2164.53	2.9919
2165.97	2.68616
2167.41	3.06105
2168.86	2.33789
2170.3	2.99237
2171.74	2.39703
2173.18	3.11354
2174.62	3.12967
2176.06	3.1451
2177.5	2.86151
2178.94	3.06106
2180.38	2.87941
2181.82	3.14774
2183.26	2.96784
2184.7	2.7217
2186.14	2.70846
2187.58	2.81171
2189.02	2.66542
2190.46	2.98513
2191.89	2.82182
2193.33	2.72416
2194.77	2.34187
2196.21	3.17266
2197.64	2.137
2199.08	2.21451
2200.52	2.17445
2201.95	2.66554
2203.39	1.99541
2204.83	1.95745
2206.26	2.219
2207.7	1.83484
2209.13	2.31186
2210.57	1.3807
2212	1.82237
2213.43	1.78331
2214.87	2.10753
2216.3	1.65623
2217.73	1.83365
2219.17	1.64949
2220.6	1.7137
2222.03	1.92633
2223.47	1.8744
2224.9	1.80446
2226.33	1.58459
2227.76	1.18239
2229.19	1.81423
2230.62	1.08227
2232.05	1.54792
2233.49	1.40723
2234.91	1.57835
2236.34	1.09701
2237.77	1.0589
2239.2	0.924949
2240.63	0.793209
2242.06	0.95696
2243.49	0.942576
2244.92	0.993797
2246.35	1.24005
2247.78	1.06052
2249.2	0.895103
2250.63	0.841586
2252.06	0.704951
2253.48	0.714077
2254.91	0.885986
2256.34	1.05914
2257.76	0.715375
2259.19	0.601909
2260.61	0.734804
2262.04	0.91897
2263.46	0.520281
2264.89	0.738963
2266.31	0.307089
2267.74	0.47591
2269.16	0.790421
2270.59	0.860142
2272.01	0.766548
2273.43	0.477307
2274.85	1.01882
2276.28	0.501709
2277.7	0.457166
2279.12	0.412666
2280.54	0.840985
2281.97	0.731137
2283.39	0.947453
2284.81	0.527487
2286.23	0.221801
2287.65	0.357164
2289.07	0.770736
2290.49	0.319005
2291.91	0.177787
2293.33	0.363653
2294.75	0.222429
2296.17	0.408381
2297.59	0.316053
2299.01	0.322003
2300.42	0.311764
2301.84	0.00663948
2303.26	0.899148
2304.68	0.528802
2306.1	0.437201
2307.51	0.723071
2308.93	0.252475
2310.35	0.504481
2311.76	0.345031
2313.18	0.18546
2314.59	0.0920334
2316.01	0.0815907
2317.43	-0.0269604
2318.84	0.309891
2320.26	0.0695848
2321.67	0.240492
2323.08	0.013545
2324.5	0.180406
2325.91	0.542987
2327.33	0.755177
2328.74	0.966377
2330.15	0.205774
2331.56	-0.0428038
2332.98	0.878398
2334.39	0.0723076
2335.8	0.188041
2337.21	0.253926
2338.62	-0.00999546
2340.04	0.152439
2341.45	-0.0474987
2342.86	-0.428161
2344.27	0.241226
2345.68	-0.188039
2347.09	0.169695
2348.5	0.363331
2349.91	-0.294288
2351.31	-0.199794
2352.72	0.399909
2354.13	-0.291407
2355.54	0.14268
2356.95	0.0545158
2358.36	-0.000945091
2359.76	-0.0886641
2361.17	-0.0137997
2362.58	0.190593
2363.98	0.135331
2365.39	-0.000757217
2366.8	0.0252466
2368.21	0.0195017
2369.61	0.143829
2371.02	-0.0692415
2372.42	0.379754
2373.83	-0.104658
2375.23	-0.0732164
2376.64	0.183073
2378.04	0.389791
2379.44	-0.0480232
2380.85	0.219606
2382.25	0.00427055
2383.66	0.156914
2385.06	0.117027
2386.46	-0.0741177
2387.86	-0.263962
2389.26	-0.284885
2390.67	0.205192
2392.07	0.313623
2393.47	0.0569763
2394.87	0.15128
2396.27	-0.119445
2397.67	0.166873
2399.07	-0.070735
2400.47	0.327679
2401.87	0.440365
2403.27	0.346605
2404.67	-0.223838
2406.07	0.395682
2407.47	-0.271381
2408.87	0.0605488
2410.27	-0.0361347
2411.67	0.0100908
2413.07	0.199602
2414.46	-0.322198
2415.86	-0.209215
2417.26	0.411623
2418.66	0.21013
2420.05	0.119776
2421.45	-0.0499296
2422.84	-0.0932913
2424.24	0.21166
2425.64	0.263212
2427.03	-0.112632
2428.43	0.273166
2429.82	0.390543
2431.22	0.270712
2432.61	0.0715208
2434.01	0.0145702
2435.4	0.290119
2436.79	0.325975
2438.19	0.376206
2439.58	0.520446
2440.97	0.0761375
2442.37	-0.114408
2443.76	0.361376
2445.15	0.0276814
2446.54	0.597812
2447.93	-0.0529222
2449.33	0.247316
2450.72	-0.291635
2452.11	0.262434
2453.5	0.326408
2454.89	0.312113
2456.28	0.203599
2457.67	-0.0311346
2459.06	0.129423
2460.45	0.0996084
2461.84	0.0848312
2463.23	0.0692997
2464.62	-0.183765
2466	-0.152637
2467.39	0.415073
2468.78	0.46155
2470.17	-0.0599632
2471.55	-0.0297117
2472.94	0.110116
2474.33	0.0758619
2475.72	-0.257832
2477.1	0.398829
2478.49	0.379104
2479.87	0.328195
2481.26	0.042347
2482.65	-0.00811768
2484.03	0.222816
2485.42	-0.0323496
2486.8	0.321187
2488.19	0.126702
2489.57	0.118989
2490.95	0.126728
2492.34	0.0106144
2493.72	0.128714
2495.1	0.232365
2496.49	0.12008
2497.87	-0.0996304
2499.25	0.547976
2500.63	-0.22863
2502.02	0.0924759
2503.4	-0.0820065
2504.78	-0.164452
2506.16	0.307371
2507.54	0.100745
2508.92	0.355902
2510.3	0.165589
2511.68	-0.0850735
2513.06	0.048687
2514.44	-0.153909
2515.82	-0.355385
2517.2	0.0559654
2518.58	0.0392971
2519.96	-0.191126
2521.34	-0.268836
2522.72	-0.224965
2524.1	0.290877
2525.47	0.027998
2526.85	0.237346
2528.23	-0.0401249
2529.6	0.200845
2530.98	0.0479374
2532.36	-0.315963
2533.74	0.0507746
2535.11	0.251019
2536.49	0.29928
2537.86	0.179764
2539.24	-0.305145
2540.61	0.0596647
2541.99	0.196235
2543.36	0.226789
2544.74	0.16715
2546.11	0.0177259
2547.49	0.43072
2548.86	0.0253906
2550.23	0.31798
2551.61	-0.0120497
2552.98	-0.100179
2554.35	0.32667
2555.72	0.175982
2557.09	0.115836
2558.47	0.0404415
2559.84	-0.0649719
2561.21	0.13329
2562.58	0.377571
2563.95	0.24354
2565.32	0.367551
2566.69	0.173557
2568.06	0.070569
2569.43	0.164598
2570.8	0.137386
2572.17	0.27694
2573.54	0.280161
2574.91	0.162193
2576.28	0.0745516
2577.65	0.0626316
2579.02	0.293096
2580.39	0.295778
2581.75	-0.126501
2583.12	0.284796
2584.49	0.134873
2585.85	0.288093
2587.22	-0.195179
2588.59	0.109883
2589.95	0.127071
2591.32	0.113816
2592.68	-0.142322
2594.05	0.070467
2595.42	0.0701504
2596.78	-0.158195
2598.15	0.172678
2599.51	-0.207763
2600.88	-0.089035
2602.24	0.211256
2603.6	-0.242855
2604.97	0.299822
2606.33	-0.123115
2607.69	0.373731
2609.06	-0.155545
2610.42	0.308704
2611.78	-0.267441
2613.14	0.133664
2614.51	0.157731
2615.87	-0.0885854
2617.23	0.40033
2618.59	0.364735
2619.95	0.180338
2621.31	-0.152581
2622.67	0.651037
2624.03	-0.397768
2625.39	0.121568
2626.75	0.192599
2628.11	0.0992908
2629.47	0.139832
2630.83	-0.102571
2632.19	0.160734
2633.55	-0.11117
2634.91	0.522676
2636.26	0.443635
2637.62	0.0535321
2638.98	-0.0397825
2640.34	-0.0292473
2641.69	0.410224
2643.05	0.302735
2644.41	0.328409
2645.76	0.147432
2647.12	0.408551
2648.48	-0.0384331
2649.83	-0.0733795
2651.19	-0.432319
2652.54	0.00220633
2653.9	-0.414837
2655.25	0.312848
2656.6	0.234862
2657.96	0.245918
2659.31	0.126163
2660.67	0.416302
2662.02	0.0483608
2663.37	-0.290553
2664.73	0.0270181
2666.08	0.197569
2667.43	0.2508
2668.78	0.303854
2670.14	0.284343
2671.49	0.512543
2672.84	-0.217916
2674.19	-0.00302076
2675.54	0.0815501
2676.89	0.500274
2678.24	0.00561905
2679.59	0.280529
2680.94	0.208402
2682.29	-0.0945454
2683.64	0.415599
2684.99	-0.0449305
2686.34	0.0605569
2687.69	0.180439
2689.04	0.154057
2690.39	0.0534596
2691.74	0.47365
2693.08	0.0941248
2694.43	0.236043
2695.78	-0.144083
2697.13	-0.0162625
2698.47	0.112667
2699.82	0.127302
2701.17	0.25943
2702.51	-0.041502
2703.86	0.397359
2705.21	-0.0472627
2706.55	0.392508
2707.9	0.164903
2709.24	0.328667
2710.58	0.36147
2711.93	0.147073
2713.27	0.455525
2714.62	-0.0935235
2715.96	0.316676
2717.3	0.421531
2718.65	0.322513
2719.99	0.295829
2721.33	0.0649376
2722.68	0.255609
2724.02	0.271171
2725.36	0.504637
2726.71	0.0827322
2728.05	0.271828
2729.39	0.344226
2730.73	0.489211
2732.07	0.22676
2733.41	-0.108289
2734.75	0.560524
2736.09	0.604005
2737.43	0.0803947
2738.77	-0.0941648
2740.11	0.196396
2741.45	0.108385
2742.79	0.484957
2744.13	0.395592
2745.47	0.450934
2746.81	0.346072
2748.14	0.226589
2749.48	0.35389
2750.82	0.0171804
2752.16	0.304349
2753.49	0.301679
2754.83	0.516489
2756.17	0.0795236
2757.5	0.120785
2758.84	-0.127256
2760.18	0.044879
2761.51	0.14505
2762.85	0.0575366
2764.18	0.20182
2765.52	0.013288
2766.85	-0.0309987
2768.19	0.0106273
2769.52	-0.223711
2770.86	0.104401
2772.19	-0.0313134
2773.52	0.293929
2774.86	0.300927
2776.19	-0.0234079
2777.52	0.257571
2778.86	-0.0797143
2780.19	-0.214851
2781.52	0.124369
2782.85	0.16184
2784.19	0.0701175
2785.52	-0.1075
2786.85	0.402771
2788.18	-0.303806
2789.51	0.00689745
2790.84	0.075038
2792.17	-0.29938
2793.5	0.0415416
2794.83	0.0822029
2796.16	-0.263269
2797.49	0.0479879
2798.82	0.0871978
2800.15	-0.230834
2801.48	0.0930867
2802.81	-0.139558
2804.13	0.31179
2805.46	0.0928125
2806.79	-0.0553346
2808.12	-0.0047636
2809.45	0.0311184
2810.77	0.0811715
2812.1	0.174304
2813.43	-0.0294232
2814.75	0.335504
2816.08	-0.219722
2817.41	0.303413
2818.73	0.387685
2820.06	0.0609121
2821.38	-0.0111685
2822.71	0.22788
2824.03	0.338724
2825.36	-0.159891
2826.68	0.403842
2828	0.118343
2829.33	0.399728
2830.65	0.370088
2831.98	0.170779
2833.3	0.21205
2834.62	0.861611
2835.94	0.590648
2837.27	0.644661
2838.59	0.684065
2839.91	1.18992
2841.23	1.4694
2842.55	1.21207
2843.87	1.78934
2845.2	2.04224
2846.52	2.18275
2847.84	2.30952
2849.16	2.56352
2850.48	2.9444
2851.8	2.85827
2853.12	2.48891
2854.44	2.64203
2855.76	2.52645
2857.08	2.19899
2858.39	2.50728
2859.71	2.56125
2861.03	2.79857
2862.35	2.41429
2863.67	2.49552
2864.98	3.18316
2866.3	3.00994
2867.62	3.30247
2868.94	3.46846
2870.25	3.78993
2871.57	3.75908
2872.88	3.93932
2874.2	4.16088
2875.52	4.11346
2876.83	4.34638
2878.15	4.60626
2879.46	4.55614
2880.78	4.29561
2882.09	4.86521
2883.41	4.90194
2884.72	4.9398
2886.03	4.66953
2887.35	4.20294
2888.66	4.46569
2889.97	4.18032
2891.29	4.63732
2892.6	4.5046
2893.91	4.62397
2895.22	4.47762
2896.54	4.27634
2897.85	4.37023
2899.16	4.82901
2900.47	4.39324
2901.78	5.06316
2903.09	4.64219
2904.4	5.21452
2905.71	5.15772
2907.02	5.2974
2908.33	5.48002
2909.64	5.38386
2910.95	5.90407
2912.26	5.79457
2913.57	5.83814
2914.88	6.32806
2916.19	6.24193
2917.5	6.47586
2918.81	6.59655
2920.11	6.33938
2921.42	6.85218
2922.73	6.83503
2924.04	7.44858
2925.34	7.75599
2926.65	7.5889
2927.96	6.97448
2929.26	7.49194
2930.57	7.71515
2931.87	7.86785
2933.18	7.92238
2934.49	7.43178
2935.79	7.6961
2937.1	7.2339
2938.4	7.61043
2939.7	6.84144
2941.01	6.7578
2942.31	6.91273
2943.62	6.3284
2944.92	6.48635
2946.22	6.40803
2947.53	6.14846
2948.83	5.79042
2950.13	6.00487
2951.43	5.43319
2952.74	5.74149
2954.04	5.29211
2955.34	5.26243
2956.64	5.20578
2957.94	4.9415
2959.24	4.87615
2960.54	4.93991
2961.84	4.10881
2963.15	4.55399
2964.45	4.87284
2965.75	4.58646
2967.05	4.36825
2968.34	4.52803
2969.64	4.19491
2970.94	3.81932
2972.24	3.90815
2973.54	3.60338
2974.84	3.04506
2976.14	3.72484
2977.43	3.00943
2978.73	3.44681
2980.03	3.16431
2981.33	3.14796
2982.62	2.66692
2983.92	2.39754
2985.22	2.60735
2986.51	2.03173
2987.81	2.18839
2989.11	2.17744
2990.4	2.16678
2991.7	2.04319
2992.99	2.05909
2994.29	1.65218
2995.58	1.45508
2996.88	1.77689
2998.17	1.43867
2999.46	0.932711
3000.76	1.08671
3002.05	1.19915
3003.34	1.10177
3004.64	0.920527
3005.93	0.97722
3007.22	0.963296
3008.52	0.822655
3009.81	0.527522
3011.1	0.721113
3012.39	0.188056
3013.68	0.395227
3014.97	0.351602
3016.27	0.434122
3017.56	0.419845
3018.85	0.78181
3020.14	0.114374
3021.43	0.545297
3022.72	0.224864
3024.01	0.472967
3025.3	0.290151
3026.59	0.107526
3027.88	0.368532
3029.16	0.0772185
3030.45	-0.00494957
3031.74	-0.0441551
3033.03	0.221414
3034.32	0.0179234
3035.6	0.103806
3036.89	0.188393
3038.18	-0.169637
3039.47	0.296967
3040.75	0.211263
3042.04	0.426888
3043.33	0.367826
3044.61	0.61096
3045.9	0.335724
3047.18	0.268157
3048.47	0.0392261
3049.75	-0.0509329
3051.04	0.419983
3052.32	0.441386
3053.61	0.558352
3054.89	0.783821
3056.18	0.558115
3057.46	0.345168
3058.74	0.254342
3060.03	0.612752
3061.31	0.386058
3062.59	0.459857
3063.88	0.358304
3065.16	0.571057
3066.44	0.567748
3067.72	0.375147
3069	0.250942
3070.29	0.330528
3071.57	0.0829206
3072.85	0.187832
3074.13	0.101254
3075.41	-0.0268159
3076.69	-0.019165
3077.97	0.165403
3079.25	0.228835
3080.53	-0.248831
3081.81	-0.290796
3083.09	0.238249
3084.37	0.00834036
3085.65	-0.09935
3086.93	-0.125985
3088.21	0.0232615
3089.49	0.212649
3090.76	0.198092
3092.04	0.088532
3093.32	0.019958
3094.6	-0.170251
3095.87	-0.1431
3097.15	0.019783
3098.43	0.114882
3099.7	0.0473123
3100.98	-0.0202012
3102.26	-0.19584
3103.53	0.184066
3104.81	-0.288336
3106.08	0.282286
3107.36	0.136575
3108.63	0.181431
3109.91	0.146215
3111.18	0.233891
3112.46	0.227652
3113.73	0.127059
3115	0.324698
3116.28	0.332293
3117.55	-0.0270319
3118.83	0.0874114
3120.1	0.3501
3121.37	0.340763
3122.64	0.0870566
3123.92	0.172154
3125.19	0.189802
3126.46	0.0591292
3127.73	0.510965
3129	0.476251
3130.27	0.442006
3131.55	0.448597
3132.82	0.333572
3134.09	0.0968699
3135.36	0.602505
3136.63	0.270741
3137.9	0.653596
3139.17	0.321732
3140.44	0.353786
3141.71	0.547404
3142.98	0.660519
3144.24	0.612957
3145.51	0.432105
3146.78	0.708096
3148.05	0.703176
3149.32	0.645463
