200.43	0.0677042
202.246	0.0969782
204.061	0.12732
205.875	-0.279137
207.688	0.0929728
209.501	0.172529
211.316	0.177885
213.129	0.084569
214.941	0.475176
216.753	0.185817
218.566	0.526591
220.377	-0.0280275
222.188	-0.14561
223.999	-0.528106
225.809	0.201948
227.618	-0.0348692
229.43	0.452452
231.239	-0.123355
233.047	0.434757
234.855	0.534514
236.663	-0.473307
238.471	-0.22526
240.278	-0.0228214
242.087	0.0615826
243.894	0.364541
245.7	0.136687
247.506	-0.262136
249.311	0.808831
251.116	0.548192
252.921	0.429231
254.725	0.477132
256.529	-0.0060358
258.333	0.235025
260.136	0.670385
261.939	0.071866
263.744	0.63153
265.546	0.541883
267.348	0.958644
269.15	0.338606
270.951	0.17543
272.752	0.0590734
274.552	0.543825
276.353	-0.419789
278.152	-0.228274
279.952	0.0571861
281.751	0.50846
283.55	0.475869
285.348	0.249411
287.146	0.310446
288.942	0.467144
290.739	0.432663
292.536	-0.0312204
294.333	0.679269
296.129	-0.163472
297.925	-0.406907
299.721	0.401539
301.516	-0.176099
303.311	-0.109666
305.106	0.00303268
306.9	-0.124009
308.694	0.177819
310.486	-0.0920095
312.279	0.568455
314.072	0.730271
315.864	0.441688
317.656	0.917105
319.448	0.608319
321.24	0.920245
323.029	0.804056
324.819	0.712068
326.61	0.381258
328.4	0.885914
330.19	0.792701
331.977	-0.0435123
333.766	0.242217
335.555	0.645329
337.343	0.734736
339.131	0.414934
340.917	0.165219
342.704	0.942596
344.491	0.0704832
346.277	0.250445
348.062	0.407084
349.848	0.349305
351.633	0.625671
353.416	0.543286
355.201	0.626697
356.986	0.54158
358.77	0.35965
360.552	0.557603
362.335	0.682767
364.118	0.521468
365.899	0.620879
367.682	0.766625
369.464	0.318241
371.243	0.485588
373.025	0.864638
374.806	0.651509
376.585	0.438859
378.365	0.0857
380.143	-0.666311
381.923	0.396536
383.702	0.0713634
385.479	0.218088
387.258	0.29546
389.034	0.209507
390.812	1.08757
392.59	-0.405613
394.365	-0.0193529
396.142	0.367267
397.916	0.566084
399.693	0.576786
401.467	0.117175
403.242	0.244026
405.015	-0.0762482
406.79	0.189759
408.565	0.290606
410.337	0.132775
412.111	0.1862
413.882	0.615431
415.656	0.669909
417.426	0.490596
419.197	0.617003
420.969	0.837592
422.739	0.705807
424.51	0.479271
426.279	0.369018
428.05	0.938575
429.819	0.521564
431.589	0.832136
433.356	0.532765
435.124	0.843952
436.893	0.404063
438.66	0.526634
440.428	0.436355
442.194	0.0154629
443.96	0.483421
445.727	0.175588
447.492	0.990299
449.259	-0.0209875
451.023	0.605
452.787	0.833396
454.553	0.571812
456.316	0.263977
458.079	0.864672
459.844	0.1613
461.606	0.761874
463.368	0.247825
465.132	-0.147067
466.893	0.46028
468.654	0.745437
470.415	0.474865
472.177	0.181423
473.937	0.562009
475.696	0.31208
477.456	1.06127
479.217	0.201006
480.975	0.876969
482.733	0.737766
484.491	0.297069
486.251	1.32603
488.008	-0.0191002
489.765	0.199085
491.522	0.325357
493.278	0.195562
495.036	0.907661
496.791	0.661227
498.546	0.742009
500.301	0.658243
502.056	1.13687
503.81	0.534741
505.566	0.424042
507.319	1.08767
509.073	0.526797
510.825	0.434359
512.578	0.598946
514.33	1.09122
516.082	0.923029
517.833	1.05922
519.587	0.864981
521.337	1.04596
523.088	0.122417
524.838	0.95993
526.588	1.18657
528.337	0.779933
530.087	0.795395
531.835	0.76352
533.584	0.800972
535.332	0.649889
537.08	0.333845
538.827	0.413698
540.574	0.375425
542.321	0.01021
544.068	0.738844
545.814	0.280594
547.56	0.473455
549.305	0.41112
551.05	0.488094
552.795	0.541956
554.54	0.549691
556.284	0.603866
558.027	0.612236
559.771	0.0912418
561.514	0.883883
563.257	0.686833
564.999	0.697615
566.742	0.272674
568.481	0.675621
570.223	-0.228674
571.964	0.153852
573.705	0.216886
575.445	0.419524
577.185	-0.385531
578.925	-0.0878286
580.665	-0.156493
582.402	0.00469303
584.141	-0.0184488
585.879	-0.364684
587.617	0.64478
589.355	0.433851
591.092	0.635961
592.828	-0.105855
594.564	0.118463
596.301	-0.0943203
598.037	0.268039
599.773	0.699012
601.506	0.346862
603.242	0.131403
604.976	0.121366
606.711	0.385612
608.443	0.258254
610.177	0.268554
611.91	-0.110592
613.644	-0.121672
615.374	-0.0403137
617.107	0.430662
618.839	-0.313062
620.569	0.476402
622.3	0.119755
624.032	-0.397413
625.761	-0.274247
627.491	0.260783
629.221	0.84311
630.949	0.5152
632.679	0.189679
634.408	0.52719
636.135	0.65906
637.863	0.629217
639.592	0.1627
641.318	0.149458
643.045	0.0651188
644.77	0.412123
646.497	0.39481
648.224	0.175029
649.948	-0.086482
651.674	0.337923
653.398	-0.0514174
655.123	0.51787
656.846	0.225544
658.57	0.184484
660.293	0.165743
662.017	1.1958
663.738	0.625015
665.462	0.256589
667.185	0.571802
668.905	0.154373
670.628	0.400911
672.348	0.260744
674.067	0.741471
675.789	1.20255
677.508	0.151758
679.228	1.48767
680.947	0.916954
682.667	0.458239
684.385	0.456904
686.104	0.568438
687.821	0.401844
689.538	0.280049
691.256	0.341698
692.972	0.448732
694.69	0.41672
696.406	0.153359
698.121	0.786629
699.837	-0.100723
701.552	0.736403
703.268	1.29563
704.982	0.980522
706.695	0.550508
708.41	0.854482
710.123	0.149372
711.836	0.818656
713.55	0.754455
715.262	0.941538
716.973	0.740087
718.685	0.379429
720.398	1.34149
722.108	0.343729
723.818	1.21345
725.53	1.42229
727.24	0.313081
728.949	0.975419
730.658	1.4773
732.369	1.00387
734.077	0.938423
735.785	0.940981
737.493	0.74073
739.2	1.08307
740.909	0.749685
742.616	0.868719
744.322	1.28184
746.028	0.998619
747.734	0.784721
749.441	0.684915
751.146	0.631594
752.851	1.09709
754.555	0.484423
756.26	1.29091
757.963	1.04164
759.667	1.13173
761.372	0.839999
763.075	1.13512
764.777	1.54333
766.479	1.49893
768.181	0.728996
769.883	1.38063
771.584	1.28389
773.285	1.16289
774.986	1.60663
776.686	1.91528
778.386	1.4341
780.085	1.61044
781.785	1.17739
783.484	1.96637
785.182	1.01151
786.881	1.47998
788.579	1.51473
790.276	1.27423
791.974	2.22879
793.671	2.00555
795.367	1.2861
797.064	1.80857
798.76	1.5214
800.456	1.88946
802.151	2.19138
803.846	1.70681
805.541	1.60464
807.236	1.41177
808.93	1.30759
810.624	2.18963
812.317	1.34262
814.01	1.19086
815.703	1.08386
817.394	1.33491
819.086	1.87614
820.778	1.09918
822.47	1.28336
824.161	1.3344
825.852	1.74351
827.543	1.64241
829.231	1.56686
830.921	2.07392
832.611	1.71576
834.3	0.89171
835.989	1.07161
837.676	0.961437
839.364	1.5421
841.053	1.36199
842.74	1.49305
844.426	1.26604
846.113	1.24084
847.8	1.4636
849.486	1.19719
851.171	0.955649
852.857	1.20898
854.542	0.633755
856.227	0.933186
857.911	1.59176
859.595	1.10199
861.279	1.46509
862.961	0.587679
864.645	0.767317
866.329	1.73508
868.01	1.10164
869.692	1.07635
871.375	1.16349
873.055	0.979723
874.737	0.637876
876.418	1.13094
878.097	0.992223
879.778	1.16939
881.457	1.03016
883.137	1.22874
884.817	1.29064
886.495	0.357869
888.174	0.77761
889.851	1.33055
891.53	1.31772
893.206	0.695328
894.884	0.882637
896.562	0.88856
898.237	1.09547
899.914	0.426018
901.589	0.339779
903.265	0.834918
904.94	1.14984
906.615	0.124982
908.289	0.128854
909.964	1.02443
911.637	0.628865
913.31	0.590496
914.984	0.39718
916.656	1.6906
918.33	0.720958
920.001	0.306832
921.674	0.867423
923.345	0.853672
925.015	0.99643
926.687	1.00868
928.357	0.824266
930.028	0.751729
931.698	0.547663
933.366	0.983736
935.037	0.162647
936.705	0.5332
938.373	0.794407
940.043	-0.200188
941.71	0.946118
943.379	0.725718
945.046	0.593371
946.712	0.216936
948.378	0.677294
950.046	0.53953
951.711	0.466654
953.376	0.415925
955.043	-0.0740929
956.708	-0.0318632
958.372	-0.0964336
960.036	0.570341
961.701	0.290001
963.364	0.186019
965.027	0.146467
966.69	0.148258
968.354	0.589525
970.016	0.431057
971.678	0.448594
973.339	0.709878
975	0.773732
976.661	0.10985
978.324	0.442883
979.984	0.787955
981.644	1.13282
983.303	0.756796
984.962	0.267838
986.621	0.462819
988.282	1.00963
989.94	0.404639
991.598	-0.288843
993.256	0.476049
994.913	0.290971
996.57	0.282747
998.227	1.00214
999.884	0.684762
1001.54	0.785755
1003.2	0.974158
1004.85	-0.0915699
1006.51	0.404351
1008.16	0.3068
1009.82	0.51698
1011.47	0.53002
1013.12	0.412085
1014.78	0.360457
1016.43	0.11234
1018.08	0.368327
1019.74	0.121951
1021.39	0.226744
1023.04	0.704316
1024.69	0.986141
1026.34	-0.195474
1028	0.26195
1029.65	0.674881
1031.3	0.518416
1032.95	0.818699
1034.6	0.964027
1036.25	-0.265987
1037.9	0.291319
1039.55	0.281683
1041.19	0.512065
1042.84	0.656676
1044.49	0.716238
1046.14	0.691141
1047.79	0.190485
1049.43	-0.112792
1051.08	1.17088
1052.73	0.739717
1054.37	0.72169
1056.02	0.464596
1057.66	0.359262
1059.31	0.79691
1060.95	0.168465
1062.6	0.582841
1064.24	0.713489
1065.88	0.408115
1067.53	-0.0504837
1069.17	0.424348
1070.81	-0.339767
1072.46	-0.213383
1074.1	-0.0214911
1075.74	0.0412521
1077.38	-0.13312
1079.02	0.257742
1080.66	0.822927
1082.3	0.477384
1083.94	-0.259361
1085.58	0.758245
1087.22	-0.133909
1088.86	-0.161225
1090.5	-0.233666
1092.14	0.103429
1093.78	0.0290079
1095.42	0.38644
1097.05	-0.225894
1098.69	0.305879
1100.33	0.451431
1101.97	0.254737
1103.6	0.490452
1105.24	0.577044
1106.87	0.23416
1108.51	0.321144
1110.15	0.879904
1111.78	0.426351
1113.41	0.873563
1115.05	0.674752
1116.68	0.196606
1118.31	-0.237875
1119.95	1.12857
1121.58	0.610329
1123.21	0.543305
1124.85	0.434704
1126.48	0.434126
1128.11	0.862145
1129.74	0.542519
1131.37	0.309163
1133	0.247227
1134.63	-0.135464
1136.26	-0.454618
1137.89	0.0158463
1139.52	0.164316
1141.15	0.354225
1142.78	-0.0967941
1144.41	0.0926142
1146.04	0.495796
1147.66	-0.506757
1149.29	0.239278
1150.92	0.410401
1152.55	0.0490961
1154.17	0.198543
1155.8	0.198478
1157.43	-0.674037
1159.05	0.645117
1160.68	0.433517
1162.3	-0.159445
1163.93	-0.0495768
1165.55	0.209707
1167.17	-0.0628157
1168.8	0.152521
1170.42	-0.186698
1172.05	0.343241
1173.67	-0.339593
1175.29	-0.195446
1176.91	-0.158088
1178.54	-0.184128
1180.16	0.637315
1181.78	0.126007
1183.4	0.313756
1185.02	-0.44947
1186.64	-0.241406
1188.26	-0.0353889
1189.88	0.0416155
1191.5	0.453183
1193.12	0.231235
1194.74	-0.431952
1196.36	0.793659
1197.97	0.865417
1199.59	-0.04391
1201.21	0.534748
1202.83	0.259477
1204.44	0.154424
1206.06	0.156175
1207.68	0.555803
1209.29	-0.00385666
1210.91	0.436874
1212.52	-0.125274
1214.14	-0.230893
1215.75	0.660655
1217.37	0.342069
1218.98	0.625577
1220.6	1.05364
1222.21	0.610624
1223.82	0.397786
1225.44	0.311225
1227.05	0.433413
1228.66	0.536372
1230.27	0.785419
1231.88	1.11839
1233.49	0.398594
1235.1	0.258993
1236.72	0.906161
1238.33	0.955166
1239.94	0.34328
1241.55	1.77899
1243.16	1.68406
1244.76	0.946724
1246.37	1.5324
1247.98	1.2271
1249.59	1.6244
1251.2	1.25579
1252.8	1.54942
1254.41	0.644198
1256.02	1.00195
1257.63	1.44395
1259.23	1.24604
1260.84	0.862755
1262.44	1.10097
1264.05	1.44299
1265.66	1.7019
1267.26	2.08445
1268.87	1.96843
1270.47	1.12539
1272.07	1.87759
1273.68	1.40525
1275.28	1.36715
1276.88	1.90818
1278.48	1.37069
1280.09	1.43336
1281.69	1.72326
1283.29	1.66134
1284.89	1.41399
1286.49	1.78804
1288.09	1.25373
1289.69	2.43593
1291.3	1.73813
1292.9	1.06103
1294.49	2.07723
1296.09	1.60445
1297.69	0.985607
1299.29	2.51112
1300.89	2.03296
1302.49	1.28623
1304.09	1.15707
1305.68	2.19919
1307.28	2.04737
1308.88	2.28528
1310.47	1.88739
1312.07	0.815208
1313.66	1.66851
1315.26	1.52012
1316.86	1.78146
1318.45	2.08389
1320.05	2.22263
1321.64	1.7286
1323.23	1.47784
1324.83	2.50613
1326.42	1.41892
1328.01	1.57054
1329.61	1.86409
1331.2	2.17905
1332.79	2.01115
1334.38	1.72511
1335.98	2.14768
1337.57	1.40072
1339.16	1.29886
1340.75	2.12176
1342.34	1.29061
1343.93	1.36338
1345.52	1.81612
1347.11	1.96708
1348.7	1.69907
1350.29	1.79472
1351.87	1.25327
1353.46	1.21458
1355.05	1.51721
1356.64	1.28062
1358.23	0.883865
1359.81	0.566196
1361.4	0.806474
1362.99	1.24503
1364.57	1.34373
1366.16	0.924556
1367.74	0.924911
1369.33	1.34465
1370.91	0.870194
1372.5	0.775555
1374.08	0.52299
1375.67	1.90282
1377.25	1.31287
1378.83	1.29939
1380.42	0.747523
1382	1.00997
1383.58	0.912843
1385.16	1.23206
1386.75	0.696146
1388.33	1.25306
1389.91	1.37354
1391.49	1.11796
1393.07	1.10148
1394.65	1.2243
1396.23	1.34685
1397.81	1.42886
1399.39	0.935008
1400.97	1.13368
1402.55	0.895968
1404.13	0.658463
1405.7	1.37088
1407.28	1.19421
1408.86	1.0384
1410.44	0.586993
1412.01	0.945422
1413.59	1.30295
1415.17	0.258249
1416.74	1.52094
1418.32	0.672861
1419.89	1.93383
1421.47	1.36364
1423.05	1.16968
1424.62	1.09576
1426.19	0.964244
1427.77	1.77811
1429.34	1.21389
1430.92	1.12103
1432.49	2.34532
1434.06	2.13172
1435.63	2.03568
1437.2	1.42873
1438.78	1.94333
1440.35	2.12481
1441.92	1.73748
1443.49	1.90127
1445.06	2.18345
1446.63	2.17104
1448.2	2.35537
1449.77	2.08789
1451.34	2.48942
1452.91	2.18374
1454.48	2.19311
1456.05	2.08438
1457.62	2.50619
1459.18	2.19836
1460.75	1.51458
1462.32	1.98962
1463.89	1.61675
1465.45	1.81294
1467.02	1.92988
1468.59	2.08635
1470.15	1.8316
1471.72	1.49991
1473.28	1.18925
1474.85	0.742324
1476.41	0.864589
1477.98	1.45744
1479.54	1.38359
1481.11	0.819651
1482.67	0.726078
1484.23	0.828303
1485.8	0.655844
1487.36	1.34435
1488.92	1.01287
1490.48	0.151341
1492.05	0.715898
1493.61	0.71062
1495.17	0.781377
1496.73	0.597432
1498.29	0.277441
1499.85	0.503002
1501.41	0.787417
1502.97	0.956167
1504.53	0.311838
1506.09	0.540066
1507.65	0.78654
1509.2	1.26317
1510.76	0.0972509
1512.32	0.474928
1513.88	0.254572
1515.44	0.169483
1516.99	0.334802
1518.55	0.634782
1520.1	0.83899
1521.66	0.52634
1523.22	0.615407
1524.77	0.588845
1526.33	1.26672
1527.88	0.913483
1529.44	0.921849
1530.99	1.34785
1532.55	0.578679
1534.1	0.569983
1535.65	0.543505
1537.21	1.51951
1538.76	0.965413
1540.31	0.827691
1541.86	1.06711
1543.42	0.891895
1544.97	0.566381
1546.52	0.955
1548.07	1.19251
1549.62	1.71063
1551.17	1.12315
1552.72	1.92166
1554.27	1.35544
1555.82	1.01583
1557.37	1.40658
1558.92	1.87385
1560.47	1.63423
1562.02	1.95619
1563.57	2.26086
1565.11	1.42811
1566.66	2.03218
1568.21	1.94556
1569.75	2.28775
1571.3	2.14418
1572.85	2.0189
1574.39	2.34143
1575.94	1.80527
1577.49	1.96004
1579.03	2.37667
1580.58	1.67379
1582.12	1.49449
1583.67	2.30618
1585.21	2.09142
1586.75	2.00795
1588.3	2.46699
1589.84	1.95314
1591.38	2.09351
1592.93	2.17723
1594.47	1.81109
1596.01	1.42603
1597.55	1.97827
1599.09	2.43794
1600.63	2.16725
1602.18	2.1033
1603.72	1.60736
1605.26	1.88042
1606.8	1.73867
1608.34	1.89533
1609.87	1.82378
1611.41	1.99382
1612.95	2.02991
1614.49	0.750627
1616.03	1.8357
1617.57	1.88896
1619.11	1.40018
1620.64	1.81242
1622.18	1.38344
1623.72	1.85415
1625.25	1.96913
1626.79	1.80245
1628.32	1.37244
1629.86	1.8014
1631.4	1.59323
1632.93	1.70234
1634.47	1.6063
1636	1.69783
1637.53	2.20061
1639.07	1.93938
1640.6	0.951527
1642.14	1.91985
1643.67	1.58261
1645.2	2.00732
1646.73	2.28161
1648.27	1.90473
1649.8	1.64023
1651.33	1.85963
1652.86	1.67215
1654.39	2.56146
1655.92	1.96815
1657.45	1.5419
1658.98	1.85595
1660.51	2.00161
1662.04	1.49792
1663.57	1.40031
1665.1	2.07794
1666.63	1.5737
1668.16	1.80911
1669.69	1.60352
1671.21	1.52878
1672.74	1.82372
1674.27	1.86122
1675.79	0.904285
1677.32	1.65866
1678.85	1.65696
1680.37	1.47018
1681.9	1.19086
1683.42	0.654436
1684.95	1.58678
1686.47	1.08788
1688	1.13991
1689.52	0.679381
1691.05	0.750554
1692.57	0.711929
1694.1	0.691548
1695.62	0.945219
1697.14	0.613627
1698.66	0.64725
1700.19	0.935853
1701.71	0.804024
1703.23	0.981544
1704.75	0.356918
1706.27	0.133081
1707.79	0.309256
1709.32	0.121738
1710.83	0.479054
1712.35	0.364484
1713.88	0.0147266
1715.39	0.425922
1716.91	0.0766611
1718.43	0.43267
1719.95	0.174029
1721.47	0.439208
1722.99	0.488202
1724.5	0.46612
1726.02	0.30139
1727.54	0.282217
1729.06	0.318076
1730.57	0.674749
1732.09	0.437193
1733.61	-0.128528
1735.12	-0.0528145
1736.64	0.276232
1738.15	0.39175
1739.67	-0.0427303
1741.18	0.18029
1742.7	0.154749
1744.21	0.244221
1745.72	-0.250441
1747.24	0.516899
1748.75	0.569594
1750.26	0.34189
1751.78	-0.109009
1753.29	0.452017
1754.8	0.187963
1756.31	0.515456
1757.82	0.360318
1759.34	0.156672
1760.85	-0.0478277
1762.36	-0.117544
1763.87	0.162539
1765.38	0.391235
1766.89	0.0638142
1768.4	0.415861
1769.91	-0.0666323
1771.41	0.239993
1772.92	-0.154005
1774.43	0.289692
1775.94	-0.189937
1777.45	-0.0709229
1778.96	0.091877
1780.46	0.204282
1781.97	0.280856
1783.48	0.0398111
1784.98	-0.117987
1786.49	-0.0750103
1788	0.0427017
1789.5	0.199462
1791.01	0.207815
1792.51	0.157981
1794.01	0.305026
1795.52	0.0654087
1797.02	0.191998
1798.53	0.298438
1800.03	0.188466
1801.54	0.151473
1803.04	-0.0525799
1804.54	0.0856829
1806.04	-0.00952721
1807.54	0.0569878
1809.05	0.0277824
1810.55	-0.0365448
1812.05	0.162666
1813.55	-0.349098
1815.05	0.0193319
1816.55	0.164519
1818.05	-0.31879
1819.55	0.010519
1821.05	-0.0317316
1822.55	0.222876
1824.05	0.2338
1825.55	0.143296
1827.05	0.297982
1828.55	0.0513868
1830.04	0.000375748
1831.54	0.149372
1833.04	-0.26451
1834.54	0.0881062
1836.03	0.101228
1837.53	0.261827
1839.03	0.321191
1840.52	0.15331
1842.02	-0.237617
1843.51	-0.0832033
1845.01	0.526455
1846.5	0.248447
1848	0.00900841
1849.49	0.0118122
1850.99	0.0394154
1852.48	0.249497
1853.97	0.0545635
1855.47	-0.0702524
1856.96	0.0339823
1858.45	0.0396147
1859.94	-0.0109739
1861.44	0.407495
1862.93	0.0725546
1864.42	0.282176
1865.91	0.166866
1867.4	0.59459
1868.89	0.405359
1870.38	-0.208955
1871.87	-0.0468311
1873.36	0.0302906
1874.85	0.221304
1876.34	0.092144
1877.83	-0.310334
1879.32	0.275667
1880.81	-0.17652
1882.3	-0.155002
1882.56	-0.123049
1884.06	-0.630446
1885.55	0.168672
1887.04	0.321733
1888.54	0.300035
1890.03	0.0697994
1891.52	-0.193963
1893.02	0.743751
1894.51	0.292348
1896	0.34679
1897.49	0.523864
1898.99	0.335565
1900.48	0.546239
1901.97	0.320251
1903.46	0.266367
1904.95	0.471745
1906.44	0.363354
1907.93	-0.144336
1909.42	0.32109
1910.91	0.0930967
1912.4	0.0743332
1913.89	-0.238688
1915.38	0.315506
1916.86	-0.205755
1918.35	-0.0686913
1919.84	-0.0361252
1921.33	-0.19419
1922.82	-0.195893
1924.3	0.495799
1925.79	-0.127115
1927.28	0.272484
1928.76	-0.0717001
1930.25	0.138106
1931.74	0.0526962
1933.22	0.346715
1934.71	-0.053669
1936.19	0.236593
1937.67	-0.14902
1939.16	0.260206
1940.64	-0.0905266
1942.13	-0.112074
1943.61	0.48847
1945.09	0.227274
1946.58	0.311407
1948.06	0.412458
1949.54	0.202554
1951.03	-0.335337
1952.51	-0.116436
1953.99	-0.17352
1955.47	-0.0587673
1956.95	0.0047245
1958.43	0.257639
1959.91	-0.329488
1961.39	0.250441
1962.87	0.213059
1964.35	-0.0300903
1965.83	0.188814
1967.31	0.526568
1968.79	0.0251064
1970.27	0.190305
1971.75	0.799068
1973.22	-0.368145
1974.7	0.00141048
1976.18	0.234283
1977.66	0.518124
1979.13	-0.304672
1980.61	0.268377
1982.09	-0.196408
1983.56	0.256391
1985.04	0.181995
1986.52	0.294011
1987.99	-0.0856018
1989.47	0.280777
1990.94	-0.0972233
1992.41	0.202728
1993.89	0.317475
1995.36	-0.293655
1996.84	0.126575
1998.31	0.445159
1999.78	0.27347
2001.26	0.55689
2002.73	0.417849
2004.2	0.228236
2005.67	-0.247265
2007.15	0.524796
2008.62	-0.167575
2010.09	0.117711
2011.56	0.251955
2013.03	0.150574
2014.5	0.587276
2015.97	0.0471535
2017.44	-0.0731335
2018.91	0.0411797
2020.38	0.222036
2021.85	-0.101228
2023.32	0.163655
2024.79	0.110358
2026.25	0.12544
2027.72	-0.0424671
2029.19	0.227269
2030.66	0.347497
2032.13	0.0492773
2033.59	0.456432
2035.06	0.561566
2036.53	-0.106393
2037.99	0.400947
2039.46	0.353486
2040.92	0.154659
2042.39	0.645548
2043.85	-0.0903034
2045.32	0.368951
2046.78	0.172847
2048.25	0.364294
2049.71	-0.320822
2051.18	0.273832
2052.64	0.4456
2054.1	-0.0254164
2055.56	0.32811
2057.03	0.0394516
2058.49	0.222007
2059.95	0.35374
2061.42	0.923588
2062.88	0.315718
2064.34	0.382384
2065.8	-0.273531
2067.26	0.350442
2068.72	0.352373
2070.18	0.320974
2071.64	0.188619
2073.1	-0.078619
2074.56	-0.497731
2076.02	-0.243618
2077.48	0.296435
2078.94	0.314032
2080.39	0.36482
2081.85	0.162471
2083.31	0.397147
2084.77	0.412164
2086.22	0.5105
2087.68	0.591285
2089.14	0.621128
2090.6	0.583545
2092.05	0.881682
2093.51	0.709589
2094.96	0.403241
2096.42	0.850901
2097.87	0.443103
2099.33	0.721387
2100.78	0.54741
2102.24	0.424088
2103.69	1.08666
2105.15	0.33129
2106.6	0.612416
2108.05	0.610953
2109.51	0.393071
2110.96	0.82484
2112.41	0.921594
2113.86	0.583415
2115.32	1.05932
2116.77	0.619117
2118.22	1.22647
2119.67	1.33647
2121.12	0.668853
2122.57	0.799911
2124.02	0.79983
2125.47	0.966252
2126.92	1.26498
2128.37	0.965732
2129.82	1.17881
2131.27	1.39027
2132.72	1.35233
2134.17	1.03319
2135.62	1.21132
2137.06	1.09345
2138.51	1.58915
2139.96	1.06233
2141.41	1.56206
2142.85	1.65002
2144.3	1.17631
2145.75	1.51333
2147.19	1.58536
2148.64	1.93829
2150.09	1.32954
2151.53	1.99525
2152.97	1.68231
2154.42	1.55071
2155.86	1.91561
2157.31	2.04865
2158.75	1.28804
2160.2	1.34059
2161.64	1.84255
2163.08	1.43516
2164.53	1.69263
2165.97	1.81858
2167.41	1.64552
2168.86	2.3189
2170.3	1.67689
2171.74	1.99695
2173.18	1.36659
2174.62	2.13201
2176.06	2.31446
2177.5	1.86528
2178.94	1.63325
2180.38	1.85124
2181.82	1.50494
2183.26	1.77451
2184.7	1.67858
2186.14	2.11505
2187.58	2.10245
2189.02	1.40757
2190.46	1.24506
2191.89	1.51506
2193.33	1.28479
2194.77	1.75231
2196.21	1.61838
2197.64	1.44902
2199.08	1.64371
2200.52	1.65422
2201.95	1.73097
2203.39	1.41022
2204.83	1.47248
2206.26	1.41982
2207.7	1.169
2209.13	0.471085
2210.57	1.13018
2212	1.14235
2213.43	1.55039
2214.87	0.933669
2216.3	0.84666
2217.73	0.975455
2219.17	0.858118
2220.6	1.03853
2222.03	0.806936
2223.47	0.821853
2224.9	0.86819
2226.33	0.896168
2227.76	0.955183
2229.19	0.5857
2230.62	1.05283
2232.05	0.666625
2233.49	0.887203
2234.91	1.01004
2236.34	0.415154
2237.77	0.475869
2239.2	0.359026
2240.63	0.750012
2242.06	0.327295
2243.49	0.444123
2244.92	0.528697
2246.35	0.106922
2247.78	0.694736
2249.2	0.285499
2250.63	0.607499
2252.06	0.862049
2253.48	0.253406
2254.91	0.653506
2256.34	0.437612
2257.76	0.435423
2259.19	1.19873
2260.61	0.148052
2262.04	0.673789
2263.46	0.665765
2264.89	0.349267
2266.31	0.275912
2267.74	0.819858
2269.16	0.240327
2270.59	0.343332
2272.01	0.364455
2273.43	0.206271
2274.85	0.992929
2276.28	0.65591
2277.7	0.612281
2279.12	0.405674
2280.54	0.313047
2281.97	0.513843
2283.39	0.0457497
2284.81	0.409732
2286.23	0.219152
2287.65	0.175801
2289.07	0.034873
2290.49	0.253741
2291.91	0.293267
2293.33	0.0712719
2294.75	0.0617676
2296.17	0.0685406
2297.59	-0.18674
2299.01	-0.245586
2300.42	0.334915
2301.84	0.161955
2303.26	0.497711
2304.68	0.128144
2306.1	0.103014
2307.51	0.554006
2308.93	0.117156
2310.35	-0.123296
2311.76	0.392365
2313.18	0.431149
2314.59	-0.0563211
2316.01	0.131718
2317.43	-0.091156
2318.84	0.246658
2320.26	0.46913
2321.67	0.146115
2323.08	0.118038
2324.5	-0.176463
2325.91	0.648792
2327.33	0.251356
2328.74	0.644637
2330.15	0.461213
2331.56	0.147223
2332.98	0.180244
2334.39	0.214122
2335.8	0.248231
2337.21	0.0187082
2338.62	-0.0143776
2340.04	0.050005
2341.45	0.425367
2342.86	-0.365407
2344.27	0.0584097
2345.68	0.5639
2347.09	0.0863428
2348.5	-0.243284
2349.91	0.114164
2351.31	0.0780172
2352.72	-0.13873
2354.13	0.00294018
2355.54	0.0621452
2356.95	-0.0907679
2358.36	0.423463
2359.76	0.140626
2361.17	0.0532494
2362.58	0.193017
2363.98	-0.104884
2365.39	0.00224018
2366.8	0.141661
2368.21	0.0553989
2369.61	0.325242
2371.02	-0.532302
2372.42	-0.0664482
2373.83	0.110085
2375.23	0.158078
2376.64	-0.405744
2378.04	0.171617
2379.44	0.521667
2380.85	-0.0135212
2382.25	0.0121756
2383.66	-0.0591774
2385.06	-0.082592
2386.46	0.0302696
2387.86	0.143794
2389.26	0.154688
2390.67	0.134995
2392.07	0.259817
2393.47	-0.123629
2394.87	-0.0923567
2396.27	-0.251179
2397.67	-0.282124
2399.07	0.323068
2400.47	0.150105
2401.87	-0.197197
2403.27	0.424396
2404.67	0.156204
2406.07	0.268209
2407.47	0.299845
2408.87	0.2672
2410.27	0.456167
2411.67	0.407546
2413.07	0.0114374
2414.46	0.661816
2415.86	0.474522
2417.26	0.304474
2418.66	0.214495
2420.05	-0.0968771
2421.45	-0.36097
2422.84	0.0715818
2424.24	0.28215
2425.64	-0.0934811
2427.03	0.0701694
2428.43	0.250635
2429.82	0.289455
2431.22	0.567043
2432.61	-0.0281019
2434.01	-0.10022
2435.4	0.033021
2436.79	-0.121181
2438.19	-0.292786
2439.58	0.0427151
2440.97	0.202456
2442.37	-0.352792
2443.76	0.107649
2445.15	-0.415854
2446.54	0.392693
2447.93	-0.178311
2449.33	-0.162737
2450.72	0.280547
2452.11	0.233389
2453.5	0.0288334
2454.89	0.125815
2456.28	0.603124
2457.67	0.527062
2459.06	-0.0236597
2460.45	0.279128
2461.84	0.486098
2463.23	0.502452
2464.62	0.107404
2466	0.13877
2467.39	-0.114117
2468.78	0.169619
2470.17	0.0586166
2471.55	-0.289171
2472.94	0.0873909
2474.33	0.179336
2475.72	-0.311512
2477.1	-0.0632458
2478.49	0.0589371
2479.87	0.196784
2481.26	-0.339629
2482.65	0.581764
2484.03	0.0609856
2485.42	-0.068778
2486.8	-0.0744324
2488.19	-0.299613
2489.57	-0.260023
2490.95	0.355176
2492.34	0.223249
2493.72	-0.140165
2495.1	-0.113712
2496.49	0.0224257
2497.87	0.112738
2499.25	-0.0135117
2500.63	-0.186334
2502.02	0.351238
2503.4	0.0685272
2504.78	0.140226
2506.16	-0.0661879
2507.54	0.250882
2508.92	-0.0936632
2510.3	0.161876
2511.68	-0.257492
2513.06	0.152405
2514.44	0.439954
2515.82	-0.144432
2517.2	-0.0695658
2518.58	0.219785
2519.96	-0.0105448
2521.34	0.507443
2522.72	0.184664
2524.1	0.242752
2525.47	0.39146
2526.85	0.189428
2528.23	0.140296
2529.6	0.107558
2530.98	0.228436
2532.36	0.183802
2533.74	0.0190134
2535.11	0.341105
2536.49	0.587156
2537.86	0.437492
2539.24	0.241311
2540.61	0.196207
2541.99	0.302543
2543.36	0.4091
2544.74	-0.0144291
2546.11	0.0790958
2547.49	0.0524874
2548.86	0.330134
2550.23	0.274089
2551.61	0.278223
2552.98	0.417998
2554.35	0.602208
2555.72	-0.200741
2557.09	0.315723
2558.47	0.119104
2559.84	0.150248
2561.21	-0.0151234
2562.58	0.0323458
2563.95	0.216762
2565.32	0.204597
2566.69	0.677615
2568.06	0.332382
2569.43	0.0780497
2570.8	0.278391
2572.17	-0.00625515
2573.54	0.694448
2574.91	0.349318
2576.28	0.261894
2577.65	0.538263
2579.02	0.223061
2580.39	0.241069
2581.75	0.167673
2583.12	0.427456
2584.49	0.580824
2585.85	0.355146
2587.22	0.296357
2588.59	0.0862045
2589.95	0.224738
2591.32	0.135807
2592.68	-0.0596514
2594.05	0.350087
2595.42	0.395099
2596.78	0.27251
2598.15	0.073596
2599.51	0.418807
2600.88	0.159328
2602.24	0.0818567
2603.6	0.246646
2604.97	0.396766
2606.33	0.622379
2607.69	-0.147714
2609.06	-0.209625
2610.42	0.359943
2611.78	0.415647
2613.14	0.169333
2614.51	0.478473
2615.87	0.261537
2617.23	0.225161
2618.59	-0.035181
2619.95	0.498756
2621.31	0.464421
2622.67	-0.256657
2624.03	0.158273
2625.39	0.378592
2626.75	0.270288
2628.11	0.072381
2629.47	0.0531349
2630.83	0.271745
2632.19	0.029047
2633.55	0.826439
2634.91	0.375805
2636.26	-0.103805
2637.62	0.113772
2638.98	0.0349236
2640.34	0.296618
2641.69	0.0851011
2643.05	0.302567
2644.41	0.254158
2645.76	0.707298
2647.12	-0.196851
2648.48	-0.555287
2649.83	0.336947
2651.19	0.418221
2652.54	0.0584469
2653.9	0.0810633
2655.25	0.119034
2656.6	0.0701513
2657.96	0.285928
2659.31	0.253659
2660.67	0.163328
2662.02	0.0583048
2663.37	0.171873
2664.73	0.0655317
2666.08	0.133604
2667.43	-0.236106
2668.78	0.0645018
2670.14	-0.115244
2671.49	0.229199
2672.84	0.166962
2674.19	0.0182829
2675.54	-0.158712
2676.89	0.49197
2678.24	0.156603
2679.59	0.199258
2680.94	0.271935
2682.29	0.0993366
2683.64	0.0148745
2684.99	0.119868
2686.34	0.0947742
2687.69	-0.0176258
2689.04	0.173611
2690.39	0.188975
2691.74	0.217015
2693.08	0.330549
2694.43	-0.137014
2695.78	0.381227
2697.13	-0.0564718
2698.47	-0.000224113
2699.82	-0.0437222
2701.17	0.218559
2702.51	0.279641
2703.86	0.124439
2705.21	-0.044898
2706.55	0.278789
2707.9	0.558966
2709.24	0.287303
2710.58	0.712095
2711.93	0.366968
2713.27	0.0650568
2714.62	0.315242
2715.96	0.260157
2717.3	0.233971
2718.65	0.65849
2719.99	0.0642309
2721.33	0.226067
2722.68	0.0963497
2724.02	0.0534639
2725.36	0.505028
2726.71	0.126535
2728.05	0.417235
2729.39	0.34382
2730.73	0.473969
2732.07	0.356717
2733.41	0.021368
2734.75	-0.153751
2736.09	0.602188
2737.43	0.412818
2738.77	0.267056
2740.11	-0.0825377
2741.45	0.0618238
2742.79	0.234561
2744.13	0.304771
2745.47	-0.105114
2746.81	0.254535
2748.14	0.221772
2749.48	0.276123
2750.82	-0.0174503
2752.16	-0.107597
2753.49	-0.269928
2754.83	0.147518
2756.17	-0.217289
2757.5	0.46079
2758.84	0.357068
2760.18	-0.426453
2761.51	-0.0515871
2762.85	0.0631914
2764.18	0.0046196
2765.52	-0.0250416
2766.85	0.0895042
2768.19	-0.433333
2769.52	0.0405607
2770.86	0.353622
2772.19	0.0728102
2773.52	-0.19417
2774.86	-0.172905
2776.19	0.150751
2777.52	0.100019
2778.86	0.409421
2780.19	0.230309
2781.52	-0.149287
2782.85	0.045722
2784.19	-0.0894518
2785.52	0.234148
2786.85	-0.129973
2788.18	-0.106682
2789.51	0.446715
2790.84	0.22825
2792.17	-0.175173
2793.5	0.0224257
2794.83	-0.294548
2796.16	-0.197347
2797.49	0.384897
2798.82	0.423575
2800.15	0.276241
2801.48	0.385524
2802.81	0.22359
2804.13	0.104291
2805.46	0.426175
2806.79	0.320026
2808.12	-0.355532
2809.45	-0.433593
2810.77	-0.0428867
2812.1	0.390418
2813.43	0.242863
2814.75	-0.214989
2816.08	-0.0616827
2817.41	-0.14829
2818.73	0.00661373
2820.06	-0.362913
2821.38	0.0183048
2822.71	0.143707
2824.03	0.0559177
2825.36	0.222785
2826.68	0.19136
2828	0.0047245
2829.33	0.356652
2830.65	-0.168676
2831.98	-0.566364
2833.3	0.366474
2834.62	0.0816431
2835.94	0.0652714
2837.27	0.303061
2838.59	0.611033
2839.91	0.678227
2841.23	0.632392
2842.55	1.27962
2843.87	1.06521
2845.2	1.81259
2846.52	1.23217
2847.84	1.40115
2849.16	1.24507
2850.48	1.78125
2851.8	1.51126
2853.12	1.63647
2854.44	1.39386
2855.76	1.46195
2857.08	1.57238
2858.39	1.69697
2859.71	1.66615
2861.03	1.77635
2862.35	1.71678
2863.67	2.05204
2864.98	1.72368
2866.3	1.90331
2867.62	2.09722
2868.94	1.92489
2870.25	1.66847
2871.57	2.2862
2872.88	2.14242
2874.2	2.35018
2875.52	2.41588
2876.83	2.50858
2878.15	2.37522
2879.46	2.80425
2880.78	2.51632
2882.09	2.41216
2883.41	2.94116
2884.72	2.75478
2886.03	2.48488
2887.35	2.98709
2888.66	2.94136
2889.97	2.89484
2891.29	2.7353
2892.6	2.79953
2893.91	2.62539
2895.22	2.60584
2896.54	2.43316
2897.85	2.5555
2899.16	3.19648
2900.47	2.77493
2901.78	3.20721
2903.09	2.94028
2904.4	3.03719
2905.71	3.51204
2907.02	2.75659
2908.33	3.83442
2909.64	3.61224
2910.95	3.37656
2912.26	3.78467
2913.57	2.96015
2914.88	3.88419
2916.19	3.89648
2917.5	4.32703
2918.81	4.00082
2920.11	4.15022
2921.42	4.2583
2922.73	4.61925
2924.04	4.32462
2925.34	4.66021
2926.65	4.647
2927.96	4.84353
2929.26	4.52242
2930.57	4.53628
2931.87	4.3959
2933.18	5.17786
2934.49	4.65984
2935.79	4.60325
2937.1	4.67263
2938.4	4.05749
2939.7	4.29508
2941.01	3.72274
2942.31	3.822
2943.62	3.81067
2944.92	3.99641
2946.22	3.90376
2947.53	3.60178
2948.83	3.70525
2950.13	3.54164
2951.43	3.2082
2952.74	3.44703
2954.04	3.12445
2955.34	3.37557
2956.64	2.94172
2957.94	2.91581
2959.24	3.5086
2960.54	3.30622
2961.84	2.95145
2963.15	3.14407
2964.45	2.83099
2965.75	2.75497
2967.05	3.02865
2968.34	2.44368
2969.64	2.71546
2970.94	2.24185
2972.24	2.30294
2973.54	1.78744
2974.84	2.3978
2976.14	2.00822
2977.43	2.434
2978.73	1.81621
2980.03	1.56298
2981.33	1.89969
2982.62	1.57459
2983.92	1.61566
2985.22	1.9108
2986.51	1.575
2987.81	0.819175
2989.11	1.87708
2990.4	1.47383
2991.7	0.929539
2992.99	0.679446
2994.29	1.24322
2995.58	0.850497
2996.88	0.934767
2998.17	0.850407
2999.46	0.668224
3000.76	0.248393
3002.05	0.656429
3003.34	0.378057
3004.64	0.212059
3005.93	0.466065
3007.22	0.173417
3008.52	0.00621033
3009.81	-0.00777912
3011.1	-0.00842476
3012.39	0.172085
3013.68	0.324469
3014.97	0.04496
3016.27	-0.12198
3017.56	0.29678
3018.85	0.145136
3020.14	-0.159195
3021.43	0.398161
3022.72	0.190106
3024.01	0.106354
3025.3	0.00820923
3026.59	0.284055
3027.88	-0.118074
3029.16	-0.145061
3030.45	-0.0599661
3031.74	-0.0563259
3033.03	0.155476
3034.32	-0.15692
3035.6	0.123638
3036.89	0.333742
3038.18	-0.20208
3039.47	-0.463405
3040.75	0.222816
3042.04	0.0142879
3043.33	0.107902
3044.61	-0.0715413
3045.9	0.0382719
3047.18	0.0544853
3048.47	0.387097
3049.75	0.107503
3051.04	0.1299
3052.32	-0.147
3053.61	0.340296
3054.89	-0.114406
3056.18	0.303022
3057.46	-0.0851521
3058.74	0.248467
3060.03	0.513454
3061.31	-0.0922813
3062.59	0.36454
3063.88	0.12908
3065.16	-0.077477
3066.44	0.206861
3067.72	-0.0515571
3069	-0.227985
3070.29	0.261833
3071.57	-0.037919
3072.85	-0.121116
3074.13	0.256828
3075.41	-0.127238
3076.69	0.385166
3077.97	0.259635
3079.25	0.203257
3080.53	0.026433
3081.81	0.407441
3083.09	0.111541
3084.37	0.12842
3085.65	0.403355
3086.93	-0.027813
3088.21	-0.0795507
3089.49	-0.213255
3090.76	-0.26581
3092.04	0.102209
3093.32	0.32115
3094.6	0.337015
3095.87	0.204125
3097.15	-0.131846
3098.43	-0.061018
3099.7	-0.0444169
3100.98	0.202505
3102.26	-0.552624
3103.53	0.168755
3104.81	-0.0299835
3106.08	0.259399
3107.36	0.170864
3108.63	0.448888
3109.91	0.416867
3111.18	0.34533
3112.46	0.396547
3113.73	0.529662
3115	0.690079
3116.28	0.389206
3117.55	0.263791
3118.83	0.381575
3120.1	0.606881
3121.37	0.736401
3122.64	0.404609
3123.92	-0.00821447
3125.19	0.676397
3126.46	0.58961
3127.73	0.273626
3129	0.161404
3130.27	0.577035
3131.55	0.762936
3132.82	0.73254
3134.09	0.864032
3135.36	0.873516
3136.63	0.653263
3137.9	0.635191
3139.17	0.347567
3140.44	0.935258
3141.71	0.540576
3142.98	0.415776
3144.24	1.07047
3145.51	0.973759
3146.78	0.931695
3148.05	1.05129
3149.32	1.17155
