200.43	0.856506
202.246	0.872324
204.061	0.889452
205.875	0.49419
207.688	0.415705
209.501	-0.246339
211.316	1.05863
213.129	0.952973
214.941	0.40979
216.753	0.957538
218.566	0.705368
220.377	-0.126642
222.188	0.784932
223.999	0.318435
225.809	-0.0503225
227.618	0.257756
229.43	1.02407
231.239	-0.551945
233.047	0.430379
234.855	0.905822
236.663	0.273413
238.471	0.00491905
240.278	0.0281477
242.087	0.752926
243.894	0.177035
245.7	0.348812
247.506	-0.518896
249.311	0.0593576
251.116	0.00690174
252.921	0.120774
254.725	0.30522
256.529	-0.378893
258.333	0.022891
260.136	0.0646181
261.939	-0.132662
263.744	0.153543
265.546	0.344508
267.348	0.704653
269.15	0.245089
270.951	-0.0225258
272.752	-0.170729
274.552	0.571815
276.353	0.348355
278.152	-0.165964
279.952	0.281666
281.751	0.00470066
283.55	0.375674
285.348	-0.000235558
287.146	0.199876
288.942	0.519454
290.739	0.264276
292.536	-0.324257
294.333	0.261627
296.129	0.394079
297.925	0.479742
299.721	0.494222
301.516	0.484664
303.311	-0.265847
305.106	0.104759
306.9	0.283267
308.694	0.294482
310.486	-0.0273447
312.279	0.86693
314.072	0.476579
315.864	0.397754
317.656	0.225476
319.448	0.24524
321.24	0.814383
323.029	0.931821
324.819	0.381783
326.61	0.18935
328.4	-0.0274334
330.19	0.543793
331.977	0.851344
333.766	0.439642
335.555	0.217053
337.343	0.375057
339.131	0.650539
340.917	0.158982
342.704	-0.0461369
344.491	0.0355768
346.277	0.213235
348.062	0.439205
349.848	0.522362
351.633	0.0565729
353.416	0.21087
355.201	0.173238
356.986	0.205882
358.77	0.618462
360.552	-0.137545
362.335	-0.131891
364.118	-0.388525
365.899	-0.00397396
367.682	-0.143036
369.464	0.381261
371.243	0.52463
373.025	-0.279415
374.806	0.335939
376.585	0.359801
378.365	0.619924
380.143	0.150158
381.923	-0.294087
383.702	0.251437
385.479	-0.00173092
387.258	-0.0889826
389.034	0.224232
390.812	-0.0958662
392.59	-0.227223
394.365	-0.123161
396.142	0.14566
397.916	0.226707
399.693	0.378066
401.467	0.247141
403.242	0.326999
405.015	0.359127
406.79	-0.196548
408.565	-0.0717592
410.337	0.662934
412.111	0.364761
413.882	0.348667
415.656	0.262885
417.426	-0.103695
419.197	-0.32892
420.969	0.197101
422.739	0.0188065
424.51	0.285867
426.279	0.105994
428.05	0.371345
429.819	0.870877
431.589	0.102878
433.356	0.32098
435.124	0.562876
436.893	0.429252
438.66	0.693914
440.428	0.534701
442.194	-0.0486555
443.96	0.21041
445.727	0.303327
447.492	0.231041
449.259	-0.285902
451.023	-0.0308676
452.787	-0.382912
454.553	-0.0577507
456.316	0.290181
458.079	0.474393
459.844	0.635093
461.606	0.563685
463.368	0.145276
465.132	0.589214
466.893	0.152964
468.654	0.253786
470.415	0.542606
472.177	0.622983
473.937	0.423326
475.696	0.268321
477.456	0.530413
479.217	0.627599
480.975	0.0948429
482.733	-0.0650616
484.491	0.381676
486.251	0.294615
488.008	-0.0934248
489.765	0.476301
491.522	0.627764
493.278	0.453065
495.036	0.208107
496.791	1.32028
498.546	0.747253
500.301	0.477585
502.056	0.981331
503.81	0.686356
505.566	1.09492
507.319	0.491325
509.073	0.403201
510.825	0.7605
512.578	0.716249
514.33	0.293998
516.082	0.693881
517.833	0.527914
519.587	0.666645
521.337	-0.0178833
523.088	0.284122
524.838	0.186579
526.588	0.18294
528.337	-0.0551472
530.087	-0.246225
531.835	0.944399
533.584	0.0729837
535.332	0.184008
537.08	0.293505
538.827	0.378078
540.574	0.204772
542.321	0.613389
544.068	0.322691
545.814	0.706501
547.56	0.695021
549.305	0.104262
551.05	0.232886
552.795	-0.101216
554.54	0.651573
556.284	0.802912
558.027	0.147232
559.771	0.184439
561.514	0.176077
563.257	0.352299
564.999	0.735701
566.742	0.108534
568.481	0.424161
570.223	0.465136
571.964	0.232141
573.705	0.207285
575.445	0.252964
577.185	0.415029
578.925	-0.201985
580.665	-0.520254
582.402	0.241277
584.141	0.0834551
585.879	-0.351447
587.617	0.247415
589.355	0.109096
591.092	0.545043
592.828	-0.00886536
594.564	-0.171801
596.301	-0.150645
598.037	0.560682
599.773	-0.522833
601.506	-0.0196924
603.242	-0.345843
604.976	0.683235
606.711	-0.266001
608.443	0.622169
610.177	0.246845
611.91	0.26234
613.644	-0.0653334
615.374	-0.00246429
617.107	-0.0311146
618.839	-0.0602112
620.569	-0.113168
622.3	-0.167233
624.032	0.326587
625.761	0.522724
627.491	0.0118876
629.221	0.575988
630.949	0.411972
632.679	-0.023838
634.408	-0.0250788
636.135	-0.32334
637.863	0.0616331
639.592	0.215755
641.318	-0.020834
643.045	0.310313
644.77	0.890091
646.497	0.92312
648.224	0.116936
649.948	0.29167
651.674	1.03809
653.398	0.0158339
655.123	0.132973
656.846	0.389126
658.57	0.168104
660.293	0.128785
662.017	0.361982
663.738	-0.343648
665.462	0.502415
667.185	-0.185004
668.905	0.750435
670.628	0.33718
672.348	0.20015
674.067	0.248492
675.789	0.367737
677.508	0.190171
679.228	-0.0564823
680.947	0.385159
682.667	-0.163438
684.385	-0.392437
686.104	0.38977
687.821	1.37817
689.538	0.453841
691.256	1.00292
692.972	0.169293
694.69	0.440607
696.406	0.480618
698.121	0.381332
699.837	0.234881
701.552	-0.395476
703.268	0.766742
704.982	0.893182
706.695	0.858257
708.41	1.18986
710.123	0.0541058
711.836	0.728495
713.55	0.417838
715.262	0.29037
716.973	-0.247891
718.685	0.560763
720.398	1.02627
722.108	1.01293
723.818	0.658387
725.53	0.73625
727.24	0.700143
728.949	0.822539
730.658	0.536191
732.369	1.02005
734.077	0.756119
735.785	1.14823
737.493	1.15606
739.2	1.8188
740.909	0.452663
742.616	0.328667
744.322	1.33175
746.028	1.03008
747.734	0.527534
749.441	1.12865
751.146	0.831253
752.851	1.25491
754.555	1.05012
756.26	1.56686
757.963	1.23002
759.667	0.33103
761.372	1.79921
763.075	2.18711
764.777	1.28828
766.479	1.38126
768.181	1.42731
769.883	1.08681
771.584	1.80704
773.285	1.41778
774.986	1.32203
776.686	1.65638
778.386	1.74332
780.085	1.78662
781.785	2.0121
783.484	1.89846
785.182	1.73836
786.881	1.89278
788.579	1.31973
790.276	1.73914
791.974	1.43198
793.671	1.6882
795.367	1.6278
797.064	1.23034
798.76	1.89361
800.456	1.92765
802.151	1.73817
803.846	1.75196
805.541	1.81058
807.236	1.32905
808.93	1.85744
810.624	2.0922
812.317	1.20446
814.01	1.59467
815.703	1.87204
817.394	2.05944
819.086	1.44202
820.778	2.05397
822.47	1.59431
824.161	1.82732
825.852	1.48209
827.543	0.961118
829.231	2.1801
830.921	2.53354
832.611	2.3555
834.3	1.95669
835.989	1.93767
837.676	2.03006
839.364	1.04959
841.053	1.58569
842.74	0.981316
844.426	1.18066
846.113	1.26896
847.8	1.359
849.486	1.42916
851.171	1.16599
852.857	1.6215
854.542	1.56284
856.227	1.2793
857.911	1.17399
859.595	0.909374
861.279	1.43073
862.961	1.2527
864.645	1.18593
866.329	0.915301
868.01	1.27528
869.692	0.86815
871.375	1.29519
873.055	1.15814
874.737	0.863031
876.418	0.477585
878.097	0.701442
879.778	0.970413
881.457	1.21653
883.137	1.57485
884.817	1.16454
886.495	1.22693
888.174	0.949321
889.851	0.941023
891.53	1.29187
893.206	-0.0705957
894.884	1.24567
896.562	1.47948
898.237	1.19533
899.914	1.15758
901.589	1.38799
903.265	1.25922
904.94	0.840066
906.615	1.27034
908.289	0.830744
909.964	1.17241
911.637	0.691136
913.31	1.14494
914.984	1.55382
916.656	0.697565
918.33	0.862314
920.001	0.783318
921.674	0.85983
923.345	0.517329
925.015	1.61269
926.687	1.05275
928.357	1.28954
930.028	0.247564
931.698	0.883463
933.366	0.835578
935.037	0.501132
936.705	0.939095
938.373	0.583876
940.043	1.04586
941.71	0.979723
943.379	0.0537195
945.046	1.00321
946.712	0.958633
948.378	0.691546
950.046	0.886146
951.711	0.836759
953.376	0.69921
955.043	0.67344
956.708	0.628234
958.372	0.255193
960.036	1.05423
961.701	0.795652
963.364	1.31028
965.027	1.00556
966.69	0.631586
968.354	0.56455
970.016	0.606122
971.678	0.602584
973.339	0.776371
975	1.34956
976.661	0.44284
978.324	0.842411
979.984	0.722858
981.644	0.602887
983.303	1.28963
984.962	1.13329
986.621	1.24049
988.282	0.593573
989.94	0.985322
991.598	0.0720901
993.256	0.197845
994.913	0.279391
996.57	0.184463
998.227	0.486513
999.884	1.14057
1001.54	0.406063
1003.2	0.860487
1004.85	0.412321
1006.51	0.162461
1008.16	0.571854
1009.82	0.5421
1011.47	0.841755
1013.12	0.352495
1014.78	0.389881
1016.43	0.537073
1018.08	0.575212
1019.74	0.373501
1021.39	0.172933
1023.04	0.213956
1024.69	0.671105
1026.34	0.473155
1028	0.887075
1029.65	1.38766
1031.3	0.226949
1032.95	0.353581
1034.6	0.631247
1036.25	1.03802
1037.9	0.659101
1039.55	1.17314
1041.19	1.07802
1042.84	0.701752
1044.49	1.04459
1046.14	0.824387
1047.79	0.519293
1049.43	1.54061
1051.08	0.565125
1052.73	0.784986
1054.37	0.483806
1056.02	0.964952
1057.66	0.967765
1059.31	0.296087
1060.95	0.64563
1062.6	0.559566
1064.24	0.820513
1065.88	0.841233
1067.53	0.621799
1069.17	1.37921
1070.81	0.159146
1072.46	0.56801
1074.1	0.976987
1075.74	0.453988
1077.38	0.82168
1079.02	0.43154
1080.66	0.779464
1082.3	-0.0435524
1083.94	0.67217
1085.58	0.562377
1087.22	0.710703
1088.86	0.185583
1090.5	0.351932
1092.14	0.0629053
1093.78	0.184258
1095.42	-0.104386
1097.05	0.944731
1098.69	0.356446
1100.33	0.868521
1101.97	0.349102
1103.6	0.713762
1105.24	0.692411
1106.87	0.155469
1108.51	0.0269804
1110.15	-0.102448
1111.78	-0.254705
1113.41	0.257641
1115.05	0.59647
1116.68	0.247761
1118.31	0.0711365
1119.95	0.645208
1121.58	0.384502
1123.21	0.0608654
1124.85	0.701197
1126.48	0.465027
1128.11	1.08511
1129.74	0.700783
1131.37	0.274364
1133	0.532395
1134.63	0.448257
1136.26	0.384917
1137.89	-0.10673
1139.52	0.618318
1141.15	0.466439
1142.78	0.1435
1144.41	0.226228
1146.04	0.266887
1147.66	-0.117798
1149.29	-0.416214
1150.92	-0.0963326
1152.55	0.159536
1154.17	0.180777
1155.8	0.39317
1157.43	0.264892
1159.05	0.243375
1160.68	-0.160098
1162.3	0.798364
1163.93	-0.113329
1165.55	-0.0039587
1167.17	-0.0223742
1168.8	0.043294
1170.42	0.0436249
1172.05	0.0846472
1173.67	0.187665
1175.29	0.0347691
1176.91	0.157197
1178.54	-0.016942
1180.16	0.0638199
1181.78	-0.0450811
1183.4	0.861576
1185.02	-0.0921488
1186.64	0.136943
1188.26	0.111006
1189.88	0.0411196
1191.5	0.0538311
1193.12	0.275347
1194.74	0.495462
1196.36	-0.186555
1197.97	-0.363377
1199.59	0.298323
1201.21	-0.0838356
1202.83	-0.316775
1204.44	-0.192333
1206.06	0.246935
1207.68	-0.188901
1209.29	-0.0820055
1210.91	0.420418
1212.52	0.649941
1214.14	0.0436087
1215.75	-0.210026
1217.37	0.221616
1218.98	-0.304472
1220.6	0.187591
1222.21	0.0778704
1223.82	0.238861
1225.44	0.276772
1227.05	0.626451
1228.66	0.253202
1230.27	0.419015
1231.88	0.668546
1233.49	0.691801
1235.1	0.922931
1236.72	0.638525
1238.33	0.685802
1239.94	0.651042
1241.55	0.885343
1243.16	0.829806
1244.76	0.566593
1246.37	1.13009
1247.98	0.637276
1249.59	0.992102
1251.2	0.891404
1252.8	0.915039
1254.41	0.856628
1256.02	1.13021
1257.63	1.42575
1259.23	1.14319
1260.84	0.882054
1262.44	1.11818
1264.05	0.795197
1265.66	1.27979
1267.26	0.644625
1268.87	1.02415
1270.47	0.573411
1272.07	1.11688
1273.68	1.14097
1275.28	1.51645
1276.88	1.41419
1278.48	1.45616
1280.09	1.2697
1281.69	0.710546
1283.29	1.14499
1284.89	1.60027
1286.49	1.3946
1288.09	1.0454
1289.69	1.50318
1291.3	1.1555
1292.9	1.82022
1294.49	1.82295
1296.09	1.78305
1297.69	1.70024
1299.29	1.32697
1300.89	1.2413
1302.49	1.60771
1304.09	1.19045
1305.68	1.14335
1307.28	1.71197
1308.88	1.31485
1310.47	1.96373
1312.07	1.66992
1313.66	1.35701
1315.26	1.53607
1316.86	0.694916
1318.45	1.05933
1320.05	1.11729
1321.64	1.50022
1323.23	1.71811
1324.83	1.14106
1326.42	1.25422
1328.01	1.73145
1329.61	1.66129
1331.2	0.945705
1332.79	1.26419
1334.38	1.74588
1335.98	1.19949
1337.57	1.60218
1339.16	1.19753
1340.75	1.09393
1342.34	1.35067
1343.93	1.44412
1345.52	0.592655
1347.11	1.16699
1348.7	0.800212
1350.29	1.37707
1351.87	1.2756
1353.46	0.936357
1355.05	0.998362
1356.64	1.70014
1358.23	0.962808
1359.81	0.804167
1361.4	0.963986
1362.99	0.404706
1364.57	1.02195
1366.16	0.762019
1367.74	0.941224
1369.33	0.982076
1370.91	1.60138
1372.5	0.868777
1374.08	1.27153
1375.67	0.918814
1377.25	0.725374
1378.83	1.16823
1380.42	0.495825
1382	1.43373
1383.58	0.858475
1385.16	0.48148
1386.75	0.760012
1388.33	0.522105
1389.91	1.33703
1391.49	0.802922
1393.07	0.309555
1394.65	0.312614
1396.23	1.06901
1397.81	0.634945
1399.39	0.774881
1400.97	0.933587
1402.55	0.73525
1404.13	1.03167
1405.7	1.34804
1407.28	1.56614
1408.86	1.23171
1410.44	0.878249
1412.01	0.544719
1413.59	0.941228
1415.17	0.409199
1416.74	1.1193
1418.32	1.11869
1419.89	0.941083
1421.47	0.587437
1423.05	1.27878
1424.62	1.0267
1426.19	1.05143
1427.77	1.27352
1429.34	1.16075
1430.92	1.12585
1432.49	1.42436
1434.06	1.46603
1435.63	1.52687
1437.2	1.25363
1438.78	1.55126
1440.35	1.496
1441.92	0.832461
1443.49	1.19156
1445.06	1.49209
1446.63	1.41937
1448.2	1.73993
1449.77	2.06083
1451.34	2.42161
1452.91	1.91775
1454.48	1.65011
1456.05	1.59874
1457.62	1.60577
1459.18	1.70995
1460.75	2.16663
1462.32	1.40143
1463.89	1.65774
1465.45	1.1658
1467.02	1.51872
1468.59	1.02735
1470.15	0.792411
1471.72	0.990278
1473.28	1.20864
1474.85	0.76095
1476.41	0.803955
1477.98	0.749023
1479.54	0.596034
1481.11	0.834976
1482.67	0.466266
1484.23	-0.176779
1485.8	0.551404
1487.36	0.847689
1488.92	0.339873
1490.48	0.476575
1492.05	0.611095
1493.61	0.37225
1495.17	0.346871
1496.73	-0.0106802
1498.29	0.177308
1499.85	0.559643
1501.41	0.417901
1502.97	0.665403
1504.53	0.0220041
1506.09	0.36726
1507.65	0.788676
1509.2	0.474153
1510.76	0.0627918
1512.32	0.846465
1513.88	0.338254
1515.44	0.388912
1516.99	0.286397
1518.55	0.683396
1520.1	0.27557
1521.66	0.921214
1523.22	0.131624
1524.77	0.183146
1526.33	0.252709
1527.88	0.587815
1529.44	0.389069
1530.99	0.513618
1532.55	0.296983
1534.1	0.895997
1535.65	0.567706
1537.21	0.770076
1538.76	0.953801
1540.31	0.666119
1541.86	0.981915
1543.42	1.27817
1544.97	0.238752
1546.52	0.647456
1548.07	0.96134
1549.62	0.899667
1551.17	0.576138
1552.72	0.964553
1554.27	1.03541
1555.82	0.52849
1557.37	0.845121
1558.92	1.12597
1560.47	0.830167
1562.02	0.386691
1563.57	1.10089
1565.11	1.25602
1566.66	1.44862
1568.21	1.0438
1569.75	1.66512
1571.3	0.960813
1572.85	0.984181
1574.39	1.6421
1575.94	1.79601
1577.49	1.40876
1579.03	1.80598
1580.58	1.77443
1582.12	1.59424
1583.67	1.05984
1585.21	1.55363
1586.75	1.5248
1588.3	1.36516
1589.84	1.24259
1591.38	1.77467
1592.93	1.29549
1594.47	1.04048
1596.01	1.32869
1597.55	1.24261
1599.09	1.47583
1600.63	1.33475
1602.18	1.45673
1603.72	1.54126
1605.26	1.09919
1606.8	1.61395
1608.34	1.18726
1609.87	1.54774
1611.41	1.28579
1612.95	1.47287
1614.49	1.82736
1616.03	1.01809
1617.57	1.27867
1619.11	1.07167
1620.64	1.25952
1622.18	0.961741
1623.72	1.03926
1625.25	1.26653
1626.79	1.43688
1628.32	1.02592
1629.86	0.913185
1631.4	1.136
1632.93	1.47022
1634.47	1.3563
1636	1.54178
1637.53	0.870078
1639.07	1.95194
1640.6	1.82169
1642.14	1.8027
1643.67	1.03784
1645.2	1.11011
1646.73	1.53473
1648.27	1.88408
1649.8	1.47198
1651.33	1.52527
1652.86	1.37565
1654.39	1.5795
1655.92	2.19159
1657.45	1.58033
1658.98	1.45033
1660.51	2.37438
1662.04	1.68636
1663.57	1.60821
1665.1	1.58501
1666.63	1.37761
1668.16	1.24529
1669.69	1.4463
1671.21	1.20633
1672.74	1.20702
1674.27	1.06082
1675.79	1.31951
1677.32	1.24603
1678.85	0.730079
1680.37	0.949116
1681.9	1.18556
1683.42	0.741961
1684.95	0.721044
1686.47	0.645439
1688	0.881898
1689.52	0.843673
1691.05	0.714159
1692.57	1.15215
1694.1	0.272675
1695.62	0.216615
1697.14	0.617185
1698.66	0.706541
1700.19	0.831887
1701.71	0.974817
1703.23	0.424462
1704.75	0.74852
1706.27	0.562153
1707.79	0.484908
1709.32	0.280558
1710.83	-0.177445
1712.35	0.181432
1713.88	0.793488
1715.39	0.0649872
1716.91	-0.0473948
1718.43	0.0933056
1719.95	0.215642
1721.47	0.410076
1722.99	0.280175
1724.5	-0.064868
1726.02	0.221859
1727.54	0.00548267
1729.06	0.203987
1730.57	0.401538
1732.09	-0.167551
1733.61	0.0802031
1735.12	0.305016
1736.64	0.168441
1738.15	0.0204735
1739.67	0.227706
1741.18	-0.25031
1742.7	0.145392
1744.21	0.110988
1745.72	0.605397
1747.24	-0.025856
1748.75	-0.0686359
1750.26	0.109683
1751.78	0.176153
1753.29	-0.0605879
1754.8	-0.0865154
1756.31	0.223717
1757.82	-0.375818
1759.34	-0.146542
1760.85	0.127054
1762.36	0.122017
1763.87	0.302747
1765.38	-0.201524
1766.89	0.108713
1768.4	0.0513659
1769.91	-0.0605946
1771.41	0.0459509
1772.92	0.00905704
1774.43	0.0554256
1775.94	-0.0519438
1777.45	0.000448227
1778.96	0.329683
1780.46	0.0903654
1781.97	0.00280952
1783.48	0.268794
1784.98	-0.00643253
1786.49	-0.162104
1788	0.363429
1789.5	0.0774956
1791.01	0.0484381
1792.51	0.062252
1794.01	-0.177699
1795.52	0.110771
1797.02	0.0503864
1798.53	-0.084672
1800.03	-0.0119066
1801.54	0.238541
1803.04	0.397136
1804.54	0.126135
1806.04	0.257201
1807.54	-0.274616
1809.05	0.181951
1810.55	-0.0234118
1812.05	0.120363
1813.55	0.148262
1815.05	0.0750656
1816.55	0.141869
1818.05	-0.13883
1819.55	0.0580263
1821.05	-0.189046
1822.55	0.360273
1824.05	0.21594
1825.55	0.201397
1827.05	-0.0605001
1828.55	0.173039
1830.04	-0.0588293
1831.54	-0.188191
1833.04	-0.0321617
1834.54	-0.404752
1836.03	-0.0462561
1837.53	0.0337219
1839.03	0.280512
1840.52	-0.121113
1842.02	0.396082
1843.51	0.259678
1845.01	0.108086
1846.5	0.174867
1848	0.0370359
1849.49	0.0179634
1850.99	0.140576
1852.48	0.0821238
1853.97	0.292959
1855.47	0.373191
1856.96	0.0611143
1858.45	-0.0406666
1859.94	0.276938
1861.44	0.216608
1862.93	0.225625
1864.42	0.0573225
1865.91	-0.203075
1867.4	-0.168559
1868.89	-0.111
1870.38	0.0080328
1871.87	0.130443
1873.36	-0.0667582
1874.85	-0.193272
1876.34	0.420079
1877.83	-0.0650053
1879.32	0.139392
1880.81	0.142563
1882.3	-0.119123
1882.56	-0.176475
1884.06	0.241015
1885.55	0.082449
1887.04	-0.355409
1888.54	0.407881
1890.03	0.0570602
1891.52	-0.170817
1893.02	-0.0668259
1894.51	0.0734787
1896	-0.150011
1897.49	-0.37288
1898.99	0.152046
1900.48	0.102113
1901.97	-0.0536308
1903.46	-0.0891132
1904.95	-0.299635
1906.44	0.0974798
1907.93	0.459442
1909.42	0.092618
1910.91	0.108635
1912.4	-0.065383
1913.89	0.0733366
1915.38	0.246755
1916.86	-0.134973
1918.35	0.106974
1919.84	0.00185585
1921.33	0.329752
1922.82	0.294195
1924.3	0.0863314
1925.79	0.173811
1927.28	-0.0667009
1928.76	0.489755
1930.25	0.232415
1931.74	-0.0256968
1933.22	0.494127
1934.71	-0.268814
1936.19	-0.132893
1937.67	0.105606
1939.16	0.257009
1940.64	0.097681
1942.13	0.0428448
1943.61	-0.080018
1945.09	-0.236537
1946.58	0.124514
1948.06	-0.0146408
1949.54	-0.102669
1951.03	0.462784
1952.51	0.510553
1953.99	-0.00969982
1955.47	0.0377388
1956.95	0.0339451
1958.43	0.391168
1959.91	0.0968275
1961.39	0.0775785
1962.87	-0.0786042
1964.35	-0.0121021
1965.83	0.362136
1967.31	0.341716
1968.79	0.0641651
1970.27	0.145407
1971.75	0.0384178
1973.22	-0.443953
1974.7	0.131888
1976.18	0.0764647
1977.66	0.378947
1979.13	-0.0337672
1980.61	-0.00371265
1982.09	0.111135
1983.56	-0.300992
1985.04	0.101895
1986.52	0.45307
1987.99	0.227509
1989.47	-0.217565
1990.94	-0.102988
1992.41	-0.0384817
1993.89	0.449455
1995.36	-0.0930991
1996.84	0.20977
1998.31	0.275967
1999.78	-0.147854
2001.26	-0.0824871
2002.73	-0.422395
2004.2	-0.121479
2005.67	0.213143
2007.15	0.295498
2008.62	0.29446
2010.09	-0.0930157
2011.56	0.243907
2013.03	-0.193451
2014.5	0.378649
2015.97	0.108603
2017.44	-0.0275331
2018.91	0.575385
2020.38	0.0851059
2021.85	0.619591
2023.32	-0.188939
2024.79	0.0106149
2026.25	0.462679
2027.72	0.060524
2029.19	0.548658
2030.66	0.367097
2032.13	-0.384261
2033.59	-0.0948997
2035.06	-0.00687933
2036.53	-0.120716
2037.99	0.504268
2039.46	0.339268
2040.92	0.106909
2042.39	0.429666
2043.85	0.26552
2045.32	-0.0157375
2046.78	0.562034
2048.25	-0.00479126
2049.71	0.253339
2051.18	-0.349114
2052.64	0.261028
2054.1	0.0264525
2055.56	-0.108418
2057.03	-0.227524
2058.49	0.208867
2059.95	0.291067
2061.42	0.575627
2062.88	0.0359635
2064.34	0.42305
2065.8	0.205121
2067.26	0.4255
2068.72	0.309818
2070.18	0.0428877
2071.64	0.449359
2073.1	0.40119
2074.56	0.487484
2076.02	0.38825
2077.48	0.187638
2078.94	0.744473
2080.39	0.576762
2081.85	0.172873
2083.31	0.660667
2084.77	0.104223
2086.22	0.624075
2087.68	0.117298
2089.14	0.232437
2090.6	0.750414
2092.05	1.06633
2093.51	0.425404
2094.96	0.673746
2096.42	0.418546
2097.87	0.916751
2099.33	0.911587
2100.78	0.270697
2102.24	1.06802
2103.69	0.796327
2105.15	0.726435
2106.6	0.641206
2108.05	0.623699
2109.51	0.773242
2110.96	0.855513
2112.41	1.00313
2113.86	0.865893
2115.32	0.694087
2116.77	1.1701
2118.22	1.23037
2119.67	0.943297
2121.12	0.625216
2122.57	1.13837
2124.02	0.873318
2125.47	1.08976
2126.92	1.25617
2128.37	0.72535
2129.82	1.32034
2131.27	1.49953
2132.72	1.13152
2134.17	0.945898
2135.62	1.75328
2137.06	1.42101
2138.51	1.10724
2139.96	1.68774
2141.41	1.19554
2142.85	1.69636
2144.3	1.65228
2145.75	1.64138
2147.19	1.66329
2148.64	2.0324
2150.09	1.65532
2151.53	2.12213
2152.97	1.32872
2154.42	2.09199
2155.86	1.8938
2157.31	2.07674
2158.75	2.21072
2160.2	1.96506
2161.64	1.90335
2163.08	1.76056
2164.53	1.86796
2165.97	2.05935
2167.41	2.05153
2168.86	2.14236
2170.3	2.34787
2171.74	1.90254
2173.18	2.30358
2174.62	2.15425
2176.06	2.27047
2177.5	1.98782
2178.94	1.77253
2180.38	2.10687
2181.82	1.84356
2183.26	1.78031
2184.7	1.91692
2186.14	1.5712
2187.58	1.74118
2189.02	2.02778
2190.46	1.86503
2191.89	1.45222
2193.33	1.62134
2194.77	1.72257
2196.21	1.63888
2197.64	1.66976
2199.08	1.54929
2200.52	1.46122
2201.95	1.43957
2203.39	1.31904
2204.83	1.38211
2206.26	1.47924
2207.7	2.07379
2209.13	1.55816
2210.57	1.0588
2212	1.20414
2213.43	1.46431
2214.87	1.34409
2216.3	1.3897
2217.73	1.07342
2219.17	1.13788
2220.6	1.33498
2222.03	0.955241
2223.47	0.789261
2224.9	0.770359
2226.33	1.11192
2227.76	0.925306
2229.19	1.13201
2230.62	1.12428
2232.05	0.805048
2233.49	0.863251
2234.91	1.08555
2236.34	0.671413
2237.77	0.716472
2239.2	0.877415
2240.63	0.795409
2242.06	0.568297
2243.49	0.815296
2244.92	0.70378
2246.35	0.559024
2247.78	0.461802
2249.2	0.330132
2250.63	0.473619
2252.06	0.599067
2253.48	0.333288
2254.91	0.620663
2256.34	0.389379
2257.76	0.647254
2259.19	0.501954
2260.61	0.716222
2262.04	0.315991
2263.46	0.485187
2264.89	0.508574
2266.31	0.743033
2267.74	0.700447
2269.16	0.982469
2270.59	0.433703
2272.01	0.356411
2273.43	0.164935
2274.85	0.706499
2276.28	0.59675
2277.7	0.747876
2279.12	0.605692
2280.54	0.218774
2281.97	0.402435
2283.39	0.5698
2284.81	0.47618
2286.23	0.0562496
2287.65	0.403811
2289.07	0.0333004
2290.49	-0.0103421
2291.91	0.387598
2293.33	0.213571
2294.75	0.530224
2296.17	0.159587
2297.59	-0.620802
2299.01	0.0890126
2300.42	0.6521
2301.84	0.396074
2303.26	0.123639
2304.68	0.113691
2306.1	0.481413
2307.51	0.405534
2308.93	0.27979
2310.35	-0.0603342
2311.76	0.372097
2313.18	0.21242
2314.59	0.316354
2316.01	0.371613
2317.43	0.427608
2318.84	0.170838
2320.26	0.210458
2321.67	0.084146
2323.08	0.352244
2324.5	0.0902405
2325.91	0.403857
2327.33	0.913629
2328.74	0.762954
2330.15	0.266751
2331.56	0.0517097
2332.98	-0.0799298
2334.39	0.0524755
2335.8	0.431776
2337.21	-0.0118222
2338.62	-0.242241
2340.04	-0.210483
2341.45	0.165318
2342.86	0.343288
2344.27	0.045414
2345.68	0.239833
2347.09	0.303227
2348.5	0.0719271
2349.91	0.102314
2351.31	0.0829577
2352.72	0.307767
2354.13	-0.00709438
2355.54	0.493064
2356.95	0.373163
2358.36	0.123391
2359.76	0.24793
2361.17	0.112617
2362.58	0.139698
2363.98	0.474342
2365.39	0.0155039
2366.8	0.188076
2368.21	0.0217814
2369.61	0.0341153
2371.02	0.289336
2372.42	-0.0667877
2373.83	0.270703
2375.23	0.254109
2376.64	0.430256
2378.04	0.798203
2379.44	-0.0247688
2380.85	0.275906
2382.25	-0.162839
2383.66	-0.232963
2385.06	-0.127155
2386.46	0.074604
2387.86	0.276671
2389.26	-0.28592
2390.67	-0.352654
2392.07	-0.0999489
2393.47	0.0419035
2394.87	-0.0224438
2396.27	-0.133837
2397.67	0.232153
2399.07	0.217103
2400.47	-0.147005
2401.87	0.41051
2403.27	0.269119
2404.67	0.222715
2406.07	-0.221259
2407.47	0.0800691
2408.87	0.269447
2410.27	0.315695
2411.67	-0.414204
2413.07	0.06078
2414.46	0.0615625
2415.86	0.126909
2417.26	-0.0440927
2418.66	0.260643
2420.05	0.470768
2421.45	0.4591
2422.84	0.320363
2424.24	-0.0246258
2425.64	0.359292
2427.03	0.14151
2428.43	-0.0122123
2429.82	0.167808
2431.22	0.237505
2432.61	0.0692477
2434.01	-0.0678492
2435.4	0.238843
2436.79	0.290155
2438.19	0.467247
2439.58	0.388994
2440.97	-0.182296
2442.37	0.278166
2443.76	0.214399
2445.15	0.325
2446.54	-0.00855064
2447.93	0.181033
2449.33	0.259553
2450.72	0.0848718
2452.11	0.385603
2453.5	0.164669
2454.89	0.0553055
2456.28	0.326203
2457.67	0.106973
2459.06	0.124878
2460.45	-0.0316744
2461.84	0.506816
2463.23	-0.0778809
2464.62	0.253702
2466	0.158365
2467.39	0.141955
2468.78	-0.237385
2470.17	0.487395
2471.55	0.391401
2472.94	0.0271091
2474.33	0.292314
2475.72	0.241973
2477.1	0.379995
2478.49	0.627676
2479.87	0.0905304
2481.26	0.495132
2482.65	0.194015
2484.03	-0.153989
2485.42	0.0139918
2486.8	0.38377
2488.19	0.580097
2489.57	0.307763
2490.95	0.751923
2492.34	0.0607243
2493.72	0.194976
2495.1	0.174979
2496.49	0.311082
2497.87	0.308316
2499.25	0.212905
2500.63	0.132793
2502.02	0.0984893
2503.4	0.0634131
2504.78	-0.219143
2506.16	0.0992885
2507.54	-0.183406
2508.92	0.426272
2510.3	0.15967
2511.68	0.0475717
2513.06	0.411518
2514.44	-0.173995
2515.82	-0.252856
2517.2	0.280867
2518.58	-0.0569916
2519.96	0.0946155
2521.34	0.352736
2522.72	0.228399
2524.1	0.317026
2525.47	0.389654
2526.85	0.309661
2528.23	0.275803
2529.6	0.121305
2530.98	0.409073
2532.36	0.34864
2533.74	0.365372
2535.11	-0.0578737
2536.49	-0.0709596
2537.86	0.12806
2539.24	-0.114234
2540.61	-0.0989766
2541.99	0.340935
2543.36	0.128389
2544.74	0.174551
2546.11	0.191415
2547.49	0.452021
2548.86	0.607226
2550.23	0.185901
2551.61	0.143431
2552.98	0.312639
2554.35	-0.247453
2555.72	0.54218
2557.09	-0.140303
2558.47	0.314721
2559.84	0.19368
2561.21	0.285332
2562.58	0.10472
2563.95	0.439853
2565.32	0.154031
2566.69	0.141177
2568.06	0.446657
2569.43	-0.0814157
2570.8	0.102823
2572.17	0.196167
2573.54	0.137997
2574.91	0.595327
2576.28	0.0521197
2577.65	0.206217
2579.02	0.238832
2580.39	0.55924
2581.75	-0.0456529
2583.12	0.562125
2584.49	0.0932322
2585.85	0.0185041
2587.22	0.216705
2588.59	0.142226
2589.95	0.234545
2591.32	0.0388141
2592.68	-0.0209141
2594.05	0.373148
2595.42	0.0997972
2596.78	0.325282
2598.15	0.0203834
2599.51	0.0178962
2600.88	0.151484
2602.24	0.255143
2603.6	0.46494
2604.97	0.0865536
2606.33	0.0555286
2607.69	0.144867
2609.06	0.158043
2610.42	0.0195565
2611.78	0.0607557
2613.14	0.266308
2614.51	0.260502
2615.87	0.314509
2617.23	-0.0661006
2618.59	0.108626
2619.95	-0.0305352
2621.31	0.100259
2622.67	-0.0824828
2624.03	0.0189047
2625.39	0.269319
2626.75	0.0718188
2628.11	0.21703
2629.47	-0.1147
2630.83	0.134135
2632.19	-0.137826
2633.55	0.0659189
2634.91	-0.131422
2636.26	-0.180179
2637.62	0.0082078
2638.98	0.00385094
2640.34	0.162363
2641.69	0.306061
2643.05	0.00660229
2644.41	0.401523
2645.76	0.190981
2647.12	0.201504
2648.48	0.167219
2649.83	0.0145717
2651.19	0.185057
2652.54	0.00248051
2653.9	0.0405207
2655.25	0.328282
2656.6	-0.0572004
2657.96	0.480891
2659.31	0.156048
2660.67	0.343615
2662.02	-0.199852
2663.37	0.322989
2664.73	0.275226
2666.08	0.00810289
2667.43	-0.113271
2668.78	-0.0161104
2670.14	0.0956683
2671.49	0.382189
2672.84	-0.333699
2674.19	-0.118853
2675.54	-0.136009
2676.89	-0.0221152
2678.24	-0.0238004
2679.59	0.0476999
2680.94	-0.184421
2682.29	0.106383
2683.64	0.20972
2684.99	0.0528154
2686.34	0.0412822
2687.69	0.40696
2689.04	0.176563
2690.39	-0.0407882
2691.74	0.0597167
2693.08	-0.0152063
2694.43	0.286151
2695.78	0.195746
2697.13	0.163897
2698.47	0.133161
2699.82	0.118325
2701.17	-0.0109091
2702.51	0.179702
2703.86	0.226406
2705.21	0.0126219
2706.55	-0.0998049
2707.9	0.222775
2709.24	0.0517044
2710.58	0.388451
2711.93	0.129591
2713.27	0.146538
2714.62	0.381468
2715.96	0.19481
2717.3	0.153358
2718.65	0.169854
2719.99	0.462504
2721.33	0.216385
2722.68	-0.073884
2724.02	-0.131702
2725.36	0.232229
2726.71	0.115502
2728.05	0.595219
2729.39	0.11418
2730.73	-0.00311327
2732.07	0.345141
2733.41	0.0824142
2734.75	0.314425
2736.09	0.473845
2737.43	0.138864
2738.77	0.123835
2740.11	0.239467
2741.45	0.383737
2742.79	0.294796
2744.13	0.118098
2745.47	-0.0444875
2746.81	-0.0911274
2748.14	0.268532
2749.48	0.395771
2750.82	0.0444775
2752.16	0.143079
2753.49	-0.0770345
2754.83	0.0363555
2756.17	-0.241282
2757.5	0.277744
2758.84	-0.115271
2760.18	0.461892
2761.51	-0.03157
2762.85	0.256831
2764.18	-0.0767164
2765.52	0.139541
2766.85	-0.0786405
2768.19	0.0351443
2769.52	-0.184767
2770.86	0.042316
2772.19	-0.26634
2773.52	-0.142484
2774.86	0.182539
2776.19	0.23329
2777.52	-0.00357151
2778.86	-0.110173
2780.19	0.085568
2781.52	0.152059
2782.85	0.218525
2784.19	0.084064
2785.52	0.279396
2786.85	-0.327431
2788.18	0.111823
2789.51	-0.0496392
2790.84	0.161629
2792.17	-0.0555296
2793.5	-0.000603199
2794.83	0.140071
2796.16	-0.319716
2797.49	0.305867
2798.82	-0.197444
2800.15	0.0842524
2801.48	0.19428
2802.81	-0.123706
2804.13	0.0856705
2805.46	0.109287
2806.79	0.217742
2808.12	-0.158061
2809.45	-0.0362415
2810.77	-0.0849891
2812.1	0.150654
2813.43	0.415343
2814.75	0.284099
2816.08	0.0833068
2817.41	0.195327
2818.73	-0.0181637
2820.06	0.136857
2821.38	0.135582
2822.71	-0.376415
2824.03	0.074687
2825.36	0.0295448
2826.68	-0.199629
2828	0.0814118
2829.33	0.0513973
2830.65	-0.0206928
2831.98	0.0347929
2833.3	0.274234
2834.62	0.117064
2835.94	0.101036
2837.27	0.0279694
2838.59	0.322366
2839.91	0.63058
2841.23	0.655968
2842.55	1.00682
2843.87	0.481884
2845.2	0.918655
2846.52	1.12983
2847.84	0.832544
2849.16	1.28434
2850.48	1.14226
2851.8	1.07042
2853.12	1.66237
2854.44	1.15166
2855.76	1.47451
2857.08	1.4441
2858.39	1.28662
2859.71	1.48224
2861.03	1.72
2862.35	1.42094
2863.67	1.65801
2864.98	1.81008
2866.3	1.18621
2867.62	1.90264
2868.94	1.88595
2870.25	1.75686
2871.57	2.31862
2872.88	2.04846
2874.2	2.32726
2875.52	2.45001
2876.83	2.61391
2878.15	2.65027
2879.46	2.51759
2880.78	2.44158
2882.09	2.78787
2883.41	2.7697
2884.72	2.52779
2886.03	2.834
2887.35	2.73314
2888.66	2.78626
2889.97	2.26353
2891.29	2.94629
2892.6	2.43664
2893.91	2.75383
2895.22	3.00107
2896.54	3.03892
2897.85	2.78386
2899.16	3.15944
2900.47	2.69629
2901.78	3.10092
2903.09	3.29589
2904.4	3.18325
2905.71	3.25272
2907.02	3.18284
2908.33	3.46342
2909.64	3.67491
2910.95	3.84502
2912.26	3.60926
2913.57	3.79273
2914.88	3.94694
2916.19	4.07156
2917.5	3.98476
2918.81	4.30286
2920.11	4.41084
2921.42	4.33765
2922.73	4.41943
2924.04	4.44659
2925.34	4.60062
2926.65	4.75524
2927.96	4.88197
2929.26	5.12019
2930.57	4.68686
2931.87	4.50476
2933.18	4.97944
2934.49	4.85303
2935.79	4.55907
2937.1	4.48891
2938.4	4.47484
2939.7	4.489
2941.01	4.79709
2942.31	4.18371
2943.62	4.46583
2944.92	4.39982
2946.22	4.43278
2947.53	3.97664
2948.83	3.79986
2950.13	3.66395
2951.43	3.48441
2952.74	3.47124
2954.04	3.75088
2955.34	3.37222
2956.64	3.13444
2957.94	3.38839
2959.24	3.49086
2960.54	3.31575
2961.84	2.98806
2963.15	2.54832
2964.45	2.82349
2965.75	2.92924
2967.05	2.55585
2968.34	2.79966
2969.64	2.57893
2970.94	2.31583
2972.24	2.74225
2973.54	2.50781
2974.84	2.4844
2976.14	1.88318
2977.43	2.13967
2978.73	2.01458
2980.03	2.04292
2981.33	1.97164
2982.62	1.95624
2983.92	2.0396
2985.22	1.46333
2986.51	1.73176
2987.81	1.52367
2989.11	1.31644
2990.4	1.16565
2991.7	1.18311
2992.99	1.10136
2994.29	1.34176
2995.58	0.977117
2996.88	0.892972
2998.17	1.21572
2999.46	0.893198
3000.76	1.07619
3002.05	0.600825
3003.34	-0.16812
3004.64	0.198175
3005.93	0.760114
3007.22	0.635247
3008.52	0.383901
3009.81	0.621508
3011.1	0.215486
3012.39	0.382171
3013.68	0.0324874
3014.97	0.21343
3016.27	-0.037097
3017.56	0.256298
3018.85	0.104571
3020.14	0.147804
3021.43	0.190664
3022.72	0.191131
3024.01	0.0659323
3025.3	0.328558
3026.59	-0.309684
3027.88	-0.102225
3029.16	-0.143021
3030.45	-0.0581427
3031.74	0.0278997
3033.03	0.211428
3034.32	-0.11548
3035.6	0.0402851
3036.89	0.0156307
3038.18	-0.0655169
3039.47	-0.0103812
3040.75	-0.107784
3042.04	0.233578
3043.33	0.0943365
3044.61	0.202635
3045.9	-0.0980096
3047.18	0.122885
3048.47	0.208985
3049.75	0.228635
3051.04	0.345203
3052.32	0.32607
3053.61	0.552594
3054.89	0.328356
3056.18	0.321604
3057.46	0.109507
3058.74	0.292131
3060.03	-0.111068
3061.31	0.098928
3062.59	-0.152848
3063.88	0.0454645
3065.16	0.285806
3066.44	0.282674
3067.72	0.117291
3069	0.251439
3070.29	0.0590596
3071.57	0.0156164
3072.85	0.0528541
3074.13	0.116314
3075.41	-0.0791202
3076.69	-0.260939
3077.97	-0.0349679
3079.25	0.368165
3080.53	-0.0821595
3081.81	0.242163
3083.09	-0.1785
3084.37	0.0526547
3085.65	-0.0959597
3086.93	-0.00059557
3088.21	0.0128479
3089.49	-0.19133
3090.76	0.0113654
3092.04	-0.0845017
3093.32	-0.0580301
3094.6	0.00945663
3095.87	0.0772371
3097.15	0.118049
3098.43	0.0640202
3099.7	-0.0983934
3100.98	0.213422
3102.26	0.20021
3103.53	-0.151114
3104.81	0.405121
3106.08	0.0822206
3107.36	-0.0638289
3108.63	-0.154809
3109.91	0.283048
3111.18	-0.0362086
3112.46	0.173306
3113.73	0.410537
3115	0.512456
3116.28	0.15309
3117.55	-0.112102
3118.83	0.123769
3120.1	0.0604825
3121.37	0.647356
3122.64	0.406761
3123.92	0.315321
3125.19	0.291957
3126.46	0.296183
3127.73	0.341584
3129	0.522765
3130.27	0.339171
3131.55	0.629011
3132.82	0.567353
3134.09	0.316466
3135.36	0.200503
3136.63	0.354206
3137.9	0.574833
3139.17	0.592905
3140.44	0.46288
3141.71	0.629149
3142.98	0.392454
3144.24	0.747374
3145.51	0.471943
3146.78	0.814261
3148.05	1.08983
3149.32	0.830202
