200.43	0.277636
202.246	0.318192
204.061	0.360044
205.875	1.35193
207.688	0.957699
209.501	1.26772
211.316	0.531311
213.129	1.20142
214.941	0.995617
216.753	1.15268
218.566	0.340837
220.377	0.571753
222.188	1.06989
223.999	0.867823
225.809	0.618513
227.618	0.369511
229.43	0.289169
231.239	0.280348
233.047	1.11531
234.855	0.937273
236.663	0.231009
238.471	0.154875
240.278	0.588741
242.087	-0.0345669
243.894	0.0431767
245.7	0.169132
247.506	0.654913
249.311	0.629564
251.116	0.140484
252.921	-0.135494
254.725	0.454414
256.529	0.705385
258.333	0.740408
260.136	0.609295
261.939	0.433016
263.744	-0.0538597
265.546	1.2437
267.348	0.0117283
269.15	0.104475
270.951	0.485243
272.752	0.0685387
274.552	0.806854
276.353	-0.386097
278.152	0.539293
279.952	0.497276
281.751	0.33168
283.55	0.0431061
285.348	0.545599
287.146	0.685757
288.942	-0.469276
290.739	0.175524
292.536	-0.567169
294.333	-0.110613
296.129	0.132376
297.925	-0.22077
299.721	0.741062
301.516	-0.208835
303.311	-0.681902
305.106	0.537909
306.9	0.347675
308.694	0.0379772
310.486	-0.580462
312.279	0.946774
314.072	0.356366
315.864	0.864152
317.656	0.231611
319.448	0.458632
321.24	0.42535
323.029	-0.20309
324.819	0.480719
326.61	0.0671024
328.4	0.632065
330.19	0.192529
331.977	0.970387
333.766	-0.0483084
335.555	-0.640056
337.343	0.463667
339.131	0.630733
340.917	0.484236
342.704	-0.0698881
344.491	0.738177
346.277	-0.0301609
348.062	-0.486697
349.848	0.752599
351.633	-0.467063
353.416	-0.136084
355.201	-0.0454674
356.986	0.424508
358.77	0.224614
360.552	0.0469007
362.335	0.320068
364.118	0.0684376
365.899	0.528729
367.682	-0.0337238
369.464	-0.43052
371.243	-0.0699224
373.025	0.265063
374.806	-0.299438
376.585	1.23819
378.365	-0.528085
380.143	0.325277
381.923	0.519691
383.702	-0.672084
385.479	-0.191591
387.258	-0.226843
389.034	0.162271
390.812	-0.222486
392.59	0.47423
394.365	0.608069
396.142	-0.0091095
397.916	0.641937
399.693	0.188789
401.467	0.251574
403.242	0.407278
405.015	0.561714
406.79	0.362642
408.565	-0.166086
410.337	0.900935
412.111	0.0196047
413.882	0.312302
415.656	-0.379569
417.426	0.806748
419.197	-0.164825
420.969	0.224936
422.739	-0.0429382
424.51	0.274933
426.279	0.779164
428.05	0.155189
429.819	-0.0470343
431.589	-0.0146675
433.356	0.675177
435.124	-0.207035
436.893	0.412687
438.66	0.679231
440.428	0.1691
442.194	0.570957
443.96	-0.0389977
445.727	0.496835
447.492	-0.280846
449.259	-0.37984
451.023	0.0820789
452.787	-0.576924
454.553	0.887966
456.316	0.812173
458.079	0.503295
459.844	-0.247258
461.606	0.469163
463.368	0.652375
465.132	0.513712
466.893	-0.108602
468.654	0.481411
470.415	0.446844
472.177	1.48356
473.937	0.471375
475.696	0.689947
477.456	0.648973
479.217	0.837982
480.975	0.908835
482.733	0.863334
484.491	0.237268
486.251	0.615579
488.008	0.764294
489.765	1.33615
491.522	1.25689
493.278	1.41216
495.036	0.281775
496.791	0.951506
498.546	1.1768
500.301	1.19067
502.056	0.710604
503.81	0.275321
505.566	0.683786
507.319	1.09055
509.073	1.47167
510.825	1.21506
512.578	0.673421
514.33	0.599998
516.082	1.0655
517.833	0.117747
519.587	0.344481
521.337	-0.158575
523.088	1.0524
524.838	0.876887
526.588	1.02987
528.337	1.18268
530.087	1.31167
531.835	0.807441
533.584	0.723834
535.332	0.0771198
537.08	0.808105
538.827	0.648319
540.574	0.696853
542.321	0.34797
544.068	0.511075
545.814	1.32427
547.56	0.46471
549.305	1.18385
551.05	0.00284672
552.795	0.23565
554.54	0.699249
556.284	0.816002
558.027	0.541046
559.771	0.774182
561.514	0.731501
563.257	0.413726
564.999	0.533998
566.742	0.494263
568.481	0.180284
570.223	0.877855
571.964	0.269388
573.705	-0.0840492
575.445	0.253346
577.185	0.295071
578.925	1.11935
580.665	0.567555
582.402	0.383045
584.141	0.61135
585.879	0.654258
587.617	0.0510979
589.355	-0.0479946
591.092	0.242592
592.828	-0.134877
594.564	1.30494
596.301	0.375042
598.037	-0.485889
599.773	0.0560408
601.506	0.458622
603.242	0.238137
604.976	-0.030447
606.711	0.135777
608.443	0.782796
610.177	0.281228
611.91	-0.15028
613.644	0.405671
615.374	0.0454588
617.107	-0.130955
618.839	-1.15536
620.569	0.612262
622.3	0.431455
624.032	-0.161978
625.761	0.341874
627.491	0.800959
629.221	0.304172
630.949	-0.0289993
632.679	0.508076
634.408	0.0655718
636.135	0.124691
637.863	0.0442781
639.592	0.393424
641.318	0.25872
643.045	0.09758
644.77	0.0713778
646.497	0.932729
648.224	-0.113811
649.948	0.117929
651.674	1.03704
653.398	0.962652
655.123	0.438618
656.846	0.919174
658.57	-0.01091
660.293	-0.0992708
662.017	0.951778
663.738	1.13239
665.462	0.669117
667.185	0.591251
668.905	0.786578
670.628	1.21175
672.348	0.473191
674.067	0.562051
675.789	0.471072
677.508	0.61137
679.228	-0.028636
680.947	0.662037
682.667	0.522878
684.385	-0.172232
686.104	0.625812
687.821	0.270211
689.538	0.235312
691.256	0.775145
692.972	0.0471077
694.69	1.13756
696.406	1.46622
698.121	1.0561
699.837	0.78231
701.552	0.897931
703.268	0.965899
704.982	0.757048
706.695	0.685371
708.41	1.04881
710.123	1.52564
711.836	1.29137
713.55	1.51443
715.262	1.21117
716.973	1.15952
718.685	1.51871
720.398	1.05703
722.108	1.07465
723.818	0.637279
725.53	0.49598
727.24	1.26304
728.949	1.02959
730.658	0.977233
732.369	0.516673
734.077	1.07488
735.785	1.2026
737.493	0.991933
739.2	1.23393
740.909	1.00365
742.616	1.60913
744.322	1.49563
746.028	1.22703
747.734	0.938377
749.441	1.97904
751.146	1.08737
752.851	1.09749
754.555	0.659849
756.26	1.93467
757.963	1.68203
759.667	1.40898
761.372	1.18252
763.075	1.22738
764.777	1.72355
766.479	0.750026
768.181	1.96539
769.883	2.16064
771.584	1.87773
773.285	1.02718
774.986	1.14826
776.686	1.85801
778.386	1.77847
780.085	1.74661
781.785	1.73922
783.484	1.77742
785.182	1.38384
786.881	2.00525
788.579	1.91991
790.276	1.80676
791.974	2.09621
793.671	1.56963
795.367	1.02101
797.064	1.30868
798.76	1.71105
800.456	1.62063
802.151	1.6901
803.846	1.31087
805.541	1.38137
807.236	1.78761
808.93	1.27089
810.624	2.34631
812.317	1.6696
814.01	2.29258
815.703	1.83956
817.394	1.0294
819.086	1.87453
820.778	1.78066
822.47	2.06688
824.161	0.815504
825.852	2.10822
827.543	2.57895
829.231	1.33921
830.921	2.1979
832.611	2.2373
834.3	2.2357
835.989	1.83438
837.676	1.8787
839.364	2.09993
841.053	0.866919
842.74	1.84304
844.426	1.65677
846.113	1.29268
847.8	1.62428
849.486	1.75877
851.171	1.53924
852.857	1.45694
854.542	1.33118
856.227	1.31729
857.911	1.48156
859.595	1.19352
861.279	0.902241
862.961	1.44168
864.645	1.12318
866.329	0.622683
868.01	1.00038
869.692	1.44522
871.375	0.942341
873.055	1.18354
874.737	1.2442
876.418	0.560226
878.097	1.47861
879.778	1.38133
881.457	1.01261
883.137	1.32002
884.817	1.33226
886.495	1.47773
888.174	1.75598
889.851	1.26472
891.53	0.749075
893.206	1.29055
894.884	1.01925
896.562	0.679304
898.237	1.48381
899.914	0.445681
901.589	0.304955
903.265	0.723116
904.94	0.536577
906.615	0.752626
908.289	0.835424
909.964	0.91942
911.637	0.537552
913.31	-0.0646687
914.984	0.733673
916.656	-0.0443325
918.33	0.486618
920.001	0.175425
921.674	-0.333454
923.345	0.70756
925.015	-0.105919
926.687	0.93899
928.357	0.352478
930.028	1.13642
931.698	0.597441
933.366	1.49302
935.037	0.447651
936.705	0.594202
938.373	-0.27239
940.043	1.00228
941.71	1.13215
943.379	0.380697
945.046	0.0480862
946.712	1.06024
948.378	-0.071516
950.046	0.736204
951.711	1.10034
953.376	0.471865
955.043	-0.242088
956.708	-0.665112
958.372	0.0194569
960.036	-0.0414619
961.701	-0.0558052
963.364	0.526575
965.027	0.310934
966.69	0.378641
968.354	0.973045
970.016	0.0596485
971.678	1.0474
973.339	0.155756
975	0.305908
976.661	1.2109
978.324	1.12329
979.984	0.904024
981.644	0.684086
983.303	1.61315
984.962	1.74217
986.621	1.73489
988.282	1.28209
989.94	0.562292
991.598	0.92515
993.256	0.337585
994.913	0.170301
996.57	0.599102
998.227	1.13767
999.884	1.19049
1001.54	1.02242
1003.2	0.985952
1004.85	0.531206
1006.51	0.362627
1008.16	1.00702
1009.82	0.883022
1011.47	1.63714
1013.12	1.42681
1014.78	0.998383
1016.43	0.396032
1018.08	1.17365
1019.74	1.36139
1021.39	1.72567
1023.04	0.998785
1024.69	1.12616
1026.34	0.161936
1028	0.967844
1029.65	1.55409
1031.3	1.22081
1032.95	0.863325
1034.6	1.00533
1036.25	1.25391
1037.9	1.17399
1039.55	1.28997
1041.19	2.05941
1042.84	1.4824
1044.49	1.148
1046.14	1.85971
1047.79	1.24967
1049.43	1.51123
1051.08	0.927923
1052.73	1.47552
1054.37	1.06792
1056.02	0.964478
1057.66	0.838835
1059.31	0.690651
1060.95	0.954576
1062.6	1.10856
1064.24	1.19582
1065.88	1.10744
1067.53	1.21292
1069.17	0.773586
1070.81	0.898182
1072.46	-0.0628624
1074.1	0.518229
1075.74	1.3175
1077.38	1.29454
1079.02	0.406336
1080.66	0.191734
1082.3	-0.239643
1083.94	-0.000110626
1085.58	-0.00156784
1087.22	1.16386
1088.86	0.83053
1090.5	0.927547
1092.14	0.741421
1093.78	0.662806
1095.42	0.51993
1097.05	1.52114
1098.69	0.239819
1100.33	0.599127
1101.97	0.186552
1103.6	0.551588
1105.24	-0.0707722
1106.87	0.318844
1108.51	0.4499
1110.15	0.385727
1111.78	0.620016
1113.41	0.357424
1115.05	0.221958
1116.68	0.321701
1118.31	0.485817
1119.95	0.736523
1121.58	0.00363541
1123.21	0.771381
1124.85	1.90389
1126.48	0.705835
1128.11	1.22044
1129.74	0.816704
1131.37	0.371294
1133	0.631954
1134.63	0.550392
1136.26	0.168665
1137.89	1.0675
1139.52	-0.108044
1141.15	0.295687
1142.78	0.0794067
1144.41	0.460749
1146.04	-0.0525169
1147.66	0.245977
1149.29	-0.391705
1150.92	0.143242
1152.55	-0.152504
1154.17	-0.129259
1155.8	0.19133
1157.43	-0.0629082
1159.05	-0.124981
1160.68	0.154564
1162.3	0.0318298
1163.93	0.017046
1165.55	0.555923
1167.17	-0.372616
1168.8	0.0792561
1170.42	-0.151787
1172.05	-0.151964
1173.67	-0.579505
1175.29	0.497955
1176.91	0.576591
1178.54	0.380066
1180.16	-0.153708
1181.78	0.287733
1183.4	-0.0313435
1185.02	-1.17399
1186.64	0.470737
1188.26	-0.0626717
1189.88	0.708632
1191.5	1.09622
1193.12	-0.538049
1194.74	0.224352
1196.36	1.06853
1197.97	0.802231
1199.59	0.413971
1201.21	-0.283083
1202.83	-0.160564
1204.44	0.320663
1206.06	-0.154778
1207.68	0.519478
1209.29	0.297113
1210.91	-0.0723858
1212.52	-0.152376
1214.14	1.18128
1215.75	-0.0723915
1217.37	-0.0161781
1218.98	0.786442
1220.6	1.17201
1222.21	0.769882
1223.82	0.950705
1225.44	0.864555
1227.05	1.07071
1228.66	1.67195
1230.27	1.46849
1231.88	1.06047
1233.49	1.27465
1235.1	1.16016
1236.72	2.22582
1238.33	1.53633
1239.94	1.81957
1241.55	1.95852
1243.16	1.47637
1244.76	2.35843
1246.37	2.05947
1247.98	1.86225
1249.59	1.85
1251.2	2.25098
1252.8	1.92825
1254.41	1.75158
1256.02	2.48682
1257.63	2.06584
1259.23	2.53646
1260.84	2.09812
1262.44	2.63355
1264.05	2.21655
1265.66	2.52388
1267.26	2.49852
1268.87	3.07277
1270.47	2.0903
1272.07	3.38674
1273.68	2.77386
1275.28	2.28381
1276.88	3.13936
1278.48	3.10219
1280.09	3.14678
1281.69	2.71478
1283.29	2.63503
1284.89	2.5356
1286.49	3.51275
1288.09	2.94113
1289.69	4.14857
1291.3	4.24086
1292.9	3.11399
1294.49	4.21721
1296.09	3.4176
1297.69	2.5951
1299.29	3.3592
1300.89	3.21252
1302.49	4.01144
1304.09	3.24315
1305.68	3.17409
1307.28	3.84362
1308.88	2.35709
1310.47	3.27149
1312.07	3.07912
1313.66	2.92936
1315.26	3.45591
1316.86	3.30949
1318.45	3.08272
1320.05	3.32501
1321.64	2.99503
1323.23	3.02934
1324.83	2.97929
1326.42	3.25175
1328.01	3.1576
1329.61	2.70015
1331.2	2.87344
1332.79	3.2522
1334.38	2.84683
1335.98	2.9291
1337.57	2.85093
1339.16	3.17492
1340.75	2.75041
1342.34	3.0877
1343.93	2.95857
1345.52	2.52669
1347.11	2.13611
1348.7	2.95097
1350.29	2.66775
1351.87	2.84931
1353.46	2.71434
1355.05	2.3019
1356.64	2.30996
1358.23	2.63695
1359.81	2.32315
1361.4	2.86608
1362.99	1.59175
1364.57	1.79356
1366.16	2.77256
1367.74	1.68079
1369.33	1.8261
1370.91	1.41638
1372.5	1.98404
1374.08	1.9764
1375.67	2.16884
1377.25	1.96351
1378.83	1.89667
1380.42	2.56439
1382	1.97648
1383.58	2.38105
1385.16	2.16745
1386.75	2.21154
1388.33	1.30266
1389.91	2.55919
1391.49	2.16933
1393.07	1.60248
1394.65	2.04802
1396.23	2.21549
1397.81	2.14383
1399.39	1.97151
1400.97	1.59973
1402.55	1.40553
1404.13	2.53696
1405.7	1.49297
1407.28	2.8231
1408.86	2.51373
1410.44	1.81037
1412.01	2.03548
1413.59	1.8647
1415.17	1.45583
1416.74	1.73623
1418.32	1.58206
1419.89	1.90133
1421.47	1.90693
1423.05	2.01344
1424.62	2.22097
1426.19	2.50926
1427.77	2.73943
1429.34	2.4771
1430.92	3.11866
1432.49	3.60067
1434.06	4.17911
1435.63	3.96973
1437.2	2.97435
1438.78	3.39596
1440.35	3.89774
1441.92	3.7722
1443.49	3.74616
1445.06	4.56591
1446.63	4.5409
1448.2	4.33921
1449.77	4.39353
1451.34	3.6032
1452.91	4.48515
1454.48	5.21078
1456.05	4.55937
1457.62	4.41823
1459.18	3.99926
1460.75	4.04961
1462.32	3.56547
1463.89	3.6688
1465.45	3.10186
1467.02	2.77061
1468.59	2.65625
1470.15	2.38643
1471.72	2.72676
1473.28	2.51946
1474.85	2.25471
1476.41	1.95148
1477.98	1.96216
1479.54	1.75711
1481.11	1.29715
1482.67	1.64063
1484.23	1.57231
1485.8	1.30758
1487.36	0.86552
1488.92	0.715456
1490.48	1.18895
1492.05	1.73669
1493.61	0.639351
1495.17	0.965868
1496.73	0.822306
1498.29	0.581421
1499.85	1.62464
1501.41	1.07518
1502.97	0.606265
1504.53	1.05021
1506.09	1.2421
1507.65	0.89121
1509.2	0.925851
1510.76	1.20952
1512.32	1.06716
1513.88	0.173953
1515.44	1.5322
1516.99	1.02575
1518.55	1.42294
1520.1	1.26469
1521.66	0.647858
1523.22	1.25518
1524.77	1.45899
1526.33	1.87048
1527.88	1.63199
1529.44	1.43131
1530.99	1.45896
1532.55	1.27873
1534.1	1.66843
1535.65	1.51026
1537.21	2.18525
1538.76	1.7652
1540.31	1.70485
1541.86	2.07806
1543.42	2.20572
1544.97	2.14477
1546.52	2.38411
1548.07	1.96596
1549.62	1.81101
1551.17	2.44308
1552.72	2.66316
1554.27	2.54792
1555.82	2.92067
1557.37	2.39987
1558.92	3.26343
1560.47	3.47676
1562.02	3.13312
1563.57	2.94058
1565.11	2.65564
1566.66	3.3225
1568.21	3.37324
1569.75	4.02062
1571.3	3.80873
1572.85	3.4283
1574.39	4.14895
1575.94	4.8883
1577.49	3.49984
1579.03	4.55763
1580.58	3.45072
1582.12	3.14777
1583.67	4.19109
1585.21	2.63867
1586.75	3.25455
1588.3	3.51578
1589.84	4.00141
1591.38	3.60686
1592.93	4.09129
1594.47	3.62022
1596.01	3.80466
1597.55	4.83327
1599.09	4.25129
1600.63	4.19523
1602.18	3.50175
1603.72	3.3333
1605.26	3.68962
1606.8	3.91238
1608.34	3.71845
1609.87	3.25755
1611.41	2.54878
1612.95	2.70131
1614.49	2.92666
1616.03	3.43232
1617.57	3.09455
1619.11	3.4709
1620.64	2.81931
1622.18	3.12517
1623.72	2.96419
1625.25	3.64566
1626.79	3.05303
1628.32	3.52504
1629.86	3.67644
1631.4	3.32131
1632.93	3.8811
1634.47	3.61933
1636	3.11658
1637.53	3.92123
1639.07	3.64499
1640.6	3.44354
1642.14	3.85602
1643.67	3.44701
1645.2	4.09715
1646.73	4.20559
1648.27	3.62578
1649.8	3.67871
1651.33	3.26919
1652.86	4.12333
1654.39	4.5707
1655.92	4.27746
1657.45	4.00282
1658.98	4.41238
1660.51	3.09776
1662.04	3.83582
1663.57	3.64664
1665.1	4.34333
1666.63	3.12009
1668.16	3.1913
1669.69	3.43064
1671.21	2.80615
1672.74	3.43633
1674.27	3.31189
1675.79	2.81893
1677.32	3.04279
1678.85	3.13596
1680.37	2.36319
1681.9	2.21486
1683.42	2.1947
1684.95	1.82598
1686.47	1.69661
1688	1.80629
1689.52	1.29357
1691.05	1.7155
1692.57	1.07567
1694.1	1.68017
1695.62	1.07718
1697.14	1.02259
1698.66	1.18667
1700.19	1.16742
1701.71	0.472612
1703.23	0.725627
1704.75	1.23239
1706.27	0.755104
1707.79	0.478167
1709.32	0.691962
1710.83	0.796588
1712.35	0.665528
1713.88	0.389942
1715.39	0.893297
1716.91	0.853068
1718.43	0.884977
1719.95	0.24857
1721.47	0.623808
1722.99	0.404243
1724.5	0.0782394
1726.02	0.600691
1727.54	0.512489
1729.06	0.389705
1730.57	0.357726
1732.09	0.14865
1733.61	0.0665693
1735.12	0.316961
1736.64	0.0678024
1738.15	0.579255
1739.67	0.577822
1741.18	0.391261
1742.7	-0.239832
1744.21	0.44545
1745.72	0.538456
1747.24	0.432433
1748.75	0.0872488
1750.26	-0.20981
1751.78	0.940251
1753.29	0.38988
1754.8	0.185461
1756.31	-0.0281048
1757.82	0.191206
1759.34	0.201983
1760.85	0.282346
1762.36	-0.0460281
1763.87	-0.50478
1765.38	0.425968
1766.89	-0.0109453
1768.4	-0.120554
1769.91	0.22452
1771.41	-0.0643759
1772.92	0.237526
1774.43	-0.0671616
1775.94	0.0618467
1777.45	0.41402
1778.96	-0.0275164
1780.46	0.38405
1781.97	-0.033823
1783.48	-0.116165
1784.98	0.0830498
1786.49	0.0381937
1788	0.273013
1789.5	-0.111318
1791.01	0.0382957
1792.51	0.0172167
1794.01	-0.0316916
1795.52	0.493207
1797.02	0.0873718
1798.53	-0.0395308
1800.03	0.290805
1801.54	0.190097
1803.04	-0.327242
1804.54	0.170976
1806.04	0.491704
1807.54	0.0448351
1809.05	0.198542
1810.55	0.181259
1812.05	-0.149635
1813.55	-0.0615873
1815.05	-0.213247
1816.55	0.107895
1818.05	0.0216532
1819.55	0.192966
1821.05	-0.134439
1822.55	0.346281
1824.05	-0.15133
1825.55	-0.15364
1827.05	-0.0450439
1828.55	0.0625
1830.04	-0.0252762
1831.54	0.0335503
1833.04	0.217381
1834.54	0.235077
1836.03	0.24717
1837.53	-0.119231
1839.03	-0.179756
1840.52	0.0973721
1842.02	0.0726824
1843.51	0.131273
1845.01	0.172597
1846.5	0.119262
1848	0.0661745
1849.49	0.598889
1850.99	0.0821009
1852.48	-0.0357685
1853.97	-0.326509
1855.47	0.119561
1856.96	0.15658
1858.45	-0.0184784
1859.94	-0.108204
1861.44	0.393661
1862.93	0.516057
1864.42	0.124238
1865.91	-0.546996
1867.4	-0.0740242
1868.89	-0.121314
1870.38	-0.413764
1871.87	-0.0346823
1873.36	0.0955086
1874.85	0.137337
1876.34	-0.305677
1877.83	-0.0512686
1879.32	0.103069
1880.81	0.196494
1882.3	0.509545
1882.56	0.575889
1884.06	-0.052145
1885.55	0.242815
1887.04	0.379622
1888.54	0.324144
1890.03	0.0775986
1891.52	-0.219633
1893.02	0.302479
1894.51	0.235657
1896	0.483766
1897.49	0.385176
1898.99	0.547283
1900.48	-0.492321
1901.97	-0.142285
1903.46	-0.159795
1904.95	0.0816545
1906.44	0.321874
1907.93	-0.0633297
1909.42	-0.117623
1910.91	-0.118668
1912.4	0.488523
1913.89	0.0555515
1915.38	0.160373
1916.86	0.455406
1918.35	0.212288
1919.84	-0.117905
1921.33	0.158221
1922.82	0.0191221
1924.3	0.279376
1925.79	-0.0129538
1927.28	0.111532
1928.76	0.0809946
1930.25	-0.434503
1931.74	-0.0679064
1933.22	0.0890379
1934.71	0.36482
1936.19	0.240281
1937.67	0.321838
1939.16	0.696423
1940.64	0.432034
1942.13	0.151805
1943.61	0.304425
1945.09	0.630457
1946.58	-0.249976
1948.06	0.0416861
1949.54	0.00487423
1951.03	0.190654
1952.51	0.0481129
1953.99	0.145754
1955.47	-0.0317717
1956.95	-0.431818
1958.43	-0.281364
1959.91	-0.0272598
1961.39	0.278712
1962.87	-0.152347
1964.35	0.204796
1965.83	-0.0726509
1967.31	0.487942
1968.79	-0.0989752
1970.27	0.0832987
1971.75	0.179565
1973.22	0.821773
1974.7	-0.00359154
1976.18	0.177992
1977.66	-0.100327
1979.13	0.0813904
1980.61	-0.111395
1982.09	0.32477
1983.56	0.352275
1985.04	-0.31661
1986.52	0.40591
1987.99	0.161332
1989.47	0.137662
1990.94	0.0302677
1992.41	-0.0250788
1993.89	0.0730219
1995.36	0.104464
1996.84	0.356036
1998.31	0.52293
1999.78	0.402128
2001.26	-0.208735
2002.73	0.310387
2004.2	-0.0983582
2005.67	-0.118736
2007.15	0.316588
2008.62	0.0119362
2010.09	0.466095
2011.56	0.129613
2013.03	0.146715
2014.5	0.583961
2015.97	0.178791
2017.44	0.142695
2018.91	-0.0289068
2020.38	0.286228
2021.85	0.113854
2023.32	0.563118
2024.79	0.392224
2026.25	0.22298
2027.72	0.458156
2029.19	0.0411053
2030.66	-0.223405
2032.13	0.503225
2033.59	1.14701
2035.06	0.111857
2036.53	-0.202134
2037.99	0.205566
2039.46	-0.04251
2040.92	0.768286
2042.39	0.217989
2043.85	0.425236
2045.32	0.347735
2046.78	0.540507
2048.25	0.329573
2049.71	0.353932
2051.18	0.528726
2052.64	0.212523
2054.1	0.720316
2055.56	0.61869
2057.03	0.127605
2058.49	-0.465224
2059.95	0.6266
2061.42	0.775228
2062.88	0.706018
2064.34	0.924273
2065.8	0.622124
2067.26	0.236927
2068.72	0.643471
2070.18	0.882176
2071.64	0.447598
2073.1	1.30921
2074.56	0.924534
2076.02	0.404633
2077.48	0.860958
2078.94	0.777868
2080.39	0.744688
2081.85	0.879139
2083.31	1.2988
2084.77	0.94316
2086.22	1.20916
2087.68	0.667032
2089.14	1.03236
2090.6	1.95135
2092.05	1.39191
2093.51	1.05107
2094.96	1.24687
2096.42	1.30767
2097.87	1.83643
2099.33	1.40962
2100.78	1.88604
2102.24	1.66025
2103.69	1.48606
2105.15	1.59758
2106.6	2.04459
2108.05	1.6422
2109.51	1.69068
2110.96	1.87171
2112.41	2.16734
2113.86	1.99394
2115.32	2.31765
2116.77	1.89146
2118.22	2.6956
2119.67	2.0067
2121.12	2.54903
2122.57	2.86161
2124.02	2.82801
2125.47	3.16016
2126.92	3.07733
2128.37	2.31335
2129.82	3.22137
2131.27	2.9176
2132.72	3.05988
2134.17	3.30122
2135.62	3.54355
2137.06	3.68883
2138.51	3.10983
2139.96	3.12873
2141.41	2.90216
2142.85	3.9836
2144.3	3.89232
2145.75	4.08252
2147.19	4.12337
2148.64	4.49447
2150.09	4.40048
2151.53	4.23853
2152.97	3.90925
2154.42	4.12545
2155.86	4.22492
2157.31	4.17542
2158.75	4.95534
2160.2	4.82641
2161.64	4.98208
2163.08	4.67676
2164.53	5.10358
2165.97	4.51963
2167.41	4.566
2168.86	4.71043
2170.3	4.86868
2171.74	4.59099
2173.18	5.04203
2174.62	4.67568
2176.06	4.35841
2177.5	4.62355
2178.94	5.17251
2180.38	4.37643
2181.82	4.54604
2183.26	4.66677
2184.7	4.02287
2186.14	4.59329
2187.58	3.59986
2189.02	4.3203
2190.46	3.67604
2191.89	3.63046
2193.33	3.99996
2194.77	3.768
2196.21	3.98266
2197.64	3.82799
2199.08	3.305
2200.52	4.04388
2201.95	3.86833
2203.39	3.61115
2204.83	2.90832
2206.26	3.26842
2207.7	3.47992
2209.13	3.17759
2210.57	2.94056
2212	2.40455
2213.43	2.51283
2214.87	2.68683
2216.3	2.79549
2217.73	2.22933
2219.17	2.16019
2220.6	2.78472
2222.03	2.63443
2223.47	2.63145
2224.9	2.34649
2226.33	2.25685
2227.76	2.23072
2229.19	1.71011
2230.62	2.17382
2232.05	2.22655
2233.49	1.57576
2234.91	1.00916
2236.34	1.65411
2237.77	1.71252
2239.2	1.41455
2240.63	2.09824
2242.06	1.57731
2243.49	1.53112
2244.92	1.73006
2246.35	1.2267
2247.78	0.933298
2249.2	1.45231
2250.63	1.03917
2252.06	1.47072
2253.48	1.28245
2254.91	1.51737
2256.34	1.2669
2257.76	0.938815
2259.19	1.06897
2260.61	1.0732
2262.04	1.32415
2263.46	0.538031
2264.89	0.905191
2266.31	1.04464
2267.74	1.24824
2269.16	0.848623
2270.59	0.984923
2272.01	0.583297
2273.43	0.327859
2274.85	1.04982
2276.28	1.54429
2277.7	1.20804
2279.12	0.561957
2280.54	0.942789
2281.97	0.948502
2283.39	1.00306
2284.81	0.486544
2286.23	0.835177
2287.65	0.906922
2289.07	0.26061
2290.49	0.578402
2291.91	0.618921
2293.33	0.332533
2294.75	0.89668
2296.17	0.740981
2297.59	0.192068
2299.01	0.560193
2300.42	0.601087
2301.84	0.199646
2303.26	0.766135
2304.68	0.266452
2306.1	0.685873
2307.51	0.332977
2308.93	0.34072
2310.35	0.265515
2311.76	0.633896
2313.18	0.903747
2314.59	0.894506
2316.01	0.22756
2317.43	0.285878
2318.84	0.163483
2320.26	0.452988
2321.67	-0.0341797
2323.08	0.136204
2324.5	0.732808
2325.91	0.270403
2327.33	0.39992
2328.74	0.0174847
2330.15	0.442816
2331.56	-0.0530853
2332.98	0.489618
2334.39	0.457212
2335.8	0.852838
2337.21	0.244452
2338.62	0.0626659
2340.04	-0.0710764
2341.45	-0.452137
2342.86	0.709296
2344.27	0.0488071
2345.68	0.127032
2347.09	-0.00740242
2348.5	0.447639
2349.91	0.100057
2351.31	0.503915
2352.72	-0.0577316
2354.13	0.179988
2355.54	0.237092
2356.95	0.0982828
2358.36	-0.202887
2359.76	-0.357045
2361.17	0.706471
2362.58	0.567994
2363.98	0.478268
2365.39	0.226881
2366.8	-0.0722017
2368.21	0.29201
2369.61	0.0761633
2371.02	0.442593
2372.42	0.0530882
2373.83	-0.334782
2375.23	-0.480425
2376.64	-0.0954676
2378.04	0.25561
2379.44	0.154378
2380.85	-0.237694
2382.25	-0.0213461
2383.66	0.417611
2385.06	0.263396
2386.46	0.14204
2387.86	0.02209
2389.26	-0.0164165
2390.67	-0.00551701
2392.07	0.213774
2393.47	0.338595
2394.87	-0.0445852
2396.27	0.12985
2397.67	0.0506678
2399.07	-0.202536
2400.47	0.466358
2401.87	0.468314
2403.27	0.216225
2404.67	0.011385
2406.07	-0.0674429
2407.47	-0.0204058
2408.87	0.21594
2410.27	0.356542
2411.67	0.148751
2413.07	0.369762
2414.46	-0.0093689
2415.86	0.262497
2417.26	0.298551
2418.66	-0.408461
2420.05	0.452592
2421.45	0.22084
2422.84	0.194514
2424.24	0.199538
2425.64	0.125415
2427.03	0.0677652
2428.43	-0.0205355
2429.82	0.00327873
2431.22	0.583326
2432.61	0.640215
2434.01	0.283538
2435.4	-0.26545
2436.79	0.184528
2438.19	0.489655
2439.58	0.72952
2440.97	0.412287
2442.37	-0.143526
2443.76	0.490826
2445.15	0.252072
2446.54	0.599933
2447.93	0.360969
2449.33	0.613242
2450.72	0.153103
2452.11	0.374574
2453.5	0.0114412
2454.89	0.108311
2456.28	-0.221098
2457.67	0.0668087
2459.06	0.0855894
2460.45	0.0878334
2461.84	0.389475
2463.23	0.13676
2464.62	-0.385077
2466	0.403916
2467.39	0.150284
2468.78	0.37015
2470.17	-0.340913
2471.55	0.382556
2472.94	-0.0613699
2474.33	-0.0648823
2475.72	0.151038
2477.1	0.0832548
2478.49	0.172566
2479.87	-0.0518904
2481.26	0.22595
2482.65	0.236923
2484.03	0.169011
2485.42	-0.0875559
2486.8	-0.110653
2488.19	0.0990276
2489.57	0.22936
2490.95	0.0167904
2492.34	0.240642
2493.72	-0.264445
2495.1	0.380998
2496.49	0.313916
2497.87	0.449349
2499.25	0.0586643
2500.63	0.132104
2502.02	-0.135548
2503.4	0.522491
2504.78	-0.179248
2506.16	-0.00201607
2507.54	0.38999
2508.92	0.181735
2510.3	0.0205355
2511.68	0.259334
2513.06	-0.620287
2514.44	-0.0577393
2515.82	-0.107189
2517.2	-0.568656
2518.58	-0.417447
2519.96	0.283899
2521.34	-0.0390902
2522.72	0.38537
2524.1	-0.259451
2525.47	0.101682
2526.85	0.233497
2528.23	0.426479
2529.6	0.103603
2530.98	0.284582
2532.36	0.254815
2533.74	0.120394
2535.11	-0.256233
2536.49	-0.0708017
2537.86	-0.0381279
2539.24	0.388235
2540.61	0.0997419
2541.99	0.327023
2543.36	-0.279966
2544.74	-0.203017
2546.11	0.0573959
2547.49	0.440652
2548.86	0.354737
2550.23	0.101929
2551.61	0.212665
2552.98	0.443678
2554.35	0.127068
2555.72	0.401141
2557.09	0.113191
2558.47	0.537908
2559.84	-0.295479
2561.21	0.690886
2562.58	0.101695
2563.95	0.225534
2565.32	0.289276
2566.69	-0.0710135
2568.06	0.235602
2569.43	0.269438
2570.8	-0.0908051
2572.17	0.185575
2573.54	0.158906
2574.91	-0.0495758
2576.28	0.181605
2577.65	0.473365
2579.02	0.29481
2580.39	0.0399818
2581.75	0.0879011
2583.12	0.271804
2584.49	0.167339
2585.85	0.275038
2587.22	-0.238565
2588.59	0.0362148
2589.95	0.477784
2591.32	-0.247707
2592.68	-0.47362
2594.05	0.163044
2595.42	-0.0196466
2596.78	-0.127767
2598.15	0.232227
2599.51	0.621577
2600.88	-0.00175762
2602.24	-0.170743
2603.6	0.189557
2604.97	-0.113707
2606.33	0.00581741
2607.69	0.426406
2609.06	0.00155258
2610.42	0.0877895
2611.78	0.608714
2613.14	-0.105687
2614.51	-0.399069
2615.87	0.0130882
2617.23	0.289772
2618.59	-0.00242805
2619.95	-0.143537
2621.31	-0.0891848
2622.67	-0.153831
2624.03	-0.143476
2625.39	0.12045
2626.75	0.07055
2628.11	0.020298
2629.47	-0.119595
2630.83	-0.0363693
2632.19	0.388486
2633.55	0.0104799
2634.91	-0.470855
2636.26	0.353552
2637.62	-0.142183
2638.98	0.621425
2640.34	-0.25815
2641.69	0.0170021
2643.05	0.173893
2644.41	0.0650196
2645.76	0.192224
2647.12	-0.226703
2648.48	0.0317183
2649.83	0.0532331
2651.19	0.0738573
2652.54	-0.140908
2653.9	0.231848
2655.25	0.15044
2656.6	-0.134533
2657.96	0.153079
2659.31	-0.187595
2660.67	0.0281477
2662.02	0.185012
2663.37	-0.418542
2664.73	-0.14656
2666.08	0.153291
2667.43	0.408352
2668.78	0.22604
2670.14	-0.290289
2671.49	0.270671
2672.84	0.0906105
2674.19	0.289075
2675.54	-0.223179
2676.89	0.107183
2678.24	-0.0550299
2679.59	0.566836
2680.94	0.0879488
2682.29	-0.157473
2683.64	-0.0825243
2684.99	0.00809288
2686.34	0.0847855
2687.69	-0.158042
2689.04	-0.184659
2690.39	0.120593
2691.74	0.104226
2693.08	0.36165
2694.43	0.414618
2695.78	-0.257309
2697.13	-0.174594
2698.47	0.0688763
2699.82	0.14052
2701.17	0.634224
2702.51	0.0146685
2703.86	0.308855
2705.21	-0.0194788
2706.55	0.261106
2707.9	0.0627394
2709.24	0.473409
2710.58	0.520837
2711.93	0.0595102
2713.27	0.353332
2714.62	0.545483
2715.96	0.345067
2717.3	0.391588
2718.65	0.0450068
2719.99	0.177979
2721.33	0.281321
2722.68	-0.023468
2724.02	-0.139666
2725.36	0.616929
2726.71	0.237701
2728.05	0.614908
2729.39	0.642467
2730.73	0.306063
2732.07	0.246107
2733.41	0.50629
2734.75	0.373894
2736.09	0.256299
2737.43	0.255214
2738.77	0.472225
2740.11	0.470743
2741.45	0.19238
2742.79	0.407551
2744.13	0.243873
2745.47	0.123094
2746.81	0.306824
2748.14	0.417574
2749.48	0.281614
2750.82	0.0879917
2752.16	0.271743
2753.49	0.339699
2754.83	0.581665
2756.17	0.316706
2757.5	0.240328
2758.84	0.540672
2760.18	0.465062
2761.51	0.144076
2762.85	0.127595
2764.18	0.140421
2765.52	-0.324253
2766.85	0.165393
2768.19	-0.0260859
2769.52	0.0412178
2770.86	0.106668
2772.19	-0.248448
2773.52	-0.171392
2774.86	0.0634441
2776.19	0.21139
2777.52	0.0860701
2778.86	-0.268456
2780.19	0.053525
2781.52	0.131311
2782.85	0.424345
2784.19	-0.100562
2785.52	-0.567479
2786.85	0.255459
2788.18	-0.0385036
2789.51	0.126628
2790.84	0.178299
2792.17	0.216587
2793.5	-0.0447779
2794.83	0.179917
2796.16	-0.410353
2797.49	-0.215349
2798.82	-0.0925589
2800.15	0.286486
2801.48	0.0799713
2802.81	-0.11234
2804.13	-0.304797
2805.46	0.100587
2806.79	0.00653839
2808.12	-0.201942
2809.45	0.484703
2810.77	0.0768795
2812.1	-0.0883541
2813.43	-0.01089
2814.75	-0.0876789
2816.08	0.0782919
2817.41	0.0329781
2818.73	-0.167542
2820.06	0.213043
2821.38	-0.0730867
2822.71	-0.0482273
2824.03	0.103366
2825.36	-0.18463
2826.68	0.391377
2828	0.231563
2829.33	0.327315
2830.65	0.267918
2831.98	0.265399
2833.3	0.390189
2834.62	0.910862
2835.94	0.977906
2837.27	1.12911
2838.59	1.46356
2839.91	1.38744
2841.23	1.69324
2842.55	1.92879
2843.87	2.15103
2845.2	2.51555
2846.52	3.05052
2847.84	3.35992
2849.16	3.45736
2850.48	3.83704
2851.8	3.77781
2853.12	3.4917
2854.44	3.37465
2855.76	2.9748
2857.08	3.95943
2858.39	3.87041
2859.71	3.47069
2861.03	4.22868
2862.35	4.12477
2863.67	4.5849
2864.98	4.93152
2866.3	5.09456
2867.62	4.89124
2868.94	5.63337
2870.25	5.93888
2871.57	6.23043
2872.88	6.56373
2874.2	6.68431
2875.52	6.91576
2876.83	6.91997
2878.15	6.55699
2879.46	7.16434
2880.78	7.15311
2882.09	6.91848
2883.41	6.43296
2884.72	6.65132
2886.03	6.5336
2887.35	6.90727
2888.66	6.91522
2889.97	7.00607
2891.29	6.9693
2892.6	6.56719
2893.91	7.15982
2895.22	6.92641
2896.54	6.80646
2897.85	7.58385
2899.16	6.97749
2900.47	7.42178
2901.78	7.75482
2903.09	7.76646
2904.4	8.11404
2905.71	8.2103
2907.02	8.39143
2908.33	8.40608
2909.64	8.53406
2910.95	9.04089
2912.26	9.44993
2913.57	8.91984
2914.88	9.85739
2916.19	9.91001
2917.5	10.3938
2918.81	10.344
2920.11	10.5877
2921.42	10.7906
2922.73	11.0793
2924.04	11.7479
2925.34	11.5099
2926.65	12.0138
2927.96	11.5952
2929.26	11.9029
2930.57	11.8881
2931.87	12.3337
2933.18	11.9542
2934.49	11.5747
2935.79	12.2158
2937.1	11.1661
2938.4	11.9614
2939.7	11.3878
2941.01	10.6475
2942.31	10.9567
2943.62	10.1918
2944.92	10.1279
2946.22	9.87017
2947.53	9.23548
2948.83	9.32773
2950.13	8.60614
2951.43	8.91766
2952.74	8.59608
2954.04	8.67837
2955.34	7.85022
2956.64	8.57735
2957.94	8.00606
2959.24	8.27897
2960.54	8.02426
2961.84	7.87064
2963.15	7.50757
2964.45	7.70468
2965.75	7.3379
2967.05	6.86985
2968.34	7.15863
2969.64	6.61677
2970.94	5.91981
2972.24	6.43292
2973.54	6.31359
2974.84	5.91268
2976.14	5.52473
2977.43	6.21903
2978.73	5.16484
2980.03	4.8123
2981.33	4.69734
2982.62	4.21605
2983.92	3.96065
2985.22	3.65082
2986.51	4.13021
2987.81	3.61399
2989.11	3.50671
2990.4	2.97823
2991.7	2.73016
2992.99	2.77588
2994.29	2.58107
2995.58	2.35681
2996.88	2.13182
2998.17	1.6823
2999.46	2.10324
3000.76	1.58518
3002.05	1.86728
3003.34	1.84156
3004.64	1.31176
3005.93	0.99207
3007.22	1.31582
3008.52	1.21854
3009.81	0.910546
3011.1	0.699905
3012.39	0.726474
3013.68	0.892594
3014.97	0.7106
3016.27	0.0980148
3017.56	0.642733
3018.85	0.617089
3020.14	0.341325
3021.43	0.482375
3022.72	0.344484
3024.01	0.275065
3025.3	0.704016
3026.59	0.314833
3027.88	0.452912
3029.16	-0.112799
3030.45	0.00125599
3031.74	0.117101
3033.03	0.248072
3034.32	0.600245
3035.6	0.772231
3036.89	0.390952
3038.18	0.283555
3039.47	0.586939
3040.75	0.447916
3042.04	0.212152
3043.33	0.744632
3044.61	0.907387
3045.9	0.388497
3047.18	0.378991
3048.47	0.440899
3049.75	0.464654
3051.04	0.708885
3052.32	0.708665
3053.61	0.640349
3054.89	0.530414
3056.18	1.16943
3057.46	0.62065
3058.74	1.07973
3060.03	0.35353
3061.31	0.472487
3062.59	0.470305
3063.88	0.891562
3065.16	0.308778
3066.44	0.353348
3067.72	0.344934
3069	0.568349
3070.29	0.206824
3071.57	0.184352
3072.85	0.0245752
3074.13	0.651977
3075.41	0.1637
3076.69	0.205337
3077.97	0.38335
3079.25	0.169294
3080.53	0.391481
3081.81	-0.170999
3083.09	0.000724792
3084.37	0.648434
3085.65	0.12951
3086.93	-0.0506363
3088.21	-0.340042
3089.49	0.0757217
3090.76	-0.241724
3092.04	0.119319
3093.32	0.168651
3094.6	0.449079
3095.87	-0.0971184
3097.15	-0.141227
3098.43	0.0994511
3099.7	-0.405163
3100.98	0.0252943
3102.26	-0.194196
3103.53	-0.101614
3104.81	0.221866
3106.08	0.19449
3107.36	0.195539
3108.63	0.198073
3109.91	0.147983
3111.18	0.302379
3112.46	0.823762
3113.73	0.465495
3115	0.215554
3116.28	0.317718
3117.55	0.473393
3118.83	0.438133
3120.1	0.591643
3121.37	0.229047
3122.64	0.435452
3123.92	0.248887
3125.19	0.767074
3126.46	0.284148
3127.73	0.749582
3129	0.593492
3130.27	0.870827
3131.55	0.729435
3132.82	0.696347
3134.09	0.528068
3135.36	0.616087
3136.63	0.85208
3137.9	0.885225
3139.17	0.94514
3140.44	1.35497
3141.71	0.89047
3142.98	1.01864
3144.24	1.65763
3145.51	1.18337
3146.78	1.24718
3148.05	1.52638
3149.32	1.05657
