200.43	0.265931
202.246	0.283778
204.061	0.302823
205.875	0.0310535
207.688	-0.531861
209.501	0.266098
211.316	-0.127871
213.129	0.278314
214.941	0.367533
216.753	-0.00446892
218.566	0.592948
220.377	0.294685
222.188	0.215488
223.999	-0.176955
225.809	0.180741
227.618	0.0551205
229.43	0.508792
231.239	-0.22114
233.047	-0.251098
234.855	-0.304785
236.663	-0.308982
238.471	0.460163
240.278	0.460599
242.087	-0.0428715
243.894	-0.183508
245.7	-0.348426
247.506	-0.0320969
249.311	0.233413
251.116	0.278418
252.921	-0.0897646
254.725	0.529616
256.529	0.159381
258.333	0.0795231
260.136	0.24233
261.939	-0.0265322
263.744	0.549534
265.546	0.307642
267.348	0.210646
269.15	-0.658079
270.951	-0.177774
272.752	0.253256
274.552	-0.257442
276.353	0.387411
278.152	0.0902052
279.952	-0.136558
281.751	0.356946
283.55	0.246515
285.348	-0.201589
287.146	0.958461
288.942	0.845352
290.739	-0.0811901
292.536	1.1015
294.333	0.179255
296.129	-0.19052
297.925	0.1342
299.721	-0.209752
301.516	0.282299
303.311	-0.325142
305.106	0.30765
306.9	1.10575
308.694	-0.0520144
310.486	-0.350306
312.279	0.638929
314.072	0.391129
315.864	0.43107
317.656	0.734889
319.448	0.302011
321.24	-0.177651
323.029	0.53532
324.819	0.915546
326.61	-0.0168514
328.4	0.10057
330.19	0.31307
331.977	0.524541
333.766	-0.366201
335.555	0.654887
337.343	0.548965
339.131	0.5365
340.917	0.689736
342.704	0.507286
344.491	0.277113
346.277	0.596962
348.062	0.129348
349.848	-0.0749025
351.633	0.795
353.416	0.303773
355.201	0.0264149
356.986	-0.156713
358.77	0.183234
360.552	0.950192
362.335	0.739368
364.118	-0.185303
365.899	0.0549002
367.682	-0.323266
369.464	-0.227363
371.243	-0.108869
373.025	0.292536
374.806	0.243586
376.585	0.360017
378.365	0.0286818
380.143	-0.348197
381.923	0.359456
383.702	0.526371
385.479	0.224282
387.258	-0.217236
389.034	0.235317
390.812	0.101501
392.59	0.391273
394.365	-0.375137
396.142	0.150463
397.916	-0.404169
399.693	0.168352
401.467	0.176734
403.242	-0.120882
405.015	0.00349712
406.79	0.0566254
408.565	0.343866
410.337	0.325466
412.111	0.119343
413.882	0.101407
415.656	-0.244307
417.426	0.889014
419.197	1.01413
420.969	0.224221
422.739	0.537088
424.51	0.356294
426.279	0.479692
428.05	0.32048
429.819	-0.33217
431.589	-0.0928736
433.356	0.33443
435.124	-0.0124321
436.893	-0.148099
438.66	-0.167122
440.428	-0.234517
442.194	0.91583
443.96	0.140383
445.727	-0.425172
447.492	-0.195275
449.259	0.197384
451.023	0.145513
452.787	0.304143
454.553	0.346109
456.316	-0.194688
458.079	0.383046
459.844	0.517771
461.606	0.0251331
463.368	-0.325902
465.132	0.162153
466.893	0.792464
468.654	0.194082
470.415	0.45764
472.177	0.861808
473.937	0.962965
475.696	0.52656
477.456	0.600066
479.217	0.601665
480.975	0.0431366
482.733	0.672618
484.491	0.138765
486.251	0.305642
488.008	0.00872803
489.765	0.296673
491.522	0.00257492
493.278	-0.151157
495.036	0.279709
496.791	0.43038
498.546	0.440444
500.301	0.19208
502.056	0.412024
503.81	0.0911465
505.566	0.70878
507.319	0.737742
509.073	0.0593147
510.825	0.414133
512.578	0.0849609
514.33	0.789529
516.082	0.574926
517.833	0.947053
519.587	0.706573
521.337	0.653444
523.088	0.646799
524.838	0.54603
526.588	0.67992
528.337	0.649567
530.087	1.18156
531.835	0.424335
533.584	0.837499
535.332	-0.0610218
537.08	0.162203
538.827	-0.0133448
540.574	-0.00318909
542.321	0.355486
544.068	0.340641
545.814	-0.208654
547.56	0.0326252
549.305	-0.00460148
551.05	-0.0415239
552.795	-0.471412
554.54	0.509295
556.284	0.287939
558.027	-0.255416
559.771	0.0782337
561.514	0.665091
563.257	0.69959
564.999	0.320951
566.742	-0.424023
568.481	0.531581
570.223	0.179342
571.964	-0.21709
573.705	-0.244677
575.445	0.670103
577.185	-0.0651197
578.925	-0.294416
580.665	0.00512409
582.402	-0.315342
584.141	-0.107868
585.879	0.995682
587.617	-0.178894
589.355	-0.112768
591.092	-0.0936098
592.828	-0.0289812
594.564	0.219531
596.301	0.330038
598.037	0.555552
599.773	0.205539
601.506	0.52182
603.242	0.491657
604.976	0.689828
606.711	0.334914
608.443	-0.410874
610.177	0.817786
611.91	0.0958405
613.644	0.453038
615.374	-0.518596
617.107	0.20606
618.839	0.242605
620.569	0.255115
622.3	0.151904
624.032	0.253648
625.761	1.33752
627.491	-0.249942
629.221	-0.0766315
630.949	0.737925
632.679	0.208364
634.408	0.729731
636.135	0.520507
637.863	-0.261247
639.592	0.0499277
641.318	0.540236
643.045	0.229548
644.77	-0.0136385
646.497	0.562798
648.224	-0.15537
649.948	0.0847864
651.674	0.260673
653.398	-0.0365734
655.123	0.260758
656.846	0.606603
658.57	0.88588
660.293	-0.203723
662.017	0.621403
663.738	0.371234
665.462	0.644054
667.185	0.251786
668.905	0.430326
670.628	0.312241
672.348	0.836942
674.067	0.105389
675.789	0.543932
677.508	0.984707
679.228	0.553841
680.947	0.328006
682.667	0.237967
684.385	0.00747108
686.104	0.419475
687.821	0.277251
689.538	1.03219
691.256	0.266078
692.972	0.535875
694.69	0.597548
696.406	0.473941
698.121	0.487259
699.837	0.200084
701.552	0.716924
703.268	0.979289
704.982	0.735251
706.695	0.927052
708.41	1.25567
710.123	0.66683
711.836	0.559351
713.55	0.36022
715.262	0.709712
716.973	1.08136
718.685	0.996221
720.398	0.729084
722.108	1.19132
723.818	0.810987
725.53	0.431177
727.24	0.642295
728.949	0.875289
730.658	0.449919
732.369	1.08942
734.077	0.867694
735.785	1.18893
737.493	0.742206
739.2	0.342169
740.909	0.484813
742.616	0.358218
744.322	0.278222
746.028	0.627337
747.734	0.9102
749.441	0.677041
751.146	1.30002
752.851	0.664852
754.555	1.44834
756.26	1.64879
757.963	1.06314
759.667	0.591094
761.372	0.931282
763.075	1.72385
764.777	0.778692
766.479	1.48048
768.181	0.598686
769.883	1.6586
771.584	0.658771
773.285	1.82824
774.986	0.803771
776.686	1.4079
778.386	1.67429
780.085	1.76156
781.785	0.651111
783.484	1.55433
785.182	1.4156
786.881	1.29697
788.579	1.605
790.276	2.24844
791.974	1.23798
793.671	1.04038
795.367	1.51957
797.064	1.23257
798.76	0.857719
800.456	1.1155
802.151	1.21707
803.846	1.34181
805.541	1.46633
807.236	1.97186
808.93	1.48746
810.624	1.36146
812.317	1.3916
814.01	1.77957
815.703	0.845811
817.394	1.70303
819.086	1.46377
820.778	1.93968
822.47	1.58969
824.161	1.39719
825.852	1.74127
827.543	1.06277
829.231	1.72377
830.921	1.69765
832.611	1.45191
834.3	1.40892
835.989	1.72391
837.676	0.967854
839.364	1.12529
841.053	1.61626
842.74	1.36877
844.426	0.76309
846.113	0.89543
847.8	1.56633
849.486	1.32327
851.171	1.10497
852.857	0.865952
854.542	0.290898
856.227	0.410821
857.911	0.417485
859.595	0.287516
861.279	1.05623
862.961	1.39607
864.645	0.607981
866.329	1.91495
868.01	0.967
869.692	0.581997
871.375	0.467226
873.055	0.871126
874.737	1.09456
876.418	1.54375
878.097	1.00003
879.778	0.614074
881.457	1.08553
883.137	1.60144
884.817	1.03259
886.495	1.02664
888.174	1.28977
889.851	1.23525
891.53	1.20169
893.206	0.333505
894.884	0.63555
896.562	1.04834
898.237	0.808022
899.914	0.903687
901.589	0.774257
903.265	0.622154
904.94	0.783141
906.615	0.609145
908.289	0.146432
909.964	0.019702
911.637	0.294609
913.31	0.769725
914.984	0.578198
916.656	0.564592
918.33	0.750412
920.001	0.537477
921.674	0.635208
923.345	0.557151
925.015	0.37045
926.687	0.737846
928.357	0.24596
930.028	0.903117
931.698	0.347312
933.366	1.02735
935.037	0.670719
936.705	0.424911
938.373	1.23865
940.043	0.598064
941.71	0.841023
943.379	-0.0404577
945.046	0.821153
946.712	0.313312
948.378	0.377486
950.046	0.483827
951.711	0.103474
953.376	0.0101185
955.043	0.469611
956.708	0.358557
958.372	-0.0139074
960.036	0.741804
961.701	0.705036
963.364	0.0492163
965.027	0.253471
966.69	0.101222
968.354	0.123096
970.016	0.872894
971.678	0.493431
973.339	0.954935
975	1.19677
976.661	0.600226
978.324	-0.127637
979.984	0.0741959
981.644	0.275792
983.303	0.719637
984.962	0.16531
986.621	0.317246
988.282	-0.0637436
989.94	0.483086
991.598	0.343541
993.256	0.491118
994.913	-0.0456762
996.57	0.499308
998.227	0.668829
999.884	0.90403
1001.54	0.610009
1003.2	0.249909
1004.85	-0.26395
1006.51	-0.359653
1008.16	0.115858
1009.82	0.503266
1011.47	0.912559
1013.12	0.927356
1014.78	1.18352
1016.43	-0.333353
1018.08	0.711915
1019.74	0.466685
1021.39	0.332076
1023.04	0.832605
1024.69	0.394259
1026.34	0.481125
1028	0.852068
1029.65	0.261028
1031.3	0.717326
1032.95	0.494854
1034.6	1.03448
1036.25	0.503574
1037.9	0.560785
1039.55	0.204226
1041.19	-0.085844
1042.84	0.386614
1044.49	0.882113
1046.14	0.336791
1047.79	0.336642
1049.43	0.251371
1051.08	0.819033
1052.73	0.279826
1054.37	-0.020175
1056.02	0.831649
1057.66	0.0748539
1059.31	0.100034
1060.95	0.233295
1062.6	0.43101
1064.24	0.692984
1065.88	-0.11145
1067.53	0.539527
1069.17	-0.00584984
1070.81	0.186895
1072.46	0.618106
1074.1	-0.143913
1075.74	0.830933
1077.38	-0.210125
1079.02	-0.165384
1080.66	0.205412
1082.3	0.424429
1083.94	0.295614
1085.58	0.165186
1087.22	-0.0105686
1088.86	0.00664234
1090.5	-0.151036
1092.14	0.446922
1093.78	-0.382094
1095.42	0.042017
1097.05	-0.590075
1098.69	0.417239
1100.33	0.0688305
1101.97	-0.2127
1103.6	0.561881
1105.24	0.154554
1106.87	0.285638
1108.51	0.201358
1110.15	1.14802
1111.78	0.394475
1113.41	-0.123815
1115.05	0.173004
1116.68	-0.067523
1118.31	-0.393353
1119.95	0.224574
1121.58	0.00773525
1123.21	0.284473
1124.85	0.98994
1126.48	0.690644
1128.11	-0.206411
1129.74	0.265984
1131.37	0.696113
1133	-0.134766
1134.63	-0.131977
1136.26	-0.0870609
1137.89	0.448236
1139.52	0.576116
1141.15	0.596049
1142.78	-0.152782
1144.41	-0.0689411
1146.04	0.12211
1147.66	0.44187
1149.29	-0.0898371
1150.92	0.16734
1152.55	-0.257018
1154.17	-0.170552
1155.8	0.511379
1157.43	0.299157
1159.05	0.0874395
1160.68	0.0468216
1162.3	-0.183994
1163.93	-0.286187
1165.55	0.760291
1167.17	0.594598
1168.8	-0.380054
1170.42	0.131784
1172.05	0.195127
1173.67	0.405178
1175.29	-0.128932
1176.91	0.609166
1178.54	-0.284726
1180.16	-0.224074
1181.78	0.302774
1183.4	-0.121671
1185.02	0.215098
1186.64	0.00149822
1188.26	0.124152
1189.88	0.0759335
1191.5	0.152184
1193.12	-0.0256176
1194.74	-0.26677
1196.36	0.0798149
1197.97	-0.180812
1199.59	-0.31358
1201.21	0.454702
1202.83	0.431127
1204.44	0.472938
1206.06	0.0579748
1207.68	0.58333
1209.29	0.81685
1210.91	0.173505
1212.52	0.612917
1214.14	0.549489
1215.75	0.879377
1217.37	0.104215
1218.98	0.202308
1220.6	-0.301958
1222.21	0.33608
1223.82	0.331889
1225.44	0.494908
1227.05	0.576534
1228.66	0.597503
1230.27	0.309649
1231.88	0.539968
1233.49	0.37877
1235.1	0.921572
1236.72	0.783615
1238.33	1.20489
1239.94	1.21352
1241.55	1.13964
1243.16	1.64464
1244.76	0.928161
1246.37	0.52084
1247.98	0.960844
1249.59	0.799956
1251.2	1.11457
1252.8	0.80878
1254.41	1.1243
1256.02	1.42028
1257.63	0.8488
1259.23	1.70611
1260.84	0.80546
1262.44	1.06429
1264.05	1.59265
1265.66	1.64433
1267.26	1.07337
1268.87	1.51702
1270.47	1.13027
1272.07	1.23997
1273.68	1.20342
1275.28	1.0829
1276.88	1.76958
1278.48	1.56417
1280.09	1.58599
1281.69	1.40047
1283.29	1.67035
1284.89	1.91991
1286.49	1.4054
1288.09	2.23572
1289.69	1.55825
1291.3	1.06747
1292.9	1.7544
1294.49	2.5023
1296.09	1.88532
1297.69	2.11335
1299.29	2.07101
1300.89	2.1713
1302.49	1.75504
1304.09	1.75001
1305.68	1.47691
1307.28	2.06638
1308.88	1.75157
1310.47	1.60139
1312.07	1.63616
1313.66	1.89666
1315.26	1.81039
1316.86	1.66408
1318.45	1.41662
1320.05	1.31212
1321.64	1.36979
1323.23	1.52747
1324.83	1.39836
1326.42	1.45074
1328.01	1.48209
1329.61	1.39242
1331.2	2.13386
1332.79	1.56291
1334.38	1.74242
1335.98	1.41903
1337.57	1.68149
1339.16	1.90266
1340.75	1.92027
1342.34	1.93547
1343.93	1.42579
1345.52	1.5786
1347.11	1.63085
1348.7	1.70482
1350.29	1.56121
1351.87	1.10057
1353.46	1.36232
1355.05	1.22555
1356.64	1.98846
1358.23	1.2922
1359.81	0.894943
1361.4	1.3751
1362.99	1.33519
1364.57	1.6139
1366.16	1.21511
1367.74	0.996799
1369.33	0.998902
1370.91	0.942763
1372.5	1.00747
1374.08	1.15292
1375.67	1.53786
1377.25	0.669296
1378.83	1.11353
1380.42	0.840358
1382	1.14281
1383.58	1.18518
1385.16	1.12706
1386.75	0.551943
1388.33	1.42712
1389.91	0.495907
1391.49	1.15371
1393.07	1.37552
1394.65	1.59765
1396.23	1.16513
1397.81	0.870846
1399.39	1.56647
1400.97	1.11172
1402.55	1.13185
1404.13	1.17169
1405.7	0.935189
1407.28	0.759075
1408.86	0.643233
1410.44	1.17981
1412.01	1.00515
1413.59	1.61957
1415.17	0.989459
1416.74	0.911224
1418.32	1.24654
1419.89	1.52272
1421.47	1.40595
1423.05	1.90115
1424.62	1.02023
1426.19	1.5972
1427.77	1.50558
1429.34	1.37429
1430.92	2.02931
1432.49	1.62024
1434.06	1.7808
1435.63	2.39308
1437.2	1.76656
1438.78	1.98636
1440.35	2.10891
1441.92	2.17354
1443.49	1.59039
1445.06	2.30479
1446.63	1.91875
1448.2	2.47635
1449.77	2.18901
1451.34	2.51163
1452.91	2.1663
1454.48	1.80156
1456.05	2.53845
1457.62	2.44837
1459.18	2.39619
1460.75	2.49949
1462.32	1.93169
1463.89	2.03108
1465.45	1.9719
1467.02	1.49984
1468.59	1.4802
1470.15	1.83436
1471.72	1.32628
1473.28	1.40799
1474.85	1.01986
1476.41	1.593
1477.98	1.2643
1479.54	1.60207
1481.11	1.05765
1482.67	0.748435
1484.23	1.10535
1485.8	1.28545
1487.36	0.91628
1488.92	1.25078
1490.48	1.28951
1492.05	1.3454
1493.61	0.832425
1495.17	0.513774
1496.73	0.89623
1498.29	1.04391
1499.85	0.686449
1501.41	0.719164
1502.97	0.908139
1504.53	0.807038
1506.09	1.63555
1507.65	0.895383
1509.2	0.851095
1510.76	1.05655
1512.32	0.855859
1513.88	1.27115
1515.44	0.647543
1516.99	0.832407
1518.55	1.07515
1520.1	1.16474
1521.66	1.69444
1523.22	0.674426
1524.77	1.04958
1526.33	0.698208
1527.88	0.898981
1529.44	1.04156
1530.99	1.29759
1532.55	1.09838
1534.1	1.35508
1535.65	0.723265
1537.21	1.1708
1538.76	1.184
1540.31	1.63126
1541.86	1.51262
1543.42	0.528347
1544.97	1.27553
1546.52	1.40115
1548.07	1.24487
1549.62	1.20132
1551.17	1.92574
1552.72	1.54558
1554.27	1.55961
1555.82	1.50039
1557.37	1.20046
1558.92	1.83578
1560.47	1.87586
1562.02	1.84308
1563.57	1.73691
1565.11	1.83657
1566.66	2.29094
1568.21	2.14791
1569.75	2.19106
1571.3	2.12177
1572.85	2.12679
1574.39	2.2063
1575.94	1.9498
1577.49	2.27221
1579.03	2.25905
1580.58	2.35859
1582.12	2.53373
1583.67	2.20551
1585.21	1.63493
1586.75	2.29837
1588.3	2.15824
1589.84	2.18615
1591.38	2.40077
1592.93	2.3903
1594.47	2.37945
1596.01	2.12505
1597.55	1.96463
1599.09	1.63603
1600.63	1.66428
1602.18	1.65551
1603.72	2.09737
1605.26	1.80624
1606.8	2.05842
1608.34	1.63193
1609.87	1.76682
1611.41	2.06828
1612.95	1.69124
1614.49	1.76364
1616.03	1.64789
1617.57	1.62645
1619.11	2.24322
1620.64	1.43777
1622.18	1.64528
1623.72	1.83486
1625.25	1.46286
1626.79	1.67036
1628.32	1.46479
1629.86	1.70671
1631.4	1.83511
1632.93	2.28042
1634.47	1.68014
1636	2.20079
1637.53	1.84542
1639.07	1.37912
1640.6	1.28592
1642.14	1.82557
1643.67	2.27044
1645.2	1.96913
1646.73	2.31804
1648.27	2.10861
1649.8	2.47549
1651.33	2.32336
1652.86	2.39532
1654.39	1.78245
1655.92	2.17157
1657.45	2.41212
1658.98	1.98488
1660.51	1.5196
1662.04	1.75635
1663.57	1.38151
1665.1	1.48686
1666.63	1.97994
1668.16	1.71727
1669.69	1.91728
1671.21	1.38167
1672.74	1.49224
1674.27	1.25334
1675.79	1.52982
1677.32	0.995518
1678.85	1.71147
1680.37	1.28566
1681.9	1.19027
1683.42	1.49862
1684.95	1.21939
1686.47	1.1976
1688	1.21293
1689.52	0.788976
1691.05	0.988215
1692.57	1.22393
1694.1	0.581334
1695.62	1.14581
1697.14	0.284211
1698.66	0.628477
1700.19	0.825887
1701.71	0.894841
1703.23	0.963092
1704.75	0.429723
1706.27	0.460785
1707.79	0.873263
1709.32	0.394902
1710.83	0.715937
1712.35	0.837122
1713.88	0.650249
1715.39	0.282707
1716.91	0.783904
1718.43	0.217824
1719.95	0.176276
1721.47	0.207101
1722.99	0.43671
1724.5	0.414715
1726.02	0.466028
1727.54	0.572596
1729.06	0.518106
1730.57	0.463675
1732.09	0.391504
1733.61	0.493545
1735.12	0.553048
1736.64	0.17447
1738.15	0.834063
1739.67	0.815137
1741.18	0.0731535
1742.7	0.373398
1744.21	0.480185
1745.72	0.415305
1747.24	0.477141
1748.75	0.226771
1750.26	0.555499
1751.78	0.272748
1753.29	0.182389
1754.8	0.597571
1756.31	0.555269
1757.82	0.203748
1759.34	0.304039
1760.85	0.476756
1762.36	0.3013
1763.87	0.23887
1765.38	0.575881
1766.89	0.704437
1768.4	0.429574
1769.91	0.179871
1771.41	0.199006
1772.92	0.343227
1774.43	0.329991
1775.94	-0.11484
1777.45	0.227528
1778.96	0.120152
1780.46	0.0292864
1781.97	0.145884
1783.48	-0.0501432
1784.98	0.30201
1786.49	0.228144
1788	0.30606
1789.5	0.481174
1791.01	0.409235
1792.51	0.101332
1794.01	0.0433455
1795.52	0.272242
1797.02	0.227654
1798.53	0.222032
1800.03	0.135919
1801.54	0.0504379
1803.04	0.436023
1804.54	0.247602
1806.04	0.217328
1807.54	0.0360193
1809.05	0.518798
1810.55	0.0267677
1812.05	0.362146
1813.55	0.473347
1815.05	0.402036
1816.55	0.263392
1818.05	0.263478
1819.55	0.305178
1821.05	-0.0889044
1822.55	0.120839
1824.05	-0.0654421
1825.55	0.0587692
1827.05	0.0235405
1828.55	0.264188
1830.04	0.459831
1831.54	0.19307
1833.04	0.388838
1834.54	0.163604
1836.03	-0.0338011
1837.53	0.0707321
1839.03	-0.0629873
1840.52	0.175098
1842.02	0.39337
1843.51	0.282467
1845.01	0.373606
1846.5	0.316552
1848	0.699827
1849.49	0.208803
1850.99	0.391802
1852.48	0.147202
1853.97	0.151574
1855.47	0.20842
1856.96	0.527333
1858.45	0.44349
1859.94	0.232794
1861.44	0.286379
1862.93	-0.0405159
1864.42	0.302044
1865.91	0.307625
1867.4	0.435299
1868.89	-0.01719
1870.38	0.257678
1871.87	0.0592737
1873.36	0.24863
1874.85	-0.250131
1876.34	0.070075
1877.83	-0.0714436
1879.32	-0.171734
1880.81	0.127169
1882.3	-0.131149
1882.56	-0.202042
1884.06	-0.204324
1885.55	-0.0330944
1887.04	0.3984
1888.54	0.167468
1890.03	0.424131
1891.52	0.281561
1893.02	-0.0679617
1894.51	0.523178
1896	0.124802
1897.49	0.161875
1898.99	-0.218657
1900.48	0.28698
1901.97	0.356116
1903.46	0.249556
1904.95	0.576231
1906.44	0.397954
1907.93	0.0461941
1909.42	0.407009
1910.91	0.404098
1912.4	0.211272
1913.89	0.435317
1915.38	-0.0169182
1916.86	-0.0185499
1918.35	0.0139675
1919.84	0.253949
1921.33	0.666901
1922.82	0.058404
1924.3	0.282048
1925.79	0.24709
1927.28	0.559425
1928.76	0.318396
1930.25	0.181152
1931.74	0.285524
1933.22	0.423074
1934.71	0.385683
1936.19	0.242844
1937.67	0.773302
1939.16	0.0931349
1940.64	0.0875731
1942.13	0.117365
1943.61	-0.162348
1945.09	0.265966
1946.58	-0.253771
1948.06	0.312281
1949.54	0.136438
1951.03	-0.0574331
1952.51	-0.200341
1953.99	0.241027
1955.47	0.698904
1956.95	-0.182844
1958.43	-0.273408
1959.91	0.0485058
1961.39	0.216326
1962.87	0.212799
1964.35	0.106286
1965.83	0.393232
1967.31	0.405347
1968.79	0.297057
1970.27	-0.0851469
1971.75	0.045332
1973.22	0.124363
1974.7	-0.137732
1976.18	-0.143635
1977.66	0.0209618
1979.13	0.0492582
1980.61	-0.313734
1982.09	0.29248
1983.56	0.0482645
1985.04	-0.0431728
1986.52	-0.117748
1987.99	0.0450354
1989.47	0.0046711
1990.94	0.151171
1992.41	0.163117
1993.89	-0.128257
1995.36	-0.13133
1996.84	0.186987
1998.31	0.403724
1999.78	-0.0047636
2001.26	0.480844
2002.73	0.139052
2004.2	0.185202
2005.67	-0.10534
2007.15	0.261967
2008.62	0.0574617
2010.09	0.308454
2011.56	-0.0629435
2013.03	0.441016
2014.5	0.271259
2015.97	0.168099
2017.44	-0.339521
2018.91	0.00983334
2020.38	0.106308
2021.85	0.152172
2023.32	0.466887
2024.79	0.127782
2026.25	0.0416803
2027.72	0.191821
2029.19	-0.109439
2030.66	0.0770092
2032.13	0.197364
2033.59	-0.218934
2035.06	0.120161
2036.53	0.240727
2037.99	0.428049
2039.46	0.17809
2040.92	-0.324176
2042.39	0.0312347
2043.85	0.522154
2045.32	-0.146714
2046.78	0.396707
2048.25	-0.170786
2049.71	0.508004
2051.18	-0.128775
2052.64	0.160129
2054.1	0.531651
2055.56	-0.0260773
2057.03	0.342298
2058.49	0.237819
2059.95	0.150135
2061.42	0.248141
2062.88	0.296406
2064.34	0.00905895
2065.8	0.328584
2067.26	-0.0747232
2068.72	0.296707
2070.18	0.719035
2071.64	0.0977364
2073.1	0.654774
2074.56	0.167635
2076.02	0.606307
2077.48	0.202623
2078.94	0.320596
2080.39	0.589647
2081.85	0.588696
2083.31	0.233587
2084.77	0.466899
2086.22	0.547928
2087.68	0.493762
2089.14	0.271173
2090.6	0.586117
2092.05	0.967813
2093.51	0.644287
2094.96	0.689784
2096.42	0.46656
2097.87	0.293214
2099.33	0.638306
2100.78	0.898946
2102.24	0.825244
2103.69	0.451955
2105.15	0.948262
2106.6	0.344494
2108.05	0.776224
2109.51	0.474392
2110.96	0.588909
2112.41	0.585369
2113.86	0.879857
2115.32	0.8395
2116.77	0.665314
2118.22	1.0399
2119.67	1.05018
2121.12	1.09567
2122.57	1.04367
2124.02	1.1093
2125.47	1.35798
2126.92	0.95972
2128.37	1.17385
2129.82	1.00528
2131.27	1.26613
2132.72	1.44309
2134.17	1.32208
2135.62	1.1194
2137.06	0.901917
2138.51	1.34749
2139.96	1.23315
2141.41	1.9305
2142.85	1.55472
2144.3	1.22898
2145.75	1.74718
2147.19	1.6032
2148.64	1.67374
2150.09	1.75994
2151.53	1.96105
2152.97	1.86285
2154.42	1.96257
2155.86	2.02865
2157.31	1.94573
2158.75	2.04585
2160.2	2.29659
2161.64	1.63801
2163.08	1.94254
2164.53	2.29889
2165.97	1.99257
2167.41	2.16752
2168.86	1.77625
2170.3	1.99801
2171.74	2.40057
2173.18	1.90266
2174.62	2.05201
2176.06	2.05101
2177.5	2.0669
2178.94	1.80101
2180.38	1.86874
2181.82	2.00395
2183.26	1.90703
2184.7	1.69396
2186.14	2.07979
2187.58	1.58392
2189.02	1.37084
2190.46	1.35741
2191.89	2.04292
2193.33	1.46239
2194.77	1.61297
2196.21	1.81149
2197.64	1.87457
2199.08	1.4369
2200.52	1.77962
2201.95	1.30819
2203.39	1.13679
2204.83	1.51392
2206.26	1.04655
2207.7	1.04398
2209.13	0.875622
2210.57	1.25281
2212	1.43002
2213.43	1.27563
2214.87	0.989209
2216.3	1.33105
2217.73	1.32728
2219.17	0.929062
2220.6	1.12549
2222.03	0.959347
2223.47	1.08912
2224.9	1.31611
2226.33	0.817
2227.76	0.810186
2229.19	0.999156
2230.62	0.793215
2232.05	0.931638
2233.49	0.808168
2234.91	0.653048
2236.34	0.466754
2237.77	0.657806
2239.2	0.915819
2240.63	0.767923
2242.06	0.197881
2243.49	0.60769
2244.92	0.430676
2246.35	0.64446
2247.78	0.807673
2249.2	0.1698
2250.63	0.491631
2252.06	0.388045
2253.48	0.690373
2254.91	0.602566
2256.34	0.386509
2257.76	0.838353
2259.19	0.789937
2260.61	0.501163
2262.04	0.0848055
2263.46	0.595315
2264.89	0.586679
2266.31	0.382525
2267.74	0.356328
2269.16	0.557045
2270.59	0.0896654
2272.01	0.728804
2273.43	0.504885
2274.85	0.50902
2276.28	0.757785
2277.7	0.566812
2279.12	0.180175
2280.54	0.461864
2281.97	0.46629
2283.39	0.111719
2284.81	0.164991
2286.23	0.104252
2287.65	0.468369
2289.07	0.343159
2290.49	0.528726
2291.91	-0.053586
2293.33	-0.0638819
2294.75	0.138501
2296.17	0.25914
2297.59	0.379834
2299.01	0.0911255
2300.42	0.539904
2301.84	0.185895
2303.26	0.340412
2304.68	0.0356321
2306.1	0.0260935
2307.51	0.426991
2308.93	0.00579643
2310.35	0.652585
2311.76	0.230209
2313.18	0.120183
2314.59	-0.0718107
2316.01	-0.0821133
2317.43	-0.19054
2318.84	0.509092
2320.26	0.120658
2321.67	0.209299
2323.08	0.741755
2324.5	0.248693
2325.91	0.726994
2327.33	0.34573
2328.74	0.293755
2330.15	0.176161
2331.56	0.273593
2332.98	0.059351
2334.39	-0.0716763
2335.8	0.0114384
2337.21	-0.234847
2338.62	-0.251723
2340.04	0.256166
2341.45	0.286339
2342.86	-0.307604
2344.27	-0.0152035
2345.68	0.408194
2347.09	0.520156
2348.5	0.337374
2349.91	0.514313
2351.31	0.183496
2352.72	0.309536
2354.13	-0.104019
2355.54	0.0856848
2356.95	0.486335
2358.36	0.251806
2359.76	-0.355776
2361.17	-0.215409
2362.58	-0.107777
2363.98	0.372025
2365.39	-0.281704
2366.8	-0.141976
2368.21	0.0787668
2369.61	0.251726
2371.02	-0.557554
2372.42	-0.0757904
2373.83	0.213202
2375.23	0.180389
2376.64	0.25985
2378.04	-0.353259
2379.44	0.141671
2380.85	0.0562668
2382.25	-0.190657
2383.66	0.314856
2385.06	-0.0288248
2386.46	0.0441113
2387.86	0.117755
2389.26	-0.0307913
2390.67	0.268187
2392.07	-0.0689182
2393.47	0.120422
2394.87	-0.325781
2396.27	0.198812
2397.67	-0.229907
2399.07	-0.0222912
2400.47	0.360457
2401.87	-0.0349064
2403.27	0.173373
2404.67	0.238313
2406.07	-0.110345
2407.47	0.317852
2408.87	0.269117
2410.27	0.299371
2411.67	0.329827
2413.07	-0.177361
2414.46	-0.113047
2415.86	0.300908
2417.26	-0.170412
2418.66	-0.324306
2420.05	0.408961
2421.45	0.508779
2422.84	0.338943
2424.24	0.248016
2425.64	0.236368
2427.03	0.367874
2428.43	-0.149691
2429.82	-0.03232
2431.22	0.482497
2432.61	0.204181
2434.01	0.226847
2435.4	0.359635
2436.79	0.332111
2438.19	0.00121307
2439.58	-0.0766735
2440.97	0.321019
2442.37	0.336941
2443.76	0.30497
2445.15	0.288712
2446.54	-0.076479
2447.93	-0.0294485
2449.33	0.318487
2450.72	0.128018
2452.11	-0.299188
2453.5	0.144863
2454.89	-0.106547
2456.28	0.117324
2457.67	0.388911
2459.06	0.0276327
2460.45	-0.0494623
2461.84	0.410262
2463.23	-0.174212
2464.62	0.394522
2466	-0.0324135
2467.39	0.0144911
2468.78	-0.0333681
2470.17	0.265575
2471.55	0.343097
2472.94	0.199307
2474.33	0.212377
2475.72	0.382093
2477.1	0.26827
2478.49	-0.222312
2479.87	0.417847
2481.26	-0.0560713
2482.65	0.50471
2484.03	0.0935535
2485.42	0.370399
2486.8	0.0675278
2488.19	0.294816
2489.57	-0.0713625
2490.95	0.0924311
2492.34	0.334039
2493.72	0.219028
2495.1	0.493363
2496.49	-0.0684938
2497.87	0.734285
2499.25	0.189626
2500.63	-0.122607
2502.02	-0.0332918
2503.4	-0.207542
2504.78	-0.212614
2506.16	0.321013
2507.54	0.145276
2508.92	0.154531
2510.3	0.118112
2511.68	0.588663
2513.06	0.01682
2514.44	0.197235
2515.82	0.37823
2517.2	0.330307
2518.58	0.175949
2519.96	0.358082
2521.34	-0.239141
2522.72	0.201597
2524.1	-0.0454168
2525.47	0.0273056
2526.85	0.160572
2528.23	0.309239
2529.6	0.321933
2530.98	0.168984
2532.36	-0.210144
2533.74	-0.177681
2535.11	-0.023036
2536.49	0.192316
2537.86	0.0120192
2539.24	-0.0476303
2540.61	0.150071
2541.99	0.119638
2543.36	0.34743
2544.74	-0.152173
2546.11	-0.0134354
2547.49	0.0202675
2548.86	-0.00592136
2550.23	0.0589666
2551.61	0.275166
2552.98	0.20214
2554.35	0.234344
2555.72	0.265666
2557.09	0.190263
2558.47	0.387713
2559.84	0.0699081
2561.21	-0.368504
2562.58	-0.0636387
2563.95	-0.152289
2565.32	0.0625353
2566.69	0.050272
2568.06	0.144177
2569.43	0.162308
2570.8	-0.0772271
2572.17	-0.180336
2573.54	0.0349407
2574.91	0.022933
2576.28	0.147393
2577.65	-0.107265
2579.02	-0.362173
2580.39	0.140738
2581.75	0.0367308
2583.12	-0.279881
2584.49	0.00973988
2585.85	0.314399
2587.22	0.285663
2588.59	0.014617
2589.95	0.25896
2591.32	0.275831
2592.68	-0.0714078
2594.05	0.0351601
2595.42	0.53441
2596.78	0.00296974
2598.15	0.288216
2599.51	-0.00173855
2600.88	0.146927
2602.24	0.416722
2603.6	0.249152
2604.97	0.30859
2606.33	-0.189963
2607.69	0.0503802
2609.06	0.199272
2610.42	0.196205
2611.78	-0.199431
2613.14	-0.129348
2614.51	0.150167
2615.87	-0.0663028
2617.23	0.0176849
2618.59	0.0870924
2619.95	-0.00748348
2621.31	-0.0713286
2622.67	0.492952
2624.03	-0.108009
2625.39	-0.20089
2626.75	-0.0403867
2628.11	0.0450597
2629.47	0.0854187
2630.83	0.0213637
2632.19	0.165414
2633.55	0.190346
2634.91	0.111311
2636.26	0.343787
2637.62	-0.253928
2638.98	0.141351
2640.34	0.0923166
2641.69	0.35404
2643.05	0.246328
2644.41	-0.200626
2645.76	0.149575
2647.12	0.115597
2648.48	0.301932
2649.83	0.0898213
2651.19	0.0979681
2652.54	0.384825
2653.9	0.304548
2655.25	0.0346084
2656.6	0.278753
2657.96	0.465115
2659.31	-0.357236
2660.67	0.210628
2662.02	0.134749
2663.37	0.423512
2664.73	0.156454
2666.08	-0.154707
2667.43	0.0588002
2668.78	0.373794
2670.14	0.324809
2671.49	0.0583177
2672.84	0.0978999
2674.19	0.18158
2675.54	0.0625086
2676.89	0.364819
2678.24	0.30495
2679.59	0.187925
2680.94	0.27491
2682.29	0.276046
2683.64	-0.18571
2684.99	0.223489
2686.34	0.50278
2687.69	0.0418029
2689.04	-0.173736
2690.39	0.422095
2691.74	0.203207
2693.08	0.563305
2694.43	0.139091
2695.78	0.236885
2697.13	0.117885
2698.47	0.202934
2699.82	0.0578752
2701.17	-0.302776
2702.51	0.351721
2703.86	0.138211
2705.21	0.359925
2706.55	-0.215878
2707.9	0.252337
2709.24	-0.0198121
2710.58	-0.10375
2711.93	0.407603
2713.27	0.25069
2714.62	0.427927
2715.96	0.154453
2717.3	0.127922
2718.65	0.115674
2719.99	0.161259
2721.33	-0.171968
2722.68	-0.534847
2724.02	-0.0103159
2725.36	0.0771575
2726.71	0.0332646
2728.05	0.323804
2729.39	0.51218
2730.73	0.467555
2732.07	0.510189
2733.41	0.160125
2734.75	-0.189713
2736.09	0.0133696
2737.43	-0.059793
2738.77	-0.234786
2740.11	0.491605
2741.45	0.577595
2742.79	-0.0784869
2744.13	0.166131
2745.47	0.104908
2746.81	0.333749
2748.14	0.329965
2749.48	0.108581
2750.82	-0.0689268
2752.16	0.130859
2753.49	-0.0171084
2754.83	-0.266243
2756.17	-0.0226736
2757.5	0.177461
2758.84	-0.099977
2760.18	0.201977
2761.51	0.359578
2762.85	0.300552
2764.18	-0.0475559
2765.52	0.0528584
2766.85	0.167275
2768.19	0.150578
2769.52	-0.170984
2770.86	0.0121765
2772.19	0.294896
2773.52	-0.217406
2774.86	0.0347118
2776.19	-0.318596
2777.52	-0.0665526
2778.86	0.199976
2780.19	0.0642395
2781.52	-0.27206
2782.85	0.0522895
2784.19	-0.125805
2785.52	0.0116129
2786.85	0.33522
2788.18	0.200864
2789.51	-0.0899792
2790.84	-0.179516
2792.17	-0.182501
2793.5	0.0293522
2794.83	-0.073287
2796.16	-0.019033
2797.49	0.134649
2798.82	0.144895
2800.15	0.197531
2801.48	0.0501428
2802.81	-0.054523
2804.13	-0.0453391
2805.46	0.290979
2806.79	-0.156538
2808.12	0.27777
2809.45	-0.0279841
2810.77	0.192186
2812.1	-0.225962
2813.43	0.350261
2814.75	0.0909014
2816.08	0.27248
2817.41	0.015708
2818.73	-0.0279026
2820.06	0.0843916
2821.38	-0.24311
2822.71	0.123203
2824.03	-0.0779223
2825.36	0.103161
2826.68	-0.211434
2828	0.21081
2829.33	0.109676
2830.65	-0.288275
2831.98	0.177478
2833.3	0.34588
2834.62	0.145949
2835.94	0.341845
2837.27	0.254174
2838.59	0.717804
2839.91	0.516332
2841.23	0.852318
2842.55	0.877601
2843.87	0.677389
2845.2	0.548576
2846.52	1.48029
2847.84	0.886036
2849.16	1.30938
2850.48	1.44978
2851.8	1.519
2853.12	1.58771
2854.44	1.5147
2855.76	1.75236
2857.08	1.43901
2858.39	1.76141
2859.71	1.5188
2861.03	1.60086
2862.35	2.04961
2863.67	1.41104
2864.98	1.77436
2866.3	1.9964
2867.62	2.28911
2868.94	2.11685
2870.25	2.48078
2871.57	2.78837
2872.88	2.4473
2874.2	2.75374
2875.52	2.96032
2876.83	3.12337
2878.15	2.52558
2879.46	2.78603
2880.78	2.8638
2882.09	2.87211
2883.41	3.16238
2884.72	2.87783
2886.03	2.34133
2887.35	2.74547
2888.66	3.06479
2889.97	2.96233
2891.29	3.02734
2892.6	3.2879
2893.91	3.50603
2895.22	3.02428
2896.54	2.82369
2897.85	2.72225
2899.16	3.23746
2900.47	3.4176
2901.78	3.13657
2903.09	2.9677
2904.4	3.44241
2905.71	3.21804
2907.02	3.24602
2908.33	3.6945
2909.64	3.50036
2910.95	3.9085
2912.26	4.00885
2913.57	4.16447
2914.88	4.44469
2916.19	4.19115
2917.5	4.46795
2918.81	4.39383
2920.11	4.73922
2921.42	5.18299
2922.73	4.73324
2924.04	4.7184
2925.34	5.18
2926.65	5.0412
2927.96	4.98632
2929.26	5.28056
2930.57	5.29464
2931.87	5.14051
2933.18	5.25173
2934.49	5.01353
2935.79	4.92924
2937.1	5.1526
2938.4	4.8731
2939.7	4.69175
2941.01	4.84631
2942.31	4.98782
2943.62	4.12433
2944.92	4.39424
2946.22	4.35784
2947.53	4.11217
2948.83	3.99206
2950.13	4.13677
2951.43	3.64966
2952.74	3.55276
2954.04	3.74858
2955.34	3.52407
2956.64	3.31454
2957.94	3.63893
2959.24	3.4621
2960.54	3.49803
2961.84	3.56408
2963.15	2.9716
2964.45	2.95337
2965.75	3.27094
2967.05	3.32023
2968.34	2.77782
2969.64	2.57191
2970.94	2.75968
2972.24	2.70869
2973.54	2.71434
2974.84	2.5511
2976.14	2.33088
2977.43	2.57407
2978.73	2.64668
2980.03	2.09823
2981.33	1.95697
2982.62	1.70283
2983.92	2.06787
2985.22	1.63267
2986.51	1.55044
2987.81	1.56802
2989.11	1.95196
2990.4	1.01518
2991.7	1.21631
2992.99	1.21975
2994.29	1.1237
2995.58	1.08288
2996.88	0.901064
2998.17	0.971862
2999.46	1.04289
3000.76	0.609666
3002.05	0.653912
3003.34	0.656545
3004.64	0.575279
3005.93	0.591891
3007.22	0.509989
3008.52	0.469407
3009.81	0.386149
3011.1	0.30237
3012.39	0.427808
3013.68	0.120666
3014.97	0.34416
3016.27	-0.0448604
3017.56	0.068552
3018.85	0.196297
3020.14	0.0737114
3021.43	0.11771
3022.72	0.0914836
3024.01	-0.0604272
3025.3	-0.434486
3026.59	0.0230584
3027.88	0.189689
3029.16	0.288053
3030.45	0.0700216
3031.74	0.433717
3033.03	-0.0438843
3034.32	0.224427
3035.6	0.0230808
3036.89	-0.289499
3038.18	-0.286315
3039.47	0.0868201
3040.75	0.265303
3042.04	0.236665
3043.33	0.00259066
3044.61	0.125934
3045.9	0.319019
3047.18	0.240733
3048.47	0.519889
3049.75	0.268718
3051.04	0.374074
3052.32	0.5076
3053.61	0.395602
3054.89	0.228527
3056.18	0.360685
3057.46	0.178261
3058.74	0.254245
3060.03	0.234704
3061.31	0.283691
3062.59	-0.00635719
3063.88	0.153923
3065.16	-0.0377927
3066.44	0.438075
3067.72	-0.104686
3069	0.304802
3070.29	0.292655
3071.57	0.0757709
3072.85	-0.114879
3074.13	-0.320015
3075.41	0.0178251
3076.69	0.083581
3077.97	0.14978
3079.25	-0.0949869
3080.53	-0.514467
3081.81	-0.0371022
3083.09	0.373745
3084.37	0.0934796
3085.65	0.16618
3086.93	-0.0328755
3088.21	-0.123874
3089.49	-0.228905
3090.76	0.140767
3092.04	-0.00521564
3093.32	0.28319
3094.6	-0.0925694
3095.87	0.264363
3097.15	0.0113773
3098.43	0.314272
3099.7	0.359606
3100.98	-0.0962167
3102.26	0.247429
3103.53	0.212234
3104.81	0.51608
3106.08	0.347018
3107.36	0.16549
3108.63	0.485814
3109.91	0.333634
3111.18	0.304319
3112.46	0.262306
3113.73	0.573132
3115	0.436957
3116.28	0.476713
3117.55	0.597225
3118.83	0.472752
3120.1	0.347434
3121.37	0.397761
3122.64	0.352835
3123.92	0.389226
3125.19	0.601986
3126.46	0.625713
3127.73	0.677207
3129	0.715833
3130.27	0.484517
3131.55	0.726754
3132.82	0.563536
3134.09	0.83251
3135.36	0.587942
3136.63	0.613195
3137.9	0.97519
3139.17	0.662987
3140.44	0.512849
3141.71	1.1298
3142.98	0.859436
3144.24	1.16746
3145.51	0.952675
3146.78	1.26189
3148.05	1.08925
3149.32	0.837325
