200.43	1.00744
202.246	1.01773
204.061	1.02932
205.875	1.26099
207.688	1.54155
209.501	1.04385
211.316	0.302732
213.129	0.871962
214.941	0.34789
216.753	0.89052
218.566	0.294224
220.377	0.159351
222.188	1.01744
223.999	0.352575
225.809	0.244871
227.618	0.379028
229.43	0.536973
231.239	0.621892
233.047	0.537644
234.855	0.574507
236.663	-0.399662
238.471	0.315873
240.278	0.383258
242.087	-0.246091
243.894	0.11457
245.7	-0.00705242
247.506	0.0629578
249.311	-0.54569
251.116	0.0257921
252.921	0.0150557
254.725	0.0991192
256.529	0.158614
258.333	0.194856
260.136	0.594233
261.939	-0.377503
263.744	0.628016
265.546	0.0929165
267.348	0.112388
269.15	0.661975
270.951	-0.380214
272.752	-0.218129
274.552	0.231961
276.353	-0.0428066
278.152	-0.0300455
279.952	-0.28418
281.751	0.543125
283.55	0.044589
285.348	0.506564
287.146	0.246821
288.942	-0.300075
290.739	-0.0546122
292.536	-0.14329
294.333	0.0329208
296.129	0.282249
297.925	0.341389
299.721	0.0905151
301.516	-0.0647583
303.311	-0.125191
305.106	0.553052
306.9	-0.129859
308.694	0.0459642
310.486	-0.0398846
312.279	0.375771
314.072	0.459618
315.864	0.0692577
317.656	0.2047
319.448	0.246593
321.24	0.170649
323.029	-0.357603
324.819	-0.313261
326.61	-0.101545
328.4	0.229728
330.19	0.250011
331.977	0.771411
333.766	0.262666
335.555	-0.511717
337.343	0.243077
339.131	-0.272408
340.917	0.31095
342.704	0.128096
344.491	0.686083
346.277	1.12479
348.062	0.131359
349.848	-0.0254183
351.633	0.414655
353.416	-0.172061
355.201	-0.0915194
356.986	0.0592079
358.77	0.375262
360.552	0.427791
362.335	0.526894
364.118	-0.302249
365.899	0.674837
367.682	-0.154493
369.464	0.771582
371.243	-0.271112
373.025	0.320313
374.806	0.0120001
376.585	0.105776
378.365	0.317814
380.143	-0.317655
381.923	0.226098
383.702	-0.42918
385.479	-0.283061
387.258	0.216647
389.034	0.599747
390.812	0.326158
392.59	0.2884
394.365	0.0634584
396.142	0.12077
397.916	0.647951
399.693	0.0241728
401.467	-0.0128689
403.242	-0.332355
405.015	0.169477
406.79	0.600016
408.565	-0.0267124
410.337	1.10696
412.111	0.644402
413.882	-0.19296
415.656	0.0499134
417.426	0.457872
419.197	-0.35367
420.969	-0.320187
422.739	-0.122596
424.51	0.262201
426.279	0.364388
428.05	-0.332424
429.819	0.0501442
431.589	0.127519
433.356	-0.381517
435.124	-0.115681
436.893	-0.0610533
438.66	0.391873
440.428	-0.353468
442.194	0.494663
443.96	0.448898
445.727	0.190407
447.492	-0.700858
449.259	0.303096
451.023	-0.119789
452.787	-0.471574
454.553	0.273746
456.316	0.38861
458.079	0.107256
459.844	-0.313206
461.606	-0.197535
463.368	0.337886
465.132	-0.10049
466.893	0.161221
468.654	-0.0157833
470.415	0.157857
472.177	0.262582
473.937	0.529664
475.696	0.236157
477.456	0.941937
479.217	0.0617485
480.975	0.182191
482.733	0.06985
484.491	0.51768
486.251	0.385289
488.008	-0.234403
489.765	0.266787
491.522	0.583102
493.278	0.66706
495.036	-0.0670919
496.791	0.0399942
498.546	0.685887
500.301	0.464796
502.056	0.876361
503.81	0.371587
505.566	0.476027
507.319	0.391017
509.073	0.563108
510.825	0.663024
512.578	0.384782
514.33	0.575575
516.082	0.247327
517.833	0.929251
519.587	0.95137
521.337	0.549717
523.088	0.617637
524.838	0.544436
526.588	0.846635
528.337	0.585841
530.087	0.325215
531.835	0.486057
533.584	0.482036
535.332	0.196129
537.08	0.750565
538.827	0.882235
540.574	0.312729
542.321	0.0232077
544.068	0.571508
545.814	0.700192
547.56	0.411013
549.305	0.44732
551.05	0.576414
552.795	0.265939
554.54	0.233617
556.284	0.478638
558.027	1.06949
559.771	1.199
561.514	0.154931
563.257	0.677274
564.999	-0.13367
566.742	0.159711
568.481	0.0173683
570.223	0.1057
571.964	0.424779
573.705	0.011405
575.445	-0.0101805
577.185	0.107593
578.925	-0.576664
580.665	-0.15836
582.402	0.1226
584.141	0.564242
585.879	0.338234
587.617	-0.165255
589.355	0.52623
591.092	0.411562
592.828	0.434378
594.564	-0.141169
596.301	0.732774
598.037	0.778432
599.773	0.0645199
601.506	0.224016
603.242	0.175193
604.976	0.607692
606.711	0.395043
608.443	0.250668
610.177	0.198092
611.91	-0.243902
613.644	1.2183
615.374	0.41108
617.107	-0.00586605
618.839	-0.262683
620.569	0.189299
622.3	0.136234
624.032	-0.0776663
625.761	0.234115
627.491	-0.138374
629.221	0.518359
630.949	0.264483
632.679	0.26374
634.408	0.0586967
636.135	0.720729
637.863	-0.171168
639.592	0.189725
641.318	0.319246
643.045	0.49164
644.77	0.366417
646.497	0.264427
648.224	0.255391
649.948	0.113178
651.674	0.860999
653.398	0.567649
655.123	-0.0637493
656.846	0.786059
658.57	0.704101
660.293	0.575912
662.017	0.742761
663.738	0.93029
665.462	0.886795
667.185	0.566785
668.905	0.314438
670.628	0.497284
672.348	1.0255
674.067	0.824074
675.789	0.464172
677.508	0.632595
679.228	1.05419
680.947	0.992789
682.667	0.676314
684.385	1.07079
686.104	1.04895
687.821	0.587758
689.538	0.72419
691.256	0.836819
692.972	0.902709
694.69	1.08295
696.406	1.21602
698.121	0.518994
699.837	0.994717
701.552	0.87079
703.268	0.240354
704.982	0.850275
706.695	1.59645
708.41	1.46957
710.123	1.06752
711.836	1.28387
713.55	0.332942
715.262	0.891772
716.973	0.94723
718.685	1.13954
720.398	1.21771
722.108	1.25038
723.818	1.23753
725.53	0.792631
727.24	1.25674
728.949	0.902631
730.658	0.798088
732.369	1.39541
734.077	1.17682
735.785	0.642278
737.493	0.515578
739.2	0.795852
740.909	1.52743
742.616	1.15544
744.322	1.28061
746.028	1.60967
747.734	1.26509
749.441	1.147
751.146	1.05276
752.851	2.01704
754.555	1.36325
756.26	1.40833
757.963	1.43256
759.667	1.99905
761.372	1.59807
763.075	1.37758
764.777	2.30805
766.479	1.81511
768.181	1.02577
769.883	2.1104
771.584	1.99463
773.285	2.03555
774.986	2.16636
776.686	2.18466
778.386	1.20943
780.085	1.90908
781.785	1.68274
783.484	2.36168
785.182	2.08905
786.881	2.60612
788.579	2.169
790.276	2.56552
791.974	1.96396
793.671	1.3165
795.367	1.97829
797.064	2.00873
798.76	1.92826
800.456	2.43504
802.151	2.65041
803.846	1.49454
805.541	1.8456
807.236	1.56634
808.93	2.25179
810.624	2.10474
812.317	2.42777
814.01	2.16708
815.703	1.36925
817.394	2.07136
819.086	2.1689
820.778	2.66839
822.47	2.11878
824.161	2.10596
825.852	1.8941
827.543	2.7761
829.231	1.52275
830.921	2.41072
832.611	1.96543
834.3	1.52202
835.989	2.10518
837.676	1.48368
839.364	1.93212
841.053	2.24522
842.74	1.86442
844.426	1.81809
846.113	1.79475
847.8	1.66141
849.486	1.61995
851.171	2.25278
852.857	1.94747
854.542	2.45033
856.227	2.21285
857.911	2.13105
859.595	1.66476
861.279	1.33097
862.961	1.13027
864.645	2.14506
866.329	1.19821
868.01	1.9639
869.692	0.925138
871.375	1.50978
873.055	1.71086
874.737	1.82162
876.418	1.36824
878.097	2.11096
879.778	1.18334
881.457	1.31618
883.137	1.65145
884.817	1.39862
886.495	0.986427
888.174	1.54301
889.851	1.24053
891.53	1.95098
893.206	1.33031
894.884	1.76692
896.562	1.68454
898.237	1.37667
899.914	1.3152
901.589	1.67872
903.265	1.12326
904.94	1.35118
906.615	1.60105
908.289	1.24904
909.964	1.38863
911.637	1.12843
913.31	1.66955
914.984	1.25523
916.656	1.52942
918.33	1.6257
920.001	0.946962
921.674	0.800905
923.345	1.38566
925.015	0.933011
926.687	1.01262
928.357	1.3146
930.028	1.19842
931.698	1.45809
933.366	1.12234
935.037	1.31621
936.705	0.804715
938.373	1.37479
940.043	1.04185
941.71	1.19538
943.379	1.15114
945.046	0.709464
946.712	1.14948
948.378	0.50605
950.046	1.42779
951.711	1.66379
953.376	1.28213
955.043	0.880174
956.708	0.988226
958.372	0.592238
960.036	0.353154
961.701	0.888385
963.364	1.20325
965.027	1.60526
966.69	1.0534
968.354	0.719684
970.016	0.516577
971.678	0.755004
973.339	0.77261
975	1.12335
976.661	0.923071
978.324	1.29943
979.984	1.16776
981.644	1.03562
983.303	1.3448
984.962	1.49699
986.621	1.00506
988.282	1.15312
989.94	1.4545
991.598	0.517225
993.256	0.928153
994.913	0.853044
996.57	1.10906
998.227	1.18835
999.884	1.61987
1001.54	0.927308
1003.2	1.04946
1004.85	1.25904
1006.51	0.94077
1008.16	1.21597
1009.82	0.503623
1011.47	1.02073
1013.12	0.595242
1014.78	0.4992
1016.43	1.0823
1018.08	1.38089
1019.74	0.739576
1021.39	0.62454
1023.04	0.860415
1024.69	0.834934
1026.34	0.198213
1028	1.00373
1029.65	0.716079
1031.3	0.645716
1032.95	1.25052
1034.6	1.30748
1036.25	1.12304
1037.9	0.654788
1039.55	0.731339
1041.19	1.11294
1042.84	0.473723
1044.49	1.53164
1046.14	1.3528
1047.79	1.08921
1049.43	0.675377
1051.08	1.00127
1052.73	1.24123
1054.37	0.873258
1056.02	1.1137
1057.66	0.397416
1059.31	0.767508
1060.95	0.441209
1062.6	0.701196
1064.24	0.0252657
1065.88	0.21806
1067.53	0.431424
1069.17	0.991273
1070.81	0.485872
1072.46	0.762195
1074.1	0.800083
1075.74	0.101508
1077.38	0.0334826
1079.02	0.63892
1080.66	0.551187
1082.3	0.918823
1083.94	0.656734
1085.58	0.523152
1087.22	0.929268
1088.86	0.964649
1090.5	0.998116
1092.14	0.424967
1093.78	1.21288
1095.42	0.726531
1097.05	0.220331
1098.69	0.448655
1100.33	0.764547
1101.97	0.393511
1103.6	0.433269
1105.24	0.302268
1106.87	1.26878
1108.51	1.15952
1110.15	0.404132
1111.78	0.464316
1113.41	0.43686
1115.05	1.03072
1116.68	1.19405
1118.31	0.564066
1119.95	1.56382
1121.58	0.272376
1123.21	0.502872
1124.85	0.391877
1126.48	0.602664
1128.11	0.258161
1129.74	0.876645
1131.37	3.03488
1133	2.75607
1134.63	2.71229
1136.26	0.936569
1137.89	0.357006
1139.52	0.780469
1141.15	-0.0357752
1142.78	-0.126221
1144.41	0.807271
1146.04	-0.22071
1147.66	0.351368
1149.29	1.0731
1150.92	-0.0368023
1152.55	-0.443436
1154.17	-0.254084
1155.8	-0.022666
1157.43	0.761636
1159.05	-0.3897
1160.68	0.0977402
1162.3	0.267183
1163.93	0.79907
1165.55	0.714902
1167.17	-0.0711622
1168.8	0.73631
1170.42	0.28773
1172.05	-0.0350285
1173.67	0.935908
1175.29	0.461504
1176.91	-0.267115
1178.54	0.34007
1180.16	0.417865
1181.78	0.411845
1183.4	0.0471201
1185.02	0.337884
1186.64	0.395081
1188.26	0.218451
1189.88	0.883241
1191.5	-0.26599
1193.12	0.415336
1194.74	-0.0608082
1196.36	0.59654
1197.97	0.289889
1199.59	0.0903044
1201.21	0.520305
1202.83	0.158935
1204.44	0.635391
1206.06	-0.138126
1207.68	0.466854
1209.29	0.237613
1210.91	0.362203
1212.52	1.06879
1214.14	0.688799
1215.75	0.244491
1217.37	0.860011
1218.98	0.205589
1220.6	0.569557
1222.21	0.829793
1223.82	1.31878
1225.44	1.2703
1227.05	0.913157
1228.66	0.6613
1230.27	0.969211
1231.88	0.348026
1233.49	0.534348
1235.1	1.15593
1236.72	0.476673
1238.33	1.05935
1239.94	1.1674
1241.55	1.08956
1243.16	0.349317
1244.76	0.808148
1246.37	1.41088
1247.98	1.2676
1249.59	0.854545
1251.2	0.875685
1252.8	1.31073
1254.41	1.00185
1256.02	1.06643
1257.63	1.21508
1259.23	0.992564
1260.84	0.688061
1262.44	1.00506
1264.05	1.32235
1265.66	1.07993
1267.26	1.89374
1268.87	1.4422
1270.47	2.21273
1272.07	0.867226
1273.68	1.63546
1275.28	1.34524
1276.88	0.950538
1278.48	1.48739
1280.09	1.29843
1281.69	1.56463
1283.29	1.10664
1284.89	1.78695
1286.49	1.41346
1288.09	1.18596
1289.69	1.62083
1291.3	1.87019
1292.9	2.36736
1294.49	1.58276
1296.09	1.23081
1297.69	2.09537
1299.29	1.40981
1300.89	1.38324
1302.49	2.13811
1304.09	1.7175
1305.68	1.52305
1307.28	1.18467
1308.88	1.5442
1310.47	1.90296
1312.07	2.46609
1313.66	1.27009
1315.26	1.52816
1316.86	1.0518
1318.45	1.29087
1320.05	1.42752
1321.64	1.52226
1323.23	1.63553
1324.83	1.09622
1326.42	1.32813
1328.01	1.39665
1329.61	0.858106
1331.2	1.53595
1332.79	1.12368
1334.38	1.50191
1335.98	0.993545
1337.57	1.51494
1339.16	1.57147
1340.75	1.66641
1342.34	1.35642
1343.93	1.50722
1345.52	1.11442
1347.11	2.00593
1348.7	1.37501
1350.29	1.04813
1351.87	1.36445
1353.46	1.58272
1355.05	1.30261
1356.64	0.683384
1358.23	1.08287
1359.81	1.20154
1361.4	0.340968
1362.99	1.07628
1364.57	1.1126
1366.16	1.10927
1367.74	1.16653
1369.33	1.4838
1370.91	0.807371
1372.5	1.36634
1374.08	0.871862
1375.67	0.994946
1377.25	0.779879
1378.83	1.18117
1380.42	0.884954
1382	0.667051
1383.58	1.12405
1385.16	0.764664
1386.75	0.981272
1388.33	1.37654
1389.91	0.998044
1391.49	1.01764
1393.07	0.601631
1394.65	1.1184
1396.23	0.86144
1397.81	1.25804
1399.39	0.721981
1400.97	0.938009
1402.55	0.697912
1404.13	1.50656
1405.7	0.910996
1407.28	1.02843
1408.86	1.50233
1410.44	1.00864
1412.01	0.278262
1413.59	0.988771
1415.17	1.50045
1416.74	0.70915
1418.32	0.726374
1419.89	0.743902
1421.47	0.723117
1423.05	0.329944
1424.62	1.27696
1426.19	1.16239
1427.77	1.16651
1429.34	1.15068
1430.92	1.50786
1432.49	1.62756
1434.06	1.58875
1435.63	1.68712
1437.2	0.979545
1438.78	2.4353
1440.35	1.43498
1441.92	2.26359
1443.49	2.1693
1445.06	1.07309
1446.63	1.64767
1448.2	2.18318
1449.77	1.93274
1451.34	2.3906
1452.91	1.72826
1454.48	1.91192
1456.05	1.78081
1457.62	1.74737
1459.18	2.08648
1460.75	1.77425
1462.32	1.40105
1463.89	2.22592
1465.45	1.96773
1467.02	2.04334
1468.59	1.03942
1470.15	1.66624
1471.72	0.979418
1473.28	1.00017
1474.85	0.609955
1476.41	0.945742
1477.98	0.928679
1479.54	0.970369
1481.11	0.286761
1482.67	1.171
1484.23	0.506933
1485.8	0.312906
1487.36	0.842858
1488.92	0.548859
1490.48	0.409801
1492.05	0.816167
1493.61	0.379666
1495.17	0.273932
1496.73	0.206329
1498.29	0.78079
1499.85	0.965658
1501.41	0.957099
1502.97	0.89164
1504.53	0.34289
1506.09	0.279364
1507.65	0.37007
1509.2	0.768644
1510.76	0.470472
1512.32	0.730979
1513.88	0.182071
1515.44	0.461259
1516.99	0.70196
1518.55	0.693619
1520.1	0.187912
1521.66	0.697643
1523.22	1.03393
1524.77	0.452213
1526.33	0.805189
1527.88	0.794456
1529.44	-0.319658
1530.99	-0.0445957
1532.55	0.72319
1534.1	0.80814
1535.65	0.421102
1537.21	0.659425
1538.76	0.46385
1540.31	0.985618
1541.86	1.0732
1543.42	0.10659
1544.97	0.890214
1546.52	1.01466
1548.07	1.00732
1549.62	0.625085
1551.17	0.880459
1552.72	0.817842
1554.27	1.14882
1555.82	1.03251
1557.37	0.880887
1558.92	0.544871
1560.47	0.863918
1562.02	1.22189
1563.57	1.35722
1565.11	0.970775
1566.66	1.59206
1568.21	1.65335
1569.75	1.47158
1571.3	1.38269
1572.85	1.70416
1574.39	2.04415
1575.94	1.46946
1577.49	1.02564
1579.03	1.42233
1580.58	1.59571
1582.12	1.39648
1583.67	1.81455
1585.21	1.318
1586.75	1.28899
1588.3	1.33494
1589.84	1.2123
1591.38	1.46348
1592.93	1.52709
1594.47	1.19707
1596.01	1.72874
1597.55	1.11792
1599.09	1.36983
1600.63	1.45387
1602.18	1.10683
1603.72	1.62322
1605.26	1.82002
1606.8	1.62083
1608.34	1.30667
1609.87	1.29078
1611.41	1.32881
1612.95	1.38349
1614.49	1.34286
1616.03	1.03923
1617.57	1.44872
1619.11	1.72784
1620.64	1.14688
1622.18	0.942165
1623.72	1.37491
1625.25	1.33962
1626.79	1.7527
1628.32	1.28485
1629.86	1.93789
1631.4	1.16869
1632.93	1.57666
1634.47	1.83512
1636	0.95606
1637.53	1.29099
1639.07	1.16026
1640.6	2.01743
1642.14	1.92317
1643.67	1.62298
1645.2	1.56373
1646.73	1.68952
1648.27	1.59179
1649.8	1.51316
1651.33	1.60268
1652.86	1.80473
1654.39	1.78534
1655.92	2.35978
1657.45	1.82208
1658.98	2.4693
1660.51	1.48541
1662.04	1.38911
1663.57	1.51356
1665.1	1.6187
1666.63	1.18884
1668.16	1.36932
1669.69	1.29308
1671.21	1.64225
1672.74	1.56874
1674.27	0.832825
1675.79	0.925536
1677.32	1.07261
1678.85	1.54957
1680.37	1.21594
1681.9	1.26775
1683.42	1.42931
1684.95	0.801647
1686.47	0.835338
1688	0.612839
1689.52	0.977187
1691.05	0.627341
1692.57	0.772042
1694.1	0.751907
1695.62	0.146602
1697.14	0.181207
1698.66	0.12413
1700.19	0.267448
1701.71	0.191216
1703.23	0.460784
1704.75	0.784009
1706.27	0.087307
1707.79	0.445899
1709.32	0.6403
1710.83	0.616675
1712.35	0.230615
1713.88	0.0989971
1715.39	-0.195264
1716.91	0.415289
1718.43	-0.222332
1719.95	0.387018
1721.47	0.273805
1722.99	0.377671
1724.5	0.0499907
1726.02	0.210168
1727.54	0.281525
1729.06	0.299839
1730.57	1.03224
1732.09	0.0812111
1733.61	-0.00561905
1735.12	0.0931597
1736.64	0.0635424
1738.15	0.257089
1739.67	0.296216
1741.18	-0.0511322
1742.7	-0.151876
1744.21	0.0604982
1745.72	0.675191
1747.24	-0.0877399
1748.75	0.203573
1750.26	0.43104
1751.78	0.055891
1753.29	0.192182
1754.8	0.215469
1756.31	0.29747
1757.82	0.0972013
1759.34	0.107501
1760.85	0.151518
1762.36	0.258896
1763.87	0.40198
1765.38	-0.197159
1766.89	-0.155758
1768.4	-0.333341
1769.91	-0.408175
1771.41	0.11292
1772.92	0.502475
1774.43	0.145493
1775.94	-0.296598
1777.45	0.132292
1778.96	0.199156
1780.46	0.175364
1781.97	-0.272629
1783.48	0.184936
1784.98	0.0508738
1786.49	-0.24571
1788	-0.158412
1789.5	0.140823
1791.01	0.111795
1792.51	-0.168262
1794.01	0.101959
1795.52	-0.0491171
1797.02	-0.181055
1798.53	0.0559559
1800.03	0.175359
1801.54	-0.15562
1803.04	0.388109
1804.54	-0.0549517
1806.04	0.0596533
1807.54	-0.0025425
1809.05	0.123204
1810.55	-0.0585756
1812.05	0.0287828
1813.55	0.304988
1815.05	-0.0119801
1816.55	-0.0371561
1818.05	0.221359
1819.55	0.0834246
1821.05	0.096611
1822.55	-0.089345
1824.05	-0.0178299
1825.55	0.264618
1827.05	0.00207329
1828.55	0.269195
1830.04	0.264942
1831.54	0.0504227
1833.04	0.189397
1834.54	0.0643845
1836.03	-0.139876
1837.53	0.229925
1839.03	0.043642
1840.52	0.00853634
1842.02	-0.220747
1843.51	-0.0351429
1845.01	-0.202078
1846.5	0.174411
1848	-0.00346184
1849.49	-0.0718565
1850.99	-0.211549
1852.48	0.0233021
1853.97	0.33069
1855.47	0.4325
1856.96	-0.0981817
1858.45	0.386897
1859.94	0.267451
1861.44	0.0925255
1862.93	0.271677
1864.42	0.0974512
1865.91	0.0274973
1867.4	0.154544
1868.89	0.135053
1870.38	0.134204
1871.87	0.0655632
1873.36	0.393364
1874.85	-0.109377
1876.34	0.266378
1877.83	-0.0451488
1879.32	0.136248
1880.81	0.271994
1882.3	0.30007
1882.56	0.306282
1884.06	0.148566
1885.55	0.338693
1887.04	0.09235
1888.54	-0.293475
1890.03	0.208611
1891.52	0.293836
1893.02	0.137206
1894.51	-0.069747
1896	0.263786
1897.49	0.146059
1898.99	0.271685
1900.48	0.0831738
1901.97	0.345345
1903.46	0.136095
1904.95	0.0472631
1906.44	0.739587
1907.93	-0.218495
1909.42	0.00521755
1910.91	0.1082
1912.4	0.0211849
1913.89	0.0908337
1915.38	-0.238294
1916.86	0.299219
1918.35	-0.377306
1919.84	0.0896969
1921.33	-0.240436
1922.82	0.572865
1924.3	0.192135
1925.79	0.0549812
1927.28	-0.271577
1928.76	-0.164742
1930.25	-0.0059824
1931.74	0.394445
1933.22	0.239281
1934.71	0.342067
1936.19	-0.0240297
1937.67	0.62925
1939.16	0.244525
1940.64	0.413154
1942.13	-0.245906
1943.61	0.131663
1945.09	0.285605
1946.58	0.232943
1948.06	-0.0094986
1949.54	-0.114682
1951.03	0.278577
1952.51	-0.0866184
1953.99	-0.279937
1955.47	0.145531
1956.95	0.313241
1958.43	0.138186
1959.91	-0.430511
1961.39	-0.0722713
1962.87	0.165874
1964.35	0.060976
1965.83	0.212539
1967.31	0.174994
1968.79	-0.119718
1970.27	0.303279
1971.75	0.0251293
1973.22	0.0545416
1974.7	-0.444715
1976.18	0.488558
1977.66	0.279576
1979.13	0.275217
1980.61	0.15176
1982.09	-0.0227041
1983.56	0.159492
1985.04	0.341076
1986.52	-0.0375385
1987.99	0.465641
1989.47	0.00314522
1990.94	0.557307
1992.41	0.232283
1993.89	0.0607262
1995.36	0.413968
1996.84	0.294379
1998.31	0.411248
1999.78	0.122422
2001.26	-0.268013
2002.73	0.269087
2004.2	0.0132093
2005.67	0.330807
2007.15	0.345699
2008.62	0.243659
2010.09	0.226694
2011.56	0.041914
2013.03	0.328487
2014.5	0.227489
2015.97	0.159411
2017.44	0.32593
2018.91	0.323381
2020.38	0.370701
2021.85	0.518587
2023.32	0.146336
2024.79	0.211425
2026.25	0.344734
2027.72	0.362028
2029.19	0.347265
2030.66	0.333824
2032.13	0.505926
2033.59	0.158203
2035.06	0.3308
2036.53	-0.30322
2037.99	0.439757
2039.46	0.207893
2040.92	-0.141799
2042.39	-0.0372934
2043.85	-0.217948
2045.32	0.275194
2046.78	0.331811
2048.25	0.506695
2049.71	0.14209
2051.18	0.214522
2052.64	0.285467
2054.1	0.438955
2055.56	0.270287
2057.03	0.134065
2058.49	0.57009
2059.95	0.213971
2061.42	0.279469
2062.88	0.530886
2064.34	0.295146
2065.8	0.0436144
2067.26	0.23045
2068.72	0.350554
2070.18	0.538321
2071.64	0.692523
2073.1	0.105757
2074.56	0.158489
2076.02	0.716108
2077.48	0.347165
2078.94	0.75246
2080.39	-0.0888157
2081.85	0.113404
2083.31	0.735716
2084.77	0.38095
2086.22	0.44622
2087.68	0.494008
2089.14	0.339661
2090.6	0.907535
2092.05	0.702482
2093.51	0.598221
2094.96	0.728581
2096.42	0.623632
2097.87	0.819613
2099.33	0.84731
2100.78	0.77431
2102.24	0.684949
2103.69	0.563167
2105.15	0.843365
2106.6	0.424042
2108.05	1.04008
2109.51	0.872439
2110.96	0.904341
2112.41	0.15171
2113.86	0.713761
2115.32	1.10701
2116.77	0.866957
2118.22	1.05952
2119.67	1.03742
2121.12	1.21643
2122.57	0.634445
2124.02	0.866691
2125.47	1.2156
2126.92	1.26571
2128.37	1.53021
2129.82	1.24624
2131.27	1.29238
2132.72	1.12246
2134.17	1.34974
2135.62	1.80909
2137.06	1.31105
2138.51	1.34404
2139.96	1.37903
2141.41	1.79596
2142.85	2.13173
2144.3	1.59169
2145.75	1.21682
2147.19	1.91754
2148.64	1.90586
2150.09	1.95947
2151.53	1.96228
2152.97	1.66574
2154.42	1.91508
2155.86	1.79941
2157.31	1.98203
2158.75	2.11573
2160.2	1.85334
2161.64	1.77503
2163.08	2.1463
2164.53	2.00539
2165.97	1.9316
2167.41	2.17325
2168.86	2.09816
2170.3	1.57192
2171.74	2.25751
2173.18	1.99283
2174.62	1.67678
2176.06	2.59084
2177.5	1.69246
2178.94	2.39119
2180.38	2.34282
2181.82	1.49732
2183.26	1.60012
2184.7	1.63671
2186.14	1.83974
2187.58	1.77664
2189.02	1.23093
2190.46	1.75031
2191.89	1.52039
2193.33	1.42281
2194.77	1.57357
2196.21	1.72234
2197.64	1.38637
2199.08	1.59766
2200.52	1.47527
2201.95	1.73476
2203.39	2.04437
2204.83	1.55893
2206.26	1.53914
2207.7	1.48678
2209.13	1.69921
2210.57	1.4968
2212	1.6905
2213.43	1.65174
2214.87	1.34863
2216.3	1.3602
2217.73	1.37296
2219.17	1.30456
2220.6	1.13819
2222.03	1.36757
2223.47	1.41481
2224.9	1.06531
2226.33	1.02711
2227.76	1.03657
2229.19	1.14322
2230.62	1.01917
2232.05	0.944336
2233.49	0.804489
2234.91	0.812867
2236.34	0.822428
2237.77	0.245883
2239.2	0.781374
2240.63	0.959599
2242.06	0.992813
2243.49	1.09254
2244.92	0.752213
2246.35	0.639542
2247.78	0.606841
2249.2	1.02844
2250.63	0.697906
2252.06	0.528874
2253.48	0.570729
2254.91	0.726549
2256.34	0.558894
2257.76	0.442486
2259.19	0.734534
2260.61	0.867271
2262.04	0.953871
2263.46	0.814801
2264.89	0.594598
2266.31	0.617661
2267.74	0.477262
2269.16	0.840337
2270.59	0.730749
2272.01	0.376347
2273.43	0.689363
2274.85	0.36729
2276.28	0.485208
2277.7	0.619655
2279.12	1.11289
2280.54	1.03558
2281.97	0.582949
2283.39	0.374733
2284.81	0.49283
2286.23	0.660176
2287.65	0.387132
2289.07	0.522681
2290.49	0.41363
2291.91	0.190335
2293.33	0.326752
2294.75	0.250563
2296.17	0.632549
2297.59	0.50716
2299.01	0.332569
2300.42	0.502199
2301.84	0.442698
2303.26	0.662327
2304.68	0.52121
2306.1	0.0349789
2307.51	0.402352
2308.93	0.309245
2310.35	0.527931
2311.76	0.285789
2313.18	0.438371
2314.59	-0.0504742
2316.01	0.300804
2317.43	0.653176
2318.84	0.231585
2320.26	0.469035
2321.67	0.606595
2323.08	0.46176
2324.5	0.578635
2325.91	0.396245
2327.33	0.937908
2328.74	0.65421
2330.15	0.931053
2331.56	0.582943
2332.98	0.0881138
2334.39	0.203174
2335.8	0.153902
2337.21	0.252222
2338.62	0.44816
2340.04	0.018384
2341.45	0.146523
2342.86	0.356074
2344.27	0.0569344
2345.68	0.315675
2347.09	0.132144
2348.5	0.210763
2349.91	-0.169129
2351.31	0.0882807
2352.72	0.344327
2354.13	0.0442238
2355.54	0.0374575
2356.95	0.0629539
2358.36	0.348604
2359.76	-0.0486116
2361.17	-0.136528
2362.58	0.0675488
2363.98	0.352069
2365.39	-0.0759029
2366.8	0.0466852
2368.21	0.0888796
2369.61	-0.287398
2371.02	-0.0815773
2372.42	-0.0358686
2373.83	-0.279108
2375.23	0.0415668
2376.64	-0.0245371
2378.04	-0.0433636
2379.44	0.129172
2380.85	0.203496
2382.25	0.645086
2383.66	0.348053
2385.06	-0.220391
2386.46	-0.0761337
2387.86	0.0686464
2389.26	0.0309324
2390.67	0.0900688
2392.07	-0.0248737
2393.47	-0.218278
2394.87	0.0345926
2396.27	-0.427478
2397.67	0.446346
2399.07	-0.0302992
2400.47	0.017971
2401.87	-0.235266
2403.27	-0.250171
2404.67	-0.0272436
2406.07	0.178874
2407.47	0.447419
2408.87	0.032999
2410.27	-0.0167341
2411.67	0.0605478
2413.07	0.233571
2414.46	0.201913
2415.86	0.0608854
2417.26	0.554399
2418.66	-0.0119553
2420.05	0.0869923
2421.45	-0.273506
2422.84	-0.079957
2424.24	0.224304
2425.64	0.227622
2427.03	-0.0696812
2428.43	0.569077
2429.82	0.432089
2431.22	0.0894051
2432.61	0.0481453
2434.01	-0.200118
2435.4	0.328841
2436.79	0.18924
2438.19	-0.237826
2439.58	0.239456
2440.97	0.540941
2442.37	-0.237748
2443.76	-0.000564575
2445.15	0.204539
2446.54	0.187363
2447.93	0.106686
2449.33	-0.0056076
2450.72	0.0724211
2452.11	-0.0706739
2453.5	0.419982
2454.89	0.642334
2456.28	0.153491
2457.67	-0.097702
2459.06	0.125485
2460.45	0.0159674
2461.84	-0.363052
2463.23	0.174137
2464.62	0.315402
2466	0.156213
2467.39	0.423277
2468.78	0.0589323
2470.17	0.136308
2471.55	-0.00750446
2472.94	-0.30933
2474.33	0.458982
2475.72	0.0929909
2477.1	0.0415697
2478.49	0.0373049
2479.87	-0.217853
2481.26	0.358562
2482.65	-0.00601673
2484.03	-0.0417185
2485.42	-0.0156326
2486.8	0.384266
2488.19	0.0019865
2489.57	0.180974
2490.95	0.15705
2492.34	0.11816
2493.72	0.235678
2495.1	0.137101
2496.49	0.0864153
2497.87	-0.0717964
2499.25	0.157411
2500.63	0.0920992
2502.02	0.180676
2503.4	-0.0406466
2504.78	-0.138985
2506.16	0.101282
2507.54	0.186893
2508.92	-0.127252
2510.3	-0.056386
2511.68	0.245076
2513.06	0.0102682
2514.44	0.190209
2515.82	-0.210875
2517.2	-0.121235
2518.58	-0.0923386
2519.96	-0.00218773
2521.34	0.316704
2522.72	0.100376
2524.1	0.234332
2525.47	0.108319
2526.85	-0.0329561
2528.23	0.0850611
2529.6	-0.145745
2530.98	0.339517
2532.36	-0.00959873
2533.74	0.12888
2535.11	-0.111791
2536.49	0.133657
2537.86	0.241712
2539.24	0.394366
2540.61	0.105833
2541.99	0.0751734
2543.36	-0.106901
2544.74	0.075985
2546.11	-0.270866
2547.49	0.354224
2548.86	0.0851803
2550.23	0.0285349
2551.61	0.199059
2552.98	0.247314
2554.35	0.264221
2555.72	-0.417628
2557.09	0.159263
2558.47	0.0837097
2559.84	-0.127966
2561.21	0.130804
2562.58	-0.0645199
2563.95	-0.350185
2565.32	0.516261
2566.69	0.352487
2568.06	0.234264
2569.43	0.252448
2570.8	0.103923
2572.17	0.122164
2573.54	0.0950165
2574.91	0.371161
2576.28	0.495778
2577.65	-0.0619564
2579.02	0.016881
2580.39	0.0195875
2581.75	0.0067482
2583.12	0.175508
2584.49	0.283384
2585.85	0.0122442
2587.22	0.105044
2588.59	0.0464621
2589.95	0.0183077
2591.32	-0.40395
2592.68	0.158315
2594.05	0.219725
2595.42	-0.0833149
2596.78	-0.205426
2598.15	-0.0104446
2599.51	-0.0730391
2600.88	0.0911999
2602.24	-0.303019
2603.6	-0.0169573
2604.97	0.209044
2606.33	0.0730457
2607.69	0.0423889
2609.06	0.237028
2610.42	0.430287
2611.78	-0.32616
2613.14	-0.150126
2614.51	0.145032
2615.87	-0.025795
2617.23	0.298631
2618.59	0.0389667
2619.95	0.244377
2621.31	0.0315213
2622.67	0.103369
2624.03	0.130547
2625.39	0.142719
2626.75	0.0949979
2628.11	0.255645
2629.47	-0.0160174
2630.83	0.24815
2632.19	0.229353
2633.55	-0.30933
2634.91	0.162078
2636.26	-0.00497293
2637.62	0.213505
2638.98	0.0171313
2640.34	-0.178772
2641.69	0.0250177
2643.05	-0.155307
2644.41	0.0486045
2645.76	-0.116637
2647.12	-0.296748
2648.48	-0.123701
2649.83	-0.0547051
2651.19	0.219342
2652.54	0.0226212
2653.9	0.163956
2655.25	0.320408
2656.6	0.0383096
2657.96	0.123612
2659.31	-0.214555
2660.67	-0.171851
2662.02	0.338324
2663.37	0.175518
2664.73	-0.454924
2666.08	-0.00584078
2667.43	0.0194917
2668.78	-0.202827
2670.14	0.37571
2671.49	0.212409
2672.84	0.00635672
2674.19	0.018971
2675.54	-0.0694823
2676.89	0.132853
2678.24	0.21964
2679.59	0.234693
2680.94	-0.213183
2682.29	-0.311965
2683.64	0.329853
2684.99	0.334672
2686.34	0.325429
2687.69	-0.0904093
2689.04	-0.333328
2690.39	0.351316
2691.74	-0.185114
2693.08	0.249457
2694.43	-0.013289
2695.78	0.34727
2697.13	0.505285
2698.47	0.0128202
2699.82	0.289544
2701.17	-0.170592
2702.51	-0.0935955
2703.86	0.27423
2705.21	0.439905
2706.55	0.330194
2707.9	-0.157152
2709.24	0.00799227
2710.58	-0.103008
2711.93	0.599189
2713.27	0.299037
2714.62	0.20214
2715.96	0.570417
2717.3	0.0224795
2718.65	0.0559425
2719.99	0.0308762
2721.33	0.23824
2722.68	0.212329
2724.02	0.142304
2725.36	0.392101
2726.71	0.743411
2728.05	0.235692
2729.39	0.7174
2730.73	0.398588
2732.07	0.312612
2733.41	0.168558
2734.75	0.446527
2736.09	0.157414
2737.43	-0.102446
2738.77	0.132165
2740.11	-0.0406542
2741.45	0.178708
2742.79	0.0339737
2744.13	-0.140391
2745.47	0.0770459
2746.81	0.0180221
2748.14	0.37982
2749.48	0.4802
2750.82	-0.0284252
2752.16	0.434916
2753.49	0.0286031
2754.83	-0.0730295
2756.17	0.448325
2757.5	0.390358
2758.84	-0.000265121
2760.18	-0.0429978
2761.51	-0.157624
2762.85	0.307
2764.18	0.0773425
2765.52	0.354086
2766.85	-0.00619841
2768.19	-0.309359
2769.52	0.687794
2770.86	0.121916
2772.19	0.407474
2773.52	0.186606
2774.86	0.484595
2776.19	0.177093
2777.52	0.359766
2778.86	-0.00375891
2780.19	0.0791988
2781.52	0.205424
2782.85	-0.156363
2784.19	-0.0157757
2785.52	-0.0330353
2786.85	0.336621
2788.18	0.348458
2789.51	-0.0681834
2790.84	0.617611
2792.17	0.302863
2793.5	0.0601802
2794.83	0.217807
2796.16	0.189298
2797.49	-0.282497
2798.82	0.287843
2800.15	0.172272
2801.48	0.184941
2802.81	0.0120664
2804.13	-0.0326233
2805.46	0.406569
2806.79	0.403415
2808.12	0.186323
2809.45	0.168138
2810.77	-0.0345907
2812.1	-0.193888
2813.43	-0.323601
2814.75	-0.182552
2816.08	0.0447431
2817.41	0.00369263
2818.73	0.388375
2820.06	0.376192
2821.38	0.236027
2822.71	0.2228
2824.03	0.563192
2825.36	0.138228
2826.68	0.591491
2828	-0.186708
2829.33	0.210827
2830.65	0.608725
2831.98	0.086679
2833.3	0.286512
2834.62	0.316171
2835.94	0.826533
2837.27	-0.0221143
2838.59	0.458915
2839.91	0.628389
2841.23	1.0665
2842.55	0.854602
2843.87	1.30765
2845.2	1.2667
2846.52	1.29701
2847.84	1.469
2849.16	1.24527
2850.48	1.14844
2851.8	1.48928
2853.12	1.60347
2854.44	1.59007
2855.76	1.81669
2857.08	1.56292
2858.39	1.46464
2859.71	1.40873
2861.03	1.19736
2862.35	1.81867
2863.67	1.29614
2864.98	1.84599
2866.3	1.98645
2867.62	1.84502
2868.94	1.95786
2870.25	2.73363
2871.57	2.5649
2872.88	2.38185
2874.2	2.5504
2875.52	2.71781
2876.83	2.54613
2878.15	2.40198
2879.46	2.59524
2880.78	2.74642
2882.09	2.78585
2883.41	2.44707
2884.72	2.88164
2886.03	2.6989
2887.35	2.83909
2888.66	2.6841
2889.97	2.87913
2891.29	2.84884
2892.6	2.55171
2893.91	2.31073
2895.22	2.6864
2896.54	2.86657
2897.85	2.64181
2899.16	2.75387
2900.47	2.90859
2901.78	3.03573
2903.09	2.70143
2904.4	3.09462
2905.71	3.11039
2907.02	3.07073
2908.33	3.15769
2909.64	3.27344
2910.95	3.40374
2912.26	3.842
2913.57	3.50967
2914.88	3.79197
2916.19	3.89062
2917.5	3.86177
2918.81	3.95792
2920.11	4.37554
2921.42	3.75888
2922.73	4.22005
2924.04	4.66842
2925.34	4.2512
2926.65	4.46356
2927.96	4.60606
2929.26	5.11167
2930.57	4.84782
2931.87	4.49963
2933.18	4.97593
2934.49	4.78123
2935.79	5.17364
2937.1	5.00714
2938.4	4.33777
2939.7	4.25558
2941.01	4.43935
2942.31	4.35842
2943.62	4.01304
2944.92	3.64077
2946.22	3.39517
2947.53	3.97537
2948.83	3.82794
2950.13	4.02934
2951.43	3.85103
2952.74	3.61488
2954.04	3.23746
2955.34	3.57371
2956.64	3.99467
2957.94	3.61972
2959.24	3.63921
2960.54	3.54925
2961.84	3.43303
2963.15	3.34538
2964.45	3.34125
2965.75	3.04075
2967.05	2.96327
2968.34	2.95479
2969.64	2.65028
2970.94	2.61274
2972.24	2.77238
2973.54	2.67909
2974.84	2.59977
2976.14	2.54795
2977.43	2.34001
2978.73	2.42616
2980.03	2.20096
2981.33	2.18575
2982.62	2.2122
2983.92	2.05615
2985.22	2.04174
2986.51	2.02871
2987.81	1.80622
2989.11	2.06238
2990.4	1.37718
2991.7	1.61902
2992.99	1.10096
2994.29	1.41088
2995.58	1.21392
2996.88	1.57799
2998.17	1.19776
2999.46	1.32302
3000.76	0.747571
3002.05	0.999989
3003.34	1.39271
3004.64	1.09885
3005.93	0.972913
3007.22	0.832457
3008.52	0.775261
3009.81	1.31849
3011.1	0.812319
3012.39	0.82302
3013.68	0.415159
3014.97	0.719177
3016.27	0.52188
3017.56	0.478615
3018.85	0.477562
3020.14	0.295735
3021.43	0.614012
3022.72	0.958795
3024.01	0.400045
3025.3	0.28519
3026.59	0.322666
3027.88	0.457317
3029.16	0.813937
3030.45	0.342445
3031.74	0.729005
3033.03	0.467359
3034.32	0.730543
3035.6	0.427361
3036.89	0.454089
3038.18	0.327526
3039.47	0.240693
3040.75	0.111359
3042.04	0.461853
3043.33	0.23566
3044.61	0.59937
3045.9	0.457868
3047.18	0.414266
3048.47	0.304605
3049.75	0.497205
3051.04	0.172595
3052.32	0.571937
3053.61	0.616424
3054.89	0.510155
3056.18	0.361983
3057.46	0.349177
3058.74	0.539955
3060.03	0.64851
3061.31	0.53952
3062.59	0.3227
3063.88	0.501584
3065.16	0.124393
3066.44	0.346638
3067.72	0.637761
3069	-0.172246
3070.29	0.458915
3071.57	-0.107592
3072.85	-0.0903859
3074.13	0.306283
3075.41	0.525072
3076.69	0.267977
3077.97	0.323652
3079.25	0.448071
3080.53	0.248221
3081.81	0.538132
3083.09	0.218719
3084.37	0.00832987
3085.65	-0.364998
3086.93	0.211236
3088.21	-0.0140033
3089.49	-0.0634661
3090.76	-0.0183973
3092.04	-0.204164
3093.32	-0.294826
3094.6	0.374158
3095.87	0.324487
3097.15	0.125728
3098.43	0.00823975
3099.7	0.0803127
3100.98	0.0302854
3102.26	0.129243
3103.53	0.120029
3104.81	0.205975
3106.08	0.319578
3107.36	0.176843
3108.63	0.116205
3109.91	0.0564723
3111.18	-0.0430765
3112.46	-0.0472474
3113.73	-0.0782127
3115	0.0398254
3116.28	0.157453
3117.55	-0.227571
3118.83	0.0780401
3120.1	-0.0243225
3121.37	0.0893683
3122.64	0.0126357
3123.92	0.0169916
3125.19	0.210993
3126.46	-0.00084734
3127.73	0.599652
3129	0.212866
3130.27	0.46203
3131.55	-0.0188293
3132.82	0.176009
3134.09	0.0731249
3135.36	0.253257
3136.63	-0.0800881
3137.9	0.125713
3139.17	0.236477
3140.44	0.441017
3141.71	0.17452
3142.98	0.459528
3144.24	0.462506
3145.51	0.425735
3146.78	0.0946522
3148.05	0.126239
3149.32	0.412631
