200.43	-0.114031
202.246	-0.089263
204.061	-0.0633373
205.875	0.474158
207.688	0.622447
209.501	0.551378
211.316	0.770764
213.129	0.308911
214.941	0.258921
216.753	0.208394
218.566	-0.665496
220.377	0.471137
222.188	-0.158607
223.999	0.37359
225.809	0.349971
227.618	-0.132574
229.43	0.109316
231.239	0.302132
233.047	0.0601873
234.855	0.132195
236.663	-0.590231
238.471	0.0150127
240.278	0.429634
242.087	-0.117928
243.894	-0.158182
245.7	-0.0296249
247.506	-0.192122
249.311	0.222378
251.116	0.295921
252.921	0.101296
254.725	0.339365
256.529	0.817809
258.333	0.236163
260.136	0.0178013
261.939	-0.343317
263.744	0.0438423
265.546	0.287421
267.348	-0.167532
269.15	-0.0203724
270.951	0.728791
272.752	0.00618935
274.552	0.174311
276.353	0.340845
278.152	0.433234
279.952	0.66812
281.751	-0.0379639
283.55	0.0248413
285.348	-0.0339489
287.146	-0.453403
288.942	0.206874
290.739	0.674876
292.536	0.281598
294.333	0.536134
296.129	-0.308042
297.925	0.0682955
299.721	0.253663
301.516	-0.253937
303.311	-0.356075
305.106	0.447606
306.9	0.438593
308.694	0.357803
310.486	-0.00837517
312.279	0.650915
314.072	0.192186
315.864	0.116189
317.656	0.279916
319.448	-0.38872
321.24	-0.0320606
323.029	0.349428
324.819	0.373821
326.61	-0.103105
328.4	0.398682
330.19	0.446209
331.977	0.540466
333.766	0.63319
335.555	-0.376855
337.343	0.238137
339.131	-0.153773
340.917	0.146636
342.704	0.613348
344.491	0.314953
346.277	0.423243
348.062	0.0544891
349.848	0.116063
351.633	0.559487
353.416	0.835123
355.201	-0.154683
356.986	0.190324
358.77	0.772039
360.552	-0.124586
362.335	0.454581
364.118	0.88945
365.899	0.562636
367.682	0.567933
369.464	-0.0441227
371.243	-0.158312
373.025	0.152973
374.806	0.534066
376.585	0.465798
378.365	0.421707
380.143	0.190041
381.923	-0.0637321
383.702	-0.245464
385.479	0.0207434
387.258	0.640212
389.034	0.179659
390.812	-0.397242
392.59	0.388764
394.365	0.259329
396.142	0.0832396
397.916	0.16553
399.693	0.529507
401.467	0.305867
403.242	0.175594
405.015	-0.190232
406.79	0.359172
408.565	0.414769
410.337	0.376106
412.111	-0.249247
413.882	0.252231
415.656	-0.0904751
417.426	0.928406
419.197	0.234943
420.969	0.151748
422.739	0.420388
424.51	-0.0862637
426.279	0.110501
428.05	0.23607
429.819	-0.343039
431.589	0.486132
433.356	0.188904
435.124	0.220534
436.893	0.111314
438.66	0.400433
440.428	0.24235
442.194	0.481299
443.96	0.319499
445.727	0.0625105
447.492	0.0622864
449.259	-0.40607
451.023	-0.406289
452.787	-0.0794573
454.553	0.0837345
456.316	-0.126281
458.079	0.502267
459.844	0.0826883
461.606	0.3619
463.368	0.595639
465.132	0.599011
466.893	0.790891
468.654	0.450777
470.415	0.577205
472.177	0.63455
473.937	0.598137
475.696	0.81626
477.456	0.519951
479.217	0.0588102
480.975	-0.240147
482.733	-0.143042
484.491	0.00157833
486.251	0.287648
488.008	0.505876
489.765	-0.0201654
491.522	1.04123
493.278	-0.0678186
495.036	0.645408
496.791	-0.0212345
498.546	0.505541
500.301	0.188609
502.056	0.199131
503.81	0.232362
505.566	0.405647
507.319	0.460301
509.073	0.607703
510.825	0.471354
512.578	0.474711
514.33	0.664931
516.082	0.971446
517.833	0.382985
519.587	0.66381
521.337	0.473746
523.088	0.42432
524.838	0.257374
526.588	0.254779
528.337	0.463206
530.087	0.554138
531.835	0.761705
533.584	0.172441
535.332	0.658883
537.08	0.605751
538.827	0.85493
540.574	0.939211
542.321	0.463494
544.068	0.314249
545.814	-0.0670471
547.56	0.43463
549.305	0.471703
551.05	1.22672
552.795	0.430472
554.54	0.00579739
556.284	0.57478
558.027	0.750941
559.771	0.443396
561.514	0.136886
563.257	0.314398
564.999	-0.0365076
566.742	0.670241
568.481	0.871808
570.223	-0.00440598
571.964	0.268239
573.705	-0.306535
575.445	0.0607243
577.185	0.0164928
578.925	-0.0955067
580.665	0.0686493
582.402	0.279016
584.141	-0.20057
585.879	0.399509
587.617	0.216698
589.355	0.492882
591.092	0.0550108
592.828	-0.153269
594.564	-0.522749
596.301	0.672267
598.037	-0.0653372
599.773	0.0249968
601.506	0.137614
603.242	0.180101
604.976	0.15232
606.711	-0.221251
608.443	0.369389
610.177	-0.280151
611.91	0.378881
613.644	-0.0396538
615.374	0.0927916
617.107	0.523128
618.839	0.17403
620.569	0.579699
622.3	0.457624
624.032	0.312058
625.761	0.623546
627.491	0.38763
629.221	0.0395546
630.949	0.150023
632.679	0.353524
634.408	0.078743
636.135	0.830844
637.863	0.599926
639.592	0.00151157
641.318	0.40464
643.045	0.805014
644.77	0.429384
646.497	0.100155
648.224	0.204918
649.948	-0.392147
651.674	-0.145189
653.398	0.35513
655.123	0.449489
656.846	0.978676
658.57	0.917233
660.293	0.353305
662.017	0.472071
663.738	0.65754
665.462	0.475217
667.185	0.588332
668.905	0.746516
670.628	0.356314
672.348	0.356594
674.067	0.679597
675.789	0.913363
677.508	1.17169
679.228	0.764662
680.947	0.539864
682.667	0.6352
684.385	0.659684
686.104	1.02779
687.821	1.04912
689.538	1.0464
691.256	0.973867
692.972	1.10806
694.69	0.873013
696.406	0.660163
698.121	0.814677
699.837	0.208575
701.552	1.5339
703.268	1.087
704.982	1.12234
706.695	0.606329
708.41	1.23731
710.123	0.560881
711.836	1.07571
713.55	1.0175
715.262	0.776397
716.973	1.19779
718.685	0.569185
720.398	1.17255
722.108	0.795848
723.818	0.920383
725.53	1.18098
727.24	0.759477
728.949	1.51835
730.658	0.82445
732.369	1.71689
734.077	1.47611
735.785	0.851607
737.493	1.01896
739.2	1.59269
740.909	1.10688
742.616	1.18606
744.322	1.15381
746.028	1.95551
747.734	0.980758
749.441	1.26726
751.146	1.15004
752.851	0.786577
754.555	1.63909
756.26	1.41321
757.963	1.36872
759.667	1.59587
761.372	1.77931
763.075	1.33178
764.777	1.8317
766.479	1.67601
768.181	1.85751
769.883	2.28579
771.584	2.16947
773.285	1.3055
774.986	2.02394
776.686	1.49924
778.386	2.37762
780.085	1.62937
781.785	1.35687
783.484	1.58225
785.182	1.91994
786.881	1.62168
788.579	1.77322
790.276	1.74062
791.974	2.27052
793.671	1.60116
795.367	2.01556
797.064	1.88912
798.76	1.80947
800.456	1.84416
802.151	1.22772
803.846	2.3216
805.541	1.63855
807.236	2.03389
808.93	1.93365
810.624	1.89973
812.317	1.77529
814.01	2.03138
815.703	2.06293
817.394	1.84835
819.086	2.17055
820.778	2.17974
822.47	2.16695
824.161	2.04346
825.852	1.81005
827.543	1.82385
829.231	1.95155
830.921	1.65892
832.611	2.28224
834.3	1.88279
835.989	1.48386
837.676	1.3298
839.364	1.93374
841.053	1.44219
842.74	2.02156
844.426	2.37722
846.113	1.54902
847.8	1.59393
849.486	1.95434
851.171	1.22043
852.857	1.71969
854.542	1.05409
856.227	1.53251
857.911	1.98841
859.595	1.47596
861.279	0.961098
862.961	1.18764
864.645	1.68366
866.329	0.91672
868.01	1.45663
869.692	1.50018
871.375	1.29532
873.055	1.69934
874.737	1.58443
876.418	1.42436
878.097	1.3094
879.778	1.03631
881.457	2.04961
883.137	1.32401
884.817	0.890928
886.495	1.08869
888.174	2.23253
889.851	1.5698
891.53	1.58249
893.206	1.45879
894.884	1.5142
896.562	1.90568
898.237	1.30735
899.914	1.42722
901.589	1.12039
903.265	0.97041
904.94	1.46875
906.615	0.961596
908.289	1.92765
909.964	1.28892
911.637	1.63124
913.31	1.77351
914.984	1.40514
916.656	0.90444
918.33	1.09163
920.001	1.14574
921.674	1.08961
923.345	1.32195
925.015	1.11364
926.687	0.97345
928.357	1.05562
930.028	1.09472
931.698	1.02413
933.366	1.01999
935.037	1.21453
936.705	0.50515
938.373	1.23013
940.043	1.00783
941.71	0.808619
943.379	0.587917
945.046	1.02914
946.712	0.895597
948.378	1.04739
950.046	0.866384
951.711	0.927055
953.376	1.05387
955.043	1.18199
956.708	1.07003
958.372	1.3139
960.036	1.00878
961.701	1.41154
963.364	0.731676
965.027	1.33228
966.69	0.780492
968.354	0.889781
970.016	1.19628
971.678	0.926748
973.339	1.16634
975	1.27452
976.661	1.05263
978.324	0.832051
979.984	1.17624
981.644	1.52029
983.303	1.18802
984.962	0.499726
986.621	1.13775
988.282	1.17638
989.94	0.749435
991.598	0.41076
993.256	0.447802
994.913	0.661468
996.57	0.610253
998.227	1.37489
999.884	1.34513
1001.54	1.29302
1003.2	1.13053
1004.85	0.550134
1006.51	0.893417
1008.16	0.357932
1009.82	0.284308
1011.47	0.605892
1013.12	0.642558
1014.78	0.854754
1016.43	0.410336
1018.08	0.863935
1019.74	1.1866
1021.39	0.52613
1023.04	0.806916
1024.69	1.37257
1026.34	0.780484
1028	0.669253
1029.65	1.43134
1031.3	1.12179
1032.95	0.985623
1034.6	0.848071
1036.25	1.18909
1037.9	0.788121
1039.55	0.627141
1041.19	0.358228
1042.84	1.41678
1044.49	0.802849
1046.14	0.582115
1047.79	1.42731
1049.43	1.12295
1051.08	0.79802
1052.73	0.690975
1054.37	0.736339
1056.02	0.303568
1057.66	0.739938
1059.31	0.523757
1060.95	0.720107
1062.6	0.32868
1064.24	0.806204
1065.88	0.717448
1067.53	0.60602
1069.17	0.27654
1070.81	0.446226
1072.46	1.00636
1074.1	0.698535
1075.74	0.782293
1077.38	0.541903
1079.02	0.346063
1080.66	0.281029
1082.3	0.389482
1083.94	0.735678
1085.58	0.256612
1087.22	-0.0505314
1088.86	0.918479
1090.5	0.651237
1092.14	0.102348
1093.78	0.806597
1095.42	0.495624
1097.05	1.09129
1098.69	0.610255
1100.33	0.41129
1101.97	0.816709
1103.6	0.169364
1105.24	0.233236
1106.87	0.297606
1108.51	0.447746
1110.15	0.166889
1111.78	-0.437516
1113.41	-0.118988
1115.05	0.455745
1116.68	0.17106
1118.31	0.572868
1119.95	0.653374
1121.58	0.627625
1123.21	0.9239
1124.85	0.685986
1126.48	0.320678
1128.11	0.29839
1129.74	0.340877
1131.37	0.234208
1133	0.491246
1134.63	0.384751
1136.26	-0.342064
1137.89	0.61858
1139.52	-0.195269
1141.15	0.228988
1142.78	0.054904
1144.41	0.158359
1146.04	0.411535
1147.66	-0.165773
1149.29	-0.102834
1150.92	-0.0182056
1152.55	0.0238123
1154.17	0.342287
1155.8	0.638942
1157.43	0.552322
1159.05	0.402269
1160.68	-0.0871983
1162.3	0.126089
1163.93	0.0425539
1165.55	-0.125581
1167.17	0.0888014
1168.8	-0.229217
1170.42	-0.0171442
1172.05	-0.104276
1173.67	0.295517
1175.29	-0.0276651
1176.91	-0.0964136
1178.54	0.237569
1180.16	0.486982
1181.78	0.186856
1183.4	0.289377
1185.02	-0.0307589
1186.64	-0.245692
1188.26	-0.166254
1189.88	-0.0675201
1191.5	-0.265337
1193.12	0.671431
1194.74	0.387156
1196.36	0.292381
1197.97	-0.13635
1199.59	0.399452
1201.21	0.0795536
1202.83	0.159162
1204.44	-0.0303879
1206.06	0.345359
1207.68	0.28404
1209.29	0.452459
1210.91	0.0778894
1212.52	0.410957
1214.14	-0.0500307
1215.75	-0.0125713
1217.37	0.272931
1218.98	0.536194
1220.6	0.611948
1222.21	0.667417
1223.82	0.123013
1225.44	0.9266
1227.05	0.613111
1228.66	0.611459
1230.27	1.27257
1231.88	0.652827
1233.49	0.675113
1235.1	0.20248
1236.72	0.82633
1238.33	0.686364
1239.94	0.671021
1241.55	0.904057
1243.16	0.723146
1244.76	0.748411
1246.37	0.731401
1247.98	1.16872
1249.59	0.570768
1251.2	0.862235
1252.8	1.09176
1254.41	0.908228
1256.02	0.746354
1257.63	1.08204
1259.23	0.715385
1260.84	1.07379
1262.44	1.90917
1264.05	1.12942
1265.66	1.32271
1267.26	1.16306
1268.87	1.74883
1270.47	0.923844
1272.07	1.38335
1273.68	1.77965
1275.28	1.6152
1276.88	1.20127
1278.48	2.05045
1280.09	1.90445
1281.69	1.75828
1283.29	1.73646
1284.89	1.57042
1286.49	2.06687
1288.09	1.40667
1289.69	1.36753
1291.3	2.05212
1292.9	1.74475
1294.49	2.3044
1296.09	1.43752
1297.69	1.31292
1299.29	2.25971
1300.89	1.71938
1302.49	1.98206
1304.09	1.44071
1305.68	1.47537
1307.28	1.38627
1308.88	2.61005
1310.47	1.72039
1312.07	1.65184
1313.66	1.17512
1315.26	1.31319
1316.86	1.24773
1318.45	1.1421
1320.05	1.52582
1321.64	1.45997
1323.23	1.47422
1324.83	1.50714
1326.42	1.41686
1328.01	1.44792
1329.61	1.33765
1331.2	1.26955
1332.79	1.70875
1334.38	1.60422
1335.98	1.46103
1337.57	1.43955
1339.16	1.11517
1340.75	0.971014
1342.34	1.73075
1343.93	1.4418
1345.52	1.49378
1347.11	1.02436
1348.7	0.537474
1350.29	0.894163
1351.87	1.31261
1353.46	0.992804
1355.05	1.45392
1356.64	0.656272
1358.23	0.957405
1359.81	1.19759
1361.4	0.57836
1362.99	0.856692
1364.57	0.954962
1366.16	0.9537
1367.74	1.07263
1369.33	0.495834
1370.91	0.836064
1372.5	0.660033
1374.08	0.98245
1375.67	0.76823
1377.25	0.375008
1378.83	0.538529
1380.42	0.163962
1382	0.425008
1383.58	0.86377
1385.16	1.14228
1386.75	0.406882
1388.33	0.804198
1389.91	0.705503
1391.49	0.806095
1393.07	0.431227
1394.65	0.651879
1396.23	0.812799
1397.81	1.1316
1399.39	1.03315
1400.97	0.518016
1402.55	0.418582
1404.13	0.774242
1405.7	0.576319
1407.28	0.35955
1408.86	0.440046
1410.44	0.441925
1412.01	0.680741
1413.59	0.741241
1415.17	1.3139
1416.74	0.701991
1418.32	0.464871
1419.89	0.641952
1421.47	0.32751
1423.05	0.76262
1424.62	0.765981
1426.19	0.475224
1427.77	1.09034
1429.34	1.09508
1430.92	1.29584
1432.49	0.944506
1434.06	1.47775
1435.63	1.28259
1437.2	1.40229
1438.78	1.52259
1440.35	0.975554
1441.92	1.54967
1443.49	1.49553
1445.06	1.75622
1446.63	1.25055
1448.2	1.78676
1449.77	1.8122
1451.34	1.85775
1452.91	2.25782
1454.48	2.28469
1456.05	1.72127
1457.62	1.96388
1459.18	1.22132
1460.75	1.83509
1462.32	1.85665
1463.89	1.444
1465.45	1.32554
1467.02	1.01043
1468.59	0.9512
1470.15	0.794677
1471.72	0.501925
1473.28	0.524039
1474.85	0.880171
1476.41	0.883643
1477.98	0.867608
1479.54	0.949536
1481.11	0.874556
1482.67	0.348795
1484.23	0.646014
1485.8	0.374724
1487.36	0.807979
1488.92	-0.0718727
1490.48	0.319464
1492.05	0.376092
1493.61	0.840958
1495.17	0.152181
1496.73	-0.107168
1498.29	0.120419
1499.85	0.50335
1501.41	0.459202
1502.97	-0.14625
1504.53	0.81959
1506.09	0.583722
1507.65	-0.00032711
1509.2	0.285307
1510.76	0.53075
1512.32	0.562838
1513.88	0.267324
1515.44	0.933782
1516.99	0.600803
1518.55	0.518579
1520.1	0.456229
1521.66	0.604672
1523.22	0.981893
1524.77	0.70844
1526.33	0.453843
1527.88	0.161033
1529.44	0.458014
1530.99	0.279436
1532.55	1.14465
1534.1	0.550235
1535.65	0.790411
1537.21	0.917531
1538.76	0.875134
1540.31	1.0783
1541.86	1.01744
1543.42	0.486102
1544.97	1.08372
1546.52	0.815964
1548.07	0.848803
1549.62	0.750338
1551.17	1.10162
1552.72	1.20948
1554.27	1.07502
1555.82	1.1101
1557.37	1.10939
1558.92	1.07312
1560.47	0.75874
1562.02	1.02412
1563.57	1.27186
1565.11	1.35226
1566.66	1.48876
1568.21	1.15848
1569.75	1.49976
1571.3	1.33672
1572.85	1.15473
1574.39	1.68197
1575.94	1.36919
1577.49	1.28059
1579.03	1.41639
1580.58	1.90755
1582.12	1.44713
1583.67	1.65979
1585.21	1.29393
1586.75	1.80695
1588.3	1.36663
1589.84	1.73036
1591.38	1.49496
1592.93	1.65219
1594.47	1.54701
1596.01	1.5542
1597.55	1.13069
1599.09	1.25119
1600.63	1.52248
1602.18	1.41909
1603.72	1.10902
1605.26	1.39924
1606.8	1.48176
1608.34	1.13026
1609.87	1.1902
1611.41	1.21052
1612.95	1.24784
1614.49	1.19012
1616.03	0.944511
1617.57	1.07448
1619.11	1.09288
1620.64	1.03766
1622.18	1.11471
1623.72	1.77283
1625.25	1.36383
1626.79	0.804594
1628.32	1.19871
1629.86	1.31079
1631.4	1.49657
1632.93	1.86852
1634.47	1.62429
1636	1.86614
1637.53	1.54914
1639.07	1.43803
1640.6	1.58796
1642.14	1.01067
1643.67	1.99706
1645.2	1.47391
1646.73	1.75021
1648.27	1.80283
1649.8	1.74431
1651.33	2.11355
1652.86	2.07551
1654.39	1.81609
1655.92	1.90961
1657.45	1.87331
1658.98	1.85486
1660.51	1.53903
1662.04	1.96226
1663.57	1.79226
1665.1	1.56657
1666.63	2.15359
1668.16	1.80018
1669.69	1.66976
1671.21	1.57767
1672.74	1.46823
1674.27	1.76441
1675.79	1.17653
1677.32	2.06066
1678.85	1.12186
1680.37	1.19428
1681.9	1.24757
1683.42	1.31885
1684.95	1.16988
1686.47	0.948034
1688	1.11173
1689.52	0.396288
1691.05	1.055
1692.57	0.57849
1694.1	0.358475
1695.62	0.74184
1697.14	0.430248
1698.66	0.630035
1700.19	0.920463
1701.71	0.535262
1703.23	0.314132
1704.75	-0.143852
1706.27	0.472041
1707.79	0.686704
1709.32	0.537639
1710.83	0.0259399
1712.35	0.385604
1713.88	0.454914
1715.39	0.397442
1716.91	0.0505972
1718.43	0.264474
1719.95	0.405696
1721.47	0.312256
1722.99	-0.429626
1724.5	0.397762
1726.02	0.0727654
1727.54	0.0551319
1729.06	0.470174
1730.57	0.203253
1732.09	0.0833788
1733.61	-0.106544
1735.12	0.550086
1736.64	0.45201
1738.15	0.236397
1739.67	0.129254
1741.18	-0.163093
1742.7	0.128537
1744.21	0.120859
1745.72	0.30243
1747.24	0.207741
1748.75	0.350856
1750.26	-0.113484
1751.78	0.257458
1753.29	0.226234
1754.8	-0.154892
1756.31	0.251795
1757.82	-0.0606551
1759.34	-0.0776477
1760.85	0.16118
1762.36	-0.106759
1763.87	-0.0652494
1765.38	-0.0540743
1766.89	0.139293
1768.4	0.30706
1769.91	0.11205
1771.41	0.0922728
1772.92	0.0542583
1774.43	0.0624881
1775.94	-0.0672812
1777.45	0.12032
1778.96	0.0814877
1780.46	0.131558
1781.97	0.0527124
1783.48	-0.0524998
1784.98	-0.0849566
1786.49	-0.0745306
1788	0.167486
1789.5	0.194297
1791.01	0.330949
1792.51	0.107682
1794.01	-0.00309467
1795.52	-0.0393305
1797.02	0.501151
1798.53	0.342777
1800.03	0.0969143
1801.54	-0.0933747
1803.04	0.126746
1804.54	0.284149
1806.04	0.0480981
1807.54	0.0283885
1809.05	0.195845
1810.55	-0.0531316
1812.05	0.203762
1813.55	0.257204
1815.05	0.121071
1816.55	0.0131969
1818.05	-0.0673885
1819.55	-0.0244012
1821.05	0.0174408
1822.55	0.00778294
1824.05	0.139344
1825.55	0.135236
1827.05	0.111637
1828.55	0.0559273
1830.04	-0.101397
1831.54	-0.189813
1833.04	-0.222135
1834.54	0.170422
1836.03	0.122861
1837.53	-0.360519
1839.03	-0.165711
1840.52	0.160789
1842.02	0.0551858
1843.51	0.174875
1845.01	0.16294
1846.5	0.263003
1848	-0.0718913
1849.49	0.226427
1850.99	-0.402408
1852.48	0.120724
1853.97	0.158849
1855.47	-0.0889401
1856.96	0.227542
1858.45	-0.0421867
1859.94	-0.0141482
1861.44	0.16389
1862.93	-0.13892
1864.42	0.196875
1865.91	0.0599871
1867.4	0.121516
1868.89	-0.0215244
1870.38	-0.075026
1871.87	0.0218396
1873.36	0.0919814
1874.85	-0.0759945
1876.34	-0.0809083
1877.83	0.142121
1879.32	0.258424
1880.81	0.0513363
1882.3	-0.0972176
1882.56	-0.120034
1884.06	0.0190148
1885.55	0.0353284
1887.04	0.312159
1888.54	0.205313
1890.03	0.150949
1891.52	0.0105143
1893.02	-0.00680017
1894.51	0.0469213
1896	-0.00242138
1897.49	-0.0685086
1898.99	-0.465247
1900.48	-0.236609
1901.97	-0.131042
1903.46	0.233918
1904.95	0.319272
1906.44	0.317007
1907.93	0.175807
1909.42	0.417114
1910.91	-0.0350099
1912.4	0.502628
1913.89	0.29474
1915.38	0.156354
1916.86	-0.103623
1918.35	-0.0692711
1919.84	0.259243
1921.33	0.362301
1922.82	0.292495
1924.3	-0.0881543
1925.79	0.224664
1927.28	0.261372
1928.76	0.177412
1930.25	0.283865
1931.74	0.0432901
1933.22	0.355613
1934.71	0.458558
1936.19	0.00634384
1937.67	0.470031
1939.16	0.345263
1940.64	0.0309854
1942.13	-0.0233564
1943.61	-0.145792
1945.09	0.163649
1946.58	0.214607
1948.06	-0.165508
1949.54	-0.0636191
1951.03	0.312837
1952.51	0.0858488
1953.99	0.305747
1955.47	0.130066
1956.95	-0.0794001
1958.43	0.00369883
1959.91	0.138769
1961.39	0.359891
1962.87	0.186775
1964.35	-0.260489
1965.83	0.0799651
1967.31	0.214111
1968.79	-0.216894
1970.27	-0.0153828
1971.75	-0.0193396
1973.22	0.437485
1974.7	0.126237
1976.18	0.0030508
1977.66	0.169718
1979.13	-0.106308
1980.61	-0.501066
1982.09	-0.147524
1983.56	0.154324
1985.04	0.319651
1986.52	-0.10908
1987.99	-0.181282
1989.47	0.0347514
1990.94	0.132575
1992.41	0.129582
1993.89	0.397902
1995.36	0.193525
1996.84	0.496453
1998.31	0.748473
1999.78	0.0714111
2001.26	0.271868
2002.73	0.235584
2004.2	0.232938
2005.67	0.297983
2007.15	0.26254
2008.62	0.211079
2010.09	0.412891
2011.56	0.177418
2013.03	-0.125292
2014.5	0.00926828
2015.97	0.159956
2017.44	0.393877
2018.91	0.273878
2020.38	0.271145
2021.85	0.201122
2023.32	0.181804
2024.79	0.146382
2026.25	0.0784211
2027.72	0.330335
2029.19	-0.0371027
2030.66	0.284268
2032.13	0.338102
2033.59	0.157342
2035.06	0.37947
2036.53	0.416625
2037.99	0.0164504
2039.46	0.674595
2040.92	0.0890012
2042.39	0.226477
2043.85	0.347845
2045.32	0.352273
2046.78	-0.0130501
2048.25	0.716421
2049.71	0.249726
2051.18	0.338138
2052.64	0.222905
2054.1	0.274769
2055.56	0.847896
2057.03	0.374372
2058.49	0.490277
2059.95	0.521745
2061.42	0.469357
2062.88	0.299877
2064.34	0.484741
2065.8	0.115068
2067.26	0.503409
2068.72	0.841805
2070.18	0.254725
2071.64	0.441963
2073.1	0.544934
2074.56	0.597171
2076.02	0.699644
2077.48	0.768111
2078.94	0.802538
2080.39	0.550291
2081.85	0.65117
2083.31	0.482103
2084.77	0.951927
2086.22	0.714277
2087.68	0.493086
2089.14	0.523819
2090.6	0.419972
2092.05	0.635134
2093.51	0.900323
2094.96	0.863121
2096.42	0.842265
2097.87	0.720355
2099.33	0.66501
2100.78	0.810143
2102.24	1.07222
2103.69	0.917227
2105.15	1.13074
2106.6	1.02834
2108.05	1.16045
2109.51	1.27611
2110.96	0.924426
2112.41	0.971709
2113.86	1.06736
2115.32	1.0616
2116.77	1.50388
2118.22	1.3976
2119.67	1.54171
2121.12	1.1898
2122.57	1.18822
2124.02	1.71859
2125.47	1.43698
2126.92	1.58621
2128.37	1.61839
2129.82	0.903579
2131.27	1.7616
2132.72	1.9393
2134.17	2.16639
2135.62	1.93109
2137.06	2.19329
2138.51	2.12671
2139.96	1.74801
2141.41	2.19731
2142.85	2.28424
2144.3	1.89212
2145.75	2.41007
2147.19	2.24928
2148.64	2.5018
2150.09	2.35596
2151.53	2.50728
2152.97	1.92855
2154.42	2.55853
2155.86	2.459
2157.31	2.34302
2158.75	2.0787
2160.2	2.72681
2161.64	2.20045
2163.08	2.76974
2164.53	2.19654
2165.97	2.88516
2167.41	2.54454
2168.86	2.53487
2170.3	2.07429
2171.74	2.85903
2173.18	2.79346
2174.62	2.36054
2176.06	2.27642
2177.5	2.841
2178.94	2.72458
2180.38	2.45956
2181.82	2.29515
2183.26	2.59691
2184.7	2.63292
2186.14	2.65239
2187.58	2.37237
2189.02	2.45842
2190.46	2.39466
2191.89	2.44714
2193.33	2.43226
2194.77	2.23288
2196.21	2.13161
2197.64	2.34455
2199.08	1.70756
2200.52	1.76828
2201.95	1.86197
2203.39	1.95618
2204.83	1.95184
2206.26	1.56733
2207.7	2.12791
2209.13	1.8433
2210.57	1.42579
2212	1.52056
2213.43	1.36659
2214.87	2.08811
2216.3	1.70334
2217.73	1.4686
2219.17	1.72995
2220.6	1.29953
2222.03	1.29797
2223.47	1.41106
2224.9	1.29223
2226.33	1.17195
2227.76	1.55999
2229.19	0.993533
2230.62	1.32985
2232.05	1.05893
2233.49	0.985287
2234.91	1.09234
2236.34	1.0859
2237.77	0.950297
2239.2	1.07762
2240.63	1.17402
2242.06	1.06
2243.49	0.686131
2244.92	0.45932
2246.35	0.476593
2247.78	0.753448
2249.2	0.783729
2250.63	0.877189
2252.06	0.985226
2253.48	0.555709
2254.91	0.890842
2256.34	0.593576
2257.76	0.769277
2259.19	0.768907
2260.61	0.72242
2262.04	0.742949
2263.46	0.862321
2264.89	0.624553
2266.31	0.467478
2267.74	0.61866
2269.16	0.427409
2270.59	0.381877
2272.01	0.417313
2273.43	0.72949
2274.85	0.748658
2276.28	0.702841
2277.7	0.738644
2279.12	0.0572023
2280.54	0.337456
2281.97	0.422015
2283.39	0.637062
2284.81	0.395321
2286.23	0.267906
2287.65	0.33666
2289.07	0.520161
2290.49	0.459042
2291.91	0.577932
2293.33	0.386284
2294.75	0.456236
2296.17	0.395226
2297.59	0.366869
2299.01	0.682569
2300.42	0.0316982
2301.84	0.298735
2303.26	0.303773
2304.68	0.308944
2306.1	-0.178645
2307.51	0.253155
2308.93	-0.120587
2310.35	0.360012
2311.76	0.396468
2313.18	0.169658
2314.59	0.288694
2316.01	0.128502
2317.43	0.19945
2318.84	0.221384
2320.26	0.0617003
2321.67	0.39598
2323.08	0.415282
2324.5	0.350092
2325.91	0.415018
2327.33	0.429008
2328.74	0.788439
2330.15	0.455861
2331.56	0.0585341
2332.98	0.172622
2334.39	0.0240808
2335.8	0.00739861
2337.21	-0.108327
2338.62	0.104039
2340.04	-0.194102
2341.45	0.131365
2342.86	-0.249638
2344.27	0.0914183
2345.68	0.219198
2347.09	-0.0132761
2348.5	8.39233e-005
2349.91	0.307555
2351.31	0.352404
2352.72	0.151358
2354.13	0.341486
2355.54	-0.121318
2356.95	0.344652
2358.36	-0.00360489
2359.76	0.331342
2361.17	-0.0646739
2362.58	0.172419
2363.98	0.101214
2365.39	0.288952
2366.8	0.00779724
2368.21	-0.0785532
2369.61	-0.0509892
2371.02	0.106547
2372.42	0.0555487
2373.83	0.198654
2375.23	0.0683103
2376.64	0.275624
2378.04	0.1763
2379.44	0.0758133
2380.85	-0.0419211
2382.25	-0.272786
2383.66	0.393015
2385.06	0.113287
2386.46	0.0422735
2387.86	-0.0278411
2389.26	0.0944819
2390.67	0.281348
2392.07	0.166447
2393.47	-0.170231
2394.87	0.162053
2396.27	0.128996
2397.67	0.318986
2399.07	0.286916
2400.47	0.255281
2401.87	0.0650835
2403.27	0.0655522
2404.67	0.288006
2406.07	-0.0300822
2407.47	0.0321131
2408.87	-0.0966959
2410.27	0.281598
2411.67	-0.148288
2413.07	0.325553
2414.46	0.18271
2415.86	0.452745
2417.26	0.391453
2418.66	0.0142384
2420.05	0.571584
2421.45	0.162778
2422.84	0.260508
2424.24	-0.148985
2425.64	0.360575
2427.03	0.331861
2428.43	0.224614
2429.82	0.165669
2431.22	0.408736
2432.61	0.0488949
2434.01	-0.00994921
2435.4	-0.117405
2436.79	0.409449
2438.19	0.299528
2439.58	0.045588
2440.97	0.124514
2442.37	0.37756
2443.76	0.185882
2445.15	0.136964
2446.54	0.167233
2447.93	0.244908
2449.33	0.148265
2450.72	0.27357
2452.11	0.320096
2453.5	0.129915
2454.89	0.193657
2456.28	0.17887
2457.67	0.0852575
2459.06	0.149693
2460.45	-0.118464
2461.84	-0.244868
2463.23	0.00750923
2464.62	0.18024
2466	0.257832
2467.39	-0.0593462
2468.78	-0.0922756
2470.17	0.158534
2471.55	0.203805
2472.94	0.216946
2474.33	-0.0539207
2475.72	0.0997925
2477.1	-0.202827
2478.49	0.233106
2479.87	0.433108
2481.26	0.146885
2482.65	-0.0762796
2484.03	0.091887
2485.42	-0.147593
2486.8	0.331138
2488.19	-0.112768
2489.57	-0.0574799
2490.95	0.23101
2492.34	0.161705
2493.72	0.1711
2495.1	0.290186
2496.49	0.224138
2497.87	0.112439
2499.25	-0.0143652
2500.63	-0.0639329
2502.02	-0.00587845
2503.4	0.143924
2504.78	-0.15461
2506.16	0.070858
2507.54	0.249463
2508.92	0.458533
2510.3	0.176113
2511.68	0.216987
2513.06	0.258454
2514.44	-0.112955
2515.82	0.17503
2517.2	-0.087379
2518.58	-0.135016
2519.96	0.0314646
2521.34	0.36555
2522.72	-0.0339351
2524.1	-0.326802
2525.47	-0.238776
2526.85	-0.120633
2528.23	-0.428372
2529.6	0.238338
2530.98	0.191319
2532.36	0.252113
2533.74	0.131719
2535.11	0.0726981
2536.49	0.302295
2537.86	-0.334574
2539.24	0.243013
2540.61	-0.182443
2541.99	0.0143743
2543.36	-0.456278
2544.74	0.150979
2546.11	-0.150978
2547.49	-0.269928
2548.86	0.309648
2550.23	-0.00580883
2551.61	0.133533
2552.98	-0.0465612
2554.35	0.212603
2555.72	0.37992
2557.09	-0.272347
2558.47	-0.0903687
2559.84	-0.0446963
2561.21	0.304522
2562.58	0.199543
2563.95	0.140537
2565.32	0.203127
2566.69	0.0689201
2568.06	-0.262234
2569.43	0.0886126
2570.8	0.151526
2572.17	0.259961
2573.54	0.18658
2574.91	0.264874
2576.28	0.0399914
2577.65	0.103098
2579.02	-0.0159221
2580.39	0.107385
2581.75	0.291008
2583.12	0.171076
2584.49	0.354177
2585.85	-0.220699
2587.22	0.250453
2588.59	0.236713
2589.95	0.162457
2591.32	0.012341
2592.68	0.0133939
2594.05	-0.213426
2595.42	-0.153197
2596.78	0.224032
2598.15	0.0253787
2599.51	0.113917
2600.88	0.0211329
2602.24	0.034585
2603.6	-0.253328
2604.97	0.229004
2606.33	0.0021863
2607.69	-0.164414
2609.06	3.00407e-005
2610.42	-0.0174212
2611.78	0.0543895
2613.14	-0.0402517
2614.51	0.240194
2615.87	-0.0053091
2617.23	-0.0102696
2618.59	0.0451818
2619.95	-0.0484524
2621.31	0.292271
2622.67	0.0352774
2624.03	-0.0569277
2625.39	-0.0595188
2626.75	0.0420809
2628.11	-0.0802407
2629.47	-0.00904894
2630.83	0.19577
2632.19	0.370448
2633.55	-0.183019
2634.91	0.00647783
2636.26	-0.130601
2637.62	0.191887
2638.98	0.0697351
2640.34	-0.155646
2641.69	0.210859
2643.05	-0.191111
2644.41	-0.134746
2645.76	-0.137522
2647.12	0.316365
2648.48	0.2829
2649.83	0.248817
2651.19	0.0966315
2652.54	0.150113
2653.9	-0.456489
2655.25	-0.167263
2656.6	0.0930572
2657.96	0.0465941
2659.31	-0.233139
2660.67	0.0140991
2662.02	0.144061
2663.37	0.30261
2664.73	0.0370016
2666.08	0.631677
2667.43	-0.0574126
2668.78	-0.0756311
2670.14	0.168306
2671.49	0.0779247
2672.84	0.00271702
2674.19	0.26211
2675.54	0.231425
2676.89	-0.117928
2678.24	0.171663
2679.59	-0.248704
2680.94	0.172788
2682.29	0.0152946
2683.64	0.206758
2684.99	-0.166595
2686.34	0.0260682
2687.69	-0.10061
2689.04	0.0185127
2690.39	0.10727
2691.74	0.06391
2693.08	0.00485373
2694.43	0.3656
2695.78	0.189614
2697.13	-0.260898
2698.47	0.231216
2699.82	0.0295072
2701.17	0.278108
2702.51	-0.0803156
2703.86	-0.0469065
2705.21	-0.100041
2706.55	0.325463
2707.9	0.141679
2709.24	0.204206
2710.58	0.208378
2711.93	0.430248
2713.27	0.0708914
2714.62	0.30723
2715.96	0.136539
2717.3	0.0965323
2718.65	0.347267
2719.99	0.510504
2721.33	0.309584
2722.68	0.151879
2724.02	0.328546
2725.36	0.1992
2726.71	0.316988
2728.05	0.361732
2729.39	0.260752
2730.73	0.203333
2732.07	0.102265
2733.41	0.321327
2734.75	0.162313
2736.09	0.367103
2737.43	0.339286
2738.77	0.0933065
2740.11	0.312505
2741.45	0.269541
2742.79	-0.0646744
2744.13	0.269238
2745.47	0.108491
2746.81	0.150833
2748.14	0.149448
2749.48	0.191633
2750.82	-0.11412
2752.16	0.131474
2753.49	0.30462
2754.83	0.217018
2756.17	0.100616
2757.5	-0.0155802
2758.84	0.0711589
2760.18	-0.10234
2761.51	-0.0583315
2762.85	0.0149856
2764.18	0.0306635
2765.52	-0.0260167
2766.85	-0.0541186
2768.19	0.379902
2769.52	0.292082
2770.86	-0.345988
2772.19	-0.0745311
2773.52	0.239
2774.86	0.0902429
2776.19	0.042551
2777.52	-0.0767245
2778.86	-0.123466
2780.19	0.132035
2781.52	-0.201327
2782.85	-0.175408
2784.19	-0.0348377
2785.52	0.0625415
2786.85	0.0167265
2788.18	0.114517
2789.51	-0.130538
2790.84	0.268913
2792.17	-0.389316
2793.5	-0.0319333
2794.83	0.225274
2796.16	0.0820146
2797.49	0.209785
2798.82	0.108559
2800.15	-0.0214658
2801.48	-0.180114
2802.81	0.074719
2804.13	0.200825
2805.46	0.0700717
2806.79	-0.0752463
2808.12	0.291157
2809.45	0.173477
2810.77	0.183817
2812.1	0.237217
2813.43	0.0645623
2814.75	-0.078413
2816.08	0.0916605
2817.41	0.177535
2818.73	-0.00543213
2820.06	0.109243
2821.38	0.11017
2822.71	0.393973
2824.03	0.322963
2825.36	0.421678
2826.68	0.548703
2828	0.265523
2829.33	0.520844
2830.65	0.719887
2831.98	0.338716
2833.3	0.467093
2834.62	0.425336
2835.94	0.722828
2837.27	0.736777
2838.59	0.651331
2839.91	0.721317
2841.23	1.07412
2842.55	1.17268
2843.87	1.38485
2845.2	1.64001
2846.52	1.66961
2847.84	1.95391
2849.16	1.7153
2850.48	1.80149
2851.8	1.90136
2853.12	1.87355
2854.44	1.59105
2855.76	2.05728
2857.08	1.61926
2858.39	1.77464
2859.71	2.05704
2861.03	2.15564
2862.35	2.33861
2863.67	2.33767
2864.98	2.3365
2866.3	2.50458
2867.62	2.46125
2868.94	2.43244
2870.25	2.24892
2871.57	3.43287
2872.88	3.00952
2874.2	3.3465
2875.52	3.23155
2876.83	3.59433
2878.15	3.50569
2879.46	3.50126
2880.78	3.2863
2882.09	3.36734
2883.41	3.47738
2884.72	3.54614
2886.03	3.53118
2887.35	3.29172
2888.66	3.64127
2889.97	3.20434
2891.29	3.51009
2892.6	3.17031
2893.91	3.19491
2895.22	3.58388
2896.54	3.56737
2897.85	3.74775
2899.16	3.71913
2900.47	3.73322
2901.78	3.55187
2903.09	3.81834
2904.4	4.05691
2905.71	4.35168
2907.02	4.43717
2908.33	4.1877
2909.64	4.30271
2910.95	4.57223
2912.26	4.77182
2913.57	4.77475
2914.88	4.7623
2916.19	4.83219
2917.5	5.27843
2918.81	5.28972
2920.11	5.58057
2921.42	5.39652
2922.73	5.81486
2924.04	5.81512
2925.34	5.76058
2926.65	5.95823
2927.96	6.22582
2929.26	5.97575
2930.57	6.42411
2931.87	5.96328
2933.18	6.11728
2934.49	6.41098
2935.79	6.21559
2937.1	6.18806
2938.4	5.8952
2939.7	5.70043
2941.01	5.78561
2942.31	5.48033
2943.62	5.48362
2944.92	5.29247
2946.22	5.0044
2947.53	5.03843
2948.83	4.7783
2950.13	5.06292
2951.43	4.56177
2952.74	3.90476
2954.04	4.47867
2955.34	4.42213
2956.64	4.66034
2957.94	3.87866
2959.24	4.2472
2960.54	4.0442
2961.84	3.8708
2963.15	4.03451
2964.45	3.72054
2965.75	3.92465
2967.05	3.60743
2968.34	3.69646
2969.64	3.44735
2970.94	3.60588
2972.24	3.11756
2973.54	3.37511
2974.84	3.1823
2976.14	3.15775
2977.43	3.25873
2978.73	2.80902
2980.03	2.55498
2981.33	2.90498
2982.62	2.49467
2983.92	2.47863
2985.22	2.51975
2986.51	1.91575
2987.81	2.26857
2989.11	1.91959
2990.4	2.11885
2991.7	1.57278
2992.99	1.46149
2994.29	1.41942
2995.58	1.559
2996.88	1.55742
2998.17	1.5837
2999.46	1.16127
3000.76	1.03405
3002.05	1.21571
3003.34	1.01924
3004.64	0.878963
3005.93	1.01859
3007.22	0.90559
3008.52	1.01581
3009.81	0.929374
3011.1	0.660746
3012.39	0.866811
3013.68	0.654014
3014.97	0.59518
3016.27	0.355865
3017.56	0.507225
3018.85	0.463982
3020.14	-0.0242186
3021.43	0.113195
3022.72	0.388612
3024.01	0.565623
3025.3	0.0900698
3026.59	-0.0939217
3027.88	0.539125
3029.16	0.27331
3030.45	0.161017
3031.74	0.395224
3033.03	0.284921
3034.32	0.368103
3035.6	0.630059
3036.89	0.408058
3038.18	0.460358
3039.47	0.345813
3040.75	0.367646
3042.04	0.539587
3043.33	0.121642
3044.61	0.376146
3045.9	0.152833
3047.18	0.36879
3048.47	0.586323
3049.75	0.627992
3051.04	0.86198
3052.32	0.52349
3053.61	0.225932
3054.89	0.555402
3056.18	0.583756
3057.46	0.515694
3058.74	0.61047
3060.03	0.650397
3061.31	0.568082
3062.59	0.527428
3063.88	0.71907
3065.16	0.626415
3066.44	0.195038
3067.72	0.430592
3069	0.217718
3070.29	0.140525
3071.57	0.266592
3072.85	0.133226
3074.13	0.29794
3075.41	0.366593
3076.69	0.217579
3077.97	0.516916
3079.25	0.247011
3080.53	0.358264
3081.81	0.18588
3083.09	-0.0262589
3084.37	0.318362
3085.65	0.160963
3086.93	0.301696
3088.21	0.102468
3089.49	0.119798
3090.76	0.0959911
3092.04	0.248387
3093.32	0.305845
3094.6	-0.0433531
3095.87	0.0416102
3097.15	0.0994439
3098.43	-0.154576
3099.7	-0.164744
3100.98	-0.175029
3102.26	0.112615
3103.53	-0.0735755
3104.81	0.26856
3106.08	0.0427256
3107.36	0.115342
3108.63	-0.0413184
3109.91	-0.0753961
3111.18	0.134962
3112.46	-0.141603
3113.73	0.0290728
3115	-0.206888
3116.28	0.166799
3117.55	0.0923142
3118.83	0.0304308
3120.1	0.252381
3121.37	-0.0960093
3122.64	-0.0245824
3123.92	-0.237889
3125.19	-0.112432
3126.46	-0.0679917
3127.73	0.044445
3129	0.224785
3130.27	0.24298
3131.55	0.26119
3132.82	-0.018074
3134.09	0.0131526
3135.36	-0.374619
3136.63	0.0335236
3137.9	-0.0986171
3139.17	-0.00192595
3140.44	0.0943956
3141.71	0.230872
3142.98	0.179175
3144.24	0.141307
3145.51	-0.00338888
3146.78	0.308372
3148.05	0.0977187
3149.32	-0.125659
