200.43	0.992396
202.246	0.99767
204.061	1.00423
205.875	0.647248
207.688	0.461348
209.501	1.34462
211.316	0.307458
213.129	0.799642
214.941	1.12053
216.753	0.44686
218.566	-0.177068
220.377	0.556054
222.188	0.587945
223.999	0.645134
225.809	0.21977
227.618	0.157435
229.43	0.674554
231.239	0.0323839
233.047	1.17588
234.855	0.124637
236.663	0.883502
238.471	0.897232
240.278	0.407574
242.087	0.402462
243.894	0.181798
245.7	0.0817871
247.506	0.294297
249.311	0.528639
251.116	0.566892
252.921	-0.000861168
254.725	0.491744
256.529	0.308487
258.333	0.0058794
260.136	0.837579
261.939	0.273943
263.744	-0.119176
265.546	0.0670834
267.348	0.157539
269.15	-0.137787
270.951	0.120687
272.752	-0.634409
274.552	0.489904
276.353	-0.484695
278.152	0.997562
279.952	-0.0282459
281.751	-0.164143
283.55	0.323768
285.348	0.521181
287.146	0.141498
288.942	0.362103
290.739	-0.0875845
292.536	-0.415449
294.333	-0.215023
296.129	0.536607
297.925	-0.503637
299.721	0.703288
301.516	0.691297
303.311	0.487568
305.106	0.28288
306.9	0.411477
308.694	-0.127666
310.486	-0.427382
312.279	-0.10639
314.072	0.287531
315.864	-0.00721931
317.656	0.27141
319.448	-0.401114
321.24	-0.000437737
323.029	-0.457025
324.819	0.231748
326.61	0.229155
328.4	0.0352831
330.19	0.270925
331.977	-0.163984
333.766	0.260553
335.555	-0.0106936
337.343	-0.0926943
339.131	-0.00916958
340.917	-0.0706577
342.704	-0.085021
344.491	0.13956
346.277	0.268961
348.062	0.0647316
349.848	-0.0194511
351.633	-0.0318966
353.416	-0.116402
355.201	0.609241
356.986	0.331607
358.77	0.410415
360.552	0.726142
362.335	0.183834
364.118	0.0934267
365.899	-0.163796
367.682	0.12464
369.464	0.0323267
371.243	-0.321152
373.025	0.390193
374.806	0.319708
376.585	-0.175426
378.365	-0.291658
380.143	0.441297
381.923	0.515095
383.702	-0.0684557
385.479	0.666454
387.258	0.180062
389.034	0.399889
390.812	-0.224867
392.59	0.255129
394.365	-0.0627499
396.142	-0.356746
397.916	0.0304403
399.693	-0.169648
401.467	0.193563
403.242	0.086441
405.015	-0.0448732
406.79	0.198871
408.565	0.371516
410.337	-0.465571
412.111	0.0119534
413.882	-0.472344
415.656	-0.0173388
417.426	0.344575
419.197	0.308266
420.969	-0.0094099
422.739	0.30639
424.51	0.175561
426.279	-0.120508
428.05	-0.0886946
429.819	0.412089
431.589	0.325999
433.356	0.803494
435.124	0.272153
436.893	0.0693827
438.66	0.570023
440.428	0.529429
442.194	0.0880814
443.96	0.160789
445.727	-0.283773
447.492	0.371261
449.259	0.182835
451.023	-0.262171
452.787	0.554458
454.553	0.367009
456.316	0.273076
458.079	-0.263335
459.844	0.155224
461.606	-0.100564
463.368	0.249698
465.132	0.416134
466.893	0.190373
468.654	-0.172274
470.415	0.234001
472.177	0.455215
473.937	-0.418321
475.696	-0.432505
477.456	0.250154
479.217	0.511776
480.975	0.865489
482.733	0.986357
484.491	0.642608
486.251	-0.25841
488.008	0.776446
489.765	0.228588
491.522	0.754718
493.278	0.417953
495.036	1.29688
496.791	0.281265
498.546	0.739555
500.301	0.377419
502.056	0.69465
503.81	0.706126
505.566	0.175875
507.319	0.13748
509.073	0.097558
510.825	0.62077
512.578	0.648364
514.33	0.650895
516.082	0.722597
517.833	0.369708
519.587	0.41569
521.337	1.00127
523.088	0.0358143
524.838	0.64372
526.588	0.617549
528.337	0.497632
530.087	0.448023
531.835	0.234107
533.584	0.464388
535.332	0.576239
537.08	0.476169
538.827	0.0713739
540.574	0.762339
542.321	0.286234
544.068	-0.282188
545.814	0.823715
547.56	1.022
549.305	0.872335
551.05	0.700072
552.795	0.158267
554.54	-0.0356131
556.284	0.117388
558.027	-0.213838
559.771	0.147178
561.514	0.323919
563.257	1.07596
564.999	0.218527
566.742	0.649205
568.481	-0.0218115
570.223	0.570943
571.964	0.155201
573.705	0.658747
575.445	0.0628939
577.185	0.386293
578.925	-0.344776
580.665	0.761585
582.402	0.306575
584.141	0.540296
585.879	0.359212
587.617	-0.0532713
589.355	0.315163
591.092	-0.352635
592.828	0.0143766
594.564	0.151125
596.301	-0.356312
598.037	0.0334778
599.773	0.238852
601.506	0.305363
603.242	0.140627
604.976	-0.278305
606.711	-0.169607
608.443	0.581183
610.177	0.114528
611.91	-0.121799
613.644	0.605779
615.374	0.62294
617.107	0.319505
618.839	0.496734
620.569	-0.0368614
622.3	-0.433792
624.032	0.723453
625.761	0.417036
627.491	0.22615
629.221	0.379623
630.949	-0.0579643
632.679	0.578897
634.408	0.463817
636.135	0.462535
637.863	0.322618
639.592	0.61372
641.318	0.627912
643.045	0.206589
644.77	0.0579758
646.497	0.751511
648.224	0.400126
649.948	0.0975981
651.674	0.480451
653.398	0.776342
655.123	0.962209
656.846	0.695366
658.57	-0.00411987
660.293	0.389781
662.017	0.0977936
663.738	0.168823
665.462	0.534825
667.185	0.533261
668.905	0.256447
670.628	0.78079
672.348	1.55913
674.067	1.01269
675.789	0.444687
677.508	0.656934
679.228	0.387466
680.947	1.35792
682.667	1.06279
684.385	1.0643
686.104	0.603166
687.821	1.33786
689.538	0.62044
691.256	1.44553
692.972	0.933936
694.69	1.59627
696.406	0.875682
698.121	0.453512
699.837	1.13491
701.552	0.894526
703.268	0.906244
704.982	0.687546
706.695	1.24893
708.41	0.822901
710.123	1.10747
711.836	0.795952
713.55	1.07932
715.262	0.425025
716.973	0.753608
718.685	0.830741
720.398	1.27254
722.108	0.825634
723.818	1.67643
725.53	1.1389
727.24	0.511151
728.949	1.20027
730.658	0.890121
732.369	0.897233
734.077	0.949375
735.785	1.22747
737.493	0.805358
739.2	0.881001
740.909	1.52098
742.616	1.01241
744.322	1.42887
746.028	1.86886
747.734	1.32014
749.441	0.930482
751.146	1.10447
752.851	1.25725
754.555	1.45644
756.26	1.16214
757.963	1.18434
759.667	1.68114
761.372	1.59359
763.075	1.9126
764.777	2.41246
766.479	1.87244
768.181	1.80462
769.883	1.03351
771.584	1.25512
773.285	1.79189
774.986	1.94368
776.686	2.02815
778.386	1.91046
780.085	1.56814
781.785	2.24485
783.484	2.44693
785.182	1.47084
786.881	1.91832
788.579	1.50245
790.276	1.73957
791.974	1.70234
793.671	2.16025
795.367	1.87252
797.064	1.72145
798.76	2.15784
800.456	1.6052
802.151	1.95448
803.846	1.56206
805.541	2.33877
807.236	2.05786
808.93	2.29251
810.624	1.71772
812.317	1.41188
814.01	1.50924
815.703	2.03152
817.394	2.41866
819.086	2.02299
820.778	1.94076
822.47	2.17142
824.161	1.68906
825.852	2.25606
827.543	1.82239
829.231	1.68129
830.921	1.81051
832.611	1.02923
834.3	1.20784
835.989	2.41368
837.676	1.65682
839.364	1.83579
841.053	1.56656
842.74	1.8767
844.426	1.65013
846.113	1.93819
847.8	1.80339
849.486	1.78282
851.171	1.09301
852.857	1.74869
854.542	1.17261
856.227	1.67334
857.911	1.25213
859.595	1.18859
861.279	0.943041
862.961	1.25883
864.645	1.39332
866.329	1.25645
868.01	0.758072
869.692	0.75521
871.375	1.60921
873.055	1.71878
874.737	1.12881
876.418	1.7573
878.097	1.32518
879.778	1.23144
881.457	1.13733
883.137	1.60688
884.817	1.30778
886.495	2.02299
888.174	1.17937
889.851	0.830995
891.53	1.02243
893.206	1.61766
894.884	1.64817
896.562	1.52015
898.237	1.09941
899.914	0.970238
901.589	1.15424
903.265	1.11344
904.94	0.78202
906.615	0.898038
908.289	0.969807
909.964	1.13133
911.637	1.18219
913.31	1.18919
914.984	0.397192
916.656	0.937737
918.33	1.47719
920.001	0.975097
921.674	1.02749
923.345	1.16934
925.015	0.340638
926.687	1.94332
928.357	0.80959
930.028	0.825198
931.698	0.863558
933.366	1.14485
935.037	1.51446
936.705	1.35511
938.373	0.777622
940.043	0.7968
941.71	0.883359
943.379	0.551442
945.046	0.881387
946.712	1.1
948.378	0.500087
950.046	0.781257
951.711	1.01694
953.376	0.921687
955.043	0.453117
956.708	0.207737
958.372	0.384394
960.036	0.453518
961.701	1.4078
963.364	0.904489
965.027	0.70853
966.69	0.885928
968.354	0.308331
970.016	1.05616
971.678	0.851722
973.339	1.64296
975	0.511641
976.661	0.421464
978.324	0.642417
979.984	0.830979
981.644	1.01929
983.303	0.841076
984.962	1.7235
986.621	0.987823
988.282	1.09146
989.94	0.839919
991.598	0.455383
993.256	0.512862
994.913	0.65866
996.57	0.627918
998.227	0.949981
999.884	0.852759
1001.54	1.21773
1003.2	1.07562
1004.85	0.779435
1006.51	1.14281
1008.16	0.539567
1009.82	0.464155
1011.47	0.389273
1013.12	0.51218
1014.78	0.306773
1016.43	0.714962
1018.08	0.663756
1019.74	0.569646
1021.39	0.542229
1023.04	0.9968
1024.69	1.12437
1026.34	0.618818
1028	-0.105072
1029.65	0.546972
1031.3	0.498675
1032.95	0.688996
1034.6	0.615666
1036.25	0.780883
1037.9	0.661816
1039.55	0.869349
1041.19	0.489939
1042.84	0.720978
1044.49	0.996957
1046.14	0.51451
1047.79	0.511932
1049.43	0.749887
1051.08	0.880558
1052.73	0.642799
1054.37	1.38317
1056.02	0.428583
1057.66	0.886363
1059.31	0.800261
1060.95	0.930943
1062.6	0.90864
1064.24	0.189625
1065.88	0.252411
1067.53	-0.0770741
1069.17	-0.0161953
1070.81	0.152601
1072.46	0.407946
1074.1	0.164491
1075.74	0.269257
1077.38	1.02586
1079.02	0.0704422
1080.66	0.698847
1082.3	-0.125588
1083.94	0.458613
1085.58	-0.237868
1087.22	0.0609503
1088.86	-0.118886
1090.5	0.413896
1092.14	0.512253
1093.78	0.350766
1095.42	0.232913
1097.05	0.116059
1098.69	0.948467
1100.33	1.1788
1101.97	0.442601
1103.6	0.28952
1105.24	0.352899
1106.87	0.158764
1108.51	0.157954
1110.15	0.392629
1111.78	0.19579
1113.41	0.727922
1115.05	0.528274
1116.68	0.221011
1118.31	0.450227
1119.95	0.0370808
1121.58	0.22493
1123.21	0.734674
1124.85	0.367833
1126.48	0.536819
1128.11	0.278827
1129.74	0.47064
1131.37	0.919539
1133	0.898383
1134.63	0.342719
1136.26	0.385011
1137.89	0.490373
1139.52	0.850794
1141.15	0.142388
1142.78	0.885211
1144.41	0.347723
1146.04	0.365706
1147.66	0.448562
1149.29	0.297888
1150.92	0.0838928
1152.55	-0.215157
1154.17	-0.0672894
1155.8	-0.175273
1157.43	0.0145521
1159.05	0.0344515
1160.68	0.24654
1162.3	-0.0719013
1163.93	-0.219232
1165.55	0.0591784
1167.17	0.2098
1168.8	0.0404997
1170.42	0.0609474
1172.05	-0.047945
1173.67	-0.243334
1175.29	-0.439634
1176.91	0.360228
1178.54	0.544742
1180.16	0.708509
1181.78	0.132592
1183.4	-0.0825558
1185.02	0.336495
1186.64	0.120663
1188.26	-0.328497
1189.88	0.317362
1191.5	0.223097
1193.12	0.653198
1194.74	-0.0314741
1196.36	-0.0852356
1197.97	0.343596
1199.59	0.54302
1201.21	0.389205
1202.83	-0.0540199
1204.44	0.257073
1206.06	0.277955
1207.68	-0.117084
1209.29	-0.177978
1210.91	0.365247
1212.52	-0.532031
1214.14	0.486547
1215.75	-0.393202
1217.37	0.495066
1218.98	0.653233
1220.6	0.374988
1222.21	0.284627
1223.82	0.858703
1225.44	0.128985
1227.05	1.01575
1228.66	0.599989
1230.27	0.433954
1231.88	1.26141
1233.49	0.622396
1235.1	0.48075
1236.72	0.795019
1238.33	1.19311
1239.94	0.537493
1241.55	0.440209
1243.16	1.12873
1244.76	0.740775
1246.37	1.53123
1247.98	0.68593
1249.59	1.20554
1251.2	0.917897
1252.8	0.5478
1254.41	1.2747
1256.02	0.947804
1257.63	0.97379
1259.23	1.60106
1260.84	1.02909
1262.44	0.788514
1264.05	1.23142
1265.66	1.79857
1267.26	0.831404
1268.87	1.23118
1270.47	1.44338
1272.07	1.88259
1273.68	0.973042
1275.28	1.22353
1276.88	0.789106
1278.48	1.24488
1280.09	1.59613
1281.69	1.18097
1283.29	0.580098
1284.89	1.13829
1286.49	1.42825
1288.09	1.38846
1289.69	1.57696
1291.3	1.27005
1292.9	1.85156
1294.49	0.903452
1296.09	1.23494
1297.69	1.08977
1299.29	1.64451
1300.89	1.74337
1302.49	1.98494
1304.09	1.73111
1305.68	2.23768
1307.28	2.08545
1308.88	1.50238
1310.47	1.30994
1312.07	1.6915
1313.66	1.31637
1315.26	1.51509
1316.86	1.55114
1318.45	1.60815
1320.05	1.92999
1321.64	1.04856
1323.23	1.28644
1324.83	1.52204
1326.42	1.26838
1328.01	1.82574
1329.61	1.12685
1331.2	1.28068
1332.79	1.19397
1334.38	1.47313
1335.98	1.57202
1337.57	2.21597
1339.16	1.54832
1340.75	1.20212
1342.34	1.33728
1343.93	1.40983
1345.52	0.838623
1347.11	0.990733
1348.7	1.44461
1350.29	1.27977
1351.87	0.757762
1353.46	0.878098
1355.05	1.23951
1356.64	1.10158
1358.23	0.94333
1359.81	0.704379
1361.4	1.22302
1362.99	1.12188
1364.57	1.21984
1366.16	0.779972
1367.74	1.43663
1369.33	0.600993
1370.91	1.00113
1372.5	1.22342
1374.08	0.551444
1375.67	1.39239
1377.25	1.39775
1378.83	1.04442
1380.42	1.28702
1382	0.831968
1383.58	1.58889
1385.16	0.773888
1386.75	1.3896
1388.33	0.436114
1389.91	1.3301
1391.49	0.835341
1393.07	0.976479
1394.65	0.483274
1396.23	1.77472
1397.81	1.14191
1399.39	0.548146
1400.97	0.785801
1402.55	1.14138
1404.13	1.51631
1405.7	1.1202
1407.28	0.843933
1408.86	0.35138
1410.44	1.22256
1412.01	0.928139
1413.59	0.771509
1415.17	0.988995
1416.74	1.14625
1418.32	1.00728
1419.89	1.47943
1421.47	1.02679
1423.05	0.910673
1424.62	0.65847
1426.19	1.37195
1427.77	0.609822
1429.34	1.77634
1430.92	1.13112
1432.49	1.66559
1434.06	1.66762
1435.63	1.90517
1437.2	2.06412
1438.78	1.86996
1440.35	1.95208
1441.92	2.2514
1443.49	1.7064
1445.06	2.22309
1446.63	2.01279
1448.2	2.23508
1449.77	2.32008
1451.34	2.09102
1452.91	2.13778
1454.48	2.00792
1456.05	1.72056
1457.62	1.7473
1459.18	2.1073
1460.75	2.40641
1462.32	2.11313
1463.89	0.972657
1465.45	1.22767
1467.02	1.34452
1468.59	1.61864
1470.15	1.65792
1471.72	1.58064
1473.28	1.3476
1474.85	0.880152
1476.41	1.07989
1477.98	0.848386
1479.54	1.06773
1481.11	1.2477
1482.67	1.15318
1484.23	0.803822
1485.8	0.826454
1487.36	0.652473
1488.92	0.614375
1490.48	0.789762
1492.05	0.376225
1493.61	0.703555
1495.17	0.638216
1496.73	0.688866
1498.29	0.622364
1499.85	1.1396
1501.41	0.414268
1502.97	0.331596
1504.53	0.385567
1506.09	0.962348
1507.65	0.783219
1509.2	0.584104
1510.76	0.731632
1512.32	0.396123
1513.88	0.657737
1515.44	0.707377
1516.99	0.911061
1518.55	0.424701
1520.1	0.476364
1521.66	0.719458
1523.22	1.11462
1524.77	1.0308
1526.33	0.507602
1527.88	0.99405
1529.44	1.26942
1530.99	1.29711
1532.55	0.263426
1534.1	0.558888
1535.65	0.930275
1537.21	0.829428
1538.76	0.729483
1540.31	1.19581
1541.86	0.888966
1543.42	0.526142
1544.97	0.878291
1546.52	0.928994
1548.07	0.454047
1549.62	1.02968
1551.17	0.761703
1552.72	0.831458
1554.27	0.359982
1555.82	0.562899
1557.37	1.08454
1558.92	0.991914
1560.47	1.29299
1562.02	1.42774
1563.57	1.60099
1565.11	1.36437
1566.66	1.12779
1568.21	1.30153
1569.75	1.66155
1571.3	1.74122
1572.85	2.13792
1574.39	1.91843
1575.94	1.77363
1577.49	1.59168
1579.03	1.59684
1580.58	1.49058
1582.12	1.72124
1583.67	1.72871
1585.21	1.41926
1586.75	1.91399
1588.3	1.39926
1589.84	1.57622
1591.38	2.0898
1592.93	1.62953
1594.47	1.56199
1596.01	1.34454
1597.55	1.31478
1599.09	1.92313
1600.63	2.00751
1602.18	1.77339
1603.72	1.50145
1605.26	2.05519
1606.8	1.89378
1608.34	1.46711
1609.87	1.39517
1611.41	1.79065
1612.95	2.0335
1614.49	1.24243
1616.03	1.48346
1617.57	1.8371
1619.11	1.40467
1620.64	1.31122
1622.18	1.50004
1623.72	1.20287
1625.25	1.18661
1626.79	1.22576
1628.32	1.2449
1629.86	1.84232
1631.4	1.24191
1632.93	1.66905
1634.47	1.21862
1636	1.40381
1637.53	1.44054
1639.07	1.77617
1640.6	2.01842
1642.14	1.53329
1643.67	1.88539
1645.2	1.77062
1646.73	1.46908
1648.27	1.7065
1649.8	1.7954
1651.33	2.10784
1652.86	2.16158
1654.39	1.80857
1655.92	1.84569
1657.45	2.58682
1658.98	1.93746
1660.51	1.6761
1662.04	1.72804
1663.57	1.81569
1665.1	2.05033
1666.63	1.98966
1668.16	1.00805
1669.69	1.39306
1671.21	1.31856
1672.74	1.17152
1674.27	1.54064
1675.79	1.52272
1677.32	1.55922
1678.85	1.41063
1680.37	1.09563
1681.9	1.14773
1683.42	0.960702
1684.95	1.21437
1686.47	0.972893
1688	0.915409
1689.52	0.620218
1691.05	0.49034
1692.57	1.25738
1694.1	0.944393
1695.62	1.10687
1697.14	0.574586
1698.66	0.0425568
1700.19	0.82476
1701.71	1.14949
1703.23	1.21803
1704.75	0.593899
1706.27	0.479774
1707.79	0.547353
1709.32	0.505726
1710.83	0.55498
1712.35	0.114722
1713.88	0.889208
1715.39	0.214257
1716.91	0.137238
1718.43	0.421668
1719.95	0.145755
1721.47	0.213243
1722.99	0.263103
1724.5	0.439926
1726.02	0.0415287
1727.54	1.24673
1729.06	-0.139166
1730.57	0.0446377
1732.09	0.370418
1733.61	-0.12006
1735.12	0.585152
1736.64	0.20577
1738.15	0.515596
1739.67	0.423231
1741.18	0.204984
1742.7	0.133809
1744.21	0.827662
1745.72	0.298051
1747.24	0.831459
1748.75	0.0959234
1750.26	0.638404
1751.78	0.365191
1753.29	0.119963
1754.8	0.227813
1756.31	0.273803
1757.82	-0.320234
1759.34	0.0557775
1760.85	0.076087
1762.36	0.0195427
1763.87	0.355667
1765.38	0.680095
1766.89	0.263855
1768.4	0.173293
1769.91	0.702181
1771.41	0.352442
1772.92	-0.0200872
1774.43	0.258325
1775.94	-0.0387087
1777.45	-0.00171947
1778.96	0.0748529
1780.46	0.258028
1781.97	0.0925446
1783.48	0.00509834
1784.98	0.137466
1786.49	0.233144
1788	-0.0108414
1789.5	0.196567
1791.01	0.389938
1792.51	-0.0918036
1794.01	0.356059
1795.52	0.190601
1797.02	-0.0855799
1798.53	0.0585709
1800.03	0.263621
1801.54	0.358132
1803.04	0.257955
1804.54	0.116961
1806.04	-0.146019
1807.54	0.0459833
1809.05	0.467511
1810.55	0.0650272
1812.05	0.0756168
1813.55	0.144901
1815.05	0.475966
1816.55	0.43737
1818.05	-0.000101089
1819.55	0.735969
1821.05	0.4844
1822.55	0.0784178
1824.05	0.47265
1825.55	0.176138
1827.05	0.159275
1828.55	0.0625267
1830.04	0.324931
1831.54	0.0882702
1833.04	0.351609
1834.54	0.0875425
1836.03	0.267248
1837.53	0.230177
1839.03	0.0856848
1840.52	0.165618
1842.02	0.0645466
1843.51	0.150984
1845.01	0.117823
1846.5	-0.290832
1848	-0.208139
1849.49	0.0412436
1850.99	0.380005
1852.48	0.184075
1853.97	0.344754
1855.47	0.632661
1856.96	0.099988
1858.45	0.0277538
1859.94	0.102527
1861.44	-0.161235
1862.93	0.232803
1864.42	0.158092
1865.91	0.127872
1867.4	0.271417
1868.89	0.00226116
1870.38	0.0855188
1871.87	0.178221
1873.36	-0.019206
1874.85	0.158949
1876.34	0.311057
1877.83	0.426052
1879.32	0.304457
1880.81	0.248961
1882.3	-0.275402
1882.56	-0.389706
1884.06	0.166666
1885.55	0.146864
1887.04	-0.256886
1888.54	-0.277688
1890.03	-0.350487
1891.52	0.0819683
1893.02	-0.040782
1894.51	0.0641346
1896	0.118272
1897.49	0.294907
1898.99	-0.0677681
1900.48	-0.135718
1901.97	-0.257294
1903.46	-0.102112
1904.95	-0.104759
1906.44	-0.142845
1907.93	0.461597
1909.42	0.0940313
1910.91	0.386943
1912.4	-0.100092
1913.89	0.263407
1915.38	-0.188158
1916.86	-0.102409
1918.35	-0.0171824
1919.84	-0.0710211
1921.33	0.186873
1922.82	0.444988
1924.3	0.0805664
1925.79	-0.351988
1927.28	0.307046
1928.76	0.43003
1930.25	0.0854406
1931.74	0.155665
1933.22	0.0514059
1934.71	0.118685
1936.19	0.582307
1937.67	-0.0622759
1939.16	0.0192614
1940.64	0.100963
1942.13	-0.0410061
1943.61	-0.0956516
1945.09	0.281599
1946.58	0.331402
1948.06	0.294777
1949.54	0.326381
1951.03	0.339805
1952.51	-0.0778112
1953.99	0.0376492
1955.47	0.0841503
1956.95	0.045083
1958.43	0.315604
1959.91	0.209132
1961.39	0.154687
1962.87	0.0661821
1964.35	0.0974979
1965.83	0.145444
1967.31	0.380969
1968.79	-0.308024
1970.27	-0.244555
1971.75	0.228509
1973.22	0.171738
1974.7	-0.0383635
1976.18	0.297383
1977.66	-0.133614
1979.13	0.0487947
1980.61	0.264947
1982.09	0.15768
1983.56	0.525891
1985.04	0.417985
1986.52	0.276089
1987.99	0.202188
1989.47	-0.176119
1990.94	0.0728359
1992.41	-0.235787
1993.89	-0.255836
1995.36	0.130414
1996.84	0.78709
1998.31	-0.0428648
1999.78	0.393503
2001.26	0.305835
2002.73	0.0659885
2004.2	0.416281
2005.67	0.0251703
2007.15	0.190892
2008.62	-0.130945
2010.09	-0.266681
2011.56	-0.065258
2013.03	-0.0489931
2014.5	0.0846739
2015.97	0.402644
2017.44	0.231839
2018.91	0.127649
2020.38	0.123878
2021.85	0.287916
2023.32	-0.101799
2024.79	-0.121345
2026.25	0.162105
2027.72	0.480309
2029.19	-0.307101
2030.66	-0.0869856
2032.13	-0.0505037
2033.59	0.0535727
2035.06	0.258463
2036.53	0.345542
2037.99	0.0456963
2039.46	0.283175
2040.92	-0.084465
2042.39	0.237468
2043.85	0.0388651
2045.32	0.211125
2046.78	0.5021
2048.25	0.187232
2049.71	-0.195694
2051.18	-0.124632
2052.64	0.21494
2054.1	0.181896
2055.56	0.214719
2057.03	-0.0571527
2058.49	0.175986
2059.95	0.257216
2061.42	0.355605
2062.88	-0.0839453
2064.34	0.0666342
2065.8	0.234909
2067.26	0.555414
2068.72	0.304264
2070.18	0.49101
2071.64	0.206463
2073.1	0.595216
2074.56	0.394429
2076.02	0.260663
2077.48	0.160232
2078.94	0.362558
2080.39	0.614952
2081.85	0.311164
2083.31	0.276189
2084.77	0.492967
2086.22	0.422947
2087.68	0.402853
2089.14	0.836134
2090.6	0.24418
2092.05	0.324291
2093.51	0.521688
2094.96	0.399996
2096.42	0.51261
2097.87	0.322996
2099.33	0.233494
2100.78	0.311074
2102.24	-0.0289879
2103.69	0.617377
2105.15	0.730127
2106.6	0.477078
2108.05	0.725524
2109.51	0.640661
2110.96	0.421958
2112.41	0.102216
2113.86	0.597248
2115.32	1.07344
2116.77	0.733389
2118.22	1.12508
2119.67	0.85359
2121.12	1.04881
2122.57	1.03017
2124.02	0.714489
2125.47	1.0793
2126.92	0.697698
2128.37	0.994876
2129.82	0.975707
2131.27	1.40247
2132.72	1.44728
2134.17	1.17771
2135.62	1.22338
2137.06	1.32008
2138.51	1.13764
2139.96	1.27109
2141.41	1.29049
2142.85	1.02995
2144.3	1.23305
2145.75	1.38679
2147.19	1.49069
2148.64	1.54434
2150.09	1.64683
2151.53	1.96374
2152.97	1.30206
2154.42	1.65028
2155.86	1.36844
2157.31	2.26287
2158.75	1.61747
2160.2	1.752
2161.64	1.73924
2163.08	1.76152
2164.53	1.45359
2165.97	1.71054
2167.41	1.6853
2168.86	2.05795
2170.3	1.83035
2171.74	1.83333
2173.18	2.01731
2174.62	1.75073
2176.06	1.84954
2177.5	2.04829
2178.94	2.06492
2180.38	1.61707
2181.82	1.63561
2183.26	1.88758
2184.7	1.60766
2186.14	1.47744
2187.58	1.76318
2189.02	1.64965
2190.46	1.90227
2191.89	1.97157
2193.33	1.74039
2194.77	1.99067
2196.21	0.957292
2197.64	1.6364
2199.08	1.31543
2200.52	1.25972
2201.95	1.07115
2203.39	0.999637
2204.83	0.796619
2206.26	0.975963
2207.7	1.10595
2209.13	1.55026
2210.57	1.39753
2212	0.929699
2213.43	1.3378
2214.87	0.985435
2216.3	1.3109
2217.73	0.72977
2219.17	1.38716
2220.6	1.23714
2222.03	1.48287
2223.47	0.969866
2224.9	0.653563
2226.33	0.780314
2227.76	1.10257
2229.19	0.71676
2230.62	0.839592
2232.05	0.945567
2233.49	0.724231
2234.91	0.634899
2236.34	0.644878
2237.77	0.215567
2239.2	0.62063
2240.63	-0.0329943
2242.06	0.522138
2243.49	0.964204
2244.92	0.542147
2246.35	0.510908
2247.78	0.510813
2249.2	0.410901
2250.63	0.765192
2252.06	0.254612
2253.48	0.475965
2254.91	0.53475
2256.34	0.805848
2257.76	0.413637
2259.19	0.511028
2260.61	0.302866
2262.04	0.0318727
2263.46	0.168046
2264.89	0.532159
2266.31	0.115838
2267.74	0.609401
2269.16	0.402712
2270.59	0.195166
2272.01	0.638375
2273.43	0.218452
2274.85	0.254547
2276.28	-0.0187292
2277.7	0.376244
2279.12	0.200895
2280.54	0.0417118
2281.97	0.485845
2283.39	-0.0977125
2284.81	0.37921
2286.23	0.154692
2287.65	0.436554
2289.07	0.0656614
2290.49	0.479195
2291.91	0.337526
2293.33	0.0813627
2294.75	0.0540228
2296.17	0.0265884
2297.59	0.441232
2299.01	0.643307
2300.42	-0.301558
2301.84	0.376341
2303.26	0.0215836
2304.68	-0.0379314
2306.1	-0.0318718
2307.51	0.253214
2308.93	-0.152347
2310.35	-0.065403
2311.76	-0.0609903
2313.18	0.23958
2314.59	0.0633926
2316.01	0.167671
2317.43	0.66817
2318.84	0.213516
2320.26	-0.241866
2321.67	-0.137618
2323.08	0.311629
2324.5	0.313219
2325.91	0.494221
2327.33	0.574575
2328.74	0.604707
2330.15	0.354998
2331.56	-0.0253277
2332.98	0.0893784
2334.39	-0.0420265
2335.8	0.057147
2337.21	0.238092
2338.62	-0.0422907
2340.04	0.103782
2341.45	-0.161693
2342.86	0.0650616
2344.27	0.0782986
2345.68	0.255661
2347.09	0.252903
2348.5	-0.519159
2349.91	0.345241
2351.31	0.259649
2352.72	0.352934
2354.13	0.0535851
2355.54	-0.115379
2356.95	-0.36568
2358.36	0.132698
2359.76	0.0127363
2361.17	0.0554199
2362.58	-0.469439
2363.98	-0.426432
2365.39	-0.108544
2366.8	0.273489
2368.21	-0.11964
2369.61	-0.220765
2371.02	-0.0304327
2372.42	-0.0969167
2373.83	0.207916
2375.23	0.0621371
2376.64	0.109202
2378.04	-0.0859532
2379.44	0.103398
2380.85	-0.0622211
2382.25	-0.0363307
2383.66	0.421107
2385.06	-0.194448
2386.46	0.030601
2387.86	0.255952
2389.26	-0.0202689
2390.67	0.103386
2392.07	-0.2656
2393.47	-0.0604544
2394.87	0.145216
2396.27	0.462644
2397.67	0.287773
2399.07	0.177092
2400.47	0.0510287
2401.87	0.306493
2403.27	-0.31154
2404.67	0.0706348
2406.07	-0.135475
2407.47	-0.199447
2408.87	0.465485
2410.27	-0.059371
2411.67	-0.0606656
2413.07	0.192157
2414.46	0.0976758
2415.86	0.384496
2417.26	0.0709438
2418.66	0.26483
2420.05	0.284901
2421.45	0.130629
2422.84	0.166094
2424.24	-0.09972
2425.64	-0.111992
2427.03	-0.203054
2428.43	0.102948
2429.82	0.425869
2431.22	0.368906
2432.61	0.185009
2434.01	0.445154
2435.4	0.307268
2436.79	0.056726
2438.19	0.329102
2439.58	-0.098702
2440.97	0.346304
2442.37	0.219053
2443.76	0.488339
2445.15	0.217961
2446.54	-0.226721
2447.93	-0.0530891
2449.33	0.0253377
2450.72	0.531401
2452.11	0.0721083
2453.5	-0.133019
2454.89	0.137303
2456.28	0.202538
2457.67	0.157321
2459.06	-0.283451
2460.45	-0.329264
2461.84	-0.0595374
2463.23	0.351589
2464.62	0.129919
2466	0.555644
2467.39	0.349505
2468.78	0.0646124
2470.17	0.426392
2471.55	-0.189879
2472.94	0.0603499
2474.33	0.120669
2475.72	0.0230203
2477.1	-0.184817
2478.49	0.298625
2479.87	0.43623
2481.26	0.134755
2482.65	0.147028
2484.03	0.143196
2485.42	0.294961
2486.8	0.49224
2488.19	0.0170779
2489.57	-0.0679674
2490.95	0.0182848
2492.34	0.291322
2493.72	0.05233
2495.1	-0.0298481
2496.49	0.183721
2497.87	-0.113385
2499.25	0.0544868
2500.63	0.283685
2502.02	0.279987
2503.4	0.259957
2504.78	0.316266
2506.16	0.140776
2507.54	0.011632
2508.92	-0.00949574
2510.3	0.0926614
2511.68	-0.265064
2513.06	-0.0236464
2514.44	-0.0116181
2515.82	0.0930004
2517.2	-0.0465674
2518.58	0.319018
2519.96	0.363479
2521.34	0.0563765
2522.72	0.191665
2524.1	0.158235
2525.47	-0.134869
2526.85	0.181372
2528.23	-0.308933
2529.6	-0.067729
2530.98	-0.129373
2532.36	0.29672
2533.74	0.45043
2535.11	0.118612
2536.49	0.212144
2537.86	0.0468035
2539.24	0.229972
2540.61	0.0934558
2541.99	0.154016
2543.36	-0.0583043
2544.74	0.306662
2546.11	-0.00989628
2547.49	-0.188854
2548.86	-0.0030179
2550.23	0.152575
2551.61	0.110483
2552.98	0.173796
2554.35	0.0388999
2555.72	0.419087
2557.09	0.00987434
2558.47	0.23763
2559.84	0.238121
2561.21	0.299721
2562.58	0.392195
2563.95	0.121499
2565.32	0.214891
2566.69	0.232729
2568.06	0.265809
2569.43	-0.0648508
2570.8	0.286513
2572.17	0.213536
2573.54	0.0951428
2574.91	0.674169
2576.28	0.0707474
2577.65	-0.0476499
2579.02	0.182486
2580.39	0.215195
2581.75	0.429478
2583.12	0.203709
2584.49	0.371923
2585.85	0.32784
2587.22	0.132308
2588.59	0.0127521
2589.95	-0.227932
2591.32	-0.302015
2592.68	0.15382
2594.05	0.00283766
2595.42	0.0478935
2596.78	0.061729
2598.15	0.332019
2599.51	-0.154272
2600.88	0.296908
2602.24	0.50642
2603.6	0.263501
2604.97	0.111818
2606.33	0.247007
2607.69	0.231004
2609.06	0.24438
2610.42	0.392191
2611.78	0.0720248
2613.14	0.112236
2614.51	0.00146914
2615.87	0.250832
2617.23	0.17012
2618.59	-0.0896058
2619.95	0.235374
2621.31	0.23155
2622.67	0.273025
2624.03	0.165324
2625.39	0.23677
2626.75	0.0245643
2628.11	0.39349
2629.47	0.10645
2630.83	0.206482
2632.19	-0.00592756
2633.55	-0.084362
2634.91	0.134135
2636.26	0.15946
2637.62	-0.111628
2638.98	0.195191
2640.34	0.235365
2641.69	0.290491
2643.05	0.360556
2644.41	0.0320787
2645.76	0.0137792
2647.12	0.363667
2648.48	-0.127193
2649.83	0.38274
2651.19	0.229529
2652.54	0.120408
2653.9	-0.29637
2655.25	-0.0081749
2656.6	-0.36392
2657.96	0.467336
2659.31	-0.164411
2660.67	-0.517375
2662.02	0.0359459
2663.37	0.222994
2664.73	0.336087
2666.08	0.317062
2667.43	0.151897
2668.78	0.321823
2670.14	0.520826
2671.49	0.574634
2672.84	-0.0103574
2674.19	0.320761
2675.54	0.289185
2676.89	0.388729
2678.24	0.41628
2679.59	0.154593
2680.94	0.488351
2682.29	-0.0757174
2683.64	0.231181
2684.99	0.263476
2686.34	-0.0085187
2687.69	0.0820007
2689.04	-0.278528
2690.39	0.157902
2691.74	0.0120459
2693.08	0.358215
2694.43	0.427677
2695.78	0.322999
2697.13	0.233473
2698.47	0.145179
2699.82	0.261125
2701.17	0.364147
2702.51	0.0340195
2703.86	-0.295435
2705.21	0.143624
2706.55	0.191501
2707.9	0.398801
2709.24	0.213943
2710.58	0.406169
2711.93	0.206052
2713.27	-0.0524516
2714.62	-0.151288
2715.96	-0.0466852
2717.3	0.290551
2718.65	0.496801
2719.99	0.426324
2721.33	0.355396
2722.68	0.240334
2724.02	0.299486
2725.36	0.227241
2726.71	0.314756
2728.05	0.605716
2729.39	0.605343
2730.73	-0.0499358
2732.07	0.371504
2733.41	0.312869
2734.75	0.225305
2736.09	0.0652032
2737.43	-0.385649
2738.77	0.0651855
2740.11	-0.356785
2741.45	0.107866
2742.79	-0.213215
2744.13	0.308162
2745.47	-0.0139623
2746.81	0.288204
2748.14	-0.0342054
2749.48	0.485201
2750.82	0.17769
2752.16	-0.129371
2753.49	0.0712214
2754.83	-0.104862
2756.17	-0.00554323
2757.5	-0.355012
2758.84	0.0197082
2760.18	0.452482
2761.51	0.292245
2762.85	0.667845
2764.18	0.117663
2765.52	0.276456
2766.85	0.376927
2768.19	0.0281253
2769.52	0.0398459
2770.86	-0.108686
2772.19	0.391607
2773.52	0.0388885
2774.86	-0.169551
2776.19	0.112055
2777.52	-0.167776
2778.86	-0.101563
2780.19	0.137429
2781.52	0.160962
2782.85	0.127127
2784.19	0.208003
2785.52	0.0451088
2786.85	-0.203345
2788.18	0.107188
2789.51	0.289317
2790.84	0.343382
2792.17	0.526797
2793.5	0.32458
2794.83	-0.29199
2796.16	-0.00840712
2797.49	0.145969
2798.82	-0.042944
2800.15	0.096169
2801.48	0.206378
2802.81	0.00262356
2804.13	-0.186917
2805.46	-0.319667
2806.79	0.144999
2808.12	0.153335
2809.45	-0.00925779
2810.77	0.112438
2812.1	0.0784011
2813.43	0.102148
2814.75	0.098805
2816.08	-0.130055
2817.41	-0.173642
2818.73	0.194294
2820.06	0.151189
2821.38	-0.147433
2822.71	-0.219845
2824.03	-0.0944166
2825.36	-0.195971
2826.68	0.127384
2828	0.0971022
2829.33	0.435399
2830.65	0.306918
2831.98	-0.0337014
2833.3	0.177686
2834.62	0.233066
2835.94	0.613484
2837.27	0.144329
2838.59	0.721769
2839.91	0.789617
2841.23	0.815114
2842.55	1.02475
2843.87	0.923986
2845.2	1.33268
2846.52	1.27557
2847.84	1.67106
2849.16	1.14789
2850.48	0.921224
2851.8	1.59868
2853.12	1.75265
2854.44	1.666
2855.76	1.59332
2857.08	1.64778
2858.39	1.87177
2859.71	1.27659
2861.03	1.78278
2862.35	1.69557
2863.67	1.59393
2864.98	1.78842
2866.3	1.7853
2867.62	2.14909
2868.94	1.90683
2870.25	2.5532
2871.57	2.55112
2872.88	2.61923
2874.2	2.96839
2875.52	2.72471
2876.83	2.91662
2878.15	2.85426
2879.46	3.26985
2880.78	2.71548
2882.09	3.06159
2883.41	2.86073
2884.72	2.75922
2886.03	2.89695
2887.35	2.78206
2888.66	2.5826
2889.97	2.71918
2891.29	2.77073
2892.6	2.87774
2893.91	2.63428
2895.22	2.82548
2896.54	2.9473
2897.85	2.83217
2899.16	2.76002
2900.47	3.34613
2901.78	3.33108
2903.09	3.49808
2904.4	2.60216
2905.71	3.56684
2907.02	3.77676
2908.33	3.31603
2909.64	3.72345
2910.95	3.52979
2912.26	3.75597
2913.57	3.78551
2914.88	3.58972
2916.19	3.93832
2917.5	3.80947
2918.81	4.36534
2920.11	3.85778
2921.42	4.69344
2922.73	4.39762
2924.04	5.02578
2925.34	4.85828
2926.65	4.74729
2927.96	4.81808
2929.26	5.01432
2930.57	5.05624
2931.87	4.53854
2933.18	5.2228
2934.49	4.59311
2935.79	4.9699
2937.1	4.85769
2938.4	4.73172
2939.7	4.60603
2941.01	4.3551
2942.31	4.27266
2943.62	4.69451
2944.92	4.06935
2946.22	4.20011
2947.53	4.09369
2948.83	3.51107
2950.13	3.52908
2951.43	4.04959
2952.74	3.75623
2954.04	3.61564
2955.34	3.62876
2956.64	3.48877
2957.94	3.26672
2959.24	3.48112
2960.54	3.33407
2961.84	3.51118
2963.15	3.19822
2964.45	2.91236
2965.75	2.62488
2967.05	2.58864
2968.34	2.52313
2969.64	2.51318
2970.94	2.85479
2972.24	2.57782
2973.54	2.46992
2974.84	2.40419
2976.14	2.47867
2977.43	2.72098
2978.73	1.96205
2980.03	2.04643
2981.33	2.17183
2982.62	1.93097
2983.92	1.40946
2985.22	1.98556
2986.51	1.43862
2987.81	1.65189
2989.11	1.24775
2990.4	1.27948
2991.7	1.43731
2992.99	1.32719
2994.29	1.31435
2995.58	1.08984
2996.88	0.794697
2998.17	1.10308
2999.46	0.976615
3000.76	0.836738
3002.05	0.977841
3003.34	0.895069
3004.64	0.616349
3005.93	0.883736
3007.22	0.548485
3008.52	0.436686
3009.81	0.464089
3011.1	0.420971
3012.39	0.545115
3013.68	0.376152
3014.97	0.305435
3016.27	0.0961738
3017.56	0.249832
3018.85	0.250749
3020.14	0.0153465
3021.43	0.0995398
3022.72	0.113478
3024.01	-0.137071
3025.3	-0.387757
3026.59	-0.0979419
3027.88	0.427001
3029.16	-0.112451
3030.45	0.317369
3031.74	0.264741
3033.03	0.37881
3034.32	-0.127897
3035.6	-0.427718
3036.89	0.0989413
3038.18	0.265179
3039.47	-0.0384126
3040.75	-0.177674
3042.04	-0.0427885
3043.33	-0.0727115
3044.61	0.0625052
3045.9	0.294629
3047.18	-0.0180817
3048.47	0.135955
3049.75	-0.0357594
3051.04	0.162477
3052.32	0.102207
3053.61	0.45133
3054.89	0.376926
3056.18	0.39714
3057.46	0.211929
3058.74	0.135264
3060.03	0.371693
3061.31	0.118376
3062.59	0.0838723
3063.88	0.200257
3065.16	0.657889
3066.44	0.110817
3067.72	0.203654
3069	0.324136
3070.29	0.145271
3071.57	0.0472913
3072.85	0.179523
3074.13	-0.00198984
3075.41	0.169193
3076.69	0.0276775
3077.97	0.0360532
3079.25	0.316813
3080.53	0.0969434
3081.81	-0.189249
3083.09	0.190426
3084.37	-0.0668373
3085.65	0.0152478
3086.93	0.0427408
3088.21	0.083282
3089.49	-0.053124
3090.76	-0.0812321
3092.04	-0.0550866
3093.32	0.43244
3094.6	-0.0426826
3095.87	-0.0834279
3097.15	0.10647
3098.43	0.228573
3099.7	0.0660524
3100.98	-0.123447
3102.26	0.147759
3103.53	-0.149443
3104.81	0.257883
3106.08	-0.36271
3107.36	-0.00796318
3108.63	-0.369493
3109.91	0.258002
3111.18	-0.0881176
3112.46	0.338368
3113.73	0.155872
3115	-0.135153
3116.28	0.319192
3117.55	0.352656
3118.83	0.195388
3120.1	0.294964
3121.37	0.44804
3122.64	0.519291
3123.92	0.807151
3125.19	0.55348
3126.46	0.544177
3127.73	0.427288
3129	0.0676279
3130.27	0.452239
3131.55	0.431371
3132.82	0.572669
3134.09	0.592101
3135.36	0.611166
3136.63	0.454481
3137.9	0.351627
3139.17	0.464297
3140.44	0.630604
3141.71	0.850653
3142.98	0.627361
3144.24	0.606382
3145.51	0.505674
3146.78	0.928665
3148.05	0.615017
3149.32	0.436339
