200.423	0.686949
202.238	0.70315
204.052	0.720357
205.868	0.300703
207.682	-0.118328
209.495	0.337402
211.308	0.25739
213.12	0.977296
214.935	0.919046
216.746	0.690642
218.558	0.729033
220.369	0.283883
222.18	-0.0873117
223.992	1.04168
225.802	-0.00481987
227.612	0.302418
229.421	-0.574103
231.23	-0.0504627
233.039	0.472404
234.849	0.078824
236.657	-0.289282
238.465	0.260411
240.272	0.691813
242.079	0.329818
243.885	0.378884
245.691	0.500386
247.497	0.0894585
249.305	0.376265
251.11	0.129071
252.915	-0.023922
254.719	-0.250705
256.523	-0.45354
258.327	0.28434
260.13	0.107649
261.933	0.0772648
263.736	0.0965443
265.538	-0.0518789
267.34	0.61938
269.141	-0.15568
270.943	-0.377201
272.744	0.557581
274.544	0.50259
276.344	0.108648
278.144	0.122939
279.944	0.352208
281.743	0.579354
283.542	0.179155
285.34	0.427079
287.138	0.241758
288.936	0.464402
290.733	-0.103222
292.53	0.384419
294.327	1.27943
296.123	0.0231485
297.919	0.465794
299.715	0.454671
301.508	0.276209
303.303	0.598536
305.098	0.44217
306.892	0.857533
308.686	0.580907
310.479	0.638637
312.273	0.149635
314.065	-0.0280685
315.858	-0.346986
317.648	0.669212
319.44	0.520051
321.231	0.0143557
323.022	-0.0618954
324.813	1.22227
326.604	0.454765
328.392	0.307257
330.181	0.326349
331.971	0.200915
333.76	0.2892
335.548	0.303842
337.335	0.172846
339.123	0.518501
340.91	0.742929
342.698	0.0341387
344.483	0.114379
346.269	0.218879
348.055	0.801497
349.841	0.0713205
351.625	0.0813932
353.41	0.425068
355.195	-0.281971
356.977	-0.488871
358.762	-0.0532455
360.545	0.190327
362.329	0.504117
364.11	-0.300824
365.893	0.201609
367.675	0.0378647
369.455	0.442752
371.237	0.135429
373.017	-0.0535488
374.798	-0.266062
376.578	0.0884857
378.357	0.348387
380.137	0.302332
381.917	0.210344
383.694	0.35486
385.473	0.335828
387.249	0.200436
389.028	0.136632
390.806	0.0502567
392.581	0.129013
394.359	0.372722
396.134	0.28799
397.91	1.49511
399.684	1.50435
401.46	1.01994
403.234	0.323546
405.009	0.378116
406.784	-0.178535
408.557	0.156633
410.331	0.538331
412.103	0.872964
413.876	0.058115
415.647	0.393759
417.42	0.260857
419.191	0.832527
420.961	0.583147
422.733	0.216131
424.502	0.31795
426.273	0.184216
428.042	0.214071
429.812	-0.108588
431.58	0.624951
433.35	0.466855
435.118	0.215211
436.885	0.174788
438.653	0.556228
440.42	-0.21349
442.188	-0.093132
443.954	0.236248
445.719	-0.115791
447.486	0.678535
449.251	-0.236014
451.015	0.486579
452.781	0.461234
454.545	0.0163031
456.308	0.247979
458.073	0.153128
459.836	0.128294
461.598	0.801713
463.362	0.476361
465.124	0.29287
466.885	0.414059
468.648	-0.0433083
470.408	-0.173825
472.169	0.789741
473.929	0.0774355
475.69	0.154865
477.45	-0.0957003
479.208	0.86342
480.967	0.214318
482.727	0.543636
484.485	0.38489
486.243	0.460802
488	0.165808
489.759	0.10554
491.515	-0.187333
493.272	0.617996
495.028	0.512953
496.783	0.0799351
498.54	0.114481
500.295	0.477
502.05	0.111993
503.804	0.826097
505.558	0.129949
507.311	0.701645
509.064	0.402042
510.819	0.665549
512.572	0.621771
514.324	0.294274
516.076	0.765502
517.827	0.623921
519.578	0.411008
521.329	0.15062
523.08	0.383234
524.83	0.310291
526.58	0.847344
528.329	1.17286
530.08	0.513695
531.829	0.440436
533.578	0.109088
535.326	0.0110922
537.074	0.402833
538.821	0.535791
540.568	0.0377474
542.315	0.0758934
544.062	0.090353
545.808	-0.313502
547.554	-0.112813
549.299	0.110809
551.044	0.14888
552.789	0.0482531
554.533	0.710536
556.278	0.494555
558.019	0.302437
559.763	0.0650473
561.506	-0.033309
563.249	-0.200006
564.991	0.0477839
566.733	-0.00281334
568.475	0.750875
570.217	-0.147445
571.958	0.355478
573.699	-0.149641
575.439	-0.21737
577.177	-0.168984
578.917	-0.0735226
580.656	0.550947
582.396	0.486799
584.134	0.399145
585.873	-0.0574455
587.609	-0.262329
589.347	-0.307237
591.084	-0.214873
592.822	-0.0999413
594.558	0.405975
596.295	-0.123389
598.029	0.428557
599.765	-0.331156
601.5	-0.378314
603.235	0.654438
604.968	0.098978
606.703	-0.0205393
608.437	-0.186554
610.171	0.313066
611.902	0.193213
613.635	0.211732
615.368	-0.0441809
617.099	0.502149
618.831	-0.0745487
620.563	-0.262479
622.294	-0.176697
624.024	0.594051
625.755	0.107283
627.485	-0.0583401
629.213	0.142984
630.943	0.0267763
632.673	0.00361729
634.4	0.23245
636.129	0.278514
637.855	-0.430163
639.584	0.274124
641.312	0.17697
643.037	0.0778446
644.764	0.410385
646.491	0.492332
648.216	0.212096
649.942	0.321127
651.666	-0.111874
653.392	0.0719376
655.115	0.395279
656.84	0.0609035
658.563	-0.159346
660.287	-0.0609112
662.011	0.0592718
663.732	0.337683
665.456	0.865785
667.177	1.14091
668.899	0.226103
670.62	0.775568
672.342	0.640574
674.061	0.530515
675.781	0.5368
677.502	0.177145
679.22	0.551864
680.941	0.742579
682.659	0.609927
684.379	0.521256
686.096	0.154404
687.815	0.500004
689.532	0.314961
691.248	0.520863
692.966	1.00263
694.682	1.06907
696.4	0.12138
698.115	0.899711
699.829	0.75591
701.546	0.519214
703.26	0.23601
704.974	0.38896
706.689	0.403533
708.402	0.326008
710.115	0.844025
711.83	0.651141
713.542	0.321094
715.254	0.974127
716.967	0.849641
718.679	0.634225
720.39	1.0803
722.102	1.59407
723.812	1.17417
725.522	0.982223
727.232	0.54051
728.943	0.303458
730.652	0.927973
732.361	0.66766
734.069	1.19957
735.779	0.442112
737.487	1.01871
739.194	1.21131
740.901	1.1565
742.608	1.44077
744.316	0.397631
746.022	1.08951
747.728	0.409817
749.433	0.92369
751.138	1.01124
752.843	0.942484
754.549	0.402468
756.254	0.493529
757.957	0.293239
759.661	1.04016
761.364	1.33815
763.067	1.1407
764.769	1.48465
766.471	1.24063
768.175	1.69548
769.877	1.56076
771.578	1.58241
773.279	1.60275
774.98	1.91657
776.68	1.07773
778.38	1.61926
780.079	1.32553
781.779	1.71136
783.478	1.75814
785.176	1.8266
786.875	1.5081
788.573	1.4811
790.27	1.65475
791.968	1.80309
793.665	1.58838
795.361	1.73471
797.058	1.58859
798.754	1.80451
800.45	1.36907
802.145	1.67778
803.84	1.17727
805.535	1.10416
807.23	1.14278
808.922	1.36002
810.616	1.39641
812.309	1.52162
814.002	1.64612
815.695	1.43438
817.388	1.64793
819.08	1.34716
820.772	0.935383
822.464	1.9526
824.153	1.45284
825.844	1.69031
827.535	1.70668
829.225	1.39146
830.915	1.32389
832.605	1.5484
834.292	1.21771
835.981	0.99907
837.67	1.62811
839.359	1.29667
841.047	1.29864
842.732	1.27709
844.42	1.81373
846.107	1.99356
847.794	1.32541
849.479	1.50889
851.165	1.13504
852.851	0.717348
854.534	1.64586
856.22	0.914042
857.905	0.966761
859.589	1.3782
861.272	1.00057
862.956	1.47717
864.639	1.02904
866.321	0.82777
868.004	0.400355
869.687	1.0324
871.367	0.942554
873.049	1.16836
874.731	1.12338
876.41	0.491655
878.092	1.2591
879.771	0.717441
881.451	1.32668
883.131	0.490525
884.809	0.646787
886.489	1.38866
888.166	1.24884
889.845	1.17539
891.522	0.830284
893.2	1.65556
894.878	0.813362
896.554	0.75857
898.231	0.927597
899.906	1.02818
901.583	1.35186
903.258	0.510665
904.934	0.833521
906.608	0.642388
908.283	0.296154
909.956	1.15397
911.631	1.07637
913.304	1.35513
914.976	0.523487
916.65	0.4033
918.322	1.01466
919.995	0.385003
921.666	1.23912
923.339	0.611765
925.009	0.759802
926.679	1.04168
928.351	0.927483
930.021	0.836483
931.692	1.20943
933.361	0.788347
935.029	0.985125
936.699	0.696995
938.367	1.00508
940.035	0.873077
941.704	0.653827
943.371	0.589558
945.038	0.790004
946.706	1.12204
948.372	0.19433
950.038	0.501197
951.705	0.49801
953.37	0.583059
955.035	0.470845
956.7	0.647531
958.366	0.782838
960.03	0.611612
961.693	0.97159
963.357	0.82362
965.021	0.696181
966.684	0.278789
968.346	0.699769
970.008	0.632234
971.67	0.851498
973.334	1.38063
974.995	0.694663
976.655	0.297668
978.316	0.698123
979.976	1.01086
981.638	1.32345
983.297	0.350993
984.957	0.793633
986.616	0.747486
988.274	0.54497
989.932	0.695381
991.59	0.44726
993.248	-0.132041
994.907	0.48141
996.565	0.366212
998.221	0.31727
999.878	0.664845
1001.53	0.417072
1003.19	0.961514
1004.85	0.691233
1006.5	-0.0842028
1008.16	0.700683
1009.81	0.277794
1011.46	0.404067
1013.12	0.399048
1014.77	1.16098
1016.43	1.11241
1018.08	0.692368
1019.73	1.08261
1021.38	0.598918
1023.04	0.422442
1024.69	0.224974
1026.34	0.836559
1027.99	1.22954
1029.64	0.332943
1031.29	0.833514
1032.94	1.68165
1034.59	1.56739
1036.24	2.43308
1037.89	2.77378
1039.54	2.50433
1041.19	3.14947
1042.84	3.94724
1044.48	3.79011
1046.13	5.24258
1047.78	4.52504
1049.42	4.02671
1051.07	3.76869
1052.72	3.40286
1054.36	2.68961
1056.01	2.14991
1057.66	1.74012
1059.3	1.17753
1060.94	1.83189
1062.59	1.35487
1064.23	0.681335
1065.88	0.854911
1067.52	0.397193
1069.16	0.655895
1070.81	0.54465
1072.45	0.628732
1074.09	-0.0679979
1075.73	0.3428
1077.38	-0.11301
1079.02	0.603253
1080.66	1.03819
1082.3	0.562387
1083.94	0.172645
1085.58	0.58379
1087.22	0.407937
1088.86	0.382137
1090.5	0.376554
1092.13	0.478066
1093.77	0.168633
1095.41	0.356137
1097.05	-0.0380716
1098.68	0.0863848
1100.32	0.793283
1101.96	0.834026
1103.6	0.295428
1105.23	-0.629047
1106.87	0.425822
1108.5	0.340468
1110.14	0.619769
1111.77	-0.0480862
1113.41	0.0567036
1115.04	0.138894
1116.67	0.177572
1118.31	0.880828
1119.94	0.383971
1121.58	0.10263
1123.21	0.678528
1124.84	0.570149
1126.47	0.612288
1128.1	-0.157552
1129.73	0.270783
1131.37	0.143618
1133	0.401506
1134.63	0.338614
1136.26	0.531688
1137.89	0.745177
1139.52	0.402157
1141.14	0.592308
1142.77	0.419062
1144.4	-0.137824
1146.03	-0.0967512
1147.66	0.605673
1149.29	0.307041
1150.91	-0.0549355
1152.54	-0.395439
1154.17	0.434879
1155.79	0.264087
1157.42	0.0932817
1159.04	-0.0984173
1160.67	-0.11925
1162.3	-0.0966959
1163.92	0.160515
1165.55	0.545712
1167.17	-0.38753
1168.79	0.358049
1170.42	0.379335
1172.04	0.377754
1173.66	0.735627
1175.28	0.837336
1176.91	0.344833
1178.53	0.403993
1180.15	-0.31957
1181.77	0.0373611
1183.39	-0.0495844
1185.01	0.0326443
1186.63	-0.054882
1188.25	-0.206848
1189.87	0.061492
1191.49	0.0540323
1193.11	0.255609
1194.73	0.225002
1196.35	0.508965
1197.97	-0.128378
1199.59	0.324715
1201.2	-0.370418
1202.82	0.232121
1204.44	0.251703
1206.05	0.7529
1207.67	0.462291
1209.29	0.484893
1210.9	0.444267
1212.52	-0.0772533
1214.13	-0.12077
1215.75	1.20826
1217.36	0.661197
1218.97	0.384469
1220.59	0.46109
1222.2	0.330709
1223.82	-0.295722
1225.43	0.301585
1227.04	0.27853
1228.65	0.318671
1230.26	0.256411
1231.88	1.0013
1233.49	0.506864
1235.1	1.08823
1236.71	0.120462
1238.32	0.703726
1239.93	0.626094
1241.54	0.982936
1243.15	0.677641
1244.76	0.74404
1246.37	1.20276
1247.97	1.01915
1249.58	0.876272
1251.19	0.898644
1252.8	1.04528
1254.41	0.571985
1256.01	1.03036
1257.62	0.434801
1259.23	1.22634
1260.83	0.984132
1262.44	0.514378
1264.04	0.997196
1265.65	0.651118
1267.25	0.946797
1268.86	1.22109
1270.46	0.727382
1272.07	0.979181
1273.67	0.939821
1275.27	0.443613
1276.88	1.70826
1278.48	0.713445
1280.08	1.20971
1281.68	1.68457
1283.28	0.462696
1284.89	1.16545
1286.49	0.876151
1288.09	1.4146
1289.69	0.941052
1291.29	0.98463
1292.89	1.19342
1294.49	1.13298
1296.09	1.27799
1297.69	1.35957
1299.29	0.985715
1300.88	1.27079
1302.48	1.01875
1304.08	1.6101
1305.68	1.52121
1307.27	1.28825
1308.87	1.44532
1310.47	1.04871
1312.06	1.18552
1313.66	1.0977
1315.25	1.68518
1316.85	0.639136
1318.44	1.41095
1320.04	1.42721
1321.63	1.38154
1323.23	1.27358
1324.82	1.34726
1326.41	1.05414
1328.01	1.187
1329.6	0.773281
1331.19	1.25169
1332.78	0.862173
1334.38	1.18182
1335.97	1.62353
1337.56	1.077
1339.15	1.31666
1340.74	1.53443
1342.33	1.32737
1343.92	0.857691
1345.51	0.769601
1347.1	1.10286
1348.69	1.27652
1350.28	1.13175
1351.87	1.54939
1353.46	1.30869
1355.04	0.889418
1356.63	1.21003
1358.22	1.11061
1359.81	1.2301
1361.39	0.250802
1362.98	0.86768
1364.57	1.34397
1366.15	0.743988
1367.74	0.444005
1369.32	0.30449
1370.91	1.41992
1372.49	0.904469
1374.07	0.290555
1375.66	1.01035
1377.24	0.65574
1378.83	0.0619221
1380.41	0.959666
1381.99	1.00064
1383.57	0.583107
1385.16	1.13904
1386.74	0.641074
1388.32	0.798998
1389.9	0.818367
1391.48	0.739246
1393.06	0.819526
1394.64	0.84059
1396.22	0.445088
1397.8	0.743035
1399.38	1.33716
1400.96	0.741594
1402.54	0.601406
1404.12	0.619593
1405.7	1.33024
1407.28	1.40848
1408.85	1.17129
1410.43	0.61865
1412.01	0.698203
1413.58	1.17201
1415.16	0.677835
1416.74	0.360912
1418.31	0.457903
1419.89	0.633817
1421.46	0.771026
1423.04	1.3228
1424.61	1.28531
1426.19	1.5048
1427.76	0.54382
1429.33	1.03913
1430.91	1.51396
1432.48	1.37763
1434.05	1.71264
1435.63	1.29969
1437.2	1.02477
1438.77	1.39925
1440.34	1.79412
1441.91	1.42331
1443.49	1.34793
1445.05	2.17696
1446.63	1.41415
1448.2	1.71285
1449.77	1.73661
1451.34	1.32821
1452.91	2.02144
1454.47	1.43669
1456.04	1.61899
1457.61	1.34818
1459.18	1.37145
1460.75	1.53097
1462.31	1.59042
1463.88	1.05841
1465.45	1.23354
1467.01	1.72244
1468.58	1.79881
1470.15	1.11054
1471.71	1.42426
1473.28	1.18956
1474.84	1.42627
1476.41	1.40837
1477.97	1.0181
1479.54	1.23552
1481.1	1.27639
1482.66	1.23878
1484.23	0.770002
1485.79	0.438218
1487.35	1.26148
1488.91	1.49575
1490.48	1.12157
1492.04	0.765543
1493.6	0.896607
1495.16	1.04536
1496.72	0.608242
1498.28	0.619583
1499.84	1.0006
1501.4	1.3622
1502.96	0.831986
1504.52	0.729812
1506.08	0.434477
1507.64	0.506636
1509.2	0.442581
1510.76	0.532082
1512.31	0.755529
1513.87	0.458414
1515.43	0.52739
1516.99	0.116724
1518.54	0.762301
1520.1	0.908923
1521.66	0.921453
1523.21	0.608747
1524.77	0.792479
1526.32	0.593546
1527.88	0.47053
1529.43	0.290329
1530.99	0.281494
1532.54	0.121367
1534.09	0.473653
1535.65	0.617846
1537.2	0.422391
1538.75	0.397788
1540.31	-0.0978827
1541.86	0.4436
1543.41	0.456985
1544.96	0.940205
1546.51	0.633406
1548.06	0.589768
1549.62	0.921045
1551.17	0.128315
1552.72	0.385106
1554.27	0.735602
1555.82	1.01197
1557.36	0.654826
1558.91	0.411566
1560.46	0.431132
1562.01	0.37735
1563.56	0.734894
1565.11	0.645181
1566.66	0.630179
1568.2	1.08158
1569.75	0.450131
1571.3	0.658284
1572.84	0.884879
1574.39	0.887348
1575.93	0.908492
1577.48	1.63919
1579.02	1.13814
1580.57	1.04828
1582.11	0.45479
1583.66	0.739695
1585.2	0.801121
1586.75	0.90039
1588.29	0.775411
1589.83	0.930835
1591.38	0.674201
1592.92	0.716599
1594.46	1.4518
1596	1.21319
1597.54	0.899796
1599.09	1.01795
1600.63	1.43694
1602.17	0.993388
1603.71	0.718375
1605.25	1.13767
1606.79	0.898408
1608.33	0.770205
1609.87	0.433401
1611.41	1.29739
1612.95	0.656631
1614.48	0.766233
1616.02	0.950343
1617.56	1.26578
1619.1	1.3945
1620.64	0.662911
1622.17	0.700522
1623.71	0.888564
1625.25	1.30121
1626.78	1.13291
1628.32	0.944911
1629.86	1.48519
1631.39	0.584908
1632.92	0.749975
1634.46	0.784399
1635.99	0.950026
1637.53	1.09761
1639.06	1.15239
1640.59	1.1699
1642.13	1.48495
1643.66	0.923621
1645.19	0.603837
1646.73	1.38086
1648.26	1.39463
1649.79	1.13016
1651.32	1.33076
1652.85	1.10559
1654.38	1.04843
1655.92	1.75177
1657.45	1.08348
1658.98	0.952158
1660.51	1.20865
1662.04	1.01961
1663.57	1.10716
1665.09	1.00937
1666.62	1.2442
1668.15	1.20294
1669.68	1.18142
1671.21	1.19802
1672.73	0.71821
1674.26	0.570518
1675.79	1.39848
1677.31	0.973773
1678.84	1.10038
1680.37	0.968552
1681.89	0.946482
1683.42	0.648706
1684.94	0.956926
1686.47	0.843233
1687.99	0.821689
1689.52	0.745531
1691.04	0.376699
1692.57	0.539013
1694.09	0.243824
1695.61	0.168183
1697.14	0.604028
1698.66	0.272127
1700.18	0.597274
1701.7	1.15866
1703.22	0.69818
1704.75	0.69317
1706.27	0.869731
1707.79	0.300377
1709.31	0.0225501
1710.83	-0.127714
1712.35	0.193856
1713.87	-0.0285177
1715.39	0.129673
1716.91	0.757843
1718.43	0.210107
1719.95	-0.33677
1721.46	-0.28721
1722.98	0.62806
1724.5	0.101499
1726.02	0.0807891
1727.53	0.0971379
1729.05	-0.299634
1730.57	0.150694
1732.08	-0.23807
1733.6	0.605681
1735.12	0.176719
1736.63	0.297814
1738.15	0.330173
1739.66	-0.197124
1741.18	0.00969124
1742.69	0.0185733
1744.21	0.186185
1745.72	-0.0276384
1747.23	0.281375
1748.74	-0.304979
1750.26	-0.195086
1751.77	0.338047
1753.28	-0.0556054
1754.8	0.364668
1756.31	-0.0883245
1757.82	0.0144997
1759.33	0.568473
1760.84	0.177348
1762.35	0.113126
1763.86	0.318377
1765.37	0.213109
1766.88	0.336718
1768.39	-0.0689411
1769.9	-0.222591
1771.41	0.06668
1772.92	0.104692
1774.43	0.191585
1775.93	0.0489154
1777.44	0.180855
1778.95	0.263047
1780.46	0.0511231
1781.96	0.0404501
1783.47	0.0440912
1784.98	-0.23629
1786.48	0.221276
1787.99	0.119687
1789.49	0.186129
1791	-0.0738578
1792.5	0.121708
1794.01	0.146183
1795.51	0.0962391
1797.02	-0.145017
1798.52	-0.0862088
1800.03	0.0548973
1801.53	0.150521
1803.03	0.136625
1804.53	-0.180367
1806.04	-0.0116911
1807.54	-0.174779
1809.04	0.00624847
1810.54	0.379233
1812.04	0.206853
1813.54	0.33372
1815.05	0.0874233
1816.55	0.135898
1818.05	0.198446
1819.55	0.347576
1821.05	0.105509
1822.55	0.103789
1824.05	0.155856
1825.54	0.0505791
1827.04	0.304956
1828.54	-0.146739
1830.04	0.145683
1831.54	-0.338709
1833.03	0.0601134
1834.53	0.0528398
1836.03	0.215788
1837.52	-0.0452981
1839.02	0.176113
1840.52	-0.123187
1842.01	0.148263
1843.51	0.106733
1845	-0.0804906
1846.5	0.139585
1847.99	0.342093
1849.49	0.116022
1850.98	0.17801
1852.47	0.312296
1853.97	0.0989342
1855.46	-0.356884
1856.95	-0.224917
1858.45	-0.199854
1859.94	-0.124791
1861.43	0.186918
1862.92	-0.0535626
1864.41	0.211086
1865.91	0.228426
1867.4	-0.228057
1868.89	-0.103178
1870.38	0.127891
1871.87	-0.0972238
1873.36	0.127719
1874.85	-0.0279808
1876.34	0.333992
1877.83	0.21098
1879.31	0.131148
1880.8	0.355192
1882.29	0.248653
1882.56	0.21572
1884.05	-0.0126138
1885.54	0.00255632
1887.04	0.278285
1888.53	0.0659113
1890.03	0.0801129
1891.52	0.0429249
1893.01	0.146131
1894.5	0.0769129
1895.99	0.0610781
1897.49	0.132853
1898.98	-0.00418711
1900.47	-0.107279
1901.96	-0.229026
1903.45	0.413113
1904.94	0.340898
1906.43	0.38973
1907.92	-0.0303559
1909.41	-0.154479
1910.9	0.364213
1912.39	-0.00134611
1913.88	-0.34896
1915.37	-0.037446
1916.86	0.100317
1918.35	0.289581
1919.84	0.0278864
1921.32	-0.268343
1922.81	0.197821
1924.3	0.127798
1925.78	-0.287521
1927.27	0.111651
1928.76	0.0439138
1930.24	-0.00656128
1931.73	0.23671
1933.21	0.617298
1934.7	0.19997
1936.18	0.317958
1937.67	0.0026021
1939.15	0.343871
1940.64	-0.212932
1942.12	0.00816917
1943.6	-0.0116143
1945.09	-0.203145
1946.57	0.0711808
1948.05	0.310678
1949.54	-0.277474
1951.02	0.132769
1952.5	0.146054
1953.98	-0.219419
1955.46	0.223167
1956.94	0.425076
1958.42	-0.213643
1959.91	-0.0791903
1961.39	0.261328
1962.87	0.258925
1964.34	0.0850492
1965.82	0.236287
1967.3	0.061626
1968.78	0.297153
1970.26	0.00202417
1971.74	-0.361207
1973.22	0.112358
1974.7	-0.0116191
1976.17	-0.0159721
1977.65	0.150142
1979.13	-0.058342
1980.6	-0.215544
1982.08	0.00128698
1983.56	-0.291993
1985.03	0.00896406
1986.51	0.122705
1987.98	-0.30603
1989.46	0.0958996
1990.93	0.193198
1992.41	0.0543628
1993.88	0.00100088
1995.36	-0.203762
1996.83	-0.239116
1998.3	0.164618
1999.78	0.449545
2001.25	0.328745
2002.72	0.0221267
2004.2	0.0360079
2005.67	-0.0340958
2007.14	-0.103547
2008.61	-0.18905
2010.08	0.315394
2011.55	0.0794487
2013.02	0.0624061
2014.49	0.465737
2015.97	0.212112
2017.43	0.630627
2018.9	0.308442
2020.37	0.137339
2021.84	0.184615
2023.31	0.265691
2024.78	0.397685
2026.25	-0.106823
2027.72	0.36276
2029.19	0.347143
2030.65	0.148082
2032.12	-0.0838614
2033.59	-0.164504
2035.05	-0.161251
2036.52	-0.275877
2037.98	0.113125
2039.45	0.367549
2040.92	-0.218476
2042.38	0.120331
2043.85	0.00579548
2045.31	0.0938253
2046.78	0.233044
2048.24	-0.0990071
2049.71	0.0402451
2051.17	0.0270724
2052.63	0.16445
2054.1	0.232943
2055.56	-0.188987
2057.02	-0.0554743
2058.48	0.228994
2059.95	-0.177464
2061.41	-0.0108166
2062.87	0.307867
2064.33	0.0550208
2065.79	0.173261
2067.25	0.15754
2068.71	0.14229
2070.17	0.0767899
2071.63	0.617397
2073.09	-0.357352
2074.55	0.166179
2076.01	0.201162
2077.47	0.168497
2078.93	0.101838
2080.39	0.203211
2081.85	0.320955
2083.3	0.370787
2084.76	-0.0175247
2086.22	0.23306
2087.68	0.247558
2089.13	0.328936
2090.59	0.0741315
2092.05	0.373544
2093.5	0.152407
2094.96	0.719497
2096.41	0.212884
2097.87	0.342831
2099.32	0.371676
2100.78	0.651061
2102.23	0.278541
2103.69	0.558462
2105.14	0.889197
2106.59	0.686979
2108.05	0.318993
2109.5	0.501722
2110.95	0.533874
2112.41	0.414947
2113.86	0.32807
2115.31	0.339872
2116.76	0.849664
2118.21	0.860561
2119.67	0.623639
2121.12	0.504742
2122.57	0.88507
2124.02	0.553434
2125.47	0.802737
2126.92	0.720175
2128.37	0.885436
2129.82	0.867155
2131.27	0.864353
2132.71	0.678815
2134.16	0.675452
2135.61	0.986909
2137.06	1.08451
2138.51	0.902729
2139.95	1.3506
2141.4	0.990051
2142.85	1.06026
2144.29	1.04835
2145.74	1.31792
2147.19	1.27285
2148.63	1.34313
2150.08	1.36298
2151.52	1.29912
2152.97	1.28409
2154.42	1.33461
2155.86	1.0534
2157.3	1.33554
2158.75	1.40294
2160.19	1.53779
2161.64	1.27657
2163.08	1.39807
2164.52	1.58741
2165.96	1.44572
2167.41	1.27049
2168.85	2.02511
2170.29	1.44827
2171.73	1.66771
2173.17	1.41964
2174.61	1.53633
2176.06	1.56933
2177.5	1.43624
2178.94	1.52001
2180.38	1.55475
2181.82	1.62355
2183.26	1.42681
2184.7	1.67934
2186.14	1.39968
2187.57	1.45272
2189.01	1.20625
2190.45	0.976327
2191.89	1.32879
2193.33	0.964738
2194.76	1.11569
2196.2	1.19846
2197.64	1.14636
2199.08	0.976456
2200.51	1.32098
2201.95	0.834773
2203.38	1.16275
2204.82	1.10992
2206.25	1.33977
2207.69	0.907223
2209.12	1.08757
2210.56	0.836762
2211.99	0.96583
2213.43	0.994926
2214.86	0.875231
2216.3	0.756216
2217.73	1.03423
2219.16	0.867801
2220.59	0.900041
2222.03	0.981803
2223.46	0.651029
2224.89	1.01099
2226.32	0.661486
2227.75	0.722169
2229.19	0.584598
2230.62	0.659951
2232.05	0.816896
2233.48	0.400856
2234.91	0.509549
2236.34	0.373947
2237.77	0.354116
2239.2	0.417401
2240.63	0.123399
2242.06	0.336512
2243.48	0.648453
2244.91	0.389814
2246.34	0.456849
2247.77	0.31058
2249.2	0.293097
2250.62	0.615976
2252.05	0.139367
2253.48	0.0369844
2254.9	0.42243
2256.33	0.321393
2257.76	0.449541
2259.18	-0.10146
2260.61	0.371973
2262.03	0.555436
2263.46	0.44804
2264.88	0.503253
2266.31	0.346843
2267.73	0.645146
2269.16	0.0478449
2270.58	0.507677
2272	0.364875
2273.43	0.270734
2274.85	0.258079
2276.27	-0.161772
2277.69	0.298407
2279.12	0.644763
2280.54	0.420519
2281.96	0.0166378
2283.38	0.281403
2284.8	0.497376
2286.22	0.419827
2287.64	0.0323038
2289.07	-0.191793
2290.49	-0.317718
2291.91	-0.165635
2293.32	0.624499
2294.74	0.0572877
2296.16	0.127902
2297.58	0.231288
2299	0.170979
2300.42	-0.167857
2301.84	0.198311
2303.26	0.00725651
2304.67	-0.151048
2306.09	0.248823
2307.51	0.0737228
2308.92	0.0295453
2310.34	0.215103
2311.76	-0.0765538
2313.17	0.355573
2314.59	-0.495555
2316	0.019937
2317.42	0.190535
2318.83	0.361665
2320.25	-0.0444927
2321.66	-0.00637102
2323.08	0.442925
2324.49	-0.0172772
2325.91	0.527345
2327.32	0.361098
2328.73	0.721796
2330.15	0.0445876
2331.56	0.405957
2332.97	0.45525
2334.38	0.17613
2335.79	0.259238
2337.21	0.0130172
2338.62	-0.00363827
2340.03	-0.185475
2341.44	0.239781
2342.85	-0.189248
2344.26	0.153054
2345.67	-0.0948691
2347.08	-0.24399
2348.49	0.114525
2349.9	-0.00210047
2351.31	0.273139
2352.72	0.106192
2354.13	0.0203886
2355.53	-0.424353
2356.94	0.0271063
2358.35	-0.0754085
2359.76	0.196076
2361.17	0.142466
2362.57	0.0565319
2363.98	0.197431
2365.39	-0.0664535
2366.79	-0.00641441
2368.2	-0.0106091
2369.6	-0.320475
2371.01	0.128727
2372.42	0.0789862
2373.82	-0.0504379
2375.22	0.174656
2376.63	-0.115592
2378.03	0.18858
2379.44	0.137641
2380.84	0.165742
2382.25	-0.496805
2383.65	0.154779
2385.05	0.132793
2386.45	-0.0405831
2387.86	-0.212874
2389.26	0.0385852
2390.66	0.322448
2392.06	0.176992
2393.46	-0.0788689
2394.87	0.0796652
2396.27	0.127332
2397.67	-0.0311441
2399.07	0.112801
2400.47	0.129984
2401.87	0.290359
2403.27	0.133095
2404.67	-0.0244083
2406.07	0.309574
2407.47	0.134834
2408.86	0.0547943
2410.26	0.00628996
2411.66	0.163969
2413.06	-0.295466
2414.46	0.275445
2415.85	0.34074
2417.25	0.248789
2418.65	0.189204
2420.05	0.161557
2421.44	-0.0879669
2422.84	0.137443
2424.23	0.0458016
2425.63	0.00173426
2427.03	-0.026094
2428.42	0.073554
2429.82	0.285022
2431.21	-0.0422606
2432.6	-0.0522542
2434	0.254984
2435.39	0.116715
2436.79	-0.133984
2438.18	-0.0680861
2439.57	0.0921249
2440.97	0.0292373
2442.36	0.0770988
2443.75	0.0294971
2445.14	0.457635
2446.54	-0.034265
2447.93	-0.0662656
2449.32	-0.066566
2450.71	0.154974
2452.1	-0.00309849
2453.49	0.0135813
2454.88	-0.222213
2456.27	0.0171304
2457.66	-0.122952
2459.05	0.148094
2460.44	0.133971
2461.83	0.103412
2463.22	0.167088
2464.61	0.230263
2466	-0.14903
2467.39	0.245415
2468.77	-0.149438
2470.16	0.275989
2471.55	0.101662
2472.94	0.0687752
2474.32	0.00385571
2475.71	-0.203029
2477.1	-0.346992
2478.48	0.325861
2479.87	0.448557
2481.25	-0.0246191
2482.64	0.25491
2484.02	0.283148
2485.41	0.0760374
2486.8	0.149676
2488.18	-0.0273676
2489.56	0.262979
2490.95	0.381269
2492.33	0.0178175
2493.72	0.246068
2495.1	0.211204
2496.48	-0.1946
2497.86	-0.103527
2499.25	-0.0588198
2500.63	0.233039
2502.01	-0.187077
2503.39	0.118502
2504.77	0.314821
2506.16	-0.0752544
2507.54	0.289476
2508.92	-0.0229197
2510.3	0.0188951
2511.68	-0.353113
2513.06	0.0732055
2514.44	-0.251018
2515.82	0.390136
2517.2	-0.0702653
2518.58	0.142951
2519.95	0.157427
2521.33	-0.194863
2522.71	0.444863
2524.09	0.137426
2525.47	-0.352981
2526.84	0.00995445
2528.22	0.372621
2529.6	0.674837
2530.98	0.0965314
2532.35	0.31006
2533.73	0.00802565
2535.11	0.192733
2536.48	-0.078383
2537.86	-0.334775
2539.23	0.28909
2540.61	0.168024
2541.98	0.0922937
2543.36	0.183729
2544.73	0.00273991
2546.1	0.171598
2547.48	-0.113662
2548.85	0.436077
2550.23	0.166629
2551.6	0.230599
2552.97	0.126921
2554.34	-0.0230708
2555.72	0.281459
2557.09	0.28206
2558.46	0.358378
2559.83	0.177163
2561.2	0.102535
2562.58	0.301204
2563.95	0.212377
2565.32	0.33604
2566.69	0.0204215
2568.06	0.295897
2569.43	0.0561023
2570.8	-0.0776224
2572.17	0.0160341
2573.54	-0.117618
2574.91	0.233894
2576.27	0.236779
2577.64	-0.0029912
2579.01	0.287738
2580.38	0.199129
2581.75	0.27699
2583.11	0.339391
2584.48	0.31063
2585.85	-0.127429
2587.21	0.222831
2588.58	0.0730453
2589.95	0.287074
2591.31	-0.0445585
2592.68	0.16898
2594.04	-0.0120382
2595.41	-0.208868
2596.78	0.108337
2598.14	0.0918059
2599.51	-0.318073
2600.87	-0.0776687
2602.23	0.117537
2603.6	0.388544
2604.96	-0.245606
2606.32	-0.124948
2607.69	0.100924
2609.05	0.0697408
2610.41	-0.203318
2611.77	-0.0706081
2613.14	-0.23971
2614.5	-0.00347757
2615.86	0.0970316
2617.22	0.212504
2618.58	0.178466
2619.94	0.32465
2621.3	0.426322
2622.67	-0.0992951
2624.03	-0.011827
2625.39	0.000871658
2626.75	0.117742
2628.1	0.234189
2629.46	0.156661
2630.82	0.123723
2632.18	0.0461555
2633.54	0.146922
2634.9	0.0693989
2636.26	0.436868
2637.61	0.0776615
2638.97	0.266888
2640.33	0.115665
2641.69	0.304888
2643.04	0.287232
2644.4	0.373067
2645.76	0.0456543
2647.11	0.337534
2648.47	0.466385
2649.82	-0.259144
2651.18	0.148183
2652.53	0.334163
2653.89	0.22653
2655.24	-0.026885
2656.6	0.26284
2657.95	0.333504
2659.31	0.390155
2660.66	0.0961504
2662.01	0.357652
2663.37	-0.0096488
2664.72	-0.201953
2666.07	0.218033
2667.43	0.0977883
2668.78	0.210649
2670.13	-0.0838504
2671.48	0.596611
2672.83	-0.13274
2674.18	-0.192755
2675.53	0.15411
2676.89	0.254447
2678.24	-0.0363712
2679.59	0.543588
2680.94	0.399282
2682.29	-0.237015
2683.64	0.31649
2684.99	0.392317
2686.34	0.207372
2687.68	-0.0068717
2689.03	-0.03338
2690.38	0.287267
2691.73	0.15649
2693.08	0.517904
2694.43	-0.0788083
2695.77	0.281481
2697.12	0.35218
2698.47	0.119733
2699.81	0.0479274
2701.16	0.426332
2702.51	0.168715
2703.85	0.216022
2705.2	0.292757
2706.54	0.195539
2707.89	0.141559
2709.23	0.0872235
2710.58	0.134209
2711.92	0.268184
2713.27	0.387601
2714.61	0.216316
2715.96	0.42292
2717.3	0.484085
2718.64	0.239563
2719.99	0.445724
2721.33	-0.192496
2722.67	0.0711632
2724.01	0.0579481
2725.36	0.0735135
2726.7	0.0596814
2728.04	0.249362
2729.38	0.235088
2730.72	0.366208
2732.06	0.00261545
2733.41	0.351967
2734.75	0.483197
2736.09	0.178223
2737.43	0.149716
2738.77	0.339334
2740.11	0.310597
2741.44	0.426892
2742.78	0.310042
2744.12	0.425228
2745.46	0.104022
2746.8	0.0150843
2748.14	0.3325
2749.48	-0.104784
2750.81	0.299608
2752.15	0.254452
2753.49	0.0210991
2754.83	0.353055
2756.16	0.221432
2757.5	-0.156146
2758.84	-0.345153
2760.17	-0.157512
2761.51	0.0304112
2762.84	0.0015955
2764.18	0.0887604
2765.51	0.248239
2766.85	0.306065
2768.18	0.0883327
2769.52	0.317969
2770.85	0.156085
2772.19	0.224417
2773.52	0.190849
2774.85	0.373161
2776.19	0.238241
2777.52	0.262137
2778.85	0.142616
2780.18	0.09551
2781.52	0.235388
2782.85	0.303382
2784.18	0.299535
2785.51	-0.0912871
2786.84	0.0341525
2788.17	0.260014
2789.51	0.0856252
2790.84	-0.0450335
2792.17	0.22531
2793.5	0.00983191
2794.83	0.194642
2796.16	-0.149561
2797.48	-0.122596
2798.81	0.0324402
2800.14	0.229839
2801.47	0.212869
2802.8	0.0104113
2804.13	0.192716
2805.46	0.360233
2806.79	0.0716076
2808.11	0.323358
2809.44	0.190688
2810.77	-0.112162
2812.09	0.0115976
2813.42	0.29206
2814.75	-0.178028
2816.07	0.146974
2817.4	-0.165089
2818.73	0.00518417
2820.05	0.0478921
2821.38	-0.122335
2822.7	0.0895929
2824.03	-0.138227
2825.35	0.0587397
2826.67	0.383086
2828	0.0564122
2829.32	0.0983253
2830.65	0.282133
2831.97	0.182971
2833.29	0.296088
2834.62	0.338172
2835.94	0.167587
2837.26	0.548471
2838.58	0.377164
2839.9	0.842163
2841.23	0.812168
2842.55	0.966276
2843.87	0.894722
2845.19	0.753091
2846.51	1.1631
2847.83	0.61237
2849.15	0.83895
2850.47	1.22079
2851.79	1.03688
2853.11	0.993918
2854.43	1.13437
2855.75	1.21811
2857.07	0.976912
2858.39	1.34317
2859.71	0.91845
2861.02	1.63745
2862.34	1.53712
2863.66	1.67648
2864.98	1.40636
2866.3	1.50314
2867.61	1.41672
2868.93	1.89466
2870.25	1.5551
2871.56	1.51176
2872.88	1.66553
2874.19	1.73412
2875.51	1.77369
2876.83	2.12212
2878.14	1.4846
2879.46	2.31012
2880.77	1.7435
2882.09	2.14745
2883.4	1.73732
2884.71	2.18465
2886.03	1.87419
2887.34	1.49372
2888.65	2.09531
2889.97	1.91042
2891.28	1.94938
2892.59	1.97382
2893.91	2.05416
2895.22	1.96668
2896.53	2.39777
2897.84	2.0318
2899.15	2.31034
2900.46	2.08579
2901.78	2.16936
2903.09	2.43493
2904.4	2.39285
2905.71	2.23909
2907.02	2.49139
2908.33	2.2687
2909.64	2.98402
2910.95	2.7904
2912.26	2.89063
2913.57	2.72431
2914.87	3.1449
2916.18	2.83617
2917.49	3.12816
2918.8	3.44721
2920.11	3.17852
2921.42	3.30201
2922.72	3.69201
2924.03	3.14649
2925.34	3.67818
2926.64	3.65123
2927.95	3.82002
2929.26	3.69494
2930.56	3.73717
2931.87	4.14248
2933.17	3.79272
2934.48	4.18376
2935.78	4.05774
2937.09	3.77814
2938.39	3.44283
2939.7	3.62478
2941	3.79315
2942.31	3.54298
2943.61	4.16025
2944.91	3.53466
2946.22	3.17531
2947.52	3.10996
2948.82	3.67422
2950.13	3.48188
2951.43	3.19001
2952.73	3.47073
2954.03	2.77023
2955.33	2.72759
2956.64	3.07754
2957.94	2.63123
2959.24	2.83088
2960.54	2.8227
2961.84	2.88619
2963.14	2.50141
2964.44	2.80355
2965.74	2.52902
2967.04	2.19673
2968.34	2.15845
2969.64	1.96489
2970.94	2.08061
2972.24	2.04184
2973.53	1.97516
2974.83	1.69728
2976.13	1.88343
2977.43	1.91379
2978.73	1.83022
2980.02	1.40754
2981.32	1.56108
2982.62	1.60157
2983.91	1.69852
2985.21	1.61354
2986.51	1.45948
2987.8	0.955259
2989.1	1.04194
2990.4	1.10073
2991.69	0.5267
2992.99	0.682765
2994.28	1.2594
2995.57	0.90783
2996.87	1.11757
2998.16	0.849833
2999.46	0.638632
3000.75	0.540168
3002.05	0.40015
3003.34	0.414656
3004.63	0.219106
3005.92	0.233543
3007.22	0.471501
3008.51	0.414812
3009.8	0.3016
3011.09	0.341687
3012.39	0.493088
3013.68	0.253649
3014.97	0.000948906
3016.26	0.417764
3017.55	0.430881
3018.84	0.263486
3020.13	0.0546083
3021.42	0.0124297
3022.71	0.0391374
3024	0.314873
3025.29	0.298406
3026.58	-0.0921321
3027.87	-0.163325
3029.16	0.347079
3030.45	0.0979881
3031.73	-0.0944834
3033.02	-0.0513482
3034.31	0.0885897
3035.6	-0.07546
3036.89	0.242247
3038.17	0.15866
3039.46	0.1151
3040.75	0.0842137
3042.03	0.148812
3043.32	-0.472066
3044.61	0.319143
3045.89	0.0159554
3047.18	0.193103
3048.46	-0.065094
3049.75	-0.212312
3051.03	0.187518
3052.32	0.219465
3053.6	0.0331159
3054.89	-0.044518
3056.17	0.286267
3057.45	0.0843453
3058.74	0.00466776
3060.02	0.483138
3061.31	0.32179
3062.59	0.202175
3063.87	0.233278
3065.15	-0.264646
3066.44	0.0677896
3067.72	-0.11565
3069	-0.258057
3070.28	0.211354
3071.56	-0.108659
3072.84	0.141651
3074.13	-0.0576758
3075.41	-0.0129347
3076.69	0.140179
3077.97	0.374903
3079.25	0.108271
3080.53	-0.102801
3081.81	0.0400128
3083.09	-0.0332665
3084.37	0.0432057
3085.64	-0.0159521
3086.92	0.223167
3088.2	0.027442
3089.48	0.22482
3090.76	0.218266
3092.04	-0.141101
3093.31	-0.0525866
3094.59	-0.302889
3095.87	0.00301886
3097.14	0.308902
3098.42	0.248694
3099.7	-0.150318
3100.97	-0.156324
3102.25	-0.135171
3103.53	-0.127339
3104.8	0.0839181
3106.08	-0.17799
3107.35	0.251007
3108.63	0.153026
3109.9	0.109997
3111.18	0.0947895
3112.45	-0.0417376
3113.73	-0.137388
3115	-0.0162015
3116.27	-0.180025
3117.55	0.29294
3118.82	0.371855
3120.09	0.219369
3121.37	0.296744
3122.64	0.278772
3123.91	0.138784
3125.18	0.0396976
3126.45	0.428292
3127.73	0.289417
3129	0.286311
3130.27	0.418712
3131.54	0.334866
3132.81	-0.0192423
3134.08	0.193954
3135.35	0.433586
3136.62	0.119394
3137.89	0.331055
3139.16	0.420903
3140.43	0.241324
3141.7	0.0755711
3142.97	0.353753
3144.24	0.390227
3145.51	0.41372
3146.78	-0.0448408
3148.04	0.274731
3149.31	0.406937
