200.423	0.222838
202.238	0.247973
204.052	0.274089
205.868	0.544233
207.682	0.449643
209.495	0.233094
211.308	0.501443
213.12	0.62255
214.935	0.160277
216.746	0.7887
218.558	0.253628
220.369	0.542683
222.18	-0.20797
223.992	0.445189
225.802	0.27651
227.612	0.591108
229.421	0.687707
231.23	-0.0369749
233.039	0.300103
234.849	0.0101891
236.657	-0.0133657
238.465	-0.0351753
240.272	0.330799
242.079	-0.603161
243.885	0.272452
245.691	0.0868387
247.497	-0.0762062
249.305	-0.36243
251.11	0.290189
252.915	0.433079
254.719	0.260554
256.523	-0.539135
258.327	0.180777
260.13	0.491977
261.933	0.32296
263.736	0.227668
265.538	-0.228178
267.34	0.0631475
269.141	0.330154
270.943	0.741119
272.744	-0.150951
274.544	0.354046
276.344	0.32708
278.144	0.202021
279.944	0.388328
281.743	0.404022
283.542	0.658424
285.34	0.0220222
287.138	0.22616
288.936	0.0941296
290.733	0.322255
292.53	0.551091
294.327	0.111208
296.123	-0.01612
297.919	0.000948906
299.715	0.0422935
301.508	-0.322647
303.303	0.0282049
305.098	0.4731
306.892	0.0102816
308.686	0.143649
310.479	-0.34219
312.273	0.173626
314.065	0.547652
315.858	-0.124475
317.648	-0.461838
319.44	0.130962
321.231	0.582191
323.022	-0.300895
324.813	0.270872
326.604	0.34199
328.392	0.460698
330.181	0.172539
331.971	-0.308337
333.76	0.0702581
335.548	0.638606
337.335	0.46308
339.123	0.357458
340.91	0.585257
342.698	0.549125
344.483	-0.0366535
346.269	0.644312
348.055	0.227039
349.841	0.335586
351.625	-0.0332832
353.41	-0.0445433
355.195	0.706608
356.977	0.359128
358.762	-0.251338
360.545	-0.171447
362.329	0.502425
364.11	0.152098
365.893	0.44314
367.675	0.946547
369.455	0.357409
371.237	0.479278
373.017	0.316295
374.798	0.460537
376.578	0.250379
378.357	0.960733
380.137	-0.0256786
381.917	0.567675
383.694	0.620252
385.473	0.0156908
387.249	0.0941696
389.028	-0.319784
390.806	0.441566
392.581	0.357951
394.359	-0.194801
396.134	0.356491
397.91	0.109383
399.684	0.331812
401.46	0.0136423
403.234	0.610921
405.009	0.150599
406.784	0.605528
408.557	0.75451
410.331	-0.294005
412.103	0.13639
413.876	-0.0900497
415.647	-0.0812635
417.42	0.115887
419.191	0.125846
420.961	0.25336
422.733	-0.511316
424.502	-0.243794
426.273	0.0699482
428.042	0.570734
429.812	0.319865
431.58	0.632274
433.35	0.193883
435.118	0.62415
436.885	0.115605
438.653	0.8034
440.42	-0.0589457
442.188	0.860177
443.954	-0.0521011
445.719	0.276792
447.486	0.604079
449.251	0.486042
451.015	-0.169089
452.781	-0.239253
454.545	0.0874004
456.308	-0.12255
458.073	0.296484
459.836	0.319294
461.598	0.365881
463.362	1.08774
465.124	0.324182
466.885	0.515945
468.648	0.500983
470.408	0.720243
472.169	0.498209
473.929	0.0424595
475.69	0.330142
477.45	1.0121
479.208	-0.00809097
480.967	0.857635
482.727	0.628666
484.485	0.470587
486.243	0.174349
488	0.206008
489.759	0.286099
491.515	0.413885
493.272	0.355551
495.028	0.180353
496.783	0.800632
498.54	0.203457
500.295	0.519374
502.05	0.811793
503.804	0.587134
505.558	0.525673
507.311	0.0631733
509.064	0.210614
510.819	-0.0902743
512.572	0.360447
514.324	0.833403
516.076	0.0346527
517.827	0.528759
519.578	0.551468
521.329	0.54999
523.08	0.336724
524.83	0.475563
526.58	0.567309
528.329	0.049365
530.08	0.539551
531.829	0.466748
533.578	0.955113
535.326	0.459382
537.074	0.547475
538.821	0.050518
540.568	0.159959
542.315	0.175294
544.062	1.07431
545.808	0.507224
547.554	0.0344825
549.299	-0.2515
551.044	-0.166161
552.789	0.266102
554.533	0.535854
556.278	-0.0026207
558.019	0.105994
559.763	-0.176862
561.506	0.185781
563.249	0.341306
564.991	-0.238431
566.733	-0.334488
568.475	0.0293512
570.217	0.210115
571.958	0.208368
573.699	0.185062
575.439	0.00265646
577.177	0.0510283
578.917	0.0316668
580.656	0.219641
582.396	0.270036
584.134	-0.392639
585.873	0.277246
587.609	-0.249719
589.347	0.602572
591.084	0.0737104
592.822	0.142586
594.558	-0.110777
596.295	0.142047
598.029	0.808971
599.765	0.371274
601.5	0.185987
603.235	0.137711
604.968	-0.578425
606.703	0.152663
608.437	0.147413
610.171	-0.179268
611.902	0.0453067
613.635	0.270296
615.368	-0.077292
617.099	0.514881
618.831	0.258823
620.563	0.16234
622.294	0.179321
624.024	0.218421
625.755	0.531559
627.485	0.251602
629.213	0.452797
630.943	0.450537
632.673	0.176215
634.4	0.633094
636.129	0.268114
637.855	0.47236
639.584	0.331958
641.312	0.417264
643.037	0.249689
644.764	0.104093
646.491	0.163709
648.216	-0.207148
649.942	0.401899
651.666	-0.303952
653.392	0.356811
655.115	0.202211
656.84	0.413585
658.563	0.329904
660.287	0.0632019
662.011	0.320008
663.732	0.461041
665.456	-0.0170946
667.177	0.623424
668.899	0.165693
670.62	0.0743275
672.342	0.602368
674.061	0.537643
675.781	0.199604
677.502	0.36675
679.22	0.741088
680.941	0.241769
682.659	0.867462
684.379	0.133983
686.096	0.503527
687.815	0.733745
689.532	0.479366
691.248	0.339512
692.966	0.153074
694.682	0.5649
696.4	-0.244685
698.115	0.556664
699.829	0.758095
701.546	0.498363
703.26	0.78975
704.974	0.873429
706.689	0.727023
708.402	0.626359
710.115	0.93797
711.83	0.790865
713.542	0.415028
715.254	0.816683
716.967	0.601099
718.679	0.97909
720.39	0.832364
722.102	0.936518
723.812	0.676513
725.522	0.644195
727.232	1.17953
728.943	0.805831
730.652	1.24861
732.361	1.25987
734.069	1.29356
735.779	1.07859
737.487	1.5192
739.194	1.12488
740.901	1.34071
742.608	1.21939
744.316	1.21198
746.022	0.75575
747.728	1.1784
749.433	0.859747
751.138	0.857141
752.843	0.315786
754.549	0.900256
756.254	1.37375
757.957	1.08345
759.661	1.13203
761.364	0.911092
763.067	1.0513
764.769	1.34957
766.471	1.19542
768.175	1.22039
769.877	1.19831
771.578	1.33277
773.279	1.03637
774.98	2.00579
776.68	1.64157
778.38	0.690569
780.079	1.50459
781.779	1.03049
783.478	1.3257
785.176	1.75598
786.875	1.75422
788.573	1.77233
790.27	1.60655
791.968	1.1674
793.665	1.29212
795.361	1.82239
797.058	2.01439
798.754	1.53193
800.45	1.65939
802.145	2.26044
803.84	1.42233
805.535	1.73127
807.23	1.7696
808.922	1.29037
810.616	1.66351
812.309	1.63166
814.002	1.15125
815.695	1.23109
817.388	1.62391
819.08	2.08317
820.772	1.51462
822.464	2.24144
824.153	1.56322
825.844	1.46644
827.535	1.5052
829.225	1.9694
830.915	1.72357
832.605	2.0371
834.292	1.39431
835.981	1.24237
837.67	1.82661
839.359	1.20473
841.047	1.80954
842.732	1.87731
844.42	1.11783
846.107	1.43142
847.794	1.38891
849.479	1.75114
851.165	1.55627
852.851	1.38513
854.534	1.25933
856.22	1.06576
857.905	1.07327
859.589	1.43945
861.272	1.21919
862.956	0.88466
864.639	0.751618
866.321	0.279583
868.004	0.821503
869.687	0.867116
871.367	0.799695
873.049	0.79977
874.731	1.47669
876.41	0.528991
878.092	1.09323
879.771	0.957774
881.451	0.867146
883.131	0.798507
884.809	0.932166
886.489	1.74173
888.166	1.10552
889.845	0.761672
891.522	1.29594
893.2	1.04014
894.878	1.21128
896.554	0.931615
898.231	0.696579
899.906	1.29128
901.583	1.03252
903.258	1.04245
904.934	1.11922
906.608	1.24065
908.283	0.827223
909.956	0.727244
911.631	1.2511
913.304	1.41891
914.976	0.853984
916.65	0.844738
918.322	1.14574
919.995	1.06985
921.666	0.596369
923.339	0.190867
925.009	1.28931
926.679	0.732117
928.351	0.905117
930.021	1.25559
931.692	1.16525
933.361	1.53843
935.029	1.18378
936.699	0.93984
938.367	1.00539
940.035	0.895486
941.704	1.13952
943.371	0.876765
945.038	0.657928
946.706	0.791309
948.372	0.96738
950.038	0.965276
951.705	0.388524
953.37	0.981069
955.035	0.361769
956.7	0.759046
958.366	0.673783
960.03	0.94385
961.693	0.685454
963.357	1.42132
965.021	0.896045
966.684	0.323852
968.346	0.744928
970.008	0.832409
971.67	0.764282
973.334	0.917664
974.995	0.851047
976.655	0.476281
978.316	0.500762
979.976	0.536865
981.638	0.572701
983.297	0.507874
984.957	1.72546
986.616	0.94897
988.274	1.16701
989.932	0.3887
991.59	0.936705
993.248	0.71087
994.907	0.463286
996.565	0.87794
998.221	0.807017
999.878	0.868206
1001.53	0.906974
1003.19	0.989346
1004.85	0.917385
1006.5	1.08715
1008.16	1.10304
1009.81	0.855847
1011.46	1.04794
1013.12	0.407355
1014.77	0.51257
1016.43	0.530416
1018.08	1.07378
1019.73	0.851825
1021.38	0.849529
1023.04	0.826293
1024.69	0.672736
1026.34	0.803782
1027.99	1.04407
1029.64	0.956087
1031.29	2.15567
1032.94	1.1262
1034.59	1.75449
1036.24	2.27169
1037.89	2.17733
1039.54	3.12784
1041.19	4.38204
1042.84	4.87517
1044.48	5.65226
1046.13	4.97593
1047.78	4.99711
1049.42	4.93339
1051.07	4.74085
1052.72	2.55054
1054.36	2.35879
1056.01	2.23215
1057.66	1.84432
1059.3	1.49938
1060.94	0.89285
1062.59	1.28586
1064.23	1.11272
1065.88	0.982213
1067.52	0.503101
1069.16	0.479744
1070.81	0.564454
1072.45	0.51873
1074.09	0.99416
1075.73	0.515696
1077.38	1.10118
1079.02	0.343097
1080.66	0.49645
1082.3	0.541384
1083.94	0.455532
1085.58	0.693589
1087.22	-0.0885258
1088.86	0.536123
1090.5	0.228105
1092.13	0.784334
1093.77	-0.0646315
1095.41	0.468954
1097.05	0.678862
1098.68	0.307942
1100.32	0.218734
1101.96	0.798161
1103.6	-0.191767
1105.23	0.475924
1106.87	0.111562
1108.5	0.0696392
1110.14	0.499924
1111.77	-0.124426
1113.41	0.238712
1115.04	0.428701
1116.67	0.231799
1118.31	0.3568
1119.94	0.37504
1121.58	0.286968
1123.21	0.713486
1124.84	0.348846
1126.47	0.412904
1128.1	0.584468
1129.73	0.200629
1131.37	0.501463
1133	0.588706
1134.63	0.162823
1136.26	0.634196
1137.89	0.207118
1139.52	0.548306
1141.14	0.269251
1142.77	0.374146
1144.4	0.500349
1146.03	0.477738
1147.66	-0.439155
1149.29	0.00867844
1150.91	0.520557
1152.54	0.435945
1154.17	0.436257
1155.79	1.13857
1157.42	0.116978
1159.04	-0.116752
1160.67	-0.137088
1162.3	-0.518056
1163.92	0.419966
1165.55	-0.193737
1167.17	0.127895
1168.79	0.491207
1170.42	-0.188402
1172.04	-0.486561
1173.66	0.339587
1175.28	0.0604076
1176.91	0.332402
1178.53	0.0321894
1180.15	0.240952
1181.77	0.0693512
1183.39	0.109888
1185.01	0.129289
1186.63	0.295774
1188.25	0.165368
1189.87	0.0758352
1191.49	-0.288652
1193.11	0.0825205
1194.73	0.284082
1196.35	0.0867243
1197.97	0.225602
1199.59	0.490951
1201.2	0.506874
1202.82	0.169943
1204.44	0.607587
1206.05	-0.205223
1207.67	0.0472193
1209.29	0.258111
1210.9	0.259776
1212.52	0.614571
1214.13	0.237957
1215.75	0.568035
1217.36	1.00011
1218.97	0.640775
1220.59	0.365102
1222.2	0.422322
1223.82	0.480398
1225.43	0.560271
1227.04	1.03441
1228.65	0.640511
1230.26	0.682142
1231.88	0.497324
1233.49	0.582203
1235.1	0.854054
1236.71	0.920206
1238.32	0.904517
1239.93	0.579196
1241.54	1.03985
1243.15	0.590157
1244.76	1.25704
1246.37	0.681633
1247.97	1.20209
1249.58	1.20458
1251.19	1.14472
1252.8	1.22983
1254.41	0.736373
1256.01	0.781562
1257.62	1.11736
1259.23	0.95762
1260.83	0.695012
1262.44	1.65434
1264.04	1.18505
1265.65	1.19171
1267.25	1.07339
1268.86	0.912777
1270.46	1.02082
1272.07	1.25242
1273.67	1.56604
1275.27	1.09105
1276.88	0.967785
1278.48	0.906068
1280.08	1.63072
1281.68	1.58869
1283.28	1.13301
1284.89	1.52601
1286.49	1.46467
1288.09	0.0814638
1289.69	1.07595
1291.29	1.18209
1292.89	1.55674
1294.49	1.06303
1296.09	1.04351
1297.69	1.18785
1299.29	1.04183
1300.88	1.71941
1302.48	1.85927
1304.08	1.25716
1305.68	1.39573
1307.27	2.29346
1308.87	1.44518
1310.47	1.17253
1312.06	1.26926
1313.66	1.18232
1315.25	2.0363
1316.85	1.41963
1318.44	1.09003
1320.04	0.92393
1321.63	1.44995
1323.23	1.56674
1324.82	1.25494
1326.41	0.942729
1328.01	1.23906
1329.6	1.02885
1331.19	1.28555
1332.78	1.66478
1334.38	1.13671
1335.97	0.933534
1337.56	1.41677
1339.15	1.3547
1340.74	1.37193
1342.33	1.22636
1343.92	1.32066
1345.51	1.41379
1347.1	1.12577
1348.69	1.661
1350.28	1.17661
1351.87	1.35506
1353.46	1.1352
1355.04	1.41624
1356.63	1.29782
1358.22	1.23904
1359.81	1.43912
1361.39	0.540358
1362.98	1.19781
1364.57	1.17636
1366.15	0.836339
1367.74	0.557041
1369.32	0.199285
1370.91	0.360217
1372.49	0.581805
1374.07	1.02309
1375.66	0.728694
1377.24	0.533851
1378.83	0.53761
1380.41	0.40132
1381.99	0.642049
1383.57	0.941278
1385.16	0.543768
1386.74	0.563465
1388.32	0.642815
1389.9	1.17913
1391.48	0.941905
1393.06	0.804646
1394.64	0.667756
1396.22	1.02651
1397.8	0.393363
1399.38	0.651573
1400.96	0.0967841
1402.54	0.393288
1404.12	0.867476
1405.7	0.866995
1407.28	0.807892
1408.85	1.18419
1410.43	1.02735
1412.01	0.515146
1413.58	1.12798
1415.16	1.049
1416.74	1.00883
1418.31	0.771276
1419.89	1.38127
1421.46	1.61743
1423.04	1.53981
1424.61	1.20775
1426.19	0.935827
1427.76	1.70752
1429.33	1.16027
1430.91	1.30118
1432.48	0.8901
1434.05	1.26535
1435.63	1.24665
1437.2	1.60167
1438.77	0.954631
1440.34	1.72368
1441.91	2.21826
1443.49	1.67184
1445.05	1.53845
1446.63	1.54278
1448.2	1.7438
1449.77	1.31599
1451.34	1.51763
1452.91	1.62145
1454.47	1.54859
1456.04	1.29858
1457.61	1.57931
1459.18	1.83937
1460.75	1.31079
1462.31	1.19401
1463.88	0.623683
1465.45	1.27165
1467.01	1.30964
1468.58	1.32823
1470.15	1.03352
1471.71	1.56387
1473.28	0.800366
1474.84	1.13591
1476.41	1.07956
1477.97	0.729238
1479.54	0.378946
1481.1	0.910639
1482.66	0.638646
1484.23	0.817283
1485.79	1.13271
1487.35	0.566044
1488.91	0.586064
1490.48	0.995981
1492.04	1.01256
1493.6	1.30076
1495.16	1.02106
1496.72	0.643701
1498.28	0.461689
1499.84	0.727553
1501.4	0.58593
1502.96	1.10491
1504.52	0.73234
1506.08	0.728471
1507.64	0.685444
1509.2	0.583744
1510.76	0.886574
1512.31	0.89887
1513.87	0.448898
1515.43	0.403851
1516.99	0.512955
1518.54	0.277206
1520.1	0.406402
1521.66	0.918166
1523.21	1.02718
1524.77	0.677106
1526.32	0.0220037
1527.88	0.929338
1529.43	0.274503
1530.99	0.608837
1532.54	0.411692
1534.09	0.424047
1535.65	0.758704
1537.2	0.715463
1538.75	0.616241
1540.31	1.19635
1541.86	0.85233
1543.41	0.922938
1544.96	0.579606
1546.51	0.650002
1548.06	0.288568
1549.62	0.415172
1551.17	1.21574
1552.72	0.986271
1554.27	0.62713
1555.82	0.512417
1557.36	0.679167
1558.91	0.809943
1560.46	0.867517
1562.01	0.777103
1563.56	0.351748
1565.11	0.729061
1566.66	0.751993
1568.2	0.51345
1569.75	0.853198
1571.3	1.04336
1572.84	0.97195
1574.39	0.84442
1575.93	1.01557
1577.48	1.05621
1579.02	0.59309
1580.57	1.02659
1582.11	0.788512
1583.66	0.775136
1585.2	0.911819
1586.75	0.731153
1588.29	1.16768
1589.83	1.56699
1591.38	1.46082
1592.92	1.37291
1594.46	1.49073
1596	0.690575
1597.54	1.33336
1599.09	0.964667
1600.63	0.896327
1602.17	1.03473
1603.71	1.34227
1605.25	1.33019
1606.79	1.3546
1608.33	0.982723
1609.87	0.834566
1611.41	0.910154
1612.95	1.45363
1614.48	1.37608
1616.02	0.791831
1617.56	1.18336
1619.1	1.72524
1620.64	1.16295
1622.17	1.14508
1623.71	1.10916
1625.25	0.960977
1626.78	1.28013
1628.32	1.54194
1629.86	0.94219
1631.39	0.958975
1632.92	0.900693
1634.46	0.861357
1635.99	1.47569
1637.53	1.21366
1639.06	1.30656
1640.59	1.11988
1642.13	1.32408
1643.66	1.93685
1645.19	1.63607
1646.73	1.83698
1648.26	1.46129
1649.79	1.03072
1651.32	1.21385
1652.85	1.43484
1654.38	1.45261
1655.92	1.1002
1657.45	1.5447
1658.98	1.76601
1660.51	1.68983
1662.04	1.42753
1663.57	1.3495
1665.09	1.40042
1666.62	1.67297
1668.15	1.61404
1669.68	1.40895
1671.21	1.42637
1672.73	1.1868
1674.26	1.35287
1675.79	0.837492
1677.31	0.524275
1678.84	0.780782
1680.37	1.60618
1681.89	0.776275
1683.42	0.846908
1684.94	0.954193
1686.47	1.3917
1687.99	0.747675
1689.52	0.690855
1691.04	0.597662
1692.57	1.18174
1694.09	0.448201
1695.61	0.629375
1697.14	0.481258
1698.66	0.552185
1700.18	0.805192
1701.7	0.109097
1703.22	0.306558
1704.75	0.466876
1706.27	0.262684
1707.79	0.567634
1709.31	0.381569
1710.83	0.57698
1712.35	0.373273
1713.87	0.0794325
1715.39	0.202478
1716.91	0.451893
1718.43	-0.18479
1719.95	0.840846
1721.46	0.186921
1722.98	0.201502
1724.5	0.432996
1726.02	0.178998
1727.53	0.55622
1729.05	0.268126
1730.57	0.303061
1732.08	-0.071744
1733.6	0.209305
1735.12	0.274486
1736.63	0.0916867
1738.15	0.191726
1739.66	0.0587292
1741.18	0.200999
1742.69	0.14743
1744.21	-0.0730081
1745.72	0.0235786
1747.23	0.467967
1748.74	0.471691
1750.26	-0.114603
1751.77	0.150867
1753.28	0.481394
1754.8	0.455043
1756.31	-0.175558
1757.82	-0.144852
1759.33	0.174247
1760.84	0.0724444
1762.35	0.0317364
1763.86	0.248552
1765.37	0.210124
1766.88	0.0251188
1768.39	-0.0847864
1769.9	0.0925736
1771.41	0.22671
1772.92	-0.0231662
1774.43	0.0527205
1775.93	0.357801
1777.44	0.154166
1778.95	0.0745702
1780.46	0.124333
1781.96	-0.00339603
1783.47	-0.0789819
1784.98	-0.182486
1786.48	0.0840583
1787.99	0.0287743
1789.49	0.0186901
1791	-0.129707
1792.5	0.340813
1794.01	0.00216866
1795.51	0.0897164
1797.02	-0.00105047
1798.52	0.144327
1800.03	0.16242
1801.53	0.329612
1803.03	0.126008
1804.53	-0.225873
1806.04	0.279095
1807.54	0.274773
1809.04	-0.186746
1810.54	-0.148217
1812.04	-0.0494328
1813.54	0.176505
1815.05	0.00731468
1816.55	0.0642676
1818.05	0.205155
1819.55	0.179226
1821.05	0.315618
1822.55	0.0789614
1824.05	-0.0097928
1825.54	0.281302
1827.04	0.00678205
1828.54	0.13504
1830.04	0.0957284
1831.54	-0.0746384
1833.03	0.135438
1834.53	0.0929756
1836.03	0.0856571
1837.52	-0.068717
1839.02	-0.0483952
1840.52	0.0551791
1842.01	0.0221314
1843.51	0.25936
1845	-0.0451827
1846.5	-0.133674
1847.99	-0.346003
1849.49	-0.07129
1850.98	0.295551
1852.47	0.196525
1853.97	0.0961852
1855.46	0.0680304
1856.95	0.103774
1858.45	0.177645
1859.94	0.268507
1861.43	-0.0547066
1862.92	-0.0563998
1864.41	0.112567
1865.91	-0.0617352
1867.4	0.361796
1868.89	0.296638
1870.38	0.125988
1871.87	-0.22846
1873.36	-0.0373125
1874.85	-0.0944023
1876.34	-0.120203
1877.83	0.0074935
1879.31	0.168497
1880.8	-0.0680828
1882.29	-0.0481443
1882.56	-0.0330257
1884.05	-0.0513964
1885.54	-0.0180483
1887.04	0.310729
1888.53	0.360264
1890.03	0.0793447
1891.52	0.321153
1893.01	0.0424323
1894.5	0.30409
1895.99	-0.128583
1897.49	0.13486
1898.98	-0.0887523
1900.47	-0.208787
1901.96	0.0527315
1903.45	0.0867825
1904.94	-0.106228
1906.43	-0.0563745
1907.92	0.167065
1909.41	-0.251467
1910.9	0.129145
1912.39	-0.0102062
1913.88	0.128406
1915.37	0.232349
1916.86	-0.0974174
1918.35	-0.0287733
1919.84	0.489995
1921.32	0.280896
1922.81	0.314664
1924.3	-0.239533
1925.78	0.0381556
1927.27	-0.220061
1928.76	0.387851
1930.24	-0.0777555
1931.73	0.131351
1933.21	-0.00693703
1934.7	-0.11183
1936.18	0.543402
1937.67	0.263318
1939.15	0.000538826
1940.64	0.0318747
1942.12	0.184598
1943.6	-0.145037
1945.09	0.0780058
1946.57	0.197742
1948.05	-0.130839
1949.54	-0.029057
1951.02	-0.341306
1952.5	0.0172272
1953.98	0.185738
1955.46	0.422703
1956.94	0.110149
1958.42	-0.28733
1959.91	-0.117791
1961.39	-0.0337539
1962.87	-0.0867634
1964.34	0.32272
1965.82	0.286209
1967.3	-0.43538
1968.78	-0.318457
1970.26	0.293585
1971.74	0.0676494
1973.22	-0.0897346
1974.7	0.213681
1976.17	-0.0967669
1977.65	0.138365
1979.13	-0.0692825
1980.6	-0.174619
1982.08	0.603956
1983.56	0.209187
1985.03	0.137235
1986.51	-0.0365496
1987.98	-0.0406075
1989.46	0.209588
1990.93	-0.0308142
1992.41	0.338629
1993.88	-0.373466
1995.36	-0.239464
1996.83	-0.139038
1998.3	0.40039
1999.78	0.128774
2001.25	0.245041
2002.72	0.0403757
2004.2	-0.0630345
2005.67	-0.385141
2007.14	0.253612
2008.61	0.151758
2010.08	-0.0504179
2011.55	0.320179
2013.02	0.0511332
2014.49	0.0174503
2015.97	0.218754
2017.43	0.183807
2018.9	-0.103882
2020.37	0.314
2021.84	0.193968
2023.31	0.225378
2024.78	0.0727978
2026.25	0.0721564
2027.72	-0.128691
2029.19	0.00699615
2030.65	-0.0744119
2032.12	0.130119
2033.59	-0.0174055
2035.05	0.0700612
2036.52	-0.0946736
2037.98	0.412245
2039.45	0.196413
2040.92	0.0645032
2042.38	0.235482
2043.85	-0.0974793
2045.31	-0.026185
2046.78	0.281417
2048.24	0.286365
2049.71	0.105674
2051.17	0.109537
2052.63	0.264046
2054.1	0.231715
2055.56	0.231819
2057.02	0.112906
2058.48	0.313666
2059.95	-0.0416775
2061.41	-0.0933733
2062.87	0.276367
2064.33	0.360591
2065.79	0.294102
2067.25	-0.293467
2068.71	0.145984
2070.17	0.114437
2071.63	0.28495
2073.09	0.42173
2074.55	0.0363259
2076.01	0.0379457
2077.47	-0.0448961
2078.93	0.377178
2080.39	0.630477
2081.85	-0.0258632
2083.3	0.176012
2084.76	0.478211
2086.22	0.258188
2087.68	0.575932
2089.13	0.204036
2090.59	0.302678
2092.05	0.182917
2093.5	0.600153
2094.96	0.345939
2096.41	0.577681
2097.87	0.657878
2099.32	0.570121
2100.78	0.632764
2102.23	0.444849
2103.69	0.74209
2105.14	0.57269
2106.59	0.738174
2108.05	0.704229
2109.5	0.42044
2110.95	0.886525
2112.41	0.468103
2113.86	0.731577
2115.31	0.510909
2116.76	0.156952
2118.21	0.435026
2119.67	0.979248
2121.12	0.595349
2122.57	0.810286
2124.02	0.82728
2125.47	1.24272
2126.92	0.828887
2128.37	1.14374
2129.82	0.628774
2131.27	1.02417
2132.71	0.441937
2134.16	1.13414
2135.61	0.933405
2137.06	1.09763
2138.51	1.08149
2139.95	1.00076
2141.4	1.21885
2142.85	1.20652
2144.29	0.930014
2145.74	1.11679
2147.19	1.45249
2148.63	1.48978
2150.08	1.36069
2151.52	1.52898
2152.97	1.29881
2154.42	1.48218
2155.86	1.25099
2157.3	1.43403
2158.75	1.35263
2160.19	1.2723
2161.64	1.04421
2163.08	1.59663
2164.52	1.63664
2165.96	1.5944
2167.41	1.8843
2168.85	1.07644
2170.29	1.16446
2171.73	1.31741
2173.17	1.61855
2174.61	2.03494
2176.06	1.58594
2177.5	1.17053
2178.94	1.22136
2180.38	0.940456
2181.82	1.69108
2183.26	1.74393
2184.7	1.74715
2186.14	1.75043
2187.57	1.38766
2189.01	1.32435
2190.45	1.67715
2191.89	1.36391
2193.33	1.41628
2194.76	1.21782
2196.2	1.251
2197.64	1.41566
2199.08	1.16306
2200.51	1.45827
2201.95	0.856424
2203.38	1.11866
2204.82	1.14932
2206.25	1.32992
2207.69	0.980666
2209.12	1.11178
2210.56	1.10973
2211.99	1.12343
2213.43	1.35139
2214.86	1.44679
2216.3	0.981371
2217.73	1.1608
2219.16	1.01125
2220.59	0.714101
2222.03	1.15887
2223.46	0.680168
2224.89	1.12295
2226.32	0.806893
2227.75	0.835298
2229.19	0.665579
2230.62	0.528446
2232.05	0.686417
2233.48	0.696943
2234.91	0.789784
2236.34	0.605644
2237.77	0.537284
2239.2	0.160415
2240.63	0.307248
2242.06	0.618422
2243.48	0.35965
2244.91	0.574134
2246.34	0.608702
2247.77	0.560519
2249.2	0.461836
2250.62	0.540804
2252.05	0.585791
2253.48	0.873991
2254.9	0.333334
2256.33	0.655064
2257.76	0.669908
2259.18	0.0866699
2260.61	0.040957
2262.03	0.93838
2263.46	0.441177
2264.88	0.187358
2266.31	0.290709
2267.73	0.31225
2269.16	0.333138
2270.58	0.28834
2272	0.275723
2273.43	0.604991
2274.85	0.396906
2276.27	0.465868
2277.69	0.323123
2279.12	0.278165
2280.54	0.445133
2281.96	-0.0403466
2283.38	0.46908
2284.8	0.358675
2286.22	0.509546
2287.64	0.00765896
2289.07	0.567452
2290.49	0.22925
2291.91	0.217917
2293.32	0.402915
2294.74	0.30991
2296.16	0.233132
2297.58	0.123499
2299	0.112107
2300.42	0.133625
2301.84	0.155359
2303.26	0.48904
2304.67	0.150171
2306.09	0.0900893
2307.51	0.276172
2308.92	0.330516
2310.34	-0.141735
2311.76	0.0927434
2313.17	-0.0840068
2314.59	-0.16183
2316	-0.10748
2317.42	-0.036068
2318.83	0.0357256
2320.25	0.0579467
2321.66	0.0629029
2323.08	0.215067
2324.49	0.16754
2325.91	0.679354
2327.32	0.843186
2328.73	0.544809
2330.15	0.477521
2331.56	0.559145
2332.97	0.0326114
2334.38	-0.295579
2335.79	0.08391
2337.21	0.101077
2338.62	0.347696
2340.03	0.166033
2341.44	0.36159
2342.85	-0.132711
2344.26	0.128008
2345.67	0.175529
2347.08	0.0266523
2348.49	0.287196
2349.9	0.219964
2351.31	-0.0765839
2352.72	-0.373334
2354.13	-0.148046
2355.53	-0.151861
2356.94	0.169741
2358.35	0.295463
2359.76	0.388515
2361.17	-0.0216813
2362.57	0.08778
2363.98	-0.159363
2365.39	0.111684
2366.79	-0.00556946
2368.2	-0.267464
2369.6	0.0364075
2371.01	0.179534
2372.42	-0.0793176
2373.82	0.0814576
2375.22	0.37113
2376.63	0.290222
2378.03	-0.450657
2379.44	0.190244
2380.84	0.0101976
2382.25	-0.1384
2383.65	0.145148
2385.05	0.0119629
2386.45	0.214894
2387.86	0.338223
2389.26	0.111418
2390.66	0.268252
2392.06	0.0436239
2393.46	0.233672
2394.87	0.106048
2396.27	-0.0368638
2397.67	0.059155
2399.07	0.0601926
2400.47	0.109236
2401.87	-0.000350475
2403.27	0.0330524
2404.67	0.113815
2406.07	0.0351863
2407.47	-0.0440373
2408.86	0.00314236
2410.26	0.0341988
2411.66	0.0178542
2413.06	-0.0929193
2414.46	-0.202742
2415.85	0.258369
2417.25	0.0396633
2418.65	-0.273465
2420.05	0.26875
2421.44	0.224988
2422.84	0.0700598
2424.23	0.342695
2425.63	0.0608201
2427.03	0.143762
2428.42	0.0212541
2429.82	-0.195835
2431.21	0.507664
2432.6	0.00542545
2434	-0.0688238
2435.39	0.0943899
2436.79	0.00241232
2438.18	0.100026
2439.57	0.21259
2440.97	-0.0566711
2442.36	0.197725
2443.75	0.515194
2445.14	0.3723
2446.54	-0.0718198
2447.93	0.213327
2449.32	0.24477
2450.71	0.0546837
2452.1	0.0233984
2453.49	-0.307964
2454.88	0.089119
2456.27	0.201838
2457.66	-0.128135
2459.05	0.0637722
2460.44	0.381746
2461.83	0.446032
2463.22	0.193586
2464.61	0.177894
2466	0.288339
2467.39	0.0513468
2468.77	0.0827546
2470.16	0.00359344
2471.55	0.097579
2472.94	0.0649548
2474.32	0.0318351
2475.71	0.0297737
2477.1	0.16891
2478.48	0.370605
2479.87	0.195497
2481.25	0.240297
2482.64	-0.153707
2484.02	-0.124733
2485.41	0.0599794
2486.8	-0.20952
2488.18	0.176216
2489.56	-0.0940433
2490.95	0.212147
2492.33	0.331408
2493.72	0.218271
2495.1	-0.0177684
2496.48	0.11946
2497.86	-0.0372081
2499.25	-0.14705
2500.63	0.176108
2502.01	0.436393
2503.39	0.263176
2504.77	-0.496479
2506.16	-0.253424
2507.54	0.204397
2508.92	-0.0612493
2510.3	0.0118227
2511.68	-0.206305
2513.06	0.281592
2514.44	0.0647497
2515.82	0.18556
2517.2	-0.0297666
2518.58	0.26004
2519.95	0.28989
2521.33	0.105698
2522.71	-0.0482202
2524.09	0.148293
2525.47	0.344003
2526.84	-0.085114
2528.22	0.125786
2529.6	-0.468737
2530.98	0.12389
2532.35	0.23104
2533.73	0.293537
2535.11	-0.0384741
2536.48	-0.00589848
2537.86	0.330025
2539.23	-0.0334744
2540.61	0.225139
2541.98	0.0735397
2543.36	0.18017
2544.73	0.150826
2546.1	0.0161767
2547.48	-0.0114498
2548.85	-0.129536
2550.23	0.435204
2551.6	0.0588374
2552.97	0.0763698
2554.34	-0.271014
2555.72	0.139708
2557.09	-0.0416856
2558.46	0.262156
2559.83	0.21736
2561.2	0.0365548
2562.58	0.235106
2563.95	0.37342
2565.32	0.148341
2566.69	0.0143499
2568.06	0.365374
2569.43	0.701279
2570.8	0.112652
2572.17	-0.081913
2573.54	-0.0035944
2574.91	0.196075
2576.27	0.31999
2577.64	0.489353
2579.01	0.309815
2580.38	0.418116
2581.75	-0.171371
2583.11	0.239617
2584.48	0.28652
2585.85	0.348538
2587.21	0.168118
2588.58	0.21519
2589.95	-0.0559154
2591.31	0.0062995
2592.68	0.356058
2594.04	0.15977
2595.41	0.265735
2596.78	0.401152
2598.14	0.142536
2599.51	-0.0858049
2600.87	0.0790501
2602.23	0.0326409
2603.6	0.228255
2604.96	0.137398
2606.32	0.197577
2607.69	0.151923
2609.05	0.271498
2610.41	-0.0918994
2611.77	-0.00417376
2613.14	0.263037
2614.5	-0.10168
2615.86	0.359457
2617.22	0.115288
2618.58	0.0367513
2619.94	0.362895
2621.3	0.0760059
2622.67	-0.120462
2624.03	0.250896
2625.39	0.174058
2626.75	0.0524077
2628.1	0.0350041
2629.46	0.270535
2630.82	0.0443401
2632.18	0.0265489
2633.54	0.0978732
2634.9	-0.0832524
2636.26	-0.145473
2637.61	-0.0890608
2638.97	-0.077127
2640.33	0.112419
2641.69	0.0801058
2643.04	-0.203111
2644.4	-0.116761
2645.76	0.279206
2647.11	-0.106977
2648.47	-0.0364199
2649.82	-0.0106864
2651.18	0.0145326
2652.53	-0.136736
2653.89	-0.12617
2655.24	0.0461011
2656.6	0.350638
2657.95	0.245748
2659.31	0.0684643
2660.66	-0.269205
2662.01	0.270199
2663.37	0.355819
2664.72	0.2364
2666.07	0.204126
2667.43	0.113275
2668.78	0.0370665
2670.13	0.223061
2671.48	0.0892811
2672.83	0.0868835
2674.18	0.21561
2675.53	0.112366
2676.89	0.633461
2678.24	0.0523982
2679.59	0.153734
2680.94	0.125272
2682.29	0.155627
2683.64	0.360817
2684.99	0.117119
2686.34	0.381431
2687.68	0.123251
2689.03	0.328678
2690.38	-0.00419998
2691.73	-0.309195
2693.08	-0.0781755
2694.43	0.209988
2695.77	0.280336
2697.12	0.307594
2698.47	-0.200057
2699.81	0.176841
2701.16	0.250836
2702.51	0.572145
2703.85	0.198877
2705.2	0.0720968
2706.54	0.481891
2707.89	0.485557
2709.23	0.329242
2710.58	-0.00173473
2711.92	0.538489
2713.27	0.555822
2714.61	0.384145
2715.96	-0.020328
2717.3	0.331163
2718.64	0.348051
2719.99	0.0882096
2721.33	0.191793
2722.67	0.0621829
2724.01	0.0486712
2725.36	0.224082
2726.7	0.573874
2728.04	0.268466
2729.38	0.195777
2730.72	0.370357
2732.06	0.0647621
2733.41	0.253889
2734.75	0.326729
2736.09	0.38515
2737.43	-0.25445
2738.77	0.109466
2740.11	0.182316
2741.44	0.458377
2742.78	0.341372
2744.12	0.165794
2745.46	0.1497
2746.8	0.205925
2748.14	0.189393
2749.48	0.477589
2750.81	0.185565
2752.15	-0.0770702
2753.49	0.341786
2754.83	0.209934
2756.16	-0.153481
2757.5	0.265311
2758.84	0.1774
2760.17	0.46609
2761.51	0.0459518
2762.84	-0.127789
2764.18	-0.113212
2765.51	-0.0407834
2766.85	0.0747218
2768.18	0.334192
2769.52	0.158833
2770.85	0.0548725
2772.19	-0.280939
2773.52	0.147829
2774.85	-0.00116062
2776.19	0.0229216
2777.52	-0.0535331
2778.85	0.186861
2780.18	-0.032588
2781.52	0.164924
2782.85	0.103906
2784.18	0.0859528
2785.51	0.0536714
2786.84	0.236397
2788.17	0.061389
2789.51	-0.0699844
2790.84	-0.200651
2792.17	0.25549
2793.5	-0.145982
2794.83	0.0958734
2796.16	-0.0769811
2797.48	-0.150121
2798.81	0.0048666
2800.14	-0.0689154
2801.47	0.0711555
2802.8	0.168182
2804.13	0.279169
2805.46	0.0906281
2806.79	0.0299902
2808.11	-0.0309982
2809.44	0.17784
2810.77	0.00295877
2812.09	-0.157069
2813.42	-0.117594
2814.75	0.13546
2816.07	0.205083
2817.4	0.0912013
2818.73	0.332057
2820.05	0.360303
2821.38	0.0339012
2822.7	0.13223
2824.03	-0.0107617
2825.35	0.143532
2826.67	0.113683
2828	0.0275626
2829.32	0.0409389
2830.65	0.309427
2831.97	0.0542817
2833.29	0.407768
2834.62	0.407134
2835.94	-0.0608654
2837.26	0.0369015
2838.58	0.162624
2839.9	0.401275
2841.23	0.215728
2842.55	0.497001
2843.87	0.623158
2845.19	0.43888
2846.51	0.537672
2847.83	1.00417
2849.15	0.749891
2850.47	0.947679
2851.79	1.11684
2853.11	1.25734
2854.43	0.648604
2855.75	1.28322
2857.07	1.14068
2858.39	1.22421
2859.71	1.27945
2861.02	1.53222
2862.34	1.53054
2863.66	1.88144
2864.98	1.37124
2866.3	1.27038
2867.61	1.29667
2868.93	1.23865
2870.25	1.71664
2871.56	1.47571
2872.88	1.61518
2874.19	1.89496
2875.51	1.76534
2876.83	1.94478
2878.14	1.89831
2879.46	2.02045
2880.77	1.73507
2882.09	1.46459
2883.4	1.67254
2884.71	1.48788
2886.03	1.54235
2887.34	2.38279
2888.65	1.98774
2889.97	1.9851
2891.28	1.89774
2892.59	1.88009
2893.91	2.28261
2895.22	1.83089
2896.53	1.74402
2897.84	2.30161
2899.15	1.99225
2900.46	2.03327
2901.78	2.14454
2903.09	2.36784
2904.4	2.54926
2905.71	2.10144
2907.02	2.40934
2908.33	2.78779
2909.64	2.42541
2910.95	2.83299
2912.26	3.07276
2913.57	3.31204
2914.87	2.92027
2916.18	3.21324
2917.49	3.64489
2918.8	3.15215
2920.11	3.17711
2921.42	3.03476
2922.72	3.31274
2924.03	3.87122
2925.34	3.70366
2926.64	4.01182
2927.95	3.62107
2929.26	4.04083
2930.56	3.76118
2931.87	3.91455
2933.17	3.88599
2934.48	4.01116
2935.78	4.08049
2937.09	3.59096
2938.39	3.99594
2939.7	3.22733
2941	3.88441
2942.31	3.80154
2943.61	3.66366
2944.91	3.63858
2946.22	3.69827
2947.52	3.14285
2948.82	3.0067
2950.13	3.65369
2951.43	3.13735
2952.73	3.31968
2954.03	3.15092
2955.33	3.09393
2956.64	3.42952
2957.94	2.81485
2959.24	2.55195
2960.54	2.69706
2961.84	2.73165
2963.14	2.50027
2964.44	2.02946
2965.74	2.63879
2967.04	2.03889
2968.34	2.05622
2969.64	1.98867
2970.94	1.87881
2972.24	1.92387
2973.53	2.22249
2974.83	1.84559
2976.13	2.28468
2977.43	1.52609
2978.73	1.79416
2980.02	1.76534
2981.32	1.4964
2982.62	1.29762
2983.91	1.60537
2985.21	1.25311
2986.51	1.30955
2987.8	1.28267
2989.1	1.36891
2990.4	1.39912
2991.69	0.993303
2992.99	0.924074
2994.28	0.783757
2995.57	1.02199
2996.87	0.627758
2998.16	0.444231
2999.46	0.359221
3000.75	0.737329
3002.05	0.414741
3003.34	0.513004
3004.63	0.106981
3005.92	0.163166
3007.22	0.358895
3008.51	0.511911
3009.8	-0.202747
3011.09	-0.036664
3012.39	-0.0246687
3013.68	0.266316
3014.97	0.111073
3016.26	-0.0574121
3017.55	0.136778
3018.84	0.0528049
3020.13	0.497436
3021.42	0.26021
3022.71	0.175485
3024	0.0763535
3025.29	-0.0508323
3026.58	-0.454899
3027.87	0.0553389
3029.16	-0.0152225
3030.45	-0.0155926
3031.73	-0.0840206
3033.02	-0.0826669
3034.31	-0.0535021
3035.6	0.182209
3036.89	0.26513
3038.17	0.19515
3039.46	-0.233788
3040.75	0.0931659
3042.03	-0.0754423
3043.32	0.0579166
3044.61	-0.013803
3045.89	0.066175
3047.18	0.120174
3048.46	0.0801578
3049.75	0.12353
3051.03	-0.214106
3052.32	0.117483
3053.6	-0.0012145
3054.89	0.17982
3056.17	0.141847
3057.45	0.266747
3058.74	0.0912495
3060.02	0.174485
3061.31	-0.0142531
3062.59	-0.093317
3063.87	0.290902
3065.15	-0.0444808
3066.44	-0.161352
3067.72	0.035162
3069	0.0960135
3070.28	-0.0200987
3071.56	0.135232
3072.84	0.167324
3074.13	-0.032537
3075.41	-0.232841
3076.69	0.31376
3077.97	-0.185013
3079.25	0.117885
3080.53	-0.243028
3081.81	0.238194
3083.09	-0.0257859
3084.37	-0.126544
3085.64	-0.0915632
3086.92	0.133169
3088.2	0.0316982
3089.48	0.0383573
3090.76	0.0990005
3092.04	-0.206749
3093.31	0.0845518
3094.59	0.362401
3095.87	-0.213821
3097.14	-0.0170598
3098.42	0.0847301
3099.7	0.0915542
3100.97	0.0576987
3102.25	-0.179201
3103.53	-0.131449
3104.8	-0.0562797
3106.08	0.100586
3107.35	0.285148
3108.63	0.091538
3109.9	-0.182578
3111.18	-0.0770268
3112.45	-0.146955
3113.73	-0.0946732
3115	0.0932288
3116.27	0.0233126
3117.55	0.00704527
3118.82	0.13928
3120.09	-0.0953956
3121.37	0.198186
3122.64	-0.118646
3123.91	0.214892
3125.18	0.128554
3126.45	0.0832424
3127.73	0.227788
3129	0.0209885
3130.27	0.0714788
3131.54	0.135557
3132.81	0.307629
3134.08	0.182199
3135.35	0.313049
3136.62	0.429878
3137.89	0.155267
3139.16	0.325376
3140.43	0.158648
3141.7	-0.101855
3142.97	0.283259
3144.24	0.305634
3145.51	0.22111
3146.78	0.257874
3148.04	0.429048
3149.31	0.372848
