200.423	0.611075
202.238	0.624574
204.052	0.639224
205.868	0.63061
207.682	-0.0340385
209.495	0.662337
211.308	0.968437
213.12	0.544761
214.935	0.557249
216.746	0.593422
218.558	0.556997
220.369	0.182447
222.18	0.438231
223.992	0.452942
225.802	-0.135902
227.612	0.459577
229.421	0.957676
231.23	0.392887
233.039	0.383225
234.849	0.880355
236.657	-0.0920076
238.465	0.432392
240.272	-0.149529
242.079	0.500213
243.885	0.355804
245.691	0.452651
247.497	0.0170031
249.305	0.955065
251.11	0.272359
252.915	0.359663
254.719	0.445205
256.523	0.192718
258.327	-0.299704
260.13	0.775768
261.933	0.383361
263.736	-0.127789
265.538	0.422193
267.34	0.466694
269.141	-0.067565
270.943	-0.482185
272.744	-0.41568
274.544	0.0112295
276.344	-0.0696707
278.144	0.546599
279.944	0.317414
281.743	0.230954
283.542	0.38333
285.34	0.269763
287.138	0.875708
288.936	0.569313
290.733	0.408004
292.53	0.60732
294.327	0.0664263
296.123	0.14922
297.919	-0.268858
299.715	0.150091
301.508	0.783602
303.303	0.699618
305.098	0.0417566
306.892	0.0992308
308.686	-0.224979
310.479	0.452356
312.273	0.0347204
314.065	0.523773
315.858	0.538368
317.648	0.364258
319.44	0.215461
321.231	0.0915518
323.022	-0.150926
324.813	-0.178487
326.604	0.223837
328.392	-0.281439
330.181	0.216159
331.971	-0.123927
333.76	0.204059
335.548	0.0994482
337.335	-0.0312862
339.123	-0.044323
340.91	0.395546
342.698	-0.265332
344.483	-0.256678
346.269	-0.00871468
348.055	0.430788
349.841	0.0589228
351.625	0.164624
353.41	0.150478
355.195	0.0876493
356.977	-0.119443
358.762	-0.232237
360.545	-0.155447
362.329	0.420099
364.11	-0.00464439
365.893	0.378389
367.675	0.332746
369.455	0.0492353
371.237	-0.139766
373.017	-0.0214367
374.798	0.21443
376.578	0.733085
378.357	-0.045784
380.137	-0.162594
381.917	0.192659
383.694	0.0311508
385.473	-0.0113621
387.249	0.370301
389.028	0.0950699
390.806	0.149748
392.581	0.815801
394.359	0.637033
396.134	-0.128469
397.91	-0.14236
399.684	0.1959
401.46	0.22845
403.234	0.683173
405.009	0.667409
406.784	0.110811
408.557	0.774665
410.331	0.0999737
412.103	0.106163
413.876	-0.00456905
415.647	0.143487
417.42	0.151543
419.191	0.324493
420.961	0.427349
422.733	-0.643674
424.502	0.632055
426.273	0.240191
428.042	0.739584
429.812	0.299509
431.58	0.188067
433.35	-0.0873384
435.118	0.341674
436.885	0.160475
438.653	-0.60807
440.42	0.851427
442.188	0.0797701
443.954	-0.130602
445.719	0.45402
447.486	-0.0869598
449.251	0.611912
451.015	0.398452
452.781	-0.117788
454.545	-0.236433
456.308	-0.587968
458.073	-0.356871
459.836	0.502217
461.598	0.291006
463.362	0.267482
465.124	0.316
466.885	-0.0741835
468.648	-0.345721
470.408	0.128436
472.169	-0.164144
473.929	0.101058
475.69	0.0853586
477.45	-0.0488997
479.208	-0.0917578
480.967	0.0274744
482.727	0.146798
484.485	-0.198609
486.243	0.203148
488	-0.0220461
489.759	0.570797
491.515	0.465296
493.272	-0.177094
495.028	0.582716
496.783	0.64163
498.54	0.723815
500.295	0.735334
502.05	-0.427291
503.804	0.380439
505.558	0.412587
507.311	0.537498
509.064	0.613956
510.819	0.477098
512.572	0.621014
514.324	0.363428
516.076	0.339829
517.827	0.19748
519.578	-0.298343
521.329	0.474373
523.08	0.142092
524.83	0.302847
526.58	0.81529
528.329	0.295575
530.08	0.198118
531.829	0.428294
533.578	0.493581
535.326	-0.0505066
537.074	0.853898
538.821	0.0975933
540.568	0.414496
542.315	0.310603
544.062	0.276372
545.808	0.242183
547.554	0.324287
549.299	0.267349
551.044	0.25707
552.789	-0.0074482
554.533	0.375765
556.278	0.366036
558.019	0.379776
559.763	0.0714188
561.506	0.523787
563.249	0.30895
564.991	-0.0429049
566.733	0.387323
568.475	0.427538
570.217	0.445806
571.958	0.39659
573.699	0.211372
575.439	0.601391
577.177	-0.154115
578.917	0.170056
580.656	-0.44639
582.396	0.706048
584.134	0.042901
585.873	0.160193
587.609	-0.298738
589.347	-0.0457335
591.084	0.321472
592.822	-0.577254
594.558	0.663559
596.295	0.178857
598.029	-0.167817
599.765	0.037343
601.5	0.126688
603.235	-0.0151672
604.968	0.370457
606.703	0.317882
608.437	0.218625
610.171	0.0734339
611.902	0.0664759
613.635	-0.467077
615.368	0.260966
617.099	0.415901
618.831	0.364119
620.563	0.151118
622.294	0.143063
624.024	0.637106
625.755	0.582161
627.485	0.436994
629.213	0.179771
630.943	0.426918
632.673	0.265316
634.4	0.424262
636.129	0.354725
637.855	0.306383
639.584	0.323947
641.312	-0.0719118
643.037	-0.0364952
644.764	0.384703
646.491	0.23669
648.216	0.317989
649.942	0.379455
651.666	-0.146176
653.392	-0.0319719
655.115	-0.665204
656.84	0.569596
658.563	0.00717163
660.287	-0.00916004
662.011	0.224261
663.732	-0.32112
665.456	-0.000490189
667.177	0.455765
668.899	0.385384
670.62	0.612976
672.342	-0.30167
674.061	0.616923
675.781	0.324252
677.502	0.261701
679.22	-0.466866
680.941	0.319576
682.659	0.461482
684.379	0.0260429
686.096	0.831829
687.815	0.853376
689.532	0.64349
691.248	0.617129
692.966	0.198565
694.682	0.97703
696.4	0.510776
698.115	0.91839
699.829	1.09434
701.546	0.440987
703.26	0.499983
704.974	0.0069952
706.689	0.432226
708.402	0.604157
710.115	0.844177
711.83	0.579758
713.542	0.269759
715.254	1.35413
716.967	0.746903
718.679	0.916459
720.39	1.24543
722.102	0.367058
723.812	0.923671
725.522	1.41102
727.232	1.05685
728.943	0.952484
730.652	0.734533
732.361	0.992246
734.069	1.33973
735.779	1.48313
737.487	1.55888
739.194	1.04862
740.901	0.968487
742.608	1.09238
744.316	0.834727
746.022	1.02878
747.728	0.841606
749.433	0.565845
751.138	0.831158
752.843	1.07523
754.549	0.848265
756.254	0.802643
757.957	0.780969
759.661	0.873305
761.364	0.944309
763.067	0.700066
764.769	1.2681
766.471	1.02244
768.175	1.20426
769.877	1.29366
771.578	0.86095
773.279	1.3766
774.98	0.715923
776.68	1.16369
778.38	1.31875
780.079	1.18133
781.779	1.49741
783.478	1.67809
785.176	1.13343
786.875	1.49189
788.573	1.19088
790.27	2.06314
791.968	0.897287
793.665	1.56087
795.361	1.41079
797.058	1.44214
798.754	2.01555
800.45	1.8248
802.145	1.7257
803.84	1.69486
805.535	1.66391
807.23	0.935629
808.922	1.08284
810.616	0.847237
812.309	1.7323
814.002	1.83117
815.695	0.989378
817.388	1.17787
819.08	2.05893
820.772	1.35322
822.464	1.22914
824.153	1.52965
825.844	0.627827
827.535	1.26573
829.225	1.37138
830.915	1.79177
832.605	1.54682
834.292	1.59354
835.981	1.55213
837.67	1.42125
839.359	1.1998
841.047	1.46807
842.732	1.13194
844.42	1.62198
846.107	1.1294
847.794	1.08535
849.479	0.99881
851.165	0.892102
852.851	0.899091
854.534	1.06406
856.22	0.892321
857.905	1.19138
859.589	1.06184
861.272	1.13304
862.956	0.999995
864.639	0.978285
866.321	0.640062
868.004	1.02262
869.687	0.638094
871.367	0.659158
873.049	1.31174
874.731	0.813668
876.41	1.01504
878.092	0.494245
879.771	0.537545
881.451	0.535375
883.131	-0.00925255
884.809	1.40913
886.489	0.929924
888.166	0.562296
889.845	1.00533
891.522	0.792889
893.2	0.30922
894.878	0.95031
896.554	0.959795
898.231	0.698803
899.906	0.751548
901.583	1.00503
903.258	0.876959
904.934	1.26301
906.608	0.822458
908.283	0.985491
909.956	0.614535
911.631	0.979333
913.304	0.566217
914.976	0.598313
916.65	0.741305
918.322	1.01696
919.995	0.760779
921.666	0.262255
923.339	0.495007
925.009	1.03819
926.679	0.633114
928.351	0.428601
930.021	0.313631
931.692	0.772985
933.361	1.12217
935.029	0.853827
936.699	0.475666
938.367	0.385051
940.035	0.405816
941.704	0.979211
943.371	0.648882
945.038	0.825915
946.706	0.626698
948.372	0.447838
950.038	0.796919
951.705	0.968123
953.37	0.499653
955.035	0.0769205
956.7	0.803373
958.366	0.871414
960.03	0.633207
961.693	0.175297
963.357	0.446109
965.021	0.516703
966.684	0.120276
968.346	0.252202
970.008	0.625542
971.67	0.931542
973.334	0.684958
974.995	0.550352
976.655	0.94823
978.316	0.949533
979.976	0.840871
981.638	0.7318
983.297	0.355763
984.957	0.57561
986.616	0.837708
988.274	0.124458
989.932	0.759563
991.59	0.244141
993.248	0.126714
994.907	0.473059
996.565	0.444074
998.221	0.679694
999.878	-0.297147
1001.53	0.664803
1003.19	0.106606
1004.85	0.318579
1006.5	0.178527
1008.16	0.25838
1009.81	0.470081
1011.46	1.40559
1013.12	1.31032
1014.77	0.49274
1016.43	0.311322
1018.08	-0.0225897
1019.73	0.103821
1021.38	0.537166
1023.04	0.512291
1024.69	0.7506
1026.34	1.66684
1027.99	0.856794
1029.64	1.18237
1031.29	1.00427
1032.94	2.00356
1034.59	1.56007
1036.24	2.05321
1037.89	3.2418
1039.54	3.90595
1041.19	5.57041
1042.84	5.51712
1044.48	6.0095
1046.13	6.98213
1047.78	6.19813
1049.42	5.95957
1051.07	4.96259
1052.72	3.81432
1054.36	3.49177
1056.01	3.1256
1057.66	1.78068
1059.3	2.15241
1060.94	1.74073
1062.59	1.4804
1064.23	1.34959
1065.88	0.956861
1067.52	0.606691
1069.16	1.0162
1070.81	-0.247437
1072.45	0.638864
1074.09	0.526759
1075.73	0.0252695
1077.38	0.544517
1079.02	-0.0627956
1080.66	0.067934
1082.3	0.0468874
1083.94	0.675527
1085.58	0.02349
1087.22	0.345078
1088.86	-0.0285225
1090.5	0.202621
1092.13	-7.24792e-005
1093.77	0.0562954
1095.41	0.263723
1097.05	0.169741
1098.68	0.24949
1100.32	0.395334
1101.96	0.349176
1103.6	0.283218
1105.23	0.0249481
1106.87	0.0683947
1108.5	0.0470676
1110.14	0.712787
1111.77	0.430926
1113.41	0.255185
1115.04	0.0355282
1116.67	1.10276
1118.31	0.517898
1119.94	0.191545
1121.58	0.337566
1123.21	0.634277
1124.84	1.03868
1126.47	0.652317
1128.1	0.437982
1129.73	0.823081
1131.37	0.481769
1133	0.782135
1134.63	0.633449
1136.26	0.890275
1137.89	0.355383
1139.52	0.268235
1141.14	-0.502983
1142.77	-0.377682
1144.4	-0.0817747
1146.03	0.42765
1147.66	0.404811
1149.29	0.851531
1150.91	-0.0220823
1152.54	0.0630112
1154.17	-0.00126934
1155.79	0.0618143
1157.42	0.231115
1159.04	0.358099
1160.67	-0.237185
1162.3	0.0404787
1163.92	0.148942
1165.55	0.27916
1167.17	0.451679
1168.79	0.240513
1170.42	-0.120916
1172.04	-0.292638
1173.66	0.489653
1175.28	0.548342
1176.91	0.415622
1178.53	-0.0556259
1180.15	0.0248003
1181.77	0.105941
1183.39	-0.256361
1185.01	-0.195601
1186.63	-0.0934944
1188.25	0.0281
1189.87	0.295217
1191.49	-0.0084753
1193.11	0.233834
1194.73	0.222761
1196.35	-0.0608292
1197.97	0.0550022
1199.59	-0.350708
1201.2	0.144946
1202.82	-0.297321
1204.44	0.181513
1206.05	0.390774
1207.67	0.392611
1209.29	0.165285
1210.9	0.375284
1212.52	0.250011
1214.13	0.206146
1215.75	0.82655
1217.36	-0.0328417
1218.97	1.12424
1220.59	0.576541
1222.2	-0.0938396
1223.82	0.149837
1225.43	0.187456
1227.04	0.0194988
1228.65	-0.312473
1230.26	0.556139
1231.88	0.495186
1233.49	0.414728
1235.1	-0.139913
1236.71	0.608658
1238.32	-0.0887232
1239.93	0.372194
1241.54	1.16447
1243.15	0.177612
1244.76	1.07263
1246.37	0.207944
1247.97	0.521782
1249.58	1.10384
1251.19	0.98206
1252.8	0.467505
1254.41	0.263953
1256.01	0.433698
1257.62	0.99768
1259.23	0.755994
1260.83	0.659925
1262.44	1.04053
1264.04	0.924273
1265.65	0.84901
1267.25	0.441347
1268.86	0.468019
1270.46	0.9499
1272.07	0.93319
1273.67	0.977685
1275.27	0.627376
1276.88	0.898026
1278.48	1.16772
1280.08	0.898227
1281.68	0.83564
1283.28	0.566329
1284.89	0.918118
1286.49	0.69166
1288.09	0.631646
1289.69	0.779167
1291.29	1.6917
1292.89	1.32297
1294.49	1.63534
1296.09	1.32671
1297.69	2.02824
1299.29	2.10837
1300.88	3.8567
1302.48	3.2731
1304.08	2.31897
1305.68	1.42758
1307.27	1.07145
1308.87	1.18766
1310.47	0.832262
1312.06	0.989772
1313.66	0.902242
1315.25	1.44926
1316.85	0.852939
1318.44	1.11497
1320.04	1.35613
1321.63	1.1479
1323.23	1.44732
1324.82	1.72405
1326.41	1.36937
1328.01	1.84624
1329.6	1.79598
1331.19	1.36316
1332.78	0.994042
1334.38	1.19302
1335.97	1.35299
1337.56	0.948632
1339.15	1.22946
1340.74	0.783236
1342.33	1.72425
1343.92	1.19399
1345.51	0.603633
1347.1	1.03741
1348.69	1.09122
1350.28	1.08725
1351.87	1.34577
1353.46	1.02628
1355.04	0.70829
1356.63	1.60975
1358.22	1.07202
1359.81	0.354021
1361.39	0.773344
1362.98	0.373575
1364.57	0.771369
1366.15	0.51141
1367.74	0.790136
1369.32	0.810964
1370.91	0.653999
1372.49	0.97594
1374.07	0.562699
1375.66	0.0904026
1377.24	0.254936
1378.83	0.896612
1380.41	0.622012
1381.99	0.704365
1383.57	0.884874
1385.16	0.885391
1386.74	1.56094
1388.32	1.0048
1389.9	0.826918
1391.48	0.610333
1393.06	0.791374
1394.64	0.437197
1396.22	0.320975
1397.8	0.402418
1399.38	-0.170991
1400.96	0.681261
1402.54	1.29454
1404.12	0.799222
1405.7	0.482867
1407.28	1.17561
1408.85	1.29566
1410.43	0.744573
1412.01	0.805931
1413.58	0.906182
1415.16	0.571412
1416.74	1.14332
1418.31	0.649907
1419.89	1.20136
1421.46	1.37918
1423.04	0.928511
1424.61	1.44402
1426.19	1.76391
1427.76	1.00183
1429.33	1.40077
1430.91	1.66103
1432.48	1.60522
1434.05	2.05994
1435.63	1.56991
1437.2	2.35831
1438.77	2.3215
1440.34	1.18517
1441.91	1.93662
1443.49	1.94196
1445.05	2.06562
1446.63	1.875
1448.2	1.33066
1449.77	1.61219
1451.34	2.66108
1452.91	2.9046
1454.47	1.92903
1456.04	1.9761
1457.61	1.74706
1459.18	1.61511
1460.75	1.59955
1462.31	2.0543
1463.88	2.21206
1465.45	2.40781
1467.01	1.97435
1468.58	2.11106
1470.15	1.95419
1471.71	1.6809
1473.28	0.898907
1474.84	1.6083
1476.41	1.12187
1477.97	1.32184
1479.54	1.77652
1481.1	0.957009
1482.66	1.41143
1484.23	1.96355
1485.79	1.51603
1487.35	1.73383
1488.91	1.40199
1490.48	1.92955
1492.04	1.55477
1493.6	1.64719
1495.16	1.8351
1496.72	1.37841
1498.28	1.58424
1499.84	0.95438
1501.4	1.16179
1502.96	1.27296
1504.52	0.667917
1506.08	1.16764
1507.64	1.06631
1509.2	0.925566
1510.76	0.70683
1512.31	0.372165
1513.87	0.576903
1515.43	0.762028
1516.99	0.352111
1518.54	0.653369
1520.1	0.379885
1521.66	0.451603
1523.21	0.255288
1524.77	0.765111
1526.32	0.185894
1527.88	0.121495
1529.43	0.684237
1530.99	0.561811
1532.54	0.55394
1534.09	0.54691
1535.65	0.143641
1537.2	0.592356
1538.75	0.380157
1540.31	0.319577
1541.86	0.805527
1543.41	0.951682
1544.96	1.05975
1546.51	0.754177
1548.06	0.167626
1549.62	0.875554
1551.17	0.83322
1552.72	0.286359
1554.27	0.283336
1555.82	0.991238
1557.36	0.859912
1558.91	0.413329
1560.46	0.323149
1562.01	0.794044
1563.56	1.04213
1565.11	0.898985
1566.66	0.662598
1568.2	0.855201
1569.75	0.804832
1571.3	0.772763
1572.84	0.68442
1574.39	1.21197
1575.93	0.395462
1577.48	0.88587
1579.02	0.704591
1580.57	0.953284
1582.11	0.567787
1583.66	0.537794
1585.2	0.826129
1586.75	0.946869
1588.29	0.675055
1589.83	0.94547
1591.38	0.691564
1592.92	0.830273
1594.46	1.04371
1596	0.994998
1597.54	1.09655
1599.09	1.12379
1600.63	0.889076
1602.17	1.06746
1603.71	1.20845
1605.25	1.31139
1606.79	1.58227
1608.33	0.761237
1609.87	1.47923
1611.41	1.16134
1612.95	1.255
1614.48	0.559038
1616.02	1.36402
1617.56	0.800068
1619.1	1.75529
1620.64	0.800893
1622.17	0.896825
1623.71	0.750103
1625.25	1.31477
1626.78	0.83051
1628.32	0.869194
1629.86	0.794383
1631.39	1.03641
1632.92	1.3338
1634.46	1.03374
1635.99	1.14521
1637.53	1.01497
1639.06	1.07184
1640.59	0.830523
1642.13	0.886918
1643.66	0.960902
1645.19	1.35005
1646.73	1.31011
1648.26	1.56722
1649.79	1.4715
1651.32	1.07991
1652.85	1.33905
1654.38	1.48776
1655.92	1.76674
1657.45	1.04493
1658.98	1.54535
1660.51	1.2666
1662.04	1.19032
1663.57	1.29793
1665.09	1.58951
1666.62	1.08735
1668.15	0.605341
1669.68	1.17586
1671.21	0.604855
1672.73	0.919351
1674.26	1.73131
1675.79	1.25392
1677.31	1.05215
1678.84	0.591999
1680.37	0.664563
1681.89	0.754734
1683.42	0.844471
1684.94	0.86074
1686.47	1.00566
1687.99	0.0877609
1689.52	0.691659
1691.04	0.306432
1692.57	0.47067
1694.09	0.433477
1695.61	0.451015
1697.14	0.797197
1698.66	0.229606
1700.18	0.228066
1701.7	0.463163
1703.22	0.150684
1704.75	0.0202894
1706.27	-0.346823
1707.79	0.558991
1709.31	0.427835
1710.83	0.169926
1712.35	-0.214324
1713.87	-0.0723963
1715.39	0.232272
1716.91	0.319328
1718.43	0.514546
1719.95	0.185694
1721.46	0.146213
1722.98	0.377691
1724.5	0.303432
1726.02	-0.039712
1727.53	0.374594
1729.05	-0.290215
1730.57	0.108371
1732.08	0.0233011
1733.6	0.0951262
1735.12	0.195757
1736.63	0.222228
1738.15	0.0356464
1739.66	0.569811
1741.18	0.0641069
1742.69	-0.241306
1744.21	0.00639534
1745.72	0.290469
1747.23	0.0477533
1748.74	0.41336
1750.26	0.0132923
1751.77	0.0918655
1753.28	0.173874
1754.8	-0.0556364
1756.31	0.0734844
1757.82	-0.113234
1759.33	0.190464
1760.84	0.105983
1762.35	-0.0379868
1763.86	0.0719423
1765.37	0.218357
1766.88	0.171155
1768.39	0.0133944
1769.9	0.124387
1771.41	-0.160641
1772.92	-0.21971
1774.43	0.0403461
1775.93	-0.0370884
1777.44	0.216311
1778.95	0.387707
1780.46	0.41127
1781.96	0.163356
1783.47	-0.131519
1784.98	0.225918
1786.48	0.208977
1787.99	0.310362
1789.49	-0.0374503
1791	0.213027
1792.5	-0.20786
1794.01	-0.0674405
1795.51	0.0526085
1797.02	0.214725
1798.52	0.110801
1800.03	0.18982
1801.53	0.241145
1803.03	0.0558763
1804.53	0.228597
1806.04	0.208401
1807.54	0.184494
1809.04	0.205806
1810.54	-0.0508833
1812.04	0.0660086
1813.54	0.130545
1815.05	0.306433
1816.55	0.20083
1818.05	0.206163
1819.55	0.27916
1821.05	0.0555086
1822.55	0.042388
1824.05	0.260931
1825.54	-0.0152516
1827.04	0.224871
1828.54	0.297766
1830.04	0.100451
1831.54	0.0190654
1833.03	-0.0535641
1834.53	-0.0245452
1836.03	0.00850439
1837.52	-0.260569
1839.02	0.212468
1840.52	0.107695
1842.01	0.258265
1843.51	0.0867133
1845	0.267565
1846.5	0.0679445
1847.99	-0.0839577
1849.49	0.16632
1850.98	-0.0526657
1852.47	0.222129
1853.97	0.364681
1855.46	0.277905
1856.95	-0.124303
1858.45	-0.0636644
1859.94	0.271924
1861.43	0.0930729
1862.92	-0.00656748
1864.41	0.203393
1865.91	0.202554
1867.4	-0.231541
1868.89	0.172274
1870.38	0.307352
1871.87	0.151441
1873.36	-0.0258751
1874.85	0.0532794
1876.34	0.00103712
1877.83	-0.0208664
1879.31	-0.0819731
1880.8	-0.0541377
1882.29	-0.0141191
1882.56	-0.00941086
1884.05	0.00778198
1885.54	-0.115113
1887.04	-0.151536
1888.53	0.229438
1890.03	0.175229
1891.52	0.0523624
1893.01	0.017868
1894.5	0.0718436
1895.99	0.127124
1897.49	0.478785
1898.98	0.221633
1900.47	0.172276
1901.96	-0.0524354
1903.45	0.191003
1904.94	0.346113
1906.43	0.309274
1907.92	0.098804
1909.41	0.114702
1910.9	0.200787
1912.39	0.33963
1913.88	0.0106206
1915.37	-0.0407534
1916.86	0.237003
1918.35	0.167517
1919.84	0.340256
1921.32	0.28764
1922.81	-0.284058
1924.3	0.0281634
1925.78	-0.281952
1927.27	-0.0372148
1928.76	0.138834
1930.24	0.332196
1931.73	0.317065
1933.21	-0.0110073
1934.7	-0.063467
1936.18	-0.29028
1937.67	-0.327601
1939.15	0.118547
1940.64	-0.0572414
1942.12	-0.197601
1943.6	0.0597816
1945.09	0.42115
1946.57	0.282679
1948.05	0.574913
1949.54	0.211658
1951.02	0.192223
1952.5	0.137603
1953.98	0.0997639
1955.46	0.268115
1956.94	0.0587893
1958.42	-0.355655
1959.91	0.0371604
1961.39	-0.238656
1962.87	0.411466
1964.34	0.135717
1965.82	-0.140222
1967.3	-0.142604
1968.78	-0.0428991
1970.26	0.124551
1971.74	0.189063
1973.22	0.475307
1974.7	0.113115
1976.17	0.467417
1977.65	-0.149452
1979.13	0.357964
1980.6	0.25233
1982.08	0.0786901
1983.56	0.261739
1985.03	-0.0819364
1986.51	-0.136979
1987.98	0.0622463
1989.46	0.26144
1990.93	-0.012898
1992.41	0.305839
1993.88	0.422258
1995.36	-0.339451
1996.83	-0.002213
1998.3	0.115223
1999.78	-0.0379081
2001.25	-0.157675
2002.72	-0.2946
2004.2	0.0910897
2005.67	0.038599
2007.14	0.138367
2008.61	0.289387
2010.08	0.222217
2011.55	-0.0128188
2013.02	0.206679
2014.49	0.122831
2015.97	-0.331765
2017.43	0.28954
2018.9	0.321266
2020.37	0.167667
2021.84	0.0309014
2023.31	0.196681
2024.78	0.329437
2026.25	0.379262
2027.72	0.329692
2029.19	0.0801435
2030.65	-0.0173759
2032.12	0.15436
2033.59	0.360177
2035.05	0.347803
2036.52	0.234293
2037.98	0.137059
2039.45	0.257937
2040.92	0.126661
2042.38	0.231056
2043.85	0.218406
2045.31	-0.163679
2046.78	0.430964
2048.24	-0.22005
2049.71	0.189773
2051.17	0.447352
2052.63	-0.0889072
2054.1	0.418841
2055.56	0.183059
2057.02	0.266516
2058.48	0.0459361
2059.95	-0.225118
2061.41	-0.142046
2062.87	0.311953
2064.33	0.211227
2065.79	0.548922
2067.25	-0.257053
2068.71	0.25015
2070.17	-0.0334296
2071.63	0.373214
2073.09	0.544112
2074.55	0.344351
2076.01	0.093749
2077.47	0.19647
2078.93	-0.526297
2080.39	0.55238
2081.85	0.434961
2083.3	0.704152
2084.76	0.299441
2086.22	0.230797
2087.68	0.363454
2089.13	0.512439
2090.59	0.67789
2092.05	0.389822
2093.5	0.320102
2094.96	-0.00131226
2096.41	0.297349
2097.87	0.494571
2099.32	0.389729
2100.78	0.201169
2102.23	0.614639
2103.69	0.29352
2105.14	0.74159
2106.59	0.256233
2108.05	0.522597
2109.5	0.622362
2110.95	0.52155
2112.41	0.886215
2113.86	0.749394
2115.31	0.67791
2116.76	0.838503
2118.21	0.185234
2119.67	0.762347
2121.12	0.925728
2122.57	0.659519
2124.02	0.494178
2125.47	1.09215
2126.92	0.628667
2128.37	0.495978
2129.82	1.04156
2131.27	0.856789
2132.71	0.93635
2134.16	0.916548
2135.61	0.947081
2137.06	1.09461
2138.51	0.962793
2139.95	0.898779
2141.4	0.604757
2142.85	0.923417
2144.29	1.16017
2145.74	1.14898
2147.19	0.92226
2148.63	0.959817
2150.08	0.814394
2151.52	1.21483
2152.97	0.852237
2154.42	1.23452
2155.86	0.970241
2157.3	1.30243
2158.75	1.80088
2160.19	0.925625
2161.64	1.60926
2163.08	1.26722
2164.52	1.44046
2165.96	1.08342
2167.41	1.37374
2168.85	1.16473
2170.29	1.56929
2171.73	1.34
2173.17	1.45824
2174.61	1.64175
2176.06	1.44218
2177.5	1.49228
2178.94	1.36019
2180.38	1.24563
2181.82	1.89669
2183.26	0.952007
2184.7	1.17155
2186.14	1.19161
2187.57	0.945459
2189.01	1.2651
2190.45	1.53491
2191.89	1.4383
2193.33	1.70727
2194.76	1.09258
2196.2	1.35865
2197.64	1.17351
2199.08	1.20318
2200.51	1.04913
2201.95	0.71257
2203.38	1.27294
2204.82	1.2367
2206.25	1.30086
2207.69	1.39858
2209.12	0.899907
2210.56	0.765128
2211.99	0.877746
2213.43	0.989563
2214.86	1.26629
2216.3	0.882948
2217.73	0.666039
2219.16	0.862658
2220.59	0.697199
2222.03	0.53194
2223.46	0.481508
2224.89	0.479355
2226.32	0.722581
2227.75	0.585867
2229.19	0.678244
2230.62	0.654923
2232.05	0.221828
2233.48	0.182764
2234.91	0.553179
2236.34	0.482804
2237.77	0.20167
2239.2	0.672977
2240.63	0.232197
2242.06	0.412839
2243.48	0.431397
2244.91	0.401313
2246.34	0.45222
2247.77	0.599628
2249.2	0.647282
2250.62	0.448602
2252.05	0.362688
2253.48	0.520157
2254.9	0.417658
2256.33	0.397737
2257.76	0.347377
2259.18	0.266987
2260.61	0.0105329
2262.03	0.0805211
2263.46	0.346753
2264.88	0.467265
2266.31	0.538823
2267.73	-0.0572252
2269.16	0.631166
2270.58	0.0169969
2272	0.493062
2273.43	0.578323
2274.85	0.533383
2276.27	0.0975375
2277.69	0.47653
2279.12	0.660147
2280.54	0.240459
2281.96	0.244535
2283.38	0.134338
2284.8	0.12204
2286.22	0.387408
2287.64	0.114415
2289.07	0.0376101
2290.49	0.0264306
2291.91	0.227982
2293.32	0.0863624
2294.74	0.140944
2296.16	0.130027
2297.58	0.200938
2299	-0.00655079
2300.42	0.507098
2301.84	-0.0444007
2303.26	0.25691
2304.67	-0.0651054
2306.09	0.121608
2307.51	0.0453253
2308.92	-0.376672
2310.34	0.203649
2311.76	0.356353
2313.17	0.0977755
2314.59	0.201479
2316	0.338807
2317.42	0.0485578
2318.83	0.533137
2320.25	0.176861
2321.66	0.132842
2323.08	-0.0447774
2324.49	0.303822
2325.91	0.0894899
2327.32	0.66549
2328.73	0.943578
2330.15	0.249751
2331.56	0.00188541
2332.97	0.00198364
2334.38	0.117943
2335.79	0.0366411
2337.21	0.251038
2338.62	0.0534868
2340.03	0.0523624
2341.44	0.16543
2342.85	0.277943
2344.26	-0.00329924
2345.67	0.224112
2347.08	-0.0726452
2348.49	0.0238342
2349.9	-0.305429
2351.31	0.247849
2352.72	0.0971541
2354.13	0.141759
2355.53	0.0390234
2356.94	-0.0149155
2358.35	-0.0524921
2359.76	-0.0898805
2361.17	0.181252
2362.57	0.257251
2363.98	0.268219
2365.39	0.230594
2366.79	-0.0653634
2368.2	0.350142
2369.6	0.0237455
2371.01	0.198634
2372.42	0.229411
2373.82	-0.0449634
2375.22	-0.012969
2376.63	-0.0295758
2378.03	0.0816031
2379.44	0.0146389
2380.84	-0.0374994
2382.25	-0.074626
2383.65	-0.016273
2385.05	0.281679
2386.45	0.131933
2387.86	-0.0646095
2389.26	0.122851
2390.66	0.183577
2392.06	-0.0732212
2393.46	0.132526
2394.87	-0.0429492
2396.27	0.259229
2397.67	0.148511
2399.07	0.213111
2400.47	0.119235
2401.87	-0.212601
2403.27	0.0432982
2404.67	0.0765185
2406.07	0.236005
2407.47	0.0138073
2408.86	0.0607891
2410.26	0.139169
2411.66	0.138444
2413.06	-0.0358047
2414.46	0.186895
2415.85	0.157434
2417.25	-0.298388
2418.65	0.148934
2420.05	0.45418
2421.44	0.331747
2422.84	0.399096
2424.23	0.117651
2425.63	0.279898
2427.03	0.15735
2428.42	0.146429
2429.82	0.215578
2431.21	0.348833
2432.6	0.00607777
2434	0.424925
2435.39	-0.2054
2436.79	0.179732
2438.18	-0.0877457
2439.57	0.40629
2440.97	-0.0852327
2442.36	-0.259364
2443.75	0.026587
2445.14	-0.0843592
2446.54	0.13761
2447.93	0.169112
2449.32	0.0738597
2450.71	-0.211116
2452.1	-0.0364513
2453.49	0.0121412
2454.88	-0.223363
2456.27	-0.18935
2457.66	0.303624
2459.05	-0.263314
2460.44	-0.466835
2461.83	0.372617
2463.22	0.215199
2464.61	0.0416241
2466	-0.0846653
2467.39	0.341569
2468.77	0.120482
2470.16	-0.132103
2471.55	0.0407925
2472.94	0.134185
2474.32	0.100904
2475.71	0.287371
2477.1	0.143185
2478.48	0.0306096
2479.87	-0.238561
2481.25	0.527671
2482.64	-0.195728
2484.02	-0.119959
2485.41	-0.0450158
2486.8	0.325714
2488.18	0.148564
2489.56	0.189434
2490.95	-0.00336027
2492.33	-0.0708866
2493.72	-0.1374
2495.1	0.0764937
2496.48	0.0275326
2497.86	-0.0361629
2499.25	0.163569
2500.63	-0.00845957
2502.01	0.437335
2503.39	-0.245601
2504.77	-0.0486941
2506.16	0.17813
2507.54	-0.0882239
2508.92	-0.261635
2510.3	-0.00434494
2511.68	0.0841794
2513.06	-0.0874085
2514.44	0.201458
2515.82	0.291645
2517.2	0.229391
2518.58	-0.291
2519.95	0.258934
2521.33	0.36517
2522.71	0.226528
2524.09	0.041636
2525.47	0.237459
2526.84	-0.313379
2528.22	0.202065
2529.6	-0.0578027
2530.98	0.0942259
2532.35	-0.0867796
2533.73	0.0372019
2535.11	-0.0661559
2536.48	-0.215127
2537.86	-0.0303893
2539.23	0.107977
2540.61	-0.179499
2541.98	0.0186214
2543.36	0.0802879
2544.73	0.157778
2546.1	0.130068
2547.48	0.164022
2548.85	0.137987
2550.23	0.248548
2551.6	-0.0358248
2552.97	-0.260242
2554.34	-0.0301743
2555.72	0.153615
2557.09	0.124537
2558.46	-0.0107617
2559.83	-0.0851326
2561.2	-0.204522
2562.58	0.17672
2563.95	-0.259936
2565.32	-0.0597849
2566.69	0.276965
2568.06	0.0682278
2569.43	0.208072
2570.8	-0.212868
2572.17	0.0937514
2573.54	-0.311981
2574.91	-0.2629
2576.27	0.422978
2577.64	0.108201
2579.01	-0.146144
2580.38	0.190599
2581.75	0.163103
2583.11	0.271772
2584.48	-0.195839
2585.85	0.0490527
2587.21	-0.0697694
2588.58	0.281399
2589.95	0.284061
2591.31	0.0896225
2592.68	0.137283
2594.04	0.0782485
2595.41	0.0790176
2596.78	0.0789795
2598.14	0.108581
2599.51	0.0925069
2600.87	-0.255872
2602.23	-0.150425
2603.6	0.0309124
2604.96	0.182362
2606.32	0.198096
2607.69	0.123088
2609.05	0.213261
2610.41	-0.104299
2611.77	-0.0762682
2613.14	0.116221
2614.5	0.0223498
2615.86	0.16856
2617.22	0.209736
2618.58	0.146497
2619.94	-0.349944
2621.3	0.186648
2622.67	0.0206223
2624.03	0.362689
2625.39	0.167067
2626.75	-0.267073
2628.1	0.0889063
2629.46	0.235668
2630.82	-0.0494127
2632.18	-0.259788
2633.54	0.00546646
2634.9	0.225749
2636.26	0.297358
2637.61	0.0873113
2638.97	0.0553203
2640.33	-0.0356712
2641.69	0.43545
2643.04	-0.172295
2644.4	0.313373
2645.76	0.311481
2647.11	0.147115
2648.47	-0.0469961
2649.82	-0.00593996
2651.18	0.108021
2652.53	0.0893478
2653.89	0.0562282
2655.24	-0.0495205
2656.6	0.138672
2657.95	0.0640545
2659.31	0.48759
2660.66	0.106853
2662.01	-0.0982542
2663.37	0.353665
2664.72	-0.3779
2666.07	0.01407
2667.43	0.31763
2668.78	0.110989
2670.13	0.0358505
2671.48	-0.169614
2672.83	0.163285
2674.18	-0.171717
2675.53	-0.11404
2676.89	0.219675
2678.24	0.350616
2679.59	0.264664
2680.94	0.0635977
2682.29	-0.0205359
2683.64	-0.0312762
2684.99	0.0457325
2686.34	0.137657
2687.68	-0.205944
2689.03	0.538214
2690.38	-0.0980234
2691.73	0.120847
2693.08	-0.241906
2694.43	0.00398827
2695.77	0.206017
2697.12	0.321424
2698.47	0.0757537
2699.81	-0.12508
2701.16	-0.0639567
2702.51	0.0417633
2703.85	0.177338
2705.2	0.240943
2706.54	-0.17401
2707.89	0.121504
2709.23	0.213723
2710.58	0.131444
2711.92	0.136068
2713.27	0.300433
2714.61	0.15959
2715.96	0.469362
2717.3	0.47377
2718.64	0.0415282
2719.99	0.438217
2721.33	0.39809
2722.67	0.357561
2724.01	-0.0181274
2725.36	0.319061
2726.7	0.27751
2728.04	0.133839
2729.38	0.193743
2730.72	0.16622
2732.06	0.0659413
2733.41	0.125769
2734.75	0.37481
2736.09	0.085825
2737.43	0.044219
2738.77	0.191662
2740.11	0.193469
2741.44	0.369388
2742.78	0.152237
2744.12	0.167185
2745.46	-0.297758
2746.8	0.0360312
2748.14	0.296824
2749.48	0.0931478
2750.81	-0.0231886
2752.15	-0.00876522
2753.49	-0.414464
2754.83	-0.225765
2756.16	-0.0370841
2757.5	-0.00766611
2758.84	0.123265
2760.17	0.326797
2761.51	0.241226
2762.84	0.112638
2764.18	-0.0591063
2765.51	0.101923
2766.85	0.060041
2768.18	-0.12717
2769.52	0.393252
2770.85	0.0594478
2772.19	0.114928
2773.52	-0.147893
2774.85	0.0650706
2776.19	0.277633
2777.52	-0.0279684
2778.85	-0.0594411
2780.18	-0.00426054
2781.52	-0.0781603
2782.85	-0.0514431
2784.18	0.0325632
2785.51	0.0304556
2786.84	0.21469
2788.17	-0.0160236
2789.51	0.22624
2790.84	-0.0601845
2792.17	-0.0312881
2793.5	-0.202199
2794.83	0.270123
2796.16	0.199006
2797.48	0.0132394
2798.81	0.055634
2800.14	0.069129
2801.47	0.110936
2802.8	-0.132601
2804.13	-0.361834
2805.46	-0.220829
2806.79	0.0618911
2808.11	0.329525
2809.44	0.0563946
2810.77	0.309138
2812.09	-0.090785
2813.42	0.163043
2814.75	0.0207729
2816.07	0.106454
2817.4	0.263818
2818.73	0.038929
2820.05	0.281766
2821.38	0.46755
2822.7	0.128441
2824.03	0.157344
2825.35	0.341783
2826.67	0.200465
2828	0.512669
2829.32	0.230647
2830.65	0.373702
2831.97	0.375352
2833.29	0.631739
2834.62	0.208453
2835.94	0.393417
2837.26	0.478862
2838.58	0.45077
2839.9	1.25689
2841.23	1.18612
2842.55	1.08747
2843.87	1.27204
2845.19	1.59851
2846.51	1.61457
2847.83	1.68747
2849.15	1.68972
2850.47	1.90372
2851.79	1.49541
2853.11	1.44003
2854.43	1.3561
2855.75	1.85131
2857.07	1.54115
2858.39	1.75373
2859.71	1.98035
2861.02	1.52899
2862.34	1.82575
2863.66	1.91037
2864.98	1.93828
2866.3	1.69815
2867.61	1.93783
2868.93	1.92397
2870.25	1.95273
2871.56	1.91111
2872.88	2.20753
2874.19	2.4046
2875.51	2.47391
2876.83	2.54226
2878.14	2.62395
2879.46	2.635
2880.77	2.60415
2882.09	2.4054
2883.4	2.79753
2884.71	2.20737
2886.03	2.15138
2887.34	2.53055
2888.65	2.30582
2889.97	2.15074
2891.28	2.38772
2892.59	2.66606
2893.91	2.32765
2895.22	2.49391
2896.53	2.6047
2897.84	2.64629
2899.15	2.40886
2900.46	2.94152
2901.78	3.05481
2903.09	2.55279
2904.4	2.63838
2905.71	2.29058
2907.02	2.58662
2908.33	2.75741
2909.64	2.56512
2910.95	2.45713
2912.26	3.17494
2913.57	2.98242
2914.87	3.33479
2916.18	3.29381
2917.49	3.2656
2918.8	3.76829
2920.11	3.26355
2921.42	3.52864
2922.72	3.68274
2924.03	3.33469
2925.34	3.4488
2926.64	3.56339
2927.95	3.77587
2929.26	3.48477
2930.56	4.22777
2931.87	4.18748
2933.17	3.5739
2934.48	3.82696
2935.78	3.92634
2937.09	3.84416
2938.39	3.28701
2939.7	3.5825
2941	3.57096
2942.31	3.29455
2943.61	3.59203
2944.91	3.28952
2946.22	3.30937
2947.52	3.44161
2948.82	3.23784
2950.13	3.17306
2951.43	2.95285
2952.73	2.7452
2954.03	2.70457
2955.33	2.88764
2956.64	3.00136
2957.94	2.89268
2959.24	2.73001
2960.54	2.61131
2961.84	2.56406
2963.14	2.27878
2964.44	2.17517
2965.74	2.47781
2967.04	2.47034
2968.34	2.25098
2969.64	1.84815
2970.94	2.19049
2972.24	2.05488
2973.53	1.87723
2974.83	1.75576
2976.13	1.60562
2977.43	1.89104
2978.73	1.71056
2980.02	1.54296
2981.32	1.55745
2982.62	1.23398
2983.91	1.78267
2985.21	1.31986
2986.51	1.46259
2987.8	1.26912
2989.1	1.07635
2990.4	1.09455
2991.69	1.02806
2992.99	0.637603
2994.28	0.766261
2995.57	0.894054
2996.87	0.712356
2998.16	0.68503
2999.46	0.503607
3000.75	0.533023
3002.05	0.450691
3003.34	0.676969
3004.63	0.651037
3005.92	0.624921
3007.22	0.0804462
3008.51	0.473292
3009.8	0.68328
3011.09	0.473265
3012.39	0.20741
3013.68	0.374422
3014.97	0.290565
3016.26	0.207326
3017.55	-0.0980306
3018.84	0.223459
3020.13	0.155254
3021.42	0.211895
3022.71	-0.329349
3024	0.170364
3025.29	0.238874
3026.58	0.320948
3027.87	-0.150252
3029.16	0.292618
3030.45	0.169465
3031.73	0.0613194
3033.02	-0.101213
3034.31	0.0263891
3035.6	0.208696
3036.89	0.0727744
3038.17	0.128636
3039.46	0.141765
3040.75	-0.21734
3042.03	-0.164361
3043.32	0.244791
3044.61	-0.277282
3045.89	0.00969315
3047.18	0.0927348
3048.46	0.0817685
3049.75	0.34529
3051.03	0.0913134
3052.32	-0.230258
3053.6	0.157727
3054.89	0.258682
3056.17	-0.145772
3057.45	0.18546
3058.74	-0.0427842
3060.02	0.151145
3061.31	-0.0222836
3062.59	0.104381
3063.87	0.44948
3065.15	0.292571
3066.44	0.517373
3067.72	0.144711
3069	0.125791
3070.28	0.133877
3071.56	0.0869594
3072.84	0.283964
3074.13	0.15372
3075.41	0.240314
3076.69	0.0414176
3077.97	0.263796
3079.25	0.174718
3080.53	-0.130258
3081.81	-0.284874
3083.09	0.0768762
3084.37	0.0999975
3085.64	-0.0803971
3086.92	0.213915
3088.2	0.00554514
3089.48	0.108874
3090.76	0.0083189
3092.04	-0.268644
3093.31	-0.219843
3094.59	-0.0759172
3095.87	-0.0131898
3097.14	0.25293
3098.42	-0.050324
3099.7	0.0936255
3100.97	0.129084
3102.25	0.0156188
3103.53	-0.138184
3104.8	0.100984
3106.08	0.0970063
3107.35	-0.0686955
3108.63	0.0640731
3109.9	-0.0730786
3111.18	0.0882788
3112.45	-0.142513
3113.73	-0.0479617
3115	0.033113
3116.27	0.113933
3117.55	-0.199145
3118.82	0.178761
3120.09	0.189689
3121.37	0.132184
3122.64	0.277602
3123.91	0.0841355
3125.18	-0.0954747
3126.45	0.172032
3127.73	0.304461
3129	0.0449815
3130.27	0.272675
3131.54	0.365156
3132.81	0.335889
3134.08	0.252373
3135.35	0.371076
3136.62	0.273387
3137.89	0.485567
3139.16	0.306525
3140.43	0.450702
3141.7	0.33919
3142.97	-0.148085
3144.24	0.332405
3145.51	0.249175
3146.78	0.126373
3148.04	0.164979
3149.31	0.645798
