200.423	0.212173
202.238	0.263691
204.052	0.316523
205.868	1.02726
207.682	0.667734
209.495	0.623182
211.308	0.090683
213.12	0.0659637
214.935	0.354431
216.746	-0.304214
218.558	0.0792198
220.369	-0.916853
222.18	0.967846
223.992	-0.26708
225.802	0.0946331
227.612	0.407492
229.421	0.52593
231.23	0.546429
233.039	0.155907
234.849	-0.860958
236.657	-0.139986
238.465	0.318504
240.272	-0.255762
242.079	0.0169239
243.885	0.436422
245.691	0.445621
247.497	0.0415344
249.305	-0.077589
251.11	0.208307
252.915	0.151306
254.719	-0.0777321
256.523	-0.114723
258.327	0.427643
260.13	-0.449438
261.933	0.0496292
263.736	0.695614
265.538	-0.391596
267.34	0.23217
269.141	0.20455
270.943	0.753935
272.744	-0.0489826
274.544	-0.155283
276.344	-0.168024
278.144	-0.473139
279.944	0.254236
281.743	0.56797
283.542	-0.300531
285.34	0.199429
287.138	0.0727997
288.936	-0.581373
290.733	-0.0835934
292.53	-0.0875168
294.327	-0.256647
296.123	0.317675
297.919	0.534552
299.715	0.035141
301.508	0.27593
303.303	1.37453
305.098	0.942537
306.892	-0.0394154
308.686	0.218649
310.479	1.14419
312.273	0.165365
314.065	0.284885
315.858	0.478607
317.648	0.722702
319.44	0.492859
321.231	-0.0929451
323.022	0.633316
324.813	0.167871
326.604	0.251015
328.392	0.357546
330.181	0.176119
331.971	0.781708
333.76	0.212416
335.548	0.596415
337.335	0.713257
339.123	0.0369453
340.91	1.00842
342.698	0.662798
344.483	-0.423548
346.269	0.402346
348.055	0.607836
349.841	0.264833
351.625	0.972055
353.41	0.699568
355.195	0.592327
356.977	-0.160948
358.762	0.132793
360.545	0.376507
362.329	0.832357
364.11	0.905624
365.893	0.478504
367.675	0.240578
369.455	-0.0458794
371.237	0.47204
373.017	-0.148153
374.798	0.532074
376.578	0.195642
378.357	-0.139357
380.137	0.0929947
381.917	0.562042
383.694	-0.449463
385.473	0.187763
387.249	-0.442665
389.028	0.996214
390.806	0.134279
392.581	0.706354
394.359	1.11493
396.134	0.514223
397.91	-0.0159912
399.684	0.087513
401.46	0.894888
403.234	0.432774
405.009	1.1202
406.784	0.561531
408.557	0.964531
410.331	0.756414
412.103	0.266718
413.876	0.692904
415.647	0.768147
417.42	0.422318
419.191	0.875315
420.961	0.695103
422.733	0.960398
424.502	0.708042
426.273	0.148878
428.042	0.409916
429.812	0.247522
431.58	1.25855
433.35	0.7444
435.118	0.582842
436.885	0.91407
438.653	0.305334
440.42	-0.376077
442.188	0.206282
443.954	0.0811977
445.719	0.702763
447.486	0.267933
449.251	0.183756
451.015	0.753971
452.781	0.273209
454.545	0.0501499
456.308	0.969406
458.073	0.908773
459.836	0.755205
461.598	0.39365
463.362	1.26685
465.124	0.122023
466.885	0.51573
468.648	0.33305
470.408	1.06038
472.169	1.09156
473.929	0.842148
475.69	0.0770779
477.45	0.845455
479.208	0.888563
480.967	0.906578
482.727	0.668573
484.485	0.89834
486.243	0.968401
488	0.739246
489.759	1.04983
491.515	0.335627
493.272	1.51385
495.028	0.706816
496.783	0.974918
498.54	0.633867
500.295	1.13565
502.05	0.815714
503.804	1.55072
505.558	0.169418
507.311	1.1593
509.064	0.594767
510.819	0.497746
512.572	0.445068
514.324	0.272196
516.076	0.779276
517.827	0.601992
519.578	0.611158
521.329	0.243059
523.08	1.70623
524.83	0.82033
526.58	0.897129
528.329	0.692528
530.08	0.581675
531.829	0.282902
533.578	0.240614
535.326	0.687603
537.074	0.99124
538.821	0.474703
540.568	0.703459
542.315	1.55916
544.062	0.992956
545.808	0.520975
547.554	0.537796
549.299	0.415903
551.044	0.873566
552.789	1.0761
554.533	0.95505
556.278	1.34255
558.019	1.45329
559.763	0.389696
561.506	0.986366
563.249	0.571035
564.991	0.364222
566.733	-0.0249615
568.475	0.299374
570.217	0.395727
571.958	0.264982
573.699	0.274763
575.439	1.3429
577.177	-0.0178547
578.917	1.23977
580.656	-0.0723476
582.396	0.131088
584.134	-0.815613
585.873	0.765108
587.609	0.527319
589.347	0.58642
591.084	0.206757
592.822	0.0102348
594.558	-0.278561
596.295	0.35301
598.029	0.225348
599.765	0.281151
601.5	-0.0554924
603.235	-0.0491505
604.968	-0.275137
606.703	-0.112513
608.437	0.576719
610.171	-0.433464
611.902	0.232784
613.635	0.349461
615.368	0.0547237
617.099	0.745749
618.831	-0.0990276
620.563	-0.326794
622.294	0.450176
624.024	-0.238411
625.755	0.0790291
627.485	-0.195738
629.213	0.0808067
630.943	-0.528646
632.673	0.439953
634.4	0.794538
636.129	-0.0382309
637.855	0.0847893
639.584	1.04758
641.312	0.840981
643.037	0.242867
644.764	0.0988903
646.491	0.365107
648.216	-0.13872
649.942	-0.114096
651.666	0.394245
653.392	0.00041008
655.115	-0.752022
656.84	-0.682165
658.563	0.91671
660.287	-0.379486
662.011	0.44319
663.732	0.30336
665.456	0.845058
667.177	0.537584
668.899	-0.228815
670.62	0.263805
672.342	-0.223961
674.061	0.0476303
675.781	-0.020422
677.502	1.10673
679.22	-0.358749
680.941	0.240345
682.659	-0.266876
684.379	0.533783
686.096	0.73295
687.815	0.00812531
689.532	0.0874577
691.248	0.280737
692.966	-0.0338154
694.682	0.617798
696.4	1.06024
698.115	0.694645
699.829	0.143032
701.546	0.578859
703.26	1.28834
704.974	1.42139
706.689	1.25492
708.402	0.331236
710.115	0.760258
711.83	0.958954
713.542	0.813694
715.254	0.965425
716.967	0.180666
718.679	1.29086
720.39	0.644489
722.102	1.548
723.812	0.516148
725.522	1.35
727.232	1.34151
728.943	1.03727
730.652	1.34494
732.361	0.768061
734.069	1.95675
735.779	1.78696
737.487	1.50531
739.194	1.20288
740.901	0.880163
742.608	0.92049
744.316	0.625452
746.022	0.378216
747.728	0.920969
749.433	0.926016
751.138	1.40569
752.843	0.448179
754.549	0.887648
756.254	0.947395
757.957	1.23509
759.661	0.534422
761.364	-0.255363
763.067	1.14323
764.769	1.23393
766.471	0.848368
768.175	1.02441
769.877	1.64908
771.578	1.75023
773.279	1.57746
774.98	0.273304
776.68	1.84165
778.38	1.37733
780.079	1.30007
781.779	1.24741
783.478	1.46666
785.176	1.66153
786.875	1.19589
788.573	1.10971
790.27	1.33461
791.968	1.03461
793.665	1.09358
795.361	0.926323
797.058	0.512966
798.754	1.7696
800.45	1.51979
802.145	1.09281
803.84	1.07223
805.535	1.029
807.23	1.47876
808.922	1.29727
810.616	1.29346
812.309	0.884413
814.002	1.14719
815.695	0.692726
817.388	1.51393
819.08	1.12702
820.772	0.718723
822.464	1.15962
824.153	1.75733
825.844	2.44584
827.535	1.19972
829.225	2.00793
830.915	2.44293
832.605	1.96993
834.292	1.70103
835.981	1.47833
837.67	0.697161
839.359	1.00736
841.047	1.2258
842.732	1.86654
844.42	1.27759
846.107	0.51071
847.794	1.42331
849.479	1.31193
851.165	0.913704
852.851	1.05609
854.534	1.35755
856.22	0.716036
857.905	1.21807
859.589	1.04305
861.272	1.04478
862.956	0.638151
864.639	1.22058
866.321	0.404079
868.004	1.43506
869.687	1.13503
871.367	1.03736
873.049	0.217375
874.731	0.389835
876.41	0.584948
878.092	0.915571
879.771	0.659246
881.451	0.560276
883.131	1.56628
884.809	0.493509
886.489	1.22418
888.166	0.868727
889.845	-0.255966
891.522	1.32255
893.2	0.576912
894.878	0.572945
896.554	1.26402
898.231	-0.293785
899.906	0.483107
901.583	0.38298
903.258	0.684935
904.934	0.0470924
906.608	1.64335
908.283	0.606096
909.956	0.30769
911.631	0.545368
913.304	0.494905
914.976	0.645023
916.65	0.417824
918.322	0.855846
919.995	0.828222
921.666	0.978636
923.339	0.931826
925.009	0.556648
926.679	0.0968132
928.351	0.633499
930.021	0.99559
931.692	0.542454
933.361	0.88414
935.029	0.123207
936.699	0.88496
938.367	1.18503
940.035	0.715338
941.704	0.578602
943.371	0.752075
945.038	1.67585
946.706	0.898193
948.372	0.448313
950.038	1.20898
951.705	0.334373
953.37	0.893946
955.035	0.706242
956.7	1.42756
958.366	0.566875
960.03	0.725735
961.693	0.644691
963.357	0.430794
965.021	0.633951
966.684	1.29717
968.346	0.0969028
970.008	0.618595
971.67	0.696114
973.334	1.39357
974.995	0.656132
976.655	1.00562
978.316	0.871323
979.976	0.72716
981.638	0.582268
983.297	0.955187
984.957	-0.31352
986.616	0.317898
988.274	1.9413
989.932	0.686165
991.59	0.757166
993.248	1.35784
994.907	0.236153
996.565	-0.2001
998.221	0.642962
999.878	1.08798
1001.53	1.68587
1003.19	1.24783
1004.85	1.09566
1006.5	0.416067
1008.16	0.352516
1009.81	0.157967
1011.46	0.271467
1013.12	0.517138
1014.77	0.215645
1016.43	0.309259
1018.08	1.08199
1019.73	0.80567
1021.38	0.706387
1023.04	0.674774
1024.69	1.21317
1026.34	1.40291
1027.99	1.43974
1029.64	1.60647
1031.29	3.25591
1032.94	2.69601
1034.59	5.0787
1036.24	6.05987
1037.89	7.5604
1039.54	8.14402
1041.19	11.0557
1042.84	12.554
1044.48	13.5124
1046.13	13.9764
1047.78	14.2722
1049.42	13.5957
1051.07	11.8368
1052.72	10.4274
1054.36	7.93184
1056.01	6.80446
1057.66	6.00198
1059.3	5.02415
1060.94	3.28358
1062.59	3.99835
1064.23	1.81926
1065.88	2.98652
1067.52	1.47778
1069.16	1.46716
1070.81	1.45527
1072.45	1.39969
1074.09	0.650707
1075.73	0.901928
1077.38	1.06876
1079.02	0.86927
1080.66	0.649576
1082.3	0.321491
1083.94	0.685719
1085.58	-0.0586605
1087.22	0.645523
1088.86	1.04196
1090.5	0.417559
1092.13	0.397255
1093.77	0.527205
1095.41	1.26128
1097.05	0.680613
1098.68	0.340366
1100.32	-0.0823536
1101.96	0.553204
1103.6	1.01952
1105.23	0.993464
1106.87	0.559898
1108.5	0.233431
1110.14	0.550133
1111.77	0.584324
1113.41	0.873249
1115.04	0.408047
1116.67	1.50837
1118.31	0.82798
1119.94	0.321159
1121.58	0.416286
1123.21	1.1982
1124.84	1.48929
1126.47	1.54661
1128.1	1.11359
1129.73	0.553814
1131.37	0.67938
1133	1.08341
1134.63	0.91
1136.26	0.585836
1137.89	1.15727
1139.52	0.294952
1141.14	-0.034811
1142.77	0.552338
1144.4	0.435284
1146.03	-0.149426
1147.66	0.0778885
1149.29	0.285357
1150.91	0.323233
1152.54	0.595375
1154.17	0.888025
1155.79	0.434828
1157.42	0.470999
1159.04	0.571602
1160.67	0.397284
1162.3	0.671614
1163.92	0.756458
1165.55	-0.32711
1167.17	0.226044
1168.79	0.926018
1170.42	0.559809
1172.04	0.338909
1173.66	1.00661
1175.28	0.546541
1176.91	0.192108
1178.53	0.177492
1180.15	0.375834
1181.77	0.0255661
1183.39	0.543777
1185.01	-0.164032
1186.63	0.288736
1188.25	0.400236
1189.87	-0.250965
1191.49	-0.104244
1193.11	-0.360201
1194.73	0.0548763
1196.35	0.0284977
1197.97	-0.100843
1199.59	0.505276
1201.2	0.968264
1202.82	0.558681
1204.44	0.738857
1206.05	1.38204
1207.67	0.442102
1209.29	0.379078
1210.9	0.502316
1212.52	1.06016
1214.13	1.07145
1215.75	-0.295847
1217.36	0.811335
1218.97	1.14545
1220.59	0.648205
1222.2	0.630211
1223.82	0.738895
1225.43	0.560383
1227.04	1.27475
1228.65	0.315739
1230.26	0.06283
1231.88	1.19721
1233.49	0.618036
1235.1	1.26066
1236.71	0.582808
1238.32	1.14708
1239.93	0.224066
1241.54	0.976332
1243.15	1.00426
1244.76	0.906616
1246.37	1.59337
1247.97	1.22287
1249.58	1.1613
1251.19	1.07844
1252.8	2.23707
1254.41	1.78358
1256.01	1.66314
1257.62	1.64852
1259.23	1.71891
1260.83	2.30859
1262.44	1.30519
1264.04	1.73046
1265.65	1.80298
1267.25	1.60467
1268.86	2.17154
1270.46	2.50844
1272.07	1.91021
1273.67	1.28927
1275.27	1.51647
1276.88	1.90753
1278.48	1.44741
1280.08	2.45657
1281.68	2.34661
1283.28	1.69905
1284.89	2.58333
1286.49	2.26973
1288.09	2.49573
1289.69	3.34347
1291.29	3.30355
1292.89	4.29657
1294.49	2.66418
1296.09	3.13648
1297.69	2.32526
1299.29	2.81129
1300.88	3.273
1302.48	2.02167
1304.08	2.51991
1305.68	1.76164
1307.27	1.68162
1308.87	2.36027
1310.47	3.13988
1312.06	1.91235
1313.66	2.77483
1315.25	2.24817
1316.85	2.1735
1318.44	1.93684
1320.04	2.842
1321.63	1.89026
1323.23	2.60598
1324.82	1.42631
1326.41	2.07385
1328.01	2.53605
1329.6	2.04648
1331.19	2.81503
1332.78	2.45497
1334.38	2.90761
1335.97	2.25318
1337.56	2.77039
1339.15	2.9834
1340.74	2.5684
1342.33	1.96869
1343.92	2.25075
1345.51	2.06812
1347.1	2.80844
1348.69	2.12833
1350.28	2.7752
1351.87	2.48631
1353.46	2.26187
1355.04	1.80039
1356.63	2.7187
1358.22	1.61806
1359.81	2.05393
1361.39	1.56918
1362.98	1.82135
1364.57	1.57409
1366.15	1.72605
1367.74	2.49672
1369.32	0.940102
1370.91	1.41707
1372.49	1.43886
1374.07	1.82099
1375.66	1.72692
1377.24	2.62802
1378.83	1.12038
1380.41	1.4415
1381.99	1.81969
1383.57	1.81725
1385.16	1.17675
1386.74	1.5293
1388.32	2.1002
1389.9	1.83822
1391.48	1.10198
1393.06	1.77619
1394.64	1.83602
1396.22	1.18165
1397.8	0.843466
1399.38	1.2566
1400.96	1.80613
1402.54	1.87884
1404.12	1.71397
1405.7	1.11526
1407.28	1.21051
1408.85	1.82106
1410.43	2.11622
1412.01	2.25317
1413.58	2.34938
1415.16	2.81856
1416.74	2.63474
1418.31	3.08097
1419.89	2.22722
1421.46	2.89257
1423.04	2.32054
1424.61	2.10637
1426.19	3.15443
1427.76	3.35734
1429.33	3.3629
1430.91	4.19321
1432.48	3.17105
1434.05	4.1146
1435.63	4.60425
1437.2	4.32724
1438.77	4.95615
1440.34	4.44715
1441.91	5.19813
1443.49	3.88711
1445.05	4.44398
1446.63	4.60822
1448.2	4.30104
1449.77	4.34828
1451.34	4.47518
1452.91	5.0163
1454.47	4.39791
1456.04	4.11365
1457.61	4.67417
1459.18	4.75976
1460.75	4.78253
1462.31	4.21094
1463.88	3.5182
1465.45	4.10134
1467.01	3.22938
1468.58	3.00697
1470.15	3.21834
1471.71	3.47112
1473.28	2.86305
1474.84	3.39422
1476.41	2.84775
1477.97	2.71336
1479.54	3.65699
1481.1	2.58141
1482.66	2.97571
1484.23	3.27165
1485.79	3.01823
1487.35	2.56749
1488.91	3.21068
1490.48	2.61667
1492.04	2.52725
1493.6	3.0194
1495.16	3.13599
1496.72	2.82122
1498.28	2.66239
1499.84	2.05808
1501.4	1.41851
1502.96	1.82993
1504.52	1.85485
1506.08	1.45443
1507.64	1.2276
1509.2	0.709442
1510.76	0.788382
1512.31	1.55919
1513.87	0.210131
1515.43	1.74809
1516.99	0.71085
1518.54	0.94315
1520.1	0.371639
1521.66	1.52389
1523.21	1.10569
1524.77	0.801464
1526.32	0.534147
1527.88	0.798933
1529.43	0.947765
1530.99	1.55182
1532.54	0.676168
1534.09	0.637779
1535.65	0.809528
1537.2	0.812664
1538.75	1.13804
1540.31	1.42581
1541.86	2.01466
1543.41	0.607237
1544.96	0.668699
1546.51	1.1992
1548.06	1.40931
1549.62	1.5814
1551.17	0.929634
1552.72	1.36511
1554.27	1.12874
1555.82	1.58648
1557.36	1.26312
1558.91	0.458742
1560.46	0.926954
1562.01	1.32353
1563.56	0.976084
1565.11	1.8052
1566.66	0.675322
1568.2	0.813856
1569.75	1.92232
1571.3	2.13418
1572.84	1.26278
1574.39	1.34312
1575.93	1.40483
1577.48	1.70962
1579.02	1.60452
1580.57	2.19147
1582.11	1.2861
1583.66	1.40938
1585.2	1.64631
1586.75	1.86571
1588.29	2.02948
1589.83	1.78134
1591.38	2.11243
1592.92	1.69383
1594.46	1.57408
1596	2.29745
1597.54	2.06623
1599.09	2.17364
1600.63	2.33883
1602.17	2.48636
1603.71	2.29603
1605.25	1.80363
1606.79	2.19151
1608.33	2.40656
1609.87	2.50429
1611.41	2.18397
1612.95	1.6346
1614.48	1.21467
1616.02	1.45086
1617.56	1.36893
1619.1	1.55159
1620.64	1.73697
1622.17	1.88748
1623.71	2.02087
1625.25	2.2292
1626.78	1.61254
1628.32	1.16212
1629.86	1.55092
1631.39	1.97468
1632.92	1.89279
1634.46	2.03556
1635.99	2.03049
1637.53	1.82209
1639.06	1.16765
1640.59	1.59472
1642.13	1.59185
1643.66	2.29446
1645.19	1.9332
1646.73	2.53757
1648.26	2.49007
1649.79	2.07199
1651.32	2.71409
1652.85	1.92982
1654.38	2.24234
1655.92	2.31498
1657.45	2.31336
1658.98	1.84723
1660.51	2.17505
1662.04	1.98165
1663.57	1.4905
1665.09	2.34734
1666.62	1.57937
1668.15	2.17934
1669.68	2.54187
1671.21	1.5436
1672.73	1.56124
1674.26	1.24832
1675.79	1.00882
1677.31	2.38756
1678.84	1.70272
1680.37	1.12682
1681.89	1.37699
1683.42	1.24056
1684.94	1.91185
1686.47	2.06947
1687.99	1.56798
1689.52	0.811356
1691.04	0.953159
1692.57	1.461
1694.09	1.05365
1695.61	0.0248127
1697.14	0.604523
1698.66	1.29252
1700.18	0.701345
1701.7	0.620609
1703.22	0.538891
1704.75	1.00253
1706.27	0.973276
1707.79	1.198
1709.31	0.459503
1710.83	0.702404
1712.35	0.201805
1713.87	0.825642
1715.39	0.398609
1716.91	-0.299145
1718.43	0.395609
1719.95	0.00561142
1721.46	-0.0947418
1722.98	0.401033
1724.5	-0.0388756
1726.02	0.622618
1727.53	0.728065
1729.05	0.745405
1730.57	0.595985
1732.08	0.140978
1733.6	-0.158115
1735.12	0.0580978
1736.63	0.583147
1738.15	0.446518
1739.66	0.0990391
1741.18	0.613371
1742.69	0.431704
1744.21	0.40588
1745.72	0.24939
1747.23	-0.215164
1748.74	0.305565
1750.26	0.180922
1751.77	0.672419
1753.28	-0.0845394
1754.8	0.145271
1756.31	0.0693836
1757.82	-0.0269146
1759.33	0.102995
1760.84	-0.13014
1762.35	0.43354
1763.86	0.319609
1765.37	0.342768
1766.88	0.0394573
1768.39	0.147701
1769.9	0.0750294
1771.41	0.798483
1772.92	0.387794
1774.43	-0.139875
1775.93	0.0447369
1777.44	0.0206814
1778.95	-0.432968
1780.46	0.168598
1781.96	0.196779
1783.47	-0.0383415
1784.98	0.430607
1786.48	0.0682335
1787.99	0.154331
1789.49	-0.49169
1791	0.277235
1792.5	-0.297899
1794.01	-0.347374
1795.51	-0.0185814
1797.02	0.041851
1798.52	0.0398827
1800.03	0.64867
1801.53	0.171347
1803.03	0.08144
1804.53	-0.517298
1806.04	0.359352
1807.54	0.0670166
1809.04	0.141617
1810.54	0.321642
1812.04	0.14304
1813.54	0.18853
1815.05	-0.103985
1816.55	0.283289
1818.05	0.0897217
1819.55	-0.11162
1821.05	-0.275976
1822.55	0.352383
1824.05	0.175917
1825.54	0.125713
1827.04	0.270519
1828.54	0.479061
1830.04	0.0598278
1831.54	-0.130106
1833.03	0.0691414
1834.53	-0.628946
1836.03	0.338202
1837.52	-0.0182934
1839.02	0.428606
1840.52	-0.223745
1842.01	0.166191
1843.51	0.215687
1845	0.157726
1846.5	-0.166172
1847.99	0.0632324
1849.49	0.0994396
1850.98	0.0534096
1852.47	0.510548
1853.97	0.499146
1855.46	0.107206
1856.95	-0.0814247
1858.45	0.3062
1859.94	0.255127
1861.43	-0.0693989
1862.92	0.0182514
1864.41	0.0232143
1865.91	0.121424
1867.4	0.00565338
1868.89	-0.221169
1870.38	-0.383656
1871.87	-0.0132141
1873.36	0.024868
1874.85	0.252274
1876.34	0.0303001
1877.83	0.130604
1879.31	0.293018
1880.8	0.269184
1882.29	0.0672054
1882.56	0.0243855
1884.05	0.302008
1885.54	0.0377464
1887.04	-0.0885563
1888.53	0.376205
1890.03	0.110153
1891.52	-0.432011
1893.01	-0.518824
1894.5	-0.271973
1895.99	0.186382
1897.49	0.246452
1898.98	0.393284
1900.47	0.0510921
1901.96	-0.346323
1903.45	-0.329439
1904.94	0.04986
1906.43	0.131994
1907.92	0.109831
1909.41	0.453352
1910.9	0.364624
1912.39	-0.346815
1913.88	0.417286
1915.37	0.26223
1916.86	0.331984
1918.35	0.00205612
1919.84	0.121992
1921.32	-0.503084
1922.81	0.725771
1924.3	-0.329473
1925.78	0.435331
1927.27	0.301928
1928.76	0.221653
1930.24	0.851254
1931.73	0.440332
1933.21	0.615396
1934.7	-0.35545
1936.18	0.384245
1937.67	-0.175869
1939.15	0.387003
1940.64	-0.397089
1942.12	-0.177753
1943.6	0.181311
1945.09	0.145105
1946.57	-0.631651
1948.05	0.59071
1949.54	-0.0324707
1951.02	0.84099
1952.5	0.300724
1953.98	-0.429049
1955.46	-0.333153
1956.94	0.43306
1958.42	0.204241
1959.91	0.560293
1961.39	0.745596
1962.87	0.176973
1964.34	0.276648
1965.82	-0.3097
1967.3	-0.503048
1968.78	0.140762
1970.26	-0.550571
1971.74	-0.114105
1973.22	0.202154
1974.7	0.705769
1976.17	0.186401
1977.65	0.775173
1979.13	0.222956
1980.6	0.266756
1982.08	0.157188
1983.56	0.658707
1985.03	0.361118
1986.51	0.0296021
1987.98	-0.182795
1989.46	0.0968189
1990.93	-0.231903
1992.41	-0.15258
1993.88	-0.0545731
1995.36	0.703926
1996.83	0.516697
1998.3	0.397064
1999.78	0.513039
2001.25	0.15527
2002.72	-0.152477
2004.2	0.416443
2005.67	-0.244566
2007.14	0.0227451
2008.61	0.358997
2010.08	0.208492
2011.55	0.479853
2013.02	0.16214
2014.49	0.600992
2015.97	0.0119171
2017.43	0.54833
2018.9	-0.0603638
2020.37	0.254635
2021.84	-0.0354958
2023.31	-0.274351
2024.78	0.209925
2026.25	0.645781
2027.72	0.145
2029.19	0.418591
2030.65	0.0908012
2032.12	0.402346
2033.59	-0.0740433
2035.05	0.188108
2036.52	-0.0710392
2037.98	0.273598
2039.45	-0.138634
2040.92	0.238947
2042.38	-0.038332
2043.85	0.560244
2045.31	-0.0505581
2046.78	0.669474
2048.24	0.262217
2049.71	0.123569
2051.17	0.691051
2052.63	0.092268
2054.1	0.603067
2055.56	0.823845
2057.02	0.502468
2058.48	0.196697
2059.95	0.362526
2061.41	0.46166
2062.87	0.713768
2064.33	0.849874
2065.79	0.483013
2067.25	0.235538
2068.71	0.611862
2070.17	0.719538
2071.63	0.254929
2073.09	0.311909
2074.55	0.250536
2076.01	0.340096
2077.47	0.462662
2078.93	0.163492
2080.39	0.789631
2081.85	0.791636
2083.3	1.07852
2084.76	0.471977
2086.22	1.00831
2087.68	0.786409
2089.13	0.362268
2090.59	0.778019
2092.05	0.504885
2093.5	0.936592
2094.96	0.377909
2096.41	0.941858
2097.87	0.666407
2099.32	0.657957
2100.78	0.699106
2102.23	0.289473
2103.69	0.900555
2105.14	0.595425
2106.59	1.41092
2108.05	0.343216
2109.5	1.44436
2110.95	1.37696
2112.41	1.09044
2113.86	1.46706
2115.31	1.07469
2116.76	1.29638
2118.21	1.08646
2119.67	0.995626
2121.12	0.991484
2122.57	1.02414
2124.02	1.49065
2125.47	1.1458
2126.92	1.46367
2128.37	1.39825
2129.82	1.3468
2131.27	1.34262
2132.71	1.83352
2134.16	1.44705
2135.61	1.75697
2137.06	1.60669
2138.51	1.77402
2139.95	1.68055
2141.4	1.17692
2142.85	1.48546
2144.29	1.94435
2145.74	1.90735
2147.19	1.73728
2148.63	2.06274
2150.08	1.88969
2151.52	2.16202
2152.97	2.44904
2154.42	2.51904
2155.86	2.24023
2157.3	2.64081
2158.75	2.844
2160.19	2.76823
2161.64	3.0108
2163.08	3.15778
2164.52	2.44529
2165.96	2.87901
2167.41	2.56549
2168.85	1.85047
2170.29	3.09389
2171.73	2.88655
2173.17	2.8084
2174.61	2.72754
2176.06	3.0447
2177.5	2.13176
2178.94	2.51732
2180.38	2.83824
2181.82	2.71201
2183.26	2.81968
2184.7	2.51213
2186.14	2.47078
2187.57	2.47935
2189.01	2.15516
2190.45	2.49664
2191.89	2.255
2193.33	2.22829
2194.76	2.16571
2196.2	1.78339
2197.64	1.94661
2199.08	2.60518
2200.51	2.49655
2201.95	1.87315
2203.38	2.16439
2204.82	1.74441
2206.25	2.23834
2207.69	2.40152
2209.12	1.65342
2210.56	1.86447
2211.99	2.20568
2213.43	1.76812
2214.86	0.752867
2216.3	1.27517
2217.73	2.12893
2219.16	2.14327
2220.59	1.41741
2222.03	1.71401
2223.46	1.84428
2224.89	1.62596
2226.32	1.75017
2227.75	1.41067
2229.19	1.38143
2230.62	1.76091
2232.05	1.58201
2233.48	0.88027
2234.91	1.44045
2236.34	1.51171
2237.77	1.06349
2239.2	1.76149
2240.63	1.12525
2242.06	1.65062
2243.48	1.11814
2244.91	1.25501
2246.34	1.37432
2247.77	0.609928
2249.2	0.885363
2250.62	0.43961
2252.05	1.11448
2253.48	0.420635
2254.9	0.362251
2256.33	0.647499
2257.76	0.969156
2259.18	0.61451
2260.61	0.524796
2262.03	0.893915
2263.46	0.665388
2264.88	0.144548
2266.31	0.695635
2267.73	0.481216
2269.16	1.22513
2270.58	0.779655
2272	0.577265
2273.43	0.618761
2274.85	0.530119
2276.27	0.963188
2277.69	0.28853
2279.12	0.868917
2280.54	0.324329
2281.96	0.382723
2283.38	0.620445
2284.8	0.988905
2286.22	0.443867
2287.64	0.421669
2289.07	-0.547105
2290.49	0.363195
2291.91	0.522764
2293.32	0.437359
2294.74	0.33547
2296.16	0.462496
2297.58	0.474894
2299	0.503773
2300.42	0.434681
2301.84	-0.175111
2303.26	0.281393
2304.67	0.492411
2306.09	0.358604
2307.51	0.256895
2308.92	0.302043
2310.34	0.0501804
2311.76	0.093524
2313.17	0.153292
2314.59	-0.0330801
2316	0.275697
2317.42	0.0754137
2318.83	0.765863
2320.25	0.318543
2321.66	0.314303
2323.08	0.273651
2324.49	0.426854
2325.91	0.22948
2327.32	0.293124
2328.73	1.01457
2330.15	0.66495
2331.56	0.597202
2332.97	0.350509
2334.38	-0.421054
2335.79	0.518986
2337.21	0.191375
2338.62	0.19102
2340.03	0.0735884
2341.44	0.332303
2342.85	0.0154123
2344.26	0.272878
2345.67	0.00605679
2347.08	0.0185089
2348.49	-0.116338
2349.9	-0.284415
2351.31	0.151175
2352.72	0.323006
2354.13	-0.225108
2355.53	0.0253496
2356.94	-0.0509548
2358.35	0.604743
2359.76	0.901838
2361.17	-0.197289
2362.57	-0.321378
2363.98	-0.0243206
2365.39	0.449967
2366.79	0.164026
2368.2	0.267218
2369.6	0.614058
2371.01	0.237398
2372.42	-0.297496
2373.82	0.538621
2375.22	-0.0578651
2376.63	0.60041
2378.03	0.242992
2379.44	0.156416
2380.84	0.147271
2382.25	0.311991
2383.65	0.538796
2385.05	-0.00315571
2386.45	-0.0637741
2387.86	-0.122681
2389.26	0.203271
2390.66	-0.201911
2392.06	-0.38158
2393.46	-0.0660524
2394.87	-0.0356684
2396.27	0.615946
2397.67	-0.0985279
2399.07	0.729633
2400.47	-0.189116
2401.87	-0.233415
2403.27	-0.245877
2404.67	0.836593
2406.07	-0.146631
2407.47	-0.67065
2408.86	0.168365
2410.26	0.229254
2411.66	0.512284
2413.06	-0.106126
2414.46	0.148887
2415.85	0.137288
2417.25	0.38135
2418.65	0.500413
2420.05	0.699349
2421.44	0.0902653
2422.84	0.494284
2424.23	-0.036931
2425.63	0.588634
2427.03	0.0266466
2428.42	0.274453
2429.82	0.000740051
2431.21	-0.0339813
2432.6	0.121994
2434	0.483644
2435.39	-0.0620461
2436.79	-0.0544634
2438.18	0.236438
2439.57	-0.316929
2440.97	0.700523
2442.36	-0.188577
2443.75	-0.0143595
2445.14	0.111822
2446.54	0.190052
2447.93	0.299662
2449.32	0.298268
2450.71	-0.0193806
2452.1	-0.0351171
2453.49	0.266977
2454.88	0.428084
2456.27	0.258191
2457.66	0.421057
2459.05	0.393799
2460.44	-0.251253
2461.83	0.193465
2463.22	0.241387
2464.61	-0.738695
2466	-0.470886
2467.39	0.0333071
2468.77	0.032053
2470.16	0.266994
2471.55	0.217159
2472.94	0.465461
2474.32	0.145344
2475.71	-0.143994
2477.1	-0.197765
2478.48	0.141073
2479.87	-0.242156
2481.25	0.410352
2482.64	-0.317003
2484.02	0.364869
2485.41	0.29324
2486.8	-0.233319
2488.18	0.113229
2489.56	0.504365
2490.95	-0.00843906
2492.33	0.118291
2493.72	-0.343394
2495.1	0.299528
2496.48	-0.110408
2497.86	0.147758
2499.25	0.189328
2500.63	0.323038
2502.01	0.238763
2503.39	0.137452
2504.77	0.0347538
2506.16	-0.0225868
2507.54	-0.141781
2508.92	-0.26048
2510.3	-0.0556917
2511.68	0.211174
2513.06	0.0190802
2514.44	-0.217129
2515.82	0.313805
2517.2	0.157086
2518.58	0.0932274
2519.95	-0.489813
2521.33	-0.110538
2522.71	-0.358635
2524.09	-0.104512
2525.47	0.315626
2526.84	0.140752
2528.22	-0.0787544
2529.6	-0.083147
2530.98	-0.312757
2532.35	0.0988531
2533.73	0.0569048
2535.11	0.198516
2536.48	0.172902
2537.86	0.146109
2539.23	0.239133
2540.61	-0.33739
2541.98	-0.261512
2543.36	0.118252
2544.73	0.332458
2546.1	0.503294
2547.48	0.433639
2548.85	-0.241375
2550.23	0.145644
2551.6	-0.39381
2552.97	0.15781
2554.34	0.540637
2555.72	0.724507
2557.09	0.118584
2558.46	0.195124
2559.83	0.0901871
2561.2	0.0771742
2562.58	0.398684
2563.95	-0.0971231
2565.32	-0.531561
2566.69	0.0952206
2568.06	-0.0810213
2569.43	0.106484
2570.8	-0.19101
2572.17	0.40584
2573.54	0.532993
2574.91	0.281343
2576.27	0.514858
2577.64	0.00533104
2579.01	0.359631
2580.38	-0.150965
2581.75	0.156529
2583.11	0.251084
2584.48	0.132968
2585.85	0.227015
2587.21	-0.0273523
2588.58	0.400652
2589.95	0.374163
2591.31	0.180755
2592.68	0.80475
2594.04	0.275784
2595.41	0.154173
2596.78	0.0459995
2598.14	0.466037
2599.51	-0.0675421
2600.87	-0.222545
2602.23	0.378583
2603.6	-0.212199
2604.96	0.0887442
2606.32	0.0730276
2607.69	0.117058
2609.05	0.355502
2610.41	0.320421
2611.77	-0.0179377
2613.14	0.0933447
2614.5	-0.397734
2615.86	-0.122973
2617.22	0.0467081
2618.58	0.02244
2619.94	0.224026
2621.3	0.336869
2622.67	0.151646
2624.03	0.773396
2625.39	0.364605
2626.75	0.567305
2628.1	0.247596
2629.46	-0.116833
2630.82	-0.138865
2632.18	-0.175905
2633.54	-0.108978
2634.9	0.358518
2636.26	-0.198043
2637.61	0.565064
2638.97	0.483109
2640.33	-0.323359
2641.69	0.128438
2643.04	0.328929
2644.4	-0.134873
2645.76	0.286967
2647.11	0.574816
2648.47	-0.0522318
2649.82	0.291636
2651.18	0.310236
2652.53	0.0786161
2653.89	0.243983
2655.24	0.381053
2656.6	0.53449
2657.95	0.133602
2659.31	-0.0019455
2660.66	0.258122
2662.01	0.386142
2663.37	0.396129
2664.72	0.258708
2666.07	0.0618305
2667.43	0.432796
2668.78	0.176883
2670.13	-0.310921
2671.48	0.540521
2672.83	-0.133695
2674.18	0.225023
2675.53	0.0908766
2676.89	0.364084
2678.24	0.203158
2679.59	0.580291
2680.94	0.654711
2682.29	0.252834
2683.64	0.345991
2684.99	0.324828
2686.34	0.260936
2687.68	0.385375
2689.03	0.638457
2690.38	0.801468
2691.73	0.772478
2693.08	0.52316
2694.43	0.156382
2695.77	0.209981
2697.12	0.250144
2698.47	0.118765
2699.81	0.193068
2701.16	0.357278
2702.51	0.162044
2703.85	0.606085
2705.2	0.283066
2706.54	0.72856
2707.89	1.01439
2709.23	0.675495
2710.58	0.0307055
2711.92	0.474543
2713.27	0.758581
2714.61	0.490313
2715.96	0.527126
2717.3	0.127387
2718.64	0.527126
2719.99	0.562638
2721.33	0.218984
2722.67	0.558478
2724.01	-0.0343599
2725.36	0.0415955
2726.7	0.568114
2728.04	0.948475
2729.38	0.469761
2730.72	0.471075
2732.06	0.108632
2733.41	-0.369941
2734.75	0.737343
2736.09	0.346729
2737.43	0.581789
2738.77	0.13326
2740.11	0.338754
2741.44	0.397979
2742.78	0.0926456
2744.12	0.39665
2745.46	0.0892315
2746.8	0.115322
2748.14	0.141082
2749.48	0.718247
2750.81	-0.227515
2752.15	0.190658
2753.49	0.348078
2754.83	0.172476
2756.16	0.200001
2757.5	0.358114
2758.84	0.169188
2760.17	0.0823317
2761.51	0.589657
2762.84	0.0703678
2764.18	-0.158932
2765.51	-0.402709
2766.85	0.322083
2768.18	0.104886
2769.52	0.17479
2770.85	0.271029
2772.19	0.119311
2773.52	0.00935745
2774.85	-0.0292406
2776.19	0.263451
2777.52	-0.1201
2778.85	-0.0994482
2780.18	-0.336599
2781.52	-0.156435
2782.85	-0.607801
2784.18	0.0456381
2785.51	-0.0327396
2786.84	0.276036
2788.17	0.241779
2789.51	0.452152
2790.84	0.163363
2792.17	-0.295468
2793.5	0.00432682
2794.83	0.332643
2796.16	0.0315409
2797.48	0.243898
2798.81	0.126751
2800.14	0.108881
2801.47	-0.151934
2802.8	-0.298746
2804.13	0.39493
2805.46	-0.294415
2806.79	0.282808
2808.11	0.403032
2809.44	0.0818014
2810.77	0.101955
2812.09	0.364385
2813.42	0.0753536
2814.75	0.597198
2816.07	-0.0551996
2817.4	0.329142
2818.73	0.586905
2820.05	0.291903
2821.38	0.237091
2822.7	0.322855
2824.03	0.407525
2825.35	0.959
2826.67	0.434066
2828	0.589866
2829.32	0.520109
2830.65	0.691831
2831.97	1.26027
2833.29	1.27652
2834.62	1.20727
2835.94	1.56171
2837.26	1.92921
2838.58	2.53621
2839.9	3.07182
2841.23	3.12667
2842.55	3.95976
2843.87	4.61016
2845.19	4.51296
2846.51	5.0106
2847.83	4.94371
2849.15	4.59416
2850.47	4.71042
2851.79	4.67021
2853.11	4.69966
2854.43	4.91203
2855.75	4.55884
2857.07	4.86968
2858.39	5.05342
2859.71	4.7428
2861.02	5.44858
2862.34	4.69939
2863.66	5.16361
2864.98	5.65531
2866.3	5.46962
2867.61	5.27044
2868.93	5.49519
2870.25	5.91805
2871.56	6.34107
2872.88	6.03057
2874.19	6.25416
2875.51	6.61641
2876.83	7.96171
2878.14	8.16425
2879.46	8.5488
2880.77	8.3433
2882.09	8.22404
2883.4	7.54532
2884.71	7.47272
2886.03	7.24695
2887.34	6.67052
2888.65	7.15988
2889.97	7.0162
2891.28	6.67468
2892.59	7.49553
2893.91	6.17203
2895.22	6.65672
2896.53	6.37275
2897.84	6.91655
2899.15	6.90242
2900.46	7.35146
2901.78	6.62628
2903.09	6.86673
2904.4	7.48507
2905.71	7.33463
2907.02	6.87752
2908.33	7.77878
2909.64	6.61113
2910.95	7.6272
2912.26	7.1739
2913.57	7.16705
2914.87	7.9557
2916.18	7.78921
2917.49	8.27771
2918.8	8.28843
2920.11	8.41078
2921.42	8.1568
2922.72	8.75791
2924.03	8.94209
2925.34	8.91867
2926.64	9.13402
2927.95	8.76231
2929.26	9.66206
2930.56	9.03696
2931.87	9.23583
2933.17	8.76327
2934.48	9.47877
2935.78	8.95054
2937.09	8.81397
2938.39	8.51007
2939.7	8.82152
2941	8.67277
2942.31	8.19017
2943.61	7.90525
2944.91	7.93018
2946.22	7.63551
2947.52	7.46758
2948.82	7.50902
2950.13	7.05842
2951.43	7.02464
2952.73	6.56747
2954.03	7.87206
2955.33	6.89388
2956.64	6.33746
2957.94	6.19049
2959.24	6.17411
2960.54	5.96633
2961.84	5.81785
2963.14	4.78652
2964.44	5.46556
2965.74	5.04737
2967.04	5.28657
2968.34	5.20037
2969.64	4.84565
2970.94	5.16572
2972.24	4.29058
2973.53	4.06288
2974.83	4.08839
2976.13	4.22551
2977.43	3.03692
2978.73	3.73231
2980.02	3.15776
2981.32	3.42571
2982.62	3.27059
2983.91	3.67851
2985.21	3.25877
2986.51	2.91201
2987.8	3.17192
2989.1	2.61846
2990.4	2.05127
2991.69	1.98918
2992.99	2.62808
2994.28	2.01416
2995.57	1.77796
2996.87	2.27079
2998.16	1.55599
2999.46	1.8802
3000.75	1.82644
3002.05	1.68959
3003.34	1.10511
3004.63	0.829309
3005.92	1.12739
3007.22	1.07427
3008.51	0.544119
3009.8	1.22958
3011.09	0.878915
3012.39	0.192999
3013.68	0.763656
3014.97	0.651073
3016.26	0.88805
3017.55	0.652616
3018.84	0.557427
3020.13	0.212121
3021.42	0.74207
3022.71	0.367128
3024	0.351942
3025.29	-0.260593
3026.58	0.0140972
3027.87	0.455063
3029.16	-0.706646
3030.45	0.028492
3031.73	0.198965
3033.02	-0.0569534
3034.31	0.143192
3035.6	-0.154317
3036.89	0.0151138
3038.17	0.181407
3039.46	-0.0272551
3040.75	0.243053
3042.03	-0.408408
3043.32	0.134242
3044.61	0.0882587
3045.89	0.127123
3047.18	0.046525
3048.46	0.297513
3049.75	-0.00779915
3051.03	0.180844
3052.32	0.288882
3053.6	0.246822
3054.89	0.162772
3056.17	-0.0593395
3057.45	0.248601
3058.74	0.146208
3060.02	0.152412
3061.31	-0.208184
3062.59	0.290003
3063.87	-0.0665436
3065.15	0.0281591
3066.44	-0.0380507
3067.72	0.101285
3069	-0.125922
3070.28	-0.0952225
3071.56	0.138106
3072.84	0.3286
3074.13	0.313027
3075.41	0.200797
3076.69	0.318992
3077.97	0.0848446
3079.25	0.35466
3080.53	-0.0650215
3081.81	-0.0344706
3083.09	-0.123988
3084.37	0.0182047
3085.64	0.0248108
3086.92	0.288555
3088.2	-0.0868025
3089.48	-0.218963
3090.76	-0.446807
3092.04	0.315556
3093.31	0.22333
3094.59	-0.193849
3095.87	-0.163013
3097.14	0.464399
3098.42	-0.399415
3099.7	0.119023
3100.97	-0.202825
3102.25	-0.510859
3103.53	0.400167
3104.8	0.228749
3106.08	0.193935
3107.35	0.0117598
3108.63	-0.12815
3109.9	0.0720034
3111.18	0.219672
3112.45	-0.376319
3113.73	0.491376
3115	0.0311766
3116.27	0.329266
3117.55	0.0970583
3118.82	0.0800705
3120.09	-0.0200958
3121.37	0.000301361
3122.64	0.195898
3123.91	0.458728
3125.18	0.829901
3126.45	0.159398
3127.73	0.369695
3129	0.36429
3130.27	-0.221951
3131.54	0.516936
3132.81	0.647048
3134.08	0.465767
3135.35	0.283771
3136.62	0.735088
3137.89	0.295172
3139.16	0.178583
3140.43	0.398382
3141.7	0.725444
3142.97	0.662785
3144.24	0.842661
3145.51	0.567132
3146.78	0.775713
3148.04	0.891305
3149.31	0.418591
