200.423	0.629255
202.238	0.656787
204.052	0.685762
205.868	1.05644
207.682	1.15965
209.495	0.217116
211.308	0.269839
213.12	0.490663
214.935	1.26758
216.746	0.563988
218.558	0.0793734
220.369	1.0967
222.18	0.372301
223.992	0.78611
225.802	0.837693
227.612	0.261192
229.421	0.84365
231.23	0.531776
233.039	0.292072
234.849	0.197639
236.657	0.466294
238.465	0.0625391
240.272	0.312654
242.079	0.445117
243.885	-0.096096
245.691	0.182652
247.497	0.218211
249.305	0.636735
251.11	0.254366
252.915	0.833985
254.719	0.566392
256.523	0.32251
258.327	-0.209395
260.13	0.610168
261.933	-0.278536
263.736	-0.17751
265.538	-0.412545
267.34	0.148005
269.141	0.419073
270.943	0.423935
272.744	0.017375
274.544	0.404603
276.344	-0.22283
278.144	0.328506
279.944	0.491389
281.743	0.362554
283.542	-0.0811825
285.34	0.14673
287.138	0.0611
288.936	-0.360144
290.733	-0.396495
292.53	-0.0483284
294.327	0.277274
296.123	0.0305214
297.919	0.358871
299.715	0.281437
301.508	0.347068
303.303	0.268309
305.098	0.33119
306.892	0.0111189
308.686	0.477669
310.479	0.444001
312.273	0.149828
314.065	-0.0707417
315.858	0.282435
317.648	0.637866
319.44	-0.695993
321.231	0.592173
323.022	0.308702
324.813	0.19245
326.604	0.76858
328.392	0.150473
330.181	0.893408
331.971	0.0570002
333.76	0.437945
335.548	0.242007
337.335	0.66524
339.123	-0.110572
340.91	0.307804
342.698	0.390067
344.483	0.543781
346.269	0.100836
348.055	-0.173851
349.841	-0.51944
351.625	0.376227
353.41	1.17532
355.195	-0.317469
356.977	-0.427837
358.762	0.50878
360.545	0.609209
362.329	-0.077055
364.11	-0.0261564
365.893	-0.237612
367.675	-0.449703
369.455	-0.0222712
371.237	-0.0942612
373.017	1.1106
374.798	0.256145
376.578	0.442298
378.357	0.605083
380.137	-0.244308
381.917	-0.502346
383.694	0.11179
385.473	0.374118
387.249	-0.349197
389.028	0.315308
390.806	-0.12315
392.581	0.237957
394.359	-0.0342731
396.134	0.163615
397.91	0.103294
399.684	0.371541
401.46	0.145997
403.234	0.131015
405.009	-0.00234604
406.784	0.0512218
408.557	0.0100584
410.331	-0.0550022
412.103	0.325857
413.876	-0.560021
415.647	0.502553
417.42	0.299052
419.191	0.166723
420.961	0.597967
422.733	0.6065
424.502	-0.18407
426.273	0.503164
428.042	-0.0783949
429.812	-0.00325489
431.58	0.517733
433.35	-0.298724
435.118	0.57505
436.885	0.721245
438.653	0.537978
440.42	0.282489
442.188	-0.397632
443.954	0.444027
445.719	0.134304
447.486	0.408619
449.251	0.822108
451.015	-0.236943
452.781	-0.00989532
454.545	0.380338
456.308	-0.348812
458.073	0.01754
459.836	0.0575848
461.598	0.214651
463.362	0.187511
465.124	0.65135
466.885	0.421748
468.648	-0.176302
470.408	-0.0980759
472.169	0.492972
473.929	0.455152
475.69	-0.283694
477.45	0.045948
479.208	0.769287
480.967	0.396445
482.727	-0.185789
484.485	0.491117
486.243	0.262139
488	-0.313875
489.759	0.534739
491.515	0.335569
493.272	0.557495
495.028	0.476101
496.783	0.394459
498.54	0.757483
500.295	0.932954
502.05	0.380293
503.804	0.177942
505.558	0.772982
507.311	0.543862
509.064	0.241967
510.819	-0.03862
512.572	0.761168
514.324	0.406017
516.076	1.17838
517.827	0.184888
519.578	0.225167
521.329	0.358421
523.08	0.890132
524.83	0.787263
526.58	0.543716
528.329	0.816292
530.08	0.033884
531.829	0.235534
533.578	0.108235
535.326	-0.113922
537.074	0.363624
538.821	0.48827
540.568	0.214648
542.315	0.546221
544.062	1.06259
545.808	0.462312
547.554	1.20981
549.299	-0.223215
551.044	0.686065
552.789	0.645215
554.533	0.165689
556.278	-0.243245
558.019	-0.489446
559.763	0.117856
561.506	0.0802507
563.249	0.388481
564.991	-0.245377
566.733	0.638495
568.475	0.0530739
570.217	0.731724
571.958	0.218776
573.699	0.419274
575.439	0.209174
577.177	0.437178
578.917	0.11616
580.656	0.163361
582.396	0.279727
584.134	-0.133208
585.873	-0.0187817
587.609	0.623237
589.347	-0.139533
591.084	0.0857325
592.822	-0.126822
594.558	-0.0404739
596.295	-0.138124
598.029	-0.557882
599.765	0.05723
601.5	0.00412083
603.235	0.708382
604.968	-0.0610294
606.703	0.225541
608.437	0.372949
610.171	0.657683
611.902	0.0481529
613.635	0.0363493
615.368	0.254636
617.099	0.129381
618.831	0.00358868
620.563	-0.100541
622.294	0.22853
624.024	0.25888
625.755	0.106382
627.485	0.29787
629.213	-0.261377
630.943	-0.269764
632.673	0.0439129
634.4	0.31345
636.129	0.080534
637.855	-0.428465
639.584	-0.0733995
641.312	-0.0416842
643.037	0.419899
644.764	0.605742
646.491	-0.209296
648.216	0.115878
649.942	0.0356607
651.666	0.551153
653.392	0.230974
655.115	0.18777
656.84	0.0108948
658.563	0.10847
660.287	-0.41027
662.011	-0.543641
663.732	0.256986
665.456	0.506671
667.177	-0.0921068
668.899	0.77164
670.62	0.103887
672.342	0.399374
674.061	0.217458
675.781	0.10682
677.502	0.158247
679.22	-0.0655794
680.941	0.42164
682.659	-0.0358648
684.379	0.0328083
686.096	0.306262
687.815	0.324466
689.532	-0.833477
691.248	0.656612
692.966	-0.226668
694.682	0.086937
696.4	0.537372
698.115	0.479599
699.829	0.788414
701.546	0.0834627
703.26	0.918041
704.974	0.326585
706.689	-0.0352011
708.402	1.07071
710.115	0.891204
711.83	0.711493
713.542	0.897678
715.254	0.740479
716.967	1.49676
718.679	0.221601
720.39	1.2053
722.102	1.36771
723.812	0.551579
725.522	0.691503
727.232	0.67183
728.943	0.288556
730.652	0.358872
732.361	0.315334
734.069	0.724132
735.779	0.680102
737.487	0.726972
739.194	0.774636
740.901	1.25178
742.608	0.55847
744.316	0.543165
746.022	0.597221
747.728	0.045619
749.433	1.00297
751.138	0.0725031
752.843	0.583208
754.549	0.353385
756.254	0.237837
757.957	0.34928
759.661	0.890742
761.364	0.712954
763.067	0.445367
764.769	0.899649
766.471	1.2176
768.175	1.08144
769.877	1.07804
771.578	0.845869
773.279	0.837988
774.98	1.21387
776.68	1.07036
778.38	1.65207
780.079	1.03732
781.779	1.07981
783.478	1.16785
785.176	1.32248
786.875	1.17987
788.573	1.78011
790.27	0.814756
791.968	1.40674
793.665	0.979447
795.361	0.800714
797.058	0.984026
798.754	1.95736
800.45	1.49136
802.145	1.25273
803.84	1.82483
805.535	0.777751
807.23	1.07876
808.922	0.996234
810.616	1.49578
812.309	1.05156
814.002	1.68278
815.695	0.364974
817.388	1.5098
819.08	0.797815
820.772	2.16397
822.464	1.58722
824.153	1.25767
825.844	1.62112
827.535	1.27424
829.225	1.55464
830.915	0.992689
832.605	0.567795
834.292	1.37118
835.981	0.771664
837.67	1.33177
839.359	1.13184
841.047	1.15311
842.732	0.949251
844.42	0.856388
846.107	1.68071
847.794	1.32277
849.479	0.67679
851.165	1.175
852.851	0.959402
854.534	1.66455
856.22	1.27041
857.905	0.132109
859.589	0.497434
861.272	1.0412
862.956	1.22304
864.639	0.817419
866.321	0.861204
868.004	0.430661
869.687	0.675974
871.367	0.898418
873.049	0.421299
874.731	1.27521
876.41	0.93334
878.092	0.794529
879.771	0.745861
881.451	0.967627
883.131	0.533823
884.809	1.40798
886.489	0.925877
888.166	1.59268
889.845	1.62535
891.522	1.16017
893.2	0.851487
894.878	0.924297
896.554	1.24288
898.231	0.414182
899.906	0.393654
901.583	1.04428
903.258	1.15556
904.934	0.796939
906.608	1.0422
908.283	0.485057
909.956	0.509336
911.631	0.401202
913.304	0.583119
914.976	0.343286
916.65	-0.184422
918.322	0.707205
919.995	0.755892
921.666	1.2919
923.339	1.25377
925.009	0.974883
926.679	0.345452
928.351	-0.0606184
930.021	0.991513
931.692	1.09543
933.361	0.868793
935.029	0.752748
936.699	1.14453
938.367	0.721397
940.035	0.432137
941.704	0.409072
943.371	0.740011
945.038	0.806109
946.706	0.672127
948.372	0.447505
950.038	1.41224
951.705	1.20549
953.37	0.91069
955.035	0.573923
956.7	0.924314
958.366	0.176126
960.03	0.578532
961.693	0.740543
963.357	0.880603
965.021	0.288829
966.684	0.356902
968.346	-0.0653143
970.008	0.483285
971.67	0.256387
973.334	0.627201
974.995	0.446943
976.655	0.490167
978.316	1.35386
979.976	1.10149
981.638	0.848491
983.297	0.693264
984.957	0.513366
986.616	0.994801
988.274	0.234602
989.932	0.181071
991.59	0.480358
993.248	-0.0823355
994.907	-0.224862
996.565	0.272729
998.221	1.16661
999.878	0.406444
1001.53	1.36442
1003.19	0.604015
1004.85	0.767862
1006.5	1.06316
1008.16	-0.0911427
1009.81	1.45573
1011.46	1.11515
1013.12	0.972871
1014.77	0.590361
1016.43	0.274483
1018.08	0.112762
1019.73	1.24259
1021.38	0.5583
1023.04	1.16549
1024.69	0.484345
1026.34	1.07159
1027.99	1.8117
1029.64	1.74243
1031.29	1.86804
1032.94	2.40607
1034.59	2.98472
1036.24	4.80324
1037.89	5.24512
1039.54	6.40441
1041.19	7.08455
1042.84	8.4183
1044.48	9.38472
1046.13	10.0504
1047.78	8.9173
1049.42	9.67722
1051.07	7.92037
1052.72	6.07767
1054.36	6.47303
1056.01	5.43408
1057.66	4.37244
1059.3	4.59241
1060.94	3.81111
1062.59	3.05021
1064.23	2.54884
1065.88	2.4156
1067.52	1.17237
1069.16	1.08004
1070.81	1.11717
1072.45	1.06724
1074.09	0.301953
1075.73	0.688159
1077.38	0.273521
1079.02	0.38106
1080.66	1.37867
1082.3	0.121118
1083.94	1.13922
1085.58	0.420658
1087.22	0.50161
1088.86	0.817938
1090.5	0.439071
1092.13	0.621289
1093.77	0.413753
1095.41	0.659889
1097.05	0.971323
1098.68	1.11178
1100.32	0.199585
1101.96	0.517339
1103.6	0.471515
1105.23	1.00823
1106.87	0.706831
1108.5	0.426632
1110.14	0.360126
1111.77	0.356089
1113.41	0.929932
1115.04	0.921747
1116.67	0.912736
1118.31	-0.0394135
1119.94	0.381704
1121.58	0.653729
1123.21	1.20516
1124.84	1.26542
1126.47	2.2252
1128.1	2.22336
1129.73	2.15844
1131.37	1.49576
1133	1.00465
1134.63	0.150064
1136.26	0.897813
1137.89	0.917364
1139.52	0.27312
1141.14	0.183159
1142.77	-0.0781164
1144.4	0.77008
1146.03	1.0641
1147.66	-0.366986
1149.29	-0.304717
1150.91	-0.454853
1152.54	0.183024
1154.17	0.266617
1155.79	0.0303841
1157.42	0.326019
1159.04	-0.228855
1160.67	0.387181
1162.3	0.281562
1163.92	-0.162905
1165.55	0.265045
1167.17	1.01161
1168.79	0.311002
1170.42	0.649895
1172.04	-0.0550499
1173.66	0.151412
1175.28	-0.0895767
1176.91	-0.118918
1178.53	0.169762
1180.15	0.268394
1181.77	0.0719061
1183.39	-0.419452
1185.01	-0.212902
1186.63	0.0978203
1188.25	0.448186
1189.87	1.02715
1191.49	0.907454
1193.11	0.0921144
1194.73	0.159719
1196.35	-0.297013
1197.97	0.483991
1199.59	-0.010397
1201.2	-0.10375
1202.82	0.516353
1204.44	-0.00864315
1206.05	0.0745821
1207.67	-0.0491114
1209.29	0.57857
1210.9	-0.0880413
1212.52	0.807225
1214.13	0.761014
1215.75	0.128819
1217.36	0.660264
1218.97	0.0463161
1220.59	0.0354614
1222.2	0.0254793
1223.82	-0.210831
1225.43	0.114168
1227.04	0.337218
1228.65	0.189561
1230.26	0.787986
1231.88	0.106063
1233.49	1.07939
1235.1	0.876193
1236.71	0.240541
1238.32	1.01182
1239.93	0.915851
1241.54	1.06831
1243.15	0.661817
1244.76	1.01976
1246.37	1.16948
1247.97	1.02814
1249.58	0.906466
1251.19	1.11539
1252.8	0.786719
1254.41	0.789978
1256.01	0.174112
1257.62	1.19401
1259.23	0.808759
1260.83	1.08687
1262.44	1.65574
1264.04	1.56218
1265.65	0.908505
1267.25	1.26914
1268.86	1.60794
1270.46	1.57218
1272.07	1.65936
1273.67	0.708483
1275.27	1.41482
1276.88	1.64293
1278.48	1.70402
1280.08	1.88843
1281.68	1.5962
1283.28	1.61468
1284.89	2.08882
1286.49	1.57157
1288.09	2.15145
1289.69	2.77377
1291.29	3.25206
1292.89	4.32933
1294.49	4.70275
1296.09	3.38042
1297.69	3.41902
1299.29	3.10427
1300.88	2.23102
1302.48	1.6663
1304.08	2.25369
1305.68	1.62593
1307.27	1.63538
1308.87	2.48553
1310.47	1.79683
1312.06	1.51954
1313.66	1.44832
1315.25	1.93029
1316.85	1.20815
1318.44	1.34478
1320.04	1.66456
1321.63	1.94185
1323.23	1.52463
1324.82	0.78069
1326.41	1.43745
1328.01	1.30102
1329.6	1.28714
1331.19	1.45738
1332.78	2.23645
1334.38	2.00787
1335.97	1.49941
1337.56	0.709937
1339.15	1.99667
1340.74	1.36594
1342.33	1.21633
1343.92	0.722668
1345.51	2.15597
1347.1	0.979177
1348.69	1.48979
1350.28	1.1622
1351.87	1.57855
1353.46	1.05765
1355.04	1.63818
1356.63	1.25979
1358.22	1.60019
1359.81	1.75935
1361.39	1.07859
1362.98	0.696615
1364.57	1.53068
1366.15	1.54718
1367.74	1.20628
1369.32	1.62375
1370.91	1.84389
1372.49	1.56842
1374.07	1.43384
1375.66	0.56398
1377.24	0.669239
1378.83	1.29123
1380.41	0.339944
1381.99	1.21742
1383.57	0.740397
1385.16	0.977991
1386.74	1.29419
1388.32	1.80885
1389.9	0.835253
1391.48	1.39146
1393.06	1.29379
1394.64	1.17687
1396.22	1.19856
1397.8	1.51664
1399.38	1.21885
1400.96	1.51417
1402.54	1.37286
1404.12	1.52839
1405.7	1.36808
1407.28	1.80204
1408.85	1.44653
1410.43	1.40801
1412.01	1.58668
1413.58	1.96182
1415.16	1.90128
1416.74	2.07624
1418.31	2.52634
1419.89	2.68091
1421.46	2.2068
1423.04	2.64077
1424.61	2.50622
1426.19	2.59005
1427.76	2.43853
1429.33	2.81806
1430.91	3.09784
1432.48	3.78903
1434.05	4.1636
1435.63	4.93053
1437.2	5.16645
1438.77	5.58038
1440.34	5.308
1441.91	5.01766
1443.49	5.18054
1445.05	4.28275
1446.63	3.85688
1448.2	4.53198
1449.77	4.48026
1451.34	4.35063
1452.91	3.94646
1454.47	4.01483
1456.04	4.41766
1457.61	3.81601
1459.18	4.15695
1460.75	3.74734
1462.31	3.55139
1463.88	4.19862
1465.45	3.93934
1467.01	3.64044
1468.58	2.89082
1470.15	3.08522
1471.71	2.59452
1473.28	2.94903
1474.84	2.7359
1476.41	2.79796
1477.97	2.17401
1479.54	2.15778
1481.1	1.94541
1482.66	1.88974
1484.23	1.26569
1485.79	1.62088
1487.35	1.68107
1488.91	1.32827
1490.48	1.54071
1492.04	1.31971
1493.6	1.33046
1495.16	1.06557
1496.72	0.741353
1498.28	1.04032
1499.84	0.522968
1501.4	0.901212
1502.96	1.1057
1504.52	0.923496
1506.08	0.800077
1507.64	0.115235
1509.2	0.860065
1510.76	0.0965796
1512.31	0.54793
1513.87	0.266247
1515.43	0.273801
1516.99	0.646871
1518.54	0.598174
1520.1	0.876055
1521.66	-0.0518856
1523.21	0.302421
1524.77	0.616736
1526.32	0.70013
1527.88	0.306042
1529.43	0.178494
1530.99	-0.366454
1532.54	0.152534
1534.09	0.652339
1535.65	0.376776
1537.2	0.821033
1538.75	0.774549
1540.31	1.18122
1541.86	0.551139
1543.41	0.919613
1544.96	0.459818
1546.51	0.2824
1548.06	0.724307
1549.62	1.07152
1551.17	1.02504
1552.72	0.511668
1554.27	0.804104
1555.82	0.518913
1557.36	0.46034
1558.91	0.814819
1560.46	0.779838
1562.01	1.15737
1563.56	0.771541
1565.11	1.63653
1566.66	0.766395
1568.2	1.6128
1569.75	0.85361
1571.3	1.06447
1572.84	0.789613
1574.39	1.48526
1575.93	1.11689
1577.48	0.0393572
1579.02	1.59464
1580.57	0.798372
1582.11	1.23546
1583.66	1.7673
1585.2	0.50642
1586.75	0.815655
1588.29	1.4059
1589.83	1.17305
1591.38	0.714811
1592.92	1.17316
1594.46	1.50029
1596	1.17189
1597.54	1.16242
1599.09	1.19131
1600.63	1.48376
1602.17	1.64575
1603.71	1.35723
1605.25	1.19905
1606.79	1.60277
1608.33	1.08307
1609.87	1.0114
1611.41	1.63195
1612.95	1.00986
1614.48	1.36268
1616.02	0.832911
1617.56	1.05415
1619.1	1.33283
1620.64	1.20123
1622.17	1.07152
1623.71	1.09273
1625.25	1.20758
1626.78	1.35884
1628.32	1.63927
1629.86	1.71189
1631.39	1.31575
1632.92	1.79737
1634.46	0.654769
1635.99	1.28688
1637.53	1.75177
1639.06	1.54601
1640.59	1.30319
1642.13	1.50686
1643.66	1.31788
1645.19	1.92767
1646.73	1.49405
1648.26	1.58089
1649.79	1.79806
1651.32	1.55233
1652.85	1.99479
1654.38	1.80803
1655.92	1.15892
1657.45	1.26984
1658.98	1.4723
1660.51	1.50626
1662.04	1.42725
1663.57	1.75349
1665.09	1.56125
1666.62	1.86806
1668.15	1.91766
1669.68	1.8402
1671.21	1.23052
1672.73	1.54371
1674.26	1.15759
1675.79	1.78395
1677.31	1.23101
1678.84	1.08178
1680.37	1.00486
1681.89	1.3129
1683.42	1.52825
1684.94	0.789195
1686.47	1.07848
1687.99	1.03811
1689.52	0.906693
1691.04	0.702499
1692.57	0.718224
1694.09	0.53264
1695.61	1.49879
1697.14	0.928705
1698.66	0.486642
1700.18	0.208797
1701.7	0.167748
1703.22	0.144255
1704.75	0.793856
1706.27	0.42288
1707.79	0.324833
1709.31	-0.227247
1710.83	0.510212
1712.35	0.0680218
1713.87	0.315241
1715.39	0.163862
1716.91	0.0307455
1718.43	-0.192694
1719.95	0.107822
1721.46	0.209569
1722.98	0.0774698
1724.5	0.397243
1726.02	0.412189
1727.53	0.66285
1729.05	0.446783
1730.57	0.284897
1732.08	-0.035058
1733.6	0.70275
1735.12	0.818919
1736.63	0.637375
1738.15	0.229799
1739.66	0.286102
1741.18	0.143806
1742.69	-0.193294
1744.21	0.0549698
1745.72	-0.377411
1747.23	0.413699
1748.74	-0.0801239
1750.26	-0.0861101
1751.77	-0.186088
1753.28	-0.0482807
1754.8	-0.290921
1756.31	0.0488796
1757.82	-0.0220776
1759.33	0.0361967
1760.84	0.0833702
1762.35	-0.0426941
1763.86	0.414743
1765.37	0.0434914
1766.88	0.196555
1768.39	-0.233844
1769.9	-0.333093
1771.41	0.251504
1772.92	-0.166284
1774.43	0.115632
1775.93	-0.143931
1777.44	-0.0523577
1778.95	0.0690804
1780.46	0.168068
1781.96	0.0869637
1783.47	-0.0345812
1784.98	0.122952
1786.48	0.276222
1787.99	-0.215198
1789.49	-0.152154
1791	0.110124
1792.5	-0.0736618
1794.01	0.0214243
1795.51	-0.0371456
1797.02	0.221322
1798.52	0.222538
1800.03	0.494287
1801.53	-0.287534
1803.03	0.336165
1804.53	0.0987511
1806.04	0.243749
1807.54	-0.0900974
1809.04	0.0168314
1810.54	-0.0223255
1812.04	-0.00405216
1813.54	0.111458
1815.05	0.14237
1816.55	0.338346
1818.05	0.162242
1819.55	0.00717831
1821.05	-0.00644398
1822.55	0.0936041
1824.05	-0.00207901
1825.54	0.0962324
1827.04	0.112749
1828.54	0.50771
1830.04	-0.316066
1831.54	0.148518
1833.03	0.212438
1834.53	-0.101794
1836.03	0.0883341
1837.52	0.0857677
1839.02	0.0365992
1840.52	0.00231457
1842.01	0.246006
1843.51	-0.0492077
1845	-0.0863466
1846.5	0.305624
1847.99	-0.13518
1849.49	-0.0365229
1850.98	-0.136192
1852.47	0.200089
1853.97	-0.441144
1855.46	0.150515
1856.95	0.00639248
1858.45	0.239068
1859.94	-0.317215
1861.43	0.248904
1862.92	0.311697
1864.41	0.142079
1865.91	-0.0175886
1867.4	0.314804
1868.89	-0.173923
1870.38	-0.189572
1871.87	-0.0931673
1873.36	0.314672
1874.85	0.098484
1876.34	-0.0407906
1877.83	0.0462894
1879.31	0.273128
1880.8	0.246767
1882.29	0.162586
1882.56	0.148529
1884.05	0.0950394
1885.54	0.0928488
1887.04	0.315962
1888.53	-0.314767
1890.03	0.134131
1891.52	-0.0421677
1893.01	0.200989
1894.5	0.0465755
1895.99	0.0506248
1897.49	0.525317
1898.98	0.495571
1900.47	0.394861
1901.96	0.239814
1903.45	-0.439194
1904.94	0.462369
1906.43	0.00686836
1907.92	-0.343987
1909.41	0.486552
1910.9	0.0163479
1912.39	0.380223
1913.88	-0.417336
1915.37	-0.382155
1916.86	-0.0180073
1918.35	0.0333052
1919.84	0.136003
1921.32	0.0306807
1922.81	0.393488
1924.3	0.341799
1925.78	-0.227719
1927.27	-0.293838
1928.76	0.0563745
1930.24	0.164179
1931.73	0.236314
1933.21	0.0121946
1934.7	0.201339
1936.18	0.0248461
1937.67	0.158267
1939.15	-0.020071
1940.64	-0.111439
1942.12	-0.0462971
1943.6	0.0718727
1945.09	-0.395239
1946.57	0.121019
1948.05	0.309215
1949.54	-0.261662
1951.02	-0.247865
1952.5	-0.114782
1953.98	0.275341
1955.46	-0.194315
1956.94	0.436168
1958.42	0.586255
1959.91	-0.42931
1961.39	-0.00294495
1962.87	0.234776
1964.34	0.215071
1965.82	-0.0107718
1967.3	0.5158
1968.78	0.390923
1970.26	-0.469536
1971.74	0.0714731
1973.22	0.440949
1974.7	-0.0939121
1976.17	0.0369148
1977.65	0.218882
1979.13	-0.0247812
1980.6	0.225119
1982.08	0.16849
1983.56	-0.245144
1985.03	-0.115447
1986.51	-0.189781
1987.98	0.19354
1989.46	-0.0837173
1990.93	0.571016
1992.41	0.0930367
1993.88	0.293055
1995.36	-0.46927
1996.83	0.171627
1998.3	-0.0323448
1999.78	0.472308
2001.25	-0.239219
2002.72	0.0781488
2004.2	0.293886
2005.67	0.391918
2007.14	0.103461
2008.61	0.388927
2010.08	0.507042
2011.55	0.423819
2013.02	-0.231586
2014.49	-0.029088
2015.97	-0.113666
2017.43	0.0697584
2018.9	0.588193
2020.37	-0.0371208
2021.84	0.295249
2023.31	0.443091
2024.78	0.273069
2026.25	0.0208397
2027.72	0.240152
2029.19	0.310437
2030.65	0.114045
2032.12	0.539712
2033.59	0.277992
2035.05	-0.151881
2036.52	-0.498521
2037.98	0.128575
2039.45	0.352109
2040.92	0.558857
2042.38	0.177712
2043.85	0.554214
2045.31	0.275949
2046.78	0.654988
2048.24	0.158884
2049.71	0.116882
2051.17	0.191562
2052.63	0.416076
2054.1	0.671998
2055.56	0.284799
2057.02	0.334304
2058.48	0.433314
2059.95	0.633118
2061.41	0.345039
2062.87	0.27704
2064.33	0.395496
2065.79	0.582548
2067.25	0.282648
2068.71	0.690371
2070.17	0.543108
2071.63	0.160177
2073.09	0.46731
2074.55	0.31951
2076.01	0.609095
2077.47	0.20777
2078.93	0.193259
2080.39	0.868547
2081.85	0.111868
2083.3	0.903202
2084.76	1.10418
2086.22	0.883485
2087.68	0.763026
2089.13	0.50769
2090.59	0.571486
2092.05	0.735849
2093.5	0.899912
2094.96	0.744823
2096.41	0.807133
2097.87	1.10295
2099.32	0.96238
2100.78	0.00221539
2102.23	0.965427
2103.69	1.22705
2105.14	0.689036
2106.59	0.920753
2108.05	1.37053
2109.5	1.27027
2110.95	1.10262
2112.41	0.583405
2113.86	0.795225
2115.31	0.755072
2116.76	1.14605
2118.21	1.48697
2119.67	0.650773
2121.12	1.46046
2122.57	1.0449
2124.02	1.31133
2125.47	1.1972
2126.92	1.21535
2128.37	1.23214
2129.82	1.46246
2131.27	1.72395
2132.71	1.53714
2134.16	1.38362
2135.61	1.76045
2137.06	1.19689
2138.51	1.57806
2139.95	2.3419
2141.4	1.86851
2142.85	2.07449
2144.29	1.98375
2145.74	2.12482
2147.19	2.18279
2148.63	1.89208
2150.08	2.26266
2151.52	1.95263
2152.97	1.93942
2154.42	1.8091
2155.86	1.86041
2157.3	2.39221
2158.75	2.59369
2160.19	1.98535
2161.64	2.62205
2163.08	2.2174
2164.52	1.54896
2165.96	2.35834
2167.41	2.12203
2168.85	2.21641
2170.29	2.49134
2171.73	2.29764
2173.17	2.20097
2174.61	2.41845
2176.06	2.35232
2177.5	2.18677
2178.94	2.7871
2180.38	2.72377
2181.82	2.46217
2183.26	2.41752
2184.7	2.62274
2186.14	2.19598
2187.57	2.25161
2189.01	2.15754
2190.45	2.19657
2191.89	2.18528
2193.33	2.32278
2194.76	1.94229
2196.2	1.90894
2197.64	1.54014
2199.08	1.38558
2200.51	2.09384
2201.95	2.16997
2203.38	2.19715
2204.82	1.34706
2206.25	1.51018
2207.69	1.77325
2209.12	1.804
2210.56	1.40332
2211.99	1.66336
2213.43	1.80634
2214.86	1.96548
2216.3	1.26692
2217.73	1.80801
2219.16	1.54225
2220.59	1.29433
2222.03	1.54113
2223.46	1.65498
2224.89	1.32224
2226.32	1.49769
2227.75	0.996565
2229.19	1.23375
2230.62	1.1085
2232.05	1.31097
2233.48	1.25148
2234.91	1.14408
2236.34	1.02211
2237.77	0.804481
2239.2	0.57325
2240.63	0.931967
2242.06	0.8199
2243.48	0.921468
2244.91	1.02349
2246.34	0.847335
2247.77	0.391907
2249.2	0.68391
2250.62	0.255958
2252.05	0.689154
2253.48	0.762755
2254.9	0.771639
2256.33	0.344073
2257.76	0.974702
2259.18	1.0084
2260.61	0.478051
2262.03	0.437446
2263.46	0.122684
2264.88	0.116654
2266.31	0.695537
2267.73	0.948625
2269.16	0.549736
2270.58	0.589095
2272	0.57898
2273.43	0.617501
2274.85	0.688733
2276.27	0.238841
2277.69	0.35938
2279.12	0.871316
2280.54	0.73117
2281.96	0.753892
2283.38	0.46652
2284.8	0.195383
2286.22	-0.0103302
2287.64	0.421076
2289.07	0.820657
2290.49	0.224289
2291.91	0.29801
2293.32	0.257456
2294.74	0.56043
2296.16	0.634389
2297.58	0.462702
2299	0.0288057
2300.42	0.233974
2301.84	0.324885
2303.26	0.137333
2304.67	0.507876
2306.09	0.566655
2307.51	-0.0322132
2308.92	0.255371
2310.34	0.16423
2311.76	0.0725317
2313.17	0.161732
2314.59	0.251491
2316	0.325764
2317.42	0.46698
2318.83	0.559444
2320.25	-0.0740337
2321.66	0.297063
2323.08	0.0553703
2324.49	0.0583324
2325.91	0.388495
2327.32	0.897675
2328.73	0.894435
2330.15	0.479687
2331.56	0.72503
2332.97	0.461428
2334.38	-0.130032
2335.79	0.0686808
2337.21	-0.210212
2338.62	0.36477
2340.03	0.132644
2341.44	0.0309734
2342.85	0.125742
2344.26	0.417137
2345.67	0.462666
2347.08	0.0335093
2348.49	0.243283
2349.9	0.223287
2351.31	0.218678
2352.72	0.425163
2354.13	0.107941
2355.53	0.018692
2356.94	0.173445
2358.35	-0.127574
2359.76	-0.265327
2361.17	0.327653
2362.57	0.0600853
2363.98	0.311193
2365.39	0.157248
2366.79	0.407879
2368.2	-0.0193233
2369.6	0.0394611
2371.01	0.212604
2372.42	0.129416
2373.82	0.25688
2375.22	0.0788698
2376.63	-0.00293541
2378.03	0.36423
2379.44	0.246922
2380.84	0.0474586
2382.25	-0.329721
2383.65	-0.178587
2385.05	-0.380006
2386.45	-0.0692129
2387.86	0.241962
2389.26	0.219173
2390.66	-0.232137
2392.06	-0.0127401
2393.46	-0.349287
2394.87	-0.350535
2396.27	0.491631
2397.67	0.062583
2399.07	0.349479
2400.47	0.144403
2401.87	-0.123757
2403.27	0.227566
2404.67	0.165462
2406.07	-0.373902
2407.47	0.0380268
2408.86	0.194875
2410.26	0.113389
2411.66	0.0639477
2413.06	0.237264
2414.46	0.44372
2415.85	0.192866
2417.25	0.402786
2418.65	-0.0828209
2420.05	0.635466
2421.44	0.276711
2422.84	-0.193506
2424.23	-0.12548
2425.63	-0.184133
2427.03	0.0114088
2428.42	0.430038
2429.82	-0.196611
2431.21	0.0655975
2432.6	0.137712
2434	-0.0448723
2435.39	0.660667
2436.79	0.713149
2438.18	-0.0307388
2439.57	0.447094
2440.97	-0.3151
2442.36	0.367111
2443.75	0.159842
2445.14	-0.110929
2446.54	0.220793
2447.93	0.536197
2449.32	0.455294
2450.71	0.0739155
2452.1	0.247449
2453.49	0.263606
2454.88	0.264997
2456.27	-0.00167847
2457.66	0.222416
2459.05	-0.123133
2460.44	-0.10558
2461.83	0.132326
2463.22	0.242668
2464.61	0.289001
2466	0.0190706
2467.39	0.00181866
2468.77	-0.110164
2470.16	0.093111
2471.55	0.0591764
2472.94	0.260721
2474.32	0.287877
2475.71	0.125418
2477.1	-0.241572
2478.48	0.208585
2479.87	-0.0949831
2481.25	0.0411472
2482.64	-0.136379
2484.02	0.0458479
2485.41	0.242284
2486.8	-0.109879
2488.18	0.364418
2489.56	0.260002
2490.95	0.28018
2492.33	0.192149
2493.72	0.307504
2495.1	0.0209818
2496.48	-0.0465174
2497.86	-0.252294
2499.25	-0.349139
2500.63	0.156953
2502.01	0.0740137
2503.39	0.206168
2504.77	-0.156639
2506.16	-0.180464
2507.54	-0.250702
2508.92	-0.0900393
2510.3	0.285781
2511.68	0.124669
2513.06	0.256049
2514.44	0.112586
2515.82	0.0469351
2517.2	-0.0788898
2518.58	0.34646
2519.95	-0.374488
2521.33	-0.239748
2522.71	-0.334908
2524.09	0.072382
2525.47	0.142888
2526.84	0.0606756
2528.22	0.572498
2529.6	0.203077
2530.98	0.0944061
2532.35	0.337351
2533.73	-0.0562038
2535.11	-0.479242
2536.48	0.0395803
2537.86	0.132168
2539.23	-0.140961
2540.61	0.541553
2541.98	-0.0972652
2543.36	0.0384703
2544.73	0.0234804
2546.1	0.161672
2547.48	0.271029
2548.85	-0.195056
2550.23	0.234022
2551.6	-0.369358
2552.97	0.1795
2554.34	-0.168289
2555.72	0.241533
2557.09	-0.0320673
2558.46	0.240197
2559.83	0.0578651
2561.2	-0.229836
2562.58	0.0743332
2563.95	0.151849
2565.32	0.0328798
2566.69	-0.191885
2568.06	0.0532417
2569.43	0.495424
2570.8	-0.0020771
2572.17	0.334082
2573.54	0.154982
2574.91	-0.327233
2576.27	0.282101
2577.64	-0.548985
2579.01	0.348135
2580.38	0.532193
2581.75	-0.163717
2583.11	0.216463
2584.48	0.156635
2585.85	0.0664396
2587.21	-0.114539
2588.58	-0.234649
2589.95	0.812288
2591.31	0.0556383
2592.68	0.465227
2594.04	0.676708
2595.41	-0.00670338
2596.78	0.232476
2598.14	0.122486
2599.51	0.359884
2600.87	0.174066
2602.23	0.245797
2603.6	0.484333
2604.96	0.165062
2606.32	0.253523
2607.69	0.401805
2609.05	0.111818
2610.41	0.317687
2611.77	0.115252
2613.14	-0.238641
2614.5	0.26342
2615.86	-0.316246
2617.22	0.334721
2618.58	0.281314
2619.94	0.199042
2621.3	0.0430431
2622.67	0.485572
2624.03	0.181179
2625.39	0.0263367
2626.75	0.065238
2628.1	0.178169
2629.46	0.275659
2630.82	-0.103364
2632.18	0.439755
2633.54	0.179836
2634.9	0.484273
2636.26	-0.0126352
2637.61	0.0394945
2638.97	0.165624
2640.33	0.128999
2641.69	0.181449
2643.04	0.72166
2644.4	0.0950823
2645.76	0.206879
2647.11	0.141101
2648.47	0.33968
2649.82	0.330861
2651.18	-0.0169249
2652.53	0.34052
2653.89	0.228056
2655.24	-0.147089
2656.6	0.16807
2657.95	0.381746
2659.31	-0.266789
2660.66	0.664917
2662.01	0.309459
2663.37	0.333372
2664.72	0.0934973
2666.07	0.0718031
2667.43	0.734486
2668.78	0.333006
2670.13	-0.00928593
2671.48	0.245685
2672.83	0.573744
2674.18	0.219693
2675.53	0.0989571
2676.89	0.515837
2678.24	0.309597
2679.59	0.206027
2680.94	0.263274
2682.29	0.568483
2683.64	0.106729
2684.99	0.385691
2686.34	0.273633
2687.68	0.132237
2689.03	0.352242
2690.38	0.323364
2691.73	0.321235
2693.08	0.0705643
2694.43	-0.0650511
2695.77	0.263021
2697.12	-0.0892782
2698.47	0.168458
2699.81	0.34129
2701.16	0.791444
2702.51	0.476017
2703.85	0.697863
2705.2	0.456647
2706.54	0.722919
2707.89	0.887516
2709.23	0.427492
2710.58	0.547519
2711.92	0.667284
2713.27	0.830541
2714.61	1.29906
2715.96	0.764502
2717.3	0.927571
2718.64	1.17767
2719.99	0.627086
2721.33	0.745163
2722.67	1.00819
2724.01	1.2415
2725.36	0.38257
2726.7	0.731257
2728.04	1.15226
2729.38	0.685167
2730.72	0.698164
2732.06	0.900248
2733.41	0.389599
2734.75	1.02838
2736.09	0.67829
2737.43	0.532032
2738.77	0.327583
2740.11	0.559105
2741.44	-0.111516
2742.78	0.13314
2744.12	0.84186
2745.46	0.416159
2746.8	0.251634
2748.14	0.333769
2749.48	0.212772
2750.81	0.338675
2752.15	0.305322
2753.49	0.257796
2754.83	0.239491
2756.16	0.119987
2757.5	0.246909
2758.84	0.156949
2760.17	-0.0193233
2761.51	0.210247
2762.84	0.671878
2764.18	0.222306
2765.51	-0.29959
2766.85	-0.199881
2768.18	-0.231486
2769.52	-0.177864
2770.85	-0.0248947
2772.19	-0.00373745
2773.52	0.39128
2774.85	-0.00795364
2776.19	0.0111675
2777.52	-0.242721
2778.85	-0.265452
2780.18	0.215418
2781.52	0.135978
2782.85	0.171548
2784.18	0.120964
2785.51	0.299736
2786.84	-0.309225
2788.17	0.156743
2789.51	-0.0492544
2790.84	-0.22536
2792.17	0.214411
2793.5	0.325751
2794.83	0.122675
2796.16	0.11931
2797.48	0.0295706
2798.81	0.210491
2800.14	0.0482082
2801.47	0.228101
2802.8	-0.36234
2804.13	-0.197218
2805.46	-0.132505
2806.79	0.0879526
2808.11	0.790897
2809.44	-0.24157
2810.77	0.53109
2812.09	0.281687
2813.42	0.785745
2814.75	0.0719995
2816.07	0.381043
2817.4	0.379614
2818.73	0.364758
2820.05	0.647557
2821.38	0.75969
2822.7	0.516658
2824.03	0.542108
2825.35	0.538792
2826.67	0.63467
2828	0.745356
2829.32	0.672724
2830.65	1.6341
2831.97	1.12354
2833.29	1.80195
2834.62	2.08353
2835.94	2.95873
2837.26	3.45079
2838.58	4.09755
2839.9	4.94164
2841.23	6.30859
2842.55	7.20925
2843.87	8.16743
2845.19	8.58992
2846.51	8.60385
2847.83	8.42068
2849.15	8.35061
2850.47	7.78524
2851.79	7.44507
2853.11	7.34423
2854.43	7.31337
2855.75	7.07026
2857.07	7.90083
2858.39	7.38944
2859.71	7.11827
2861.02	7.11516
2862.34	7.3656
2863.66	7.34711
2864.98	7.66682
2866.3	7.66189
2867.61	8.15105
2868.93	8.20372
2870.25	8.35583
2871.56	8.55048
2872.88	9.18145
2874.19	9.71215
2875.51	10.3954
2876.83	11.6814
2878.14	12.7815
2879.46	14.1048
2880.77	13.9656
2882.09	13.5335
2883.4	12.3878
2884.71	11.6942
2886.03	10.567
2887.34	9.80529
2888.65	9.70259
2889.97	9.05143
2891.28	8.77783
2892.59	8.76967
2893.91	8.41106
2895.22	8.31949
2896.53	8.15944
2897.84	8.89687
2899.15	8.51652
2900.46	8.50138
2901.78	8.64092
2903.09	8.72487
2904.4	8.36147
2905.71	8.16643
2907.02	8.04226
2908.33	8.15723
2909.64	7.76991
2910.95	8.25101
2912.26	8.1584
2913.57	8.13457
2914.87	7.73056
2916.18	8.3319
2917.49	8.9586
2918.8	8.77193
2920.11	8.54324
2921.42	8.44161
2922.72	8.99898
2924.03	9.23691
2925.34	8.69387
2926.64	8.7249
2927.95	9.42703
2929.26	9.34576
2930.56	9.47335
2931.87	9.23676
2933.17	9.68477
2934.48	8.76297
2935.78	9.65837
2937.09	9.05864
2938.39	8.97633
2939.7	8.43336
2941	8.24054
2942.31	8.11889
2943.61	7.94311
2944.91	7.67143
2946.22	7.41529
2947.52	7.10389
2948.82	6.358
2950.13	6.80015
2951.43	6.30181
2952.73	6.02489
2954.03	6.67017
2955.33	6.54487
2956.64	6.05701
2957.94	6.4259
2959.24	5.52468
2960.54	5.84529
2961.84	5.29997
2963.14	5.35818
2964.44	5.14895
2965.74	4.82522
2967.04	4.83632
2968.34	4.59266
2969.64	4.19323
2970.94	4.17327
2972.24	4.23814
2973.53	3.88135
2974.83	3.74961
2976.13	3.61704
2977.43	3.45466
2978.73	3.34647
2980.02	3.37691
2981.32	3.36348
2982.62	2.87119
2983.91	2.50633
2985.21	2.45234
2986.51	1.99279
2987.8	1.6897
2989.1	2.21695
2990.4	2.3652
2991.69	1.68367
2992.99	2.1674
2994.28	1.7783
2995.57	2.06226
2996.87	1.85374
2998.16	1.06983
2999.46	1.05846
3000.75	1.2441
3002.05	1.12202
3003.34	1.11267
3004.63	0.991451
3005.92	1.1361
3007.22	0.272084
3008.51	0.821026
3009.8	0.66921
3011.09	0.377034
3012.39	0.741033
3013.68	0.560473
3014.97	1.00805
3016.26	0.439045
3017.55	0.637444
3018.84	0.738922
3020.13	0.437143
3021.42	0.649469
3022.71	0.235544
3024	0.0154314
3025.29	0.0721741
3026.58	0.267125
3027.87	0.102612
3029.16	-0.0048914
3030.45	0.359386
3031.73	0.20036
3033.02	0.18087
3034.31	-0.155577
3035.6	0.280189
3036.89	-0.0304861
3038.17	0.180717
3039.46	-0.078536
3040.75	-0.311452
3042.03	0.127809
3043.32	-0.00973606
3044.61	-0.145785
3045.89	-0.129068
3047.18	0.163483
3048.46	-0.114876
3049.75	0.251061
3051.03	0.141225
3052.32	0.250789
3053.6	0.223995
3054.89	0.401159
3056.17	0.495214
3057.45	-0.270838
3058.74	0.216501
3060.02	0.417115
3061.31	0.0873642
3062.59	0.248858
3063.87	-0.227068
3065.15	0.19635
3066.44	-0.0854645
3067.72	0.109846
3069	0.224154
3070.28	0.379069
3071.56	0.261049
3072.84	0.440855
3074.13	0.211362
3075.41	0.375072
3076.69	0.2939
3077.97	0.118423
3079.25	0.256553
3080.53	0.27443
3081.81	0.212898
3083.09	-0.0776463
3084.37	0.216073
3085.64	0.292933
3086.92	0.220078
3088.2	0.417949
3089.48	0.126486
3090.76	-0.165304
3092.04	0.0585098
3093.31	-0.0429878
3094.59	0.19505
3095.87	0.108049
3097.14	0.0348673
3098.42	-0.309296
3099.7	-0.260365
3100.97	0.303331
3102.25	0.284608
3103.53	0.415282
3104.8	0.127048
3106.08	0.124125
3107.35	0.352457
3108.63	0.325026
3109.9	0.312514
3111.18	0.301284
3112.45	0.548438
3113.73	0.5525
3115	0.353314
3116.27	0.533264
3117.55	0.576739
3118.82	0.48346
3120.09	0.361904
3121.37	0.293708
3122.64	0.672249
3123.91	0.806572
3125.18	0.521401
3126.45	0.345467
3127.73	0.549295
3129	0.686134
3130.27	0.728823
3131.54	0.623064
3132.81	0.490368
3134.08	0.951797
3135.35	1.12884
3136.62	1.12973
3137.89	0.590955
3139.16	1.15732
3140.43	0.457581
3141.7	0.888855
3142.97	0.661605
3144.24	0.972486
3145.51	1.43132
3146.78	1.19348
3148.04	1.09089
3149.31	1.00269
