200.423	1.56613
202.238	1.62514
204.052	1.68816
205.868	1.2177
207.682	1.59873
209.495	1.71086
211.308	0.776104
213.12	1.15039
214.935	2.2495
216.746	0.703621
218.558	1.00046
220.369	1.03148
222.18	0.942921
223.992	0.686663
225.802	1.34967
227.612	0.176056
229.421	1.17563
231.23	1.32823
233.039	0.273592
234.849	0.0642319
236.657	0.74873
238.465	0.641014
240.272	0.585722
242.079	0.751205
243.885	0.364149
245.691	0.314234
247.497	0.695829
249.305	1.28986
251.11	0.501526
252.915	0.311659
254.719	0.118492
256.523	0.261953
258.327	0.0689888
260.13	0.0714664
261.933	0.438343
263.736	-0.0593948
265.538	0.263557
267.34	0.201372
269.141	-0.0786266
270.943	0.652161
272.744	0.247551
274.544	0.370584
276.344	0.0083313
278.144	-0.212618
279.944	0.189117
281.743	-0.0873852
283.542	0.426643
285.34	-0.336424
287.138	-0.163557
288.936	-0.255096
290.733	0.109661
292.53	0.571505
294.327	-0.136902
296.123	0.0184708
297.919	-0.0397625
299.715	0.0699234
301.508	0.107304
303.303	0.0475216
305.098	-0.467985
306.892	0.160059
308.686	0.071579
310.479	0.317415
312.273	0.421928
314.065	-0.30443
315.858	0.305666
317.648	0.0613174
319.44	0.748386
321.231	0.150782
323.022	0.292957
324.813	-0.208452
326.604	-0.113615
328.392	-0.449406
330.181	0.0976315
331.971	0.547369
333.76	0.0133247
335.548	0.623823
337.335	0.584064
339.123	-0.751387
340.91	0.111298
342.698	-0.510405
344.483	0.540613
346.269	0.086689
348.055	-0.151066
349.841	0.089386
351.625	0.401178
353.41	0.449238
355.195	0.352152
356.977	0.27651
358.762	0.0793324
360.545	-0.0245094
362.329	-0.486927
364.11	-0.308105
365.893	0.320423
367.675	-0.192995
369.455	0.241398
371.237	0.22319
373.017	0.179964
374.798	-0.100323
376.578	0.233665
378.357	0.402548
380.137	-0.0400467
381.917	-0.527151
383.694	-0.211891
385.473	-0.0831242
387.249	0.399849
389.028	-0.172861
390.806	-0.53245
392.581	0.494783
394.359	0.278181
396.134	0.109001
397.91	-0.295017
399.684	0.122517
401.46	0.774107
403.234	0.62586
405.009	0.429237
406.784	0.137299
408.557	-0.390522
410.331	0.771227
412.103	0.10186
413.876	0.113749
415.647	-0.0141296
417.42	0.211164
419.191	0.484365
420.961	0.124249
422.733	0.772892
424.502	0.340456
426.273	0.774937
428.042	-0.505882
429.812	0.442478
431.58	0.240398
433.35	1.16527
435.118	0.729364
436.885	0.434126
438.653	0.677418
440.42	0.214125
442.188	0.1229
443.954	-0.136089
445.719	0.445353
447.486	0.0640125
449.251	0.243628
451.015	0.165937
452.781	-0.518147
454.545	-0.0112572
456.308	0.0984802
458.073	-0.258102
459.836	0.409754
461.598	0.100965
463.362	0.0506592
465.124	0.608395
466.885	-0.269806
468.648	0.692295
470.408	0.216612
472.169	0.230066
473.929	0.242249
475.69	0.437735
477.45	0.396563
479.208	-0.5098
480.967	-0.579292
482.727	0.0965939
484.485	0.564665
486.243	-0.175329
488	0.34623
489.759	0.218779
491.515	0.606396
493.272	-0.522902
495.028	0.988661
496.783	0.466337
498.54	0.153372
500.295	0.847383
502.05	0.649532
503.804	1.13094
505.558	1.14087
507.311	0.63098
509.064	0.517836
510.819	0.731222
512.572	0.965387
514.324	0.561546
516.076	0.508259
517.827	0.523405
519.578	0.630772
521.329	0.760153
523.08	1.00591
524.83	0.45293
526.58	0.0177307
528.329	0.989771
530.08	0.249834
531.829	1.14949
533.578	-0.013195
535.326	0.554546
537.074	0.277599
538.821	0.909231
540.568	0.651192
542.315	0.648489
544.062	0.319344
545.808	0.990026
547.554	0.591759
549.299	0.357073
551.044	0.516911
552.789	0.190914
554.533	0.697739
556.278	-0.0887108
558.019	-0.0889053
559.763	0.579798
561.506	0.695791
563.249	-0.268496
564.991	0.0337868
566.733	0.336725
568.475	0.204447
570.217	0.0970249
571.958	0.519646
573.699	-0.202002
575.439	0.134611
577.177	0.565987
578.917	0.288347
580.656	0.241484
582.396	0.378622
584.134	0.629936
585.873	-0.201237
587.609	0.184179
589.347	0.222528
591.084	0.489321
592.822	-0.0961132
594.558	0.146429
596.295	0.204962
598.029	0.171429
599.765	-0.575905
601.5	-0.0823059
603.235	0.50098
604.968	-0.252014
606.703	0.188246
608.437	0.396933
610.171	0.559181
611.902	-0.126637
613.635	-0.00801086
615.368	-0.0487461
617.099	0.666956
618.831	-0.221899
620.563	0.490561
622.294	0.536625
624.024	0.123905
625.755	0.145699
627.485	0.557348
629.213	0.378698
630.943	0.0445137
632.673	0.581049
634.4	0.731693
636.129	0.356873
637.855	0.29867
639.584	-0.129313
641.312	-0.242664
643.037	-0.246044
644.764	0.0443363
646.491	0.584854
648.216	-0.258841
649.942	-0.210217
651.666	0.117552
653.392	0.270327
655.115	-0.367023
656.84	-0.181833
658.563	-0.13131
660.287	-0.0356483
662.011	0.171776
663.732	0.284187
665.456	0.32394
667.177	0.268913
668.899	0.326832
670.62	-0.025856
672.342	0.265327
674.061	0.263376
675.781	0.150587
677.502	0.154558
679.22	0.181858
680.941	0.575422
682.659	-0.7129
684.379	0.0883598
686.096	0.33427
687.815	0.43936
689.532	0.104946
691.248	0.0226288
692.966	0.0774441
694.682	0.200117
696.4	0.321056
698.115	0.232731
699.829	0.441454
701.546	-0.0420132
703.26	0.967428
704.974	0.619177
706.689	0.68358
708.402	1.09117
710.115	0.71837
711.83	1.35284
713.542	0.407425
715.254	0.948769
716.967	1.05521
718.679	0.0439034
720.39	0.835224
722.102	0.600704
723.812	-0.0200672
725.522	0.542175
727.232	0.762262
728.943	1.07196
730.652	0.337486
732.361	0.305889
734.069	0.81702
735.779	0.829926
737.487	1.11444
739.194	1.06125
740.901	0.874617
742.608	0.938187
744.316	0.148546
746.022	0.554823
747.728	0.355814
749.433	0.496605
751.138	0.279741
752.843	0.82988
754.549	-0.0347748
756.254	0.677977
757.957	0.628462
759.661	0.671556
761.364	0.851984
763.067	1.14649
764.769	0.763668
766.471	0.739981
768.175	0.758417
769.877	0.660152
771.578	1.14636
773.279	0.703005
774.98	1.47988
776.68	0.561838
778.38	-0.173168
780.079	1.31053
781.779	1.34913
783.478	0.844975
785.176	1.6743
786.875	1.09628
788.573	1.10149
790.27	1.39511
791.968	1.16377
793.665	1.02033
795.361	0.966869
797.058	1.50101
798.754	1.13633
800.45	1.20294
802.145	0.844542
803.84	1.34226
805.535	0.805317
807.23	0.582088
808.922	0.649141
810.616	1.25272
812.309	0.9793
814.002	0.279634
815.695	1.43883
817.388	1.47763
819.08	1.47181
820.772	1.57796
822.464	0.881369
824.153	1.21288
825.844	0.610453
827.535	1.08135
829.225	0.866308
830.915	1.1019
832.605	1.4762
834.292	1.29733
835.981	0.785553
837.67	0.741608
839.359	0.852051
841.047	1.09398
842.732	0.551809
844.42	0.477839
846.107	0.941374
847.794	0.715046
849.479	0.85062
851.165	0.945904
852.851	1.08958
854.534	0.741636
856.22	1.06662
857.905	0.581034
859.589	1.05941
861.272	1.08505
862.956	0.860106
864.639	0.655306
866.321	0.877138
868.004	0.647015
869.687	0.573921
871.367	0.996555
873.049	0.990345
874.731	0.0589142
876.41	0.887503
878.092	0.678162
879.771	0.965246
881.451	0.123051
883.131	0.521261
884.809	1.21111
886.489	0.521605
888.166	0.867678
889.845	1.2107
891.522	0.807045
893.2	0.784445
894.878	0.714853
896.554	0.823412
898.231	0.346115
899.906	0.137486
901.583	0.644909
903.258	0.635511
904.934	0.93865
906.608	0.30402
908.283	0.00638962
909.956	0.200914
911.631	0.374302
913.304	0.948668
914.976	0.812086
916.65	0.764603
918.322	0.894461
919.995	0.736414
921.666	0.778774
923.339	0.314625
925.009	0.516676
926.679	1.09708
928.351	0.554371
930.021	1.11756
931.692	0.291821
933.361	1.12138
935.029	1.73049
936.699	2.03149
938.367	0.371239
940.035	0.102562
941.704	1.02718
943.371	1.73293
945.038	0.89385
946.706	2.12749
948.372	1.32713
950.038	1.56075
951.705	0.777121
953.37	1.67025
955.035	1.94833
956.7	1.76842
958.366	1.6386
960.03	1.35939
961.693	1.21528
963.357	0.960348
965.021	0.680065
966.684	0.284248
968.346	1.1225
970.008	1.09408
971.67	1.241
973.334	1.41077
974.995	0.632254
976.655	1.38296
978.316	0.853691
979.976	1.04457
981.638	1.23495
983.297	1.27913
984.957	1.20913
986.616	1.93213
988.274	1.85485
989.932	1.28879
991.59	1.20833
993.248	0.641739
994.907	1.0031
996.565	1.49667
998.221	1.92352
999.878	1.88672
1001.53	2.5099
1003.19	2.42724
1004.85	1.42044
1006.5	1.184
1008.16	-0.0180645
1009.81	1.59101
1011.46	1.15928
1013.12	0.99197
1014.77	0.891321
1016.43	1.09803
1018.08	0.977272
1019.73	1.51425
1021.38	1.65923
1023.04	1.87182
1024.69	1.1246
1026.34	1.64614
1027.99	1.94916
1029.64	2.97187
1031.29	3.90437
1032.94	4.83289
1034.59	4.40419
1036.24	5.52106
1037.89	7.00471
1039.54	8.26806
1041.19	9.59632
1042.84	11.3609
1044.48	11.9115
1046.13	12.2066
1047.78	11.8555
1049.42	9.57611
1051.07	8.86365
1052.72	7.3058
1054.36	6.87816
1056.01	5.18975
1057.66	4.5
1059.3	3.67853
1060.94	3.07299
1062.59	3.55307
1064.23	2.11785
1065.88	2.07229
1067.52	1.80733
1069.16	2.08382
1070.81	2.11995
1072.45	1.43947
1074.09	1.65006
1075.73	1.7757
1077.38	1.86045
1079.02	1.34041
1080.66	1.2556
1082.3	1.64789
1083.94	1.38809
1085.58	1.2121
1087.22	1.50917
1088.86	0.892599
1090.5	1.6584
1092.13	1.08039
1093.77	1.04243
1095.41	0.681202
1097.05	0.753254
1098.68	1.28003
1100.32	1.22812
1101.96	0.857084
1103.6	0.941347
1105.23	1.20013
1106.87	0.0619793
1108.5	1.26766
1110.14	0.471432
1111.77	0.511087
1113.41	0.139673
1115.04	1.82735
1116.67	1.38781
1118.31	1.35637
1119.94	1.19771
1121.58	1.0411
1123.21	1.07927
1124.84	1.14066
1126.47	1.93089
1128.1	1.58887
1129.73	1.63322
1131.37	1.18696
1133	0.912376
1134.63	0.787275
1136.26	0.596968
1137.89	0.511709
1139.52	0.42436
1141.14	0.484724
1142.77	0.672117
1144.4	0.241045
1146.03	0.664333
1147.66	0.257923
1149.29	0.258142
1150.91	0.621372
1152.54	0.409517
1154.17	0.410072
1155.79	-0.143435
1157.42	0.409531
1159.04	0.452324
1160.67	0.0287971
1162.3	-0.30756
1163.92	-0.00424767
1165.55	-0.529217
1167.17	-0.331676
1168.79	0.714445
1170.42	0.354378
1172.04	1.11706
1173.66	-0.481049
1175.28	-0.0424366
1176.91	0.0765743
1178.53	0.00510979
1180.15	-0.192036
1181.77	0.6915
1183.39	0.285576
1185.01	0.556383
1186.63	-0.0827465
1188.25	0.394482
1189.87	0.761946
1191.49	0.535643
1193.11	0.391243
1194.73	0.224764
1196.35	0.478094
1197.97	0.41831
1199.59	0.487268
1201.2	0.643879
1202.82	1.03475
1204.44	0.908247
1206.05	0.973591
1207.67	1.02053
1209.29	1.04717
1210.9	1.03068
1212.52	1.01111
1214.13	0.716644
1215.75	1.06398
1217.36	0.596109
1218.97	1.27024
1220.59	1.09158
1222.2	1.28782
1223.82	1.36168
1225.43	0.485786
1227.04	1.66237
1228.65	1.1857
1230.26	1.55945
1231.88	1.70786
1233.49	1.50713
1235.1	2.03211
1236.71	2.12536
1238.32	1.97252
1239.93	2.46194
1241.54	3.2002
1243.15	2.49
1244.76	2.46089
1246.37	2.61606
1247.97	2.70721
1249.58	2.2796
1251.19	2.41004
1252.8	2.47879
1254.41	3.0453
1256.01	2.49694
1257.62	2.73697
1259.23	2.60687
1260.83	2.85103
1262.44	2.88924
1264.04	3.6733
1265.65	3.71112
1267.25	2.98055
1268.86	2.43441
1270.46	3.42048
1272.07	3.72031
1273.67	2.75339
1275.27	3.58815
1276.88	3.6125
1278.48	3.61446
1280.08	3.7187
1281.68	3.55318
1283.28	3.49142
1284.89	3.90641
1286.49	4.3849
1288.09	3.89387
1289.69	4.47948
1291.29	4.28082
1292.89	3.3589
1294.49	4.27437
1296.09	5.06292
1297.69	4.56763
1299.29	4.54392
1300.88	4.3728
1302.48	4.13757
1304.08	4.41529
1305.68	3.16962
1307.27	4.04083
1308.87	4.25313
1310.47	4.03457
1312.06	4.04243
1313.66	4.03131
1315.25	4.24697
1316.85	4.17838
1318.44	3.7438
1320.04	3.79898
1321.63	4.13748
1323.23	3.57693
1324.82	4.09143
1326.41	4.56126
1328.01	3.65006
1329.6	3.24846
1331.19	4.34744
1332.78	2.78153
1334.38	3.76652
1335.97	3.44185
1337.56	3.76408
1339.15	3.74205
1340.74	3.69667
1342.33	3.3252
1343.92	3.17175
1345.51	3.35774
1347.1	3.28277
1348.69	2.57023
1350.28	3.56477
1351.87	2.14276
1353.46	3.12519
1355.04	3.54985
1356.63	2.63624
1358.22	3.56018
1359.81	3.44327
1361.39	2.38628
1362.98	2.46582
1364.57	2.46484
1366.15	3.08193
1367.74	2.94313
1369.32	2.92621
1370.91	2.43437
1372.49	2.90044
1374.07	1.97577
1375.66	2.58451
1377.24	2.39754
1378.83	2.72701
1380.41	2.11939
1381.99	3.14075
1383.57	2.6079
1385.16	2.17295
1386.74	2.5918
1388.32	2.85165
1389.9	2.37807
1391.48	2.72008
1393.06	1.87314
1394.64	2.25699
1396.22	2.62052
1397.8	2.13015
1399.38	2.01476
1400.96	2.17497
1402.54	3.12567
1404.12	2.65083
1405.7	2.98815
1407.28	3.10938
1408.85	3.76565
1410.43	3.49417
1412.01	3.7362
1413.58	3.08864
1415.16	3.38691
1416.74	3.40713
1418.31	3.20972
1419.89	3.70258
1421.46	3.60631
1423.04	3.59193
1424.61	3.99411
1426.19	4.32007
1427.76	3.97795
1429.33	4.42262
1430.91	4.41277
1432.48	4.93188
1434.05	5.48807
1435.63	5.86594
1437.2	5.16262
1438.77	5.38501
1440.34	5.37358
1441.91	6.32714
1443.49	5.98509
1445.05	5.44732
1446.63	5.46021
1448.2	5.41444
1449.77	5.56582
1451.34	6.05247
1452.91	6.02909
1454.47	5.88848
1456.04	6.2593
1457.61	5.84175
1459.18	5.69698
1460.75	5.05661
1462.31	5.55369
1463.88	4.49339
1465.45	4.8077
1467.01	3.92261
1468.58	4.06008
1470.15	3.43378
1471.71	3.16325
1473.28	3.40483
1474.84	3.15759
1476.41	2.6171
1477.97	2.60629
1479.54	1.73285
1481.1	1.42783
1482.66	2.90604
1484.23	2.18906
1485.79	2.0202
1487.35	2.08505
1488.91	1.75593
1490.48	1.36514
1492.04	1.55755
1493.6	1.04259
1495.16	1.22794
1496.72	1.46933
1498.28	1.39828
1499.84	0.706444
1501.4	1.0081
1502.96	1.31117
1504.52	0.452707
1506.08	1.76436
1507.64	1.0225
1509.2	0.995174
1510.76	1.35179
1512.31	1.86013
1513.87	1.32716
1515.43	1.73767
1516.99	1.47631
1518.54	1.40867
1520.1	1.41892
1521.66	1.35297
1523.21	0.942562
1524.77	1.04721
1526.32	1.07355
1527.88	1.21247
1529.43	1.82533
1530.99	1.73387
1532.54	1.71937
1534.09	1.25202
1535.65	1.65771
1537.2	1.74297
1538.75	2.22569
1540.31	1.74647
1541.86	1.68281
1543.41	1.73202
1544.96	2.19438
1546.51	1.54726
1548.06	2.10199
1549.62	2.52428
1551.17	1.63531
1552.72	2.03974
1554.27	2.05259
1555.82	2.53481
1557.36	1.6757
1558.91	2.07096
1560.46	2.93581
1562.01	2.23648
1563.56	2.97568
1565.11	2.57795
1566.66	2.51621
1568.2	2.64066
1569.75	3.39905
1571.3	2.88746
1572.84	3.58864
1574.39	2.75884
1575.93	3.04908
1577.48	2.94767
1579.02	2.82831
1580.57	2.4673
1582.11	3.75105
1583.66	3.09417
1585.2	3.18576
1586.75	3.82051
1588.29	2.7914
1589.83	2.90247
1591.38	3.6118
1592.92	3.87131
1594.46	3.90563
1596	3.30299
1597.54	4.18134
1599.09	3.89911
1600.63	4.18073
1602.17	4.95151
1603.71	3.58233
1605.25	3.54443
1606.79	4.18052
1608.33	3.5914
1609.87	3.7497
1611.41	4.16657
1612.95	3.71539
1614.48	3.97538
1616.02	3.91529
1617.56	3.66868
1619.1	4.11768
1620.64	4.1197
1622.17	3.76861
1623.71	3.66262
1625.25	3.65033
1626.78	3.71149
1628.32	3.48955
1629.86	4.42457
1631.39	3.89876
1632.92	4.21325
1634.46	3.9119
1635.99	3.89223
1637.53	4.45247
1639.06	4.02542
1640.59	4.17651
1642.13	4.64301
1643.66	4.08284
1645.19	4.26531
1646.73	4.6503
1648.26	4.904
1649.79	4.65669
1651.32	4.89406
1652.85	4.79976
1654.38	4.98587
1655.92	5.30287
1657.45	4.82283
1658.98	4.86023
1660.51	3.89542
1662.04	4.48295
1663.57	4.30949
1665.09	4.6708
1666.62	4.03556
1668.15	3.64303
1669.68	4.48872
1671.21	4.04673
1672.73	4.215
1674.26	3.26076
1675.79	3.92673
1677.31	3.67059
1678.84	3.65176
1680.37	3.22646
1681.89	3.35146
1683.42	3.62253
1684.94	3.1777
1686.47	2.80739
1687.99	2.74991
1689.52	2.72984
1691.04	3.18628
1692.57	1.73915
1694.09	2.37855
1695.61	1.95664
1697.14	2.04634
1698.66	1.91617
1700.18	1.8584
1701.7	1.79977
1703.22	1.46684
1704.75	1.15164
1706.27	0.781578
1707.79	0.866119
1709.31	1.38629
1710.83	1.23419
1712.35	1.19144
1713.87	0.967852
1715.39	1.08868
1716.91	1.01023
1718.43	0.859362
1719.95	1.12395
1721.46	0.522312
1722.98	1.0403
1724.5	1.39708
1726.02	0.765265
1727.53	0.352236
1729.05	0.678894
1730.57	1.34388
1732.08	0.452175
1733.6	-0.14089
1735.12	0.880556
1736.63	0.536709
1738.15	0.429613
1739.66	0.749977
1741.18	0.717113
1742.69	0.762739
1744.21	0.488819
1745.72	0.932785
1747.23	0.388485
1748.74	0.968733
1750.26	1.06463
1751.77	0.308016
1753.28	0.274704
1754.8	0.452419
1756.31	0.528118
1757.82	0.513489
1759.33	0.298487
1760.84	0.276012
1762.35	0.772123
1763.86	0.0969353
1765.37	0.261452
1766.88	0.254475
1768.39	0.561199
1769.9	0.0925808
1771.41	0.686129
1772.92	0.641129
1774.43	0.489279
1775.93	0.389545
1777.44	0.887659
1778.95	0.713629
1780.46	0.317869
1781.96	0.227108
1783.47	0.256392
1784.98	0.31893
1786.48	0.140852
1787.99	0.361393
1789.49	0.555889
1791	0.36912
1792.5	0.236355
1794.01	-0.149082
1795.51	-0.189402
1797.02	-0.302916
1798.52	0.336918
1800.03	-0.152233
1801.53	0.0947971
1803.03	0.188423
1804.53	-0.181225
1806.04	0.0219879
1807.54	-0.0825729
1809.04	0.0459557
1810.54	-0.0495148
1812.04	0.265614
1813.54	0.047905
1815.05	-0.277927
1816.55	0.260759
1818.05	-0.0745354
1819.55	0.445377
1821.05	0.333597
1822.55	-0.00840569
1824.05	-0.141977
1825.54	0.174665
1827.04	0.460131
1828.54	-0.392414
1830.04	0.219929
1831.54	0.273232
1833.03	0.400139
1834.53	-0.177481
1836.03	-0.253832
1837.52	-0.117365
1839.02	0.300535
1840.52	0.326773
1842.01	0.180796
1843.51	-0.181665
1845	0.092268
1846.5	0.272793
1847.99	-0.103203
1849.49	0.425753
1850.98	-0.0711365
1852.47	-0.315279
1853.97	0.227524
1855.46	0.250996
1856.95	0.0329819
1858.45	-0.0589447
1859.94	0.143452
1861.43	0.353746
1862.92	-0.0607071
1864.41	-0.182413
1865.91	-0.0517941
1867.4	0.299433
1868.89	0.225246
1870.38	0.432917
1871.87	-0.19379
1873.36	0.147942
1874.85	-0.0402813
1876.34	-0.130117
1877.83	-0.0739136
1879.31	0.129051
1880.8	0.269468
1882.29	-0.194641
1882.56	-0.301497
1884.05	0.0106544
1885.54	0.164242
1887.04	-0.119404
1888.53	-0.38629
1890.03	0.3218
1891.52	0.526829
1893.01	0.561016
1894.5	-0.20097
1895.99	-0.455868
1897.49	-0.204964
1898.98	0.445896
1900.47	1.3037
1901.96	0.401241
1903.45	-0.0173912
1904.94	0.395926
1906.43	0.112375
1907.92	0.454227
1909.41	0.553949
1910.9	0.325768
1912.39	0.290276
1913.88	1.22712
1915.37	0.0482635
1916.86	-0.229265
1918.35	-0.299686
1919.84	0.391472
1921.32	0.666323
1922.81	0.0760422
1924.3	0.768864
1925.78	0.477026
1927.27	0.395018
1928.76	-0.620752
1930.24	-0.355431
1931.73	0.202805
1933.21	0.117537
1934.7	0.253941
1936.18	0.127502
1937.67	1.00176
1939.15	-0.14756
1940.64	-0.172417
1942.12	0.201283
1943.6	0.214392
1945.09	-0.0640011
1946.57	0.313559
1948.05	-0.0333805
1949.54	-0.0886383
1951.02	0.370789
1952.5	0.328917
1953.98	0.0796642
1955.46	0.432035
1956.94	0.424093
1958.42	-0.217506
1959.91	0.206503
1961.39	0.202499
1962.87	0.318855
1964.34	0.674612
1965.82	0.378311
1967.3	-0.0388222
1968.78	0.655071
1970.26	0.013689
1971.74	-0.131948
1973.22	0.234541
1974.7	-0.0815239
1976.17	0.284946
1977.65	-0.660223
1979.13	-0.293331
1980.6	-0.539331
1982.08	0.55752
1983.56	0.667076
1985.03	-0.0898075
1986.51	-0.303289
1987.98	0.144449
1989.46	0.101057
1990.93	-0.53327
1992.41	0.086483
1993.88	0.0482292
1995.36	0.265043
1996.83	0.769735
1998.3	0.767378
1999.78	0.139528
2001.25	0.0678787
2002.72	0.298964
2004.2	0.360989
2005.67	0.322523
2007.14	0.319235
2008.61	0.132555
2010.08	0.0317955
2011.55	0.740059
2013.02	0.219555
2014.49	0.724911
2015.97	-0.151039
2017.43	0.0818329
2018.9	-0.107306
2020.37	0.542818
2021.84	-0.117855
2023.31	-0.038681
2024.78	0.0587082
2026.25	0.678284
2027.72	0.361227
2029.19	-0.187742
2030.65	0.557405
2032.12	0.868507
2033.59	0.593178
2035.05	0.0992966
2036.52	0.393911
2037.98	0.217173
2039.45	0.358944
2040.92	0.618341
2042.38	0.0210915
2043.85	0.535036
2045.31	0.277094
2046.78	0.390728
2048.24	0.724064
2049.71	0.332378
2051.17	0.123846
2052.63	0.232668
2054.1	0.523567
2055.56	0.541271
2057.02	0.303465
2058.48	0.738359
2059.95	0.970503
2061.41	0.613991
2062.87	0.528635
2064.33	0.0581799
2065.79	0.582624
2067.25	0.68795
2068.71	0.0370369
2070.17	0.245064
2071.63	0.907812
2073.09	1.63781
2074.55	0.750872
2076.01	0.856714
2077.47	0.574528
2078.93	0.00530624
2080.39	0.496124
2081.85	0.901587
2083.3	0.901621
2084.76	1.16945
2086.22	1.2338
2087.68	0.187159
2089.13	0.838087
2090.59	1.53836
2092.05	1.21369
2093.5	0.872391
2094.96	1.80548
2096.41	1.63033
2097.87	1.16935
2099.32	1.9797
2100.78	1.29989
2102.23	1.17301
2103.69	1.41534
2105.14	1.5932
2106.59	1.00628
2108.05	1.80609
2109.5	0.938713
2110.95	2.08776
2112.41	1.13378
2113.86	2.12577
2115.31	1.59896
2116.76	2.71704
2118.21	2.30578
2119.67	1.51623
2121.12	1.85957
2122.57	2.1568
2124.02	2.65586
2125.47	1.99546
2126.92	2.14703
2128.37	2.72747
2129.82	3.00642
2131.27	2.50397
2132.71	2.92737
2134.16	3.03595
2135.61	2.74928
2137.06	2.5486
2138.51	2.46753
2139.95	2.57215
2141.4	2.6967
2142.85	2.84029
2144.29	2.60484
2145.74	2.68392
2147.19	3.92145
2148.63	3.13784
2150.08	3.14716
2151.52	4.33078
2152.97	4.60109
2154.42	4.07427
2155.86	4.29206
2157.3	4.29464
2158.75	3.86815
2160.19	4.55446
2161.64	4.73125
2163.08	3.95069
2164.52	4.21771
2165.96	4.9352
2167.41	4.39078
2168.85	4.74104
2170.29	4.77167
2171.73	4.71441
2173.17	4.91899
2174.61	4.30545
2176.06	3.92369
2177.5	4.22424
2178.94	4.52639
2180.38	5.39595
2181.82	4.38874
2183.26	4.84597
2184.7	5.00459
2186.14	4.49801
2187.57	4.98963
2189.01	4.11687
2190.45	4.40892
2191.89	4.76707
2193.33	4.37439
2194.76	4.3617
2196.2	3.74578
2197.64	3.64179
2199.08	3.28487
2200.51	3.35827
2201.95	3.43127
2203.38	3.60513
2204.82	3.2837
2206.25	2.81561
2207.69	3.1939
2209.12	3.38932
2210.56	2.6726
2211.99	3.06284
2213.43	2.65763
2214.86	3.19424
2216.3	2.77404
2217.73	3.41255
2219.16	3.04717
2220.59	2.81574
2222.03	2.76598
2223.46	2.58296
2224.89	2.035
2226.32	1.92855
2227.75	1.78609
2229.19	2.18334
2230.62	2.03682
2232.05	2.51289
2233.48	1.69542
2234.91	1.74781
2236.34	1.85146
2237.77	1.50103
2239.2	1.75845
2240.63	2.32957
2242.06	1.71353
2243.48	1.99704
2244.91	1.67776
2246.34	1.6018
2247.77	1.63688
2249.2	0.999332
2250.62	1.33567
2252.05	1.65183
2253.48	1.91701
2254.9	1.20755
2256.33	1.6385
2257.76	0.824179
2259.18	0.794537
2260.61	0.705512
2262.03	0.767093
2263.46	1.38393
2264.88	1.25448
2266.31	0.929023
2267.73	1.02469
2269.16	0.858287
2270.58	1.09724
2272	0.60263
2273.43	0.840369
2274.85	0.622275
2276.27	0.192632
2277.69	0.952872
2279.12	0.621365
2280.54	-0.0202484
2281.96	0.691386
2283.38	1.25637
2284.8	1.08737
2286.22	0.8371
2287.64	0.326143
2289.07	-0.0863285
2290.49	0.678115
2291.91	0.332094
2293.32	0.11683
2294.74	0.310382
2296.16	0.389368
2297.58	0.222689
2299	0.21979
2300.42	-0.274446
2301.84	-0.22752
2303.26	0.705902
2304.67	0.0647535
2306.09	0.342504
2307.51	0.389853
2308.92	0.748553
2310.34	0.136231
2311.76	0.953856
2313.17	-0.0544786
2314.59	-0.140981
2316	-0.160361
2317.42	0.348851
2318.83	0.463789
2320.25	0.133069
2321.66	0.328021
2323.08	0.816682
2324.49	0.36033
2325.91	0.724897
2327.32	0.888162
2328.73	0.588393
2330.15	0.174055
2331.56	-0.0241985
2332.97	0.125341
2334.38	0.325702
2335.79	0.0329046
2337.21	0.709733
2338.62	0.118407
2340.03	0.757887
2341.44	0.0811443
2342.85	-0.201779
2344.26	-0.123578
2345.67	-0.241635
2347.08	0.640078
2348.49	-0.00153828
2349.9	0.731041
2351.31	0.300553
2352.72	0.538562
2354.13	0.138035
2355.53	-0.442225
2356.94	0.0364799
2358.35	0.31894
2359.76	-9.25064e-005
2361.17	-0.70779
2362.57	-0.0845852
2363.98	0.731445
2365.39	-0.250096
2366.79	0.386871
2368.2	-0.235633
2369.6	0.0966072
2371.01	-0.326876
2372.42	0.331927
2373.82	-0.0225716
2375.22	0.0102253
2376.63	0.219279
2378.03	-0.265295
2379.44	-0.045002
2380.84	0.50901
2382.25	0.305636
2383.65	0.645622
2385.05	-0.0553417
2386.45	0.364479
2387.86	0.785016
2389.26	-0.132303
2390.66	-0.0580282
2392.06	0.591368
2393.46	-0.428836
2394.87	0.509644
2396.27	0.25631
2397.67	0.306278
2399.07	-0.0558338
2400.47	-0.0197487
2401.87	0.620463
2403.27	0.323564
2404.67	0.0737143
2406.07	-0.00298405
2407.47	-0.017827
2408.86	0.330699
2410.26	-0.256919
2411.66	-0.0196943
2413.06	-0.00291538
2414.46	0.079484
2415.85	0.180336
2417.25	0.346929
2418.65	0.0243483
2420.05	-0.123491
2421.44	-0.0181732
2422.84	-0.246145
2424.23	0.301708
2425.63	0.675508
2427.03	0.0201998
2428.42	0.0795536
2429.82	0.013773
2431.21	-0.257091
2432.6	0.0435181
2434	0.0258245
2435.39	0.657421
2436.79	0.650979
2438.18	0.43516
2439.57	-0.0212536
2440.97	0.299053
2442.36	0.427684
2443.75	0.349411
2445.14	0.0805511
2446.54	-0.0456753
2447.93	0.604479
2449.32	0.0343494
2450.71	-0.519035
2452.1	0.353416
2453.49	0.11912
2454.88	-0.0502443
2456.27	-0.56635
2457.66	-0.132767
2459.05	0.616795
2460.44	-0.374453
2461.83	0.451472
2463.22	0.121687
2464.61	-0.398488
2466	0.170906
2467.39	0.392363
2468.77	-0.0333748
2470.16	0.408294
2471.55	-0.144342
2472.94	0.263354
2474.32	-0.46428
2475.71	0.569763
2477.1	0.061224
2478.48	0.165895
2479.87	0.474689
2481.25	-0.0790567
2482.64	0.0572815
2484.02	-0.527525
2485.41	0.0601177
2486.8	0.253997
2488.18	0.211395
2489.56	-0.0505991
2490.95	-0.281033
2492.33	-0.167986
2493.72	0.365922
2495.1	0.435811
2496.48	0.24438
2497.86	-0.131095
2499.25	-0.366289
2500.63	0.326271
2502.01	0.243614
2503.39	-0.520035
2504.77	0.119889
2506.16	0.0948296
2507.54	0.0078392
2508.92	-0.201709
2510.3	0.0353022
2511.68	-0.202625
2513.06	0.235705
2514.44	0.445114
2515.82	-0.0329456
2517.2	-0.417259
2518.58	-0.0204935
2519.95	0.635924
2521.33	0.603888
2522.71	0.311197
2524.09	0.124146
2525.47	-0.262019
2526.84	-0.17596
2528.22	0.367149
2529.6	-0.441813
2530.98	0.166307
2532.35	0.169215
2533.73	-0.706654
2535.11	0.105158
2536.48	-0.0706749
2537.86	0.162483
2539.23	0.0445414
2540.61	0.471766
2541.98	0.928415
2543.36	-0.405048
2544.73	0.174968
2546.1	0.529485
2547.48	0.567683
2548.85	-0.378715
2550.23	-0.0810909
2551.6	-0.042222
2552.97	-0.0656605
2554.34	0.333976
2555.72	0.0946741
2557.09	0.0365238
2558.46	0.433074
2559.83	0.162889
2561.2	0.181735
2562.58	-0.328703
2563.95	0.601559
2565.32	-0.119236
2566.69	-0.172832
2568.06	0.0768156
2569.43	-0.264585
2570.8	0.348846
2572.17	0.583474
2573.54	0.287719
2574.91	-0.098877
2576.27	1.03062
2577.64	0.477138
2579.01	-0.152652
2580.38	0.399636
2581.75	0.056571
2583.11	0.016119
2584.48	0.915155
2585.85	0.161677
2587.21	0.227012
2588.58	0.201729
2589.95	0.252413
2591.31	0.0452366
2592.68	0.746367
2594.04	-0.0690651
2595.41	0.174192
2596.78	0.884647
2598.14	0.291941
2599.51	0.046977
2600.87	-0.0161858
2602.23	0.812607
2603.6	-0.260178
2604.96	0.102376
2606.32	-0.123302
2607.69	0.46484
2609.05	0.628945
2610.41	0.248438
2611.77	0.121968
2613.14	0.189129
2614.5	0.525188
2615.86	-0.430351
2617.22	0.565162
2618.58	-0.357086
2619.94	0.623975
2621.3	-0.159559
2622.67	-0.0146751
2624.03	0.264781
2625.39	0.14087
2626.75	-0.162269
2628.1	0.339087
2629.46	0.00534153
2630.82	0.177579
2632.18	0.0223026
2633.54	0.149409
2634.9	-0.465837
2636.26	-0.264514
2637.61	-0.00427341
2638.97	0.0187387
2640.33	0.397038
2641.69	0.65696
2643.04	-0.0580053
2644.4	0.0107307
2645.76	0.138227
2647.11	-0.16268
2648.47	0.139576
2649.82	0.631165
2651.18	0.28263
2652.53	0.110482
2653.89	0.0564508
2655.24	-0.128087
2656.6	0.0703554
2657.95	0.270519
2659.31	0.398865
2660.66	0.352325
2662.01	0.568604
2663.37	0.228548
2664.72	-0.0249491
2666.07	0.303999
2667.43	0.515001
2668.78	0.332345
2670.13	0.412362
2671.48	0.551348
2672.83	0.894696
2674.18	0.251296
2675.53	0.0595264
2676.89	-0.102073
2678.24	0.187183
2679.59	0.100729
2680.94	0.320577
2682.29	-0.0954285
2683.64	0.578076
2684.99	0.339757
2686.34	0.406796
2687.68	0.415481
2689.03	0.422066
2690.38	0.062726
2691.73	0.382476
2693.08	0.177052
2694.43	0.753153
2695.77	0.125455
2697.12	0.48449
2698.47	0.121478
2699.81	0.876443
2701.16	0.606408
2702.51	-0.0376911
2703.85	0.493303
2705.2	0.518244
2706.54	0.76084
2707.89	1.13378
2709.23	0.243299
2710.58	1.29742
2711.92	0.318014
2713.27	0.383979
2714.61	0.21727
2715.96	-0.153217
2717.3	0.39211
2718.64	0.529917
2719.99	0.667127
2721.33	0.963654
2722.67	0.953706
2724.01	0.826436
2725.36	1.25148
2726.7	0.773379
2728.04	0.192881
2729.38	0.354229
2730.72	0.64623
2732.06	0.923543
2733.41	0.328121
2734.75	0.678578
2736.09	0.273009
2737.43	0.318565
2738.77	0.364058
2740.11	0.481802
2741.44	0.65683
2742.78	0.220078
2744.12	0.160181
2745.46	0.317148
2746.8	0.662018
2748.14	0.0918007
2749.48	0.39268
2750.81	-0.0460072
2752.15	0.675869
2753.49	0.542571
2754.83	0.366189
2756.16	0.43637
2757.5	0.434385
2758.84	0.201232
2760.17	0.721444
2761.51	0.475374
2762.84	-0.146021
2764.18	0.463048
2765.51	0.261781
2766.85	0.132062
2768.18	-0.360823
2769.52	-0.132653
2770.85	0.295138
2772.19	0.301243
2773.52	-0.213906
2774.85	-0.195706
2776.19	0.0816431
2777.52	-0.187726
2778.85	0.292027
2780.18	-0.205196
2781.52	-0.155514
2782.85	-0.392792
2784.18	0.244972
2785.51	-0.178714
2786.84	0.329441
2788.17	0.508625
2789.51	0.116695
2790.84	0.0555944
2792.17	-0.24721
2793.5	0.208524
2794.83	0.178182
2796.16	-0.00991344
2797.48	-0.0417252
2798.81	0.596583
2800.14	-0.193575
2801.47	-0.0562639
2802.8	-0.161803
2804.13	0.0743113
2805.46	0.0245504
2806.79	0.400784
2808.11	0.192252
2809.44	0.395438
2810.77	0.143947
2812.09	0.504079
2813.42	0.0998974
2814.75	-0.0887508
2816.07	0.192911
2817.4	0.334677
2818.73	-0.302117
2820.05	0.606001
2821.38	1.10225
2822.7	0.746917
2824.03	0.0930624
2825.35	0.713713
2826.67	0.994266
2828	0.426135
2829.32	0.524518
2830.65	0.864345
2831.97	0.567513
2833.29	0.709387
2834.62	2.03959
2835.94	1.16087
2837.26	1.72468
2838.58	2.23084
2839.9	2.39694
2841.23	2.83178
2842.55	3.05521
2843.87	4.26914
2845.19	3.59061
2846.51	4.14284
2847.83	4.73823
2849.15	5.1217
2850.47	5.63177
2851.79	4.72739
2853.11	5.24947
2854.43	5.14888
2855.75	5.44354
2857.07	5.28603
2858.39	5.73602
2859.71	5.60683
2861.02	5.5479
2862.34	6.37772
2863.66	6.47248
2864.98	6.65128
2866.3	6.20928
2867.61	6.72703
2868.93	6.31485
2870.25	6.72134
2871.56	7.40992
2872.88	7.53397
2874.19	8.0509
2875.51	7.90326
2876.83	8.03501
2878.14	8.88251
2879.46	8.53311
2880.77	8.95786
2882.09	8.54103
2883.4	8.7588
2884.71	8.55729
2886.03	7.96409
2887.34	9.16774
2888.65	8.18094
2889.97	8.3573
2891.28	8.27937
2892.59	8.84492
2893.91	9.25553
2895.22	8.71441
2896.53	8.88932
2897.84	9.12233
2899.15	9.65123
2900.46	8.62887
2901.78	9.66394
2903.09	9.74818
2904.4	9.45504
2905.71	10.2255
2907.02	10.6196
2908.33	10.0642
2909.64	11.4553
2910.95	11.3927
2912.26	11.3021
2913.57	11.5877
2914.87	11.8424
2916.18	12.9191
2917.49	12.4105
2918.8	12.0259
2920.11	13.0398
2921.42	13.3835
2922.72	13.4083
2924.03	13.7717
2925.34	14.4172
2926.64	14.1275
2927.95	13.9637
2929.26	14.54
2930.56	14.7096
2931.87	14.7383
2933.17	15.1439
2934.48	14.8924
2935.78	15.0605
2937.09	14.2228
2938.39	14.1541
2939.7	14.8547
2941	14.9835
2942.31	13.8566
2943.61	13.4869
2944.91	12.5049
2946.22	12.364
2947.52	12.518
2948.82	11.7479
2950.13	11.7588
2951.43	11.5279
2952.73	11.2089
2954.03	11.195
2955.33	11.3902
2956.64	10.3417
2957.94	10.6553
2959.24	9.85455
2960.54	9.70331
2961.84	9.78038
2963.14	8.32988
2964.44	7.90099
2965.74	8.52244
2967.04	7.96072
2968.34	8.67534
2969.64	7.96858
2970.94	7.95046
2972.24	7.10288
2973.53	7.25468
2974.83	7.0687
2976.13	7.07852
2977.43	6.17058
2978.73	6.11827
2980.02	6.1753
2981.32	4.8649
2982.62	4.37035
2983.91	5.59203
2985.21	5.31113
2986.51	4.89272
2987.8	4.8144
2989.1	4.49907
2990.4	4.07177
2991.69	3.32028
2992.99	4.33772
2994.28	3.46972
2995.57	3.55526
2996.87	3.02167
2998.16	3.20389
2999.46	2.68507
3000.75	2.30789
3002.05	2.50673
3003.34	2.2438
3004.63	1.72909
3005.92	1.50834
3007.22	2.14059
3008.51	1.76344
3009.8	1.4411
3011.09	1.87241
3012.39	0.989985
3013.68	1.25289
3014.97	0.972522
3016.26	0.679871
3017.55	1.02931
3018.84	1.26798
3020.13	1.0059
3021.42	0.910156
3022.71	0.0631285
3024	0.908813
3025.29	0.69808
3026.58	0.598234
3027.87	-0.164704
3029.16	0.140145
3030.45	0.86161
3031.73	0.535348
3033.02	0.40449
3034.31	-0.0707159
3035.6	0.446822
3036.89	0.0241632
3038.17	-0.139077
3039.46	0.713279
3040.75	0.131642
3042.03	0.208878
3043.32	0.0803108
3044.61	-0.142206
3045.89	0.787098
3047.18	0.202159
3048.46	0.291068
3049.75	0.110608
3051.03	0.560678
3052.32	0.220692
3053.6	0.740424
3054.89	0.113056
3056.17	0.329858
3057.45	0.735582
3058.74	0.540151
3060.02	0.875574
3061.31	0.204385
3062.59	0.664509
3063.87	-0.05618
3065.15	0.789484
3066.44	0.6995
3067.72	0.584128
3069	0.0750771
3070.28	0.73518
3071.56	0.129091
3072.84	0.51385
3074.13	0.203114
3075.41	0.325952
3076.69	0.0544024
3077.97	0.136831
3079.25	0.248235
3080.53	-0.0447559
3081.81	0.723049
3083.09	-0.216151
3084.37	-0.0417843
3085.64	-0.369307
3086.92	-0.0324564
3088.2	0.0454865
3089.48	0.122383
3090.76	-0.262748
3092.04	0.193285
3093.31	0.161211
3094.59	0.00771427
3095.87	-0.0637999
3097.14	0.461442
3098.42	0.0242062
3099.7	-0.00643444
3100.97	-0.0641661
3102.25	0.162755
3103.53	-0.368007
3104.8	0.0634661
3106.08	-0.0451965
3107.35	-0.0168819
3108.63	0.202738
3109.9	-0.00883961
3111.18	0.2145
3112.45	0.154935
3113.73	0.299412
3115	-0.0981636
3116.27	0.411924
3117.55	0.242756
3118.82	0.248271
3120.09	0.31991
3121.37	0.471478
3122.64	0.107152
3123.91	0.555723
3125.18	0.300275
3126.45	0.262523
3127.73	0.577641
3129	0.974726
3130.27	1.0343
3131.54	0.783276
3132.81	0.559373
3134.08	1.1861
3135.35	0.934028
3136.62	0.249715
3137.89	0.752064
3139.16	0.835624
3140.43	0.35368
3141.7	1.40583
3142.97	1.00582
3144.24	1.15791
3145.51	0.92193
3146.78	1.31771
3148.04	1.48654
3149.31	0.826223
