200.533	-0.175508
202.348	-0.13558
204.162	-0.0941372
205.976	0.945589
207.792	0.769032
209.605	0.2269
211.418	1.14043
213.23	0.497038
215.044	0.240564
216.856	-0.210661
218.667	0.622183
220.478	0.728546
222.289	0.328074
224.102	-0.191654
225.912	0.667105
227.721	1.09016
229.531	0.932446
231.34	0.677162
233.148	1.31394
234.956	0.889574
236.766	0.732613
238.574	0.0727406
240.381	0.115629
242.188	0.740551
243.994	1.15074
245.801	0.595472
247.606	1.36482
249.412	0.656792
251.217	0.836748
253.024	0.722309
254.828	1.37683
256.632	0.824356
258.436	0.51461
260.239	1.17126
262.042	0.433514
263.845	0.493252
265.647	0.289444
267.449	1.17041
269.25	0.508238
271.052	0.181837
272.852	0.456097
274.653	0.848429
276.453	0.466433
278.253	1.35859
280.052	0.247395
281.852	1.25205
283.65	0.231884
285.449	1.27721
287.247	1.11903
289.044	0.553469
290.842	0.301483
292.639	0.55452
294.436	1.00095
296.232	1.25795
298.028	0.823324
299.821	1.48867
301.617	1.05447
303.412	0.619005
305.206	0.682888
307	0.745071
308.794	1.02125
310.588	0.988253
312.381	1.17154
314.172	-0.309422
315.964	0.617662
317.756	0.190239
319.548	0.622581
321.34	0.437357
323.131	1.06394
324.921	0.665783
326.71	0.00452614
328.5	0.441046
330.29	0.757368
332.079	0.593607
333.868	0.0918236
335.654	0.447763
337.443	-0.0853996
339.231	0.646124
341.018	0.728907
342.804	0.547279
344.591	0.747972
346.377	0.591011
348.163	-0.113956
349.947	-0.79401
351.733	-0.542995
353.518	0.470509
355.303	-0.283548
357.085	-0.180826
358.869	-0.00888062
360.653	0.613401
362.435	0.709719
364.218	0.424143
366.001	0.30409
367.781	0.206638
369.563	0.392424
371.345	0.221069
373.124	0.640345
374.905	0.136396
376.686	0.294569
378.464	0.453215
380.244	0.118309
382.022	0.209507
383.801	0.514288
385.58	0.139072
387.357	0.494572
389.135	0.264364
390.911	-0.0581226
392.689	0.207853
394.466	0.380835
396.241	0.413475
398.018	1.03342
399.792	0.31431
401.568	0.346033
403.341	0.259243
405.117	0.758375
406.889	-0.105836
408.664	-0.00814819
410.436	0.863564
412.21	0.819738
413.981	0.283888
415.755	-0.250695
417.525	0.858503
419.298	-0.33083
421.068	0.521851
422.84	0.0597973
424.609	0.112964
426.38	-0.422266
428.149	0.33234
429.919	-0.181466
431.688	-0.0145597
433.455	0.504885
435.225	-0.101641
436.992	0.277501
438.76	0.491186
440.527	0.0923109
442.293	-0.00470161
444.06	-0.269232
445.826	0.541171
447.593	0.599339
449.357	-0.11496
451.122	0.387022
452.888	0.258423
454.651	0.503608
456.415	0.352168
458.18	0.433596
459.942	0.212556
461.705	-0.0302467
463.469	0.612986
465.23	0.516276
466.991	0.517331
468.752	0.592624
470.515	0.485069
472.275	0.750701
474.035	-0.00907612
475.797	-0.0503521
477.556	0.370781
479.315	0.858847
481.073	0.762945
482.834	-0.0545998
484.592	0.364273
486.349	0.0876064
488.106	0.0939293
489.863	0.47683
491.622	0.0917587
493.378	0.127691
495.134	0.772132
496.889	0.106729
498.645	0.30661
500.401	-0.0332594
502.156	-0.163506
503.91	0.644209
505.664	0.628489
507.417	0.469365
509.171	0.966256
510.923	0.307751
512.678	-0.400586
514.43	0.888736
516.182	0.387527
517.933	1.10748
519.684	0.602844
521.435	0.731806
523.186	0.390207
524.936	-0.373816
526.686	0.505035
528.435	0.726553
530.184	0.314968
531.933	0.605791
533.682	0.637453
535.43	0.152538
537.18	0.577469
538.927	-0.354731
540.674	0.11232
542.421	0.46056
544.167	0.318846
545.913	0.549215
547.659	-0.380985
549.403	0.406792
551.148	0.614288
552.893	0.220306
554.637	-0.0107365
556.381	0.705524
558.125	0.867653
559.868	0.753929
561.611	0.0659542
563.354	0.231121
565.097	-0.223511
566.839	0.403147
568.581	-0.806111
570.322	0.488808
572.063	1.37229
573.802	0.30867
575.542	-0.0177956
577.283	0.186222
579.022	0.00236511
580.762	0.76133
582.501	0.55611
584.24	0.165871
585.976	0.233612
587.714	0.368336
589.452	-0.465188
591.19	0.310261
592.927	-0.203522
594.663	0.478882
596.398	0.563223
598.134	0.371454
599.87	-0.00493622
601.605	-0.566651
603.338	-0.923178
605.073	0.235498
606.808	0.242142
608.542	-0.188831
610.274	-0.091589
612.007	-0.360622
613.74	0.266098
615.473	0.228851
617.204	0.421051
618.936	0.360317
620.668	0.595379
622.397	0.507845
624.128	-0.449643
625.859	0.0333958
627.588	-0.304171
629.318	0.343149
631.048	-0.352051
632.775	1.00991
634.505	0.822067
636.233	0.1542
637.96	0.624695
639.688	0.611164
641.416	0.136425
643.142	0.387585
644.869	0.408573
646.594	0.111744
648.32	0.81876
650.045	0.712603
651.771	0.204184
653.496	0.361361
655.219	0.114901
656.944	0.395563
658.667	0.382048
660.391	0.961075
662.113	-0.0831261
663.837	-0.0128651
665.558	1.12805
667.281	0.528421
669.002	0.727879
670.724	0.288273
672.444	0.698473
674.166	0.0140533
675.885	0.569878
677.606	0.256971
679.325	0.196306
681.045	1.39834
682.763	1.08074
684.483	1.58775
686.2	0.802105
687.917	0.842537
689.636	0.581703
691.352	0.849442
693.07	1.43859
694.786	0.59837
696.501	0.470596
698.219	0.340885
699.933	0.807474
701.65	0.742695
703.364	0.469584
705.078	0.563141
706.793	0.265545
708.506	0.197067
710.219	1.54863
711.934	1.15744
713.646	1.08667
715.358	1.01569
717.071	0.967598
718.782	1.28476
720.493	1.53333
722.204	0.984774
723.916	1.4838
725.626	0.981606
727.336	1.59268
729.045	1.15815
730.756	0.927668
732.464	0.674404
734.173	1.50728
735.881	1.25377
737.59	1.45296
739.297	1.85607
741.004	1.08813
742.711	1.38211
744.417	1.61055
746.125	1.45869
747.831	1.12941
749.537	1.79226
751.242	1.19773
752.946	1.10027
754.651	0.960142
756.357	0.417345
758.061	1.04749
759.764	1.36535
761.467	1.43753
763.17	1.39789
764.872	1.67385
766.575	1.1348
768.276	1.56415
769.978	1.7188
771.679	1.71175
773.382	1.74755
775.083	1.85046
776.783	1.6152
778.483	1.72133
780.182	1.89795
781.882	1.57881
783.581	2.48179
785.279	2.34196
786.978	2.01686
788.676	1.79959
790.373	2.2555
792.071	1.98293
793.768	1.77589
795.464	1.61395
797.161	1.11585
798.857	1.63468
800.552	1.90831
802.248	1.64412
803.941	1.69613
805.636	1.9501
807.33	2.26984
809.024	1.77881
810.718	2.6104
812.412	2.13863
814.105	2.67486
815.798	2.20241
817.49	2.4017
819.183	1.05877
820.873	2.62123
822.564	2.12914
824.256	2.26348
825.947	2.33329
827.637	2.27314
829.328	2.35142
831.016	2.21226
832.705	2.79086
834.395	2.45972
836.084	2.5091
837.772	3.38393
839.459	1.712
841.147	2.09104
842.835	2.0212
844.522	3.11255
846.209	2.32811
847.894	2.15003
849.581	2.24451
851.267	2.70173
852.953	1.36992
854.637	1.31591
856.322	2.51941
858.007	1.74467
859.689	2.00084
861.374	1.01582
863.058	2.03205
864.739	1.94266
866.423	1.1753
868.106	1.44374
869.787	1.23792
871.469	1.88867
873.151	1.321
874.831	1.56536
876.512	1.56155
878.193	1.46749
879.872	1.64409
881.553	1.25572
883.231	1.18213
884.911	1.30985
886.591	0.893517
888.268	1.39984
889.947	1.15887
891.623	1.2312
893.302	2.04431
894.978	1.36907
896.656	1.30012
898.331	1.76856
900.008	2.03244
901.683	0.860535
903.359	1.95043
905.033	1.04842
906.709	1.28732
908.383	2.17325
910.058	1.3663
911.731	1.34121
913.405	1.60621
915.078	1.84912
916.752	1.53707
918.423	1.60225
920.096	0.914707
921.768	1.04787
923.438	1.69112
925.111	1.38643
926.781	0.62159
928.452	0.853338
930.122	1.37387
931.791	0.571552
933.462	1.62294
935.13	1.70383
936.799	1.2341
938.468	1.16288
940.136	1.04963
941.803	0.276546
943.472	1.9757
945.139	0.960567
946.805	1.35586
948.473	1.15202
950.139	0.768461
951.804	0.00805855
953.471	1.16704
955.136	1.0713
956.801	1.20081
958.465	0.519674
960.131	0.813683
961.794	1.0885
963.458	1.29709
965.12	0.352846
966.785	0.000732422
968.447	0.993664
970.109	1.36355
971.771	0.869253
973.432	1.12787
975.095	0.990891
976.756	1.1224
978.417	0.570702
980.077	0.727877
981.737	0.884415
983.396	0.485241
985.057	1.21175
986.716	1.62463
988.375	0.905809
990.033	0.627769
991.691	0.614149
993.349	0.335238
995.006	0.719011
996.663	0.0656624
998.32	1.13278
999.976	0.25913
1001.63	1.69808
1003.29	0.779743
1004.95	1.22552
1006.6	0.264093
1008.26	1.32443
1009.91	0.913652
1011.56	0.284872
1013.22	0.753414
1014.87	-0.0483036
1016.53	0.618225
1018.18	0.912964
1019.83	0.268389
1021.48	0.609871
1023.14	0.778158
1024.79	0.532761
1026.44	0.397638
1028.09	0.896175
1029.74	0.585157
1031.39	0.403227
1033.04	0.720827
1034.69	0.249874
1036.34	0.889122
1037.99	0.654675
1039.64	0.790508
1041.29	0.927294
1042.94	0.522745
1044.58	0.0781384
1046.23	0.24523
1047.88	0.697701
1049.52	0.132166
1051.17	0.63291
1052.82	0.722391
1054.46	0.812519
1056.11	0.315817
1057.75	0.253191
1059.4	0.820248
1061.04	0.994923
1062.69	1.103
1064.33	0.274515
1065.98	0.444468
1067.62	1.13409
1069.26	0.344255
1070.9	0.140306
1072.55	0.630928
1074.19	0.88331
1075.83	0.616734
1077.47	0.699545
1079.11	0.567583
1080.76	0.545315
1082.4	0.522974
1084.04	0.434044
1085.68	0.255674
1087.32	0.485676
1088.95	0.560331
1090.59	0.393923
1092.23	0.0529156
1093.87	0.532303
1095.51	0.903246
1097.15	0.779213
1098.78	0.679268
1100.42	0.453314
1102.06	0.89789
1103.69	-0.0100498
1105.33	0.396582
1106.97	0.481419
1108.6	0.587183
1110.24	-0.0400009
1111.87	0.319193
1113.51	0.116844
1115.14	0.0843849
1116.77	0.587303
1118.41	1.08973
1120.04	0.521547
1121.67	0.876438
1123.31	0.868996
1124.94	0.734888
1126.57	0.217373
1128.2	0.984465
1129.83	0.405516
1131.47	0.768341
1133.1	0.404766
1134.72	0.318871
1136.36	0.253256
1137.98	-0.220089
1139.62	0.757271
1141.24	-0.466867
1142.87	0.144447
1144.5	0.243547
1146.13	-0.423712
1147.76	-0.34301
1149.38	0.292974
1151.01	0.20524
1152.64	0.16011
1154.27	0.625336
1155.89	-0.144787
1157.52	-0.446552
1159.14	-0.0243645
1160.77	0.313993
1162.39	0.71793
1164.02	0.145508
1165.64	0.339336
1167.27	-0.0201283
1168.89	0.341436
1170.51	0.253624
1172.14	-0.0286388
1173.76	0.111053
1175.38	0.503061
1177	0.618027
1178.63	-1.17313
1180.25	-0.251251
1181.87	-0.0694618
1183.49	0.684006
1185.11	-0.126934
1186.73	-0.0939083
1188.35	-0.126972
1189.97	0.173948
1191.59	0.113104
1193.21	-0.0762577
1194.83	-0.140482
1196.45	0.676031
1198.07	0.654552
1199.68	0.134296
1201.3	0.0369778
1202.92	0.695942
1204.53	0.857798
1206.15	0.501638
1207.77	0.126965
1209.38	0.524588
1211	-0.0178547
1212.62	0.458683
1214.23	1.03515
1215.84	-0.121199
1217.46	0.572754
1219.07	0.32855
1220.69	1.16409
1222.3	1.31486
1223.91	1.13609
1225.53	0.608297
1227.14	0.663183
1228.75	1.54772
1230.36	0.965837
1231.97	0.675774
1233.59	1.13194
1235.2	0.949522
1236.81	1.05855
1238.42	1.83092
1240.03	1.71562
1241.64	1.43511
1243.25	0.843512
1244.85	1.01595
1246.46	1.18666
1248.07	0.486544
1249.68	1.50255
1251.29	1.17311
1252.9	1.31992
1254.5	1.79893
1256.11	1.86619
1257.72	1.64606
1259.32	1.03473
1260.93	1.79074
1262.54	1.40919
1264.14	1.27595
1265.75	1.59778
1267.35	2.06362
1268.96	1.59499
1270.56	0.999996
1272.16	2.10333
1273.77	1.60832
1275.37	1.13244
1276.97	1.40116
1278.57	1.73043
1280.18	0.981667
1281.78	1.72318
1283.38	1.18165
1284.98	1.5721
1286.58	1.79847
1288.18	1.07584
1289.78	1.65693
1291.38	0.833652
1292.99	1.7459
1294.58	1.97484
1296.18	1.16876
1297.78	2.30091
1299.38	1.92287
1300.98	1.48079
1302.58	1.28443
1304.17	1.66299
1305.77	1.36113
1307.37	2.06531
1308.97	0.818604
1310.56	0.988564
1312.16	1.52732
1313.76	1.77999
1315.35	2.11571
1316.95	1.69713
1318.54	1.25978
1320.14	2.02557
1321.73	2.2589
1323.32	2.08203
1324.92	1.86178
1326.51	1.07124
1328.1	1.29547
1329.7	0.64953
1331.29	1.2617
1332.88	1.43193
1334.47	1.66635
1336.07	1.82256
1337.66	2.12068
1339.25	1.30864
1340.84	1.6831
1342.43	1.79159
1344.02	1.71548
1345.61	1.45702
1347.2	1.68074
1348.79	1.8469
1350.37	1.13657
1351.96	0.991604
1353.55	1.11016
1355.14	0.591246
1356.73	1.2721
1358.31	0.573481
1359.9	1.83063
1361.49	1.14883
1363.07	1.44374
1364.66	1.17954
1366.25	0.437946
1367.83	0.65436
1369.42	0.992069
1371	1.37179
1372.59	0.778755
1374.17	1.22236
1375.75	0.592611
1377.34	1.35589
1378.92	2.05858
1380.5	0.371746
1382.09	0.652643
1383.67	1.11017
1385.25	0.691092
1386.83	0.172337
1388.42	1.44151
1390	0.805248
1391.58	1.18295
1393.16	1.06586
1394.74	1.08828
1396.32	1.40778
1397.9	1.3294
1399.48	0.615269
1401.06	1.16769
1402.64	0.887218
1404.21	0.488348
1405.79	0.624651
1407.37	0.979692
1408.95	0.68391
1410.53	0.586679
1412.1	1.20027
1413.68	1.00312
1415.26	0.607267
1416.83	0.723127
1418.41	0.719997
1419.98	0.737171
1421.56	0.815241
1423.13	0.876244
1424.71	0.369226
1426.28	1.12397
1427.86	0.777397
1429.43	0.902706
1431	0.869022
1432.58	0.951488
1434.15	1.30774
1435.72	1.21073
1437.29	0.681627
1438.87	1.15651
1440.44	1.7705
1442.01	1.93405
1443.58	1.86299
1445.15	1.43882
1446.72	1.52597
1448.29	1.77066
1449.86	1.56375
1451.43	1.67221
1453	1.38828
1454.57	1.28191
1456.14	1.8247
1457.71	1.73683
1459.27	1.68608
1460.84	2.1243
1462.41	2.12626
1463.98	1.79103
1465.54	0.943254
1467.11	1.70658
1468.67	0.820593
1470.24	1.23215
1471.81	0.291742
1473.37	1.31485
1474.94	0.927015
1476.5	0.579201
1478.07	1.23148
1479.63	0.0213051
1481.19	0.751637
1482.76	0.286234
1484.32	0.369362
1485.88	0.706532
1487.45	0.493855
1489.01	0.611897
1490.57	0.550611
1492.13	0.954941
1493.69	0.124405
1495.26	0.131578
1496.82	0.565622
1498.38	0.200455
1499.94	-0.260019
1501.5	0.369413
1503.06	0.359531
1504.62	0.234884
1506.17	0.652872
1507.73	0.720903
1509.29	0.593851
1510.85	-0.11372
1512.41	0.142557
1513.97	-0.218267
1515.52	0.729151
1517.08	0.254686
1518.64	0.434601
1520.19	0.174599
1521.75	0.298155
1523.31	0.24885
1524.86	0.694683
1526.42	-0.0443935
1527.97	0.0356998
1529.52	-0.113462
1531.08	0.857943
1532.63	0.348717
1534.19	0.542959
1535.74	0.757433
1537.29	0.519621
1538.85	0.472202
1540.4	0.727217
1541.95	0.755835
1543.5	0.351406
1545.06	0.962662
1546.61	0.652035
1548.16	0.585695
1549.71	0.950523
1551.26	1.14643
1552.81	1.0436
1554.36	0.624897
1555.91	1.60991
1557.46	0.954271
1559.01	0.451862
1560.56	1.25875
1562.11	0.855688
1563.65	0.827591
1565.2	1.15496
1566.75	1.35194
1568.29	1.66055
1569.84	1.68859
1571.39	1.24928
1572.94	2.15349
1574.48	2.0868
1576.03	1.90816
1577.57	1.99127
1579.12	1.60839
1580.66	2.06679
1582.21	1.29411
1583.75	0.784021
1585.3	1.60173
1586.84	1.35522
1588.38	1.46413
1589.93	1.08622
1591.47	1.5122
1593.01	1.56316
1594.55	1.70734
1596.1	2.11402
1597.64	1.04103
1599.18	1.63714
1600.72	1.85981
1602.26	1.22012
1603.8	1.61253
1605.34	1.59081
1606.88	1.32239
1608.42	0.937757
1609.96	1.5454
1611.5	1.02156
1613.04	1.56531
1614.58	1.13037
1616.12	0.845373
1617.65	1.21758
1619.19	0.916939
1620.73	1.38688
1622.27	1.50313
1623.8	1.35861
1625.34	1.10183
1626.87	1.23684
1628.41	1.6315
1629.95	1.66819
1631.48	0.974213
1633.02	1.868
1634.55	1.43599
1636.09	1.52823
1637.62	1.67792
1639.15	1.71669
1640.69	1.55046
1642.22	1.71861
1643.76	1.28888
1645.29	1.50891
1646.82	2.06183
1648.35	1.9817
1649.88	1.36395
1651.42	1.45382
1652.95	1.80537
1654.48	1.86188
1656.01	1.60434
1657.54	1.9953
1659.07	1.8475
1660.6	1.47547
1662.13	1.76741
1663.66	1.76126
1665.19	1.77266
1666.72	2.04305
1668.24	1.72485
1669.77	1.57548
1671.3	1.68673
1672.83	1.26561
1674.35	1.89511
1675.88	1.23514
1677.41	1.40239
1678.93	1.4205
1680.46	1.28975
1681.99	0.735308
1683.51	0.621734
1685.04	0.159806
1686.56	0.615952
1688.09	1.10896
1689.61	0.686178
1691.13	0.245927
1692.66	0.684634
1694.18	0.775275
1695.71	0.792413
1697.23	0.589848
1698.75	-0.30696
1700.27	0.585064
1701.8	-0.22098
1703.32	0.37643
1704.84	-0.55756
1706.36	-0.0533981
1707.88	0.504004
1709.4	-0.102101
1710.92	0.381816
1712.44	0.19433
1713.96	0.605286
1715.48	0.364002
1717	-0.184484
1718.52	0.0628986
1720.04	0.544488
1721.56	0.177622
1723.07	0.118761
1724.59	0.061635
1726.11	-0.443432
1727.63	-0.207944
1729.14	0.802723
1730.66	-0.14308
1732.18	0.0455952
1733.69	-0.204553
1735.21	0.346908
1736.72	-0.307827
1738.24	0.294751
1739.75	0.100067
1741.27	0.118615
1742.78	-0.100474
1744.3	-0.223179
1745.81	-0.067975
1747.32	-0.120111
1748.84	0.18561
1750.35	-0.00478649
1751.86	-0.462982
1753.37	-0.235723
1754.89	0.314539
1756.4	-0.291514
1757.91	0.124307
1759.42	0.203982
1760.93	-0.239945
1762.44	-0.150484
1763.95	-0.353221
1765.46	0.24251
1766.97	0.324708
1768.48	0.038209
1769.99	0.0157099
1771.5	-0.518845
1773.01	-0.0728521
1774.52	0.212345
1776.03	0.35309
1777.53	0.0304337
1779.04	0.187846
1780.55	-0.130071
1782.06	0.0102577
1783.56	0.276148
1785.07	0.0141621
1786.57	0.337701
1788.08	0.191703
1789.59	-0.192098
1791.09	0.0599709
1792.6	-0.00994015
1794.1	0.344012
1795.6	-0.0956774
1797.11	0.0365486
1798.61	-0.220236
1800.12	-0.0638847
1801.62	0.1274
1803.12	0.538429
1804.63	0.0739422
1806.13	0.0990744
1807.63	0.499712
1809.13	0.153481
1810.63	-0.0131044
1812.14	0.436109
1813.64	0.294649
1815.14	0.386041
1816.64	0.298999
1818.14	0.707814
1819.64	0.0563946
1821.14	0.289057
1822.64	0.0180836
1824.14	0.325541
1825.63	0.467421
1827.13	0.533677
1828.63	0.603683
1830.13	0.604642
1831.63	0.511848
1833.12	0.32603
1834.62	0.0640583
1836.12	0.29742
1837.62	0.500338
1839.11	0.233419
1840.61	0.412817
1842.1	0.528847
1843.6	0.48305
1845.09	0.490193
1846.59	0.368429
1848.08	0.360318
1849.58	0.79436
1851.07	0.706682
1852.57	0.665566
1854.06	0.900661
1855.55	0.426102
1857.04	0.0347824
1858.54	0.302659
1860.03	0.437252
1861.52	0.522783
1863.01	0.610464
1864.5	0.741417
1866	1.02368
1867.49	0.170579
1868.98	0.0771074
1870.47	0.613386
1871.96	0.562322
1873.45	0.438046
1874.94	0.996408
1876.43	0.879491
1877.92	0.553268
1879.41	0.497566
1880.89	0.395229
1882.38	0.668636
1882.48	0.691717
1883.97	0.257229
1885.47	0.815035
1886.96	0.273534
1888.46	0.915456
1889.95	0.582646
1891.44	0.669184
1892.94	0.271544
1894.43	0.642036
1895.92	1.06738
1897.41	1.11176
1898.9	1.08643
1900.4	0.0851517
1901.89	1.23825
1903.38	0.874814
1904.87	0.648174
1906.36	0.350863
1907.85	0.783123
1909.34	0.816751
1910.83	-0.379995
1912.32	0.680533
1913.81	0.978455
1915.29	0.652189
1916.78	0.620231
1918.27	0.500719
1919.76	0.20724
1921.25	0.571966
1922.74	0.833232
1924.22	1.19973
1925.71	0.650613
1927.2	0.96894
1928.68	0.336174
1930.17	0.707592
1931.65	0.627494
1933.14	-0.0437298
1934.63	0.390309
1936.11	0.163754
1937.59	0.592501
1939.08	0.622456
1940.56	0.255676
1942.05	0.563772
1943.53	0.631826
1945.01	0.787526
1946.5	0.409382
1947.98	0.306856
1949.46	1.21957
1950.94	0.597324
1952.43	0.197903
1953.91	0.124752
1955.39	0.549863
1956.87	0.42551
1958.35	0.782994
1959.83	0.884032
1961.31	0.454362
1962.79	0.24822
1964.27	0.573088
1965.75	0.948206
1967.23	0.722723
1968.71	0.667428
1970.19	0.833405
1971.67	0.742485
1973.14	-0.304253
1974.62	0.458611
1976.1	0.913886
1977.58	0.483137
1979.05	0.665898
1980.53	0.746311
1982.01	1.0473
1983.48	0.549008
1984.96	0.882588
1986.43	0.72337
1987.91	0.937196
1989.38	-0.00034523
1990.86	0.875275
1992.33	0.70275
1993.81	0.532084
1995.28	1.2248
1996.76	1.1069
1998.23	0.499264
1999.7	0.482231
2001.18	0.734205
2002.65	0.428506
2004.12	0.207145
2005.59	1.08178
2007.06	0.84522
2008.54	0.458856
2010.01	0.343469
2011.48	0.481493
2012.95	1.46115
2014.42	0.773779
2015.89	1.01075
2017.36	0.438746
2018.83	0.504646
2020.3	0.502345
2021.77	0.667717
2023.24	0.397018
2024.71	0.463389
2026.17	0.363886
2027.64	0.753131
2029.11	0.406819
2030.58	0.733652
2032.04	0.844106
2033.51	0.586153
2034.98	0.311198
2036.45	-0.199722
2037.91	0.363606
2039.38	0.338322
2040.84	0.464182
2042.31	0.355296
2043.77	0.533453
2045.24	1.01609
2046.7	1.01224
2048.17	0.992058
2049.63	0.246634
2051.1	0.207055
2052.56	0.721519
2054.02	0.389881
2055.48	0.662484
2056.95	0.662954
2058.41	0.965378
2059.87	0.172392
2061.33	0.491922
2062.8	1.06503
2064.26	0.713918
2065.72	0.717939
2067.18	1.63213
2068.64	0.864392
2070.1	0.820831
2071.56	0.221786
2073.02	0.481069
2074.48	0.925198
2075.94	0.813115
2077.4	1.20562
2078.86	0.805956
2080.31	1.28118
2081.77	0.67784
2083.23	0.74692
2084.69	0.932531
2086.14	0.713072
2087.6	0.812226
2089.06	0.860164
2090.52	0.991681
2091.97	0.8711
2093.43	0.482017
2094.88	0.730218
2096.34	1.16169
2097.79	0.904786
2099.25	0.630457
2100.7	0.506506
2102.16	0.951206
2103.61	0.778734
2105.07	1.12592
2106.52	0.774401
2107.97	0.441528
2109.43	0.642991
2110.88	1.0769
2112.33	0.708524
2113.78	0.820709
2115.24	0.846903
2116.69	0.838289
2118.14	0.630817
2119.59	1.40505
2121.04	1.18611
2122.49	1.81639
2123.94	1.27154
2125.39	1.29169
2126.84	0.880376
2128.29	1.56163
2129.74	1.57737
2131.19	1.30935
2132.64	1.32165
2134.09	1.69776
2135.54	2.19049
2136.98	1.75967
2138.43	1.54699
2139.88	1.28788
2141.33	1.62648
2142.77	1.96724
2144.22	2.34247
2145.67	1.62596
2147.11	1.81899
2148.56	1.56392
2150.01	2.20186
2151.45	1.86079
2152.9	1.78309
2154.34	1.5549
2155.79	1.45849
2157.23	2.57142
2158.67	2.0455
2160.12	2.0684
2161.56	1.44793
2163	2.17283
2164.45	2.13801
2165.89	2.70225
2167.33	1.19044
2168.78	2.35151
2170.22	2.34657
2171.66	2.40463
2173.1	1.96028
2174.54	1.99603
2175.98	2.29682
2177.42	2.19873
2178.86	2.26816
2180.3	1.90694
2181.74	1.49725
2183.18	2.46867
2184.62	2.2766
2186.06	2.28421
2187.5	2.27521
2188.94	2.64905
2190.38	2.15742
2191.82	1.7484
2193.25	2.37038
2194.69	2.04116
2196.13	1.52593
2197.57	1.70661
2199	1.73461
2200.44	1.61128
2201.88	1.48781
2203.31	2.01259
2204.75	1.59336
2206.18	1.85576
2207.62	1.72125
2209.05	1.42097
2210.49	1.76524
2211.92	1.42927
2213.36	1.55532
2214.79	1.21844
2216.22	1.39463
2217.66	0.747534
2219.09	1.75208
2220.52	1.9825
2221.96	1.10881
2223.39	1.04187
2224.82	1.18688
2226.25	1.34542
2227.68	0.448792
2229.11	0.340195
2230.55	0.870416
2231.98	1.38268
2233.41	1.0103
2234.84	1.31032
2236.27	1.05617
2237.7	1.11514
2239.12	1.60129
2240.55	0.736487
2241.98	1.0492
2243.41	1.47808
2244.84	1.1573
2246.27	1.03123
2247.7	0.348202
2249.12	0.705599
2250.55	0.814748
2251.98	0.383749
2253.41	0.537604
2254.83	0.626572
2256.26	0.896169
2257.68	0.714783
2259.11	0.846225
2260.54	0.674012
2261.96	0.895122
2263.39	0.859163
2264.81	1.05124
2266.24	0.429967
2267.66	0.669019
2269.08	1.31368
2270.51	0.948139
2271.93	0.614131
2273.35	0.540254
2274.78	1.08546
2276.2	0.555862
2277.62	0.580393
2279.04	0.60504
2280.47	1.08619
2281.89	-0.0310669
2283.31	0.221408
2284.73	0.702508
2286.15	0.221132
2287.57	0.931957
2288.99	0.418924
2290.41	0.968245
2291.83	0.455901
2293.25	0.40122
2294.67	0.59188
2296.09	0.176934
2297.51	0.367429
2298.93	0.36156
2300.35	0.896815
2301.76	-0.0591583
2303.18	0.985866
2304.6	0.407184
2306.02	0.780319
2307.44	0.397464
2308.85	0.309299
2310.27	0.105051
2311.69	0.44285
2313.1	0.204891
2314.52	0.345933
2315.93	0.158859
2317.35	0.351719
2318.76	0.413615
2320.18	-0.382401
2321.59	0.304266
2323.01	0.559413
2324.42	0.464407
2325.83	1.27332
2327.25	0.561691
2328.66	-0.100984
2330.07	0.785642
2331.49	0.635515
2332.9	0.355588
2334.31	-0.0380163
2335.72	0.161186
2337.13	0.705013
2338.55	-0.068244
2339.96	0.948539
2341.37	0.550351
2342.78	0.759052
2344.19	0.311402
2345.6	0.667819
2347.01	0.0251055
2348.42	0.34903
2349.83	0.361156
2351.24	0.175921
2352.65	0.26714
2354.05	0.862559
2355.46	0.640656
2356.87	0.353537
2358.28	0.0507145
2359.69	0.447357
2361.09	0.453784
2362.5	-0.172146
2363.91	0.223463
2365.31	0.699018
2366.72	0.624355
2368.13	0.0502539
2369.53	0.253092
2370.94	0.731655
2372.34	-0.38322
2373.75	0.436934
2375.15	0.291217
2376.56	-0.385851
2377.96	0.479911
2379.37	0.265583
2380.77	0.53064
2382.17	0.311866
2383.58	0.0281038
2384.98	0.656422
2386.38	0.445034
2387.79	0.235499
2389.19	0.211583
2390.59	0.364882
2391.99	0.456102
2393.39	0.72383
2394.8	-0.0729704
2396.2	-0.247989
2397.6	0.674689
2399	0.088294
2400.4	-0.131694
2401.8	0.490708
2403.2	0.493639
2404.6	0.591286
2406	0.417718
2407.4	0.512568
2408.79	0.177882
2410.19	0.0173693
2411.59	-0.0159235
2412.99	-0.047987
2414.39	0.143523
2415.78	-0.0744038
2417.18	-0.147824
2418.58	0.128476
2419.98	0.215423
2421.37	0.476487
2422.77	0.214298
2424.16	-0.0325317
2425.56	0.069273
2426.96	0.235263
2428.35	-0.00955105
2429.74	0.143392
2431.14	0.456228
2432.53	0.261631
2433.93	0.320206
2435.32	0.313601
2436.72	0.161735
2438.11	0.293525
2439.5	0.248564
2440.9	0.535686
2442.29	0.377283
2443.68	0.139214
2445.07	0.51967
2446.47	0.249528
2447.86	0.454853
2449.25	0.311484
2450.64	0.0894222
2452.03	0.137404
2453.42	-0.0982876
2454.81	0.60082
2456.2	0.114429
2457.59	0.0557156
2458.98	0.04426
2460.37	0.364079
2461.76	0.524454
2463.15	-0.0909662
2464.54	0.0989523
2465.93	-0.0275955
2467.32	0.0510397
2468.7	0.36621
2470.09	-0.375855
2471.48	0.36388
2472.87	0.172319
2474.25	0.058569
2475.64	-0.197564
2477.03	0.206298
2478.41	0.216801
2479.8	0.47862
2481.18	-0.357297
2482.57	0.500137
2483.95	0.290981
2485.34	0.0965252
2486.72	0.478838
2488.11	0.171991
2489.49	0.0517874
2490.88	-0.161743
2492.26	0.232291
2493.65	-0.320176
2495.03	0.061244
2496.41	0.474894
2497.79	-0.133008
2499.18	-0.290733
2500.56	0.3247
2501.94	-0.0510874
2503.32	0.498805
2504.7	-0.234043
2506.09	0.00447941
2507.47	0.0112419
2508.85	0.0335512
2510.23	0.37897
2511.61	-0.165196
2512.99	-0.094017
2514.37	0.162141
2515.75	-0.208302
2517.13	-0.118193
2518.51	0.201986
2519.89	-0.150235
2521.26	-0.0442486
2522.64	-0.0766859
2524.02	0.515067
2525.4	0.175161
2526.78	0.0485935
2528.15	-0.0467463
2529.53	-0.444459
2530.91	-0.0795107
2532.28	0.150919
2533.66	-0.254759
2535.04	-0.14273
2536.41	-0.273792
2537.79	0.00440216
2539.16	0.478567
2540.54	-0.217854
2541.91	-0.079587
2543.29	-0.107917
2544.66	-0.0743093
2546.04	0.188621
2547.41	0.0286837
2548.78	0.401007
2550.16	0.0908108
2551.53	-0.569189
2552.9	-0.714543
2554.27	0.565123
2555.65	0.113442
2557.02	0.0403385
2558.39	0.209702
2559.76	-0.287637
2561.13	0.110267
2562.51	0.221084
2563.88	-0.0915194
2565.25	-0.100356
2566.62	0.0578995
2567.99	0.246639
2569.36	0.405128
2570.73	-0.239658
2572.1	0.191763
2573.47	-0.0284424
2574.84	0.35788
2576.2	0.274347
2577.57	0.402996
2578.94	-0.120663
2580.31	0.219472
2581.68	-0.335589
2583.05	0.291499
2584.41	-0.143063
2585.78	-0.395687
2587.15	-0.390411
2588.51	0.221378
2589.88	0.0755663
2591.24	-0.146143
2592.61	0.207329
2593.98	0.165661
2595.34	0.198248
2596.71	0.350388
2598.07	-0.240092
2599.44	-0.0895929
2600.8	0.0759964
2602.16	0.000516891
2603.53	-0.360691
2604.89	0.395889
2606.26	-0.205344
2607.62	0.24897
2608.98	0.159114
2610.34	-0.0980721
2611.71	-0.11598
2613.07	-0.0904198
2614.43	0.219393
2615.79	-0.0120258
2617.15	0.312041
2618.52	-0.606668
2619.88	0.0485973
2621.24	0.0908737
2622.6	0.208621
2623.96	-0.0616455
2625.32	0.190708
2626.68	-0.213758
2628.04	0.0673742
2629.4	-0.143702
2630.75	0.091629
2632.11	0.0885878
2633.47	-0.1373
2634.83	0.26055
2636.19	0.138682
2637.55	0.743126
2638.9	0.0881529
2640.26	0.366556
2641.62	-0.360354
2642.98	0.051775
2644.33	-0.0235672
2645.69	-0.172631
2647.04	-0.145102
2648.4	0.0729284
2649.76	0.127547
2651.11	0.386899
2652.47	0.0431366
2653.82	0.24325
2655.18	0.605322
2656.53	0.0896902
2657.88	0.147357
2659.24	-0.144773
2660.59	0.163527
2661.95	0.237544
2663.3	0.485933
2664.65	0.0759974
2666	-0.173987
2667.36	0.0129662
2668.71	-0.441219
2670.06	0.357046
2671.41	-0.40084
2672.76	0.0347147
2674.12	-0.31352
2675.47	0.21035
2676.82	-0.00533962
2678.17	-0.00234222
2679.52	0.190367
2680.87	0.0365849
2682.22	0.36301
2683.57	0.372243
2684.92	0.00582123
2686.27	0.176754
2687.62	-0.0152063
2688.97	0.226629
2690.31	0.233827
2691.66	0.499655
2693.01	0.545445
2694.36	0.705751
2695.71	0.227919
2697.05	-0.277512
2698.4	-0.0132389
2699.75	0.122998
2701.09	0.131436
2702.44	0.373811
2703.78	-0.0341387
2705.13	0.196223
2706.48	0.180329
2707.82	0.178597
2709.17	0.495672
2710.51	0.158953
2711.86	0.0104914
2713.2	0.108781
2714.54	0.439615
2715.89	0.625196
2717.23	-0.30919
2718.57	0.00669575
2719.92	-0.143376
2721.26	0.404438
2722.6	0.471423
2723.95	0.654193
2725.29	0.865455
2726.63	0.100984
2727.97	0.354941
2729.31	0.215622
2730.65	0.410802
2732	0.664105
2733.34	0.568359
2734.68	0.385645
2736.02	0.116001
2737.36	0.15204
2738.7	0.260783
2740.04	-0.125225
2741.38	0.462409
2742.72	0.380241
2744.05	0.515124
2745.39	0.50376
2746.73	0.288493
2748.07	0.0441246
2749.41	0.0321894
2750.75	0.51367
2752.08	0.835698
2753.42	0.259307
2754.76	0.350035
2756.09	-0.0225687
2757.43	0.488554
2758.77	0.160182
2760.1	0.55617
2761.44	0.344958
2762.78	0.423903
2764.11	0.488846
2765.44	0.365713
2766.78	0.574742
2768.11	0.261701
2769.45	0.207316
2770.78	0.570055
2772.12	0.540473
2773.45	0.27857
2774.78	-0.0269098
2776.12	0.201048
2777.45	0.0261602
2778.78	-0.075758
2780.12	0.0675135
2781.45	-0.0761461
2782.78	0.397642
2784.11	0.297073
2785.44	0.0962915
2786.78	-0.275842
2788.11	0.197728
2789.44	-0.601499
2790.77	0.303134
2792.1	0.0644293
2793.43	-0.116312
2794.76	0.231919
2796.09	-0.0634289
2797.42	0.0120459
2798.75	-0.127465
2800.08	-0.110439
2801.4	-0.250703
2802.73	0.022419
2804.06	0.42318
2805.39	-0.216807
2806.72	0.495372
2808.05	-0.415751
2809.37	-0.160668
2810.7	0.037241
2812.03	0.335008
2813.35	0.676521
2814.68	0.225844
2816.01	0.47201
2817.33	-0.343314
2818.66	0.344616
2819.98	0.210521
2821.31	0.231738
2822.63	0.252041
2823.96	0.0589485
2825.28	0.630349
2826.61	0.578433
2827.93	0.399825
2829.25	0.207891
2830.58	0.214812
2831.9	0.0804768
2833.23	0.342422
2834.55	0.221762
2835.87	0.270295
2837.19	0.912373
2838.52	0.888696
2839.84	1.02029
2841.16	1.33574
2842.48	1.12862
2843.8	1.2475
2845.12	1.7772
2846.44	1.1065
2847.77	1.92023
2849.08	1.60336
2850.4	1.73836
2851.73	1.99989
2853.05	1.72363
2854.36	1.95559
2855.68	1.70683
2857	1.67001
2858.32	2.057
2859.64	2.1755
2860.96	1.95486
2862.28	2.18561
2863.59	2.42986
2864.91	2.27854
2866.23	2.53631
2867.55	2.87889
2868.86	3.377
2870.18	3.32569
2871.5	3.50015
2872.81	3.12454
2874.13	3.2694
2875.44	3.39865
2876.76	3.65298
2878.07	3.62449
2879.39	3.17368
2880.7	3.5952
2882.02	3.31491
2883.33	3.58396
2884.65	3.19423
2885.96	3.76005
2887.28	3.30117
2888.59	3.78203
2889.9	3.6724
2891.21	3.81408
2892.53	3.92673
2893.84	3.47865
2895.15	3.85757
2896.46	4.02726
2897.78	4.22623
2899.09	4.00676
2900.4	3.76041
2901.71	4.53588
2903.02	4.20647
2904.33	4.19895
2905.64	4.70929
2906.95	5.12242
2908.26	4.58543
2909.57	5.05677
2910.88	4.91327
2912.19	5.25959
2913.5	5.017
2914.81	5.3045
2916.12	6.30358
2917.43	6.20837
2918.73	5.77596
2920.04	6.16872
2921.35	6.39429
2922.66	6.24396
2923.96	6.61271
2925.27	6.52171
2926.58	6.61327
2927.88	6.97047
2929.19	7.24326
2930.5	6.90009
2931.8	7.42293
2933.11	6.74316
2934.41	6.81814
2935.72	7.3544
2937.02	7.54138
2938.33	7.02985
2939.63	6.32305
2940.94	6.90244
2942.24	6.78427
2943.54	6.23437
2944.85	6.58075
2946.15	6.22965
2947.45	5.8231
2948.76	5.72379
2950.06	5.72086
2951.36	5.32341
2952.66	5.48343
2953.97	5.17943
2955.27	5.37882
2956.57	5.22928
2957.87	5.30628
2959.17	4.56079
2960.47	4.36452
2961.77	5.03975
2963.07	4.84719
2964.37	4.40087
2965.67	4.69657
2966.97	4.73732
2968.27	4.28414
2969.57	4.08268
2970.87	4.345
2972.17	3.89024
2973.47	3.97037
2974.77	3.76892
2976.07	3.73544
2977.36	2.96799
2978.66	3.59219
2979.96	3.41142
2981.26	3.83394
2982.55	3.17219
2983.85	3.43919
2985.15	2.90622
2986.44	2.89531
2987.74	2.81598
2989.03	2.76599
2990.33	2.36493
2991.63	2.20204
2992.92	2.06581
2994.21	2.09648
2995.51	2.28001
2996.8	1.77432
2998.1	2.19485
2999.39	1.46497
3000.69	1.66166
3001.98	1.55048
3003.27	1.27164
3004.57	1.53933
3005.86	1.33025
3007.15	1.65234
3008.44	1.10541
3009.74	1.31286
3011.03	1.54682
3012.32	0.830294
3013.61	1.32842
3014.9	1.24068
3016.19	1.05634
3017.48	1.12368
3018.78	1.14976
3020.07	0.689035
3021.36	0.825788
3022.65	1.14165
3023.94	1.05309
3025.23	1.1021
3026.51	0.887359
3027.8	0.465898
3029.09	1.01425
3030.38	1.42547
3031.67	0.788581
3032.96	0.912782
3034.24	0.899193
3035.53	1.0365
3036.82	0.896015
3038.11	0.39495
3039.39	0.704146
3040.68	1.23023
3041.97	1.02595
3043.25	0.94528
3044.54	1.00262
3045.83	1.10288
3047.11	0.823239
3048.4	1.07946
3049.68	1.10619
3050.97	0.862029
3052.25	1.32844
3053.54	0.771332
3054.82	0.881777
3056.11	1.14059
3057.39	1.13846
3058.67	0.903386
3059.96	0.763287
3061.24	0.786904
3062.52	0.417119
3063.81	0.674673
3065.09	0.607683
3066.37	0.950228
3067.65	0.886102
3068.94	0.95832
3070.22	0.581182
3071.5	0.542686
3072.78	0.815131
3074.06	0.378609
3075.34	0.810554
3076.62	0.684547
3077.9	0.572523
3079.18	0.461782
3080.46	0.529213
3081.74	0.272949
3083.02	0.343705
3084.3	0.388065
3085.58	0.663039
3086.86	0.77438
3088.14	0.124407
3089.42	0.681231
3090.69	0.680648
3091.97	0.598188
3093.25	0.325812
3094.53	-0.000555038
3095.8	0.310566
3097.08	0.296093
3098.36	0.227068
3099.63	-0.20822
3100.91	0.142018
3102.19	0.153301
3103.46	0.0292749
3104.74	-0.0130854
3106.01	0.121189
3107.29	0.0669193
3108.56	0.108479
3109.84	0.151201
3111.11	0.059598
3112.39	0.185422
3113.66	0.230356
3114.94	0.451289
3116.21	0.305332
3117.48	0.225674
3118.76	0.0764256
3120.03	0.291565
3121.3	0.0440607
3122.57	-0.0553293
3123.85	-0.439693
3125.12	0.394781
3126.39	-0.0163441
3127.66	-0.169664
3128.93	0.272589
3130.21	-0.110043
3131.48	-0.249299
3132.75	0.327168
3134.02	0.105455
3135.29	0.031395
3136.56	0.199142
3137.83	-0.160207
3139.1	0.0189486
3140.37	-0.125827
3141.64	-0.0555029
3142.91	0.0146942
3144.17	0.353545
3145.44	-0.300388
3146.71	-0.188736
3147.98	-0.19729
3149.25	0.156075
