200.533	0.491311
202.348	0.510232
204.162	0.530035
205.976	1.54767
207.792	0.668342
209.605	0.542496
211.418	0.755754
213.23	0.870461
215.044	0.935487
216.856	0.393913
218.667	0.942937
220.478	0.692986
222.289	0.129609
224.102	0.607067
225.912	0.746125
227.721	0.256972
229.531	0.516341
231.34	0.533586
233.148	0.309257
234.956	0.881071
236.766	0.537543
238.574	0.557371
240.381	0.940816
242.188	0.19301
243.994	0.43468
245.801	0.217827
247.606	0.38572
249.412	0.165035
251.217	-0.444537
253.024	-0.259495
254.828	0.502895
256.632	0.0345478
258.436	-0.143553
260.239	0.233823
262.042	-0.037858
263.845	0.534898
265.647	0.16889
267.449	0.140342
269.25	0.256087
271.052	0.274704
272.852	0.0512018
274.653	0.405137
276.453	0.130844
278.253	0.72263
280.052	0.396926
281.852	0.214271
283.65	0.679611
285.449	0.782487
287.247	0.332464
289.044	0.602591
290.842	0.633271
292.639	-0.0291176
294.436	0.458759
296.232	0.612576
298.028	0.360846
299.821	0.109637
301.617	0.264429
303.412	0.370618
305.206	0.237014
307	0.651322
308.794	0.421361
310.588	-0.022337
312.381	0.487926
314.172	0.546827
315.964	0.226285
317.756	1.05028
319.548	0.875442
321.34	0.606118
323.131	0.527943
324.921	0.879541
326.71	0.348157
328.5	0.699924
330.29	0.166969
332.079	0.541351
333.868	0.866711
335.654	0.137413
337.443	0.339414
339.231	0.730992
341.018	0.475312
342.804	0.505989
344.591	0.0587397
346.377	-0.0772715
348.163	0.551416
349.947	0.249166
351.733	-0.220027
353.518	0.336576
355.303	0.605715
357.085	0.945025
358.869	0.210499
360.653	0.642777
362.435	0.40737
364.218	0.26679
366.001	0.220863
367.781	-0.134181
369.563	0.269488
371.345	0.576856
373.124	0.409782
374.905	0.573604
376.686	0.595485
378.464	0.334826
380.244	-0.0187778
382.022	-0.464974
383.801	0.313522
385.58	0.433908
387.357	-0.337711
389.135	-0.0273671
390.911	-0.0452156
392.689	0.501207
394.466	0.460995
396.241	0.186231
398.018	-0.22939
399.792	0.834503
401.568	0.253936
403.341	0.00166464
405.117	0.782199
406.889	0.387801
408.664	-0.0539107
410.436	0.396257
412.21	0.0483766
413.981	0.311037
415.755	0.269223
417.525	0.0403571
419.298	0.16398
421.068	0.147007
422.84	-0.269235
424.609	0.745931
426.38	-0.305516
428.149	-0.488971
429.919	0.054903
431.688	-0.26974
433.455	-0.101234
435.225	0.208362
436.992	-0.162684
438.76	0.404482
440.527	-0.0621357
442.293	0.314319
444.06	0.665184
445.826	-0.0869365
447.593	0.167599
449.357	0.234272
451.122	0.184112
452.888	0.414426
454.651	0.108109
456.415	0.151852
458.18	0.288564
459.942	0.192451
461.705	-0.0424562
463.469	-0.182856
465.23	0.236385
466.991	0.0304956
468.752	0.291553
470.515	0.112502
472.275	-0.18264
474.035	-0.0828948
475.797	-0.240642
477.556	0.438489
479.315	0.207717
481.073	0.418752
482.834	0.0942421
484.592	0.53932
486.349	0.916306
488.106	0.199956
489.863	0.347456
491.622	0.6128
493.378	-0.14893
495.134	0.725241
496.889	0.196408
498.645	0.299014
500.401	0.518709
502.156	0.174918
503.91	0.158724
505.664	0.447143
507.417	0.640692
509.171	0.268517
510.923	0.412486
512.678	0.719913
514.43	0.555474
516.182	0.319371
517.933	0.270556
519.684	-0.108119
521.435	0.194341
523.186	0.0264654
524.936	0.140261
526.686	0.207016
528.435	-0.00761795
530.184	0.785546
531.933	0.523576
533.682	0.167621
535.43	0.091876
537.18	0.225455
538.927	0.871248
540.674	0.11553
542.421	-0.173246
544.167	-0.159191
545.913	0.296281
547.659	0.356307
549.403	0.138257
551.148	-0.0328131
552.893	0.583057
554.637	0.250483
556.381	0.0111628
558.125	0.349123
559.868	0.43346
561.611	0.403045
563.354	0.396182
565.097	0.0450711
566.839	0.292181
568.581	0.287152
570.322	0.489555
572.063	0.532418
573.802	0.829021
575.542	0.32426
577.283	0.577978
579.022	0.373873
580.762	-0.174297
582.501	0.334132
584.24	0.221871
585.976	0.292679
587.714	0.385514
589.452	0.109279
591.19	0.154382
592.927	0.360134
594.663	-0.00940561
596.398	0.26531
598.134	0.12588
599.87	-0.0828462
601.605	-0.844265
603.338	0.210505
605.073	0.458828
606.808	-0.0523858
608.542	0.194136
610.274	0.164896
612.007	0.136092
613.74	0.451877
615.473	0.722144
617.204	0.282148
618.936	0.414586
620.668	0.24844
622.397	-0.147263
624.128	0.0740981
625.859	0.249493
627.588	-0.0310173
629.318	0.260835
631.048	0.0296717
632.775	0.11962
634.505	0.0506611
636.233	0.552085
637.96	0.207509
639.688	0.157515
641.416	0.492905
643.142	0.210531
644.869	0.178109
646.594	0.0778136
648.32	0.161052
650.045	-0.0259023
651.771	0.69913
653.496	0.38216
655.219	-0.250925
656.944	-0.405188
658.667	0.398317
660.391	0.0850253
662.113	0.0896091
663.837	0.366618
665.558	0.459033
667.281	0.458477
669.002	-9.15527e-005
670.724	0.0679507
672.444	-0.228613
674.166	0.300805
675.885	0.718144
677.606	0.54075
679.325	0.66168
681.045	0.276229
682.763	0.210789
684.483	0.534911
686.2	0.328036
687.917	0.626503
689.636	0.601679
691.352	0.322863
693.07	0.435124
694.786	1.03042
696.501	0.450295
698.219	0.514046
699.933	0.622748
701.65	0.845364
703.364	1.34271
705.078	1.26461
706.793	0.704221
708.506	0.511252
710.219	0.593227
711.934	0.949459
713.646	0.664405
715.358	1.20235
717.071	0.871705
718.782	0.906715
720.493	0.873441
722.204	0.749277
723.916	1.05763
725.626	0.842533
727.336	0.900106
729.045	1.0026
730.756	0.945827
732.464	0.934155
734.173	0.922341
735.881	0.616795
737.59	0.628248
739.297	0.775604
741.004	0.878437
742.711	0.869499
744.417	0.726623
746.125	0.900079
747.831	1.29954
749.537	0.822755
751.242	1.11186
752.946	1.19962
754.651	1.2211
756.357	1.08632
758.061	1.44809
759.764	1.06801
761.467	1.3873
763.17	1.3916
764.872	1.12468
766.575	1.33093
768.276	1.10632
769.978	1.58071
771.679	1.60122
773.382	1.10042
775.083	1.18721
776.783	1.63621
778.483	1.63413
780.182	1.72384
781.882	1.52043
783.581	1.88277
785.279	1.56518
786.978	1.42657
788.676	1.64742
790.373	1.48074
792.071	1.33461
793.768	0.758417
795.464	1.6042
797.161	1.43507
798.857	0.164111
800.552	1.41696
802.248	2.08478
803.941	2.10046
805.636	1.6214
807.33	1.59142
809.024	1.33591
810.718	1.93246
812.412	1.69768
814.105	1.79884
815.798	2.2354
817.49	1.50811
819.183	2.07828
820.873	1.50886
822.564	1.72158
824.256	1.53335
825.947	1.52484
827.637	1.45134
829.328	1.31338
831.016	2.04654
832.705	1.64626
834.395	1.58179
836.084	1.94186
837.772	1.65492
839.459	1.27733
841.147	1.16616
842.835	1.29961
844.522	1.92434
846.209	1.56648
847.894	1.59003
849.581	1.39196
851.267	1.19566
852.953	1.53853
854.637	1.59115
856.322	1.05965
858.007	1.22319
859.689	1.3181
861.374	1.5017
863.058	0.87309
864.739	1.36975
866.423	1.05439
868.106	1.39226
869.787	1.25625
871.469	0.871786
873.151	1.07361
874.831	1.32056
876.512	1.02595
878.193	1.65665
879.872	1.18132
881.553	1.26995
883.231	1.17735
884.911	0.722656
886.591	0.876324
888.268	0.870706
889.947	0.773594
891.623	0.96837
893.302	1.00414
894.978	0.813889
896.656	0.982752
898.331	0.566623
900.008	1.29456
901.683	1.34804
903.359	0.998136
905.033	0.961821
906.709	1.12664
908.383	1.26931
910.058	0.989284
911.731	1.08876
913.405	0.455199
915.078	0.33378
916.752	1.21079
918.423	0.91156
920.096	1.05577
921.768	1.53201
923.438	0.969589
925.111	0.586004
926.781	0.734191
928.452	1.03809
930.122	1.32076
931.791	1.00818
933.462	1.26946
935.13	1.13378
936.799	0.667663
938.468	0.378721
940.136	0.730334
941.803	0.553548
943.472	0.950959
945.139	0.884902
946.805	0.37637
948.473	1.25698
950.139	0.877816
951.804	0.983219
953.471	0.449044
955.136	1.23942
956.801	0.97356
958.465	0.930867
960.131	0.272359
961.794	1.00575
963.458	0.524251
965.12	0.881229
966.785	0.926547
968.447	0.460654
970.109	0.811702
971.771	0.60898
973.432	0.959586
975.095	1.00174
976.756	0.53673
978.417	0.714259
980.077	0.947715
981.737	0.893183
983.396	0.937099
985.057	0.824413
986.716	1.06415
988.375	0.815495
990.033	0.521815
991.691	0.493126
993.349	0.574764
995.006	0.523932
996.663	0.561483
998.32	0.753293
999.976	1.62776
1001.63	1.06939
1003.29	1.08354
1004.95	1.11938
1006.6	0.715566
1008.26	0.466136
1009.91	0.831722
1011.56	0.955952
1013.22	-0.103044
1014.87	0.810763
1016.53	0.804451
1018.18	0.645405
1019.83	0.968309
1021.48	0.614083
1023.14	0.67625
1024.79	0.32393
1026.44	0.605845
1028.09	0.669194
1029.74	0.884902
1031.39	0.378763
1033.04	0.308307
1034.69	0.10571
1036.34	-0.03228
1037.99	0.635327
1039.64	0.779413
1041.29	0.57583
1042.94	0.851793
1044.58	0.759564
1046.23	0.495252
1047.88	0.970946
1049.52	0.210053
1051.17	0.427439
1052.82	0.688976
1054.46	0.299011
1056.11	0.93039
1057.75	0.648733
1059.4	0.736182
1061.04	0.736127
1062.69	0.300518
1064.33	0.212083
1065.98	0.709791
1067.62	0.358771
1069.26	0.398243
1070.9	0.828049
1072.55	0.519362
1074.19	0.515099
1075.83	0.164623
1077.47	0.661133
1079.11	0.0959597
1080.76	-0.143326
1082.4	0.376305
1084.04	-0.12391
1085.68	0.718733
1087.32	0.584087
1088.95	0.512831
1090.59	0.74314
1092.23	0.366845
1093.87	0.573896
1095.51	0.413949
1097.15	0.427414
1098.78	0.485027
1100.42	0.737732
1102.06	0.712049
1103.69	0.472724
1105.33	0.6002
1106.97	0.297935
1108.6	0.275029
1110.24	0.143737
1111.87	0.247684
1113.51	0.586534
1115.14	0.537551
1116.77	0.423801
1118.41	-0.118438
1120.04	-0.0595789
1121.67	0.192676
1123.31	0.55253
1124.94	0.313846
1126.57	0.845999
1128.2	0.352102
1129.83	0.885241
1131.47	0.285638
1133.1	0.0070219
1134.72	0.6261
1136.36	-0.0378571
1137.98	0.494172
1139.62	-0.021718
1141.24	0.0598145
1142.87	0.845027
1144.5	0.5632
1146.13	0.388803
1147.76	0.236628
1149.38	0.276976
1151.01	0.253777
1152.64	0.31575
1154.27	0.16451
1155.89	0.162005
1157.52	0.393435
1159.14	0.220912
1160.77	-0.0146303
1162.39	0.53747
1164.02	0.154805
1165.64	-0.184952
1167.27	0.0703964
1168.89	0.176031
1170.51	0.40778
1172.14	-0.381951
1173.76	0.016758
1175.38	-0.180054
1177	-0.0165911
1178.63	0.231509
1180.25	0.606792
1181.87	-0.286854
1183.49	-0.248735
1185.11	0.444326
1186.73	0.248895
1188.35	0.537662
1189.97	-0.18741
1191.59	-0.0282116
1193.21	-0.480258
1194.83	-0.0709314
1196.45	0.00184441
1198.07	0.158928
1199.68	0.0660791
1201.3	-0.0456066
1202.92	0.0746336
1204.53	0.405477
1206.15	0.195346
1207.77	0.382696
1209.38	0.31988
1211	-0.244135
1212.62	0.525132
1214.23	0.0624828
1215.84	0.264947
1217.46	0.424021
1219.07	0.5404
1220.69	0.573423
1222.3	0.897285
1223.91	0.517168
1225.53	1.27764
1227.14	0.279631
1228.75	0.669522
1230.36	0.501908
1231.97	0.27336
1233.59	0.789911
1235.2	1.2661
1236.81	1.45402
1238.42	1.08471
1240.03	0.674446
1241.64	1.25696
1243.25	1.01189
1244.85	1.03505
1246.46	1.38842
1248.07	0.726975
1249.68	1.01674
1251.29	1.05794
1252.9	0.851106
1254.5	0.913811
1256.11	1.49455
1257.72	0.752497
1259.32	0.859515
1260.93	1.29854
1262.54	0.99279
1264.14	1.41187
1265.75	0.794731
1267.35	0.985014
1268.96	0.822126
1270.56	1.05227
1272.16	0.721711
1273.77	0.825702
1275.37	0.928828
1276.97	0.803176
1278.57	1.19478
1280.18	1.04719
1281.78	1.12714
1283.38	1.10369
1284.98	1.45296
1286.58	1.67875
1288.18	0.975295
1289.78	1.47145
1291.38	1.28603
1292.99	1.14187
1294.58	1.41026
1296.18	1.71866
1297.78	1.13774
1299.38	1.44309
1300.98	1.087
1302.58	1.55433
1304.17	1.36147
1305.77	1.90841
1307.37	1.52964
1308.97	1.27448
1310.56	1.79857
1312.16	1.52357
1313.76	1.33159
1315.35	1.77427
1316.95	1.21664
1318.54	0.905171
1320.14	1.42985
1321.73	1.70844
1323.32	1.19153
1324.92	1.36526
1326.51	1.33436
1328.1	1.38416
1329.7	0.887704
1331.29	1.46563
1332.88	1.01391
1334.47	1.79643
1336.07	0.904591
1337.66	1.48642
1339.25	1.56306
1340.84	0.993597
1342.43	1.48973
1344.02	1.60119
1345.61	1.30994
1347.2	1.05967
1348.79	1.03176
1350.37	0.545706
1351.96	1.46245
1353.55	0.600748
1355.14	1.07981
1356.73	0.919497
1358.31	0.519186
1359.9	0.457836
1361.49	0.95452
1363.07	0.672046
1364.66	0.469368
1366.25	0.725379
1367.83	0.742832
1369.42	0.920537
1371	0.900322
1372.59	0.642507
1374.17	1.00247
1375.75	0.845652
1377.34	0.828181
1378.92	0.790377
1380.5	0.473165
1382.09	0.493172
1383.67	0.651308
1385.25	0.510369
1386.83	0.528136
1388.42	0.804173
1390	0.385818
1391.58	0.603455
1393.16	0.206648
1394.74	0.50448
1396.32	0.643387
1397.9	0.325709
1399.48	0.918921
1401.06	0.00564575
1402.64	0.735765
1404.21	0.119842
1405.79	0.276124
1407.37	0.571301
1408.95	0.689134
1410.53	0.155487
1412.1	0.885867
1413.68	0.312477
1415.26	0.567495
1416.83	0.466626
1418.41	0.483824
1419.98	0.855866
1421.56	0.460566
1423.13	0.243984
1424.71	0.678298
1426.28	0.956129
1427.86	0.624245
1429.43	0.84323
1431	0.530038
1432.58	0.373423
1434.15	1.0227
1435.72	0.766589
1437.29	1.13996
1438.87	1.04203
1440.44	1.16118
1442.01	1.53663
1443.58	1.34275
1445.15	1.50297
1446.72	1.23095
1448.29	1.33252
1449.86	1.94552
1451.43	1.55633
1453	1.5608
1454.57	1.2312
1456.14	1.9639
1457.71	1.57456
1459.27	1.42016
1460.84	1.14617
1462.41	0.851026
1463.98	0.849707
1465.54	1.0637
1467.11	1.15931
1468.67	0.941032
1470.24	0.625607
1471.81	0.389825
1473.37	0.253088
1474.94	0.117019
1476.5	0.687153
1478.07	-0.0954709
1479.63	0.631407
1481.19	0.593644
1482.76	0.536228
1484.32	0.65506
1485.88	0.0879068
1487.45	0.734641
1489.01	0.420561
1490.57	0.281363
1492.13	0.316549
1493.69	-0.060214
1495.26	0.440313
1496.82	0.295813
1498.38	0.696344
1499.94	0.202388
1501.5	-0.192471
1503.06	0.442204
1504.62	0.282022
1506.17	0.528832
1507.73	0.349206
1509.29	0.0531969
1510.85	-0.378125
1512.41	0.231556
1513.97	-0.199852
1515.52	0.100383
1517.08	0.246778
1518.64	-0.220132
1520.19	0.195547
1521.75	-0.499258
1523.31	0.622882
1524.86	0.844564
1526.42	-0.136326
1527.97	-0.20142
1529.52	-0.0766172
1531.08	0.275651
1532.63	0.00170898
1534.19	0.581295
1535.74	-0.14467
1537.29	0.227524
1538.85	0.297511
1540.4	0.556228
1541.95	0.418931
1543.5	0.263007
1545.06	0.18243
1546.61	0.176967
1548.16	0.171396
1549.71	0.259527
1551.26	0.235293
1552.81	0.64177
1554.36	0.693213
1555.91	0.913847
1557.46	0.426454
1559.01	0.612822
1560.56	0.614126
1562.11	0.672728
1563.65	0.694943
1565.2	0.661661
1566.75	0.497812
1568.29	0.83766
1569.84	0.87861
1571.39	1.36724
1572.94	0.959641
1574.48	0.906592
1576.03	0.834906
1577.57	0.782073
1579.12	0.897618
1580.66	1.06974
1582.21	0.99982
1583.75	0.855858
1585.3	0.581604
1586.84	1.37324
1588.38	1.32396
1589.93	0.488534
1591.47	0.79397
1593.01	0.687277
1594.55	0.486642
1596.1	1.07286
1597.64	0.928857
1599.18	1.51658
1600.72	1.50516
1602.26	0.949838
1603.8	1.2014
1605.34	0.83262
1606.88	1.23294
1608.42	0.861105
1609.96	0.957193
1611.5	1.50222
1613.04	0.937102
1614.58	0.784427
1616.12	1.36307
1617.65	0.966746
1619.19	0.628075
1620.73	0.684199
1622.27	1.20951
1623.8	0.537172
1625.34	1.28764
1626.87	0.951717
1628.41	0.914218
1629.95	0.688593
1631.48	1.28466
1633.02	1.43145
1634.55	0.551702
1636.09	0.755677
1637.62	1.31457
1639.15	1.33294
1640.69	0.587203
1642.22	1.18281
1643.76	1.51625
1645.29	1.12254
1646.82	0.970318
1648.35	1.54272
1649.88	1.66905
1651.42	0.886859
1652.95	1.07102
1654.48	1.71948
1656.01	1.58961
1657.54	1.84883
1659.07	1.16258
1660.6	1.14225
1662.13	0.972726
1663.66	1.50492
1665.19	1.11231
1666.72	1.49575
1668.24	1.41858
1669.77	1.60086
1671.3	0.881514
1672.83	1.37925
1674.35	1.28784
1675.88	0.662356
1677.41	1.32486
1678.93	1.1029
1680.46	1.10089
1681.99	0.510288
1683.51	0.305782
1685.04	1.07414
1686.56	0.613169
1688.09	0.483024
1689.61	0.884568
1691.13	0.919729
1692.66	0.570621
1694.18	1.00831
1695.71	0.586185
1697.23	0.547997
1698.75	0.600872
1700.27	0.708072
1701.8	0.522895
1703.32	0.0459304
1704.84	0.242998
1706.36	0.00273037
1707.88	-0.237345
1709.4	0.0133238
1710.92	0.0458717
1712.44	-0.139077
1713.96	-0.178653
1715.48	0.125821
1717	0.194609
1718.52	-0.0440464
1720.04	-0.0115047
1721.56	0.0391722
1723.07	0.378676
1724.59	0.0339122
1726.11	-0.0933118
1727.63	0.230614
1729.14	-0.074708
1730.66	-0.0176587
1732.18	0.040266
1733.69	0.0946641
1735.21	-0.0134048
1736.72	0.110136
1738.24	0.219291
1739.75	0.235306
1741.27	0.415453
1742.78	0.315461
1744.3	0.0965586
1745.81	-0.0993047
1747.32	0.192688
1748.84	0.0775132
1750.35	0.266519
1751.86	0.213576
1753.37	0.0500326
1754.89	-0.183563
1756.4	-0.285341
1757.91	-0.185909
1759.42	-0.289229
1760.93	-0.212349
1762.44	0.0177889
1763.95	0.0585217
1765.46	0.425442
1766.97	0.204361
1768.48	-0.0407968
1769.99	0.392649
1771.5	0.148366
1773.01	0.243146
1774.52	0.19718
1776.03	-0.282566
1777.53	-0.139494
1779.04	0.210598
1780.55	0.199091
1782.06	0.0140395
1783.56	0.0682755
1785.07	-0.0672603
1786.57	0.143218
1788.08	0.119553
1789.59	-0.214975
1791.09	0.0445971
1792.6	0.220948
1794.1	0.0685019
1795.6	0.404776
1797.11	0.109365
1798.61	0.238335
1800.12	-0.0753536
1801.62	0.0622511
1803.12	-0.21146
1804.63	0.0575242
1806.13	0.0512767
1807.63	0.0774198
1809.13	0.138298
1810.63	-0.13063
1812.14	0.0968895
1813.64	0.476638
1815.14	-0.113252
1816.64	-0.0213909
1818.14	-0.0999017
1819.64	-0.0290728
1821.14	-0.0289559
1822.64	-0.23912
1824.14	0.134446
1825.63	0.0188093
1827.13	-0.053329
1828.63	0.0958452
1830.13	0.0644884
1831.63	0.189322
1833.12	0.15028
1834.62	0.333892
1836.12	0.314623
1837.62	0.154584
1839.11	0.0735755
1840.61	0.0138564
1842.1	0.00759172
1843.6	-0.117921
1845.09	0.45964
1846.59	0.0277967
1848.08	0.0928679
1849.58	0.264174
1851.07	0.0287161
1852.57	-0.139306
1854.06	0.14202
1855.55	0.335824
1857.04	0.144491
1858.54	0.303258
1860.03	0.209244
1861.52	-0.0426283
1863.01	0.393463
1864.5	-0.00843287
1866	0.175449
1867.49	0.327905
1868.98	0.220765
1870.47	0.14256
1871.96	0.152523
1873.45	0.0765309
1874.94	0.234835
1876.43	0.174856
1877.92	0.10644
1879.41	-0.141166
1880.89	0.0617766
1882.38	0.485621
1882.48	0.516716
1883.97	0.30742
1885.47	0.359012
1886.96	0.270482
1888.46	0.251238
1889.95	0.0581641
1891.44	-0.0469904
1892.94	0.353404
1894.43	0.216248
1895.92	0.341189
1897.41	0.327761
1898.9	0.749141
1900.4	0.404316
1901.89	-0.0984387
1903.38	-0.0285196
1904.87	0.45739
1906.36	0.142921
1907.85	0.280235
1909.34	0.209615
1910.83	0.521547
1912.32	0.348352
1913.81	0.522592
1915.29	0.159298
1916.78	0.454686
1918.27	0.420163
1919.76	0.142699
1921.25	0.246387
1922.74	0.0559626
1924.22	0.264512
1925.71	0.439318
1927.2	0.32072
1928.68	0.375795
1930.17	0.101861
1931.65	0.13896
1933.14	0.296101
1934.63	0.41709
1936.11	0.553868
1937.59	0.464676
1939.08	0.116005
1940.56	0.372375
1942.05	0.439298
1943.53	-0.217468
1945.01	0.0409031
1946.5	0.195985
1947.98	0.316329
1949.46	0.0914454
1950.94	0.279193
1952.43	0.0357766
1953.91	0.411245
1955.39	0.511173
1956.87	-0.195832
1958.35	-0.008986
1959.83	0.00669956
1961.31	0.451488
1962.79	0.193334
1964.27	0.192244
1965.75	0.361995
1967.23	0.548117
1968.71	0.186097
1970.19	0.524875
1971.67	-0.00816679
1973.14	0.142231
1974.62	0.326598
1976.1	0.101783
1977.58	-0.00335455
1979.05	-0.176364
1980.53	0.161139
1982.01	0.345057
1983.48	0.35861
1984.96	0.456726
1986.43	0.283108
1987.91	0.194474
1989.38	0.241689
1990.86	0.153989
1992.33	0.354674
1993.81	0.167153
1995.28	0.419833
1996.76	-0.0875149
1998.23	0.232976
1999.7	0.130844
2001.18	0.483925
2002.65	0.21219
2004.12	0.109177
2005.59	0.107619
2007.06	0.174012
2008.54	-0.112499
2010.01	0.443574
2011.48	0.292913
2012.95	0.0750146
2014.42	0.260733
2015.89	0.227033
2017.36	0.12534
2018.83	0.342463
2020.3	0.52531
2021.77	0.455926
2023.24	-0.0159783
2024.71	0.654083
2026.17	0.45244
2027.64	0.201746
2029.11	0.153542
2030.58	0.525798
2032.04	0.429182
2033.51	0.198617
2034.98	0.135808
2036.45	0.375034
2037.91	0.613952
2039.38	0.415667
2040.84	0.318089
2042.31	0.607491
2043.77	0.35944
2045.24	0.549436
2046.7	0.218343
2048.17	0.527252
2049.63	0.145236
2051.1	0.369042
2052.56	0.524271
2054.02	0.52624
2055.48	0.155755
2056.95	0.121475
2058.41	0.457279
2059.87	0.354712
2061.33	0.606128
2062.8	0.386734
2064.26	0.740471
2065.72	0.606946
2067.18	0.238526
2068.64	0.425958
2070.1	0.378028
2071.56	0.66684
2073.02	0.366292
2074.48	0.115972
2075.94	0.488428
2077.4	0.725877
2078.86	0.558819
2080.31	0.172488
2081.77	0.846482
2083.23	0.2572
2084.69	0.593142
2086.14	0.625446
2087.6	0.640373
2089.06	0.621311
2090.52	0.753256
2091.97	0.649952
2093.43	0.244639
2094.88	0.694849
2096.34	0.322863
2097.79	0.721258
2099.25	0.733602
2100.7	0.779078
2102.16	0.757806
2103.61	0.870837
2105.07	0.8513
2106.52	0.44926
2107.97	0.398608
2109.43	1.23204
2110.88	0.664283
2112.33	0.662375
2113.78	0.675694
2115.24	0.720906
2116.69	0.9315
2118.14	0.759924
2119.59	0.855278
2121.04	0.869185
2122.49	0.669124
2123.94	0.702523
2125.39	1.11784
2126.84	0.969172
2128.29	1.06834
2129.74	1.28224
2131.19	1.27948
2132.64	0.829073
2134.09	0.842326
2135.54	0.839661
2136.98	1.13572
2138.43	1.10269
2139.88	1.48446
2141.33	1.66944
2142.77	1.22724
2144.22	1.39738
2145.67	1.00508
2147.11	1.29103
2148.56	1.47726
2150.01	1.53029
2151.45	1.21793
2152.9	1.56742
2154.34	1.40252
2155.79	1.46916
2157.23	1.45299
2158.67	1.45399
2160.12	1.53896
2161.56	1.60894
2163	1.23297
2164.45	1.32241
2165.89	1.51233
2167.33	1.636
2168.78	1.69243
2170.22	1.14857
2171.66	1.76704
2173.1	1.33583
2174.54	1.56878
2175.98	1.78447
2177.42	1.56792
2178.86	1.13595
2180.3	1.58599
2181.74	1.38839
2183.18	1.4407
2184.62	1.85919
2186.06	1.49601
2187.5	1.63188
2188.94	1.63468
2190.38	1.40443
2191.82	1.10726
2193.25	1.34219
2194.69	1.49275
2196.13	1.44191
2197.57	1.17305
2199	1.13577
2200.44	1.47977
2201.88	0.909938
2203.31	0.938725
2204.75	1.29999
2206.18	1.21429
2207.62	1.29479
2209.05	1.19293
2210.49	1.28911
2211.92	1.21888
2213.36	0.883592
2214.79	1.14328
2216.22	0.874874
2217.66	0.855186
2219.09	1.23232
2220.52	0.637277
2221.96	1.04806
2223.39	0.947241
2224.82	1.05941
2226.25	0.495319
2227.68	0.703469
2229.11	0.942984
2230.55	0.951616
2231.98	0.828923
2233.41	0.788551
2234.84	0.585356
2236.27	0.33447
2237.7	0.362758
2239.12	0.425124
2240.55	0.505339
2241.98	0.42388
2243.41	0.800116
2244.84	0.491628
2246.27	0.851371
2247.7	0.475852
2249.12	0.864996
2250.55	0.551308
2251.98	0.350563
2253.41	0.637334
2254.83	0.777544
2256.26	0.772585
2257.68	0.818261
2259.11	0.817627
2260.54	0.413826
2261.96	0.271494
2263.39	0.520079
2264.81	0.606733
2266.24	0.693196
2267.66	0.372387
2269.08	0.571328
2270.51	0.444151
2271.93	0.609567
2273.35	0.612031
2274.78	0.66342
2276.2	0.356533
2277.62	0.359286
2279.04	0.541417
2280.47	0.723588
2281.89	0.514287
2283.31	0.631089
2284.73	0.307367
2286.15	0.636559
2287.57	0.427413
2288.99	0.381811
2290.41	0.516242
2291.83	0.340412
2293.25	0.65515
2294.67	0.364774
2296.09	0.286859
2297.51	0.552707
2298.93	0.425636
2300.35	0.544437
2301.76	0.515997
2303.18	0.241674
2304.6	0.0328426
2306.02	0.414962
2307.44	0.074223
2308.85	0.686146
2310.27	0.7554
2311.69	0.528264
2313.1	0.103493
2314.52	0.320666
2315.93	0.373913
2317.35	0.394886
2318.76	0.465705
2320.18	0.256038
2321.59	0.672315
2323.01	0.641682
2324.42	0.675101
2325.83	0.52511
2327.25	0.950976
2328.66	0.930705
2330.07	0.3835
2331.49	0.644279
2332.9	0.0664043
2334.31	0.0983405
2335.72	-0.0833907
2337.13	0.343145
2338.55	0.423381
2339.96	0.206822
2341.37	0.498813
2342.78	0.182779
2344.19	0.342725
2345.6	0.633776
2347.01	0.400559
2348.42	0.462301
2349.83	0.196476
2351.24	-0.00421095
2352.65	0.219307
2354.05	0.409015
2355.46	0.402157
2356.87	0.297321
2358.28	0.355325
2359.69	0.397034
2361.09	0.0654254
2362.5	0.285756
2363.91	0.521727
2365.31	0.207051
2366.72	0.297224
2368.13	0.371533
2369.53	0.172304
2370.94	0.103386
2372.34	0.180604
2373.75	0.161934
2375.15	0.224079
2376.56	0.124991
2377.96	-0.264273
2379.37	-0.140008
2380.77	0.111193
2382.17	0.168323
2383.58	0.144492
2384.98	0.440424
2386.38	0.480321
2387.79	0.50489
2389.19	0.0201778
2390.59	0.493187
2391.99	0.44109
2393.39	0.151224
2394.8	0.212213
2396.2	0.369112
2397.6	0.288021
2399	-0.0308919
2400.4	0.0796456
2401.8	0.412767
2403.2	0.396437
2404.6	0.0781298
2406	0.473621
2407.4	0.312699
2408.79	0.405018
2410.19	0.132369
2411.59	0.224549
2412.99	0.174757
2414.39	0.189333
2415.78	0.347562
2417.18	0.11109
2418.58	0.286994
2419.98	0.225717
2421.37	-0.0891151
2422.77	0.41949
2424.16	0.405132
2425.56	0.612656
2426.96	0.329342
2428.35	0.680741
2429.74	0.303648
2431.14	0.0378871
2432.53	0.565739
2433.93	0.569562
2435.32	0.477138
2436.72	0.272214
2438.11	0.272568
2439.5	0.224202
2440.9	0.238625
2442.29	0.0144691
2443.68	0.536047
2445.07	0.295699
2446.47	-0.0397034
2447.86	0.464998
2449.25	-0.187118
2450.64	0.0640202
2452.03	0.0146446
2453.42	0.0924926
2454.81	0.345011
2456.2	0.234209
2457.59	0.266057
2458.98	0.0921707
2460.37	0.503008
2461.76	0.438694
2463.15	-0.0688062
2464.54	-0.292016
2465.93	0.084837
2467.32	-0.0912127
2468.7	0.14309
2470.09	-0.25382
2471.48	0.105935
2472.87	-0.14963
2474.25	0.224239
2475.64	-0.0793767
2477.03	-0.0684605
2478.41	-0.151843
2479.8	-0.0937376
2481.18	0.0741701
2482.57	0.16343
2483.95	0.299142
2485.34	0.402618
2486.72	-0.0887446
2488.11	0.372028
2489.49	0.269978
2490.88	-0.00316954
2492.26	-0.321856
2493.65	0.0442224
2495.03	0.100354
2496.41	0.0953937
2497.79	-0.156684
2499.18	0.00973845
2500.56	-0.102733
2501.94	0.139837
2503.32	0.165031
2504.7	0.0968928
2506.09	0.228702
2507.47	0.28305
2508.85	0.0145178
2510.23	-0.0380907
2511.61	0.232104
2512.99	0.0732241
2514.37	0.313546
2515.75	0.248111
2517.13	0.244593
2518.51	0.134517
2519.89	0.0094285
2521.26	0.0522795
2522.64	-0.0275369
2524.02	0.0446262
2525.4	-0.0972629
2526.78	0.0654192
2528.15	0.121638
2529.53	-0.00382471
2530.91	-0.00630283
2532.28	0.0989232
2533.66	-0.220181
2535.04	-0.280386
2536.41	0.206325
2537.79	0.297496
2539.16	0.160048
2540.54	0.280108
2541.91	0.187295
2543.29	0.413382
2544.66	0.124301
2546.04	-0.0120153
2547.41	0.0801835
2548.78	-0.145495
2550.16	0.372378
2551.53	-0.0508842
2552.9	0.435669
2554.27	0.0108228
2555.65	0.283289
2557.02	0.297314
2558.39	-0.00721169
2559.76	0.128261
2561.13	0.142859
2562.51	0.430763
2563.88	0.249359
2565.25	0.295645
2566.62	0.0390625
2567.99	0.131115
2569.36	0.46569
2570.73	0.345605
2572.1	0.164921
2573.47	0.454207
2574.84	0.167555
2576.2	0.290246
2577.57	-0.0419583
2578.94	-0.0559468
2580.31	0.0814338
2581.68	0.0820265
2583.05	-0.160257
2584.41	-0.0388379
2585.78	-0.402543
2587.15	-0.265904
2588.51	0.204287
2589.88	-0.00743437
2591.24	0.205094
2592.61	-0.325216
2593.98	0.00752354
2595.34	0.0212669
2596.71	-0.117188
2598.07	0.0464387
2599.44	0.149096
2600.8	0.161051
2602.16	0.203611
2603.53	0.291979
2604.89	0.0336976
2606.26	0.469678
2607.62	0.136069
2608.98	0.344662
2610.34	-0.14083
2611.71	0.110805
2613.07	-0.120109
2614.43	-0.0507522
2615.79	0.123291
2617.15	0.0273337
2618.52	-0.21772
2619.88	-0.0127974
2621.24	0.147544
2622.6	0.0839677
2623.96	0.259603
2625.32	0.0917659
2626.68	0.669579
2628.04	-0.139535
2629.4	-0.26273
2630.75	-0.0288057
2632.11	-0.300793
2633.47	0.214919
2634.83	0.0767236
2636.19	0.131535
2637.55	0.304806
2638.9	-0.0403762
2640.26	0.0441771
2641.62	0.232301
2642.98	0.154484
2644.33	0.239328
2645.69	-0.103818
2647.04	0.113424
2648.4	0.0646505
2649.76	0.368502
2651.11	-0.137381
2652.47	-0.0256596
2653.82	0.144694
2655.18	0.549857
2656.53	-0.231063
2657.88	0.0292625
2659.24	0.0559645
2660.59	0.302325
2661.95	-0.182369
2663.3	0.00489759
2664.65	0.162108
2666	-0.104493
2667.36	0.299338
2668.71	-0.0547724
2670.06	0.130269
2671.41	0.373632
2672.76	0.181304
2674.12	0.193046
2675.47	0.350415
2676.82	0.203454
2678.17	0.0426593
2679.52	-0.0738587
2680.87	0.0569706
2682.22	-0.0142136
2683.57	-0.0989499
2684.92	0.0781469
2686.27	0.168705
2687.62	-0.350368
2688.97	0.014987
2690.31	-0.143535
2691.66	0.0739326
2693.01	0.333564
2694.36	0.0266118
2695.71	0.12563
2697.05	0.543735
2698.4	0.224078
2699.75	-0.123003
2701.09	-0.208035
2702.44	0.171594
2703.78	-0.244614
2705.13	0.107606
2706.48	-0.0474267
2707.82	-0.188277
2709.17	0.323706
2710.51	-0.00649643
2711.86	0.156782
2713.2	0.174751
2714.54	0.308976
2715.89	-0.0365691
2717.23	0.170266
2718.57	0.100615
2719.92	-0.0421
2721.26	0.00398254
2722.6	0.0788212
2723.95	-0.137807
2725.29	0.227454
2726.63	0.126644
2727.97	0.0983725
2729.31	-0.119253
2730.65	0.317843
2732	0.274712
2733.34	0.173486
2734.68	0.145166
2736.02	0.262478
2737.36	0.452628
2738.7	-0.0553107
2740.04	0.0183268
2741.38	-0.0538087
2742.72	0.106187
2744.05	-0.0832334
2745.39	0.0901842
2746.73	-0.0999084
2748.07	-0.0141878
2749.41	0.0279794
2750.75	0.258825
2752.08	-0.380156
2753.42	0.155436
2754.76	-0.0335832
2756.09	-0.0195875
2757.43	-0.410891
2758.77	0.168115
2760.1	0.428776
2761.44	-0.164022
2762.78	0.097424
2764.11	0.214418
2765.44	0.0999236
2766.78	0.0574446
2768.11	0.0865884
2769.45	0.20146
2770.78	-0.248542
2772.12	0.167448
2773.45	0.0769415
2774.78	-0.0859342
2776.12	0.183568
2777.45	-0.00762892
2778.78	0.147071
2780.12	0.0289431
2781.45	-0.0456581
2782.78	-0.177481
2784.11	0.0493913
2785.44	0.0323048
2786.78	0.287533
2788.11	-0.244442
2789.44	0.0403032
2790.77	0.096694
2792.1	0.0536113
2793.43	0.0681214
2794.76	-0.274616
2796.09	-0.245929
2797.42	0.282273
2798.75	-0.261222
2800.08	0.0660086
2801.4	0.0361028
2802.73	0.12015
2804.06	0.0329108
2805.39	0.358471
2806.72	0.128041
2808.05	-0.3017
2809.37	-0.219474
2810.7	0.118264
2812.03	0.14378
2813.35	0.212731
2814.68	0.0559621
2816.01	0.0988998
2817.33	0.100224
2818.66	-0.0963888
2819.98	0.0330229
2821.31	0.374687
2822.63	0.0638809
2823.96	0.234404
2825.28	0.206262
2826.61	0.149849
2827.93	0.0797176
2829.25	0.109157
2830.58	0.266377
2831.9	0.452083
2833.23	0.25556
2834.55	0.285281
2835.87	0.34292
2837.19	0.244479
2838.52	-0.207903
2839.84	0.117605
2841.16	0.428881
2842.48	0.203203
2843.8	0.486894
2845.12	0.643911
2846.44	0.716632
2847.77	0.817925
2849.08	0.947526
2850.4	0.822497
2851.73	0.810162
2853.05	1.27794
2854.36	0.953974
2855.68	0.926655
2857	1.2525
2858.32	0.914435
2859.64	1.45206
2860.96	1.49517
2862.28	0.930981
2863.59	1.43941
2864.91	1.76395
2866.23	1.53813
2867.55	1.25622
2868.86	1.62338
2870.18	2.01894
2871.5	1.97755
2872.81	2.04872
2874.13	2.37288
2875.44	2.13255
2876.76	1.93376
2878.07	2.10035
2879.39	2.18214
2880.7	2.02512
2882.02	1.9813
2883.33	2.12093
2884.65	2.2753
2885.96	1.99492
2887.28	1.84105
2888.59	2.19206
2889.9	2.45808
2891.21	2.41474
2892.53	2.09061
2893.84	2.07483
2895.15	2.4094
2896.46	2.21244
2897.78	2.46423
2899.09	2.46491
2900.4	2.34032
2901.71	2.31406
2903.02	2.4698
2904.33	2.58368
2905.64	2.96352
2906.95	2.88222
2908.26	3.06735
2909.57	2.49769
2910.88	3.21573
2912.19	3.44417
2913.5	3.44808
2914.81	3.47883
2916.12	3.31216
2917.43	3.39618
2918.73	3.68917
2920.04	3.75803
2921.35	3.86931
2922.66	4.23317
2923.96	3.75944
2925.27	4.36299
2926.58	4.17033
2927.88	4.43901
2929.19	4.274
2930.5	4.51392
2931.8	4.43188
2933.11	4.47541
2934.41	4.15549
2935.72	4.08727
2937.02	4.77381
2938.33	4.59402
2939.63	4.42844
2940.94	3.98382
2942.24	4.22458
2943.54	4.00516
2944.85	3.91258
2946.15	3.8349
2947.45	4.26133
2948.76	3.8761
2950.06	3.76966
2951.36	3.35362
2952.66	3.56609
2953.97	3.18928
2955.27	3.31618
2956.57	3.3877
2957.87	3.01293
2959.17	3.07419
2960.47	3.43189
2961.77	3.13289
2963.07	3.28304
2964.37	2.88543
2965.67	2.85138
2966.97	2.7035
2968.27	2.44192
2969.57	2.89671
2970.87	2.77489
2972.17	2.35779
2973.47	2.70062
2974.77	2.62133
2976.07	2.68226
2977.36	2.15073
2978.66	2.30771
2979.96	2.22389
2981.26	1.92792
2982.55	2.13802
2983.85	1.85607
2985.15	1.95463
2986.44	1.56249
2987.74	1.32611
2989.03	1.55421
2990.33	1.27659
2991.63	1.2937
2992.92	1.43644
2994.21	1.40947
2995.51	1.28323
2996.8	1.26876
2998.1	0.987431
2999.39	1.50603
3000.69	1.11319
3001.98	1.05746
3003.27	1.07212
3004.57	0.974757
3005.86	0.653133
3007.15	0.863163
3008.44	0.806448
3009.74	0.637164
3011.03	0.565265
3012.32	0.856071
3013.61	0.434862
3014.9	0.725509
3016.19	0.556528
3017.48	0.443993
3018.78	0.568497
3020.07	0.331293
3021.36	0.39975
3022.65	0.55073
3023.94	0.54797
3025.23	0.267236
3026.51	0.180697
3027.8	0.357512
3029.09	0.424209
3030.38	0.201776
3031.67	0.39499
3032.96	0.436977
3034.24	0.216936
3035.53	0.21732
3036.82	0.299367
3038.11	0.490039
3039.39	0.389757
3040.68	0.274603
3041.97	0.172662
3043.25	0.221626
3044.54	0.366837
3045.83	0.376191
3047.11	0.223253
3048.4	0.167878
3049.68	0.550891
3050.97	0.634748
3052.25	0.364439
3053.54	0.285149
3054.82	0.423579
3056.11	0.260992
3057.39	0.561071
3058.67	0.587603
3059.96	0.464
3061.24	0.32713
3062.52	0.503903
3063.81	0.23287
3065.09	0.602052
3066.37	0.455658
3067.65	0.445951
3068.94	0.667688
3070.22	0.426765
3071.5	0.225846
3072.78	0.282288
3074.06	0.419169
3075.34	0.256141
3076.62	0.391659
3077.9	0.13362
3079.18	0.215743
3080.46	0.244644
3081.74	0.0305281
3083.02	0.197147
3084.3	0.269305
3085.58	0.273604
3086.86	0.223159
3088.14	0.0634561
3089.42	0.0659804
3090.69	0.0273242
3091.97	0.36832
3093.25	-0.172459
3094.53	0.0194001
3095.8	-0.0598717
3097.08	0.0235257
3098.36	0.0118613
3099.63	0.0135365
3100.91	0.0827579
3102.19	-0.105435
3103.46	-0.306968
3104.74	0.209246
3106.01	-0.032136
3107.29	0.146642
3108.56	-0.0528054
3109.84	-0.373409
3111.11	0.0646949
3112.39	0.0701532
3113.66	-0.0461102
3114.94	-0.0812426
3116.21	0.452672
3117.48	0.131536
3118.76	0.0670476
3120.03	0.0015521
3121.3	-0.132572
3122.57	0.0173888
3123.85	0.0991907
3125.12	0.411091
3126.39	0.0868363
3127.66	0.0337296
3128.93	0.21086
3130.21	0.0905738
3131.48	-0.11079
3132.75	0.22822
3134.02	0.201843
3135.29	0.0399189
3136.56	0.160886
3137.83	-0.109859
3139.1	0.023479
3140.37	-0.166734
3141.64	0.369448
3142.91	-0.210457
3144.17	-0.158189
3145.44	0.0687032
3146.71	-0.0395074
3147.98	0.227905
3149.25	0.0132961
