200.533	0.246699
202.348	0.274399
204.162	0.302969
205.976	0.0160103
207.792	-0.392182
209.605	0.535789
211.418	0.393017
213.23	0.0548677
215.044	0.516451
216.856	0.298032
218.667	-0.259218
220.478	0.467394
222.289	0.468149
224.102	-0.158996
225.912	0.447183
227.721	-0.227532
229.531	0.305105
231.34	-0.22531
233.148	0.112787
234.956	0.137292
236.766	0.427952
238.574	0.189977
240.381	0.387969
242.188	0.25034
243.994	0.210102
245.801	0.0730238
247.606	0.175715
249.412	-0.0138512
251.217	0.638736
253.024	0.564322
254.828	0.536489
256.632	-0.0945196
258.436	-0.073658
260.239	-0.051506
262.042	-0.00374889
263.845	-0.388342
265.647	0.0469446
267.449	-0.0958738
269.25	0.29116
271.052	-0.118141
272.852	0.170563
274.653	0.578447
276.453	-0.003685
278.253	0.0874844
280.052	0.104454
281.852	0.408323
283.65	0.204952
285.449	-0.0955009
287.247	0.251882
289.044	0.64643
290.842	0.657574
292.639	0.215066
294.436	-0.105936
296.232	0.148361
298.028	0.235981
299.821	0.371641
301.617	-0.0423737
303.412	0.593573
305.206	0.487978
307	0.429282
308.794	1.27618
310.588	-0.0215845
312.381	0.540393
314.172	0.43673
315.964	-0.2606
317.756	0.781907
319.548	0.468331
321.34	0.489155
323.131	0.152898
324.921	-0.493675
326.71	0.052804
328.5	0.575811
330.29	-0.335638
332.079	-0.268473
333.868	0.395399
335.654	0.674726
337.443	0.569084
339.231	-0.280087
341.018	0.28084
342.804	0.29076
344.591	0.133339
346.377	0.191381
348.163	-0.17987
349.947	0.452045
351.733	0.3915
353.518	-0.0752268
355.303	0.339936
357.085	0.324371
358.869	0.593556
360.653	0.0992908
362.435	-0.418924
364.218	0.204263
366.001	0.0893011
367.781	0.353554
369.563	2.00272e-005
371.345	0.167495
373.124	0.38126
374.905	-0.0438595
376.686	-0.0667229
378.464	-0.395661
380.244	-0.13433
382.022	0.198077
383.801	0.0371313
385.58	0.112521
387.357	0.118347
389.135	0.125098
390.911	-0.0552502
392.689	0.187821
394.466	-0.367094
396.241	0.299435
398.018	-0.18474
399.792	0.129406
401.568	0.208291
403.341	0.145656
405.117	-0.246437
406.889	-0.122483
408.664	-0.093009
410.436	0.194344
412.21	0.481599
413.981	0.464072
415.755	0.282927
417.525	0.172851
419.298	0.180625
421.068	-0.562492
422.84	0.0789204
424.609	0.0625086
426.38	-0.37728
428.149	0.309046
429.919	-0.366573
431.688	0.0140619
433.455	0.277551
435.225	0.00152111
436.992	-0.0164003
438.76	-0.105343
440.527	-0.0547266
442.293	-0.0293102
444.06	0.275539
445.826	0.156721
447.593	0.200883
449.357	0.0575085
451.122	-0.132259
452.888	0.682292
454.651	0.0729389
456.415	0.373444
458.18	-0.0485764
459.942	0.879751
461.705	0.574947
463.469	-0.192899
465.23	0.0874195
466.991	-0.001688
468.752	0.213585
470.515	0.0817871
472.275	-0.0496893
474.035	0.330254
475.797	0.452782
477.556	0.177439
479.315	0.156721
481.073	-0.121031
482.834	0.46314
484.592	0.489359
486.349	0.14455
488.106	-0.0122395
489.863	0.298992
491.622	0.0980415
493.378	0.481423
495.134	0.0938931
496.889	0.197156
498.645	0.440948
500.401	0.590971
502.156	0.34164
503.91	0.020669
505.664	0.591435
507.417	0.268007
509.171	0.766333
510.923	0.2517
512.678	0.488564
514.43	0.418214
516.182	0.299638
517.933	0.250634
519.684	0.294833
521.435	0.150382
523.186	0.240504
524.936	0.330354
526.686	0.32626
528.435	0.111178
530.184	0.224298
531.933	0.196413
533.682	0.472145
535.43	0.068181
537.18	0.411467
538.927	0.752882
540.674	0.136437
542.421	0.429093
544.167	0.208941
545.913	-0.475389
547.659	-0.276068
549.403	-0.123359
551.148	0.191259
552.893	0.112144
554.637	0.564787
556.381	0.139645
558.125	0.269111
559.868	-0.03895
561.611	-0.069768
563.354	0.290965
565.097	0.191998
566.839	-0.0670595
568.581	0.179932
570.322	0.198139
572.063	0.286366
573.802	0.238382
575.542	0.765474
577.283	-0.24316
579.022	0.0800905
580.762	0.0597601
582.501	0.154391
584.24	-0.441065
585.976	0.296097
587.714	-0.232618
589.452	0.27281
591.19	0.0182638
592.927	0.269453
594.663	-0.39977
596.398	-0.0336199
598.134	0.102433
599.87	0.376206
601.605	0.603197
603.338	0.0470524
605.073	0.340601
606.808	-0.0795259
608.542	0.418686
610.274	-0.50666
612.007	0.129169
613.74	-0.129095
615.473	0.117626
617.204	0.272675
618.936	-0.282787
620.668	0.122731
622.397	-0.479758
624.128	0.197981
625.859	0.189508
627.588	0.204835
629.318	-0.0748091
631.048	0.446292
632.775	0.330229
634.505	0.443282
636.233	0.236481
637.96	0.484687
639.688	0.890155
641.416	0.494275
643.142	0.415859
644.869	0.268209
646.594	0.871793
648.32	0.0896282
650.045	0.333494
651.771	0.239795
653.496	0.308541
655.219	-0.37046
656.944	-0.0696707
658.667	0.0501308
660.391	-0.309381
662.113	-0.0998974
663.837	0.58793
665.558	0.2455
667.281	0.358596
669.002	0.676961
670.724	0.172612
672.444	0.333288
674.166	0.519149
675.885	0.409175
677.606	-0.0670538
679.325	0.328653
681.045	0.816237
682.763	0.198663
684.483	0.499287
686.2	0.821468
687.917	0.635704
689.636	0.702315
691.352	0.284553
693.07	0.326944
694.786	0.760229
696.501	0.409573
698.219	0.127125
699.933	1.22444
701.65	0.663791
703.364	-0.379642
705.078	0.667701
706.793	0.818042
708.506	1.22003
710.219	0.429597
711.934	0.693213
713.646	1.27632
715.358	0.601384
717.071	0.726691
718.782	1.14841
720.493	0.749092
722.204	0.760486
723.916	1.02216
725.626	1.1469
727.336	1.24845
729.045	0.8956
730.756	1.0644
732.464	1.00608
734.173	1.19657
735.881	0.799109
737.59	1.48655
739.297	1.24847
741.004	1.39489
742.711	0.956559
744.417	0.970247
746.125	1.09769
747.831	1.00134
749.537	1.0187
751.242	0.407438
752.946	0.966907
754.651	0.942804
756.357	1.07754
758.061	0.650852
759.764	1.05855
761.467	1.28741
763.17	1.44938
764.872	1.61133
766.575	1.34312
768.276	1.86416
769.978	1.25293
771.679	1.58945
773.382	1.24633
775.083	2.14645
776.783	1.59998
778.483	2.04961
780.182	2.02587
781.882	1.77692
783.581	1.91265
785.279	1.27772
786.978	1.68185
788.676	1.81141
790.373	1.23666
792.071	1.54173
793.768	1.32555
795.464	1.53814
797.161	1.07508
798.857	1.51501
800.552	1.61838
802.248	1.47545
803.941	1.49065
805.636	1.32585
807.33	1.78957
809.024	1.89243
810.718	1.70234
812.412	1.35472
814.105	1.65689
815.798	1.89118
817.49	1.3422
819.183	1.50934
820.873	2.16761
822.564	1.68727
824.256	2.36779
825.947	2.13522
827.637	2.14993
829.328	1.83321
831.016	1.85339
832.705	1.65339
834.395	1.58886
836.084	1.97123
837.772	2.01907
839.459	1.86488
841.147	1.86545
842.835	1.41796
844.522	1.64026
846.209	1.32686
847.894	1.81982
849.581	1.86805
851.267	2.00823
852.953	1.88148
854.637	2.18163
856.322	1.69602
858.007	1.41076
859.689	1.48352
861.374	1.5998
863.058	1.01634
864.739	0.882
866.423	1.13004
868.106	1.2649
869.787	1.19643
871.469	1.15021
873.151	1.28428
874.831	1.46346
876.512	1.19134
878.193	1.09972
879.872	1.52715
881.553	0.983603
883.231	1.54556
884.911	1.06807
886.591	1.04086
888.268	1.32815
889.947	1.52356
891.623	1.154
893.302	1.05398
894.978	1.7856
896.656	0.851455
898.331	0.996161
900.008	1.63317
901.683	1.7079
903.359	1.37914
905.033	1.14045
906.709	0.90255
908.383	1.22311
910.058	0.987005
911.731	1.04138
913.405	0.962897
915.078	1.21791
916.752	1.1841
918.423	1.34975
920.096	1.0281
921.768	1.52601
923.438	1.14001
925.111	0.601371
926.781	0.594786
928.452	0.9869
930.122	1.2254
931.791	0.912831
933.462	1.41679
935.13	1.28112
936.799	0.307784
938.468	0.967306
940.136	1.20887
941.803	1.47364
943.472	0.988926
945.139	1.2101
946.805	0.635623
948.473	0.964533
950.139	0.629629
951.804	1.35283
953.471	1.25965
955.136	0.837193
956.801	1.03466
958.465	0.0658951
960.131	0.687696
961.794	0.516385
963.458	0.830989
965.12	0.503068
966.785	0.924829
968.447	0.702627
970.109	1.0096
971.771	0.829125
973.432	1.3347
975.095	0.846388
976.756	0.97889
978.417	0.692433
980.077	0.837874
981.737	0.983016
983.396	1.02737
985.057	1.31348
986.716	0.911506
988.375	1.01703
990.033	0.833898
991.691	1.04819
993.349	0.643659
995.006	0.460417
996.663	1.40259
998.32	1.61606
999.976	1.07984
1001.63	1.66699
1003.29	1.52675
1004.95	0.528773
1006.6	0.608871
1008.26	1.43555
1009.91	0.593666
1011.56	0.915527
1013.22	0.733323
1014.87	1.27447
1016.53	0.874068
1018.18	0.540182
1019.83	0.797802
1021.48	0.0941687
1023.14	0.768882
1024.79	1.02893
1026.44	1.11459
1028.09	0.981742
1029.74	0.586192
1031.39	0.823092
1033.04	0.359849
1034.69	0.899256
1036.34	0.564691
1037.99	1.14486
1039.64	0.113326
1041.29	0.823958
1042.94	1.03485
1044.58	0.790829
1046.23	0.744195
1047.88	0.634079
1049.52	0.199625
1051.17	0.591519
1052.82	0.853883
1054.46	0.66034
1056.11	0.227612
1057.75	0.490107
1059.4	0.447872
1061.04	0.492047
1062.69	0.470314
1064.33	0.708701
1065.98	0.620013
1067.62	0.16095
1069.26	0.396574
1070.9	0.17544
1072.55	0.149752
1074.19	0.211287
1075.83	0.36041
1077.47	0.0551701
1079.11	0.705152
1080.76	0.618448
1082.4	0.878655
1084.04	0.400832
1085.68	1.04894
1087.32	1.02308
1088.95	0.345767
1090.59	-0.00751495
1092.23	0.78447
1093.87	0.386825
1095.51	0.594184
1097.15	0.543241
1098.78	1.05359
1100.42	0.703789
1102.06	0.528174
1103.69	0.676891
1105.33	0.396499
1106.97	0.503766
1108.6	1.10534
1110.24	0.738169
1111.87	0.842634
1113.51	0.967034
1115.14	0.596422
1116.77	0.54758
1118.41	0.648968
1120.04	0.386639
1121.67	0.703587
1123.31	0.978362
1124.94	0.547781
1126.57	0.824059
1128.2	1.40028
1129.83	1.1431
1131.47	0.736845
1133.1	0.587446
1134.72	0.416561
1136.36	0.501623
1137.98	0.671192
1139.62	0.625996
1141.24	0.579952
1142.87	0.640207
1144.5	0.508589
1146.13	0.356387
1147.76	0.119884
1149.38	0.139907
1151.01	-0.0100851
1152.64	-0.160018
1154.27	-0.139851
1155.89	0.0076704
1157.52	-0.227954
1159.14	0.493982
1160.77	0.450781
1162.39	-0.0592012
1164.02	0.516048
1165.64	0.134926
1167.27	-0.0763454
1168.89	0.90204
1170.51	0.135696
1172.14	0.642903
1173.76	0.426155
1175.38	0.20864
1177	0.41499
1178.63	0.155218
1180.25	0.150414
1181.87	0.505982
1183.49	0.333169
1185.11	0.350709
1186.73	0.662994
1188.35	0.488107
1189.97	0.417193
1191.59	-0.118342
1193.21	0.187173
1194.83	0.428193
1196.45	-0.0651703
1198.07	0.804482
1199.68	0.711612
1201.3	0.829981
1202.92	0.491237
1204.53	0.927309
1206.15	0.780804
1207.77	0.614648
1209.38	0.407023
1211	0.511574
1212.62	0.739652
1214.23	0.903024
1215.84	0.564459
1217.46	1.14015
1219.07	0.965725
1220.69	0.895362
1222.3	0.51472
1223.91	1.77271
1225.53	1.10467
1227.14	1.22522
1228.75	0.953961
1230.36	1.13892
1231.97	1.18019
1233.59	0.788522
1235.2	1.12139
1236.81	1.33136
1238.42	1.45963
1240.03	1.58858
1241.64	1.36613
1243.25	2.15699
1244.85	1.27133
1246.46	1.6882
1248.07	1.69026
1249.68	1.93989
1251.29	1.92023
1252.9	1.15616
1254.5	2.02689
1256.11	1.43008
1257.72	1.66182
1259.32	1.60505
1260.93	2.23218
1262.54	1.80412
1264.14	1.35502
1265.75	1.94135
1267.35	0.95196
1268.96	1.88939
1270.56	1.51981
1272.16	1.9993
1273.77	1.44114
1275.37	2.25025
1276.97	1.794
1278.57	1.19228
1280.18	2.12267
1281.78	1.54114
1283.38	1.3533
1284.98	1.82785
1286.58	1.72411
1288.18	1.70409
1289.78	1.54027
1291.38	2.20349
1292.99	1.64745
1294.58	1.6073
1296.18	2.392
1297.78	1.44054
1299.38	1.74697
1300.98	1.57742
1302.58	1.75714
1304.17	1.68871
1305.77	2.31869
1307.37	1.73524
1308.97	1.80919
1310.56	2.04694
1312.16	2.20269
1313.76	1.45904
1315.35	2.67924
1316.95	1.93838
1318.54	1.79083
1320.14	1.76567
1321.73	1.61746
1323.32	2.18026
1324.92	2.33365
1326.51	1.61243
1328.1	1.72376
1329.7	2.11878
1331.29	2.06955
1332.88	2.06299
1334.47	2.05864
1336.07	2.01549
1337.66	2.49726
1339.25	1.88935
1340.84	1.44178
1342.43	2.03933
1344.02	1.74936
1345.61	1.7602
1347.2	1.69099
1348.79	1.54345
1350.37	1.97885
1351.96	1.63606
1353.55	1.77535
1355.14	1.35614
1356.73	1.69678
1358.31	1.93693
1359.9	0.957941
1361.49	1.75517
1363.07	1.334
1364.66	1.25192
1366.25	1.68819
1367.83	1.36805
1369.42	1.58678
1371	1.48829
1372.59	1.86867
1374.17	1.39447
1375.75	1.69691
1377.34	1.78057
1378.92	1.10757
1380.5	1.50815
1382.09	1.19127
1383.67	1.23133
1385.25	0.773573
1386.83	1.09065
1388.42	1.18916
1390	0.990457
1391.58	1.28876
1393.16	1.8455
1394.74	1.03384
1396.32	0.46032
1397.9	1.03621
1399.48	0.897483
1401.06	0.57981
1402.64	0.934975
1404.21	1.13148
1405.79	0.774619
1407.37	0.814128
1408.95	1.01241
1410.53	0.934483
1412.1	0.75782
1413.68	0.501801
1415.26	1.15282
1416.83	0.382624
1418.41	1.05171
1419.98	1.14913
1421.56	0.853646
1423.13	0.638481
1424.71	1.60573
1426.28	1.19628
1427.86	1.53522
1429.43	1.5393
1431	1.38509
1432.58	1.66278
1434.15	0.719768
1435.72	1.42892
1437.29	1.39075
1438.87	1.60881
1440.44	1.84737
1442.01	1.79201
1443.58	1.6587
1445.15	2.11536
1446.72	1.78603
1448.29	1.732
1449.86	1.52096
1451.43	2.56871
1453	2.33903
1454.57	2.01126
1456.14	1.93907
1457.71	2.1811
1459.27	1.91025
1460.84	1.46067
1462.41	1.5801
1463.98	1.54063
1465.54	1.00888
1467.11	1.49885
1468.67	1.3015
1470.24	2.00785
1471.81	1.8712
1473.37	0.951142
1474.94	1.09104
1476.5	1.05479
1478.07	1.03826
1479.63	1.3157
1481.19	0.436625
1482.76	0.870697
1484.32	0.618746
1485.88	0.856319
1487.45	0.603485
1489.01	0.486722
1490.57	0.818521
1492.13	1.26526
1493.69	0.849879
1495.26	0.160725
1496.82	0.680338
1498.38	0.478515
1499.94	0.413717
1501.5	0.854696
1503.06	0.655828
1504.62	0.341856
1506.17	0.106096
1507.73	0.334372
1509.29	0.464734
1510.85	1.09548
1512.41	0.355735
1513.97	0.810771
1515.52	0.22692
1517.08	0.758448
1518.64	0.944263
1520.19	0.613048
1521.75	0.665387
1523.31	0.640863
1524.86	0.367541
1526.42	0.742274
1527.97	0.658272
1529.52	0.383913
1531.08	0.490041
1532.63	0.785932
1534.19	0.816732
1535.74	0.621428
1537.29	0.899705
1538.85	0.630666
1540.4	0.400204
1541.95	0.716544
1543.5	0.655812
1545.06	1.06504
1546.61	1.34178
1548.16	1.48648
1549.71	0.918647
1551.26	0.838955
1552.81	1.71388
1554.36	1.78448
1555.91	1.50148
1557.46	0.865876
1559.01	0.792322
1560.56	1.52262
1562.11	0.929778
1563.65	1.21471
1565.2	1.61216
1566.75	1.41263
1568.29	1.77276
1569.84	1.12465
1571.39	1.65212
1572.94	1.95536
1574.48	1.36245
1576.03	1.85227
1577.57	1.74495
1579.12	1.71269
1580.66	2.55862
1582.21	1.98623
1583.75	1.61987
1585.3	1.62772
1586.84	1.31819
1588.38	1.40132
1589.93	1.93341
1591.47	1.92263
1593.01	1.31219
1594.55	1.80625
1596.1	1.83224
1597.64	1.59625
1599.18	1.69821
1600.72	1.91346
1602.26	1.50997
1603.8	1.61306
1605.34	1.32108
1606.88	1.81697
1608.42	1.6346
1609.96	1.84479
1611.5	1.41395
1613.04	1.7892
1614.58	1.13065
1616.12	1.11026
1617.65	1.22153
1619.19	1.29626
1620.73	1.4659
1622.27	1.22474
1623.8	1.34008
1625.34	1.58641
1626.87	1.34537
1628.41	1.62714
1629.95	1.58953
1631.48	1.96217
1633.02	1.73634
1634.55	1.49242
1636.09	1.86518
1637.62	1.49249
1639.15	1.95957
1640.69	1.81134
1642.22	1.73714
1643.76	2.20197
1645.29	1.84636
1646.82	2.38293
1648.35	1.59922
1649.88	2.20958
1651.42	2.35619
1652.95	2.20711
1654.48	2.33733
1656.01	2.17151
1657.54	2.09835
1659.07	2.52456
1660.6	2.02353
1662.13	2.20618
1663.66	1.70358
1665.19	1.69995
1666.72	2.15804
1668.24	1.47311
1669.77	1.76726
1671.3	2.08091
1672.83	1.87965
1674.35	1.55001
1675.88	2.03034
1677.41	1.62624
1678.93	1.55258
1680.46	1.91929
1681.99	1.64179
1683.51	1.54797
1685.04	1.03231
1686.56	1.12278
1688.09	0.480417
1689.61	1.15799
1691.13	0.809775
1692.66	0.754768
1694.18	0.772924
1695.71	0.73607
1697.23	0.443241
1698.75	0.698281
1700.27	0.459918
1701.8	0.458512
1703.32	1.07624
1704.84	0.508937
1706.36	0.92466
1707.88	0.466874
1709.4	0.373063
1710.92	0.00728655
1712.44	0.186222
1713.96	0.328759
1715.48	-0.0538464
1717	0.812131
1718.52	0.176581
1720.04	0.155971
1721.56	0.29792
1723.07	0.205747
1724.59	0.186582
1726.11	0.276544
1727.63	0.205507
1729.14	0.0633183
1730.66	-0.0255084
1732.18	0.364094
1733.69	0.238472
1735.21	-0.0178943
1736.72	-0.0794773
1738.24	0.225078
1739.75	0.556635
1741.27	0.370493
1742.78	0.354748
1744.3	-0.662697
1745.81	0.286254
1747.32	0.16116
1748.84	-0.0276966
1750.35	-0.119429
1751.86	0.195706
1753.37	-0.364765
1754.89	0.0829635
1756.4	0.00819683
1757.91	-0.00209236
1759.42	0.138059
1760.93	-0.0152378
1762.44	-0.292321
1763.95	-0.192936
1765.46	-0.00622368
1766.97	-0.342879
1768.48	-0.256309
1769.99	-0.0302749
1771.5	0.138404
1773.01	0.118209
1774.52	0.254171
1776.03	-0.049602
1777.53	-0.137112
1779.04	0.177414
1780.55	0.186743
1782.06	-0.135295
1783.56	-0.214026
1785.07	-0.0675387
1786.57	-0.132749
1788.08	0.126798
1789.59	0.113974
1791.09	0.0981269
1792.6	-0.0603743
1794.1	0.0843096
1795.6	0.126919
1797.11	-0.0765858
1798.61	0.412706
1800.12	0.227408
1801.62	0.249107
1803.12	0.0510755
1804.63	-0.0104308
1806.13	-0.0611277
1807.63	0.000120163
1809.13	0.432761
1810.63	0.205162
1812.14	0.0633526
1813.64	0.0520291
1815.14	0.20031
1816.64	-0.215342
1818.14	-0.144993
1819.64	-0.136527
1821.14	0.201068
1822.64	-0.0938063
1824.14	-0.0466757
1825.63	0.0326047
1827.13	-0.0328994
1828.63	-0.259166
1830.13	0.0617929
1831.63	0.306141
1833.12	0.11491
1834.62	0.185175
1836.12	0.029912
1837.62	-0.0718298
1839.11	0.166294
1840.61	0.0909662
1842.1	0.0932508
1843.6	0.208211
1845.09	-0.20716
1846.59	0.073257
1848.08	0.00837326
1849.58	0.355498
1851.07	-0.189339
1852.57	0.0671778
1854.06	0.128305
1855.55	-0.021966
1857.04	-0.00642157
1858.54	0.146126
1860.03	0.027071
1861.52	-0.0131612
1863.01	0.0715704
1864.5	0.160791
1866	-0.106417
1867.49	0.120564
1868.98	0.211027
1870.47	-0.120178
1871.96	0.164288
1873.45	-0.0488439
1874.94	0.0574794
1876.43	0.236539
1877.92	-0.100242
1879.41	-0.135169
1880.89	-0.106095
1882.38	0.0122113
1882.48	0.0184855
1883.97	0.333167
1885.47	-0.0152078
1886.96	0.0888853
1888.46	-0.225337
1889.95	0.191639
1891.44	0.174214
1892.94	-0.224432
1894.43	0.0564756
1895.92	0.269085
1897.41	0.0824556
1898.9	0.817626
1900.4	0.229992
1901.89	0.354252
1903.38	0.16397
1904.87	0.0247946
1906.36	0.267345
1907.85	0.110192
1909.34	-0.1852
1910.83	0.283814
1912.32	0.354299
1913.81	0.407882
1915.29	0.114717
1916.78	0.0121117
1918.27	0.446432
1919.76	0.533576
1921.25	0.100941
1922.74	0.344202
1924.22	0.0340457
1925.71	0.296131
1927.2	-0.0122237
1928.68	0.355142
1930.17	0.324303
1931.65	0.0157442
1933.14	0.104337
1934.63	0.0010829
1936.11	0.363732
1937.59	0.033361
1939.08	0.221395
1940.56	0.253985
1942.05	0.287207
1943.53	0.510997
1945.01	0.149033
1946.5	0.149629
1947.98	0.0811191
1949.46	-0.332453
1950.94	0.06285
1952.43	0.233278
1953.91	0.282642
1955.39	-0.0461926
1956.87	0.192398
1958.35	-0.0150046
1959.83	-0.153003
1961.31	0.0696325
1962.79	0.240823
1964.27	0.0519342
1965.75	0.393693
1967.23	0.186844
1968.71	-0.191344
1970.19	0.268064
1971.67	0.28251
1973.14	-0.30052
1974.62	0.123665
1976.1	0.138321
1977.58	0.0168304
1979.05	-0.00229931
1980.53	-0.0384378
1982.01	0.0613222
1983.48	0.194684
1984.96	-0.368343
1986.43	0.188687
1987.91	0.287251
1989.38	-0.00359535
1990.86	-0.0396776
1992.33	-0.328708
1993.81	0.262382
1995.28	0.19456
1996.76	0.498801
1998.23	0.363722
1999.7	0.414093
2001.18	0.261426
2002.65	-0.0770373
2004.12	0.377045
2005.59	0.32543
2007.06	0.341813
2008.54	0.796743
2010.01	0.646111
2011.48	0.108805
2012.95	0.0597868
2014.42	0.060946
2015.89	0.229751
2017.36	0.280001
2018.83	0.211867
2020.3	0.546605
2021.77	0.326674
2023.24	0.442917
2024.71	0.0227613
2026.17	0.408934
2027.64	0.427117
2029.11	-0.0902328
2030.58	0.383089
2032.04	0.303641
2033.51	0.44277
2034.98	0.0445981
2036.45	0.250618
2037.91	0.036252
2039.38	0.409704
2040.84	-0.174935
2042.31	0.333356
2043.77	0.405197
2045.24	0.275883
2046.7	0.0123577
2048.17	0.270976
2049.63	0.259965
2051.1	0.383035
2052.56	0.639863
2054.02	0.355577
2055.48	-0.0143991
2056.95	0.137317
2058.41	0.20403
2059.87	0.220005
2061.33	0.253103
2062.8	0.589791
2064.26	0.422243
2065.72	0.743567
2067.18	0.274606
2068.64	0.580272
2070.1	0.246606
2071.56	0.619979
2073.02	0.370341
2074.48	0.170946
2075.94	0.442778
2077.4	0.276477
2078.86	0.210896
2080.31	0.448055
2081.77	0.651041
2083.23	0.584074
2084.69	0.466043
2086.14	0.650278
2087.6	0.514369
2089.06	0.546297
2090.52	0.947551
2091.97	0.324214
2093.43	0.0873847
2094.88	0.689134
2096.34	0.753446
2097.79	0.147165
2099.25	0.779734
2100.7	0.591614
2102.16	0.821694
2103.61	0.501049
2105.07	0.31532
2106.52	0.664708
2107.97	0.447655
2109.43	0.597838
2110.88	0.464132
2112.33	0.679403
2113.78	1.07624
2115.24	1.23816
2116.69	1.14962
2118.14	0.795702
2119.59	0.559593
2121.04	0.690265
2122.49	0.80581
2123.94	0.839591
2125.39	0.973402
2126.84	0.791976
2128.29	0.775555
2129.74	0.658596
2131.19	0.573805
2132.64	0.802952
2134.09	0.965598
2135.54	1.04602
2136.98	1.06145
2138.43	1.50808
2139.88	1.12997
2141.33	1.16641
2142.77	1.31962
2144.22	1.55622
2145.67	1.29665
2147.11	1.45052
2148.56	1.67021
2150.01	1.54135
2151.45	1.08018
2152.9	1.46314
2154.34	1.43115
2155.79	1.97858
2157.23	1.68113
2158.67	1.58308
2160.12	1.53585
2161.56	1.68896
2163	1.31325
2164.45	2.16606
2165.89	2.15754
2167.33	1.21856
2168.78	1.62403
2170.22	1.31321
2171.66	2.24808
2173.1	1.41795
2174.54	1.76768
2175.98	2.08349
2177.42	1.81738
2178.86	1.93438
2180.3	2.25175
2181.74	1.95475
2183.18	1.84114
2184.62	1.8608
2186.06	1.61435
2187.5	1.71724
2188.94	1.88677
2190.38	1.30728
2191.82	1.7762
2193.25	1.6785
2194.69	1.42979
2196.13	1.59574
2197.57	1.56017
2199	1.37346
2200.44	1.30241
2201.88	1.29769
2203.31	1.37647
2204.75	1.5058
2206.18	1.20497
2207.62	1.20306
2209.05	0.886381
2210.49	1.14867
2211.92	1.21131
2213.36	1.0914
2214.79	1.16973
2216.22	0.885279
2217.66	1.24548
2219.09	0.897262
2220.52	1.07755
2221.96	0.878783
2223.39	0.712534
2224.82	1.17106
2226.25	1.00229
2227.68	0.815954
2229.11	0.875254
2230.55	0.605651
2231.98	0.778904
2233.41	0.771908
2234.84	0.765519
2236.27	0.433316
2237.7	0.445697
2239.12	0.573729
2240.55	0.784781
2241.98	0.589459
2243.41	0.59087
2244.84	0.59258
2246.27	0.789523
2247.7	0.446985
2249.12	0.60833
2250.55	0.865473
2251.98	0.599874
2253.41	0.431619
2254.83	0.507569
2256.26	0.600727
2257.68	0.760515
2259.11	0.0139742
2260.54	0.729914
2261.96	0.490529
2263.39	0.593239
2264.81	0.680098
2266.24	0.571651
2267.66	0.462459
2269.08	0.905763
2270.51	0.648692
2271.93	0.74928
2273.35	0.442598
2274.78	0.298731
2276.2	0.578583
2277.62	0.418664
2279.04	0.601057
2280.47	0.538894
2281.89	0.639703
2283.31	-0.0589385
2284.73	0.00907421
2286.15	0.19153
2287.57	0.472323
2288.99	0.279965
2290.41	0.855752
2291.83	0.206215
2293.25	0.341203
2294.67	0.296317
2296.09	0.300425
2297.51	-0.0393958
2298.93	0.587078
2300.35	0.525872
2301.76	0.153275
2303.18	0.66644
2304.6	0.605749
2306.02	0.183628
2307.44	0.303043
2308.85	0.307076
2310.27	0.0475535
2311.69	0.231666
2313.1	-0.2094
2314.52	0.0737391
2315.93	0.390565
2317.35	0.296416
2318.76	0.284939
2320.18	0.355749
2321.59	0.310281
2323.01	0.29635
2324.42	0.33013
2325.83	0.263147
2327.25	0.343313
2328.66	0.801821
2330.07	0.699903
2331.49	-0.0268307
2332.9	-0.126759
2334.31	0.251168
2335.72	0.00399971
2337.13	0.266461
2338.55	0.52801
2339.96	0.344742
2341.37	0.357984
2342.78	0.321556
2344.19	0.383537
2345.6	0.0522876
2347.01	0.262183
2348.42	-0.0356026
2349.83	0.304696
2351.24	0.00640154
2352.65	0.197828
2354.05	-0.280832
2355.46	0.137467
2356.87	0.408066
2358.28	-0.0050869
2359.69	-0.124821
2361.09	0.421222
2362.5	0.23649
2363.91	-0.239461
2365.31	0.143023
2366.72	0.00765562
2368.13	-0.078568
2369.53	0.0619636
2370.94	0.493408
2372.34	0.329269
2373.75	0.246614
2375.15	0.11605
2376.56	0.291026
2377.96	0.304197
2379.37	0.332212
2380.77	0.423077
2382.17	-0.128792
2383.58	0.200799
2384.98	0.0814862
2386.38	0.210398
2387.79	0.212009
2389.19	0.0311708
2390.59	0.233948
2391.99	0.246285
2393.39	0.243484
2394.8	0.368567
2396.2	0.0648561
2397.6	0.477027
2399	0.237974
2400.4	0.205932
2401.8	0.428286
2403.2	0.253579
2404.6	0.269191
2406	0.173025
2407.4	0.0920701
2408.79	0.200895
2410.19	-0.245459
2411.59	0.164327
2412.99	0.020061
2414.39	0.462639
2415.78	0.383813
2417.18	-0.0897369
2418.58	0.35568
2419.98	0.183907
2421.37	0.107028
2422.77	0.204127
2424.16	-0.063386
2425.56	0.0652299
2426.96	0.41615
2428.35	0.324014
2429.74	0.264284
2431.14	0.427198
2432.53	0.11416
2433.93	0.324548
2435.32	0.248272
2436.72	0.282033
2438.11	0.0603976
2439.5	0.0602145
2440.9	-0.162996
2442.29	0.0421414
2443.68	0.357977
2445.07	0.3086
2446.47	0.164014
2447.86	0.130385
2449.25	0.0967689
2450.64	-0.158317
2452.03	-0.0962629
2453.42	0.0454378
2454.81	-0.0179415
2456.2	0.283061
2457.59	-0.143345
2458.98	0.157774
2460.37	0.205368
2461.76	0.299756
2463.15	0.314438
2464.54	0.0284576
2465.93	0.121497
2467.32	0.119668
2468.7	0.102019
2470.09	0.305034
2471.48	0.208002
2472.87	0.173573
2474.25	0.201566
2475.64	0.0559764
2477.03	0.00463152
2478.41	0.000438213
2479.8	-0.176241
2481.18	-0.289794
2482.57	0.301838
2483.95	-0.0627761
2485.34	0.18257
2486.72	0.114086
2488.11	-0.0799255
2489.49	0.146766
2490.88	0.201527
2492.26	0.287634
2493.65	0.203567
2495.03	-0.00338078
2496.41	0.054492
2497.79	0.112945
2499.18	-0.0606351
2500.56	0.0287442
2501.94	-0.052598
2503.32	-0.0109968
2504.7	0.21495
2506.09	0.100945
2507.47	0.063952
2508.85	-0.111234
2510.23	0.267152
2511.61	0.369101
2512.99	0.532803
2514.37	0.329338
2515.75	0.24932
2517.13	0.139428
2518.51	0.0912504
2519.89	0.4253
2521.26	-0.0353856
2522.64	-0.0381117
2524.02	0.141578
2525.4	-0.273937
2526.78	-0.262596
2528.15	-0.311852
2529.53	0.0350976
2530.91	0.0332823
2532.28	-0.210362
2533.66	0.245981
2535.04	0.0495691
2536.41	0.0506611
2537.79	-0.343687
2539.16	0.111918
2540.54	-0.146938
2541.91	-0.0264616
2543.29	-0.254837
2544.66	-0.270106
2546.04	0.140224
2547.41	-0.191775
2548.78	0.0836477
2550.16	0.055778
2551.53	0.164144
2552.9	-0.350399
2554.27	0.196608
2555.65	-0.0461831
2557.02	0.0292444
2558.39	0.256162
2559.76	0.286092
2561.13	0.452845
2562.51	0.362444
2563.88	0.0452313
2565.25	0.0769205
2566.62	0.108815
2567.99	0.0801735
2569.36	0.142484
2570.73	0.0835557
2572.1	0.221712
2573.47	0.375117
2574.84	0.0132003
2576.2	0.212222
2577.57	0.365745
2578.94	0.412981
2580.31	0.459955
2581.68	0.0972147
2583.05	0.113276
2584.41	-0.0679212
2585.78	0.357216
2587.15	0.22157
2588.51	0.07095
2589.88	0.0871549
2591.24	0.0578227
2592.61	0.0281606
2593.98	-0.00208282
2595.34	0.133511
2596.71	-0.0950694
2598.07	-0.127342
2599.44	0.384429
2600.8	0.0495033
2602.16	-0.0581274
2603.53	0.287727
2604.89	-0.135821
2606.26	0.240593
2607.62	0.02843
2608.98	0.0720496
2610.34	0.0394068
2611.71	0.306823
2613.07	-0.0286055
2614.43	0.131744
2615.79	0.201525
2617.15	0.121439
2618.52	-0.0778365
2619.88	-0.141484
2621.24	0.184304
2622.6	0.06178
2623.96	0.357729
2625.32	0.0414391
2626.68	0.0683842
2628.04	0.28877
2629.4	0.0470061
2630.75	0.0286446
2632.11	0.144032
2633.47	0.199796
2634.83	0.255461
2636.19	-0.311849
2637.55	0.14423
2638.9	0.421948
2640.26	0.166747
2641.62	0.163472
2642.98	0.17521
2644.33	-0.0343628
2645.69	0.405441
2647.04	-0.113904
2648.4	0.339228
2649.76	-0.092032
2651.11	-0.0378218
2652.47	0.104162
2653.82	-0.120758
2655.18	0.300257
2656.53	0.340626
2657.88	0.294056
2659.24	0.0434732
2660.59	-0.0895386
2661.95	0.113634
2663.3	-0.0782099
2664.65	0.0215249
2666	0.29558
2667.36	0.30651
2668.71	0.157174
2670.06	-0.26816
2671.41	-0.0963297
2672.76	-0.0259604
2674.12	0.0883722
2675.47	-0.087256
2676.82	-0.00112772
2678.17	-0.0595932
2679.52	0.332104
2680.87	0.231557
2682.22	0.0739727
2683.57	0.105786
2684.92	-0.253257
2686.27	0.243922
2687.62	-0.0569448
2688.97	0.410603
2690.31	0.15105
2691.66	-0.0372634
2693.01	0.353735
2694.36	0.149073
2695.71	-0.0120406
2697.05	-0.288417
2698.4	0.131447
2699.75	-0.142593
2701.09	-0.0533104
2702.44	0.0950766
2703.78	0.302353
2705.13	0.0318346
2706.48	0.0657072
2707.82	-0.17627
2709.17	-0.128401
2710.51	-0.109812
2711.86	-0.134972
2713.2	0.2321
2714.54	0.0324712
2715.89	0.210729
2717.23	0.287189
2718.57	0.0143614
2719.92	0.483244
2721.26	0.428037
2722.6	0.561659
2723.95	0.316484
2725.29	0.36208
2726.63	0.480164
2727.97	0.437899
2729.31	0.162627
2730.65	0.352933
2732	0.0194268
2733.34	0.122483
2734.68	0.225665
2736.02	0.445354
2737.36	0.185199
2738.7	0.0704994
2740.04	0.464623
2741.38	0.160378
2742.72	0.102893
2744.05	0.539042
2745.39	0.378779
2746.73	0.436136
2748.07	0.362664
2749.41	0.144207
2750.75	0.288675
2752.08	0.505733
2753.42	-0.00180721
2754.76	0.316961
2756.09	0.0707793
2757.43	0.360626
2758.77	-0.000897408
2760.1	0.130129
2761.44	0.420668
2762.78	0.248504
2764.11	-0.0101914
2765.44	-0.00841856
2766.78	0.224515
2768.11	0.12402
2769.45	0.239512
2770.78	0.180381
2772.12	-0.0674543
2773.45	0.492384
2774.78	0.214655
2776.12	0.211062
2777.45	0.351681
2778.78	0.248044
2780.12	0.274311
2781.45	0.458782
2782.78	0.269956
2784.11	0.296478
2785.44	0.00764227
2786.78	0.0344334
2788.11	0.190402
2789.44	0.160806
2790.77	0.0604181
2792.1	-0.282373
2793.43	-0.110024
2794.76	0.305262
2796.09	-0.0657511
2797.42	-0.036993
2798.75	0.291183
2800.08	0.204873
2801.4	0.0756464
2802.73	0.302863
2804.06	0.144889
2805.39	0.357078
2806.72	0.283878
2808.05	0.252963
2809.37	0.164922
2810.7	-0.0507793
2812.03	0.117435
2813.35	-0.110845
2814.68	0.44192
2816.01	0.244244
2817.33	0.104193
2818.66	0.31895
2819.98	0.647121
2821.31	0.393842
2822.63	0.536882
2823.96	0.197662
2825.28	0.382416
2826.61	0.326374
2827.93	0.313222
2829.25	0.442078
2830.58	0.415564
2831.9	0.629871
2833.23	0.702579
2834.55	0.718417
2835.87	0.380067
2837.19	0.550799
2838.52	0.763554
2839.84	0.636626
2841.16	0.736052
2842.48	0.977101
2843.8	1.20444
2845.12	1.16381
2846.44	1.0389
2847.77	1.19693
2849.08	1.38326
2850.4	1.42804
2851.73	1.65617
2853.05	1.78491
2854.36	1.60243
2855.68	1.88608
2857	1.77409
2858.32	1.78928
2859.64	1.635
2860.96	1.70654
2862.28	1.77781
2863.59	2.27216
2864.91	2.34273
2866.23	2.24396
2867.55	2.37108
2868.86	2.4844
2870.18	2.72491
2871.5	2.71177
2872.81	3.47354
2874.13	2.96623
2875.44	3.16256
2876.76	3.62526
2878.07	3.17211
2879.39	3.26765
2880.7	2.88543
2882.02	3.57203
2883.33	3.5006
2884.65	3.50028
2885.96	3.21975
2887.28	3.10781
2888.59	3.51473
2889.9	3.26144
2891.21	3.30206
2892.53	3.41216
2893.84	3.32587
2895.15	3.37998
2896.46	3.16877
2897.78	3.89612
2899.09	3.77061
2900.4	3.61786
2901.71	3.64739
2903.02	3.91488
2904.33	4.37828
2905.64	3.89076
2906.95	4.22896
2908.26	4.5819
2909.57	4.5859
2910.88	4.40849
2912.19	4.98685
2913.5	5.03274
2914.81	4.44731
2916.12	5.56827
2917.43	5.55366
2918.73	5.64999
2920.04	5.38242
2921.35	5.95451
2922.66	5.92637
2923.96	6.22105
2925.27	5.66415
2926.58	6.30997
2927.88	5.94936
2929.19	6.30133
2930.5	6.55488
2931.8	6.41649
2933.11	6.64126
2934.41	7.22932
2935.72	7.11859
2937.02	6.1276
2938.33	6.54825
2939.63	6.81539
2940.94	6.0769
2942.24	5.85619
2943.54	5.56664
2944.85	5.99117
2946.15	5.70383
2947.45	5.36086
2948.76	4.9754
2950.06	5.02266
2951.36	4.97029
2952.66	5.57429
2953.97	4.65071
2955.27	4.77687
2956.57	4.9177
2957.87	4.47242
2959.17	4.53338
2960.47	4.6949
2961.77	4.36782
2963.07	4.3496
2964.37	4.10624
2965.67	4.38105
2966.97	4.20487
2968.27	4.3366
2969.57	4.27076
2970.87	3.55771
2972.17	3.61831
2973.47	3.65104
2974.77	3.48668
2976.07	3.34983
2977.36	3.02875
2978.66	3.26939
2979.96	3.42393
2981.26	3.07056
2982.55	3.16699
2983.85	2.98235
2985.15	2.67223
2986.44	2.70073
2987.74	2.30886
2989.03	2.29719
2990.33	2.49651
2991.63	2.4846
2992.92	2.02202
2994.21	1.76924
2995.51	2.07745
2996.8	1.73889
2998.1	1.86348
2999.39	1.53922
3000.69	1.7484
3001.98	1.42521
3003.27	1.48084
3004.57	1.57849
3005.86	1.21368
3007.15	1.4925
3008.44	1.08475
3009.74	0.914373
3011.03	0.869328
3012.32	1.01939
3013.61	0.597154
3014.9	0.803104
3016.19	0.967425
3017.48	0.575167
3018.78	0.489806
3020.07	0.877382
3021.36	0.777641
3022.65	0.413399
3023.94	0.715027
3025.23	0.959963
3026.51	1.09334
3027.8	0.493354
3029.09	0.572653
3030.38	0.418008
3031.67	0.637458
3032.96	0.67801
3034.24	0.732525
3035.53	0.345067
3036.82	0.729033
3038.11	0.918099
3039.39	0.334517
3040.68	0.451956
3041.97	0.815331
3043.25	0.752623
3044.54	0.731699
3045.83	0.780396
3047.11	0.72135
3048.4	0.896275
3049.68	0.717848
3050.97	1.04561
3052.25	0.855387
3053.54	0.965311
3054.82	0.883593
3056.11	0.541839
3057.39	0.717401
3058.67	0.851151
3059.96	0.94355
3061.24	1.17209
3062.52	0.748217
3063.81	0.733588
3065.09	1.00559
3066.37	0.83
3067.65	0.709493
3068.94	0.643584
3070.22	0.604552
3071.5	0.374333
3072.78	0.46948
3074.06	0.481918
3075.34	0.357609
3076.62	0.395996
3077.9	0.190197
3079.18	0.351594
3080.46	0.432537
3081.74	0.324664
3083.02	0.461843
3084.3	0.463822
3085.58	0.0857472
3086.86	0.45364
3088.14	-0.102085
3089.42	0.210217
3090.69	0.277698
3091.97	0.412735
3093.25	0.30355
3094.53	0.316561
3095.8	0.153393
3097.08	0.315572
3098.36	0.206439
3099.63	0.300366
3100.91	0.204387
3102.19	-0.0135159
3103.46	0.229079
3104.74	0.0657392
3106.01	0.0517435
3107.29	0.187162
3108.56	0.187907
3109.84	0.202879
3111.11	0.0289311
3112.39	0.30231
3113.66	0.169589
3114.94	0.185743
3116.21	0.160731
3117.48	0.0670896
3118.76	0.338668
3120.03	0.161642
3121.3	-0.124657
3122.57	0.333996
3123.85	0.168811
3125.12	0.1933
3126.39	0.136736
3127.66	0.229309
3128.93	0.25444
3130.21	-0.19356
3131.48	0.0209646
3132.75	-0.00814629
3134.02	0.191926
3135.29	0.0132341
3136.56	-0.165872
3137.83	-0.156566
3139.1	0.229443
3140.37	-0.166172
3141.64	0.0169959
3142.91	-0.0957327
3144.17	-0.114126
3145.44	0.176331
3146.71	0.27901
3147.98	-0.0468159
3149.25	-0.13098
