200.533	0.161938
202.348	0.20631
204.162	0.251607
205.976	-0.310477
207.792	-0.0212383
209.605	0.412545
211.418	0.625713
213.23	0.157191
215.044	0.269904
216.856	0.0663748
218.667	0.250391
220.478	-0.41256
222.289	-0.106519
224.102	-0.28366
225.912	0.409544
227.721	-0.0334377
229.531	0.223433
231.34	0.165398
233.148	0.661607
234.956	-0.265154
236.766	0.280261
238.574	-0.209005
240.381	0.123611
242.188	0.530807
243.994	-0.0496464
245.801	0.141246
247.606	-0.321629
249.412	0.0572958
251.217	0.336006
253.024	0.442402
254.828	-0.0806618
256.632	0.191742
258.436	0.175341
260.239	-0.080452
262.042	0.219644
263.845	-0.297877
265.647	-0.164165
267.449	-0.078557
269.25	-0.0899611
271.052	0.427905
272.852	-0.188864
274.653	0.229348
276.453	0.163359
278.253	0.287962
280.052	0.217388
281.852	0.673976
283.65	0.550448
285.449	0.569518
287.247	0.299505
289.044	-0.137985
290.842	-0.550115
292.639	0.762832
294.436	0.592429
296.232	-0.269718
298.028	0.470964
299.821	0.160195
301.617	0.541864
303.412	-0.31938
305.206	0.345934
307	1.03323
308.794	0.408302
310.588	0.213306
312.381	0.567327
314.172	0.184563
315.964	0.279874
317.756	0.448343
319.548	-0.310797
321.34	0.241322
323.131	0.746921
324.921	0.036397
326.71	0.542634
328.5	0.881845
330.29	0.3599
332.079	0.218648
333.868	0.577758
335.654	0.719182
337.443	0.522995
339.231	0.755082
341.018	0.913449
342.804	0.520864
344.591	0.70188
346.377	0.620427
348.163	0.0620756
349.947	0.793451
351.733	0.545834
353.518	0.870248
355.303	0.572969
357.085	0.822738
358.869	0.06985
360.653	0.245289
362.435	0.752517
364.218	0.0929708
366.001	-0.114988
367.781	0.839449
369.563	0.53434
371.345	-0.0317211
373.124	-0.0532465
374.905	-0.169739
376.686	-0.0499773
378.464	0.706564
380.244	-0.0215855
382.022	0.264707
383.801	0.504749
385.58	0.581203
387.357	-0.116647
389.135	0.385033
390.911	0.394167
392.689	0.028306
394.466	0.931131
396.241	0.0963879
398.018	0.247993
399.792	0.281871
401.568	1.30171
403.341	0.958444
405.117	0.849169
406.889	0.973835
408.664	0.0646992
410.436	0.25872
412.21	0.311817
413.981	0.177532
415.755	1.52213
417.525	0.920014
419.298	0.905119
421.068	0.444456
422.84	0.382372
424.609	0.436828
426.38	0.912827
428.149	0.566187
429.919	0.923212
431.688	0.317797
433.455	0.862725
435.225	0.187539
436.992	0.615311
438.76	0.408589
440.527	0.622663
442.293	-0.0334692
444.06	0.293331
445.826	0.266352
447.593	0.167902
449.357	0.606913
451.122	0.274246
452.888	0.0124464
454.651	0.824157
456.415	0.0263939
458.18	0.557061
459.942	0.412123
461.705	-0.220237
463.469	0.451186
465.23	0.613408
466.991	-0.104383
468.752	0.10994
470.515	0.582106
472.275	0.799393
474.035	0.596962
475.797	0.275963
477.556	0.861013
479.315	0.768566
481.073	0.395552
482.834	-0.303309
484.592	0.0703659
486.349	0.912038
488.106	0.754368
489.863	0.808619
491.622	0.817396
493.378	1.20071
495.134	0.134903
496.889	0.143811
498.645	0.902211
500.401	0.254337
502.156	0.0271263
503.91	0.38585
505.664	0.720334
507.417	0.301168
509.171	1.07977
510.923	0.562881
512.678	0.467692
514.43	0.629725
516.182	1.37833
517.933	1.34908
519.684	0.143353
521.435	0.958523
523.186	-0.0123882
524.936	1.27066
526.686	0.886783
528.435	0.550202
530.184	0.120093
531.933	0.345778
533.682	1.06185
535.43	0.793267
537.18	0.640393
538.927	0.439593
540.674	0.33123
542.421	0.222262
544.167	0.159672
545.913	-0.251336
547.659	0.336704
549.403	-0.235396
551.148	0.0507011
552.893	0.498241
554.637	0.459809
556.381	0.121675
558.125	-0.0539827
559.868	-0.0905857
561.611	0.40286
563.354	0.597102
565.097	0.354987
566.839	0.527335
568.581	0.126414
570.322	-0.0435371
572.063	0.453345
573.802	-0.218063
575.542	0.0987759
577.283	0.11915
579.022	0.370474
580.762	0.507994
582.501	0.599792
584.24	0.231272
585.976	-0.253622
587.714	0.0420675
589.452	-0.0775089
591.19	0.0780449
592.927	0.87728
594.663	0.318912
596.398	0.542853
598.134	0.0995531
599.87	0.0469894
601.605	0.154582
603.338	-0.0841541
605.073	-0.600115
606.808	0.514479
608.542	-0.278978
610.274	-0.0159159
612.007	-0.0508442
613.74	-0.0849142
615.473	-0.0724268
617.204	-0.128503
618.936	0.341637
620.668	0.00904751
622.397	0.453316
624.128	-0.224021
625.859	0.355978
627.588	-0.136561
629.318	0.035203
631.048	0.00398922
632.775	0.294378
634.505	0.882659
636.233	0.694616
637.96	0.0709076
639.688	0.0607052
641.416	0.412331
643.142	0.100011
644.869	0.0601549
646.594	-0.0247278
648.32	-0.0620365
650.045	0.244816
651.771	0.419316
653.496	0.575384
655.219	0.485042
656.944	0.0782213
658.667	0.834101
660.391	0.47296
662.113	0.566183
663.837	0.154257
665.558	0.585289
667.281	-0.0602579
669.002	0.48254
670.724	0.362995
672.444	0.451447
674.166	0.153299
675.885	0.109062
677.606	0.157822
679.325	0.48244
681.045	0.829617
682.763	0.669231
684.483	1.03577
686.2	0.824709
687.917	0.450577
689.636	0.973534
691.352	0.551311
693.07	0.819441
694.786	0.787295
696.501	0.477749
698.219	1.01881
699.933	0.95981
701.65	1.65848
703.364	0.286798
705.078	0.799456
706.793	1.40257
708.506	1.66034
710.219	1.29862
711.934	0.982857
713.646	0.850304
715.358	1.56327
717.071	1.11053
718.782	0.362197
720.493	0.754894
722.204	1.05601
723.916	1.31115
725.626	1.13383
727.336	0.84294
729.045	0.983247
730.756	1.37214
732.464	0.831353
734.173	1.82986
735.881	1.24437
737.59	0.570126
739.297	1.07096
741.004	0.895825
742.711	1.33047
744.417	1.15828
746.125	0.785311
747.831	1.31401
749.537	1.55158
751.242	1.00339
752.946	0.99647
754.651	1.21606
756.357	1.61749
758.061	1.00781
759.764	1.43546
761.467	1.27873
763.17	1.21262
764.872	1.28158
766.575	1.19122
768.276	1.16657
769.978	1.29782
771.679	1.53996
773.382	1.66748
775.083	1.63624
776.783	1.83176
778.483	1.55395
780.182	1.39086
781.882	1.61351
783.581	1.18014
785.279	1.37911
786.978	1.77927
788.676	1.27052
790.373	1.68598
792.071	1.41985
793.768	0.700895
795.464	1.49436
797.161	1.40848
798.857	1.54978
800.552	1.71542
802.248	2.08497
803.941	1.51047
805.636	1.56566
807.33	1.12556
809.024	1.44818
810.718	2.01593
812.412	1.95396
814.105	1.82425
815.798	1.06768
817.49	1.65435
819.183	2.01664
820.873	1.5747
822.564	1.78093
824.256	1.72024
825.947	1.97321
827.637	1.64931
829.328	1.81864
831.016	1.9246
832.705	2.27894
834.395	1.54375
836.084	1.27725
837.772	1.30033
839.459	1.52313
841.147	1.61034
842.835	0.958847
844.522	1.82616
846.209	1.71119
847.894	1.71
849.581	1.17461
851.267	1.26817
852.953	1.34159
854.637	0.967371
856.322	1.76026
858.007	1.4517
859.689	0.713189
861.374	0.78234
863.058	0.759748
864.739	0.510427
866.423	1.20684
868.106	1.3843
869.787	0.997509
871.469	1.55765
873.151	1.10252
874.831	1.43693
876.512	1.16215
878.193	1.33871
879.872	0.792886
881.553	1.28499
883.231	0.850758
884.911	1.09257
886.591	1.44562
888.268	0.849136
889.947	1.01813
891.623	1.18533
893.302	0.900427
894.978	1.42472
896.656	0.777947
898.331	1.09697
900.008	0.606777
901.683	0.811381
903.359	0.947747
905.033	1.26237
906.709	0.884581
908.383	0.775945
910.058	0.646235
911.731	0.762489
913.405	0.545889
915.078	1.32922
916.752	0.891112
918.423	1.62832
920.096	0.504478
921.768	1.02026
923.438	0.696533
925.111	0.397125
926.781	0.38705
928.452	0.842263
930.122	0.901385
931.791	1.24805
933.462	0.646336
935.13	0.331736
936.799	0.94399
938.468	0.785247
940.136	1.09103
941.803	0.493783
943.472	0.934156
945.139	0.822773
946.805	0.180292
948.473	0.595361
950.139	1.22897
951.804	0.559256
953.471	0.904595
955.136	1.47207
956.801	0.697542
958.465	0.764523
960.131	0.856705
961.794	0.398447
963.458	0.735142
965.12	-0.0133924
966.785	1.15949
968.447	0.404673
970.109	0.422001
971.771	0.637506
973.432	0.831369
975.095	0.717244
976.756	0.229155
978.417	0.118542
980.077	0.0860023
981.737	0.0530052
983.396	0.981573
985.057	1.08895
986.716	1.19394
988.375	0.566758
990.033	0.911719
991.691	0.504223
993.349	0.185381
995.006	-0.0888319
996.663	0.586028
998.32	1.17189
999.976	0.214352
1001.63	1.01924
1003.29	1.60254
1004.95	0.733288
1006.6	1.00783
1008.26	0.315954
1009.91	0.130114
1011.56	-0.296219
1013.22	1.1632
1014.87	0.29965
1016.53	0.335045
1018.18	0.436614
1019.83	0.276546
1021.48	0.248918
1023.14	0.98753
1024.79	0.328274
1026.44	0.937229
1028.09	0.628385
1029.74	-0.030612
1031.39	0.6416
1033.04	1.2024
1034.69	0.320794
1036.34	1.48817
1037.99	0.452679
1039.64	0.0717649
1041.29	0.562185
1042.94	0.553468
1044.58	0.329454
1046.23	0.151182
1047.88	0.148755
1049.52	0.539014
1051.17	0.192222
1052.82	0.237236
1054.46	-0.282311
1056.11	0.567205
1057.75	0.112415
1059.4	0.809299
1061.04	0.13573
1062.69	-0.756184
1064.33	0.155715
1065.98	-0.281559
1067.62	0.193034
1069.26	-0.24617
1070.9	-0.121063
1072.55	0.481356
1074.19	0.172542
1075.83	-0.113223
1077.47	0.751963
1079.11	0.490709
1080.76	0.230314
1082.4	-0.0300999
1084.04	-0.0963011
1085.68	0.0742464
1087.32	0.220831
1088.95	0.148488
1090.59	0.398907
1092.23	0.193704
1093.87	0.312273
1095.51	0.711314
1097.15	0.291502
1098.78	-0.363062
1100.42	0.793332
1102.06	-0.00735378
1103.69	0.485138
1105.33	0.57021
1106.97	0.0751801
1108.6	0.418604
1110.24	0.0511875
1111.87	0.176614
1113.51	0.429068
1115.14	0.293459
1116.77	-0.100005
1118.41	-0.128351
1120.04	-0.198752
1121.67	-0.0324745
1123.31	-0.0578279
1124.94	-0.0179205
1126.57	0.365128
1128.2	0.385331
1129.83	0.235274
1131.47	-0.192039
1133.1	-0.0203953
1134.72	-0.319191
1136.36	0.257679
1137.98	0.384461
1139.62	-0.429957
1141.24	0.505898
1142.87	0.138671
1144.5	-0.100038
1146.13	-0.188534
1147.76	0.683045
1149.38	0.617667
1151.01	0.40377
1152.64	0.126085
1154.27	0.273944
1155.89	-0.430006
1157.52	-0.176222
1159.14	0.333048
1160.77	-0.0288143
1162.39	0.695029
1164.02	0.0591784
1165.64	-0.235938
1167.27	0.446698
1168.89	-0.253825
1170.51	-0.445777
1172.14	0.0189571
1173.76	0.353903
1175.38	0.496111
1177	0.255983
1178.63	0.122399
1180.25	-0.475873
1181.87	0.175637
1183.49	0.0660219
1185.11	0.188955
1186.73	-0.238304
1188.35	0.0717535
1189.97	0.16835
1191.59	-0.305722
1193.21	-0.233557
1194.83	0.299435
1196.45	0.285923
1198.07	0.0851078
1199.68	-0.155104
1201.3	0.527014
1202.92	0.104473
1204.53	0.165236
1206.15	-0.0220919
1207.77	0.64738
1209.38	0.440876
1211	0.567201
1212.62	0.337104
1214.23	0.063097
1215.84	0.120189
1217.46	0.445676
1219.07	0.540854
1220.69	0.760289
1222.3	0.648298
1223.91	0.600111
1225.53	0.408777
1227.14	1.44023
1228.75	0.859023
1230.36	1.29284
1231.97	0.632287
1233.59	1.39944
1235.2	0.514537
1236.81	1.32582
1238.42	1.33227
1240.03	1.19474
1241.64	0.974621
1243.25	1.35398
1244.85	1.33943
1246.46	0.868452
1248.07	1.92756
1249.68	1.66145
1251.29	0.58827
1252.9	1.3152
1254.5	1.98082
1256.11	1.19986
1257.72	1.30975
1259.32	1.64866
1260.93	1.22292
1262.54	1.46008
1264.14	1.55242
1265.75	1.4371
1267.35	1.52816
1268.96	1.90841
1270.56	1.33373
1272.16	1.75303
1273.77	1.30032
1275.37	1.86227
1276.97	1.65613
1278.57	1.51131
1280.18	2.40117
1281.78	2.35857
1283.38	2.54373
1284.98	2.2952
1286.58	1.9446
1288.18	1.74013
1289.78	2.11544
1291.38	1.54077
1292.99	2.04047
1294.58	2.31189
1296.18	2.00334
1297.78	1.40408
1299.38	2.08262
1300.98	2.40798
1302.58	1.825
1304.17	1.22137
1305.77	1.52264
1307.37	1.8638
1308.97	1.54743
1310.56	1.72359
1312.16	1.75656
1313.76	1.54496
1315.35	1.82532
1316.95	1.90217
1318.54	1.55114
1320.14	1.85282
1321.73	1.3993
1323.32	1.63668
1324.92	2.09511
1326.51	2.06359
1328.1	1.74774
1329.7	1.63586
1331.29	1.82951
1332.88	2.57094
1334.47	2.12276
1336.07	1.63674
1337.66	2.28127
1339.25	1.45285
1340.84	1.4494
1342.43	1.70508
1344.02	1.45547
1345.61	1.92791
1347.2	1.63756
1348.79	1.24973
1350.37	1.20564
1351.96	1.68451
1353.55	1.44558
1355.14	1.74794
1356.73	1.27126
1358.31	1.77316
1359.9	1.7145
1361.49	1.43511
1363.07	1.01544
1364.66	1.47305
1366.25	1.23311
1367.83	1.41255
1369.42	1.4539
1371	1.53668
1372.59	0.845016
1374.17	0.910795
1375.75	0.71863
1377.34	1.36231
1378.92	0.791594
1380.5	1.37383
1382.09	0.920004
1383.67	0.982026
1385.25	1.81809
1386.83	1.00394
1388.42	0.965199
1390	1.22499
1391.58	0.5927
1393.16	0.933676
1394.74	0.521236
1396.32	1.67523
1397.9	1.16268
1399.48	1.18436
1401.06	1.18515
1402.64	0.84882
1404.21	1.08656
1405.79	0.810558
1407.37	0.575292
1408.95	0.65725
1410.53	0.818712
1412.1	0.901035
1413.68	0.607611
1415.26	0.609408
1416.83	0.137043
1418.41	0.591143
1419.98	0.789057
1421.56	1.32271
1423.13	0.381446
1424.71	1.29241
1426.28	0.689152
1427.86	0.873744
1429.43	1.13677
1431	1.63494
1432.58	1.26585
1434.15	1.19096
1435.72	1.31231
1437.29	1.19792
1438.87	2.36208
1440.44	1.9744
1442.01	2.17751
1443.58	2.26353
1445.15	1.38697
1446.72	2.08296
1448.29	2.2485
1449.86	1.9426
1451.43	1.8338
1453	2.0599
1454.57	2.05049
1456.14	2.17874
1457.71	1.85364
1459.27	1.86157
1460.84	1.88718
1462.41	2.10737
1463.98	1.42092
1465.54	1.42184
1467.11	1.81525
1468.67	0.736229
1470.24	1.30763
1471.81	1.42866
1473.37	0.668243
1474.94	0.771769
1476.5	1.05218
1478.07	0.528851
1479.63	1.18171
1481.19	1.18752
1482.76	0.722925
1484.32	0.199539
1485.88	0.244077
1487.45	0.992829
1489.01	0.721624
1490.57	0.781308
1492.13	0.447544
1493.69	0.483185
1495.26	0.204755
1496.82	0.90007
1498.38	0.854
1499.94	0.0701923
1501.5	0.667597
1503.06	0.605669
1504.62	0.467308
1506.17	0.948886
1507.73	0.67468
1509.29	0.496504
1510.85	0.413977
1512.41	-0.150989
1513.97	0.0164471
1515.52	0.741055
1517.08	0.427896
1518.64	0.461462
1520.19	-0.0407066
1521.75	0.434222
1523.31	0.793091
1524.86	0.615762
1526.42	0.494981
1527.97	0.582998
1529.52	0.537117
1531.08	0.624267
1532.63	1.26159
1534.19	1.38701
1535.74	1.09723
1537.29	1.13036
1538.85	0.824462
1540.4	0.745858
1541.95	0.780532
1543.5	0.890318
1545.06	1.01848
1546.61	1.35274
1548.16	1.19835
1549.71	1.40035
1551.26	1.00302
1552.81	1.37399
1554.36	1.89489
1555.91	1.38946
1557.46	1.42799
1559.01	1.71126
1560.56	1.60481
1562.11	1.23906
1563.65	1.35956
1565.2	1.21949
1566.75	1.63932
1568.29	2.18965
1569.84	1.39571
1571.39	2.09457
1572.94	2.25181
1574.48	1.79287
1576.03	2.08066
1577.57	1.86468
1579.12	2.75068
1580.66	2.1065
1582.21	2.73302
1583.75	2.23997
1585.3	1.67271
1586.84	2.76955
1588.38	2.01573
1589.93	1.99078
1591.47	1.68451
1593.01	1.88309
1594.55	2.21259
1596.1	2.48614
1597.64	2.31054
1599.18	2.3981
1600.72	2.11138
1602.26	2.33167
1603.8	2.00754
1605.34	1.85139
1606.88	2.25735
1608.42	1.55226
1609.96	2.02865
1611.5	1.97613
1613.04	1.60219
1614.58	1.92167
1616.12	1.79016
1617.65	1.82808
1619.19	1.47387
1620.73	1.5898
1622.27	1.76332
1623.8	2.2185
1625.34	2.4115
1626.87	2.19178
1628.41	2.04552
1629.95	2.29048
1631.48	1.78645
1633.02	1.86158
1634.55	2.64632
1636.09	2.21848
1637.62	2.03454
1639.15	2.44802
1640.69	2.35804
1642.22	1.91344
1643.76	2.95756
1645.29	2.21269
1646.82	2.30453
1648.35	2.6003
1649.88	2.52479
1651.42	2.06085
1652.95	2.67458
1654.48	2.26938
1656.01	2.58802
1657.54	2.51724
1659.07	2.37151
1660.6	2.48356
1662.13	2.5753
1663.66	2.01863
1665.19	2.36723
1666.72	1.95906
1668.24	1.8847
1669.77	1.84894
1671.3	2.05439
1672.83	2.20567
1674.35	2.46787
1675.88	2.15891
1677.41	2.32772
1678.93	2.01685
1680.46	1.70511
1681.99	1.57665
1683.51	1.30112
1685.04	1.26458
1686.56	1.15511
1688.09	1.87101
1689.61	1.6157
1691.13	1.14121
1692.66	1.25287
1694.18	1.14486
1695.71	0.927086
1697.23	0.70927
1698.75	0.637434
1700.27	0.784229
1701.8	0.656736
1703.32	0.565282
1704.84	0.637285
1706.36	0.272051
1707.88	0.779723
1709.4	0.668906
1710.92	0.64911
1712.44	0.43008
1713.96	0.447098
1715.48	0.66327
1717	0.0831833
1718.52	0.37138
1720.04	0.153434
1721.56	0.441202
1723.07	0.458672
1724.59	0.423088
1726.11	0.172794
1727.63	0.35603
1729.14	0.594098
1730.66	0.21947
1732.18	0.34499
1733.69	0.183367
1735.21	0.12057
1736.72	0.994494
1738.24	0.185843
1739.75	0.650434
1741.27	0.502119
1742.78	-0.0832806
1744.3	0.0483646
1745.81	0.279714
1747.32	0.178533
1748.84	-0.0960312
1750.35	0.356134
1751.86	0.539058
1753.37	0.234406
1754.89	0.131773
1756.4	-0.0931616
1757.91	-0.071558
1759.42	-0.011693
1760.93	0.117846
1762.44	-0.236107
1763.95	0.405808
1765.46	0.35931
1766.97	-0.0169725
1768.48	-0.122443
1769.99	-0.272026
1771.5	0.156726
1773.01	-0.0980186
1774.52	-0.0703964
1776.03	0.22233
1777.53	-0.030674
1779.04	-0.169148
1780.55	0.453403
1782.06	-0.0277166
1783.56	-0.0714884
1785.07	0.113277
1786.57	-0.0315914
1788.08	-0.150184
1789.59	0.232241
1791.09	0.0365267
1792.6	0.106867
1794.1	0.1808
1795.6	0.235536
1797.11	0.498422
1798.61	0.11468
1800.12	0.0527458
1801.62	0.146422
1803.12	-0.16685
1804.63	0.0793171
1806.13	-0.0339127
1807.63	-0.356969
1809.13	-0.026247
1810.63	0.128803
1812.14	0.183385
1813.64	0.0173712
1815.14	-0.203296
1816.64	-0.186574
1818.14	0.0925674
1819.64	0.12808
1821.14	0.189487
1822.64	-0.189174
1824.14	0.0297356
1825.63	-0.153696
1827.13	-0.438597
1828.63	-0.05231
1830.13	-0.233636
1831.63	0.0649405
1833.12	0.362678
1834.62	0.220133
1836.12	0.267906
1837.62	0.390552
1839.11	0.213649
1840.61	-0.0986824
1842.1	0.0601873
1843.6	-0.275581
1845.09	0.0367413
1846.59	0.405872
1848.08	0.00136852
1849.58	-0.217521
1851.07	-0.0539894
1852.57	0.130311
1854.06	-0.0240374
1855.55	-0.133933
1857.04	-0.282321
1858.54	-0.170692
1860.03	0.360538
1861.52	0.375314
1863.01	-0.30338
1864.5	0.256164
1866	0.175995
1867.49	-0.371516
1868.98	-0.303835
1870.47	-0.0901442
1871.96	0.170106
1873.45	0.560726
1874.94	-0.0492115
1876.43	0.210384
1877.92	0.101426
1879.41	0.390468
1880.89	0.215954
1882.38	0.21495
1882.48	0.213764
1883.97	-0.167278
1885.47	0.252813
1886.96	0.114305
1888.46	-0.0245686
1889.95	0.411004
1891.44	0.0645065
1892.94	-0.332414
1894.43	0.00263977
1895.92	0.165303
1897.41	0.311447
1898.9	-0.0468979
1900.4	-0.21492
1901.89	0.328773
1903.38	-0.120748
1904.87	0.21093
1906.36	0.12451
1907.85	0.229139
1909.34	0.160653
1910.83	0.266619
1912.32	0.304002
1913.81	-0.386511
1915.29	0.067791
1916.78	0.24421
1918.27	0.350688
1919.76	0.266048
1921.25	-0.217032
1922.74	-0.0414629
1924.22	0.065567
1925.71	0.0697556
1927.2	0.0576344
1928.68	0.167325
1930.17	0.346283
1931.65	0.5245
1933.14	-0.0605955
1934.63	0.443429
1936.11	0.184127
1937.59	-0.145209
1939.08	-0.0944443
1940.56	-0.147112
1942.05	0.111681
1943.53	0.0951967
1945.01	0.303714
1946.5	0.0814857
1947.98	0.221091
1949.46	0.187619
1950.94	-0.191134
1952.43	0.358872
1953.91	0.357328
1955.39	0.269759
1956.87	0.182658
1958.35	0.456713
1959.83	0.268015
1961.31	0.0285673
1962.79	-0.0219564
1964.27	0.184387
1965.75	-0.0380583
1967.23	-0.141109
1968.71	0.593477
1970.19	0.454755
1971.67	0.298876
1973.14	-0.112884
1974.62	0.124156
1976.1	-0.184404
1977.58	0.240016
1979.05	0.0171328
1980.53	0.0326538
1982.01	0.251964
1983.48	0.232869
1984.96	-0.380608
1986.43	0.600898
1987.91	0.309801
1989.38	-0.132989
1990.86	0.406974
1992.33	0.558141
1993.81	0.067709
1995.28	0.322006
1996.76	-0.116107
1998.23	0.104676
1999.7	0.0885525
2001.18	0.628739
2002.65	0.358321
2004.12	0.492608
2005.59	0.62706
2007.06	-0.349582
2008.54	0.342287
2010.01	0.142351
2011.48	0.279632
2012.95	0.652561
2014.42	0.166717
2015.89	0.0336609
2017.36	0.135296
2018.83	0.572283
2020.3	0.437017
2021.77	0.335311
2023.24	0.737552
2024.71	0.569712
2026.17	0.0843992
2027.64	0.439178
2029.11	0.258606
2030.58	0.297321
2032.04	0.102015
2033.51	0.360285
2034.98	0.400401
2036.45	0.30579
2037.91	0.529861
2039.38	0.26625
2040.84	0.170536
2042.31	0.276875
2043.77	0.13164
2045.24	0.559222
2046.7	0.684885
2048.17	0.271935
2049.63	0.86946
2051.1	0.117695
2052.56	0.578264
2054.02	0.193954
2055.48	0.246477
2056.95	0.769684
2058.41	0.0110407
2059.87	0.617179
2061.33	-0.0732918
2062.8	0.348353
2064.26	0.148021
2065.72	0.386186
2067.18	0.22122
2068.64	0.544867
2070.1	0.565884
2071.56	0.469102
2073.02	0.658385
2074.48	0.342263
2075.94	0.413091
2077.4	0.264635
2078.86	0.688354
2080.31	0.471705
2081.77	0.725983
2083.23	0.912177
2084.69	0.811451
2086.14	0.424088
2087.6	0.910772
2089.06	0.505855
2090.52	0.823408
2091.97	0.787985
2093.43	0.40012
2094.88	1.05219
2096.34	0.714149
2097.79	1.06258
2099.25	0.556325
2100.7	0.284632
2102.16	1.03285
2103.61	0.595155
2105.07	0.910224
2106.52	0.709172
2107.97	1.04298
2109.43	0.810028
2110.88	0.926756
2112.33	1.14209
2113.78	0.922505
2115.24	0.934588
2116.69	1.01223
2118.14	0.99033
2119.59	0.986321
2121.04	1.36574
2122.49	1.1995
2123.94	0.918708
2125.39	1.48427
2126.84	1.30339
2128.29	1.27075
2129.74	1.38588
2131.19	1.33394
2132.64	1.23157
2134.09	1.37738
2135.54	1.65606
2136.98	1.27482
2138.43	1.24263
2139.88	1.31145
2141.33	1.77865
2142.77	2.0985
2144.22	1.8072
2145.67	1.53235
2147.11	1.3563
2148.56	1.70949
2150.01	2.40987
2151.45	2.28098
2152.9	2.10126
2154.34	1.92065
2155.79	2.12059
2157.23	2.13831
2158.67	2.07391
2160.12	1.58014
2161.56	2.2976
2163	2.0228
2164.45	2.21381
2165.89	2.12375
2167.33	2.24946
2168.78	2.22463
2170.22	2.38082
2171.66	2.48494
2173.1	1.93814
2174.54	1.73924
2175.98	2.07194
2177.42	2.25504
2178.86	2.15622
2180.3	2.17479
2181.74	2.39381
2183.18	2.36407
2184.62	2.06848
2186.06	2.00575
2187.5	2.19258
2188.94	2.27967
2190.38	2.03384
2191.82	1.75433
2193.25	2.3065
2194.69	2.3578
2196.13	2.14081
2197.57	1.72219
2199	1.71791
2200.44	1.56301
2201.88	1.8232
2203.31	1.76842
2204.75	1.83086
2206.18	2.25891
2207.62	2.12389
2209.05	1.83977
2210.49	1.5551
2211.92	0.85621
2213.36	1.47985
2214.79	1.40871
2216.22	1.38774
2217.66	1.3019
2219.09	1.74505
2220.52	0.803961
2221.96	1.24798
2223.39	0.801373
2224.82	0.781996
2226.25	1.35341
2227.68	1.10022
2229.11	1.27323
2230.55	1.26461
2231.98	1.23937
2233.41	0.91978
2234.84	0.585216
2236.27	1.42863
2237.7	0.949883
2239.12	1.06094
2240.55	0.570296
2241.98	0.603433
2243.41	0.914992
2244.84	0.460307
2246.27	0.249683
2247.7	0.787895
2249.12	0.834707
2250.55	0.716424
2251.98	0.808234
2253.41	0.655104
2254.83	1.08738
2256.26	1.11442
2257.68	0.948988
2259.11	0.380808
2260.54	0.740151
2261.96	0.355323
2263.39	0.767384
2264.81	0.627727
2266.24	0.682693
2267.66	0.574285
2269.08	0.448644
2270.51	0.908205
2271.93	0.74875
2273.35	0.719325
2274.78	0.869129
2276.2	0.448909
2277.62	0.729438
2279.04	0.716728
2280.47	0.491958
2281.89	0.0712223
2283.31	1.02061
2284.73	0.958729
2286.15	0.603198
2287.57	0.460052
2288.99	0.431539
2290.41	0.223631
2291.83	0.195606
2293.25	0.740055
2294.67	0.515972
2296.09	0.5535
2297.51	0.427243
2298.93	0.137086
2300.35	0.322123
2301.76	-0.00074482
2303.18	0.496603
2304.6	0.633484
2306.02	0.244896
2307.44	0.759309
2308.85	0.599707
2310.27	0.620299
2311.69	0.360878
2313.1	0.825212
2314.52	0.319098
2315.93	0.537768
2317.35	0.427862
2318.76	0.680909
2320.18	0.125855
2321.59	0.410819
2323.01	0.562217
2324.42	0.546431
2325.83	0.660512
2327.25	0.542018
2328.66	0.670105
2330.07	0.715827
2331.49	0.449509
2332.9	0.925038
2334.31	0.627782
2335.72	0.396712
2337.13	0.658738
2338.55	0.344269
2339.96	0.259062
2341.37	0.2716
2342.78	0.562621
2344.19	0.656401
2345.6	0.176664
2347.01	0.434851
2348.42	0.234408
2349.83	0.31197
2351.24	0.159863
2352.65	0.36643
2354.05	0.180122
2355.46	-0.33246
2356.87	0.0349984
2358.28	-0.102592
2359.69	-0.239806
2361.09	0.418649
2362.5	0.281232
2363.91	0.0306354
2365.31	0.427655
2366.72	-0.226516
2368.13	0.186753
2369.53	0.0678329
2370.94	0.014739
2372.34	0.49454
2373.75	0.427289
2375.15	0.376564
2376.56	0.406
2377.96	0.112821
2379.37	0.879128
2380.77	0.0853667
2382.17	0.238017
2383.58	0.0531282
2384.98	0.108388
2386.38	0.291672
2387.79	0.475336
2389.19	-0.025877
2390.59	0.287403
2391.99	0.123672
2393.39	0.0406165
2394.8	-0.121136
2396.2	0.369696
2397.6	0.177361
2399	0.54178
2400.4	0.000998497
2401.8	0.302521
2403.2	0.238726
2404.6	-0.0476699
2406	0.252653
2407.4	0.298033
2408.79	-0.0221343
2410.19	0.30761
2411.59	0.177737
2412.99	0.175399
2414.39	-0.0157881
2415.78	0.158505
2417.18	0.333998
2418.58	0.225377
2419.98	0.322951
2421.37	0.214544
2422.77	0.422634
2424.16	0.598827
2425.56	-0.112286
2426.96	0.523999
2428.35	0.41627
2429.74	0.372796
2431.14	0.59969
2432.53	0.414217
2433.93	0.291636
2435.32	0.167956
2436.72	0.630755
2438.11	0.2183
2439.5	0.201869
2440.9	0.375156
2442.29	0.770053
2443.68	0.43443
2445.07	0.305109
2446.47	0.175753
2447.86	-0.0486975
2449.25	0.0438414
2450.64	0.722338
2452.03	0.46697
2453.42	0.307434
2454.81	0.417714
2456.2	0.46535
2457.59	0.0229435
2458.98	0.197325
2460.37	-0.261417
2461.76	0.243777
2463.15	0.384431
2464.54	0.571828
2465.93	-0.251945
2467.32	0.314039
2468.7	0.232553
2470.09	0.608323
2471.48	0.557696
2472.87	0.285939
2474.25	-0.0176587
2475.64	0.606691
2477.03	0.255198
2478.41	0.171201
2479.8	0.244409
2481.18	0.568545
2482.57	-0.0636139
2483.95	0.588534
2485.34	0.143895
2486.72	0.0115867
2488.11	0.237499
2489.49	-0.207987
2490.88	0.0323553
2492.26	0.225911
2493.65	0.357873
2495.03	0.320183
2496.41	0.12873
2497.79	0.232665
2499.18	-0.0966754
2500.56	-0.0391369
2501.94	0.264915
2503.32	-0.0655327
2504.7	0.452249
2506.09	0.197925
2507.47	0.11323
2508.85	-0.17103
2510.23	-0.0396433
2511.61	0.306842
2512.99	-0.0363898
2514.37	0.234408
2515.75	0.138265
2517.13	-0.00292492
2518.51	0.284638
2519.89	-0.0391603
2521.26	0.156444
2522.64	0.351242
2524.02	0.1942
2525.4	0.143417
2526.78	-0.181636
2528.15	0.178899
2529.53	0.0837288
2530.91	0.0964923
2532.28	0.034811
2533.66	0.171915
2535.04	0.127381
2536.41	-0.236192
2537.79	-0.144547
2539.16	0.584123
2540.54	0.0514464
2541.91	-0.314261
2543.29	-0.0877619
2544.66	0.215209
2546.04	0.170362
2547.41	-0.0402031
2548.78	0.265792
2550.16	0.116787
2551.53	-0.00231886
2552.9	0.333051
2554.27	-0.000259399
2555.65	0.19674
2557.02	-0.107399
2558.39	-0.123382
2559.76	0.11859
2561.13	0.148761
2562.51	0.346221
2563.88	0.0138307
2565.25	-0.105978
2566.62	-0.0437002
2567.99	0.230855
2569.36	0.232654
2570.73	0.00711393
2572.1	0.221171
2573.47	0.647564
2574.84	-0.441848
2576.2	0.151484
2577.57	0.0928864
2578.94	0.00377035
2580.31	-0.0704837
2581.68	-0.236063
2583.05	-0.265481
2584.41	0.0839076
2585.78	-0.00640631
2587.15	0.161083
2588.51	-0.00469065
2589.88	-0.155164
2591.24	-0.154166
2592.61	0.21009
2593.98	-0.365699
2595.34	-0.154571
2596.71	0.176581
2598.07	-0.158961
2599.44	-0.297901
2600.8	0.182933
2602.16	-0.0158982
2603.53	-0.00258207
2604.89	0.433774
2606.26	0.357156
2607.62	0.400955
2608.98	0.368589
2610.34	-0.222151
2611.71	0.210226
2613.07	0.0844378
2614.43	-0.207041
2615.79	0.207125
2617.15	0.0360236
2618.52	-0.0593119
2619.88	0.0407724
2621.24	-0.0679517
2622.6	0.167653
2623.96	-0.194123
2625.32	-0.10776
2626.68	-0.0515413
2628.04	0.0937281
2629.4	-0.193291
2630.75	0.27876
2632.11	-0.246077
2633.47	0.106318
2634.83	-0.1504
2636.19	-0.0656133
2637.55	-0.0105934
2638.9	-0.0148268
2640.26	0.0402842
2641.62	0.25818
2642.98	0.165803
2644.33	-0.103418
2645.69	-0.106756
2647.04	0.140196
2648.4	-0.27668
2649.76	-0.119588
2651.11	0.448246
2652.47	0.162832
2653.82	0.186308
2655.18	0.151799
2656.53	-0.379602
2657.88	0.0860705
2659.24	0.040029
2660.59	0.286876
2661.95	0.255709
2663.3	0.194844
2664.65	-0.275372
2666	0.144151
2667.36	-0.0349288
2668.71	0.689035
2670.06	0.553648
2671.41	0.477151
2672.76	0.1689
2674.12	0.181102
2675.47	0.150299
2676.82	0.0475259
2678.17	-0.0400538
2679.52	0.395175
2680.87	0.0628376
2682.22	-0.0508881
2683.57	0.271461
2684.92	0.203249
2686.27	-0.0676746
2687.62	0.125604
2688.97	0.303432
2690.31	0.14586
2691.66	0.247934
2693.01	-0.0141592
2694.36	0.201643
2695.71	-0.249621
2697.05	0.473459
2698.4	0.328322
2699.75	0.0255532
2701.09	0.100879
2702.44	-0.0686278
2703.78	0.313357
2705.13	0.435241
2706.48	0.165701
2707.82	0.026298
2709.17	0.278385
2710.51	0.167278
2711.86	-0.1475
2713.2	0.176782
2714.54	0.225044
2715.89	0.43324
2717.23	-0.0421214
2718.57	0.282182
2719.92	0.271656
2721.26	0.522686
2722.6	0.380369
2723.95	0.295827
2725.29	0.603899
2726.63	0.300305
2727.97	0.70961
2729.31	0.361906
2730.65	0.0723662
2732	0.452123
2733.34	0.526397
2734.68	0.324475
2736.02	0.137336
2737.36	0.139438
2738.7	0.417861
2740.04	-0.00196838
2741.38	0.508462
2742.72	0.451189
2744.05	0.000918865
2745.39	0.131513
2746.73	0.14546
2748.07	0.217297
2749.41	0.390691
2750.75	0.129044
2752.08	0.012826
2753.42	0.114312
2754.76	0.375276
2756.09	0.129287
2757.43	0.231118
2758.77	0.651617
2760.1	0.522331
2761.44	0.422507
2762.78	0.13507
2764.11	0.253112
2765.44	0.356694
2766.78	0.141599
2768.11	0.316302
2769.45	0.301786
2770.78	0.112552
2772.12	0.225603
2773.45	0.0489602
2774.78	-0.0846171
2776.12	0.127706
2777.45	0.0233793
2778.78	0.0779142
2780.12	-0.556929
2781.45	0.288557
2782.78	0.343695
2784.11	0.169259
2785.44	0.195698
2786.78	0.0647225
2788.11	-0.0513248
2789.44	0.191141
2790.77	-0.295195
2792.1	-0.194297
2793.43	0.335822
2794.76	0.365552
2796.09	0.180656
2797.42	0.166798
2798.75	0.43802
2800.08	0.180566
2801.4	0.208419
2802.73	0.27886
2804.06	-0.0357623
2805.39	0.16233
2806.72	0.416588
2808.05	0.243227
2809.37	0.126594
2810.7	0.109571
2812.03	-0.162339
2813.35	0.418061
2814.68	0.389614
2816.01	0.589324
2817.33	0.47824
2818.66	0.169304
2819.98	0.28561
2821.31	0.302316
2822.63	0.360937
2823.96	0.546484
2825.28	0.448327
2826.61	0.590998
2827.93	0.295175
2829.25	0.339718
2830.58	0.497931
2831.9	0.429854
2833.23	0.772236
2834.55	0.802907
2835.87	0.960488
2837.19	1.4005
2838.52	1.55696
2839.84	1.40201
2841.16	1.45931
2842.48	1.43218
2843.8	1.37742
2845.12	1.78974
2846.44	1.58084
2847.77	2.00828
2849.08	1.94111
2850.4	1.70404
2851.73	2.01773
2853.05	2.48634
2854.36	2.53052
2855.68	2.56036
2857	1.77084
2858.32	2.69066
2859.64	2.43803
2860.96	2.29828
2862.28	2.56767
2863.59	2.55429
2864.91	2.65354
2866.23	3.02072
2867.55	3.37386
2868.86	3.45938
2870.18	3.81317
2871.5	3.98379
2872.81	4.16817
2874.13	4.21076
2875.44	3.9564
2876.76	4.41909
2878.07	4.30349
2879.39	4.55333
2880.7	4.39559
2882.02	4.67441
2883.33	4.54686
2884.65	4.13963
2885.96	4.21053
2887.28	4.21131
2888.59	4.47823
2889.9	4.25321
2891.21	4.19569
2892.53	4.50197
2893.84	4.75172
2895.15	4.44151
2896.46	4.11838
2897.78	4.11837
2899.09	4.93089
2900.4	4.8487
2901.71	5.0468
2903.02	4.78349
2904.33	4.95395
2905.64	4.90088
2906.95	5.04419
2908.26	5.67796
2909.57	5.37541
2910.88	5.04534
2912.19	5.9609
2913.5	6.34397
2914.81	6.31952
2916.12	6.18114
2917.43	6.86676
2918.73	6.86525
2920.04	6.8495
2921.35	7.26791
2922.66	7.50578
2923.96	7.39574
2925.27	7.52466
2926.58	7.22095
2927.88	8.07756
2929.19	7.59168
2930.5	7.73422
2931.8	8.16971
2933.11	7.97579
2934.41	8.14521
2935.72	8.45446
2937.02	8.05111
2938.33	7.77376
2939.63	7.55261
2940.94	7.61147
2942.24	7.64334
2943.54	6.65627
2944.85	7.01234
2946.15	6.90842
2947.45	6.07754
2948.76	6.2115
2950.06	6.3583
2951.36	6.0831
2952.66	5.86176
2953.97	5.65288
2955.27	5.66754
2956.57	5.38911
2957.87	5.23872
2959.17	5.69308
2960.47	5.61844
2961.77	5.26554
2963.07	5.16548
2964.37	5.69646
2965.67	5.32748
2966.97	4.81574
2968.27	5.13158
2969.57	4.58892
2970.87	4.63653
2972.17	4.76882
2973.47	4.69041
2974.77	4.21777
2976.07	4.18067
2977.36	3.50856
2978.66	4.2427
2979.96	4.32718
2981.26	4.18495
2982.55	3.53579
2983.85	3.01395
2985.15	3.42108
2986.44	2.53666
2987.74	3.22754
2989.03	2.97789
2990.33	2.72842
2991.63	2.59084
2992.92	2.5084
2994.21	2.49492
2995.51	2.03078
2996.8	1.90316
2998.1	2.08409
2999.39	1.87225
3000.69	1.89936
3001.98	1.82882
3003.27	1.64655
3004.57	1.85666
3005.86	1.43613
3007.15	1.29524
3008.44	1.34949
3009.74	1.10913
3011.03	1.09187
3012.32	1.3813
3013.61	0.944721
3014.9	1.19217
3016.19	1.10547
3017.48	0.852435
3018.78	1.14275
3020.07	0.640033
3021.36	0.470997
3022.65	0.870807
3023.94	0.977572
3025.23	0.556478
3026.51	1.03616
3027.8	0.463589
3029.09	0.487413
3030.38	0.470963
3031.67	0.966729
3032.96	0.827944
3034.24	0.441065
3035.53	0.688497
3036.82	0.727608
3038.11	0.420517
3039.39	0.676457
3040.68	0.792784
3041.97	1.01762
3043.25	1.17308
3044.54	0.630677
3045.83	0.473811
3047.11	0.769883
3048.4	0.658008
3049.68	1.03942
3050.97	1.38114
3052.25	1.28687
3053.54	0.564889
3054.82	0.647276
3056.11	0.878578
3057.39	0.93133
3058.67	1.18748
3059.96	1.10252
3061.24	0.977026
3062.52	1.15167
3063.81	1.02824
3065.09	0.824661
3066.37	0.799042
3067.65	0.883017
3068.94	0.749705
3070.22	0.656795
3071.5	0.970987
3072.78	0.671886
3074.06	0.901783
3075.34	0.953793
3076.62	0.638585
3077.9	0.473214
3079.18	0.308807
3080.46	0.349164
3081.74	0.499295
3083.02	0.555502
3084.3	0.354437
3085.58	0.261799
3086.86	0.100733
3088.14	0.115336
3089.42	0.278466
3090.69	0.318845
3091.97	0.0333114
3093.25	0.385362
3094.53	0.371234
3095.8	0.140269
3097.08	0.0584278
3098.36	0.586303
3099.63	0.0296407
3100.91	0.109695
3102.19	0.10833
3103.46	-0.00127459
3104.74	-0.0564084
3106.01	-0.0163202
3107.29	0.0649891
3108.56	0.106447
3109.84	-0.162625
3111.11	0.286482
3112.39	-0.0762706
3113.66	-0.0867753
3114.94	-0.205899
3116.21	0.10827
3117.48	0.394533
3118.76	0.232066
3120.03	-0.0400829
3121.3	0.052918
3122.57	-0.0717196
3123.85	0.15556
3125.12	0.463827
3126.39	0.176524
3127.66	-0.137305
3128.93	-0.234262
3130.21	0.142191
3131.48	-0.211587
3132.75	-0.0655098
3134.02	0.228492
3135.29	0.170528
3136.56	-0.130961
3137.83	-0.473182
3139.1	-0.034112
3140.37	0.45769
3141.64	0.235701
3142.91	-0.0665097
3144.17	-0.0726686
3145.44	0.0422316
3146.71	0.14392
3147.98	-0.156065
3149.25	-0.187614
