200.533	-0.0300627
202.348	-0.00124264
204.162	0.0284309
205.976	0.666757
207.792	0.332188
209.605	0.167289
211.418	-0.338668
213.23	0.101227
215.044	-0.333757
216.856	0.297576
218.667	0.806783
220.478	0.00880241
222.289	-0.279573
224.102	0.0857534
225.912	0.40271
227.721	-0.343587
229.531	0.262395
231.34	0.0707245
233.148	-0.241807
234.956	-0.0957556
236.766	-0.35859
238.574	0.513102
240.381	-0.420902
242.188	0.117307
243.994	0.439821
245.801	0.279658
247.606	0.0936089
249.412	-0.11925
251.217	0.0754404
253.024	-0.19108
254.828	0.119905
256.632	0.598853
258.436	0.427344
260.239	-0.0317402
262.042	0.305856
263.845	0.355711
265.647	-0.629712
267.449	0.0475454
269.25	0.073801
271.052	-0.23833
272.852	0.00288582
274.653	0.604368
276.453	0.480908
278.253	0.765331
280.052	0.0841208
281.852	0.460781
283.65	0.0174341
285.449	0.126086
287.247	0.305742
289.044	0.293143
290.842	0.185343
292.639	0.509626
294.436	-0.265504
296.232	0.682747
298.028	-0.23304
299.821	0.596183
301.617	0.110991
303.412	0.604157
305.206	-0.0736637
307	0.488548
308.794	0.406252
310.588	0.562731
312.381	0.386677
314.172	-0.0736227
315.964	0.753526
317.756	0.820314
319.548	0.674087
321.34	0.647914
323.131	0.574658
324.921	1.07433
326.71	1.00157
328.5	0.880638
330.29	-0.4604
332.079	0.372627
333.868	0.151941
335.654	0.52742
337.443	0.494003
339.231	0.171546
341.018	0.493533
342.804	0.336388
344.591	0.513798
346.377	0.404857
348.163	0.41594
349.947	0.499011
351.733	0.605876
353.518	0.378045
355.303	0.17318
357.085	0.134138
358.869	0.260722
360.653	-0.0425682
362.435	0.39137
364.218	0.46726
366.001	0.209733
367.781	-0.404099
369.563	0.0968542
371.345	-0.327747
373.124	0.620107
374.905	-0.0887365
376.686	0.879937
378.464	-0.0629406
380.244	0.551542
382.022	0.389247
383.801	0.487043
385.58	0.82093
387.357	0.0747128
389.135	0.222606
390.911	0.794
392.689	0.309181
394.466	0.505956
396.241	0.162868
398.018	0.665311
399.792	0.744819
401.568	0.236694
403.341	0.620491
405.117	0.134566
406.889	0.540389
408.664	0.076827
410.436	0.481624
412.21	0.0179548
413.981	-0.234044
415.755	0.14809
417.525	0.178919
419.298	-0.470263
421.068	0.265314
422.84	-0.00853443
424.609	0.233388
426.38	0.169308
428.149	0.198372
429.919	-0.59454
431.688	0.325989
433.455	0.214008
435.225	0.172728
436.992	0.366086
438.76	0.417974
440.527	0.0226812
442.293	-0.069232
444.06	-0.209811
445.826	0.257258
447.593	0.441651
449.357	0.227796
451.122	0.808716
452.888	0.548594
454.651	0.149146
456.415	0.635914
458.18	0.516292
459.942	0.629619
461.705	0.394619
463.469	0.626139
465.23	-0.395025
466.991	0.445259
468.752	0.126047
470.515	0.366312
472.275	0.490989
474.035	0.778083
475.797	-0.100781
477.556	0.275979
479.315	0.34834
481.073	0.466415
482.834	0.305144
484.592	0.587457
486.349	0.941519
488.106	0.27227
489.863	0.0471888
491.622	0.826488
493.378	0.46281
495.134	0.589778
496.889	0.272112
498.645	0.703394
500.401	0.408027
502.156	0.534037
503.91	0.213144
505.664	0.196346
507.417	0.836772
509.171	0.417706
510.923	0.655794
512.678	0.774841
514.43	0.916024
516.182	0.279576
517.933	0.324393
519.684	0.60336
521.435	0.364494
523.186	0.82994
524.936	0.426291
526.686	0.46876
528.435	0.628434
530.184	0.483199
531.933	0.408008
533.682	0.706676
535.43	0.840123
537.18	0.714986
538.927	0.308655
540.674	0.531759
542.421	0.217937
544.167	0.532636
545.913	0.33539
547.659	0.115572
549.403	0.70781
551.148	0.5348
552.893	0.177301
554.637	0.92979
556.381	0.434579
558.125	0.0329466
559.868	0.484914
561.611	0.614343
563.354	0.123081
565.097	0.115741
566.839	0.614314
568.581	0.378417
570.322	0.120767
572.063	0.139807
573.802	0.229113
575.542	0.113515
577.283	0.20586
579.022	-0.04492
580.762	0.39376
582.501	0.419333
584.24	0.00762081
585.976	0.30765
587.714	0.56074
589.452	0.513734
591.19	0.396866
592.927	0.716683
594.663	0.093071
596.398	-0.11635
598.134	0.295384
599.87	-0.282475
601.605	-0.5849
603.338	0.146661
605.073	0.393723
606.808	-0.049902
608.542	-0.264081
610.274	0.00385189
612.007	-0.439159
613.74	0.700886
615.473	0.488436
617.204	0.115926
618.936	0.613478
620.668	-0.492683
622.397	0.00267506
624.128	-0.234841
625.859	0.533086
627.588	-0.160048
629.318	0.0848103
631.048	0.582592
632.775	-0.0359392
634.505	-0.242923
636.233	0.120413
637.96	0.117052
639.688	0.704671
641.416	0.239908
643.142	0.548492
644.869	0.309013
646.594	0.297775
648.32	0.447366
650.045	0.145219
651.771	0.619088
653.496	0.528444
655.219	-0.0597706
656.944	-0.442141
658.667	0.31521
660.391	0.457656
662.113	0.416225
663.837	0.829744
665.558	0.121168
667.281	0.00508404
669.002	0.848946
670.724	0.0467644
672.444	0.390034
674.166	0.346507
675.885	0.67153
677.606	0.0116539
679.325	0.498966
681.045	-0.00222874
682.763	0.322478
684.483	0.369514
686.2	0.000342369
687.917	0.228496
689.636	0.755236
691.352	0.175693
693.07	0.516984
694.786	-0.0637159
696.501	0.48327
698.219	0.545491
699.933	0.836653
701.65	0.459543
703.364	0.633637
705.078	1.0595
706.793	0.474482
708.506	0.761384
710.219	0.108091
711.934	0.531507
713.646	0.473617
715.358	0.43851
717.071	-0.213013
718.782	0.665014
720.493	0.584454
722.204	0.754654
723.916	0.537818
725.626	0.821364
727.336	0.990592
729.045	1.31797
730.756	0.692176
732.464	0.520226
734.173	0.778303
735.881	1.37494
737.59	0.593405
739.297	1.34796
741.004	1.20053
742.711	1.30223
744.417	1.13492
746.125	0.654041
747.831	1.00711
749.537	1.00135
751.242	0.74936
752.946	1.2183
754.651	1.62116
756.357	1.62057
758.061	1.50888
759.764	1.64628
761.467	1.26635
763.17	1.15709
764.872	1.22805
766.575	1.34325
768.276	1.41167
769.978	1.41029
771.679	1.54272
773.382	2.17133
775.083	1.8724
776.783	2.34278
778.483	2.11353
780.182	1.61429
781.882	1.56828
783.581	1.70342
785.279	1.74698
786.978	1.44877
788.676	2.41507
790.373	1.74879
792.071	1.69108
793.768	1.69973
795.464	1.5728
797.161	2.03293
798.857	1.16521
800.552	2.12334
802.248	1.57453
803.941	0.936833
805.636	1.62578
807.33	2.13359
809.024	1.71903
810.718	1.55075
812.412	1.33701
814.105	1.01108
815.798	2.09577
817.49	2.19446
819.183	2.00252
820.873	1.76642
822.564	1.73186
824.256	1.58663
825.947	1.50976
827.637	1.92495
829.328	1.83033
831.016	2.05038
832.705	1.89447
834.395	1.5175
836.084	1.85475
837.772	2.10292
839.459	1.85896
841.147	1.45694
842.835	1.81312
844.522	1.49863
846.209	1.54227
847.894	0.961489
849.581	1.36673
851.267	1.37173
852.953	0.907735
854.637	1.3187
856.322	0.809361
858.007	2.00686
859.689	0.391991
861.374	1.5204
863.058	1.07159
864.739	0.801544
866.423	1.09412
868.106	1.00294
869.787	1.13686
871.469	0.774273
873.151	1.11078
874.831	1.13143
876.512	1.06181
878.193	1.15017
879.872	1.66735
881.553	1.14582
883.231	0.217211
884.911	1.18393
886.591	0.862669
888.268	1.69082
889.947	1.43435
891.623	1.6275
893.302	0.670639
894.978	1.04179
896.656	1.07411
898.331	1.03811
900.008	1.29291
901.683	0.963908
903.359	0.724694
905.033	0.642363
906.709	1.02913
908.383	1.79453
910.058	1.42333
911.731	0.297435
913.405	1.53005
915.078	0.695787
916.752	1.1053
918.423	1.15942
920.096	0.350045
921.768	0.869889
923.438	0.748882
925.111	1.04917
926.781	1.2404
928.452	1.27852
930.122	1.14121
931.791	0.497107
933.462	1.04466
935.13	0.842279
936.799	1.08143
938.468	0.108354
940.136	0.4596
941.803	1.20907
943.472	1.12101
945.139	1.34173
946.805	0.63432
948.473	1.16134
950.139	0.914079
951.804	1.5042
953.471	0.704603
955.136	0.722684
956.801	0.963736
958.465	0.788676
960.131	1.23396
961.794	0.9081
963.458	0.404758
965.12	0.783997
966.785	0.984165
968.447	0.849969
970.109	0.470562
971.771	0.820467
973.432	1.06011
975.095	0.969338
976.756	1.01292
978.417	1.1906
980.077	0.98171
981.737	0.772305
983.396	1.85665
985.057	0.924682
986.716	1.42964
988.375	1.0919
990.033	1.35033
991.691	1.27639
993.349	0.89316
995.006	0.576684
996.663	0.635708
998.32	0.871018
999.976	1.37025
1001.63	1.6923
1003.29	1.39733
1004.95	1.21241
1006.6	0.478292
1008.26	0.426048
1009.91	0.769142
1011.56	0.870948
1013.22	1.25794
1014.87	0.965847
1016.53	0.980927
1018.18	0.405708
1019.83	1.31892
1021.48	0.505247
1023.14	1.37606
1024.79	0.914329
1026.44	1.02139
1028.09	1.39061
1029.74	1.84647
1031.39	1.09972
1033.04	1.20337
1034.69	1.74167
1036.34	1.10064
1037.99	1.44011
1039.64	1.1695
1041.29	1.3567
1042.94	0.740664
1044.58	0.822127
1046.23	0.840142
1047.88	0.794717
1049.52	0.577041
1051.17	0.686248
1052.82	0.904833
1054.46	0.363289
1056.11	1.06038
1057.75	0.996609
1059.4	1.12804
1061.04	0.650043
1062.69	1.21503
1064.33	0.757174
1065.98	0.733258
1067.62	0.969155
1069.26	-0.0343342
1070.9	0.35225
1072.55	0.325976
1074.19	0.517134
1075.83	0.665699
1077.47	0.511785
1079.11	1.09629
1080.76	0.900791
1082.4	0.531792
1084.04	1.1377
1085.68	0.462951
1087.32	0.653523
1088.95	0.408958
1090.59	1.2666
1092.23	1.08411
1093.87	0.253656
1095.51	0.244774
1097.15	0.88331
1098.78	0.746661
1100.42	0.805545
1102.06	0.457294
1103.69	1.20798
1105.33	1.07772
1106.97	0.775936
1108.6	0.0868301
1110.24	-0.000988007
1111.87	0.554661
1113.51	0.270615
1115.14	0.264883
1116.77	0.365919
1118.41	0.316864
1120.04	0.739802
1121.67	0.392336
1123.31	0.795238
1124.94	0.428511
1126.57	0.533343
1128.2	0.125603
1129.83	0.744911
1131.47	0.466671
1133.1	0.381132
1134.72	0.231346
1136.36	0.145145
1137.98	0.164898
1139.62	0.546693
1141.24	-0.182882
1142.87	0.581506
1144.5	0.129601
1146.13	0.403541
1147.76	-0.195612
1149.38	0.442008
1151.01	0.163837
1152.64	0.39686
1154.27	0.20367
1155.89	0.223063
1157.52	-0.566119
1159.14	0.21941
1160.77	0.473684
1162.39	0.133545
1164.02	0.45343
1165.64	0.199675
1167.27	0.00945568
1168.89	0.519884
1170.51	0.0296564
1172.14	0.281643
1173.76	0.128418
1175.38	0.547136
1177	0.477206
1178.63	-0.0584049
1180.25	-0.0211334
1181.87	-0.469652
1183.49	-0.26173
1185.11	0.706596
1186.73	-0.0163641
1188.35	-0.402097
1189.97	0.222917
1191.59	0.00283718
1193.21	0.18147
1194.83	0.0650034
1196.45	0.242399
1198.07	-0.0404339
1199.68	0.180842
1201.3	-0.0768118
1202.92	0.0649214
1204.53	-0.271274
1206.15	-0.271642
1207.77	0.37578
1209.38	0.376617
1211	0.62698
1212.62	5.72205e-006
1214.23	0.20517
1215.84	0.324833
1217.46	0.359515
1219.07	0.455589
1220.69	0.945778
1222.3	-0.0989265
1223.91	0.744829
1225.53	0.86398
1227.14	0.342928
1228.75	0.382081
1230.36	0.401642
1231.97	1.12506
1233.59	0.671276
1235.2	0.83872
1236.81	0.821259
1238.42	0.804719
1240.03	0.933519
1241.64	0.317928
1243.25	0.880996
1244.85	1.15387
1246.46	0.949916
1248.07	1.09679
1249.68	0.208458
1251.29	0.933687
1252.9	0.604034
1254.5	0.771498
1256.11	1.06405
1257.72	1.10956
1259.32	0.907859
1260.93	1.36924
1262.54	1.27228
1264.14	0.905951
1265.75	1.0985
1267.35	1.16611
1268.96	1.27434
1270.56	1.02913
1272.16	0.762205
1273.77	0.74317
1275.37	0.743985
1276.97	0.433144
1278.57	1.09537
1280.18	1.11464
1281.78	0.429958
1283.38	1.09066
1284.98	0.882807
1286.58	1.39946
1288.18	0.842099
1289.78	1.00904
1291.38	1.21772
1292.99	1.137
1294.58	1.53074
1296.18	1.84043
1297.78	1.0749
1299.38	1.27827
1300.98	1.50057
1302.58	0.609064
1304.17	1.48807
1305.77	1.15178
1307.37	1.76038
1308.97	1.46478
1310.56	1.70263
1312.16	1.87895
1313.76	1.60575
1315.35	1.41577
1316.95	1.18616
1318.54	1.18183
1320.14	1.52393
1321.73	1.51833
1323.32	1.00256
1324.92	1.86841
1326.51	1.20837
1328.1	1.36046
1329.7	1.29
1331.29	1.03922
1332.88	1.21528
1334.47	0.969147
1336.07	2.0162
1337.66	1.26769
1339.25	1.52717
1340.84	1.62356
1342.43	1.51652
1344.02	1.46811
1345.61	1.43889
1347.2	1.22949
1348.79	1.20242
1350.37	1.13767
1351.96	0.635344
1353.55	0.815063
1355.14	0.77595
1356.73	0.797117
1358.31	0.81788
1359.9	0.658071
1361.49	0.577301
1363.07	1.03447
1364.66	0.693405
1366.25	0.631909
1367.83	0.591118
1369.42	0.31257
1371	0.393629
1372.59	0.674828
1374.17	0.519219
1375.75	0.384086
1377.34	0.686797
1378.92	0.531388
1380.5	0.454695
1382.09	1.1527
1383.67	0.616217
1385.25	0.357573
1386.83	0.933195
1388.42	0.634712
1390	0.15845
1391.58	0.318262
1393.16	0.0422316
1394.74	0.797962
1396.32	0.641064
1397.9	0.344866
1399.48	1.118
1401.06	0.225986
1402.64	0.383492
1404.21	0.877131
1405.79	0.935735
1407.37	0.698604
1408.95	0.818055
1410.53	-0.128728
1412.1	0.7614
1413.68	0.426588
1415.26	0.880478
1416.83	0.721862
1418.41	0.740479
1419.98	1.09427
1421.56	0.917106
1423.13	0.9974
1424.71	0.961071
1426.28	0.906198
1427.86	0.871475
1429.43	0.934907
1431	0.525165
1432.58	1.05908
1434.15	1.23779
1435.72	1.06202
1437.29	1.88925
1438.87	1.20327
1440.44	1.20632
1442.01	1.58367
1443.58	1.21485
1445.15	1.35737
1446.72	1.38214
1448.29	1.26947
1449.86	1.13739
1451.43	1.57593
1453	1.8578
1454.57	1.43197
1456.14	1.18299
1457.71	1.68113
1459.27	1.15478
1460.84	1.49274
1462.41	0.569774
1463.98	1.29789
1465.54	1.12025
1467.11	1.23715
1468.67	0.922351
1470.24	1.17776
1471.81	0.649328
1473.37	0.455537
1474.94	0.282096
1476.5	0.363944
1478.07	0.367451
1479.63	0.351302
1481.19	0.139089
1482.76	0.651946
1484.32	0.0476961
1485.88	0.912598
1487.45	0.287968
1489.01	0.152043
1490.57	-0.278778
1492.13	0.423156
1493.69	-0.0693903
1495.26	-0.0551167
1496.82	0.425851
1498.38	0.418977
1499.94	0.218278
1501.5	0.135451
1503.06	0.325292
1504.62	-0.143208
1506.17	0.473336
1507.73	-0.130121
1509.29	0.0394993
1510.85	0.0727167
1512.41	0.0858755
1513.97	0.560578
1515.52	0.150108
1517.08	0.105925
1518.64	0.350133
1520.19	0.153784
1521.75	-0.309844
1523.31	-0.0273495
1524.86	-0.204309
1526.42	0.304712
1527.97	0.278505
1529.52	0.404016
1531.08	0.491198
1532.63	0.256297
1534.19	0.571922
1535.74	-0.133611
1537.29	-0.194419
1538.85	0.160685
1540.4	0.1383
1541.95	0.266735
1543.5	0.733588
1545.06	0.259336
1546.61	0.274166
1548.16	0.363891
1549.71	0.303471
1551.26	0.243344
1552.81	0.501787
1554.36	0.685839
1555.91	0.572031
1557.46	0.795899
1559.01	0.536193
1560.56	0.222307
1562.11	0.600051
1563.65	0.624302
1565.2	0.686364
1566.75	0.673878
1568.29	0.530534
1569.84	1.48812
1571.39	0.186805
1572.94	0.807884
1574.48	0.868849
1576.03	0.911178
1577.57	0.72969
1579.12	0.753913
1580.66	0.946745
1582.21	0.897552
1583.75	0.979852
1585.3	1.47402
1586.84	1.33335
1588.38	0.799889
1589.93	0.958139
1591.47	0.0865698
1593.01	0.843116
1594.55	0.70082
1596.1	1.27047
1597.64	1.12864
1599.18	0.706063
1600.72	1.12788
1602.26	1.04375
1603.8	0.959508
1605.34	1.4194
1606.88	1.25821
1608.42	0.512492
1609.96	1.00525
1611.5	1.04486
1613.04	1.27051
1614.58	1.13817
1616.12	0.893131
1617.65	1.07994
1619.19	0.949108
1620.73	0.7448
1622.27	0.766459
1623.8	0.826244
1625.34	1.01705
1626.87	1.24452
1628.41	0.834626
1629.95	1.13445
1631.48	1.13402
1633.02	1.0212
1634.55	1.18881
1636.09	1.03979
1637.62	1.39527
1639.15	1.09853
1640.69	1.21202
1642.22	1.38075
1643.76	1.86485
1645.29	1.71459
1646.82	1.41494
1648.35	1.09688
1649.88	1.55949
1651.42	1.42862
1652.95	1.33612
1654.48	1.13346
1656.01	1.54313
1657.54	1.22984
1659.07	1.34206
1660.6	1.56408
1662.13	1.28503
1663.66	1.52295
1665.19	1.59377
1666.72	1.18502
1668.24	1.29422
1669.77	1.25718
1671.3	1.42417
1672.83	1.33417
1674.35	1.42878
1675.88	1.85448
1677.41	1.15652
1678.93	1.12039
1680.46	1.19368
1681.99	1.39484
1683.51	0.677373
1685.04	0.749952
1686.56	0.510995
1688.09	0.657588
1689.61	0.767718
1691.13	0.585002
1692.66	0.512333
1694.18	-0.0175858
1695.71	0.622901
1697.23	0.622992
1698.75	0.914962
1700.27	0.0564914
1701.8	0.292932
1703.32	0.0729785
1704.84	0.198889
1706.36	0.124092
1707.88	0.249161
1709.4	-0.0256286
1710.92	0.625629
1712.44	-0.0658112
1713.96	-0.339282
1715.48	0.691088
1717	0.272741
1718.52	0.14413
1720.04	-0.00237751
1721.56	-0.310868
1723.07	0.174813
1724.59	0.0480862
1726.11	0.210693
1727.63	0.338253
1729.14	0.412562
1730.66	0.181913
1732.18	0.079052
1733.69	0.0805025
1735.21	0.106887
1736.72	-0.0414114
1738.24	0.233651
1739.75	0.306253
1741.27	-0.276235
1742.78	0.0403185
1744.3	0.356038
1745.81	-0.221284
1747.32	-0.0878859
1748.84	0.181743
1750.35	0.141251
1751.86	0.0968981
1753.37	-0.194491
1754.89	0.191606
1756.4	0.39565
1757.91	0.318097
1759.42	0.0571027
1760.93	0.219509
1762.44	0.0635562
1763.95	0.118454
1765.46	-0.264353
1766.97	-0.074872
1768.48	-0.247973
1769.99	0.127473
1771.5	0.141519
1773.01	0.504573
1774.52	-0.0639453
1776.03	0.138148
1777.53	0.171991
1779.04	0.0183206
1780.55	-0.0552125
1782.06	-0.280384
1783.56	0.0313325
1785.07	0.00559282
1786.57	0.132024
1788.08	0.0701985
1789.59	0.0524516
1791.09	0.00756121
1792.6	-0.155354
1794.1	0.0161505
1795.6	-0.00112009
1797.11	0.0991855
1798.61	-0.210994
1800.12	-0.149248
1801.62	0.125145
1803.12	0.185513
1804.63	0.169943
1806.13	-0.248969
1807.63	0.195975
1809.13	-0.0120687
1810.63	-0.0816426
1812.14	0.168629
1813.64	0.031621
1815.14	-0.138173
1816.64	-0.207544
1818.14	0.00846529
1819.64	-0.0263901
1821.14	0.0314031
1822.64	0.0954933
1824.14	-0.276529
1825.63	-0.0425649
1827.13	-0.0153832
1828.63	0.0688515
1830.13	-0.078784
1831.63	-0.162657
1833.12	-0.121912
1834.62	0.0976186
1836.12	0.0656867
1837.62	0.0574884
1839.11	0.0831943
1840.61	-0.077023
1842.1	0.0920219
1843.6	-0.0332041
1845.09	0.173172
1846.59	0.187506
1848.08	0.00405264
1849.58	0.244369
1851.07	0.152482
1852.57	-0.389624
1854.06	-0.0827088
1855.55	0.455638
1857.04	-0.163873
1858.54	-0.106554
1860.03	0.136839
1861.52	0.012403
1863.01	0.149623
1864.5	0.296356
1866	0.00571156
1867.49	0.168477
1868.98	0.327216
1870.47	0.0484376
1871.96	0.302249
1873.45	-0.0338492
1874.94	0.19538
1876.43	-0.0633941
1877.92	0.0976324
1879.41	-0.435003
1880.89	-0.257873
1882.38	0.211278
1882.48	0.243286
1883.97	0.0529356
1885.47	-0.0333576
1886.96	-0.102861
1888.46	0.088407
1889.95	0.331792
1891.44	0.227927
1892.94	0.299307
1894.43	0.0940075
1895.92	0.220328
1897.41	0.27783
1898.9	-0.0821996
1900.4	0.0265946
1901.89	-0.283404
1903.38	-0.0207615
1904.87	0.414365
1906.36	0.118659
1907.85	0.118425
1909.34	0.0318804
1910.83	0.0676064
1912.32	-0.294942
1913.81	0.0541987
1915.29	0.38595
1916.78	0.405233
1918.27	0.129405
1919.76	0.165243
1921.25	-0.301342
1922.74	0.254294
1924.22	-0.0725727
1925.71	0.120873
1927.2	-0.0137572
1928.68	0.163769
1930.17	0.168158
1931.65	-0.053216
1933.14	-0.0506048
1934.63	0.348735
1936.11	0.227315
1937.59	0.0704541
1939.08	-0.121154
1940.56	0.257524
1942.05	0.463849
1943.53	0.136092
1945.01	0.223156
1946.5	-0.258412
1947.98	0.104597
1949.46	-0.222314
1950.94	0.62112
1952.43	0.2755
1953.91	-0.104553
1955.39	-0.174864
1956.87	-0.0730686
1958.35	0.0291247
1959.83	-0.262767
1961.31	0.0118809
1962.79	0.029357
1964.27	0.235139
1965.75	0.491702
1967.23	-0.0227747
1968.71	0.112807
1970.19	-0.0941319
1971.67	0.330993
1973.14	0.260459
1974.62	0.0877604
1976.1	0.443809
1977.58	0.254463
1979.05	0.559067
1980.53	0.148811
1982.01	0.180926
1983.48	0.212757
1984.96	0.142419
1986.43	0.597752
1987.91	0.289725
1989.38	0.0840125
1990.86	0.285264
1992.33	0.233312
1993.81	0.182217
1995.28	0.469804
1996.76	0.740667
1998.23	0.825555
1999.7	0.116544
2001.18	0.166986
2002.65	-0.00229168
2004.12	0.182493
2005.59	0.299944
2007.06	-0.17165
2008.54	0.31759
2010.01	0.0496926
2011.48	0.506129
2012.95	0.205087
2014.42	-0.0288873
2015.89	0.476902
2017.36	0.17435
2018.83	0.258018
2020.3	-0.0285025
2021.77	0.289708
2023.24	0.137851
2024.71	0.35586
2026.17	0.423697
2027.64	0.693935
2029.11	0.428678
2030.58	0.332207
2032.04	0.538529
2033.51	0.594311
2034.98	0.347836
2036.45	0.520853
2037.91	0.542288
2039.38	0.462555
2040.84	0.550814
2042.31	0.538524
2043.77	0.51
2045.24	0.44853
2046.7	0.572809
2048.17	0.1079
2049.63	0.552342
2051.1	0.423103
2052.56	0.359982
2054.02	0.649545
2055.48	0.44858
2056.95	0.229706
2058.41	0.448445
2059.87	0.565784
2061.33	0.279243
2062.8	0.161845
2064.26	0.46602
2065.72	0.198753
2067.18	0.302396
2068.64	0.541166
2070.1	0.25842
2071.56	0.194498
2073.02	0.433515
2074.48	0.554482
2075.94	0.574147
2077.4	0.492454
2078.86	0.410427
2080.31	0.614286
2081.77	0.531418
2083.23	0.464856
2084.69	0.65013
2086.14	0.430943
2087.6	0.278672
2089.06	0.143004
2090.52	0.477622
2091.97	0.828611
2093.43	0.726093
2094.88	0.506073
2096.34	0.805468
2097.79	0.534449
2099.25	0.56454
2100.7	0.510684
2102.16	0.824687
2103.61	0.704737
2105.07	0.936462
2106.52	0.618603
2107.97	0.401893
2109.43	1.00264
2110.88	0.71911
2112.33	1.10121
2113.78	1.06512
2115.24	1.32717
2116.69	1.03933
2118.14	1.06783
2119.59	1.03099
2121.04	0.780139
2122.49	1.06181
2123.94	1.06269
2125.39	1.09731
2126.84	1.0654
2128.29	1.1984
2129.74	1.03187
2131.19	1.17904
2132.64	1.45776
2134.09	0.991654
2135.54	1.18807
2136.98	1.35248
2138.43	1.32008
2139.88	1.43807
2141.33	1.67323
2142.77	1.43004
2144.22	1.73317
2145.67	1.82152
2147.11	1.39641
2148.56	1.51698
2150.01	1.71969
2151.45	1.68961
2152.9	1.36037
2154.34	1.57716
2155.79	1.7438
2157.23	1.47974
2158.67	2.0114
2160.12	2.08043
2161.56	2.10138
2163	1.52718
2164.45	2.0486
2165.89	2.00706
2167.33	1.93216
2168.78	1.87285
2170.22	2.07797
2171.66	2.1482
2173.1	2.28315
2174.54	1.53517
2175.98	1.8346
2177.42	1.98441
2178.86	1.70258
2180.3	1.82064
2181.74	1.75659
2183.18	2.04226
2184.62	1.69624
2186.06	1.96567
2187.5	1.88579
2188.94	1.75598
2190.38	1.65938
2191.82	1.82887
2193.25	1.49825
2194.69	1.83244
2196.13	1.93186
2197.57	2.17913
2199	1.36033
2200.44	1.90416
2201.88	1.41764
2203.31	1.69554
2204.75	1.59266
2206.18	1.14276
2207.62	1.27353
2209.05	1.25501
2210.49	1.53377
2211.92	1.28201
2213.36	1.01338
2214.79	1.07534
2216.22	1.13768
2217.66	1.26687
2219.09	0.803306
2220.52	1.08264
2221.96	0.900446
2223.39	1.12968
2224.82	1.14348
2226.25	1.18871
2227.68	0.854299
2229.11	0.732948
2230.55	0.939303
2231.98	0.964733
2233.41	0.793878
2234.84	0.951022
2236.27	1.12515
2237.7	0.124891
2239.12	0.628425
2240.55	0.904759
2241.98	0.888892
2243.41	0.645717
2244.84	0.810603
2246.27	1.08915
2247.7	0.681375
2249.12	0.647033
2250.55	0.496887
2251.98	0.785037
2253.41	0.811749
2254.83	0.659885
2256.26	0.509402
2257.68	0.928869
2259.11	1.18817
2260.54	0.865846
2261.96	0.723939
2263.39	0.778098
2264.81	0.442584
2266.24	0.854357
2267.66	0.777862
2269.08	0.700531
2270.51	0.817824
2271.93	0.511389
2273.35	0.628097
2274.78	0.744905
2276.2	0.747866
2277.62	0.53909
2279.04	0.574783
2280.47	0.398452
2281.89	0.466588
2283.31	0.404152
2284.73	0.390659
2286.15	0.785386
2287.57	0.690791
2288.99	0.59648
2290.41	0.731182
2291.83	0.506579
2293.25	0.298225
2294.67	0.0569444
2296.09	0.208222
2297.51	0.228573
2298.93	0.478318
2300.35	0.269505
2301.76	0.388656
2303.18	0.130809
2304.6	0.381653
2306.02	0.32066
2307.44	0.522229
2308.85	0.2304
2310.27	0.414752
2311.69	0.286366
2313.1	0.240121
2314.52	0.375191
2315.93	0.230991
2317.35	0.48265
2318.76	0.405251
2320.18	0.591485
2321.59	0.381013
2323.01	0.449502
2324.42	0.384127
2325.83	0.531461
2327.25	1.02359
2328.66	0.789359
2330.07	0.687282
2331.49	0.174418
2332.9	0.337591
2334.31	0.451976
2335.72	0.566515
2337.13	0.581965
2338.55	0.267813
2339.96	0.528152
2341.37	0.442555
2342.78	0.290993
2344.19	-0.106409
2345.6	0.103301
2347.01	0.165543
2348.42	0.096776
2349.83	0.191391
2351.24	0.367008
2352.65	0.394568
2354.05	0.127601
2355.46	0.202924
2356.87	-0.0641308
2358.28	0.189839
2359.69	0.297105
2361.09	-0.0177822
2362.5	0.235445
2363.91	0.0993443
2365.31	0.0120077
2366.72	0.345188
2368.13	-0.112996
2369.53	0.156344
2370.94	0.313413
2372.34	0.326328
2373.75	0.951951
2375.15	0.176971
2376.56	0.0781331
2377.96	0.428826
2379.37	0.247574
2380.77	-0.0470548
2382.17	-0.278018
2383.58	0.692064
2384.98	0.363865
2386.38	0.468144
2387.79	0.540964
2389.19	0.0724869
2390.59	-0.011858
2391.99	0.23914
2393.39	0.220119
2394.8	0.12224
2396.2	0.45424
2397.6	0.405078
2399	0.213402
2400.4	0.133398
2401.8	0.323686
2403.2	0.0533957
2404.6	0.22751
2406	0.432629
2407.4	0.00215483
2408.79	-0.000336647
2410.19	-0.018949
2411.59	0.358684
2412.99	0.245662
2414.39	0.197031
2415.78	0.497836
2417.18	0.40392
2418.58	0.247392
2419.98	0.0435972
2421.37	0.647491
2422.77	0.0314193
2424.16	0.349789
2425.56	0.478113
2426.96	0.131402
2428.35	0.118117
2429.74	0.359305
2431.14	-0.09688
2432.53	0.145109
2433.93	0.132829
2435.32	0.373872
2436.72	0.296067
2438.11	0.296484
2439.5	-0.00594711
2440.9	-0.229538
2442.29	0.626064
2443.68	0.274797
2445.07	0.431237
2446.47	0.460578
2447.86	0.252069
2449.25	0.24965
2450.64	0.389908
2452.03	0.577955
2453.42	0.291815
2454.81	-0.104259
2456.2	-0.00931025
2457.59	0.164965
2458.98	-0.0246754
2460.37	0.338803
2461.76	0.480155
2463.15	-0.153694
2464.54	0.365819
2465.93	-0.189238
2467.32	0.0611749
2468.7	-0.00424767
2470.09	0.0564075
2471.48	0.179706
2472.87	-0.122997
2474.25	0.45569
2475.64	0.277941
2477.03	0.131601
2478.41	-0.312943
2479.8	0.357496
2481.18	0.227332
2482.57	0.144327
2483.95	0.15503
2485.34	-0.366724
2486.72	0.111644
2488.11	0.151144
2489.49	0.28346
2490.88	0.399722
2492.26	0.00311041
2493.65	0.0119596
2495.03	0.0218191
2496.41	-0.0448775
2497.79	-0.00238514
2499.18	0.272452
2500.56	0.129033
2501.94	-0.0147686
2503.32	-0.0818567
2504.7	-0.0260973
2506.09	-0.0633869
2507.47	0.19164
2508.85	-0.138023
2510.23	0.132292
2511.61	-0.0577259
2512.99	0.243731
2514.37	0.0246015
2515.75	0.571777
2517.13	-0.104865
2518.51	-0.306364
2519.89	0.0578899
2521.26	-0.1588
2522.64	-0.162025
2524.02	0.230703
2525.4	-0.353127
2526.78	0.0231485
2528.15	0.110013
2529.53	0.151974
2530.91	0.331916
2532.28	-0.428991
2533.66	-0.109904
2535.04	0.0577784
2536.41	0.45333
2537.79	0.0432005
2539.16	0.103288
2540.54	-0.307966
2541.91	-0.248722
2543.29	-0.234841
2544.66	-0.220347
2546.04	0.356269
2547.41	0.00857162
2548.78	0.0104065
2550.16	0.179254
2551.53	0.135332
2552.9	0.379054
2554.27	0.212201
2555.65	0.0750289
2557.02	0.24084
2558.39	0.0273681
2559.76	-0.200943
2561.13	0.207822
2562.51	-0.216531
2563.88	-0.109979
2565.25	-0.245553
2566.62	0.0282364
2567.99	0.120266
2569.36	0.288104
2570.73	0.213458
2572.1	0.184319
2573.47	-0.193398
2574.84	-0.0708151
2576.2	-0.0543017
2577.57	-0.113641
2578.94	0.160441
2580.31	0.206831
2581.68	0.374206
2583.05	-0.00454664
2584.41	0.359427
2585.78	0.359488
2587.15	0.0565195
2588.51	0.253893
2589.88	0.36042
2591.24	0.133473
2592.61	0.103196
2593.98	0.390437
2595.34	0.176968
2596.71	-0.0220094
2598.07	0.00552893
2599.44	0.22929
2600.8	-0.0759935
2602.16	0.223543
2603.53	0.0251775
2604.89	0.21977
2606.26	0.0976243
2607.62	0.171366
2608.98	-0.162533
2610.34	-0.150524
2611.71	0.161491
2613.07	0.111172
2614.43	-0.014761
2615.79	-0.18566
2617.15	0.168642
2618.52	0.11836
2619.88	-0.0808434
2621.24	0.049809
2622.6	-0.491705
2623.96	0.43108
2625.32	-0.0202556
2626.68	0.214806
2628.04	0.0022397
2629.4	0.340695
2630.75	0.0684576
2632.11	-0.0101666
2633.47	0.119277
2634.83	-0.211613
2636.19	-0.171218
2637.55	0.106207
2638.9	0.0426869
2640.26	0.230914
2641.62	-0.142719
2642.98	0.0162635
2644.33	-0.0757995
2645.69	0.2158
2647.04	0.226587
2648.4	-0.205065
2649.76	-0.0626345
2651.11	0.211316
2652.47	0.073247
2653.82	0.11169
2655.18	-0.010591
2656.53	0.146474
2657.88	0.0846934
2659.24	0.155375
2660.59	0.109364
2661.95	-0.11206
2663.3	0.177541
2664.65	0.291
2666	-0.208892
2667.36	0.238933
2668.71	0.190858
2670.06	0.172185
2671.41	-0.00596619
2672.76	0.0491176
2674.12	0.119157
2675.47	-0.129735
2676.82	0.0282936
2678.17	-0.117853
2679.52	0.0557294
2680.87	-0.190377
2682.22	-0.0295901
2683.57	0.103149
2684.92	-0.198417
2686.27	0.15315
2687.62	0.0113816
2688.97	0.129972
2690.31	0.0730791
2691.66	-0.101323
2693.01	0.100447
2694.36	-0.10475
2695.71	-0.0345111
2697.05	0.325843
2698.4	0.0932264
2699.75	0.122665
2701.09	-0.00579786
2702.44	-0.234527
2703.78	-0.0133939
2705.13	-0.0235977
2706.48	-0.0772614
2707.82	-0.348814
2709.17	0.148506
2710.51	0.00695467
2711.86	0.388074
2713.2	-0.160656
2714.54	0.293191
2715.89	0.0639057
2717.23	0.154366
2718.57	0.0701175
2719.92	0.36389
2721.26	0.249931
2722.6	0.412116
2723.95	-0.0519347
2725.29	0.371566
2726.63	0.358106
2727.97	0.111545
2729.31	0.0831418
2730.65	0.0691948
2732	0.215275
2733.34	0.434135
2734.68	0.231286
2736.02	0.0577345
2737.36	0.364278
2738.7	0.481732
2740.04	0.162732
2741.38	-0.200173
2742.72	-0.0836883
2744.05	0.119424
2745.39	-0.0703163
2746.73	0.160904
2748.07	0.0724525
2749.41	0.143723
2750.75	-0.0894656
2752.08	0.141666
2753.42	0.0105109
2754.76	0.0534492
2756.09	0.0675144
2757.43	0.212028
2758.77	0.0382051
2760.1	0.168708
2761.44	-0.351636
2762.78	0.228207
2764.11	0.41758
2765.44	-0.000723362
2766.78	-0.173347
2768.11	0.029489
2769.45	0.02882
2770.78	-0.261975
2772.12	-0.120171
2773.45	-0.253513
2774.78	-0.0554419
2776.12	0.0558243
2777.45	-0.192606
2778.78	0.178158
2780.12	0.175168
2781.45	0.37351
2782.78	-0.0884857
2784.11	-0.148324
2785.44	-0.00743818
2786.78	-0.138728
2788.11	0.159968
2789.44	0.101275
2790.77	0.0719495
2792.1	-0.156907
2793.43	0.315178
2794.76	0.215434
2796.09	-0.0702558
2797.42	0.0580502
2798.75	-0.299617
2800.08	0.156213
2801.4	-0.173163
2802.73	0.210558
2804.06	0.194681
2805.39	0.363646
2806.72	0.133397
2808.05	0.102101
2809.37	0.0989547
2810.7	0.0106249
2812.03	0.235091
2813.35	0.0630393
2814.68	0.00569725
2816.01	0.176301
2817.33	0.361927
2818.66	-0.174818
2819.98	0.0963631
2821.31	0.367204
2822.63	0.0139499
2823.96	0.113724
2825.28	0.17069
2826.61	0.171021
2827.93	0.369972
2829.25	0.215399
2830.58	0.146163
2831.9	0.261136
2833.23	0.460999
2834.55	0.462448
2835.87	0.61919
2837.19	0.393428
2838.52	0.365471
2839.84	0.549499
2841.16	0.73351
2842.48	0.861228
2843.8	1.08836
2845.12	0.764882
2846.44	1.14855
2847.77	1.20748
2849.08	1.49259
2850.4	1.59374
2851.73	1.63796
2853.05	1.63934
2854.36	1.42843
2855.68	1.83909
2857	1.99534
2858.32	1.6996
2859.64	1.64402
2860.96	1.82838
2862.28	1.98417
2863.59	2.04078
2864.91	2.25236
2866.23	2.2381
2867.55	2.52022
2868.86	2.80259
2870.18	2.50722
2871.5	2.86051
2872.81	2.95977
2874.13	3.41059
2875.44	2.67703
2876.76	3.6185
2878.07	3.41849
2879.39	3.64032
2880.7	3.82002
2882.02	3.41021
2883.33	3.43707
2884.65	3.1559
2885.96	3.74576
2887.28	3.17054
2888.59	3.35291
2889.9	3.56254
2891.21	3.16832
2892.53	3.64284
2893.84	3.52838
2895.15	3.1903
2896.46	3.63703
2897.78	3.6786
2899.09	3.49721
2900.4	3.9601
2901.71	3.80785
2903.02	3.79568
2904.33	3.89553
2905.64	3.84175
2906.95	4.27801
2908.26	4.49123
2909.57	4.60735
2910.88	4.91997
2912.19	4.82678
2913.5	5.02686
2914.81	4.88964
2916.12	5.1848
2917.43	5.36638
2918.73	5.22507
2920.04	5.71304
2921.35	5.5162
2922.66	5.58621
2923.96	5.90911
2925.27	5.75784
2926.58	6.25018
2927.88	6.37915
2929.19	6.20018
2930.5	6.99925
2931.8	6.46972
2933.11	6.8765
2934.41	6.12308
2935.72	6.05469
2937.02	5.95849
2938.33	6.53321
2939.63	6.00422
2940.94	6.14644
2942.24	6.0519
2943.54	5.66497
2944.85	5.40497
2946.15	5.3137
2947.45	5.53073
2948.76	5.10386
2950.06	4.99766
2951.36	4.73574
2952.66	4.7801
2953.97	4.50111
2955.27	4.50177
2956.57	4.33518
2957.87	4.57627
2959.17	4.07778
2960.47	4.21168
2961.77	4.27746
2963.07	4.09154
2964.37	4.35412
2965.67	4.03977
2966.97	4.28573
2968.27	4.01045
2969.57	3.08742
2970.87	3.49998
2972.17	3.43462
2973.47	3.45393
2974.77	3.27615
2976.07	3.42155
2977.36	3.29831
2978.66	2.89193
2979.96	3.21613
2981.26	2.72277
2982.55	3.00283
2983.85	2.77675
2985.15	2.93119
2986.44	1.99076
2987.74	2.02123
2989.03	1.99629
2990.33	1.92937
2991.63	2.26962
2992.92	1.86408
2994.21	2.08984
2995.51	1.48575
2996.8	1.70982
2998.1	1.44228
2999.39	1.66606
3000.69	1.80591
3001.98	1.41347
3003.27	1.20373
3004.57	1.30235
3005.86	0.924513
3007.15	1.26034
3008.44	1.04946
3009.74	1.20159
3011.03	0.90571
3012.32	0.428355
3013.61	0.32834
3014.9	0.786329
3016.19	0.812295
3017.48	0.922304
3018.78	0.726428
3020.07	0.530777
3021.36	0.432254
3022.65	0.735936
3023.94	0.580344
3025.23	0.895728
3026.51	0.753165
3027.8	0.126859
3029.09	0.401086
3030.38	0.579267
3031.67	0.233567
3032.96	0.827657
3034.24	0.690115
3035.53	0.621169
3036.82	0.454683
3038.11	0.424728
3039.39	0.434575
3040.68	0.484308
3041.97	0.793877
3043.25	0.732351
3044.54	0.589442
3045.83	0.489123
3047.11	0.40429
3048.4	0.44421
3049.68	0.431102
3050.97	0.664809
3052.25	0.653459
3053.54	0.723933
3054.82	0.766508
3056.11	0.726298
3057.39	0.657871
3058.67	0.643261
3059.96	0.778116
3061.24	0.640842
3062.52	0.722006
3063.81	0.572985
3065.09	0.656292
3066.37	0.998948
3067.65	0.540215
3068.94	0.598362
3070.22	0.520226
3071.5	0.495724
3072.78	0.55176
3074.06	0.443531
3075.34	0.157897
3076.62	0.252429
3077.9	0.319907
3079.18	0.238798
3080.46	0.375829
3081.74	0.337621
3083.02	0.435976
3084.3	0.331293
3085.58	0.212965
3086.86	0.202747
3088.14	0.00185442
3089.42	0.0989351
3090.69	0.358359
3091.97	0.115481
3093.25	0.40169
3094.53	0.267515
3095.8	0.431786
3097.08	-0.0818491
3098.36	0.136439
3099.63	0.232459
3100.91	0.219867
3102.19	-0.0365562
3103.46	0.0998673
3104.74	0.00638723
3106.01	0.170511
3107.29	0.064537
3108.56	0.0675015
3109.84	0.355424
3111.11	0.170257
3112.39	0.351172
3113.66	-0.0502248
3114.94	0.442645
3116.21	0.216659
3117.48	0.111828
3118.76	0.236591
3120.03	0.0755324
3121.3	0.171274
3122.57	0.225675
3123.85	-0.0182915
3125.12	0.225381
3126.39	0.577319
3127.66	0.00930643
3128.93	0.0235152
3130.21	0.186581
3131.48	0.187293
3132.75	0.579599
3134.02	0.0256739
3135.29	0.200696
3136.56	-0.137764
3137.83	-0.0988321
3139.1	0.276365
3140.37	0.152629
3141.64	-0.334124
3142.91	-0.148174
3144.17	0.118208
3145.44	-0.0448084
3146.71	0.154712
3147.98	0.00598955
3149.25	0.1523
