200.533	0.138969
202.348	0.156366
204.162	0.174485
205.976	0.193154
207.792	0.114676
209.605	-0.110003
211.418	0.344743
213.23	0.0940886
215.044	-0.0600171
216.856	-0.141665
218.667	-0.295873
220.478	0.15552
222.289	0.437602
224.102	0.0672069
225.912	-0.157569
227.721	0.149243
229.531	-0.0274572
231.34	0.0369039
233.148	0.197429
234.956	-0.0519099
236.766	0.422903
238.574	0.151759
240.381	0.267952
242.188	0.144561
243.994	0.0701437
245.801	0.405816
247.606	0.209407
249.412	0.373179
251.217	-0.0688858
253.024	0.332107
254.828	-0.0886645
256.632	-0.12356
258.436	0.0589724
260.239	-0.721223
262.042	0.138067
263.845	0.372039
265.647	0.148939
267.449	-0.122285
269.25	0.256961
271.052	-0.11167
272.852	-0.143646
274.653	0.353806
276.453	0.126799
278.253	0.115477
280.052	0.41585
281.852	-0.103925
283.65	0.265581
285.449	0.128889
287.247	-0.320082
289.044	0.190853
290.842	0.174318
292.639	0.0629439
294.436	-0.190768
296.232	0.154422
298.028	-0.264758
299.821	0.105038
301.617	0.140068
303.412	0.532583
305.206	0.160209
307	0.693882
308.794	0.106449
310.588	-0.59913
312.381	-0.136391
314.172	0.32713
315.964	0.291795
317.756	-0.05193
319.548	-0.0136695
321.34	0.263712
323.131	0.231863
324.921	-0.157692
326.71	0.0253558
328.5	0.280143
330.29	-0.0629196
332.079	0.310391
333.868	0.228191
335.654	0.0726647
337.443	0.298442
339.231	0.522693
341.018	-0.234774
342.804	0.155198
344.591	0.544803
346.377	0.0268483
348.163	0.106619
349.947	0.138918
351.733	-0.258406
353.518	0.131495
355.303	0.258048
357.085	0.0259318
358.869	0.0791125
360.653	0.250509
362.435	0.0640864
364.218	-0.52676
366.001	0.33203
367.781	0.358039
369.563	0.525651
371.345	0.194912
373.124	0.242941
374.905	0.077929
376.686	-0.228285
378.464	-0.179812
380.244	0.363831
382.022	0.789632
383.801	0.604216
385.58	0.255416
387.357	0.119265
389.135	-0.109998
390.911	0.107716
392.689	0.0441084
394.466	-0.159993
396.241	0.0353651
398.018	0.37173
399.792	-0.11407
401.568	0.221898
403.341	-0.12372
405.117	-0.117494
406.889	-0.13524
408.664	-0.153366
410.436	0.180391
412.21	0.138562
413.981	0.0501046
415.755	0.149855
417.525	-0.0783587
419.298	0.374362
421.068	0.475311
422.84	0.388325
424.609	-0.356509
426.38	0.00141239
428.149	-0.18116
429.919	0.128925
431.688	0.0634165
433.455	0.584869
435.225	0.00349998
436.992	0.102721
438.76	-0.220963
440.527	0.393069
442.293	0.184413
444.06	0.138595
445.826	0.0213351
447.593	-0.0731058
449.357	-0.588553
451.122	0.0417328
452.888	-0.0524621
454.651	0.460078
456.415	-0.216797
458.18	0.248392
459.942	0.177724
461.705	-0.148142
463.469	-0.147216
465.23	-0.0285687
466.991	0.556647
468.752	-0.0879521
470.515	0.0123019
472.275	0.392285
474.035	0.306521
475.797	0.49898
477.556	0.177544
479.315	0.0412059
481.073	0.160475
482.834	0.116824
484.592	0.306881
486.349	0.568223
488.106	0.69142
489.863	0.303084
491.622	-0.155147
493.378	-0.123088
495.134	0.447078
496.889	0.456427
498.645	0.489031
500.401	0.357227
502.156	-0.197739
503.91	0.114958
505.664	0.779901
507.417	0.456941
509.171	0.50904
510.923	-0.0046525
512.678	0.445285
514.43	0.094193
516.182	-0.0224371
517.933	0.0483656
519.684	0.447572
521.435	0.352511
523.186	0.0458889
524.936	-0.471767
526.686	0.184026
528.435	0.581256
530.184	0.368727
531.933	-0.0780525
533.682	0.505057
535.43	0.221174
537.18	0.591141
538.927	0.235753
540.674	-0.282882
542.421	-0.0787759
544.167	0.147879
545.913	0.606325
547.659	-0.189364
549.403	-0.194894
551.148	0.23967
552.893	0.210822
554.637	0.0435495
556.381	-0.16935
558.125	0.148792
559.868	-0.270542
561.611	-0.04426
563.354	0.27404
565.097	0.247511
566.839	0.359284
568.581	0.0582566
570.322	-0.287667
572.063	0.170458
573.802	0.446005
575.542	0.0116119
577.283	0.541933
579.022	-0.166119
580.762	0.136259
582.501	0.370068
584.24	0.0749555
585.976	0.284909
587.714	0.149093
589.452	-0.355669
591.19	-0.193835
592.927	0.082727
594.663	0.0601006
596.398	0.0605187
598.134	-0.169146
599.87	-0.0999475
601.605	0.244753
603.338	-0.285415
605.073	0.10341
606.808	0.123421
608.542	0.0510464
610.274	0.0704937
612.007	0.503115
613.74	0.179277
615.473	-0.0980053
617.204	0.0144982
618.936	-0.514647
620.668	-0.0368099
622.397	0.21096
624.128	0.160682
625.859	-0.00371361
627.588	0.0839324
629.318	0.0358543
631.048	0.194679
632.775	0.879683
634.505	-0.305933
636.233	-0.373627
637.96	0.356572
639.688	0.286024
641.416	0.396038
643.142	0.0713067
644.869	-0.208095
646.594	0.0136719
648.32	0.372685
650.045	0.347167
651.771	0.165167
653.496	0.440247
655.219	0.513135
656.944	0.29167
658.667	0.0931396
660.391	0.304646
662.113	0.104397
663.837	0.199469
665.558	0.453114
667.281	0.43124
669.002	0.408879
670.724	0.135399
672.444	0.52668
674.166	0.622311
675.885	0.0318656
677.606	0.175317
679.325	0.181313
681.045	0.370601
682.763	0.07587
684.483	-0.0824547
686.2	0.655945
687.917	0.449356
689.636	0.61055
691.352	0.471813
693.07	0.378728
694.786	0.0778751
696.501	0.32915
698.219	0.648579
699.933	0.552746
701.65	0.640214
703.364	0.313264
705.078	0.629357
706.793	0.118472
708.506	0.73173
710.219	0.564737
711.934	0.672481
713.646	0.619736
715.358	0.589807
717.071	0.67405
718.782	0.735404
720.493	1.11583
722.204	0.744283
723.916	0.737414
725.626	0.844145
727.336	0.723369
729.045	1.1925
730.756	0.708308
732.464	0.723053
734.173	0.828134
735.881	0.842646
737.59	0.970269
739.297	0.714633
741.004	0.88836
742.711	0.747292
744.417	1.23766
746.125	1.25597
747.831	1.45523
749.537	0.710674
751.242	0.776824
752.946	1.22622
754.651	1.20425
756.357	1.74595
758.061	0.825653
759.764	1.48243
761.467	1.68995
763.17	1.28891
764.872	0.570926
766.575	1.27471
768.276	1.32243
769.978	1.48172
771.679	0.961221
773.382	1.36689
775.083	1.18432
776.783	1.16042
778.483	1.1374
780.182	1.49987
781.882	1.56918
783.581	1.07283
785.279	1.7978
786.978	1.72893
788.676	1.68042
790.373	1.94626
792.071	1.66736
793.768	1.95228
795.464	1.62744
797.161	1.55177
798.857	1.36478
800.552	1.67443
802.248	1.10735
803.941	1.21584
805.636	1.459
807.33	1.79123
809.024	1.42613
810.718	1.28509
812.412	1.63692
814.105	1.38288
815.798	2.31552
817.49	2.03875
819.183	1.6284
820.873	1.79943
822.564	1.99276
824.256	1.31686
825.947	1.84606
827.637	1.95308
829.328	1.77254
831.016	2.59642
832.705	1.99695
834.395	2.20098
836.084	1.49145
837.772	1.38349
839.459	1.40858
841.147	1.32091
842.835	1.52275
844.522	1.34445
846.209	1.65828
847.894	1.23567
849.581	1.10512
851.267	1.19993
852.953	0.915109
854.637	1.59515
856.322	1.49029
858.007	1.31696
859.689	1.16467
861.374	0.853326
863.058	1.37414
864.739	1.51139
866.423	1.35501
868.106	1.35595
869.787	1.69487
871.469	0.70278
873.151	1.06389
874.831	0.72557
876.512	1.01902
878.193	1.49312
879.872	1.58351
881.553	0.973817
883.231	1.35689
884.911	0.971658
886.591	0.946712
888.268	1.01099
889.947	1.00651
891.623	1.31655
893.302	1.1073
894.978	1.1901
896.656	0.93482
898.331	1.68988
900.008	0.760363
901.683	1.22148
903.359	0.62945
905.033	0.999708
906.709	1.19063
908.383	0.868787
910.058	0.926794
911.731	0.896282
913.405	1.31073
915.078	1.5248
916.752	0.429742
918.423	0.799332
920.096	0.991165
921.768	1.02818
923.438	0.866959
925.111	0.839546
926.781	0.680881
928.452	0.942752
930.122	0.830139
931.791	0.872432
933.462	0.47367
935.13	1.22209
936.799	0.845817
938.468	0.734802
940.136	1.1539
941.803	1.26508
943.472	0.736856
945.139	1.04696
946.805	1.31224
948.473	0.759546
950.139	1.35333
951.804	0.732564
953.471	0.421016
955.136	0.683908
956.801	1.16905
958.465	0.796252
960.131	1.44025
961.794	0.6945
963.458	0.654918
965.12	0.614174
966.785	0.992052
968.447	1.56733
970.109	0.238483
971.771	0.900234
973.432	0.566892
975.095	1.22965
976.756	0.721535
978.417	0.678734
980.077	0.724819
981.737	0.770642
983.396	0.527791
985.057	0.527184
986.716	0.857243
988.375	0.455848
990.033	0.850069
991.691	1.30973
993.349	0.244782
995.006	0.770422
996.663	0.435142
998.32	1.04829
999.976	1.02153
1001.63	0.796331
1003.29	0.725183
1004.95	0.258089
1006.6	0.978199
1008.26	0.577459
1009.91	0.748009
1011.56	0.984392
1013.22	0.650966
1014.87	0.646723
1016.53	0.401936
1018.18	0.485915
1019.83	0.460965
1021.48	0.655308
1023.14	0.500515
1024.79	0.302664
1026.44	0.454834
1028.09	1.1532
1029.74	0.430933
1031.39	0.516279
1033.04	0.578712
1034.69	-0.210834
1036.34	0.460546
1037.99	0.367971
1039.64	0.797886
1041.29	0.944824
1042.94	0.244709
1044.58	0.306839
1046.23	0.913107
1047.88	0.239045
1049.52	0.326159
1051.17	0.0665107
1052.82	0.871766
1054.46	0.373794
1056.11	0.592829
1057.75	0.159584
1059.4	0.747778
1061.04	0.0745082
1062.69	0.42269
1064.33	0.335405
1065.98	0.334439
1067.62	0.354525
1069.26	0.547788
1070.9	0.327886
1072.55	0.303447
1074.19	0.366119
1075.83	0.624601
1077.47	0.233206
1079.11	0.775106
1080.76	0.363314
1082.4	0.558657
1084.04	0.493206
1085.68	0.795228
1087.32	0.229028
1088.95	0.420009
1090.59	0.782694
1092.23	0.452293
1093.87	0.359727
1095.51	0.00856638
1097.15	-0.12591
1098.78	0.731423
1100.42	0.469372
1102.06	0.122713
1103.69	0.487249
1105.33	0.658869
1106.97	0.465167
1108.6	0.830416
1110.24	0.549789
1111.87	0.65516
1113.51	0.136445
1115.14	0.540648
1116.77	0.600707
1118.41	0.660755
1120.04	0.46409
1121.67	0.439574
1123.31	-0.0551023
1124.94	0.26418
1126.57	0.327127
1128.2	0.176675
1129.83	0.432941
1131.47	0.561222
1133.1	0.582769
1134.72	0.21945
1136.36	0.496979
1137.98	0.282275
1139.62	0.664999
1141.24	0.150087
1142.87	-0.00188494
1144.5	0.123639
1146.13	0.206827
1147.76	0.418396
1149.38	0.0338383
1151.01	0.331343
1152.64	0.543514
1154.27	0.712762
1155.89	0.413428
1157.52	0.36951
1159.14	0.644885
1160.77	0.53792
1162.39	0.686849
1164.02	0.113513
1165.64	0.0507545
1167.27	0.306747
1168.89	0.179351
1170.51	-0.0128064
1172.14	-0.588375
1173.76	0.534157
1175.38	-0.000387669
1177	0.292298
1178.63	-0.0507841
1180.25	0.834699
1181.87	0.217732
1183.49	-0.207829
1185.11	0.634822
1186.73	0.525617
1188.35	0.310018
1189.97	-0.0750365
1191.59	-0.460374
1193.21	0.0794439
1194.83	-0.348407
1196.45	0.294131
1198.07	0.328365
1199.68	0.259054
1201.3	-0.0175829
1202.92	0.2089
1204.53	0.582803
1206.15	0.164965
1207.77	0.290472
1209.38	0.249218
1211	0.436864
1212.62	0.248042
1214.23	0.745622
1215.84	0.283309
1217.46	0.777521
1219.07	0.563591
1220.69	0.744434
1222.3	0.489888
1223.91	0.588839
1225.53	0.730011
1227.14	0.830607
1228.75	0.93202
1230.36	0.31055
1231.97	0.434321
1233.59	0.455461
1235.2	0.973402
1236.81	0.996116
1238.42	0.833453
1240.03	0.774537
1241.64	0.653652
1243.25	0.966943
1244.85	0.700452
1246.46	0.578096
1248.07	0.7034
1249.68	1.13855
1251.29	0.704529
1252.9	1.05678
1254.5	0.561442
1256.11	0.439108
1257.72	0.938144
1259.32	0.672504
1260.93	1.17317
1262.54	1.05327
1264.14	1.22329
1265.75	0.605676
1267.35	0.339602
1268.96	0.77773
1270.56	1.25677
1272.16	0.967952
1273.77	1.42482
1275.37	1.17611
1276.97	1.19626
1278.57	0.987982
1280.18	1.27638
1281.78	0.570914
1283.38	1.25218
1284.98	1.12677
1286.58	1.3535
1288.18	0.795436
1289.78	0.940774
1291.38	1.10707
1292.99	0.901341
1294.58	0.777804
1296.18	0.612183
1297.78	1.20944
1299.38	1.12415
1300.98	1.0998
1302.58	0.848076
1304.17	0.69908
1305.77	0.878831
1307.37	1.59183
1308.97	1.31841
1310.56	1.0251
1312.16	1.34679
1313.76	1.05483
1315.35	1.35663
1316.95	1.02566
1318.54	1.30759
1320.14	1.20167
1321.73	0.708285
1323.32	1.63919
1324.92	1.20509
1326.51	1.03498
1328.1	0.966333
1329.7	1.14119
1331.29	0.608903
1332.88	1.06912
1334.47	1.18685
1336.07	1.1239
1337.66	1.12187
1339.25	0.978278
1340.84	1.17616
1342.43	0.949697
1344.02	0.842999
1345.61	1.03698
1347.2	1.01007
1348.79	0.723981
1350.37	0.700158
1351.96	0.797986
1353.55	0.817062
1355.14	1.41657
1356.73	0.897015
1358.31	1.17649
1359.9	0.816138
1361.49	0.834621
1363.07	0.792705
1364.66	0.750621
1366.25	0.688829
1367.83	0.747108
1369.42	0.726496
1371	0.985419
1372.59	0.827297
1374.17	0.908694
1375.75	0.851234
1377.34	0.833622
1378.92	0.616682
1380.5	0.359323
1382.09	0.837262
1383.67	1.15499
1385.25	0.458112
1386.83	0.139071
1388.42	1.21044
1390	0.832351
1391.58	0.673392
1393.16	0.614215
1394.74	0.416463
1396.32	0.416965
1397.9	0.496311
1399.48	0.674047
1401.06	0.969845
1402.64	0.611761
1404.21	-0.0624638
1405.79	0.529791
1407.37	0.627924
1408.95	0.607976
1410.53	0.114305
1412.1	0.371247
1413.68	0.410521
1415.26	0.409742
1416.83	0.84229
1418.41	0.426647
1419.98	0.72082
1421.56	0.4444
1423.13	0.759689
1424.71	0.367352
1426.28	0.310419
1427.86	0.489988
1429.43	1.16146
1431	0.671057
1432.58	0.770392
1434.15	0.82973
1435.72	0.908424
1437.29	0.829931
1438.87	1.34165
1440.44	1.18565
1442.01	0.656922
1443.58	1.26853
1445.15	1.40874
1446.72	1.03805
1448.29	1.21781
1449.86	0.611419
1451.43	0.948972
1453	1.42466
1454.57	0.936904
1456.14	1.62945
1457.71	1.35752
1459.27	1.36017
1460.84	0.751597
1462.41	0.90933
1463.98	1.30187
1465.54	1.26091
1467.11	1.1412
1468.67	0.648847
1470.24	0.765883
1471.81	0.667764
1473.37	0.707658
1474.94	0.846077
1476.5	0.396519
1478.07	0.692108
1479.63	0.458329
1481.19	1.00853
1482.76	0.441512
1484.32	0.579947
1485.88	0.443847
1487.45	0.189812
1489.01	0.424566
1490.57	0.188368
1492.13	0.459482
1493.69	0.631104
1495.26	0.157452
1496.82	0.171393
1498.38	0.360302
1499.94	0.27701
1501.5	0.155756
1503.06	0.597844
1504.62	0.419658
1506.17	0.300025
1507.73	0.334924
1509.29	0.233889
1510.85	0.47967
1512.41	0.338911
1513.97	0.467711
1515.52	0.269563
1517.08	0.302646
1518.64	0.892206
1520.19	0.427387
1521.75	0.518567
1523.31	0.513762
1524.86	0.164841
1526.42	0.102144
1527.97	0.210426
1529.52	0.432155
1531.08	0.558319
1532.63	0.362162
1534.19	0.43218
1535.74	0.729653
1537.29	-0.0876074
1538.85	0.267416
1540.4	0.489983
1541.95	0.655659
1543.5	-0.0447202
1545.06	0.854188
1546.61	0.680615
1548.16	0.451013
1549.71	0.428033
1551.26	0.72352
1552.81	0.532432
1554.36	0.641331
1555.91	0.863015
1557.46	0.805615
1559.01	0.488341
1560.56	0.396293
1562.11	0.547762
1563.65	0.755903
1565.2	0.70323
1566.75	0.650599
1568.29	0.691124
1569.84	0.824745
1571.39	0.995468
1572.94	0.736672
1574.48	1.20581
1576.03	0.741602
1577.57	1.2856
1579.12	1.41922
1580.66	1.27323
1582.21	1.18376
1583.75	0.553047
1585.3	0.819436
1586.84	1.08635
1588.38	0.86726
1589.93	0.685266
1591.47	1.04571
1593.01	0.844331
1594.55	1.35442
1596.1	0.534575
1597.64	1.00771
1599.18	1.03164
1600.72	0.962257
1602.26	1.34356
1603.8	0.861413
1605.34	0.64137
1606.88	0.570645
1608.42	1.04376
1609.96	0.650841
1611.5	0.895445
1613.04	0.932021
1614.58	1.11787
1616.12	0.890602
1617.65	0.945099
1619.19	0.700563
1620.73	0.719371
1622.27	1.00116
1623.8	0.609423
1625.34	0.835506
1626.87	0.668001
1628.41	0.125615
1629.95	0.573939
1631.48	0.460504
1633.02	0.757873
1634.55	1.1111
1636.09	0.923435
1637.62	1.18413
1639.15	0.904396
1640.69	0.587593
1642.22	0.773622
1643.76	0.772587
1645.29	0.956873
1646.82	0.861413
1648.35	0.431457
1649.88	1.39494
1651.42	1.43003
1652.95	1.18775
1654.48	0.927875
1656.01	0.798324
1657.54	0.946724
1659.07	1.07599
1660.6	1.11172
1662.13	0.979955
1663.66	0.958568
1665.19	1.10308
1666.72	1.35833
1668.24	1.09761
1669.77	1.00408
1671.3	0.745782
1672.83	0.451514
1674.35	0.85744
1675.88	1.07889
1677.41	0.563525
1678.93	0.599761
1680.46	0.267611
1681.99	0.52337
1683.51	1.20092
1685.04	0.336278
1686.56	0.591581
1688.09	0.681917
1689.61	0.69913
1691.13	0.588318
1692.66	0.477664
1694.18	0.184174
1695.71	0.347912
1697.23	0.401692
1698.75	0.126509
1700.27	0.782115
1701.8	0.196411
1703.32	0.121451
1704.84	0.264786
1706.36	0.24387
1707.88	-0.340707
1709.4	0.0927858
1710.92	0.325969
1712.44	0.450075
1713.96	0.57408
1715.48	0.154861
1717	-0.0104942
1718.52	-0.0310764
1720.04	0.255299
1721.56	0.14439
1723.07	0.178228
1724.59	0.176594
1726.11	-0.0943384
1727.63	-0.220259
1729.14	-0.201589
1730.66	-0.108268
1732.18	-0.173617
1733.69	0.161632
1735.21	0.000452518
1736.72	0.0396442
1738.24	0.285161
1739.75	-0.205917
1741.27	-0.251889
1742.78	0.0834475
1744.3	0.0726376
1745.81	0.470684
1747.32	0.0864015
1748.84	0.296554
1750.35	0.243102
1751.86	0.298909
1753.37	0.282636
1754.89	0.200069
1756.4	0.11274
1757.91	0.214231
1759.42	-0.241802
1760.93	0.143224
1762.44	0.11171
1763.95	-0.221854
1765.46	-0.10916
1766.97	-0.0291162
1768.48	-0.00123501
1769.99	0.214921
1771.5	0.30499
1773.01	0.166166
1774.52	0.108634
1776.03	0.39278
1777.53	0.112672
1779.04	0.0865817
1780.55	-0.0452833
1782.06	-0.125192
1783.56	-0.204823
1785.07	0.0382371
1786.57	-0.0491791
1788.08	-0.0231042
1789.59	-0.0917339
1791.09	0.16311
1792.6	-0.0327249
1794.1	-0.157998
1795.6	0.146018
1797.11	-0.0071907
1798.61	0.144631
1800.12	0.0370584
1801.62	0.0792704
1803.12	-0.133033
1804.63	-0.086175
1806.13	0.0735121
1807.63	0.165834
1809.13	-0.00219488
1810.63	0.0558772
1812.14	-0.043839
1813.64	0.122081
1815.14	0.239399
1816.64	0.0285578
1818.14	0.22657
1819.64	0.0598755
1821.14	-0.198306
1822.64	0.0261812
1824.14	-0.0045414
1825.63	0.165422
1827.13	0.0455422
1828.63	0.181784
1830.13	-0.0246639
1831.63	-0.00433064
1833.12	0.189716
1834.62	0.123828
1836.12	-0.118546
1837.62	0.143834
1839.11	-0.0102119
1840.61	0.152131
1842.1	0.119761
1843.6	0.241814
1845.09	0.197755
1846.59	0.0734086
1848.08	0.00937033
1849.58	-0.0435476
1851.07	-0.139599
1852.57	0.0271473
1854.06	0.205775
1855.55	0.104763
1857.04	-0.0981498
1858.54	0.193087
1860.03	0.278724
1861.52	0.221005
1863.01	0.124583
1864.5	0.295988
1866	-0.0207191
1867.49	0.066937
1868.98	0.250274
1870.47	0.180903
1871.96	0.203568
1873.45	0.191398
1874.94	-0.00464201
1876.43	0.0502186
1877.92	0.0284638
1879.41	0.162084
1880.89	0.314557
1882.38	0.40451
1882.48	0.411831
1883.97	0.0980144
1885.47	0.219598
1886.96	0.183771
1888.46	0.0432115
1889.95	0.0246902
1891.44	0.180675
1892.94	0.00718355
1894.43	0.0782323
1895.92	0.393661
1897.41	0.153212
1898.9	0.0691705
1900.4	-0.311237
1901.89	0.0728455
1903.38	0.0557361
1904.87	0.0551434
1906.36	0.123559
1907.85	0.174505
1909.34	-0.0172415
1910.83	-0.0694714
1912.32	0.104374
1913.81	0.278491
1915.29	0.313886
1916.78	0.245042
1918.27	0.175899
1919.76	0.141167
1921.25	0.106391
1922.74	0.314296
1924.22	0.314891
1925.71	0.333507
1927.2	0.30086
1928.68	0.164736
1930.17	-0.0233793
1931.65	0.290213
1933.14	0.464365
1934.63	0.533451
1936.11	0.11695
1937.59	-0.0750432
1939.08	0.216731
1940.56	0.232002
1942.05	0.247771
1943.53	0.126173
1945.01	-0.236221
1946.5	0.0569263
1947.98	0.125726
1949.46	0.3663
1950.94	0.0378375
1952.43	0.0361257
1953.91	-0.25826
1955.39	0.255335
1956.87	0.21895
1958.35	0.183024
1959.83	0.216203
1961.31	0.112512
1962.79	0.231857
1964.27	0.213931
1965.75	0.315588
1967.23	0.245558
1968.71	0.346247
1970.19	0.651541
1971.67	0.0851145
1973.14	-0.0196977
1974.62	0.455604
1976.1	-0.0411816
1977.58	0.28039
1979.05	0.193075
1980.53	0.0548263
1982.01	-0.0493431
1983.48	0.016326
1984.96	0.387221
1986.43	0.078969
1987.91	0.194862
1989.38	0.0736742
1990.86	-0.0300279
1992.33	0.357429
1993.81	0.305568
1995.28	0.102165
1996.76	0.0512152
1998.23	-0.236156
1999.7	-0.15216
2001.18	0.370171
2002.65	0.166436
2004.12	0.552844
2005.59	0.19767
2007.06	0.331705
2008.54	0.247326
2010.01	0.331874
2011.48	0.181058
2012.95	0.198631
2014.42	0.30009
2015.89	-0.187814
2017.36	-0.188208
2018.83	0.130332
2020.3	0.196198
2021.77	0.312277
2023.24	0.0255809
2024.71	0.393955
2026.17	0.25959
2027.64	-0.00802946
2029.11	0.127783
2030.58	0.398634
2032.04	0.334604
2033.51	0.354775
2034.98	-0.011292
2036.45	0.159732
2037.91	0.112091
2039.38	-0.154297
2040.84	0.0498357
2042.31	0.27109
2043.77	0.173337
2045.24	0.530375
2046.7	0.484177
2048.17	0.404437
2049.63	0.189591
2051.1	0.159409
2052.56	0.414985
2054.02	0.197276
2055.48	0.315784
2056.95	0.483953
2058.41	0.39872
2059.87	0.0776229
2061.33	0.278967
2062.8	0.228173
2064.26	0.161173
2065.72	0.178926
2067.18	0.0962067
2068.64	-0.019835
2070.1	0.285106
2071.56	0.0682659
2073.02	0.524785
2074.48	0.24031
2075.94	0.292389
2077.4	0.580008
2078.86	0.345329
2080.31	0.379807
2081.77	0.447607
2083.23	0.3803
2084.69	0.0938025
2086.14	0.412635
2087.6	0.495416
2089.06	0.157701
2090.52	0.307316
2091.97	0.490304
2093.43	0.387784
2094.88	0.151051
2096.34	0.53443
2097.79	0.615412
2099.25	0.595449
2100.7	0.525129
2102.16	0.421618
2103.61	0.452342
2105.07	0.183394
2106.52	0.749681
2107.97	0.48235
2109.43	0.448825
2110.88	0.481677
2112.33	0.430379
2113.78	0.211559
2115.24	0.441351
2116.69	0.470687
2118.14	0.466919
2119.59	0.331162
2121.04	0.462153
2122.49	0.561052
2123.94	0.511577
2125.39	0.130902
2126.84	0.761512
2128.29	0.363568
2129.74	0.594696
2131.19	0.559812
2132.64	0.607221
2134.09	0.522183
2135.54	0.718789
2136.98	0.651672
2138.43	0.916254
2139.88	0.289579
2141.33	0.407568
2142.77	0.542869
2144.22	0.711759
2145.67	0.996734
2147.11	0.81816
2148.56	0.771553
2150.01	0.807202
2151.45	0.643407
2152.9	1.05889
2154.34	1.275
2155.79	0.844643
2157.23	0.811962
2158.67	0.862535
2160.12	0.947065
2161.56	1.13216
2163	0.98702
2164.45	0.759758
2165.89	1.18019
2167.33	1.05293
2168.78	0.924834
2170.22	0.978422
2171.66	1.19705
2173.1	1.06508
2174.54	0.76587
2175.98	1.01517
2177.42	1.26449
2178.86	1.29809
2180.3	1.03308
2181.74	1.03464
2183.18	1.15299
2184.62	1.15514
2186.06	0.907789
2187.5	1.09297
2188.94	0.978685
2190.38	1.04744
2191.82	0.932912
2193.25	0.917788
2194.69	1.10162
2196.13	0.934656
2197.57	0.866357
2199	0.580869
2200.44	1.10926
2201.88	0.88962
2203.31	0.720466
2204.75	0.601935
2206.18	1.04766
2207.62	0.896938
2209.05	0.895275
2210.49	1.00898
2211.92	0.741447
2213.36	0.556429
2214.79	0.751479
2216.22	0.517439
2217.66	0.564815
2219.09	0.596403
2220.52	0.92525
2221.96	0.561785
2223.39	0.774765
2224.82	0.377422
2226.25	0.571923
2227.68	0.584237
2229.11	0.562867
2230.55	0.426202
2231.98	0.863238
2233.41	0.595597
2234.84	0.656021
2236.27	0.520999
2237.7	0.321856
2239.12	0.548309
2240.55	0.66162
2241.98	0.417201
2243.41	0.532388
2244.84	0.484705
2246.27	0.289834
2247.7	0.17562
2249.12	0.663394
2250.55	0.155481
2251.98	0.103058
2253.41	0.391727
2254.83	0.631265
2256.26	0.15695
2257.68	0.495907
2259.11	0.333436
2260.54	0.318749
2261.96	0.435368
2263.39	0.406913
2264.81	0.281132
2266.24	0.317595
2267.66	0.386158
2269.08	0.112463
2270.51	0.668336
2271.93	0.361182
2273.35	0.135206
2274.78	0.137225
2276.2	0.31859
2277.62	0.288274
2279.04	0.111258
2280.47	0.292857
2281.89	0.360297
2283.31	0.395079
2284.73	0.185115
2286.15	0.301622
2287.57	0.532702
2288.99	0.192528
2290.41	0.522276
2291.83	0.378404
2293.25	0.0218744
2294.67	0.335835
2296.09	0.289907
2297.51	0.211153
2298.93	0.345323
2300.35	0.545274
2301.76	0.155274
2303.18	0.56894
2304.6	0.145991
2306.02	0.379477
2307.44	0.185784
2308.85	-0.0412827
2310.27	0.191565
2311.69	0.325629
2313.1	0.0813026
2314.52	0.0180936
2315.93	0.235174
2317.35	0.205793
2318.76	0.0118055
2320.18	0.2628
2321.59	0.0348835
2323.01	0.185345
2324.42	0.20244
2325.83	0.647142
2327.25	0.694638
2328.66	0.692122
2330.07	0.37675
2331.49	0.243326
2332.9	0.489203
2334.31	0.422847
2335.72	-0.0545835
2337.13	0.388964
2338.55	0.256229
2339.96	0.270808
2341.37	0.186256
2342.78	0.117909
2344.19	0.0988235
2345.6	0.063519
2347.01	0.192216
2348.42	0.206191
2349.83	-0.00909853
2351.24	0.0533628
2352.65	0.19682
2354.05	-0.0684805
2355.46	0.139053
2356.87	-0.028564
2358.28	0.129459
2359.69	-0.151488
2361.09	0.120053
2362.5	-0.127821
2363.91	0.175441
2365.31	0.0250053
2366.72	0.279033
2368.13	0.0969582
2369.53	0.125529
2370.94	0.0742211
2372.34	0.0720873
2373.75	0.0383401
2375.15	0.069241
2376.56	0.148177
2377.96	0.194248
2379.37	-0.0177488
2380.77	0.170977
2382.17	0.101906
2383.58	0.0484624
2384.98	-0.100985
2386.38	0.0217576
2387.79	0.144722
2389.19	-0.0029192
2390.59	0.344295
2391.99	0.245934
2393.39	0.0846605
2394.8	-0.0600553
2396.2	-0.283732
2397.6	0.271854
2399	-0.141762
2400.4	-0.0783329
2401.8	0.207626
2403.2	0.0964956
2404.6	0.143975
2406	0.317924
2407.4	0.205568
2408.79	0.0928335
2410.19	-0.00414324
2411.59	0.215958
2412.99	0.02458
2414.39	-0.276766
2415.78	-0.1656
2417.18	-0.19618
2418.58	-0.00457335
2419.98	0.0447884
2421.37	0.20499
2422.77	0.491778
2424.16	0.160533
2425.56	-0.154915
2426.96	0.0845399
2428.35	0.38802
2429.74	-0.0213933
2431.14	0.0928655
2432.53	0.318455
2433.93	0.0357394
2435.32	0.371748
2436.72	0.214448
2438.11	0.103881
2439.5	0.0243425
2440.9	0.214264
2442.29	-0.0725012
2443.68	0.00574732
2445.07	0.0996904
2446.47	0.0824795
2447.86	0.017663
2449.25	-0.15799
2450.64	0.094142
2452.03	0.0614815
2453.42	0.0292926
2454.81	0.266564
2456.2	-0.112736
2457.59	0.0776587
2458.98	-0.0167522
2460.37	0.268081
2461.76	0.457458
2463.15	0.314312
2464.54	-0.0660825
2465.93	0.106396
2467.32	0.341809
2468.7	0.214075
2470.09	0.0390291
2471.48	0.05305
2472.87	0.0666642
2474.25	-0.156322
2475.64	0.328514
2477.03	-0.0363989
2478.41	0.0703893
2479.8	0.1771
2481.18	-0.280734
2482.57	0.280519
2483.95	0.0891662
2485.34	-0.00851822
2486.72	0.143316
2488.11	-0.095964
2489.49	0.10129
2490.88	0.111155
2492.26	0.0435724
2493.65	0.038877
2495.03	0.345235
2496.41	-0.0301805
2497.79	0.0136905
2499.18	-0.0352001
2500.56	0.0240746
2501.94	0.067358
2503.32	0.140882
2504.7	0.0748997
2506.09	-0.00672007
2507.47	0.311862
2508.85	-0.0466509
2510.23	-0.0662742
2511.61	-0.0701485
2512.99	0.0184073
2514.37	-0.030529
2515.75	-0.0635819
2517.13	-0.111439
2518.51	-0.128344
2519.89	-0.114561
2521.26	-0.131474
2522.64	0.0649633
2524.02	0.291162
2525.4	0.318451
2526.78	0.101881
2528.15	0.129346
2529.53	-0.0858822
2530.91	0.0344081
2532.28	0.26196
2533.66	0.156024
2535.04	0.278442
2536.41	0.0818138
2537.79	-0.160736
2539.16	0.188578
2540.54	0.0361819
2541.91	-0.131508
2543.29	0.0196881
2544.66	-0.0562453
2546.04	-0.0859466
2547.41	0.0974236
2548.78	-0.0827632
2550.16	0.0557165
2551.53	-0.0791936
2552.9	0.164778
2554.27	-0.00160742
2555.65	0.119802
2557.02	0.134648
2558.39	0.240386
2559.76	-0.18435
2561.13	0.315953
2562.51	0.0133028
2563.88	-0.137406
2565.25	0.212229
2566.62	-0.165377
2567.99	-0.133763
2569.36	0.0797396
2570.73	-0.388783
2572.1	0.0521288
2573.47	0.220295
2574.84	0.161156
2576.2	-0.231506
2577.57	0.103524
2578.94	0.241355
2580.31	0.0908942
2581.68	0.486058
2583.05	0.0622268
2584.41	0.168935
2585.78	0.260435
2587.15	0.200427
2588.51	0.0496197
2589.88	0.0504575
2591.24	0.0360837
2592.61	0.172974
2593.98	0.0972714
2595.34	0.0210171
2596.71	0.171273
2598.07	-0.0119143
2599.44	0.0921516
2600.8	0.181044
2602.16	-0.00169754
2603.53	-0.0480037
2604.89	-0.0184841
2606.26	0.0413151
2607.62	0.100902
2608.98	-0.0811892
2610.34	0.142926
2611.71	0.0498853
2613.07	0.0014286
2614.43	0.102836
2615.79	0.218884
2617.15	0.244892
2618.52	0.0315914
2619.88	-0.00129318
2621.24	-0.0785432
2622.6	0.218194
2623.96	0.156306
2625.32	0.0497179
2626.68	0.166822
2628.04	0.298472
2629.4	-0.016952
2630.75	0.010201
2632.11	0.394043
2633.47	-0.0694461
2634.83	0.12087
2636.19	0.0587544
2637.55	-0.0625319
2638.9	0.290223
2640.26	0.0951123
2641.62	-0.0847554
2642.98	-0.131228
2644.33	-0.221813
2645.69	0.233552
2647.04	-0.0490541
2648.4	0.213398
2649.76	0.165873
2651.11	-0.146594
2652.47	0.114163
2653.82	-0.0362802
2655.18	-0.0540814
2656.53	0.265648
2657.88	-0.0291057
2659.24	-0.118169
2660.59	-0.133779
2661.95	0.0551677
2663.3	-0.165388
2664.65	0.0517802
2666	-0.0235028
2667.36	-0.011498
2668.71	0.0586843
2670.06	-0.0602345
2671.41	-0.00418711
2672.76	0.081223
2674.12	-0.268755
2675.47	0.0496507
2676.82	0.22302
2678.17	0.237122
2679.52	0.425727
2680.87	0.0060029
2682.22	0.0654726
2683.57	0.0386515
2684.92	-0.031117
2686.27	0.000929356
2687.62	-0.010602
2688.97	0.165931
2690.31	-0.268215
2691.66	0.254683
2693.01	-0.0216174
2694.36	-0.0807114
2695.71	0.0775399
2697.05	-0.0247569
2698.4	-0.0103836
2699.75	-0.0529652
2701.09	0.0792303
2702.44	-0.120785
2703.78	0.0999007
2705.13	0.132639
2706.48	0.0929317
2707.82	-0.0775456
2709.17	0.448413
2710.51	0.117751
2711.86	0.00461483
2713.2	0.22555
2714.54	-0.0330839
2715.89	0.333319
2717.23	0.030838
2718.57	0.353611
2719.92	0.0506372
2721.26	0.0383625
2722.6	0.156813
2723.95	0.027566
2725.29	0.305629
2726.63	0.0885921
2727.97	-0.259579
2729.31	0.250779
2730.65	0.13527
2732	0.22346
2733.34	0.20986
2734.68	0.196378
2736.02	0.168483
2737.36	-0.0774708
2738.7	0.243783
2740.04	-0.0313592
2741.38	0.231287
2742.72	0.15912
2744.05	0.217384
2745.39	-0.0588894
2746.73	0.202119
2748.07	-0.16136
2749.41	-0.0456929
2750.75	0.113509
2752.08	-0.0317097
2753.42	-0.0462446
2754.76	0.0262685
2756.09	0.0988231
2757.43	0.11352
2758.77	0.128366
2760.1	0.114494
2761.44	0.231156
2762.78	0.087635
2764.11	-0.0556707
2765.44	0.206163
2766.78	0.033699
2768.11	0.22238
2769.45	0.149945
2770.78	-0.053329
2772.12	0.0750322
2773.45	0.05831
2774.78	0.300803
2776.12	0.355591
2777.45	0.194634
2778.78	-0.123913
2780.12	0.276836
2781.45	0.145892
2782.78	0.0295358
2784.11	0.200149
2785.44	0.25587
2786.78	-0.11806
2788.11	-0.104753
2789.44	-0.0337887
2790.77	-0.334231
2792.1	0.195252
2793.43	0.0242939
2794.76	0.367964
2796.09	-0.117444
2797.42	0.454135
2798.75	0.325332
2800.08	0.0108461
2801.4	-0.132318
2802.73	0.209337
2804.06	0.436495
2805.39	-0.162927
2806.72	0.00666523
2808.05	0.389019
2809.37	0.0883617
2810.7	-0.112411
2812.03	0.155751
2813.35	0.168937
2814.68	0.253851
2816.01	0.0844383
2817.33	0.213377
2818.66	0.243451
2819.98	0.415283
2821.31	0.00575781
2822.63	0.134437
2823.96	-0.020649
2825.28	0.121596
2826.61	-0.189359
2827.93	0.0947499
2829.25	0.209216
2830.58	0.196536
2831.9	0.0141234
2833.23	0.228039
2834.55	-0.0677838
2835.87	-0.151525
2837.19	0.174813
2838.52	0.062243
2839.84	0.430443
2841.16	0.67126
2842.48	0.389212
2843.8	0.475094
2845.12	0.829891
2846.44	0.874139
2847.77	0.961017
2849.08	0.708708
2850.4	0.851977
2851.73	0.853621
2853.05	0.67124
2854.36	1.03978
2855.68	1.06901
2857	0.843945
2858.32	0.957964
2859.64	0.916595
2860.96	1.10107
2862.28	1.04529
2863.59	1.03166
2864.91	0.93323
2866.23	1.35677
2867.55	1.42766
2868.86	1.18857
2870.18	1.41505
2871.5	1.35964
2872.81	1.4873
2874.13	1.95265
2875.44	1.50152
2876.76	1.30353
2878.07	1.71034
2879.39	1.79306
2880.7	1.6088
2882.02	1.53758
2883.33	1.63556
2884.65	1.53748
2885.96	1.62229
2887.28	1.84746
2888.59	1.66535
2889.9	1.94579
2891.21	1.90301
2892.53	1.8739
2893.84	1.95678
2895.15	1.94176
2896.46	1.98322
2897.78	1.85736
2899.09	2.13789
2900.4	2.16702
2901.71	1.77677
2903.02	2.10006
2904.33	1.94782
2905.64	1.89366
2906.95	1.99366
2908.26	2.37391
2909.57	2.23708
2910.88	2.38042
2912.19	2.42583
2913.5	2.72281
2914.81	2.66897
2916.12	2.5161
2917.43	2.64224
2918.73	2.83766
2920.04	2.86497
2921.35	2.47319
2922.66	3.03288
2923.96	3.14596
2925.27	3.24575
2926.58	2.88463
2927.88	3.46013
2929.19	3.33643
2930.5	3.63176
2931.8	3.45146
2933.11	3.45271
2934.41	3.23029
2935.72	3.41326
2937.02	3.40064
2938.33	3.31825
2939.63	3.24999
2940.94	3.05626
2942.24	2.98879
2943.54	3.00585
2944.85	2.92586
2946.15	2.98637
2947.45	2.66952
2948.76	2.6882
2950.06	2.4822
2951.36	2.4151
2952.66	2.57092
2953.97	2.41783
2955.27	2.60048
2956.57	2.5596
2957.87	2.49191
2959.17	2.60779
2960.47	2.44526
2961.77	2.45197
2963.07	2.2347
2964.37	1.86235
2965.67	2.07871
2966.97	1.88675
2968.27	2.15778
2969.57	2.07692
2970.87	1.96778
2972.17	2.05569
2973.47	1.97495
2974.77	2.35867
2976.07	1.7566
2977.36	1.75906
2978.66	1.74641
2979.96	1.16965
2981.26	1.50711
2982.55	1.88612
2983.85	1.84318
2985.15	1.3933
2986.44	1.23958
2987.74	1.43799
2989.03	1.25755
2990.33	1.38641
2991.63	1.00901
2992.92	1.19315
2994.21	1.23595
2995.51	1.10945
2996.8	1.12296
2998.1	0.925778
2999.39	0.742893
3000.69	0.896932
3001.98	0.812872
3003.27	0.953273
3004.57	0.98155
3005.86	0.547481
3007.15	0.351322
3008.44	0.658528
3009.74	0.629244
3011.03	0.823074
3012.32	0.569522
3013.61	0.483712
3014.9	0.565499
3016.19	0.480351
3017.48	0.507077
3018.78	0.297476
3020.07	0.463603
3021.36	0.295672
3022.65	0.613552
3023.94	0.472346
3025.23	0.386336
3026.51	0.397249
3027.8	0.546714
3029.09	0.447646
3030.38	0.47389
3031.67	0.252344
3032.96	0.445693
3034.24	0.156034
3035.53	0.238721
3036.82	0.27919
3038.11	0.35986
3039.39	0.108946
3040.68	0.338728
3041.97	0.581023
3043.25	0.548392
3044.54	0.29726
3045.83	0.18434
3047.11	0.209406
3048.4	0.372228
3049.68	0.358661
3050.97	0.318681
3052.25	0.292783
3053.54	0.471518
3054.82	0.308717
3056.11	0.568109
3057.39	0.75841
3058.67	0.239468
3059.96	0.605933
3061.24	0.618289
3062.52	0.508726
3063.81	0.236839
3065.09	0.468898
3066.37	0.266657
3067.65	0.160077
3068.94	0.216826
3070.22	0.613397
3071.5	0.206981
3072.78	0.262218
3074.06	0.0311542
3075.34	0.220891
3076.62	-0.0651541
3077.9	0.260026
3079.18	0.0155883
3080.46	0.151866
3081.74	0.234663
3083.02	0.196031
3084.3	0.13058
3085.58	0.173646
3086.86	0.0399446
3088.14	0.177217
3089.42	0.015408
3090.69	0.206105
3091.97	0.084517
3093.25	0.152868
3094.53	0.194151
3095.8	0.303287
3097.08	0.154779
3098.36	-0.129327
3099.63	-0.115366
3100.91	0.0745497
3102.19	0.183041
3103.46	-0.0604711
3104.74	0.129461
3106.01	0.0354447
3107.29	0.117795
3108.56	0.0653129
3109.84	0.0133338
3111.11	0.124276
3112.39	0.222106
3113.66	0.022058
3114.94	0.160661
3116.21	0.0549097
3117.48	0.124841
3118.76	0.00417328
3120.03	0.0590849
3121.3	0.248901
3122.57	0.0586519
3123.85	0.0986123
3125.12	0.0708222
3126.39	-0.0921464
3127.66	-0.200669
3128.93	-0.133115
3130.21	0.0696969
3131.48	0.0966244
3132.75	-0.0252986
3134.02	0.109173
3135.29	0.135098
3136.56	0.13355
3137.83	-0.165029
3139.1	-0.113247
3140.37	0.153579
3141.64	-0.0508361
3142.91	-0.0936356
3144.17	-0.015398
3145.44	-0.17854
3146.71	0.114592
3147.98	0.112849
3149.25	0.0577631
