200.533	-0.0424519
202.348	-0.0182409
204.162	0.0067482
205.976	0.00799179
207.792	0.00929832
209.605	0.131466
211.418	0.106705
213.23	0.105003
215.044	0.00525379
216.856	0.729032
218.667	-0.0983152
220.478	-0.125481
222.289	0.622004
224.102	0.0154667
225.912	-0.614409
227.721	-0.277625
229.531	0.0825605
231.34	0.417688
233.148	0.124914
234.956	-0.432661
236.766	0.192201
238.574	0.119411
240.381	-0.192516
242.188	0.0516462
243.994	0.0797968
245.801	0.445634
247.606	0.1584
249.412	0.0135555
251.217	0.44549
253.024	0.174895
254.828	0.144206
256.632	-0.176191
258.436	-0.182446
260.239	-0.187499
262.042	0.0738306
263.845	0.264101
265.647	-0.0508385
267.449	0.309056
269.25	0.35534
271.052	0.666045
272.852	0.0594893
274.653	-0.0902433
276.453	0.144328
278.253	-0.22526
280.052	0.19857
281.852	-0.198193
283.65	0.245751
285.449	0.327262
287.247	0.0958929
289.044	0.320454
290.842	0.257689
292.639	-0.0433102
294.436	0.255262
296.232	0.00475216
298.028	-0.101384
299.821	0.175102
301.617	0.451185
303.412	0.248765
305.206	0.379509
307	-0.230085
308.794	-0.24332
310.588	0.315628
312.381	0.0176334
314.172	0.864013
315.964	-0.0502558
317.756	0.513255
319.548	0.196797
321.34	0.691349
323.131	0.59081
324.921	0.705221
326.71	1.10632
328.5	0.456385
330.29	0.115821
332.079	0.323984
333.868	0.506902
335.654	0.64017
337.443	0.747522
339.231	-0.15178
341.018	0.359122
342.804	0.486432
344.591	-0.103233
346.377	0.717094
348.163	0.462956
349.947	0.639012
351.733	0.337619
353.518	0.990302
355.303	0.639765
357.085	-0.260063
358.869	0.36502
360.653	0.0119848
362.435	0.729459
364.218	0.0661001
366.001	0.115897
367.781	-0.214822
369.563	-0.261104
371.345	0.142002
373.124	-0.284422
374.905	0.471338
376.686	-0.143632
378.464	0.422071
380.244	0.516243
382.022	-0.189034
383.801	0.236708
385.58	0.0752678
387.357	0.2204
389.135	-0.00953102
390.911	0.325064
392.689	0.331442
394.466	0.126945
396.241	-0.00683975
398.018	-0.0701222
399.792	0.218718
401.568	0.507203
403.341	0.536757
405.117	0.354289
406.889	0.194703
408.664	0.410305
410.436	0.249966
412.21	0.0193105
413.981	-0.281343
415.755	0.638697
417.525	0.409644
419.298	0.016809
421.068	0.0934548
422.84	0.0525303
424.609	0.151863
426.38	-0.242557
428.149	0.23095
429.919	0.0232801
431.688	0.00338411
433.455	0.030674
435.225	0.691906
436.992	0.296972
438.76	-0.239357
440.527	0.0445361
442.293	0.209357
444.06	0.184693
445.826	-0.192817
447.593	0.131458
449.357	0.244347
451.122	0.123494
452.888	-0.557127
454.651	0.559481
456.415	-0.190176
458.18	0.062582
459.942	-0.266727
461.705	0.0328226
463.469	0.751623
465.23	-0.317152
466.991	0.452167
468.752	-0.124132
470.515	0.0214758
472.275	-0.251169
474.035	0.24361
475.797	0.0153508
477.556	0.460795
479.315	0.858169
481.073	0.346269
482.834	-0.491446
484.592	-0.0938168
486.349	-0.230376
488.106	-0.132311
489.863	0.294023
491.622	-0.0718236
493.378	0.0528831
495.134	0.0610442
496.889	0.396884
498.645	0.264489
500.401	-0.29065
502.156	0.255908
503.91	0.802602
505.664	0.667433
507.417	0.577957
509.171	0.557671
510.923	0.159536
512.678	0.513011
514.43	-0.00536585
516.182	-0.148284
517.933	-0.03338
519.684	0.245198
521.435	-0.158451
523.186	-0.139365
524.936	-0.190871
526.686	0.132996
528.435	0.0345201
530.184	0.709375
531.933	0.258953
533.682	0.533988
535.43	-0.338404
537.18	0.542165
538.927	0.0658927
540.674	0.265939
542.421	0.441585
544.167	0.523452
545.913	0.00100708
547.659	-0.102308
549.403	0.0498152
551.148	0.502777
552.893	-0.0396643
554.637	0.066165
556.381	-0.174221
558.125	0.139604
559.868	-0.16877
561.611	0.168369
563.354	0.344442
565.097	-0.329663
566.839	-0.40514
568.581	0.185861
570.322	0.318232
572.063	-0.213612
573.802	-0.0098958
575.542	-0.0112157
577.283	-0.355389
579.022	-0.0559883
580.762	0.267265
582.501	0.338154
584.24	-0.235071
585.976	-0.0965991
587.714	0.109978
589.452	-0.167489
591.19	-0.00856733
592.927	0.0349178
594.663	0.308365
596.398	0.121722
598.134	0.00408077
599.87	0.369283
601.605	0.181654
603.338	-0.328906
605.073	0.148242
606.808	-0.019444
608.542	0.547252
610.274	-0.240835
612.007	0.07335
613.74	0.273251
615.473	-0.0764828
617.204	0.398953
618.936	-0.454675
620.668	0.293913
622.397	0.285758
624.128	-0.111691
625.859	0.450851
627.588	0.602691
629.318	0.139951
631.048	0.409568
632.775	-0.231876
634.505	-0.165135
636.233	0.19811
637.96	0.423013
639.688	0.21197
641.416	0.0442867
643.142	0.125577
644.869	0.547237
646.594	0.240564
648.32	-0.427716
650.045	0.156857
651.771	-0.0281835
653.496	0.403583
655.219	-0.071301
656.944	-0.13532
658.667	-0.0163803
660.391	0.399106
662.113	-0.39641
663.837	-0.00650167
665.558	0.176127
667.281	-0.0771527
669.002	0.332184
670.724	0.078927
672.444	0.605213
674.166	0.0348835
675.885	0.153023
677.606	-0.209456
679.325	-0.0213289
681.045	-0.0175381
682.763	-0.107188
684.483	0.215748
686.2	0.261025
687.917	0.581447
689.636	0.163951
691.352	-0.32328
693.07	0.225562
694.786	0.888879
696.501	0.630043
698.219	-0.136109
699.933	0.316874
701.65	0.216532
703.364	0.598192
705.078	0.611292
706.793	0.30264
708.506	0.56741
710.219	0.854351
711.934	0.0645504
713.646	0.533854
715.358	0.293774
717.071	0.0540819
718.782	0.293929
720.493	0.305595
722.204	0.522313
723.916	0.397419
725.626	0.363587
727.336	0.443137
729.045	0.930644
730.756	0.555406
732.464	0.248549
734.173	0.507753
735.881	0.472681
737.59	0.889559
739.297	0.78741
741.004	0.731352
742.711	1.03681
744.417	1.0504
746.125	0.480111
747.831	0.833743
749.537	1.09837
751.242	1.07168
752.946	0.95615
754.651	0.706779
756.357	0.413497
758.061	0.639094
759.764	0.595763
761.467	1.16204
763.17	0.827049
764.872	0.784863
766.575	0.990222
768.276	0.809965
769.978	1.08002
771.679	0.783129
773.382	1.07301
775.083	0.706784
776.783	1.20024
778.483	1.78529
780.182	1.64815
781.882	2.14539
783.581	1.39833
785.279	1.10258
786.978	0.940605
788.676	0.753448
790.373	0.744756
792.071	1.09551
793.768	1.46693
795.464	1.2735
797.161	1.14884
798.857	1.63383
800.552	1.71465
802.248	1.54917
803.941	1.29445
805.636	1.26457
807.33	1.16661
809.024	1.78635
810.718	1.57396
812.412	1.45077
814.105	1.50653
815.798	1.85299
817.49	0.655535
819.183	0.845721
820.873	1.79495
822.564	1.56045
824.256	1.26013
825.947	1.67447
827.637	1.28844
829.328	1.39491
831.016	1.52624
832.705	1.28132
834.395	1.17171
836.084	1.19662
837.772	1.91324
839.459	1.24514
841.147	0.93255
842.835	0.752755
844.522	1.13118
846.209	1.28684
847.894	1.10871
849.581	1.06669
851.267	0.690784
852.953	1.05542
854.637	1.19716
856.322	0.912233
858.007	0.76071
859.689	0.967605
861.374	1.53358
863.058	1.8059
864.739	1.0406
866.423	0.792514
868.106	1.03986
869.787	1.17416
871.469	0.473613
873.151	1.23914
874.831	1.05714
876.512	1.46183
878.193	0.896127
879.872	0.75907
881.553	1.29892
883.231	0.348222
884.911	0.435097
886.591	1.31074
888.268	0.334536
889.947	1.11679
891.623	0.747587
893.302	0.490379
894.978	1.02015
896.656	1.00856
898.331	1.33298
900.008	0.758657
901.683	0.70029
903.359	0.462593
905.033	0.918115
906.709	1.39501
908.383	1.24712
910.058	1.10032
911.731	0.910114
913.405	0.320826
915.078	0.865284
916.752	0.898553
918.423	1.04252
920.096	1.29701
921.768	0.135812
923.438	0.856236
925.111	0.803862
926.781	0.576455
928.452	0.990664
930.122	1.00848
931.791	0.342905
933.462	1.04545
935.13	0.755384
936.799	0.267253
938.468	0.750261
940.136	0.219719
941.803	0.32973
943.472	0.749284
945.139	0.572958
946.805	0.439764
948.473	0.812759
950.139	0.919245
951.804	0.539301
953.471	0.975696
955.136	0.972229
956.801	0.574193
958.465	0.752192
960.131	0.71194
961.794	0.385709
963.458	0.368335
965.12	0.216844
966.785	0.195845
968.447	0.681527
970.109	0.678743
971.771	0.498319
973.432	1.00392
975.095	0.294413
976.756	0.603661
978.417	0.250581
980.077	0.506354
981.737	0.761918
983.396	0.540462
985.057	1.02575
986.716	0.0484066
988.375	0.928625
990.033	0.148588
991.691	-0.012331
993.349	0.246455
995.006	0.769897
996.663	0.741303
998.32	0.690666
999.976	0.838198
1001.63	0.478711
1003.29	0.493452
1004.95	1.10164
1006.6	0.763948
1008.26	0.273141
1009.91	0.309924
1011.56	0.851376
1013.22	0.537823
1014.87	0.33448
1016.53	-0.328013
1018.18	0.235847
1019.83	0.209331
1021.48	-0.188004
1023.14	0.443048
1024.79	0.375293
1026.44	0.176904
1028.09	-0.196239
1029.74	0.91573
1031.39	1.32725
1033.04	0.645533
1034.69	0.661263
1036.34	-0.0436201
1037.99	0.341128
1039.64	0.115751
1041.29	0.326266
1042.94	0.320196
1044.58	0.402464
1046.23	0.225621
1047.88	0.441276
1049.52	-0.253896
1051.17	0.420175
1052.82	-0.0780277
1054.46	0.532063
1056.11	0.18608
1057.75	-0.29072
1059.4	0.0798922
1061.04	0.428334
1062.69	0.189054
1064.33	0.166474
1065.98	0.46914
1067.62	0.0101061
1069.26	0.224075
1070.9	0.480793
1072.55	0.107708
1074.19	-0.264666
1075.83	0.0364323
1077.47	0.685419
1079.11	0.229346
1080.76	0.576241
1082.4	-0.421321
1084.04	-0.140215
1085.68	0.269575
1087.32	0.374087
1088.95	0.649993
1090.59	0.491321
1092.23	0.721023
1093.87	0.172462
1095.51	0.0565901
1097.15	-0.0583973
1098.78	-0.215207
1100.42	-0.112131
1102.06	-0.373465
1103.69	0.657456
1105.33	0.742658
1106.97	0.0970469
1108.6	0.33301
1110.24	0.395973
1111.87	0.156697
1113.51	-0.384392
1115.14	0.512481
1116.77	-0.0295944
1118.41	0.350964
1120.04	-0.189609
1121.67	-0.129246
1123.31	-0.410545
1124.94	0.443037
1126.57	0.270145
1128.2	0.418737
1129.83	-0.0308065
1131.47	0.182957
1133.1	0.0762539
1134.72	-0.180183
1136.36	0.823896
1137.98	0.330966
1139.62	-0.0772209
1141.24	0.154613
1142.87	-0.126298
1144.5	0.275675
1146.13	0.123578
1147.76	0.0576181
1149.38	-0.60414
1151.01	-0.66882
1152.64	0.288669
1154.27	0.266086
1155.89	0.711392
1157.52	0.241474
1159.14	0.155001
1160.77	-0.143372
1162.39	0.664863
1164.02	0.176885
1165.64	0.178329
1167.27	0.328375
1168.89	-0.0114737
1170.51	-0.0762548
1172.14	0.133634
1173.76	-0.443667
1175.38	0.442707
1177	0.013031
1178.63	0.0290155
1180.25	-0.0391302
1181.87	0.0204563
1183.49	0.313046
1185.11	0.7532
1186.73	-0.0115881
1188.35	-0.0170441
1189.97	0.0391598
1191.59	-0.264161
1193.21	-0.0423002
1194.83	0.0523539
1196.45	0.335453
1198.07	-0.260747
1199.68	0.379733
1201.3	0.414959
1202.92	-0.0278492
1204.53	0.429296
1206.15	-0.0510015
1207.77	0.554718
1209.38	0.0757999
1211	0.0760307
1212.62	0.220813
1214.23	-0.511492
1215.84	0.525254
1217.46	0.0818539
1219.07	0.594384
1220.69	0.586826
1222.3	0.455459
1223.91	0.428983
1225.53	0.238173
1227.14	0.00746346
1228.75	0.915648
1230.36	0.893802
1231.97	0.83167
1233.59	0.708601
1235.2	0.421266
1236.81	0.73432
1238.42	1.11034
1240.03	0.329099
1241.64	1.26438
1243.25	0.979169
1244.85	0.879396
1246.46	0.882194
1248.07	0.884121
1249.68	0.740581
1251.29	0.576139
1252.9	0.701522
1254.5	0.103575
1256.11	0.66482
1257.72	0.730709
1259.32	0.880371
1260.93	0.347765
1262.54	0.829845
1264.14	0.607956
1265.75	0.654957
1267.35	1.28178
1268.96	0.373847
1270.56	0.54301
1272.16	0.483245
1273.77	0.837284
1275.37	1.39765
1276.97	1.39742
1278.57	0.837174
1280.18	1.18789
1281.78	1.08273
1283.38	1.45357
1284.98	1.30764
1286.58	0.893859
1288.18	1.05989
1289.78	0.91667
1291.38	0.794565
1292.99	0.879004
1294.58	1.41725
1296.18	0.735629
1297.78	0.940801
1299.38	0.979307
1300.98	1.09894
1302.58	1.21731
1304.17	0.923076
1305.77	0.793262
1307.37	0.232037
1308.97	1.55907
1310.56	0.854548
1312.16	0.336094
1313.76	1.16904
1315.35	0.897941
1316.95	0.689342
1318.54	1.07316
1320.14	0.926237
1321.73	1.5324
1323.32	1.42386
1324.92	1.04979
1326.51	1.2641
1328.1	1.37604
1329.7	0.860577
1331.29	0.711738
1332.88	0.948932
1334.47	0.743463
1336.07	0.781727
1337.66	1.38508
1339.25	1.10027
1340.84	0.854685
1342.43	0.909545
1344.02	0.982728
1345.61	0.673424
1347.2	1.52795
1348.79	1.44074
1350.37	0.795532
1351.96	0.9334
1353.55	0.852945
1355.14	0.593743
1356.73	0.754585
1358.31	0.575378
1359.9	0.695043
1361.49	0.474429
1363.07	0.752057
1364.66	1.1487
1366.25	0.728235
1367.83	0.647443
1369.42	0.926039
1371	0.648446
1372.59	0.988947
1374.17	0.55434
1375.75	0.975897
1377.34	0.283211
1378.92	1.1223
1380.5	0.726807
1382.09	0.608849
1383.67	0.350697
1385.25	1.10565
1386.83	1.26353
1388.42	0.527839
1390	0.627008
1391.58	0.548267
1393.16	0.331354
1394.74	0.372668
1396.32	0.592261
1397.9	0.652565
1399.48	0.850697
1401.06	1.04785
1402.64	0.888021
1404.21	0.847058
1405.79	0.628632
1407.37	-0.0434647
1408.95	0.0364027
1410.53	0.393136
1412.1	0.868087
1413.68	0.375001
1415.26	-0.0394945
1416.83	0.571214
1418.41	0.707951
1419.98	-0.0809908
1421.56	0.923446
1423.13	0.570286
1424.71	0.257976
1426.28	0.320646
1427.86	0.875798
1429.43	0.623731
1431	0.252849
1432.58	0.432145
1434.15	1.37784
1435.72	1.10329
1437.29	0.907736
1438.87	1.38123
1440.44	0.990674
1442.01	0.718917
1443.58	1.23386
1445.15	1.21852
1446.72	1.02642
1448.29	1.4045
1449.86	1.33074
1451.43	1.25738
1453	1.73511
1454.57	1.09212
1456.14	1.23582
1457.71	1.67421
1459.27	1.06847
1460.84	0.972947
1462.41	1.6825
1463.98	1.58383
1465.54	1.60223
1467.11	1.54174
1468.67	0.519655
1470.24	0.61785
1471.81	0.383397
1473.37	0.816746
1474.94	0.191661
1476.5	0.763098
1478.07	0.589514
1479.63	0.494328
1481.19	0.947875
1482.76	0.519381
1484.32	0.482769
1485.88	0.50465
1487.45	0.251696
1489.01	0.350234
1490.57	0.368928
1492.13	0.229437
1493.69	0.34238
1495.26	-0.0340452
1496.82	0.174124
1498.38	0.26486
1499.94	0.278088
1501.5	0.33098
1503.06	-0.0807023
1504.62	0.55529
1506.17	0.0289273
1507.73	0.392597
1509.29	0.909222
1510.85	0.323896
1512.41	0.375228
1513.97	0.34915
1515.52	0.400187
1517.08	0.605171
1518.64	0.484356
1520.19	0.862316
1521.75	0.531689
1523.31	0.35439
1524.86	0.425024
1526.42	0.170535
1527.97	0.144476
1529.52	0.270168
1531.08	0.528395
1532.63	0.596756
1534.19	0.211231
1535.74	0.81099
1537.29	0.730063
1538.85	0.53664
1540.4	0.645607
1541.95	0.584899
1543.5	0.072577
1545.06	0.313122
1546.61	0.628134
1548.16	1.13
1549.71	0.918586
1551.26	0.726498
1552.81	0.759706
1554.36	0.86842
1555.91	1.63181
1557.46	0.97729
1559.01	0.58628
1560.56	0.439559
1562.11	1.18959
1563.65	0.504076
1565.2	0.751818
1566.75	1.61554
1568.29	0.575545
1569.84	0.860291
1571.39	1.05142
1572.94	1.07432
1574.48	1.20912
1576.03	1.54928
1577.57	1.77766
1579.12	1.14764
1580.66	1.545
1582.21	1.98057
1583.75	0.885223
1585.3	0.98585
1586.84	1.27393
1588.38	1.78683
1589.93	1.34563
1591.47	1.40911
1593.01	1.39732
1594.55	1.44148
1596.1	0.848682
1597.64	0.930586
1599.18	1.10686
1600.72	1.43396
1602.26	1.33009
1603.8	1.01951
1605.34	1.34682
1606.88	0.883862
1608.42	1.20851
1609.96	1.11774
1611.5	1.28809
1613.04	1.13739
1614.58	0.835642
1616.12	1.09661
1617.65	1.33891
1619.19	1.43211
1620.73	1.15199
1622.27	1.22893
1623.8	1.38142
1625.34	1.45899
1626.87	1.14285
1628.41	1.08769
1629.95	1.27451
1631.48	1.36681
1633.02	1.25322
1634.55	1.21471
1636.09	1.3262
1637.62	1.00945
1639.15	1.0663
1640.69	0.601307
1642.22	1.03035
1643.76	0.880887
1645.29	0.991121
1646.82	1.34219
1648.35	1.33948
1649.88	1.65277
1651.42	2.04076
1652.95	1.24245
1654.48	0.798041
1656.01	1.78158
1657.54	0.930108
1659.07	1.59732
1660.6	1.26316
1662.13	0.965177
1663.66	1.18427
1665.19	1.03316
1666.72	1.80535
1668.24	1.0836
1669.77	0.916933
1671.3	1.26753
1672.83	1.56356
1674.35	1.10481
1675.88	1.14314
1677.41	1.47524
1678.93	1.10709
1680.46	0.903894
1681.99	1.10455
1683.51	1.12106
1685.04	0.495382
1686.56	0.806035
1688.09	1.00673
1689.61	1.04266
1691.13	0.895674
1692.66	0.767196
1694.18	0.218104
1695.71	0.784594
1697.23	0.162635
1698.75	0.125454
1700.27	0.927454
1701.8	0.524323
1703.32	-0.00626612
1704.84	0.100855
1706.36	0.753279
1707.88	0.095521
1709.4	0.147178
1710.92	0.271407
1712.44	0.069191
1713.96	-0.0238614
1715.48	-0.171021
1717	0.188446
1718.52	-0.0491648
1720.04	0.327499
1721.56	0.559347
1723.07	0.232426
1724.59	0.321137
1726.11	0.0326519
1727.63	-0.164554
1729.14	-0.108976
1730.66	0.0168648
1732.18	0.156159
1733.69	0.0492535
1735.21	-0.0744119
1736.72	0.102457
1738.24	0.520584
1739.75	0.140203
1741.27	0.16037
1742.78	0.0258737
1744.3	0.371754
1745.81	0.527644
1747.32	0.607789
1748.84	0.0493007
1750.35	0.499112
1751.86	-0.0105367
1753.37	0.253953
1754.89	0.0607052
1756.4	-0.0866761
1757.91	0.281015
1759.42	0.207244
1760.93	0.338007
1762.44	0.216742
1763.95	0.0742555
1765.46	-0.102255
1766.97	0.0905862
1768.48	-0.0599384
1769.99	0.241542
1771.5	0.012486
1773.01	-0.120854
1774.52	0.0622754
1776.03	0.185098
1777.53	-0.050375
1779.04	-0.158329
1780.55	-0.196055
1782.06	0.0566053
1783.56	0.152674
1785.07	0.111622
1786.57	0.370514
1788.08	-0.04564
1789.59	0.221926
1791.09	-0.183955
1792.6	0.127247
1794.1	0.212105
1795.6	-0.155416
1797.11	-0.201467
1798.61	0.0323219
1800.12	0.365621
1801.62	0.326752
1803.12	0.272774
1804.63	0.325452
1806.13	0.277743
1807.63	0.345784
1809.13	0.188162
1810.63	0.00889874
1812.14	-0.0915766
1813.64	-0.0690227
1815.14	0.481557
1816.64	0.00172806
1818.14	0.14547
1819.64	0.0652356
1821.14	0.317352
1822.64	0.308051
1824.14	0.238328
1825.63	0.194214
1827.13	0.125721
1828.63	0.247761
1830.13	-0.0881844
1831.63	0.121768
1833.12	0.033226
1834.62	0.306023
1836.12	0.0115819
1837.62	0.284003
1839.11	0.0621018
1840.61	0.0063014
1842.1	0.286172
1843.6	0.0672369
1845.09	0.143044
1846.59	-0.00144815
1848.08	-0.0424256
1849.58	0.284492
1851.07	0.0662136
1852.57	0.133844
1854.06	0.0183296
1855.55	0.103988
1857.04	-0.294153
1858.54	-0.15937
1860.03	0.111609
1861.52	-0.202134
1863.01	0.0610175
1864.5	-0.415805
1866	-0.126896
1867.49	0.0555286
1868.98	0.251606
1870.47	0.0813575
1871.96	-0.247217
1873.45	0.273411
1874.94	0.0594969
1876.43	0.178851
1877.92	0.0777359
1879.41	0.00185966
1880.89	-0.277633
1882.38	-0.0864177
1882.48	-0.0731497
1883.97	-0.211999
1885.47	0.223723
1886.96	0.292592
1888.46	0.0476251
1889.95	-0.109962
1891.44	0.272451
1892.94	0.2212
1894.43	0.380035
1895.92	0.0532813
1897.41	0.353179
1898.9	-0.0948591
1900.4	0.0303159
1901.89	0.223828
1903.38	-0.0536857
1904.87	0.0155468
1906.36	0.153583
1907.85	-0.229533
1909.34	0.308108
1910.83	0.0999436
1912.32	0.118119
1913.81	0.448918
1915.29	0.346164
1916.78	0.191175
1918.27	0.105166
1919.76	-0.0158062
1921.25	0.0537438
1922.74	0.0196509
1924.22	-0.360019
1925.71	0.0402374
1927.2	0.527868
1928.68	0.323546
1930.17	0.309643
1931.65	-0.241722
1933.14	0.0716591
1934.63	0.348922
1936.11	0.157479
1937.59	0.103623
1939.08	0.256801
1940.56	0.358181
1942.05	0.684456
1943.53	0.545527
1945.01	0.183245
1946.5	0.149041
1947.98	-0.00594521
1949.46	0.0108867
1950.94	0.216339
1952.43	-0.267468
1953.91	0.315045
1955.39	0.0546689
1956.87	0.104033
1958.35	0.342646
1959.83	0.152725
1961.31	0.117728
1962.79	0.254321
1964.27	0.167929
1965.75	0.166849
1967.23	0.0283103
1968.71	-0.144787
1970.19	0.382704
1971.67	-0.354735
1973.14	0.13775
1974.62	0.0326295
1976.1	0.405022
1977.58	0.0957317
1979.05	0.127353
1980.53	-0.147276
1982.01	0.275272
1983.48	0.221376
1984.96	0.0654464
1986.43	-0.00564194
1987.91	0.245352
1989.38	-0.282796
1990.86	0.205663
1992.33	0.33905
1993.81	0.0673542
1995.28	0.523178
1996.76	0.252607
1998.23	0.117294
1999.7	0.38692
2001.18	0.065218
2002.65	0.131361
2004.12	0.315319
2005.59	0.14549
2007.06	0.111108
2008.54	0.34688
2010.01	0.313852
2011.48	0.0960827
2012.95	0.299194
2014.42	0.468261
2015.89	0.19921
2017.36	0.198706
2018.83	-0.0714192
2020.3	-0.0224671
2021.77	-0.158421
2023.24	0.0920486
2024.71	0.0911956
2026.17	0.493802
2027.64	0.32714
2029.11	0.262288
2030.58	0.299112
2032.04	0.252803
2033.51	0.458656
2034.98	0.0936704
2036.45	-0.0534663
2037.91	0.0341492
2039.38	0.205533
2040.84	0.427353
2042.31	0.330087
2043.77	-0.187169
2045.24	0.456892
2046.7	0.496076
2048.17	0.350252
2049.63	0.524246
2051.1	0.444687
2052.56	0.0771575
2054.02	0.450225
2055.48	0.804987
2056.95	0.332408
2058.41	0.196527
2059.87	0.549077
2061.33	0.649091
2062.8	0.143704
2064.26	0.228345
2065.72	0.347386
2067.18	0.43342
2068.64	0.317958
2070.1	0.505709
2071.56	0.272668
2073.02	0.578251
2074.48	0.49638
2075.94	0.161624
2077.4	0.0454798
2078.86	0.568947
2080.31	0.485797
2081.77	0.368546
2083.23	0.132979
2084.69	0.334487
2086.14	0.249313
2087.6	0.701773
2089.06	0.380385
2090.52	0.51267
2091.97	0.594386
2093.43	0.776614
2094.88	0.388234
2096.34	0.418924
2097.79	0.616534
2099.25	0.528827
2100.7	0.875776
2102.16	0.0860524
2103.61	0.416881
2105.07	0.214214
2106.52	0.746846
2107.97	0.579481
2109.43	1.0628
2110.88	0.945309
2112.33	0.276931
2113.78	0.507196
2115.24	0.636024
2116.69	0.763885
2118.14	0.775471
2119.59	0.920866
2121.04	0.802205
2122.49	0.8013
2123.94	0.834741
2125.39	0.802392
2126.84	0.686956
2128.29	1.11778
2129.74	0.967246
2131.19	0.517631
2132.64	0.961704
2134.09	0.958535
2135.54	1.00559
2136.98	1.40088
2138.43	0.987754
2139.88	1.13813
2141.33	0.975821
2142.77	0.665559
2144.22	1.10001
2145.67	1.18739
2147.11	1.48984
2148.56	1.60977
2150.01	0.850989
2151.45	1.33378
2152.9	1.08675
2154.34	0.971592
2155.79	1.65126
2157.23	1.50258
2158.67	1.38762
2160.12	1.5388
2161.56	1.80752
2163	1.2491
2164.45	1.76966
2165.89	1.27896
2167.33	1.40221
2168.78	1.34189
2170.22	1.18025
2171.66	1.28294
2173.1	1.43394
2174.54	1.33423
2175.98	1.50012
2177.42	1.44993
2178.86	1.41699
2180.3	1.41812
2181.74	1.40334
2183.18	1.28928
2184.62	1.77419
2186.06	1.4109
2187.5	1.41355
2188.94	1.54936
2190.38	1.18583
2191.82	1.63771
2193.25	0.956892
2194.69	1.62357
2196.13	1.18991
2197.57	1.30395
2199	1.33327
2200.44	1.34504
2201.88	1.12418
2203.31	1.03688
2204.75	1.00029
2206.18	1.2629
2207.62	1.06185
2209.05	0.728358
2210.49	1.00697
2211.92	1.2679
2213.36	0.701372
2214.79	0.779697
2216.22	1.10596
2217.66	0.855314
2219.09	0.869747
2220.52	0.621086
2221.96	0.867121
2223.39	0.552285
2224.82	0.961195
2226.25	0.907467
2227.68	0.605854
2229.11	0.599414
2230.55	0.88765
2231.98	1.01117
2233.41	0.578074
2234.84	0.47351
2236.27	0.843803
2237.7	0.773971
2239.12	0.575191
2240.55	0.590179
2241.98	0.688121
2243.41	0.966458
2244.84	0.511124
2246.27	0.43043
2247.7	0.479024
2249.12	0.42812
2250.55	0.619921
2251.98	0.92396
2253.41	0.559985
2254.83	0.48932
2256.26	0.468561
2257.68	0.336031
2259.11	0.822227
2260.54	0.759089
2261.96	0.0648513
2263.39	0.410547
2264.81	0.480653
2266.24	0.225364
2267.66	0.408446
2269.08	0.542149
2270.51	0.545068
2271.93	0.840662
2273.35	0.256776
2274.78	0.715229
2276.2	0.685241
2277.62	0.345709
2279.04	0.25058
2280.47	0.39995
2281.89	0.19046
2283.31	0.535487
2284.73	0.391143
2286.15	0.491725
2287.57	0.52733
2288.99	1.0043
2290.41	0.419864
2291.83	0.227485
2293.25	0.574717
2294.67	0.202334
2296.09	0.0914536
2297.51	0.357062
2298.93	0.229749
2300.35	0.3483
2301.76	0.614748
2303.18	0.27467
2304.6	0.164155
2306.02	0.11916
2307.44	0.0902963
2308.85	0.537696
2310.27	0.0805702
2311.69	0.560413
2313.1	0.41526
2314.52	0.56658
2315.93	0.142254
2317.35	0.558336
2318.76	0.167493
2320.18	0.320335
2321.59	0.257991
2323.01	0.194188
2324.42	0.524695
2325.83	0.440841
2327.25	0.949359
2328.66	0.715032
2330.07	0.728164
2331.49	0.198677
2332.9	0.394607
2334.31	0.591092
2335.72	0.359981
2337.13	0.227321
2338.55	0.20909
2339.96	0.239295
2341.37	0.268726
2342.78	-0.0633316
2344.19	0.982615
2345.6	0.568737
2347.01	0.434055
2348.42	0.381409
2349.83	0.688426
2351.24	0.553026
2352.65	-0.0075984
2354.05	0.166347
2355.46	0.192707
2356.87	0.186171
2358.28	0.293474
2359.69	-0.233043
2361.09	0.329075
2362.5	0.225237
2363.91	0.396874
2365.31	0.293045
2366.72	0.173409
2368.13	0.215913
2369.53	0.339776
2370.94	0.496695
2372.34	-0.0705051
2373.75	0.233198
2375.15	0.037951
2376.56	0.0839477
2377.96	0.515022
2379.37	0.397983
2380.77	0.360086
2382.17	0.160794
2383.58	0.201488
2384.98	-0.0620527
2386.38	-0.116971
2387.79	-0.171129
2389.19	0.0467358
2390.59	0.185492
2391.99	0.133892
2393.39	-0.0123444
2394.8	0.335222
2396.2	0.0312233
2397.6	0.28417
2399	0.553312
2400.4	0.107862
2401.8	0.139318
2403.2	0.0913949
2404.6	0.202
2406	0.296034
2407.4	0.0719271
2408.79	0.148749
2410.19	0.0508609
2411.59	0.380988
2412.99	-0.0487256
2414.39	0.124418
2415.78	0.266951
2417.18	0.204702
2418.58	-0.126023
2419.98	-0.108164
2421.37	0.305632
2422.77	0.148962
2424.16	0.483216
2425.56	0.516507
2426.96	0.201528
2428.35	0.473644
2429.74	0.175755
2431.14	0.243101
2432.53	0.517013
2433.93	0.40962
2435.32	0.460144
2436.72	0.43007
2438.11	0.17635
2439.5	0.572967
2440.9	0.0317097
2442.29	-0.0333767
2443.68	0.155255
2445.07	0.169121
2446.47	0.293839
2447.86	0.212322
2449.25	0.0675025
2450.64	0.223815
2452.03	0.111337
2453.42	0.252691
2454.81	0.1257
2456.2	0.0783782
2457.59	0.0629554
2458.98	-0.189817
2460.37	0.426851
2461.76	0.505089
2463.15	0.250725
2464.54	-0.114508
2465.93	-0.0216866
2467.32	0.24462
2468.7	0.210859
2470.09	0.240063
2471.48	-0.125176
2472.87	0.470451
2474.25	0.450743
2475.64	0.0844707
2477.03	0.237166
2478.41	0.248223
2479.8	0.165234
2481.18	0.113871
2482.57	0.219221
2483.95	0.120542
2485.34	0.209056
2486.72	0.452754
2488.11	-0.178844
2489.49	-0.108122
2490.88	-0.19336
2492.26	0.1728
2493.65	0.0420241
2495.03	-0.0719471
2496.41	-0.0142775
2497.79	0.105919
2499.18	0.257133
2500.56	0.19135
2501.94	0.140529
2503.32	0.228022
2504.7	0.283794
2506.09	-0.0924783
2507.47	0.0397997
2508.85	-0.0894861
2510.23	0.227197
2511.61	-0.300113
2512.99	-0.0440927
2514.37	0.334685
2515.75	0.223795
2517.13	-0.176982
2518.51	0.233419
2519.89	0.0781436
2521.26	0.136667
2522.64	0.0877914
2524.02	-0.129428
2525.4	0.0646448
2526.78	0.242967
2528.15	-0.217767
2529.53	0.0984597
2530.91	-0.222815
2532.28	-0.147555
2533.66	-0.116879
2535.04	0.415707
2536.41	0.325379
2537.79	-0.145205
2539.16	-0.525206
2540.54	-0.0401578
2541.91	0.155921
2543.29	-0.163796
2544.66	-0.240012
2546.04	-0.0422864
2547.41	0.36873
2548.78	0.128165
2550.16	0.282143
2551.53	0.329582
2552.9	0.0272665
2554.27	0.376718
2555.65	0.103304
2557.02	0.178451
2558.39	0.556719
2559.76	-0.0200419
2561.13	-0.111127
2562.51	0.0104651
2563.88	0.329496
2565.25	0.179101
2566.62	-0.092329
2567.99	-0.0454407
2569.36	0.0620961
2570.73	-0.239578
2572.1	0.0802164
2573.47	0.203063
2574.84	0.280534
2576.2	0.0699987
2577.57	-0.0951252
2578.94	0.118652
2580.31	-0.0772157
2581.68	-0.0459337
2583.05	0.136691
2584.41	0.197827
2585.78	0.0467019
2587.15	0.0927453
2588.51	0.0934711
2589.88	0.18523
2591.24	-0.0716319
2592.61	0.00456762
2593.98	0.0498581
2595.34	0.139791
2596.71	-0.134412
2598.07	0.120562
2599.44	0.208643
2600.8	-0.0357251
2602.16	0.294449
2603.53	-0.160125
2604.89	0.231146
2606.26	0.350789
2607.62	-0.193354
2608.98	0.151602
2610.34	0.38983
2611.71	0.310616
2613.07	0.260684
2614.43	0.15016
2615.79	0.234735
2617.15	0.0794692
2618.52	0.119667
2619.88	-0.00419331
2621.24	0.171774
2622.6	0.0789547
2623.96	-0.147935
2625.32	-0.0313201
2626.68	-0.228194
2628.04	0.260448
2629.4	0.0334129
2630.75	-0.0148764
2632.11	0.0557652
2633.47	0.349091
2634.83	-0.218922
2636.19	0.103797
2637.55	-0.270465
2638.9	0.155476
2640.26	-0.0405107
2641.62	0.251873
2642.98	0.233831
2644.33	-0.25645
2645.69	0.389879
2647.04	-0.144363
2648.4	0.0434942
2649.76	0.333432
2651.11	0.0783234
2652.47	0.0437903
2653.82	-0.0785298
2655.18	0.0637875
2656.53	-0.335202
2657.88	-0.498583
2659.24	0.187355
2660.59	0.156472
2661.95	-0.137521
2663.3	-0.256341
2664.65	0.0185189
2666	-0.145135
2667.36	0.346936
2668.71	-0.137499
2670.06	-0.198988
2671.41	0.176207
2672.76	-0.378546
2674.12	0.127946
2675.47	0.0537658
2676.82	0.255768
2678.17	0.211583
2679.52	0.356584
2680.87	0.37189
2682.22	0.431658
2683.57	0.100887
2684.92	0.350925
2686.27	0.311327
2687.62	0.315171
2688.97	0.332634
2690.31	0.145553
2691.66	0.203863
2693.01	-0.116251
2694.36	0.23024
2695.71	-0.0759559
2697.05	0.284964
2698.4	0.110808
2699.75	-0.134376
2701.09	0.38923
2702.44	0.436246
2703.78	-0.138927
2705.13	-0.0473127
2706.48	0.233004
2707.82	0.136119
2709.17	-0.00469017
2710.51	-0.421798
2711.86	0.293711
2713.2	0.00693274
2714.54	-0.0474916
2715.89	-0.0147367
2717.23	0.308831
2718.57	0.195958
2719.92	-0.324656
2721.26	0.23117
2722.6	0.379254
2723.95	0.119445
2725.29	0.150417
2726.63	0.341218
2727.97	0.138808
2729.31	0.009027
2730.65	-0.00441504
2732	0.680469
2733.34	0.565188
2734.68	0.202815
2736.02	0.393364
2737.36	0.045898
2738.7	0.26565
2740.04	-0.0383058
2741.38	0.413557
2742.72	0.399589
2744.05	0.341491
2745.39	0.253898
2746.73	0.209616
2748.07	-0.125072
2749.41	0.149958
2750.75	-0.0681896
2752.08	-0.169982
2753.42	-0.213545
2754.76	0.0762911
2756.09	0.119836
2757.43	0.0766149
2758.77	0.323143
2760.1	-0.153783
2761.44	0.122314
2762.78	0.210623
2764.11	0.15449
2765.44	0.243063
2766.78	0.43257
2768.11	0.158462
2769.45	0.158271
2770.78	0.0847321
2772.12	-0.0186214
2773.45	0.00728703
2774.78	0.0904121
2776.12	0.27419
2777.45	0.385982
2778.78	0.167286
2780.12	0.0930347
2781.45	-0.0239301
2782.78	-0.126308
2784.11	0.0439196
2785.44	0.0419259
2786.78	0.168986
2788.11	-0.032959
2789.44	-0.162564
2790.77	-0.00534725
2792.1	-0.147901
2793.43	0.2103
2794.76	0.0824699
2796.09	-0.0455322
2797.42	0.42607
2798.75	0.0973215
2800.08	-0.374189
2801.4	0.338568
2802.73	0.309071
2804.06	0.16541
2805.39	0.235228
2806.72	-0.00862503
2808.05	0.21676
2809.37	0.242519
2810.7	0.197248
2812.03	-0.386766
2813.35	0.293051
2814.68	0.349526
2816.01	-0.0606575
2817.33	0.394704
2818.66	0.198526
2819.98	0.101593
2821.31	0.245287
2822.63	0.360112
2823.96	0.16272
2825.28	0.418418
2826.61	0.319999
2827.93	0.335286
2829.25	0.0537128
2830.58	0.324624
2831.9	0.255955
2833.23	0.0598645
2834.55	0.373117
2835.87	0.374598
2837.19	0.74356
2838.52	0.348145
2839.84	0.377037
2841.16	0.745306
2842.48	0.223205
2843.8	0.648673
2845.12	0.933282
2846.44	1.06291
2847.77	0.980844
2849.08	1.026
2850.4	1.19815
2851.73	1.27099
2853.05	1.42821
2854.36	1.31661
2855.68	1.34617
2857	1.38984
2858.32	1.44766
2859.64	1.44896
2860.96	1.29482
2862.28	1.40872
2863.59	1.91748
2864.91	1.93191
2866.23	1.87578
2867.55	1.58012
2868.86	2.14502
2870.18	2.14614
2871.5	2.38704
2872.81	2.43033
2874.13	2.16303
2875.44	2.38804
2876.76	2.24594
2878.07	2.73654
2879.39	2.67788
2880.7	2.63357
2882.02	2.26681
2883.33	2.53318
2884.65	2.36489
2885.96	2.67445
2887.28	2.02956
2888.59	2.33879
2889.9	2.47892
2891.21	2.71642
2892.53	2.50472
2893.84	2.19502
2895.15	2.81001
2896.46	2.71129
2897.78	2.96329
2899.09	2.48847
2900.4	2.90974
2901.71	2.67384
2903.02	2.9277
2904.33	2.87392
2905.64	2.80636
2906.95	3.11688
2908.26	3.19025
2909.57	2.74662
2910.88	2.98897
2912.19	3.65135
2913.5	3.62737
2914.81	3.54625
2916.12	3.71573
2917.43	3.88387
2918.73	3.74327
2920.04	3.77043
2921.35	3.71417
2922.66	4.10623
2923.96	4.56918
2925.27	4.51586
2926.58	5.00823
2927.88	4.68987
2929.19	4.70667
2930.5	4.38747
2931.8	4.65501
2933.11	4.71259
2934.41	4.43467
2935.72	4.47831
2937.02	4.29846
2938.33	4.74758
2939.63	4.4423
2940.94	4.12345
2942.24	4.00086
2943.54	4.11677
2944.85	3.89827
2946.15	3.68054
2947.45	4.03675
2948.76	3.7072
2950.06	3.81055
2951.36	3.61845
2952.66	3.4808
2953.97	3.23002
2955.27	3.49689
2956.57	3.09249
2957.87	3.08151
2959.17	3.4226
2960.47	3.47195
2961.77	2.93423
2963.07	3.18196
2964.37	3.16288
2965.67	3.11454
2966.97	2.5167
2968.27	2.90145
2969.57	2.45611
2970.87	2.48864
2972.17	2.77459
2973.47	2.44174
2974.77	2.29167
2976.07	2.3663
2977.36	2.27098
2978.66	2.38553
2979.96	2.07634
2981.26	1.73813
2982.55	1.92013
2983.85	1.48355
2985.15	1.77886
2986.44	1.82217
2987.74	2.03516
2989.03	1.23712
2990.33	1.77425
2991.63	1.79103
2992.92	1.35724
2994.21	1.5127
2995.51	1.48455
2996.8	1.20306
2998.1	1.06193
2999.39	1.08936
3000.69	1.20124
3001.98	1.22933
3003.27	1.00544
3004.57	1.10392
3005.86	0.992015
3007.15	0.599715
3008.44	0.766756
3009.74	0.835003
3011.03	0.94444
3012.32	0.8718
3013.61	0.464374
3014.9	0.573592
3016.19	0.752752
3017.48	0.709436
3018.78	0.457783
3020.07	0.512366
3021.36	0.649898
3022.65	0.34209
3023.94	0.491926
3025.23	0.557651
3026.51	0.539886
3027.8	0.121134
3029.09	0.436602
3030.38	0.199964
3031.67	0.517005
3032.96	0.80691
3034.24	0.406778
3035.53	0.599676
3036.82	0.363917
3038.11	0.3475
3039.39	0.412206
3040.68	0.296799
3041.97	0.331898
3043.25	0.311919
3044.54	0.44308
3045.83	0.547721
3047.11	0.926948
3048.4	0.802294
3049.68	0.392774
3050.97	0.571363
3052.25	0.422998
3053.54	0.533844
3054.82	0.384892
3056.11	0.794305
3057.39	0.711689
3058.67	0.437673
3059.96	0.898922
3061.24	0.448065
3062.52	0.596769
3063.81	0.814303
3065.09	0.910521
3066.37	0.667903
3067.65	0.779469
3068.94	0.728123
3070.22	0.43165
3071.5	0.324816
3072.78	0.624947
3074.06	0.58398
3075.34	0.324788
3076.62	0.445725
3077.9	0.363118
3079.18	0.294845
3080.46	0.417541
3081.74	0.13436
3083.02	0.191147
3084.3	-0.104416
3085.58	0.156298
3086.86	0.145199
3088.14	0.499942
3089.42	0.460399
3090.69	0.461085
3091.97	0.0409627
3093.25	0.177119
3094.53	-0.242677
3095.8	-0.391061
3097.08	0.0570292
3098.36	0.22016
3099.63	0.545589
3100.91	0.139146
3102.19	0.315162
3103.46	0.0173059
3104.74	-0.0771251
3106.01	-0.130518
3107.29	0.100817
3108.56	-0.181475
3109.84	0.294818
3111.11	0.162675
3112.39	0.0850873
3113.66	-0.0330162
3114.94	-0.0835567
3116.21	-0.0261073
3117.48	-0.0100737
3118.76	-0.103471
3120.03	0.195479
3121.3	0.262953
3122.57	0.126477
3123.85	0.0710802
3125.12	0.0292478
3126.39	-0.161251
3127.66	-0.121346
3128.93	0.243364
3130.21	-0.270891
3131.48	0.120733
3132.75	-0.13675
3134.02	-0.0838065
3135.29	0.306039
3136.56	0.27659
3137.83	-0.117412
3139.1	0.0949221
3140.37	0.131621
3141.64	0.208456
3142.91	0.0567684
3144.17	-0.443547
3145.44	-0.151319
3146.71	0.154196
3147.98	0.0175261
3149.25	-0.0249877
