200.533	-0.116376
202.348	-0.0977592
204.162	-0.0781593
205.976	0.234042
207.792	0.521837
209.605	0.63866
211.418	0.559909
213.23	0.188643
215.044	0.908231
216.856	0.899031
218.667	0.938285
220.478	0.639219
222.289	0.510683
224.102	0.262218
225.912	0.594399
227.721	0.153295
229.531	0.991851
231.34	0.45337
233.148	0.301021
234.956	0.510791
236.766	0.215419
238.574	0.645145
240.381	0.691605
242.188	0.402659
243.994	0.500668
245.801	0.0193548
247.606	0.550149
249.412	0.112642
251.217	-0.0139694
253.024	0.339597
254.828	0.54642
256.632	-0.139423
258.436	0.332857
260.239	0.565437
262.042	0.0289078
263.845	0.457534
265.647	0.622189
267.449	0.0641632
269.25	0.469785
271.052	0.440748
272.852	-0.192228
274.653	0.644141
276.453	0.755514
278.253	1.2264
280.052	0.00886822
281.852	0.258989
283.65	0.266447
285.449	0.104334
287.247	-0.202201
289.044	0.163184
290.842	-0.04632
292.639	0.703114
294.436	0.304891
296.232	0.21931
298.028	0.182595
299.821	-0.0447979
301.617	0.300977
303.412	0.144289
305.206	0.678587
307	0.734402
308.794	0.0509892
310.588	-0.202324
312.381	0.760308
314.172	0.462028
315.964	0.546613
317.756	-0.391104
319.548	0.577963
321.34	0.309535
323.131	-0.0299654
324.921	0.322548
326.71	0.221903
328.5	-0.237479
330.29	0.425573
332.079	0.346706
333.868	0.218252
335.654	0.70986
337.443	0.720672
339.231	0.155243
341.018	0.4496
342.804	0.64732
344.591	0.414775
346.377	0.25457
348.163	0.262288
349.947	0.509202
351.733	-0.437332
353.518	1.71661e-005
355.303	0.48382
357.085	-0.321564
358.869	-0.364795
360.653	0.210133
362.435	0.259866
364.218	0.0234852
366.001	-0.118155
367.781	0.143205
369.563	-0.236938
371.345	0.164507
373.124	0.304169
374.905	0.34864
376.686	-0.244215
378.464	-0.175063
380.244	-0.0580835
382.022	0.201014
383.801	-0.0564785
385.58	0.110706
387.357	-0.473021
389.135	0.542047
390.911	-0.0629387
392.689	0.46027
394.466	-0.119696
396.241	0.310521
398.018	0.247693
399.792	-0.472963
401.568	0.00384712
403.341	0.221703
405.117	0.391874
406.889	0.302994
408.664	0.401407
410.436	-0.134274
412.21	0.0578394
413.981	-0.289376
415.755	0.20884
417.525	0.0743046
419.298	0.198523
421.068	-0.0759792
422.84	0.541245
424.609	-0.180219
426.38	0.0364847
428.149	-0.663113
429.919	-0.0719967
431.688	0.260838
433.455	-0.0397043
435.225	0.317266
436.992	0.322188
438.76	0.396853
440.527	-0.0930624
442.293	-0.138911
444.06	0.305568
445.826	-0.001894
447.593	-0.122722
449.357	0.0368671
451.122	0.172941
452.888	0.285774
454.651	0.0254869
456.415	-0.164468
458.18	-0.00492668
459.942	0.387168
461.705	0.267839
463.469	0.405876
465.23	0.337094
466.991	0.0387793
468.752	-0.396556
470.515	-0.225903
472.275	-0.496653
474.035	0.139658
475.797	0.541967
477.556	0.429878
479.315	0.106358
481.073	0.294415
482.834	0.226455
484.592	0.0432148
486.349	0.141346
488.106	0.381455
489.863	0.367299
491.622	0.00402069
493.378	0.0379562
495.134	0.422987
496.889	0.972547
498.645	0.866789
500.401	0.478989
502.156	-0.262176
503.91	0.0986843
505.664	0.247445
507.417	0.395075
509.171	0.141438
510.923	0.474401
512.678	0.0529318
514.43	0.14773
516.182	0.617617
517.933	0.239484
519.684	0.495384
521.435	0.327429
523.186	0.253145
524.936	0.108357
526.686	0.47981
528.435	0.499238
530.184	0.213923
531.933	-0.00119591
533.682	0.391761
535.43	0.29189
537.18	0.331057
538.927	0.205408
540.674	0.195525
542.421	-0.0246859
544.167	0.0577259
545.913	-0.301517
547.659	0.314989
549.403	-0.0200634
551.148	-0.30783
552.893	0.168503
554.637	0.366768
556.381	0.31102
558.125	0.809213
559.868	0.523717
561.611	0.0321474
563.354	-0.113042
565.097	0.271201
566.839	0.0813389
568.581	0.489387
570.322	0.255595
572.063	-0.183132
573.802	-0.0696058
575.542	0.045599
577.283	0.0706606
579.022	-0.155516
580.762	-0.220406
582.501	0.0594406
584.24	0.247093
585.976	-0.0720425
587.714	-0.0704603
589.452	-0.0469732
591.19	-0.369441
592.927	-0.30123
594.663	0.342041
596.398	0.0880928
598.134	0.0642023
599.87	0.0169783
601.605	0.360044
603.338	-0.33312
605.073	-0.10761
606.808	0.254377
608.542	-0.00479126
610.274	-0.171935
612.007	0.00563431
613.74	0.344287
615.473	0.0874548
617.204	-0.191926
618.936	0.238365
620.668	-0.179674
622.397	-0.117976
624.128	0.171458
625.859	0.414844
627.588	-0.208508
629.318	0.380069
631.048	-0.284315
632.775	0.28545
634.505	0.491193
636.233	0.559704
637.96	0.147141
639.688	0.439586
641.416	0.0446854
643.142	0.308967
644.869	0.594388
646.594	0.288261
648.32	0.120855
650.045	0.13841
651.771	0.523152
653.496	0.00262356
655.219	0.417264
656.944	0.333859
658.667	0.45632
660.391	0.190692
662.113	0.242789
663.837	0.498467
665.558	0.180497
667.281	0.134975
669.002	0.203131
670.724	0.958367
672.444	0.274237
674.166	0.507732
675.885	0.537335
677.606	0.292854
679.325	0.346573
681.045	0.123575
682.763	0.427702
684.483	0.914361
686.2	0.409266
687.917	0.662479
689.636	0.707415
691.352	0.682542
693.07	1.00257
694.786	0.561748
696.501	0.603684
698.219	0.851622
699.933	1.07513
701.65	0.791324
703.364	0.690798
705.078	0.589728
706.793	1.31446
708.506	1.12043
710.219	0.49101
711.934	0.36592
713.646	0.698215
715.358	1.12114
717.071	0.92682
718.782	0.299563
720.493	0.721936
722.204	1.02988
723.916	0.996068
725.626	1.32592
727.336	0.950831
729.045	1.39289
730.756	1.08556
732.464	1.52582
734.173	1.28629
735.881	0.482283
737.59	0.854315
739.297	1.58728
741.004	1.14788
742.711	0.552657
744.417	0.83744
746.125	1.28081
747.831	1.23033
749.537	1.42862
751.242	1.02089
752.946	0.861827
754.651	1.60396
756.357	1.40276
758.061	1.27049
759.764	1.95058
761.467	1.18974
763.17	1.8498
764.872	1.47183
766.575	1.67967
768.276	1.70503
769.978	1.75081
771.679	1.184
773.382	1.67861
775.083	2.17273
776.783	1.35599
778.483	1.44494
780.182	1.89727
781.882	1.80796
783.581	2.23923
785.279	1.76406
786.978	2.25979
788.676	1.53003
790.373	2.10954
792.071	1.89449
793.768	1.76854
795.464	1.59748
797.161	2.30658
798.857	1.82268
800.552	1.67882
802.248	2.09892
803.941	1.7997
805.636	2.73691
807.33	2.03216
809.024	2.29255
810.718	2.10257
812.412	1.91193
814.105	2.1019
815.798	2.60469
817.49	2.30139
819.183	2.13274
820.873	2.27717
822.564	1.64083
824.256	2.23251
825.947	2.02271
827.637	1.99347
829.328	2.59056
831.016	2.45584
832.705	2.34628
834.395	1.97126
836.084	2.71205
837.772	2.47146
839.459	1.42549
841.147	2.23111
842.835	2.32088
844.522	2.05265
846.209	2.52262
847.894	2.12269
849.581	2.08284
851.267	1.68715
852.953	2.0323
854.637	1.68342
856.322	1.46837
858.007	2.06122
859.689	1.8883
861.374	0.835114
863.058	1.89691
864.739	1.49343
866.423	1.69745
868.106	1.96858
869.787	2.10403
871.469	1.74292
873.151	2.08086
874.831	1.94497
876.512	1.19972
878.193	1.76334
879.872	1.17575
881.553	2.07761
883.231	1.80488
884.911	2.0728
886.591	1.50412
888.268	1.27262
889.947	1.15252
891.623	1.79735
893.302	1.98955
894.978	0.83024
896.656	2.14463
898.331	1.68141
900.008	1.15092
901.683	1.60663
903.359	0.986647
905.033	1.396
906.709	1.09033
908.383	1.70001
910.058	1.6411
911.731	0.826883
913.405	1.59277
915.078	1.18079
916.752	1.27978
918.423	1.06826
920.096	1.52144
921.768	1.5983
923.438	1.8751
925.111	1.4242
926.781	1.15224
928.452	1.34558
930.122	1.4738
931.791	1.29372
933.462	1.57719
935.13	1.08876
936.799	1.43892
938.468	1.41496
940.136	2.16415
941.803	1.72353
943.472	0.908285
945.139	1.6816
946.805	1.5931
948.473	1.50273
950.139	1.07945
951.804	1.47151
953.471	0.804783
955.136	1.66136
956.801	1.63854
958.465	1.77338
960.131	1.46969
961.794	1.58675
963.458	1.12906
965.12	1.11144
966.785	0.604464
968.447	1.00187
970.109	1.26451
971.771	1.48199
973.432	1.05854
975.095	0.968284
976.756	0.813384
978.417	1.36771
980.077	1.414
981.737	1.45986
983.396	1.57076
985.057	1.28121
986.716	1.38805
988.375	1.33817
990.033	1.77356
991.691	1.12493
993.349	1.20573
995.006	1.0437
996.663	1.05844
998.32	1.42589
999.976	1.92485
1001.63	1.43181
1003.29	2.17131
1004.95	1.54601
1006.6	1.58071
1008.26	1.33
1009.91	1.12384
1011.56	0.721004
1013.22	1.37104
1014.87	1.31978
1016.53	1.94758
1018.18	1.59065
1019.83	0.972423
1021.48	0.661742
1023.14	1.20471
1024.79	1.37687
1026.44	1.13434
1028.09	1.21958
1029.74	1.7629
1031.39	1.36558
1033.04	1.64364
1034.69	1.50518
1036.34	0.973073
1037.99	0.811307
1039.64	1.04151
1041.29	1.01101
1042.94	1.5687
1044.58	1.04123
1046.23	1.58032
1047.88	1.07867
1049.52	1.07816
1051.17	1.5567
1052.82	0.233023
1054.46	0.799594
1056.11	1.10558
1057.75	0.95486
1059.4	1.49935
1061.04	0.95608
1062.69	1.15129
1064.33	1.12813
1065.98	0.908261
1067.62	0.79609
1069.26	1.03065
1070.9	0.526047
1072.55	0.89
1074.19	0.581496
1075.83	1.16349
1077.47	0.488681
1079.11	1.46323
1080.76	0.747027
1082.4	1.04995
1084.04	1.0267
1085.68	1.43536
1087.32	1.16999
1088.95	0.599691
1090.59	0.331452
1092.23	1.44597
1093.87	1.30539
1095.51	0.992675
1097.15	1.30645
1098.78	0.867193
1100.42	1.18365
1102.06	0.511866
1103.69	1.13291
1105.33	0.937627
1106.97	1.19456
1108.6	0.805943
1110.24	0.953876
1111.87	0.971201
1113.51	1.3306
1115.14	0.979907
1116.77	1.27265
1118.41	0.793376
1120.04	1.10805
1121.67	1.03793
1123.31	1.03312
1124.94	1.20042
1126.57	1.68931
1128.2	1.08816
1129.83	1.21487
1131.47	0.893148
1133.1	0.63588
1134.72	0.677752
1136.36	1.3174
1137.98	1.18649
1139.62	1.35345
1141.24	0.729325
1142.87	0.894822
1144.5	0.143214
1146.13	0.586749
1147.76	0.775106
1149.38	0.857649
1151.01	0.748898
1152.64	0.491106
1154.27	0.722746
1155.89	1.01769
1157.52	0.95064
1159.14	0.373531
1160.77	0.796948
1162.39	0.68975
1164.02	0.583518
1165.64	0.732883
1167.27	0.520508
1168.89	0.944891
1170.51	1.02735
1172.14	0.789131
1173.76	0.867888
1175.38	0.117949
1177	0.513371
1178.63	0.357657
1180.25	0.901302
1181.87	0.45091
1183.49	0.276497
1185.11	0.524843
1186.73	1.04643
1188.35	0.299734
1189.97	0.58528
1191.59	0.699947
1193.21	0.581605
1194.83	0.588762
1196.45	0.658816
1198.07	0.855227
1199.68	0.843756
1201.3	0.918195
1202.92	0.640205
1204.53	0.865883
1206.15	1.30212
1207.77	0.675556
1209.38	0.654285
1211	0.861617
1212.62	1.17137
1214.23	0.415911
1215.84	0.804477
1217.46	0.941012
1219.07	1.22174
1220.69	1.62632
1222.3	1.51238
1223.91	1.54497
1225.53	1.41345
1227.14	1.30434
1228.75	1.23811
1230.36	1.0905
1231.97	1.52293
1233.59	2.14247
1235.2	1.41985
1236.81	1.52518
1238.42	1.69359
1240.03	1.65597
1241.64	1.65986
1243.25	1.18755
1244.85	1.60403
1246.46	1.75052
1248.07	1.4821
1249.68	1.73021
1251.29	2.47443
1252.9	1.95694
1254.5	1.54373
1256.11	1.46258
1257.72	1.1551
1259.32	1.77982
1260.93	1.3915
1262.54	1.43824
1264.14	1.52645
1265.75	1.78007
1267.35	2.09525
1268.96	1.80832
1270.56	1.60316
1272.16	1.29322
1273.77	2.14325
1275.37	2.10067
1276.97	1.89132
1278.57	1.99196
1280.18	1.67776
1281.78	2.04648
1283.38	2.06332
1284.98	2.10142
1286.58	1.87169
1288.18	2.28388
1289.78	2.24227
1291.38	2.40782
1292.99	2.3666
1294.58	2.3039
1296.18	2.17785
1297.78	1.94694
1299.38	1.69389
1300.98	2.3673
1302.58	1.82302
1304.17	2.38996
1305.77	1.82432
1307.37	2.12183
1308.97	1.78244
1310.56	2.28395
1312.16	1.63848
1313.76	1.54723
1315.35	1.78409
1316.95	1.85818
1318.54	1.99393
1320.14	2.08853
1321.73	1.75425
1323.32	1.80558
1324.92	1.42819
1326.51	1.53746
1328.1	2.21354
1329.7	1.55223
1331.29	1.86487
1332.88	2.07816
1334.47	1.97044
1336.07	1.72329
1337.66	1.83996
1339.25	1.77435
1340.84	1.52582
1342.43	1.95966
1344.02	2.10914
1345.61	1.414
1347.2	1.24204
1348.79	1.21238
1350.37	1.40534
1351.96	1.84058
1353.55	1.65775
1355.14	1.85612
1356.73	0.875806
1358.31	1.87321
1359.9	1.73075
1361.49	1.36776
1363.07	1.70246
1364.66	1.53804
1366.25	1.33423
1367.83	0.733184
1369.42	1.42772
1371	1.80483
1372.59	1.28783
1374.17	1.48833
1375.75	1.23185
1377.34	1.65199
1378.92	1.29555
1380.5	1.27636
1382.09	1.01716
1383.67	1.01533
1385.25	1.5492
1386.83	1.12852
1388.42	1.32399
1390	1.22223
1391.58	1.55798
1393.16	0.882622
1394.74	1.1401
1396.32	1.23863
1397.9	1.29674
1399.48	0.699914
1401.06	0.815683
1402.64	1.12872
1404.21	1.16443
1405.79	0.765631
1407.37	0.68426
1408.95	1.01868
1410.53	0.326264
1412.1	0.759735
1413.68	0.442256
1415.26	1.13043
1416.83	0.9297
1418.41	1.3201
1419.98	0.725504
1421.56	1.09733
1423.13	1.23425
1424.71	1.35308
1426.28	0.82365
1427.86	1.41661
1429.43	1.35977
1431	0.98711
1432.58	1.34151
1434.15	1.5374
1435.72	1.53609
1437.29	2.04618
1438.87	1.88849
1440.44	1.35849
1442.01	1.71392
1443.58	1.16601
1445.15	1.87631
1446.72	1.62376
1448.29	1.82346
1449.86	1.37474
1451.43	1.85052
1453	1.99268
1454.57	1.70253
1456.14	2.08117
1457.71	2.02631
1459.27	1.98977
1460.84	1.57751
1462.41	1.37993
1463.98	1.81011
1465.54	1.86533
1467.11	1.86122
1468.67	1.52375
1470.24	1.58001
1471.81	0.75461
1473.37	0.891716
1474.94	0.794209
1476.5	0.873585
1478.07	0.972651
1479.63	0.934419
1481.19	0.719706
1482.76	1.23005
1484.32	0.388143
1485.88	0.741165
1487.45	0.77991
1489.01	0.660712
1490.57	0.715923
1492.13	0.358378
1493.69	0.819723
1495.26	0.673569
1496.82	0.331907
1498.38	0.535754
1499.94	0.623022
1501.5	0.536429
1503.06	0.683861
1504.62	0.289375
1506.17	0.282984
1507.73	0.295332
1509.29	0.132824
1510.85	0.297602
1512.41	0.518985
1513.97	0.316049
1515.52	-0.0783739
1517.08	0.200626
1518.64	0.0195055
1520.19	0.145805
1521.75	0.482486
1523.31	0.321168
1524.86	0.999432
1526.42	0.511979
1527.97	0.862682
1529.52	0.280244
1531.08	0.800612
1532.63	0.391039
1534.19	0.513596
1535.74	0.220779
1537.29	0.798587
1538.85	0.753024
1540.4	0.764499
1541.95	0.719519
1543.5	0.636896
1545.06	0.460239
1546.61	0.621785
1548.16	-0.0239086
1549.71	0.606194
1551.26	1.02923
1552.81	0.460588
1554.36	1.50118
1555.91	0.842104
1557.46	1.04424
1559.01	0.856336
1560.56	0.689074
1562.11	1.26959
1563.65	1.42218
1565.2	0.940979
1566.75	1.07557
1568.29	1.20996
1569.84	1.08268
1571.39	0.712333
1572.94	0.789703
1574.48	1.93099
1576.03	1.05624
1577.57	1.13375
1579.12	1.75311
1580.66	1.04755
1582.21	1.64986
1583.75	1.46873
1585.3	2.01711
1586.84	0.790274
1588.38	1.78839
1589.93	1.14042
1591.47	0.828462
1593.01	0.815439
1594.55	1.21422
1596.1	0.976272
1597.64	1.05721
1599.18	1.57014
1600.72	1.5965
1602.26	1.82983
1603.8	1.42488
1605.34	1.35701
1606.88	0.987003
1608.42	1.47952
1609.96	1.57503
1611.5	1.12326
1613.04	1.1394
1614.58	0.947826
1616.12	1.20623
1617.65	1.01495
1619.19	0.562773
1620.73	0.786592
1622.27	1.01159
1623.8	1.1437
1625.34	1.03244
1626.87	1.05145
1628.41	1.42462
1629.95	1.01071
1631.48	1.34377
1633.02	1.32119
1634.55	0.981643
1636.09	1.63209
1637.62	1.16394
1639.15	1.64755
1640.69	1.2922
1642.22	1.60712
1643.76	1.51099
1645.29	1.54399
1646.82	1.669
1648.35	1.5334
1649.88	1.88118
1651.42	1.80276
1652.95	2.31926
1654.48	1.77974
1656.01	2.33478
1657.54	2.09264
1659.07	1.96095
1660.6	1.77247
1662.13	1.82319
1663.66	2.42719
1665.19	1.82912
1666.72	2.06287
1668.24	1.61513
1669.77	2.07265
1671.3	1.75751
1672.83	1.37006
1674.35	1.48047
1675.88	1.31442
1677.41	1.16605
1678.93	1.12709
1680.46	0.756202
1681.99	0.917863
1683.51	1.44624
1685.04	1.20333
1686.56	1.14448
1688.09	0.866223
1689.61	0.387156
1691.13	0.329926
1692.66	1.05972
1694.18	0.801021
1695.71	1.25538
1697.23	0.356929
1698.75	0.773927
1700.27	-0.1787
1701.8	0.218974
1703.32	0.159964
1704.84	-0.227242
1706.36	0.441034
1707.88	0.217173
1709.4	-0.0971947
1710.92	0.0245981
1712.44	0.400191
1713.96	-0.0399313
1715.48	0.0637827
1717	0.257697
1718.52	-0.145209
1720.04	-0.258599
1721.56	-0.100999
1723.07	0.110965
1724.59	0.0533314
1726.11	0.46519
1727.63	-0.310019
1729.14	0.319763
1730.66	0.392722
1732.18	-0.0843887
1733.69	0.323672
1735.21	0.0947504
1736.72	-0.217853
1738.24	-0.0268211
1739.75	-0.108624
1741.27	0.379086
1742.78	0.0152807
1744.3	0.159967
1745.81	-0.147613
1747.32	0.169417
1748.84	-0.0216246
1750.35	0.000622749
1751.86	-0.139117
1753.37	0.0409384
1754.89	-0.0327368
1756.4	-0.336849
1757.91	-0.263282
1759.42	-0.353763
1760.93	0.164412
1762.44	-0.328283
1763.95	0.122537
1765.46	0.164497
1766.97	-0.273021
1768.48	-0.144973
1769.99	0.0996323
1771.5	0.191919
1773.01	-0.0832167
1774.52	0.241142
1776.03	-0.0296917
1777.53	-0.36848
1779.04	0.0467386
1780.55	-0.0644922
1782.06	0.226173
1783.56	-0.104232
1785.07	0.177293
1786.57	-0.0080843
1788.08	0.10811
1789.59	0.0658741
1791.09	-0.012516
1792.6	0.257607
1794.1	-0.0753736
1795.6	0.0157938
1797.11	0.0145521
1798.61	-0.00426769
1800.12	0.044692
1801.62	0.200168
1803.12	-0.175181
1804.63	0.0331497
1806.13	0.278601
1807.63	-0.0204229
1809.13	0.19557
1810.63	-0.157307
1812.14	0.26263
1813.64	0.349258
1815.14	0.036932
1816.64	-0.0548849
1818.14	0.0886211
1819.64	0.162874
1821.14	0.14808
1822.64	0.251569
1824.14	0.0296564
1825.63	0.132158
1827.13	0.157461
1828.63	0.568851
1830.13	0.191252
1831.63	0.508944
1833.12	0.182407
1834.62	0.0984211
1836.12	0.179836
1837.62	0.0173597
1839.11	0.11528
1840.61	0.323792
1842.1	0.134514
1843.6	0.0614805
1845.09	0.236332
1846.59	-0.174253
1848.08	0.2264
1849.58	0.247775
1851.07	0.137502
1852.57	0.109582
1854.06	-0.0566378
1855.55	0.514472
1857.04	0.428258
1858.54	0.52116
1860.03	0.446612
1861.52	-0.253523
1863.01	0.0663404
1864.5	0.517283
1866	0.248995
1867.49	0.317209
1868.98	0.445209
1870.47	0.292453
1871.96	0.27378
1873.45	0.220125
1874.94	0.264498
1876.43	0.613847
1877.92	0.0576677
1879.41	0.0408869
1880.89	0.0657177
1882.38	-0.20553
1882.48	-0.223981
1883.97	0.21128
1885.47	0.000707626
1886.96	0.503596
1888.46	-0.369781
1889.95	0.184612
1891.44	0.200297
1892.94	-0.286688
1894.43	-0.0937891
1895.92	0.361423
1897.41	0.278507
1898.9	0.334643
1900.4	0.476807
1901.89	0.130275
1903.38	0.0777931
1904.87	0.215159
1906.36	0.664341
1907.85	0.157904
1909.34	0.41627
1910.83	0.397738
1912.32	0.0505352
1913.81	0.605916
1915.29	0.311515
1916.78	-0.139121
1918.27	0.103248
1919.76	0.57028
1921.25	0.170853
1922.74	-0.037468
1924.22	0.014822
1925.71	0.29323
1927.2	0.122575
1928.68	0.0391054
1930.17	0.54437
1931.65	0.59868
1933.14	-0.196909
1934.63	-0.0417614
1936.11	0.38849
1937.59	0.0562744
1939.08	0.467007
1940.56	0.169501
1942.05	0.390903
1943.53	0.733885
1945.01	0.422222
1946.5	0.197348
1947.98	0.368781
1949.46	0.177608
1950.94	0.0545168
1952.43	0.292023
1953.91	0.219127
1955.39	0.14623
1956.87	0.297039
1958.35	0.208051
1959.83	0.0341024
1961.31	0.169493
1962.79	0.373539
1964.27	0.371648
1965.75	-0.041729
1967.23	0.29775
1968.71	0.191453
1970.19	0.204366
1971.67	-0.0733681
1973.14	0.280756
1974.62	0.15689
1976.1	0.527651
1977.58	-0.0727844
1979.05	0.0936403
1980.53	-0.0803843
1982.01	0.340613
1983.48	0.047307
1984.96	0.483971
1986.43	0.326097
1987.91	0.219289
1989.38	0.248406
1990.86	0.413513
1992.33	0.39329
1993.81	0.458611
1995.28	0.22051
1996.76	0.523619
1998.23	0.404297
1999.7	0.622282
2001.18	0.0801086
2002.65	0.651156
2004.12	0.513437
2005.59	0.275072
2007.06	0.206056
2008.54	0.47477
2010.01	0.441182
2011.48	0.391304
2012.95	0.223685
2014.42	-0.0284243
2015.89	0.358171
2017.36	0.289549
2018.83	0.573195
2020.3	0.0494957
2021.77	0.315478
2023.24	0.766137
2024.71	0.176909
2026.17	0.411135
2027.64	0.244145
2029.11	0.279884
2030.58	0.400816
2032.04	0.690581
2033.51	0.359919
2034.98	0.448843
2036.45	0.722246
2037.91	0.104702
2039.38	0.662947
2040.84	0.246362
2042.31	0.435256
2043.77	0.641796
2045.24	0.0248737
2046.7	0.670763
2048.17	0.205892
2049.63	0.464937
2051.1	0.335445
2052.56	0.22124
2054.02	0.442566
2055.48	0.678997
2056.95	0.728479
2058.41	0.204165
2059.87	0.471752
2061.33	0.0323324
2062.8	0.183101
2064.26	0.200114
2065.72	0.319056
2067.18	0.287351
2068.64	0.508682
2070.1	0.444219
2071.56	0.514482
2073.02	0.887699
2074.48	0.183018
2075.94	0.117835
2077.4	0.557504
2078.86	0.609452
2080.31	0.391521
2081.77	0.358292
2083.23	0.492752
2084.69	0.744205
2086.14	0.826525
2087.6	0.756804
2089.06	0.401013
2090.52	0.633275
2091.97	0.512655
2093.43	0.660549
2094.88	0.556465
2096.34	0.334698
2097.79	0.883017
2099.25	0.927807
2100.7	0.604272
2102.16	0.849579
2103.61	0.560987
2105.07	0.541032
2106.52	0.422362
2107.97	1.13875
2109.43	0.9547
2110.88	1.35368
2112.33	0.684546
2113.78	1.19676
2115.24	0.741459
2116.69	1.1006
2118.14	0.52922
2119.59	0.673732
2121.04	1.18492
2122.49	0.636276
2123.94	1.06768
2125.39	1.08516
2126.84	1.31792
2128.29	1.08544
2129.74	1.69678
2131.19	1.24618
2132.64	1.40767
2134.09	1.12223
2135.54	1.44966
2136.98	1.38163
2138.43	1.08419
2139.88	1.36713
2141.33	1.45349
2142.77	1.40886
2144.22	1.31526
2145.67	1.37068
2147.11	1.79009
2148.56	1.9607
2150.01	1.9151
2151.45	2.03408
2152.9	1.38979
2154.34	1.70562
2155.79	1.70612
2157.23	1.80607
2158.67	2.08894
2160.12	2.53893
2161.56	1.73166
2163	1.85413
2164.45	2.06135
2165.89	1.85474
2167.33	2.2957
2168.78	2.2374
2170.22	1.72801
2171.66	2.13102
2173.1	1.89983
2174.54	2.14951
2175.98	2.19888
2177.42	2.09877
2178.86	1.73349
2180.3	2.26703
2181.74	2.33604
2183.18	1.80706
2184.62	2.34269
2186.06	1.99691
2187.5	2.01706
2188.94	2.15376
2190.38	1.44157
2191.82	1.94417
2193.25	1.81342
2194.69	1.94766
2196.13	2.12984
2197.57	1.74401
2199	1.78905
2200.44	1.50059
2201.88	1.87645
2203.31	1.55562
2204.75	1.60112
2206.18	1.53163
2207.62	1.66158
2209.05	1.62565
2210.49	1.52273
2211.92	1.22038
2213.36	1.29781
2214.79	1.45756
2216.22	1.48563
2217.66	1.48184
2219.09	1.44636
2220.52	0.818321
2221.96	1.13024
2223.39	1.04584
2224.82	1.09187
2226.25	0.708283
2227.68	1.01416
2229.11	0.694037
2230.55	0.718316
2231.98	0.840627
2233.41	0.684638
2234.84	0.644165
2236.27	0.719246
2237.7	0.910021
2239.12	0.515032
2240.55	0.579017
2241.98	0.449005
2243.41	0.776892
2244.84	0.566914
2246.27	0.747783
2247.7	0.617228
2249.12	0.712883
2250.55	0.724783
2251.98	0.327961
2253.41	0.288782
2254.83	0.721075
2256.26	0.4884
2257.68	0.680145
2259.11	0.679859
2260.54	0.455288
2261.96	0.573822
2263.39	0.856451
2264.81	0.928507
2266.24	0.642571
2267.66	0.632113
2269.08	0.571914
2270.51	0.299255
2271.93	0.400458
2273.35	0.778387
2274.78	0.293192
2276.2	0.573764
2277.62	0.251619
2279.04	0.30432
2280.47	0.536364
2281.89	0.442188
2283.31	0.837309
2284.73	0.416721
2286.15	0.746971
2287.57	0.783865
2288.99	0.510877
2290.41	0.417823
2291.83	0.357649
2293.25	0.608269
2294.67	0.15555
2296.09	0.17704
2297.51	0.444118
2298.93	0.744228
2300.35	0.0286179
2301.76	0.00129604
2303.18	0.417168
2304.6	0.406841
2306.02	0.396434
2307.44	0.484275
2308.85	0.456597
2310.27	0.428327
2311.69	0.251595
2313.1	0.305058
2314.52	0.375381
2315.93	-0.195748
2317.35	0.30416
2318.76	0.129186
2320.18	0.31667
2321.59	0.321804
2323.01	0.0776043
2324.42	0.243784
2325.83	0.391262
2327.25	0.306116
2328.66	0.681753
2330.07	0.546503
2331.49	0.543948
2332.9	0.739977
2334.31	0.50895
2335.72	0.146685
2337.13	0.474933
2338.55	0.0293407
2339.96	0.240351
2341.37	0.236722
2342.78	0.0192499
2344.19	0.490822
2345.6	0.273667
2347.01	-0.0739775
2348.42	0.0535488
2349.83	0.295074
2351.24	0.339365
2352.65	0.0559864
2354.05	0.0659304
2355.46	-0.00630569
2356.87	0.2795
2358.28	0.10923
2359.69	0.118144
2361.09	-0.0189428
2362.5	0.217151
2363.91	0.177312
2365.31	0.299277
2366.72	-0.0152102
2368.13	-0.16706
2369.53	0.0533285
2370.94	0.0489063
2372.34	-0.00259495
2373.75	0.49441
2375.15	0.00949192
2376.56	0.232593
2377.96	0.0685368
2379.37	0.417429
2380.77	-0.0385408
2382.17	0.258751
2383.58	0.362273
2384.98	0.305322
2386.38	0.192959
2387.79	0.0816851
2389.19	0.42617
2390.59	0.229601
2391.99	0.289182
2393.39	-0.254977
2394.8	-0.527448
2396.2	0.282009
2397.6	0.312746
2399	-0.00553799
2400.4	-0.0213785
2401.8	-0.132217
2403.2	0.265224
2404.6	0.233476
2406	0.407296
2407.4	0.0405941
2408.79	0.10168
2410.19	0.0197105
2411.59	0.048912
2412.99	0.253038
2414.39	0.252412
2415.78	0.364012
2417.18	0.160275
2418.58	0.289897
2419.98	0.0556841
2421.37	0.391529
2422.77	-0.160033
2424.16	0.476334
2425.56	0.415663
2426.96	-0.0249176
2428.35	0.343626
2429.74	0.17411
2431.14	0.0685997
2432.53	0.614008
2433.93	0.238293
2435.32	0.163095
2436.72	0.0864611
2438.11	-0.118716
2439.5	0.0720797
2440.9	0.45247
2442.29	0.276464
2443.68	0.227251
2445.07	0.114462
2446.47	0.0650406
2447.86	0.126469
2449.25	0.251185
2450.64	0.439341
2452.03	0.010581
2453.42	0.437276
2454.81	0.437469
2456.2	0.201075
2457.59	0.534484
2458.98	-0.0654697
2460.37	-0.0648603
2461.76	-0.0175552
2463.15	0.0605955
2464.54	0.201334
2465.93	0.120564
2467.32	-0.386436
2468.7	0.0694532
2470.09	0.272406
2471.48	-0.0927296
2472.87	0.156303
2474.25	0.309836
2475.64	0.226556
2477.03	-0.02985
2478.41	0.012495
2479.8	0.133384
2481.18	-0.0907106
2482.57	-0.110826
2483.95	0.322664
2485.34	0.160227
2486.72	-0.143567
2488.11	0.270133
2489.49	0.152202
2490.88	0.0966625
2492.26	0.150565
2493.65	0.096652
2495.03	-0.0644622
2496.41	0.132382
2497.79	0.0354662
2499.18	-0.122949
2500.56	0.275406
2501.94	-0.0694299
2503.32	0.172192
2504.7	0.0885563
2506.09	0.189408
2507.47	0.12049
2508.85	-0.209519
2510.23	0.214103
2511.61	0.223222
2512.99	-0.226786
2514.37	0.4582
2515.75	0.0409889
2517.13	0.0380774
2518.51	-0.0254588
2519.89	0.293282
2521.26	0.183813
2522.64	-0.185616
2524.02	0.283589
2525.4	0.0198479
2526.78	0.213116
2528.15	-0.186978
2529.53	0.159588
2530.91	-0.267873
2532.28	0.248587
2533.66	0.112883
2535.04	0.0842605
2536.41	0.116401
2537.79	-0.262211
2539.16	-0.15555
2540.54	-0.262258
2541.91	-0.0808592
2543.29	-0.0814099
2544.66	0.252542
2546.04	-0.00397396
2547.41	-0.137978
2548.78	0.0322185
2550.16	0.00532484
2551.53	0.14494
2552.9	0.359611
2554.27	0.19389
2555.65	0.315624
2557.02	-0.124444
2558.39	0.0876327
2559.76	0.299845
2561.13	0.254827
2562.51	0.377151
2563.88	0.106043
2565.25	0.305151
2566.62	-0.14712
2567.99	0.173585
2569.36	-0.127049
2570.73	-0.0639429
2572.1	0.302372
2573.47	0.289857
2574.84	0.0197315
2576.2	0.416693
2577.57	0.0858779
2578.94	0.421995
2580.31	0.439383
2581.68	0.0318222
2583.05	-0.133445
2584.41	0.110423
2585.78	0.202614
2587.15	0.0524011
2588.51	-0.0218172
2589.88	-0.232292
2591.24	0.133007
2592.61	-0.168858
2593.98	0.361832
2595.34	0.406663
2596.71	-0.0339131
2598.07	-0.15709
2599.44	-0.219995
2600.8	-0.146741
2602.16	0.077919
2603.53	-0.225338
2604.89	-0.0147548
2606.26	0.0299559
2607.62	-0.0161104
2608.98	0.419396
2610.34	0.295961
2611.71	-0.234931
2613.07	0.301624
2614.43	-0.185061
2615.79	-0.0557485
2617.15	-0.25628
2618.52	-0.15634
2619.88	-0.0708117
2621.24	-0.268821
2622.6	0.0121126
2623.96	-0.214801
2625.32	-0.00867987
2626.68	0.196945
2628.04	0.223162
2629.4	-0.182751
2630.75	0.378875
2632.11	-0.160597
2633.47	-0.119908
2634.83	-0.0941381
2636.19	-0.335369
2637.55	-0.0575614
2638.9	0.116213
2640.26	0.15672
2641.62	-0.15739
2642.98	-0.293485
2644.33	0.102256
2645.69	-0.0632043
2647.04	0.287194
2648.4	-0.0706224
2649.76	-0.0753655
2651.11	-0.0219183
2652.47	0.207366
2653.82	-0.253161
2655.18	0.21132
2656.53	0.00233603
2657.88	0.204581
2659.24	0.114894
2660.59	-0.193605
2661.95	0.170367
2663.3	0.241292
2664.65	-0.00974989
2666	0.482732
2667.36	0.391033
2668.71	-0.195703
2670.06	-0.111928
2671.41	0.248471
2672.76	-0.190167
2674.12	0.200068
2675.47	0.0243769
2676.82	0.255637
2678.17	-0.107284
2679.52	-0.179216
2680.87	0.344257
2682.22	0.0279384
2683.57	0.220206
2684.92	0.152418
2686.27	0.25918
2687.62	0.336891
2688.97	0.0941577
2690.31	0.459557
2691.66	0.31511
2693.01	0.154786
2694.36	-0.107816
2695.71	-0.138429
2697.05	0.338548
2698.4	0.425396
2699.75	-0.0798092
2701.09	0.299941
2702.44	0.246745
2703.78	0.238015
2705.13	0.229805
2706.48	0.0185986
2707.82	-0.0624242
2709.17	-0.0132179
2710.51	-0.167624
2711.86	0.31681
2713.2	-0.0268426
2714.54	0.283341
2715.89	0.390115
2717.23	0.19141
2718.57	0.152398
2719.92	0.331311
2721.26	0.0732732
2722.6	0.309603
2723.95	0.312643
2725.29	0.664615
2726.63	0.404903
2727.97	0.246807
2729.31	0.0739746
2730.65	0.119317
2732	0.120985
2733.34	-0.0372748
2734.68	0.241042
2736.02	0.170447
2737.36	0.0709229
2738.7	0.4077
2740.04	0.235253
2741.38	0.614942
2742.72	0.0780487
2744.05	-0.139484
2745.39	0.398016
2746.73	0.0924411
2748.07	0.440148
2749.41	0.134697
2750.75	0.134266
2752.08	-0.15587
2753.42	0.148633
2754.76	0.23579
2756.09	0.453386
2757.43	0.164235
2758.77	0.179486
2760.1	0.151682
2761.44	0.00858164
2762.78	-0.00380087
2764.11	0.157753
2765.44	0.57974
2766.78	0.060894
2768.11	-0.125941
2769.45	-0.0390797
2770.78	0.0897589
2772.12	-0.158288
2773.45	0.0404363
2774.78	-0.093267
2776.12	0.0325007
2777.45	-0.057487
2778.78	0.227081
2780.12	-0.134939
2781.45	-0.0509605
2782.78	0.0904055
2784.11	0.102473
2785.44	0.0571818
2786.78	0.255616
2788.11	0.21093
2789.44	0.524725
2790.77	0.38146
2792.1	0.196161
2793.43	0.168653
2794.76	-0.187496
2796.09	-0.000797272
2797.42	0.199595
2798.75	0.0423751
2800.08	0.0418911
2801.4	-0.0729523
2802.73	0.268415
2804.06	0.124679
2805.39	0.237078
2806.72	0.249155
2808.05	-0.109174
2809.37	0.285902
2810.7	0.296953
2812.03	0.12406
2813.35	-0.0475764
2814.68	0.165055
2816.01	0.0812349
2817.33	0.182738
2818.66	0.0154982
2819.98	0.259324
2821.31	0.361009
2822.63	0.320346
2823.96	0.236606
2825.28	-0.0315623
2826.61	0.507619
2827.93	-0.198887
2829.25	0.0296612
2830.58	0.315217
2831.9	0.685889
2833.23	0.631842
2834.55	0.393508
2835.87	0.650098
2837.19	0.467478
2838.52	0.892799
2839.84	1.07728
2841.16	0.625547
2842.48	0.980105
2843.8	1.32101
2845.12	1.56364
2846.44	1.48184
2847.77	1.73959
2849.08	2.1246
2850.4	1.92985
2851.73	2.01728
2853.05	2.11831
2854.36	1.78087
2855.68	2.00848
2857	2.06649
2858.32	2.0539
2859.64	1.91419
2860.96	2.2827
2862.28	2.35428
2863.59	2.58072
2864.91	2.48223
2866.23	2.97623
2867.55	2.48302
2868.86	3.16075
2870.18	3.57082
2871.5	3.38891
2872.81	3.74234
2874.13	3.72849
2875.44	3.69944
2876.76	3.6411
2878.07	4.25736
2879.39	3.42406
2880.7	3.50561
2882.02	3.72838
2883.33	3.34815
2884.65	3.5448
2885.96	3.44718
2887.28	3.72863
2888.59	3.75693
2889.9	3.85455
2891.21	4.07739
2892.53	3.73876
2893.84	3.98862
2895.15	4.00056
2896.46	3.9993
2897.78	4.11107
2899.09	4.1539
2900.4	4.22552
2901.71	4.57738
2903.02	4.56573
2904.33	4.21851
2905.64	4.2912
2906.95	4.7281
2908.26	4.78818
2909.57	5.19894
2910.88	5.37256
2912.19	5.23829
2913.5	5.76115
2914.81	5.87656
2916.12	5.96205
2917.43	5.98975
2918.73	6.03029
2920.04	6.44818
2921.35	6.32122
2922.66	6.69889
2923.96	6.23933
2925.27	6.75951
2926.58	6.84706
2927.88	7.08844
2929.19	7.13367
2930.5	7.02446
2931.8	6.95662
2933.11	7.32178
2934.41	6.91808
2935.72	7.12947
2937.02	6.8938
2938.33	6.97972
2939.63	6.95412
2940.94	6.34216
2942.24	6.62541
2943.54	6.16924
2944.85	6.25953
2946.15	5.83368
2947.45	5.38015
2948.76	5.19193
2950.06	5.43644
2951.36	5.48313
2952.66	4.95368
2953.97	5.36085
2955.27	4.80154
2956.57	5.02699
2957.87	4.87654
2959.17	4.57475
2960.47	4.4716
2961.77	4.84699
2963.07	4.98527
2964.37	4.22465
2965.67	4.14992
2966.97	4.18584
2968.27	4.15008
2969.57	4.18377
2970.87	3.99223
2972.17	4.12442
2973.47	3.483
2974.77	3.93914
2976.07	3.40927
2977.36	3.41301
2978.66	3.21789
2979.96	2.90844
2981.26	3.17475
2982.55	3.13075
2983.85	3.12921
2985.15	2.79138
2986.44	2.67996
2987.74	2.33106
2989.03	2.6576
2990.33	2.75955
2991.63	2.2707
2992.92	2.42726
2994.21	2.10474
2995.51	1.8093
2996.8	1.8643
2998.1	1.76458
2999.39	1.83344
3000.69	1.72038
3001.98	1.20143
3003.27	1.53788
3004.57	1.50997
3005.86	0.851567
3007.15	1.11693
3008.44	1.15733
3009.74	1.26669
3011.03	1.02578
3012.32	0.994149
3013.61	0.711356
3014.9	0.73597
3016.19	0.747166
3017.48	0.661503
3018.78	0.840721
3020.07	0.880673
3021.36	0.642118
3022.65	0.666906
3023.94	0.649029
3025.23	1.04629
3026.51	0.37597
3027.8	0.454464
3029.09	0.506073
3030.38	0.600325
3031.67	0.571469
3032.96	0.51593
3034.24	0.474459
3035.53	0.570414
3036.82	0.471972
3038.11	0.592356
3039.39	0.545518
3040.68	0.662132
3041.97	0.640187
3043.25	0.535867
3044.54	0.596736
3045.83	0.399092
3047.11	0.941402
3048.4	0.720557
3049.68	0.501856
3050.97	0.680387
3052.25	0.900516
3053.54	0.806735
3054.82	0.53491
3056.11	0.493986
3057.39	0.61555
3058.67	0.831477
3059.96	0.529344
3061.24	0.377462
3062.52	0.784144
3063.81	0.82458
3065.09	0.526499
3066.37	0.719083
3067.65	0.654209
3068.94	0.290426
3070.22	0.347822
3071.5	0.404341
3072.78	0.459613
3074.06	0.187305
3075.34	0.661543
3076.62	0.401496
3077.9	0.39983
3079.18	0.371881
3080.46	0.548678
3081.74	0.170638
3083.02	0.309114
3084.3	0.0818052
3085.58	0.505793
3086.86	0.264274
3088.14	0.347698
3089.42	0.0638776
3090.69	0.118811
3091.97	0.281973
3093.25	0.0517087
3094.53	-0.164773
3095.8	0.134161
3097.08	0.229587
3098.36	-0.244468
3099.63	0.284131
3100.91	0.256818
3102.19	0.0127387
3103.46	0.296891
3104.74	-0.0684853
3106.01	0.229915
3107.29	0.136503
3108.56	0.043889
3109.84	0.20926
3111.11	0.0505214
3112.39	0.0547786
3113.66	0.235448
3114.94	0.022984
3116.21	0.0132046
3117.48	0.0838647
3118.76	0.411088
3120.03	-0.171594
3121.3	0.0990915
3122.57	-0.0919213
3123.85	0.109693
3125.12	-0.000317574
3126.39	-0.150618
3127.66	-0.0704789
3128.93	0.1722
3130.21	0.320237
3131.48	-0.140151
3132.75	0.0210123
3134.02	-0.237181
3135.29	-0.225788
3136.56	-0.0667057
3137.83	-0.0163689
3139.1	-0.0205545
3140.37	0.0287323
3141.64	-0.0432687
3142.91	0.0192595
3144.17	0.21616
3145.44	0.0777335
3146.71	0.0069437
3147.98	-0.0633483
3149.25	-0.093061
