200.533	0.0592461
202.348	0.111517
204.162	0.165487
205.976	-0.727818
207.792	0.519073
209.605	0.645615
211.418	0.478096
213.23	0.113771
215.044	0.402464
216.856	0.907368
218.667	0.951141
220.478	0.705242
222.289	0.122374
224.102	0.0974827
225.912	-0.168476
227.721	0.362665
229.531	0.747393
231.34	0.261541
233.148	0.957273
234.956	1.04992
236.766	0.108156
238.574	-0.0585346
240.381	-0.172857
242.188	0.536255
243.994	-0.295965
245.801	-0.308914
247.606	0.375111
249.412	1.05416
251.217	0.157671
253.024	0.849258
254.828	-0.34482
256.632	0.221325
258.436	-0.392658
260.239	0.152845
262.042	0.123184
263.845	-0.0242481
265.647	1.27559
267.449	0.744614
269.25	0.501783
271.052	0.0883083
272.852	0.323359
274.653	0.0251446
276.453	-0.0351563
278.253	-0.0267181
280.052	0.363192
281.852	0.339493
283.65	0.696949
285.449	0.738565
287.247	0.322458
289.044	-0.164932
290.842	-0.267004
292.639	0.470917
294.436	0.22974
296.232	0.325998
298.028	-0.0540829
299.821	-0.313829
301.617	0.859102
303.412	0.286514
305.206	-0.216455
307	0.114031
308.794	0.848797
310.588	1.15483
312.381	0.772032
314.172	-0.036272
315.964	0.0873985
317.756	0.857164
319.548	0.0814648
321.34	0.451124
323.131	0.917805
324.921	0.45503
326.71	0.946779
328.5	0.339506
330.29	0.423401
332.079	0.481125
333.868	0.655207
335.654	0.418427
337.443	0.153397
339.231	0.650053
341.018	0.402079
342.804	0.0809822
344.591	0.811275
346.377	0.753628
348.163	0.458418
349.947	-0.0984688
351.733	0.466558
353.518	0.648367
355.303	0.112362
357.085	-0.401901
358.869	-0.632151
360.653	-0.2451
362.435	0.330004
364.218	0.165651
366.001	0.594042
367.781	-0.285278
369.563	0.281754
371.345	0.0169449
373.124	0.0825539
374.905	0.0527115
376.686	0.259007
378.464	0.489313
380.244	0.390965
382.022	-0.317087
383.801	0.31879
385.58	1.3793
387.357	0.772755
389.135	0.661983
390.911	-0.0811138
392.689	0.938711
394.466	0.386105
396.241	0.562113
398.018	-0.318611
399.792	0.209408
401.568	-0.2264
403.341	0.957218
405.117	0.800566
406.889	0.290266
408.664	0.225056
410.436	0.628683
412.21	0.1404
413.981	0.497751
415.755	0.433983
417.525	0.230881
419.298	0.732901
421.068	-0.43096
422.84	-0.0933113
424.609	0.290041
426.38	0.483894
428.149	-0.896666
429.919	0.163294
431.688	0.190292
433.455	0.170916
435.225	-0.692753
436.992	-0.148346
438.76	0.160046
440.527	-0.0271091
442.293	-0.100584
444.06	0.197111
445.826	0.186474
447.593	0.665106
449.357	-0.331076
451.122	0.053051
452.888	0.553793
454.651	0.564325
456.415	1.18073
458.18	0.305456
459.942	-0.358873
461.705	0.327713
463.469	-0.168921
465.23	0.291849
466.991	0.362791
468.752	0.601456
470.515	0.564745
472.275	0.203289
474.035	0.119406
475.797	0.358278
477.556	-0.105589
479.315	0.26576
481.073	-0.063467
482.834	0.12007
484.592	1.02784
486.349	-0.273592
488.106	0.292534
489.863	0.396637
491.622	0.736359
493.378	0.143278
495.134	1.46729
496.889	0.335625
498.645	0.372904
500.401	1.06608
502.156	0.116192
503.91	-0.202614
505.664	0.486748
507.417	1.05675
509.171	0.306913
510.923	0.447805
512.678	0.703436
514.43	0.438595
516.182	1.32397
517.933	0.53686
519.684	0.688734
521.435	0.909552
523.186	0.941387
524.936	1.04322
526.686	0.581944
528.435	0.777699
530.184	1.30112
531.933	-0.448629
533.682	1.07909
535.43	0.19339
537.18	0.778708
538.927	0.566538
540.674	0.888939
542.421	0.0678158
544.167	1.15553
545.913	0.49799
547.659	0.631426
549.403	-0.185328
551.148	0.736753
552.893	-0.355091
554.637	0.126925
556.381	-0.153217
558.125	0.651716
559.868	-0.179575
561.611	1.04032
563.354	-0.316679
565.097	0.30611
566.839	0.0564709
568.581	-0.650475
570.322	-0.253296
572.063	0.37561
573.802	0.778103
575.542	0.541737
577.283	0.515072
579.022	0.674622
580.762	0.238651
582.501	0.79059
584.24	0.652321
585.976	0.580994
587.714	0.0241451
589.452	0.0400524
591.19	-0.06077
592.927	0.0675621
594.663	0.632786
596.398	-0.182276
598.134	-0.284153
599.87	0.326509
601.605	0.107395
603.338	0.161976
605.073	-0.0391006
606.808	-0.518116
608.542	-0.286165
610.274	0.1978
612.007	0.039917
613.74	0.342268
615.473	-0.133526
617.204	0.124504
618.936	-0.259874
620.668	0.475681
622.397	0.315943
624.128	0.817717
625.859	-0.211596
627.588	0.155098
629.318	0.662157
631.048	0.215258
632.775	0.251516
634.505	0.312611
636.233	0.761143
637.96	0.453066
639.688	0.413731
641.416	0.459988
643.142	0.52437
644.869	0.58629
646.594	0.580616
648.32	-0.375999
650.045	0.264849
651.771	0.0493813
653.496	0.204914
655.219	-0.224504
656.944	-0.308863
658.667	0.47456
660.391	0.414509
662.113	0.328468
663.837	-0.059166
665.558	0.622856
667.281	0.798584
669.002	-0.101921
670.724	0.691605
672.444	0.711327
674.166	0.300692
675.885	-0.358683
677.606	-0.030365
679.325	1.0109
681.045	0.833796
682.763	-0.244349
684.483	1.27347
686.2	0.923473
687.917	1.12304
689.636	0.813824
691.352	0.157665
693.07	-0.223242
694.786	-0.513321
696.501	0.530504
698.219	0.00616264
699.933	0.239258
701.65	-0.219957
703.364	0.170044
705.078	1.01755
706.793	1.9087
708.506	0.710968
710.219	0.293468
711.934	1.18082
713.646	0.853872
715.358	-0.0669861
717.071	-0.0502205
718.782	1.08445
720.493	0.941212
722.204	1.04903
723.916	1.06574
725.626	0.900381
727.336	0.144253
729.045	0.795578
730.756	0.69672
732.464	1.14092
734.173	0.927786
735.881	1.30285
737.59	0.436037
739.297	1.26409
741.004	1.91234
742.711	0.489725
744.417	0.962513
746.125	1.82008
747.831	1.26256
749.537	2.21492
751.242	1.43784
752.946	1.85545
754.651	1.12852
756.357	1.21427
758.061	1.16797
759.764	1.05681
761.467	0.541784
763.17	1.69671
764.872	2.26573
766.575	2.08763
768.276	1.43103
769.978	1.78735
771.679	2.20776
773.382	2.08274
775.083	2.72569
776.783	2.05834
778.483	2.13971
780.182	2.51811
781.882	1.65459
783.581	3.00864
785.279	1.69
786.978	2.40387
788.676	2.09299
790.373	1.27846
792.071	2.13244
793.768	1.69491
795.464	2.00214
797.161	1.85989
798.857	1.94626
800.552	1.60837
802.248	1.13849
803.941	1.5923
805.636	1.25863
807.33	2.40666
809.024	1.70981
810.718	1.52777
812.412	2.03937
814.105	1.89937
815.798	2.87842
817.49	1.55198
819.183	1.32296
820.873	2.41213
822.564	2.27314
824.256	2.11366
825.947	2.13542
827.637	1.87179
829.328	2.50438
831.016	1.20524
832.705	2.31697
834.395	1.71729
836.084	1.1411
837.772	2.1261
839.459	1.2789
841.147	1.38856
842.835	1.65223
844.522	2.02688
846.209	0.771395
847.894	2.22404
849.581	1.93773
851.267	2.14845
852.953	1.46665
854.637	1.57052
856.322	1.15761
858.007	1.61868
859.689	1.04223
861.374	1.33978
863.058	1.58957
864.739	1.76953
866.423	1.36172
868.106	0.749544
869.787	1.46696
871.469	2.2517
873.151	0.893023
874.831	0.549219
876.512	0.837215
878.193	0.967342
879.872	1.36818
881.553	0.842823
883.231	0.383781
884.911	1.52549
886.591	1.468
888.268	1.0917
889.947	1.25389
891.623	0.872234
893.302	1.38936
894.978	1.58843
896.656	0.683584
898.331	1.39547
900.008	0.960052
901.683	1.59951
903.359	0.759541
905.033	0.681166
906.709	0.848925
908.383	0.883764
910.058	1.83314
911.731	1.46983
913.405	0.530724
915.078	0.748627
916.752	0.855261
918.423	0.806479
920.096	0.691568
921.768	0.666454
923.438	1.0193
925.111	1.02131
926.781	0.916462
928.452	1.58738
930.122	1.13493
931.791	0.375057
933.462	1.22627
935.13	0.577734
936.799	1.20935
938.468	0.828077
940.136	1.37548
941.803	0.645857
943.472	0.88817
945.139	1.32891
946.805	1.01702
948.473	0.326328
950.139	0.581249
951.804	1.20883
953.471	0.799646
955.136	0.87883
956.801	0.676641
958.465	-0.00483131
960.131	0.0906906
961.794	0.432087
963.458	0.176809
965.12	1.62107
966.785	0.937292
968.447	0.181511
970.109	0.196245
971.771	1.22688
973.432	1.13025
975.095	0.594215
976.756	0.924141
978.417	0.903097
980.077	1.38117
981.737	1.85867
983.396	1.10495
985.057	2.07402
986.716	2.50744
988.375	1.16702
990.033	1.37323
991.691	0.870781
993.349	1.31833
995.006	0.81637
996.663	0.69025
998.32	1.07133
999.976	1.60573
1001.63	1.05963
1003.29	0.535427
1004.95	1.77055
1006.6	1.5314
1008.26	1.24892
1009.91	0.813877
1011.56	0.402201
1013.22	1.78899
1014.87	0.677992
1016.53	0.72925
1018.18	0.715809
1019.83	0.835184
1021.48	1.24071
1023.14	1.14547
1024.79	0.462076
1026.44	1.59366
1028.09	1.37033
1029.74	1.23314
1031.39	0.634945
1033.04	1.62766
1034.69	1.85243
1036.34	2.11772
1037.99	1.74922
1039.64	1.46824
1041.29	1.38482
1042.94	1.78235
1044.58	1.16187
1046.23	1.89237
1047.88	1.14963
1049.52	0.996588
1051.17	1.36727
1052.82	1.00101
1054.46	0.809143
1056.11	0.617165
1057.75	0.685411
1059.4	0.687492
1061.04	1.21018
1062.69	0.839834
1064.33	0.18504
1065.98	0.115368
1067.62	0.891254
1069.26	0.274328
1070.9	0.395023
1072.55	-0.0706806
1074.19	-0.166191
1075.83	0.130753
1077.47	0.0614071
1079.11	0.406424
1080.76	0.449253
1082.4	0.210115
1084.04	0.164417
1085.68	0.419088
1087.32	0.821327
1088.95	0.87261
1090.59	0.357883
1092.23	1.35488
1093.87	1.35565
1095.51	0.55859
1097.15	0.325064
1098.78	0.116077
1100.42	1.11623
1102.06	0.677504
1103.69	0.844875
1105.33	0.670586
1106.97	0.820011
1108.6	0.495649
1110.24	-0.0887527
1111.87	0.678198
1113.51	0.00209808
1115.14	-0.138891
1116.77	0.555851
1118.41	-0.0577812
1120.04	0.530436
1121.67	0.263437
1123.31	0.0629654
1124.94	0.827282
1126.57	0.202574
1128.2	-0.227879
1129.83	0.861219
1131.47	1.0105
1133.1	0.967932
1134.72	0.433434
1136.36	0.581713
1137.98	-0.233644
1139.62	0.679302
1141.24	0.137798
1142.87	0.36404
1144.5	-0.177429
1146.13	0.263575
1147.76	-0.125025
1149.38	0.446978
1151.01	0.614914
1152.64	1.01699
1154.27	-0.15723
1155.89	-0.309977
1157.52	-0.292631
1159.14	-0.572348
1160.77	-0.467543
1162.39	0.128355
1164.02	0.811138
1165.64	0.21917
1167.27	-0.267046
1168.89	-0.500151
1170.51	0.0287838
1172.14	0.404886
1173.76	-0.029623
1175.38	0.891865
1177	0.00911713
1178.63	-0.257553
1180.25	-0.226175
1181.87	0.272251
1183.49	-0.391401
1185.11	0.234564
1186.73	0.0132751
1188.35	0.590868
1189.97	-0.0589085
1191.59	-0.0162106
1193.21	0.107613
1194.83	0.250549
1196.45	0.477024
1198.07	0.139507
1199.68	-0.0892029
1201.3	-0.835245
1202.92	0.199532
1204.53	0.0903187
1206.15	0.611189
1207.77	0.133036
1209.38	0.615004
1211	-0.114443
1212.62	-0.471491
1214.23	1.35549
1215.84	1.26001
1217.46	0.0586376
1219.07	0.457764
1220.69	0.544516
1222.3	0.611742
1223.91	1.32362
1225.53	1.08501
1227.14	1.40845
1228.75	0.8657
1230.36	0.656681
1231.97	1.38031
1233.59	1.25872
1235.2	2.19369
1236.81	1.39499
1238.42	1.38369
1240.03	0.443157
1241.64	1.44679
1243.25	2.26402
1244.85	0.990068
1246.46	1.6797
1248.07	2.34661
1249.68	2.03946
1251.29	1.42147
1252.9	1.9211
1254.5	0.953596
1256.11	1.29135
1257.72	1.03168
1259.32	1.56049
1260.93	1.82228
1262.54	1.79528
1264.14	1.83043
1265.75	1.92693
1267.35	1.33796
1268.96	1.76276
1270.56	1.31474
1272.16	1.83912
1273.77	1.88453
1275.37	2.19739
1276.97	2.23881
1278.57	1.94711
1280.18	2.3791
1281.78	1.92019
1283.38	2.72384
1284.98	2.51473
1286.58	2.12159
1288.18	2.04079
1289.78	2.47849
1291.38	2.15258
1292.99	2.75627
1294.58	2.284
1296.18	2.3256
1297.78	2.67352
1299.38	1.88298
1300.98	1.27601
1302.58	1.73868
1304.17	2.17808
1305.77	1.64895
1307.37	2.04405
1308.97	2.33515
1310.56	2.60517
1312.16	2.32273
1313.76	2.10377
1315.35	3.07235
1316.95	2.22421
1318.54	2.33737
1320.14	2.22581
1321.73	2.19403
1323.32	2.5458
1324.92	2.97455
1326.51	2.34382
1328.1	1.59206
1329.7	1.97717
1331.29	2.02084
1332.88	2.27093
1334.47	2.54538
1336.07	2.76222
1337.66	2.49587
1339.25	2.45011
1340.84	2.48154
1342.43	1.80428
1344.02	2.69223
1345.61	2.25101
1347.2	2.57318
1348.79	1.95681
1350.37	1.82684
1351.96	2.10214
1353.55	0.98181
1355.14	1.90339
1356.73	1.74615
1358.31	2.18739
1359.9	2.02736
1361.49	2.38424
1363.07	2.12071
1364.66	1.43818
1366.25	1.17538
1367.83	1.55169
1369.42	1.41253
1371	1.69419
1372.59	1.62032
1374.17	0.991539
1375.75	0.702297
1377.34	1.72654
1378.92	1.51605
1380.5	1.30356
1382.09	1.68537
1383.67	0.215061
1385.25	1.20877
1386.83	1.34644
1388.42	1.46447
1390	1.34554
1391.58	1.50628
1393.16	1.54946
1394.74	1.39501
1396.32	1.45836
1397.9	0.885954
1399.48	1.38201
1401.06	1.26183
1402.64	1.10108
1404.21	1.01962
1405.79	1.86862
1407.37	1.57223
1408.95	1.02091
1410.53	1.55727
1412.1	1.42183
1413.68	0.949741
1415.26	1.67984
1416.83	0.968021
1418.41	0.906672
1419.98	0.786987
1421.56	1.31927
1423.13	0.988159
1424.71	1.23112
1426.28	1.92915
1427.86	1.05362
1429.43	1.5553
1431	2.70466
1432.58	1.84421
1434.15	2.0446
1435.72	2.12603
1437.29	2.85667
1438.87	2.60568
1440.44	2.45508
1442.01	2.93536
1443.58	2.7292
1445.15	3.03483
1446.72	2.77086
1448.29	3.0576
1449.86	1.94917
1451.43	2.67001
1453	3.03818
1454.57	3.87941
1456.14	2.6746
1457.71	2.82585
1459.27	3.40751
1460.84	3.35579
1462.41	2.69036
1463.98	1.45181
1465.54	1.37201
1467.11	2.6863
1468.67	2.07595
1470.24	1.74273
1471.81	1.68665
1473.37	1.14237
1474.94	0.893929
1476.5	1.41102
1478.07	0.751926
1479.63	0.720142
1481.19	0.688194
1482.76	-0.0297737
1484.32	0.545391
1485.88	0.786655
1487.45	0.517118
1489.01	0.695515
1490.57	0.713692
1492.13	0.766781
1493.69	0.30785
1495.26	0.334286
1496.82	0.475576
1498.38	0.0324059
1499.94	0.291031
1501.5	0.648148
1503.06	0.134113
1504.62	0.300802
1506.17	0.351524
1507.73	0.768372
1509.29	0.680126
1510.85	0.184677
1512.41	0.594547
1513.97	0.155893
1515.52	0.314589
1517.08	1.3379
1518.64	0.0210323
1520.19	0.259706
1521.75	0.326038
1523.31	0.487141
1524.86	0.398209
1526.42	0.669821
1527.97	0.748585
1529.52	0.293747
1531.08	0.40976
1532.63	0.33688
1534.19	0.777153
1535.74	0.707729
1537.29	1.35822
1538.85	1.10276
1540.4	1.96105
1541.95	1.36737
1543.5	0.624117
1545.06	0.615166
1546.61	1.22561
1548.16	1.3467
1549.71	1.16761
1551.26	2.26247
1552.81	1.09291
1554.36	0.805748
1555.91	1.58624
1557.46	1.62264
1559.01	1.8868
1560.56	2.06134
1562.11	1.84733
1563.65	1.95265
1565.2	1.85387
1566.75	1.38199
1568.29	2.53332
1569.84	2.47084
1571.39	1.4929
1572.94	2.54908
1574.48	2.46631
1576.03	2.23426
1577.57	3.08542
1579.12	2.61199
1580.66	2.98001
1582.21	2.6214
1583.75	2.73137
1585.3	3.16064
1586.84	2.54424
1588.38	2.43263
1589.93	2.75085
1591.47	2.86251
1593.01	2.0183
1594.55	2.22195
1596.1	2.14479
1597.64	3.08053
1599.18	2.12456
1600.72	2.23841
1602.26	2.84126
1603.8	2.80618
1605.34	2.20603
1606.88	2.05375
1608.42	2.46144
1609.96	2.5075
1611.5	2.13559
1613.04	2.41743
1614.58	2.24602
1616.12	2.37413
1617.65	2.59678
1619.19	1.90359
1620.73	1.70083
1622.27	1.78165
1623.8	2.27586
1625.34	1.70299
1626.87	1.6341
1628.41	1.88082
1629.95	1.69459
1631.48	1.05806
1633.02	2.79359
1634.55	2.51176
1636.09	1.35498
1637.62	2.58812
1639.15	2.40469
1640.69	2.83642
1642.22	2.16745
1643.76	3.07959
1645.29	2.10888
1646.82	2.2534
1648.35	2.7316
1649.88	2.24443
1651.42	2.87322
1652.95	2.85468
1654.48	3.33897
1656.01	2.91601
1657.54	2.60431
1659.07	3.05063
1660.6	3.38285
1662.13	2.86076
1663.66	3.11353
1665.19	2.58909
1666.72	3.19198
1668.24	3.29831
1669.77	2.87305
1671.3	2.65384
1672.83	2.14224
1674.35	2.79193
1675.88	1.71021
1677.41	2.19194
1678.93	2.32165
1680.46	1.75054
1681.99	1.8585
1683.51	1.34142
1685.04	2.45829
1686.56	2.01571
1688.09	1.72117
1689.61	1.3178
1691.13	0.915314
1692.66	0.696367
1694.18	2.0871
1695.71	0.642483
1697.23	1.64728
1698.75	1.00682
1700.27	0.457556
1701.8	0.874607
1703.32	0.542826
1704.84	0.683966
1706.36	0.15086
1707.88	0.308935
1709.4	1.04779
1710.92	0.442678
1712.44	0.763641
1713.96	0.196661
1715.48	0.42721
1717	0.0242043
1718.52	0.597515
1720.04	0.664143
1721.56	-0.351505
1723.07	0.203926
1724.59	0.490171
1726.11	0.0402641
1727.63	-0.0108242
1729.14	0.299772
1730.66	0.0340023
1732.18	0.425861
1733.69	1.16247
1735.21	0.125435
1736.72	0.356541
1738.24	0.0983143
1739.75	-0.263313
1741.27	0.558168
1742.78	0.361532
1744.3	0.126436
1745.81	-0.057888
1747.32	0.621328
1748.84	0.0429745
1750.35	0.0524597
1751.86	-0.394335
1753.37	-0.35729
1754.89	-0.215385
1756.4	-0.0169449
1757.91	-0.00213623
1759.42	-0.140284
1760.93	-0.310865
1762.44	-0.0568352
1763.95	0.216915
1765.46	0.237392
1766.97	0.108686
1768.48	0.371614
1769.99	-0.00722694
1771.5	0.0617466
1773.01	0.0456028
1774.52	0.123716
1776.03	-0.110018
1777.53	0.0159321
1779.04	0.0857773
1780.55	0.280441
1782.06	-0.259003
1783.56	-0.476316
1785.07	0.295517
1786.57	-0.110998
1788.08	0.0378971
1789.59	-0.296497
1791.09	0.222984
1792.6	-0.178633
1794.1	-0.317635
1795.6	0.026432
1797.11	0.0774956
1798.61	0.375851
1800.12	0.139387
1801.62	0.491081
1803.12	0.0380554
1804.63	0.265741
1806.13	0.194126
1807.63	0.191805
1809.13	0.325666
1810.63	-0.197077
1812.14	0.204987
1813.64	-0.345751
1815.14	-0.249716
1816.64	0.355379
1818.14	0.430901
1819.64	0.0889492
1821.14	-0.200157
1822.64	0.282358
1824.14	0.435024
1825.63	0.211601
1827.13	-0.0532398
1828.63	0.284073
1830.13	-0.121672
1831.63	0.35713
1833.12	0.044838
1834.62	0.443174
1836.12	0.584608
1837.62	0.361479
1839.11	-0.00570297
1840.61	-0.06003
1842.1	0.164362
1843.6	0.317322
1845.09	-0.217579
1846.59	0.337696
1848.08	0.530535
1849.58	0.197632
1851.07	-0.0200291
1852.57	0.248905
1854.06	0.117279
1855.55	0.195963
1857.04	0.164957
1858.54	0.240541
1860.03	0.0192108
1861.52	0.609768
1863.01	-0.115843
1864.5	0.399961
1866	0.311285
1867.49	0.391979
1868.98	0.139688
1870.47	0.226688
1871.96	-0.0524101
1873.45	0.0302734
1874.94	0.464811
1876.43	-0.133018
1877.92	-0.0169888
1879.41	-0.101362
1880.89	0.347168
1882.38	0.583618
1882.48	0.597677
1883.97	0.112101
1885.47	0.148224
1886.96	0.00853348
1888.46	0.668795
1889.95	0.128145
1891.44	0.546278
1892.94	0.914923
1894.43	-0.173477
1895.92	0.270969
1897.41	-0.0480938
1898.9	0.241392
1900.4	0.285603
1901.89	0.570383
1903.38	0.0169868
1904.87	0.486961
1906.36	0.676985
1907.85	-0.0536633
1909.34	0.553988
1910.83	0.347357
1912.32	0.645582
1913.81	-0.303995
1915.29	0.203568
1916.78	0.328924
1918.27	0.435904
1919.76	0.593946
1921.25	0.0415192
1922.74	0.234718
1924.22	-0.0207386
1925.71	0.0721188
1927.2	0.0284061
1928.68	0.418726
1930.17	0.67058
1931.65	0.470766
1933.14	-0.285759
1934.63	0.287785
1936.11	0.598278
1937.59	-0.0275097
1939.08	-0.204113
1940.56	0.466093
1942.05	-0.278116
1943.53	-0.0192299
1945.01	-0.155607
1946.5	0.536266
1947.98	0.193298
1949.46	0.676128
1950.94	0.20969
1952.43	0.550823
1953.91	-0.00374413
1955.39	0.542019
1956.87	0.555386
1958.35	0.0722523
1959.83	0.620214
1961.31	0.294182
1962.79	0.705826
1964.27	0.414349
1965.75	0.276344
1967.23	0.6507
1968.71	0.698389
1970.19	-0.126841
1971.67	0.397989
1973.14	0.546421
1974.62	0.780083
1976.1	-0.298678
1977.58	-0.13227
1979.05	-0.0340061
1980.53	0.0810852
1982.01	0.331694
1983.48	0.496487
1984.96	0.337914
1986.43	0.00950813
1987.91	0.664501
1989.38	-0.357481
1990.86	0.0954323
1992.33	-0.0425453
1993.81	-0.0602818
1995.28	0.295221
1996.76	0.634384
1998.23	0.449734
1999.7	0.686493
2001.18	-0.0905552
2002.65	0.447828
2004.12	0.294205
2005.59	0.174992
2007.06	-0.0102072
2008.54	-0.395709
2010.01	0.718816
2011.48	0.0832863
2012.95	0.525223
2014.42	0.781166
2015.89	0.429917
2017.36	-0.326406
2018.83	0.732002
2020.3	0.544999
2021.77	0.425062
2023.24	0.389723
2024.71	0.0537739
2026.17	0.189764
2027.64	0.36176
2029.11	0.301569
2030.58	0.109529
2032.04	0.489652
2033.51	0.719833
2034.98	0.379174
2036.45	-0.147167
2037.91	0.971936
2039.38	-0.161263
2040.84	0.839789
2042.31	0.547262
2043.77	0.827732
2045.24	0.689365
2046.7	0.670088
2048.17	0.56712
2049.63	0.497188
2051.1	0.475973
2052.56	0.839871
2054.02	0.289847
2055.48	0.984599
2056.95	0.580733
2058.41	0.377869
2059.87	0.68014
2061.33	0.275688
2062.8	0.276883
2064.26	0.784719
2065.72	0.183542
2067.18	-0.0122461
2068.64	0.651339
2070.1	0.877978
2071.56	0.784904
2073.02	0.641028
2074.48	0.63134
2075.94	1.1936
2077.4	0.475344
2078.86	0.514165
2080.31	0.838411
2081.77	0.824854
2083.23	1.0289
2084.69	0.491051
2086.14	0.810136
2087.6	0.572948
2089.06	0.688138
2090.52	1.28994
2091.97	1.45446
2093.43	1.16558
2094.88	0.524347
2096.34	0.570159
2097.79	0.815705
2099.25	1.26058
2100.7	1.48674
2102.16	1.37869
2103.61	0.838123
2105.07	0.217025
2106.52	1.0837
2107.97	1.15116
2109.43	0.78568
2110.88	1.30298
2112.33	1.25098
2113.78	0.679673
2115.24	1.5373
2116.69	1.24465
2118.14	1.35166
2119.59	1.84263
2121.04	1.35774
2122.49	1.24164
2123.94	1.47647
2125.39	1.76222
2126.84	1.36771
2128.29	1.70088
2129.74	1.48448
2131.19	1.21619
2132.64	1.80745
2134.09	2.06702
2135.54	2.24505
2136.98	1.96283
2138.43	1.81635
2139.88	2.20222
2141.33	2.47553
2142.77	2.65204
2144.22	2.48254
2145.67	2.34627
2147.11	1.96097
2148.56	2.58453
2150.01	2.54414
2151.45	2.73379
2152.9	3.07069
2154.34	2.71007
2155.79	1.93442
2157.23	2.86521
2158.67	3.05177
2160.12	2.62788
2161.56	3.10192
2163	3.19851
2164.45	2.78391
2165.89	2.10471
2167.33	3.23534
2168.78	2.83605
2170.22	3.04835
2171.66	2.85752
2173.1	3.37825
2174.54	2.96469
2175.98	2.64987
2177.42	2.25233
2178.86	2.68752
2180.3	3.05797
2181.74	2.71516
2183.18	2.93877
2184.62	2.08186
2186.06	2.53898
2187.5	2.08115
2188.94	3.17094
2190.38	3.1625
2191.82	2.22122
2193.25	2.6936
2194.69	2.66406
2196.13	1.9986
2197.57	2.82739
2199	1.59017
2200.44	1.89794
2201.88	2.63655
2203.31	1.56685
2204.75	1.79376
2206.18	1.90626
2207.62	2.40069
2209.05	2.1492
2210.49	2.1117
2211.92	1.77463
2213.36	2.01513
2214.79	1.66038
2216.22	1.43917
2217.66	1.50066
2219.09	1.20148
2220.52	1.36564
2221.96	1.46404
2223.39	0.869184
2224.82	1.29342
2226.25	1.45082
2227.68	1.14463
2229.11	1.64147
2230.55	1.18426
2231.98	1.26841
2233.41	1.45103
2234.84	1.11131
2236.27	0.855947
2237.7	1.32204
2239.12	1.36665
2240.55	1.46373
2241.98	1.07472
2243.41	0.802135
2244.84	1.11738
2246.27	1.54572
2247.7	0.845874
2249.12	1.15341
2250.55	1.0168
2251.98	1.10512
2253.41	0.882741
2254.83	0.856169
2256.26	0.832083
2257.68	0.649795
2259.11	0.764525
2260.54	0.770724
2261.96	1.04088
2263.39	1.39535
2264.81	0.743314
2266.24	0.756559
2267.66	0.443082
2269.08	0.827541
2270.51	0.592232
2271.93	0.893219
2273.35	0.965993
2274.78	0.941176
2276.2	0.509353
2277.62	0.778408
2279.04	0.65646
2280.47	1.05615
2281.89	1.08067
2283.31	1.02344
2284.73	0.297174
2286.15	0.713486
2287.57	0.95104
2288.99	0.797502
2290.41	0.88966
2291.83	0.361182
2293.25	0.879116
2294.67	1.03751
2296.09	0.721203
2297.51	0.912148
2298.93	0.218673
2300.35	0.541039
2301.76	0.978962
2303.18	0.810805
2304.6	0.954608
2306.02	0.901353
2307.44	0.469528
2308.85	0.184313
2310.27	0.292527
2311.69	0.317863
2313.1	0.145672
2314.52	0.796987
2315.93	0.791394
2317.35	0.836576
2318.76	0.421043
2320.18	0.285068
2321.59	0.246134
2323.01	0.171018
2324.42	0.818121
2325.83	0.537129
2327.25	0.896532
2328.66	0.347704
2330.07	0.722158
2331.49	0.0605106
2332.9	0.866016
2334.31	0.191697
2335.72	0.209061
2337.13	0.110561
2338.55	0.618793
2339.96	0.00720787
2341.37	0.314322
2342.78	-0.0198917
2344.19	-0.222541
2345.6	0.165514
2347.01	0.258733
2348.42	-0.286506
2349.83	0.885989
2351.24	-0.167645
2352.65	0.853027
2354.05	0.32004
2355.46	0.324818
2356.87	-0.0943718
2358.28	-0.0735655
2359.69	0.207331
2361.09	0.406644
2362.5	0.686573
2363.91	0.285493
2365.31	0.0631161
2366.72	0.18091
2368.13	-0.0557585
2369.53	-0.128965
2370.94	0.138624
2372.34	0.166461
2373.75	0.228196
2375.15	-0.208427
2376.56	0.384459
2377.96	0.379964
2379.37	0.372838
2380.77	-0.31136
2382.17	-0.242847
2383.58	0.12828
2384.98	0.258113
2386.38	0.132652
2387.79	0.00895596
2389.19	0.55717
2390.59	-0.534356
2391.99	0.0333986
2393.39	0.0929813
2394.8	-0.418645
2396.2	0.406771
2397.6	0.104288
2399	0.216069
2400.4	-0.132046
2401.8	0.0923014
2403.2	0.0308075
2404.6	0.540352
2406	0.381503
2407.4	0.443303
2408.79	0.551256
2410.19	0.135396
2411.59	0.116385
2412.99	-0.122982
2414.39	0.399863
2415.78	0.180985
2417.18	0.138536
2418.58	0.113483
2419.98	0.326634
2421.37	0.00112152
2422.77	0.482891
2424.16	-0.33493
2425.56	0.0989904
2426.96	0.613128
2428.35	0.336313
2429.74	0.0450811
2431.14	0.230811
2432.53	0.163006
2433.93	-0.66801
2435.32	0.563848
2436.72	0.188951
2438.11	0.637609
2439.5	0.480274
2440.9	0.30553
2442.29	0.4157
2443.68	0.525284
2445.07	0.396548
2446.47	0.394497
2447.86	0.202048
2449.25	-0.180338
2450.64	0.308824
2452.03	0.00710773
2453.42	0.545513
2454.81	0.294143
2456.2	0.186419
2457.59	0.269097
2458.98	-0.0280647
2460.37	0.227415
2461.76	-0.230026
2463.15	0.354649
2464.54	0.211128
2465.93	-0.122305
2467.32	-0.439821
2468.7	0.363132
2470.09	-0.159743
2471.48	0.530904
2472.87	0.0223694
2474.25	0.30034
2475.64	-0.005229
2477.03	-0.0594635
2478.41	0.0590467
2479.8	0.209025
2481.18	0.202271
2482.57	-0.368605
2483.95	-0.266129
2485.34	0.0224342
2486.72	0.121066
2488.11	0.358072
2489.49	0.125665
2490.88	-0.0130482
2492.26	0.129261
2493.65	-0.022007
2495.03	-0.4034
2496.41	-0.11556
2497.79	0.235256
2499.18	0.292001
2500.56	-0.069479
2501.94	0.263807
2503.32	-0.269811
2504.7	-0.310254
2506.09	0.0798082
2507.47	-0.20862
2508.85	-0.542329
2510.23	0.108267
2511.61	0.0528574
2512.99	-0.139089
2514.37	-0.482433
2515.75	-0.165683
2517.13	0.0448847
2518.51	-0.34011
2519.89	-0.00617027
2521.26	0.296474
2522.64	-0.0281067
2524.02	0.0429449
2525.4	0.387027
2526.78	-0.381552
2528.15	-0.037487
2529.53	-0.0266457
2530.91	0.184395
2532.28	0.0486593
2533.66	-0.0543194
2535.04	0.223784
2536.41	0.213208
2537.79	-0.0566711
2539.16	-0.0394506
2540.54	-0.327261
2541.91	0.264815
2543.29	-0.281001
2544.66	0.479406
2546.04	0.286117
2547.41	0.443818
2548.78	-0.216206
2550.16	0.216286
2551.53	0.101818
2552.9	0.35008
2554.27	0.2172
2555.65	0.0980272
2557.02	0.2965
2558.39	-0.0512371
2559.76	0.283831
2561.13	-0.0320597
2562.51	0.638282
2563.88	-0.751374
2565.25	0.557159
2566.62	0.0779734
2567.99	0.386997
2569.36	0.286884
2570.73	0.0352135
2572.1	-0.140602
2573.47	-0.255651
2574.84	0.0387812
2576.2	-0.0608444
2577.57	-0.312196
2578.94	0.163908
2580.31	0.457535
2581.68	-0.0834703
2583.05	0.345332
2584.41	0.364349
2585.78	0.140761
2587.15	0.190256
2588.51	0.421952
2589.88	0.335602
2591.24	-0.266126
2592.61	0.0861158
2593.98	0.118823
2595.34	-0.13788
2596.71	-0.123596
2598.07	-0.670358
2599.44	0.808873
2600.8	0.246658
2602.16	0.320221
2603.53	0.24392
2604.89	0.410112
2606.26	-0.117317
2607.62	0.109109
2608.98	-0.103081
2610.34	-0.0458508
2611.71	0.265006
2613.07	-0.268671
2614.43	-0.532171
2615.79	0.374914
2617.15	-0.158567
2618.52	-0.105924
2619.88	-0.246595
2621.24	0.122587
2622.6	-0.0158815
2623.96	0.189713
2625.32	0.454689
2626.68	-0.0267
2628.04	-0.0906782
2629.4	-0.303931
2630.75	0.375535
2632.11	-0.29908
2633.47	-0.0813913
2634.83	0.121092
2636.19	0.441874
2637.55	0.287959
2638.9	0.697054
2640.26	0.247696
2641.62	-0.14138
2642.98	-0.174833
2644.33	0.456419
2645.69	0.496604
2647.04	0.536103
2648.4	0.132521
2649.76	0.0962257
2651.11	0.10299
2652.47	0.432329
2653.82	-0.03088
2655.18	0.578059
2656.53	0.089385
2657.88	0.291291
2659.24	0.289714
2660.59	-0.339848
2661.95	-0.121321
2663.3	-0.239877
2664.65	0.0345516
2666	0.336545
2667.36	0.141776
2668.71	0.0345554
2670.06	-0.144781
2671.41	-0.163028
2672.76	0.124944
2674.12	-0.167253
2675.47	0.282086
2676.82	0.166157
2678.17	0.0804367
2679.52	-0.0328445
2680.87	0.305077
2682.22	0.152036
2683.57	0.0444412
2684.92	0.518621
2686.27	0.428064
2687.62	0.496941
2688.97	-0.0312805
2690.31	0.120028
2691.66	0.152233
2693.01	0.457584
2694.36	0.311499
2695.71	0.36815
2697.05	0.193987
2698.4	0.152417
2699.75	0.186029
2701.09	0.468711
2702.44	0.609196
2703.78	0.0705509
2705.13	0.416677
2706.48	0.647216
2707.82	0.485782
2709.17	0.846162
2710.51	0.465558
2711.86	0.767031
2713.2	0.50176
2714.54	0.294374
2715.89	0.348513
2717.23	0.78063
2718.57	0.55792
2719.92	0.640105
2721.26	0.54694
2722.6	0.627639
2723.95	0.314576
2725.29	0.466582
2726.63	0.923637
2727.97	-0.0898209
2729.31	0.482751
2730.65	0.647556
2732	0.361284
2733.34	0.758943
2734.68	0.705931
2736.02	0.958728
2737.36	1.28449
2738.7	0.78125
2740.04	0.801222
2741.38	0.180655
2742.72	0.649578
2744.05	0.826468
2745.39	0.145075
2746.73	0.959267
2748.07	1.04669
2749.41	0.727882
2750.75	0.453202
2752.08	0.222677
2753.42	0.456493
2754.76	0.791888
2756.09	0.649359
2757.43	0.362407
2758.77	0.510329
2760.1	0.441745
2761.44	0.171403
2762.78	0.451782
2764.11	0.298599
2765.44	0.463759
2766.78	0.179726
2768.11	0.660934
2769.45	-0.00248432
2770.78	0.690831
2772.12	0.702287
2773.45	0.668713
2774.78	0.475695
2776.12	1.06077
2777.45	0.594859
2778.78	0.5333
2780.12	0.357759
2781.45	0.283551
2782.78	0.209616
2784.11	0.666359
2785.44	0.405856
2786.78	0.632984
2788.11	0.459859
2789.44	0.817598
2790.77	0.518647
2792.1	0.349895
2793.43	-0.00382614
2794.76	0.843242
2796.09	0.760636
2797.42	0.820024
2798.75	-0.10676
2800.08	0.6792
2801.4	0.536766
2802.73	0.693592
2804.06	0.493579
2805.39	0.577946
2806.72	0.461968
2808.05	0.729152
2809.37	0.327264
2810.7	0.309456
2812.03	0.746746
2813.35	0.476192
2814.68	0.222432
2816.01	0.495606
2817.33	0.458733
2818.66	1.03231
2819.98	0.769689
2821.31	0.917383
2822.63	0.808869
2823.96	0.911872
2825.28	0.235185
2826.61	0.819226
2827.93	0.370285
2829.25	1.11155
2830.58	1.01826
2831.9	0.826271
2833.23	0.889001
2834.55	1.27676
2835.87	1.30982
2837.19	1.24294
2838.52	1.52901
2839.84	1.34789
2841.16	1.69012
2842.48	1.7219
2843.8	1.93844
2845.12	2.50945
2846.44	2.31834
2847.77	2.74969
2849.08	2.77124
2850.4	3.15979
2851.73	2.43093
2853.05	2.86018
2854.36	3.45823
2855.68	2.8831
2857	3.2687
2858.32	3.69664
2859.64	3.65837
2860.96	3.8881
2862.28	3.15722
2863.59	4.14793
2864.91	4.65793
2866.23	4.9842
2867.55	4.50685
2868.86	5.01745
2870.18	4.56993
2871.5	5.1941
2872.81	5.31024
2874.13	6.11546
2875.44	5.65063
2876.76	5.74737
2878.07	6.02547
2879.39	5.96519
2880.7	6.39742
2882.02	5.74883
2883.33	6.184
2884.65	5.89047
2885.96	5.76658
2887.28	5.44638
2888.59	6.05167
2889.9	6.20637
2891.21	5.84064
2892.53	6.10481
2893.84	6.41042
2895.15	6.17023
2896.46	6.29552
2897.78	6.24058
2899.09	6.5232
2900.4	6.77911
2901.71	6.54619
2903.02	6.99902
2904.33	7.0324
2905.64	7.80753
2906.95	7.18485
2908.26	7.66856
2909.57	7.70613
2910.88	7.6747
2912.19	8.63704
2913.5	8.45039
2914.81	8.3032
2916.12	8.86691
2917.43	9.48353
2918.73	9.73412
2920.04	9.38273
2921.35	10.7245
2922.66	9.81719
2923.96	10.6599
2925.27	10.596
2926.58	11.2042
2927.88	11.0297
2929.19	10.8125
2930.5	10.7619
2931.8	11.3255
2933.11	10.9379
2934.41	11.4867
2935.72	11.2389
2937.02	10.5862
2938.33	11.0237
2939.63	10.1342
2940.94	10.2795
2942.24	10.4683
2943.54	9.12171
2944.85	9.85992
2946.15	9.81748
2947.45	8.95057
2948.76	8.47442
2950.06	8.24797
2951.36	8.43841
2952.66	8.30344
2953.97	8.47394
2955.27	7.87366
2956.57	7.58281
2957.87	7.75717
2959.17	7.88012
2960.47	8.06392
2961.77	7.66273
2963.07	7.51483
2964.37	7.08494
2965.67	6.90486
2966.97	7.00277
2968.27	6.55004
2969.57	6.39092
2970.87	6.41423
2972.17	6.57861
2973.47	6.19475
2974.77	5.96541
2976.07	5.91786
2977.36	5.93845
2978.66	5.63217
2979.96	5.36513
2981.26	5.30692
2982.55	5.27575
2983.85	4.71074
2985.15	5.08947
2986.44	4.71163
2987.74	3.99897
2989.03	4.14506
2990.33	4.53045
2991.63	4.24035
2992.92	3.94837
2994.21	3.41533
2995.51	3.20362
2996.8	2.63969
2998.1	2.21608
2999.39	3.25188
3000.69	2.18431
3001.98	3.05261
3003.27	2.47763
3004.57	2.07113
3005.86	2.29449
3007.15	2.32058
3008.44	2.14923
3009.74	1.73875
3011.03	2.2636
3012.32	1.6
3013.61	1.74637
3014.9	1.51662
3016.19	1.85928
3017.48	1.54822
3018.78	1.5304
3020.07	1.29005
3021.36	1.24372
3022.65	1.20981
3023.94	1.24358
3025.23	1.58086
3026.51	1.21052
3027.8	1.36722
3029.09	1.27637
3030.38	1.20169
3031.67	1.70933
3032.96	1.14134
3034.24	1.09854
3035.53	0.654701
3036.82	0.981194
3038.11	1.82769
3039.39	1.19668
3040.68	1.45768
3041.97	1.00247
3043.25	1.069
3044.54	1.53339
3045.83	1.16509
3047.11	1.18334
3048.4	1.5192
3049.68	1.12111
3050.97	1.25781
3052.25	1.36837
3053.54	1.00122
3054.82	1.76521
3056.11	1.24488
3057.39	1.59534
3058.67	1.41247
3059.96	1.28355
3061.24	1.23675
3062.52	1.0961
3063.81	1.31106
3065.09	1.31071
3066.37	1.25808
3067.65	1.08451
3068.94	0.952139
3070.22	1.47192
3071.5	1.10605
3072.78	1.11875
3074.06	0.598936
3075.34	1.11041
3076.62	0.398287
3077.9	1.20744
3079.18	1.04045
3080.46	0.91645
3081.74	0.754086
3083.02	0.525678
3084.3	0.284509
3085.58	0.721694
3086.86	0.0993233
3088.14	0.71067
3089.42	0.533361
3090.69	0.572159
3091.97	0.379762
3093.25	-0.111019
3094.53	0.415644
3095.8	0.508389
3097.08	0.695842
3098.36	0.489764
3099.63	0.730397
3100.91	0.740145
3102.19	-0.0628881
3103.46	0.474955
3104.74	0.200894
3106.01	0.442055
3107.29	0.616667
3108.56	0.373125
3109.84	0.712989
3111.11	0.20133
3112.39	0.39461
3113.66	0.168365
3114.94	0.226309
3116.21	0.635809
3117.48	0.189296
3118.76	0.391649
3120.03	0.781657
3121.3	0.667904
3122.57	0.17337
3123.85	0.342291
3125.12	1.01193
3126.39	0.449737
3127.66	0.592045
3128.93	0.531874
3130.21	-0.0147991
3131.48	0.41189
3132.75	0.24313
3134.02	0.316616
3135.29	-0.0432186
3136.56	0.0547371
3137.83	0.232174
3139.1	0.462154
3140.37	0.179558
3141.64	0.00464821
3142.91	-0.344628
3144.17	0.0990953
3145.44	-0.409799
3146.71	0.329391
3147.98	-0.177678
3149.25	0.186673
