200.533	0.335681
202.348	0.358879
204.162	0.38289
205.976	0.675036
207.792	0.383574
209.605	0.164656
211.418	-0.176513
213.23	0.598053
215.044	0.109342
216.856	0.662887
218.667	0.973369
220.478	0.533576
222.289	0.19173
224.102	0.406919
225.912	0.549715
227.721	-0.0323696
229.531	0.423871
231.34	-0.472403
233.148	0.127446
234.956	0.244677
236.766	0.555603
238.574	-0.0478783
240.381	-0.69775
242.188	0.0762358
243.994	-0.209736
245.801	0.420961
247.606	0.350583
249.412	-0.0360327
251.217	-0.207886
253.024	-0.116343
254.828	0.45612
256.632	0.42485
258.436	0.514702
260.239	0.557586
262.042	-0.000292778
263.845	0.743947
265.647	0.332572
267.449	0.451411
269.25	0.859209
271.052	0.639518
272.852	0.418725
274.653	0.269021
276.453	0.0215416
278.253	0.158214
280.052	-0.212671
281.852	0.137294
283.65	0.196613
285.449	0.879257
287.247	-0.048151
289.044	0.464794
290.842	0.162886
292.639	0.197545
294.436	0.11372
296.232	0.413595
298.028	-0.576545
299.821	0.130553
301.617	0.502621
303.412	0.730411
305.206	0.670542
307	0.705316
308.794	0.549124
310.588	0.131433
312.381	0.691461
314.172	0.442883
315.964	0.55299
317.756	0.49782
319.548	0.467633
321.34	0.41447
323.131	0.051796
324.921	0.142358
326.71	-0.0773778
328.5	0.323596
330.29	0.676648
332.079	0.431084
333.868	0.231728
335.654	0.293759
337.443	0.521454
339.231	0.771261
341.018	0.42174
342.804	0.310845
344.591	0.415025
346.377	-0.00596571
348.163	0.242379
349.947	0.872896
351.733	1.12125
353.518	0.223617
355.303	0.327476
357.085	0.644741
358.869	0.793756
360.653	0.27482
362.435	0.0889859
364.218	-0.0258465
366.001	0.452824
367.781	0.312886
369.563	0.694123
371.345	0.292227
373.124	0.0798893
374.905	-0.226799
376.686	0.104544
378.464	0.176175
380.244	-0.104993
382.022	0.274219
383.801	0.606808
385.58	0.28182
387.357	-0.135909
389.135	0.481063
390.911	0.487861
392.689	0.0725837
394.466	-0.0134282
396.241	0.206104
398.018	-0.231895
399.792	0.128461
401.568	0.770352
403.341	0.801009
405.117	0.290865
406.889	0.41425
408.664	-0.00288153
410.436	-0.138442
412.21	-0.0861816
413.981	-0.0805697
415.755	0.324447
417.525	0.237322
419.298	-0.130931
421.068	0.111115
422.84	-0.0695124
424.609	0.617886
426.38	0.107296
428.149	0.417699
429.919	-0.0938644
431.688	0.0752807
433.455	-0.13087
435.225	0.132627
436.992	0.419557
438.76	-0.115499
440.527	0.193177
442.293	0.406278
444.06	-0.179588
445.826	0.311467
447.593	0.683762
449.357	0.143104
451.122	0.444527
452.888	-0.164677
454.651	0.253536
456.415	0.531228
458.18	0.622062
459.942	0.433592
461.705	-0.00982523
463.469	0.129519
465.23	0.874731
466.991	0.367424
468.752	0.838302
470.515	0.380885
472.275	0.412078
474.035	0.442695
475.797	0.285601
477.556	0.615921
479.315	0.106204
481.073	-0.00822067
482.834	0.27344
484.592	0.0203233
486.349	0.39762
488.106	0.194161
489.863	0.038682
491.622	0.607454
493.378	0.52349
495.134	0.462923
496.889	0.285123
498.645	0.505099
500.401	0.983087
502.156	0.146935
503.91	-0.197951
505.664	-0.144591
507.417	0.472203
509.171	0.52372
510.923	0.503395
512.678	0.270026
514.43	0.176677
516.182	0.482223
517.933	0.622036
519.684	0.173275
521.435	0.734649
523.186	0.355752
524.936	0.352628
526.686	0.161833
528.435	0.487072
530.184	-0.102031
531.933	0.199186
533.682	-0.202758
535.43	0.190207
537.18	0.534724
538.927	1.06424
540.674	-0.0406775
542.421	0.649779
544.167	0.128619
545.913	0.375451
547.659	0.227324
549.403	0.172472
551.148	0.279993
552.893	0.017354
554.637	0.217535
556.381	0.232865
558.125	0.479071
559.868	0.333576
561.611	0.234828
563.354	-0.0473075
565.097	0.292004
566.839	-0.264446
568.581	-0.0161419
570.322	0.370419
572.063	0.25311
573.802	0.297718
575.542	0.274902
577.283	0.161601
579.022	-0.0425858
580.762	0.511559
582.501	0.193109
584.24	-0.172053
585.976	0.335686
587.714	0.428676
589.452	0.0606084
591.19	0.382027
592.927	-0.539355
594.663	-0.0113578
596.398	0.05653
598.134	0.400474
599.87	-0.0380797
601.605	0.00587797
603.338	-0.227099
605.073	-0.392026
606.808	0.0396776
608.542	-0.126737
610.274	0.349566
612.007	0.298158
613.74	-0.0506186
615.473	0.311873
617.204	0.399313
618.936	-0.0862556
620.668	0.206056
622.397	-0.189158
624.128	0.14702
625.859	-0.225375
627.588	0.248205
629.318	0.220811
631.048	0.240899
632.775	0.262565
634.505	0.51328
636.233	0.215942
637.96	0.533552
639.688	0.209927
641.416	-0.0700746
643.142	-0.169148
644.869	0.436838
646.594	0.177645
648.32	0.261291
650.045	0.597245
651.771	0.459013
653.496	0.460198
655.219	0.259265
656.944	1.03888
658.667	0.658306
660.391	0.230937
662.113	0.44101
663.837	0.123962
665.558	0.582092
667.281	0.307235
669.002	0.672123
670.724	0.374378
672.444	0.581443
674.166	1.0655
675.885	0.566436
677.606	0.572203
679.325	0.39432
681.045	1.06595
682.763	0.379766
684.483	0.749968
686.2	0.773478
687.917	0.265995
689.636	0.655898
691.352	0.538497
693.07	0.88129
694.786	0.854909
696.501	-0.047298
698.219	0.247124
699.933	0.701454
701.65	1.06243
703.364	0.13518
705.078	1.25265
706.793	0.876367
708.506	0.61499
710.219	1.064
711.934	1.30592
713.646	1.20409
715.358	1.35364
717.071	1.00061
718.782	1.01326
720.493	0.593017
722.204	0.856752
723.916	0.437518
725.626	1.29192
727.336	0.441182
729.045	0.612762
730.756	0.783661
732.464	1.47482
734.173	1.1916
735.881	1.36103
737.59	0.943374
739.297	0.865442
741.004	0.720798
742.711	0.757516
744.417	1.15545
746.125	0.721526
747.831	1.21136
749.537	1.2522
751.242	0.956726
752.946	1.49453
754.651	1.08873
756.357	1.02149
758.061	1.09051
759.764	1.29595
761.467	1.59276
763.17	1.43916
764.872	0.923786
766.575	1.73992
768.276	1.67377
769.978	1.58312
771.679	1.53598
773.382	1.44246
775.083	1.5747
776.783	1.32303
778.483	1.54724
780.182	1.63706
781.882	1.34322
783.581	2.31665
785.279	2.02193
786.978	1.31764
788.676	1.60677
790.373	1.55369
792.071	1.61149
793.768	1.46468
795.464	1.2954
797.161	2.34417
798.857	1.36588
800.552	1.62821
802.248	2.1614
803.941	1.75019
805.636	1.33915
807.33	1.71421
809.024	1.86334
810.718	1.51761
812.412	1.82189
814.105	1.63232
815.798	2.45021
817.49	1.61155
819.183	1.78001
820.873	1.12215
822.564	1.44736
824.256	1.99568
825.947	1.83146
827.637	1.78056
829.328	1.75425
831.016	2.22043
832.705	1.93174
834.395	1.33247
836.084	1.84855
837.772	1.53926
839.459	0.871411
841.147	1.25166
842.835	1.5864
844.522	1.54101
846.209	1.71969
847.894	1.76579
849.581	1.47835
851.267	2.13301
852.953	1.55764
854.637	0.93692
856.322	1.59513
858.007	1.39931
859.689	1.3143
861.374	1.58799
863.058	1.77055
864.739	1.86203
866.423	0.780516
868.106	1.52442
869.787	1.09548
871.469	1.18495
873.151	1.22916
874.831	1.02511
876.512	1.22721
878.193	0.797412
879.872	1.24775
881.553	1.53986
883.231	1.3573
884.911	1.39958
886.591	1.01189
888.268	1.02929
889.947	1.31602
891.623	1.53363
893.302	0.736457
894.978	1.10967
896.656	0.986817
898.331	1.42481
900.008	1.07601
901.683	1.10825
903.359	1.52033
905.033	0.992663
906.709	0.868231
908.383	1.3688
910.058	1.24541
911.731	1.14525
913.405	1.4014
915.078	1.45752
916.752	1.04772
918.423	0.971066
920.096	0.894629
921.768	1.46028
923.438	0.898654
925.111	0.891312
926.781	0.598381
928.452	0.880793
930.122	0.612324
931.791	1.11666
933.462	1.29014
935.13	0.824057
936.799	1.08622
938.468	0.687407
940.136	0.642389
941.803	0.708564
943.472	1.01803
945.139	1.52615
946.805	0.863523
948.473	0.530501
950.139	0.196142
951.804	1.09654
953.471	0.849596
955.136	0.758368
956.801	0.713383
958.465	0.759085
960.131	0.851102
961.794	1.18738
963.458	0.263992
965.12	0.687339
966.785	0.378878
968.447	0.798386
970.109	0.729541
971.771	0.372534
973.432	0.63523
975.095	0.987437
976.756	0.522799
978.417	0.722759
980.077	0.845863
981.737	0.968692
983.396	0.348852
985.057	1.01145
986.716	0.565593
988.375	1.22482
990.033	0.224034
991.691	0.660314
993.349	0.389196
995.006	0.184679
996.663	0.531999
998.32	0.856839
999.976	1.13703
1001.63	1.39451
1003.29	0.50698
1004.95	0.45606
1006.6	0.910528
1008.26	0.837428
1009.91	0.501359
1011.56	0.473073
1013.22	0.620484
1014.87	0.527081
1016.53	0.0619421
1018.18	0.910447
1019.83	1.10269
1021.48	0.639729
1023.14	0.636898
1024.79	0.634795
1026.44	0.917198
1028.09	0.456649
1029.74	0.76033
1031.39	0.47323
1033.04	0.534395
1034.69	0.310608
1036.34	0.47851
1037.99	0.405925
1039.64	1.22582
1041.29	0.152735
1042.94	0.212378
1044.58	0.316694
1046.23	0.292052
1047.88	0.70316
1049.52	0.702855
1051.17	0.768676
1052.82	0.704788
1054.46	0.641144
1056.11	0.25143
1057.75	0.448287
1059.4	-0.224869
1061.04	0.25381
1062.69	0.384033
1064.33	0.274371
1065.98	0.707424
1067.62	0.465694
1069.26	0.440623
1070.9	0.4368
1072.55	-0.0229459
1074.19	0.234064
1075.83	0.947162
1077.47	0.251347
1079.11	0.185487
1080.76	0.662289
1082.4	0.640302
1084.04	0.660965
1085.68	0.810393
1087.32	0.28643
1088.95	0.324443
1090.59	0.815423
1092.23	0.526477
1093.87	0.23768
1095.51	-0.0504231
1097.15	0.309265
1098.78	0.0878282
1100.42	0.621405
1102.06	0.295224
1103.69	0.85259
1105.33	0.292275
1106.97	0.829373
1108.6	0.376863
1110.24	0.37516
1111.87	0.264791
1113.51	0.131825
1115.14	0.191297
1116.77	0.0786438
1118.41	-0.505379
1120.04	0.197243
1121.67	0.428722
1123.31	-0.152503
1124.94	0.465529
1126.57	0.442175
1128.2	0.184195
1129.83	0.247546
1131.47	0.460954
1133.1	0.610408
1134.72	0.439082
1136.36	0.716106
1137.98	-0.247102
1139.62	0.00688982
1141.24	-0.038949
1142.87	0.405668
1144.5	0.231453
1146.13	-0.0273471
1147.76	0.0557189
1149.38	0.309803
1151.01	0.116814
1152.64	0.200732
1154.27	0.0501595
1155.89	0.388865
1157.52	0.365582
1159.14	0.0448284
1160.77	0.490395
1162.39	0.362604
1164.02	0.703343
1165.64	-0.0824251
1167.27	0.577393
1168.89	0.385889
1170.51	0.363173
1172.14	0.169022
1173.76	0.398364
1175.38	0.032433
1177	-0.0789356
1178.63	0.297201
1180.25	-0.173351
1181.87	0.0765786
1183.49	-0.0327086
1185.11	-0.0573626
1186.73	0.107333
1188.35	0.671407
1189.97	-0.0527782
1191.59	-0.061029
1193.21	-0.511838
1194.83	-0.206201
1196.45	0.182461
1198.07	0.612667
1199.68	0.143968
1201.3	-0.00859737
1202.92	0.717949
1204.53	0.360524
1206.15	0.651762
1207.77	0.130296
1209.38	0.506091
1211	0.276305
1212.62	-0.121453
1214.23	0.417195
1215.84	0.49535
1217.46	0.883997
1219.07	0.626902
1220.69	0.328746
1222.3	0.156152
1223.91	0.58567
1225.53	0.51878
1227.14	0.970455
1228.75	-0.149097
1230.36	0.201112
1231.97	0.841394
1233.59	1.06905
1235.2	0.987671
1236.81	0.969268
1238.42	0.972348
1240.03	1.01731
1241.64	1.14517
1243.25	1.1073
1244.85	0.427316
1246.46	0.843151
1248.07	0.471888
1249.68	1.27944
1251.29	0.907377
1252.9	0.680389
1254.5	0.784944
1256.11	1.51088
1257.72	0.686438
1259.32	0.835122
1260.93	0.756879
1262.54	1.30018
1264.14	1.28457
1265.75	0.999202
1267.35	0.733794
1268.96	0.840711
1270.56	0.884632
1272.16	1.25946
1273.77	1.01144
1275.37	1.01143
1276.97	0.969227
1278.57	1.46497
1280.18	0.820996
1281.78	1.29495
1283.38	0.81697
1284.98	0.856799
1286.58	1.47614
1288.18	0.979948
1289.78	1.20794
1291.38	1.25031
1292.99	1.23059
1294.58	1.39617
1296.18	1.33342
1297.78	1.45517
1299.38	1.5135
1300.98	1.52926
1302.58	1.54394
1304.17	0.981599
1305.77	0.830925
1307.37	1.25518
1308.97	1.06286
1310.56	1.73163
1312.16	1.45768
1313.76	1.43031
1315.35	1.79205
1316.95	1.2965
1318.54	1.86303
1320.14	1.36851
1321.73	1.0777
1323.32	1.09141
1324.92	1.73376
1326.51	0.810337
1328.1	0.801153
1329.7	1.19736
1331.29	1.1288
1332.88	1.24401
1334.47	1.44163
1336.07	1.05515
1337.66	1.07286
1339.25	1.73497
1340.84	1.62939
1342.43	1.28071
1344.02	1.514
1345.61	0.762199
1347.2	1.39584
1348.79	1.44864
1350.37	1.04311
1351.96	0.980201
1353.55	1.05893
1355.14	1.13862
1356.73	1.45834
1358.31	0.858613
1359.9	1.23698
1361.49	0.696067
1363.07	0.49418
1364.66	0.730849
1366.25	0.827977
1367.83	0.905729
1369.42	0.645981
1371	1.14372
1372.59	0.428606
1374.17	0.788906
1375.75	0.512978
1377.34	0.834062
1378.92	1.07515
1380.5	0.678683
1382.09	0.758752
1383.67	0.857644
1385.25	0.756918
1386.83	0.854609
1388.42	0.436054
1390	0.951283
1391.58	0.812045
1393.16	1.0901
1394.74	0.69398
1396.32	1.01172
1397.9	0.654738
1399.48	0.356681
1401.06	0.652323
1402.64	0.214847
1404.21	0.687857
1405.79	0.824641
1407.37	1.0608
1408.95	1.04062
1410.53	0.349287
1412.1	0.764102
1413.68	0.36887
1415.26	1.03871
1416.83	0.662073
1418.41	0.837407
1419.98	0.52037
1421.56	1.20866
1423.13	0.303308
1424.71	0.541102
1426.28	0.425532
1427.86	0.723683
1429.43	1.41528
1431	0.787412
1432.58	0.90657
1434.15	1.32002
1435.72	0.59222
1437.29	0.631796
1438.87	1.24195
1440.44	1.28275
1442.01	1.48155
1443.58	1.09133
1445.15	1.29101
1446.72	1.78571
1448.29	1.61227
1449.86	1.557
1451.43	1.52177
1453	1.32964
1454.57	1.82623
1456.14	1.61467
1457.71	1.18599
1459.27	1.81893
1460.84	1.05318
1462.41	1.54532
1463.98	0.875534
1465.54	1.1293
1467.11	1.26467
1468.67	1.02718
1470.24	1.0065
1471.81	1.08483
1473.37	0.712871
1474.94	0.400491
1476.5	0.264972
1478.07	0.933349
1479.63	0.699818
1481.19	0.054687
1482.76	0.389505
1484.32	0.861273
1485.88	0.157201
1487.45	0.19709
1489.01	0.451314
1490.57	0.195176
1492.13	0.211475
1493.69	0.440982
1495.26	-0.0141382
1496.82	0.251957
1498.38	0.536683
1499.94	0.413017
1501.5	0.523413
1503.06	0.401778
1504.62	0.164797
1506.17	0.54785
1507.73	0.368883
1509.29	-0.0229983
1510.85	0.356937
1512.41	0.446245
1513.97	0.246364
1515.52	0.835183
1517.08	0.501572
1518.64	0.16936
1520.19	0.393802
1521.75	0.0247698
1523.31	0.191433
1524.86	0.108955
1526.42	0.44537
1527.97	0.209007
1529.52	-0.00809002
1531.08	-0.0916815
1532.63	0.337262
1534.19	0.746818
1535.74	0.494246
1537.29	0.65862
1538.85	0.955308
1540.4	0.497499
1541.95	0.794134
1543.5	1.0713
1545.06	0.294939
1546.61	0.778312
1548.16	0.341243
1549.71	1.21703
1551.26	0.930325
1552.81	0.364039
1554.36	0.864805
1555.91	1.14179
1557.46	1.06525
1559.01	0.934417
1560.56	1.0104
1562.11	0.453393
1563.65	0.344944
1565.2	1.11386
1566.75	1.09928
1568.29	1.06583
1569.84	0.770753
1571.39	1.11
1572.94	0.907699
1574.48	0.910624
1576.03	1.06292
1577.57	1.40208
1579.12	1.27489
1580.66	1.6897
1582.21	1.00342
1583.75	1.30761
1585.3	1.33228
1586.84	0.983448
1588.38	0.877587
1589.93	1.4451
1591.47	1.05801
1593.01	0.85753
1594.55	0.975134
1596.1	0.942962
1597.64	1.09853
1599.18	0.992249
1600.72	1.18658
1602.26	1.55039
1603.8	1.29485
1605.34	1.13243
1606.88	1.04395
1608.42	0.859894
1609.96	1.27545
1611.5	1.21926
1613.04	0.635709
1614.58	1.08406
1616.12	0.668784
1617.65	1.19159
1619.19	0.609462
1620.73	0.366056
1622.27	1.02252
1623.8	0.556129
1625.34	0.78245
1626.87	1.10166
1628.41	1.26999
1629.95	1.02566
1631.48	0.89291
1633.02	1.54446
1634.55	1.0942
1636.09	0.980901
1637.62	0.551392
1639.15	0.476883
1640.69	1.31563
1642.22	1.03549
1643.76	0.41958
1645.29	1.29211
1646.82	1.38178
1648.35	1.24811
1649.88	1.24495
1651.42	1.59516
1652.95	1.27833
1654.48	0.851446
1656.01	1.18524
1657.54	1.35199
1659.07	1.74022
1660.6	1.20143
1662.13	1.12458
1663.66	1.17635
1665.19	1.44922
1666.72	1.2606
1668.24	0.999389
1669.77	1.16361
1671.3	0.923523
1672.83	1.31072
1674.35	1.03512
1675.88	0.88834
1677.41	1.03547
1678.93	0.832116
1680.46	0.738461
1681.99	0.828078
1683.51	0.329765
1685.04	0.823042
1686.56	0.509087
1688.09	0.580734
1689.61	0.414461
1691.13	0.523178
1692.66	0.393941
1694.18	0.594018
1695.71	0.629225
1697.23	0.719008
1698.75	0.461468
1700.27	0.623641
1701.8	0.256319
1703.32	0.526917
1704.84	0.286812
1706.36	-0.116984
1707.88	0.243199
1709.4	0.057816
1710.92	-0.0364413
1712.44	0.268484
1713.96	0.754194
1715.48	0.569382
1717	0.222031
1718.52	0.27274
1720.04	0.0163436
1721.56	0.0672216
1723.07	0.190551
1724.59	0.422553
1726.11	0.133104
1727.63	0.0788994
1729.14	-0.172501
1730.66	-0.0989695
1732.18	0.0446739
1733.69	0.149572
1735.21	0.249424
1736.72	0.395933
1738.24	0.270817
1739.75	0.24048
1741.27	-0.412723
1742.78	-0.328518
1744.3	0.0889449
1745.81	0.0199165
1747.32	0.438881
1748.84	-0.122238
1750.35	-0.0773306
1751.86	-0.102111
1753.37	0.267045
1754.89	0.142686
1756.4	0.275334
1757.91	-0.0808544
1759.42	0.0620513
1760.93	-0.143769
1762.44	-0.126615
1763.95	-0.03721
1765.46	-0.0745306
1766.97	-0.186362
1768.48	-0.0370655
1769.99	0.156976
1771.5	-0.0087595
1773.01	0.293265
1774.52	-0.0161939
1776.03	0.15516
1777.53	-0.0176353
1779.04	0.270236
1780.55	0.053689
1782.06	0.00921726
1783.56	-0.0619798
1785.07	-0.0330477
1786.57	-0.2807
1788.08	-0.109075
1789.59	0.24853
1791.09	-0.0214825
1792.6	0.0149894
1794.1	0.196508
1795.6	0.0710421
1797.11	0.0513301
1798.61	0.118887
1800.12	0.247354
1801.62	-0.0584922
1803.12	0.183847
1804.63	0.0304255
1806.13	-0.154524
1807.63	0.0691385
1809.13	0.32452
1810.63	0.0759659
1812.14	0.00542879
1813.64	-0.0546846
1815.14	0.317449
1816.64	0.136267
1818.14	-0.193455
1819.64	0.0802717
1821.14	0.181613
1822.64	-0.0751095
1824.14	0.0267553
1825.63	0.148978
1827.13	0.101435
1828.63	-0.0138187
1830.13	0.0863557
1831.63	0.109013
1833.12	-0.0454865
1834.62	0.123761
1836.12	0.314954
1837.62	0.258511
1839.11	0.225538
1840.61	-0.0128942
1842.1	0.220969
1843.6	-0.0982733
1845.09	0.248033
1846.59	0.0134864
1848.08	0.110782
1849.58	-0.162327
1851.07	-0.276693
1852.57	-0.0374622
1854.06	0.15626
1855.55	0.196773
1857.04	0.181676
1858.54	0.128506
1860.03	-0.118017
1861.52	0.218626
1863.01	-0.225313
1864.5	-0.220568
1866	0.181006
1867.49	0.103741
1868.98	-0.117279
1870.47	0.200753
1871.96	-0.0756488
1873.45	-0.178379
1874.94	-0.0203719
1876.43	0.0328035
1877.92	-0.142848
1879.41	-0.137489
1880.89	-0.0404429
1882.38	0.114178
1882.48	0.12431
1883.97	0.211243
1885.47	0.158108
1886.96	-0.000151634
1888.46	0.398413
1889.95	-0.125452
1891.44	0.34318
1892.94	0.27374
1894.43	0.170955
1895.92	0.0867381
1897.41	0.0553122
1898.9	0.0759983
1900.4	-0.0432234
1901.89	0.0451107
1903.38	0.27122
1904.87	-0.0254607
1906.36	0.23352
1907.85	0.11015
1909.34	-0.220947
1910.83	0.194996
1912.32	0.403215
1913.81	0.12617
1915.29	0.144096
1916.78	0.317801
1918.27	0.161693
1919.76	0.0746346
1921.25	0.0741553
1922.74	0.022018
1924.22	-0.0813928
1925.71	0.3527
1927.2	-0.181869
1928.68	0.340124
1930.17	0.273472
1931.65	0.171574
1933.14	0.189806
1934.63	-0.0875759
1936.11	-0.158346
1937.59	0.323378
1939.08	0.233899
1940.56	0.386485
1942.05	0.0390606
1943.53	0.124018
1945.01	0.192319
1946.5	0.00228548
1947.98	-0.136088
1949.46	-0.223211
1950.94	0.481054
1952.43	0.0825238
1953.91	0.234328
1955.39	0.0937176
1956.87	0.297028
1958.35	0.174512
1959.83	0.207072
1961.31	0.291461
1962.79	0.187397
1964.27	0.151817
1965.75	-0.0896058
1967.23	0.11372
1968.71	0.0426316
1970.19	0.278862
1971.67	-0.13451
1973.14	0.169526
1974.62	0.132068
1976.1	0.128879
1977.58	-0.504389
1979.05	0.344122
1980.53	0.272934
1982.01	0.0487194
1983.48	-0.158414
1984.96	-0.263649
1986.43	0.29255
1987.91	0.0343971
1989.38	-0.0538015
1990.86	-0.0906286
1992.33	0.397575
1993.81	0.277451
1995.28	-0.0785379
1996.76	0.241798
1998.23	0.207249
1999.7	0.037344
2001.18	0.339623
2002.65	0.337635
2004.12	0.183803
2005.59	0.0640593
2007.06	0.399728
2008.54	0.230731
2010.01	0.062469
2011.48	0.214488
2012.95	0.383345
2014.42	0.215263
2015.89	0.0971456
2017.36	0.297971
2018.83	0.0272946
2020.3	0.0421
2021.77	0.123942
2023.24	-0.0122786
2024.71	-0.0135918
2026.17	0.120136
2027.64	-0.11412
2029.11	0.25653
2030.58	0.0914416
2032.04	0.21227
2033.51	0.199254
2034.98	0.0182853
2036.45	0.47527
2037.91	0.259977
2039.38	0.262763
2040.84	0.433588
2042.31	-0.0173569
2043.77	0.322494
2045.24	-0.0939336
2046.7	-0.00514126
2048.17	-0.0844779
2049.63	0.17295
2051.1	0.615335
2052.56	0.28102
2054.02	0.198219
2055.48	0.400774
2056.95	-0.139565
2058.41	0.516294
2059.87	0.784064
2061.33	0.344756
2062.8	-0.0599914
2064.26	0.394483
2065.72	0.428894
2067.18	0.480784
2068.64	0.348002
2070.1	0.114432
2071.56	0.554259
2073.02	0.539476
2074.48	0.204534
2075.94	0.23977
2077.4	0.0558028
2078.86	0.140981
2080.31	0.158454
2081.77	0.293366
2083.23	0.579216
2084.69	-0.0107102
2086.14	0.18983
2087.6	0.00301075
2089.06	0.0681438
2090.52	0.0826583
2091.97	0.382504
2093.43	0.329587
2094.88	0.310071
2096.34	0.407528
2097.79	0.152621
2099.25	0.433165
2100.7	0.478889
2102.16	0.474561
2103.61	0.370661
2105.07	0.651706
2106.52	0.383034
2107.97	0.132024
2109.43	0.515046
2110.88	0.247338
2112.33	0.64537
2113.78	0.0591416
2115.24	0.321182
2116.69	0.282839
2118.14	0.0952716
2119.59	0.722254
2121.04	0.238429
2122.49	0.701757
2123.94	0.452976
2125.39	0.188175
2126.84	0.453794
2128.29	0.569401
2129.74	0.551328
2131.19	0.846951
2132.64	0.396736
2134.09	0.592165
2135.54	0.672213
2136.98	0.902056
2138.43	0.918389
2139.88	0.804001
2141.33	0.955348
2142.77	0.991975
2144.22	0.929897
2145.67	1.18233
2147.11	1.1036
2148.56	1.15681
2150.01	0.811741
2151.45	0.879988
2152.9	1.26228
2154.34	0.815461
2155.79	0.633404
2157.23	1.18028
2158.67	0.882843
2160.12	0.917713
2161.56	0.821368
2163	1.53873
2164.45	1.29598
2165.89	1.1034
2167.33	1.25939
2168.78	0.849525
2170.22	1.00334
2171.66	1.40515
2173.1	1.02356
2174.54	1.47258
2175.98	1.47192
2177.42	1.25524
2178.86	1.03922
2180.3	0.956978
2181.74	1.19132
2183.18	1.19339
2184.62	1.362
2186.06	1.03166
2187.5	0.651284
2188.94	0.869911
2190.38	0.822276
2191.82	0.957549
2193.25	1.22549
2194.69	0.976253
2196.13	0.692382
2197.57	1.10598
2199	0.985668
2200.44	0.947751
2201.88	0.876526
2203.31	0.756118
2204.75	1.01805
2206.18	1.21424
2207.62	0.79772
2209.05	0.464221
2210.49	0.544251
2211.92	0.921168
2213.36	0.602743
2214.79	0.829727
2216.22	1.00732
2217.66	1.0536
2219.09	0.639084
2220.52	0.819021
2221.96	0.718782
2223.39	0.667503
2224.82	0.73048
2226.25	0.841415
2227.68	0.0795035
2229.11	0.812666
2230.55	0.542891
2231.98	0.453791
2233.41	0.626974
2234.84	0.555074
2236.27	0.565869
2237.7	0.937003
2239.12	0.591238
2240.55	0.540902
2241.98	0.459345
2243.41	0.623396
2244.84	0.771445
2246.27	0.804828
2247.7	0.608654
2249.12	0.199017
2250.55	0.619033
2251.98	0.451048
2253.41	0.185123
2254.83	0.602251
2256.26	0.484013
2257.68	0.319007
2259.11	0.17244
2260.54	0.368741
2261.96	0.372195
2263.39	0.133247
2264.81	0.625563
2266.24	0.337701
2267.66	0.406838
2269.08	0.491611
2270.51	0.0711727
2271.93	0.5294
2273.35	0.303666
2274.78	0.143044
2276.2	0.0965462
2277.62	0.19683
2279.04	0.280913
2280.47	0.006248
2281.89	0.13912
2283.31	0.190409
2284.73	0.274383
2286.15	0.570748
2287.57	0.214447
2288.99	0.527905
2290.41	0.171972
2291.83	0.273663
2293.25	0.588136
2294.67	0.444752
2296.09	0.0229125
2297.51	0.435811
2298.93	0.14465
2300.35	0.410612
2301.76	0.250696
2303.18	0.254894
2304.6	0.505428
2306.02	0.181362
2307.44	0.0703225
2308.85	0.040977
2310.27	0.636044
2311.69	0.326494
2313.1	0.000259399
2314.52	0.0691175
2315.93	0.385548
2317.35	0.0438652
2318.76	0.295581
2320.18	-0.161796
2321.59	-0.00985813
2323.01	0.157346
2324.42	0.141337
2325.83	0.48663
2327.25	0.731392
2328.66	0.958771
2330.07	0.0330162
2331.49	0.178979
2332.9	0.407931
2334.31	0.341235
2335.72	-0.185847
2337.13	0.0928903
2338.55	-0.0567007
2339.96	-0.17412
2341.37	0.0363526
2342.78	0.229759
2344.19	0.20967
2345.6	-0.105213
2347.01	0.137399
2348.42	0.510696
2349.83	0.0816536
2351.24	0.208428
2352.65	0.105609
2354.05	-0.0466833
2355.46	0.143124
2356.87	-0.0422349
2358.28	-0.032042
2359.69	0.400643
2361.09	0.0696449
2362.5	0.225736
2363.91	-0.136858
2365.31	0.0513492
2366.72	0.142315
2368.13	-0.137824
2369.53	0.357601
2370.94	-0.0494795
2372.34	0.124912
2373.75	0.138847
2375.15	0.0403929
2376.56	-0.00996494
2377.96	0.0354443
2379.37	0.0957351
2380.77	0.299168
2382.17	0.212464
2383.58	0.317449
2384.98	0.102051
2386.38	0.159071
2387.79	0.00913572
2389.19	0.0198174
2390.59	0.0154614
2391.99	0.1871
2393.39	0.375201
2394.8	-0.0247068
2396.2	-0.0580959
2397.6	-0.0751109
2399	0.0830832
2400.4	0.114488
2401.8	0.0984697
2403.2	0.114257
2404.6	0.145654
2406	0.0176744
2407.4	-0.396514
2408.79	-0.192355
2410.19	0.185713
2411.59	0.135769
2412.99	0.00728369
2414.39	0.196455
2415.78	0.165029
2417.18	-0.0712023
2418.58	-0.116799
2419.98	0.0437489
2421.37	0.125084
2422.77	-0.142346
2424.16	0.160355
2425.56	0.241315
2426.96	-0.0260015
2428.35	0.119376
2429.74	0.424154
2431.14	0.253739
2432.53	0.194415
2433.93	0.341126
2435.32	0.423558
2436.72	0.18711
2438.11	0.314914
2439.5	0.330499
2440.9	0.535922
2442.29	0.185171
2443.68	-0.0861955
2445.07	0.356297
2446.47	-0.0419974
2447.86	0.494963
2449.25	-0.0457158
2450.64	-0.189917
2452.03	0.204511
2453.42	0.0296297
2454.81	0.440817
2456.2	-0.144142
2457.59	-0.0327778
2458.98	0.189189
2460.37	-0.158629
2461.76	0.299462
2463.15	0.0454383
2464.54	-0.208835
2465.93	-0.336776
2467.32	-0.00689411
2468.7	-0.00868893
2470.09	0.289027
2471.48	0.160512
2472.87	0.393966
2474.25	0.232965
2475.64	0.0559721
2477.03	0.114742
2478.41	0.0477338
2479.8	0.0751085
2481.18	0.0241709
2482.57	0.270961
2483.95	-0.218761
2485.34	0.0112147
2486.72	-0.0100679
2488.11	-0.406621
2489.49	0.101202
2490.88	-0.0461226
2492.26	-0.0683389
2493.65	0.251879
2495.03	0.0139995
2496.41	0.288978
2497.79	0.146005
2499.18	0.1892
2500.56	-0.0772491
2501.94	0.258904
2503.32	-0.116544
2504.7	-0.137131
2506.09	0.0730014
2507.47	0.0362234
2508.85	0.0764871
2510.23	0.163053
2511.61	-0.118297
2512.99	0.137962
2514.37	0.164698
2515.75	0.13083
2517.13	-0.0859661
2518.51	-0.149218
2519.89	0.0475168
2521.26	0.0300469
2522.64	0.454772
2524.02	-0.0978832
2525.4	-0.177769
2526.78	-0.105439
2528.15	0.0279226
2529.53	0.0858626
2530.91	0.144917
2532.28	-0.129082
2533.66	-0.143691
2535.04	-0.233719
2536.41	-0.0198994
2537.79	0.132667
2539.16	-0.11039
2540.54	0.0863876
2541.91	0.00956583
2543.29	0.0543714
2544.66	0.433502
2546.04	-0.339278
2547.41	0.0568256
2548.78	0.119898
2550.16	0.137565
2551.53	0.185253
2552.9	0.232276
2554.27	0.61236
2555.65	0.0813003
2557.02	-0.0100584
2558.39	0.0804968
2559.76	-0.0107098
2561.13	0.535096
2562.51	-0.0553465
2563.88	-0.0390925
2565.25	-0.143736
2566.62	0.297371
2567.99	-0.0191627
2569.36	-0.350863
2570.73	0.302601
2572.1	-0.271586
2573.47	0.109216
2574.84	0.0656834
2576.2	-0.00813961
2577.57	0.0847702
2578.94	-0.17121
2580.31	0.118434
2581.68	0.134849
2583.05	0.34809
2584.41	0.197279
2585.78	0.137418
2587.15	-0.149682
2588.51	0.230259
2589.88	-0.238406
2591.24	0.0657544
2592.61	0.127103
2593.98	0.142403
2595.34	0.262945
2596.71	-0.298532
2598.07	-0.0884619
2599.44	0.166453
2600.8	0.0584984
2602.16	0.132271
2603.53	-0.0501366
2604.89	0.175465
2606.26	-0.066546
2607.62	-0.233195
2608.98	-0.00841093
2610.34	-0.146235
2611.71	0.16671
2613.07	-0.0179634
2614.43	-0.0676498
2615.79	0.062645
2617.15	0.162868
2618.52	0.158518
2619.88	-0.114572
2621.24	-0.0128574
2622.6	0.0741758
2623.96	-0.0627036
2625.32	-0.154649
2626.68	0.0366983
2628.04	0.138134
2629.4	0.0605226
2630.75	0.116793
2632.11	0.202632
2633.47	0.318024
2634.83	-0.101103
2636.19	0.0884848
2637.55	-0.00377893
2638.9	-0.140264
2640.26	-0.172843
2641.62	-0.146041
2642.98	-0.000873566
2644.33	-0.151026
2645.69	-0.0354528
2647.04	-0.0677342
2648.4	0.238336
2649.76	0.0282021
2651.11	0.361925
2652.47	-0.171757
2653.82	0.205439
2655.18	0.0694513
2656.53	0.0516906
2657.88	0.298294
2659.24	0.0771956
2660.59	0.0613632
2661.95	-0.0860615
2663.3	-0.0584607
2664.65	0.0999036
2666	0.12622
2667.36	-0.037312
2668.71	0.0905938
2670.06	0.0584531
2671.41	-0.0313954
2672.76	0.0973125
2674.12	0.153734
2675.47	0.196031
2676.82	0.485381
2678.17	0.136884
2679.52	0.151727
2680.87	-0.137104
2682.22	0.053412
2683.57	0.0708408
2684.92	0.118023
2686.27	-0.168112
2687.62	0.445396
2688.97	0.201807
2690.31	0.000479221
2691.66	0.0881619
2693.01	0.0150781
2694.36	0.202361
2695.71	0.22988
2697.05	-0.0608521
2698.4	-0.104241
2699.75	0.0418334
2701.09	0.0154295
2702.44	-0.212657
2703.78	0.0670362
2705.13	0.0574365
2706.48	0.250943
2707.82	0.299346
2709.17	0.0136147
2710.51	0.366355
2711.86	-0.0217061
2713.2	-0.0177679
2714.54	0.378595
2715.89	0.164492
2717.23	0.0665283
2718.57	0.317485
2719.92	0.175427
2721.26	-0.0688829
2722.6	0.254052
2723.95	0.00902557
2725.29	0.0256839
2726.63	0.0711904
2727.97	0.363886
2729.31	-0.0130472
2730.65	0.119278
2732	0.266109
2733.34	0.180226
2734.68	-0.0654955
2736.02	-0.121941
2737.36	0.0108066
2738.7	0.0126519
2740.04	0.203388
2741.38	0.306509
2742.72	0.263753
2744.05	-0.0265522
2745.39	-0.0265522
2746.73	-0.0123286
2748.07	-0.0708218
2749.41	0.0303769
2750.75	0.204163
2752.08	0.117056
2753.42	0.0736761
2754.76	-0.288275
2756.09	-0.027091
2757.43	0.190629
2758.77	0.263672
2760.1	0.336983
2761.44	0.121227
2762.78	0.00717735
2764.11	0.0525479
2765.44	0.0111156
2766.78	-0.262084
2768.11	0.0716777
2769.45	-0.101726
2770.78	0.258712
2772.12	0.0255961
2773.45	-0.0636144
2774.78	0.596611
2776.12	-0.17036
2777.45	0.0860796
2778.78	0.126808
2780.12	-0.00457191
2781.45	-0.0493536
2782.78	0.264783
2784.11	0.0765152
2785.44	-0.15451
2786.78	0.0732393
2788.11	0.429913
2789.44	-0.000115395
2790.77	-4.48227e-005
2792.1	-0.485538
2793.43	0.0301895
2794.76	0.331361
2796.09	-0.0965509
2797.42	0.0467606
2798.75	-0.0531578
2800.08	-0.210379
2801.4	-0.0823298
2802.73	0.344892
2804.06	0.144461
2805.39	0.285764
2806.72	0.212953
2808.05	-0.201576
2809.37	0.0664077
2810.7	0.518609
2812.03	-0.00859022
2813.35	0.075563
2814.68	-0.00944662
2816.01	0.119254
2817.33	-0.0205526
2818.66	0.0952101
2819.98	-0.086647
2821.31	-0.0845466
2822.63	0.356396
2823.96	0.201662
2825.28	0.0609035
2826.61	0.245951
2827.93	0.10565
2829.25	0.36219
2830.58	0.066956
2831.9	0.196575
2833.23	0.255379
2834.55	0.285647
2835.87	0.258952
2837.19	0.429976
2838.52	0.0772119
2839.84	0.474006
2841.16	0.0365062
2842.48	0.800981
2843.8	0.632878
2845.12	0.846911
2846.44	0.65156
2847.77	0.696728
2849.08	0.840859
2850.4	0.617305
2851.73	0.831564
2853.05	0.706249
2854.36	0.679601
2855.68	0.836502
2857	1.06397
2858.32	0.78293
2859.64	1.06685
2860.96	0.757529
2862.28	1.02691
2863.59	1.38059
2864.91	1.3247
2866.23	1.36756
2867.55	1.42468
2868.86	1.07318
2870.18	1.49746
2871.5	1.51297
2872.81	1.78196
2874.13	1.74032
2875.44	1.76836
2876.76	1.61257
2878.07	1.66741
2879.39	2.07355
2880.7	1.62205
2882.02	1.70544
2883.33	2.26701
2884.65	1.59337
2885.96	1.9312
2887.28	2.01631
2888.59	1.91866
2889.9	2.15716
2891.21	2.03028
2892.53	2.19738
2893.84	1.92992
2895.15	1.97099
2896.46	2.53049
2897.78	2.37674
2899.09	2.43369
2900.4	2.25339
2901.71	1.96155
2903.02	2.2154
2904.33	2.32945
2905.64	2.38773
2906.95	2.41842
2908.26	2.35174
2909.57	2.55147
2910.88	2.63972
2912.19	2.79798
2913.5	3.17975
2914.81	2.55252
2916.12	2.96003
2917.43	3.26827
2918.73	3.1978
2920.04	3.51883
2921.35	3.35076
2922.66	3.61702
2923.96	3.25522
2925.27	3.35554
2926.58	3.90365
2927.88	3.3754
2929.19	3.72757
2930.5	3.85562
2931.8	3.75962
2933.11	3.59352
2934.41	3.8467
2935.72	3.55486
2937.02	3.48674
2938.33	3.64233
2939.63	3.54655
2940.94	3.4651
2942.24	3.48206
2943.54	3.416
2944.85	3.4068
2946.15	3.41243
2947.45	3.0967
2948.76	3.22843
2950.06	3.38741
2951.36	2.90098
2952.66	2.9452
2953.97	2.80635
2955.27	3.31111
2956.57	3.13051
2957.87	2.46145
2959.17	2.60609
2960.47	3.15902
2961.77	2.85905
2963.07	2.90995
2964.37	2.778
2965.67	2.51838
2966.97	2.72103
2968.27	2.44482
2969.57	2.3647
2970.87	2.22815
2972.17	2.64037
2973.47	2.26497
2974.77	2.22716
2976.07	2.30149
2977.36	2.16366
2978.66	2.22166
2979.96	2.17975
2981.26	2.01018
2982.55	1.84026
2983.85	1.76906
2985.15	1.78298
2986.44	1.85415
2987.74	1.64531
2989.03	1.85875
2990.33	1.36969
2991.63	1.54076
2992.92	1.35967
2994.21	1.43057
2995.51	1.17747
2996.8	0.825701
2998.1	1.18972
2999.39	1.04855
3000.69	0.865748
3001.98	0.893691
3003.27	1.076
3004.57	1.23022
3005.86	0.795916
3007.15	0.641405
3008.44	0.430421
3009.74	0.848212
3011.03	0.677979
3012.32	0.717035
3013.61	0.881501
3014.9	0.711384
3016.19	0.41657
3017.48	0.456733
3018.78	0.524988
3020.07	0.551445
3021.36	0.508
3022.65	0.311153
3023.94	0.544047
3025.23	0.443139
3026.51	0.411424
3027.8	0.3385
3029.09	0.307887
3030.38	0.388832
3031.67	0.180666
3032.96	0.152818
3034.24	0.525376
3035.53	0.497149
3036.82	0.398993
3038.11	0.492468
3039.39	0.2953
3040.68	0.468459
3041.97	0.310966
3043.25	0.345645
3044.54	0.58605
3045.83	0.334776
3047.11	0.358695
3048.4	0.193054
3049.68	0.383846
3050.97	0.480105
3052.25	0.645109
3053.54	0.646307
3054.82	0.68786
3056.11	0.455746
3057.39	0.25017
3058.67	0.493727
3059.96	0.654988
3061.24	0.421587
3062.52	0.705878
3063.81	0.406225
3065.09	0.338858
3066.37	0.544331
3067.65	0.342592
3068.94	0.53538
3070.22	0.469525
3071.5	0.511743
3072.78	0.212978
3074.06	0.511491
3075.34	0.156735
3076.62	0.616785
3077.9	0.0178132
3079.18	0.193383
3080.46	0.207027
3081.74	0.126738
3083.02	0.115075
3084.3	0.0495362
3085.58	0.486073
3086.86	0.0400419
3088.14	0.258436
3089.42	0.177596
3090.69	0.10989
3091.97	0.0555463
3093.25	-0.14799
3094.53	-0.0123296
3095.8	0.204712
3097.08	0.0691624
3098.36	0.0419254
3099.63	-0.0668187
3100.91	-0.094418
3102.19	-0.135632
3103.46	-0.0684519
3104.74	-0.0146146
3106.01	0.120792
3107.29	0.243175
3108.56	0.0684576
3109.84	0.286888
3111.11	0.0727553
3112.39	0.102729
3113.66	0.0380616
3114.94	0.176559
3116.21	0.111277
3117.48	0.167273
3118.76	0.154525
3120.03	0.127251
3121.3	-0.307575
3122.57	0.260193
3123.85	-0.12105
3125.12	-0.00100708
3126.39	-0.110988
3127.66	-0.0988722
3128.93	-0.032443
3130.21	0.15574
3131.48	0.0869246
3132.75	0.0719371
3134.02	0.124063
3135.29	-0.161903
3136.56	0.0510664
3137.83	0.0340056
3139.1	0.0434537
3140.37	0.0256586
3141.64	-0.113285
3142.91	-0.0504227
3144.17	0.106475
3145.44	0.129246
3146.71	0.01824
3147.98	0.028265
3149.25	-0.282812
