200.388	-0.149924
202.204	-0.136001
204.019	-0.121425
205.832	0.380373
207.646	0.298517
209.459	0.678019
211.274	0.594715
213.087	0.51031
214.899	-0.157124
216.711	0.775558
218.524	0.277925
220.335	-0.19432
222.146	0.76194
223.956	-0.0227757
225.766	0.0395584
227.576	0.319324
229.388	-0.125854
231.197	-0.233236
233.005	0.14167
234.813	-0.327471
236.621	0.168943
238.429	0.474079
240.236	0.130592
242.045	0.584655
243.852	0.437223
245.658	0.748217
247.464	0.213105
249.269	0.158366
251.074	0.17336
252.879	0.0893841
254.683	0.341642
256.487	0.376215
258.291	0.772916
260.094	0.544421
261.897	1.18498
263.702	0.863518
265.504	0.350236
267.306	0.102198
269.108	0.408234
270.909	0.0386162
272.71	0.60826
274.511	0.718567
276.311	0.393467
278.111	0.404267
279.91	0.485528
281.709	0.444508
283.508	-0.127219
285.306	0.6463
287.105	1.08153
288.9	0.245028
290.698	0.464806
292.495	-0.1524
294.291	0.285109
296.088	0.819074
297.884	0.302032
299.679	0.980446
301.475	0.750689
303.27	0.950114
305.064	0.790261
306.858	0.367324
308.652	1.44642
310.444	0.642636
312.237	0.507527
314.03	0.0882492
315.822	0.361217
317.615	0.707301
319.406	0.3165
321.198	0.617655
322.987	0.75292
324.778	0.650199
326.568	0.738504
328.358	1.04177
330.148	0.627645
331.935	0.355522
333.724	0.129547
335.513	1.36134
337.301	0.652819
339.089	0.660254
340.875	0.714053
342.662	0.838749
344.449	0.485394
346.236	1.23148
348.02	0.831627
349.806	0.742846
351.592	0.439365
353.375	0.445763
355.16	0.475101
356.944	1.07549
358.728	-0.0179482
360.51	0.627409
362.294	0.461915
364.077	0.224657
365.858	0.414797
367.64	0.603899
369.422	0.388747
371.202	0.718061
372.983	0.0995922
374.764	0.356612
376.543	0.683916
378.324	0.728012
380.102	0.584419
381.881	0.512788
383.661	0.489513
385.438	0.585023
387.216	0.893088
388.993	0.873158
390.771	0.760271
392.548	0.648232
394.324	0.748168
396.101	0.167447
397.875	0.455778
399.651	0.203817
401.425	0.914491
403.201	0.708591
404.974	0.642955
406.749	0.928903
408.524	-0.00666046
410.296	0.747929
412.07	1.24411
413.841	0.285712
415.614	0.782917
417.385	0.318854
419.156	0.39508
420.928	0.72979
422.698	0.501037
424.469	0.248171
426.238	0.792682
428.009	-0.0955696
429.777	0.283429
431.548	-0.0417757
433.315	0.196608
435.083	0.482249
436.852	0.110769
438.618	0.231582
440.387	1.03162
442.153	0.0935478
443.919	0.631381
445.686	0.79196
447.451	0.108529
449.218	0.782162
450.982	0.660324
452.746	0.679089
454.512	0.0682745
456.275	0.320818
458.038	0.29339
459.803	0.382422
461.565	0.518448
463.327	0.376827
465.091	-0.203976
466.852	-0.50334
468.613	-0.126489
470.374	-0.235987
472.136	0.353087
473.896	0.220495
475.655	0.435622
477.415	-0.119836
479.176	0.115024
480.934	0.4887
482.692	0.000686646
484.45	0.561796
486.21	0.705546
487.967	0.408619
489.724	0.789665
491.481	0.728824
493.237	0.691929
494.995	0.959241
496.75	0.665212
498.506	0.464121
500.26	0.942342
502.015	0.904464
503.769	0.701297
505.525	0.449807
507.279	0.761158
509.032	0.271544
510.785	0.368455
512.537	0.511042
514.289	1.05227
516.041	0.392265
517.793	0.860355
519.546	0.904017
521.297	0.993922
523.047	0.777992
524.797	1.03153
526.547	0.276059
528.297	0.154492
530.046	0.454811
531.795	0.613946
533.543	0.584929
535.291	0.648458
537.039	0.453533
538.787	0.28105
540.534	0.690894
542.281	0.633179
544.027	0.296064
545.773	0.122403
547.519	0.0885878
549.264	0.611469
551.01	0.346072
552.754	0.960449
554.499	0.603225
556.243	0.477852
557.987	0.399228
559.73	0.136911
561.474	0.151819
563.216	0.443269
564.959	0.298119
566.701	0.0389156
568.441	0.354708
570.182	-0.0402365
571.923	0.392212
573.664	0.0919628
575.405	0.022727
577.145	0.781052
578.885	0.232704
580.624	0.511427
582.361	-0.45028
584.1	0.264914
585.839	0.243886
587.577	-0.537386
589.315	0.0604706
591.052	-0.285711
592.787	0.241938
594.524	0.102226
596.26	0.445716
597.997	0.536121
599.732	0.419178
601.466	0.0715008
603.201	0.0448313
604.936	-0.0520535
606.67	-0.241896
608.403	-0.08776
610.136	0.31851
611.87	-0.0322208
613.603	0.00786877
615.334	0.529856
617.067	0.272691
618.799	0.381736
620.529	0.398185
622.26	0.00172043
623.991	0.382263
625.72	0.236835
627.451	0.0925055
629.181	0.337999
630.909	-0.0762129
632.638	0.310096
634.368	0.674705
636.095	-0.102134
637.823	0.420647
639.551	0.393172
641.277	0.636749
643.005	-0.0339108
644.73	0.433907
646.457	0.241383
648.184	0.482699
649.908	0.408478
651.634	0.383203
653.357	0.83882
655.083	0.547499
656.806	0.0757036
658.53	0.219288
660.253	0.659486
661.977	0.619556
663.7	0.805992
665.422	0.441666
667.145	-0.0161219
668.865	0.554407
670.588	0.759676
672.308	0.417635
674.027	0.512543
675.749	-0.192614
677.468	0.20328
679.188	0.0489731
680.907	0.928037
682.627	0.518602
684.345	0.521038
686.064	0.199264
687.781	0.290486
689.498	0.703252
691.216	0.608615
692.932	0.62859
694.65	0.763047
696.366	0.620243
698.081	0.430392
699.797	0.837834
701.512	0.622857
703.228	0.545154
704.942	0.604724
706.655	0.801435
708.371	1.06625
710.083	0.184609
711.796	0.952495
713.51	0.369204
715.222	0.7009
716.934	0.18716
718.645	0.974698
720.358	0.917697
722.068	0.838195
723.779	0.554107
725.49	1.06608
727.2	0.850076
728.909	0.906398
730.618	1.34761
732.329	0.972235
734.037	0.82369
735.745	0.833707
737.453	1.40855
739.16	0.742124
740.869	0.956844
742.576	1.05972
744.282	0.420777
745.988	0.706353
747.694	1.19544
749.401	0.8533
751.107	1.0972
752.811	1.29732
754.516	1.25131
756.22	1.11663
757.924	1.20843
759.627	0.963738
761.332	1.12559
763.035	0.949754
764.738	0.863766
766.44	1.36414
768.142	1.90862
769.843	1.41126
771.544	1.95203
773.245	1.04417
774.946	1.15345
776.646	1.53449
778.346	1.32881
780.046	1.96128
781.745	1.66765
783.444	1.71348
785.143	1.55462
786.841	1.55204
788.539	1.81814
790.237	1.28921
791.934	1.88855
793.631	2.03364
795.328	1.38857
797.024	2.30063
798.72	1.59125
800.416	1.9199
802.112	1.57466
803.807	1.52274
805.502	1.17851
807.196	0.946218
808.89	2.15039
810.584	1.51168
812.278	1.36635
813.971	1.9377
815.664	1.70191
817.354	1.37701
819.047	1.67848
820.739	1.51065
822.43	1.36573
824.122	1.31092
825.813	1.56939
827.503	1.49541
829.192	1.49078
830.882	1.62254
832.571	1.95751
834.261	1.40321
835.95	1.47375
837.637	1.56657
839.325	1.41284
841.013	1.97231
842.701	1.302
844.389	1.27894
846.074	1.47993
847.761	1.10125
849.447	1.73113
851.131	1.58053
852.817	0.893558
854.503	1.66447
856.188	1.4486
857.871	1.32123
859.556	1.77717
861.24	1.53405
862.922	0.951192
864.606	0.839923
866.289	1.20116
867.97	1.65219
869.653	0.930197
871.336	0.861798
873.016	1.31209
874.698	1.0855
876.379	0.926551
878.058	1.21896
879.739	1.21791
881.418	1.08108
883.098	1.07905
884.778	0.579413
886.456	0.41727
888.135	1.29173
889.812	1.21688
891.49	1.02804
893.167	1.08599
894.845	1.21025
896.523	1.19842
898.198	1.00604
899.875	0.252406
901.55	1.11302
903.226	0.225555
904.901	0.703444
906.576	1.11333
908.25	0.787053
909.925	0.818585
911.598	1.36253
913.271	1.86157
914.945	0.561444
916.617	0.617017
918.291	0.251318
919.962	0.484225
921.635	0.849875
923.306	0.751689
924.978	0.765482
926.648	0.869187
928.318	0.996378
929.989	1.14668
931.659	0.70186
933.328	0.808926
934.998	0.827875
936.666	0.185522
938.336	1.19802
940.004	0.932408
941.671	0.778103
943.34	0.0727472
945.007	1.41956
946.673	1.17652
948.339	0.843488
950.007	0.552958
951.672	1.16603
953.337	0.720039
955.004	0.584279
956.669	1.02422
958.333	0.430454
959.997	0.898005
961.662	1.25717
963.326	1.04209
964.989	0.781023
966.651	1.31384
968.315	1.13621
969.977	0.337155
971.639	0.687721
973.301	0.81734
974.962	0.439554
976.624	0.925817
978.285	1.14816
979.945	0.950823
981.605	0.753054
983.264	0.288379
984.924	0.685362
986.583	0.482827
988.243	0.190329
989.901	0.405604
991.56	1.19466
993.217	1.49669
994.875	0.562259
996.532	0.665904
998.188	1.23244
999.845	0.916648
1001.5	0.160439
1003.16	0.747287
1004.81	1.28903
1006.47	0.775022
1008.12	0.810836
1009.78	0.100753
1011.43	0.62007
1013.09	0.30629
1014.74	0.409388
1016.39	0.819187
1018.05	0.550696
1019.7	0.195663
1021.35	-0.333134
1023	0.800473
1024.65	-0.119843
1026.31	-0.0342207
1027.96	0.750602
1029.61	1.05405
1031.26	0.548159
1032.91	0.303187
1034.56	0.558838
1036.21	0.158838
1037.86	0.434047
1039.51	0.295112
1041.16	0.548442
1042.8	0.954707
1044.45	0.449549
1046.1	0.728409
1047.75	0.661361
1049.39	0.682665
1051.04	1.09607
1052.69	0.532769
1054.33	0.708365
1055.98	0.6667
1057.62	0.0595474
1059.27	0.538878
1060.91	0.909031
1062.56	0.778377
1064.2	0.0598221
1065.85	0.0144739
1067.49	0.881032
1069.13	0.52949
1070.77	0.307912
1072.42	0.281735
1074.06	0.342755
1075.7	0.578124
1077.34	0.619352
1078.98	0.466515
1080.62	0.292699
1082.27	0.704373
1083.91	0.0528145
1085.55	0.288879
1087.18	0.15468
1088.82	0.451908
1090.46	0.530775
1092.1	0.154466
1093.74	-0.135245
1095.38	0.0503826
1097.02	-0.130141
1098.65	0.466189
1100.29	0.3313
1101.93	0.0690861
1103.56	0.367896
1105.2	0.0439663
1106.84	-0.0858097
1108.47	0.0637817
1110.11	-0.28209
1111.74	0.252156
1113.38	0.419323
1115.01	0.134338
1116.64	0.149514
1118.28	0.25048
1119.91	0.00907612
1121.54	0.0471478
1123.18	0.235895
1124.81	0.296974
1126.44	0.85071
1128.07	0.0790443
1129.7	0.31318
1131.33	0.398102
1132.97	0.33363
1134.6	0.82483
1136.23	0.118478
1137.86	0.266198
1139.49	-0.0571423
1141.11	0.0886049
1142.74	-0.385088
1144.37	-0.00510693
1146	0.097929
1147.63	0.116445
1149.26	0.583097
1150.88	0.240559
1152.51	-0.123102
1154.14	0.428576
1155.76	-0.105864
1157.39	0.381146
1159.01	0.208784
1160.64	0.186079
1162.27	0.376953
1163.89	-0.409341
1165.51	0.208092
1167.14	-0.0889301
1168.76	-0.237978
1170.39	0.164249
1172.01	0.0121365
1173.63	0.219577
1175.25	0.340755
1176.88	0.185649
1178.5	0.306296
1180.12	0.279174
1181.74	-0.0856123
1183.36	0.0580244
1184.98	-0.559121
1186.6	0.0484934
1188.22	-0.000239372
1189.84	-0.261367
1191.46	0.276499
1193.08	0.391143
1194.7	0.0427837
1196.32	-0.0739946
1197.94	-0.105958
1199.55	0.260952
1201.17	-0.332012
1202.79	0.623287
1204.41	0.515466
1206.02	0.451397
1207.64	0.325979
1209.25	0.764085
1210.87	-0.216854
1212.48	0.4067
1214.1	0.110878
1215.71	0.125821
1217.33	-0.339314
1218.94	-0.305681
1220.56	0.578883
1222.17	0.114196
1223.79	0.29376
1225.4	0.20517
1227.01	0.138701
1228.62	0.0528173
1230.23	-0.135307
1231.85	-0.384342
1233.46	0.793789
1235.07	0.216104
1236.68	0.300836
1238.29	0.24177
1239.9	0.348692
1241.51	0.497211
1243.12	0.81103
1244.73	0.731138
1246.34	0.712387
1247.94	0.38233
1249.55	0.46544
1251.16	0.610289
1252.77	1.2517
1254.37	0.797416
1255.98	-0.0902719
1257.59	0.967501
1259.2	0.226503
1260.8	0.582913
1262.41	0.422318
1264.01	0.675943
1265.62	0.369899
1267.22	0.539785
1268.83	0.79185
1270.43	0.441757
1272.03	0.712734
1273.64	0.775429
1275.24	1.10667
1276.85	0.31787
1278.45	0.833891
1280.05	0.458569
1281.65	0.538615
1283.25	0.515223
1284.85	0.430255
1286.46	0.428794
1288.06	0.73825
1289.66	0.428449
1291.26	0.367138
1292.86	0.285119
1294.46	0.739621
1296.06	0.800399
1297.66	0.96291
1299.25	0.422266
1300.85	0.664428
1302.45	0.946296
1304.05	0.691686
1305.65	1.11537
1307.24	0.818869
1308.84	1.01508
1310.43	1.23136
1312.03	1.28371
1313.63	0.682163
1315.22	0.450424
1316.82	1.09785
1318.41	0.704288
1320.01	0.617033
1321.6	1.01803
1323.2	0.74535
1324.79	0.471702
1326.38	0.42077
1327.98	1.22096
1329.57	0.318666
1331.16	0.67382
1332.76	1.13119
1334.35	0.984151
1335.94	0.980068
1337.53	1.03705
1339.12	0.932147
1340.71	0.705051
1342.3	0.335588
1343.89	0.648587
1345.48	0.538232
1347.07	1.43074
1348.66	0.459945
1350.25	1.55453
1351.84	1.2099
1353.43	0.707634
1355.01	0.646647
1356.6	0.186412
1358.19	0.105634
1359.77	1.28215
1361.36	0.440749
1362.95	0.955925
1364.53	0.632837
1366.12	0.529483
1367.71	0.665893
1369.29	0.763435
1370.88	0.344758
1372.46	0.882569
1374.04	0.366755
1375.63	1.10513
1377.21	0.410944
1378.8	0.512268
1380.38	0.493316
1381.96	0.692039
1383.54	0.790028
1385.13	0.608726
1386.71	0.168876
1388.29	0.384863
1389.87	0.859262
1391.45	0.758677
1393.03	0.69856
1394.61	0.817336
1396.19	1.01522
1397.77	0.8159
1399.35	0.813942
1400.93	0.514011
1402.51	0.649319
1404.09	0.962474
1405.67	0.128883
1407.24	0.739657
1408.82	0.599919
1410.4	0.361985
1411.98	0.736321
1413.55	0.655875
1415.13	0.653595
1416.71	0.492766
1418.28	0.390862
1419.86	0.584808
1421.43	0.247842
1423.01	0.345528
1424.58	1.11381
1426.16	0.91877
1427.73	0.212509
1429.31	0.568885
1430.88	0.727638
1432.45	0.216247
1434.02	0.786253
1435.6	1.02116
1437.17	1.11845
1438.74	1.19669
1440.31	1.19723
1441.88	0.923533
1443.45	0.689799
1445.03	1.32119
1446.6	1.18626
1448.17	0.913842
1449.74	0.779238
1451.3	1.19555
1452.87	0.904522
1454.44	1.12517
1456.01	1.32623
1457.58	1.05449
1459.15	1.41132
1460.72	0.841613
1462.28	0.585197
1463.85	0.779797
1465.42	0.442513
1466.98	0.792786
1468.55	0.612863
1470.12	0.904875
1471.68	0.609152
1473.25	1.07946
1474.81	0.432576
1476.38	0.982289
1477.94	0.904626
1479.51	1.00334
1481.07	0.827542
1482.63	0.200982
1484.2	0.573777
1485.76	0.515157
1487.32	0.612571
1488.88	0.395512
1490.45	0.705324
1492.01	0.387068
1493.57	-0.0693073
1495.13	0.527259
1496.69	1.08239
1498.25	0.584989
1499.81	0.28367
1501.37	0.216974
1502.93	0.500543
1504.49	0.144993
1506.05	0.816319
1507.61	0.673581
1509.17	0.394944
1510.73	-0.0963821
1512.28	0.0101595
1513.84	0.404763
1515.4	-0.47018
1516.96	0.15503
1518.51	0.0890779
1520.07	0.234521
1521.63	0.226771
1523.18	0.0276251
1524.74	0.152808
1526.29	0.505619
1527.85	0.532918
1529.4	0.217348
1530.96	0.719087
1532.51	0.613106
1534.06	0.0158386
1535.62	0.272104
1537.17	-0.0192947
1538.72	0.237904
1540.28	0.117805
1541.83	0.393649
1543.38	-0.403905
1544.93	0.661329
1546.48	0.315513
1548.03	0.0265303
1549.59	0.319175
1551.14	0.517745
1552.69	0.342224
1554.24	0.317373
1555.79	0.331126
1557.34	0.122412
1558.88	0.0275412
1560.43	0.270155
1561.98	0.141042
1563.53	0.591256
1565.08	0.165148
1566.62	1.13864
1568.17	0.8617
1569.72	0.976333
1571.27	0.213283
1572.81	0.625948
1574.36	0.366467
1575.9	0.480347
1577.45	0.59441
1579	0.690182
1580.54	0.17034
1582.09	0.267297
1583.63	0.570526
1585.17	0.79987
1586.72	0.263321
1588.26	0.792583
1589.8	0.386533
1591.35	0.915723
1592.89	0.564778
1594.43	0.644141
1595.97	0.554951
1597.52	1.02833
1599.06	0.583922
1600.6	0.627481
1602.14	0.727818
1603.68	0.546595
1605.22	0.327052
1606.76	0.124981
1608.3	0.560242
1609.84	0.467272
1611.38	0.409877
1612.92	0.388345
1614.46	0.121685
1615.99	1.26166
1617.53	0.357439
1619.07	0.579321
1620.61	0.483954
1622.14	0.296243
1623.68	0.970523
1625.22	1.13927
1626.75	0.0346565
1628.29	0.370144
1629.82	0.741552
1631.36	0.289267
1632.9	0.304087
1634.43	0.599131
1635.96	0.409452
1637.5	0.575103
1639.03	0.592052
1640.57	0.72087
1642.1	0.904952
1643.63	0.47341
1645.16	0.525124
1646.7	0.985048
1648.23	0.514894
1649.76	0.361395
1651.29	0.394493
1652.82	0.725389
1654.36	0.871603
1655.89	0.48081
1657.42	0.849924
1658.95	0.51428
1660.48	0.807229
1662.01	0.377034
1663.53	0.926171
1665.06	0.845889
1666.59	0.766021
1668.12	0.908545
1669.65	0.665144
1671.18	0.404893
1672.7	0.219473
1674.23	0.955347
1675.76	0.199418
1677.29	0.73158
1678.81	0.710465
1680.34	0.412626
1681.86	0.647305
1683.39	0.257043
1684.91	0.417844
1686.44	0.505387
1687.96	0.831496
1689.49	0.443175
1691.01	0.842806
1692.54	0.674791
1694.06	0.397145
1695.58	0.101345
1697.11	0.171084
1698.63	0.660455
1700.15	0.0538311
1701.67	-0.44304
1703.2	0.71876
1704.72	0.166497
1706.24	-0.130561
1707.76	0.0453024
1709.28	0.929159
1710.8	0.341562
1712.32	0.480427
1713.84	-0.0511456
1715.36	-0.00248718
1716.88	0.0279427
1718.4	0.23894
1719.91	0.0522385
1721.43	-0.206193
1722.95	-0.625998
1724.47	0.23482
1725.99	0.213404
1727.5	0.157216
1729.02	-0.149965
1730.54	0.420014
1732.05	0.373362
1733.57	0.100326
1735.09	-0.0563059
1736.6	-0.111334
1738.12	0.118753
1739.63	0.0549068
1741.15	-0.0441122
1742.66	0.039093
1744.18	0.113562
1745.69	0.425672
1747.2	-0.0611267
1748.72	0.290683
1750.23	0.321338
1751.74	-0.0665236
1753.25	-0.13547
1754.77	-0.143291
1756.28	0.0326061
1757.79	0.013257
1759.3	-0.00769997
1760.81	0.128556
1762.32	0.220301
1763.83	-0.130331
1765.34	0.0848236
1766.85	-0.209381
1768.36	0.268052
1769.87	0.236339
1771.38	0.162533
1772.89	0.235057
1774.4	-0.181346
1775.91	0.49145
1777.41	-0.0673971
1778.92	-0.195958
1780.43	0.260919
1781.94	0.330848
1783.44	0.333521
1784.95	0.399365
1786.45	0.0803318
1787.96	0.291241
1789.47	0.242087
1790.97	-0.125735
1792.47	0.202715
1793.98	-0.0924091
1795.48	0.117728
1796.99	-0.00134373
1798.49	0.155234
1800	-0.287875
1801.5	0.137274
1803	0.0982227
1804.51	0.271826
1806.01	0.19025
1807.51	0.215942
1809.01	0.0433693
1810.51	0.0737963
1812.02	0.178212
1813.52	-0.0690451
1815.02	-0.055747
1816.52	0.0290823
1818.02	0.183122
1819.52	0.0978441
1821.02	0.117868
1822.52	0.155573
1824.02	-0.023201
1825.51	-0.195034
1827.01	0.21418
1828.51	0.127715
1830.01	0.11788
1831.51	-0.142382
1833	0.103044
1834.5	-0.129249
1836	0.109015
1837.49	0.245688
1838.99	0.290083
1840.49	0.15171
1841.98	-0.159779
1843.48	0.111293
1844.97	0.0573378
1846.47	0.124215
1847.96	-0.0784979
1849.46	-0.0584488
1850.95	-0.220536
1852.45	0.0191317
1853.94	0.00359058
1855.43	-0.190616
1856.92	0.121481
1858.42	0.328881
1859.91	-0.163227
1861.4	0.109361
1862.89	0.278893
1864.39	0.0335808
1865.88	-0.261833
1867.37	-0.189667
1868.86	0.0287561
1870.35	-0.312538
1871.84	0.0463762
1873.33	0.193512
1874.82	0.21558
1876.31	0.281726
1877.8	0.178886
1879.29	0.0226183
1880.77	-0.133818
1882.26	0.235659
1882.52	0.322293
1884.02	0.0592098
1885.51	0.266123
1887.01	0.35015
1888.5	0.294368
1889.99	0.0300417
1891.49	0.114651
1892.98	0.148461
1894.47	0.0447969
1895.96	0.446735
1897.46	0.275663
1898.95	0.434934
1900.44	0.106214
1901.93	-0.119563
1903.42	0.331466
1904.91	-0.053525
1906.4	0.0823908
1907.89	-0.111797
1909.38	0.0245152
1910.87	0.0400801
1912.36	0.16051
1913.85	-0.0828199
1915.34	-0.221934
1916.83	0.106823
1918.32	0.157637
1919.8	-0.0345459
1921.29	-0.0361538
1922.78	-0.054719
1924.27	-0.0378885
1925.75	0.0491734
1927.24	0.189108
1928.73	-0.0512676
1930.21	0.0546045
1931.7	-0.18655
1933.18	0.194436
1934.67	-0.274487
1936.15	0.103312
1937.64	0.0992546
1939.12	0.198465
1940.61	-0.323808
1942.09	-0.0508909
1943.57	0.533167
1945.06	0.307105
1946.54	0.167727
1948.02	-0.281966
1949.51	0.198277
1950.99	0.401711
1952.47	0.225517
1953.95	-0.0369377
1955.43	0.182034
1956.91	0.349548
1958.39	0.208554
1959.87	-0.549188
1961.36	-0.0369129
1962.84	0.115172
1964.32	0.112777
1965.79	0.195571
1967.27	0.26055
1968.75	-0.136958
1970.23	0.166348
1971.71	0.298193
1973.19	-0.15051
1974.66	-0.444986
1976.14	0.386002
1977.62	0.483617
1979.1	-0.0826244
1980.57	0.0152435
1982.05	0.112831
1983.53	0.227007
1985	0.459533
1986.48	0.470989
1987.95	0.499358
1989.43	0.240103
1990.9	0.455651
1992.38	0.384276
1993.85	0.0941277
1995.33	0.0584288
1996.8	0.0400352
1998.27	0.038517
1999.75	-0.165961
2001.22	0.186076
2002.69	-0.187906
2004.16	-0.089613
2005.64	0.312172
2007.11	0.242675
2008.58	0.207747
2010.05	-0.0284157
2011.52	0.308291
2012.99	-0.0619464
2014.46	0.257524
2015.93	0.155571
2017.4	0.170607
2018.87	0.0672207
2020.34	0.400311
2021.81	0.111576
2023.28	-0.344432
2024.75	0.00599098
2026.22	-0.229884
2027.69	0.122568
2029.15	0.241496
2030.62	0.462303
2032.09	0.264585
2033.56	-0.0335598
2035.02	-0.0968113
2036.49	0.0915451
2037.95	0.262747
2039.42	0.265611
2040.89	0.302044
2042.35	0.406097
2043.82	0.208132
2045.28	0.280058
2046.75	0.386398
2048.21	0.223617
2049.67	-0.192429
2051.14	-0.356798
2052.6	0.000261307
2054.06	0.372711
2055.53	-0.0489984
2056.99	-0.319976
2058.45	0.369061
2059.92	-0.037447
2061.38	0.0786839
2062.84	0.144951
2064.3	0.329885
2065.76	0.0781298
2067.22	0.348829
2068.68	0.0646763
2070.14	0.201565
2071.6	0.355377
2073.06	0.0881691
2074.52	0.49424
2075.98	0.647465
2077.44	-0.243737
2078.9	-0.0743451
2080.36	0.414573
2081.82	0.111583
2083.27	-0.0403848
2084.73	0.194131
2086.19	0.0914145
2087.65	0.105947
2089.1	-0.417679
2090.56	0.184458
2092.01	0.46693
2093.47	0.346315
2094.93	0.108213
2096.38	0.138123
2097.84	0.0334306
2099.29	0.246332
2100.75	0.24123
2102.2	0.169485
2103.66	-0.0684152
2105.11	0.412708
2106.56	0.494235
2108.02	0.376523
2109.47	0.0590768
2110.92	0.0413995
2112.37	0.47251
2113.83	0.268851
2115.28	0.0640764
2116.73	0.207987
2118.18	0.119376
2119.63	0.330814
2121.09	0.0625806
2122.54	0.459599
2123.99	0.0617852
2125.44	-0.0369296
2126.89	0.328388
2128.34	-0.0532002
2129.79	0.227092
2131.23	0.224478
2132.68	0.30394
2134.13	0.234399
2135.58	0.231744
2137.03	0.213817
2138.48	0.213998
2139.92	0.199264
2141.37	0.103256
2142.82	0.206627
2144.26	0.178285
2145.71	0.0507336
2147.16	0.535441
2148.6	0.125577
2150.05	0.112351
2151.49	0.529082
2152.94	0.514219
2154.38	0.498641
2155.83	0.449532
2157.27	0.102323
2158.72	-0.0123496
2160.16	0.503565
2161.6	0.292058
2163.05	0.264307
2164.49	0.436882
2165.93	0.37799
2167.38	0.335553
2168.82	0.125937
2170.26	0.446861
2171.7	-0.132114
2173.14	0.651355
2174.58	0.435524
2176.03	0.867836
2177.47	0.402301
2178.91	0.00403357
2180.35	0.288244
2181.79	-0.00873375
2183.23	0.359877
2184.67	0.479358
2186.1	0.415956
2187.54	0.369189
2188.98	0.389004
2190.42	0.0925493
2191.86	0.295221
2193.3	-0.0687714
2194.73	0.481863
2196.17	0.231817
2197.61	0.396221
2199.05	0.0269132
2200.48	0.28862
2201.92	0.350577
2203.35	0.595495
2204.79	0.393375
2206.22	0.291791
2207.66	0.207314
2209.09	0.304915
2210.53	0.269353
2211.96	0.514174
2213.4	0.212553
2214.83	0.340697
2216.27	0.304111
2217.7	0.235545
2219.13	0.217564
2220.56	0.233301
2222	-0.245289
2223.43	0.0172472
2224.86	0.0149465
2226.29	-0.202687
2227.72	0.400696
2229.16	0.131364
2230.59	0.419712
2232.02	-0.210414
2233.45	0.536026
2234.88	0.414916
2236.31	0.278728
2237.74	0.0625052
2239.17	0.190787
2240.6	0.385925
2242.03	0.288987
2243.45	0.258377
2244.88	0.179142
2246.31	0.311392
2247.74	0.213934
2249.17	0.0331788
2250.59	-0.0515079
2252.02	0.432166
2253.45	0.410111
2254.87	-0.0828066
2256.3	0.335426
2257.73	0.430664
2259.15	0.301228
2260.58	0.0932198
2262	0.471522
2263.43	0.023315
2264.85	-0.262656
2266.28	0.458889
2267.7	0.0742517
2269.13	-0.148753
2270.55	0.0506854
2271.97	0.42891
2273.4	0.285983
2274.82	-0.0361161
2276.24	0.228378
2277.66	0.134603
2279.09	0.187557
2280.51	0.0611186
2281.93	0.309654
2283.35	0.00353193
2284.77	0.121584
2286.19	0.0929737
2287.61	0.162628
2289.04	-0.191967
2290.46	-0.137994
2291.88	0.0797276
2293.29	0.346807
2294.71	0.303232
2296.13	0.0467544
2297.55	0.150272
2298.97	0.335835
2300.39	0.30866
2301.81	0.314499
2303.23	0.336999
2304.64	0.0970278
2306.06	0.0866652
2307.48	-0.269055
2308.89	-0.083086
2310.31	0.0367641
2311.73	-0.0903826
2313.14	0.111443
2314.56	0.149145
2315.97	0.121638
2317.39	0.0947747
2318.8	-0.0471263
2320.22	0.0580254
2321.63	0.195344
2323.05	-0.378547
2324.46	0.46487
2325.88	0.316084
2327.29	0.495735
2328.7	0.789866
2330.12	0.112036
2331.53	0.29176
2332.94	0.0608702
2334.35	0.242196
2335.76	0.193351
2337.18	0.177034
2338.59	-0.020956
2340	-0.40049
2341.41	-0.222026
2342.82	0.201947
2344.23	0.166133
2345.64	0.19616
2347.05	0.324672
2348.46	0.240259
2349.87	0.155616
2351.28	0.201189
2352.69	0.409153
2354.1	0.0611334
2355.5	-0.0422916
2356.91	0.131011
2358.32	0.0599437
2359.73	-0.157089
2361.14	0.356772
2362.54	-0.200521
2363.95	0.150237
2365.36	0.322238
2366.76	-0.0231185
2368.17	-0.254249
2369.58	0.0643568
2370.98	0.431952
2372.39	0.220298
2373.79	0.0258451
2375.2	0.12163
2376.6	0.0239425
2378	-0.203196
2379.41	0.0989227
2380.81	-0.0503736
2382.22	0.0880585
2383.62	-0.367166
2385.02	0.122256
2386.42	0.179479
2387.83	0.157551
2389.23	-0.00679445
2390.63	0.0532613
2392.03	-0.0290499
2393.43	0.0328002
2394.84	0.302052
2396.24	0.142458
2397.64	0.110671
2399.04	0.111178
2400.44	0.000914097
2401.84	-0.0772748
2403.24	0.130458
2404.64	0.0678773
2406.04	0.0204644
2407.44	0.0992298
2408.83	0.0979509
2410.23	0.3183
2411.63	0.205914
2413.03	-0.0640278
2414.43	0.0947576
2415.83	-0.20434
2417.22	0.225927
2418.62	0.182063
2420.02	0.154347
2421.41	0.205716
2422.81	-0.0917354
2424.21	-0.262745
2425.6	-0.291126
2427	-0.366642
2428.39	0.0658174
2429.79	-0.166727
2431.18	-0.224358
2432.58	0.0832062
2433.97	0.485908
2435.36	0.0300159
2436.76	0.208216
2438.15	0.194452
2439.54	0.0842562
2440.94	0.11625
2442.33	0.100134
2443.72	-0.0272908
2445.11	0.368661
2446.51	-0.0127258
2447.9	-0.124485
2449.29	0.0964861
2450.68	0.0641265
2452.07	-0.110199
2453.46	0.111816
2454.85	-0.076859
2456.24	0.114753
2457.63	0.021893
2459.02	-0.260881
2460.41	0.0410748
2461.8	0.10507
2463.19	0.437041
2464.58	-0.0375061
2465.97	-0.0223541
2467.36	-0.196717
2468.75	0.0550437
2470.13	-0.119407
2471.52	0.08424
2472.91	0.287076
2474.29	0.394525
2475.68	0.0136089
2477.07	-0.0998297
2478.45	0.132371
2479.84	0.254499
2481.22	0.000272751
2482.61	-0.0342703
2484	0.134362
2485.38	0.00478697
2486.77	0.0463681
2488.15	0.196149
2489.54	0.157903
2490.92	0.119628
2492.3	0.0974426
2493.69	-0.00140905
2495.07	-0.176481
2496.45	0.0837955
2497.84	0.189524
2499.22	0.419172
2500.6	-0.0632863
2501.98	-0.0201993
2503.36	-0.0860863
2504.74	-0.322269
2506.13	-0.14244
2507.51	0.159914
2508.89	0.215725
2510.27	0.133577
2511.65	0.205571
2513.03	-0.243057
2514.41	0.305346
2515.79	-0.355455
2517.17	-0.096972
2518.55	0.406296
2519.93	-0.0382133
2521.3	0.204794
2522.68	0.218008
2524.06	-0.0898194
2525.44	0.288035
2526.82	0.11685
2528.19	-0.00806665
2529.57	0.00497389
2530.95	0.0953312
2532.32	-0.35994
2533.7	0.188796
2535.08	0.358274
2536.45	-0.262285
2537.83	-0.154147
2539.2	0.241737
2540.58	0.0142059
2541.95	0.181131
2543.33	-0.258715
2544.7	0.227683
2546.08	0.350977
2547.45	0.156809
2548.82	-0.067008
2550.2	0.164385
2551.57	-0.0901875
2552.94	0.0642114
2554.32	0.460521
2555.69	-0.0543923
2557.06	-0.0689931
2558.43	0.0679421
2559.8	0.0079608
2561.17	-0.00607347
2562.55	0.419923
2563.92	0.391762
2565.29	0.0609055
2566.66	0.184891
2568.03	-0.0092926
2569.4	-0.324728
2570.77	0.17827
2572.14	0.135692
2573.51	0.305402
2574.88	-0.0553684
2576.24	0.266083
2577.61	0.375255
2578.98	0.256802
2580.35	0.0470648
2581.72	0.398007
2583.09	-0.0246444
2584.45	0.325733
2585.82	0.0696731
2587.19	0.116902
2588.55	0.1946
2589.92	-0.0913234
2591.28	0.0924544
2592.65	0.169749
2594.02	0.0191059
2595.38	0.0494118
2596.75	0.290736
2598.11	0.0470352
2599.48	0.468527
2600.84	-0.0169797
2602.2	0.0874557
2603.57	-0.0340672
2604.93	0.0411496
2606.3	0.146654
2607.66	-0.0949984
2609.02	-0.080914
2610.38	0.0677161
2611.75	0.0645227
2613.11	0.00021553
2614.47	0.115642
2615.83	0.395671
2617.19	-0.194106
2618.56	-0.0933237
2619.92	-0.0369644
2621.28	0.408686
2622.64	0.346134
2624	-0.223814
2625.36	0.236594
2626.72	-0.00469589
2628.08	0.0670071
2629.44	0.153239
2630.8	0.149899
2632.15	0.280272
2633.51	-0.050076
2634.87	0.169247
2636.23	0.254723
2637.59	0.280786
2638.94	0.0847607
2640.3	0.0223408
2641.66	0.255908
2643.02	0.341652
2644.37	0.0878897
2645.73	0.188479
2647.08	0.0379829
2648.44	-0.0981197
2649.8	-0.352376
2651.15	-0.0774479
2652.51	-0.126417
2653.86	-0.0870752
2655.22	-0.267053
2656.57	0.271815
2657.92	-0.0819097
2659.28	-0.20041
2660.63	0.281033
2661.99	0.162701
2663.34	-0.102061
2664.69	-0.119021
2666.04	0.184304
2667.4	0.180711
2668.75	0.0605574
2670.1	0.0863304
2671.45	-0.0474181
2672.81	0.284508
2674.16	0.529449
2675.51	0.411787
2676.86	0.468842
2678.21	0.439425
2679.56	0.0337682
2680.91	0.267053
2682.26	0.153388
2683.61	0.14222
2684.96	-0.100221
2686.31	0.325037
2687.66	0.0537429
2689	-0.000902176
2690.35	0.0156455
2691.7	-0.0418859
2693.05	-0.0571027
2694.4	-0.000596523
2695.74	0.22961
2697.09	-0.0613728
2698.44	0.0254402
2699.79	0.17153
2701.13	0.0294766
2702.48	0.337646
2703.82	-0.0486131
2705.17	0.043644
2706.52	0.121533
2707.86	0.18476
2709.21	0.421912
2710.55	0.455607
2711.9	0.605305
2713.24	0.420759
2714.58	-0.156414
2715.93	0.25473
2717.27	-0.133924
2718.61	-0.130199
2719.96	-0.228619
2721.3	0.32747
2722.64	0.0536637
2723.99	0.0996552
2725.33	0.0433984
2726.67	0.234271
2728.01	0.235655
2729.35	0.23684
2730.7	-0.00945044
2732.04	0.52992
2733.38	0.356444
2734.72	0.474068
2736.06	0.359144
2737.4	0.389791
2738.74	0.507682
2740.08	0.261795
2741.42	-0.0425954
2742.76	0.248616
2744.09	0.335637
2745.43	0.131518
2746.77	0.34833
2748.11	-0.0883832
2749.45	0.374873
2750.79	-0.206303
2752.12	0.706442
2753.46	0.241939
2754.8	-0.0482469
2756.13	-0.135365
2757.47	0.284488
2758.81	0.255584
2760.14	0.140187
2761.48	-0.104997
2762.81	-0.0169349
2764.15	0.17266
2765.49	0.174146
2766.82	0.421191
2768.15	-0.243862
2769.49	0.0736513
2770.82	0.346326
2772.16	-0.220078
2773.49	0.108166
2774.82	0.363319
2776.16	0.243488
2777.49	0.124177
2778.82	0.0342841
2780.16	0.146139
2781.49	-0.0290995
2782.82	0.0112405
2784.15	-0.106272
2785.48	0.406965
2786.81	0.303815
2788.15	0.0867062
2789.48	-0.100907
2790.81	0.17004
2792.14	-0.073267
2793.47	0.0555944
2794.8	0.355939
2796.13	0.0128889
2797.46	0.0124006
2798.79	0.211347
2800.12	0.0244317
2801.44	0.137036
2802.77	0.277887
2804.1	0.318623
2805.43	0.131061
2806.76	0.12826
2808.08	-0.187965
2809.41	0.178119
2810.74	-0.0669765
2812.07	0.384134
2813.39	-0.100426
2814.72	-0.00208235
2816.05	-0.00184202
2817.37	-0.000689983
2818.7	0.0718098
2820.02	0.399443
2821.35	0.131422
2822.67	0.188829
2824	-0.0659966
2825.32	0.0756197
2826.65	0.259685
2827.97	0.118458
2829.29	0.317498
2830.62	0.332872
2831.94	0.178558
2833.26	0.137449
2834.59	0.195164
2835.91	-0.0871787
2837.23	0.0263305
2838.55	0.365774
2839.88	0.450319
2841.2	0.0259333
2842.52	0.577391
2843.84	0.309467
2845.16	0.720518
2846.48	0.0155988
2847.8	0.540493
2849.12	0.514234
2850.44	0.544275
2851.76	0.757671
2853.08	0.843438
2854.4	0.773434
2855.72	0.335955
2857.04	0.915702
2858.36	0.817346
2859.68	0.733122
2861	1.11476
2862.32	0.860715
2863.63	0.775863
2864.95	0.944831
2866.27	0.859777
2867.58	0.930087
2868.9	1.1417
2870.22	0.987011
2871.53	1.49499
2872.85	1.49523
2874.17	1.38217
2875.48	1.26834
2876.8	1.1397
2878.11	1.32014
2879.43	1.21889
2880.74	1.72239
2882.06	1.49546
2883.37	1.62064
2884.69	1.59205
2886	1.18491
2887.31	1.22711
2888.63	1.33913
2889.94	1.64688
2891.25	1.29473
2892.57	1.1106
2893.88	1.59894
2895.19	1.80706
2896.5	1.81968
2897.82	1.45528
2899.13	1.45557
2900.44	1.27459
2901.75	1.38773
2903.06	1.17928
2904.37	1.43253
2905.68	1.57406
2906.99	1.54814
2908.3	1.22903
2909.61	1.59599
2910.92	1.6976
2912.23	1.30932
2913.54	1.73238
2914.85	1.6645
2916.16	1.8474
2917.46	1.93114
2918.77	2.26596
2920.08	1.97106
2921.39	1.95645
2922.7	2.13841
2924	2.44712
2925.31	2.04376
2926.62	2.11608
2927.92	1.75506
2929.23	2.19062
2930.53	2.40211
2931.84	2.48743
2933.15	2.58652
2934.45	2.07059
2935.76	1.87626
2937.06	2.57645
2938.37	2.14479
2939.67	2.20242
2940.98	2.13464
2942.28	1.91373
2943.58	2.08493
2944.89	1.87968
2946.19	1.99676
2947.49	2.00242
2948.8	1.92394
2950.1	2.09661
2951.4	1.70795
2952.7	1.23392
2954.01	1.64106
2955.31	1.76783
2956.61	1.51726
2957.91	1.63203
2959.21	1.31469
2960.51	1.58733
2961.81	1.55334
2963.11	0.958653
2964.41	1.57012
2965.71	1.40873
2967.01	1.62546
2968.31	1.3915
2969.61	1.31154
2970.91	0.922007
2972.21	0.954535
2973.51	1.12803
2974.81	1.189
2976.1	0.953861
2977.4	1.1965
2978.7	1.09997
2980	1.21334
2981.29	0.593957
2982.59	0.635717
2983.89	0.790125
2985.18	0.91708
2986.48	0.960754
2987.78	0.597992
2989.07	0.671552
2990.37	0.337747
2991.66	0.734387
2992.96	0.680503
2994.25	0.808322
2995.55	0.387399
2996.84	0.443584
2998.14	0.415341
2999.43	0.61171
3000.72	0.780258
3002.02	0.360429
3003.31	0.725859
3004.6	0.362701
3005.9	0.2096
3007.19	0.196115
3008.48	0.391847
3009.77	0.30699
3011.07	-0.0438309
3012.36	0.205864
3013.65	0.371435
3014.94	0.0770359
3016.23	0.117896
3017.52	-0.105262
3018.81	-0.0495076
3020.1	0.103571
3021.39	0.0198302
3022.68	-0.328361
3023.97	-0.107795
3025.26	0.139494
3026.55	-0.0709505
3027.84	0.0375891
3029.13	0.0638251
3030.42	-0.116085
3031.71	0.202478
3033	0.162659
3034.28	0.136901
3035.57	0.262455
3036.86	0.000766277
3038.15	0.0135365
3039.43	-0.0577893
3040.72	0.103441
3042.01	-0.120817
3043.29	0.272224
3044.58	-0.101655
3045.86	0.0324926
3047.15	-0.118816
3048.44	-0.117947
3049.72	0.102904
3051.01	-0.0708475
3052.29	-0.0938563
3053.58	0.374329
3054.86	0.173373
3056.14	-0.137459
3057.43	0.259934
3058.71	0.342885
3060	0.166779
3061.28	0.100001
3062.56	0.251643
3063.84	0.159505
3065.13	0.299725
3066.41	0.576993
3067.69	0.0393114
3068.97	0.0593181
3070.25	0.0246863
3071.54	0.0301518
3072.82	0.33379
3074.1	0.106049
3075.38	0.285319
3076.66	-0.0112071
3077.94	-0.103549
3079.22	-0.045763
3080.5	0.135212
3081.78	0.141036
3083.06	0.066433
3084.34	0.195867
3085.62	-0.231068
3086.9	0.155883
3088.17	0.0400581
3089.45	-0.0220652
3090.73	-0.0845723
3092.01	0.00202179
3093.29	0.197167
3094.56	-0.0550747
3095.84	0.0725951
3097.12	0.0646901
3098.4	0.0160427
3099.67	-0.0733886
3100.95	-0.0680656
3102.22	-0.089818
3103.5	-0.124921
3104.77	0.0704556
3106.05	0.239242
3107.33	0.165121
3108.6	0.200068
3109.88	-0.0483952
3111.15	0.245364
3112.43	0.0658317
3113.7	0.265882
3114.97	-0.0355415
3116.25	0.326875
3117.52	-0.152203
3118.79	0.154405
3120.07	0.120995
3121.34	0.235928
3122.61	0.0927482
3123.88	-0.334977
3125.16	-0.0310855
3126.43	-0.187315
3127.7	-0.00479794
3128.97	0.394362
3130.24	-0.193503
3131.51	0.462571
3132.78	0.0911098
3134.05	0.0842657
3135.33	0.0769615
3136.59	0.285005
3137.86	0.317029
3139.14	0.335162
3140.41	0.124248
3141.67	-0.0325274
3142.94	0.294846
3144.21	0.152128
3145.48	0.184461
3146.75	0.203837
3148.02	0.0361104
3149.28	0.150166
