200.388	-0.059967
202.204	-0.0463047
204.019	-0.0313921
205.832	0.155194
207.646	0.14774
209.459	0.820336
211.274	0.713886
213.087	0.53323
214.899	-0.424605
216.711	-0.0242987
218.524	0.302996
220.335	-0.288965
222.146	0.330585
223.956	0.660695
225.766	-0.144382
227.576	-0.223765
229.388	-0.520654
231.197	0.0269423
233.005	-0.270556
234.813	0.252626
236.621	0.777129
238.429	-0.16595
240.236	0.075387
242.045	-0.210558
243.852	0.807794
245.658	-0.0310936
247.464	0.672791
249.269	0.987374
251.074	0.380482
252.879	0.808232
254.683	0.654413
256.487	0.765465
258.291	0.708879
260.094	0.245063
261.897	0.868073
263.702	1.08394
265.504	0.626816
267.306	0.36296
269.108	0.70139
270.909	0.508622
272.71	0.338558
274.511	0.335575
276.311	0.306507
278.111	0.154716
279.91	0.048769
281.709	0.0126581
283.508	0.238863
285.306	0.174571
287.105	0.133464
288.9	0.0924759
290.698	-0.498388
292.495	0.804376
294.291	0.385179
296.088	0.0163136
297.884	0.509668
299.679	0.143366
301.475	-0.294458
303.27	0.580274
305.064	0.0924606
306.858	0.462657
308.652	0.236231
310.444	-0.65635
312.237	0.239627
314.03	0.375285
315.822	-0.200936
317.615	0.201527
319.406	0.0345182
321.198	0.369486
322.987	-0.152614
324.778	0.0173464
326.568	0.378763
328.358	0.286489
330.148	-0.380396
331.935	1.29452
333.724	-0.644187
335.513	0.309116
337.301	0.158914
339.089	-0.280982
340.875	0.712326
342.662	0.699794
344.449	0.0898695
346.236	-0.280061
348.02	-0.481702
349.806	-0.0141058
351.592	0.0237865
353.375	-0.416213
355.16	0.764915
356.944	0.226686
358.728	-0.0982075
360.51	-0.0907373
362.294	-0.227199
364.077	0.206298
365.858	-0.288365
367.64	-0.0235415
369.422	-0.210817
371.202	0.146034
372.983	0.453903
374.764	0.666062
376.543	1.20832
378.324	1.18418
380.102	0.855132
381.881	1.46981
383.661	1.37976
385.438	1.47976
387.216	1.55796
388.993	1.68473
390.771	1.46062
392.548	1.49613
394.324	0.593198
396.101	0.583237
397.875	0.925735
399.651	0.86882
401.425	1.18716
403.201	0.330314
404.974	1.25752
406.749	0.727625
408.524	1.15971
410.296	1.16865
412.07	0.825633
413.841	0.506758
415.614	1.10398
417.385	0.130197
419.156	0.471273
420.928	0.296487
422.698	0.919478
424.469	1.0957
426.238	0.378607
428.009	-0.151716
429.777	0.256328
431.548	-0.180682
433.315	0.0164099
435.083	0.284348
436.852	-0.104846
438.618	0.0918617
440.387	0.0755777
442.153	0.807392
443.919	0.902687
445.686	-0.152522
447.451	0.0329046
449.218	0.264137
450.982	-0.22922
452.746	-0.114379
454.512	-0.232686
456.275	0.231876
458.038	0.881838
459.803	-0.0515566
461.565	0.831091
463.327	0.227192
465.091	0.0218287
466.852	0.377772
468.613	0.342232
470.374	-0.388479
472.136	0.183919
473.896	0.406862
475.655	0.27841
477.415	-0.0392714
479.176	0.222991
480.934	0.250957
482.692	-0.210054
484.45	0.657922
486.21	-0.0787745
487.967	-0.0208712
489.724	0.506166
491.481	0.591879
493.237	0.421635
494.995	-0.0994024
496.75	0.712712
498.506	1.0808
500.26	-0.0987711
502.015	0.314777
503.769	0.0232172
505.525	0.0823841
507.279	0.492616
509.032	0.760078
510.785	0.837344
512.537	0.51249
514.289	0.56215
516.041	0.86877
517.793	0.56216
519.546	0.983185
521.297	0.956363
523.047	0.670582
524.797	0.57257
526.547	0.68575
528.297	0.494032
530.046	1.05229
531.795	0.719396
533.543	0.596519
535.291	1.12723
537.039	1.28127
538.787	0.59261
540.534	0.813348
542.281	0.916014
544.027	0.552588
545.773	0.44558
547.519	0.33904
549.264	0.78944
551.01	0.428625
552.754	0.323284
554.499	-0.0357704
556.243	0.391077
557.987	-0.0587587
559.73	0.414448
561.474	0.795453
563.216	0.854574
564.959	1.3741
566.701	0.653379
568.441	0.210066
570.182	0.273362
571.923	0.63658
573.664	0.0842323
575.405	-0.213533
577.145	0.133162
578.885	0.55064
580.624	-0.684114
582.361	-0.173567
584.1	-0.375826
585.839	-0.0965195
587.577	0.112397
589.315	0.112785
591.052	0.549109
592.787	0.294497
594.524	-0.1444
596.26	0.014925
597.997	-0.147892
599.732	0.148987
601.466	0.375786
603.201	0.5549
604.936	-0.325507
606.67	-0.172757
608.403	-0.181961
610.136	0.0151625
611.87	0.602557
613.603	0.273258
615.334	0.128463
617.067	0.602607
618.799	0.503216
620.529	0.173649
622.26	0.163132
623.991	0.562974
625.72	-0.27139
627.451	0.266346
629.181	0.372367
630.909	0.321596
632.638	-0.365493
634.368	-0.00153542
636.095	0.11113
637.823	0.450009
639.551	0.671275
641.277	0.0902081
643.005	1.33001
644.73	0.584988
646.457	0.342052
648.184	0.147246
649.908	0.819961
651.634	-0.0704479
653.357	0.202865
655.083	0.298704
656.806	0.46595
658.53	0.634842
660.253	0.233182
661.977	0.856522
663.7	0.19809
665.422	0.267489
667.145	0.28875
668.865	0.148872
670.588	0.901807
672.308	0.696539
674.027	0.791891
675.749	0.638094
677.468	0.416829
679.188	0.264276
680.907	0.0412664
682.627	0.850987
684.345	0.208792
686.064	-0.022028
687.781	-0.139786
689.498	-0.0285788
691.216	0.0586777
692.932	0.55978
694.65	0.461017
696.366	-0.16859
698.081	-0.0166225
699.797	0.616907
701.512	0.305406
703.228	0.774486
704.942	0.438146
706.655	0.675371
708.371	1.07218
710.083	0.597138
711.796	1.08395
713.51	0.951879
715.222	0.774069
716.934	0.185504
718.645	0.738678
720.358	0.880802
722.068	0.33972
723.779	0.459454
725.49	0.533345
727.2	0.697612
728.909	-0.13744
730.618	0.77419
732.329	0.0981226
734.037	0.599688
735.745	0.919449
737.453	0.85513
739.16	0.746634
740.869	0.729657
742.576	1.20979
744.282	1.24078
745.988	1.5661
747.694	1.73555
749.401	1.59177
751.107	1.0449
752.811	0.882033
754.516	1.41826
756.22	0.876441
757.924	1.25925
759.627	1.57674
761.332	1.24235
763.035	0.614845
764.738	1.3183
766.44	1.29833
768.142	1.04997
769.843	1.90668
771.544	0.838804
773.245	2.03035
774.946	1.81917
776.646	1.65386
778.346	0.992719
780.046	1.93902
781.745	1.57517
783.444	1.12082
785.143	0.823349
786.841	1.6096
788.539	1.96168
790.237	1.40437
791.934	1.86138
793.631	1.47992
795.328	2.45224
797.024	1.80114
798.72	1.53607
800.416	1.63377
802.112	1.30576
803.807	1.09137
805.502	1.2142
807.196	1.76285
808.89	1.32131
810.584	1.66429
812.278	1.64675
813.971	1.53884
815.664	1.78896
817.354	1.47939
819.047	1.28214
820.739	2.04563
822.43	1.73732
824.122	2.05477
825.813	1.81652
827.503	2.24942
829.192	1.59445
830.882	2.12378
832.571	1.72136
834.261	1.74488
835.95	1.65828
837.637	1.68298
839.325	1.75093
841.013	1.34783
842.701	1.9705
844.389	1.16256
846.074	1.11499
847.761	1.58377
849.447	1.89948
851.131	1.34561
852.817	1.89149
854.503	1.13841
856.188	1.39432
857.871	1.04235
859.556	1.56527
861.24	0.623067
862.922	0.781641
864.606	1.07398
866.289	1.43297
867.97	1.13739
869.653	0.593
871.336	0.972853
873.016	0.29222
874.698	1.68714
876.379	0.758066
878.058	1.54407
879.739	0.772619
881.418	1.08416
883.098	1.41742
884.778	0.507706
886.456	1.19899
888.135	1.25618
889.812	1.33384
891.49	1.13903
893.167	1.16799
894.845	0.745337
896.523	0.7717
898.198	1.31328
899.875	0.708422
901.55	1.5379
903.226	1.40234
904.901	1.17746
906.576	1.84624
908.25	1.35488
909.925	1.31114
911.598	1.06846
913.271	1.18275
914.945	1.36389
916.617	0.990188
918.291	0.484102
919.962	1.10835
921.635	0.758718
923.306	0.54369
924.978	1.03782
926.648	1.51164
928.318	0.927839
929.989	0.875561
931.659	0.669763
933.328	1.28061
934.998	1.31801
936.666	0.539907
938.336	0.997978
940.004	1.65611
941.671	0.529142
943.34	1.30028
945.007	1.03432
946.673	1.38495
948.339	1.04897
950.007	1.19613
951.672	0.767957
953.337	1.26635
955.004	1.10488
956.669	0.505888
958.333	0.770951
959.997	1.87856
961.662	1.04606
963.326	0.787009
964.989	0.945798
966.651	0.681005
968.315	0.523205
969.977	1.20342
971.639	1.01956
973.301	0.814154
974.962	0.765374
976.624	0.674644
978.285	0.36459
979.945	0.49781
981.605	0.630682
983.264	1.44824
984.924	0.935104
986.583	1.61457
988.243	1.11859
989.901	1.37321
991.56	0.941545
993.217	0.819342
994.875	0.962277
996.532	0.994882
998.188	0.740787
999.845	2.0733
1001.5	1.20142
1003.16	2.28874
1004.81	1.2189
1006.47	0.545983
1008.12	0.796474
1009.78	0.893394
1011.43	1.01268
1013.09	0.255746
1014.74	0.880155
1016.39	0.475451
1018.05	1.12209
1019.7	0.478764
1021.35	1.10534
1023	0.771237
1024.65	0.438532
1026.31	1.59263
1027.96	1.95994
1029.61	1.21217
1031.26	2.07929
1032.91	1.63373
1034.56	2.12451
1036.21	2.32923
1037.86	1.92243
1039.51	1.42903
1041.16	1.87254
1042.8	0.860816
1044.45	1.59063
1046.1	2.04015
1047.75	1.47143
1049.39	1.62173
1051.04	1.99101
1052.69	0.623604
1054.33	1.16833
1055.98	0.865677
1057.62	1.2147
1059.27	1.17185
1060.91	1.08465
1062.56	0.931182
1064.2	0.733028
1065.85	0.403137
1067.49	0.637076
1069.13	-0.260131
1070.77	0.254122
1072.42	0.116522
1074.06	-0.128885
1075.7	0.321239
1077.34	0.447492
1078.98	0.878902
1080.62	0.422252
1082.27	-0.0560293
1083.91	0.830686
1085.55	0.522803
1087.18	0.450882
1088.82	0.939368
1090.46	0.386262
1092.1	0.545913
1093.74	0.315818
1095.38	0.258968
1097.02	-0.680615
1098.65	0.795456
1100.29	0.915576
1101.93	-0.231497
1103.56	0.0442591
1105.2	0.558181
1106.84	0.578099
1108.47	1.02778
1110.11	0.379383
1111.74	0.00878525
1113.38	0.58167
1115.01	0.55115
1116.64	0.412579
1118.28	0.788815
1119.91	0.458406
1121.54	0.193907
1123.18	0.787136
1124.81	0.161675
1126.44	0.393286
1128.07	0.668561
1129.7	0.410141
1131.33	0.665641
1132.97	0.750483
1134.6	0.364906
1136.23	-0.19234
1137.86	0.424568
1139.49	0.0570135
1141.11	0.798667
1142.74	0.407928
1144.37	0.508259
1146	0.524092
1147.63	-0.0555553
1149.26	0.00541401
1150.88	0.173505
1152.51	-0.212123
1154.14	0.0832996
1155.76	0.0800819
1157.39	0.246891
1159.01	0.435299
1160.64	0.34825
1162.27	0.539068
1163.89	0.497313
1165.51	0.434998
1167.14	0.691327
1168.76	0.0533695
1170.39	0.625037
1172.01	0.237741
1173.63	-0.0240498
1175.25	0.328183
1176.88	-0.0416098
1178.5	-0.283519
1180.12	-0.0585432
1181.74	-0.509693
1183.36	0.351344
1184.98	0.197268
1186.6	0.190053
1188.22	0.0331078
1189.84	0.126887
1191.46	0.828577
1193.08	-0.113532
1194.7	-0.00435257
1196.32	0.565762
1197.94	0.360755
1199.55	0.430343
1201.17	0.2312
1202.79	0.223715
1204.41	0.908294
1206.02	1.05281
1207.64	1.26171
1209.25	0.574047
1210.87	-0.0101318
1212.48	0.779951
1214.1	0.920449
1215.71	0.828711
1217.33	1.10914
1218.94	1.07583
1220.56	0.315812
1222.17	0.284037
1223.79	-0.119084
1225.4	1.05393
1227.01	1.33762
1228.62	1.37473
1230.23	0.793282
1231.85	1.41267
1233.46	1.12409
1235.07	1.60192
1236.68	1.11
1238.29	1.1775
1239.9	1.10123
1241.51	0.921778
1243.12	1.71419
1244.73	1.42991
1246.34	1.7029
1247.94	1.66411
1249.55	0.796664
1251.16	0.570299
1252.77	0.882049
1254.37	1.07055
1255.98	1.19841
1257.59	0.955569
1259.2	1.60395
1260.8	1.36386
1262.41	1.84903
1264.01	1.31959
1265.62	1.72177
1267.22	1.29408
1268.83	1.44545
1270.43	1.45032
1272.03	0.707355
1273.64	0.916816
1275.24	1.20783
1276.85	1.39386
1278.45	1.16437
1280.05	1.41046
1281.65	0.828042
1283.25	1.13583
1284.85	1.52676
1286.46	1.009
1288.06	0.699554
1289.66	1.50735
1291.26	1.38581
1292.86	2.0287
1294.46	0.8112
1296.06	1.43069
1297.66	1.15994
1299.25	1.48559
1300.85	1.95308
1302.45	1.57354
1304.05	2.09887
1305.65	1.16245
1307.24	1.52115
1308.84	0.811845
1310.43	1.57962
1312.03	1.54781
1313.63	0.821676
1315.22	1.93725
1316.82	1.29632
1318.41	2.06494
1320.01	2.0168
1321.6	1.64162
1323.2	1.79417
1324.79	1.39522
1326.38	2.01035
1327.98	2.05541
1329.57	1.47332
1331.16	1.68349
1332.76	2.42156
1334.35	2.25301
1335.94	1.74398
1337.53	1.74056
1339.12	1.6557
1340.71	1.79033
1342.3	1.64011
1343.89	2.19102
1345.48	1.81553
1347.07	1.64147
1348.66	1.67037
1350.25	1.10214
1351.84	1.39816
1353.43	1.19684
1355.01	1.49714
1356.6	1.49809
1358.19	1.03905
1359.77	0.858665
1361.36	1.69496
1362.95	1.27248
1364.53	1.52781
1366.12	0.747066
1367.71	1.50157
1369.29	1.36124
1370.88	1.18309
1372.46	0.807876
1374.04	0.911746
1375.63	0.479273
1377.21	1.24087
1378.8	1.00692
1380.38	1.03035
1381.96	0.534863
1383.54	0.893078
1385.13	0.911776
1386.71	0.671544
1388.29	0.451569
1389.87	1.02659
1391.45	0.788802
1393.03	0.155442
1394.61	0.55424
1396.19	1.50786
1397.77	1.07243
1399.35	0.536909
1400.93	1.24837
1402.51	0.651834
1404.09	0.530688
1405.67	0.271888
1407.24	1.08172
1408.82	0.825112
1410.4	0.885413
1411.98	1.2616
1413.55	1.18277
1415.13	1.28037
1416.71	1.35701
1418.28	1.17676
1419.86	0.859214
1421.43	0.740222
1423.01	0.643008
1424.58	1.27619
1426.16	1.63545
1427.73	1.28694
1429.31	1.33175
1430.88	2.06424
1432.45	1.94877
1434.02	1.93035
1435.6	1.63595
1437.17	1.73518
1438.74	2.38571
1440.31	2.40851
1441.88	2.88469
1443.45	2.39889
1445.03	2.83737
1446.6	2.52926
1448.17	2.94864
1449.74	2.20859
1451.3	1.9802
1452.87	2.63746
1454.44	2.46939
1456.01	2.57667
1457.58	1.93532
1459.15	2.37456
1460.72	2.43748
1462.28	1.80917
1463.85	1.84765
1465.42	2.53318
1466.98	1.97983
1468.55	1.74167
1470.12	2.17216
1471.68	1.8388
1473.25	1.56594
1474.81	1.43155
1476.38	1.72913
1477.94	1.39945
1479.51	1.54022
1481.07	1.66121
1482.63	1.70367
1484.2	1.29528
1485.76	0.906169
1487.32	2.18099
1488.88	1.98482
1490.45	1.88409
1492.01	2.34743
1493.57	1.63484
1495.13	1.81868
1496.69	1.47441
1498.25	1.36414
1499.81	1.99341
1501.37	0.506618
1502.93	1.60392
1504.49	1.0728
1506.05	0.91084
1507.61	1.46397
1509.17	0.623601
1510.73	0.420382
1512.28	0.177979
1513.84	-0.0835752
1515.4	0.962849
1516.96	1.14347
1518.51	0.557651
1520.07	0.0697193
1521.63	0.635564
1523.18	0.148505
1524.74	0.177058
1526.29	0.871657
1527.85	0.306419
1529.4	-0.200926
1530.96	0.223492
1532.51	0.00264359
1534.06	0.124338
1535.62	0.625314
1537.17	0.861881
1538.72	0.268358
1540.28	0.374231
1541.83	0.498874
1543.38	0.416124
1544.93	1.16057
1546.48	0.738692
1548.03	0.824062
1549.59	0.890458
1551.14	0.900769
1552.69	0.930408
1554.24	0.643464
1555.79	0.881681
1557.34	0.599213
1558.88	0.916583
1560.43	0.172902
1561.98	0.849141
1563.53	0.70602
1565.08	0.712897
1566.62	0.551966
1568.17	0.689336
1569.72	0.583606
1571.27	1.37337
1572.81	0.464081
1574.36	1.45865
1575.9	0.754498
1577.45	1.02132
1579	0.709932
1580.54	0.866045
1582.09	0.500267
1583.63	0.957331
1585.17	1.19139
1586.72	0.771925
1588.26	1.38102
1589.8	0.923806
1591.35	1.04596
1592.89	1.26121
1594.43	1.56983
1595.97	2.0473
1597.52	1.15743
1599.06	0.998979
1600.6	1.92928
1602.14	1.79136
1603.68	0.996072
1605.22	1.49546
1606.76	1.16659
1608.3	1.15461
1609.84	1.25244
1611.38	1.7418
1612.92	1.21398
1614.46	1.49204
1615.99	1.24395
1617.53	1.55906
1619.07	1.21959
1620.61	1.182
1622.14	0.547041
1623.68	0.830715
1625.22	1.30157
1626.75	0.779435
1628.29	1.62172
1629.82	1.18986
1631.36	1.00003
1632.9	1.09002
1634.43	1.83361
1635.96	1.55127
1637.5	1.9791
1639.03	2.18377
1640.57	1.32606
1642.1	2.18215
1643.63	1.08086
1645.16	1.89595
1646.7	1.79753
1648.23	1.86601
1649.76	2.45477
1651.29	2.24614
1652.82	2.52168
1654.36	2.39067
1655.89	2.63138
1657.42	2.33454
1658.95	1.88871
1660.48	2.62633
1662.01	2.02906
1663.53	2.115
1665.06	1.94139
1666.59	2.08223
1668.12	2.03988
1669.65	2.12859
1671.18	2.0903
1672.7	1.70357
1674.23	0.802085
1675.76	1.85232
1677.29	1.09726
1678.81	1.64753
1680.34	0.761727
1681.86	1.52969
1683.39	1.67187
1684.91	1.11661
1686.44	1.42442
1687.96	1.14594
1689.49	1.52776
1691.01	0.774312
1692.54	0.991661
1694.06	1.59283
1695.58	0.895132
1697.11	1.03836
1698.63	0.413986
1700.15	0.173074
1701.67	1.08081
1703.2	0.0911589
1704.72	0.213139
1706.24	0.534481
1707.76	0.454954
1709.28	0.557065
1710.8	0.423171
1712.32	0.452902
1713.84	-0.133216
1715.36	0.0963449
1716.88	0.379708
1718.4	0.391333
1719.91	0.493127
1721.43	0.522765
1722.95	0.102328
1724.47	0.422415
1725.99	0.329579
1727.5	0.0225086
1729.02	0.0227957
1730.54	0.184169
1732.05	-0.474003
1733.57	0.0918474
1735.09	0.145992
1736.6	0.617897
1738.12	0.0596685
1739.63	-0.0146885
1741.15	-0.251459
1742.66	-0.291815
1744.18	0.283213
1745.69	-0.259158
1747.2	-0.299536
1748.72	-0.123255
1750.23	0.317885
1751.74	-0.136558
1753.25	0.561089
1754.77	0.0617971
1756.28	-0.162264
1757.79	-0.243858
1759.3	0.514432
1760.81	-0.365713
1762.32	0.209462
1763.83	0.527794
1765.34	0.354903
1766.85	0.166731
1768.36	0.0798521
1769.87	-0.497268
1771.38	-0.217834
1772.89	0.113574
1774.4	-0.119555
1775.91	0.243026
1777.41	-0.111162
1778.92	-0.167235
1780.43	-0.110338
1781.94	0.28931
1783.44	0.0103521
1784.95	0.0688972
1786.45	0.263855
1787.96	0.0827179
1789.47	0.0702534
1790.97	0.0992031
1792.47	-0.291922
1793.98	0.276995
1795.48	0.131474
1796.99	-0.0515032
1798.49	0.129116
1800	0.167845
1801.5	-0.000980377
1803	-0.0540771
1804.51	-0.265845
1806.01	0.237076
1807.51	0.105133
1809.01	-0.144211
1810.51	-0.240328
1812.02	0.175434
1813.52	0.21477
1815.02	0.180018
1816.52	0.532496
1818.02	0.0377474
1819.52	0.173108
1821.02	-0.272194
1822.52	0.292959
1824.02	0.230368
1825.51	0.247558
1827.01	0.182824
1828.51	0.0992899
1830.01	0.0934076
1831.51	0.171456
1833	0.172312
1834.5	-0.160518
1836	0.171234
1837.49	-0.0131121
1838.99	-0.0594492
1840.49	0.336571
1841.98	0.0104504
1843.48	-0.294943
1844.97	0.0563974
1846.47	-0.0353489
1847.96	-0.0993843
1849.46	0.119635
1850.95	-0.0797071
1852.45	0.2336
1853.94	0.475615
1855.43	0.107655
1856.92	-0.0314322
1858.42	-0.05408
1859.91	0.0303192
1861.4	0.193341
1862.89	0.234232
1864.39	0.196885
1865.88	0.156676
1867.37	0.223965
1868.86	0.191441
1870.35	0.156713
1871.84	0.0389872
1873.33	0.162873
1874.82	0.307549
1876.31	-0.00834084
1877.8	0.497359
1879.29	0.202596
1880.77	0.193426
1882.26	0.110401
1882.52	0.0869312
1884.02	-0.0360546
1885.51	0.188628
1887.01	0.290134
1888.5	0.112391
1889.99	0.0568523
1891.49	-0.0322428
1892.98	0.315279
1894.47	0.230277
1895.96	0.16453
1897.46	0.256298
1898.95	-0.260866
1900.44	0.0382948
1901.93	0.439906
1903.42	-0.291209
1904.91	0.523627
1906.4	-0.0879841
1907.89	-0.247506
1909.38	0.496405
1910.87	0.338613
1912.36	0.0605869
1913.85	0.095542
1915.34	0.321339
1916.83	0.459956
1918.32	0.355192
1919.8	0.14598
1921.29	-0.0112476
1922.78	-0.115952
1924.27	-0.0118313
1925.75	0.474455
1927.24	0.148376
1928.73	0.117358
1930.21	0.29409
1931.7	0.140849
1933.18	0.141724
1934.67	0.296262
1936.15	0.171822
1937.64	0.495627
1939.12	0.386473
1940.61	0.58863
1942.09	0.153073
1943.57	0.219455
1945.06	0.131633
1946.54	-0.283224
1948.02	0.353148
1949.51	-0.0282097
1950.99	0.0028286
1952.47	0.0843554
1953.95	0.354233
1955.43	-0.407366
1956.91	-0.0513039
1958.39	-0.604495
1959.87	0.0616693
1961.36	-0.695326
1962.84	0.502496
1964.32	-0.151245
1965.79	-0.154247
1967.27	0.406748
1968.75	0.299197
1970.23	-0.0482292
1971.71	0.18525
1973.19	0.0769663
1974.66	-0.150447
1976.14	0.696436
1977.62	0.196808
1979.1	0.361798
1980.57	0.237359
1982.05	0.231863
1983.53	0.446834
1985	0.389504
1986.48	0.230187
1987.95	0.0202532
1989.43	0.471446
1990.9	-0.0248547
1992.38	0.0556087
1993.85	0.0864658
1995.33	-0.338008
1996.8	0.302617
1998.27	0.233478
1999.75	0.28204
2001.22	-0.0076685
2002.69	-0.31456
2004.16	-0.0144253
2005.64	0.488007
2007.11	-0.25549
2008.58	0.400199
2010.05	0.113851
2011.52	-0.104446
2012.99	0.367453
2014.46	0.317018
2015.93	0.164724
2017.4	0.330983
2018.87	0.546535
2020.34	0.542772
2021.81	0.723559
2023.28	0.166021
2024.75	0.532738
2026.22	0.296798
2027.69	0.515528
2029.15	0.350305
2030.62	0.337636
2032.09	0.225452
2033.56	0.483087
2035.02	-0.41785
2036.49	-0.328709
2037.95	0.3984
2039.42	0.789237
2040.89	0.55818
2042.35	0.630146
2043.82	-0.00336552
2045.28	0.120926
2046.75	0.195712
2048.21	0.506781
2049.67	-0.0249043
2051.14	0.0655785
2052.6	0.356683
2054.06	0.477013
2055.53	-0.382831
2056.99	0.104757
2058.45	0.304593
2059.92	-0.203369
2061.38	-0.0537996
2062.84	0.483767
2064.3	0.466937
2065.76	0.0474358
2067.22	0.335768
2068.68	0.507028
2070.14	0.493547
2071.6	0.698991
2073.06	0.382351
2074.52	0.435783
2075.98	0.118334
2077.44	0.42352
2078.9	-0.214808
2080.36	0.224072
2081.82	0.0560951
2083.27	0.274547
2084.73	0.256419
2086.19	0.708421
2087.65	0.167268
2089.1	0.500019
2090.56	0.529839
2092.01	0.677048
2093.47	0.72331
2094.93	0.282872
2096.38	0.563036
2097.84	0.138593
2099.29	0.182627
2100.75	0.326549
2102.2	0.0527544
2103.66	0.264571
2105.11	0.394197
2106.56	0.625453
2108.02	0.0906229
2109.47	0.65699
2110.92	0.355572
2112.37	0.469382
2113.83	0.547729
2115.28	0.840344
2116.73	0.51625
2118.18	0.35919
2119.63	0.735088
2121.09	0.00135326
2122.54	0.298669
2123.99	0.265905
2125.44	0.283648
2126.89	0.765315
2128.34	0.516271
2129.79	0.414865
2131.23	0.957939
2132.68	0.622163
2134.13	1.0477
2135.58	0.349405
2137.03	0.36413
2138.48	1.15772
2139.92	0.565302
2141.37	0.900361
2142.82	0.542523
2144.26	0.995794
2145.71	0.721396
2147.16	1.15837
2148.6	0.73363
2150.05	0.705215
2151.49	1.22238
2152.94	0.59513
2154.38	0.59653
2155.83	0.862454
2157.27	0.664586
2158.72	0.964514
2160.16	0.85188
2161.6	1.20527
2163.05	0.914577
2164.49	0.857625
2165.93	1.03403
2167.38	1.04444
2168.82	1.31961
2170.26	1.17709
2171.7	1.19827
2173.14	1.53317
2174.58	1.3174
2176.03	0.918043
2177.47	1.38368
2178.91	1.13522
2180.35	1.37011
2181.79	1.10728
2183.23	0.845088
2184.67	0.583138
2186.1	0.920071
2187.54	0.458479
2188.98	0.462732
2190.42	1.43242
2191.86	0.853817
2193.3	0.940185
2194.73	1.45786
2196.17	1.10757
2197.61	1.05459
2199.05	1.36538
2200.48	1.00986
2201.92	1.05313
2203.35	0.715526
2204.79	0.993141
2206.22	1.23856
2207.66	0.490432
2209.09	0.603812
2210.53	1.3451
2211.96	0.71143
2213.4	0.110751
2214.83	0.733048
2216.27	0.562888
2217.7	0.971675
2219.13	0.491065
2220.56	0.522865
2222	0.340545
2223.43	0.569401
2224.86	0.368304
2226.29	0.313551
2227.72	0.585776
2229.16	0.428936
2230.59	0.566798
2232.02	0.474681
2233.45	0.710451
2234.88	0.913918
2236.31	0.530292
2237.74	0.26344
2239.17	-0.0498533
2240.6	0.471254
2242.03	0.586525
2243.45	0.36075
2244.88	0.298489
2246.31	0.887912
2247.74	0.64357
2249.17	0.527203
2250.59	0.766707
2252.02	0.303803
2253.45	0.393629
2254.87	0.418635
2256.3	0.00696373
2257.73	0.426018
2259.15	0.0207472
2260.58	0.657249
2262	0.550355
2263.43	-0.0906935
2264.85	0.372913
2266.28	0.625259
2267.7	0.307525
2269.13	0.0860844
2270.55	0.547291
2271.97	-0.294497
2273.4	0.361476
2274.82	0.61059
2276.24	0.17571
2277.66	0.409039
2279.09	0.577355
2280.51	0.272797
2281.93	0.294144
2283.35	0.282763
2284.77	0.27142
2286.19	0.0481253
2287.61	0.314956
2289.04	0.419145
2290.46	-0.0153465
2291.88	0.498258
2293.29	0.6363
2294.71	0.708988
2296.13	0.143258
2297.55	-0.177388
2298.97	0.304488
2300.39	-0.0652647
2301.81	0.384836
2303.23	0.294314
2304.64	0.581421
2306.06	-0.0509691
2307.48	0.170033
2308.89	-0.0861092
2310.31	-0.129343
2311.73	0.155914
2313.14	0.293213
2314.56	0.579207
2315.97	0.191162
2317.39	0.38029
2318.8	0.652575
2320.22	0.281626
2321.63	0.156535
2323.05	-0.152363
2324.46	0.41073
2325.88	0.591485
2327.29	0.868995
2328.7	0.667318
2330.12	0.795519
2331.53	0.792961
2332.94	-0.0146675
2334.35	0.544835
2335.76	0.216049
2337.18	0.528295
2338.59	0.313082
2340	0.458194
2341.41	0.404938
2342.82	-0.009902
2344.23	0.280955
2345.64	0.0800762
2347.05	0.322007
2348.46	0.399985
2349.87	0.297462
2351.28	-0.0510387
2352.69	0.383834
2354.1	0.229392
2355.5	0.351528
2356.91	0.668381
2358.32	0.366448
2359.73	-0.0321751
2361.14	0.08951
2362.54	-0.226834
2363.95	-0.202528
2365.36	0.0966949
2366.76	-0.0893459
2368.17	-0.129025
2369.58	0.26808
2370.98	-0.172099
2372.39	0.130865
2373.79	-0.37046
2375.2	-0.259259
2376.6	0.205379
2378	0.314516
2379.41	-0.0764265
2380.81	0.109268
2382.22	0.421195
2383.62	0.314921
2385.02	-0.0953159
2386.42	0.0710554
2387.83	0.238077
2389.23	0.294547
2390.63	0.28869
2392.03	0.188704
2393.43	0.312785
2394.84	0.262777
2396.24	0.356726
2397.64	0.0222549
2399.04	0.467195
2400.44	0.21355
2401.84	-0.595564
2403.24	0.0249147
2404.64	-0.149152
2406.04	-0.0542669
2407.44	0.594829
2408.83	0.370114
2410.23	0.0976648
2411.63	0.285196
2413.03	0.37849
2414.43	0.0932617
2415.83	0.617213
2417.22	0.27202
2418.62	0.212849
2420.02	0.423322
2421.41	0.31692
2422.81	0.0991688
2424.21	0.292979
2425.6	0.185824
2427	0.396217
2428.39	0.100417
2429.79	-0.210333
2431.18	0.145847
2432.58	0.264419
2433.97	-0.157491
2435.36	0.531064
2436.76	-0.116517
2438.15	0.552793
2439.54	0.442008
2440.94	0.33017
2442.33	-0.194979
2443.72	-0.0536108
2445.11	0.0398502
2446.51	0.228169
2447.9	0.00412655
2449.29	0.223782
2450.68	-0.0948267
2452.07	-0.285962
2453.46	0.251753
2454.85	0.0308542
2456.24	0.317019
2457.63	0.0815248
2459.02	0.35201
2460.41	0.337092
2461.8	0.0682402
2463.19	0.288578
2464.58	0.508056
2465.97	-0.0626402
2467.36	0.314165
2468.75	0.611669
2470.13	0.35667
2471.52	0.164426
2472.91	0.270898
2474.29	0.360574
2475.68	0.181923
2477.07	0.238862
2478.45	0.170002
2479.84	0.226974
2481.22	0.127251
2482.61	0.184266
2484	0.475453
2485.38	-0.173323
2486.77	0.630831
2488.15	0.245892
2489.54	0.281782
2490.92	-0.382981
2492.3	-0.174996
2493.69	-0.230263
2495.07	-0.15981
2496.45	0.128943
2497.84	0.0620089
2499.22	-0.128349
2500.6	-0.00948238
2501.98	0.170111
2503.36	0.332807
2504.74	-0.184592
2506.13	-0.408864
2507.51	0.336685
2508.89	0.25054
2510.27	0.165078
2511.65	0.464088
2513.03	-0.278863
2514.41	0.343557
2515.79	0.537532
2517.17	0.487453
2518.55	0.254617
2519.93	-0.145865
2521.3	-0.0727835
2522.68	-0.0463343
2524.06	-0.0971546
2525.44	0.217043
2526.82	0.378124
2528.19	0.159026
2529.57	0.291253
2530.95	-0.152344
2532.32	0.0900555
2533.7	0.318759
2535.08	-0.196152
2536.45	-0.0122442
2537.83	0.94559
2539.2	0.42873
2540.58	0.260334
2541.95	0.471045
2543.33	0.317795
2544.7	0.438675
2546.08	0.19697
2547.45	0.275251
2548.82	0.354565
2550.2	0.358112
2551.57	-0.139722
2552.94	0.529908
2554.32	0.348427
2555.69	-0.137516
2557.06	-0.017169
2558.43	0.224258
2559.8	0.25363
2561.17	0.222987
2562.55	0.299186
2563.92	0.300298
2565.29	0.407996
2566.66	0.652385
2568.03	0.184604
2569.4	0.610989
2570.77	0.143158
2572.14	0.311941
2573.51	0.450521
2574.88	0.134434
2576.24	0.288324
2577.61	0.0479259
2578.98	0.277282
2580.35	0.369763
2581.72	0.203979
2583.09	0.553259
2584.45	0.310941
2585.82	-0.00718212
2587.19	0.402408
2588.55	0.387796
2589.92	-0.0207052
2591.28	0.252608
2592.65	0.252583
2594.02	0.281893
2595.38	0.46139
2596.75	0.578942
2598.11	0.49873
2599.48	0.0099268
2600.84	0.156436
2602.2	0.0164242
2603.57	0.224511
2604.93	-0.0497818
2606.3	0.264639
2607.66	0.156235
2609.02	0.242859
2610.38	0.117076
2611.75	0.215652
2613.11	0.132243
2614.47	0.228324
2615.83	0.398911
2617.19	-0.0451946
2618.56	0.440793
2619.92	0.0140696
2621.28	0.530873
2622.64	0.419999
2624	0.309557
2625.36	0.229034
2626.72	0.267611
2628.08	0.0524063
2629.44	0.164725
2630.8	0.0980864
2632.15	0.105745
2633.51	-0.198607
2634.87	-0.383776
2636.23	0.350771
2637.59	0.417295
2638.94	0.232057
2640.3	0.180446
2641.66	0.350965
2643.02	0.506794
2644.37	0.559264
2645.73	0.00671005
2647.08	0.044138
2648.44	-0.479022
2649.8	0.484105
2651.15	0.400761
2652.51	0.566855
2653.86	0.131363
2655.22	-0.126533
2656.57	-0.0751677
2657.92	0.48973
2659.28	0.0749331
2660.63	0.143549
2661.99	0.138852
2663.34	0.308722
2664.69	0.433611
2666.04	0.221934
2667.4	0.432634
2668.75	0.0458498
2670.1	0.256545
2671.45	0.409388
2672.81	0.126884
2674.16	0.193977
2675.51	0.653581
2676.86	0.271969
2678.21	0.0364723
2679.56	0.222579
2680.91	0.119897
2682.26	-0.285837
2683.61	0.411762
2684.96	0.0229616
2686.31	0.359963
2687.66	0.247042
2689	0.234279
2690.35	0.625986
2691.7	0.318672
2693.05	-0.06283
2694.4	0.105902
2695.74	0.245241
2697.09	0.182365
2698.44	0.483092
2699.79	0.525105
2701.13	0.511332
2702.48	-0.0220699
2703.82	0.459743
2705.17	-0.115707
2706.52	0.280158
2707.86	0.690578
2709.21	0.418559
2710.55	-0.0283966
2711.9	-0.316183
2713.24	0.354747
2714.58	0.357368
2715.93	0.650707
2717.27	0.493176
2718.61	0.233411
2719.96	0.00218391
2721.3	0.687202
2722.64	0.614943
2723.99	0.67308
2725.33	0.730678
2726.67	0.540359
2728.01	0.145916
2729.35	0.377005
2730.7	0.389603
2732.04	0.329412
2733.38	0.0947733
2734.72	0.413116
2736.06	0.368036
2737.4	0.235861
2738.74	0.0164099
2740.08	-0.174218
2741.42	0.47797
2742.76	0.256924
2744.09	0.224075
2745.43	0.074275
2746.77	-0.148524
2748.11	0.572124
2749.45	0.204034
2750.79	-0.163524
2752.12	-0.0810728
2753.46	-0.38972
2754.8	-0.0170326
2756.13	-0.165832
2757.47	0.120024
2758.81	0.391558
2760.14	0.0266247
2761.48	-0.149493
2762.81	0.0077858
2764.15	0.281169
2765.49	0.105989
2766.82	-0.18544
2768.15	0.144113
2769.49	0.356274
2770.82	0.00286961
2772.16	0.399227
2773.49	-0.360625
2774.82	0.105581
2776.16	0.00915527
2777.49	-0.000324249
2778.82	-0.239229
2780.16	-0.0173359
2781.49	0.0179319
2782.82	0.211127
2784.15	0.303606
2785.48	-0.17735
2786.81	0.144612
2788.15	-0.234631
2789.48	-0.0259638
2790.81	-0.231174
2792.14	0.0650902
2793.47	0.00438023
2794.8	-0.12771
2796.13	0.197096
2797.46	0.049695
2798.79	-0.155388
2800.12	-0.489243
2801.44	0.00427723
2802.77	0.32599
2804.1	0.404797
2805.43	-0.043993
2806.76	0.261406
2808.08	0.0962582
2809.41	0.38563
2810.74	-0.205872
2812.07	0.041461
2813.39	-0.121472
2814.72	-0.154955
2816.05	-0.0308065
2817.37	0.30724
2818.7	0.064868
2820.02	0.0209446
2821.35	-0.00932503
2822.67	0.214699
2824	0.225376
2825.32	0.603904
2826.65	0.44419
2827.97	0.00200939
2829.29	0.424191
2830.62	0.252329
2831.94	0.462945
2833.26	0.701791
2834.59	0.374066
2835.91	0.243952
2837.23	0.410386
2838.55	0.745971
2839.88	0.770011
2841.2	0.850721
2842.52	1.35597
2843.84	1.72053
2845.16	1.33696
2846.48	1.66082
2847.8	2.05583
2849.12	1.92796
2850.44	1.77145
2851.76	2.20795
2853.08	2.54481
2854.4	2.59847
2855.72	2.77904
2857.04	2.84653
2858.36	2.77283
2859.68	2.85449
2861	3.45834
2862.32	3.25686
2863.63	3.7889
2864.95	4.16509
2866.27	3.80753
2867.58	4.19796
2868.9	4.68754
2870.22	4.82512
2871.53	5.30119
2872.85	5.1707
2874.17	5.03921
2875.48	5.52601
2876.8	4.7719
2878.11	5.2838
2879.43	5.40096
2880.74	5.153
2882.06	5.1734
2883.37	4.99867
2884.69	5.2326
2886	5.25673
2887.31	5.49148
2888.63	5.38876
2889.94	5.32706
2891.25	5.89519
2892.57	5.56496
2893.88	5.529
2895.19	5.46559
2896.5	5.99129
2897.82	5.67858
2899.13	5.67531
2900.44	5.47733
2901.75	6.09139
2903.06	5.83846
2904.37	6.04733
2905.68	6.17269
2906.99	6.62057
2908.3	6.39823
2909.61	7.03052
2910.92	7.14612
2912.23	7.19179
2913.54	8.02037
2914.85	7.79697
2916.16	7.85101
2917.46	7.94468
2918.77	8.23271
2920.08	8.35249
2921.39	8.89265
2922.7	8.72154
2924	9.27946
2925.31	9.43376
2926.62	9.19765
2927.92	9.33905
2929.23	9.45194
2930.53	9.45214
2931.84	9.54949
2933.15	9.01743
2934.45	9.44984
2935.76	9.63081
2937.06	9.82599
2938.37	9.22494
2939.67	9.95187
2940.98	8.76522
2942.28	8.87941
2943.58	7.9472
2944.89	8.38666
2946.19	8.1149
2947.49	7.85785
2948.8	7.67025
2950.1	7.52289
2951.4	7.13488
2952.7	7.01019
2954.01	6.99553
2955.31	6.35044
2956.61	6.58853
2957.91	6.32559
2959.21	5.99633
2960.51	6.14692
2961.81	6.30058
2963.11	5.99262
2964.41	6.20293
2965.71	6.04629
2967.01	5.67639
2968.31	5.78236
2969.61	5.28269
2970.91	5.13426
2972.21	5.35198
2973.51	5.11998
2974.81	4.66266
2976.1	4.79563
2977.4	5.0255
2978.7	4.36598
2980	4.26739
2981.29	4.20931
2982.59	3.53168
2983.89	3.92355
2985.18	3.67013
2986.48	3.47508
2987.78	3.18369
2989.07	2.96389
2990.37	2.94121
2991.66	3.01632
2992.96	2.28903
2994.25	2.13645
2995.55	2.38987
2996.84	1.98232
2998.14	1.99588
2999.43	1.84144
3000.72	1.6037
3002.02	1.50708
3003.31	1.31298
3004.6	0.712932
3005.9	0.743157
3007.19	0.688692
3008.48	0.773232
3009.77	1.13629
3011.07	0.78538
3012.36	0.923156
3013.65	0.767786
3014.94	0.864123
3016.23	0.376148
3017.52	0.209945
3018.81	0.253308
3020.1	0.686165
3021.39	0.0200377
3022.68	-0.0628157
3023.97	0.380703
3025.26	0.129367
3026.55	-0.204797
3027.84	-0.0257578
3029.13	-0.108369
3030.42	-0.20289
3031.71	0.0911379
3033	0.261977
3034.28	0.0191336
3035.57	0.369086
3036.86	0.0967579
3038.15	0.539098
3039.43	-0.177615
3040.72	0.205091
3042.01	0.352418
3043.29	0.115551
3044.58	0.181541
3045.86	0.0579882
3047.15	-0.0353508
3048.44	0.0790539
3049.72	0.0731144
3051.01	-0.244721
3052.29	0.270877
3053.58	0.308969
3054.86	0.0462065
3056.14	0.709795
3057.43	0.281044
3058.71	0.396809
3060	0.362394
3061.28	0.274106
3062.56	0.486373
3063.84	0.401091
3065.13	0.35858
3066.41	0.589748
3067.69	0.0880461
3068.97	0.144298
3070.25	-0.139685
3071.54	0.595462
3072.82	0.445157
3074.1	0.0759974
3075.38	0.154488
3076.66	0.0424671
3077.94	0.487623
3079.22	-0.151651
3080.5	0.282905
3081.78	-0.0402813
3083.06	0.262089
3084.34	-0.357219
3085.62	0.0819931
3086.9	-0.48351
3088.17	0.334707
3089.45	0.0934849
3090.73	0.0689974
3092.01	-0.240458
3093.29	-0.386742
3094.56	0.159081
3095.84	0.149227
3097.12	0.329369
3098.4	0.143543
3099.67	0.174523
3100.95	0.15128
3102.22	-0.0342598
3103.5	0.105654
3104.77	0.0702438
3106.05	0.198216
3107.33	0.0296354
3108.6	-0.0158463
3109.88	-0.181819
3111.15	-0.116469
3112.43	-0.050087
3113.7	-0.0643663
3114.97	0.301023
3116.25	0.300084
3117.52	0.108367
3118.79	0.335912
3120.07	0.101177
3121.34	0.00118065
3122.61	0.61895
3123.88	0.179515
3125.16	-0.0154829
3126.43	0.656486
3127.7	0.665833
3128.97	0.648888
3130.24	0.294479
3131.51	0.508256
3132.78	0.505638
3134.05	0.111062
3135.33	0.364395
3136.59	0.657372
3137.86	0.706844
3139.14	0.79635
3140.41	0.49532
3141.67	0.571545
3142.94	0.957186
3144.21	0.711934
3145.48	0.991099
3146.75	0.962532
3148.02	0.693806
3149.28	0.935015
