200.388	0.250306
202.204	0.256801
204.019	0.264286
205.832	-0.578374
207.646	0.063159
209.459	0.339346
211.274	0.322941
213.087	0.159804
214.899	-0.125307
216.711	0.268228
218.524	0.51605
220.335	0.449618
222.146	-0.510665
223.956	-0.0424814
225.766	-0.371526
227.576	0.193752
229.388	0.541051
231.197	-0.39155
233.005	-0.0207481
234.813	-0.0356493
236.621	0.553396
238.429	0.565938
240.236	1.83459
242.045	1.85269
243.852	2.11376
245.658	1.91671
247.464	1.11441
249.269	0.164211
251.074	0.4907
252.879	0.452338
254.683	0.41233
256.487	-0.182529
258.291	-0.101176
260.094	0.415457
261.897	0.452155
263.702	0.129338
265.504	0.675064
267.306	0.667228
269.108	0.32175
270.909	0.554102
272.71	-0.0342979
274.511	0.557433
276.311	-0.154198
278.111	0.241374
279.91	0.297541
281.709	-0.0334063
283.508	-0.125085
285.306	0.454823
287.105	0.0487967
288.9	0.770588
290.698	0.222209
292.495	-0.0126724
294.291	0.424187
296.088	0.168813
297.884	-0.180733
299.679	0.282915
301.475	0.268533
303.27	0.181818
305.064	0.428164
306.858	1.26966
308.652	0.489056
310.444	0.329374
312.237	0.337835
314.03	-0.00913811
315.822	0.312596
317.615	0.850642
319.406	0.199551
321.198	0.025918
322.987	-0.0516405
324.778	-0.343479
326.568	-0.0863142
328.358	0.362186
330.148	0.11741
331.935	-0.0569582
333.724	0.173724
335.513	1.02467
337.301	0.533342
339.089	0.518512
340.875	0.167317
342.662	0.00686455
344.449	0.228841
346.236	0.331766
348.02	-0.0660439
349.806	0.611217
351.592	-0.286956
353.375	-0.159101
355.16	-0.0322428
356.944	-0.574321
358.728	0.217456
360.51	0.483235
362.294	0.39079
364.077	0.107543
365.858	0.0616798
367.64	0.584839
369.422	0.039113
371.202	0.796482
372.983	0.557771
374.764	0.484686
376.543	0.624328
378.324	0.245472
380.102	0.810678
381.881	1.07016
383.661	0.389863
385.438	0.205489
387.216	0.704056
388.993	0.357826
390.771	0.905348
392.548	0.819593
394.324	0.664123
396.101	0.415195
397.875	0.847507
399.651	0.927461
401.425	-0.167389
403.201	1.039
404.974	0.483088
406.749	0.0909643
408.524	0.661004
410.296	0.0333805
412.07	0.133605
413.841	0.304635
415.614	0.147907
417.385	0.132812
419.156	0.564288
420.928	-0.0834208
422.698	0.0196619
424.469	0.192586
426.238	0.270747
428.009	0.0664101
429.777	-0.185306
431.548	0.00896835
433.315	0.414766
435.083	-0.30559
436.852	0.382268
438.618	0.271528
440.387	0.511408
442.153	0.162734
443.919	0.210796
445.686	0.210091
447.451	-0.119505
449.218	0.977468
450.982	0.203504
452.746	0.0615244
454.512	0.316579
456.275	0.291574
458.038	0.173345
459.803	-0.363497
461.565	0.333588
463.327	0.589782
465.091	0.174438
466.852	0.319747
468.613	-0.182913
470.374	0.362405
472.136	0.257532
473.896	0.710642
475.655	0.0677137
477.415	0.21433
479.176	0.475576
480.934	0.223312
482.692	-0.02878
484.45	-0.0468273
486.21	0.216578
487.967	0.319195
489.724	0.284106
491.481	0.250065
493.237	0.356861
494.995	1.04877
496.75	0.360839
498.506	-0.375499
500.26	0.856256
502.015	0.329232
503.769	0.223282
505.525	-0.165951
507.279	0.266092
509.032	0.391199
510.785	0.373603
512.537	0.542666
514.289	0.639619
516.041	0.570467
517.793	0.382537
519.546	0.734413
521.297	0.544774
523.047	0.660132
524.797	0.399609
526.547	0.18627
528.297	-0.00335693
530.046	0.299262
531.795	0.413811
533.543	0.761524
535.291	0.897066
537.039	0.306462
538.787	0.299238
540.534	0.0576382
542.281	0.957179
544.027	0.248862
545.773	0.239337
547.519	0.740626
549.264	0.684639
551.01	0.18905
552.754	-0.0739326
554.499	0.195306
556.243	0.00259304
557.987	0.802266
559.73	0.126419
561.474	-0.0412273
563.216	-0.369043
564.959	0.0397272
566.701	-0.0797539
568.441	0.214935
570.182	-0.155124
571.923	0.0499287
573.664	0.027113
575.405	0.189549
577.145	0.00951195
578.885	-0.192291
580.624	-0.232742
582.361	0.485193
584.1	0.168798
585.839	0.0581417
587.577	-0.398849
589.315	0.615294
591.052	0.225163
592.787	-0.0734911
594.524	0.202881
596.26	0.180192
597.997	-0.118602
599.732	-0.0035944
601.466	-0.0964108
603.201	0.0166025
604.936	0.0821648
606.67	-0.382102
608.403	0.163798
610.136	0.318718
611.87	0.450972
613.603	-0.264446
615.334	0.1215
617.067	0.163698
618.799	-0.321345
620.529	-0.143104
622.26	-0.0806217
623.991	-0.179091
625.72	0.430703
627.451	0.31013
629.181	0.100295
630.909	0.0753889
632.638	-0.0159779
634.368	0.0762892
636.095	-0.493644
637.823	0.32729
639.551	0.323823
641.277	0.636763
643.005	0.308625
644.73	0.207456
646.457	0.174922
648.184	-0.0831299
649.908	-0.0198727
651.634	0.0242376
653.357	0.458495
655.083	0.0776777
656.806	0.449821
658.53	0.436251
660.253	0.924255
661.977	0.88637
663.7	0.206198
665.422	1.03183
667.145	0.438193
668.865	0.00359249
670.588	0.667419
672.308	0.578365
674.027	0.308434
675.749	1.48418
677.468	0.62157
679.188	0.216753
680.907	0.315966
682.627	0.620693
684.345	0.900668
686.064	0.626163
687.781	0.695374
689.498	0.556178
691.216	0.0937223
692.932	0.598118
694.65	0.664086
696.366	0.70603
698.081	0.562592
699.797	0.648111
701.512	0.433412
703.228	0.355911
704.942	0.507494
706.655	0.314073
708.371	0.258118
710.083	0.178968
711.796	0.557473
713.51	0.408895
715.222	0.603174
716.934	0.1349
718.645	0.762506
720.358	0.728178
722.068	0.83071
723.779	0.273273
725.49	0.194066
727.2	1.31855
728.909	1.4194
730.618	0.113973
732.329	0.939669
734.037	1.60512
735.745	1.25214
737.453	1.35181
739.16	0.639788
740.869	0.876657
742.576	0.190763
744.282	0.610129
745.988	0.467816
747.694	0.776851
749.401	0.974545
751.107	1.33091
752.811	0.946301
754.516	0.765403
756.22	0.855875
757.924	0.587647
759.627	0.748549
761.332	0.843118
763.035	1.2091
764.738	1.32702
766.44	0.630609
768.142	0.971546
769.843	2.01159
771.544	1.39904
773.245	1.91562
774.946	1.66281
776.646	1.61401
778.346	1.58908
780.046	1.36212
781.745	1.40765
783.444	1.38551
785.143	0.8643
786.841	0.748252
788.539	1.39879
790.237	1.11816
791.934	1.51328
793.631	1.38668
795.328	1.3502
797.024	1.53999
798.72	2.2716
800.416	1.8112
802.112	1.48773
803.807	2.1098
805.502	1.87697
807.196	1.57612
808.89	1.54388
810.584	1.75735
812.278	2.14892
813.971	1.86705
815.664	1.83163
817.354	1.10279
819.047	2.09612
820.739	1.77042
822.43	2.1373
824.122	1.50105
825.813	1.62464
827.503	1.30469
829.192	1.5443
830.882	1.25235
832.571	1.76505
834.261	1.36644
835.95	1.4814
837.637	1.21695
839.325	1.77727
841.013	1.88974
842.701	1.26357
844.389	1.61983
846.074	1.23923
847.761	1.39668
849.447	1.69087
851.131	1.04752
852.817	1.48073
854.503	3.77813
856.188	1.29596
857.871	1.07849
859.556	1.26408
861.24	1.15544
862.922	1.20276
864.606	0.730493
866.289	1.36163
867.97	1.47382
869.653	1.67579
871.336	1.40378
873.016	0.386966
874.698	0.813838
876.379	1.24082
878.058	1.32936
879.739	1.25981
881.418	1.12215
883.098	1.20953
884.778	1.25068
886.456	1.20017
888.135	0.922503
889.812	1.77108
891.49	0.543743
893.167	1.2761
894.845	1.24104
896.523	0.75535
898.198	1.28023
899.875	0.905724
901.55	0.732948
903.226	0.918052
904.901	1.12483
906.576	1.08574
908.25	0.757493
909.925	0.608956
911.598	0.906519
913.271	1.2486
914.945	1.65697
916.617	1.11075
918.291	1.16385
919.962	1.28337
921.635	1.51378
923.306	1.45756
924.978	0.60776
926.648	0.312637
928.318	1.16705
929.989	0.521637
931.659	1.00237
933.328	0.843471
934.998	0.88328
936.666	1.34251
938.336	0.346915
940.004	1.35947
941.671	0.520443
943.34	1.11602
945.007	0.917219
946.673	1.18083
948.339	0.824597
950.007	0.709348
951.672	0.52675
953.337	0.564795
955.004	0.979058
956.669	0.447665
958.333	0.779366
959.997	0.429837
961.662	0.213877
963.326	0.948029
964.989	0.907446
966.651	0.665128
968.315	0.486392
969.977	1.10207
971.639	0.300997
973.301	0.318829
974.962	0.824448
976.624	0.712577
978.285	0.580002
979.945	0.890583
981.605	1.201
983.264	0.801802
984.924	0.5335
986.583	0.28541
988.243	1.16408
989.901	0.249538
991.56	0.396138
993.217	0.696987
994.875	0.269084
996.532	0.547752
998.188	0.649677
999.845	0.773288
1001.5	1.1386
1003.16	1.10685
1004.81	0.920843
1006.47	0.603107
1008.12	0.263957
1009.78	0.583896
1011.43	-0.0611162
1013.09	0.61009
1014.74	0.623748
1016.39	0.550192
1018.05	0.455307
1019.7	0.251897
1021.35	0.508738
1023	0.460459
1024.65	1.15617
1026.31	0.191537
1027.96	0.407035
1029.61	0.818504
1031.26	1.14124
1032.91	1.02551
1034.56	0.886387
1036.21	1.05127
1037.86	1.08432
1039.51	1.26954
1041.16	0.693813
1042.8	0.663563
1044.45	1.72137
1046.1	1.08622
1047.75	0.301236
1049.39	1.01644
1051.04	0.212586
1052.69	0.604106
1054.33	0.300815
1055.98	0.410349
1057.62	0.693564
1059.27	0.324133
1060.91	0.432369
1062.56	0.170207
1064.2	0.53774
1065.85	0.143284
1067.49	0.247841
1069.13	0.959717
1070.77	0.128463
1072.42	0.491646
1074.06	-0.0780649
1075.7	0.0910501
1077.34	0.326354
1078.98	0.866367
1080.62	0.518048
1082.27	0.278178
1083.91	0.579579
1085.55	0.0556068
1087.18	0.223454
1088.82	0.0859871
1090.46	0.444688
1092.1	-0.452185
1093.74	0.574173
1095.38	0.217871
1097.02	0.121634
1098.65	0.328366
1100.29	-0.475318
1101.93	0.0791607
1103.56	0.0755997
1105.2	0.0302649
1106.84	0.415659
1108.47	0.177063
1110.11	0.625554
1111.74	0.169549
1113.38	0.184981
1115.01	0.886154
1116.64	-0.409389
1118.28	-0.223844
1119.91	0.0905857
1121.54	-0.044095
1123.18	0.0577707
1124.81	-0.0320721
1126.44	0.114227
1128.07	-0.166501
1129.7	0.472917
1131.33	-0.148629
1132.97	0.277713
1134.6	-0.0870285
1136.23	-0.537747
1137.86	0.356929
1139.49	-0.245284
1141.11	0.240892
1142.74	0.000548363
1144.37	0.485687
1146	-0.329426
1147.63	-0.290581
1149.26	-0.229664
1150.88	0.875398
1152.51	0.0420971
1154.14	-0.0246849
1155.76	1.18515
1157.39	-0.286709
1159.01	0.369609
1160.64	0.154533
1162.27	0.259517
1163.89	0.897006
1165.51	1.00348
1167.14	0.344289
1168.76	0.194394
1170.39	0.255488
1172.01	0.760792
1173.63	-0.137561
1175.25	-0.102388
1176.88	-0.322192
1178.5	0.390532
1180.12	-0.146036
1181.74	-0.0252895
1183.36	-0.157741
1184.98	0.576349
1186.6	0.0839052
1188.22	-0.135073
1189.84	0.340061
1191.46	0.68596
1193.08	0.335584
1194.7	0.237261
1196.32	-0.0495138
1197.94	0.105035
1199.55	0.428131
1201.17	0.543906
1202.79	0.724778
1204.41	0.0732756
1206.02	0.363221
1207.64	0.508352
1209.25	0.65377
1210.87	0.714955
1212.48	0.0864029
1214.1	0.519022
1215.71	0.407463
1217.33	0.252679
1218.94	-0.131448
1220.56	0.315452
1222.17	0.119161
1223.79	0.504582
1225.4	0.497458
1227.01	0.636693
1228.62	0.404876
1230.23	0.381244
1231.85	0.627511
1233.46	0.750873
1235.07	0.503439
1236.68	0.339845
1238.29	0.694036
1239.9	0.676855
1241.51	0.846025
1243.12	0.621885
1244.73	0.583138
1246.34	0.460621
1247.94	0.813032
1249.55	0.378391
1251.16	0.171089
1252.77	0.874157
1254.37	0.564294
1255.98	0.358904
1257.59	0.609775
1259.2	0.530807
1260.8	0.349174
1262.41	0.416371
1264.01	0.0900755
1265.62	1.08942
1267.22	0.119473
1268.83	0.267733
1270.43	0.580927
1272.03	0.685782
1273.64	0.478627
1275.24	0.519302
1276.85	0.890602
1278.45	0.556533
1280.05	0.67764
1281.65	1.04668
1283.25	0.732796
1284.85	0.461034
1286.46	0.789828
1288.06	0.644097
1289.66	0.705979
1291.26	0.623724
1292.86	0.810023
1294.46	0.334512
1296.06	-0.162631
1297.66	0.495163
1299.25	0.573009
1300.85	1.08222
1302.45	0.682999
1304.05	0.921496
1305.65	0.3981
1307.24	1.04594
1308.84	0.481636
1310.43	0.574347
1312.03	0.544356
1313.63	1.0469
1315.22	0.507354
1316.82	1.1947
1318.41	0.881864
1320.01	0.712113
1321.6	0.276978
1323.2	1.00114
1324.79	1.41713
1326.38	0.917073
1327.98	0.721822
1329.57	0.466802
1331.16	0.476808
1332.76	1.05466
1334.35	0.422363
1335.94	0.720734
1337.53	0.636168
1339.12	1.2566
1340.71	0.847284
1342.3	0.537168
1343.89	1.15038
1345.48	0.616635
1347.07	1.12689
1348.66	1.15694
1350.25	1.24948
1351.84	1.04453
1353.43	0.941877
1355.01	0.221054
1356.6	0.899773
1358.19	0.93847
1359.77	1.11598
1361.36	0.613601
1362.95	0.948717
1364.53	0.924212
1366.12	0.222518
1367.71	0.55787
1369.29	0.555687
1370.88	0.654392
1372.46	0.356474
1374.04	0.776018
1375.63	0.937582
1377.21	1.23858
1378.8	0.50435
1380.38	0.5651
1381.96	0.186913
1383.54	0.384379
1385.13	0.918609
1386.71	0.756489
1388.29	0.574795
1389.87	0.870291
1391.45	0.690245
1393.03	0.649979
1394.61	0.828307
1396.19	0.748618
1397.77	0.133061
1399.35	0.309587
1400.93	0.049304
1402.51	0.659673
1404.09	0.794504
1405.67	0.850601
1407.24	0.472681
1408.82	0.945508
1410.4	0.430956
1411.98	0.489347
1413.55	0.270783
1415.13	1.61027
1416.71	0.857136
1418.28	0.892771
1419.86	0.278592
1421.43	0.256721
1423.01	0.354472
1424.58	1.33948
1426.16	0.810208
1427.73	0.67516
1429.31	0.224937
1430.88	0.67926
1432.45	1.28975
1434.02	1.30875
1435.6	1.20925
1437.17	1.16896
1438.74	1.12943
1440.31	1.18922
1441.88	1.50548
1443.45	1.35081
1445.03	1.47171
1446.6	1.37661
1448.17	1.08508
1449.74	0.557858
1451.3	1.28934
1452.87	1.49065
1454.44	1.8695
1456.01	1.63857
1457.58	1.13138
1459.15	1.27227
1460.72	1.27364
1462.28	1.23373
1463.85	1.60511
1465.42	1.42459
1466.98	1.57779
1468.55	0.356844
1470.12	0.354651
1471.68	0.843984
1473.25	0.804562
1474.81	0.530646
1476.38	0.649381
1477.94	0.395718
1479.51	1.04376
1481.07	1.20154
1482.63	0.61451
1484.2	0.928841
1485.76	1.086
1487.32	0.987698
1488.88	1.24052
1490.45	0.92372
1492.01	0.781049
1493.57	0.929372
1495.13	1.29007
1496.69	0.96672
1498.25	0.546589
1499.81	0.652807
1501.37	0.643375
1502.93	0.518806
1504.49	0.860418
1506.05	0.349942
1507.61	0.478043
1509.17	0.160517
1510.73	0.556528
1512.28	0.56524
1513.84	0.43877
1515.4	0.505008
1516.96	0.379669
1518.51	0.0444632
1520.07	-0.0212183
1521.63	0.678876
1523.18	0.650804
1524.74	0.354705
1526.29	0.649432
1527.85	0.790075
1529.4	0.378308
1530.96	0.385371
1532.51	0.772146
1534.06	0.287678
1535.62	0.0134811
1537.17	-0.051322
1538.72	0.167809
1540.28	0.273755
1541.83	0.285412
1543.38	0.259304
1544.93	0.101447
1546.48	0.638657
1548.03	0.105072
1549.59	0.509752
1551.14	0.202229
1552.69	0.905964
1554.24	0.469244
1555.79	0.296062
1557.34	0.591471
1558.88	0.19818
1560.43	0.0121737
1561.98	0.182186
1563.53	0.670469
1565.08	0.394451
1566.62	0.361072
1568.17	0.140831
1569.72	0.498822
1571.27	0.744485
1572.81	0.485858
1574.36	0.432416
1575.9	0.416327
1577.45	0.848472
1579	0.814339
1580.54	0.836827
1582.09	0.710705
1583.63	0.286457
1585.17	0.142977
1586.72	0.63553
1588.26	0.492718
1589.8	1.00451
1591.35	0.524179
1592.89	0.660961
1594.43	1.05975
1595.97	0.447075
1597.52	1.16509
1599.06	0.92808
1600.6	0.879163
1602.14	0.943293
1603.68	1.02628
1605.22	1.14626
1606.76	0.58842
1608.3	0.629894
1609.84	1.04501
1611.38	1.40124
1612.92	0.75976
1614.46	0.680695
1615.99	0.995135
1617.53	1.15965
1619.07	0.63197
1620.61	0.368408
1622.14	0.686777
1623.68	0.388074
1625.22	0.744676
1626.75	1.21272
1628.29	0.70634
1629.82	1.02178
1631.36	0.662971
1632.9	0.995246
1634.43	0.562042
1635.96	0.764446
1637.5	0.706482
1639.03	-0.115184
1640.57	1.07659
1642.1	0.962806
1643.63	0.661827
1645.16	1.06713
1646.7	0.72713
1648.23	1.31636
1649.76	1.23663
1651.29	1.08377
1652.82	1.06217
1654.36	0.392823
1655.89	1.70781
1657.42	1.46549
1658.95	0.592836
1660.48	1.90414
1662.01	1.28834
1663.53	1.94771
1665.06	1.16467
1666.59	0.992256
1668.12	1.35602
1669.65	0.725494
1671.18	1.42368
1672.7	1.36734
1674.23	1.21948
1675.76	0.77693
1677.29	0.738765
1678.81	0.754745
1680.34	1.13738
1681.86	0.820512
1683.39	0.393519
1684.91	0.480947
1686.44	1.13711
1687.96	0.583265
1689.49	0.616635
1691.01	0.796706
1692.54	0.00674534
1694.06	0.241841
1695.58	0.695914
1697.11	1.09444
1698.63	0.359929
1700.15	0.61139
1701.67	0.00480556
1703.2	1.05697
1704.72	0.1038
1706.24	0.498158
1707.76	0.291627
1709.28	0.684753
1710.8	0.224319
1712.32	0.417613
1713.84	0.212161
1715.36	0.0252142
1716.88	0.344979
1718.4	0.338767
1719.91	0.043561
1721.43	0.362455
1722.95	0.104465
1724.47	-0.242272
1725.99	0.403044
1727.5	0.0230932
1729.02	-0.35562
1730.54	-0.353171
1732.05	0.48446
1733.57	0.131886
1735.09	0.0553885
1736.6	0.472581
1738.12	0.149151
1739.63	0.302408
1741.15	0.495967
1742.66	0.27562
1744.18	-0.43646
1745.69	0.0633059
1747.2	0.451623
1748.72	0.0989418
1750.23	0.178594
1751.74	-0.164504
1753.25	-0.107564
1754.77	0.201957
1756.28	-0.168188
1757.79	-0.0318851
1759.3	0.753794
1760.81	0.160913
1762.32	0.0267057
1763.83	-0.0346241
1765.34	-0.240431
1766.85	-0.0652018
1768.36	-0.117866
1769.87	-0.00795746
1771.38	0.310673
1772.89	0.145313
1774.4	0.132255
1775.91	0.0966845
1777.41	-0.168157
1778.92	0.270323
1780.43	-0.214223
1781.94	0.0156698
1783.44	0.209495
1784.95	-0.150172
1786.45	0.400757
1787.96	0.177049
1789.47	0.322507
1790.97	0.105945
1792.47	0.219201
1793.98	-0.0508537
1795.48	0.211457
1796.99	0.158697
1798.49	0.247878
1800	0.068819
1801.5	-0.0339298
1803	0.0443563
1804.51	0.0153656
1806.01	0.375251
1807.51	-0.0833502
1809.01	0.189028
1810.51	0.405785
1812.02	0.120173
1813.52	0.389826
1815.02	0.180593
1816.52	0.227846
1818.02	0.00133514
1819.52	-0.0549059
1821.02	-0.0838442
1822.52	-0.440923
1824.02	0.154321
1825.51	-0.0751429
1827.01	-0.151157
1828.51	0.226044
1830.01	0.171832
1831.51	0.186111
1833	-0.0173979
1834.5	-0.122752
1836	0.0642824
1837.49	-0.261355
1838.99	-0.0729103
1840.49	0.0350075
1841.98	0.106661
1843.48	0.248934
1844.97	0.300578
1846.47	-0.0995216
1847.96	0.0602293
1849.46	0.105444
1850.95	-0.0208607
1852.45	0.228502
1853.94	0.260472
1855.43	0.0272398
1856.92	0.412221
1858.42	0.184587
1859.91	-0.153555
1861.4	-0.0692301
1862.89	0.224862
1864.39	0.303615
1865.88	-0.0686054
1867.37	-0.268618
1868.86	0.388425
1870.35	-0.334553
1871.84	-0.0616102
1873.33	-0.17148
1874.82	0.0445175
1876.31	0.087636
1877.8	0.338674
1879.29	0.261858
1880.77	0.146308
1882.26	0.20161
1882.52	0.220522
1884.02	0.253942
1885.51	0.0948868
1887.01	0.353148
1888.5	0.297297
1889.99	-0.0540724
1891.49	0.361022
1892.98	0.0819588
1894.47	0.0481291
1895.96	0.520029
1897.46	0.0885668
1898.95	-0.134436
1900.44	0.493997
1901.93	-0.149056
1903.42	0.0586138
1904.91	0.247372
1906.4	0.400426
1907.89	0.344908
1909.38	0.394186
1910.87	0.340247
1912.36	-0.181134
1913.85	-0.164105
1915.34	0.199814
1916.83	-0.182212
1918.32	0.406043
1919.8	-0.427269
1921.29	-0.0303478
1922.78	-0.135444
1924.27	0.227769
1925.75	0.1419
1927.24	0.299436
1928.73	-0.0271673
1930.21	0.234881
1931.7	0.669363
1933.18	0.444358
1934.67	0.20038
1936.15	0.508602
1937.64	-0.118383
1939.12	0.257155
1940.61	-0.161805
1942.09	0.00728989
1943.57	0.00471115
1945.06	-0.0315285
1946.54	-0.0846272
1948.02	0.15506
1949.51	-0.0368052
1950.99	0.0804806
1952.47	0.0762968
1953.95	0.0715666
1955.43	0.685368
1956.91	0.0279951
1958.39	-0.095892
1959.87	-0.270421
1961.36	0.00153351
1962.84	-0.0350685
1964.32	0.0823812
1965.79	0.216372
1967.27	0.161284
1968.75	-0.0654211
1970.23	0.117836
1971.71	-0.17767
1973.19	0.0392361
1974.66	-0.0851974
1976.14	0.148632
1977.62	0.177917
1979.1	0.12216
1980.57	-0.035615
1982.05	0.401594
1983.53	0.362285
1985	0.271783
1986.48	0.452532
1987.95	-0.0279503
1989.43	0.491718
1990.9	0.520558
1992.38	0.296607
1993.85	0.24293
1995.33	0.223893
1996.8	-0.0650063
1998.27	0.203563
1999.75	0.319588
2001.22	0.232424
2002.69	0.33039
2004.16	-0.0101881
2005.64	-0.0805197
2007.11	0.372055
2008.58	0.25274
2010.05	-0.168712
2011.52	0.26896
2012.99	0.706572
2014.46	-0.0848465
2015.93	0.149614
2017.4	-0.407392
2018.87	0.0439348
2020.34	0.595121
2021.81	-0.248253
2023.28	0.168406
2024.75	-0.0689001
2026.22	-0.422359
2027.69	-0.0196486
2029.15	-0.0181046
2030.62	0.320219
2032.09	0.374387
2033.56	0.29476
2035.02	0.265451
2036.49	-0.0330381
2037.95	0.35673
2039.42	-0.228495
2040.89	0.245018
2042.35	-0.508335
2043.82	0.100953
2045.28	-0.281238
2046.75	0.195526
2048.21	0.622561
2049.67	-0.231165
2051.14	0.312826
2052.6	0.0461617
2054.06	0.148733
2055.53	0.249618
2056.99	0.0456877
2058.45	-0.142009
2059.92	-0.0096817
2061.38	0.442843
2062.84	0.289899
2064.3	-0.215421
2065.76	0.00393009
2067.22	0.106262
2068.68	-0.0264645
2070.14	0.127238
2071.6	0.314706
2073.06	0.350548
2074.52	0.200907
2075.98	0.354043
2077.44	0.271065
2078.9	0.356101
2080.36	0.188103
2081.82	0.356331
2083.27	0.422853
2084.73	0.0679197
2086.19	0.0825939
2087.65	0.0798578
2089.1	0.614511
2090.56	0.157391
2092.01	0.187528
2093.47	0.351778
2094.93	0.113117
2096.38	0.71226
2097.84	0.673512
2099.29	-0.219337
2100.75	0.377207
2102.2	0.087409
2103.66	-0.1177
2105.11	0.412955
2106.56	0.427289
2108.02	0.275856
2109.47	0.374946
2110.92	0.123396
2112.37	0.287359
2113.83	-0.183267
2115.28	0.110718
2116.73	0.237117
2118.18	0.081214
2119.63	0.358348
2121.09	0.205649
2122.54	0.933887
2123.99	0.286944
2125.44	0.337169
2126.89	0.23792
2128.34	0.121187
2129.79	0.566628
2131.23	0.71231
2132.68	0.492887
2134.13	0.372943
2135.58	-0.176026
2137.03	0.15279
2138.48	0.483142
2139.92	-0.341621
2141.37	0.289502
2142.82	0.376392
2144.26	0.381243
2145.71	0.253822
2147.16	0.556503
2148.6	0.395051
2150.05	0.100156
2151.49	0.516706
2152.94	0.451874
2154.38	0.502247
2155.83	0.336806
2157.27	0.635283
2158.72	0.536851
2160.16	0.655017
2161.6	0.443469
2163.05	0.51532
2164.49	0.671629
2165.93	0.314293
2167.38	0.504625
2168.82	0.16225
2170.26	0.383396
2171.7	0.386481
2173.14	0.470947
2174.58	0.504215
2176.03	0.969305
2177.47	0.353645
2178.91	0.58675
2180.35	0.604617
2181.79	0.639939
2183.23	0.426379
2184.67	0.512397
2186.1	0.914598
2187.54	0.468377
2188.98	0.737636
2190.42	0.574201
2191.86	0.859957
2193.3	0.429115
2194.73	0.646341
2196.17	0.761901
2197.61	0.609254
2199.05	1.03707
2200.48	0.898355
2201.92	0.560462
2203.35	0.422759
2204.79	0.700785
2206.22	0.38287
2207.66	0.811226
2209.09	0.2786
2210.53	0.325032
2211.96	0.420097
2213.4	0.0184479
2214.83	0.07973
2216.27	0.603643
2217.7	0.699091
2219.13	0.366888
2220.56	0.579766
2222	0.908006
2223.43	0.378625
2224.86	0.556457
2226.29	0.403312
2227.72	0.577634
2229.16	0.126275
2230.59	0.101677
2232.02	0.07693
2233.45	0.494428
2234.88	0.617435
2236.31	0.496291
2237.74	0.00140095
2239.17	0.651009
2240.6	0.535414
2242.03	0.698883
2243.45	0.390574
2244.88	0.31094
2246.31	0.459037
2247.74	0.0184841
2249.17	0.358685
2250.59	-0.0855722
2252.02	0.348194
2253.45	0.0160694
2254.87	0.285952
2256.3	0.410643
2257.73	0.245365
2259.15	0.439813
2260.58	0.474822
2262	-0.0396681
2263.43	0.421288
2264.85	-0.205747
2266.28	0.271865
2267.7	0.163562
2269.13	-0.0433445
2270.55	0.220961
2271.97	0.0452862
2273.4	0.455669
2274.82	0.459066
2276.24	0.495244
2277.66	0.613104
2279.09	0.225712
2280.51	0.718627
2281.93	-0.452045
2283.35	0.122307
2284.77	0.109502
2286.19	0.211151
2287.61	0.32953
2289.04	-0.123266
2290.46	0.273651
2291.88	0.148052
2293.29	0.235066
2294.71	0.485748
2296.13	0.409194
2297.55	0.381645
2298.97	0.403264
2300.39	-0.197727
2301.81	0.266825
2303.23	0.371175
2304.64	0.295222
2306.06	0.136999
2307.48	0.224758
2308.89	0.295633
2310.31	-0.17665
2311.73	0.320875
2313.14	0.275686
2314.56	0.543584
2315.97	-0.0767956
2317.39	0.340901
2318.8	-0.24608
2320.22	-0.0587254
2321.63	-0.0207119
2323.05	0.477687
2324.46	0.462278
2325.88	0.0487041
2327.29	0.474865
2328.7	0.388921
2330.12	0.962097
2331.53	0.36669
2332.94	0.299497
2334.35	-0.29336
2335.76	0.397418
2337.18	-0.178932
2338.59	0.181275
2340	0.293591
2341.41	0.470544
2342.82	-0.0589018
2344.23	-0.0792818
2345.64	0.113676
2347.05	0.110109
2348.46	0.401217
2349.87	0.0372438
2351.28	-0.0817642
2352.69	-0.0381765
2354.1	-0.0118675
2355.5	-0.116665
2356.91	-0.123865
2358.32	0.324321
2359.73	0.170519
2361.14	-0.112714
2362.54	-0.0873203
2363.95	-0.466976
2365.36	0.221898
2366.76	-0.383414
2368.17	-0.0666828
2369.58	-0.201254
2370.98	0.020236
2372.39	0.210468
2373.79	0.401473
2375.2	0.335156
2376.6	0.23635
2378	0.0240479
2379.41	0.0837183
2380.81	-0.0669832
2382.22	0.599059
2383.62	0.285723
2385.02	0.404779
2386.42	0.499983
2387.83	0.595854
2389.23	-0.128389
2390.63	-0.0377007
2392.03	-0.025651
2393.43	0.226005
2394.84	0.366878
2396.24	0.285752
2397.64	0.0145893
2399.04	0.22079
2400.44	-0.192172
2401.84	0.316545
2403.24	0.142255
2404.64	-0.0640821
2406.04	-0.00127506
2407.44	0.203414
2408.83	0.264425
2410.23	0.531106
2411.63	0.259068
2413.03	0.36814
2414.43	0.240907
2415.83	-0.0273342
2417.22	0.608088
2418.62	-0.0854969
2420.02	-0.0979795
2421.41	0.222066
2422.81	0.430984
2424.21	0.0375872
2425.6	-0.419229
2427	-0.019866
2428.39	0.348781
2429.79	0.575875
2431.18	-0.0529699
2432.58	0.555974
2433.97	-0.0738125
2435.36	0.200419
2436.76	0.330348
2438.15	-0.0972795
2439.54	-0.097126
2440.94	-0.0660686
2442.33	0.250195
2443.72	-0.163988
2445.11	0.26265
2446.51	-0.056385
2447.9	-0.232639
2449.29	0.589171
2450.68	0.0329933
2452.07	0.427408
2453.46	0.315998
2454.85	0.0947371
2456.24	0.206397
2457.63	0.239262
2459.02	0.177073
2460.41	0.367376
2461.8	0.177358
2463.19	-0.0607347
2464.58	-0.0780172
2465.97	0.220277
2467.36	0.186725
2468.75	0.216259
2470.13	-0.132924
2471.52	0.416278
2472.91	-0.0597582
2474.29	0.219722
2475.68	-0.083848
2477.07	0.115661
2478.45	-0.0621157
2479.84	0.121465
2481.22	0.101082
2482.61	-0.107348
2484	0.200719
2485.38	0.194596
2486.77	0.343617
2488.15	-0.0237217
2489.54	0.326012
2490.92	0.192213
2492.3	0.0437088
2493.69	-0.243177
2495.07	0.123281
2496.45	-0.098691
2497.84	0.28454
2499.22	0.35794
2500.6	0.369041
2501.98	0.101167
2503.36	0.203399
2504.74	-0.00394058
2506.13	0.112134
2507.51	0.0584164
2508.89	0.235538
2510.27	0.0901899
2511.65	0.375331
2513.03	0.216186
2514.41	-0.171599
2515.79	0.253211
2517.17	0.081666
2518.55	-0.27263
2519.93	0.259896
2521.3	-0.0331154
2522.68	-0.143246
2524.06	0.157805
2525.44	0.137671
2526.82	0.0716257
2528.19	-0.0547934
2529.57	0.0328808
2530.95	0.182756
2532.32	0.242988
2533.7	0.486847
2535.08	0.169274
2536.45	0.398603
2537.83	0.201907
2539.2	0.171414
2540.58	0.2616
2541.95	0.245131
2543.33	-0.120027
2544.7	0.516965
2546.08	-0.10393
2547.45	-0.116912
2548.82	0.599135
2550.2	0.405055
2551.57	0.180098
2552.94	-0.0305929
2554.32	0.379929
2555.69	0.0763664
2557.06	-0.166909
2558.43	-0.106905
2559.8	0.0139532
2561.17	0.453549
2562.55	0.0753031
2563.92	-0.150776
2565.29	0.1691
2566.66	0.443772
2568.03	-0.0088892
2569.4	0.40231
2570.77	0.540731
2572.14	0.315434
2573.51	0.363048
2574.88	0.304646
2576.24	0.231113
2577.61	0.354609
2578.98	-0.0831289
2580.35	0.236941
2581.72	0.465633
2583.09	0.466512
2584.45	0.224595
2585.82	0.103952
2587.19	0.377522
2588.55	-0.000449181
2589.92	-0.257024
2591.28	-0.134834
2592.65	0.153573
2594.02	-0.3769
2595.38	0.0308819
2596.75	0.225454
2598.11	-0.231439
2599.48	0.264329
2600.84	0.427201
2602.2	0.0920258
2603.57	0.301254
2604.93	0.209077
2606.3	0.192584
2607.66	0.35674
2609.02	0.308928
2610.38	0.757026
2611.75	0.179716
2613.11	0.128537
2614.47	0.302029
2615.83	0.174797
2617.19	0.21294
2618.56	0.356442
2619.92	0.126374
2621.28	0.0917654
2622.64	0.565744
2624	0.113535
2625.36	0.273692
2626.72	0.612332
2628.08	0.175302
2629.44	0.363993
2630.8	0.120735
2632.15	0.14535
2633.51	0.0659056
2634.87	0.0756168
2636.23	0.203927
2637.59	-0.0532446
2638.94	0.385932
2640.3	0.617456
2641.66	0.301907
2643.02	0.356423
2644.37	0.381513
2645.73	0.229466
2647.08	0.283634
2648.44	0.278129
2649.8	0.286551
2651.15	0.250182
2652.51	-0.065443
2653.86	0.13327
2655.22	-0.0194559
2656.57	0.0634575
2657.92	0.205908
2659.28	0.071125
2660.63	-0.180089
2661.99	0.0656996
2663.34	0.296059
2664.69	0.160437
2666.04	0.374325
2667.4	0.51454
2668.75	0.246716
2670.1	0.386993
2671.45	0.0477877
2672.81	0.101967
2674.16	0.374515
2675.51	0.44415
2676.86	0.108058
2678.21	-0.227132
2679.56	0.250639
2680.91	0.381308
2682.26	-0.139276
2683.61	0.196708
2684.96	0.0841236
2686.31	0.218596
2687.66	0.207865
2689	0.370206
2690.35	0.12444
2691.7	-0.166552
2693.05	-0.444257
2694.4	0.161956
2695.74	0.390543
2697.09	0.242885
2698.44	0.169006
2699.79	0.0678253
2701.13	0.185527
2702.48	-0.332611
2703.82	-0.0386586
2705.17	0.0095911
2706.52	0.0869532
2707.86	0.0335388
2709.21	0.00874233
2710.55	0.346623
2711.9	-0.31787
2713.24	0.237717
2714.58	-0.238442
2715.93	0.157453
2717.27	0.102587
2718.61	0.222028
2719.96	0.0647092
2721.3	0.110657
2722.64	0.141602
2723.99	0.186661
2725.33	0.289532
2726.67	0.479365
2728.01	-0.117042
2729.35	-0.131465
2730.7	-0.015059
2732.04	-0.0296435
2733.38	-0.480546
2734.72	0.203357
2736.06	-0.0871325
2737.4	0.0588584
2738.74	0.175736
2740.08	0.481414
2741.42	0.350359
2742.76	0.0878935
2744.09	0.275416
2745.43	-0.00266552
2746.77	-0.0485849
2748.11	0.0650291
2749.45	0.207611
2750.79	-0.0268106
2752.12	-0.246306
2753.46	0.36066
2754.8	0.214019
2756.13	0.328315
2757.47	-0.150955
2758.81	0.0795979
2760.14	0.267003
2761.48	0.469294
2762.81	0.0932322
2764.15	0.195008
2765.49	0.513797
2766.82	0.181078
2768.15	0.252573
2769.49	0.366161
2770.82	0.0880342
2772.16	0.0544543
2773.49	0.322957
2774.82	0.258889
2776.16	0.166086
2777.49	-0.127678
2778.82	-0.0177994
2780.16	-0.18062
2781.49	-0.0557032
2782.82	0.0260878
2784.15	0.0360165
2785.48	0.117575
2786.81	0.0989509
2788.15	0.0808368
2789.48	0.235182
2790.81	-0.0673914
2792.14	-0.111659
2793.47	-0.0696983
2794.8	-0.299255
2796.13	0.0425296
2797.46	-0.259161
2798.79	0.20987
2800.12	-0.0354862
2801.44	0.118556
2802.77	0.0583963
2804.1	0.169063
2805.43	-0.0341454
2806.76	0.189327
2808.08	-0.0574698
2809.41	0.434728
2810.74	-0.323483
2812.07	0.310687
2813.39	0.0516467
2814.72	0.205385
2816.05	0.232864
2817.37	0.0771756
2818.7	-0.191323
2820.02	-0.147987
2821.35	-0.0200195
2822.67	-0.0202365
2824	0.0639734
2825.32	-0.0504804
2826.65	0.0192599
2827.97	0.259359
2829.29	0.202643
2830.62	0.0331445
2831.94	0.472552
2833.26	0.204133
2834.59	0.105295
2835.91	0.218304
2837.23	0.189287
2838.55	0.428644
2839.88	0.0878711
2841.2	0.256351
2842.52	0.721978
2843.84	0.622747
2845.16	0.79274
2846.48	0.525221
2847.8	0.300425
2849.12	1.03674
2850.44	0.82583
2851.76	0.642741
2853.08	0.86906
2854.4	0.685184
2855.72	0.967439
2857.04	1.17897
2858.36	1.41874
2859.68	1.24888
2861	1.31895
2862.32	1.41694
2863.63	1.69802
2864.95	1.30142
2866.27	1.66676
2867.58	1.42573
2868.9	1.74922
2870.22	2.08709
2871.53	2.17129
2872.85	1.98743
2874.17	1.8875
2875.48	2.05426
2876.8	2.14946
2878.11	2.49708
2879.43	2.11275
2880.74	2.23515
2882.06	2.03507
2883.37	2.10298
2884.69	2.05943
2886	2.38144
2887.31	2.31042
2888.63	2.57578
2889.94	2.20901
2891.25	2.19226
2892.57	2.27306
2893.88	2.49373
2895.19	2.00042
2896.5	2.2501
2897.82	2.22073
2899.13	2.72397
2900.44	2.78017
2901.75	2.26329
2903.06	2.79574
2904.37	2.55899
2905.68	2.99389
2906.99	2.53412
2908.3	3.05426
2909.61	2.67989
2910.92	3.49544
2912.23	3.02354
2913.54	3.37677
2914.85	3.44874
2916.16	3.32311
2917.46	3.54595
2918.77	3.51588
2920.08	3.72346
2921.39	3.69384
2922.7	3.67937
2924	4.11351
2925.31	4.35302
2926.62	4.20174
2927.92	3.89671
2929.23	4.05265
2930.53	3.9844
2931.84	4.40498
2933.15	4.50376
2934.45	4.28104
2935.76	3.58329
2937.06	4.56276
2938.37	3.73966
2939.67	4.02078
2940.98	4.02291
2942.28	3.70442
2943.58	3.89013
2944.89	3.51798
2946.19	3.21659
2947.49	3.27929
2948.8	3.28585
2950.1	3.44538
2951.4	3.18326
2952.7	2.84938
2954.01	2.89231
2955.31	3.04686
2956.61	2.86625
2957.91	2.79946
2959.21	3.18313
2960.51	2.79921
2961.81	2.54286
2963.11	2.72174
2964.41	2.54939
2965.71	2.47389
2967.01	2.72007
2968.31	2.5575
2969.61	2.39415
2970.91	2.1462
2972.21	2.16571
2973.51	1.97445
2974.81	2.33206
2976.1	2.05568
2977.4	2.13008
2978.7	1.99171
2980	2.11924
2981.29	1.94996
2982.59	1.87873
2983.89	1.76569
2985.18	1.80833
2986.48	1.76803
2987.78	1.51834
2989.07	1.32577
2990.37	1.23179
2991.66	1.05304
2992.96	1.63225
2994.25	1.26868
2995.55	0.932335
2996.84	0.567495
2998.14	1.143
2999.43	0.848535
3000.72	0.652945
3002.02	0.654254
3003.31	0.697976
3004.6	0.965898
3005.9	0.561212
3007.19	0.464215
3008.48	0.352544
3009.77	0.32408
3011.07	0.336883
3012.36	0.153806
3013.65	0.291857
3014.94	0.0815692
3016.23	0.0532932
3017.52	0.387695
3018.81	0.374328
3020.1	0.319319
3021.39	0.263954
3022.68	0.207867
3023.97	0.220335
3025.26	-0.0590768
3026.55	0.146592
3027.84	-0.0213118
3029.13	0.199196
3030.42	-0.408237
3031.71	0.0358524
3033	0.287254
3034.28	0.400776
3035.57	-0.0518961
3036.86	0.142684
3038.15	-0.119272
3039.43	-0.0246434
3040.72	0.301968
3042.01	0.0503821
3043.29	0.128359
3044.58	0.165849
3045.86	0.355168
3047.15	0.3686
3048.44	0.0429378
3049.72	0.279103
3051.01	0.161859
3052.29	0.127269
3053.58	0.461104
3054.86	0.357672
3056.14	-0.0876622
3057.43	0.188839
3058.71	0.300819
3060	0.371544
3061.28	0.360875
3062.56	0.011096
3063.84	0.329085
3065.13	0.131777
3066.41	0.139712
3067.69	-0.0961676
3068.97	0.429783
3070.25	0.452392
3071.54	0.351761
3072.82	0.154787
3074.1	0.201432
3075.38	0.11127
3076.66	0.278895
3077.94	-0.00119734
3079.22	0.0319948
3080.5	0.270012
3081.78	-0.0195661
3083.06	-0.199511
3084.34	0.00104141
3085.62	0.17458
3086.9	0.13057
3088.17	0.208042
3089.45	0.393408
3090.73	-0.0595002
3092.01	0.0574169
3093.29	-0.0154757
3094.56	0.210267
3095.84	-0.106166
3097.12	0.174055
3098.4	-0.115129
3099.67	-0.0791249
3100.95	-0.0974226
3102.22	-0.00731611
3103.5	0.0965223
3104.77	-0.327106
3106.05	-0.0867996
3107.33	-0.00810528
3108.6	0.436933
3109.88	0.0168014
3111.15	0.0983458
3112.43	0.180654
3113.7	-0.197321
3114.97	0.156427
3116.25	-0.235859
3117.52	0.089745
3118.79	0.414387
3120.07	0.493806
3121.34	0.111317
3122.61	0.107977
3123.88	0.104452
3125.16	0.507268
3126.43	0.436451
3127.7	0.13623
3128.97	0.364159
3130.24	0.524665
3131.51	0.252631
3132.78	0.129245
3134.05	0.235226
3135.33	0.354111
3136.59	0.256435
3137.86	0.333663
3139.14	0.194874
3140.41	0.271487
3141.67	0.348003
3142.94	0.209679
3144.21	0.300244
3145.48	0.646095
3146.75	0.49609
3148.02	0.253124
3149.28	0.39926
