200.388	0.479189
202.204	0.480462
204.019	0.483313
205.832	0.609301
207.646	0.590051
209.459	1.10523
211.274	0.0159416
213.087	0.72293
214.899	0.215183
216.711	-0.0740728
218.524	0.315606
220.335	0.0522623
222.146	0.44374
223.956	-0.0583601
225.766	0.166005
227.576	-0.0442162
229.388	-0.13363
231.197	0.380074
233.005	-0.0717525
234.813	-0.112578
236.621	-0.00705338
238.429	-0.0917082
240.236	0.0678701
242.045	-0.107057
243.852	-0.0389938
245.658	0.584529
247.464	0.796617
249.269	0.957533
251.074	0.680231
252.879	0.0619993
254.683	0.769173
256.487	0.655519
258.291	0.519077
260.094	0.216331
261.897	0.952118
263.702	0.317091
265.504	0.502718
267.306	0.544535
269.108	0.465733
270.909	0.530821
272.71	0.618865
274.511	1.09116
276.311	-0.0294657
278.111	-0.235779
279.91	0.350764
281.709	0.140033
283.508	0.240189
285.306	0.098321
287.105	0.243961
288.9	0.293529
290.698	0.272187
292.495	-0.178217
294.291	-0.00401402
296.088	-0.138866
297.884	-0.176509
299.679	0.168962
301.475	-0.0112543
303.27	-0.168268
305.064	-0.135512
306.858	0.230155
308.652	0.905149
310.444	0.93694
312.237	-0.101382
314.03	0.220297
315.822	0.0442772
317.615	0.180171
319.406	0.365833
321.198	0.362599
322.987	0.527413
324.778	0.907932
326.568	0.405817
328.358	0.261321
330.148	0.42678
331.935	-0.0785856
333.724	-0.0598631
335.513	-0.139249
337.301	0.61627
339.089	-0.09027
340.875	0.445375
342.662	0.214722
344.449	0.223218
346.236	-0.436378
348.02	0.409691
349.806	0.56379
351.592	0.503199
353.375	0.0602884
355.16	-0.0256863
356.944	-0.208447
358.728	0.274738
360.51	0.613104
362.294	0.164609
364.077	0.120182
365.858	0.64522
367.64	0.954803
369.422	0.40913
371.202	0.432065
372.983	0.880029
374.764	0.995693
376.543	1.22927
378.324	0.401956
380.102	1.32082
381.881	0.591999
383.661	0.948012
385.438	1.18781
387.216	0.982633
388.993	1.24898
390.771	0.694588
392.548	1.05739
394.324	1.3506
396.101	0.77549
397.875	0.552833
399.651	0.494452
401.425	0.881867
403.201	0.258599
404.974	0.691396
406.749	0.395267
408.524	0.497657
410.296	0.881308
412.07	-0.00239182
413.841	0.710361
415.614	0.297682
417.385	0.47266
419.156	0.484269
420.928	0.378947
422.698	0.390727
424.469	0.495642
426.238	0.294279
428.009	0.608399
429.777	-0.134393
431.548	0.226067
433.315	0.352181
435.083	0.643046
436.852	-0.333399
438.618	0.191442
440.387	0.456386
442.153	0.22616
443.919	-0.639417
445.686	0.3915
447.451	-0.148913
449.218	0.035965
450.982	0.197273
452.746	0.732241
454.512	0.286994
456.275	0.541698
458.038	0.819146
459.803	-0.206908
461.565	-0.0679388
463.327	0.00296307
465.091	0.750508
466.852	0.548842
468.613	0.373801
470.374	-0.124524
472.136	0.843411
473.896	0.7639
475.655	0.519102
477.415	0.457826
479.176	-0.071682
480.934	0.538943
482.692	0.49747
484.45	0.0381889
486.21	0.699338
487.967	-0.104678
489.724	0.538911
491.481	0.484534
493.237	0.968307
494.995	1.00897
496.75	1.073
498.506	1.27739
500.26	0.191803
502.015	0.793412
503.769	0.878145
505.525	0.609029
507.279	0.408429
509.032	0.770357
510.785	0.84813
512.537	0.24151
514.289	0.76249
516.041	0.599379
517.793	0.575952
519.546	1.37405
521.297	0.995609
523.047	0.59344
524.797	0.801678
526.547	0.540483
528.297	0.748538
530.046	0.159476
531.795	0.624563
533.543	0.619987
535.291	0.473638
537.039	0.652989
538.787	0.316624
540.534	0.632497
542.281	0.643808
544.027	1.07336
545.773	1.19974
547.519	0.560132
549.264	0.339615
551.01	0.860888
552.754	0.224672
554.499	0.629871
556.243	-0.142694
557.987	0.147529
559.73	0.138275
561.474	0.636149
563.216	0.489881
564.959	0.206638
566.701	-0.0984201
568.441	-0.172596
570.182	-0.245492
571.923	-0.156178
573.664	0.118522
575.405	0.716497
577.145	0.834905
578.885	0.97805
580.624	-0.0489769
582.361	-0.617311
584.1	-0.612034
585.839	0.0820532
587.577	-0.0760698
589.315	-0.00562763
591.052	0.776929
592.787	-0.327814
594.524	0.177762
596.26	0.108178
597.997	-0.490601
599.732	0.750722
601.466	0.518627
603.201	0.538043
604.936	0.187807
606.67	0.157977
608.403	0.104201
610.136	0.532225
611.87	0.662104
613.603	0.425973
615.334	0.557582
617.067	0.231113
618.799	0.224929
620.529	0.423498
622.26	0.620308
623.991	0.632861
625.72	0.18845
627.451	0.659011
629.181	0.401195
630.909	-0.218724
632.638	0.510119
634.368	0.464504
636.095	0.464211
637.823	0.324929
639.551	1.11814
641.277	0.606815
643.005	0.252643
644.73	0.375648
646.457	0.0664549
648.184	0.373623
649.908	0.615985
651.634	0.0676241
653.357	1.13752
655.083	0.802557
656.806	0.265006
658.53	0.092267
660.253	0.489146
661.977	0.542383
663.7	0.638618
665.422	1.18921
667.145	1.44039
668.865	0.684252
670.588	1.32396
672.308	-0.00161839
674.027	0.0711079
675.749	0.69655
677.468	-0.00597954
679.188	0.875011
680.907	0.837004
682.627	0.911773
684.345	0.638687
686.064	0.570117
687.781	0.960193
689.498	0.750097
691.216	0.0783358
692.932	0.235075
694.65	0.252704
696.366	0.775777
698.081	0.997849
699.797	0.849991
701.512	0.286866
703.228	0.389766
704.942	1.3874
706.655	0.638664
708.371	0.922484
710.083	0.930406
711.796	0.800478
713.51	0.716097
715.222	1.04296
716.934	0.729842
718.645	0.782353
720.358	1.10844
722.068	1.13813
723.779	-0.0608587
725.49	1.51554
727.2	1.54431
728.909	1.2094
730.618	0.965208
732.329	0.585095
734.037	0.748505
735.745	1.25066
737.453	0.826402
739.16	0.945166
740.869	1.65094
742.576	1.29842
744.282	0.925483
745.988	1.11719
747.694	0.815495
749.401	1.28026
751.107	1.20671
752.811	1.08972
754.516	1.58177
756.22	0.905649
757.924	1.22148
759.627	0.818469
761.332	1.70135
763.035	1.27759
764.738	1.12384
766.44	1.10413
768.142	1.82821
769.843	1.30648
771.544	1.59614
773.245	1.27345
774.946	1.37978
776.646	1.66754
778.346	1.77595
780.046	1.7958
781.745	2.22428
783.444	1.56701
785.143	1.70033
786.841	1.55924
788.539	2.07069
790.237	1.40139
791.934	1.83712
793.631	1.84098
795.328	1.3481
797.024	0.857137
798.72	2.19306
800.416	2.58413
802.112	2.12173
803.807	1.66061
805.502	1.89659
807.196	1.09776
808.89	1.71316
810.584	1.67552
812.278	1.65919
813.971	1.75417
815.664	2.29639
817.354	1.38371
819.047	1.72415
820.739	1.30496
822.43	1.51162
824.122	2.58846
825.813	2.03894
827.503	2.0717
829.192	2.30824
830.882	1.79133
832.571	1.54503
834.261	1.68005
835.95	1.72728
837.637	2.0422
839.325	2.06577
841.013	2.04272
842.701	1.97325
844.389	1.85837
846.074	1.56536
847.761	2.25807
849.447	1.58973
851.131	1.52803
852.817	1.73755
854.503	1.92626
856.188	1.21676
857.871	1.69613
859.556	2.01683
861.24	1.5026
862.922	0.850586
864.606	1.61627
866.289	1.75009
867.97	1.72532
869.653	1.29398
871.336	1.06508
873.016	1.35475
874.698	1.35106
876.379	1.18938
878.058	0.937387
879.739	1.22694
881.418	0.951757
883.098	1.19493
884.778	1.86569
886.456	0.864374
888.135	0.922142
889.812	1.18094
891.49	0.851665
893.167	1.12932
894.845	1.47257
896.523	1.18441
898.198	0.176977
899.875	0.875445
901.55	0.339052
903.226	0.787878
904.901	1.61527
906.576	1.41403
908.25	1.30321
909.925	1.12685
911.598	0.974216
913.271	0.889382
914.945	1.6933
916.617	1.32005
918.291	1.03605
919.962	1.15125
921.635	1.31109
923.306	0.963615
924.978	1.1487
926.648	1.00459
928.318	1.17165
929.989	1.73733
931.659	1.31083
933.328	1.48044
934.998	1.40756
936.666	1.0926
938.336	0.866894
940.004	1.12784
941.671	0.971175
943.34	0.727085
945.007	0.504819
946.673	1.23039
948.339	0.82806
950.007	1.06353
951.672	1.25322
953.337	1.4207
955.004	0.487376
956.669	1.10097
958.333	1.25546
959.997	0.552769
961.662	1.11007
963.326	0.386083
964.989	0.8757
966.651	0.566118
968.315	-0.322178
969.977	1.77383
971.639	0.262601
973.301	0.676377
974.962	0.583102
976.624	0.779458
978.285	0.889222
979.945	0.800744
981.605	0.711794
983.264	0.90903
984.924	1.08181
986.583	0.986393
988.243	1.0879
989.901	1.01083
991.56	0.689892
993.217	1.0317
994.875	1.1966
996.532	0.94226
998.188	1.30557
999.845	1.18336
1001.5	1.87562
1003.16	1.6641
1004.81	1.05659
1006.47	0.230007
1008.12	0.722319
1009.78	0.709575
1011.43	0.192976
1013.09	0.817222
1014.74	0.8936
1016.39	1.18929
1018.05	0.172445
1019.7	0.447876
1021.35	1.13972
1023	1.26423
1024.65	0.668704
1026.31	1.9315
1027.96	0.615812
1029.61	0.872672
1031.26	1.08426
1032.91	1.0099
1034.56	1.15172
1036.21	1.3788
1037.86	1.56086
1039.51	1.08942
1041.16	1.14152
1042.8	1.58644
1044.45	1.35954
1046.1	0.744336
1047.75	1.36962
1049.39	0.932774
1051.04	0.714662
1052.69	1.30131
1054.33	0.823945
1055.98	0.215972
1057.62	0.868265
1059.27	0.672244
1060.91	0.758066
1062.56	1.56051
1064.2	1.05713
1065.85	0.269927
1067.49	0.394578
1069.13	0.25726
1070.77	0.249535
1072.42	0.241618
1074.06	0.971973
1075.7	0.271448
1077.34	0.00658417
1078.98	-0.104947
1080.62	0.283197
1082.27	1.21346
1083.91	0.689843
1085.55	0.597982
1087.18	0.525374
1088.82	1.01329
1090.46	1.06554
1092.1	0.748659
1093.74	0.820403
1095.38	0.395959
1097.02	0.533705
1098.65	0.608232
1100.29	0.598688
1101.93	0.828187
1103.56	0.99523
1105.2	0.389546
1106.84	0.150375
1108.47	0.749644
1110.11	0.121866
1111.74	-0.0560503
1113.38	0.0864916
1115.01	0.506442
1116.64	0.667603
1118.28	0.635691
1119.91	0.818864
1121.54	0.0180788
1123.18	0.653343
1124.81	-0.0157804
1126.44	0.0865602
1128.07	0.232554
1129.7	0.464871
1131.33	0.0778494
1132.97	0.589121
1134.6	0.138266
1136.23	0.221092
1137.86	0.388112
1139.49	0.126361
1141.11	-0.349904
1142.74	0.347309
1144.37	-0.150453
1146	0.504251
1147.63	0.839934
1149.26	0.302995
1150.88	-0.0413408
1152.51	0.168181
1154.14	-0.389222
1155.76	-0.0741816
1157.39	0.900034
1159.01	0.74678
1160.64	0.509591
1162.27	0.465214
1163.89	0.103176
1165.51	0.230809
1167.14	0.464484
1168.76	-0.897614
1170.39	-0.454462
1172.01	0.156093
1173.63	0.169337
1175.25	0.541693
1176.88	0.297997
1178.5	0.732727
1180.12	0.0881119
1181.74	0.312742
1183.36	-0.455725
1184.98	-0.0188236
1186.6	-0.0269651
1188.22	-0.100319
1189.84	-0.0705137
1191.46	0.546432
1193.08	0.402987
1194.7	0.552798
1196.32	-0.0526352
1197.94	-0.173773
1199.55	0.564878
1201.17	0.552693
1202.79	1.14937
1204.41	0.851329
1206.02	0.80665
1207.64	0.137865
1209.25	0.220588
1210.87	0.0938034
1212.48	0.694798
1214.1	0.729861
1215.71	0.387235
1217.33	0.937434
1218.94	0.737041
1220.56	0.433067
1222.17	0.752678
1223.79	1.28044
1225.4	1.06392
1227.01	1.07727
1228.62	0.802846
1230.23	0.86106
1231.85	0.85874
1233.46	0.713269
1235.07	0.838048
1236.68	0.819665
1238.29	0.554498
1239.9	0.993128
1241.51	0.191232
1243.12	0.878133
1244.73	0.695307
1246.34	1.40099
1247.94	1.11214
1249.55	0.905091
1251.16	1.25623
1252.77	0.842195
1254.37	0.284307
1255.98	0.823982
1257.59	0.703291
1259.2	1.39101
1260.8	0.155235
1262.41	1.11415
1264.01	0.727366
1265.62	1.3345
1267.22	0.801035
1268.83	1.21984
1270.43	1.09835
1272.03	0.560831
1273.64	1.01724
1275.24	0.974792
1276.85	0.972629
1278.45	1.36301
1280.05	0.572015
1281.65	0.588489
1283.25	0.418863
1284.85	0.766991
1286.46	0.785183
1288.06	0.825313
1289.66	0.866571
1291.26	0.949808
1292.86	1.17758
1294.46	0.805311
1296.06	1.23709
1297.66	1.19172
1299.25	0.793555
1300.85	0.826971
1302.45	1.60035
1304.05	0.621778
1305.65	1.16559
1307.24	0.783427
1308.84	1.18128
1310.43	1.02493
1312.03	1.21738
1313.63	0.899048
1315.22	0.562106
1316.82	1.6357
1318.41	1.36184
1320.01	1.25137
1321.6	1.20107
1323.2	0.579148
1324.79	1.62322
1326.38	1.24184
1327.98	1.73247
1329.57	1.39227
1331.16	1.56051
1332.76	1.50898
1334.35	1.09702
1335.94	0.849128
1337.53	1.7317
1339.12	1.04027
1340.71	1.31452
1342.3	1.04227
1343.89	1.33088
1345.48	1.0552
1347.07	1.12107
1348.66	0.4077
1350.25	2.10026
1351.84	0.933633
1353.43	0.910432
1355.01	0.828968
1356.6	0.94788
1358.19	1.14613
1359.77	1.5028
1361.36	0.979529
1362.95	1.1539
1364.53	0.350711
1366.12	0.644564
1367.71	0.939056
1369.29	1.13526
1370.88	0.935117
1372.46	1.15467
1374.04	1.19657
1375.63	1.37865
1377.21	0.665457
1378.8	1.32467
1380.38	1.00756
1381.96	0.589429
1383.54	0.488085
1385.13	0.524701
1386.71	1.0375
1388.29	1.41095
1389.87	0.673337
1391.45	0.750953
1393.03	1.16677
1394.61	0.829249
1396.19	0.491672
1397.77	1.06528
1399.35	0.289773
1400.93	0.00891304
1402.51	1.46953
1404.09	0.633559
1405.67	0.550487
1407.24	0.923142
1408.82	0.446991
1410.4	0.959426
1411.98	0.543442
1413.55	1.17322
1415.13	1.74213
1416.71	1.18524
1418.28	1.21969
1419.86	0.781695
1421.43	1.19212
1423.01	1.23024
1424.58	0.66035
1426.16	0.938463
1427.73	0.626834
1429.31	1.18094
1430.88	0.572662
1432.45	1.10445
1434.02	1.35931
1435.6	1.0234
1437.17	1.00248
1438.74	2.31912
1440.31	1.55334
1441.88	1.79127
1443.45	1.97117
1445.03	1.562
1446.6	1.86062
1448.17	1.74667
1449.74	2.02625
1451.3	1.10711
1452.87	1.76163
1454.44	1.66945
1456.01	1.97073
1457.58	1.28734
1459.15	2.29474
1460.72	1.70578
1462.28	1.17358
1463.85	1.60323
1465.42	1.38238
1466.98	1.23983
1468.55	1.07821
1470.12	1.3496
1471.68	1.21025
1473.25	1.44501
1474.81	1.30813
1476.38	0.230719
1477.94	1.05537
1479.51	0.468371
1481.07	1.07697
1482.63	1.27376
1484.2	1.23519
1485.76	0.628077
1487.32	0.529504
1488.88	1.46699
1490.45	0.757545
1492.01	0.730566
1493.57	0.544589
1495.13	1.27365
1496.69	0.6355
1498.25	0.504561
1499.81	1.07428
1501.37	0.945149
1502.93	0.371773
1504.49	0.905065
1506.05	0.895715
1507.61	0.904953
1509.17	0.565086
1510.73	0.610422
1512.28	0.577421
1513.84	0.563207
1515.4	0.799109
1516.96	0.708776
1518.51	0.274475
1520.07	0.186706
1521.63	0.577786
1523.18	0.528
1524.74	0.782797
1526.29	0.12042
1527.85	0.144111
1529.4	0.699441
1530.96	0.721442
1532.51	0.819861
1534.06	0.332086
1535.62	0.679048
1537.17	0.45962
1538.72	0.298153
1540.28	0.250647
1541.83	0.203361
1543.38	0.344236
1544.93	-0.211077
1546.48	0.398987
1548.03	0.857465
1549.59	0.808849
1551.14	0.1239
1552.69	0.825208
1554.24	0.816169
1555.79	0.678156
1557.34	0.0385504
1558.88	0.894625
1560.43	0.260233
1561.98	0.598013
1563.53	0.508155
1565.08	0.437678
1566.62	0.777876
1568.17	0.520639
1569.72	0.67352
1571.27	0.825932
1572.81	1.23932
1574.36	1.22317
1575.9	0.927025
1577.45	0.705787
1579	0.260993
1580.54	1.01186
1582.09	0.699437
1583.63	0.96703
1585.17	0.731166
1586.72	1.00054
1588.26	1.36386
1589.8	0.36128
1591.35	0.555385
1592.89	1.04862
1594.43	1.20463
1595.97	0.929841
1597.52	1.57374
1599.06	1.24399
1600.6	1.02742
1602.14	1.31798
1603.68	0.95162
1605.22	1.42948
1606.76	1.0603
1608.3	0.425342
1609.84	0.915217
1611.38	0.763166
1612.92	1.43505
1614.46	0.771887
1615.99	0.765423
1617.53	1.65922
1619.07	0.811178
1620.61	1.03324
1622.14	0.957354
1623.68	0.770245
1625.22	0.56455
1626.75	1.4622
1628.29	0.730037
1629.82	1.06261
1631.36	0.571121
1632.9	1.163
1634.43	1.49317
1635.96	0.98441
1637.5	0.178883
1639.03	1.05265
1640.57	1.19905
1642.1	1.30731
1643.63	1.63752
1645.16	1.07253
1646.7	1.17654
1648.23	1.37284
1649.76	1.12367
1651.29	0.968824
1652.82	1.68745
1654.36	1.53553
1655.89	1.1807
1657.42	2.23425
1658.95	1.65611
1660.48	1.63217
1662.01	1.75433
1663.53	1.80079
1665.06	1.38461
1666.59	1.28325
1668.12	0.906765
1669.65	1.26989
1671.18	1.10027
1672.7	1.46636
1674.23	1.31729
1675.76	1.481
1677.29	1.56997
1678.81	1.17913
1680.34	0.750539
1681.86	1.27693
1683.39	1.03096
1684.91	1.04226
1686.44	1.23738
1687.96	0.919639
1689.49	0.822582
1691.01	0.671022
1692.54	0.812522
1694.06	0.734306
1695.58	1.38722
1697.11	0.540792
1698.63	0.334018
1700.15	0.56496
1701.67	0.794921
1703.2	0.221924
1704.72	0.486762
1706.24	0.0045557
1707.76	0.577218
1709.28	0.531177
1710.8	0.12235
1712.32	0.639192
1713.84	0.321963
1715.36	0.51222
1716.88	0.0689802
1718.4	0.493821
1719.91	0.339991
1721.43	0.367026
1722.95	0.0161142
1724.47	0.621836
1725.99	-0.140067
1727.5	0.198416
1729.02	0.357975
1730.54	0.284531
1732.05	0.282898
1733.57	-0.143942
1735.09	0.746643
1736.6	0.224406
1738.12	-0.43931
1739.63	-0.200193
1741.15	0.00560665
1742.66	-0.070941
1744.18	-0.274854
1745.69	0.175154
1747.2	0.0283566
1748.72	0.522649
1750.23	0.242066
1751.74	0.881742
1753.25	0.550863
1754.77	0.230974
1756.28	0.0126858
1757.79	0.474291
1759.3	0.68358
1760.81	-0.354054
1762.32	0.215083
1763.83	-0.35683
1765.34	0.00382137
1766.85	0.0209322
1768.36	0.203168
1769.87	0.115787
1771.38	0.0620298
1772.89	0.0439949
1774.4	0.408522
1775.91	-0.071147
1777.41	-0.122189
1778.92	0.152281
1780.43	0.588535
1781.94	0.266883
1783.44	-0.0282402
1784.95	0.200371
1786.45	0.0819731
1787.96	0.280128
1789.47	0.195065
1790.97	0.234448
1792.47	0.251794
1793.98	0.0456352
1795.48	-0.096467
1796.99	0.0449276
1798.49	-0.00596237
1800	0.248851
1801.5	0.260648
1803	0.540426
1804.51	-0.018527
1806.01	-0.0198078
1807.51	0.0468922
1809.01	0.483516
1810.51	0.399874
1812.02	0.388432
1813.52	0.00357723
1815.02	0.368947
1816.52	0.310458
1818.02	-0.157848
1819.52	-0.002635
1821.02	-0.252064
1822.52	0.0371065
1824.02	0.121834
1825.51	-0.0396309
1827.01	0.0688086
1828.51	0.0647926
1830.01	-0.471449
1831.51	0.0414906
1833	0.122022
1834.5	0.0990572
1836	0.240766
1837.49	-0.158155
1838.99	-0.118869
1840.49	-0.389411
1841.98	0.146504
1843.48	0.0547037
1844.97	0.0499086
1846.47	0.168672
1847.96	0.0215883
1849.46	0.0505886
1850.95	-0.121838
1852.45	-0.147089
1853.94	0.197958
1855.43	-0.15499
1856.92	-0.0785151
1858.42	-0.152829
1859.91	0.225651
1861.4	0.134615
1862.89	-0.0968437
1864.39	0.0609798
1865.88	-0.0358
1867.37	0.44548
1868.86	0.149955
1870.35	0.173811
1871.84	0.314296
1873.33	-0.00881481
1874.82	-0.0443068
1876.31	-0.00627804
1877.8	-0.155495
1879.29	0.247528
1880.77	0.31254
1882.26	0.63196
1882.52	0.702771
1884.02	-0.0504417
1885.51	-0.0199451
1887.01	0.427435
1888.5	0.525524
1889.99	-0.0547667
1891.49	-0.0767498
1892.98	0.633538
1894.47	-0.0448074
1895.96	-0.0605021
1897.46	0.377048
1898.95	0.379765
1900.44	-0.105951
1901.93	0.276072
1903.42	0.394809
1904.91	0.442036
1906.4	0.453424
1907.89	0.551592
1909.38	-0.113254
1910.87	-0.2732
1912.36	0.348679
1913.85	-0.243018
1915.34	0.223392
1916.83	0.221103
1918.32	0.287451
1919.8	0.179916
1921.29	0.0376921
1922.78	-0.415606
1924.27	-0.46942
1925.75	0.0840673
1927.24	0.535047
1928.73	0.294393
1930.21	-0.258056
1931.7	-0.274745
1933.18	-0.0161781
1934.67	0.188108
1936.15	0.338166
1937.64	-0.0149126
1939.12	0.132953
1940.61	-0.0470734
1942.09	-0.156767
1943.57	0.217965
1945.06	0.0417204
1946.54	-0.116685
1948.02	0.190024
1949.51	0.306067
1950.99	-0.16469
1952.47	0.0349989
1953.95	0.0101576
1955.43	0.260182
1956.91	0.235632
1958.39	-0.217068
1959.87	0.309424
1961.36	0.218866
1962.84	0.145788
1964.32	0.706453
1965.79	0.478211
1967.27	0.0781412
1968.75	0.430296
1970.23	0.370985
1971.71	0.584698
1973.19	-0.00416088
1974.66	-0.353271
1976.14	0.0993967
1977.62	0.279151
1979.1	0.18647
1980.57	0.655197
1982.05	-0.202801
1983.53	-0.108748
1985	0.0696182
1986.48	-0.091814
1987.95	-0.032711
1989.43	0.229927
1990.9	-0.31923
1992.38	0.334294
1993.85	0.0755863
1995.33	0.409616
1996.8	-0.117579
1998.27	-0.323592
1999.75	0.668632
2001.22	0.748008
2002.69	-0.185338
2004.16	0.196986
2005.64	0.511972
2007.11	-0.300817
2008.58	0.0668144
2010.05	0.199697
2011.52	0.434229
2012.99	0.0123634
2014.46	0.212736
2015.93	0.714863
2017.4	-0.12998
2018.87	0.0670671
2020.34	0.448052
2021.81	-0.330281
2023.28	0.134679
2024.75	0.0969028
2026.22	-0.0567474
2027.69	0.445604
2029.15	0.379629
2030.62	0.583817
2032.09	0.0342541
2033.56	0.139655
2035.02	-0.0235605
2036.49	-0.0193863
2037.95	-0.301525
2039.42	0.541769
2040.89	0.309494
2042.35	-0.124155
2043.82	0.418448
2045.28	0.323236
2046.75	0.178411
2048.21	0.235991
2049.67	0.0909758
2051.14	-0.0217381
2052.6	-0.119606
2054.06	0.623475
2055.53	-0.49074
2056.99	-0.308095
2058.45	0.345255
2059.92	0.0209303
2061.38	-0.369952
2062.84	0.267218
2064.3	0.383694
2065.76	-0.272658
2067.22	0.721337
2068.68	0.235139
2070.14	0.473073
2071.6	0.576472
2073.06	-0.128481
2074.52	0.0417242
2075.98	0.00945568
2077.44	0.246173
2078.9	0.212946
2080.36	-0.224987
2081.82	-0.225762
2083.27	0.311281
2084.73	0.173997
2086.19	0.237715
2087.65	0.216523
2089.1	0.581353
2090.56	0.340852
2092.01	-0.0170145
2093.47	-0.324279
2094.93	-0.0445576
2096.38	0.183941
2097.84	0.461544
2099.29	0.319539
2100.75	0.327845
2102.2	0.436679
2103.66	0.796924
2105.11	0.0736418
2106.56	-0.480388
2108.02	0.168088
2109.47	-0.250506
2110.92	0.163964
2112.37	0.00994682
2113.83	0.386839
2115.28	0.112211
2116.73	-0.0300941
2118.18	0.326538
2119.63	0.219578
2121.09	0.297681
2122.54	-0.235443
2123.99	0.361056
2125.44	0.212111
2126.89	-0.252135
2128.34	0.14452
2129.79	-0.0572939
2131.23	0.286026
2132.68	0.280369
2134.13	0.407023
2135.58	-0.0937605
2137.03	0.234103
2138.48	-0.229137
2139.92	0.33462
2141.37	0.156713
2142.82	0.0297947
2144.26	0.333707
2145.71	-0.0736094
2147.16	0.246898
2148.6	-0.112199
2150.05	0.20669
2151.49	0.0274181
2152.94	0.476556
2154.38	0.295059
2155.83	0.709425
2157.27	0.90846
2158.72	0.445815
2160.16	0.597744
2161.6	0.652519
2163.05	0.510722
2164.49	1.00111
2165.93	0.812582
2167.38	0.407691
2168.82	0.36672
2170.26	0.290259
2171.7	0.976403
2173.14	0.29607
2174.58	0.795108
2176.03	0.694554
2177.47	0.261752
2178.91	0.611396
2180.35	0.779364
2181.79	0.54942
2183.23	0.503086
2184.67	0.65669
2186.1	0.211562
2187.54	0.11572
2188.98	0.652304
2190.42	0.406742
2191.86	0.943242
2193.3	0.59648
2194.73	0.680925
2196.17	0.613242
2197.61	0.459908
2199.05	0.786771
2200.48	0.64664
2201.92	-0.157563
2203.35	0.334248
2204.79	-0.0354118
2206.22	0.640684
2207.66	0.637648
2209.09	-0.0445442
2210.53	0.679799
2211.96	0.194575
2213.4	0.766916
2214.83	0.0829802
2216.27	0.853275
2217.7	-0.108095
2219.13	0.483085
2220.56	0.399029
2222	-0.228676
2223.43	0.411763
2224.86	0.654695
2226.29	0.664737
2227.72	0.0150175
2229.16	0.00544834
2230.59	-0.201926
2232.02	0.459388
2233.45	0.612157
2234.88	0.438554
2236.31	0.0053978
2237.74	0.0156908
2239.17	0.191479
2240.6	-0.15232
2242.03	-0.11864
2243.45	0.161222
2244.88	0.474195
2246.31	0.231771
2247.74	-0.0452108
2249.17	0.42519
2250.59	0.745606
2252.02	0.412144
2253.45	0.0131388
2254.87	0.281356
2256.3	0.729548
2257.73	0.368972
2259.15	0.434116
2260.58	0.0487232
2262	0.023283
2263.43	0.340891
2264.85	0.252988
2266.28	-0.144412
2267.7	0.530498
2269.13	0.374802
2270.55	0.25053
2271.97	0.174398
2273.4	0.0654411
2274.82	0.26606
2276.24	0.695143
2277.66	-0.48883
2279.09	-0.0757008
2280.51	0.207131
2281.93	-0.06462
2283.35	0.560697
2284.77	0.0930252
2286.19	0.1967
2287.61	-0.139955
2289.04	-0.035264
2290.46	-0.126074
2291.88	-0.118524
2293.29	-0.159875
2294.71	0.633158
2296.13	-0.324667
2297.55	0.436057
2298.97	0.0998688
2300.39	0.238939
2301.81	0.312908
2303.23	-0.219708
2304.64	0.248624
2306.06	-0.612931
2307.48	0.068778
2308.89	0.388777
2310.31	-0.0810394
2311.73	-0.0746422
2313.14	-0.298642
2314.56	0.103175
2315.97	0.1275
2317.39	-0.193144
2318.8	0.0963573
2320.22	0.0395222
2321.63	-0.0352449
2323.05	0.118648
2324.46	0.0715837
2325.88	0.318657
2327.29	0.761246
2328.7	0.543122
2330.12	-0.0862865
2331.53	0.240936
2332.94	0.552874
2334.35	0.3886
2335.76	0.0766716
2337.18	0.109698
2338.59	-0.368168
2340	-0.321194
2341.41	-0.176902
2342.82	-0.361641
2344.23	0.142614
2345.64	0.138495
2347.05	0.26578
2348.46	0.31111
2349.87	-0.233014
2351.28	-0.0580997
2352.69	0.245959
2354.1	0.254556
2355.5	-0.0800533
2356.91	0.025239
2358.32	-0.58538
2359.73	0.072752
2361.14	-0.32535
2362.54	0.347427
2363.95	0.192658
2365.36	0.507328
2366.76	-0.0026474
2368.17	-0.139487
2369.58	0.160756
2370.98	0.0592365
2372.39	0.168973
2373.79	0.263785
2375.2	0.214156
2376.6	0.0675592
2378	-0.176727
2379.41	0.187963
2380.81	0.325162
2382.22	0.524364
2383.62	-0.0468082
2385.02	-0.0570602
2386.42	-0.0028677
2387.83	0.0523281
2389.23	-0.0664625
2390.63	0.278551
2392.03	0.322086
2393.43	-0.0786381
2394.84	0.0946398
2396.24	0.586635
2397.64	0.0301943
2399.04	0.094471
2400.44	0.508847
2401.84	0.685247
2403.24	-0.138865
2404.64	-0.0104609
2406.04	0.418394
2407.44	0.433188
2408.83	0.113887
2410.23	0.111503
2411.63	-0.397576
2413.03	0.773471
2414.43	-0.0335999
2415.83	0.222138
2417.22	0.0996122
2418.62	0.263243
2420.02	0.07899
2421.41	0.448923
2422.81	0.0897655
2424.21	0.300551
2425.6	0.527316
2427	0.548787
2428.39	0.206773
2429.79	0.389131
2431.18	0.921622
2432.58	-0.259661
2433.97	0.0184679
2435.36	0.517787
2436.76	0.252724
2438.15	0.0333395
2439.54	0.082406
2440.94	0.638443
2442.33	-0.187666
2443.72	0.0972443
2445.11	-0.157587
2446.51	-0.000183105
2447.9	0.156912
2449.29	0.266321
2450.68	0.185926
2452.07	0.406998
2453.46	0.312477
2454.85	-0.445345
2456.24	0.158297
2457.63	-0.107727
2459.02	0.00569153
2460.41	-0.0714045
2461.8	-0.196918
2463.19	-0.0546494
2464.58	-0.0238132
2465.97	0.211915
2467.36	0.273672
2468.75	0.209074
2470.13	0.349298
2471.52	0.220829
2472.91	-0.0343981
2474.29	-0.148579
2475.68	-0.0746431
2477.07	0.438786
2478.45	0.118975
2479.84	-0.24719
2481.22	-0.330337
2482.61	0.0565805
2484	0.395319
2485.38	0.0285282
2486.77	0.176592
2488.15	-0.332459
2489.54	0.389979
2490.92	-0.290392
2492.3	-0.284447
2493.69	0.0333366
2495.07	0.228051
2496.45	-0.257952
2497.84	0.187162
2499.22	0.0128736
2500.6	0.116818
2501.98	0.513247
2503.36	-0.250332
2504.74	0.143316
2506.13	-0.142615
2507.51	0.0796671
2508.89	-0.11348
2510.27	0.431469
2511.65	0.393136
2513.03	0.386548
2514.41	0.258562
2515.79	0.0553551
2517.17	0.0675488
2518.55	0.0651236
2519.93	0.00179482
2521.3	0.243653
2522.68	0.0417528
2524.06	0.266127
2525.44	-0.0898895
2526.82	0.0416136
2528.19	0.0668983
2529.57	-0.210591
2530.95	0.0157299
2532.32	0.198419
2533.7	-0.0882015
2535.08	-0.03965
2536.45	0.0544262
2537.83	-0.0954065
2539.2	0.406682
2540.58	0.0420113
2541.95	-0.00415993
2543.33	0.283832
2544.7	0.451401
2546.08	-0.0316973
2547.45	0.16934
2548.82	0.113596
2550.2	0.240008
2551.57	-0.0894337
2552.94	0.414641
2554.32	0.856622
2555.69	-0.098547
2557.06	-0.098402
2558.43	-0.00744629
2559.8	0.599201
2561.17	0.236271
2562.55	0.116742
2563.92	0.058588
2565.29	0.273746
2566.66	-0.223031
2568.03	-0.128689
2569.4	0.420352
2570.77	0.287384
2572.14	0.70013
2573.51	0.324781
2574.88	-0.277901
2576.24	0.210953
2577.61	0.351053
2578.98	0.0966396
2580.35	0.387638
2581.72	0.208051
2583.09	-0.108444
2584.45	0.166046
2585.82	-0.0598097
2587.19	-0.209697
2588.55	0.307516
2589.92	0.00644588
2591.28	0.553857
2592.65	0.418722
2594.02	0.31288
2595.38	0.538922
2596.75	0.052022
2598.11	-0.208474
2599.48	0.301912
2600.84	-0.0796614
2602.2	0.264701
2603.57	0.322771
2604.93	0.0344534
2606.3	0.184036
2607.66	0.0616779
2609.02	-0.0164223
2610.38	0.23541
2611.75	-0.252272
2613.11	0.251846
2614.47	-0.402632
2615.83	0.309401
2617.19	0.0608749
2618.56	-0.23133
2619.92	0.0914402
2621.28	0.280046
2622.64	0.289743
2624	0.120543
2625.36	0.488696
2626.72	0.15515
2628.08	0.149474
2629.44	-0.139497
2630.8	-0.19023
2632.15	0.398209
2633.51	-0.00958252
2634.87	0.0730267
2636.23	-0.0225058
2637.59	-0.0586329
2638.94	-0.30194
2640.3	0.106292
2641.66	-0.047555
2643.02	0.257129
2644.37	0.0891867
2645.73	0.334444
2647.08	0.298736
2648.44	0.468398
2649.8	0.239365
2651.15	-0.0930243
2652.51	0.338528
2653.86	0.167963
2655.22	-0.0159912
2656.57	0.28505
2657.92	0.309046
2659.28	0.378052
2660.63	0.228193
2661.99	0.297505
2663.34	0.176102
2664.69	-0.194329
2666.04	0.120331
2667.4	-0.717411
2668.75	0.178898
2670.1	0.0119619
2671.45	0.194878
2672.81	0.102273
2674.16	0.37361
2675.51	0.38414
2676.86	0.38088
2678.21	0.450991
2679.56	0.27564
2680.91	0.304664
2682.26	0.117737
2683.61	0.00477791
2684.96	0.502167
2686.31	0.289493
2687.66	0.265162
2689	0.253827
2690.35	0.574233
2691.7	-0.0657558
2693.05	0.36635
2694.4	0.274777
2695.74	-0.121287
2697.09	0.251537
2698.44	0.307124
2699.79	-0.0261135
2701.13	-0.168933
2702.48	-0.266519
2703.82	0.419605
2705.17	0.411119
2706.52	0.460711
2707.86	0.539014
2709.21	0.123289
2710.55	0.374771
2711.9	0.36459
2713.24	-0.0817223
2714.58	-0.106861
2715.93	0.231393
2717.27	0.322417
2718.61	0.0494585
2719.96	0.183335
2721.3	0.520433
2722.64	-0.00175858
2723.99	0.159489
2725.33	-0.0291491
2726.67	0.582269
2728.01	0.188975
2729.35	-0.0299282
2730.7	0.303947
2732.04	0.579497
2733.38	0.549603
2734.72	0.0981159
2736.06	0.548715
2737.4	0.577661
2738.74	0.14119
2740.08	0.489726
2741.42	0.561308
2742.76	0.239516
2744.09	-0.170204
2745.43	0.204053
2746.77	0.417734
2748.11	0.0213423
2749.45	-0.0264425
2750.79	0.25962
2752.12	0.328317
2753.46	0.252333
2754.8	-0.243543
2756.13	0.245945
2757.47	0.0692844
2758.81	0.182557
2760.14	0.0212755
2761.48	-0.399824
2762.81	0.308382
2764.15	-0.169566
2765.49	-0.1845
2766.82	0.0748806
2768.15	0.0437422
2769.49	0.198969
2770.82	-0.110243
2772.16	0.0557871
2773.49	-0.0394707
2774.82	0.196317
2776.16	0.28758
2777.49	0.53746
2778.82	0.140542
2780.16	0.377156
2781.49	-0.132895
2782.82	-0.31208
2784.15	0.125583
2785.48	0.118339
2786.81	0.211594
2788.15	-0.496241
2789.48	0.0280561
2790.81	-0.0190525
2792.14	-0.0651522
2793.47	0.246719
2794.8	0.2155
2796.13	0.16958
2797.46	0.408658
2798.79	0.132815
2800.12	0.113548
2801.44	-0.0201683
2802.77	0.0883837
2804.1	0.0112324
2805.43	0.0190639
2806.76	0.168451
2808.08	-0.23787
2809.41	0.293873
2810.74	-0.240242
2812.07	0.490162
2813.39	0.370156
2814.72	0.0961943
2816.05	0.37704
2817.37	0.418315
2818.7	-0.305019
2820.02	0.105551
2821.35	0.203734
2822.67	-0.13825
2824	0.284177
2825.32	0.266866
2826.65	0.221299
2827.97	0.587
2829.29	0.273808
2830.62	0.0178957
2831.94	0.300183
2833.26	-0.238604
2834.59	0.156443
2835.91	-0.100192
2837.23	-0.27249
2838.55	0.290339
2839.88	0.965755
2841.2	0.425073
2842.52	0.606057
2843.84	0.64646
2845.16	1.23892
2846.48	0.7581
2847.8	0.956094
2849.12	1.28135
2850.44	1.8324
2851.76	1.44997
2853.08	1.8301
2854.4	1.12157
2855.72	2.03781
2857.04	1.73888
2858.36	1.35537
2859.68	1.52272
2861	2.04281
2862.32	1.74351
2863.63	2.13547
2864.95	1.87782
2866.27	2.17044
2867.58	2.81581
2868.9	2.86927
2870.22	2.47215
2871.53	2.89291
2872.85	3.11588
2874.17	3.47871
2875.48	2.9948
2876.8	3.27013
2878.11	3.30492
2879.43	3.40961
2880.74	3.73951
2882.06	3.3115
2883.37	3.30656
2884.69	2.93784
2886	3.67904
2887.31	3.32532
2888.63	3.42022
2889.94	3.54211
2891.25	3.29826
2892.57	3.03983
2893.88	3.55191
2895.19	3.81197
2896.5	3.61099
2897.82	3.50946
2899.13	3.85703
2900.44	4.17757
2901.75	3.91117
2903.06	3.89687
2904.37	4.02264
2905.68	3.6872
2906.99	3.96792
2908.3	4.17978
2909.61	4.21091
2910.92	4.18681
2912.23	4.54064
2913.54	4.76766
2914.85	4.92293
2916.16	4.94999
2917.46	5.22695
2918.77	5.37655
2920.08	4.93845
2921.39	5.39632
2922.7	5.63193
2924	5.64568
2925.31	5.40932
2926.62	5.35549
2927.92	5.55337
2929.23	5.89061
2930.53	6.15725
2931.84	5.79421
2933.15	6.00401
2934.45	6.01808
2935.76	5.45933
2937.06	6.48003
2938.37	6.50874
2939.67	5.8671
2940.98	5.64538
2942.28	5.07541
2943.58	5.13578
2944.89	5.22588
2946.19	4.59031
2947.49	4.61261
2948.8	4.5227
2950.1	4.43135
2951.4	4.46383
2952.7	4.24195
2954.01	4.2984
2955.31	4.67634
2956.61	3.99158
2957.91	3.77128
2959.21	3.75025
2960.51	3.67658
2961.81	3.77357
2963.11	3.39471
2964.41	3.09889
2965.71	4.03726
2967.01	3.41453
2968.31	3.4364
2969.61	3.56988
2970.91	3.35167
2972.21	2.89459
2973.51	3.05691
2974.81	2.38884
2976.1	2.93059
2977.4	2.68243
2978.7	2.20694
2980	2.4193
2981.29	2.5033
2982.59	2.19276
2983.89	2.23438
2985.18	2.12276
2986.48	1.98499
2987.78	1.46968
2989.07	1.82686
2990.37	1.73475
2991.66	1.58587
2992.96	1.26711
2994.25	1.62138
2995.55	0.63974
2996.84	1.38491
2998.14	0.82411
2999.43	0.881329
3000.72	0.728868
3002.02	0.885638
3003.31	1.56133
3004.6	0.920024
3005.9	0.57291
3007.19	0.911264
3008.48	0.157001
3009.77	0.0317879
3011.07	0.520686
3012.36	0.310305
3013.65	0.197943
3014.94	-0.164611
3016.23	0.393641
3017.52	0.534509
3018.81	0.230655
3020.1	-0.22569
3021.39	0.416019
3022.68	0.139219
3023.97	-0.0966663
3025.26	0.290878
3026.55	-0.0427532
3027.84	0.247553
3029.13	-0.263083
3030.42	0.154593
3031.71	0.394178
3033	0.234616
3034.28	-0.0347624
3035.57	-0.152777
3036.86	-0.478977
3038.15	0.295333
3039.43	-0.379046
3040.72	-0.146552
3042.01	0.317616
3043.29	-0.16522
3044.58	0.558895
3045.86	0.052928
3047.15	0.466003
3048.44	0.239895
3049.72	0.467138
3051.01	-0.0541325
3052.29	0.258141
3053.58	0.120236
3054.86	0.00892162
3056.14	0.196506
3057.43	0.423573
3058.71	0.131774
3060	0.534453
3061.28	0.501756
3062.56	0.388809
3063.84	0.604094
3065.13	0.576644
3066.41	0.184019
3067.69	0.227781
3068.97	0.544113
3070.25	0.46586
3071.54	0.196199
3072.82	0.482702
3074.1	0.251013
3075.38	0.0456009
3076.66	-0.0784321
3077.94	-0.405344
3079.22	-0.160748
3080.5	0.058465
3081.78	0.415319
3083.06	0.407581
3084.34	-0.101229
3085.62	0.163534
3086.9	-0.0199852
3088.17	0.135056
3089.45	0.425046
3090.73	-0.113254
3092.01	0.488177
3093.29	-0.00899792
3094.56	0.0640669
3095.84	0.246029
3097.12	0.509489
3098.4	0.556047
3099.67	0.317956
3100.95	0.323804
3102.22	0.411119
3103.5	0.160389
3104.77	0.0458908
3106.05	0.27079
3107.33	0.442773
3108.6	0.345503
3109.88	0.533922
3111.15	0.331131
3112.43	0.549188
3113.7	0.740965
3114.97	0.268747
3116.25	0.338165
3117.52	0.650837
3118.79	0.704589
3120.07	0.906256
3121.34	0.510243
3122.61	0.615318
3123.88	0.869212
3125.16	0.622272
3126.43	0.538637
3127.7	0.361238
3128.97	1.0233
3130.24	0.549794
3131.51	0.955462
3132.78	0.685198
3134.05	0.725517
3135.33	0.873312
3136.59	0.844965
3137.86	1.08583
3139.14	0.935365
3140.41	1.02736
3141.67	0.742892
3142.94	0.768511
3144.21	1.21104
3145.48	1.14403
3146.75	1.3195
3148.02	1.18762
3149.28	1.40492
