200.388	0.525348
202.204	0.538305
204.019	0.552469
205.832	0.105644
207.646	0.802264
209.459	0.428623
211.274	-0.091423
213.087	0.23741
214.899	0.0796022
216.711	0.0668898
218.524	-0.0910053
220.335	0.0424185
222.146	0.128314
223.956	-0.171701
225.766	-0.0841017
227.576	-0.0447197
229.388	0.0909309
231.197	-0.160228
233.005	0.215798
234.813	0.447201
236.621	-0.115682
238.429	-0.0976944
240.236	0.284479
242.045	0.355867
243.852	0.814816
245.658	0.308893
247.464	0.887497
249.269	0.690849
251.074	0.321859
252.879	0.81901
254.683	0.686604
256.487	0.770858
258.291	0.590846
260.094	0.894646
261.897	0.381495
263.702	1.02663
265.504	0.685307
267.306	0.561243
269.108	0.0752974
270.909	0.335785
272.71	0.595175
274.511	0.563787
276.311	0.578908
278.111	0.616177
279.91	0.410421
281.709	0.154616
283.508	-0.0786924
285.306	0.383705
287.105	0.148316
288.9	-0.422291
290.698	0.158813
292.495	0.429148
294.291	-0.0885496
296.088	0.639182
297.884	-0.114227
299.679	0.0413876
301.475	1.22385
303.27	-0.508245
305.064	0.170275
306.858	0.0123262
308.652	0.879353
310.444	0.245033
312.237	0.255632
314.03	0.19658
315.822	0.472915
317.615	0.251184
319.406	0.197818
321.198	0.121889
322.987	-0.0724802
324.778	0.44931
326.568	1.09132
328.358	0.778289
330.148	0.0578136
331.935	0.0528908
333.724	-0.288702
335.513	-0.273639
337.301	-0.236939
339.089	0.0368557
340.875	0.476248
342.662	0.149467
344.449	0.133531
346.236	0.333109
348.02	0.366187
349.806	0.686332
351.592	0.529088
353.375	-0.105875
355.16	0.785169
356.944	0.410383
358.728	0.797125
360.51	-0.00861168
362.294	0.280486
364.077	0.378121
365.858	0.736172
367.64	0.285731
369.422	0.665172
371.202	0.379664
372.983	0.117697
374.764	0.281324
376.543	0.77514
378.324	0.773267
380.102	0.30128
381.881	1.10249
383.661	0.375089
385.438	0.308284
387.216	0.571885
388.993	0.507698
390.771	0.186323
392.548	0.640944
394.324	0.368236
396.101	0.49523
397.875	0.857244
399.651	1.19569
401.425	0.335797
403.201	0.367805
404.974	0.328571
406.749	0.359022
408.524	1.02273
410.296	0.582581
412.07	0.940594
413.841	0.360373
415.614	0.649221
417.385	1.29095
419.156	0.642886
420.928	0.81648
422.698	0.121361
424.469	0.153161
426.238	0.700498
428.009	0.448762
429.777	-0.108608
431.548	0.272931
433.315	0.420062
435.083	0.473711
436.852	0.0579967
438.618	0.0405865
440.387	-0.0955944
442.153	0.28229
443.919	0.845073
445.686	0.608542
447.451	0.651904
449.218	0.320496
450.982	0.340236
452.746	0.407002
454.512	-0.132529
456.275	0.09795
458.038	-0.0213995
459.803	0.394734
461.565	0.18311
463.327	0.112829
465.091	0.57955
466.852	0.561368
468.613	0.0348616
470.374	0.230901
472.136	0.800239
473.896	0.57789
475.655	0.260286
477.415	0.639038
479.176	0.806118
480.934	-0.122709
482.692	0.672221
484.45	0.909409
486.21	0.799432
487.967	0.551977
489.724	0.656397
491.481	0.248636
493.237	-0.182433
494.995	0.929438
496.75	-0.0165825
498.506	0.769148
500.26	0.406749
502.015	0.324691
503.769	0.429479
505.525	0.0161476
507.279	0.800194
509.032	0.124749
510.785	0.623701
512.537	1.09754
514.289	0.46378
516.041	0.887333
517.793	0.933038
519.546	0.930561
521.297	0.574789
523.047	0.946856
524.797	0.661091
526.547	0.610208
528.297	0.817338
530.046	0.0633373
531.795	0.715064
533.543	1.1311
535.291	0.188628
537.039	1.18592
538.787	0.405382
540.534	0.558047
542.281	0.732772
544.027	0.464607
545.773	0.592082
547.519	1.02118
549.264	-0.0341158
551.01	0.418415
552.754	0.129955
554.499	0.396898
556.243	0.132669
557.987	-0.0153103
559.73	0.22919
561.474	0.0825262
563.216	0.764803
564.959	0.274463
566.701	0.81918
568.441	0.101466
570.182	0.487082
571.923	0.277433
573.664	0.826628
575.405	0.460181
577.145	-0.340528
578.885	0.810854
580.624	0.563181
582.361	0.568186
584.1	0.0668898
585.839	0.0700941
587.577	-0.0660191
589.315	0.348727
591.052	0.279368
592.787	-0.227715
594.524	0.346382
596.26	-0.34487
597.997	0.367285
599.732	-0.163268
601.466	0.202576
603.201	0.107018
604.936	-0.081955
606.67	-0.226159
608.403	0.157134
610.136	0.493889
611.87	-0.430851
613.603	-0.11578
615.334	-0.304474
617.067	0.331975
618.799	0.142974
620.529	0.456641
622.26	0.105206
623.991	0.256233
625.72	-0.0270271
627.451	-0.0805817
629.181	0.187397
630.909	0.343621
632.638	0.570508
634.368	-0.000142097
636.095	0.75274
637.823	0.157121
639.551	0.426087
641.277	0.486394
643.005	0.976948
644.73	-0.629538
646.457	0.178432
648.184	-0.0359478
649.908	0.412039
651.634	0.273129
653.357	0.0246353
655.083	0.552744
656.806	0.127969
658.53	0.501175
660.253	0.578158
661.977	0.379615
663.7	0.635393
665.422	0.545893
667.145	0.911592
668.865	0.956325
670.588	0.24682
672.308	0.339859
674.027	0.572962
675.749	0.671244
677.468	0.449908
679.188	-0.00131607
680.907	1.06285
682.627	0.194352
684.345	0.81873
686.064	0.290103
687.781	0.772916
689.498	0.0799179
691.216	0.676033
692.932	1.1563
694.65	0.94471
696.366	0.0643063
698.081	-0.0802021
699.797	0.694553
701.512	0.846358
703.228	0.514269
704.942	0.710122
706.655	0.423162
708.371	0.13619
710.083	0.788742
711.796	1.00482
713.51	0.762691
715.222	0.497925
716.934	0.644554
718.645	0.836634
720.358	0.230822
722.068	1.0609
723.779	0.82023
725.49	0.852636
727.2	1.36168
728.909	1.25664
730.618	1.28732
732.329	0.502146
734.037	1.50576
735.745	1.15122
737.453	0.300977
739.16	0.829185
740.869	1.01935
742.576	0.714939
744.282	0.952652
745.988	1.14662
747.694	0.869515
749.401	0.931337
751.107	0.859574
752.811	1.21654
754.516	1.46259
756.22	1.28279
757.924	1.14956
759.627	1.6035
761.332	0.932051
763.035	1.36576
764.738	1.00959
766.44	1.84926
768.142	1.69324
769.843	1.76081
771.544	1.96178
773.245	1.7767
774.946	2.08851
776.646	1.63208
778.346	1.9458
780.046	2.30655
781.745	0.994674
783.444	1.74158
785.143	1.53702
786.841	2.0996
788.539	1.21013
790.237	1.49412
791.934	2.22679
793.631	1.64663
795.328	1.42813
797.024	1.36871
798.72	0.95075
800.416	1.59309
802.112	1.80884
803.807	1.37302
805.502	1.99398
807.196	1.8046
808.89	1.41203
810.584	1.82658
812.278	1.72373
813.971	1.79964
815.664	2.14378
817.354	1.95044
819.047	2.07036
820.739	1.63199
822.43	1.41784
824.122	1.45009
825.813	1.57288
827.503	1.60868
829.192	2.31546
830.882	2.04563
832.571	2.00163
834.261	1.95998
835.95	1.89714
837.637	1.18686
839.325	1.63572
841.013	1.65887
842.701	1.65822
844.389	1.23239
846.074	1.11993
847.761	0.94208
849.447	1.1021
851.131	1.42165
852.817	1.40764
854.503	1.91072
856.188	1.74087
857.871	1.00742
859.556	1.37355
861.24	1.24292
862.922	1.04281
864.606	1.40458
866.289	1.20199
867.97	1.13389
869.653	1.06526
871.336	1.04137
873.016	0.859324
874.698	0.722249
876.379	0.675401
878.058	0.560838
879.739	1.14589
881.418	1.2792
883.098	1.54721
884.778	1.27226
886.456	1.62785
888.135	1.30465
889.812	1.40849
891.49	0.811935
893.167	0.71026
894.845	1.10255
896.523	1.56042
898.198	0.758697
899.875	2.0663
901.55	0.972601
903.226	1.22358
904.901	1.04907
906.576	1.05376
908.25	0.635483
909.925	1.68884
911.598	0.738716
913.271	1.41366
914.945	0.910851
916.617	1.36295
918.291	1.26004
919.962	1.35671
921.635	0.900688
923.306	0.137119
924.978	0.834161
926.648	0.891993
928.318	1.41505
929.989	1.10062
931.659	1.53722
933.328	1.9078
934.998	1.68292
936.666	0.995375
938.336	1.41152
940.004	1.10112
941.671	1.27724
943.34	1.01294
945.007	1.58709
946.673	1.18898
948.339	0.744735
950.007	1.09309
951.672	1.10897
953.337	0.771943
955.004	0.94377
956.669	1.16252
958.333	0.634768
959.997	1.2351
961.662	1.02069
963.326	1.13748
964.989	1.07574
966.651	0.612886
968.315	0.589469
969.977	0.829318
971.639	1.31141
973.301	0.88701
974.962	0.375719
976.624	1.34799
978.285	0.707392
979.945	0.963362
981.605	1.21911
983.264	0.842606
984.924	0.751807
986.583	1.14576
988.243	1.47113
989.901	1.55153
991.56	1.32166
993.217	0.804699
994.875	0.310481
996.532	1.33922
998.188	0.933537
999.845	1.05695
1001.5	2.14875
1003.16	1.63207
1004.81	1.15969
1006.47	0.973523
1008.12	0.326565
1009.78	0.668324
1011.43	0.593398
1013.09	1.00119
1014.74	0.576571
1016.39	0.349857
1018.05	0.605261
1019.7	0.292591
1021.35	-0.149976
1023	0.698415
1024.65	0.848121
1026.31	0.517681
1027.96	0.820993
1029.61	0.730345
1031.26	0.769504
1032.91	0.719622
1034.56	0.777114
1036.21	1.31269
1037.86	1.34544
1039.51	1.18207
1041.16	0.867373
1042.8	1.05443
1044.45	0.460971
1046.1	1.02115
1047.75	1.27909
1049.39	1.1479
1051.04	0.648838
1052.69	1.41051
1054.33	1.043
1055.98	0.218895
1057.62	0.7637
1059.27	1.00378
1060.91	0.830085
1062.56	0.372846
1064.2	0.893114
1065.85	0.890381
1067.49	0.995125
1069.13	0.207969
1070.77	0.875735
1072.42	0.41398
1074.06	0.690807
1075.7	0.447906
1077.34	0.11974
1078.98	0.465157
1080.62	-0.251184
1082.27	0.528723
1083.91	0.87401
1085.55	0.458776
1087.18	0.280048
1088.82	1.18204
1090.46	0.566221
1092.1	0.620283
1093.74	0.803217
1095.38	0.942809
1097.02	-0.102639
1098.65	0.147371
1100.29	0.334219
1101.93	0.157019
1103.56	0.756217
1105.2	0.689796
1106.84	-0.0211983
1108.47	-0.259199
1110.11	0.51236
1111.74	0.765998
1113.38	0.588015
1115.01	-0.10635
1116.64	0.229299
1118.28	0.371612
1119.91	0.32158
1121.54	0.486753
1123.18	0.888301
1124.81	0.841298
1126.44	0.538589
1128.07	0.68593
1129.7	0.0214777
1131.33	0.448111
1132.97	0.746721
1134.6	0.489387
1136.23	-0.153251
1137.86	0.399897
1139.49	1.10096
1141.11	-0.0144491
1142.74	0.279042
1144.37	0.273728
1146	-0.0719957
1147.63	0.64906
1149.26	0.497074
1150.88	0.814301
1152.51	0.0666409
1154.14	0.234449
1155.76	-0.00264359
1157.39	0.590014
1159.01	0.73599
1160.64	0.585074
1162.27	0.584218
1163.89	-0.0534058
1165.51	0.266299
1167.14	0.0117016
1168.76	0.181267
1170.39	0.221519
1172.01	0.302208
1173.63	-0.171102
1175.25	0.288448
1176.88	-0.0376701
1178.5	-0.151292
1180.12	-0.391084
1181.74	0.0683918
1183.36	0.21088
1184.98	0.691354
1186.6	0.198922
1188.22	0.760479
1189.84	0.644358
1191.46	0.505353
1193.08	0.932722
1194.7	0.308161
1196.32	0.0836821
1197.94	0.467937
1199.55	0.0164576
1201.17	0.48767
1202.79	0.564211
1204.41	0.518229
1206.02	0.0990171
1207.64	0.348948
1209.25	0.828613
1210.87	-0.00662899
1212.48	0.532902
1214.1	0.173574
1215.71	0.249641
1217.33	0.198847
1218.94	0.812023
1220.56	0.157423
1222.17	1.24688
1223.79	1.00955
1225.4	0.981314
1227.01	0.623691
1228.62	0.722976
1230.23	0.265277
1231.85	0.904644
1233.46	0.59434
1235.07	0.636743
1236.68	0.122343
1238.29	0.931936
1239.9	0.336496
1241.51	0.630361
1243.12	1.56538
1244.73	1.40323
1246.34	0.908814
1247.94	1.13751
1249.55	0.206656
1251.16	0.972045
1252.77	1.11689
1254.37	1.67614
1255.98	1.05758
1257.59	0.254057
1259.2	1.14819
1260.8	1.05025
1262.41	0.642159
1264.01	0.751685
1265.62	0.943769
1267.22	0.844993
1268.83	0.765896
1270.43	0.250257
1272.03	0.707999
1273.64	0.438976
1275.24	0.770106
1276.85	1.18297
1278.45	0.455341
1280.05	0.369504
1281.65	1.04919
1283.25	1.00429
1284.85	1.08405
1286.46	0.813265
1288.06	0.812406
1289.66	1.30849
1291.26	0.833858
1292.86	1.35099
1294.46	0.792982
1296.06	0.750187
1297.66	0.95345
1299.25	1.23724
1300.85	0.73556
1302.45	0.56292
1304.05	1.02754
1305.65	1.69606
1307.24	1.06872
1308.84	0.975764
1310.43	0.964976
1312.03	1.17977
1313.63	0.985868
1315.22	1.38598
1316.82	1.29642
1318.41	1.20765
1320.01	1.20046
1321.6	1.5386
1323.2	1.08078
1324.79	1.57739
1326.38	1.52306
1327.98	0.332846
1329.57	1.43423
1331.16	1.68523
1332.76	1.57447
1334.35	1.36549
1335.94	1.46129
1337.53	0.95261
1339.12	0.867137
1340.71	1.42458
1342.3	1.53603
1343.89	1.24296
1345.48	1.00953
1347.07	1.55869
1348.66	1.06687
1350.25	1.57932
1351.84	1.45388
1353.43	1.71079
1355.01	0.729836
1356.6	0.888838
1358.19	0.487975
1359.77	0.425878
1361.36	0.941522
1362.95	1.01684
1364.53	0.792603
1366.12	0.788023
1367.71	1.00333
1369.29	1.06049
1370.88	0.681329
1372.46	1.3783
1374.04	0.982059
1375.63	0.725861
1377.21	0.310583
1378.8	1.04893
1380.38	0.771361
1381.96	1.02958
1383.54	0.888492
1385.13	1.54147
1386.71	0.425097
1388.29	0.918407
1389.87	0.419492
1391.45	0.417954
1393.03	0.655307
1394.61	0.972313
1396.19	0.357034
1397.77	1.3272
1399.35	0.57164
1400.93	0.429686
1402.51	0.524762
1404.09	0.520747
1405.67	1.22911
1407.24	0.92973
1408.82	0.532728
1410.4	1.22293
1411.98	0.787141
1413.55	1.12086
1415.13	1.11787
1416.71	0.995598
1418.28	0.675886
1419.86	0.672017
1421.43	1.51595
1423.01	0.609089
1424.58	0.98371
1426.16	1.20223
1427.73	0.673452
1429.31	1.44346
1430.88	0.913441
1432.45	1.38588
1434.02	1.73896
1435.6	1.28493
1437.17	1.18527
1438.74	1.73511
1440.31	2.56104
1441.88	1.14758
1443.45	1.6413
1445.03	1.97827
1446.6	1.84376
1448.17	1.90596
1449.74	1.92918
1451.3	1.04845
1452.87	1.76098
1454.44	1.84479
1456.01	1.75153
1457.58	1.87401
1459.15	1.73924
1460.72	1.50412
1462.28	1.87685
1463.85	2.01141
1465.42	1.7121
1466.98	1.68768
1468.55	1.05501
1470.12	1.30702
1471.68	0.93231
1473.25	1.26505
1474.81	1.02986
1476.38	1.28539
1477.94	1.05087
1479.51	1.4044
1481.07	1.26773
1482.63	1.17019
1484.2	1.30766
1485.76	1.71895
1487.32	0.679882
1488.88	0.814735
1490.45	1.18225
1492.01	0.940705
1493.57	1.18545
1495.13	1.09592
1496.69	1.27813
1498.25	0.700586
1499.81	1.03855
1501.37	0.212085
1502.93	0.668624
1504.49	1.24152
1506.05	0.787714
1507.61	0.411452
1509.17	0.189399
1510.73	0.757761
1512.28	0.572146
1513.84	0.405787
1515.4	0.739797
1516.96	0.28645
1518.51	0.621238
1520.07	0.975102
1521.63	0.620457
1523.18	0.686752
1524.74	-0.145291
1526.29	0.282138
1527.85	0.269465
1529.4	0.294247
1530.96	0.622685
1532.51	0.457738
1534.06	0.10479
1535.62	0.245568
1537.17	0.1981
1538.72	-0.0750437
1540.28	0.689901
1541.83	0.247795
1543.38	0.27694
1544.93	0.211813
1546.48	0.465887
1548.03	0.662954
1549.59	0.353477
1551.14	0.419312
1552.69	0.26105
1554.24	1.09465
1555.79	0.24754
1557.34	0.112672
1558.88	0.633015
1560.43	0.278323
1561.98	0.22388
1563.53	0.581065
1565.08	0.715062
1566.62	0.867887
1568.17	0.609901
1569.72	0.538114
1571.27	0.895232
1572.81	0.841379
1574.36	0.675353
1575.9	0.565342
1577.45	0.698223
1579	0.850224
1580.54	0.704163
1582.09	0.913728
1583.63	0.227604
1585.17	0.532278
1586.72	0.57598
1588.26	0.713405
1589.8	1.01914
1591.35	0.76309
1592.89	0.824664
1594.43	0.736106
1595.97	0.553841
1597.52	1.36521
1599.06	1.33419
1600.6	1.39773
1602.14	0.823746
1603.68	1.30074
1605.22	1.30782
1606.76	1.53893
1608.3	0.546227
1609.84	0.99821
1611.38	1.14687
1612.92	0.729808
1614.46	0.837282
1615.99	0.962859
1617.53	0.638869
1619.07	0.934701
1620.61	1.17571
1622.14	1.19344
1623.68	0.575583
1625.22	1.287
1626.75	0.668603
1628.29	1.58329
1629.82	0.663043
1631.36	0.994789
1632.9	0.76532
1634.43	1.02176
1635.96	0.79368
1637.5	0.846549
1639.03	1.31023
1640.57	1.02818
1642.1	1.11829
1643.63	1.67262
1645.16	1.90859
1646.7	0.99023
1648.23	1.15055
1649.76	1.16248
1651.29	1.36101
1652.82	1.80183
1654.36	1.35363
1655.89	1.42546
1657.42	1.34898
1658.95	1.23467
1660.48	1.00799
1662.01	1.53847
1663.53	1.34593
1665.06	1.26383
1666.59	1.21913
1668.12	1.63674
1669.65	1.18918
1671.18	1.09379
1672.7	1.07338
1674.23	0.943033
1675.76	0.941416
1677.29	1.41746
1678.81	1.15606
1680.34	0.967285
1681.86	0.685989
1683.39	0.918823
1684.91	0.986244
1686.44	0.833888
1687.96	0.00403118
1689.49	0.604378
1691.01	0.233962
1692.54	1.05354
1694.06	0.482091
1695.58	0.569184
1697.11	0.929995
1698.63	0.395195
1700.15	0.097826
1701.67	0.730423
1703.2	0.103994
1704.72	0.206336
1706.24	0.489955
1707.76	0.336465
1709.28	0.510073
1710.8	-0.36913
1712.32	0.693549
1713.84	0.48639
1715.36	-0.118629
1716.88	-0.216256
1718.4	-0.060833
1719.91	-0.230796
1721.43	0.519872
1722.95	0.620906
1724.47	0.236436
1725.99	0.267996
1727.5	-0.311034
1729.02	-0.150832
1730.54	0.407047
1732.05	-0.0703621
1733.57	-0.350578
1735.09	0.626335
1736.6	-0.292267
1738.12	0.171074
1739.63	0.363133
1741.15	-0.417051
1742.66	-0.0586681
1744.18	0.306758
1745.69	0.1515
1747.2	0.0987139
1748.72	0.206382
1750.23	-0.144526
1751.74	-0.170957
1753.25	0.348593
1754.77	-0.198515
1756.28	-0.263952
1757.79	0.16527
1759.3	0.025876
1760.81	0.412676
1762.32	0.196769
1763.83	-0.405132
1765.34	-0.114147
1766.85	0.188338
1768.36	0.227522
1769.87	-0.0736217
1771.38	-0.0294809
1772.89	0.164319
1774.4	0.0599766
1775.91	0.0490484
1777.41	0.226263
1778.92	0.259761
1780.43	0.0300398
1781.94	-0.32071
1783.44	-0.220596
1784.95	0.312539
1786.45	0.0615835
1787.96	-0.0676956
1789.47	-0.00854397
1790.97	-0.0183344
1792.47	-0.243876
1793.98	0.0172539
1795.48	0.157184
1796.99	0.15743
1798.49	0.172791
1800	-0.0753059
1801.5	0.0212612
1803	-0.26379
1804.51	0.159678
1806.01	0.13444
1807.51	0.0779905
1809.01	-0.141705
1810.51	0.293462
1812.02	-0.120922
1813.52	0.240951
1815.02	0.1241
1816.52	0.100094
1818.02	0.0604591
1819.52	0.0329018
1821.02	0.158115
1822.52	-0.251319
1824.02	-0.279636
1825.51	0.153566
1827.01	-0.0979633
1828.51	0.210549
1830.01	-0.0416527
1831.51	0.224041
1833	-0.0177813
1834.5	0.00718021
1836	0.0896788
1837.49	0.172903
1838.99	0.276684
1840.49	0.20736
1841.98	0.247219
1843.48	-0.0901785
1844.97	0.0995798
1846.47	-0.101918
1847.96	-0.375824
1849.46	0.320258
1850.95	0.0952101
1852.45	0.270144
1853.94	0.165606
1855.43	0.123137
1856.92	0.145675
1858.42	0.055069
1859.91	0.107397
1861.4	0.27069
1862.89	0.175344
1864.39	-0.0309677
1865.88	0.182023
1867.37	0.0225992
1868.86	-0.0245581
1870.35	0.00478363
1871.84	-0.0786295
1873.33	0.00958824
1874.82	-0.251935
1876.31	0.364133
1877.8	0.278867
1879.29	0.0182352
1880.77	0.222213
1882.26	0.445109
1882.52	0.4829
1884.02	-0.304115
1885.51	0.337526
1887.01	-0.189325
1888.5	0.15421
1889.99	-0.0939512
1891.49	0.337432
1892.98	0.422596
1894.47	-0.20302
1895.96	0.0945292
1897.46	-0.0764685
1898.95	0.152442
1900.44	0.241139
1901.93	-0.0198622
1903.42	0.0303535
1904.91	-0.00794697
1906.4	0.144049
1907.89	-0.311924
1909.38	0.0836954
1910.87	0.0983
1912.36	0.270008
1913.85	0.216815
1915.34	-0.18306
1916.83	-0.340406
1918.32	0.437695
1919.8	0.591078
1921.29	0.0341101
1922.78	-0.0891695
1924.27	0.204059
1925.75	0.41192
1927.24	0.499804
1928.73	0.328733
1930.21	0.157591
1931.7	0.0548143
1933.18	0.140945
1934.67	0.328959
1936.15	0.238129
1937.64	-0.0613976
1939.12	-0.0672979
1940.61	0.0998001
1942.09	-0.00848007
1943.57	0.0224876
1945.06	0.0026474
1946.54	0.000475883
1948.02	0.515063
1949.51	0.356606
1950.99	-0.164388
1952.47	0.0197077
1953.95	0.271723
1955.43	0.265555
1956.91	0.259841
1958.39	-0.294311
1959.87	0.336548
1961.36	-0.0956612
1962.84	-0.150208
1964.32	-0.187767
1965.79	-0.00319767
1967.27	0.351586
1968.75	-0.423676
1970.23	0.30562
1971.71	-0.110783
1973.19	0.275555
1974.66	0.0644903
1976.14	0.194803
1977.62	-0.288036
1979.1	-0.242457
1980.57	-0.247998
1982.05	-0.321705
1983.53	0.0460205
1985	0.124306
1986.48	0.151313
1987.95	0.161312
1989.43	-0.0146189
1990.9	-0.121881
1992.38	-0.160347
1993.85	0.106609
1995.33	0.137659
1996.8	-0.118018
1998.27	0.0655375
1999.75	-0.291726
2001.22	0.177521
2002.69	0.308466
2004.16	0.253689
2005.64	0.0139933
2007.11	0.314309
2008.58	0.177678
2010.05	0.159925
2011.52	-0.0087328
2012.99	0.0583525
2014.46	-0.278916
2015.93	-0.0784788
2017.4	0.490868
2018.87	0.235098
2020.34	-0.0378313
2021.81	0.394684
2023.28	-0.0792618
2024.75	0.152766
2026.22	0.184654
2027.69	-0.20118
2029.15	0.0687466
2030.62	0.105331
2032.09	0.075881
2033.56	-0.0202103
2035.02	0.185915
2036.49	0.0557775
2037.95	-0.192623
2039.42	0.432395
2040.89	0.267534
2042.35	0.069397
2043.82	0.326104
2045.28	0.247479
2046.75	0.20329
2048.21	0.277321
2049.67	0.283666
2051.14	0.137151
2052.6	0.0731859
2054.06	-0.110825
2055.53	0.428414
2056.99	-0.180438
2058.45	0.676297
2059.92	0.42047
2061.38	-0.120917
2062.84	0.247881
2064.3	0.0117617
2065.76	-0.139072
2067.22	0.0475874
2068.68	0.605197
2070.14	-0.166519
2071.6	0.0717554
2073.06	0.61302
2074.52	-0.159346
2075.98	0.01087
2077.44	0.231227
2078.9	0.249073
2080.36	0.384289
2081.82	0.165302
2083.27	0.366482
2084.73	0.432124
2086.19	-0.125493
2087.65	0.544113
2089.1	0.38915
2090.56	0.166925
2092.01	0.1631
2093.47	0.377316
2094.93	0.741951
2096.38	0.150285
2097.84	0.0108757
2099.29	-0.0285845
2100.75	0.550414
2102.2	0.29327
2103.66	0.438176
2105.11	-0.166692
2106.56	0.198074
2108.02	-0.00332069
2109.47	0.145923
2110.92	-0.0388823
2112.37	-0.158283
2113.83	-0.14611
2115.28	-0.0524263
2116.73	0.25627
2118.18	0.315615
2119.63	0.14395
2121.09	0.389297
2122.54	0.155613
2123.99	0.155749
2125.44	0.48821
2126.89	0.637957
2128.34	0.388723
2129.79	0.171277
2131.23	0.515749
2132.68	0.114115
2134.13	0.225742
2135.58	0.71838
2137.03	0.369274
2138.48	0.766012
2139.92	0.305425
2141.37	0.854828
2142.82	0.661747
2144.26	0.32035
2145.71	0.160871
2147.16	0.795691
2148.6	0.800902
2150.05	0.656059
2151.49	0.394096
2152.94	0.34644
2154.38	0.861244
2155.83	0.679655
2157.27	0.0840597
2158.72	0.549407
2160.16	0.370122
2161.6	0.524036
2163.05	0.69662
2164.49	0.904236
2165.93	0.0837364
2167.38	0.325274
2168.82	0.649178
2170.26	0.522449
2171.7	0.82592
2173.14	0.345461
2174.58	0.562223
2176.03	1.01111
2177.47	0.811599
2178.91	0.779222
2180.35	0.74792
2181.79	0.833959
2183.23	0.188956
2184.67	0.408936
2186.1	0.379541
2187.54	0.483278
2188.98	0.320815
2190.42	0.824106
2191.86	0.827835
2193.3	0.980602
2194.73	0.998715
2196.17	0.84835
2197.61	0.679258
2199.05	0.192563
2200.48	0.220515
2201.92	0.663317
2203.35	0.691417
2204.79	0.670941
2206.22	0.916788
2207.66	0.102759
2209.09	0.680226
2210.53	0.511505
2211.96	0.788495
2213.4	0.138655
2214.83	0.480636
2216.27	0.459648
2217.7	0.208948
2219.13	0.108204
2220.56	0.255723
2222	0.222004
2223.43	0.401738
2224.86	0.250504
2226.29	0.377357
2227.72	0.420033
2229.16	0.477641
2230.59	0.419437
2232.02	0.0334024
2233.45	0.0249863
2234.88	0.164541
2236.31	0.0110054
2237.74	0.00630283
2239.17	0.117794
2240.6	0.166071
2242.03	0.0531464
2243.45	0.235126
2244.88	0.53169
2246.31	-0.151116
2247.74	0.322474
2249.17	0.190305
2250.59	0.381717
2252.02	0.131451
2253.45	-0.021699
2254.87	-0.223001
2256.3	0.502877
2257.73	0.28931
2259.15	0.516999
2260.58	0.358495
2262	-0.00845432
2263.43	0.0806799
2264.85	0.511514
2266.28	0.113181
2267.7	-0.00985241
2269.13	0.484468
2270.55	0.19684
2271.97	0.397001
2273.4	-0.021821
2274.82	0.145704
2276.24	0.117992
2277.66	0.0578632
2279.09	-0.230462
2280.51	0.100664
2281.93	-0.15537
2283.35	-0.0853262
2284.77	-0.17839
2286.19	0.218412
2287.61	0.517867
2289.04	0.132
2290.46	0.350856
2291.88	-0.0836868
2293.29	0.0539255
2294.71	0.0443811
2296.13	0.182059
2297.55	0.106913
2298.97	-0.0173912
2300.39	0.0550766
2301.81	0.127906
2303.23	0.135487
2304.64	-0.201463
2306.06	0.233048
2307.48	0.0268097
2308.89	0.165003
2310.31	-0.387969
2311.73	0.0616732
2313.14	0.248288
2314.56	0.30378
2315.97	0.294246
2317.39	0.252599
2318.8	0.376241
2320.22	-0.25894
2321.63	0.160173
2323.05	0.115419
2324.46	0.101179
2325.88	0.249517
2327.29	0.676243
2328.7	0.541309
2330.12	0.291438
2331.53	0.0757103
2332.94	-0.20449
2334.35	-0.0229263
2335.76	0.125917
2337.18	-0.0382681
2338.59	0.454226
2340	0.0905619
2341.41	-0.125918
2342.82	0.0840178
2344.23	-0.0507565
2345.64	-0.217843
2347.05	-0.0404625
2348.46	0.464114
2349.87	0.00248432
2351.28	0.0800982
2352.69	0.0748711
2354.1	-0.0618877
2355.5	-0.0524092
2356.91	0.0706625
2358.32	0.160903
2359.73	-0.0413647
2361.14	-0.161956
2362.54	-0.00668907
2363.95	-0.224365
2365.36	0.0275364
2366.76	0.00435925
2368.17	-0.0181351
2369.58	-0.184675
2370.98	0.375807
2372.39	0.195963
2373.79	0.0334959
2375.2	0.177418
2376.6	-0.16186
2378	-0.0999184
2379.41	0.0245905
2380.81	0.131057
2382.22	0.107491
2383.62	0.275201
2385.02	0.0423355
2386.42	-0.0137901
2387.83	-0.0688438
2389.23	-0.0268679
2390.63	-0.0154877
2392.03	0.37921
2393.43	-0.13242
2394.84	-0.133722
2396.24	-0.0388947
2397.64	0.374399
2399.04	0.263759
2400.44	-0.243443
2401.84	0.0440369
2403.24	-0.24025
2404.64	-0.0167198
2406.04	-0.127553
2407.44	0.204994
2408.83	0.171622
2410.23	0.565896
2411.63	0.0569582
2413.03	0.00860596
2414.43	0.230786
2415.83	0.359501
2417.22	0.0622149
2418.62	-0.234157
2420.02	0.198267
2421.41	-0.161292
2422.81	-0.172794
2424.21	0.227358
2425.6	0.120587
2427	0.141129
2428.39	0.305286
2429.79	0.343719
2431.18	0.525745
2432.58	0.374743
2433.97	-0.158123
2435.36	0.562477
2436.76	0.360192
2438.15	0.0926619
2439.54	-0.382698
2440.94	0.379879
2442.33	0.411139
2443.72	0.315107
2445.11	0.409293
2446.51	-0.321205
2447.9	0.137346
2449.29	-0.21238
2450.68	-0.2449
2452.07	0.24546
2453.46	0.00848103
2454.85	0.120565
2456.24	0.280819
2457.63	0.156676
2459.02	0.206365
2460.41	0.144723
2461.8	0.161286
2463.19	0.208594
2464.58	-0.0449533
2465.97	-0.109105
2467.36	0.426538
2468.75	0.0464993
2470.13	-0.00221539
2471.52	0.437272
2472.91	-0.242957
2474.29	0.35201
2475.68	-0.0770588
2477.07	0.169993
2478.45	0.33806
2479.84	0.192198
2481.22	0.0153856
2482.61	0.293125
2484	0.538598
2485.38	-0.187003
2486.77	-0.0530739
2488.15	0.0325823
2489.54	0.241901
2490.92	0.154799
2492.3	0.0840158
2493.69	0.185339
2495.07	0.629168
2496.45	0.236647
2497.84	0.139939
2499.22	-0.188521
2500.6	-0.0219164
2501.98	0.0354233
2503.36	-0.00101185
2504.74	-0.022912
2506.13	-0.52307
2507.51	0.131923
2508.89	-0.121454
2510.27	0.347954
2511.65	-0.103429
2513.03	0.259262
2514.41	-0.250756
2515.79	0.342899
2517.17	-0.13413
2518.55	0.200245
2519.93	0.22884
2521.3	-0.048336
2522.68	0.0556984
2524.06	-0.0700836
2525.44	0.276017
2526.82	-0.383761
2528.19	0.190395
2529.57	-0.162646
2530.95	0.13989
2532.32	-0.0422192
2533.7	0.278544
2535.08	0.554472
2536.45	0.177075
2537.83	-0.125038
2539.2	0.149072
2540.58	0.0729465
2541.95	0.10272
2543.33	0.0720711
2544.7	0.0119991
2546.08	0.135257
2547.45	0.214316
2548.82	0.324661
2550.2	0.146807
2551.57	-0.0619602
2552.94	-0.104774
2554.32	-0.118316
2555.69	0.109953
2557.06	-0.0568399
2558.43	0.519314
2559.8	0.140413
2561.17	0.247253
2562.55	0.445679
2563.92	-0.294822
2565.29	0.268388
2566.66	0.513644
2568.03	-0.0745173
2569.4	0.140543
2570.77	0.0676384
2572.14	-0.126489
2573.51	0.119039
2574.88	-0.0900908
2576.24	0.14045
2577.61	0.325457
2578.98	-0.202419
2580.35	0.406547
2581.72	-0.046339
2583.09	-0.0750418
2584.45	0.411437
2585.82	0.609749
2587.19	0.141257
2588.55	0.00646782
2589.92	-0.0827255
2591.28	-0.232651
2592.65	0.0563736
2594.02	-0.155449
2595.38	0.0255079
2596.75	-0.0218153
2598.11	0.156988
2599.48	0.168868
2600.84	0.513264
2602.2	0.0574226
2603.57	0.0857801
2604.93	0.0996237
2606.3	-0.00701141
2607.66	0.0368786
2609.02	-0.191444
2610.38	0.136529
2611.75	-0.0942345
2613.11	0.0651255
2614.47	0.403605
2615.83	0.320941
2617.19	0.358614
2618.56	-0.0374336
2619.92	0.0319109
2621.28	0.0720148
2622.64	0.127558
2624	0.0787535
2625.36	0.134412
2626.72	0.189722
2628.08	0.587317
2629.44	0.254375
2630.8	0.204407
2632.15	0.392253
2633.51	-0.356061
2634.87	0.247422
2636.23	0.375334
2637.59	0.325207
2638.94	0.156757
2640.3	0.269844
2641.66	-0.104819
2643.02	-0.271826
2644.37	-0.172696
2645.73	-0.132796
2647.08	-0.167079
2648.44	0.357689
2649.8	0.174291
2651.15	-0.112406
2652.51	0.144527
2653.86	0.107747
2655.22	-0.0307751
2656.57	-0.0360966
2657.92	0.354983
2659.28	0.190696
2660.63	0.304828
2661.99	0.14102
2663.34	0.195841
2664.69	0.059968
2666.04	0.142261
2667.4	-0.0529842
2668.75	0.188828
2670.1	0.343242
2671.45	-0.156277
2672.81	0.289995
2674.16	0.0974426
2675.51	0.239547
2676.86	0.251555
2678.21	0.0032053
2679.56	-0.0411253
2680.91	-0.0698509
2682.26	-0.227818
2683.61	0.238942
2684.96	0.315309
2686.31	-0.0140457
2687.66	0.120687
2689	0.0509949
2690.35	0.197275
2691.7	0.0948296
2693.05	0.324512
2694.4	0.13241
2695.74	0.143206
2697.09	0.154642
2698.44	-0.122182
2699.79	0.109626
2701.13	-0.00426292
2702.48	0.187556
2703.82	0.0618343
2705.17	-0.193921
2706.52	0.4059
2707.86	-0.00978661
2709.21	0.415731
2710.55	0.30384
2711.9	0.104416
2713.24	-0.00809765
2714.58	0.329857
2715.93	0.537078
2717.27	0.0316076
2718.61	0.22389
2719.96	0.25581
2721.3	0.141723
2722.64	0.478287
2723.99	-0.102622
2725.33	0.553215
2726.67	-0.0285702
2728.01	0.0151958
2729.35	0.23333
2730.7	-0.0289116
2732.04	0.450857
2733.38	0.494195
2734.72	0.101349
2736.06	0.319653
2737.4	0.0872154
2738.74	0.392874
2740.08	0.334674
2741.42	0.319594
2742.76	-0.0741405
2744.09	0.301834
2745.43	0.095787
2746.77	0.223439
2748.11	0.452382
2749.45	0.21689
2750.79	0.184847
2752.12	0.138602
2753.46	0.353508
2754.8	0.336647
2756.13	-0.158014
2757.47	0.259992
2758.81	0.258251
2760.14	0.488496
2761.48	0.198242
2762.81	0.241372
2764.15	0.429527
2765.49	0.299349
2766.82	0.226566
2768.15	0.34085
2769.49	-0.0379267
2770.82	-0.172223
2772.16	0.0965919
2773.49	0.205177
2774.82	0.197654
2776.16	-0.112388
2777.49	-0.0329437
2778.82	-0.125616
2780.16	0.012311
2781.49	0.423232
2782.82	0.0300522
2784.15	0.0675764
2785.48	-0.0956202
2786.81	-0.100863
2788.15	0.180716
2789.48	-0.0951691
2790.81	-0.0552282
2792.14	-0.171773
2793.47	-0.144834
2794.8	0.0250578
2796.13	0.251672
2797.46	-0.00807953
2798.79	0.374272
2800.12	-0.343087
2801.44	-0.161366
2802.77	0.0770082
2804.1	0.257863
2805.43	0.0534954
2806.76	0.147635
2808.08	-0.157274
2809.41	0.148946
2810.74	0.270106
2812.07	0.363362
2813.39	0.401013
2814.72	0.156671
2816.05	0.140818
2817.37	0.381294
2818.7	0.0696287
2820.02	-0.156978
2821.35	0.0836744
2822.67	0.139354
2824	0.265189
2825.32	0.22062
2826.65	0.289411
2827.97	0.50031
2829.29	0.103028
2830.62	0.385796
2831.94	0.725397
2833.26	0.640263
2834.59	0.229253
2835.91	0.482955
2837.23	0.608659
2838.55	0.295314
2839.88	0.816283
2841.2	1.05433
2842.52	1.20792
2843.84	0.754464
2845.16	1.10742
2846.48	1.30558
2847.8	0.797494
2849.12	1.43424
2850.44	1.0813
2851.76	1.67482
2853.08	1.7024
2854.4	1.72955
2855.72	1.57281
2857.04	2.12243
2858.36	1.79624
2859.68	2.04914
2861	1.94877
2862.32	2.48337
2863.63	2.41041
2864.95	2.70406
2866.27	2.63076
2867.58	2.82575
2868.9	3.21856
2870.22	2.70946
2871.53	3.27199
2872.85	3.4394
2874.17	2.7605
2875.48	3.46115
2876.8	3.51236
2878.11	3.57664
2879.43	3.1483
2880.74	3.15651
2882.06	3.39043
2883.37	3.26021
2884.69	3.45411
2886	3.53631
2887.31	3.99751
2888.63	3.43368
2889.94	3.80911
2891.25	4.04306
2892.57	3.53329
2893.88	3.59816
2895.19	3.66338
2896.5	3.57552
2897.82	3.74079
2899.13	4.14501
2900.44	3.79463
2901.75	3.94843
2903.06	4.07449
2904.37	4.49443
2905.68	4.66292
2906.99	4.18864
2908.3	4.54058
2909.61	4.93558
2910.92	4.92556
2912.23	5.22349
2913.54	5.04464
2914.85	5.13013
2916.16	5.61959
2917.46	5.51919
2918.77	5.69749
2920.08	5.48387
2921.39	5.42497
2922.7	5.70303
2924	6.10847
2925.31	6.27762
2926.62	6.18193
2927.92	6.03038
2929.23	6.71719
2930.53	6.62045
2931.84	6.56509
2933.15	6.53739
2934.45	6.52364
2935.76	6.51004
2937.06	6.76216
2938.37	5.47736
2939.67	6.03748
2940.98	6.0672
2942.28	5.81845
2943.58	5.4173
2944.89	5.64666
2946.19	5.69573
2947.49	4.92007
2948.8	5.1793
2950.1	4.97539
2951.4	4.82539
2952.7	4.60324
2954.01	4.30956
2955.31	4.25352
2956.61	4.36643
2957.91	4.15965
2959.21	3.96978
2960.51	4.04894
2961.81	3.97627
2963.11	3.97451
2964.41	4.26698
2965.71	3.72942
2967.01	3.62518
2968.31	3.3226
2969.61	3.3284
2970.91	3.4888
2972.21	3.49486
2973.51	3.29022
2974.81	2.90247
2976.1	2.99258
2977.4	3.10952
2978.7	2.98522
2980	2.85906
2981.29	2.49232
2982.59	2.32218
2983.89	2.26502
2985.18	2.40584
2986.48	1.83157
2987.78	1.90535
2989.07	1.93803
2990.37	1.91482
2991.66	1.53973
2992.96	1.47277
2994.25	1.55906
2995.55	0.871596
2996.84	1.43345
2998.14	1.20874
2999.43	1.0406
3000.72	1.01337
3002.02	1.36524
3003.31	0.792532
3004.6	0.766616
3005.9	0.782466
3007.19	0.405732
3008.48	0.853971
3009.77	0.14024
3011.07	0.544506
3012.36	0.110051
3013.65	0.192445
3014.94	0.512127
3016.23	0.483841
3017.52	0.261487
3018.81	0.387806
3020.1	0.277667
3021.39	-0.110758
3022.68	0.236605
3023.97	0.249374
3025.26	0.0117922
3026.55	-0.0870409
3027.84	0.368285
3029.13	0.13273
3030.42	0.00962257
3031.71	0.302498
3033	0.154498
3034.28	0.379579
3035.57	0.300455
3036.86	-0.138409
3038.15	0.413422
3039.43	0.191584
3040.72	0.380939
3042.01	0.14335
3043.29	0.0297232
3044.58	0.204756
3045.86	0.107667
3047.15	0.0130634
3048.44	0.0439148
3049.72	0.281688
3051.01	0.261791
3052.29	0.406531
3053.58	-0.117255
3054.86	0.217901
3056.14	0.0199585
3057.43	0.420877
3058.71	0.289223
3060	0.36169
3061.28	0.107899
3062.56	-0.0221825
3063.84	0.134801
3065.13	0.143796
3066.41	0.548536
3067.69	0.274618
3068.97	0.286643
3070.25	0.0536108
3071.54	0.254933
3072.82	0.169405
3074.1	-0.365932
3075.38	-0.154419
3076.66	0.1788
3077.94	-0.0850906
3079.22	0.0865517
3080.5	0.0561981
3081.78	0.190296
3083.06	-0.0541191
3084.34	-0.0400486
3085.62	-0.0665812
3086.9	-0.0799675
3088.17	0.109566
3089.45	-0.353058
3090.73	0.133899
3092.01	0.29495
3093.29	-0.0864158
3094.56	0.0887179
3095.84	0.00649881
3097.12	-0.197559
3098.4	-0.0898185
3099.67	0.234563
3100.95	0.247145
3102.22	-0.376645
3103.5	-0.0114589
3104.77	-0.038414
3106.05	-0.0104303
3107.33	0.329779
3108.6	0.224522
3109.88	0.269299
3111.15	-0.0233312
3112.43	0.226482
3113.7	0.273711
3114.97	0.280342
3116.25	0.0288701
3117.52	0.0205908
3118.79	0.228253
3120.07	-0.134774
3121.34	-0.227354
3122.61	0.221676
3123.88	-0.0883842
3125.16	0.157191
3126.43	0.227106
3127.7	0.500554
3128.97	0.165809
3130.24	0.223787
3131.51	0.21432
3132.78	0.245286
3134.05	0.532548
3135.33	0.495056
3136.59	0.335619
3137.86	0.47253
3139.14	0.608898
3140.41	0.435346
3141.67	0.437021
3142.94	0.318147
3144.21	0.374556
3145.48	0.699848
3146.75	0.475841
3148.02	0.748565
3149.28	0.553013
