200.388	0.217964
202.204	0.218086
204.019	0.218702
205.832	0.220356
207.646	-0.336686
209.459	0.224408
211.274	0.177047
213.087	-0.0168076
214.899	0.0556688
216.711	0.103478
218.524	-0.236091
220.335	0.321009
222.146	0.442984
223.956	-0.425453
225.766	-0.132421
227.576	0.0640049
229.388	-0.391809
231.197	0.142058
233.005	0.40996
234.813	0.822759
236.621	-0.20978
238.429	0.206171
240.236	0.431623
242.045	0.611182
243.852	-0.196719
245.658	0.346363
247.464	-0.632238
249.269	-0.212758
251.074	0.469877
252.879	0.811973
254.683	0.718057
256.487	0.720399
258.291	0.530819
260.094	0.945332
261.897	0.783525
263.702	-0.00287628
265.504	0.60917
267.306	0.209764
269.108	0.0752659
270.909	-0.0839214
272.71	0.841027
274.511	0.221819
276.311	0.58979
278.111	0.353606
279.91	0.453156
281.709	0.0694828
283.508	-0.387273
285.306	0.164792
287.105	0.28315
288.9	0.257501
290.698	0.280582
292.495	-0.197739
294.291	-0.386847
296.088	-0.143999
297.884	-0.043663
299.679	0.057209
301.475	0.0863695
303.27	0.473064
305.064	0.309556
306.858	0.93257
308.652	0.17217
310.444	0.223249
312.237	-0.0579634
314.03	0.329288
315.822	0.575411
317.615	-0.248289
319.406	-0.284755
321.198	0.108912
322.987	0.0507154
324.778	0.374795
326.568	-0.47042
328.358	0.0689507
330.148	-0.0130157
331.935	-0.0242319
333.724	0.274227
335.513	0.0924377
337.301	0.506912
339.089	0.106025
340.875	0.421489
342.662	-0.100625
344.449	0.237924
346.236	0.146814
348.02	0.00874138
349.806	-0.176425
351.592	0.235335
353.375	0.407914
355.16	-0.0883665
356.944	-0.394574
358.728	0.180197
360.51	1.01526
362.294	0.0397663
364.077	0.325404
365.858	0.728785
367.64	0.347512
369.422	0.393076
371.202	0.319394
372.983	0.032361
374.764	0.242003
376.543	0.404086
378.324	0.189078
380.102	0.423024
381.881	0.328192
383.661	0.728747
385.438	0.636481
387.216	0.0756197
388.993	0.57338
390.771	0.555238
392.548	0.913739
394.324	1.01459
396.101	0.200025
397.875	-0.121218
399.651	0.215102
401.425	0.245794
403.201	-0.170259
404.974	0.446525
406.749	0.264153
408.524	0.222224
410.296	0.461748
412.07	-0.284395
413.841	0.354572
415.614	-0.249425
417.385	0.109403
419.156	0.304681
420.928	0.664652
422.698	0.0621519
424.469	0.39803
426.238	0.193201
428.009	-0.200107
429.777	0.227812
431.548	0.561799
433.315	0.00425529
435.083	0.409363
436.852	-0.0303621
438.618	-0.0247002
440.387	-0.090621
442.153	0.803493
443.919	-0.0166006
445.686	0.263758
447.451	0.355336
449.218	0.0955744
450.982	0.350406
452.746	-0.492022
454.512	0.439934
456.275	-0.261045
458.038	0.180169
459.803	1.15602
461.565	-0.0315151
463.327	-0.0540752
465.091	0.111431
466.852	0.581601
468.613	-0.665417
470.374	0.576514
472.136	0.680361
473.896	0.224948
475.655	0.349851
477.415	0.00695038
479.176	0.687312
480.934	-0.100771
482.692	0.858182
484.45	0.723576
486.21	0.474362
487.967	0.390193
489.724	0.0746641
491.481	0.0864601
493.237	0.496126
494.995	0.228624
496.75	0.171246
498.506	0.183833
500.26	0.407124
502.015	0.137377
503.769	0.430148
505.525	0.111249
507.279	-0.162199
509.032	0.174438
510.785	0.533393
512.537	0.65569
514.289	0.51777
516.041	-0.13891
517.793	0.356073
519.546	0.285617
521.297	0.73147
523.047	0.0257225
524.797	0.447186
526.547	0.492861
528.297	0.491655
530.046	0.560699
531.795	0.160898
533.543	0.837634
535.291	0.45981
537.039	0.174807
538.787	0.19261
540.534	0.372573
542.281	0.295173
544.027	0.333944
545.773	0.349373
547.519	0.132861
549.264	0.543034
551.01	0.280974
552.754	0.597981
554.499	0.151985
556.243	0.492018
557.987	0.0476913
559.73	0.318897
561.474	0.175801
563.216	0.1715
564.959	0.167756
566.701	0.118674
568.441	-0.273987
570.182	0.390267
571.923	-2.86102e-006
573.664	0.230698
575.405	0.394185
577.145	-0.0373201
578.885	-0.0776672
580.624	0.204198
582.361	0.164768
584.1	0.239817
585.839	0.291041
587.577	0.272169
589.315	0.0221281
591.052	-0.0907345
592.787	0.141047
594.524	-0.36355
596.26	0.351272
597.997	0.329855
599.732	0.400167
601.466	-0.220361
603.201	0.308177
604.936	0.168397
606.67	0.142466
608.403	-0.366426
610.136	0.24973
611.87	-0.350135
613.603	0.426928
615.334	-0.560791
617.067	-0.0813084
618.799	0.443212
620.529	0.00491238
622.26	0.160813
623.991	0.0185442
625.72	0.104884
627.451	-0.264616
629.181	-0.289812
630.909	0.348687
632.638	-0.106332
634.368	0.740436
636.095	0.719825
637.823	0.834638
639.551	0.809989
641.277	0.326411
643.005	0.547767
644.73	1.0863
646.457	0.827886
648.184	0.412469
649.908	0.545633
651.634	0.591321
653.357	0.0723219
655.083	0.465543
656.806	0.451675
658.53	0.074008
660.253	0.265643
661.977	0.730361
663.7	-0.0860472
665.422	0.763535
667.145	0.834381
668.865	0.469927
670.588	0.769256
672.308	0.155116
674.027	-0.0682859
675.749	0.855802
677.468	0.727424
679.188	0.484138
680.907	0.814223
682.627	0.545085
684.345	0.549891
686.064	0.875265
687.781	0.485327
689.498	0.41676
691.216	0.94643
692.932	0.508061
694.65	1.45101
696.366	0.872888
698.081	1.07665
699.797	1.09499
701.512	0.537247
703.228	0.645819
704.942	1.05217
706.655	1.45743
708.371	1.17368
710.083	0.890006
711.796	1.11013
713.51	0.826341
715.222	1.06848
716.934	0.693648
718.645	0.958286
720.358	0.584415
722.068	0.370741
723.779	1.1131
725.49	0.785584
727.2	0.458385
728.909	0.653336
730.618	0.326076
732.329	1.6298
734.037	0.668139
735.745	0.883786
737.453	0.579944
739.16	0.90892
740.869	0.9902
742.576	0.374106
744.282	0.885592
745.988	1.48781
747.694	0.808557
749.401	1.27792
751.107	0.578781
752.811	1.16283
754.516	1.45578
756.22	0.962569
757.924	1.88878
759.627	1.03757
761.332	1.31351
763.035	1.36471
764.738	1.3706
766.44	1.01398
768.142	1.87603
769.843	1.35736
771.544	1.53762
773.245	1.1286
774.946	1.46532
776.646	1.53109
778.346	1.59799
780.046	1.75676
781.745	2.07503
783.444	1.62422
785.143	1.78335
786.841	1.82719
788.539	2.16231
790.237	1.72493
791.934	1.55677
793.631	1.61317
795.328	1.87215
797.024	1.88351
798.72	1.9639
800.416	1.5732
802.112	1.72415
803.807	1.17844
805.502	1.9369
807.196	2.04231
808.89	1.94438
810.584	2.06984
812.278	1.49906
813.971	2.02652
815.664	2.17225
817.354	1.55715
819.047	1.4795
820.739	1.71473
822.43	1.86063
824.122	1.49418
825.813	1.88705
827.503	1.9696
829.192	1.29742
830.882	1.18473
832.571	1.72051
834.261	1.58998
835.95	1.12566
837.637	1.62029
839.325	1.91347
841.013	1.91503
842.701	0.775876
844.389	1.3564
846.074	1.87063
847.761	1.67122
849.447	1.27242
851.131	1.79325
852.817	1.75647
854.503	1.51856
856.188	1.48215
857.871	1.21984
859.556	1.90068
861.24	1.27485
862.922	1.50286
864.606	1.8651
866.289	1.25731
867.97	1.3476
869.653	1.866
871.336	1.34662
873.016	1.30064
874.698	1.593
876.379	1.32124
878.058	1.04939
879.739	1.25139
881.418	1.2725
883.098	1.4284
884.778	0.612633
886.456	1.19521
888.135	0.918718
889.812	1.47545
891.49	1.08363
893.167	0.736187
894.845	1.49082
896.523	1.38885
898.198	1.33107
899.875	1.27252
901.55	0.586017
903.226	0.974778
904.901	1.09418
906.576	1.30271
908.25	1.10996
909.925	0.807018
911.598	0.772449
913.271	1.11635
914.945	1.90397
916.617	0.782367
918.291	0.992537
919.962	2.02164
921.635	1.14681
923.306	1.09229
924.978	0.774144
926.648	1.60604
928.318	0.695094
929.989	0.513916
931.659	0.752585
933.328	0.836977
934.998	1.3185
936.666	1.20476
938.336	0.981496
940.004	1.39887
941.671	1.02326
943.34	1.06737
945.007	1.57489
946.673	0.867484
948.339	0.357079
950.007	0.220369
951.672	1.09754
953.337	1.2463
955.004	0.624509
956.669	1.26202
958.333	1.285
959.997	1.11188
961.662	0.8295
963.326	0.745592
964.989	0.549579
966.651	0.461771
968.315	1.16809
969.977	0.567162
971.639	1.18213
973.301	1.11164
974.962	0.99816
976.624	0.753545
978.285	1.01893
979.945	1.05272
981.605	1.0862
983.264	0.819648
984.924	0.971967
986.583	0.834663
988.243	1.2268
989.901	0.489642
991.56	0.99029
993.217	0.407878
994.875	0.201456
996.532	0.591017
998.188	1.06829
999.845	0.729434
1001.5	0.720969
1003.16	0.932186
1004.81	0.505033
1006.47	0.495889
1008.12	0.596621
1009.78	0.719394
1011.43	0.710777
1013.09	0.308044
1014.74	0.869872
1016.39	0.0522051
1018.05	0.1329
1019.7	0.432857
1021.35	0.645977
1023	0.7069
1024.65	0.331532
1026.31	1.18047
1027.96	0.761966
1029.61	1.34794
1031.26	0.403724
1032.91	1.24891
1034.56	1.08807
1036.21	0.424673
1037.86	0.676502
1039.51	0.818955
1041.16	0.135166
1042.8	0.561976
1044.45	0.598683
1046.1	0.48498
1047.75	1.02446
1049.39	0.892101
1051.04	0.500207
1052.69	0.434755
1054.33	1.17358
1055.98	0.673874
1057.62	-0.152395
1059.27	0.412142
1060.91	0.628346
1062.56	0.365499
1064.2	0.167091
1065.85	0.1635
1067.49	0.59365
1069.13	0.283977
1070.77	0.647162
1072.42	0.29354
1074.06	0.63492
1075.7	0.456332
1077.34	0.192202
1078.98	1.23028
1080.62	0.252305
1082.27	0.336893
1083.91	-0.229722
1085.55	0.871674
1087.18	0.0637608
1088.82	-0.0521307
1090.46	0.306672
1092.1	-0.546734
1093.74	0.285501
1095.38	0.98681
1097.02	0.0060997
1098.65	0.212808
1100.29	0.463746
1101.93	0.28569
1103.56	-0.084341
1105.2	0.729888
1106.84	0.512087
1108.47	0.573653
1110.11	0.268742
1111.74	0.542965
1113.38	0.171041
1115.01	0.33515
1116.64	0.198123
1118.28	0.211405
1119.91	0.289475
1121.54	0.282638
1123.18	0.447921
1124.81	0.16463
1126.44	0.716415
1128.07	0.541544
1129.7	-0.0175161
1131.33	0.236444
1132.97	0.276834
1134.6	0.0178518
1136.23	-0.00650311
1137.86	0.0751114
1139.49	-0.613301
1141.11	0.213871
1142.74	0.442276
1144.37	-0.26793
1146	-0.0602274
1147.63	0.446445
1149.26	0.633968
1150.88	0.140238
1152.51	0.349484
1154.14	0.238977
1155.76	-0.212357
1157.39	0.0172834
1159.01	-0.0294514
1160.64	-0.160536
1162.27	0.0282612
1163.89	0.0477858
1165.51	0.344158
1167.14	0.385185
1168.76	0.297728
1170.39	-0.280005
1172.01	0.0545864
1173.63	0.599586
1175.25	0.612291
1176.88	0.221666
1178.5	0.446079
1180.12	0.05688
1181.74	0.113177
1183.36	0.296841
1184.98	0.860684
1186.6	0.599462
1188.22	-0.35912
1189.84	0.347557
1191.46	0.0404358
1193.08	-0.141103
1194.7	0.160019
1196.32	0.523158
1197.94	0.090415
1199.55	0.0784731
1201.17	0.528232
1202.79	0.457633
1204.41	0.243343
1206.02	0.36493
1207.64	0.466803
1209.25	-0.161161
1210.87	0.44092
1212.48	0.269782
1214.1	0.659472
1215.71	0.567683
1217.33	0.557587
1218.94	0.42183
1220.56	0.410762
1222.17	0.524711
1223.79	0.59809
1225.4	0.237882
1227.01	0.458872
1228.62	-0.0430536
1230.23	0.531644
1231.85	-0.0505161
1233.46	0.54664
1235.07	0.648774
1236.68	0.751993
1238.29	0.525405
1239.9	0.361364
1241.51	0.15605
1243.12	0.157251
1244.73	0.468179
1246.34	0.63343
1247.94	0.0114594
1249.55	0.382044
1251.16	0.876363
1252.77	0.543333
1254.37	0.1696
1255.98	0.437998
1257.59	0.383392
1259.2	0.40556
1260.8	0.57732
1262.41	0.631753
1264.01	1.02827
1265.62	0.367877
1267.22	0.618479
1268.83	0.350056
1270.43	0.391667
1272.03	0.307955
1273.64	0.928238
1275.24	0.38665
1276.85	0.113881
1278.45	0.130591
1280.05	0.560863
1281.65	0.245385
1283.25	0.695704
1284.85	0.00872517
1286.46	0.521998
1288.06	0.250504
1289.66	0.558534
1291.26	0.557001
1292.86	0.906656
1294.46	-0.0458927
1296.06	0.653112
1297.66	0.978607
1299.25	0.084981
1300.85	-0.00473118
1302.45	0.543219
1304.05	0.327863
1305.65	0.996335
1307.24	0.184222
1308.84	0.501919
1310.43	0.675466
1312.03	0.807999
1313.63	0.797753
1315.22	0.992762
1316.82	0.963711
1318.41	0.833231
1320.01	0.295118
1321.6	1.04041
1323.2	0.460189
1324.79	0.509795
1326.38	0.212888
1327.98	0.463633
1329.57	0.592643
1331.16	0.70249
1332.76	1.01613
1334.35	0.786181
1335.94	0.880907
1337.53	0.451697
1339.12	0.667451
1340.71	-0.0249386
1342.3	0.348586
1343.89	1.06131
1345.48	0.807617
1347.07	0.474328
1348.66	1.06467
1350.25	0.495382
1351.84	-0.0308027
1353.43	0.00512123
1355.01	0.18207
1356.6	0.459183
1358.19	0.536023
1359.77	0.791691
1361.36	0.327603
1362.95	0.162458
1364.53	0.216472
1366.12	-0.227511
1367.71	0.663892
1369.29	0.261669
1370.88	0.756494
1372.46	0.297284
1374.04	0.794245
1375.63	0.277041
1377.21	0.675268
1378.8	0.316913
1380.38	0.156683
1381.96	0.293761
1383.54	1.1256
1385.13	0.50477
1386.71	0.420496
1388.29	0.157692
1389.87	0.848469
1391.45	0.408516
1393.03	0.187765
1394.61	0.463316
1396.19	0.738599
1397.77	0.715747
1399.35	0.355123
1400.93	0.271224
1402.51	-0.129852
1404.09	0.814751
1405.67	0.0978336
1407.24	0.607772
1408.82	0.525361
1410.4	0.344725
1411.98	0.618359
1413.55	0.180655
1415.13	0.8869
1416.71	0.309795
1418.28	0.994359
1419.86	0.319203
1421.43	0.590779
1423.01	0.528948
1424.58	0.842619
1426.16	0.586685
1427.73	0.764298
1429.31	0.902335
1430.88	0.390035
1432.45	0.585243
1434.02	0.582736
1435.6	0.776466
1437.17	0.970238
1438.74	0.339013
1440.31	0.436097
1441.88	1.02535
1443.45	1.04533
1445.03	1.04603
1446.6	0.870016
1448.17	0.812055
1449.74	1.24583
1451.3	1.05097
1452.87	1.07288
1454.44	0.819777
1456.01	0.507524
1457.58	1.27696
1459.15	1.06136
1460.72	1.31644
1462.28	0.822015
1463.85	1.21132
1465.42	0.871937
1466.98	0.807569
1468.55	0.704305
1470.12	0.739323
1471.68	0.873451
1473.25	0.792778
1474.81	1.06586
1476.38	1.00597
1477.94	0.926607
1479.51	0.455163
1481.07	0.748134
1482.63	0.786189
1484.2	0.393051
1485.76	0.15646
1487.32	0.957319
1488.88	0.620915
1490.45	0.478768
1492.01	0.471642
1493.57	0.93127
1495.13	0.490666
1496.69	0.732059
1498.25	0.271995
1499.81	1.01858
1501.37	0.657877
1502.93	0.551196
1504.49	0.464973
1506.05	0.263023
1507.61	0.0802517
1509.17	0.688997
1510.73	-0.05548
1512.28	0.338108
1513.84	0.345354
1515.4	0.179728
1516.96	0.341413
1518.51	0.407561
1520.07	0.838096
1521.63	-0.243753
1523.18	0.0144682
1524.74	-0.358636
1526.29	-0.0833931
1527.85	0.304525
1529.4	0.120391
1530.96	0.544323
1532.51	0.322847
1534.06	0.292147
1535.62	0.262472
1537.17	0.422712
1538.72	0.168014
1540.28	0.329048
1541.83	0.41452
1543.38	0.179779
1544.93	0.246156
1546.48	0.424892
1548.03	0.0214291
1549.59	0.443502
1551.14	0.32185
1552.69	0.762099
1554.24	0.249222
1555.79	0.54153
1557.34	0.331122
1558.88	-0.063859
1560.43	-0.0278425
1561.98	0.214815
1563.53	0.458533
1565.08	0.180424
1566.62	0.163611
1568.17	0.575873
1569.72	0.782557
1571.27	0.391568
1572.81	0.541632
1574.36	-0.111132
1575.9	0.468177
1577.45	0.2823
1579	0.507514
1580.54	-0.0695572
1582.09	0.455749
1583.63	0.571108
1585.17	0.48168
1586.72	0.878755
1588.26	0.846132
1589.8	0.233243
1591.35	0.0500259
1592.89	0.0160646
1594.43	0.54373
1595.97	0.191154
1597.52	0.532179
1599.06	1.04282
1600.6	0.297778
1602.14	0.697305
1603.68	0.571474
1605.22	1.1964
1606.76	0.786901
1608.3	0.920461
1609.84	0.976659
1611.38	0.448139
1612.92	0.425255
1614.46	0.476247
1615.99	0.714297
1617.53	0.690028
1619.07	0.0860758
1620.61	0.551484
1622.14	0.943018
1623.68	0.73616
1625.22	0.903806
1626.75	0.789974
1628.29	0.955626
1629.82	0.521392
1631.36	0.665987
1632.9	0.529831
1634.43	0.804773
1635.96	0.520438
1637.5	0.311823
1639.03	0.700554
1640.57	0.977259
1642.1	0.601154
1643.63	0.578174
1645.16	0.777406
1646.7	0.492008
1648.23	1.26586
1649.76	-0.115008
1651.29	0.993437
1652.82	0.784943
1654.36	0.540632
1655.89	0.315651
1657.42	0.572542
1658.95	0.958212
1660.48	0.231591
1662.01	0.429518
1663.53	0.311837
1665.06	0.526265
1666.59	1.29431
1668.12	0.771281
1669.65	0.674247
1671.18	0.818255
1672.7	0.907971
1674.23	0.537748
1675.76	0.259588
1677.29	0.23856
1678.81	0.0510092
1680.34	0.929098
1681.86	0.243562
1683.39	0.348171
1684.91	0.8564
1686.44	0.227291
1687.96	0.387477
1689.49	0.511225
1691.01	0.781572
1692.54	0.466111
1694.06	-0.178331
1695.58	0.000425339
1697.11	0.672117
1698.63	-0.172987
1700.15	-0.451701
1701.67	0.509671
1703.2	0.448567
1704.72	0.00459862
1706.24	0.0339899
1707.76	0.3903
1709.28	0.527929
1710.8	-0.00608158
1712.32	0.0412235
1713.84	0.414738
1715.36	0.154095
1716.88	-0.178536
1718.4	-0.655314
1719.91	0.114643
1721.43	0.0534801
1722.95	0.317462
1724.47	-0.120647
1725.99	-0.0528278
1727.5	-0.163826
1729.02	0.14007
1730.54	-0.237082
1732.05	0.0668678
1733.57	0.0982513
1735.09	0.00354195
1736.6	0.200295
1738.12	-0.0515537
1739.63	-0.0933895
1741.15	0.13465
1742.66	-0.0131865
1744.18	-0.145656
1745.69	-0.0125933
1747.2	-0.171289
1748.72	-0.0213585
1750.23	0.355744
1751.74	-0.244822
1753.25	0.0215044
1754.77	0.328425
1756.28	0.171886
1757.79	-0.0364294
1759.3	0.124321
1760.81	0.315865
1762.32	0.261565
1763.83	0.236522
1765.34	-0.423506
1766.85	-0.161601
1768.36	0.0529823
1769.87	-0.165876
1771.38	0.226909
1772.89	0.099122
1774.4	0.5541
1775.91	0.0870285
1777.41	0.549186
1778.92	-0.216681
1780.43	-0.026638
1781.94	0.270452
1783.44	0.0188828
1784.95	-0.297181
1786.45	0.107861
1787.96	0.29877
1789.47	0.0838614
1790.97	0.286217
1792.47	-0.109453
1793.98	-0.201398
1795.48	0.00946045
1796.99	0.0316124
1798.49	-0.0865965
1800	0.176127
1801.5	0.0310211
1803	-0.00924301
1804.51	0.0933056
1806.01	0.391868
1807.51	0.276323
1809.01	-0.239779
1810.51	-0.0429602
1812.02	0.142937
1813.52	-0.195561
1815.02	0.179209
1816.52	0.240817
1818.02	-0.286168
1819.52	0.0791798
1821.02	0.107793
1822.52	0.362516
1824.02	0.158422
1825.51	0.0656738
1827.01	0.235654
1828.51	0.185224
1830.01	0.323362
1831.51	0.155511
1833	0.121825
1834.5	-0.0421982
1836	0.307343
1837.49	0.107097
1838.99	0.0867348
1840.49	0.669649
1841.98	0.135195
1843.48	-0.0339689
1844.97	-0.231887
1846.47	0.0392151
1847.96	-0.0092659
1849.46	0.0793686
1850.95	-0.0348902
1852.45	0.272673
1853.94	0.285025
1855.43	0.0822935
1856.92	-0.128551
1858.42	-0.0288839
1859.91	-0.0288591
1861.4	-0.0311546
1862.89	0.325656
1864.39	-0.00258064
1865.88	-0.210062
1867.37	0.436842
1868.86	-0.040596
1870.35	0.184131
1871.84	-0.184007
1873.33	-0.0952549
1874.82	0.521662
1876.31	0.0098629
1877.8	0.120339
1879.29	0.1813
1880.77	0.414101
1882.26	-0.0842438
1882.52	-0.201757
1884.02	0.0232935
1885.51	0.40434
1887.01	-0.15626
1888.5	-0.00299263
1889.99	0.0458908
1891.49	0.391229
1892.98	0.268347
1894.47	-0.217976
1895.96	0.183753
1897.46	0.308098
1898.95	-0.193829
1900.44	0.660213
1901.93	0.642987
1903.42	0.189361
1904.91	-0.0044651
1906.4	0.166074
1907.89	-0.0456228
1909.38	0.142628
1910.87	-0.154283
1912.36	-0.294128
1913.85	-0.381405
1915.34	0.016964
1916.83	0.362886
1918.32	0.205532
1919.8	0.273125
1921.29	0.028821
1922.78	0.3045
1924.27	0.459648
1925.75	0.131076
1927.24	0.478627
1928.73	-0.333233
1930.21	0.361228
1931.7	0.570202
1933.18	0.275693
1934.67	0.0143652
1936.15	-0.00597572
1937.64	0.508677
1939.12	-0.0317421
1940.61	0.533906
1942.09	0.34033
1943.57	-0.0073595
1945.06	0.473689
1946.54	-0.303668
1948.02	0.177314
1949.51	0.502258
1950.99	0.137295
1952.47	0.167697
1953.95	0.163166
1955.43	0.00392056
1956.91	0.514953
1958.39	-0.0209293
1959.87	0.0962515
1961.36	0.265245
1962.84	0.108622
1964.32	0.00337029
1965.79	0.343026
1967.27	0.356529
1968.75	0.198382
1970.23	-0.421578
1971.71	-0.0843782
1973.19	-0.0378637
1974.66	0.690895
1976.14	0.12346
1977.62	0.868452
1979.1	0.284901
1980.57	0.586611
1982.05	0.0888376
1983.53	0.21999
1985	0.248819
1986.48	0.0738592
1987.95	-0.321151
1989.43	0.131416
1990.9	0.245472
1992.38	0.208005
1993.85	0.408144
1995.33	0.0342884
1996.8	0.0327358
1998.27	0.0818233
1999.75	0.113624
2001.22	0.00987148
2002.69	0.226255
2004.16	-0.198298
2005.64	0.422544
2007.11	0.235045
2008.58	-0.237749
2010.05	0.31737
2011.52	0.334124
2012.99	0.418247
2014.46	-0.0701962
2015.93	0.349414
2017.4	0.0952368
2018.87	-0.0922146
2020.34	0.240915
2021.81	0.254501
2023.28	0.117299
2024.75	-0.170095
2026.22	-0.0201845
2027.69	-0.0535927
2029.15	0.0316887
2030.62	0.0678082
2032.09	-0.02946
2033.56	0.427605
2035.02	0.146082
2036.49	0.16641
2037.95	0.522352
2039.42	0.28987
2040.89	0.225339
2042.35	0.396518
2043.82	0.248889
2045.28	0.421668
2046.75	0.258569
2048.21	0.466169
2049.67	0.286064
2051.14	0.155481
2052.6	0.276444
2054.06	0.497024
2055.53	-0.0428209
2056.99	0.495285
2058.45	0.476217
2059.92	-0.0146084
2061.38	-0.218459
2062.84	0.403301
2064.3	0.133708
2065.76	0.235281
2067.22	0.0514946
2068.68	0.33946
2070.14	-0.213883
2071.6	-0.00972939
2073.06	0.362736
2074.52	0.162518
2075.98	0.433503
2077.44	0.266331
2078.9	0.216692
2080.36	0.0824699
2081.82	0.116161
2083.27	0.0819387
2084.73	0.0975838
2086.19	0.44901
2087.65	0.110228
2089.1	0.141127
2090.56	0.2726
2092.01	0.353507
2093.47	0.148995
2094.93	0.162498
2096.38	0.142042
2097.84	0.271775
2099.29	0.166474
2100.75	0.51257
2102.2	0.824901
2103.66	0.586505
2105.11	-0.0342999
2106.56	0.0806866
2108.02	0.346603
2109.47	0.329217
2110.92	0.578091
2112.37	0.359046
2113.83	0.754876
2115.28	0.449833
2116.73	0.393868
2118.18	0.13895
2119.63	0.615888
2121.09	0.397202
2122.54	-0.0683866
2123.99	0.180479
2125.44	0.529333
2126.89	0.198135
2128.34	-0.117231
2129.79	0.411541
2131.23	0.425311
2132.68	0.123875
2134.13	0.0874443
2135.58	0.415463
2137.03	0.01721
2138.48	0.14951
2139.92	0.613917
2141.37	0.0880527
2142.82	0.637737
2144.26	0.179276
2145.71	0.564614
2147.16	0.353961
2148.6	0.424182
2150.05	0.477132
2151.49	0.115029
2152.94	0.464532
2154.38	0.581363
2155.83	0.18421
2157.27	0.23445
2158.72	0.103064
2160.16	0.320637
2161.6	0.639188
2163.05	-0.217558
2164.49	0.618109
2165.93	-0.071753
2167.38	0.715991
2168.82	0.207161
2170.26	0.162028
2171.7	0.431222
2173.14	0.732108
2174.58	0.349783
2176.03	0.0668755
2177.47	0.316299
2178.91	0.150643
2180.35	0.750577
2181.79	0.220689
2183.23	0.339709
2184.67	0.209514
2186.1	0.528504
2187.54	0.681243
2188.98	0.368083
2190.42	0.720619
2191.86	0.290569
2193.3	0.126193
2194.73	0.160524
2196.17	0.592844
2197.61	0.224543
2199.05	0.187753
2200.48	0.34953
2201.92	0.394718
2203.35	0.838562
2204.79	0.155311
2206.22	0.550889
2207.66	0.466151
2209.09	0.1495
2210.53	0.0973177
2211.96	0.0443726
2213.4	0.404103
2214.83	0.614558
2216.27	0.561142
2217.7	0.294313
2219.13	0.572981
2220.56	-0.0380292
2222	0.373258
2223.43	0.487118
2224.86	0.352681
2226.29	0.348569
2227.72	0.293725
2229.16	0.582763
2230.59	0.361932
2232.02	0.35443
2233.45	0.445387
2234.88	0.0299072
2236.31	-0.106081
2237.74	0.281845
2239.17	-0.112293
2240.6	0.539471
2242.03	0.0834928
2243.45	-0.0941348
2244.88	0.103679
2246.31	0.415135
2247.74	0.170676
2249.17	0.0223513
2250.59	0.344766
2252.02	0.209415
2253.45	0.252459
2254.87	0.458134
2256.3	-0.0333486
2257.73	0.289049
2259.15	-0.0352559
2260.58	0.45415
2262	0.394074
2263.43	0.0754809
2264.85	0.504317
2266.28	0.721953
2267.7	0.19076
2269.13	0.13028
2270.55	0.296984
2271.97	0.430768
2273.4	-0.0707097
2274.82	0.584249
2276.24	0.441289
2277.66	0.0702415
2279.09	0.237033
2280.51	-0.101642
2281.93	0.277077
2283.35	-0.127205
2284.77	0.104782
2286.19	-0.152621
2287.61	0.0309825
2289.04	-0.0135913
2290.46	-0.0415277
2291.88	0.257691
2293.29	0.311958
2294.71	0.0553832
2296.13	0.289575
2297.55	-0.131106
2298.97	0.234258
2300.39	0.403429
2301.81	0.327034
2303.23	0.349247
2304.64	0.338794
2306.06	0.180452
2307.48	0.2024
2308.89	0.634848
2310.31	0.0804648
2311.73	0.347822
2313.14	0.00651073
2314.56	0.224943
2315.97	0.493578
2317.39	-0.110032
2318.8	0.29164
2320.22	0.000824451
2321.63	0.451331
2323.05	0.0422454
2324.46	0.307762
2325.88	0.686702
2327.29	0.734003
2328.7	0.780545
2330.12	0.695436
2331.53	0.183168
2332.94	-0.228985
2334.35	0.0179601
2335.76	0.297904
2337.18	-0.0969706
2338.59	0.198081
2340	-0.116093
2341.41	0.111211
2342.82	0.48548
2344.23	0.416426
2345.64	0.0527029
2347.05	-0.195671
2348.46	0.0309892
2349.87	0.600564
2351.28	0.285939
2352.69	0.264935
2354.1	0.259461
2355.5	0.00889587
2356.91	0.0028038
2358.32	0.143076
2359.73	0.0556951
2361.14	-0.226184
2362.54	-0.393991
2363.95	0.18347
2365.36	0.48462
2366.76	0.235814
2368.17	0.27865
2369.58	0.112604
2370.98	0.52826
2372.39	0.461274
2373.79	0.202022
2375.2	0.281359
2376.6	-0.154546
2378	0.0522971
2379.41	-0.0959325
2380.81	-0.0205684
2382.22	-0.0427656
2383.62	0.0784745
2385.02	-0.0567255
2386.42	-0.00752735
2387.83	0.0423117
2389.23	0.212641
2390.63	0.25632
2392.03	0.476086
2393.43	0.0122962
2394.84	0.0904255
2396.24	0.296278
2397.64	-0.323888
2399.04	-0.291788
2400.44	0.249056
2401.84	-0.0994906
2403.24	0.01266
2404.64	-0.161341
2406.04	-0.0502458
2407.44	0.0917282
2408.83	0.0743074
2410.23	0.215129
2411.63	-0.166822
2413.03	0.513293
2414.43	-0.0566578
2415.83	0.625466
2417.22	0.48553
2418.62	0.251387
2420.02	0.318394
2421.41	-0.026526
2422.81	0.150956
2424.21	0.0430422
2425.6	-0.239153
2427	-0.124783
2428.39	0.402553
2429.79	-0.0204988
2431.18	-0.173587
2432.58	-0.0885687
2433.97	0.186685
2435.36	0.254642
2436.76	-0.0599833
2438.15	0.0371771
2439.54	0.3556
2440.94	0.244299
2442.33	0.0532289
2443.72	0.46504
2445.11	0.146739
2446.51	0.304207
2447.9	0.0493917
2449.29	-0.110167
2450.68	0.253106
2452.07	0.284179
2453.46	-0.222075
2454.85	-0.0312991
2456.24	0.223286
2457.63	0.193392
2459.02	-0.0896935
2460.41	0.132869
2461.8	0.46533
2463.19	0.43337
2464.58	0.385111
2465.97	-0.200311
2467.36	-0.122316
2468.75	-0.312665
2470.13	0.0962925
2471.52	0.14192
2472.91	-0.254172
2474.29	0.43583
2475.68	0.227637
2477.07	0.459532
2478.45	-0.28267
2479.84	-0.11341
2481.22	-0.0540295
2482.61	0.459557
2484	-0.202173
2485.38	-0.0658255
2486.77	0.428627
2488.15	0.296816
2489.54	0.351686
2490.92	0.312902
2492.3	-0.0517626
2493.69	-0.274928
2495.07	-0.263855
2496.45	0.197723
2497.84	0.0552831
2499.22	0.0370994
2500.6	-0.136007
2501.98	0.0614223
2503.36	-0.128326
2504.74	0.313965
2506.13	0.462025
2507.51	0.363288
2508.89	0.126523
2510.27	-0.0940027
2511.65	-0.160121
2513.03	0.142417
2514.41	-0.0755649
2515.79	-0.231268
2517.17	0.0574746
2518.55	-0.402786
2519.93	0.57398
2521.3	0.190221
2522.68	-0.224184
2524.06	0.413696
2525.44	0.486094
2526.82	-0.00528479
2528.19	0.189175
2529.57	0.384306
2530.95	0.200657
2532.32	-0.224507
2533.7	-0.162217
2535.08	0.189324
2536.45	-0.0212917
2537.83	0.040997
2539.2	-0.0645933
2540.58	0.315031
2541.95	0.0111079
2543.33	-0.216513
2544.7	0.117941
2546.08	-0.123032
2547.45	0.0314093
2548.82	-0.207843
2550.2	0.205371
2551.57	-0.0949659
2552.94	-0.00151062
2554.32	-0.0455003
2555.69	0.137354
2557.06	-0.256717
2558.43	0.365263
2559.8	-0.0285277
2561.17	0.275501
2562.55	0.00412512
2563.92	-0.312168
2565.29	0.205371
2566.66	0.056356
2568.03	0.134739
2569.4	-0.0445065
2570.77	-0.0267286
2572.14	0.354877
2573.51	-0.294181
2574.88	0.269536
2576.24	0.348223
2577.61	-0.0583258
2578.98	0.156576
2580.35	-0.0230436
2581.72	0.054769
2583.09	0.101944
2584.45	0.512746
2585.82	0.104883
2587.19	0.273163
2588.55	-0.028235
2589.92	-0.162794
2591.28	0.248099
2592.65	-0.0384579
2594.02	0.113722
2595.38	0.280097
2596.75	-0.144864
2598.11	0.367886
2599.48	0.0179448
2600.84	0.242692
2602.2	0.241099
2603.57	0.0589495
2604.93	-0.00185061
2606.3	0.239256
2607.66	-0.153389
2609.02	0.267479
2610.38	0.0241165
2611.75	0.577643
2613.11	0.00147009
2614.47	0.387113
2615.83	0.17152
2617.19	0.316338
2618.56	0.101984
2619.92	0.172989
2621.28	0.259471
2622.64	0.122161
2624	-0.208872
2625.36	0.355836
2626.72	0.0546703
2628.08	-0.0675268
2629.44	0.524915
2630.8	0.19383
2632.15	0.101041
2633.51	0.231176
2634.87	0.153298
2636.23	0.0458665
2637.59	-0.0910306
2638.94	0.0536571
2640.3	0.494152
2641.66	0.0472007
2643.02	-0.103394
2644.37	0.0121002
2645.73	0.053616
2647.08	0.124227
2648.44	0.00266933
2649.8	-0.0457721
2651.15	0.478657
2652.51	0.429004
2653.86	-0.0458035
2655.22	0.360378
2656.57	0.0198932
2657.92	0.251694
2659.28	0.381605
2660.63	0.146215
2661.99	0.451671
2663.34	0.274291
2664.69	0.256992
2666.04	-0.00887299
2667.4	0.308219
2668.75	0.493668
2670.1	-0.00477648
2671.45	0.588435
2672.81	0.222433
2674.16	0.380206
2675.51	0.219003
2676.86	-0.0866394
2678.21	0.522222
2679.56	0.0729823
2680.91	0.190218
2682.26	-0.0249949
2683.61	0.0507579
2684.96	0.112845
2686.31	0.291459
2687.66	0.339428
2689	0.29931
2690.35	0.25774
2691.7	-0.133708
2693.05	-0.0183578
2694.4	0.139591
2695.74	-0.0505986
2697.09	-0.0517707
2698.44	-0.0229177
2699.79	0.369299
2701.13	-0.0189347
2702.48	0.11538
2703.82	-0.0826092
2705.17	0.0821028
2706.52	-0.0430684
2707.86	0.0636048
2709.21	-0.134806
2710.55	0.116511
2711.9	0.22251
2713.24	-0.0493469
2714.58	0.100117
2715.93	-0.317444
2717.27	0.137302
2718.61	0.388413
2719.96	-0.015461
2721.3	-0.0269098
2722.64	0.165011
2723.99	0.123686
2725.33	0.16933
2726.67	0.360213
2728.01	0.536249
2729.35	0.406451
2730.7	-0.116297
2732.04	0.088491
2733.38	0.133295
2734.72	0.294603
2736.06	0.266988
2737.4	-0.138645
2738.74	0.0956516
2740.08	0.213382
2741.42	0.0544357
2742.76	-0.0177598
2744.09	0.0984445
2745.43	0.155951
2746.77	-0.222585
2748.11	0.0957842
2749.45	0.152761
2750.79	0.282374
2752.12	0.571589
2753.46	0.223129
2754.8	-0.0669951
2756.13	-0.139566
2757.47	0.540983
2758.81	0.00541687
2760.14	0.107232
2761.48	0.281776
2762.81	0.181767
2764.15	0.110981
2765.49	-0.133421
2766.82	0.417535
2768.15	0.287725
2769.49	0.200278
2770.82	0.371807
2772.16	0.152048
2773.49	-0.0970984
2774.82	0.100651
2776.16	-0.134091
2777.49	-0.0227337
2778.82	-0.241849
2780.16	0.200806
2781.49	0.0256224
2782.82	0.252584
2784.15	0.0202732
2785.48	-0.154415
2786.81	0.0436726
2788.15	-0.473791
2789.48	0.369117
2790.81	0.0106926
2792.14	-0.203868
2793.47	0.0108991
2794.8	-0.131686
2796.13	0.439944
2797.46	0.253742
2798.79	-0.0327468
2800.12	0.294343
2801.44	-0.0210171
2802.77	0.276867
2804.1	-0.195301
2805.43	0.358155
2806.76	-0.0716667
2808.08	0.152842
2809.41	-0.0781112
2810.74	0.316153
2812.07	0.0149994
2813.39	-0.0295525
2814.72	-0.0870628
2816.05	-0.143376
2817.37	-0.000347137
2818.7	-0.0269332
2820.02	0.0882287
2821.35	0.0612946
2822.67	-0.0795479
2824	-0.0224886
2825.32	0.260895
2826.65	0.345924
2827.97	0.261453
2829.29	0.248261
2830.62	0.0797501
2831.94	0.166227
2833.26	0.0686378
2834.59	0.367113
2835.91	0.226407
2837.23	0.283399
2838.55	0.651213
2839.88	0.665115
2841.2	0.212539
2842.52	0.537939
2843.84	0.354963
2845.16	0.412848
2846.48	1.10718
2847.8	0.105892
2849.12	0.602711
2850.44	0.661167
2851.76	1.19978
2853.08	0.720353
2854.4	0.83421
2855.72	0.637054
2857.04	0.510577
2858.36	0.638416
2859.68	0.483754
2861	0.484334
2862.32	0.625846
2863.63	1.3598
2864.95	1.04901
2866.27	1.35905
2867.58	1.04861
2868.9	1.09114
2870.22	1.26085
2871.53	1.05006
2872.85	0.965958
2874.17	0.951792
2875.48	1.00728
2876.8	1.2731
2878.11	1.32697
2879.43	1.46494
2880.74	1.3781
2882.06	1.50271
2883.37	1.08028
2884.69	1.71189
2886	1.48736
2887.31	1.05245
2888.63	1.27689
2889.94	1.30425
2891.25	1.44313
2892.57	1.09089
2893.88	1.53734
2895.19	1.0875
2896.5	2.02433
2897.82	1.22621
2899.13	1.3246
2900.44	1.3396
2901.75	1.53679
2903.06	1.1606
2904.37	1.09225
2905.68	1.82136
2906.99	1.59974
2908.3	1.77036
2909.61	1.87169
2910.92	2.00145
2912.23	1.8933
2913.54	1.71454
2914.85	1.19875
2916.16	1.95575
2917.46	2.01158
2918.77	2.26252
2920.08	1.77191
2921.39	1.96718
2922.7	1.93955
2924	1.92686
2925.31	2.13861
2926.62	2.15509
2927.92	2.39528
2929.23	2.1459
2930.53	2.18971
2931.84	2.35898
2933.15	2.29041
2934.45	2.05411
2935.76	2.34899
2937.06	2.16879
2938.37	2.28218
2939.67	2.28397
2940.98	2.06252
2942.28	2.02331
2943.58	2.19456
2944.89	1.80762
2946.19	2.0226
2947.49	1.66453
2948.8	1.73989
2950.1	2.13653
2951.4	1.64988
2952.7	1.4699
2954.01	1.415
2955.31	1.75178
2956.61	1.68318
2957.91	1.58799
2959.21	1.55065
2960.51	1.48717
2961.81	1.60728
2963.11	1.85438
2964.41	1.55387
2965.71	1.65934
2967.01	1.32803
2968.31	1.17828
2969.61	1.50601
2970.91	1.17272
2972.21	1.57103
2973.51	1.30838
2974.81	1.21448
2976.1	1.41573
2977.4	1.36263
2978.7	0.984408
2980	1.08364
2981.29	0.95669
2982.59	1.22323
2983.89	1.05393
2985.18	0.37957
2986.48	0.718308
2987.78	0.453785
2989.07	1.07525
2990.37	0.83972
2991.66	0.617825
2992.96	0.91513
2994.25	0.691474
2995.55	0.733927
2996.84	0.424763
2998.14	0.424411
2999.43	0.059514
3000.72	0.0738478
3002.02	0.382916
3003.31	0.383802
3004.6	0.048542
3005.9	0.245412
3007.19	0.0637002
3008.48	0.175313
3009.77	0.383967
3011.07	0.284333
3012.36	0.393897
3013.65	0.168436
3014.94	0.306046
3016.23	0.179294
3017.52	0.108943
3018.81	0.0668688
3020.1	-0.253273
3021.39	0.427298
3022.68	-0.0604072
3023.97	-0.312226
3025.26	-0.0235043
3026.55	-0.0125523
3027.84	0.206255
3029.13	-0.0721951
3030.42	-0.197143
3031.71	0.203915
3033	-0.0157843
3034.28	0.234102
3035.57	0.0281043
3036.86	0.0969934
3038.15	0.412296
3039.43	0.0373368
3040.72	-0.0906549
3042.01	0.124067
3043.29	0.228442
3044.58	0.237368
3045.86	0.288578
3047.15	0.109192
3048.44	0.355133
3049.72	0.179473
3051.01	0.359941
3052.29	-0.0184469
3053.58	-0.233069
3054.86	-0.0252657
3056.14	-0.0502567
3057.43	0.141994
3058.71	-0.170726
3060	0.388071
3061.28	0.102773
3062.56	-0.113496
3063.84	0.0793247
3065.13	-0.148207
3066.41	0.305078
3067.69	0.147349
3068.97	0.207433
3070.25	0.0904636
3071.54	-0.285655
3072.82	0.0172534
3074.1	-0.279149
3075.38	-0.182034
3076.66	-0.00384331
3077.94	0.215148
3079.22	-0.135086
3080.5	0.262082
3081.78	0.443364
3083.06	-0.188318
3084.34	0.184406
3085.62	-0.175593
3086.9	0.0475502
3088.17	0.337965
3089.45	-0.17303
3090.73	0.15701
3092.01	0.174711
3093.29	0.111088
3094.56	-0.0472498
3095.84	0.0251293
3097.12	-0.0109515
3098.4	-0.291078
3099.67	0.0927019
3100.95	0.0697613
3102.22	0.304126
3103.5	0.037601
3104.77	0.42126
3106.05	0.155735
3107.33	0.0127501
3108.6	0.249474
3109.88	0.148687
3111.15	0.035058
3112.43	-0.254171
3113.7	0.174839
3114.97	0.129658
3116.25	0.0297537
3117.52	0.349504
3118.79	0.247855
3120.07	0.253721
3121.34	0.163832
3122.61	0.208958
3123.88	0.18608
3125.16	0.149754
3126.43	0.330292
3127.7	0.186393
3128.97	-0.0246706
3130.24	-0.248914
3131.51	0.0406361
3132.78	0.208194
3134.05	0.118625
3135.33	-0.22785
3136.59	-0.00782204
3137.86	0.319276
3139.14	0.376062
3140.41	-0.0789366
3141.67	0.206428
3142.94	0.0480661
3144.21	-0.00232506
3145.48	-0.387605
3146.75	-0.249068
3148.02	-0.0433006
3149.28	0.470543
