200.388	-0.281747
202.204	-0.264235
204.019	-0.245299
205.832	0.917981
207.646	0.694954
209.459	0.641672
211.274	1.36435
213.087	0.506737
214.899	0.449326
216.711	-0.0692472
218.524	-0.344769
220.335	0.276358
222.146	0.704389
223.956	0.45622
225.766	-0.129258
227.576	-0.158476
229.388	-0.0190248
231.197	0.119626
233.005	-0.152331
234.813	0.106874
236.621	-0.114675
238.429	0.317201
240.236	0.414799
242.045	0.177864
243.852	0.28024
245.658	0.793049
247.464	1.2561
249.269	0.315371
251.074	1.0849
252.879	0.788433
254.683	0.53813
256.487	0.986679
258.291	1.09846
260.094	0.393242
261.897	0.774843
263.702	1.13462
265.504	0.652662
267.306	0.0264502
269.108	0.604917
270.909	0.579864
272.71	0.384583
274.511	0.259863
276.311	1.29019
278.111	0.678908
279.91	0.402727
281.709	0.557502
283.508	-0.132103
285.306	0.114743
287.105	0.16808
288.9	0.772746
290.698	0.227365
292.495	0.163302
294.291	0.460143
296.088	-0.341201
297.884	-0.303981
299.679	0.187844
301.475	-0.515045
303.27	0.0470047
305.064	0.368409
306.858	0.569014
308.652	-0.375156
310.444	0.0642166
312.237	0.123637
314.03	0.470862
315.822	0.106095
317.615	0.0293808
319.406	0.264318
321.198	0.0958157
322.987	0.285866
324.778	-0.0243063
326.568	-0.143668
328.358	0.572781
330.148	0.0701008
331.935	0.474278
333.724	0.20673
335.513	0.271383
337.301	-0.289021
339.089	0.559611
340.875	-0.22053
342.662	0.289735
344.449	-0.251869
346.236	0.2585
348.02	-0.209569
349.806	0.230438
351.592	0.694212
353.375	0.178753
355.16	-0.00374508
356.944	-0.116216
358.728	-0.0157642
360.51	-0.0597897
362.294	1.18011
364.077	0.586161
365.858	0.206073
367.64	-0.0793991
369.422	0.51194
371.202	0.20083
372.983	0.149751
374.764	0.358249
376.543	1.13289
378.324	0.751066
380.102	0.536156
381.881	0.723328
383.661	0.182787
385.438	1.07863
387.216	0.917891
388.993	0.523914
390.771	1.42325
392.548	0.256897
394.324	0.64145
396.101	0.345507
397.875	0.777767
399.651	0.881077
401.425	0.77245
403.201	1.60253
404.974	0.810977
406.749	1.45105
408.524	1.03357
410.296	0.756645
412.07	1.137
413.841	-0.0778065
415.614	1.0549
417.385	0.569667
419.156	1.42287
420.928	0.774629
422.698	0.900552
424.469	0.368294
426.238	0.961676
428.009	0.192369
429.777	0.291036
431.548	1.0703
433.315	0.441721
435.083	0.329977
436.852	0.875412
438.618	0.129169
440.387	0.484138
442.153	0.0153418
443.919	0.833603
445.686	0.547246
447.451	-0.161585
449.218	0.346181
450.982	0.31579
452.746	0.519332
454.512	-0.000230789
456.275	0.250185
458.038	0.989103
459.803	-0.0183706
461.565	0.511291
463.327	0.275337
465.091	0.251802
466.852	0.115835
468.613	0.169307
470.374	0.109095
472.136	0.119543
473.896	-0.0105524
475.655	0.485894
477.415	0.56044
479.176	0.818844
480.934	-0.0189161
482.692	0.890381
484.45	0.822983
486.21	0.734921
487.967	1.06928
489.724	0.847164
491.481	0.532831
493.237	1.03665
494.995	0.653089
496.75	0.853916
498.506	0.937622
500.26	0.41118
502.015	0.516705
503.769	0.668229
505.525	0.841989
507.279	0.355674
509.032	1.06667
510.785	0.0347242
512.537	0.153487
514.289	0.811502
516.041	0.620597
517.793	0.145978
519.546	1.26892
521.297	0.651081
523.047	1.51271
524.797	0.612776
526.547	1.05094
528.297	0.128791
530.046	1.0354
531.795	0.722577
533.543	0.783607
535.291	1.03012
537.039	0.47976
538.787	0.95583
540.534	-0.0632792
542.281	0.176753
544.027	0.3459
545.773	0.398406
547.519	0.0796766
549.264	-0.307526
551.01	0.672691
552.754	-0.708405
554.499	0.986946
556.243	0.232316
557.987	-0.0360088
559.73	0.157618
561.474	0.39769
563.216	0.339133
564.959	-0.0173512
566.701	-0.00497818
568.441	0.192103
570.182	-0.435769
571.923	0.452669
573.664	0.76949
575.405	-0.356526
577.145	0.286112
578.885	-0.0102186
580.624	-0.443563
582.361	0.0649805
584.1	0.136589
585.839	0.0689898
587.577	0.275796
589.315	0.366062
591.052	0.109983
592.787	-0.79101
594.524	-0.127689
596.26	-0.430616
597.997	0.347763
599.732	0.343482
601.466	0.0621195
603.201	0.193214
604.936	0.0924511
606.67	-0.239702
608.403	0.369007
610.136	0.150543
611.87	-0.342328
613.603	0.0604734
615.334	-0.0403605
617.067	-0.690708
618.799	0.399402
620.529	0.205302
622.26	0.330066
623.991	0.087739
625.72	0.0513172
627.451	-0.623013
629.181	0.097805
630.909	-0.342415
632.638	0.3838
634.368	0.130288
636.095	0.789478
637.823	0.191044
639.551	-0.433498
641.277	-0.126035
643.005	0.109482
644.73	0.297375
646.457	0.143991
648.184	0.197799
649.908	0.0965338
651.634	0.409238
653.357	-0.545681
655.083	0.436012
656.806	0.0563345
658.53	-0.0948381
660.253	0.186754
661.977	-0.446545
663.7	0.470341
665.422	-0.489659
667.145	0.6054
668.865	0.213185
670.588	0.00459957
672.308	0.0500851
674.027	0.281948
675.749	-0.46855
677.468	0.0659733
679.188	-0.339767
680.907	0.562882
682.627	0.107394
684.345	0.270102
686.064	0.223101
687.781	-0.355725
689.498	0.837575
691.216	0.0720434
692.932	0.503524
694.65	0.312107
696.366	0.879417
698.081	0.109655
699.797	-0.0628643
701.512	0.177305
703.228	0.278051
704.942	-0.0126905
706.655	0.224186
708.371	-0.181956
710.083	-0.0838079
711.796	0.563178
713.51	0.362287
715.222	0.847102
716.934	0.0751963
718.645	0.422573
720.358	0.336499
722.068	0.478536
723.779	0.506647
725.49	0.284487
727.2	1.15263
728.909	0.589018
730.618	0.207249
732.329	0.709011
734.037	0.576006
735.745	0.759765
737.453	0.898458
739.16	0.203035
740.869	0.749815
742.576	1.09462
744.282	0.225054
745.988	0.505833
747.694	0.563221
749.401	0.397362
751.107	0.795489
752.811	0.745442
754.516	0.269711
756.22	0.538239
757.924	1.28178
759.627	0.496083
761.332	0.995904
763.035	0.910569
764.738	0.486134
766.44	1.00871
768.142	0.715777
769.843	1.27912
771.544	1.0485
773.245	0.861212
774.946	1.1029
776.646	0.870395
778.346	1.63439
780.046	4.20998
781.745	4.23227
783.444	1.87865
785.143	1.83119
786.841	1.41845
788.539	2.02014
790.237	1.35019
791.934	0.790552
793.631	1.40395
795.328	1.40666
797.024	1.14002
798.72	1.93442
800.416	1.96495
802.112	1.32246
803.807	1.51357
805.502	1.07493
807.196	1.51199
808.89	1.54285
810.584	1.30282
812.278	1.19645
813.971	1.62724
815.664	0.780908
817.354	1.32278
819.047	1.68502
820.739	1.91287
822.43	1.06982
824.122	1.56686
825.813	1.79766
827.503	1.87508
829.192	2.15654
830.882	1.23943
832.571	0.838015
834.261	1.95473
835.95	1.60208
837.637	1.94065
839.325	1.89852
841.013	1.85423
842.701	0.0430984
844.389	1.33665
846.074	1.6928
847.761	2.14088
849.447	1.63066
851.131	0.563231
852.817	1.19975
854.503	1.74911
856.188	1.35609
857.871	1.45551
859.556	1.82298
861.24	1.46801
862.922	1.26816
864.606	0.705839
866.289	0.615362
867.97	0.997543
869.653	1.17632
871.336	1.78332
873.016	1.23965
874.698	0.582884
876.379	1.12199
878.058	0.84875
879.739	0.733324
881.418	1.79132
883.098	0.997299
884.778	1.05973
886.456	0.578686
888.135	0.79535
889.812	1.28043
891.49	0.703744
893.167	1.29722
894.845	1.43814
896.523	1.35256
898.198	0.300176
899.875	1.42476
901.55	1.29098
903.226	1.0001
904.901	0.955533
906.576	0.911329
908.25	1.31394
909.925	0.959562
911.598	1.36354
913.271	0.634149
914.945	1.01683
916.617	1.44326
918.291	0.561185
919.962	1.25299
921.635	0.815976
923.306	1.26533
924.978	1.69405
926.648	1.55074
928.318	1.01254
929.989	1.0059
931.659	0.845756
933.328	1.08312
934.998	1.01184
936.666	0.896997
938.336	0.871482
940.004	1.5092
941.671	0.273617
943.34	1.17882
945.007	1.00285
946.673	1.04612
948.339	1.13118
950.007	0.485401
951.672	1.53714
953.337	1.19872
955.004	0.906535
956.669	1.63231
958.333	0.99509
959.997	1.02316
961.662	1.18593
963.326	1.10572
964.989	0.934801
966.651	0.738146
968.315	0.759033
969.977	0.998363
971.639	0.904593
973.301	1.67385
974.962	0.874788
976.624	0.984804
978.285	0.919892
979.945	1.09929
981.605	1.27833
983.264	1.54424
984.924	1.40907
986.583	1.33749
988.243	1.24135
989.901	1.49738
991.56	1.17758
993.217	1.25546
994.875	1.50995
996.532	1.30099
998.188	1.79782
999.845	1.30213
1001.5	1.66538
1003.16	2.22561
1004.81	0.959272
1006.47	0.79335
1008.12	0.781518
1009.78	1.36261
1011.43	0.232954
1013.09	-0.127605
1014.74	0.520335
1016.39	0.817779
1018.05	0.240348
1019.7	0.539307
1021.35	0.642598
1023	0.572402
1024.65	0.350516
1026.31	0.610211
1027.96	1.3506
1029.61	0.71366
1031.26	0.861664
1032.91	1.13844
1034.56	0.932693
1036.21	1.3576
1037.86	0.909292
1039.51	1.98526
1041.16	0.667788
1042.8	1.4841
1044.45	0.889622
1046.1	1.40593
1047.75	1.0342
1049.39	2.20671
1051.04	1.29607
1052.69	1.42905
1054.33	0.671711
1055.98	0.67475
1057.62	1.37306
1059.27	1.00559
1060.91	0.658905
1062.56	0.615583
1064.2	0.766742
1065.85	0.742567
1067.49	1.04295
1069.13	0.820395
1070.77	0.879419
1072.42	1.00329
1074.06	0.737093
1075.7	0.559184
1077.34	0.166217
1078.98	0.208652
1080.62	1.03274
1082.27	0.317254
1083.91	0.72823
1085.55	0.443309
1087.18	0.350954
1088.82	0.0178089
1090.46	0.137259
1092.1	0.514365
1093.74	0.112569
1095.38	-0.331419
1097.02	0.455108
1098.65	1.06976
1100.29	0.738734
1101.93	-0.191952
1103.56	0.300081
1105.2	0.40646
1106.84	0.147974
1108.47	0.598874
1110.11	0.919222
1111.74	0.74295
1113.38	1.33798
1115.01	0.42781
1116.64	0.590644
1118.28	0.946298
1119.91	0.916711
1121.54	0.524473
1123.18	0.690499
1124.81	0.77213
1126.44	0.341523
1128.07	0.104609
1129.7	0.0183563
1131.33	0.232165
1132.97	0.531843
1134.6	0.125924
1136.23	0.104015
1137.86	0.914116
1139.49	0.568666
1141.11	0.307538
1142.74	0.686121
1144.37	-0.300565
1146	0.0362711
1147.63	0.31011
1149.26	0.457075
1150.88	0.391631
1152.51	0.241066
1154.14	0.324316
1155.76	0.279287
1157.39	-0.0850554
1159.01	0.380765
1160.64	0.294537
1162.27	-0.00285053
1163.89	-0.150071
1165.51	-0.0840025
1167.14	0.151879
1168.76	0.386399
1170.39	0.257331
1172.01	-0.214092
1173.63	-0.26265
1175.25	-0.164224
1176.88	0.102929
1178.5	0.327506
1180.12	0.467947
1181.74	0.0593529
1183.36	-0.369013
1184.98	0.259698
1186.6	-0.0426407
1188.22	-0.135602
1189.84	-0.273058
1191.46	-0.244196
1193.08	0.686746
1194.7	-0.00269985
1196.32	0.169382
1197.94	-0.809501
1199.55	0.349347
1201.17	0.108873
1202.79	0.310684
1204.41	-0.0895777
1206.02	0.472966
1207.64	0.515531
1209.25	0.62109
1210.87	0.141631
1212.48	0.661035
1214.1	0.301849
1215.71	-0.351309
1217.33	-0.00711727
1218.94	0.39737
1220.56	1.15372
1222.17	0.31251
1223.79	0.448329
1225.4	0.171773
1227.01	0.476935
1228.62	0.638814
1230.23	0.450733
1231.85	1.07048
1233.46	0.451532
1235.07	0.350972
1236.68	0.37597
1238.29	0.0715237
1239.9	1.25664
1241.51	0.870686
1243.12	1.2289
1244.73	0.779246
1246.34	0.824788
1247.94	0.889674
1249.55	0.974207
1251.16	0.62383
1252.77	1.49419
1254.37	0.793386
1255.98	0.611104
1257.59	1.23718
1259.2	1.34776
1260.8	1.43893
1262.41	0.909599
1264.01	0.607796
1265.62	0.947665
1267.22	0.66494
1268.83	0.754041
1270.43	1.54677
1272.03	0.762326
1273.64	0.868085
1275.24	0.70303
1276.85	0.806217
1278.45	1.46755
1280.05	1.36137
1281.65	0.199294
1283.25	1.58295
1284.85	0.650037
1286.46	0.938619
1288.06	1.20773
1289.66	1.41598
1291.26	1.21162
1292.86	1.62705
1294.46	1.21507
1296.06	1.62768
1297.66	0.881755
1299.25	1.02155
1300.85	1.96319
1302.45	2.13942
1304.05	1.3261
1305.65	1.2535
1307.24	1.34464
1308.84	2.17371
1310.43	1.6689
1312.03	1.59554
1313.63	1.09382
1315.22	0.410431
1316.82	1.60782
1318.41	1.17195
1320.01	1.51131
1321.6	1.05452
1323.2	1.49195
1324.79	1.98708
1326.38	1.05793
1327.98	1.42793
1329.57	1.43314
1331.16	1.9056
1332.76	1.26878
1334.35	1.56484
1335.94	1.45917
1337.53	1.59645
1339.12	1.67229
1340.71	1.48394
1342.3	1.1924
1343.89	1.76313
1345.48	1.20665
1347.07	1.39343
1348.66	1.94258
1350.25	1.51342
1351.84	1.06838
1353.43	1.04641
1355.01	1.50593
1356.6	1.50616
1358.19	1.36599
1359.77	1.22464
1361.36	0.802526
1362.95	0.698883
1364.53	1.15307
1366.12	1.42767
1367.71	1.56363
1369.29	0.825225
1370.88	0.905095
1372.46	0.170935
1374.04	1.24899
1375.63	0.656531
1377.21	0.661151
1378.8	1.02333
1380.38	0.866812
1381.96	0.0919542
1383.54	0.92663
1385.13	0.805194
1386.71	1.10043
1388.29	0.581376
1389.87	1.11564
1391.45	1.13478
1393.03	1.3732
1394.61	0.91788
1396.19	1.01776
1397.77	0.858953
1399.35	0.936707
1400.93	1.09232
1402.51	0.316585
1404.09	1.2628
1405.67	1.06181
1407.24	0.644719
1408.82	0.960128
1410.4	1.29579
1411.98	0.801858
1413.55	1.55109
1415.13	0.739706
1416.71	0.578748
1418.28	1.04812
1419.86	0.709681
1421.43	1.39683
1423.01	0.865143
1424.58	1.35932
1426.16	1.67805
1427.73	1.22995
1429.31	1.01769
1430.88	1.55217
1432.45	1.27811
1434.02	1.39629
1435.6	2.20209
1437.17	2.20154
1438.74	1.7892
1440.31	1.98767
1441.88	1.85334
1443.45	2.32925
1445.03	2.62887
1446.6	2.53568
1448.17	2.58027
1449.74	2.82187
1451.3	2.19903
1452.87	2.16672
1454.44	2.2333
1456.01	2.26053
1457.58	2.64112
1459.15	1.85884
1460.72	1.90073
1462.28	2.62856
1463.85	1.99656
1465.42	2.20874
1466.98	1.77186
1468.55	1.70894
1470.12	2.05939
1471.68	1.68528
1473.25	1.9601
1474.81	1.23584
1476.38	1.728
1477.94	0.985106
1479.51	1.94769
1481.07	1.28311
1482.63	1.08891
1484.2	0.894583
1485.76	1.13085
1487.32	1.46391
1488.88	0.600735
1490.45	1.37956
1492.01	1.1181
1493.57	1.06896
1495.13	1.15399
1496.69	1.88028
1498.25	0.599917
1499.81	1.20873
1501.37	1.04101
1502.93	1.06919
1504.49	0.594787
1506.05	1.10888
1507.61	1.04103
1509.17	0.798024
1510.73	1.26795
1512.28	0.829711
1513.84	0.545986
1515.4	0.128634
1516.96	0.711383
1518.51	0.852714
1520.07	0.324102
1521.63	0.524063
1523.18	0.665836
1524.74	-0.682938
1526.29	0.468242
1527.85	0.510712
1529.4	0.305109
1530.96	0.707602
1532.51	0.31323
1534.06	0.413399
1535.62	0.193096
1537.17	0.352418
1538.72	0.587804
1540.28	0.672389
1541.83	0.304818
1543.38	0.558888
1544.93	0.661783
1546.48	0.595126
1548.03	0.565885
1549.59	0.311712
1551.14	0.526401
1552.69	0.928361
1554.24	0.957008
1555.79	0.912732
1557.34	0.404192
1558.88	0.514396
1560.43	0.776255
1561.98	1.04019
1563.53	0.801953
1565.08	0.452499
1566.62	0.532304
1568.17	1.19042
1569.72	0.80289
1571.27	0.806784
1572.81	1.18363
1574.36	1.01892
1575.9	0.928891
1577.45	0.876449
1579	0.955218
1580.54	1.01613
1582.09	1.22749
1583.63	1.02908
1585.17	1.50432
1586.72	1.71887
1588.26	0.830267
1589.8	0.96981
1591.35	1.37095
1592.89	0.910378
1594.43	1.06721
1595.97	1.37405
1597.52	1.11935
1599.06	1.55907
1600.6	1.15598
1602.14	1.97307
1603.68	1.53289
1605.22	1.57983
1606.76	1.28672
1608.3	1.21643
1609.84	1.21825
1611.38	0.972716
1612.92	1.43837
1614.46	0.644223
1615.99	1.38845
1617.53	1.36378
1619.07	1.30318
1620.61	0.795165
1622.14	0.719884
1623.68	0.963989
1625.22	1.03964
1626.75	0.571562
1628.29	0.831748
1629.82	1.2021
1631.36	0.841744
1632.9	0.686691
1634.43	1.52153
1635.96	1.81544
1637.5	0.954059
1639.03	1.08228
1640.57	1.21049
1642.1	1.48686
1643.63	1.22151
1645.16	1.62477
1646.7	1.24519
1648.23	1.36739
1649.76	1.26705
1651.29	1.59493
1652.82	1.90557
1654.36	1.38316
1655.89	1.99265
1657.42	1.60113
1658.95	1.26443
1660.48	1.94449
1662.01	1.47475
1663.53	1.42924
1665.06	0.976628
1666.59	1.6325
1668.12	1.79088
1669.65	1.93265
1671.18	1.17354
1672.7	1.07955
1674.23	1.13358
1675.76	1.5003
1677.29	1.46084
1678.81	0.886452
1680.34	1.89244
1681.86	0.856553
1683.39	1.2538
1684.91	1.08171
1686.44	0.708563
1687.96	1.27119
1689.49	1.13762
1691.01	1.13269
1692.54	0.432443
1694.06	0.665682
1695.58	0.441399
1697.11	0.545921
1698.63	-0.0623398
1700.15	0.223849
1701.67	0.50898
1703.2	0.902297
1704.72	0.256258
1706.24	-0.0254564
1707.76	0.183778
1709.28	0.22903
1710.8	0.728008
1712.32	0.591694
1713.84	0.582655
1715.36	0.193548
1716.88	0.0582142
1718.4	0.70008
1719.91	0.221164
1721.43	0.609298
1722.95	-0.22843
1724.47	0.377657
1725.99	0.0483217
1727.5	-0.00896835
1729.02	-0.0109482
1730.54	-0.280169
1732.05	-0.136199
1733.57	0.105371
1735.09	0.225574
1736.6	0.408344
1738.12	0.177616
1739.63	0.26505
1741.15	0.516436
1742.66	0.289352
1744.18	0.67741
1745.69	-0.0840235
1747.2	-0.107043
1748.72	0.193763
1750.23	0.107029
1751.74	0.119761
1753.25	0.662437
1754.77	0.000617027
1756.28	0.546926
1757.79	0.474632
1759.3	-0.278852
1760.81	-0.0538034
1762.32	0.024848
1763.83	0.131735
1765.34	0.134033
1766.85	0.172028
1768.36	0.400269
1769.87	0.0244513
1771.38	0.240603
1772.89	0.126298
1774.4	-0.078826
1775.91	0.249287
1777.41	0.16128
1778.92	0.192845
1780.43	0.0663662
1781.94	0.00241089
1783.44	0.207735
1784.95	0.114513
1786.45	0.29343
1787.96	0.0493364
1789.47	-0.336109
1790.97	-0.0831461
1792.47	-0.132904
1793.98	-0.0373125
1795.48	0.0462742
1796.99	-0.105148
1798.49	-0.294491
1800	0.185965
1801.5	0.146235
1803	-0.0707712
1804.51	0.554825
1806.01	0.0872469
1807.51	0.104014
1809.01	0.0170631
1810.51	0.21221
1812.02	-0.0107327
1813.52	0.0310612
1815.02	0.146343
1816.52	0.250475
1818.02	0.30243
1819.52	0.125184
1821.02	-0.122884
1822.52	0.0728016
1824.02	-0.0831947
1825.51	0.012517
1827.01	0.330408
1828.51	-0.00199413
1830.01	-0.0040493
1831.51	0.0986443
1833	-0.0481434
1834.5	-0.124445
1836	0.0364408
1837.49	0.222783
1838.99	0.327734
1840.49	-0.0823412
1841.98	0.184828
1843.48	0.177518
1844.97	0.129335
1846.47	-0.0544701
1847.96	0.0747766
1849.46	-0.187211
1850.95	-0.251465
1852.45	0.250686
1853.94	0.369131
1855.43	0.175765
1856.92	0.185843
1858.42	0.171355
1859.91	-0.212981
1861.4	-0.0690031
1862.89	-0.0776119
1864.39	0.00605392
1865.88	-0.105068
1867.37	-0.227584
1868.86	0.0214033
1870.35	0.235617
1871.84	0.188354
1873.33	0.225685
1874.82	0.15521
1876.31	0.340841
1877.8	0.0372906
1879.29	0.0871048
1880.77	-0.019763
1882.26	0.25446
1882.52	0.320256
1884.02	0.177353
1885.51	-0.280179
1887.01	-0.163671
1888.5	0.0216637
1889.99	0.050477
1891.49	0.045805
1892.98	0.391023
1894.47	-0.0784731
1895.96	0.0278654
1897.46	-0.264639
1898.95	0.242778
1900.44	0.41843
1901.93	0.470074
1903.42	0.154038
1904.91	0.809728
1906.4	0.421205
1907.89	0.0504112
1909.38	-0.0241337
1910.87	0.0240965
1912.36	-0.169348
1913.85	-0.41398
1915.34	-0.224892
1916.83	-0.088315
1918.32	0.307462
1919.8	0.113286
1921.29	-0.0116024
1922.78	0.608716
1924.27	0.0354109
1925.75	-0.138053
1927.24	0.209277
1928.73	0.765331
1930.21	0.403699
1931.7	-0.0976305
1933.18	0.490013
1934.67	0.365245
1936.15	-0.0212526
1937.64	0.507465
1939.12	0.481936
1940.61	0.00790405
1942.09	-0.0847416
1943.57	-0.124145
1945.06	0.32047
1946.54	0.36883
1948.02	0.29621
1949.51	0.412117
1950.99	-0.00720501
1952.47	0.106118
1953.95	-0.0566111
1955.43	0.382196
1956.91	0.219934
1958.39	0.0416327
1959.87	-0.0497141
1961.36	0.0140829
1962.84	-0.298984
1964.32	-0.0466452
1965.79	-0.189064
1967.27	0.626196
1968.75	0.4133
1970.23	-0.176176
1971.71	0.0376024
1973.19	-0.00501442
1974.66	-0.25212
1976.14	0.0808544
1977.62	-0.0122032
1979.1	0.150325
1980.57	-0.571919
1982.05	0.304423
1983.53	0.210922
1985	-0.154464
1986.48	0.226612
1987.95	0.183394
1989.43	0.293095
1990.9	-0.425656
1992.38	0.227666
1993.85	-0.217142
1995.33	-0.00143147
1996.8	0.214722
1998.27	0.278705
1999.75	0.460224
2001.22	-0.101737
2002.69	-0.124105
2004.16	0.510815
2005.64	0.0840397
2007.11	-0.00448513
2008.58	0.245091
2010.05	-0.00931931
2011.52	-0.195601
2012.99	0.308318
2014.46	-0.0635605
2015.93	0.00111389
2017.4	0.0813532
2018.87	-0.00769997
2020.34	0.30585
2021.81	-0.187205
2023.28	0.143144
2024.75	0.323281
2026.22	0.135897
2027.69	0.30276
2029.15	0.152989
2030.62	0.0888796
2032.09	0.0596256
2033.56	0.282817
2035.02	-0.38389
2036.49	-0.127613
2037.95	-0.191146
2039.42	0.114518
2040.89	0.369806
2042.35	-0.0972776
2043.82	0.0923443
2045.28	0.24969
2046.75	0.155679
2048.21	0.466282
2049.67	0.119475
2051.14	0.243079
2052.6	-0.427974
2054.06	0.601823
2055.53	0.532975
2056.99	0.327374
2058.45	0.120821
2059.92	0.150019
2061.38	-0.00545025
2062.84	0.0927668
2064.3	-0.161121
2065.76	-0.262159
2067.22	0.159625
2068.68	0.144663
2070.14	-0.0886993
2071.6	0.0315046
2073.06	-0.185196
2074.52	0.102888
2075.98	0.525287
2077.44	-0.0126896
2078.9	0.22345
2080.36	0.458941
2081.82	0.121189
2083.27	0.338135
2084.73	0.587614
2086.19	0.482644
2087.65	0.42735
2089.1	-0.0318031
2090.56	0.181112
2092.01	0.376919
2093.47	0.337481
2094.93	-0.0879745
2096.38	0.140056
2097.84	0.316649
2099.29	0.090477
2100.75	0.482962
2102.2	0.323709
2103.66	0.299408
2105.11	0.577295
2106.56	0.423093
2108.02	0.270444
2109.47	0.635254
2110.92	-0.0844145
2112.37	0.144493
2113.83	0.137753
2115.28	0.295275
2116.73	-0.0640383
2118.18	0.15903
2119.63	0.250744
2121.09	0.0794897
2122.54	0.143124
2123.99	0.225249
2125.44	-0.122881
2126.89	0.1919
2128.34	0.289773
2129.79	0.766869
2131.23	-0.149446
2132.68	0.523223
2134.13	0.467188
2135.58	0.445342
2137.03	0.0783806
2138.48	0.837793
2139.92	1.08741
2141.37	0.165715
2142.82	0.28685
2144.26	0.16079
2145.71	0.763025
2147.16	0.471282
2148.6	0.741614
2150.05	0.348262
2151.49	0.500229
2152.94	0.800028
2154.38	0.452536
2155.83	0.535226
2157.27	0.66769
2158.72	0.188204
2160.16	0.787202
2161.6	0.742522
2163.05	0.89924
2164.49	0.693225
2165.93	0.305439
2167.38	0.681242
2168.82	0.723671
2170.26	0.747136
2171.7	1.08387
2173.14	0.719313
2174.58	0.402857
2176.03	0.584645
2177.47	0.849767
2178.91	0.683569
2180.35	0.684951
2181.79	0.454726
2183.23	1.04007
2184.67	0.877526
2186.1	0.881387
2187.54	0.91856
2188.98	0.323389
2190.42	0.310569
2191.86	0.880093
2193.3	0.533013
2194.73	0.883436
2196.17	0.598778
2197.61	0.760882
2199.05	0.521427
2200.48	0.663059
2201.92	0.239789
2203.35	0.465012
2204.79	0.824059
2206.22	-0.00914574
2207.66	0.782587
2209.09	0.447374
2210.53	0.872781
2211.96	0.171563
2213.4	0.627316
2214.83	0.504148
2216.27	0.563511
2217.7	0.310888
2219.13	0.571358
2220.56	0.239321
2222	1.02837
2223.43	0.201362
2224.86	0.361251
2226.29	0.156639
2227.72	0.213218
2229.16	0.382923
2230.59	0.321539
2232.02	0.71882
2233.45	0.788216
2234.88	0.0572882
2236.31	0.587236
2237.74	0.400204
2239.17	0.574921
2240.6	0.5402
2242.03	0.573204
2243.45	0.640536
2244.88	0.545263
2246.31	0.400159
2247.74	-0.122144
2249.17	0.380059
2250.59	0.764667
2252.02	0.267279
2253.45	-0.0514898
2254.87	0.0206337
2256.3	0.0945396
2257.73	0.496004
2259.15	0.268391
2260.58	0.0771837
2262	0.35984
2263.43	0.856091
2264.85	0.362039
2266.28	0.354729
2267.7	-0.0115662
2269.13	0.190212
2270.55	-0.146163
2271.97	0.444744
2273.4	0.302788
2274.82	0.600716
2276.24	0.426535
2277.66	0.268811
2279.09	0.518655
2280.51	0.507649
2281.93	0.251794
2283.35	0.0609522
2284.77	-0.0972853
2286.19	0.332307
2287.61	0.240148
2289.04	0.164865
2290.46	0.335166
2291.88	0.309827
2293.29	0.529948
2294.71	0.161215
2296.13	0.643219
2297.55	-0.233613
2298.97	0.00288296
2300.39	-0.202682
2301.81	-0.0965185
2303.23	-0.0226889
2304.64	-0.26045
2306.06	0.0762568
2307.48	0.412839
2308.89	0.124321
2310.31	0.130784
2311.73	0.383441
2313.14	0.323575
2314.56	0.297138
2315.97	0.0576096
2317.39	0.362584
2318.8	0.0915432
2320.22	0.100279
2321.63	0.20655
2323.05	0.24432
2324.46	0.608988
2325.88	0.227951
2327.29	0.751873
2328.7	0.483084
2330.12	0.247796
2331.53	0.145659
2332.94	0.226147
2334.35	0.24194
2335.76	0.323867
2337.18	0.125549
2338.59	0.517882
2340	0.103106
2341.41	0.180154
2342.82	0.617436
2344.23	0.381693
2345.64	-0.0336409
2347.05	-0.0713558
2348.46	0.643986
2349.87	-0.0816526
2351.28	0.35326
2352.69	0.165484
2354.1	0.123612
2355.5	-0.0984221
2356.91	0.151734
2358.32	0.027215
2359.73	0.325559
2361.14	0.250097
2362.54	0.239623
2363.95	-0.208264
2365.36	0.0565758
2366.76	0.385741
2368.17	0.182267
2369.58	0.0612335
2370.98	-0.0900526
2372.39	0.22783
2373.79	0.160291
2375.2	0.0450563
2376.6	-0.0544996
2378	0.0375595
2379.41	-0.0172005
2380.81	0.327188
2382.22	0.251995
2383.62	0.0956602
2385.02	0.403227
2386.42	0.127468
2387.83	-0.146456
2389.23	-0.187054
2390.63	0.140514
2392.03	0.580637
2393.43	-0.378568
2394.84	0.191086
2396.24	0.0776129
2397.64	-0.432246
2399.04	0.0281601
2400.44	0.377833
2401.84	0.0607138
2403.24	0.124893
2404.64	-0.319551
2406.04	0.0446329
2407.44	0.0740929
2408.83	0.467216
2410.23	-0.0281973
2411.63	0.142605
2413.03	-0.0498915
2414.43	0.29775
2415.83	0.45733
2417.22	0.381288
2418.62	0.14816
2420.02	-0.30627
2421.41	0.252744
2422.81	0.272812
2424.21	0.799515
2425.6	0.45488
2427	0.269347
2428.39	0.100771
2429.79	-0.0190411
2431.18	-0.407769
2432.58	-0.0187988
2433.97	0.830403
2435.36	0.550657
2436.76	0.475252
2438.15	-0.349031
2439.54	0.223034
2440.94	-0.159246
2442.33	0.0770893
2443.72	-0.00450993
2445.11	0.326109
2446.51	0.497677
2447.9	0.130091
2449.29	0.364734
2450.68	-0.334686
2452.07	-0.146515
2453.46	-0.368836
2454.85	0.375104
2456.24	0.455418
2457.63	-0.36545
2459.02	-0.269047
2460.41	0.538224
2461.8	0.0159512
2463.19	0.125109
2464.58	-0.0667982
2465.97	-0.132625
2467.36	0.0856085
2468.75	0.0668898
2470.13	0.0479136
2471.52	-0.444537
2472.91	-0.0236559
2474.29	0.631767
2475.68	0.168472
2477.07	0.161184
2478.45	0.483621
2479.84	0.240857
2481.22	0.265258
2482.61	-0.164843
2484	0.140887
2485.38	0.257187
2486.77	-0.00327492
2488.15	0.0162334
2489.54	0.0970068
2490.92	0.286304
2492.3	0.475832
2493.69	0.309288
2495.07	-0.335939
2496.45	-0.404876
2497.84	-0.240259
2499.22	-0.0600367
2500.6	-0.143459
2501.98	-0.135081
2503.36	0.0727053
2504.74	0.618191
2506.13	-0.00937653
2507.51	0.426054
2508.89	0.522463
2510.27	-0.0257454
2511.65	-0.219105
2513.03	-0.027853
2514.41	-0.0501909
2515.79	0.372554
2517.17	-0.0148869
2518.55	-0.0953875
2519.93	-0.389503
2521.3	-0.0422096
2522.68	0.258001
2524.06	0.282104
2525.44	0.488055
2526.82	-0.0528708
2528.19	0.137964
2529.57	0.345228
2530.95	0.463273
2532.32	0.218941
2533.7	0.128515
2535.08	-0.355918
2536.45	0.299037
2537.83	-0.0799856
2539.2	-0.00455475
2540.58	0.64665
2541.95	0.446968
2543.33	0.536073
2544.7	0.262273
2546.08	0.0964355
2547.45	-0.113235
2548.82	0.497458
2550.2	0.273878
2551.57	0.0647478
2552.94	-0.206362
2554.32	0.173683
2555.69	0.461337
2557.06	-0.0103149
2558.43	0.0488262
2559.8	0.441796
2561.17	-0.210449
2562.55	0.214332
2563.92	0.306472
2565.29	-0.1918
2566.66	0.325592
2568.03	0.0853949
2569.4	0.117992
2570.77	0.226372
2572.14	0.0165119
2573.51	0.0947504
2574.88	0.203444
2576.24	0.388009
2577.61	0.147954
2578.98	0.180491
2580.35	-0.242346
2581.72	0.00143433
2583.09	-0.134356
2584.45	0.214668
2585.82	-0.179205
2587.19	0.306243
2588.55	0.215964
2589.92	-0.13178
2591.28	-0.115959
2592.65	-0.252284
2594.02	0.110262
2595.38	0.183475
2596.75	-0.0475206
2598.11	0.401385
2599.48	0.365432
2600.84	0.344778
2602.2	-0.00740242
2603.57	-0.252666
2604.93	0.13679
2606.3	-0.107314
2607.66	-0.0048666
2609.02	-0.370863
2610.38	0.045167
2611.75	-0.218466
2613.11	-0.152403
2614.47	0.122775
2615.83	0.321994
2617.19	0.116374
2618.56	0.271424
2619.92	-0.261045
2621.28	-0.402925
2622.64	0.322727
2624	0.286191
2625.36	0.0257931
2626.72	0.0487261
2628.08	-0.226851
2629.44	-0.130196
2630.8	0.189201
2632.15	0.151153
2633.51	0.291343
2634.87	0.0602121
2636.23	-0.0222912
2637.59	-0.193587
2638.94	-0.231297
2640.3	0.160314
2641.66	0.241227
2643.02	0.219001
2644.37	0.241332
2645.73	-0.0610332
2647.08	-0.0981607
2648.44	0.0553141
2649.8	0.29569
2651.15	0.255316
2652.51	0.273329
2653.86	-0.251218
2655.22	0.266919
2656.57	0.375624
2657.92	0.324801
2659.28	0.158278
2660.63	0.0509825
2661.99	0.0166683
2663.34	-0.0184202
2664.69	0.573058
2666.04	0.214574
2667.4	0.540927
2668.75	-0.0798788
2670.1	-0.000922203
2671.45	0.238571
2672.81	0.173491
2674.16	0.0803146
2675.51	-0.0845318
2676.86	-0.0163212
2678.21	-0.36786
2679.56	-0.0220919
2680.91	0.266984
2682.26	0.325736
2683.61	0.284669
2684.96	0.302952
2686.31	0.0607328
2687.66	0.137463
2689	0.0964756
2690.35	0.285442
2691.7	0.0509157
2693.05	0.0465698
2694.4	0.345402
2695.74	0.179893
2697.09	-0.34674
2698.44	0.214837
2699.79	0.141413
2701.13	0.403465
2702.48	0.117314
2703.82	0.0787706
2705.17	0.156902
2706.52	0.10465
2707.86	0.13905
2709.21	0.347138
2710.55	-0.258379
2711.9	0.268416
2713.24	-0.236362
2714.58	0.188751
2715.93	0.17783
2717.27	0.166719
2718.61	0.0388708
2719.96	-0.0895319
2721.3	0.319883
2722.64	0.117426
2723.99	0.394626
2725.33	0.161785
2726.67	0.554296
2728.01	-0.232547
2729.35	0.130065
2730.7	0.361444
2732.04	0.46179
2733.38	0.387673
2734.72	0.0810986
2736.06	0.0802898
2737.4	0.42873
2738.74	0.0354099
2740.08	0.194407
2741.42	0.33818
2742.76	0.0448942
2744.09	0.14319
2745.43	0.41489
2746.77	0.119442
2748.11	0.244924
2749.45	0.254295
2750.79	0.0463905
2752.12	0.21595
2753.46	0.313256
2754.8	-0.183266
2756.13	0.392509
2757.47	0.070446
2758.81	0.530624
2760.14	-0.239055
2761.48	-0.0961351
2762.81	0.0763502
2764.15	0.147978
2765.49	-0.214462
2766.82	0.203768
2768.15	0.258997
2769.49	0.0376844
2770.82	0.0746822
2772.16	0.109762
2773.49	0.071208
2774.82	-0.141032
2776.16	0.309609
2777.49	-0.204233
2778.82	-0.098134
2780.16	-0.0202131
2781.49	0.0580463
2782.82	-0.0502205
2784.15	0.200127
2785.48	0.220805
2786.81	-0.116343
2788.15	-0.123153
2789.48	0.243117
2790.81	-0.0475502
2792.14	0.0205183
2793.47	-0.239585
2794.8	-0.0278702
2796.13	0.111858
2797.46	-0.220602
2798.79	0.0603752
2800.12	0.183554
2801.44	-0.307144
2802.77	-0.284332
2804.1	0.30814
2805.43	0.301169
2806.76	0.0656338
2808.08	-0.270009
2809.41	-0.221988
2810.74	0.110023
2812.07	0.17277
2813.39	-0.0749874
2814.72	0.189888
2816.05	0.229855
2817.37	0.45566
2818.7	0.427184
2820.02	0.129445
2821.35	-0.16888
2822.67	-0.113767
2824	-0.00283432
2825.32	0.178406
2826.65	0.657016
2827.97	0.61232
2829.29	0.129607
2830.62	0.327129
2831.94	0.28431
2833.26	0.482064
2834.59	0.254754
2835.91	1.00332
2837.23	0.845325
2838.55	0.658501
2839.88	0.881612
2841.2	1.13305
2842.52	1.11641
2843.84	0.959399
2845.16	1.51006
2846.48	1.55285
2847.8	2.3311
2849.12	1.99291
2850.44	1.48468
2851.76	1.95101
2853.08	2.04914
2854.4	1.84995
2855.72	2.2016
2857.04	2.19997
2858.36	2.59393
2859.68	2.54998
2861	2.46346
2862.32	2.54593
2863.63	2.82546
2864.95	2.79406
2866.27	3.42566
2867.58	3.53554
2868.9	3.30764
2870.22	4.06731
2871.53	3.31877
2872.85	3.96534
2874.17	3.87789
2875.48	3.77487
2876.8	3.59997
2878.11	4.33873
2879.43	4.09183
2880.74	3.94409
2882.06	4.0506
2883.37	3.99005
2884.69	4.39433
2886	4.60281
2887.31	3.89906
2888.63	3.91064
2889.94	4.65053
2891.25	4.08465
2892.57	4.40135
2893.88	4.67551
2895.19	4.62794
2896.5	4.49766
2897.82	4.90078
2899.13	4.92753
2900.44	5.27725
2901.75	4.97019
2903.06	4.94327
2904.37	5.57399
2905.68	5.63166
2906.99	5.87204
2908.3	5.58213
2909.61	5.89505
2910.92	5.90111
2912.23	6.04717
2913.54	5.89818
2914.85	6.37717
2916.16	6.20963
2917.46	6.69765
2918.77	6.54035
2920.08	6.43889
2921.39	6.33851
2922.7	6.3099
2924	6.77258
2925.31	6.91544
2926.62	6.93345
2927.92	7.17525
2929.23	7.34664
2930.53	6.76233
2931.84	7.33769
2933.15	6.78041
2934.45	6.7124
2935.76	6.64461
2937.06	6.81468
2938.37	6.63569
2939.67	6.35934
2940.98	6.16759
2942.28	5.9072
2943.58	5.95594
2944.89	5.93675
2946.19	5.56959
2947.49	5.31497
2948.8	4.84991
2950.1	4.9291
2951.4	5.146
2952.7	5.08032
2954.01	4.57873
2955.31	4.9167
2956.61	3.94016
2957.91	4.78601
2959.21	4.24978
2960.51	4.34727
2961.81	4.77013
2963.11	4.18463
2964.41	3.83623
2965.71	3.97723
2967.01	3.9616
2968.31	3.93013
2969.61	4.20703
2970.91	4.1323
2972.21	3.69221
2973.51	3.59014
2974.81	3.36137
2976.1	3.6104
2977.4	2.82989
2978.7	2.96235
2980	2.83911
2981.29	2.65793
2982.59	2.71529
2983.89	2.26697
2985.18	2.39671
2986.48	2.24742
2987.78	2.11423
2989.07	1.99646
2990.37	1.83696
2991.66	1.78929
2992.96	2.07757
2994.25	1.54915
2995.55	1.51117
2996.84	1.50036
2998.14	1.4332
2999.43	1.02982
3000.72	1.20242
3002.02	0.506701
3003.31	1.10117
3004.6	0.644874
3005.9	0.636698
3007.19	0.599795
3008.48	0.519904
3009.77	0.620768
3011.07	0.594809
3012.36	0.777798
3013.65	0.332787
3014.94	0.126045
3016.23	0.157397
3017.52	0.287219
3018.81	0.181098
3020.1	0.367322
3021.39	0.233138
3022.68	0.181417
3023.97	0.239558
3025.26	-0.0222101
3026.55	0.256458
3027.84	0.106349
3029.13	0.0410109
3030.42	-0.22944
3031.71	-0.29044
3033	0.31268
3034.28	-0.21574
3035.57	0.331637
3036.86	-0.14344
3038.15	-0.110374
3039.43	0.0853987
3040.72	0.0175838
3042.01	0.0448999
3043.29	0.195501
3044.58	0.00473022
3045.86	0.213179
3047.15	0.123696
3048.44	0.5427
3049.72	0.268285
3051.01	0.296457
3052.29	0.216644
3053.58	0.19156
3054.86	0.43854
3056.14	0.479513
3057.43	0.396383
3058.71	0.434983
3060	0.255397
3061.28	0.675347
3062.56	0.0353928
3063.84	0.349605
3065.13	0.529881
3066.41	0.317879
3067.69	0.297651
3068.97	0.264429
3070.25	0.625362
3071.54	0.590853
3072.82	0.459593
3074.1	0.0413675
3075.38	0.369658
3076.66	0.493573
3077.94	0.387268
3079.22	-0.205843
3080.5	0.0987024
3081.78	0.296833
3083.06	0.496729
3084.34	0.439923
3085.62	0.437572
3086.9	0.679041
3088.17	0.539622
3089.45	0.250081
3090.73	0.516477
3092.01	0.823378
3093.29	0.425158
3094.56	0.325954
3095.84	0.0238962
3097.12	0.657555
3098.4	0.396505
3099.67	0.514888
3100.95	0.199707
3102.22	0.426625
3103.5	0.532059
3104.77	0.529965
3106.05	0.826717
3107.33	0.664678
3108.6	0.544748
3109.88	0.561699
3111.15	0.539467
3112.43	0.504822
3113.7	0.606332
3114.97	1.01983
3116.25	0.795731
3117.52	0.66543
3118.79	0.696514
3120.07	0.848333
3121.34	0.687153
3122.61	0.850673
3123.88	0.675296
3125.16	0.947261
3126.43	0.678348
3127.7	1.03291
3128.97	0.914715
3130.24	0.891857
3131.51	0.612497
3132.78	1.23857
3134.05	1.13449
3135.33	1.24595
3136.59	1.19473
3137.86	1.25093
3139.14	1.33363
3140.41	0.770084
3141.67	1.48526
3142.94	1.48768
3144.21	1.54463
3145.48	1.29393
3146.75	1.28601
3148.02	1.45332
3149.28	1.40714
