200.388	0.83256
202.204	0.87615
204.019	0.921154
205.832	0.335148
207.646	0.260584
209.459	0.233932
211.274	0.78866
213.087	0.539703
214.899	0.798754
216.711	-0.0342274
218.524	-0.139381
220.335	0.264576
222.146	0.354792
223.956	0.712072
225.766	-0.428555
227.576	-0.0221405
229.388	-0.147846
231.197	-0.105419
233.005	-0.111833
234.813	0.316126
236.621	0.359684
238.429	-0.00370979
240.236	0.720945
242.045	0.171201
243.852	0.346486
245.658	-0.0332928
247.464	-0.318999
249.269	-0.222205
251.074	0.47381
252.879	0.465506
254.683	0.382161
256.487	-0.06355
258.291	0.359672
260.094	-0.034399
261.897	-0.233095
263.702	0.413587
265.504	-0.0465984
267.306	0.120019
269.108	0.0692177
270.909	-0.296266
272.71	-0.0366192
274.511	-0.309433
276.311	0.0422487
278.111	-0.0667372
279.91	0.0382862
281.709	0.140268
283.508	0.696326
285.306	-0.432633
287.105	0.119555
288.9	0.71837
290.698	0.28687
292.495	0.504031
294.291	-0.0664501
296.088	0.321929
297.884	0.0421686
299.679	-0.0217867
301.475	-0.277122
303.27	-0.151484
305.064	0.115469
306.858	0.35686
308.652	0.21607
310.444	0.504828
312.237	0.0803299
314.03	1.3726
315.822	0.262174
317.615	0.940056
319.406	0.000358582
321.198	0.0623808
322.987	0.220712
324.778	0.427452
326.568	0.586709
328.358	0.960735
330.148	0.282303
331.935	0.294982
333.724	0.0899477
335.513	0.791174
337.301	0.268783
339.089	0.987554
340.875	0.0772953
342.662	0.815901
344.449	-0.620746
346.236	0.261054
348.02	-0.0747585
349.806	0.736055
351.592	-0.172032
353.375	-0.0306387
355.16	0.443161
356.944	0.580868
358.728	0.239866
360.51	1.01685
362.294	0.196912
364.077	-0.0760345
365.858	0.196799
367.64	0.278096
369.422	0.286807
371.202	0.341572
372.983	0.418792
374.764	0.377011
376.543	1.35031
378.324	1.26093
380.102	1.10221
381.881	0.545148
383.661	1.02551
385.438	0.660654
387.216	1.14366
388.993	1.36937
390.771	1.0326
392.548	0.837879
394.324	1.46584
396.101	0.309416
397.875	0.421138
399.651	1.09625
401.425	0.549294
403.201	0.142314
404.974	0.133513
406.749	0.687197
408.524	0.676263
410.296	0.406527
412.07	0.441896
413.841	0.50112
415.614	0.232664
417.385	0.434412
419.156	0.261462
420.928	0.792841
422.698	-0.0375586
424.469	0.351631
426.238	0.223038
428.009	-0.329306
429.777	-0.0842619
431.548	0.700384
433.315	0.170909
435.083	0.205053
436.852	-0.324192
438.618	0.436399
440.387	0.795952
442.153	0.425338
443.919	0.0286493
445.686	0.309282
447.451	0.540902
449.218	0.537476
450.982	0.440587
452.746	0.390872
454.512	0.154831
456.275	0.26866
458.038	0.824498
459.803	0.751112
461.565	0.376307
463.327	0.7476
465.091	0.61052
466.852	-0.126931
468.613	0.347378
470.374	0.219904
472.136	0.395597
473.896	0.710176
475.655	0.463627
477.415	-0.298534
479.176	0.264497
480.934	0.732821
482.692	1.10793
484.45	0.180213
486.21	0.652435
487.967	0.708269
489.724	0.393703
491.481	0.266728
493.237	0.934726
494.995	0.809075
496.75	1.0107
498.506	1.44653
500.26	1.31963
502.015	0.370087
503.771	1.20287
505.525	1.25956
507.279	1.54948
509.032	2.47255
510.785	1.15835
512.537	1.11217
514.289	1.51089
516.041	1.81335
517.793	1.03202
519.546	1.28411
521.297	1.34686
523.047	0.563341
524.797	1.09468
526.547	0.499303
528.297	0.678259
530.046	0.880261
531.795	1.36251
533.543	1.23443
535.291	1.19838
537.039	1.20711
538.787	-0.257065
540.534	1.07877
542.281	0.476978
544.027	0.783355
545.773	0.461456
547.519	1.06886
549.264	0.168255
551.01	0.381438
552.754	-0.122751
554.499	0.899384
556.243	0.280773
557.987	1.07055
559.73	0.292779
561.474	0.898263
563.216	0.330404
564.959	-0.0290108
566.701	0.899201
568.441	-0.215907
570.182	0.208882
571.923	-0.076088
573.664	0.558684
575.405	0.00286865
577.145	-0.183843
578.885	0.0442142
580.624	-0.461473
582.361	-0.0713539
584.1	0.2265
585.839	0.316259
587.577	-0.354747
589.315	0.2838
591.052	0.391976
592.787	0.936537
594.524	0.215405
596.26	-0.0225468
597.997	0.843763
599.732	0.260159
601.466	0.963739
603.201	0.377402
604.936	-0.53242
606.67	0.188296
608.403	0.447803
610.136	0.362455
611.87	-0.295686
613.603	0.35468
615.334	0.0657291
617.067	0.166707
618.799	0.450161
620.529	-0.389707
622.26	-0.383836
623.991	0.078063
625.72	-0.557279
627.451	0.110745
629.181	0.232907
630.909	0.015852
632.638	0.166615
634.368	0.79818
636.095	-0.305249
637.823	0.301046
639.551	0.698218
641.277	-0.368753
643.005	0.613622
644.73	-0.752693
646.457	-0.000701904
648.184	0.616019
649.908	0.554602
651.634	-0.160564
653.357	-0.189008
655.083	0.150811
656.806	0.380466
658.53	0.15611
660.253	-0.571157
661.977	0.456749
663.7	0.134876
665.422	-0.259129
667.145	-0.0842104
668.865	0.890192
670.588	-0.330331
672.308	0.144349
674.027	-0.178751
675.749	0.0963964
677.468	0.144357
679.188	0.376441
680.907	0.745661
682.627	-0.0602188
684.345	0.442153
686.064	0.366571
687.781	-0.240933
689.498	0.370786
691.216	-0.101078
692.932	-0.504632
694.65	0.380714
696.366	0.596711
698.081	0.0973406
699.797	0.494081
701.512	0.566902
703.228	0.454432
704.942	0.226319
706.655	0.617492
708.371	0.663473
710.083	0.342259
711.796	0.387393
713.51	0.317624
715.222	-0.323601
716.934	0.497522
718.645	0.153877
720.358	1.3381
722.068	1.08587
723.779	1.24371
725.49	0.810022
727.2	0.967286
728.909	0.442913
730.618	0.417679
732.329	1.43379
734.037	0.230278
735.745	0.837478
737.453	0.608462
739.16	0.0874844
740.869	0.380141
742.576	0.921763
744.282	0.518991
745.988	0.411066
747.694	0.597544
749.401	0.875692
751.107	0.750728
752.811	1.3923
754.516	1.33857
756.22	1.93955
757.924	1.05726
759.627	1.00963
761.332	1.93299
763.035	1.61762
764.738	1.70792
766.44	2.45207
768.142	1.65727
769.843	1.55979
771.544	2.72578
773.245	2.41982
774.946	2.47495
776.646	2.23689
778.346	2.49813
780.046	2.26418
781.745	2.28068
783.444	1.93543
785.143	2.58451
786.841	1.6911
788.539	1.69881
790.237	1.58884
791.934	2.01763
793.631	2.19492
795.328	1.7172
797.024	1.91774
798.72	0.859066
800.416	1.73995
802.112	1.36209
803.807	1.143
805.502	1.3286
807.196	1.37816
808.89	1.85278
810.584	1.83145
812.278	1.38277
813.971	2.23357
815.664	1.69459
817.354	1.80518
819.047	1.87097
820.739	1.62427
822.43	1.93633
824.122	1.73622
825.813	1.93944
827.503	1.36586
829.192	1.33088
830.882	1.07733
832.571	0.894399
834.261	1.18233
835.95	0.847556
837.637	1.18177
839.325	1.26926
841.013	2.02481
842.701	1.63948
844.389	1.61078
846.074	1.56063
847.761	2.04951
849.447	1.37898
851.131	1.60665
852.817	1.23238
854.503	1.39724
856.188	1.47249
857.871	1.11927
859.556	0.853222
861.24	1.62014
862.922	1.034
864.606	1.21184
866.289	1.09547
867.97	1.65466
869.653	1.10835
871.336	0.561419
873.016	0.848838
874.698	1.13626
876.379	0.882202
878.058	0.673288
879.739	0.915682
881.418	0.615897
883.098	1.01501
884.778	0.351696
886.456	1.19893
888.135	0.441669
889.812	1.30663
891.49	1.17693
893.167	0.955506
894.845	0.125265
896.523	0.464106
898.198	1.07047
899.875	0.619925
901.55	1.28964
903.226	0.256231
904.901	0.432048
906.576	0.76397
908.25	0.962211
909.925	1.11667
911.598	1.20539
913.271	0.605975
914.945	0.0970497
916.617	1.14208
918.291	0.655849
919.962	1.07855
921.635	0.970304
923.306	1.1291
924.978	0.605144
926.648	0.19474
928.318	0.0518446
929.989	0.638937
931.659	0.962067
933.328	0.447253
934.998	0.528406
936.666	1.07331
938.336	0.472528
940.004	0.182182
941.671	-0.636022
943.34	0.576479
945.007	0.487288
946.673	0.771894
948.339	0.391875
950.007	0.141809
951.672	0.331482
953.337	1.11655
955.004	0.183386
956.669	-0.0182648
958.333	0.247541
959.997	1.40032
961.662	0.524894
963.326	0.576552
964.989	1.04632
966.651	0.517245
968.315	0.360286
969.977	0.731416
971.639	0.216414
973.301	0.586778
974.962	1.62246
976.624	0.515623
978.285	0.782086
979.945	0.551847
981.605	0.321044
983.264	0.940721
984.924	0.428804
986.583	1.28641
988.243	0.21613
989.901	0.759346
991.56	0.682254
993.217	0.781726
994.875	0.969535
996.532	0.892594
998.188	1.12445
999.845	1.26761
1001.5	1.07975
1003.16	0.451406
1004.81	0.945086
1006.47	1.15223
1008.12	0.524796
1009.78	0.491226
1011.43	1.18205
1013.09	0.974113
1014.74	0.000408173
1016.39	1.04243
1018.05	0.749397
1019.7	0.632777
1021.35	1.08619
1023	2.10929
1024.65	2.23747
1026.31	2.89104
1027.96	2.1462
1029.61	1.66285
1031.26	2.75042
1032.91	2.48124
1034.56	3.27883
1036.21	1.93649
1037.86	1.1831
1039.51	1.91098
1041.16	0.855096
1042.8	1.75893
1044.45	1.73013
1046.1	1.74775
1047.75	1.98545
1049.39	1.94336
1051.04	0.904114
1052.69	0.778207
1054.33	0.848401
1055.98	1.28818
1057.62	1.81474
1059.27	1.12323
1060.91	0.604613
1062.56	0.758972
1064.2	1.21647
1065.85	0.802794
1067.49	0.648582
1069.13	0.927641
1070.77	1.11868
1072.42	1.4613
1074.06	1.02321
1075.7	0.239882
1077.34	1.10701
1078.98	1.19508
1080.62	1.56625
1082.27	0.593069
1083.91	1.20164
1085.55	1.30917
1087.18	0.416986
1088.82	0.90873
1090.46	0.899626
1092.1	1.49411
1093.74	1.71957
1095.38	1.62123
1097.02	1.67519
1098.65	0.869497
1100.29	1.682
1101.93	1.1194
1103.56	0.624374
1105.2	0.411106
1106.84	1.16663
1108.47	1.01842
1110.11	0.825772
1111.74	0.65254
1113.38	0.520158
1115.01	1.05168
1116.64	1.00238
1118.28	1.01761
1119.91	1.22663
1121.54	1.60818
1123.18	1.54153
1124.81	1.36947
1126.44	0.749685
1128.07	0.901203
1129.7	0.9682
1131.33	1.07881
1132.97	0.698201
1134.6	0.509908
1136.23	1.04751
1137.86	0.408226
1139.49	0.557998
1141.11	0.40734
1142.74	0.405487
1144.37	-0.38534
1146	0.381767
1147.63	0.211926
1149.26	0.213876
1150.88	0.40826
1152.51	0.538739
1154.14	0.157763
1155.76	0.244708
1157.39	0.352703
1159.01	0.142083
1160.64	-0.471291
1162.27	0.107718
1163.89	-0.0135822
1165.51	-0.240438
1167.14	0.0852499
1168.76	0.0481262
1170.39	0.0512896
1172.01	0.561722
1173.63	0.602033
1175.25	0.789036
1176.88	0.423808
1178.5	-0.385417
1180.12	0.119871
1181.74	-0.389677
1183.36	0.0325708
1184.98	-0.158294
1186.6	0.579021
1188.22	-0.0795031
1189.84	0.0193586
1191.46	0.641779
1193.08	0.272314
1194.7	0.238642
1196.32	0.247011
1197.94	0.863832
1199.55	0.93781
1201.17	-0.322235
1202.79	-0.282126
1204.41	0.116192
1206.02	0.225077
1207.64	0.127183
1209.25	0.592994
1210.87	0.119119
1212.48	0.352141
1214.1	0.352757
1215.71	-0.0452948
1217.33	-0.174647
1218.94	0.255966
1220.56	0.519427
1222.17	0.76254
1223.79	0.799734
1225.4	0.67336
1227.01	0.963151
1228.62	1.31669
1230.23	0.968799
1231.85	1.96644
1233.46	1.27072
1235.07	1.63096
1236.68	0.773505
1238.29	1.5091
1239.9	1.5016
1241.51	0.935959
1243.12	1.36267
1244.73	2.03678
1246.34	1.07482
1247.94	1.37366
1249.55	1.54722
1251.16	1.36861
1252.77	1.39716
1254.37	1.73697
1255.98	1.78876
1257.59	1.86304
1259.2	1.19412
1260.8	1.74735
1262.41	1.55622
1264.01	1.11644
1265.62	2.45796
1267.22	1.58132
1268.83	2.17493
1270.43	1.95855
1272.03	1.86505
1273.64	2.12251
1275.24	2.21262
1276.85	2.6536
1278.45	1.64302
1280.05	2.28883
1281.65	3.01642
1283.25	2.17122
1284.85	2.63033
1286.46	2.42892
1288.06	2.29116
1289.66	2.34081
1291.26	2.90784
1292.86	2.77219
1294.46	2.57352
1296.06	3.73614
1297.66	2.95491
1299.25	2.29572
1300.85	2.93402
1302.45	2.68366
1304.05	3.3584
1305.65	2.34484
1307.24	2.83186
1308.84	2.61986
1310.43	1.73203
1312.03	2.34107
1313.63	2.86817
1315.22	2.2106
1316.82	2.61727
1318.41	2.63653
1320.01	2.49256
1321.6	2.63273
1323.2	1.89538
1324.79	2.23446
1326.38	2.16466
1327.98	2.45914
1329.57	2.79407
1331.16	1.67432
1332.76	2.17644
1334.35	2.64058
1335.94	2.17834
1337.53	1.69732
1339.12	2.20368
1340.71	1.49856
1342.3	2.3412
1343.89	1.71187
1345.48	1.98586
1347.07	2.29932
1348.66	1.67303
1350.25	2.43229
1351.84	2.03411
1353.43	1.89923
1355.01	1.34661
1356.6	1.71405
1358.19	1.66122
1359.77	1.8867
1361.36	0.6734
1362.95	1.53483
1364.53	1.35808
1366.12	0.803279
1367.71	1.56444
1369.29	0.654429
1370.88	0.662305
1372.46	0.890872
1374.04	1.24027
1375.63	1.53092
1377.21	0.906392
1378.8	0.878194
1380.38	0.709395
1381.96	1.65294
1383.54	1.20213
1385.13	0.968958
1386.71	0.596275
1388.29	1.15744
1389.87	0.865424
1391.45	0.554966
1393.03	0.404428
1394.61	0.670993
1396.19	0.580296
1397.77	1.10327
1399.35	1.22824
1400.93	-0.0345793
1402.51	0.445076
1404.09	1.2011
1405.67	1.79881
1407.24	1.23099
1408.82	0.546214
1410.4	1.06748
1411.98	0.225867
1413.55	0.232899
1415.13	1.14642
1416.71	0.874674
1418.28	1.43047
1419.86	1.25718
1421.43	1.12482
1423.01	1.6639
1424.58	1.69326
1426.16	1.21266
1427.73	1.93343
1429.31	1.76817
1430.88	2.17246
1432.45	2.26017
1434.02	2.56284
1435.6	2.8843
1437.17	2.9109
1438.74	2.95818
1440.31	3.08551
1441.88	3.3911
1443.45	3.16711
1445.03	3.06161
1446.6	3.32979
1448.17	3.49994
1449.74	3.51325
1451.3	3.62553
1452.87	3.30599
1454.44	3.49833
1456.01	3.13979
1457.58	3.0557
1459.15	3.26499
1460.72	3.98338
1462.28	2.5542
1463.85	2.67721
1465.42	2.4447
1466.98	1.89757
1468.55	2.09754
1470.12	1.31728
1471.68	1.7554
1473.25	1.35132
1474.81	1.69361
1476.38	1.87951
1477.94	1.79105
1479.51	1.40847
1481.07	1.57463
1482.63	1.95618
1484.2	1.45568
1485.76	1.95401
1487.32	1.96143
1488.88	1.92789
1490.45	2.06796
1492.01	1.81375
1493.57	1.06865
1495.13	1.23973
1496.69	1.35044
1498.25	0.779395
1499.81	1.24054
1501.37	1.39137
1502.93	1.29134
1504.49	0.979572
1506.05	0.765532
1507.61	1.57612
1509.17	0.760889
1510.73	-0.111904
1512.28	0.596661
1513.84	0.860208
1515.4	0.431257
1516.96	0.906436
1518.51	-0.171829
1520.07	0.706927
1521.63	0.608171
1523.18	1.31204
1524.74	0.753204
1526.29	0.175383
1527.85	0.112054
1529.4	0.561602
1530.96	0.668015
1532.51	0.414466
1534.06	0.863339
1535.62	0.87738
1537.17	0.590287
1538.72	0.682174
1540.28	0.397222
1541.83	0.320174
1543.38	0.56309
1544.93	0.692463
1546.48	0.0136309
1548.03	0.93086
1549.59	0.627764
1551.14	0.73744
1552.69	0.828795
1554.24	-0.0507898
1555.79	0.958974
1557.34	0.438981
1558.88	0.388293
1560.43	0.992846
1561.98	1.24483
1563.53	0.677408
1565.08	0.446416
1566.62	0.924609
1568.17	1.32798
1569.72	1.02164
1571.27	1.0134
1572.81	1.22878
1574.36	1.03326
1575.9	1.71512
1577.45	1.14646
1579	0.932949
1580.54	0.794797
1582.09	1.19911
1583.63	1.64201
1585.17	1.07697
1586.72	1.70863
1588.26	2.06043
1589.8	1.7199
1591.35	1.92137
1592.89	2.04742
1594.43	1.68612
1595.97	2.24267
1597.52	2.89378
1599.06	2.74003
1600.6	2.84969
1602.14	2.75365
1603.68	2.16925
1605.22	1.9967
1606.76	1.23967
1608.3	1.85195
1609.84	2.04783
1611.38	1.60174
1612.92	2.07366
1614.46	1.98024
1615.99	1.60495
1617.53	1.56806
1619.07	1.96352
1620.61	2.02344
1622.14	2.16001
1623.68	1.17435
1625.22	1.66779
1626.75	1.13081
1628.29	1.62151
1629.82	1.99783
1631.36	1.86773
1632.9	2.05472
1634.43	1.98048
1635.96	2.22449
1637.5	2.46947
1639.03	2.52867
1640.57	2.97926
1642.1	2.92568
1643.63	2.14445
1645.16	2.6465
1646.7	2.55154
1648.23	3.64546
1649.76	3.17851
1651.29	3.47433
1652.82	3.53044
1654.36	3.21727
1655.89	3.16472
1657.42	2.55626
1658.95	2.8733
1660.48	3.13276
1662.01	2.40938
1663.53	3.01642
1665.06	2.73507
1666.59	2.12237
1668.12	2.93203
1669.65	3.06065
1671.18	1.91985
1672.7	3.10214
1674.23	2.42451
1675.76	1.98627
1677.29	2.72515
1678.81	2.39499
1680.34	2.35791
1681.86	1.98906
1683.39	1.78546
1684.91	1.39866
1686.44	1.65461
1687.96	1.12266
1689.49	1.76417
1691.01	1.08702
1692.54	0.77663
1694.06	1.2164
1695.58	0.649983
1697.11	0.540637
1698.63	0.558819
1700.15	0.685946
1701.67	0.611641
1703.2	0.974125
1704.72	1.33535
1706.24	0.694627
1707.76	0.799978
1709.28	0.923162
1710.8	0.991758
1712.32	-0.372083
1713.84	0.0239487
1715.36	0.36507
1716.88	0.651267
1718.4	0.340391
1719.91	0.282733
1721.43	0.387711
1722.95	0.853725
1724.47	0.113101
1725.99	-0.0309286
1727.5	0.906691
1729.02	1.12506
1730.54	0.641846
1732.05	0.395493
1733.57	-0.230749
1735.09	-0.0630665
1736.6	0.022295
1738.12	0.32459
1739.63	0.604033
1741.15	0.51799
1742.66	0.512807
1744.18	0.223281
1745.69	0.21047
1747.2	0.649492
1748.72	0.0792656
1750.23	-0.156271
1751.74	-0.280698
1753.25	0.10975
1754.77	0.217261
1756.28	-0.0648451
1757.79	0.0692244
1759.3	0.0820923
1760.81	0.0558643
1762.32	-0.194616
1763.83	0.0706558
1765.34	0.181386
1766.85	-0.296904
1768.36	0.118907
1769.87	0.307518
1771.38	-0.0118418
1772.89	-0.0350828
1774.4	0.17029
1775.91	0.0793962
1777.41	-0.646143
1778.92	-0.0839977
1780.43	-0.101158
1781.94	-0.122648
1783.44	-0.28735
1784.95	0.273015
1786.45	0.208725
1787.96	0.13121
1789.47	0.135001
1790.97	0.300218
1792.48	-0.0146961
1793.98	0.197491
1795.48	0.0944576
1796.99	-0.0466499
1798.49	0.385923
1800	0.0894995
1801.5	0.219222
1803	-0.099494
1804.51	0.202783
1806.01	0.427716
1807.51	-0.0967607
1809.01	-0.209608
1810.51	0.401575
1812.02	0.281769
1813.52	-0.186502
1815.02	-0.302331
1816.52	0.131483
1818.02	0.29681
1819.52	0.245974
1821.02	0.236373
1822.52	-0.0672665
1824.02	-0.12282
1825.51	0.0329571
1827.01	0.0340824
1828.51	0.184184
1830.01	0.183867
1831.51	0.0862942
1833	-0.0371618
1834.5	0.10742
1836	0.364321
1837.5	0.360346
1838.99	0.491342
1840.49	-0.1676
1841.98	-0.608879
1843.48	0.083724
1844.97	0.348131
1846.47	-0.134651
1847.96	0.00989819
1849.46	0.0658016
1850.95	0.360449
1852.45	0.325917
1853.94	-0.22417
1855.43	0.0746832
1856.92	0.116721
1858.42	0.0343504
1859.91	0.33647
1861.4	0.21379
1862.89	0.106538
1864.39	-0.292121
1865.88	0.10016
1867.37	0.149584
1868.86	0.0640793
1870.35	0.39397
1871.84	0.315519
1873.33	-0.0974741
1874.82	0.166919
1876.31	0.184513
1877.8	-0.297196
1879.29	0.34995
1880.77	-0.0354128
1882.26	0.319804
1882.51	0.412006
1884	-0.0419931
1885.5	-0.23517
1886.99	-0.342058
1888.48	0.142449
1889.98	-0.104109
1891.47	0.0506229
1892.97	-0.227634
1894.46	-0.0518036
1895.95	0.29963
1897.44	0.373872
1898.93	0.430623
1900.42	-0.0704937
1901.92	0.313747
1903.41	0.330593
1904.9	0.137139
1906.39	0.498925
1907.88	-0.0253534
1909.37	0.0763998
1910.86	-0.254674
1912.35	0.109293
1913.84	0.144205
1915.32	-0.0809069
1916.81	0.075099
1918.3	0.247746
1919.79	0.00392342
1921.28	0.0372696
1922.76	0.122978
1924.25	0.00186729
1925.74	-0.256452
1927.22	-0.0634975
1928.71	0.424548
1930.2	0.618292
1931.68	-0.366453
1933.17	0.0498514
1934.65	0.117792
1936.14	0.270277
1937.62	-0.166658
1939.11	0.0184698
1940.59	0.3936
1942.08	0.0444212
1943.56	0.0590086
1945.04	0.109035
1946.53	0.452515
1948.01	0.0717039
1949.49	0.120994
1950.97	0.151894
1952.45	-0.0419979
1953.94	-0.150317
1955.42	0.308462
1956.9	0.0114698
1958.38	-0.181435
1959.86	-0.116027
1961.34	0.224274
1962.82	-0.138235
1964.3	0.201799
1965.78	-0.246788
1967.26	0.0231714
1968.74	0.189445
1970.22	-0.0554132
1971.69	-0.129428
1973.17	0.103811
1974.65	-0.157806
1976.13	-0.350693
1977.61	-0.219523
1979.08	-0.037364
1980.56	0.365646
1982.03	0.223962
1983.51	0.421847
1984.99	0.75483
1986.46	0.238989
1987.94	0.605164
1989.41	0.0736132
1990.89	-0.253363
1992.36	0.148345
1993.84	0.229557
1995.31	0.37923
1996.78	0.191428
1998.26	-0.0131826
1999.73	-0.184369
2001.2	-0.00171185
2002.68	0.29828
2004.15	0.0583467
2005.62	0.678367
2007.09	0.304951
2008.56	-0.15133
2010.04	0.0164595
2011.51	-0.084548
2012.98	0.083828
2014.45	-0.0680542
2015.92	0.368118
2017.39	0.247979
2018.86	0.328722
2020.33	0.341536
2021.8	0.286988
2023.27	-0.069273
2024.74	0.448123
2026.2	0.11106
2027.67	0.127939
2029.14	0.0794001
2030.61	0.2001
2032.07	-0.0472345
2033.54	0.578751
2035.01	0.483055
2036.47	0.823622
2037.94	0.306788
2039.41	0.562359
2040.87	0.700298
2042.34	0.452005
2043.8	0.389447
2045.27	0.00815773
2046.73	0.401797
2048.2	-0.0123529
2049.66	0.617633
2051.12	0.454587
2052.59	0.121005
2054.05	0.324995
2055.51	0.223438
2056.98	0.457519
2058.44	0.639947
2059.9	0.299872
2061.36	0.819232
2062.82	1.18772
2064.29	0.46335
2065.75	1.12027
2067.21	0.66747
2068.67	1.1915
2070.13	1.21105
2071.59	1.34854
2073.05	0.980755
2074.51	1.06723
2075.97	0.78283
2077.43	0.969511
2078.88	0.903112
2080.34	0.819334
2081.8	0.90328
2083.26	0.902237
2084.72	0.950794
2086.17	0.964791
2087.63	1.65059
2089.09	1.25964
2090.54	1.38955
2092	1.65353
2093.46	1.53119
2094.91	1.27451
2096.37	1.45327
2097.82	1.89895
2099.28	1.50638
2100.73	1.53207
2102.19	1.54128
2103.64	1.45132
2105.09	2.26431
2106.55	2.34434
2108	1.94207
2109.46	2.35752
2110.91	2.00523
2112.36	2.25136
2113.81	1.92879
2115.27	2.22024
2116.72	2.32713
2118.17	2.15187
2119.62	2.47657
2121.07	2.98594
2122.52	2.71812
2123.97	2.3861
2125.42	2.55247
2126.87	3.11639
2128.32	3.03228
2129.77	3.5097
2131.22	3.62046
2132.67	3.79614
2134.12	3.27675
2135.57	3.32121
2137.01	3.81397
2138.46	3.87952
2139.91	3.8652
2141.36	4.20045
2142.8	4.33923
2144.25	3.8174
2145.7	3.74219
2147.14	4.14666
2148.59	4.33518
2150.03	4.09177
2151.48	4.34388
2152.92	4.56141
2154.37	4.77767
2155.81	5.19199
2157.26	4.71182
2158.7	5.5414
2160.15	4.96502
2161.59	4.92141
2163.03	5.07958
2164.48	4.69287
2165.92	4.75518
2167.36	5.56511
2168.8	4.62889
2170.25	5.13598
2171.69	5.45712
2173.13	4.84362
2174.57	4.64391
2176.01	5.42454
2177.45	4.97478
2178.89	5.02507
2180.33	4.8275
2181.77	4.44837
2183.21	4.30284
2184.65	4.90617
2186.09	4.17897
2187.53	4.64955
2188.97	4.95396
2190.41	4.3263
2191.84	4.56376
2193.28	4.28403
2194.72	4.18547
2196.16	4.21745
2197.59	4.09672
2199.03	4.13987
2200.47	3.69958
2201.9	3.42573
2203.34	4.03251
2204.78	3.2473
2206.21	3.3096
2207.65	3.38917
2209.08	3.2366
2210.51	3.03345
2211.95	2.77955
2213.38	3.16961
2214.82	3.64151
2216.25	2.92515
2217.68	2.90409
2219.12	2.423
2220.55	2.94904
2221.98	2.94756
2223.42	1.9896
2224.85	2.46331
2226.28	1.83172
2227.71	2.76087
2229.14	2.12626
2230.57	2.19743
2232	1.95679
2233.43	1.66795
2234.86	2.32904
2236.29	2.25526
2237.72	1.92246
2239.15	1.83725
2240.58	0.74333
2242.01	1.49497
2243.44	1.39995
2244.87	1.84367
2246.3	1.47104
2247.73	1.34119
2249.15	0.996898
2250.58	1.36716
2252.01	1.19756
2253.43	1.4338
2254.86	1.06882
2256.29	0.738607
2257.71	0.719833
2259.14	1.04505
2260.56	0.984309
2261.99	0.293388
2263.41	0.902874
2264.84	0.944681
2266.26	0.514596
2267.69	0.96164
2269.11	0.919757
2270.54	0.714133
2271.96	0.654357
2273.38	0.806079
2274.81	0.63217
2276.23	0.833178
2277.65	0.415185
2279.07	0.535031
2280.49	0.817952
2281.92	0.888838
2283.34	0.796515
2284.76	0.58998
2286.18	-0.0408087
2287.6	0.60202
2289.02	0.478097
2290.44	0.534292
2291.86	0.32931
2293.28	0.64764
2294.7	0.393578
2296.12	0.155578
2297.54	-0.0663033
2298.96	0.7274
2300.38	0.505852
2301.79	0.268029
2303.21	0.374822
2304.63	0.170033
2306.05	0.441234
2307.46	-0.109226
2308.88	0.276218
2310.3	0.31599
2311.71	0.256653
2313.13	-0.197653
2314.55	0.236994
2315.96	0.326989
2317.38	-0.0433598
2318.79	0.39413
2320.21	0.287572
2321.62	-0.0182943
2323.03	0.168757
2324.45	0.419312
2325.86	0.551765
2327.27	0.550281
2328.69	0.762166
2330.1	0.479885
2331.51	0.0342579
2332.93	0.380189
2334.34	0.183909
2335.75	0.168965
2337.16	0.0219831
2338.57	0.153539
2339.99	-0.176363
2341.4	0.314194
2342.81	0.17994
2344.22	-0.298564
2345.63	0.0105362
2347.04	0.270431
2348.45	-0.124711
2349.86	0.0855169
2351.26	-0.0159645
2352.67	-0.39599
2354.08	-0.0257273
2355.49	0.0985575
2356.9	0.108248
2358.31	0.0202856
2359.71	0.0463848
2361.12	0.33223
2362.53	-0.0796928
2363.94	0.0921946
2365.34	0.166588
2366.75	-0.37309
2368.15	-0.281366
2369.56	0.00484467
2370.97	0.227557
2372.37	0.387024
2373.78	0.161
2375.18	0.193159
2376.59	-0.338223
2377.99	0.191105
2379.39	0.0110607
2380.8	-0.0902061
2382.2	0.111876
2383.61	-0.0718689
2385.01	-0.383381
2386.41	-0.0227089
2387.81	0.338115
2389.22	-0.145496
2390.62	0.265239
2392.02	0.278666
2393.42	0.165913
2394.82	-0.168455
2396.22	0.0387516
2397.63	0.580262
2399.02	-0.164882
2400.43	-0.00365543
2401.82	-0.128045
2403.23	0.00175953
2404.62	-0.154675
2406.02	-0.296056
2407.42	0.132913
2408.82	0.00555992
2410.22	0.290107
2411.62	0.210206
2413.02	0.210453
2414.41	0.0696106
2415.81	0.563647
2417.21	0.0934505
2418.61	-0.122487
2420	-0.765719
2421.4	0.079689
2422.79	0.0536518
2424.19	-0.226195
2425.59	0.460574
2426.98	-0.0247154
2428.38	-0.0336895
2429.77	0.132799
2431.17	0.0939188
2432.56	-0.024189
2433.96	0.158794
2435.35	0.261264
2436.74	0.0443945
2438.14	0.143612
2439.53	0.209628
2440.92	0.433407
2442.32	0.0214548
2443.71	0.260091
2445.1	0.292141
2446.49	0.181304
2447.88	0.213045
2449.28	0.2289
2450.67	-0.0558434
2452.06	0.340787
2453.45	0.421559
2454.84	0.313409
2456.23	0.0795135
2457.62	-0.264717
2459.01	0.308308
2460.4	-0.147353
2461.79	-0.287472
2463.18	-0.159643
2464.57	0.204466
2465.96	0.0467901
2467.34	0.299568
2468.73	0.141824
2470.12	-0.000220299
2471.51	0.0938358
2472.89	0.423349
2474.28	0.279314
2475.67	0.260614
2477.05	0.241529
2478.44	0.191006
2479.83	-0.173101
2481.21	0.247536
2482.6	-0.0219259
2483.98	0.303426
2485.37	-0.123469
2486.75	0.0898457
2488.14	-0.213447
2489.52	0.262445
2490.9	0.238888
2492.29	-0.0172243
2493.67	0.00788784
2495.06	-0.12075
2496.44	-0.139337
2497.82	-0.0175915
2499.2	0.119758
2500.59	-0.191991
2501.97	-0.164068
2503.35	0.156162
2504.73	0.227996
2506.11	0.206544
2507.49	-0.107558
2508.88	-0.0364914
2510.26	0.203796
2511.63	0.321553
2513.01	0.210011
2514.39	-0.0995283
2515.77	0.051486
2517.15	-0.286368
2518.53	0.263471
2519.91	0.278091
2521.29	0.170231
2522.67	0.458634
2524.05	-0.230439
2525.42	0.345724
2526.8	-0.0234671
2528.18	-0.23949
2529.56	0.184554
2530.93	-0.0285292
2532.31	-0.133318
2533.69	-0.1151
2535.06	0.314067
2536.44	-0.0468216
2537.81	0.320791
2539.19	-0.330317
2540.56	-0.101342
2541.94	0.0815554
2543.31	0.310126
2544.69	0.281608
2546.06	0.497113
2547.44	0.0313702
2548.81	0.264298
2550.18	0.0270033
2551.56	0.259583
2552.93	0.40014
2554.3	-0.204022
2555.68	0.11653
2557.05	0.178474
2558.42	0.452514
2559.79	0.635728
2561.16	0.334445
2562.53	0.0642557
2563.9	0.234184
2565.28	0.359107
2566.64	0.272132
2568.02	-0.0117731
2569.38	-0.265399
2570.76	0.269094
2572.12	0.333784
2573.49	0.140874
2574.86	0.0541353
2576.23	0.134187
2577.6	0.411263
2578.97	0.369702
2580.34	0.100294
2581.7	-0.0634117
2583.07	-0.0758905
2584.44	0.33585
2585.81	0.00467682
2587.17	0.158698
2588.54	0.343194
2589.91	0.285305
2591.27	0.287893
2592.64	0.274816
2594	0.260872
2595.37	0.124668
2596.73	0.275052
2598.1	0.121849
2599.46	0.452206
2600.83	0.389403
2602.19	0.221487
2603.55	0.1903
2604.92	0.582245
2606.28	0.174639
2607.64	0.143947
2609.01	0.624804
2610.37	-0.0861292
2611.73	-0.315844
2613.09	0.385892
2614.46	0.0940008
2615.82	0.312604
2617.18	0.501009
2618.54	0.315288
2619.9	-0.0488443
2621.26	0.440654
2622.62	0.556461
2623.98	0.224391
2625.34	0.608961
2626.7	0.157643
2628.06	0.302643
2629.42	0.0450554
2630.78	-0.0784683
2632.14	0.169724
2633.5	0.298612
2634.86	0.486617
2636.22	0.333174
2637.57	0.0465851
2638.93	0.574835
2640.29	0.259111
2641.64	0.476337
2643	0.265119
2644.36	0.246284
2645.72	0.315886
2647.07	-0.116267
2648.43	0.0848913
2649.78	0.25539
2651.14	0.439497
2652.49	0.196972
2653.85	0.0725183
2655.2	0.520713
2656.56	0.691061
2657.91	0.203802
2659.27	0.595792
2660.62	0.198258
2661.97	0.0786238
2663.33	0.55732
2664.68	0.290097
2666.03	0.372458
2667.38	0.0898085
2668.74	0.244344
2670.09	0.355244
2671.44	0.277513
2672.79	0.229607
2674.14	0.182408
2675.49	0.411635
2676.84	0.162473
2678.2	-0.12933
2679.55	0.551368
2680.89	0.131087
2682.24	0.581999
2683.59	0.120743
2684.94	0.385528
2686.29	0.259204
2687.64	0.4084
2688.99	0.266027
2690.34	0.0782623
2691.69	0.425613
2693.04	0.176227
2694.38	0.332018
2695.73	0.385965
2697.08	0.121802
2698.43	0.3805
2699.77	0.452649
2701.12	0.150178
2702.46	0.0374708
2703.81	0.563357
2705.16	0.0609398
2706.5	0.413852
2707.85	0.0267286
2709.19	0.146913
2710.54	0.266766
2711.88	0.21207
2713.23	0.709344
2714.57	0.392839
2715.92	0.59949
2717.26	0.442476
2718.6	0.357823
2719.95	0.287262
2721.29	0.565446
2722.63	0.915919
2723.97	0.669101
2725.32	0.78565
2726.66	0.523313
2728	0.391616
2729.34	0.0850315
2730.68	0.607716
2732.02	0.664651
2733.36	0.532534
2734.7	0.429702
2736.04	0.239818
2737.39	0.980886
2738.72	0.442037
2740.06	0.382854
2741.4	0.25045
2742.74	0.437191
2744.08	0.303335
2745.42	0.314142
2746.76	0.542269
2748.1	0.247419
2749.44	0.504181
2750.77	0.253317
2752.11	0.307343
2753.45	0.390546
2754.78	0.213075
2756.12	0.31102
2757.46	-0.01085
2758.79	-0.013835
2760.13	0.301965
2761.47	0.18403
2762.8	0.34153
2764.14	0.224422
2765.47	0.179635
2766.81	0.0186176
2768.14	0.23273
2769.48	0.228438
2770.81	0.15031
2772.14	0.128557
2773.48	0.350991
2774.81	0.0678415
2776.14	-0.142863
2777.48	-0.122597
2778.81	-0.0299263
2780.14	0.249949
2781.47	-0.0733805
2782.81	0.163484
2784.14	-0.216749
2785.47	-0.180892
2786.8	-0.0303364
2788.13	-0.122815
2789.46	-0.0570278
2790.79	-0.0904951
2792.12	0.205712
2793.46	0.144873
2794.79	0.427094
2796.11	-0.0627699
2797.44	-0.0673008
2798.77	-0.200943
2800.1	0.0361242
2801.43	0.115748
2802.76	0.0809994
2804.09	-0.338782
2805.42	0.0532494
2806.74	0.0883007
2808.07	0.00881958
2809.4	0.29848
2810.73	0.488294
2812.05	0.564941
2813.38	0.330712
2814.71	0.551956
2816.03	0.0942926
2817.36	0.304099
2818.68	0.245224
2820.01	0.31391
2821.33	0.112807
2822.66	0.151917
2823.98	0.47368
2825.31	0.525758
2826.63	0.577836
2827.96	0.488863
2829.28	0.159857
2830.61	0.369317
2831.93	0.607291
2833.25	0.774397
2834.57	1.16757
2835.9	0.993991
2837.22	1.65464
2838.54	1.74861
2839.86	1.88469
2841.18	2.24702
2842.51	2.42591
2843.83	3.25568
2845.15	3.4503
2846.47	3.87186
2847.79	3.65796
2849.11	3.78326
2850.43	4.55834
2851.75	4.03238
2853.07	4.17
2854.39	3.81245
2855.71	3.85034
2857.03	4.39673
2858.35	4.37804
2859.67	4.20397
2860.98	4.4392
2862.3	5.23858
2863.62	4.56922
2864.94	4.49245
2866.25	5.02224
2867.57	5.31234
2868.89	5.17992
2870.21	5.8235
2871.52	5.91737
2872.84	5.46118
2874.15	5.53956
2875.47	6.32067
2876.78	5.93103
2878.1	5.89237
2879.42	6.31743
2880.73	6.4051
2882.04	6.21286
2883.36	6.4436
2884.67	6.39479
2885.99	6.55742
2887.3	6.50958
2888.61	6.5874
2889.93	6.81834
2891.24	6.44493
2892.55	6.65961
2893.87	6.17338
2895.18	6.90631
2896.49	7.10792
2897.8	7.05906
2899.11	7.01173
2900.42	7.52514
2901.74	7.07397
2903.05	7.37848
2904.36	7.96293
2905.67	7.82043
2906.98	7.88856
2908.29	7.98586
2909.6	8.28033
2910.91	8.39384
2912.22	8.35342
2913.53	8.36788
2914.83	9.17831
2916.14	8.92216
2917.45	9.76937
2918.76	9.52324
2920.07	10.2281
2921.37	10.1085
2922.68	10.0469
2923.99	10.0574
2925.3	10.433
2926.6	10.3204
2927.91	10.809
2929.22	11.0733
2930.52	11.0712
2931.83	10.9565
2933.13	11.093
2934.44	10.7402
2935.74	10.9886
2937.05	10.4687
2938.35	11.2766
2939.66	10.2823
2940.96	10.1832
2942.27	9.80584
2943.57	9.50013
2944.87	9.01458
2946.18	8.90807
2947.48	9.15219
2948.78	8.72433
2950.09	8.26654
2951.39	8.36614
2952.69	7.77689
2953.99	7.78778
2955.29	7.01422
2956.6	7.51575
2957.9	7.0543
2959.2	6.59642
2960.5	6.85637
2961.8	6.67091
2963.1	6.50032
2964.4	6.24455
2965.7	6.00063
2967	5.89483
2968.3	6.18084
2969.6	5.49571
2970.9	5.27426
2972.2	5.13753
2973.49	5.156
2974.79	4.61145
2976.09	4.48827
2977.39	4.43389
2978.69	3.84236
2979.98	4.36094
2981.28	3.80813
2982.58	3.78955
2983.88	3.44805
2985.17	3.5298
2986.47	3.02322
2987.76	2.92605
2989.06	2.97067
2990.36	2.60811
2991.65	2.83528
2992.95	2.1618
2994.24	2.07719
2995.54	1.61212
2996.83	1.82052
2998.12	1.55139
2999.42	1.6896
3000.71	1.3937
3002	1.35103
3003.3	0.832494
3004.59	1.25301
3005.88	0.91682
3007.18	1.08419
3008.47	0.80279
3009.76	0.786437
3011.05	0.168509
3012.35	0.24918
3013.64	0.720391
3014.93	0.438641
3016.22	0.0606089
3017.51	0.143364
3018.8	0.240572
3020.09	0.170957
3021.38	0.406794
3022.67	0.0997896
3023.96	0.33348
3025.25	-0.0163107
3026.54	0.174561
3027.83	0.296462
3029.12	-0.0782652
3030.41	-0.160608
3031.69	-0.282626
3032.98	0.0798502
3034.27	0.0975084
3035.56	0.00431728
3036.85	-0.0211573
3038.13	0.309751
3039.42	0.156364
3040.71	0.125383
3041.99	0.120995
3043.28	0.0481119
3044.57	0.0311975
3045.85	0.111927
3047.14	0.577492
3048.42	0.362569
3049.71	0.16401
3050.99	0.199403
3052.28	0.235838
3053.56	0.640801
3054.85	0.158303
3056.13	0.261444
3057.42	0.158926
3058.7	0.341852
3059.98	0.170367
3061.27	-0.000401497
3062.55	0.319812
3063.83	0.0975571
3065.11	0.0675564
3066.4	-0.00157928
3067.68	0.107247
3068.96	0.420672
3070.24	0.230819
3071.52	0.35294
3072.8	-0.165306
3074.09	-0.0999336
3075.37	-0.0490646
3076.65	0.259572
3077.93	0.283422
3079.21	-0.234135
3080.49	0.0642567
3081.77	-0.0153875
3083.05	0.0964022
3084.32	-0.0486584
3085.61	-0.125659
3086.88	0.21775
3088.16	0.12623
3089.44	0.210556
3090.72	-0.0854368
3092	-0.0964108
3093.27	-0.256246
3094.55	0.0997944
3095.83	-0.0861654
3097.11	0.20268
3098.38	0.0713739
3099.66	0.116311
3100.94	0.0393953
3102.21	-0.0913935
3103.49	-0.357016
3104.76	-0.16158
3106.04	0.264817
3107.31	0.0292187
3108.59	0.024991
3109.86	-0.316308
3111.14	0.0881414
3112.41	0.128169
3113.69	-0.075069
3114.96	0.0742168
3116.23	0.209766
3117.51	0.127659
3118.78	0.261609
3120.05	0.17758
3121.33	0.10637
3122.6	0.603992
3123.87	0.234228
3125.14	0.0683446
3126.42	0.10632
3127.69	0.496853
3128.96	0.414558
3130.23	0.332916
3131.5	0.495021
3132.77	0.292289
3134.04	0.818924
3135.31	0.588735
3136.58	0.412436
3137.85	0.627056
3139.12	0.437061
3140.39	0.503223
3141.66	0.784787
3142.93	0.448391
3144.2	0.757732
3145.47	0.544384
3146.74	0.278737
3148	0.255528
3149.27	0.742076
