200.388	-0.125553
202.204	-0.0919323
204.019	-0.0574379
205.832	0.537758
207.646	1.10858
209.459	0.924919
211.274	0.399916
213.087	0.213497
214.899	-0.241013
216.711	0.588912
218.524	1.00595
220.335	-0.00478268
222.146	0.462532
223.956	0.664649
225.766	0.263231
227.576	0.248785
229.388	0.185587
231.197	-0.554159
233.005	0.105518
234.813	0.982018
236.621	0.798926
238.429	-0.514006
240.236	0.659078
242.045	0.244457
243.852	0.0725622
245.658	0.359027
247.464	0.015933
249.269	0.152018
251.074	0.815012
252.879	0.0497618
254.683	0.392355
256.487	0.107026
258.291	-0.152935
260.094	0.745824
261.897	-0.521182
263.702	0.117221
265.504	-0.230746
267.306	0.891718
269.108	0.519673
270.909	-0.11886
272.71	-0.0598869
274.511	-0.075161
276.311	-0.0926371
278.111	0.224778
279.91	-0.592844
281.709	0.537421
283.508	-0.452979
285.306	0.406463
287.105	0.37499
288.9	0.583228
290.698	0.241043
292.495	0.667079
294.291	0.0660305
296.088	1.26075
297.884	0.0181961
299.679	-0.00434303
301.475	0.546107
303.27	0.354854
305.064	0.257505
306.858	0.683635
308.652	-0.154553
310.444	-0.0382299
312.237	-0.158689
314.03	1.00883
315.822	0.940428
317.615	1.01739
319.406	1.09653
321.198	0.438496
322.987	1.59315
324.778	1.05563
326.568	0.660815
328.358	0.647397
330.148	0.848154
331.935	0.975661
333.724	0.478812
335.513	0.912033
337.301	0.169539
339.089	0.357381
340.875	0.495051
342.662	0.201126
344.449	0.695761
346.236	-0.0992117
348.02	0.229414
349.806	0.176543
351.592	0.433974
353.375	1.28704
355.16	0.158204
356.944	0.888237
358.728	0.376444
360.51	0.601871
362.294	0.254517
364.077	-0.0933981
365.858	0.769874
367.64	0.419952
369.422	0.923096
371.202	0.500138
372.983	0.0297546
374.764	0.717866
376.543	1.30997
378.324	0.98177
380.102	0.843889
381.881	1.27272
383.661	1.70265
385.438	1.33461
387.216	1.10963
388.993	0.463484
390.771	0.922814
392.548	0.608116
394.324	1.16313
396.101	0.873197
397.875	0.254509
399.651	1.27961
401.425	0.284133
403.201	0.790987
404.974	0.873948
406.749	0.439192
408.524	0.801939
410.296	0.0138149
412.07	0.986103
413.841	0.292528
415.614	0.749679
417.385	0.59776
419.156	0.681306
420.928	0.389672
422.698	1.20085
424.469	0.72004
426.238	0.35525
428.009	0.364911
429.777	0.538133
431.548	0.0775013
433.315	0.227441
435.083	0.213472
436.852	0.293324
438.618	0.559975
440.387	-0.0905027
442.153	0.593756
443.919	0.360135
445.686	0.545918
447.451	0.542426
449.218	0.468036
450.982	0.0900831
452.746	0.810316
454.512	1.50631
456.275	1.22223
458.038	0.216395
459.803	1.05052
461.565	0.0936728
463.327	0.464698
465.091	0.327339
466.852	0.635206
468.613	0.807345
470.374	0.563648
472.136	0.623063
473.896	0.309048
475.655	0.504809
477.415	0.394876
479.176	0.934602
480.934	1.03021
482.692	0.49706
484.45	0.873732
486.21	0.36784
487.967	0.680144
489.724	0.832313
491.481	1.10285
493.237	1.02431
494.995	0.875753
496.75	1.05447
498.506	1.06908
500.26	0.989246
502.015	1.0257
503.771	0.591218
505.525	1.44721
507.279	0.679659
509.032	0.991423
510.785	1.79523
512.537	2.00865
514.289	1.27861
516.041	1.27606
517.793	1.27176
519.546	1.33651
521.297	1.32958
523.047	0.828753
524.797	1.26696
526.547	0.625511
528.297	1.53222
530.046	1.19577
531.795	0.343818
533.543	0.685558
535.291	1.84389
537.039	1.1988
538.787	1.11322
540.534	-2.57492e-005
542.281	0.472121
544.027	0.0119514
545.773	0.621686
547.519	0.116101
549.264	0.469731
551.01	0.660722
552.754	0.134427
554.499	0.233362
556.243	0.0323143
557.987	-0.352361
559.73	0.969211
561.474	0.792889
563.216	0.157583
564.959	-0.0852814
566.701	0.408043
568.441	0.144205
570.182	-0.577012
571.923	0.103383
573.664	-0.0860653
575.405	-0.135605
577.145	0.436535
578.885	0.29921
580.624	-0.45731
582.361	-0.0425158
584.1	0.946751
585.839	-0.226388
587.577	0.185395
589.315	0.618715
591.052	0.0614576
592.787	0.285707
594.524	0.2106
596.26	1.00978
597.997	0.543532
599.732	0.720991
601.466	0.276215
603.201	0.197877
604.936	-0.273175
606.67	-0.0791636
608.403	0.274289
610.136	0.14509
611.87	0.154236
613.603	-0.0190392
615.334	0.312942
617.067	0.186707
618.799	-0.283611
620.529	-0.50306
622.26	0.397083
623.991	0.403274
625.72	-0.367311
627.451	-0.131123
629.181	0.061655
630.909	0.0976715
632.638	0.638414
634.368	0.56458
636.095	0.216457
637.823	0.368279
639.551	0.0372534
641.277	0.0447569
643.005	0.0945587
644.73	0.506842
646.457	0.440927
648.184	-0.0316372
649.908	0.79552
651.634	-0.031148
653.357	0.0789204
655.083	0.466481
656.806	-0.235061
658.53	0.180167
660.253	0.550165
661.977	0.347899
663.7	0.028019
665.422	1.14495
667.145	-0.186944
668.865	0.492232
670.588	0.760672
672.308	-0.0894604
674.027	-0.0671492
675.749	0.416415
677.468	0.58143
679.188	0.425539
680.907	0.429009
682.627	0.0620413
684.345	0.267293
686.064	0.170705
687.781	0.11803
689.498	0.24817
691.216	1.06839
692.932	0.782091
694.65	0.471768
696.366	0.781993
698.081	0.261696
699.797	0.338383
701.512	0.34447
703.228	0.142395
704.942	1.40959
706.655	0.838159
708.371	0.565119
710.083	0.796107
711.796	-0.118484
713.51	0.797966
715.222	0.364189
716.934	1.07273
718.645	0.411397
720.358	0.617524
722.068	0.09482
723.779	1.23406
725.49	0.688882
727.2	0.59857
728.909	0.98441
730.618	0.62076
732.329	0.846139
734.037	0.957674
735.745	0.0519085
737.453	0.796779
739.16	1.04481
740.869	0.79778
742.576	0.642861
744.282	0.579988
745.988	0.856604
747.694	1.33737
749.401	0.987522
751.107	1.04438
752.811	1.39543
754.516	0.691092
756.22	0.708516
757.924	1.49354
759.627	1.3127
761.332	0.907772
763.035	0.999393
764.738	1.88115
766.44	2.15258
768.142	2.06006
769.843	2.14528
771.544	2.88339
773.245	2.78269
774.946	3.13347
776.646	2.08314
778.346	1.91644
780.046	2.2494
781.745	2.60685
783.444	1.60698
785.143	1.66903
786.841	1.61478
788.539	1.44313
790.237	1.6517
791.934	2.24043
793.631	2.17093
795.328	1.64991
797.024	1.62689
798.72	1.76379
800.416	1.45286
802.112	1.30173
803.807	1.51154
805.502	1.74352
807.196	1.72705
808.89	1.37215
810.584	1.28542
812.278	1.73573
813.971	1.75882
815.664	1.89344
817.354	1.91597
819.047	1.201
820.739	0.911733
822.43	2.81012
824.122	2.2764
825.813	1.45569
827.503	1.79692
829.192	2.03038
830.882	1.91171
832.571	1.797
834.261	1.50688
835.95	1.64169
837.637	1.59795
839.325	1.93225
841.013	1.97429
842.701	1.58996
844.389	0.623749
846.074	1.96013
847.761	1.3321
849.447	1.33318
851.131	1.67354
852.817	1.12072
854.503	1.2188
856.188	1.45173
857.871	1.32395
859.556	1.32876
861.24	0.948349
862.922	1.19611
864.606	1.21699
866.289	1.37189
867.97	1.4809
869.653	1.13826
871.336	0.862753
873.016	0.812512
874.698	1.52933
876.379	0.328189
878.058	0.842088
879.739	0.611108
881.418	0.785993
883.098	0.350443
884.778	0.97452
886.456	0.919508
888.135	0.253263
889.812	1.29943
891.49	1.37328
893.167	0.994808
894.845	0.390302
896.523	0.0777283
898.198	0.034008
899.875	0.594834
901.55	0.68282
903.226	0.501287
904.901	0.0517769
906.576	0.875978
908.25	1.32003
909.925	0.472595
911.598	0.629326
913.271	0.920054
914.945	1.32175
916.617	0.724563
918.291	1.08141
919.962	0.97277
921.635	0.865059
923.306	0.383284
924.978	0.898387
926.648	0.576409
928.318	-0.20653
929.989	1.04276
931.659	0.704007
933.328	0.56431
934.998	0.270507
936.666	1.01393
938.336	0.567489
940.004	0.0564861
941.671	1.53238
943.34	1.06822
945.007	0.471303
946.673	1.30756
948.339	-0.0438871
950.007	0.456345
951.672	1.04291
953.337	0.7028
955.004	0.938206
956.669	0.714236
958.333	0.626926
959.997	0.719954
961.662	0.594446
963.326	0.645558
964.989	0.606109
966.651	0.872834
968.315	0.405678
969.977	0.35604
971.639	1.34477
973.301	0.785669
974.962	1.17953
976.624	0.890373
978.285	0.957191
979.945	0.63781
981.605	0.317803
983.264	0.80398
984.924	0.977677
986.583	0.794341
988.243	0.652877
989.901	0.86362
991.56	-0.0539055
993.217	0.685951
994.875	-1.09143
996.532	0.464775
998.188	0.806479
999.845	0.640666
1001.5	1.04712
1003.16	1.12236
1004.81	0.73521
1006.47	0.568212
1008.12	0.840817
1009.78	1.15738
1011.43	0.684671
1013.09	0.783051
1014.74	1.60472
1016.39	0.390112
1018.05	0.9936
1019.7	0.67907
1021.35	2.11532
1023	1.67261
1024.65	1.73419
1026.31	2.16816
1027.96	1.85924
1029.61	1.28738
1031.26	1.67503
1032.91	2.47488
1034.56	2.24592
1036.21	1.55729
1037.86	1.95772
1039.51	1.29073
1041.16	0.756195
1042.8	1.63716
1044.45	1.60715
1046.1	1.34112
1047.75	1.81636
1049.39	1.77282
1051.04	0.884096
1052.69	1.6039
1054.33	1.67272
1055.98	1.02437
1057.62	1.20145
1059.27	1.48664
1060.91	0.705519
1062.56	0.901759
1064.2	1.24892
1065.85	0.877115
1067.49	1.17769
1069.13	1.23771
1070.77	1.1447
1072.42	1.52911
1074.06	0.720497
1075.7	1.12859
1077.34	0.844407
1078.98	1.34275
1080.62	1.60368
1082.27	1.56109
1083.91	1.27878
1085.55	1.94806
1087.18	1.6605
1088.82	1.30521
1090.46	1.25077
1092.1	1.45409
1093.74	2.08817
1095.38	0.542133
1097.02	0.897031
1098.65	0.671671
1100.29	1.07337
1101.93	0.509068
1103.56	0.420937
1105.2	0.936974
1106.84	0.808546
1108.47	0.679795
1110.11	0.958141
1111.74	1.0192
1113.38	1.01345
1115.01	0.962972
1116.64	0.697135
1118.28	1.76095
1119.91	0.489097
1121.54	1.16868
1123.18	1.01443
1124.81	0.733373
1126.44	1.28792
1128.07	1.43704
1129.7	0.988499
1131.33	0.434021
1132.97	0.991723
1134.6	0.779665
1136.23	0.630931
1137.86	0.288522
1139.49	1.22627
1141.11	0.838091
1142.74	0.172133
1144.37	0.616065
1146	0.527555
1147.63	0.184724
1149.26	-0.668003
1150.88	-0.0499086
1152.51	0.631834
1154.14	0.184442
1155.76	-0.156815
1157.39	-0.0937891
1159.01	0.182358
1160.64	0.161798
1162.27	0.504225
1163.89	-0.0662231
1165.51	-0.0193386
1167.14	0.176101
1168.76	0.497702
1170.39	-0.352089
1172.01	-0.162816
1173.63	0.0875864
1175.25	0.187436
1176.88	-0.603977
1178.5	0.512527
1180.12	-0.149758
1181.74	0.41698
1183.36	0.476593
1184.98	0.113664
1186.6	0.594626
1188.22	-0.29878
1189.84	-0.518659
1191.46	0.227926
1193.08	0.066474
1194.7	-0.599589
1196.32	0.203865
1197.94	0.880722
1199.55	0.0106688
1201.17	0.566429
1202.79	0.415078
1204.41	-0.170768
1206.02	0.456847
1207.64	-0.207335
1209.25	0.42239
1210.87	0.0498199
1212.48	0.82193
1214.1	0.21498
1215.71	0.0846958
1217.33	0.617873
1218.94	-0.410057
1220.56	0.203955
1222.17	0.672438
1223.79	-0.142926
1225.4	0.597923
1227.01	0.967419
1228.62	1.37988
1230.23	1.07018
1231.85	0.824387
1233.46	0.270348
1235.07	0.441439
1236.68	1.0069
1238.29	0.933097
1239.9	1.2738
1241.51	1.80113
1243.12	1.06629
1244.73	1.92336
1246.34	1.88935
1247.94	1.60553
1249.55	1.32065
1251.16	1.71804
1252.77	1.84671
1254.37	1.37656
1255.98	1.32163
1257.59	1.24775
1259.2	1.15479
1260.8	1.72542
1262.41	1.09614
1264.01	1.37794
1265.62	1.45218
1267.22	1.58762
1268.83	1.86692
1270.43	1.91672
1272.03	2.04794
1273.64	2.05323
1275.24	1.97415
1276.85	1.89374
1278.45	1.83289
1280.05	1.8126
1281.65	1.91605
1283.25	1.70922
1284.85	1.95827
1286.46	2.08438
1288.06	2.02594
1289.66	1.84487
1291.26	2.84244
1292.86	2.29011
1294.46	2.50123
1296.06	2.19408
1297.66	2.38023
1299.25	1.73848
1300.85	2.55916
1302.45	2.05834
1304.05	1.86569
1305.65	2.39194
1307.24	2.09484
1308.84	2.59803
1310.43	1.72705
1312.03	1.73873
1313.63	2.2423
1315.22	1.90858
1316.82	1.94432
1318.41	2.04205
1320.01	2.34339
1321.6	1.15598
1323.2	2.2682
1324.79	1.70874
1326.38	2.12305
1327.98	2.12995
1329.57	1.69208
1331.16	2.04624
1332.76	2.60488
1334.35	2.07565
1335.94	2.27599
1337.53	2.25513
1339.12	1.72949
1340.71	1.3634
1342.3	2.04142
1343.89	1.93123
1345.48	1.83973
1347.07	1.92894
1348.66	1.86008
1350.25	1.51465
1351.84	1.53335
1353.43	1.6949
1355.01	1.09873
1356.6	1.34271
1358.19	1.32629
1359.77	0.669598
1361.36	1.04992
1362.95	1.0696
1364.53	1.62702
1366.12	0.928851
1367.71	0.889657
1369.29	1.07108
1370.88	0.597572
1372.46	1.08121
1374.04	0.989282
1375.63	0.540121
1377.21	1.16564
1378.8	1.11397
1380.38	0.265046
1381.96	0.349674
1383.54	1.08878
1385.13	0.891689
1386.71	0.415977
1388.29	0.179181
1389.87	0.0823689
1391.45	0.165353
1393.03	0.864294
1394.61	0.908947
1396.19	0.279169
1397.77	-0.0339947
1399.35	0.682181
1400.93	0.584413
1402.51	1.15895
1404.09	0.6051
1405.67	0.823664
1407.24	1.33964
1408.82	0.315257
1410.4	0.457625
1411.98	0.93557
1413.55	0.149087
1415.13	1.07867
1416.71	0.862373
1418.28	0.507775
1419.86	0.547925
1421.43	1.43608
1423.01	0.869067
1424.58	0.678462
1426.16	1.3359
1427.73	0.950953
1429.31	1.39235
1430.88	1.79313
1432.45	1.89701
1434.02	2.05845
1435.6	1.8651
1437.17	1.90804
1438.74	2.8365
1440.31	2.21346
1441.88	2.84969
1443.45	2.56326
1445.03	2.65082
1446.6	2.56175
1448.17	2.33527
1449.74	3.32802
1451.3	2.61107
1452.87	3.31063
1454.44	3.02753
1456.01	2.82297
1457.58	2.57805
1459.15	2.84296
1460.72	2.47558
1462.28	2.24334
1463.85	2.42185
1465.42	2.04821
1466.98	1.7137
1468.55	2.65617
1470.12	1.83278
1471.68	1.8748
1473.25	1.38874
1474.81	1.60991
1476.38	1.98845
1477.94	2.38667
1479.51	1.94178
1481.07	2.06525
1482.63	1.8946
1484.2	1.86095
1485.76	2.2774
1487.32	2.16377
1488.88	2.10705
1490.45	1.79335
1492.01	2.21992
1493.57	1.62684
1495.13	1.75429
1496.69	1.37321
1498.25	1.01217
1499.81	1.50791
1501.37	0.683829
1502.93	0.347937
1504.49	0.614517
1506.05	0.668043
1507.61	0.33389
1509.17	0.617291
1510.73	-0.0277052
1512.28	0.426244
1513.84	0.397306
1515.4	0.29175
1516.96	0.455975
1518.51	0.505753
1520.07	0.67116
1521.63	0.128501
1523.18	0.69525
1524.74	0.495998
1526.29	1.13489
1527.85	0.837755
1529.4	0.920963
1530.96	0.377247
1532.51	0.840652
1534.06	0.584358
1535.62	0.311142
1537.17	0.757761
1538.72	0.317225
1540.28	0.952914
1541.83	0.589056
1543.38	0.432785
1544.93	1.21665
1546.48	0.68384
1548.03	0.489619
1549.59	1.02675
1551.14	0.420781
1552.69	0.546202
1554.24	0.653884
1555.79	1.2114
1557.34	0.669241
1558.88	0.559277
1560.43	0.134675
1561.98	0.346432
1563.53	0.970073
1565.08	1.09083
1566.62	0.465293
1568.17	0.735159
1569.72	0.537947
1571.27	1.01219
1572.81	0.739378
1574.36	1.21305
1575.9	1.7054
1577.45	1.37663
1579	0.189544
1580.54	1.15024
1582.09	1.49596
1583.63	0.983623
1585.17	1.53714
1586.72	0.689544
1588.26	0.664396
1589.8	1.36872
1591.35	1.58633
1592.89	0.829728
1594.43	1.55194
1595.97	2.18092
1597.52	2.32354
1599.06	1.96094
1600.6	2.46186
1602.14	2.11938
1603.68	1.64507
1605.22	1.31972
1606.76	1.95077
1608.3	1.33894
1609.84	1.8329
1611.38	1.27132
1612.92	1.81555
1614.46	1.45647
1615.99	1.56609
1617.53	0.813885
1619.07	1.20678
1620.61	1.20797
1622.14	1.34203
1623.68	1.19632
1625.22	1.631
1626.75	2.21426
1628.29	1.61676
1629.82	1.74715
1631.36	1.7451
1632.9	0.901928
1634.43	1.83348
1635.96	1.04855
1637.5	1.70157
1639.03	1.38548
1640.57	1.61016
1642.1	1.61031
1643.63	2.11176
1645.16	2.79704
1646.7	2.38292
1648.23	2.08038
1649.76	2.24296
1651.29	1.81281
1652.82	2.62749
1654.36	2.57164
1655.89	2.31288
1657.42	2.64714
1658.95	3.14678
1660.48	2.97764
1662.01	2.71408
1663.53	1.96857
1665.06	2.12845
1666.59	2.56534
1668.12	2.35755
1669.65	1.26729
1671.18	2.44631
1672.7	1.93142
1674.23	2.04361
1675.76	2.02658
1677.29	2.22933
1678.81	1.91531
1680.34	2.40912
1681.86	2.03762
1683.39	2.12516
1684.91	1.20335
1686.44	1.16342
1687.96	1.98556
1689.49	1.32348
1691.01	1.06523
1692.54	1.55766
1694.06	1.13493
1695.58	1.4071
1697.11	0.892928
1698.63	0.689316
1700.15	0.978136
1701.67	1.11997
1703.2	0.951015
1704.72	0.690502
1706.24	0.684521
1707.76	0.969027
1709.28	0.326534
1710.8	0.574501
1712.32	0.278251
1713.84	0.489996
1715.36	0.791978
1716.88	0.623068
1718.4	0.237374
1719.91	0.520361
1721.43	0.153503
1722.95	0.00425148
1724.47	0.252796
1725.99	0.466637
1727.5	0.375974
1729.02	0.0167027
1730.54	0.431524
1732.05	0.32531
1733.57	0.203033
1735.09	0.762172
1736.6	0.945654
1738.12	0.533813
1739.63	-0.00235939
1741.15	-0.365858
1742.66	0.686893
1744.18	-0.275693
1745.69	0.114537
1747.2	0.0736856
1748.72	0.263949
1750.23	0.279647
1751.74	0.122286
1753.25	-0.0467768
1754.77	0.324254
1756.28	0.585242
1757.79	-0.0851278
1759.3	-0.10228
1760.81	0.204073
1762.32	-0.0018425
1763.83	-0.216619
1765.34	0.161441
1766.85	0.113316
1768.36	0.262704
1769.87	0.339803
1771.38	-0.149916
1772.89	-0.0767698
1774.4	0.400617
1775.91	0.410084
1777.41	0.631363
1778.92	-0.00995255
1780.43	-0.027235
1781.94	0.0304422
1783.44	-0.148502
1784.95	-0.00385284
1786.45	-0.146997
1787.96	0.0623989
1789.47	-0.0723696
1790.97	0.348509
1792.48	0.0848913
1793.98	-0.324965
1795.48	-0.223198
1796.99	0.292237
1798.49	0.199441
1800	-0.168915
1801.5	0.0371418
1803	-0.107067
1804.51	0.23195
1806.01	0.0276356
1807.51	-0.226767
1809.01	-0.0731649
1810.51	0.187303
1812.02	-0.458705
1813.52	-0.0107002
1815.02	0.255494
1816.52	0.177894
1818.02	-0.172583
1819.52	0.0474176
1821.02	0.0996685
1822.52	0.0467749
1824.02	-0.101684
1825.51	0.208173
1827.01	0.187597
1828.51	-0.0131187
1830.01	0.00486279
1831.51	0.249153
1833	-0.205462
1834.5	0.266874
1836	0.250918
1837.5	0.106547
1838.99	0.258183
1840.49	0.605484
1841.98	0.0127344
1843.48	0.088521
1844.97	-0.0389929
1846.47	-0.0111876
1847.96	-0.0347767
1849.46	0.373832
1850.95	-0.0326052
1852.45	-0.0169563
1853.94	0.0203161
1855.43	-0.296878
1856.92	0.414702
1858.42	-0.18543
1859.91	0.412264
1861.4	0.614664
1862.89	0.311401
1864.39	-0.108651
1865.88	-0.0576982
1867.37	0.0980368
1868.86	0.00584126
1870.35	-0.0639429
1871.84	0.0131693
1873.33	0.0198383
1874.82	-0.157858
1876.31	0.151771
1877.8	0.297743
1879.29	-0.201653
1880.77	-0.174741
1882.26	0.0163612
1882.51	0.0502214
1884	-0.264611
1885.5	-0.00505829
1886.99	-0.0428457
1888.48	-0.0637846
1889.98	0.159077
1891.47	-0.156259
1892.97	0.538859
1894.46	0.0189676
1895.95	-0.134021
1897.44	-0.0947952
1898.93	0.0487003
1900.42	0.712976
1901.92	0.0184193
1903.41	-0.121444
1904.9	0.154327
1906.39	0.0640326
1907.88	0.00851154
1909.37	-0.133054
1910.86	-0.204041
1912.35	0.315825
1913.84	-0.308539
1915.32	0.107861
1916.81	0.367676
1918.3	0.141423
1919.79	-0.397109
1921.28	-0.433101
1922.76	-0.122313
1924.25	0.397067
1925.74	0.519505
1927.22	0.245049
1928.71	0.542687
1930.2	0.251603
1931.68	0.686855
1933.17	0.237232
1934.65	0.253079
1936.14	0.111218
1937.62	-0.0664644
1939.11	0.187501
1940.59	-0.12836
1942.08	-0.0632133
1943.56	0.244571
1945.04	-0.326317
1946.53	0.13793
1948.01	0.0501499
1949.49	0.185523
1950.97	-0.0936174
1952.45	-0.0637827
1953.94	-0.069047
1955.42	-0.349344
1956.9	0.0408821
1958.38	0.41426
1959.86	-0.0181351
1961.34	0.133498
1962.82	0.319517
1964.3	0.470905
1965.78	-0.405932
1967.26	-0.187255
1968.74	-0.243251
1970.22	-0.0776424
1971.69	0.25823
1973.17	0.115634
1974.65	-0.111926
1976.13	0.172359
1977.61	-0.327048
1979.08	-0.263975
1980.56	0.0881529
1982.03	0.694584
1983.51	-0.076088
1984.99	0.0196295
1986.46	0.097949
1987.94	0.125285
1989.41	0.288406
1990.89	-0.292521
1992.36	-0.2628
1993.84	0.00468445
1995.31	0.0701036
1996.78	0.271142
1998.26	0.286242
1999.73	-0.0536985
2001.2	0.129062
2002.68	-0.0768604
2004.15	-0.0130119
2005.62	0.270205
2007.09	0.419294
2008.56	-0.255684
2010.04	0.535316
2011.51	0.165211
2012.98	-0.0700865
2014.45	-0.373101
2015.92	0.0129509
2017.39	0.0613642
2018.86	0.377757
2020.33	0.00429916
2021.8	0.118065
2023.27	0.80279
2024.74	0.145593
2026.2	0.345678
2027.67	-0.0228672
2029.14	0.331552
2030.61	-0.184725
2032.07	0.172463
2033.54	-0.040308
2035.01	0.569632
2036.47	0.322797
2037.94	0.344042
2039.41	0.129532
2040.87	0.41917
2042.34	-0.265847
2043.8	0.496083
2045.27	0.620237
2046.73	0.223522
2048.2	0.348947
2049.66	0.339297
2051.12	0.143005
2052.59	0.400144
2054.05	0.87446
2055.51	0.250493
2056.98	0.248928
2058.44	0.516034
2059.9	0.968001
2061.36	0.595083
2062.82	0.189717
2064.29	0.980628
2065.75	0.661903
2067.21	0.832274
2068.67	0.246001
2070.13	0.804621
2071.59	0.58904
2073.05	1.11409
2074.51	1.06639
2075.97	1.00143
2077.43	1.28966
2078.88	0.802749
2080.34	0.904683
2081.8	1.0901
2083.26	1.00529
2084.72	0.784992
2086.17	0.900373
2087.63	1.28392
2089.09	0.843096
2090.54	1.24232
2092	1.37243
2093.46	1.26737
2094.91	1.63167
2096.37	1.39155
2097.82	1.48586
2099.28	1.59596
2100.73	1.72219
2102.19	1.38064
2103.64	1.52488
2105.09	1.60385
2106.55	2.18504
2108	1.83329
2109.46	1.89905
2110.91	2.29748
2112.36	2.64385
2113.81	2.05494
2115.27	2.24674
2116.72	2.05463
2118.17	2.77682
2119.62	2.81921
2121.07	2.4661
2122.52	3.02812
2123.97	2.96186
2125.42	2.89656
2126.87	2.66513
2128.32	2.81364
2129.77	2.54589
2131.22	2.72376
2132.67	3.08239
2134.12	3.22548
2135.57	3.33648
2137.01	3.43297
2138.46	3.68084
2139.91	3.8819
2141.36	3.88712
2142.8	3.82799
2144.25	3.8856
2145.7	4.00967
2147.14	3.70293
2148.59	3.66004
2150.03	3.73182
2151.48	4.2661
2152.92	4.43444
2154.37	4.80033
2155.81	4.90036
2157.26	4.73543
2158.7	4.8201
2160.15	4.95654
2161.59	4.30037
2163.03	4.98942
2164.48	4.08904
2165.92	4.31765
2167.36	4.62954
2168.8	4.45813
2170.25	3.73501
2171.69	4.75508
2173.13	4.52469
2174.57	4.54169
2176.01	4.74072
2177.45	5.03973
2178.89	4.47532
2180.33	4.82687
2181.77	4.4316
2183.21	4.60255
2184.65	4.39145
2186.09	4.54637
2187.53	4.51836
2188.97	3.57507
2190.41	4.04627
2191.84	3.93456
2193.28	3.92164
2194.72	3.55715
2196.16	3.88926
2197.59	3.86882
2199.03	3.7461
2200.47	3.70508
2201.9	3.64728
2203.34	3.55733
2204.78	3.28667
2206.21	3.08406
2207.65	3.41252
2209.08	3.24367
2210.51	2.51116
2211.95	2.32397
2213.38	2.96249
2214.82	3.10439
2216.25	2.37209
2217.68	2.89599
2219.12	2.95937
2220.55	2.38098
2221.98	2.49533
2223.42	2.60867
2224.85	2.27544
2226.28	2.23652
2227.71	2.11325
2229.14	2.03778
2230.57	2.28955
2232	1.4917
2233.43	2.08731
2234.86	1.91409
2236.29	1.90612
2237.72	1.75328
2239.15	1.61938
2240.58	1.30872
2242.01	1.42449
2243.44	1.68861
2244.87	0.876688
2246.3	1.10787
2247.73	0.603235
2249.15	1.18861
2250.58	0.858335
2252.01	1.25892
2253.43	0.649502
2254.86	1.14634
2256.29	0.881068
2257.71	0.716302
2259.14	0.928146
2260.56	0.445803
2261.99	1.52428
2263.41	0.803072
2264.84	0.390169
2266.26	0.33412
2267.69	1.25319
2269.11	1.08152
2270.54	0.69715
2271.96	1.17496
2273.38	1.27817
2274.81	1.07202
2276.23	0.572742
2277.65	0.80684
2279.07	0.715092
2280.49	0.509078
2281.92	0.53117
2283.34	0.487911
2284.76	0.591554
2286.18	0.254776
2287.6	0.701962
2289.02	0.659952
2290.44	0.814473
2291.86	0.626172
2293.28	0.35609
2294.7	0.298441
2296.12	0.633494
2297.54	0.477504
2298.96	0.53441
2300.38	0.575191
2301.79	0.435969
2303.21	0.362563
2304.63	0.223608
2306.05	0.839893
2307.46	0.421227
2308.88	0.231697
2310.3	-0.123092
2311.71	0.409686
2313.13	0.0706844
2314.55	0.159855
2315.96	0.134649
2317.38	-0.15331
2318.79	0.449082
2320.21	0.639543
2321.62	0.449394
2323.03	0.141432
2324.45	0.210386
2325.86	0.392256
2327.27	0.73694
2328.69	0.668324
2330.1	0.418809
2331.51	0.269341
2332.93	0.154179
2334.34	-0.453569
2335.75	-0.123086
2337.16	0.15742
2338.57	0.074975
2339.99	-0.38661
2341.4	0.087347
2342.81	-0.0142612
2344.22	0.0810213
2345.63	0.291204
2347.04	-0.0390558
2348.45	0.220413
2349.86	0.135602
2351.26	0.442349
2352.67	0.0615044
2354.08	-0.0586433
2355.49	0.44008
2356.9	0.237219
2358.31	0.522685
2359.71	0.287763
2361.12	0.00476074
2362.53	-0.11552
2363.94	0.201615
2365.34	-0.339449
2366.75	-0.442801
2368.15	0.0843592
2369.56	0.450374
2370.97	0.494946
2372.37	0.0738163
2373.78	0.459403
2375.18	-0.313827
2376.59	-0.266237
2377.99	0.407263
2379.39	0.0176153
2380.8	-0.068222
2382.2	0.213338
2383.61	0.108843
2385.01	-0.0276632
2386.41	0.0522738
2387.81	0.133026
2389.22	-0.430784
2390.62	0.345957
2392.02	0.247272
2393.42	0.0543852
2394.82	0.196616
2396.22	-0.0579224
2397.63	0.085741
2399.02	0.277636
2400.43	0.215836
2401.82	0.202063
2403.23	0.553614
2404.62	-0.000441551
2406.02	0.0956392
2407.42	-0.0315332
2408.82	0.237015
2410.22	0.267134
2411.62	0.392517
2413.02	0.233652
2414.41	0.345481
2415.81	0.316471
2417.21	0.241486
2418.61	0.246703
2420	0.442378
2421.4	0.384562
2422.79	-0.085598
2424.19	-0.0808525
2425.59	0.716262
2426.98	0.0402365
2428.38	-0.0802631
2429.77	0.212538
2431.17	0.63331
2432.56	0.356182
2433.96	-0.0647335
2435.35	-0.105912
2436.74	-0.402933
2438.14	0.0451145
2439.53	0.062727
2440.92	0.317499
2442.32	0.587345
2443.71	-0.301723
2445.1	-0.333752
2446.49	0.379232
2447.88	-0.255599
2449.28	-0.177076
2450.67	0.281615
2452.06	0.281536
2453.45	-0.11325
2454.84	-0.443647
2456.23	0.160088
2457.62	-0.0109901
2459.01	0.16575
2460.4	-0.4331
2461.79	0.200652
2463.18	-0.257431
2464.57	0.168932
2465.96	-0.163444
2467.34	0.183128
2468.73	-0.275373
2470.12	0.322974
2471.51	-0.372329
2472.89	0.0193844
2474.28	0.0476618
2475.67	0.31112
2477.05	-0.196426
2478.44	0.0191898
2479.83	-0.314591
2481.21	-0.130241
2482.6	0.382761
2483.98	0.158636
2485.37	0.277991
2486.75	-0.0572519
2488.14	0.324847
2489.52	0.284357
2490.9	-0.0519342
2492.29	0.266056
2493.67	-0.0366058
2495.06	-0.135517
2496.44	0.371606
2497.82	0.212911
2499.2	0.689356
2500.59	0.020155
2501.97	0.15476
2503.35	-0.0979853
2504.73	-0.135287
2506.11	-0.188609
2507.49	-0.0881872
2508.88	0.288857
2510.26	0.250903
2511.63	-0.2005
2513.01	0.13153
2514.39	0.326101
2515.77	0.398921
2517.15	0.304263
2518.53	0.0727272
2519.91	-0.158383
2521.29	-0.129905
2522.67	0.401514
2524.05	0.0771122
2525.42	0.0571976
2526.8	0.646111
2528.18	-0.134891
2529.56	0.470122
2530.93	0.073144
2532.31	0.134155
2533.69	0.272625
2535.06	0.229572
2536.44	-0.162943
2537.81	0.127449
2539.19	0.234426
2540.56	0.340399
2541.94	0.719059
2543.31	0.445349
2544.69	0.112063
2546.06	0.265602
2547.44	-0.216585
2548.81	0.424706
2550.18	0.155858
2551.56	-0.128787
2552.93	-0.475182
2554.3	0.51275
2555.68	0.0276585
2557.05	-0.0331402
2558.42	0.482133
2559.79	0.284924
2561.16	-0.017705
2562.53	0.423022
2563.9	0.0611792
2565.28	0.396903
2566.64	0.460127
2568.02	0.34159
2569.38	0.177567
2570.76	0.119612
2572.12	0.213251
2573.49	0.306985
2574.86	0.158261
2576.23	0.0853481
2577.6	0.61881
2578.97	0.742668
2580.34	-0.0285244
2581.7	0.139924
2583.07	0.33824
2584.44	0.339155
2585.81	0.415781
2587.17	-0.159226
2588.54	0.448183
2589.91	0.131195
2591.27	-0.26167
2592.64	0.360194
2594	0.556765
2595.37	0.312867
2596.73	-0.128801
2598.1	0.276259
2599.46	0.665285
2600.83	0.434431
2602.19	0.00806141
2603.55	-0.0246935
2604.92	0.501501
2606.28	0.605165
2607.64	0.0750618
2609.01	0.147328
2610.37	0.00728703
2611.73	-0.194231
2613.09	0.294989
2614.46	0.27163
2615.82	0.0529289
2617.18	-0.374961
2618.54	0.0522528
2619.9	-0.0591564
2621.26	0.0397387
2622.62	0.124118
2623.98	0.283289
2625.34	0.457089
2626.7	-0.443317
2628.06	0.251613
2629.42	0.0815334
2630.78	0.283413
2632.14	0.0983086
2633.5	-0.0865831
2634.86	0.515412
2636.22	0.582494
2637.57	-0.00256538
2638.93	0.227694
2640.29	0.324594
2641.64	0.392048
2643	0.444934
2644.36	-0.0482998
2645.72	0.314691
2647.07	0.219701
2648.43	0.21244
2649.78	0.248401
2651.14	0.592208
2652.49	0.185942
2653.85	0.176842
2655.2	0.461721
2656.56	0.366563
2657.91	0.668035
2659.27	0.165619
2660.62	0.556084
2661.97	0.522169
2663.33	0.0201912
2664.68	0.583444
2666.03	0.0510912
2667.38	0.568299
2668.74	0.167163
2670.09	0.378043
2671.44	-0.021472
2672.79	0.422982
2674.14	0.34481
2675.49	0.22382
2676.84	-0.0560274
2678.2	0.317699
2679.55	0.590634
2680.89	0.357239
2682.24	0.560167
2683.59	-0.134542
2684.94	-0.00174904
2686.29	0.886147
2687.64	0.177835
2688.99	0.251768
2690.34	0.106036
2691.69	0.538838
2693.04	0.418257
2694.38	0.427138
2695.73	0.102442
2697.08	0.0974073
2698.43	0.426857
2699.77	0.135459
2701.12	0.0197735
2702.46	0.398179
2703.81	0.285356
2705.16	0.89789
2706.5	0.0171108
2707.85	0.412169
2709.19	0.255445
2710.54	-0.00349998
2711.88	0.361711
2713.23	-0.0722475
2714.57	0.0894051
2715.92	0.411003
2717.26	0.354465
2718.6	0.283043
2719.95	0.036541
2721.29	0.458884
2722.63	0.109352
2723.97	0.676221
2725.32	0.602138
2726.66	0.221941
2728	0.21981
2729.34	0.188281
2730.68	0.520341
2732.02	0.51764
2733.36	0.311365
2734.7	0.061677
2736.04	0.0885878
2737.39	0.595576
2738.72	0.506206
2740.06	0.416547
2741.4	0.340887
2742.74	0.453474
2744.08	-0.00159931
2745.42	-0.26823
2746.76	0.249019
2748.1	0.286594
2749.44	0.150052
2750.77	0.521444
2752.11	-0.0785246
2753.45	0.20624
2754.78	-0.291361
2756.12	0.2543
2757.46	0.293026
2758.79	0.187248
2760.13	0.154304
2761.47	0.00614166
2762.8	-0.141468
2764.14	0.188758
2765.47	-0.059804
2766.81	0.284306
2768.14	0.120998
2769.48	0.390083
2770.81	-0.00753117
2772.14	-0.218475
2773.48	-0.170542
2774.81	0.237102
2776.14	-0.119446
2777.48	0.143839
2778.81	-0.45553
2780.14	0.326088
2781.47	0.0873871
2782.81	0.0500069
2784.14	-0.145173
2785.47	-0.139478
2786.8	0.424989
2788.13	0.330869
2789.46	-0.263024
2790.79	-0.0688086
2792.12	0.312024
2793.46	0.292932
2794.79	0.0309334
2796.11	0.254476
2797.44	0.234422
2798.77	-0.000452042
2800.1	-0.321262
2801.43	0.142496
2802.76	-0.150109
2804.09	0.455074
2805.42	-0.46488
2806.74	0.209747
2808.07	-0.0986795
2809.4	-0.705599
2810.73	-0.0618763
2812.05	0.297741
2813.38	0.275274
2814.71	-0.241709
2816.03	0.122042
2817.36	0.11846
2818.68	0.0446863
2820.01	-0.2275
2821.33	0.02423
2822.66	0.133443
2823.98	0.284398
2825.31	0.604839
2826.63	-0.179391
2827.96	0.311536
2829.28	0.335793
2830.61	-0.14902
2831.93	0.215779
2833.25	0.736194
2834.57	0.675859
2835.9	0.855537
2837.22	0.85057
2838.54	1.35432
2839.86	1.70198
2841.18	2.10615
2842.51	2.08661
2843.83	2.16685
2845.15	2.7568
2846.47	3.14971
2847.79	3.37356
2849.11	3.72468
2850.43	3.65139
2851.75	3.39366
2853.07	3.46032
2854.39	3.86556
2855.71	3.74767
2857.03	3.85581
2858.35	3.75214
2859.67	3.43664
2860.98	3.48814
2862.3	4.17448
2863.62	3.85792
2864.94	4.64175
2866.25	4.11325
2867.57	4.71358
2868.89	4.31318
2870.21	5.22461
2871.52	5.17749
2872.84	5.08773
2874.15	5.36332
2875.47	5.4823
2876.78	5.30398
2878.1	5.1106
2879.42	5.31081
2880.73	5.76424
2882.04	5.69858
2883.36	5.83112
2884.67	5.64207
2885.99	6.16992
2887.3	6.03803
2888.61	6.01783
2889.93	6.34722
2891.24	6.03012
2892.55	5.92265
2893.87	6.13723
2895.18	6.49219
2896.49	6.49813
2897.8	6.92545
2899.11	6.82249
2900.42	6.66482
2901.74	6.59182
2903.05	7.10666
2904.36	6.95028
2905.67	7.52168
2906.98	6.98893
2908.29	7.18473
2909.6	7.11602
2910.91	7.77585
2912.22	7.41416
2913.53	8.56326
2914.83	7.70841
2916.14	8.34902
2917.45	8.49722
2918.76	8.9936
2920.07	9.40551
2921.37	9.34282
2922.68	9.17026
2923.99	9.54506
2925.3	9.76787
2926.6	9.69815
2927.91	10.0339
2929.22	10.0756
2930.52	9.89279
2931.83	9.89099
2933.13	10.2942
2934.44	9.7888
2935.74	9.73094
2937.05	9.93889
2938.35	9.97944
2939.66	10.0205
2940.96	9.44747
2942.27	8.8618
2943.57	8.65519
2944.87	8.2548
2946.18	8.72303
2947.48	7.96135
2948.78	7.54869
2950.09	8.00224
2951.39	7.50126
2952.69	7.64166
2953.99	7.44402
2955.29	7.25991
2956.6	7.11911
2957.9	6.6873
2959.2	6.28716
2960.5	5.89055
2961.8	5.94487
2963.1	5.98639
2964.4	5.85882
2965.7	5.68708
2967	5.55515
2968.3	5.11208
2969.6	5.52557
2970.9	4.72953
2972.2	5.28415
2973.49	4.48862
2974.79	4.07277
2976.09	3.5856
2977.39	3.40657
2978.69	4.30966
2979.98	3.68998
2981.28	4.06809
2982.58	3.2778
2983.88	3.2619
2985.17	2.62905
2986.47	3.12256
2987.76	2.46567
2989.06	2.3019
2990.36	2.71473
2991.65	2.07301
2992.95	1.97823
2994.24	1.93824
2995.54	2.19192
2996.83	1.33542
2998.12	1.61619
2999.42	1.60251
3000.71	1.58956
3002	1.1429
3003.3	1.31366
3004.59	1.26041
3005.88	0.912877
3007.18	0.620975
3008.47	0.636275
3009.76	0.776461
3011.05	0.41266
3012.35	0.384076
3013.64	0.341672
3014.93	0.955084
3016.22	0.426259
3017.51	0.525585
3018.8	0.0550194
3020.09	0.433501
3021.38	0.435884
3022.67	0.201266
3023.96	-0.283787
3025.25	-0.0477762
3026.54	0.201481
3027.83	0.132658
3029.12	0.0238686
3030.41	0.428284
3031.69	-0.104969
3032.98	0.0538168
3034.27	-0.00782204
3035.56	0.261208
3036.85	-0.188344
3038.13	0.13233
3039.42	0.271468
3040.71	-0.099967
3041.99	0.654131
3043.28	-0.06036
3044.57	0.0631561
3045.85	-0.19444
3047.14	0.561945
3048.42	-0.359075
3049.71	0.128995
3050.99	-0.172664
3052.28	0.168167
3053.56	0.140724
3054.85	0.0172138
3056.13	0.561015
3057.42	0.149014
3058.7	0.445122
3059.98	0.754333
3061.27	0.0976086
3062.55	0.571731
3063.83	0.421822
3065.11	0.0428619
3066.4	0.114324
3067.68	0.839749
3068.96	0.505319
3070.24	0.0890751
3071.52	0.58322
3072.8	0.328099
3074.09	0.615582
3075.37	0.507845
3076.65	0.467915
3077.93	0.0350313
3079.21	0.21448
3080.49	0.0565996
3081.77	-0.13999
3083.05	0.139799
3084.32	-0.0949545
3085.61	0.0912266
3086.88	-0.225078
3088.16	-0.29767
3089.44	0.144938
3090.72	0.0986042
3092	-0.0562096
3093.27	0.128512
3094.55	0.381516
3095.83	0.173963
3097.11	0.522602
3098.38	0.640845
3099.66	0.0951405
3100.94	0.105241
3102.21	0.332304
3103.49	0.397314
3104.76	0.395426
3106.04	0.35401
3107.31	0.570988
3108.59	-0.0226145
3109.86	0.373159
3111.14	0.648605
3112.41	0.60028
3113.69	0.227365
3114.96	0.803354
3116.23	0.769215
3117.51	0.327402
3118.78	0.562716
3120.05	0.702064
3121.33	0.759187
3122.6	0.382185
3123.87	0.926632
3125.14	0.591021
3126.42	0.79784
3127.69	0.775422
3128.96	0.726843
3130.23	0.989929
3131.5	0.739666
3132.77	0.759941
3134.04	0.901636
3135.31	0.651384
3136.58	0.44161
3137.85	1.22951
3139.12	1.24823
3140.39	0.970942
3141.66	1.15176
3142.93	1.40009
3144.2	1.28638
3145.47	1.34832
3146.74	1.22361
3148	1.16709
3149.27	1.43303
