200.388	0.120239
202.204	0.132466
204.019	0.145399
205.832	-0.156597
207.646	0.2958
209.459	0.212744
211.274	0.128622
213.087	0.649974
214.899	-0.237452
216.711	-0.324351
218.524	0.582016
220.335	-0.52096
222.146	-0.508725
223.956	0.665122
225.766	-0.26381
227.576	0.0885668
229.388	0.440335
231.197	-0.174217
233.005	0.248839
234.813	0.59964
236.621	0.0116453
238.429	0.197698
240.236	-0.312222
242.045	0.337783
243.852	0.0974884
245.658	0.315635
247.464	0.145983
249.269	0.190522
251.074	0.424573
252.879	-0.117117
254.683	0.352781
256.487	0.411809
258.291	0.423596
260.094	-0.213052
261.897	0.212819
263.702	-0.0578337
265.504	0.0583334
267.306	-0.355126
269.108	-0.0458574
270.909	0.0697899
272.71	0.160065
274.511	-0.137021
276.311	0.552443
278.111	0.179071
279.91	0.598475
281.709	-0.453313
283.508	0.298052
285.306	-0.347163
287.105	-0.631979
288.9	0.402541
290.698	-0.00131607
292.495	0.506684
294.291	-0.0843925
296.088	-0.0513411
297.884	-0.0886307
299.679	0.0420494
301.475	-0.18574
303.27	0.731768
305.064	0.501516
306.858	0.437326
308.652	0.277587
310.444	0.499909
312.237	0.461577
314.03	0.258678
315.822	0.772504
317.615	0.407607
319.406	-0.43193
321.198	-0.364992
322.987	-0.106244
324.778	0.463634
326.568	1.01057
328.358	0.435088
330.148	-0.213547
331.935	0.28382
333.724	0.420728
335.513	0.555138
337.301	0.543174
339.089	0.337227
340.875	0.0577278
342.662	0.829252
344.449	-0.550406
346.236	-0.113108
348.02	-0.224431
349.806	0.214046
351.592	0.0318871
353.375	0.68438
355.16	0.524202
356.944	0.171795
358.728	1.03349
360.51	0.320881
362.294	0.560025
364.077	0.0131941
365.858	-0.343513
367.64	-0.0596237
369.422	-0.109262
371.202	-0.0176935
372.983	0.475058
374.764	1.50978
376.543	0.394094
378.324	0.861441
380.102	0.363169
381.881	0.455737
383.661	0.667436
385.438	0.551458
387.216	0.836679
388.993	1.02924
390.771	1.27005
392.548	1.13621
394.324	0.79191
396.101	0.800442
397.875	0.832644
399.651	0.794242
401.425	-0.231176
403.201	0.551251
404.974	1.00389
406.749	0.25789
408.524	0.849652
410.296	0.196703
412.07	0.271601
413.841	0.745914
415.614	0.259077
417.385	0.0313931
419.156	-0.172023
420.928	-0.281234
422.698	0.618661
424.469	-0.313183
426.238	0.397166
428.009	-0.607205
429.777	0.43014
431.548	-0.269549
433.315	-0.00651646
435.083	0.0222588
436.852	0.356179
438.618	0.313784
440.387	0.175814
442.153	-0.504019
443.919	-0.271452
445.686	-0.0414219
447.451	-0.000500679
449.218	0.296973
450.982	-0.317154
452.746	0.354117
454.512	0.324839
456.275	0.878315
458.038	0.0101395
459.803	0.702545
461.565	-0.0702324
463.327	0.345159
465.091	0.0429173
466.852	0.557555
468.613	-0.22573
470.374	0.667095
472.136	0.282044
473.896	0.594179
475.655	0.0193615
477.415	-0.0692339
479.176	-0.230014
480.934	0.516373
482.692	-0.0647659
484.45	1.33525
486.21	0.781404
487.967	0.32324
489.724	0.356985
491.481	0.462189
493.237	0.381574
494.995	0.160825
496.75	0.712042
498.506	0.982804
500.26	0.0809746
502.015	0.678907
503.771	0.642529
505.525	0.487139
507.279	0.494462
509.032	0.876261
510.785	1.11503
512.537	0.928224
514.289	0.739457
516.041	1.1371
517.793	1.3448
519.546	0.751729
521.297	1.21555
523.047	0.504056
524.797	0.990096
526.547	0.748373
528.297	0.694536
530.046	0.804692
531.795	0.937668
533.543	-0.100891
535.291	0.0534649
537.039	0.696648
538.787	-0.36749
540.534	1.20446
542.281	0.209458
544.027	0.705306
545.773	-0.426671
547.519	0.301021
549.264	1.12007
551.01	0.918694
552.754	0.0472107
554.499	0.0328112
556.243	0.734367
557.987	0.512609
559.73	-0.307111
561.474	-0.710336
563.216	0.198904
564.959	-0.133691
566.701	0.132207
568.441	0.100353
570.182	0.32227
571.923	-0.348957
573.664	0.541925
575.405	-0.354302
577.145	0.0591698
578.885	0.199135
580.624	-0.187997
582.361	-0.253629
584.1	0.714616
585.839	-0.111468
587.577	0.762709
589.315	0.531308
591.052	0.206625
592.787	0.249382
594.524	-0.58234
596.26	0.0124454
597.997	0.906292
599.732	0.304283
601.466	1.15058
603.201	-0.143906
604.936	0.422774
606.67	0.366881
608.403	0.516682
610.136	0.321819
611.87	0.219514
613.603	0.278801
615.334	0.155581
617.067	0.032711
618.799	0.344493
620.529	0.219764
622.26	0.0707378
623.991	0.0579729
625.72	-0.2061
627.451	0.855554
629.181	0.321206
630.909	0.0639591
632.638	0.151601
634.368	0.40044
636.095	0.329484
637.823	0.895604
639.551	0.0203514
641.277	0.259796
643.005	-0.233483
644.73	-0.0216455
646.457	0.394799
648.184	0.608282
649.908	0.848244
651.634	0.774997
653.357	0.865952
655.083	-0.175915
656.806	-0.0782442
658.53	0.704693
660.253	0.233889
661.977	0.44542
663.7	0.791517
665.422	0.426119
667.145	0.469645
668.865	1.01531
670.588	0.875677
672.308	0.0748014
674.027	0.054678
675.749	0.793569
677.468	0.571923
679.188	0.0515413
680.907	0.494501
682.627	0.913001
684.345	1.26022
686.064	0.200389
687.781	0.612036
689.498	0.469581
691.216	1.08632
692.932	0.688741
694.65	0.12903
696.366	0.996017
698.081	0.203539
699.797	0.100411
701.512	1.53685
703.228	0.648941
704.942	0.886722
706.655	0.457913
708.371	0.579595
710.083	1.29635
711.796	0.775162
713.51	0.986403
715.222	0.305754
716.934	1.29302
718.645	0.453666
720.358	1.50772
722.068	0.305728
723.779	0.516544
725.49	1.06785
727.2	0.800158
728.909	1.03166
730.618	0.944755
732.329	0.857502
734.037	0.905926
735.745	1.40636
737.453	1.40948
739.16	0.736651
740.869	1.19327
742.576	1.04254
744.282	0.961271
745.988	0.65683
747.694	0.646806
749.401	1.15577
751.107	1.64379
752.811	0.761439
754.516	1.70287
756.22	1.13892
757.924	1.4771
759.627	1.36697
761.332	1.32581
763.035	1.57863
764.738	1.9896
766.44	2.42228
768.142	1.6097
769.843	1.92426
771.544	1.91963
773.245	2.36532
774.946	2.92331
776.646	1.94444
778.346	2.23344
780.046	1.52946
781.745	2.45547
783.444	2.43186
785.143	1.70508
786.841	1.38264
788.539	2.0295
790.237	1.60841
791.934	1.88501
793.631	2.92666
795.328	1.64233
797.024	1.66869
798.72	1.56197
800.416	1.61524
802.112	1.8053
803.807	1.70376
805.502	1.51223
807.196	1.65692
808.89	1.41819
810.584	1.8964
812.278	2.03632
813.971	1.61509
815.664	1.7539
817.354	1.53452
819.047	1.58377
820.739	2.01275
822.43	2.4192
824.122	1.88959
825.813	1.20648
827.503	1.19488
829.192	1.25344
830.882	2.0507
832.571	1.93856
834.261	1.96288
835.95	1.67635
837.637	1.99187
839.325	0.988889
841.013	1.72539
842.701	1.1871
844.389	1.40766
846.074	1.18206
847.761	1.74103
849.447	1.87856
851.131	1.72843
852.817	1.22194
854.503	1.29901
856.188	1.53333
857.871	1.36206
859.556	1.30092
861.24	0.92218
862.922	1.05912
864.606	0.65369
866.289	0.968231
867.97	1.05664
869.653	1.27983
871.336	0.690616
873.016	1.52229
874.698	1.76742
876.379	0.794008
878.058	1.17455
879.739	0.561855
881.418	0.738727
883.098	0.892175
884.778	0.75083
886.456	1.01408
888.135	1.2301
889.812	1.37628
891.49	0.663952
893.167	1.09951
894.845	1.24035
896.523	0.570253
898.198	1.38244
899.875	1.29435
901.55	0.869365
903.226	0.46704
904.901	0.735956
906.576	0.937466
908.25	0.760245
909.925	0.762637
911.598	0.966372
913.271	0.414911
914.945	0.7087
916.617	0.824557
918.291	0.651976
919.962	1.14411
921.635	0.662619
923.306	1.1117
924.978	1.12035
926.648	0.888437
928.318	1.1665
929.989	0.541248
931.659	0.446638
933.328	0.484766
934.998	0.898059
936.666	0.936835
938.336	0.734057
940.004	0.951818
941.671	1.12705
943.34	0.7958
945.007	0.574622
946.673	1.14669
948.339	0.281731
950.007	0.981565
951.672	0.752827
953.337	0.98737
955.004	-0.0332394
956.669	0.823889
958.333	-0.0352459
959.997	0.410411
961.662	0.659832
963.326	0.467472
964.989	0.206532
966.651	0.274053
968.315	0.470959
969.977	1.46165
971.639	1.30061
973.301	0.697835
974.962	1.00361
976.624	0.205887
978.285	0.84763
979.945	0.804638
981.605	0.761184
983.264	0.627516
984.924	0.734941
986.583	0.330676
988.243	0.123534
989.901	0.843776
991.56	-0.0288544
993.217	0.00486851
994.875	0.193171
996.532	0.337263
998.188	0.878055
999.845	0.470367
1001.5	0.481117
1003.16	1.0635
1004.81	0.149205
1006.47	0.00520229
1008.12	1.24499
1009.78	0.33287
1011.43	-0.0950251
1013.09	0.267163
1014.74	0.344652
1016.39	0.33497
1018.05	0.632248
1019.7	1.01772
1021.35	0.639015
1023	0.742801
1024.65	0.978902
1026.31	0.756833
1027.96	0.731518
1029.61	1.84143
1031.26	1.57329
1032.91	1.52149
1034.56	1.20568
1036.21	1.45529
1037.86	1.22409
1039.51	0.492434
1041.16	0.415232
1042.8	1.25272
1044.45	0.614094
1046.1	0.738641
1047.75	1.19132
1049.39	0.386498
1051.04	1.14703
1052.69	0.388174
1054.33	0.629043
1055.98	0.652691
1057.62	0.828168
1059.27	0.546495
1060.91	0.503135
1062.56	0.154363
1064.2	0.000164986
1065.85	0.801274
1067.49	-0.116339
1069.13	0.225535
1070.77	0.805175
1072.42	0.754598
1074.06	0.574456
1075.7	0.80785
1077.34	0.869329
1078.98	1.32274
1080.62	0.823051
1082.27	1.5594
1083.91	0.906875
1085.55	0.924477
1087.18	1.37277
1088.82	0.431936
1090.46	0.204198
1092.1	0.342829
1093.74	0.696458
1095.38	1.30852
1097.02	1.48938
1098.65	0.465483
1100.29	1.16739
1101.93	0.149628
1103.56	0.877322
1105.2	0.487966
1106.84	0.637166
1108.47	-0.00969505
1110.11	1.08391
1111.74	0.455392
1113.38	1.02832
1115.01	-0.0755959
1116.64	0.258516
1118.28	0.913833
1119.91	0.41221
1121.54	0.533399
1123.18	0.741436
1124.81	0.0306015
1126.44	0.839927
1128.07	0.794492
1129.7	0.707234
1131.33	0.449718
1132.97	0.171264
1134.6	0.042345
1136.23	-0.00181293
1137.86	-0.431838
1139.49	0.0340605
1141.11	0.156711
1142.74	-0.190891
1144.37	0.528382
1146	0.480356
1147.63	0.60407
1149.26	-0.229897
1150.88	0.279096
1152.51	-0.298175
1154.14	-0.10914
1155.76	0.121849
1157.39	-0.136843
1159.01	0.115509
1160.64	0.496353
1162.27	-0.120839
1163.89	-0.35398
1165.51	-0.416376
1167.14	0.0525074
1168.76	0.286202
1170.39	0.262652
1172.01	-0.570636
1173.63	0.22965
1175.25	0.454419
1176.88	-0.0850525
1178.5	-0.136273
1180.12	0.448431
1181.74	-0.278075
1183.36	0.0119476
1184.98	0.217215
1186.6	0.209934
1188.22	-0.263546
1189.84	0.315314
1191.46	-0.0779753
1193.08	0.726255
1194.7	-0.131523
1196.32	0.124304
1197.94	-0.184808
1199.55	0.408249
1201.17	-0.438673
1202.79	0.953138
1204.41	0.447613
1206.02	-0.0130339
1207.64	-0.346637
1209.25	0.258925
1210.87	1.23876
1212.48	0.29773
1214.1	1.18845
1215.71	-0.298732
1217.33	0.793894
1218.94	0.345153
1220.56	-0.476525
1222.17	-0.258814
1223.79	0.146465
1225.4	0.470138
1227.01	-0.239335
1228.62	-0.0569687
1230.23	0.395587
1231.85	0.0638847
1233.46	0.312507
1235.07	0.252624
1236.68	0.607634
1238.29	0.55059
1239.9	0.597792
1241.51	0.190248
1243.12	0.919979
1244.73	0.904119
1246.34	1.32149
1247.94	0.889139
1249.55	0.559289
1251.16	0.766965
1252.77	1.22305
1254.37	0.852626
1255.98	0.690431
1257.59	-0.111544
1259.2	0.536048
1260.8	0.646965
1262.41	0.986362
1264.01	0.207458
1265.62	0.960977
1267.22	0.449612
1268.83	0.994184
1270.43	0.791138
1272.03	1.31242
1273.64	0.83715
1275.24	0.568015
1276.85	1.2096
1278.45	1.39397
1280.05	0.666286
1281.65	0.559727
1283.25	1.32226
1284.85	1.09221
1286.46	0.822124
1288.06	0.636179
1289.66	1.52607
1291.26	0.846028
1292.86	1.71565
1294.46	1.53052
1296.06	1.63293
1297.66	2.04276
1299.25	1.52146
1300.85	1.10189
1302.45	0.846137
1304.05	1.70091
1305.65	1.62787
1307.24	1.63643
1308.84	0.782866
1310.43	1.14027
1312.03	0.596582
1313.63	1.15934
1315.22	0.639311
1316.82	1.16266
1318.41	1.33911
1320.01	1.35209
1321.6	1.03798
1323.2	1.06845
1324.79	1.19825
1326.38	1.06195
1327.98	1.14825
1329.57	1.03247
1331.16	0.413333
1332.76	1.25301
1334.35	1.06447
1335.94	0.979231
1337.53	1.15705
1339.12	1.27342
1340.71	0.803392
1342.3	0.331471
1343.89	0.440985
1345.48	0.769668
1347.07	0.596254
1348.66	1.70727
1350.25	0.978203
1351.84	1.43359
1353.43	1.09156
1355.01	0.231857
1356.6	0.552079
1358.19	0.971503
1359.77	1.42938
1361.36	0.767694
1362.95	0.943419
1364.53	0.639983
1366.12	0.556345
1367.71	0.772488
1369.29	0.810809
1370.88	1.04992
1372.46	-0.0225382
1374.04	0.299391
1375.63	0.68187
1377.21	0.0496912
1378.8	1.06852
1380.38	0.713056
1381.96	0.495293
1383.54	0.116917
1385.13	0.71156
1386.71	0.689143
1388.29	0.0910301
1389.87	0.585963
1391.45	0.466528
1393.03	0.348175
1394.61	0.627059
1396.19	0.608178
1397.77	0.251443
1399.35	0.29002
1400.93	0.723472
1402.51	-0.0517893
1404.09	0.71686
1405.67	-0.116337
1407.24	0.178889
1408.82	0.237843
1410.4	1.08752
1411.98	0.811114
1413.55	1.2053
1415.13	0.49303
1416.71	0.56919
1418.28	0.703858
1419.86	0.464463
1421.43	0.758245
1423.01	0.482947
1424.58	0.662529
1426.16	1.53259
1427.73	0.710736
1429.31	0.656171
1430.88	1.30903
1432.45	1.97989
1434.02	2.09824
1435.6	1.42918
1437.17	1.68482
1438.74	1.98061
1440.31	1.4522
1441.88	1.5344
1443.45	2.06958
1445.03	1.95675
1446.6	1.88348
1448.17	1.41724
1449.74	2.42574
1451.3	2.21606
1452.87	1.73173
1454.44	1.11001
1456.01	1.6095
1457.58	2.12806
1459.15	1.97591
1460.72	1.52624
1462.28	0.798824
1463.85	1.26941
1465.42	1.12877
1466.98	1.55744
1468.55	1.41671
1470.12	0.767032
1471.68	1.35521
1473.25	0.885365
1474.81	0.377515
1476.38	1.22324
1477.94	0.539742
1479.51	1.05207
1481.07	0.858545
1482.63	1.60561
1484.2	1.23542
1485.76	0.825737
1487.32	1.2966
1488.88	1.53049
1490.45	0.939865
1492.01	1.01192
1493.57	1.66693
1495.13	1.49859
1496.69	0.276931
1498.25	1.23753
1499.81	-0.0581436
1501.37	0.417195
1502.93	-0.290007
1504.49	0.845958
1506.05	0.97359
1507.61	-0.0214901
1509.17	0.0660448
1510.73	0.537868
1512.28	0.217245
1513.84	-0.122332
1515.4	0.173489
1516.96	0.430888
1518.51	0.535251
1520.07	0.525241
1521.63	0.362467
1523.18	0.715743
1524.74	0.379889
1526.29	0.348664
1527.85	0.544813
1529.4	-0.306134
1530.96	0.250348
1532.51	-0.312845
1534.06	0.03549
1535.62	0.894966
1537.17	0.714558
1538.72	0.459937
1540.28	0.470331
1541.83	-0.216189
1543.38	0.0583363
1544.93	0.294478
1546.48	0.154217
1548.03	0.483104
1549.59	0.567587
1551.14	0.633391
1552.69	0.961592
1554.24	0.393252
1555.79	0.985506
1557.34	0.496642
1558.88	0.104007
1560.43	-0.136826
1561.98	-0.263731
1563.53	0.431592
1565.08	0.138894
1566.62	1.04059
1568.17	0.169178
1569.72	0.491716
1571.27	0.384475
1572.81	0.650205
1574.36	1.13976
1575.9	1.03198
1577.45	0.737773
1579	0.518727
1580.54	0.860552
1582.09	0.512468
1583.63	1.39823
1585.17	1.03345
1586.72	0.893385
1588.26	0.341917
1589.8	1.52993
1591.35	0.752853
1592.89	1.07938
1594.43	1.12476
1595.97	1.07652
1597.52	1.36612
1599.06	1.46929
1600.6	1.55473
1602.14	1.11537
1603.68	0.281225
1605.22	0.272095
1606.76	0.843925
1608.3	0.642982
1609.84	1.09698
1611.38	1.17205
1612.92	0.549629
1614.46	1.4277
1615.99	1.30996
1617.53	0.855514
1619.07	0.234403
1620.61	1.07643
1622.14	0.683947
1623.68	0.573497
1625.22	1.02472
1626.75	0.688833
1628.29	1.06247
1629.82	0.312005
1631.36	0.738448
1632.9	1.16384
1634.43	0.711713
1635.96	0.951391
1637.5	1.37852
1639.03	1.0045
1640.57	1.32039
1642.1	1.29994
1643.63	1.63189
1645.16	1.10586
1646.7	1.5649
1648.23	1.44676
1649.76	1.45924
1651.29	1.04614
1652.82	1.17294
1654.36	1.8944
1655.89	1.55975
1657.42	1.13264
1658.95	1.87173
1660.48	1.03491
1662.01	1.12222
1663.53	1.41125
1665.06	0.941744
1666.59	1.34081
1668.12	1.03982
1669.65	1.20189
1671.18	0.757689
1672.7	0.886207
1674.23	1.36518
1675.76	0.610136
1677.29	1.29012
1678.81	0.441295
1680.34	0.879032
1681.86	1.59088
1683.39	0.905784
1684.91	0.900611
1686.44	1.11595
1687.96	0.433496
1689.49	0.448411
1691.01	0.701652
1692.54	0.607026
1694.06	0.0917158
1695.58	0.362846
1697.11	0.943996
1698.63	1.28664
1700.15	0.606286
1701.67	-0.0556326
1703.2	0.79533
1704.72	0.424169
1706.24	0.580667
1707.76	0.282031
1709.28	0.474202
1710.8	0.266877
1712.32	0.386501
1713.84	0.270602
1715.36	0.173076
1716.88	0.274595
1718.4	0.375777
1719.91	0.603093
1721.43	-0.0538864
1722.95	0.282462
1724.47	-0.119129
1725.99	0.363712
1727.5	0.847811
1729.02	-0.214684
1730.54	0.181099
1732.05	0.339833
1733.57	0.31896
1735.09	0.487361
1736.6	0.38906
1738.12	0.488469
1739.63	-0.341578
1741.15	0.201683
1742.66	0.191488
1744.18	0.0475225
1745.69	0.413742
1747.2	-0.0576191
1748.72	-0.243968
1750.23	0.031826
1751.74	0.0249529
1753.25	-0.189861
1754.77	-0.0545845
1756.28	-0.0958548
1757.79	0.0735369
1759.3	0.238195
1760.81	0.0103455
1762.32	0.0958595
1763.83	0.676163
1765.34	0.257892
1766.85	0.21999
1768.36	0.306205
1769.87	0.239009
1771.38	-0.0986376
1772.89	-0.401152
1774.4	0.380541
1775.91	0.413936
1777.41	0.167601
1778.92	0.00217152
1780.43	0.0265169
1781.94	0.0643826
1783.44	0.0499458
1784.95	0.102112
1786.45	-0.324548
1787.96	-0.0427809
1789.47	0.205843
1790.97	0.00133991
1792.48	0.253218
1793.98	0.14492
1795.48	0.293306
1796.99	0.359468
1798.49	0.00582886
1800	-0.0467567
1801.5	-0.26599
1803	0.239651
1804.51	0.27801
1806.01	0.112363
1807.51	0.0223103
1809.01	0.0699186
1810.51	-0.0324059
1812.02	0.201288
1813.52	0.186295
1815.02	-0.132409
1816.52	-0.0878696
1818.02	0.525285
1819.52	-0.153258
1821.02	0.0280867
1822.52	0.0714893
1824.02	0.135222
1825.51	0.34143
1827.01	0.0300541
1828.51	0.455954
1830.01	0.0616169
1831.51	0.273448
1833	0.0477314
1834.5	-0.0355339
1836	-0.244156
1837.5	0.0055542
1838.99	0.0905514
1840.49	-0.0297251
1841.98	0.0818377
1843.48	0.0408602
1844.97	0.114314
1846.47	-0.176599
1847.96	0.187244
1849.46	0.419878
1850.95	-0.0685577
1852.45	0.278897
1853.94	-0.061841
1855.43	0.158137
1856.92	0.082099
1858.42	0.23865
1859.91	0.316859
1861.4	-0.110104
1862.89	0.410841
1864.39	0.651385
1865.88	0.161439
1867.37	-0.0195847
1868.86	-0.0484133
1870.35	0.194765
1871.84	0.324703
1873.33	0.235185
1874.82	-0.0632849
1876.31	0.212424
1877.8	0.242304
1879.29	0.150344
1880.77	0.280705
1882.26	0.27144
1882.51	0.262156
1884	0.173706
1885.5	0.607182
1886.99	0.673452
1888.48	-0.131353
1889.98	0.40459
1891.47	0.0716267
1892.97	0.50574
1894.46	0.576803
1895.95	-0.0109997
1897.44	0.375897
1898.93	-0.0721273
1900.42	0.0526733
1901.92	0.453951
1903.41	0.244302
1904.9	0.241705
1906.39	-0.178812
1907.88	-0.0779772
1909.37	0.266442
1910.86	0.143193
1912.35	0.732283
1913.84	-0.239111
1915.32	0.125179
1916.81	-0.0138206
1918.3	0.210609
1919.79	0.347749
1921.28	-0.104227
1922.76	0.344955
1924.25	0.154385
1925.74	0.155602
1927.22	0.0541821
1928.71	0.126638
1930.2	0.302984
1931.68	0.513062
1933.17	0.0461149
1934.65	0.512069
1936.14	0.543114
1937.62	-0.0324726
1939.11	0.117851
1940.59	-0.491457
1942.08	0.212468
1943.56	0.0199108
1945.04	-0.430166
1946.53	-0.379601
1948.01	0.049818
1949.49	-0.0903921
1950.97	-0.283246
1952.45	0.245781
1953.94	-0.309863
1955.42	0.458289
1956.9	-0.422687
1958.38	0.242798
1959.86	-0.0522089
1961.34	0.21953
1962.82	0.285598
1964.3	0.402802
1965.78	0.24531
1967.26	0.515059
1968.74	-0.0544109
1970.22	-0.0255671
1971.69	-0.458241
1973.17	0.304406
1974.65	0.23033
1976.13	0.395183
1977.61	0.815497
1979.08	0.0779276
1980.56	0.0727339
1982.03	-0.153625
1983.51	0.180536
1984.99	0.395002
1986.46	0.693644
1987.94	0.178347
1989.41	0.680243
1990.89	0.0653305
1992.36	0.0611296
1993.84	0.413092
1995.31	-0.19752
1996.78	0.105047
1998.26	0.103395
1999.73	0.472659
2001.2	0.115294
2002.68	-0.124249
2004.15	0.142023
2005.62	0.509519
2007.09	-0.28463
2008.56	0.067831
2010.04	0.219087
2011.51	0.421412
2012.98	0.135645
2014.45	0.118741
2015.92	0.269204
2017.39	0.384881
2018.86	0.549929
2020.33	0.226892
2021.8	0.239882
2023.27	0.0518131
2024.74	0.401711
2026.2	-0.153032
2027.67	0.0990934
2029.14	-0.351555
2030.61	-0.0962524
2032.07	0.126704
2033.54	0.719695
2035.01	0.339081
2036.47	0.62972
2037.94	0.146943
2039.41	0.234909
2040.87	0.188362
2042.34	0.343993
2043.8	0.0800867
2045.27	0.0357533
2046.73	0.126927
2048.2	0.269087
2049.66	0.596417
2051.12	0.484491
2052.59	0.100834
2054.05	0.136644
2055.51	-0.234251
2056.98	0.573521
2058.44	-0.0188427
2059.9	0.29864
2061.36	0.481642
2062.82	0.328821
2064.29	0.210903
2065.75	0.363423
2067.21	0.76937
2068.67	0.0820713
2070.13	-0.251531
2071.59	0.239788
2073.05	0.949958
2074.51	0.548576
2075.97	0.163581
2077.43	0.738043
2078.88	0.503704
2080.34	0.672977
2081.8	0.420648
2083.26	0.554782
2084.72	0.94039
2086.17	0.366017
2087.63	0.548025
2089.09	0.695753
2090.54	0.759101
2092	0.133963
2093.46	0.549714
2094.91	0.243593
2096.37	0.724989
2097.82	0.216797
2099.28	0.930346
2100.73	0.839708
2102.19	0.448689
2103.64	0.81062
2105.09	0.723027
2106.55	0.887411
2108	0.836145
2109.46	0.952071
2110.91	0.250474
2112.36	0.547663
2113.81	0.859212
2115.27	1.03528
2116.72	0.860835
2118.17	0.687057
2119.62	0.764073
2121.07	0.776896
2122.52	1.2232
2123.97	1.05756
2125.42	0.925917
2126.87	0.976372
2128.32	1.44003
2129.77	1.30519
2131.22	1.31792
2132.67	0.816511
2134.12	1.30821
2135.57	1.35389
2137.01	1.03769
2138.46	1.78152
2139.91	1.66826
2141.36	1.57356
2142.8	1.87716
2144.25	1.27195
2145.7	1.77528
2147.14	1.58326
2148.59	1.72157
2150.03	1.59381
2151.48	1.19968
2152.92	1.48364
2154.37	2.28021
2155.81	1.53534
2157.26	1.56926
2158.7	1.75312
2160.15	1.78953
2161.59	1.71211
2163.03	2.26692
2164.48	1.62986
2165.92	1.77326
2167.36	1.41835
2168.8	2.1423
2170.25	1.65066
2171.69	1.30584
2173.13	1.95676
2174.57	2.23992
2176.01	1.69072
2177.45	1.79042
2178.89	1.84114
2180.33	2.27545
2181.77	1.72994
2183.21	1.80032
2184.65	1.63821
2186.09	2.14157
2187.53	1.76328
2188.97	1.78431
2190.41	1.75538
2191.84	1.50969
2193.28	1.42955
2194.72	1.48101
2196.16	1.19737
2197.59	1.92646
2199.03	1.87113
2200.47	1.46562
2201.9	1.45898
2203.34	1.27063
2204.78	1.59783
2206.21	1.69394
2207.65	1.3102
2209.08	1.50617
2210.51	0.873443
2211.95	1.16655
2213.38	1.60714
2214.82	1.30364
2216.25	1.18285
2217.68	1.04704
2219.12	1.63844
2220.55	0.961088
2221.98	1.04243
2223.42	0.562753
2224.85	1.03698
2226.28	1.0314
2227.71	1.45129
2229.14	1.14615
2230.57	1.00477
2232	0.683159
2233.43	0.395333
2234.86	0.648553
2236.29	1.21305
2237.72	0.913308
2239.15	0.469333
2240.58	0.647849
2242.01	0.812071
2243.44	0.667851
2244.87	0.55668
2246.3	1.16245
2247.73	1.17911
2249.15	0.524781
2250.58	0.0152168
2252.01	0.562493
2253.43	0.766309
2254.86	0.0277548
2256.29	0.834277
2257.71	0.733879
2259.14	0.474647
2260.56	0.916476
2261.99	0.679711
2263.41	0.0547981
2264.84	-0.115464
2266.26	0.364114
2267.69	0.794486
2269.11	0.605709
2270.54	0.35077
2271.96	0.388201
2273.38	0.278865
2274.81	0.495367
2276.23	0.663321
2277.65	0.587107
2279.07	0.918484
2280.49	0.597696
2281.92	0.504951
2283.34	0.151023
2284.76	0.286532
2286.18	0.765129
2287.6	0.526
2289.02	-0.0557871
2290.44	-0.196382
2291.86	-0.124275
2293.28	0.536791
2294.7	0.0858259
2296.12	-0.283781
2297.54	0.181383
2298.96	0.0244665
2300.38	0.277358
2301.79	0.252043
2303.21	0.571549
2304.63	-0.0768909
2306.05	0.0622253
2307.46	0.0367908
2308.88	0.25731
2310.3	0.23067
2311.71	0.137761
2313.13	-0.218514
2314.55	0.18255
2315.96	0.0578051
2317.38	-0.132094
2318.79	0.519006
2320.21	-0.1819
2321.62	0.583879
2323.03	0.55577
2324.45	0.376429
2325.86	0.359552
2327.27	0.769504
2328.69	0.304629
2330.1	0.169908
2331.51	0.349113
2332.93	0.16737
2334.34	-0.0791187
2335.75	-0.193609
2337.16	0.217757
2338.57	0.233207
2339.99	-0.212747
2341.4	-0.084466
2342.81	0.699512
2344.22	0.219608
2345.63	0.592878
2347.04	0.0160284
2348.45	-0.0198994
2349.86	-0.252494
2351.26	0.00478745
2352.67	0.358565
2354.08	0.580081
2355.49	0.180944
2356.9	0.140484
2358.31	0.490413
2359.71	0.433543
2361.12	-0.304762
2362.53	-0.311924
2363.94	0.247656
2365.34	-0.00294876
2366.75	0.24819
2368.15	-0.0655909
2369.56	-0.0227757
2370.97	-0.010808
2372.37	0.147614
2373.78	-0.2888
2375.18	-0.257615
2376.59	-0.00160217
2377.99	0.71928
2379.39	-0.23367
2380.8	0.290033
2382.2	-0.439688
2383.61	0.0484953
2385.01	0.0393476
2386.41	0.142489
2387.81	0.246399
2389.22	0.0804033
2390.62	0.0435543
2392.02	0.374246
2393.42	0.132872
2394.82	0.274386
2396.22	-0.0921459
2397.63	0.0985308
2399.02	-0.123367
2400.43	0.100187
2401.82	-0.152489
2403.23	0.357265
2404.62	0.183663
2406.02	0.0885525
2407.42	0.341547
2408.82	0.196922
2410.22	0.400784
2411.62	-0.124105
2413.02	0.476768
2414.41	0.651231
2415.81	0.399933
2417.21	0.355994
2418.61	-0.0669098
2420	0.333976
2421.4	0.243853
2422.79	0.501831
2424.19	-0.206951
2425.59	0.0824757
2426.98	-0.00782681
2428.38	-0.144773
2429.77	0.163291
2431.17	0.456537
2432.56	0.115264
2433.96	-0.258663
2435.35	0.33501
2436.74	-0.169045
2438.14	0.373785
2439.53	0.231956
2440.92	-0.180804
2442.32	-0.387524
2443.71	0.135533
2445.1	-0.0399342
2446.49	-0.0251732
2447.88	-0.20074
2449.28	-0.186085
2450.67	-0.440367
2452.06	0.271592
2453.45	0.113698
2454.84	-0.153907
2456.23	0.512632
2457.62	0.309464
2459.01	-0.399977
2460.4	-0.271703
2461.79	0.140252
2463.18	0.39303
2464.57	0.297368
2465.96	-0.303921
2467.34	-0.320729
2468.73	0.135766
2470.12	0.102724
2471.51	0.132262
2472.89	-0.201315
2474.28	0.220331
2475.67	0.51479
2477.05	-0.0875473
2478.44	-0.1079
2479.83	-0.159425
2481.21	0.0401945
2482.6	0.255098
2483.98	0.234316
2485.37	0.1813
2486.75	-0.216588
2488.14	-0.64597
2489.52	0.0470076
2490.9	0.45787
2492.29	0.0133171
2493.67	-0.0718842
2495.06	0.170325
2496.44	-0.113475
2497.82	-0.194542
2499.2	-0.120412
2500.59	0.262608
2501.97	0.226884
2503.35	0.267323
2504.73	0.460912
2506.11	0.0370436
2507.49	-0.0475664
2508.88	0.406225
2510.26	-0.138712
2511.63	0.161993
2513.01	0.187091
2514.39	-0.062582
2515.77	-0.173174
2517.15	0.145535
2518.53	-0.162336
2519.91	0.661098
2521.29	-0.0439062
2522.67	-0.168801
2524.05	-0.0504026
2525.42	-0.237773
2526.8	0.168748
2528.18	-0.079215
2529.56	0.0697145
2530.93	-0.0685501
2532.31	0.00786209
2533.69	-0.0205956
2535.06	0.0884838
2536.44	0.27349
2537.81	0.108342
2539.19	0.245938
2540.56	0.0788689
2541.94	-0.270628
2543.31	-0.376842
2544.69	-0.512448
2546.06	0.430187
2547.44	0.494427
2548.81	0.605183
2550.18	0.00290394
2551.56	0.143549
2552.93	0.556372
2554.3	0.588592
2555.68	0.22528
2557.05	0.392376
2558.42	-0.123116
2559.79	0.150235
2561.16	0.333123
2562.53	0.546993
2563.9	0.412973
2565.28	0.324925
2566.64	-0.08109
2568.02	-0.290013
2569.38	0.0618229
2570.76	0.337914
2572.12	-0.416639
2573.49	0.0414982
2574.86	-0.743304
2576.23	-0.0727291
2577.6	0.704004
2578.97	0.494987
2580.34	0.37653
2581.7	-0.106289
2583.07	-0.180103
2584.44	0.185478
2585.81	0.187119
2587.17	-0.341585
2588.54	-0.0212889
2589.91	0.253627
2591.27	0.346529
2592.64	-0.136872
2594	-0.136222
2595.37	-0.257823
2596.73	0.482339
2598.1	0.0257282
2599.46	0.355401
2600.83	0.533695
2602.19	-0.0276327
2603.55	-0.33106
2604.92	0.241568
2606.28	0.0296154
2607.64	0.0134954
2609.01	0.343113
2610.37	-0.187533
2611.73	0.319609
2613.09	0.193038
2614.46	0.0958719
2615.82	-0.211467
2617.18	0.83121
2618.54	0.0454569
2619.9	-0.378916
2621.26	-0.3383
2622.62	-0.0282211
2623.98	0.535549
2625.34	0.098712
2626.7	-0.278156
2628.06	0.179622
2629.42	0.844833
2630.78	-0.172455
2632.14	0.447025
2633.5	0.0256624
2634.86	0.317376
2636.22	-0.236732
2637.57	0.17322
2638.93	0.730631
2640.29	0.0150032
2641.64	-0.048768
2643	0.124229
2644.36	0.267654
2645.72	0.0124722
2647.07	0.464823
2648.43	0.532709
2649.78	0.18749
2651.14	0.268492
2652.49	0.290229
2653.85	0.268149
2655.2	0.0563993
2656.56	0.578522
2657.91	0.237683
2659.27	0.424901
2660.62	0.39308
2661.97	0.200378
2663.33	0.211709
2664.68	0.00317669
2666.03	-0.0162849
2667.38	0.415533
2668.74	0.205835
2670.09	-0.06143
2671.44	0.588271
2672.79	-0.157076
2674.14	0.43517
2675.49	0.185596
2676.84	-0.0195856
2678.2	0.298237
2679.55	0.210811
2680.89	0.197069
2682.24	0.0831718
2683.59	0.362089
2684.94	0.395642
2686.29	0.284657
2687.64	0.579845
2688.99	0.0608587
2690.34	0.00449371
2691.69	0.396083
2693.04	0.843719
2694.38	0.376243
2695.73	-0.13443
2697.08	0.674264
2698.43	0.238442
2699.77	0.137706
2701.12	0.647092
2702.46	0.245879
2703.81	0.338256
2705.16	0.184845
2706.5	0.480997
2707.85	0.153155
2709.19	0.318151
2710.54	0.744243
2711.88	0.443975
2713.23	0.375845
2714.57	0.0605001
2715.92	0.588209
2717.26	0.723371
2718.6	0.232756
2719.95	0.600007
2721.29	0.210101
2722.63	-0.0785637
2723.97	0.27266
2725.32	0.739862
2726.66	0.318742
2728	0.508577
2729.34	0.145115
2730.68	0.363588
2732.02	0.596518
2733.36	0.305799
2734.7	0.800793
2736.04	-0.129423
2737.39	0.467721
2738.72	0.36671
2740.06	0.890743
2741.4	0.3236
2742.74	0.860743
2744.08	0.553886
2745.42	0.406313
2746.76	0.185753
2748.1	0.778022
2749.44	0.426736
2750.77	0.162988
2752.11	0.363648
2753.45	0.144137
2754.78	0.0843325
2756.12	0.285417
2757.46	0.457603
2758.79	-0.0359125
2760.13	0.0501356
2761.47	0.223507
2762.8	0.527595
2764.14	-0.0940113
2765.47	0.384028
2766.81	0.268343
2768.14	0.0938129
2769.48	0.0481005
2770.81	0.0441961
2772.14	0.0676804
2773.48	0.0755501
2774.81	-0.378531
2776.14	-0.154882
2777.48	0.442938
2778.81	0.191965
2780.14	0.617349
2781.47	0.52554
2782.81	0.0464735
2784.14	0.328076
2785.47	0.3513
2786.8	0.274435
2788.13	-0.0164976
2789.46	0.494948
2790.79	0.0344296
2792.12	0.0898037
2793.46	0.360086
2794.79	0.34446
2796.11	-0.228778
2797.44	-0.0309486
2798.77	0.151848
2800.1	0.105663
2801.43	-0.15476
2802.76	-0.0586929
2804.09	-0.262271
2805.42	0.132091
2806.74	0.19793
2808.07	-0.348615
2809.4	0.426907
2810.73	0.164585
2812.05	-0.0399332
2813.38	-0.299707
2814.71	0.278763
2816.03	0.518312
2817.36	0.121271
2818.68	-0.190049
2820.01	0.193151
2821.33	0.405763
2822.66	0.362499
2823.98	0.332706
2825.31	0.472499
2826.63	0.583941
2827.96	0.469384
2829.28	0.454591
2830.61	0.242142
2831.93	0.497079
2833.25	0.539605
2834.57	0.751612
2835.9	0.467691
2837.22	0.763379
2838.54	0.775516
2839.86	1.33893
2841.18	1.56285
2842.51	1.05213
2843.83	1.33377
2845.15	2.0119
2846.47	1.8852
2847.79	2.09813
2849.11	2.04256
2850.43	2.28344
2851.75	2.28345
2853.07	1.95778
2854.39	1.56107
2855.71	2.39344
2857.03	1.92589
2858.35	2.56024
2859.67	2.09284
2860.98	2.02074
2862.3	1.44008
2863.62	1.98838
2864.94	1.9858
2866.25	2.34995
2867.57	2.44624
2868.89	2.57117
2870.21	2.31589
2871.52	2.25821
2872.84	2.62305
2874.15	3.21234
2875.47	2.8845
2876.78	2.82318
2878.1	3.43639
2879.42	2.55786
2880.73	2.8332
2882.04	3.43232
2883.36	3.11927
2884.67	3.15855
2885.99	3.00196
2887.3	2.98587
2888.61	2.843
2889.93	2.76948
2891.24	2.97551
2892.55	2.94241
2893.87	2.85311
2895.18	3.40839
2896.49	3.16628
2897.8	3.07943
2899.11	3.23159
2900.42	3.2447
2901.74	3.14641
2903.05	3.63586
2904.36	3.62186
2905.67	3.56621
2906.98	3.49718
2908.29	3.76475
2909.6	3.64157
2910.91	3.95279
2912.22	3.8582
2913.53	4.18274
2914.83	4.18377
2916.14	3.37095
2917.45	3.95633
2918.76	4.56826
2920.07	4.24252
2921.37	4.65873
2922.68	4.33521
2923.99	4.13908
2925.3	4.81082
2926.6	4.92414
2927.91	4.96762
2929.22	4.78699
2930.52	5.16494
2931.83	5.26274
2933.13	5.10862
2934.44	4.36745
2935.74	5.06602
2937.05	4.67462
2938.35	4.92627
2939.66	4.89872
2940.96	4.34073
2942.27	4.25873
2943.57	4.42956
2944.87	4.60192
2946.18	4.03445
2947.48	3.94289
2948.78	3.62707
2950.09	3.53385
2951.39	3.88684
2952.69	3.46769
2953.99	3.52313
2955.29	3.57813
2956.6	3.15813
2957.9	3.48209
2959.2	3.10896
2960.5	3.67699
2961.8	3.11246
2963.1	3.02492
2964.4	2.96478
2965.7	2.62211
2967	2.64279
2968.3	2.90109
2969.6	2.21655
2970.9	2.34733
2972.2	2.2815
2973.49	2.49743
2974.79	2.4601
2976.09	2.04193
2977.39	2.07291
2978.69	1.72196
2979.98	2.045
2981.28	1.52217
2982.58	1.4211
2983.88	1.25014
2985.17	2.05014
2986.47	1.4321
2987.76	1.11078
2989.06	1.29635
2990.36	1.07467
2991.65	1.07735
2992.95	1.27568
2994.24	1.07918
2995.54	0.783257
2996.83	1.14664
2998.12	0.877939
2999.42	1.08663
3000.71	0.356268
3002	1.1268
3003.3	0.734262
3004.59	0.734287
3005.88	0.888056
3007.18	0.341113
3008.47	0.423369
3009.76	0.518547
3011.05	-0.309412
3012.35	0.441056
3013.64	0.185887
3014.93	0.154559
3016.22	0.0682697
3017.51	-0.0310564
3018.8	0.35727
3020.09	0.21678
3021.38	-0.313206
3022.67	0.156621
3023.96	0.541367
3025.25	-0.0320778
3026.54	0.157078
3027.83	0.235647
3029.12	0.412052
3030.41	0.147708
3031.69	0.4791
3032.98	0.176359
3034.27	0.108782
3035.56	0.578671
3036.85	0.302092
3038.13	-0.0725431
3039.42	0.212024
3040.71	-0.0830908
3041.99	0.22545
3043.28	-0.330445
3044.57	-0.185894
3045.85	0.110428
3047.14	-0.042285
3048.42	-0.0147753
3049.71	0.451745
3050.99	0.565033
3052.28	0.529149
3053.56	0.520568
3054.85	0.170182
3056.13	-0.235749
3057.42	0.420742
3058.7	0.503418
3059.98	0.313338
3061.27	0.191903
3062.55	0.112432
3063.83	0.252064
3065.11	0.311766
3066.4	0.359417
3067.68	0.285818
3068.96	0.307831
3070.24	0.370359
3071.52	0.377504
3072.8	0.396855
3074.09	-0.346501
3075.37	-0.152727
3076.65	-0.326189
3077.93	0.206734
3079.21	0.102659
3080.49	-0.243889
3081.77	0.0488415
3083.05	0.261572
3084.32	0.0816479
3085.61	-0.0846958
3086.88	-0.00728035
3088.16	0.232227
3089.44	0.118041
3090.72	-0.240902
3092	-0.0707874
3093.27	-0.0362358
3094.55	0.0257378
3095.83	0.0879755
3097.11	0.272279
3098.38	-0.0179443
3099.66	-0.172704
3100.94	-0.286854
3102.21	0.235593
3103.49	0.0811062
3104.76	-0.167501
3106.04	0.180234
3107.31	-0.0123968
3108.59	-0.0550346
3109.86	-0.258959
3111.14	0.0932083
3112.41	-0.0140753
3113.69	0.448131
3114.96	0.287116
3116.23	0.179683
3117.51	0.0847836
3118.78	0.409107
3120.05	0.0675802
3121.33	0.240328
3122.6	-0.278887
3123.87	0.123216
3125.14	-0.0841427
3126.42	0.0339651
3127.69	0.301404
3128.96	0.515135
3130.23	0.107154
3131.5	0.132079
3132.77	-0.0864038
3134.04	-0.116038
3135.31	0.245258
3136.58	0.281709
3137.85	0.263577
3139.12	0.298899
3140.39	0.508919
3141.66	0.194161
3142.93	0.283328
3144.2	0.54738
3145.47	0.0872965
3146.74	0.00396967
3148	0.376942
3149.27	0.428785
