200.388	2.41735
202.204	2.41675
204.019	2.41898
205.832	2.15672
207.646	2.91731
209.459	2.85078
211.274	2.95271
213.087	1.45032
214.899	1.81595
216.711	2.44708
218.524	1.84287
220.335	1.84662
222.146	2.31273
223.956	2.05577
225.766	1.29358
227.576	1.54754
229.388	1.70461
231.197	1.35412
233.005	1.75173
234.813	1.23403
236.621	2.09402
238.429	1.17533
240.236	1.66081
242.045	1.30833
243.852	1.17634
245.658	1.59996
247.464	1.03138
249.269	1.59226
251.074	0.891315
252.879	0.692034
254.683	0.73078
256.487	-0.00258064
258.291	0.544134
260.094	0.757135
261.897	1.04699
263.702	1.05197
265.504	1.61402
267.306	0.490606
269.108	0.933424
270.909	0.796499
272.71	1.0915
274.511	1.81784
276.311	1.35959
278.111	0.921995
279.91	0.914299
281.709	0.758076
283.508	0.814789
285.306	0.940632
287.105	0.560751
288.9	0.20586
290.698	0.572168
292.495	0.390436
294.291	-0.433189
296.088	0.0864296
297.884	0.0824814
299.679	-0.421745
301.475	-0.567396
303.27	0.574951
305.064	0.5446
306.858	1.1326
308.652	0.980665
310.444	0.925585
312.237	1.13542
314.03	1.15855
315.822	1.25753
317.615	1.02744
319.406	1.08684
321.198	1.86422
322.987	2.31059
324.778	1.80441
326.568	2.53972
328.358	1.62718
330.148	1.64462
331.935	1.94661
333.724	2.69982
335.513	1.41457
337.301	1.36847
339.089	0.528318
340.875	1.59851
342.662	0.180035
344.449	0.530903
346.236	0.643831
348.02	0.591194
349.806	0.277294
351.592	0.512747
353.375	0.365269
355.16	0.573603
356.944	-0.0316544
358.728	0.075861
360.51	-0.343084
362.294	1.14044
364.077	0.0282707
365.858	0.74581
367.64	1.08067
369.422	0.915073
371.202	1.88494
372.983	1.92837
374.764	2.75075
376.543	4.30326
378.324	4.13234
380.102	5.51899
381.881	6.34145
383.661	5.91968
385.438	6.30141
387.216	6.85078
388.993	6.04058
390.771	6.85423
392.548	5.20424
394.324	5.55235
396.101	5.17362
397.875	3.64442
399.651	4.86278
401.425	3.68443
403.201	1.61206
404.974	2.05122
406.749	1.6667
408.524	1.65658
410.296	1.95084
412.07	1.51755
413.841	1.67197
415.614	1.17103
417.385	0.296488
419.156	1.019
420.928	0.216759
422.698	0.329268
424.469	0.792507
426.238	0.807711
428.009	0.187248
429.777	0.0587006
431.548	-0.0464478
433.315	-0.596905
435.083	0.3554
436.852	1.0026
438.618	-0.252695
440.387	0.0614357
442.153	-0.0511074
443.919	-0.519819
445.686	-0.335962
447.451	0.991812
449.218	-0.115904
450.982	0.367212
452.746	0.546686
454.512	-0.509928
456.275	0.0432892
458.038	-0.336277
459.803	-0.0170784
461.565	-0.603945
463.327	1.021
465.091	-0.0686893
466.852	-0.362047
468.613	0.279896
470.374	0.228878
472.136	1.17984
473.896	0.616976
475.655	1.47049
477.415	0.0831432
479.176	0.997625
480.934	0.954624
482.692	1.30772
484.45	0.359018
486.21	0.555706
487.967	0.524113
489.724	0.706879
491.481	1.68589
493.237	1.03264
494.995	1.26735
496.75	1.947
498.506	1.57288
500.26	1.83017
502.015	2.79048
503.771	2.08256
505.525	2.28752
507.279	3.07735
509.032	3.6524
510.785	3.65904
512.537	4.57939
514.289	5.26052
516.041	5.79661
517.793	5.97634
519.546	5.28334
521.297	5.36425
523.047	5.16193
524.797	4.88876
526.547	4.9442
528.297	4.74169
530.046	5.10153
531.795	3.60958
533.543	4.22404
535.291	3.15055
537.039	3.64109
538.787	1.93254
540.534	2.72005
542.281	1.94306
544.027	2.42322
545.773	1.94931
547.519	1.73217
549.264	1.51603
551.01	1.43975
552.754	1.59531
554.499	0.0409851
556.243	1.23729
557.987	1.5557
559.73	0.492182
561.474	0.720819
563.216	1.89338
564.959	0.261255
566.701	0.837864
568.441	1.23185
570.182	-0.690039
571.923	0.420513
573.664	-0.255096
575.405	0.128296
577.145	0.859598
578.885	0.997492
580.624	1.22912
582.361	0.128471
584.1	1.02568
585.839	1.11639
587.577	-0.0609455
589.315	0.87521
591.052	0.681938
592.787	2.12092
594.524	1.3737
596.26	1.10967
597.997	1.53573
599.732	1.0407
601.466	2.03907
603.201	1.47022
604.936	2.25466
606.67	2.18501
608.403	1.63113
610.136	0.893803
611.87	1.23635
613.603	1.46564
615.334	1.12333
617.067	-0.249348
618.799	-0.0418568
620.529	-0.0428829
622.26	1.30301
623.991	0.907631
625.72	0.786789
627.451	0.78241
629.181	0.896402
630.909	0.490782
632.638	0.454828
634.368	0.832119
636.095	1.36873
637.823	0.531944
639.551	0.488163
641.277	0.118505
643.005	-0.0282516
644.73	0.0272694
646.457	1.10673
648.184	0.665457
649.908	-0.336535
651.634	0.601324
653.357	0.411646
655.083	0.229145
656.806	0.0514374
658.53	-0.283987
660.253	-0.438374
661.977	0.271511
663.7	0.154785
665.422	0.215517
667.145	-0.345434
668.865	0.532476
670.588	-0.0978642
672.308	0.145138
674.027	-0.545242
675.749	0.257694
677.468	-0.495182
679.188	0.473349
680.907	-0.213482
682.627	-0.0310459
684.345	-0.474499
686.064	0.666203
687.781	0.882675
689.498	-0.0780659
691.216	0.825251
692.932	-0.18471
694.65	0.945793
696.366	0.784203
698.081	1.05738
699.797	1.09734
701.512	0.973614
703.228	0.594955
704.942	1.63918
706.655	0.84458
708.371	1.38024
710.083	0.126888
711.796	0.981028
713.51	0.986546
715.222	1.72287
716.934	1.01925
718.645	1.75418
720.358	0.755928
722.068	1.49047
723.779	0.221569
725.49	0.409452
727.2	1.66393
728.909	1.62167
730.618	0.920938
732.329	0.854782
734.037	1.46706
735.745	0.586348
737.453	1.87587
739.16	1.63033
740.869	0.823769
742.576	1.55288
744.282	1.49611
745.988	1.48757
747.694	1.84213
749.401	2.78434
751.107	1.57023
752.811	1.64114
754.516	3.44747
756.22	3.12036
757.924	3.26951
759.627	4.59388
761.332	4.57019
763.035	4.59301
764.738	5.63139
766.44	7.59475
768.142	8.35725
769.843	8.07403
771.544	9.39046
773.245	9.70771
774.946	10.5661
776.646	10.6118
778.346	9.75691
780.046	9.08721
781.745	8.55624
783.444	7.84447
785.143	6.5182
786.841	6.36265
788.539	4.07155
790.237	3.74212
791.934	2.99966
793.631	2.84162
795.328	1.71306
797.024	2.86484
798.72	2.57712
800.416	2.429
802.112	1.81187
803.807	1.26435
805.502	2.31312
807.196	1.1122
808.89	1.70654
810.584	1.80379
812.278	1.9212
813.971	2.26115
815.664	2.08501
817.354	2.58014
819.047	1.62182
820.739	1.98296
822.43	0.782417
824.122	1.59208
825.813	1.80207
827.503	1.83833
829.192	1.32393
830.882	0.905285
832.571	1.56205
834.261	2.2242
835.95	1.26134
837.637	1.81465
839.325	1.71855
841.013	1.50721
842.701	1.13636
844.389	1.38987
846.074	0.594372
847.761	1.23311
849.447	1.16188
851.131	1.0961
852.817	1.07939
854.503	1.35656
856.188	1.58918
857.871	0.898106
859.556	1.10231
861.24	1.21276
862.922	1.43237
864.606	1.76197
866.289	0.263651
867.97	0.927839
869.653	0.260666
871.336	1.37459
873.016	1.36042
874.698	0.353271
876.379	0.948133
878.058	1.4304
879.739	1.21283
881.418	1.40082
883.098	0.54879
884.778	0.574835
886.456	0.823566
888.135	1.33943
889.812	0.723747
891.49	0.443462
893.167	1.15157
894.845	0.730757
896.523	-0.118818
898.198	0.17647
899.875	0.760645
901.55	0.467903
903.226	0.845877
904.901	0.529669
906.576	0.527191
908.25	0.459253
909.925	-0.230183
911.598	-0.0039959
913.271	1.3568
914.945	0.295549
916.617	0.922464
918.291	0.306919
919.962	1.13205
921.635	0.89501
923.306	1.08094
924.978	-0.209782
926.648	-0.126026
928.318	0.800159
929.989	0.139874
931.659	1.93053
933.328	-0.0288658
934.998	1.12277
936.666	1.67966
938.336	1.88562
940.004	0.749069
941.671	0.254801
943.34	0.688824
945.007	1.18911
946.673	0.318518
948.339	0.591656
950.007	-0.0444088
951.672	0.265778
953.337	-0.284353
955.004	0.558287
956.669	0.458794
958.333	0.675447
959.997	0.0159492
961.662	0.353224
963.326	-0.237406
964.989	0.251408
966.651	-0.0838127
968.315	-0.270496
969.977	0.268192
971.639	0.694042
973.301	-0.0956326
974.962	0.135296
976.624	-0.11619
978.285	-0.342159
979.945	-0.378525
981.605	-0.415607
983.264	0.728838
984.924	1.35987
986.583	0.702187
988.243	1.47876
989.901	-0.379789
991.56	0.591019
993.217	0.124624
994.875	0.409548
996.532	0.363529
998.188	0.846762
999.845	2.34262
1001.5	1.36923
1003.16	1.25442
1004.81	1.27097
1006.47	1.6608
1008.12	1.2159
1009.78	2.00131
1011.43	1.49291
1013.09	1.11782
1014.74	2.58409
1016.39	2.64868
1018.05	2.62701
1019.7	3.46039
1021.35	3.70555
1023	4.43439
1024.65	5.10004
1026.31	6.77243
1027.96	6.21596
1029.61	8.36688
1031.26	7.73956
1032.91	9.0727
1034.56	8.23938
1036.21	8.44942
1037.86	8.22084
1039.51	7.57868
1041.16	7.1352
1042.8	6.02229
1044.45	5.69775
1046.1	5.42243
1047.75	4.19702
1049.39	3.77985
1051.04	4.58241
1052.69	3.93199
1054.33	4.12986
1055.98	2.98037
1057.62	2.89493
1059.27	2.72131
1060.91	2.95922
1062.56	2.97777
1064.2	2.08078
1065.85	2.72496
1067.49	1.73608
1069.13	2.3966
1070.77	2.53374
1072.42	1.86725
1074.06	3.43741
1075.7	2.70988
1077.34	3.22231
1078.98	4.60534
1080.62	4.53759
1082.27	5.27229
1083.91	6.28646
1085.55	5.95178
1087.18	6.60827
1088.82	7.01978
1090.46	7.27402
1092.1	5.2977
1093.74	5.67752
1095.38	5.79819
1097.02	5.61915
1098.65	5.42271
1100.29	4.71486
1101.93	3.79786
1103.56	3.7899
1105.2	3.20485
1106.84	2.87967
1108.47	3.34964
1110.11	1.64517
1111.74	2.55998
1113.38	2.095
1115.01	1.73474
1116.64	2.85365
1118.28	2.42773
1119.91	1.81129
1121.54	1.96896
1123.18	2.12924
1124.81	2.50592
1126.44	2.0291
1128.07	1.68287
1129.7	1.5738
1131.33	2.25729
1132.97	1.31683
1134.6	1.89397
1136.23	1.42225
1137.86	0.264441
1139.49	1.28322
1141.11	0.6761
1142.74	1.2633
1144.37	1.25301
1146	1.67082
1147.63	1.45139
1149.26	0.829552
1150.88	1.01874
1152.51	0.888538
1154.14	0.885374
1155.76	0.476898
1157.39	1.11091
1159.01	0.937166
1160.64	1.25469
1162.27	1.42607
1163.89	1.11099
1165.51	2.1368
1167.14	0.90835
1168.76	1.20827
1170.39	0.27129
1172.01	1.39112
1173.63	0.955442
1175.25	0.835527
1176.88	0.693277
1178.5	1.39902
1180.12	2.10545
1181.74	0.401665
1183.36	1.15412
1184.98	2.03275
1186.6	1.74667
1188.22	1.05613
1189.84	1.83748
1191.46	1.07545
1193.08	1.76232
1194.7	1.45839
1196.32	1.13435
1197.94	1.96507
1199.55	1.12495
1201.17	1.67147
1202.79	1.30512
1204.41	1.78052
1206.02	1.03009
1207.64	2.07747
1209.25	0.705755
1210.87	2.60705
1212.48	2.10546
1214.1	2.22389
1215.71	1.2329
1217.33	1.42486
1218.94	1.23977
1220.56	2.09271
1222.17	1.22428
1223.79	2.14252
1225.4	1.7794
1227.01	1.85517
1228.62	1.64485
1230.23	2.92657
1231.85	2.10224
1233.46	2.97608
1235.07	2.30297
1236.68	2.27367
1238.29	2.37103
1239.9	2.32549
1241.51	2.28049
1243.12	2.85539
1244.73	3.4907
1246.34	2.63367
1247.94	3.13976
1249.55	2.34035
1251.16	2.69882
1252.77	2.91294
1254.37	1.59825
1255.98	2.31329
1257.59	2.45233
1259.2	2.32537
1260.8	3.02862
1262.41	3.13313
1264.01	3.42432
1265.62	2.2642
1267.22	2.55259
1268.83	1.69853
1270.43	2.60416
1272.03	3.8805
1273.64	3.35034
1275.24	3.00437
1276.85	2.03456
1278.45	2.61698
1280.05	3.63225
1281.65	3.46612
1283.25	3.75554
1284.85	3.61183
1286.46	3.53254
1288.06	4.61344
1289.66	4.78715
1291.26	3.6605
1292.86	4.22818
1294.46	3.88492
1296.06	4.57119
1297.66	4.19996
1299.25	3.7835
1300.85	4.22958
1302.45	4.03313
1304.05	5.02817
1305.65	4.33347
1307.24	4.11123
1308.84	4.07333
1310.43	3.15429
1312.03	4.53104
1313.63	3.61631
1315.22	3.38018
1316.82	3.8207
1318.41	3.75201
1320.01	2.94931
1321.6	3.08278
1323.2	4.02625
1324.79	3.52008
1326.38	3.27543
1327.98	3.65844
1329.57	3.69751
1331.16	4.18544
1332.76	3.99108
1334.35	3.78273
1335.94	3.53859
1337.53	3.17527
1339.12	3.11324
1340.71	3.08756
1342.3	3.62012
1343.89	2.45804
1345.48	2.72133
1347.07	2.64315
1348.66	2.22874
1350.25	2.04123
1351.84	2.62028
1353.43	2.00431
1355.01	2.87111
1356.6	3.05911
1358.19	2.52685
1359.77	3.01109
1361.36	2.21485
1362.95	2.23523
1364.53	3.03219
1366.12	2.47392
1367.71	2.79441
1369.29	2.97828
1370.88	2.09092
1372.46	2.14254
1374.04	2.37601
1375.63	2.81017
1377.21	2.70742
1378.8	1.86725
1380.38	2.11911
1381.96	3.16347
1383.54	1.69833
1385.13	2.33889
1386.71	2.12338
1388.29	2.00769
1389.87	1.99293
1391.45	2.37723
1393.03	2.28718
1394.61	2.33703
1396.19	1.73212
1397.77	2.39458
1399.35	1.38966
1400.93	0.858696
1402.51	1.89065
1404.09	1.21996
1405.67	1.77712
1407.24	2.25676
1408.82	1.2365
1410.4	2.48972
1411.98	1.29356
1413.55	2.52484
1415.13	2.88477
1416.71	1.98009
1418.28	2.73099
1419.86	2.35896
1421.43	2.6396
1423.01	3.08136
1424.58	2.62169
1426.16	3.75948
1427.73	3.65878
1429.31	4.207
1430.88	5.46145
1432.45	5.47276
1434.02	5.50108
1435.6	6.78677
1437.17	5.96845
1438.74	5.95844
1440.31	6.32456
1441.88	5.96613
1443.45	6.08132
1445.03	6.72827
1446.6	6.39303
1448.17	7.09996
1449.74	6.56927
1451.3	6.1773
1452.87	5.90467
1454.44	6.14442
1456.01	6.14812
1457.58	5.81562
1459.15	5.04675
1460.72	5.84772
1462.28	3.86944
1463.85	4.20885
1465.42	4.99717
1466.98	4.54601
1468.55	3.52683
1470.12	4.13965
1471.68	4.20556
1473.25	3.92111
1474.81	2.59951
1476.38	3.10279
1477.94	3.58663
1479.51	3.07047
1481.07	3.63217
1482.63	3.60559
1484.2	3.38274
1485.76	3.68804
1487.32	3.14917
1488.88	3.19473
1490.45	3.72485
1492.01	3.87723
1493.57	3.14475
1495.13	3.22869
1496.69	2.66659
1498.25	3.79823
1499.81	2.4989
1501.37	2.40889
1502.93	1.29411
1504.49	2.29557
1506.05	2.92809
1507.61	2.22355
1509.17	1.76909
1510.73	1.60234
1512.28	0.855726
1513.84	2.22724
1515.4	2.0578
1516.96	2.94611
1518.51	1.85905
1520.07	1.52298
1521.63	0.977682
1523.18	1.25477
1524.74	0.593929
1526.29	1.2481
1527.85	1.65082
1529.4	0.967222
1530.96	1.31077
1532.51	1.69242
1534.06	1.37443
1535.62	1.07856
1537.17	2.41049
1538.72	1.2309
1540.28	1.95912
1541.83	1.53702
1543.38	1.34135
1544.93	2.57454
1546.48	1.7574
1548.03	1.39184
1549.59	1.30807
1551.14	1.82408
1552.69	1.70417
1554.24	1.19412
1555.79	2.10742
1557.34	1.86633
1558.88	1.77929
1560.43	1.64073
1561.98	1.82305
1563.53	2.10131
1565.08	1.83987
1566.62	2.06381
1568.17	2.62322
1569.72	1.22195
1571.27	2.0969
1572.81	2.03785
1574.36	2.31444
1575.9	2.23637
1577.45	2.99879
1579	3.01547
1580.54	2.86551
1582.09	3.33363
1583.63	3.03804
1585.17	1.6414
1586.72	2.46961
1588.26	2.60679
1589.8	2.61263
1591.35	3.79671
1592.89	2.99559
1594.43	3.42941
1595.97	4.83777
1597.52	5.29215
1599.06	4.62355
1600.6	4.61265
1602.14	4.47152
1603.68	5.02501
1605.22	4.73196
1606.76	4.56684
1608.3	3.58859
1609.84	4.31501
1611.38	4.03959
1612.92	3.51532
1614.46	3.94557
1615.99	2.92988
1617.53	3.7909
1619.07	3.43591
1620.61	2.59782
1622.14	3.41112
1623.68	2.33527
1625.22	1.915
1626.75	3.6267
1628.29	3.12678
1629.82	3.39063
1631.36	3.10962
1632.9	3.22014
1634.43	3.5178
1635.96	3.96624
1637.5	3.78239
1639.03	4.01036
1640.57	3.90284
1642.1	3.68217
1643.63	4.89285
1645.16	4.57319
1646.7	5.03264
1648.23	4.59859
1649.76	4.42597
1651.29	4.4229
1652.82	4.62686
1654.36	5.11152
1655.89	4.55954
1657.42	4.63776
1658.95	4.71408
1660.48	4.21327
1662.01	3.93149
1663.53	4.3867
1665.06	4.2671
1666.59	4.35145
1668.12	3.97714
1669.65	3.71739
1671.18	3.24032
1672.7	2.26882
1674.23	3.71136
1675.76	3.53251
1677.29	2.81819
1678.81	2.46983
1680.34	2.67095
1681.86	2.06152
1683.39	2.82923
1684.91	2.01786
1686.44	1.86847
1687.96	1.68356
1689.49	2.2691
1691.01	1.18839
1692.54	1.29846
1694.06	1.04242
1695.58	0.950783
1697.11	0.822104
1698.63	0.802364
1700.15	0.617428
1701.67	0.285662
1703.2	0.0806789
1704.72	0.603203
1706.24	0.487001
1707.76	0.461226
1709.28	0.871172
1710.8	0.7724
1712.32	0.329597
1713.84	0.123394
1715.36	0.116768
1716.88	0.182337
1718.4	0.807745
1719.91	0.276194
1721.43	0.647974
1722.95	-0.025362
1724.47	-0.515514
1725.99	0.618235
1727.5	-0.478243
1729.02	-0.0783348
1730.54	0.432449
1732.05	0.706411
1733.57	0.54594
1735.09	0.519829
1736.6	-0.773355
1738.12	0.0282879
1739.63	0.786621
1741.15	0.26701
1742.66	-0.491322
1744.18	0.36956
1745.69	0.334764
1747.2	-0.224361
1748.72	0.248671
1750.23	0.645163
1751.74	-0.0228176
1753.25	0.619495
1754.77	0.139198
1756.28	0.0933018
1757.79	0.463087
1759.3	-0.215996
1760.81	-0.0244179
1762.32	-0.0613155
1763.83	0.191977
1765.34	-0.250164
1766.85	-0.281136
1768.36	-0.173496
1769.87	0.124319
1771.38	0.0823441
1772.89	0.0932369
1774.4	-0.152067
1775.91	-0.17334
1777.41	0.379389
1778.92	0.276125
1780.43	-0.294872
1781.94	-0.498869
1783.44	-0.14699
1784.95	-0.177294
1786.45	0.0179844
1787.96	-0.173784
1789.47	-0.228371
1790.97	0.397692
1792.48	-0.206797
1793.98	0.437798
1795.48	0.311451
1796.99	0.249113
1798.49	0.176552
1800	0.26754
1801.5	0.320238
1803	0.0378952
1804.51	0.0233479
1806.01	-0.188053
1807.51	-0.385082
1809.01	0.307602
1810.51	-0.255228
1812.02	0.439415
1813.52	0.755863
1815.02	0.411175
1816.52	-0.156981
1818.02	-0.224335
1819.52	-0.00969315
1821.02	0.129536
1822.52	0.322142
1824.02	0.271151
1825.51	0.44079
1827.01	-0.0305748
1828.51	0.0106411
1830.01	-0.049511
1831.51	-0.24555
1833	-0.152754
1834.5	0.219038
1836	0.107231
1837.5	-0.1138
1838.99	0.52915
1840.49	0.409201
1841.98	0.126749
1843.48	0.061655
1844.97	0.198467
1846.47	0.0709858
1847.96	0.314993
1849.46	0.235052
1850.95	0.147552
1852.45	-0.120317
1853.94	-0.0447483
1855.43	0.224815
1856.92	0.201759
1858.42	0.30407
1859.91	0.230896
1861.4	0.161938
1862.89	-0.132984
1864.39	0.380577
1865.88	0.576773
1867.37	0.0635338
1868.86	0.0998669
1870.35	0.161879
1871.84	-0.0740337
1873.33	0.0457306
1874.82	-0.069458
1876.31	0.09659
1877.8	0.0977955
1879.29	0.0599232
1880.77	0.101055
1882.26	-0.321024
1882.51	-0.407408
1884	0.358685
1885.5	0.164137
1886.99	0.664616
1888.48	0.554184
1889.98	0.0092659
1891.47	0.0233555
1892.97	0.910028
1894.46	-0.181658
1895.95	0.0511932
1897.44	0.3554
1898.93	0.555134
1900.42	0.387449
1901.92	0.00760841
1903.41	-0.44532
1904.9	0.0899849
1906.39	0.0150089
1907.88	0.356768
1909.37	0.525852
1910.86	0.419119
1912.35	-0.206089
1913.84	0.366827
1915.32	-0.135405
1916.81	-0.152702
1918.3	0.45285
1919.79	-0.0864792
1921.28	-0.48712
1922.76	0.498537
1924.25	0.169777
1925.74	0.657055
1927.22	0.367519
1928.71	0.408249
1930.2	-0.468863
1931.68	-0.343323
1933.17	0.316063
1934.65	0.538723
1936.14	0.100208
1937.62	0.00550079
1939.11	0.549231
1940.59	-0.115894
1942.08	0.256937
1943.56	0.321058
1945.04	-0.182142
1946.53	-0.0464191
1948.01	0.571278
1949.49	0.20504
1950.97	0.542992
1952.45	0.173094
1953.94	0.47307
1955.42	-0.155479
1956.9	-0.0268459
1958.38	0.0686779
1959.86	-0.246113
1961.34	0.246389
1962.82	0.0189953
1964.3	-0.17433
1965.78	0.196598
1967.26	0.771091
1968.74	0.351433
1970.22	0.409655
1971.69	0.433056
1973.17	0.558681
1974.65	0.684311
1976.13	0.520378
1977.61	-0.205072
1979.08	0.177017
1980.56	0.354406
1982.03	0.140228
1983.51	0.214476
1984.99	0.457628
1986.46	0.479387
1987.94	0.162121
1989.41	0.252373
1990.89	-0.0622826
1992.36	0.623226
1993.84	-0.00850105
1995.31	-0.0127697
1996.78	0.473774
1998.26	0.4195
1999.73	-0.00705147
2001.2	0.628607
2002.68	0.132547
2004.15	0.361568
2005.62	0.203489
2007.09	0.451294
2008.56	0.616693
2010.04	0.026226
2011.51	0.413359
2012.98	-0.394522
2014.45	0.395689
2015.92	0.595114
2017.39	0.0861359
2018.86	0.214666
2020.33	0.140287
2021.8	0.586264
2023.27	0.982105
2024.74	-0.181141
2026.2	0.235512
2027.67	-0.099802
2029.14	0.557524
2030.61	0.227999
2032.07	0.621902
2033.54	-0.174812
2035.01	0.472101
2036.47	0.429913
2037.94	0.941086
2039.41	0.510462
2040.87	-0.340727
2042.34	0.35535
2043.8	0.431025
2045.27	0.592756
2046.73	0.369001
2048.2	0.886831
2049.66	0.27532
2051.12	0.858297
2052.59	0.477083
2054.05	0.918388
2055.51	0.95121
2056.98	0.879923
2058.44	0.587902
2059.9	0.834755
2061.36	1.20012
2062.82	1.19666
2064.29	1.41417
2065.75	1.31406
2067.21	1.65336
2068.67	1.89301
2070.13	1.22442
2071.59	1.53225
2073.05	1.03164
2074.51	1.01869
2075.97	1.37551
2077.43	1.24319
2078.88	0.891088
2080.34	1.76727
2081.8	1.34564
2083.26	1.61286
2084.72	1.49128
2086.17	1.57002
2087.63	1.88274
2089.09	1.60602
2090.54	1.00998
2092	1.67352
2093.46	1.79922
2094.91	1.43788
2096.37	1.86361
2097.82	2.05282
2099.28	1.72156
2100.73	1.72454
2102.19	2.24599
2103.64	2.05047
2105.09	2.15846
2106.55	2.76995
2108	2.21597
2109.46	2.76358
2110.91	2.79294
2112.36	2.96922
2113.81	2.52525
2115.27	3.19309
2116.72	2.49447
2118.17	3.27606
2119.62	3.51176
2121.07	2.93879
2122.52	3.44875
2123.97	3.72976
2125.42	3.87964
2126.87	3.36572
2128.32	3.89394
2129.77	4.40202
2131.22	3.73059
2132.67	4.2332
2134.12	4.48697
2135.57	4.61009
2137.01	4.42262
2138.46	5.03296
2139.91	4.77201
2141.36	5.06053
2142.8	5.2364
2144.25	4.86813
2145.7	5.12881
2147.14	5.22342
2148.59	5.63123
2150.03	6.07022
2151.48	5.87722
2152.92	5.76453
2154.37	6.26278
2155.81	6.11366
2157.26	6.14695
2158.7	6.94401
2160.15	6.20393
2161.59	6.21371
2163.03	6.77532
2164.48	5.94802
2165.92	6.49972
2167.36	7.3677
2168.8	6.77112
2170.25	6.81796
2171.69	6.49338
2173.13	6.37997
2174.57	6.44599
2176.01	6.67676
2177.45	6.37588
2178.89	6.65889
2180.33	7.12729
2181.77	6.66695
2183.21	5.84217
2184.65	5.79958
2186.09	5.99005
2187.53	6.33043
2188.97	6.00536
2190.41	5.64682
2191.84	5.60383
2193.28	5.87535
2194.72	5.07804
2196.16	5.45835
2197.59	5.35097
2199.03	4.95679
2200.47	4.1452
2201.9	5.37654
2203.34	4.50066
2204.78	4.20884
2206.21	4.417
2207.65	4.64283
2209.08	4.20568
2210.51	4.41261
2211.95	3.82294
2213.38	3.97611
2214.82	4.26086
2216.25	3.83688
2217.68	4.12543
2219.12	3.80652
2220.55	3.50636
2221.98	4.19558
2223.42	3.16929
2224.85	2.93116
2226.28	3.18309
2227.71	2.95404
2229.14	2.57467
2230.57	3.17868
2232	3.07616
2233.43	2.6308
2234.86	2.62953
2236.29	2.58191
2237.72	2.1461
2239.15	2.23714
2240.58	1.63115
2242.01	1.77954
2243.44	2.30577
2244.87	1.56061
2246.3	1.87427
2247.73	1.61369
2249.15	1.67469
2250.58	1.6331
2252.01	1.5715
2253.43	1.11789
2254.86	1.44559
2256.29	1.33744
2257.71	1.705
2259.14	1.60798
2260.56	1.7769
2261.99	1.13963
2263.41	1.07356
2264.84	0.991865
2266.26	0.665466
2267.69	1.32945
2269.11	0.576187
2270.54	0.992895
2271.96	1.00168
2273.38	0.472664
2274.81	0.383413
2276.23	1.15812
2277.65	0.84165
2279.07	0.981625
2280.49	0.844345
2281.92	0.984035
2283.34	1.15625
2284.76	1.14915
2286.18	0.538549
2287.6	0.532495
2289.02	0.658016
2290.44	0.751799
2291.86	1.00974
2293.28	0.663069
2294.7	0.774178
2296.12	1.24533
2297.54	0.406744
2298.96	0.697947
2300.38	0.383371
2301.79	0.331455
2303.21	0.36211
2304.63	0.639355
2306.05	0.309099
2307.46	0.66794
2308.88	0.269854
2310.3	0.100487
2311.71	-0.0533447
2313.13	0.368555
2314.55	0.544649
2315.96	0.541258
2317.38	-0.152487
2318.79	0.0276127
2320.21	0.405394
2321.62	-0.538696
2323.03	0.344936
2324.45	-0.112734
2325.86	0.745146
2327.27	0.329128
2328.69	0.719536
2330.1	0.26984
2331.51	0.892529
2332.93	0.332083
2334.34	0.119265
2335.75	0.170284
2337.16	0.00659752
2338.57	-0.14246
2339.99	-0.096468
2341.4	0.161079
2342.81	0.236744
2344.22	0.0662441
2345.63	0.158749
2347.04	-0.501705
2348.45	-0.408295
2349.86	0.453133
2351.26	0.151188
2352.67	-0.135918
2354.08	0.489367
2355.49	0.248098
2356.9	0.430008
2358.31	0.0584488
2359.71	-0.230825
2361.12	-0.0323677
2362.53	0.165674
2363.94	-0.284758
2365.34	-0.168081
2366.75	-0.326008
2368.15	-0.288675
2369.56	0.137766
2370.97	0.195457
2372.37	0.239679
2373.78	-0.181065
2375.18	0.043211
2376.59	-0.183924
2377.99	0.00515366
2379.39	0.223038
2380.8	0.00378036
2382.2	-0.185816
2383.61	-0.24864
2385.01	0.248079
2386.41	0.153252
2387.81	0.0604572
2389.22	0.193481
2390.62	0.0579987
2392.02	-0.0749035
2393.42	0.303555
2394.82	0.126698
2396.22	-0.207548
2397.63	0.556328
2399.02	0.129301
2400.43	0.418352
2401.82	0.0249672
2403.23	0.0288391
2404.62	0.0478687
2406.02	0.747753
2407.42	-0.10976
2408.82	0.0786476
2410.22	-0.241043
2411.62	-0.544134
2413.02	0.310696
2414.41	-0.320707
2415.81	-0.331589
2417.21	0.0717716
2418.61	0.635427
2420	0.0755997
2421.4	0.370735
2422.79	0.221655
2424.19	0.515635
2425.59	-0.0934391
2426.98	0.613792
2428.38	0.276812
2429.77	0.179424
2431.17	-0.138773
2432.56	-0.250561
2433.96	0.128868
2435.35	0.236273
2436.74	0.515545
2438.14	0.251514
2439.53	0.239092
2440.92	0.208944
2442.32	0.828558
2443.71	0.241142
2445.1	0.431055
2446.49	0.129004
2447.88	0.112211
2449.28	0.491404
2450.67	0.5224
2452.06	-0.252747
2453.45	0.334925
2454.84	0.101414
2456.23	0.549587
2457.62	0.239103
2459.01	0.165617
2460.4	-0.209461
2461.79	-0.0484104
2463.18	0.126787
2464.57	0.569271
2465.96	-0.063118
2467.34	0.362478
2468.73	0.0933399
2470.12	0.328726
2471.51	-0.288206
2472.89	0.370228
2474.28	0.0974674
2475.67	0.0597591
2477.05	0.225689
2478.44	0.0457401
2479.83	-0.620045
2481.21	-0.186861
2482.6	-0.24017
2483.98	0.926756
2485.37	0.259935
2486.75	0.0921097
2488.14	0.0473137
2489.52	0.34399
2490.9	-0.340952
2492.29	0.469141
2493.67	0.0838814
2495.06	0.1985
2496.44	0.129452
2497.82	0.00028038
2499.2	-0.422247
2500.59	0.531782
2501.97	-0.0318031
2503.35	-0.0559196
2504.73	0.026207
2506.11	0.384264
2507.49	-0.613363
2508.88	0.32855
2510.26	0.148188
2511.63	0.122908
2513.01	-0.146036
2514.39	0.475525
2515.77	0.0265255
2517.15	0.0385551
2518.53	0.326859
2519.91	-0.286356
2521.29	0.414028
2522.67	0.0591164
2524.05	-0.342752
2525.42	0.0470943
2526.8	-0.00583649
2528.18	0.10948
2529.56	0.0291042
2530.93	-0.625618
2532.31	-0.0458813
2533.69	-0.0713921
2535.06	-0.171436
2536.44	0.00192451
2537.81	-0.448854
2539.19	0.268112
2540.56	-0.094944
2541.94	0.224495
2543.31	0.62011
2544.69	0.0615673
2546.06	0.233677
2547.44	-0.137852
2548.81	-0.113356
2550.18	0.336208
2551.56	0.299316
2552.93	-0.0277672
2554.3	0.189442
2555.68	-0.00486565
2557.05	0.209337
2558.42	0.574774
2559.79	-0.120619
2561.16	0.594881
2562.53	0.265781
2563.9	-0.137867
2565.28	0.0958157
2566.64	0.496685
2568.02	0.397654
2569.38	0.404707
2570.76	-0.239983
2572.12	0.146038
2573.49	-0.134705
2574.86	0.266859
2576.23	0.335018
2577.6	0.0239601
2578.97	0.591883
2580.34	-0.129755
2581.7	-0.518597
2583.07	0.532207
2584.44	-0.0246086
2585.81	0.494799
2587.17	-0.183052
2588.54	0.276236
2589.91	0.28104
2591.27	0.285589
2592.64	0.0770855
2594	0.215483
2595.37	0.518333
2596.73	0.546389
2598.1	-0.168482
2599.46	0.311104
2600.83	-0.101189
2602.19	-0.270437
2603.55	0.241058
2604.92	0.889051
2606.28	-0.182655
2607.64	0.449692
2609.01	0.416653
2610.37	-0.251381
2611.73	0.0271206
2613.09	0.408096
2614.46	-0.399933
2615.82	0.233713
2617.18	0.29686
2618.54	-0.223015
2619.9	-0.426247
2621.26	0.269398
2622.62	0.217968
2623.98	0.570236
2625.34	0.0265694
2626.7	0.392775
2628.06	0.31074
2629.42	0.228205
2630.78	0.517311
2632.14	0.374599
2633.5	0.751888
2634.86	0.564499
2636.22	0.332842
2637.57	0.190426
2638.93	0.270411
2640.29	0.335768
2641.64	-0.175047
2643	0.777946
2644.36	0.327465
2645.72	-0.343851
2647.07	0.164349
2648.43	0.125385
2649.78	0.349752
2651.14	0.484079
2652.49	0.720276
2653.85	0.662979
2655.2	0.636593
2656.56	0.378113
2657.91	0.780947
2659.27	-0.204601
2660.62	0.156826
2661.97	0.0499516
2663.33	0.453224
2664.68	0.2705
2666.03	0.465723
2667.38	0.178722
2668.74	0.853039
2670.09	-0.0300617
2671.44	0.20871
2672.79	0.448387
2674.14	0.340471
2675.49	0.0451088
2676.84	0.215384
2678.2	0.154745
2679.55	0.675753
2680.89	0.212776
2682.24	0.158134
2683.59	0.584328
2684.94	0.432436
2686.29	0.600588
2687.64	0.594362
2688.99	0.251852
2690.34	0.341463
2691.69	0.529001
2693.04	0.597265
2694.38	0.373449
2695.73	0.0335236
2697.08	-0.0151978
2698.43	0.459904
2699.77	0.0259094
2701.12	0.160042
2702.46	0.413031
2703.81	0.56683
2705.16	0.170883
2706.5	-0.0512867
2707.85	0.378798
2709.19	0.54711
2710.54	0.0467548
2711.88	0.12657
2713.23	0.395021
2714.57	0.61989
2715.92	0.524855
2717.26	0.29855
2718.6	0.435303
2719.95	0.527706
2721.29	0.590107
2722.63	0.593306
2723.97	1.07586
2725.32	0.436722
2726.66	0.175261
2728	0.771854
2729.34	0.742069
2730.68	0.420956
2732.02	0.609024
2733.36	-0.119267
2734.7	0.301996
2736.04	0.73811
2737.39	0.345417
2738.72	0.447163
2740.06	0.155746
2741.4	0.197865
2742.74	0.384045
2744.08	-0.0997868
2745.42	-0.148714
2746.76	0.643778
2748.1	0.462666
2749.44	0.281752
2750.77	0.405922
2752.11	0.153522
2753.45	0.235067
2754.78	0.432777
2756.12	-0.00668526
2757.46	0.0177402
2758.79	0.476902
2760.13	0.386614
2761.47	0.413067
2762.8	0.469374
2764.14	0.207966
2765.47	0.525274
2766.81	0.523336
2768.14	-0.608664
2769.48	0.267323
2770.81	0.359264
2772.14	-0.187075
2773.48	-0.0131779
2774.81	-0.532677
2776.14	0.273771
2777.48	0.503834
2778.81	0.173746
2780.14	-0.0973549
2781.47	0.0346146
2782.81	-0.120466
2784.14	0.0830441
2785.47	0.21455
2786.8	0.0740776
2788.13	-0.0223274
2789.46	-0.589295
2790.79	0.176003
2792.12	0.298897
2793.46	0.422626
2794.79	0.189072
2796.11	-0.330818
2797.44	-0.551527
2798.77	0.297689
2800.1	-0.210512
2801.43	0.0943089
2802.76	0.39842
2804.09	-0.495379
2805.42	-0.149963
2806.74	0.0799541
2808.07	-0.104187
2809.4	0.251123
2810.73	0.236683
2812.05	0.478857
2813.38	0.0847397
2814.71	0.190035
2816.03	0.198889
2817.36	-0.00266075
2818.68	0.179636
2820.01	-0.148308
2821.33	0.670883
2822.66	0.553263
2823.98	0.00934792
2825.31	0.711445
2826.63	0.209564
2827.96	0.997301
2829.28	1.06394
2830.61	0.933344
2831.93	0.661629
2833.25	1.40895
2834.57	1.29213
2835.9	1.62716
2837.22	1.45157
2838.54	2.16631
2839.86	2.24381
2841.18	3.0708
2842.51	3.33288
2843.83	3.92135
2845.15	4.37001
2846.47	4.96139
2847.79	5.38404
2849.11	5.3121
2850.43	6.04511
2851.75	6.19742
2853.07	6.16475
2854.39	5.59415
2855.71	5.67318
2857.03	6.69861
2858.35	6.1419
2859.67	6.8422
2860.98	6.01689
2862.3	6.74403
2863.62	6.94774
2864.94	6.82617
2866.25	7.00084
2867.57	7.45803
2868.89	7.76094
2870.21	8.38899
2871.52	8.59436
2872.84	8.46077
2874.15	8.70588
2875.47	8.01868
2876.78	8.44169
2878.1	8.39796
2879.42	8.97238
2880.73	8.59108
2882.04	8.7881
2883.36	9.21216
2884.67	9.27324
2885.99	9.67265
2887.3	9.49665
2888.61	9.09515
2889.93	9.64589
2891.24	9.81558
2892.55	9.82946
2893.87	9.91293
2895.18	9.49311
2896.49	10.2373
2897.8	10.3679
2899.11	10.7388
2900.42	10.9018
2901.74	11.4995
2903.05	11.1605
2904.36	12.2067
2905.67	11.7848
2906.98	13.0568
2908.29	13.0861
2909.6	13.0756
2910.91	13.7103
2912.22	14.4012
2913.53	15.5525
2914.83	15.0341
2916.14	15.5192
2917.45	16.4897
2918.76	16.5055
2920.07	16.1713
2921.37	17.2791
2922.68	17.7887
2923.99	17.9805
2925.3	18.497
2926.6	19.3369
2927.91	18.9048
2929.22	19.7438
2930.52	20.2039
2931.83	20.1173
2933.13	20.4633
2934.44	20.264
2935.74	20.3027
2937.05	20.0205
2938.35	19.8926
2939.66	19.5978
2940.96	19.2346
2942.27	18.9856
2943.57	18.0272
2944.87	17.7292
2946.18	16.9589
2947.48	16.9592
2948.78	16.0211
2950.09	15.5273
2951.39	15.0287
2952.69	14.3291
2953.99	15.1939
2955.29	14.6157
2956.6	14.1239
2957.9	14.1693
2959.2	12.6956
2960.5	13.3571
2961.8	12.6229
2963.1	12.7314
2964.4	12.3474
2965.7	11.6503
2967	11.2858
2968.3	11.0161
2969.6	10.9694
2970.9	11.4287
2972.2	10.3133
2973.49	10.493
2974.79	10.3208
2976.09	9.87955
2977.39	8.717
2978.69	9.40897
2979.98	9.75865
2981.28	8.59922
2982.58	8.7896
2983.88	7.37791
2985.17	7.06609
2986.47	7.74162
2987.76	6.8187
2989.06	6.85376
2990.36	6.14468
2991.65	5.92641
2992.95	5.69176
2994.24	5.58079
2995.54	5.3409
2996.83	4.81875
2998.12	4.00192
2999.42	3.92985
3000.71	3.53658
3002	3.31314
3003.3	3.37111
3004.59	3.52742
3005.88	2.71687
3007.18	3.08154
3008.47	2.73059
3009.76	1.91677
3011.05	1.98281
3012.35	2.17357
3013.64	1.83399
3014.93	1.28679
3016.22	1.63346
3017.51	1.28526
3018.8	0.88298
3020.09	0.940369
3021.38	1.14981
3022.67	0.912899
3023.96	1.00752
3025.25	0.712315
3026.54	0.541986
3027.83	0.442228
3029.12	0.0131798
3030.41	0.554989
3031.69	0.740261
3032.98	0.334082
3034.27	0.632811
3035.56	0.378614
3036.85	-0.0845871
3038.13	0.0694675
3039.42	-0.069315
3040.71	0.35282
3041.99	0.483893
3043.28	0.189738
3044.57	-0.266037
3045.85	0.0209627
3047.14	0.0796041
3048.42	0.279511
3049.71	0.0605688
3050.99	0.199851
3052.28	0.381906
3053.56	0.65967
3054.85	0.63613
3056.13	0.256117
3057.42	0.392415
3058.7	-0.0859165
3059.98	0.783949
3061.27	0.483428
3062.55	0.797391
3063.83	0.814987
3065.11	0.686412
3066.4	0.560887
3067.68	0.328803
3068.96	0.179273
3070.24	0.491874
3071.52	-0.135445
3072.8	-0.166419
3074.09	0.0315495
3075.37	0.10547
3076.65	0.192497
3077.93	0.239712
3079.21	0.180692
3080.49	0.518293
3081.77	-0.483715
3083.05	-0.397877
3084.32	-0.242563
3085.61	-0.208894
3086.88	0.367082
3088.16	-0.3882
3089.44	0.0770226
3090.72	-0.354102
3092	0.164591
3093.27	0.330984
3094.55	0.254092
3095.83	0.178054
3097.11	-0.290614
3098.38	-0.149008
3099.66	-0.0209742
3100.94	-0.258614
3102.21	-0.089426
3103.49	0.242966
3104.76	0.211042
3106.04	0.235013
3107.31	0.044549
3108.59	-0.116538
3109.86	-0.194103
3111.14	-0.147664
3112.41	0.252772
3113.69	0.302285
3114.96	0.203093
3116.23	0.15752
3117.51	0.192019
3118.78	0.441825
3120.05	0.594878
3121.33	0.366799
3122.6	0.585326
3123.87	1.10161
3125.14	0.54857
3126.42	0.0919971
3127.69	0.706038
3128.96	0.496054
3130.23	0.909199
3131.5	0.809136
3132.77	0.371474
3134.04	1.16297
3135.31	0.684118
3136.58	0.933738
3137.85	1.3038
3139.12	1.03982
3140.39	1.3552
3141.66	0.998231
3142.93	0.96537
3144.2	0.987604
3145.47	1.30664
3146.74	1.54657
3148	1.57354
3149.27	1.6022
