200.388	0.378562
202.204	0.410754
204.019	0.444016
205.832	0.0648232
207.646	0.026618
209.459	0.571106
211.274	0.0451851
213.087	0.974752
214.899	0.325144
216.711	0.839168
218.524	0.892279
220.335	0.41344
222.146	0.299004
223.956	-0.104505
225.766	0.169598
227.576	0.177787
229.388	-0.466397
231.197	-0.000449181
233.005	0.295781
234.813	-0.0590334
236.621	0.286687
238.429	-0.257382
240.236	0.0206146
242.045	-0.205254
243.852	0.10072
245.658	0.262089
247.464	0.421918
249.269	0.264981
251.074	0.539215
252.879	-0.324148
254.683	-0.513244
256.487	0.0688152
258.291	0.241346
260.094	0.487687
261.897	-0.13128
263.702	-0.242612
265.504	-0.208405
267.306	0.211721
269.108	0.270058
270.909	0.375702
272.71	0.721177
274.511	-0.0198975
276.311	0.53913
278.111	-0.374132
279.91	-0.469817
281.709	0.0101624
283.508	0.24691
285.306	0.313447
287.105	-0.0771065
288.9	0.588007
290.698	0.318305
292.495	0.146105
294.291	-0.407024
296.088	-0.69514
297.884	-0.121633
299.679	0.380262
301.475	0.0456429
303.27	0.378865
305.064	0.638845
306.858	0.730491
308.652	0.273403
310.444	0.317585
312.237	0.43435
314.03	0.719378
315.822	-0.184308
317.615	0.104361
319.406	0.871138
321.198	0.257364
322.987	0.263701
324.778	0.485216
326.568	0.110136
328.358	0.642145
330.148	0.313423
331.935	0.557044
333.724	0.17696
335.513	0.320889
337.301	0.247026
339.089	0.529782
340.875	0.117073
342.662	0.612124
344.449	0.341973
346.236	0.335187
348.02	0.329023
349.806	0.609814
351.592	0.1983
353.375	-0.261389
355.16	0.399263
356.944	0.247289
358.728	0.475312
360.51	0.773198
362.294	0.56987
364.077	0.247086
365.858	0.232864
367.64	-0.731617
369.422	0.0358448
371.202	1.10871
372.983	0.900736
374.764	0.196457
376.543	0.154723
378.324	0.137103
380.102	0.662173
381.881	1.02269
383.661	0.984118
385.438	0.617818
387.216	1.33403
388.993	1.34618
390.771	0.936628
392.548	0.762865
394.324	0.613184
396.101	0.416884
397.875	0.150132
399.651	0.211957
401.425	0.0618782
403.201	0.968072
404.974	0.276262
406.749	1.1806
408.524	1.05088
410.296	1.03812
412.07	0.743723
413.841	0.426306
415.614	0.25039
417.385	0.262913
419.156	0.487221
420.928	-0.0392399
422.698	0.74838
424.469	0.267719
426.238	0.88941
428.009	0.0781584
429.777	-0.0293589
431.548	0.238568
433.315	-0.479044
435.083	0.821995
436.852	0.175006
438.618	0.559934
440.387	0.122017
442.153	1.04278
443.919	0.342746
445.686	0.602136
447.451	0.461876
449.218	-0.0528622
450.982	0.110871
452.746	0.0177917
454.512	-0.0283184
456.275	0.484953
458.038	0.275258
459.803	0.461484
461.565	-0.305403
463.327	0.185077
465.091	0.166244
466.852	0.893703
468.613	0.555029
470.374	0.985433
472.136	-0.00242233
473.896	0.684169
475.655	0.857159
477.415	0.608599
479.176	0.381306
480.934	0.176224
482.692	0.157539
484.45	0.629007
486.21	0.962751
487.967	1.06588
489.724	0.704823
491.481	1.02122
493.237	1.12856
494.995	0.55812
496.75	0.431215
498.506	1.03006
500.26	1.27771
502.015	1.10259
503.771	1.48993
505.525	0.65435
507.279	0.803994
509.032	0.505184
510.785	0.557481
512.537	0.608144
514.289	1.22194
516.041	1.45766
517.793	1.92706
519.546	1.1255
521.297	0.770228
523.047	0.978381
524.797	1.20951
526.547	0.642714
528.297	0.310969
530.046	0.330948
531.795	0.608124
533.543	0.369181
535.291	0.527009
537.039	0.402707
538.787	1.23442
540.534	-0.129106
542.281	0.512902
544.027	0.431709
545.773	0.373864
547.519	0.525175
549.264	0.560431
551.01	0.341073
552.754	-0.0858355
554.499	0.551237
556.243	0.794799
557.987	0.43866
559.73	0.890045
561.474	1.27213
563.216	-0.00195503
564.959	-0.101339
566.701	0.443172
568.441	-0.0912323
570.182	-0.027504
571.923	0.565099
573.664	-0.561332
575.405	0.194983
577.145	-0.423637
578.885	0.657272
580.624	0.270039
582.361	-0.347263
584.1	0.0458822
585.839	0.507363
587.577	0.254731
589.315	0.36889
591.052	-0.3922
592.787	0.387668
594.524	0.108982
596.26	0.474509
597.997	-0.149309
599.732	-0.543386
601.466	0.189013
603.201	0.459958
604.936	0.131533
606.67	-0.174931
608.403	-0.229257
610.136	0.404804
611.87	-0.0624685
613.603	-0.780763
615.334	0.152306
617.067	0.672463
618.799	0.252746
620.529	0.152827
622.26	0.486436
623.991	0.338627
625.72	0.213811
627.451	-0.22952
629.181	0.219397
630.909	0.487803
632.638	0.781065
634.368	0.801663
636.095	0.411115
637.823	0.201464
639.551	0.970576
641.277	0.344636
643.005	0.150083
644.73	-0.13649
646.457	0.510314
648.184	0.70323
649.908	0.24012
651.634	0.258064
653.357	0.461668
655.083	-0.104563
656.806	0.468895
658.53	-0.459825
660.253	0.160722
661.977	0.301413
663.7	0.188709
665.422	0.302155
667.145	0.0707512
668.865	0.135784
670.588	0.567404
672.308	0.200223
674.027	0.0411005
675.749	-0.00160217
677.468	0.622196
679.188	0.466599
680.907	0.746538
682.627	0.403997
684.345	0.657396
686.064	0.49449
687.781	0.744474
689.498	0.0489969
691.216	0.43536
692.932	0.913246
694.65	0.814487
696.366	0.829905
698.081	0.613888
699.797	0.856969
701.512	0.592668
703.228	0.557529
704.942	0.659534
706.655	0.944454
708.371	1.20555
710.083	0.618024
711.796	1.17581
713.51	1.00031
715.222	1.23627
716.934	0.923763
718.645	1.15939
720.358	0.642613
722.068	0.445725
723.779	0.704285
725.49	0.780404
727.2	0.288279
728.909	0.704349
730.618	0.779116
732.329	1.28365
734.037	0.90457
735.745	1.76945
737.453	0.916837
739.16	1.375
740.869	1.94608
742.576	1.43636
744.282	0.726089
745.988	0.873065
747.694	0.796361
749.401	1.48577
751.107	1.884
752.811	1.63135
754.516	1.49259
756.22	1.53535
757.924	0.701657
759.627	1.15267
761.332	1.53781
763.035	1.6985
764.738	1.65598
766.44	1.74783
768.142	2.38041
769.843	2.55883
771.544	1.87568
773.245	1.93716
774.946	1.95286
776.646	2.53434
778.346	2.07712
780.046	2.72963
781.745	2.20738
783.444	1.61713
785.143	2.29311
786.841	2.08393
788.539	1.75831
790.237	1.83665
791.934	1.70859
793.631	1.39836
795.328	1.31396
797.024	1.54612
798.72	1.194
800.416	1.51942
802.112	2.61092
803.807	1.67827
805.502	1.98267
807.196	1.88151
808.89	1.46484
810.584	2.37155
812.278	2.26683
813.971	1.98238
815.664	1.45188
817.354	2.01828
819.047	1.93565
820.739	2.29995
822.43	1.8831
824.122	1.98054
825.813	1.65593
827.503	1.73476
829.192	1.90544
830.882	1.38886
832.571	2.14487
834.261	1.83389
835.95	2.01439
837.637	2.15033
839.325	1.68237
841.013	1.63678
842.701	2.34941
844.389	1.67629
846.074	1.40586
847.761	1.85252
849.447	1.45199
851.131	1.4341
852.817	1.82165
854.503	2.16617
856.188	1.70269
857.871	1.30462
859.556	1.33173
861.24	1.10938
862.922	1.49339
864.606	1.76373
866.289	1.22172
867.97	0.994445
869.653	1.42067
871.336	1.62116
873.016	0.512993
874.698	1.57056
876.379	1.77089
878.058	1.33936
879.739	1.29136
881.418	0.926957
883.098	1.28424
884.778	1.68558
886.456	1.56626
888.135	1.67099
889.812	1.00724
891.49	0.793469
893.167	1.11919
894.845	1.80321
896.523	1.02365
898.198	1.59206
899.875	0.677733
901.55	1.04186
903.226	1.22549
904.901	0.670947
906.576	0.854603
908.25	1.61811
909.925	0.866418
911.598	1.40759
913.271	1.21498
914.945	1.11195
916.617	0.432421
918.291	1.26118
919.962	1.44639
921.635	1.03452
923.306	0.712901
924.978	0.768866
926.648	0.870763
928.318	0.621134
929.989	1.21144
931.659	0.654967
933.328	0.738716
934.998	0.624111
936.666	0.267349
938.336	0.859784
940.004	0.813838
941.671	0.791169
943.34	1.87255
945.007	1.12247
946.673	1.01116
948.339	0.522775
950.007	0.849213
951.672	0.379999
953.337	0.616853
955.004	0.259677
956.669	1.33852
958.333	0.457876
959.997	0.285488
961.662	0.688731
963.326	0.65045
964.989	0.190325
966.651	0.612276
968.315	0.168748
969.977	1.11699
971.639	0.205999
973.301	1.28609
974.962	1.17327
976.624	0.70848
978.285	0.178695
979.945	0.501254
981.605	0.823683
983.264	0.248374
984.924	0.600937
986.583	0.752185
988.243	0.43693
989.901	0.231289
991.56	0.356739
993.217	1.21076
994.875	0.408291
996.532	0.820286
998.188	0.834922
999.845	0.91544
1001.5	0.973458
1003.16	0.898933
1004.81	0.75821
1006.47	0.112136
1008.12	0.938417
1009.78	0.205804
1011.43	0.176384
1013.09	0.410456
1014.74	0.776081
1016.39	0.0909052
1018.05	0.522869
1019.7	1.21768
1021.35	0.994788
1023	0.795047
1024.65	1.40501
1026.31	0.420273
1027.96	1.55524
1029.61	1.46587
1031.26	0.741925
1032.91	1.19575
1034.56	1.2983
1036.21	0.941394
1037.86	1.21593
1039.51	1.0981
1041.16	1.00287
1042.8	0.930858
1044.45	0.838991
1046.1	0.814356
1047.75	1.09573
1049.39	0.857596
1051.04	1.22893
1052.69	0.623669
1054.33	0.583526
1055.98	0.847683
1057.62	-0.105689
1059.27	0.244701
1060.91	1.18167
1062.56	0.791524
1064.2	0.661396
1065.85	0.747661
1067.49	0.680658
1069.13	0.764803
1070.77	0.95679
1072.42	0.714323
1074.06	0.537633
1075.7	0.817606
1077.34	0.144582
1078.98	0.94755
1080.62	0.233353
1082.27	0.776908
1083.91	0.929285
1085.55	0.581425
1087.18	0.816811
1088.82	0.81164
1090.46	0.523401
1092.1	1.20722
1093.74	0.679811
1095.38	0.110431
1097.02	0.599146
1098.65	0.334509
1100.29	-0.164849
1101.93	0.155807
1103.56	0.650089
1105.2	0.973465
1106.84	0.544645
1108.47	1.16942
1110.11	0.524362
1111.74	0.673367
1113.38	1.0569
1115.01	1.03079
1116.64	0.0601273
1118.28	0.505819
1119.91	0.715921
1121.54	0.691257
1123.18	0.582102
1124.81	0.302893
1126.44	0.495296
1128.07	0.645632
1129.7	1.35256
1131.33	0.199969
1132.97	-0.118377
1134.6	0.0335016
1136.23	0.548113
1137.86	0.463219
1139.49	0.377194
1141.11	-0.00865269
1142.74	0.0108166
1144.37	-0.118919
1146	0.306398
1147.63	0.263477
1149.26	0.0936289
1150.88	0.329076
1152.51	0.628341
1154.14	-0.137342
1155.76	-0.0516357
1157.39	0.0764465
1159.01	0.162246
1160.64	0.142495
1162.27	-0.173834
1163.89	-0.0639172
1165.51	-0.0172691
1167.14	-0.0558624
1168.76	0.18097
1170.39	0.012289
1172.01	-0.136863
1173.63	0.17957
1175.25	0.345847
1176.88	0.320542
1178.5	-0.488304
1180.12	0.398088
1181.74	-0.13315
1183.36	0.520864
1184.98	0.0120773
1186.6	-0.412457
1188.22	0.090538
1189.84	-0.0415897
1191.46	0.224784
1193.08	-0.415082
1194.7	0.247778
1196.32	0.216886
1197.94	0.375403
1199.55	0.535219
1201.17	-0.744672
1202.79	-0.182674
1204.41	0.235018
1206.02	0.237227
1207.64	0.386801
1209.25	-0.31858
1210.87	0.247783
1212.48	-0.105097
1214.1	0.082078
1215.71	0.308529
1217.33	-0.0496368
1218.94	0.236128
1220.56	0.749517
1222.17	0.495193
1223.79	0.15968
1225.4	0.61296
1227.01	0.653296
1228.62	0.239963
1230.23	0.13833
1231.85	1.00944
1233.46	1.03405
1235.07	0.749933
1236.68	0.549681
1238.29	0.908568
1239.9	0.854746
1241.51	0.759746
1243.12	0.354076
1244.73	0.94074
1246.34	1.29891
1247.94	0.662811
1249.55	1.49506
1251.16	1.02345
1252.77	1.02792
1254.37	0.557379
1255.98	0.294725
1257.59	0.695184
1259.2	1.30387
1260.8	0.920269
1262.41	1.73791
1264.01	1.27189
1265.62	0.680801
1267.22	1.24943
1268.83	1.38201
1270.43	1.09888
1272.03	0.959812
1273.64	0.716084
1275.24	1.11403
1276.85	1.30364
1278.45	1.38872
1280.05	1.53521
1281.65	1.49497
1283.25	1.64106
1284.85	1.7669
1286.46	1.87291
1288.06	1.25658
1289.66	1.98468
1291.26	1.80398
1292.86	1.89187
1294.46	1.54515
1296.06	1.98209
1297.66	1.9835
1299.25	1.92123
1300.85	1.09462
1302.45	2.22499
1304.05	1.7059
1305.65	1.68048
1307.24	1.65458
1308.84	1.3412
1310.43	1.43837
1312.03	1.37192
1313.63	1.89948
1315.22	1.26236
1316.82	1.01522
1318.41	1.2383
1320.01	1.52212
1321.6	1.76388
1323.2	1.57627
1324.79	1.67187
1326.38	1.50186
1327.98	1.63579
1329.57	1.30419
1331.16	1.62214
1332.76	1.51737
1334.35	1.63718
1335.94	1.8191
1337.53	1.5174
1339.12	1.61857
1340.71	1.67766
1342.3	1.53325
1343.89	1.3469
1345.48	1.2803
1347.07	1.69512
1348.66	0.908887
1350.25	1.28731
1351.84	1.14771
1353.43	1.19026
1355.01	1.21413
1356.6	1.03858
1358.19	0.982593
1359.77	1.2053
1361.36	1.46667
1362.95	0.749438
1364.53	0.90987
1366.12	0.412821
1367.71	0.394971
1369.29	0.716651
1370.88	0.939951
1372.46	0.826245
1374.04	1.01211
1375.63	1.35783
1377.21	0.489871
1378.8	0.954668
1380.38	0.841435
1381.96	1.14474
1383.54	1.06874
1385.13	0.455132
1386.71	0.63633
1388.29	0.360745
1389.87	0.741035
1391.45	0.308331
1393.03	0.68997
1394.61	-0.118196
1396.19	0.104966
1397.77	0.505804
1399.35	0.667653
1400.93	0.53137
1402.51	0.810345
1404.09	0.0799904
1405.67	0.715235
1407.24	0.817033
1408.82	0.287306
1410.4	0.350986
1411.98	0.631818
1413.55	0.852715
1415.13	0.303061
1416.71	0.167293
1418.28	0.524038
1419.86	0.0138988
1421.43	0.509379
1423.01	1.20278
1424.58	0.834665
1426.16	0.782737
1427.73	0.337694
1429.31	0.896242
1430.88	1.07997
1432.45	1.45932
1434.02	1.03092
1435.6	1.88065
1437.17	1.41276
1438.74	1.67311
1440.31	2.40606
1441.88	1.84282
1443.45	1.88957
1445.03	1.89742
1446.6	2.39684
1448.17	2.20849
1449.74	2.35459
1451.3	2.08829
1452.87	2.01912
1454.44	1.57657
1456.01	1.80276
1457.58	2.38265
1459.15	2.01669
1460.72	1.4325
1462.28	1.43691
1463.85	1.81334
1465.42	1.61827
1466.98	0.931912
1468.55	1.18902
1470.12	1.46632
1471.68	1.80337
1473.25	1.3764
1474.81	1.08765
1476.38	1.81896
1477.94	1.35432
1479.51	1.14455
1481.07	0.993527
1482.63	0.901255
1484.2	1.27913
1485.76	1.06883
1487.32	1.50422
1488.88	1.19407
1490.45	1.29333
1492.01	1.60538
1493.57	0.64504
1495.13	1.30437
1496.69	0.889318
1498.25	0.903172
1499.81	0.742564
1501.37	0.796881
1502.93	0.677654
1504.49	0.714516
1506.05	0.693503
1507.61	0.613957
1509.17	0.591586
1510.73	1.51371
1512.28	-0.11122
1513.84	0.48105
1515.4	0.745153
1516.96	-0.104384
1518.51	0.467818
1520.07	0.63704
1521.63	-0.131524
1523.18	0.420201
1524.74	0.14902
1526.29	0.35431
1527.85	0.367795
1529.4	0.665949
1530.96	0.412554
1532.51	0.36889
1534.06	0.515493
1535.62	0.568108
1537.17	0.186899
1538.72	0.637625
1540.28	0.597534
1541.83	0.23736
1543.38	-0.0469246
1544.93	-0.0487957
1546.48	0.193324
1548.03	0.265925
1549.59	0.525773
1551.14	0.579268
1552.69	1.00724
1554.24	0.351233
1555.79	0.313815
1557.34	0.520629
1558.88	0.523729
1560.43	0.565834
1561.98	0.963808
1563.53	0.803174
1565.08	0.213884
1566.62	0.501606
1568.17	0.882522
1569.72	0.964517
1571.27	0.672814
1572.81	0.474149
1574.36	0.816687
1575.9	1.1219
1577.45	1.03527
1579	0.892988
1580.54	1.06864
1582.09	0.647415
1583.63	1.17947
1585.17	0.722072
1586.72	1.04999
1588.26	0.892006
1589.8	1.16407
1591.35	0.574883
1592.89	0.995983
1594.43	1.19229
1595.97	1.50113
1597.52	1.51067
1599.06	1.33332
1600.6	2.20695
1602.14	1.28015
1603.68	1.59173
1605.22	1.33938
1606.76	0.991613
1608.3	1.01784
1609.84	0.891632
1611.38	1.60889
1612.92	1.49735
1614.46	1.17821
1615.99	1.36543
1617.53	1.49657
1619.07	1.08531
1620.61	1.42489
1622.14	1.39108
1623.68	1.00237
1625.22	1.11922
1626.75	1.02949
1628.29	1.08832
1629.82	1.59463
1631.36	1.3518
1632.9	1.37033
1634.43	1.87443
1635.96	1.9496
1637.5	1.72721
1639.03	1.8039
1640.57	1.09783
1642.1	1.54678
1643.63	1.78948
1645.16	1.73298
1646.7	2.19633
1648.23	2.11977
1649.76	0.966688
1651.29	1.78302
1652.82	1.93189
1654.36	1.22886
1655.89	1.91702
1657.42	2.17853
1658.95	2.0872
1660.48	1.79104
1662.01	1.86382
1663.53	1.97233
1665.06	1.95077
1666.59	1.6158
1668.12	2.03847
1669.65	1.76161
1671.18	1.50486
1672.7	1.52561
1674.23	1.91512
1675.76	2.23058
1677.29	1.29357
1678.81	1.2945
1680.34	1.22089
1681.86	0.962901
1683.39	0.906898
1684.91	0.814299
1686.44	0.942174
1687.96	0.667049
1689.49	0.484158
1691.01	0.576304
1692.54	0.65012
1694.06	0.632339
1695.58	0.523006
1697.11	0.614552
1698.63	0.90656
1700.15	0.613812
1701.67	1.01401
1703.2	0.37431
1704.72	0.336024
1706.24	0.224607
1707.76	0.276737
1709.28	0.819104
1710.8	0.0539198
1712.32	0.341873
1713.84	0.140294
1715.36	0.156328
1716.88	0.298887
1718.4	0.495306
1719.91	0.131522
1721.43	0.291708
1722.95	0.434065
1724.47	0.577065
1725.99	0.306846
1727.5	0.362016
1729.02	0.130074
1730.54	0.455928
1732.05	-0.127717
1733.57	0.720353
1735.09	0.247928
1736.6	0.0358853
1738.12	-0.00722218
1739.63	0.529222
1741.15	0.0340943
1742.66	0.15595
1744.18	0.666244
1745.69	0.115827
1747.2	0.512383
1748.72	-0.0536528
1750.23	0.082314
1751.74	-0.0472331
1753.25	0.440858
1754.77	0.0722485
1756.28	0.17976
1757.79	-0.0165839
1759.3	-0.17321
1760.81	-0.148536
1762.32	-0.295515
1763.83	-0.0837159
1765.34	0.278304
1766.85	0.239101
1768.36	0.0875726
1769.87	0.238197
1771.38	0.253068
1772.89	0.260942
1774.4	0.0852413
1775.91	0.0149326
1777.41	-0.12208
1778.92	0.00328302
1780.43	0.291387
1781.94	-0.161706
1783.44	0.282477
1784.95	0.0300403
1786.45	0.31942
1787.96	0.00630474
1789.47	0.316007
1790.97	0.146698
1792.48	0.217588
1793.98	-0.111719
1795.48	-0.116412
1796.99	0.0195909
1798.49	0.017252
1800	-0.0852637
1801.5	-0.312098
1803	0.138196
1804.51	-0.187894
1806.01	0.176297
1807.51	0.18351
1809.01	-0.0840082
1810.51	-0.0972729
1812.02	-0.0865407
1813.52	0.0480423
1815.02	-0.160797
1816.52	0.27204
1818.02	0.0792074
1819.52	0.115197
1821.02	-0.0404854
1822.52	-0.0900478
1824.02	-0.0762095
1825.51	-0.0115824
1827.01	-0.0846763
1828.51	0.0369968
1830.01	0.422047
1831.51	0.0336294
1833	0.304044
1834.5	0.152221
1836	0.23107
1837.5	0.0142698
1838.99	-0.0993967
1840.49	-0.173968
1841.98	-0.0956345
1843.48	-0.236253
1844.97	0.2823
1846.47	0.195218
1847.96	0.0938349
1849.46	-0.193927
1850.95	0.180445
1852.45	0.0727205
1853.94	0.343029
1855.43	0.0148425
1856.92	0.0499172
1858.42	0.117784
1859.91	-0.0714221
1861.4	0.0707355
1862.89	0.304825
1864.39	0.113709
1865.88	-0.0265241
1867.37	-0.0257812
1868.86	0.125318
1870.35	0.273942
1871.84	-0.0329328
1873.33	0.0849719
1874.82	0.207814
1876.31	0.00242853
1877.8	0.00301552
1879.29	-0.068954
1880.77	0.273452
1882.26	0.49343
1882.51	0.524491
1884	-0.277408
1885.5	0.175312
1886.99	-0.191709
1888.48	0.311625
1889.98	-0.0205641
1891.47	0.0657172
1892.97	0.222773
1894.46	0.381276
1895.95	0.36721
1897.44	0.0233998
1898.93	-0.494594
1900.42	0.047709
1901.92	0.119034
1903.41	0.101932
1904.9	0.0836563
1906.39	0.116864
1907.88	-0.162576
1909.37	0.0967965
1910.86	0.374059
1912.35	-0.00727701
1913.84	0.0976253
1915.32	0.167879
1916.81	0.480545
1918.3	0.151306
1919.79	0.133764
1921.28	0.0122199
1922.76	-0.0743032
1924.25	-0.160104
1925.74	-0.0892029
1927.22	0.536527
1928.71	-0.135666
1930.2	0.00582695
1931.68	0.0601163
1933.17	0.113238
1934.65	0.0437331
1936.14	-0.00976658
1937.62	0.126025
1939.11	0.123021
1940.59	-0.0178924
1942.08	0.100893
1943.56	-0.34885
1945.04	0.323283
1946.53	-0.29763
1948.01	0.0984392
1949.49	0.235222
1950.97	0.405493
1952.45	0.110194
1953.94	0.175904
1955.42	-0.119409
1956.9	0.204175
1958.38	0.167501
1959.86	0.21723
1961.34	0.387388
1962.82	0.163345
1964.3	0.179198
1965.78	-0.164998
1967.26	0.226577
1968.74	0.0526991
1970.22	-0.0359697
1971.69	-0.0905709
1973.17	0.383961
1974.65	-0.421304
1976.13	0.0359511
1977.61	0.117994
1979.08	0.251068
1980.56	0.230849
1982.03	0.159518
1983.51	0.325843
1984.99	-0.20427
1986.46	0.114239
1987.94	0.330551
1989.41	-0.0797882
1990.89	0.255582
1992.36	0.320688
1993.84	0.200591
1995.31	0.436141
1996.78	0.0299315
1998.26	0.164382
1999.73	0.0789213
2001.2	-0.00695896
2002.68	0.311636
2004.15	0.174627
2005.62	0.139114
2007.09	0.121064
2008.56	0.00274754
2010.04	-0.165339
2011.51	0.222536
2012.98	-0.0292349
2014.45	0.206761
2015.92	0.677566
2017.39	0.255936
2018.86	0.287851
2020.33	0.43689
2021.8	0.300162
2023.27	0.516322
2024.74	0.581943
2026.2	0.380135
2027.67	0.0621853
2029.14	0.0305748
2030.61	-0.0838704
2032.07	0.591103
2033.54	0.259696
2035.01	0.314286
2036.47	0.234212
2037.94	0.741762
2039.41	-0.2634
2040.87	-0.0755115
2042.34	0.398593
2043.8	0.30171
2045.27	0.424235
2046.73	0.833717
2048.2	0.536408
2049.66	0.221657
2051.12	-0.0267467
2052.59	0.347466
2054.05	0.0794187
2055.51	0.113537
2056.98	-0.0894632
2058.44	0.41478
2059.9	0.73319
2061.36	0.411872
2062.82	0.377586
2064.29	0.445125
2065.75	0.732251
2067.21	0.683514
2068.67	0.736259
2070.13	0.738787
2071.59	0.522508
2073.05	0.693315
2074.51	0.594504
2075.97	0.461715
2077.43	0.564377
2078.88	0.64986
2080.34	0.415013
2081.8	0.381793
2083.26	0.819351
2084.72	1.03728
2086.17	0.901164
2087.63	0.596469
2089.09	0.980738
2090.54	0.692551
2092	1.10971
2093.46	0.888725
2094.91	0.567136
2096.37	1.15055
2097.82	1.41438
2099.28	1.07476
2100.73	0.73537
2102.19	1.11521
2103.64	1.39505
2105.09	1.20841
2106.55	1.05657
2108	1.05587
2109.46	1.32227
2110.91	1.58806
2112.36	1.61914
2113.81	1.59863
2115.27	1.74303
2116.72	1.22134
2118.17	1.54795
2119.62	1.80888
2121.07	1.55703
2122.52	1.75499
2123.97	1.805
2125.42	1.85563
2126.87	2.03865
2128.32	1.83939
2129.77	1.90406
2131.22	1.52024
2132.67	1.84786
2134.12	2.07579
2135.57	2.45304
2137.01	2.21989
2138.46	2.22003
2139.91	2.13939
2141.36	2.6885
2142.8	2.14775
2144.25	2.53364
2145.7	2.60554
2147.14	2.31296
2148.59	2.5661
2150.03	2.60314
2151.48	2.93743
2152.92	2.74052
2154.37	2.69188
2155.81	2.51025
2157.26	2.70971
2158.7	2.64482
2160.15	2.63096
2161.59	2.40341
2163.03	2.62514
2164.48	2.74912
2165.92	2.87414
2167.36	2.89957
2168.8	2.77434
2170.25	2.66382
2171.69	3.2997
2173.13	3.00205
2174.57	2.52002
2176.01	2.75266
2177.45	2.88564
2178.89	2.75334
2180.33	2.47242
2181.77	2.32535
2183.21	2.86063
2184.65	2.98057
2186.09	2.41856
2187.53	2.57184
2188.97	2.37573
2190.41	2.76211
2191.84	1.94969
2193.28	3.00117
2194.72	2.4197
2196.16	2.55236
2197.59	2.03407
2199.03	2.27957
2200.47	2.14155
2201.9	2.43524
2203.34	2.18166
2204.78	2.29422
2206.21	1.54587
2207.65	1.99146
2209.08	1.59197
2210.51	1.7218
2211.95	1.47011
2213.38	1.79661
2214.82	1.84171
2216.25	1.85429
2217.68	1.9669
2219.12	1.80025
2220.55	2.01369
2221.98	1.28773
2223.42	1.58308
2224.85	1.49818
2226.28	1.57638
2227.71	1.50498
2229.14	1.64603
2230.57	1.14626
2232	1.30285
2233.43	1.39388
2234.86	1.32186
2236.29	1.26737
2237.72	1.10009
2239.15	1.4568
2240.58	0.836339
2242.01	0.739574
2243.44	1.13316
2244.87	1.03778
2246.3	0.762416
2247.73	1.0892
2249.15	0.582546
2250.58	0.726251
2252.01	0.803158
2253.43	0.765378
2254.86	0.630425
2256.29	0.61051
2257.71	0.625003
2259.14	0.236243
2260.56	0.709745
2261.99	0.649878
2263.41	0.445107
2264.84	0.727887
2266.26	0.279006
2267.69	0.0079751
2269.11	0.565997
2270.54	0.537703
2271.96	0.232167
2273.38	0.610375
2274.81	0.58157
2276.23	0.145574
2277.65	0.589599
2279.07	0.251396
2280.49	0.190182
2281.92	0.536612
2283.34	0.393699
2284.76	0.169162
2286.18	0.352747
2287.6	0.651026
2289.02	0.29652
2290.44	0.579335
2291.86	0.650106
2293.28	0.737401
2294.7	0.203015
2296.12	0.0609474
2297.54	0.2626
2298.96	0.0549045
2300.38	0.781386
2301.79	0.229766
2303.21	0.317659
2304.63	-0.431376
2306.05	-0.17943
2307.46	0.41757
2308.88	-0.0537939
2310.3	-0.213535
2311.71	-0.126943
2313.13	0.15712
2314.55	0.0137248
2315.96	0.0683742
2317.38	0.42023
2318.79	0.0804806
2320.21	0.383429
2321.62	0.223787
2323.03	0.112089
2324.45	0.493677
2325.86	0.130884
2327.27	0.509126
2328.69	0.721528
2330.1	0.242045
2331.51	0.438752
2332.93	0.0930867
2334.34	-0.0378089
2335.75	0.325068
2337.16	-0.348691
2338.57	-0.13495
2339.99	-0.0865664
2341.4	-0.285275
2342.81	0.139505
2344.22	0.399687
2345.63	0.0369592
2347.04	-0.210437
2348.45	-0.0482759
2349.86	0.358778
2351.26	-0.248827
2352.67	0.0257659
2354.08	0.152289
2355.49	0.375822
2356.9	0.338098
2358.31	-0.350171
2359.71	-0.0782747
2361.12	0.176891
2362.53	0.00997496
2363.94	-0.156672
2365.34	0.210883
2366.75	0.25458
2368.15	-0.153406
2369.56	0.311217
2370.97	-0.23938
2372.37	0.00112534
2373.78	0.113332
2375.18	0.40281
2376.59	0.0481801
2377.99	-0.258658
2379.39	-0.19666
2380.8	0.249272
2382.2	0.340399
2383.61	0.28645
2385.01	0.136469
2386.41	0.0510588
2387.81	-0.0334706
2389.22	0.345459
2390.62	-0.215214
2392.02	0.499455
2393.42	-0.0429478
2394.82	0.401898
2396.22	0.131528
2397.63	0.195596
2399.02	0.0217452
2400.43	0.309048
2401.82	0.818874
2403.23	-0.450107
2404.62	-0.162854
2406.02	-0.3367
2407.42	0.028388
2408.82	-0.0197954
2410.22	-0.0364842
2411.62	-0.116367
2413.02	0.0736475
2414.41	0.248675
2415.81	0.361471
2417.21	0.158694
2418.61	-0.29675
2420	0.419866
2421.4	-0.162223
2422.79	-0.285337
2424.19	0.0824962
2425.59	0.276147
2426.98	0.0581765
2428.38	-0.0324025
2429.77	0.480339
2431.17	0.153126
2432.56	-0.110768
2433.96	0.0217509
2435.35	-0.116549
2436.74	-0.0653353
2438.14	0.175385
2439.53	0.129119
2440.92	-0.219553
2442.32	0.0824471
2443.71	-0.282459
2445.1	-0.314107
2446.49	0.193209
2447.88	0.240399
2449.28	0.335052
2450.67	0.0497999
2452.06	0.208349
2453.45	0.0667582
2454.84	0.210651
2456.23	0.37087
2457.62	0.151694
2459.01	0.169682
2460.4	0.060709
2461.79	0.31481
2463.18	0.42589
2464.57	-0.127148
2465.96	-0.316734
2467.34	0.314615
2468.73	-0.0328975
2470.12	0.187511
2471.51	0.28125
2472.89	0.216816
2474.28	0.0731549
2475.67	0.0393171
2477.05	-0.136211
2478.44	-0.107336
2479.83	0.0471463
2481.21	0.217196
2482.6	0.339927
2483.98	0.0863862
2485.37	0.192339
2486.75	-0.249602
2488.14	-0.129585
2489.52	-0.400028
2490.9	-0.296348
2492.29	0.025063
2493.67	0.253355
2495.06	-0.138283
2496.44	0.0452013
2497.82	0.167104
2499.2	0.118788
2500.59	-0.0379839
2501.97	0.14491
2503.35	0.172331
2504.73	-0.155773
2506.11	-0.0984416
2507.49	-0.14916
2508.88	-0.0305676
2510.26	0.0420113
2511.63	0.360406
2513.01	-0.286888
2514.39	0.170316
2515.77	0.290784
2517.15	0.0751743
2518.53	0.196578
2519.91	0.134619
2521.29	0.48489
2522.67	0.0558004
2524.05	-0.00729942
2525.42	0.15776
2526.8	-0.195401
2528.18	0.167437
2529.56	0.165645
2530.93	0.028276
2532.31	0.13539
2533.69	0.106773
2535.06	0.0483236
2536.44	-0.162068
2537.81	0.158757
2539.19	0.205376
2540.56	0.129861
2541.94	0.251417
2543.31	0.00895691
2544.69	0.0858045
2546.06	0.300069
2547.44	0.136065
2548.81	-0.239734
2550.18	-0.0238023
2551.56	0.191838
2552.93	0.270215
2554.3	-0.077116
2555.68	0.0756536
2557.05	0.212754
2558.42	0.364834
2559.79	0.183527
2561.16	0.0784893
2562.53	-0.313974
2563.9	0.0668869
2565.28	-0.0217142
2566.64	0.147486
2568.02	0.22584
2569.38	0.0313931
2570.76	0.170374
2572.12	0.112344
2573.49	-0.127533
2574.86	-0.18547
2576.23	0.165959
2577.6	0.0625114
2578.97	0.322795
2580.34	0.309877
2581.7	0.1905
2583.07	-0.00496626
2584.44	0.314857
2585.81	0.285924
2587.17	0.348025
2588.54	-0.0140967
2589.91	0.154324
2591.27	0.443852
2592.64	-0.1913
2594	0.0517902
2595.37	-0.0997524
2596.73	0.0356522
2598.1	0.29134
2599.46	0.168458
2600.83	-0.392403
2602.19	0.135054
2603.55	0.119069
2604.92	0.269508
2606.28	0.223892
2607.64	0.0272737
2609.01	0.176837
2610.37	0.0391316
2611.73	0.171528
2613.09	-0.0129642
2614.46	0.553369
2615.82	0.232992
2617.18	0.258221
2618.54	0.0592146
2619.9	0.31005
2621.26	0.32182
2622.62	-0.114285
2623.98	0.0476604
2625.34	0.104886
2626.7	-0.00219011
2628.06	-0.0944681
2629.42	0.185407
2630.78	0.107607
2632.14	0.401492
2633.5	0.115545
2634.86	-0.051228
2636.22	-0.143611
2637.57	0.104956
2638.93	0.293929
2640.29	0.379155
2641.64	0.375744
2643	0.283914
2644.36	0.310443
2645.72	0.307364
2647.07	0.245009
2648.43	0.0643787
2649.78	0.633953
2651.14	-0.135943
2652.49	0.343791
2653.85	-0.0282197
2655.2	0.143358
2656.56	-0.25573
2657.91	0.0198555
2659.27	0.0470896
2660.62	0.308546
2661.97	0.0727439
2663.33	0.0266223
2664.68	-0.00545835
2666.03	0.1953
2667.38	0.278778
2668.74	0.449409
2670.09	-0.00568295
2671.44	0.20911
2672.79	0.249724
2674.14	0.0148473
2675.49	0.259627
2676.84	0.0693598
2678.2	0.459863
2679.55	-0.0482054
2680.89	0.227568
2682.24	0.330241
2683.59	-0.131679
2684.94	0.262677
2686.29	-0.00981951
2687.64	0.297974
2688.99	0.256593
2690.34	0.155839
2691.69	0.198856
2693.04	-0.0785074
2694.38	-0.0663295
2695.73	-0.0108356
2697.08	-0.17225
2698.43	-0.303663
2699.77	0.377001
2701.12	-0.0415387
2702.46	0.207168
2703.81	0.485821
2705.16	-0.162713
2706.5	0.188982
2707.85	0.0184016
2709.19	0.326417
2710.54	0.300361
2711.88	0.288596
2713.23	0.334824
2714.57	0.0321712
2715.92	0.369038
2717.26	0.356922
2718.6	0.359144
2719.95	0.18646
2721.29	0.115233
2722.63	0.160054
2723.97	0.0444012
2725.32	0.1613
2726.66	0.627217
2728	0.379673
2729.34	0.0737672
2730.68	-0.0139298
2732.02	0.0729437
2733.36	0.0289268
2734.7	0.159586
2736.04	0.275824
2737.39	0.173986
2738.72	0.304823
2740.06	0.173692
2741.4	-0.0450187
2742.74	0.157439
2744.08	0.373793
2745.42	0.34254
2746.76	0.122181
2748.1	0.221192
2749.44	0.233083
2750.77	0.259611
2752.11	0.0978303
2753.45	-0.0491734
2754.78	0.064826
2756.12	0.207809
2757.46	0.524581
2758.79	0.522906
2760.13	-0.158703
2761.47	-0.0438294
2762.8	-0.0733395
2764.14	0.157824
2765.47	0.085115
2766.81	0.11334
2768.14	0.560314
2769.48	0.124003
2770.81	-0.182966
2772.14	-0.129525
2773.48	0.413659
2774.81	0.162563
2776.14	0.142327
2777.48	-0.0503144
2778.81	0.0597363
2780.14	-0.289838
2781.47	0.0649624
2782.81	0.17538
2784.14	0.0131025
2785.47	0.209319
2786.8	0.247857
2788.13	-0.114085
2789.46	-0.146006
2790.79	-0.00562859
2792.12	-0.0506468
2793.46	0.0476437
2794.79	-0.297132
2796.11	0.20102
2797.44	-0.0871449
2798.77	0.0528169
2800.1	0.0781546
2801.43	-0.196311
2802.76	-0.185501
2804.09	0.19562
2805.42	-0.178874
2806.74	0.00173855
2808.07	0.0251679
2809.4	0.289831
2810.73	0.128067
2812.05	0.108896
2813.38	0.161513
2814.71	-0.167618
2816.03	0.0856495
2817.36	-0.000479698
2818.68	0.409909
2820.01	0.168319
2821.33	0.394102
2822.66	0.222521
2823.98	0.390542
2825.31	0.218251
2826.63	-0.123861
2827.96	0.270773
2829.28	0.396739
2830.61	0.296552
2831.93	0.52211
2833.25	0.620209
2834.57	0.491576
2835.9	0.843746
2837.22	0.742579
2838.54	0.839134
2839.86	1.1193
2841.18	1.14492
2842.51	1.66559
2843.83	1.3528
2845.15	1.52117
2846.47	1.63354
2847.79	1.64729
2849.11	2.22641
2850.43	2.22581
2851.75	2.3661
2853.07	2.54829
2854.39	2.15071
2855.71	2.30408
2857.03	2.59866
2858.35	2.35646
2859.67	2.43913
2860.98	2.7899
2862.3	2.50497
2863.62	2.77026
2864.94	2.69653
2866.25	2.69334
2867.57	3.11346
2868.89	3.3787
2870.21	3.03803
2871.52	3.45878
2872.84	3.10401
2874.15	3.24186
2875.47	3.88574
2876.78	3.66924
2878.1	3.2411
2879.42	4.02261
2880.73	3.44014
2882.04	3.04162
2883.36	3.83813
2884.67	3.20291
2885.99	3.63539
2887.3	3.35199
2888.61	3.40507
2889.93	3.73798
2891.24	3.78942
2892.55	4.03645
2893.87	3.90486
2895.18	3.77372
2896.49	3.7974
2897.8	4.26983
2899.11	4.49119
2900.42	4.46146
2901.74	4.25034
2903.05	4.12337
2904.36	4.29028
2905.67	4.47143
2906.98	4.59716
2908.29	4.73766
2909.6	5.03292
2910.91	5.03497
2912.22	4.64507
2913.53	5.58433
2914.83	5.37435
2916.14	5.91864
2917.45	5.64939
2918.76	5.60316
2920.07	5.73862
2921.37	5.49712
2922.68	6.23547
2923.99	6.38796
2925.3	6.44375
2926.6	6.47224
2927.91	6.5567
2929.22	6.10955
2930.52	6.41676
2931.83	6.55573
2933.13	5.95358
2934.44	6.65135
2935.74	6.42673
2937.05	6.25821
2938.35	5.85234
2939.66	6.29916
2940.96	6.18753
2942.27	5.57367
2943.57	5.81338
2944.87	5.60716
2946.18	5.55578
2947.48	5.43502
2948.78	5.31394
2950.09	4.9957
2951.39	4.7597
2952.69	4.82999
2953.99	5.20697
2955.29	5.12151
2956.6	4.673
2957.9	4.39437
2959.2	4.09011
2960.5	4.39045
2961.8	4.04821
2963.1	4.05694
2964.4	3.93885
2965.7	4.03008
2967	3.881
2968.3	3.18234
2969.6	3.42478
2970.9	3.31562
2972.2	3.33329
2973.49	2.87281
2974.79	2.93293
2976.09	2.86584
2977.39	2.98073
2978.69	2.7844
2979.98	2.78373
2981.28	2.20501
2982.58	2.56864
2983.88	2.76355
2985.17	2.13006
2986.47	2.20074
2987.76	2.04784
2989.06	2.06442
2990.36	1.85639
2991.65	1.59175
2992.95	1.43874
2994.24	1.74844
2995.54	0.750793
2996.83	0.778281
2998.12	0.945929
2999.42	1.05753
3000.71	1.11338
3002	0.693115
3003.3	0.245441
3004.59	0.498562
3005.88	0.443274
3007.18	0.61157
3008.47	0.779095
3009.76	0.372473
3011.05	0.0916042
3012.35	0.564786
3013.64	0.465281
3014.93	0.366271
3016.22	0.435129
3017.51	0.490593
3018.8	0.435117
3020.09	0.310262
3021.38	0.18525
3022.67	0.198687
3023.96	-0.107779
3025.25	0.278975
3026.54	0.318584
3027.83	-0.0427666
3029.12	-0.222893
3030.41	0.372091
3031.69	0.346154
3032.98	-0.244897
3034.27	0.213584
3035.56	0.216136
3036.85	0.190154
3038.13	-0.153959
3039.42	-0.113437
3040.71	0.283234
3041.99	0.170337
3043.28	-0.230079
3044.57	0.165149
3045.85	-0.232293
3047.14	-0.0535803
3048.42	0.181276
3049.71	-0.114676
3050.99	0.259394
3052.28	-0.0481696
3053.56	0.0264173
3054.85	0.223344
3056.13	0.255785
3057.42	0.491884
3058.7	0.332049
3059.98	0.267551
3061.27	-0.177557
3062.55	0.602665
3063.83	0.0917382
3065.11	0.561107
3066.4	0.392631
3067.68	0.360948
3068.96	0.166446
3070.24	0.570199
3071.52	0.0485115
3072.8	0.165201
3074.09	-0.12687
3075.37	0.246459
3076.65	0.184661
3077.93	0.326887
3079.21	0.00857544
3080.49	0.220679
3081.77	-0.0950241
3083.05	-0.0841684
3084.32	0.307215
3085.61	0.264597
3086.88	0.126665
3088.16	-0.22892
3089.44	-0.12344
3090.72	-0.0182486
3092	-0.130195
3093.27	0.273515
3094.55	0.0128832
3095.83	0.0509229
3097.11	0.183993
3098.38	0.0866427
3099.66	-0.25458
3100.94	0.0410748
3102.21	0.1471
3103.49	-0.234026
3104.76	-0.316727
3106.04	0.210212
3107.31	0.0341291
3108.59	0.237841
3109.86	0.0228887
3111.14	-0.110112
3112.41	-0.120644
3113.69	0.11311
3114.96	0.225155
3116.23	0.391265
3117.51	0.204248
3118.78	0.138546
3120.05	-0.0227981
3121.33	0.235642
3122.6	0.64263
3123.87	-0.0344734
3125.14	0.0745921
3126.42	0.224602
3127.69	0.0232649
3128.96	-0.0151439
3130.23	0.217247
3131.5	0.179381
3132.77	0.0739951
3134.04	0.576337
3135.31	0.443427
3136.58	0.242913
3137.85	0.109821
3139.12	0.50214
3140.39	0.382364
3141.66	0.410896
3142.93	0.224746
3144.2	0.670359
3145.47	0.431727
3146.74	0.462198
3148	0.42625
3149.27	0.578395
