200.388	-0.210671
202.204	-0.190022
204.019	-0.168464
205.832	0.656791
207.646	-0.0256271
209.459	0.0453014
211.274	0.89213
213.087	0.110063
214.899	0.200912
216.711	0.630217
218.524	0.526087
220.335	0.519591
222.146	0.635137
223.956	0.630754
225.766	0.264577
227.576	0.454416
229.388	0.233177
231.197	1.19407
233.005	0.464972
234.813	0.604978
236.621	-0.0973577
238.429	-0.146272
240.236	0.121011
242.045	0.583999
243.852	-0.0848064
245.658	0.0663366
247.464	-0.0255737
249.269	0.458916
251.074	0.0704927
252.879	0.113413
254.683	0.56425
256.487	-0.191491
258.291	0.452121
260.094	0.880364
261.897	0.588129
263.702	0.297974
265.504	-0.328309
267.306	0.105995
269.108	0.443713
270.909	0.563603
272.71	-0.209973
274.511	-0.117237
276.311	0.359274
278.111	0.086318
279.91	0.12433
281.709	0.376493
283.508	0.337416
285.306	1.4499
287.105	0.638986
288.9	-0.194333
290.698	0.268346
292.495	-0.0820847
294.291	0.0481949
296.088	0.0126934
297.884	0.408702
299.679	0.183878
301.475	1.05771
303.27	0.712248
305.064	-0.135591
306.858	0.781323
308.652	0.552656
310.444	0.682229
312.237	0.717871
314.03	0.469763
315.822	1.00973
317.615	0.766161
319.406	0.810287
321.198	0.64143
322.987	1.21263
324.778	0.544315
326.568	1.18855
328.358	0.71043
330.148	0.852484
331.935	1.04107
333.724	0.797044
335.513	0.382766
337.301	0.396398
339.089	1.07732
340.875	0.63183
342.662	0.472499
344.449	0.360981
346.236	0.321776
348.02	0.0446348
349.806	0.0786018
351.592	0.399029
353.375	0.145974
355.16	0.7506
356.944	-0.196705
358.728	0.380525
360.51	1.36048
362.294	0.148523
364.077	0.269073
365.858	0.626123
367.64	0.293232
369.422	0.268186
371.202	0.21845
372.983	0.380901
374.764	0.778828
376.543	1.41196
378.324	1.57275
380.102	0.83921
381.881	0.932294
383.661	1.87366
385.438	1.47564
387.216	1.47914
388.993	1.48415
390.771	1.39655
392.548	1.28661
394.324	1.50628
396.101	0.64621
397.875	0.678678
399.651	0.17076
401.425	0.672284
403.201	1.36096
404.974	0.686438
406.749	0.621694
408.524	0.297958
410.296	0.560769
412.07	0.917383
413.841	0.640841
415.614	0.412173
417.385	0.348746
419.156	-0.206694
420.928	0.12994
422.698	0.0908222
424.469	-0.254275
426.238	0.150784
428.009	-0.0320377
429.777	0.042779
431.548	-0.375345
433.315	-0.300215
435.083	0.667151
436.852	-0.149154
438.618	-0.191731
440.387	-0.306324
442.153	0.350918
443.919	0.278202
445.686	0.203302
447.451	0.431304
449.218	-0.51094
450.982	0.184047
452.746	0.247937
454.512	0.0321016
456.275	0.329372
458.038	0.0903654
459.803	-0.148209
461.565	-0.0135946
463.327	-0.318951
465.091	0.377803
466.852	0.0554934
468.613	0.526609
470.374	0.302888
472.136	-0.176182
473.896	0.50751
475.655	0.304663
477.415	0.425196
479.176	0.310486
480.934	0.660368
482.692	0.84729
484.45	0.36022
486.21	0.760653
487.967	0.464889
489.724	0.101385
491.481	0.438919
493.237	1.4321
494.995	0.556574
496.75	0.685863
498.506	0.44019
500.26	0.779804
502.015	0.462059
503.771	0.589024
505.525	0.432734
507.279	0.956548
509.032	0.608502
510.785	0.399445
512.537	1.15318
514.289	1.1285
516.041	0.325747
517.793	1.30926
519.546	0.339607
521.297	0.568205
523.047	1.0543
524.797	1.25796
526.547	0.851435
528.297	0.726758
530.046	0.672404
531.795	1.1095
533.543	0.374721
535.291	0.855823
537.039	0.91374
538.787	0.50283
540.534	0.4178
542.281	0.122329
544.027	-0.289243
545.773	1.18232
547.519	0.00474358
549.264	-0.288846
551.01	0.090045
552.754	0.491467
554.499	0.129743
556.243	-0.138558
557.987	-0.244433
559.73	-0.0269651
561.474	0.305899
563.216	0.431931
564.959	-0.154037
566.701	0.0195999
568.441	0.354723
570.182	0.369534
571.923	0.248382
573.664	0.244
575.405	0.42533
577.145	-0.171354
578.885	-0.0551882
580.624	0.268758
582.361	-0.417853
584.1	0.0667725
585.839	0.366631
587.577	0.0210476
589.315	-0.142057
591.052	0.0388165
592.787	-0.0800447
594.524	0.123002
596.26	-0.0420046
597.997	0.322133
599.732	0.294755
601.466	1.23256
603.201	0.535548
604.936	0.181993
606.67	0.194808
608.403	0.964433
610.136	-0.194936
611.87	0.230301
613.603	-0.0088253
615.334	0.257321
617.067	0.981755
618.799	0.0790081
620.529	0.274571
622.26	0.0108719
623.991	0.61515
625.72	0.0991859
627.451	-0.14093
629.181	-0.173123
630.909	0.778665
632.638	-0.183803
634.368	-0.0952816
636.095	0.791943
637.823	-0.422871
639.551	0.0711708
641.277	0.150718
643.005	0.0676279
644.73	0.119736
646.457	0.0582743
648.184	-0.341887
649.908	-0.419889
651.634	-0.129916
653.357	0.710331
655.083	0.145446
656.806	-0.258165
658.53	0.409913
660.253	-0.6323
661.977	0.125934
663.7	-0.122883
665.422	0.905472
667.145	0.0569038
668.865	0.670778
670.588	-0.0411797
672.308	-0.1334
674.027	0.212257
675.749	0.171444
677.468	-0.0514193
679.188	-0.15963
680.907	-0.430062
682.627	0.631413
684.345	0.701841
686.064	0.217158
687.781	0.766729
689.498	0.693166
691.216	0.964193
692.932	0.566445
694.65	1.04306
696.366	0.205725
698.081	0.0810366
699.797	0.231077
701.512	0.908554
703.228	0.227979
704.942	-0.176924
706.655	0.473871
708.371	0.802089
710.083	0.419003
711.796	0.814512
713.51	0.957317
715.222	1.12248
716.934	0.716476
718.645	0.950046
720.358	1.13782
722.068	0.277975
723.779	0.557327
725.49	1.49533
727.2	0.523423
728.909	0.732791
730.618	1.16792
732.329	0.582524
734.037	0.744714
735.745	0.13813
737.453	0.346068
739.16	0.780012
740.869	1.34962
742.576	0.816131
744.282	0.870327
745.988	0.521137
747.694	1.61369
749.401	1.26789
751.107	0.878844
752.811	0.446396
754.516	1.18533
756.22	1.34138
757.924	1.09422
759.627	1.56954
761.332	2.2048
763.035	1.55568
764.738	2.35039
766.44	2.15061
768.142	2.89766
769.843	3.55185
771.544	2.37162
773.245	3.08886
774.946	2.90087
776.646	3.0075
778.346	2.07576
780.046	2.27655
781.745	2.70521
783.444	1.95763
785.143	2.58909
786.841	2.06319
788.539	1.64655
790.237	1.52018
791.934	1.82
793.631	2.61394
795.328	2.45846
797.024	1.98887
798.72	1.61221
800.416	0.945707
802.112	1.11405
803.807	1.32811
805.502	1.11473
807.196	1.57469
808.89	1.98781
810.584	1.50125
812.278	1.9112
813.971	2.02847
815.664	1.60793
817.354	2.10514
819.047	1.32767
820.739	2.51681
822.43	1.76327
824.122	0.878055
825.813	1.77832
827.503	0.942918
829.192	1.49197
830.882	1.44334
832.571	1.84376
834.261	2.26954
835.95	1.35893
837.637	1.60758
839.325	1.49785
841.013	1.76583
842.701	1.49606
844.389	1.02439
846.074	1.3132
847.761	1.60428
849.447	1.24982
851.131	1.43528
852.817	1.62351
854.503	1.11779
856.188	1.1724
857.871	1.06843
859.556	1.50235
861.24	0.696263
862.922	0.901059
864.606	1.32985
866.289	0.653163
867.97	1.19297
869.653	0.965643
871.336	1.16642
873.016	0.938363
874.698	0.687574
876.379	1.0686
878.058	0.953209
879.739	1.15369
881.418	1.03775
883.098	0.740328
884.778	0.644812
886.456	1.08936
888.135	1.03539
889.812	0.415777
891.49	0.989557
893.167	1.1781
894.845	0.329793
896.523	1.12281
898.198	0.632995
899.875	1.08523
901.55	0.796066
903.226	0.775424
904.901	1.17923
906.576	1.0912
908.25	0.914967
909.925	0.606554
911.598	0.856067
913.271	1.06148
914.945	0.623015
916.617	0.806607
918.291	0.856786
919.962	0.929146
921.635	1.2896
923.306	1.20874
924.978	0.489356
926.648	0.457438
928.318	0.780702
929.989	0.310884
931.659	0.680501
933.328	0.498843
934.998	0.692416
936.666	0.776166
938.336	0.552156
940.004	0.417789
941.671	0.39512
943.34	0.83672
945.007	1.69776
946.673	1.01254
948.339	0.589899
950.007	0.231277
951.672	0.444986
953.337	0.415946
955.004	0.212253
956.669	0.563037
958.333	0.30014
959.997	0.83491
961.662	0.00289345
963.326	0.319037
964.989	0.147125
966.651	0.569356
968.315	-0.0736437
969.977	0.497709
971.639	0.935044
973.301	0.620791
974.962	0.772692
976.624	0.351777
978.285	-0.222331
979.945	0.233026
981.605	0.688241
983.264	1.21955
984.924	0.774461
986.583	0.393334
988.243	0.762479
989.901	1.01917
991.56	0.236012
993.217	-0.45812
994.875	0.393869
996.532	-0.012516
998.188	1.10295
999.845	0.9828
1001.5	1.32478
1003.16	1.11557
1004.81	0.884245
1006.47	0.543203
1008.12	0.94941
1009.78	0.543483
1011.43	0.445654
1013.09	0.436168
1014.74	0.821444
1016.39	0.615691
1018.05	1.0672
1019.7	0.819398
1021.35	0.83544
1023	0.721696
1024.65	1.33039
1026.31	1.52452
1027.96	1.95901
1029.61	2.41442
1031.26	2.1254
1032.91	2.90412
1034.56	1.9997
1036.21	2.18466
1037.86	1.86712
1039.51	1.72405
1041.16	1.32102
1042.8	1.28973
1044.45	1.15205
1046.1	1.08212
1047.75	0.862598
1049.39	0.992664
1051.04	1.40672
1052.69	1.03991
1054.33	0.412677
1055.98	0.871905
1057.62	0.374473
1059.27	0.767715
1060.91	0.98631
1062.56	0.856034
1064.2	0.159295
1065.85	0.809331
1067.49	0.675308
1069.13	-0.0898924
1070.77	1.16435
1072.42	1.13659
1074.06	0.697174
1075.7	1.12697
1077.34	1.29798
1078.98	0.473055
1080.62	0.451518
1082.27	1.05885
1083.91	0.68936
1085.55	1.22845
1087.18	1.13621
1088.82	1.0414
1090.46	1.8532
1092.1	1.25688
1093.74	0.941692
1095.38	0.843066
1097.02	0.379138
1098.65	0.499187
1100.29	0.90107
1101.93	1.19735
1103.56	0.91489
1105.2	0.806321
1106.84	0.591003
1108.47	0.611965
1110.11	0.588615
1111.74	0.54186
1113.38	0.428692
1115.01	0.0994215
1116.64	0.0272598
1118.28	-0.237647
1119.91	0.248407
1121.54	0.306835
1123.18	0.36649
1124.81	0.405917
1126.44	0.724442
1128.07	0.701637
1129.7	0.551442
1131.33	0.209593
1132.97	0.573639
1134.6	0.809233
1136.23	0.531063
1137.86	0.721803
1139.49	0.120613
1141.11	-0.481314
1142.74	0.111709
1144.37	0.576276
1146	0.359032
1147.63	0.42017
1149.26	0.0136299
1150.88	0.246915
1152.51	0.0329247
1154.14	0.0315371
1155.76	0.348906
1157.39	-0.270247
1159.01	-0.314342
1160.64	-0.421242
1162.27	0.302401
1163.89	0.453106
1165.51	0.455637
1167.14	0.181491
1168.76	0.565186
1170.39	0.500332
1172.01	0.11445
1173.63	-0.0608644
1175.25	-0.152587
1176.88	-0.329627
1178.5	0.192838
1180.12	0.0168056
1181.74	0.434381
1183.36	0.746595
1184.98	0.974026
1186.6	0.270925
1188.22	-0.327612
1189.84	0.0211439
1191.46	-0.433167
1193.08	0.941091
1194.7	0.504853
1196.32	0.510113
1197.94	0.537394
1199.55	0.734031
1201.17	0.160107
1202.79	0.989284
1204.41	0.339058
1206.02	0.130112
1207.64	-0.327457
1209.25	0.0289955
1210.87	-0.0535288
1212.48	-0.137973
1214.1	0.0459642
1215.71	1.03904
1217.33	0.779932
1218.94	0.727789
1220.56	0.156575
1222.17	1.0805
1223.79	0.512387
1225.4	0.5682
1227.01	0.0670958
1228.62	0.560996
1230.23	0.890637
1231.85	0.704809
1233.46	1.24393
1235.07	0.978523
1236.68	0.879972
1238.29	0.989416
1239.9	0.748246
1241.51	0.569267
1243.12	1.52768
1244.73	0.850849
1246.34	0.379547
1247.94	0.879553
1249.55	0.323332
1251.16	0.863277
1252.77	1.38263
1254.37	0.93066
1255.98	1.41082
1257.59	0.858274
1259.2	0.638027
1260.8	0.356647
1262.41	0.924648
1264.01	0.975264
1265.62	0.9011
1267.22	1.07475
1268.83	0.708265
1270.43	0.796573
1272.03	1.15315
1273.64	0.76204
1275.24	1.07458
1276.85	1.28219
1278.45	0.742896
1280.05	1.63197
1281.65	1.07109
1283.25	1.09006
1284.85	1.87481
1286.46	1.46112
1288.06	0.78029
1289.66	1.75406
1291.26	1.81911
1292.86	2.09068
1294.46	1.32833
1296.06	1.39082
1297.66	0.831946
1299.25	1.20002
1300.85	1.40079
1302.45	1.08468
1304.05	1.54995
1305.65	1.51997
1307.24	2.1466
1308.84	2.21754
1310.43	2.02191
1312.03	0.783062
1313.63	1.36787
1315.22	1.89153
1316.82	1.3334
1318.41	1.83781
1320.01	1.56663
1321.6	1.17256
1323.2	0.797688
1324.79	0.868705
1326.38	0.795708
1327.98	1.26958
1329.57	1.68208
1331.16	1.02365
1332.76	0.813808
1334.35	0.970483
1335.94	1.65364
1337.53	1.36873
1339.12	1.20432
1340.71	1.46109
1342.3	1.55378
1343.89	1.66382
1345.48	1.04938
1347.07	0.536704
1348.66	0.828389
1350.25	1.58279
1351.84	0.419242
1353.43	0.758836
1355.01	0.999879
1356.6	1.00151
1358.19	0.703004
1359.77	0.523386
1361.36	0.941412
1362.95	0.819347
1364.53	0.756775
1366.12	1.01333
1367.71	0.812531
1369.29	0.693003
1370.88	1.27179
1372.46	1.05617
1374.04	1.00119
1375.63	0.290416
1377.21	0.733887
1378.8	0.301249
1380.38	0.504184
1381.96	0.486691
1383.54	0.268785
1385.13	0.685922
1386.71	1.14181
1388.29	0.0882282
1389.87	0.088356
1391.45	0.585597
1393.03	0.289994
1394.61	0.312354
1396.19	0.532801
1397.77	0.593723
1399.35	0.276913
1400.93	0.791075
1402.51	0.690322
1404.09	1.42052
1405.67	0.64779
1407.24	0.173286
1408.82	0.668312
1410.4	0.432826
1411.98	0.671378
1413.55	0.612986
1415.13	1.14548
1416.71	1.04532
1418.28	0.806779
1419.86	0.509752
1421.43	0.903418
1423.01	0.1373
1424.58	1.0464
1426.16	0.913825
1427.73	0.821314
1429.31	1.24027
1430.88	1.48096
1432.45	1.38559
1434.02	1.28902
1435.6	1.74259
1437.17	1.29169
1438.74	1.86406
1440.31	1.8872
1441.88	1.77402
1443.45	1.64211
1445.03	2.04137
1446.6	1.16329
1448.17	2.21167
1449.74	1.66821
1451.3	1.45943
1452.87	2.09691
1454.44	1.83031
1456.01	1.40615
1457.58	1.92567
1459.15	1.18416
1460.72	1.54259
1462.28	1.44605
1463.85	1.4065
1465.42	1.30661
1466.98	1.46171
1468.55	0.929889
1470.12	1.18462
1471.68	1.4013
1473.25	1.59958
1474.81	1.5831
1476.38	1.13582
1477.94	1.23773
1479.51	0.633849
1481.07	0.539596
1482.63	1.03317
1484.2	0.723089
1485.76	1.39221
1487.32	1.08083
1488.88	1.43368
1490.45	0.981619
1492.01	0.781622
1493.57	0.59883
1495.13	1.11657
1496.69	0.598934
1498.25	1.09419
1499.81	0.986333
1501.37	0.47238
1502.93	0.0191383
1504.49	0.478495
1506.05	0.821206
1507.61	0.85312
1509.17	0.516637
1510.73	0.372467
1512.28	0.343219
1513.84	0.0633373
1515.4	0.457136
1516.96	0.793043
1518.51	0.208636
1520.07	0.526587
1521.63	0.461422
1523.18	0.453376
1524.74	0.444413
1526.29	0.0910501
1527.85	0.556308
1529.4	0.239974
1530.96	0.152317
1532.51	-0.3896
1534.06	0.434386
1535.62	0.00919628
1537.17	0.0206499
1538.72	0.618027
1540.28	0.29071
1541.83	0.0395126
1543.38	1.14376
1544.93	0.440617
1546.48	0.565065
1548.03	0.0510902
1549.59	0.756488
1551.14	0.355878
1552.69	0.592673
1554.24	1.03574
1555.79	-0.0330343
1557.34	1.40283
1558.88	-0.126963
1560.43	0.790121
1561.98	0.459085
1563.53	0.129385
1565.08	1.06909
1566.62	1.44935
1568.17	0.0190392
1569.72	0.753203
1571.27	0.535003
1572.81	1.2498
1574.36	0.788378
1575.9	0.233627
1577.45	0.743167
1579	1.17856
1580.54	0.774545
1582.09	1.28643
1583.63	0.603994
1585.17	0.650827
1586.72	0.960027
1588.26	0.839482
1589.8	0.905718
1591.35	0.61584
1592.89	0.75586
1594.43	0.876872
1595.97	0.791889
1597.52	1.55071
1599.06	1.27968
1600.6	1.4032
1602.14	1.28343
1603.68	1.633
1605.22	1.47486
1606.76	1.54044
1608.3	1.19016
1609.84	0.592738
1611.38	0.443779
1612.92	0.912387
1614.46	0.515547
1615.99	0.306223
1617.53	0.828674
1619.07	0.789826
1620.61	0.996233
1622.14	1.148
1623.68	1.24457
1625.22	0.910667
1626.75	1.45561
1628.29	1.66192
1629.82	0.706908
1631.36	0.891679
1632.9	0.963643
1634.43	1.31585
1635.96	1.22084
1637.5	1.20164
1639.03	0.754426
1640.57	0.773528
1642.1	0.959594
1643.63	1.34903
1645.16	1.1969
1646.7	1.71329
1648.23	1.81969
1649.76	2.05636
1651.29	1.77433
1652.82	1.80948
1654.36	1.62353
1655.89	0.863961
1657.42	2.0133
1658.95	2.29036
1660.48	1.93609
1662.01	1.2289
1663.53	1.83378
1665.06	1.6427
1666.59	1.96908
1668.12	1.57705
1669.65	1.59284
1671.18	1.44464
1672.7	1.07686
1674.23	1.42808
1675.76	1.66841
1677.29	1.92603
1678.81	1.63018
1680.34	1.16782
1681.86	1.44003
1683.39	0.903502
1684.91	0.88154
1686.44	1.08008
1687.96	1.44387
1689.49	1.20323
1691.01	0.725122
1692.54	1.08942
1694.06	0.520409
1695.58	0.774465
1697.11	0.0960703
1698.63	0.970272
1700.15	0.328132
1701.67	0.306296
1703.2	0.484293
1704.72	0.588514
1706.24	0.364484
1707.76	0.213203
1709.28	0.697794
1710.8	0.36497
1712.32	1.04835
1713.84	0.589356
1715.36	0.619983
1716.88	0.234443
1718.4	0.662676
1719.91	0.349722
1721.43	-0.179057
1722.95	-0.0933828
1724.47	0.173454
1725.99	-0.476921
1727.5	-0.405213
1729.02	0.0634422
1730.54	0.156018
1732.05	0.24817
1733.57	0.282512
1735.09	-0.0190783
1736.6	0.328422
1738.12	0.216128
1739.63	-0.0750237
1741.15	0.53712
1742.66	0.16444
1744.18	0.37262
1745.69	-0.0452118
1747.2	-0.541094
1748.72	0.27996
1750.23	0.399776
1751.74	-0.1302
1753.25	-0.156395
1754.77	0.546122
1756.28	0.30453
1757.79	-0.0644798
1759.3	0.0797396
1760.81	-0.135171
1762.32	0.0710478
1763.83	-0.163205
1765.34	-0.185323
1766.85	0.0758514
1768.36	0.0583086
1769.87	-0.0127716
1771.38	0.292006
1772.89	0.159673
1774.4	-0.0192595
1775.91	-0.123537
1777.41	-0.135812
1778.92	0.162203
1780.43	0.278382
1781.94	-0.23705
1783.44	0.112984
1784.95	-0.0212049
1786.45	0.0634375
1787.96	0.293408
1789.47	-0.0986595
1790.97	-0.147805
1792.48	-0.00266743
1793.98	0.0857725
1795.48	0.0709095
1796.99	-0.0415287
1798.49	0.124482
1800	0.345397
1801.5	0.0808659
1803	0.349174
1804.51	0.287426
1806.01	0.0409212
1807.51	0.200557
1809.01	0.288318
1810.51	0.228936
1812.02	-0.0807314
1813.52	0.139752
1815.02	0.045496
1816.52	0.121862
1818.02	-0.0476551
1819.52	-0.21821
1821.02	0.137199
1822.52	-0.182573
1824.02	0.0390635
1825.51	0.0359173
1827.01	0.162653
1828.51	-0.0578594
1830.01	0.00642109
1831.51	0.134007
1833	-0.1619
1834.5	-0.00524044
1836	0.257836
1837.5	0.263998
1838.99	0.184571
1840.49	0.120297
1841.98	0.343703
1843.48	0.152641
1844.97	0.0200205
1846.47	-0.00792122
1847.96	0.0979385
1849.46	0.111641
1850.95	0.293843
1852.45	0.261149
1853.94	-0.0176783
1855.43	0.346314
1856.92	-0.00236607
1858.42	0.204445
1859.91	0.444291
1861.4	0.197769
1862.89	-0.0615005
1864.39	-0.0295792
1865.88	-0.0665836
1867.37	0.00668716
1868.86	0.0818567
1870.35	0.0611982
1871.84	0.195696
1873.33	0.31739
1874.82	0.292878
1876.31	0.327665
1877.8	-0.232234
1879.29	-0.0407696
1880.77	0.0677919
1882.26	0.235696
1882.51	0.268425
1884	-0.133191
1885.5	0.196505
1886.99	0.019825
1888.48	0.364987
1889.98	-0.838476
1891.47	0.238408
1892.97	-0.0745659
1894.46	-0.350689
1895.95	0.365929
1897.44	0.040246
1898.93	0.166592
1900.42	0.344042
1901.92	0.0673704
1903.41	0.119256
1904.9	-0.178179
1906.39	0.0971489
1907.88	0.35478
1909.37	-0.498031
1910.86	-0.256054
1912.35	-0.23877
1913.84	0.715675
1915.32	-0.306941
1916.81	-0.306639
1918.3	0.0917273
1919.79	-0.290342
1921.28	0.315014
1922.76	0.141234
1924.25	-0.325809
1925.74	0.108665
1927.22	0.163443
1928.71	-0.0580759
1930.2	0.274452
1931.68	0.0519848
1933.17	0.122302
1934.65	-0.345975
1936.14	-0.00250435
1937.62	0.28739
1939.11	-0.287554
1940.59	0.122798
1942.08	0.257467
1943.56	0.496686
1945.04	-0.0565205
1946.53	-0.160741
1948.01	0.458661
1949.49	-0.215221
1950.97	-0.0286703
1952.45	-0.118666
1953.94	0.495834
1955.42	0.112741
1956.9	-0.046176
1958.38	-0.152673
1959.86	-0.155342
1961.34	0.219817
1962.82	0.234945
1964.3	-0.109933
1965.78	-0.0440559
1967.26	-0.218612
1968.74	0.307618
1970.22	0.0462103
1971.69	-0.385931
1973.17	0.25777
1974.65	0.406027
1976.13	-0.14453
1977.61	-0.0128536
1979.08	0.152795
1980.56	0.182114
1982.03	-0.349748
1983.51	0.222914
1984.99	0.0984449
1986.46	0.109567
1987.94	0.27317
1989.41	-0.105035
1990.89	-0.228139
1992.36	-0.0118284
1993.84	0.391308
1995.31	0.237366
1996.78	0.286749
1998.26	0.285397
1999.73	0.84067
2001.2	0.247293
2002.68	0.547825
2004.15	0.544447
2005.62	0.322398
2007.09	0.320329
2008.56	0.0835772
2010.04	0.117254
2011.51	-0.13466
2012.98	0.556093
2014.45	0.185974
2015.92	0.504944
2017.39	0.755404
2018.86	-0.256108
2020.33	0.0769196
2021.8	0.577373
2023.27	0.506992
2024.74	0.185888
2026.2	0.436615
2027.67	0.353426
2029.14	0.758334
2030.61	0.242209
2032.07	0.0793104
2033.54	0.302948
2035.01	0.140482
2036.47	0.666236
2037.94	0.200287
2039.41	0.288293
2040.87	0.0736828
2042.34	0.531952
2043.8	0.352175
2045.27	0.0386477
2046.73	0.365414
2048.2	0.221206
2049.66	0.649512
2051.12	0.942178
2052.59	0.204458
2054.05	0.189737
2055.51	0.915031
2056.98	0.323483
2058.44	0.00105381
2059.9	0.824068
2061.36	0.973405
2062.82	-0.0546894
2064.29	0.601747
2065.75	0.61968
2067.21	0.722733
2068.67	0.439366
2070.13	0.560285
2071.59	0.69814
2073.05	0.785351
2074.51	0.956461
2075.97	0.80724
2077.43	0.489179
2078.88	0.793739
2080.34	0.457868
2081.8	0.592854
2083.26	0.996354
2084.72	0.860283
2086.17	0.874827
2087.63	0.602794
2089.09	0.179275
2090.54	0.898158
2092	1.02861
2093.46	0.923901
2094.91	0.282356
2096.37	0.898012
2097.82	0.724905
2099.28	1.08687
2100.73	0.728814
2102.19	0.70575
2103.64	1.43509
2105.09	0.91338
2106.55	1.04441
2108	1.32671
2109.46	1.02567
2110.91	1.49098
2112.36	1.05456
2113.81	1.74896
2115.27	1.00939
2116.72	1.16772
2118.17	1.49223
2119.62	1.46926
2121.07	1.11684
2122.52	1.31428
2123.97	0.999324
2125.42	1.51426
2126.87	1.43193
2128.32	1.81256
2129.77	1.42904
2131.22	1.6902
2132.67	1.90043
2134.12	1.87875
2135.57	1.75885
2137.01	1.80613
2138.46	1.21112
2139.91	1.99011
2141.36	1.99441
2142.8	2.06634
2144.25	1.9737
2145.7	2.16252
2147.14	1.83785
2148.59	2.42311
2150.03	2.57686
2151.48	2.54713
2152.92	1.95275
2154.37	2.68284
2155.81	2.8655
2157.26	2.7666
2158.7	2.8674
2160.15	2.42324
2161.59	1.93138
2163.03	2.3864
2164.48	2.71115
2165.92	2.52278
2167.36	2.61646
2168.8	2.74219
2170.25	2.56639
2171.69	2.27134
2173.13	3.07173
2174.57	2.43971
2176.01	2.60538
2177.45	2.1394
2178.89	2.33949
2180.33	2.29139
2181.77	2.89284
2183.21	2.7635
2184.65	2.30183
2186.09	2.47223
2187.53	2.57617
2188.97	2.43057
2190.41	2.35146
2191.84	2.65489
2193.28	2.74102
2194.72	2.29265
2196.16	2.40808
2197.59	2.40444
2199.03	2.18247
2200.47	1.41117
2201.9	1.73659
2203.34	2.04571
2204.78	1.57647
2206.21	2.02048
2207.65	1.86837
2209.08	1.40153
2210.51	1.96039
2211.95	2.51737
2213.38	1.76684
2214.82	2.48722
2216.25	1.9694
2217.68	1.71754
2219.12	1.73127
2220.55	1.3339
2221.98	1.31599
2223.42	1.4126
2224.85	1.96854
2226.28	0.925547
2227.71	1.78937
2229.14	1.17185
2230.57	1.19453
2232	1.62653
2233.43	1.23948
2234.86	1.47548
2236.29	1.00994
2237.72	1.19997
2239.15	0.592471
2240.58	1.58624
2242.01	1.08128
2243.44	1.21391
2244.87	0.857655
2246.3	0.957354
2247.73	1.12046
2249.15	0.971234
2250.58	0.575229
2252.01	0.92659
2253.43	1.12998
2254.86	0.894654
2256.29	0.255478
2257.71	0.447186
2259.14	0.65811
2260.56	0.596468
2261.99	0.845928
2263.41	0.220435
2264.84	0.95964
2266.26	0.496056
2267.69	0.437799
2269.11	-0.256227
2270.54	0.204273
2271.96	0.436499
2273.38	0.489478
2274.81	0.88465
2276.23	0.758837
2277.65	0.519082
2279.07	0.458592
2280.49	0.56107
2281.92	0.793946
2283.34	0.765796
2284.76	0.346032
2286.18	0.00789833
2287.6	0.64963
2289.02	0.410258
2290.44	0.841098
2291.86	0.095623
2293.28	0.412669
2294.7	0.582711
2296.12	0.425434
2297.54	0.595466
2298.96	0.503577
2300.38	-0.374899
2301.79	0.1071
2303.21	0.75394
2304.63	0.351093
2306.05	0.194094
2307.46	0.841688
2308.88	0.207079
2310.3	0.508632
2311.71	0.21777
2313.13	0.140584
2314.55	-0.232502
2315.96	0.0864773
2317.38	0.258314
2318.79	-0.0637064
2320.21	0.388871
2321.62	-0.000842094
2323.03	0.498419
2324.45	0.483572
2325.86	0.482711
2327.27	0.199634
2328.69	1.10261
2330.1	0.0776281
2331.51	0.338792
2332.93	0.205976
2334.34	-0.0903664
2335.75	0.485574
2337.16	0.189094
2338.57	0.631553
2339.99	0.44791
2341.4	0.0991926
2342.81	0.242682
2344.22	-0.00766373
2345.63	0.430954
2347.04	-0.342715
2348.45	0.112278
2349.86	0.762595
2351.26	0.103398
2352.67	0.113817
2354.08	0.367943
2355.49	0.49039
2356.9	0.0585985
2358.31	0.115627
2359.71	0.790064
2361.12	-0.240996
2362.53	-0.167396
2363.94	0.132665
2365.34	-0.101868
2366.75	-0.0609627
2368.15	0.109658
2369.56	0.119753
2370.97	0.14738
2372.37	0.273084
2373.78	-0.0833197
2375.18	0.172668
2376.59	0.476302
2377.99	0.215632
2379.39	0.130363
2380.8	0.33238
2382.2	0.115492
2383.61	0.0262394
2385.01	0.144889
2386.41	-0.0398912
2387.81	-0.223299
2389.22	-0.261588
2390.62	-0.202914
2392.02	-0.143091
2393.42	-0.0345449
2394.82	0.281539
2396.22	0.375564
2397.63	0.374871
2399.02	-0.213072
2400.43	0.00995445
2401.82	0.0267563
2403.23	0.10713
2404.62	0.314107
2406.02	-0.00378609
2407.42	0.296366
2408.82	0.563655
2410.22	-0.215884
2411.62	0.0987759
2413.02	-0.0610771
2414.41	0.0496769
2415.81	0.336112
2417.21	0.465695
2418.61	-0.147858
2420	0.331529
2421.4	0.3041
2422.79	0.355483
2424.19	0.200598
2425.59	0.172504
2426.98	0.113257
2428.38	-0.214589
2429.77	-0.0182924
2431.17	0.369325
2432.56	0.17013
2433.96	0.129009
2435.35	0.277287
2436.74	-0.00497818
2438.14	0.251279
2439.53	0.013628
2440.92	-0.209014
2442.32	-0.241591
2443.71	0.598292
2445.1	0.279412
2446.49	0.182594
2447.88	-0.4214
2449.28	-0.137816
2450.67	0.114088
2452.06	0.0498133
2453.45	0.20794
2454.84	0.0505276
2456.23	0.0204649
2457.62	0.117298
2459.01	0.277227
2460.4	0.215095
2461.79	-0.148294
2463.18	0.0408754
2464.57	0.00808811
2465.96	0.0539627
2467.34	-0.168657
2468.73	-0.280688
2470.12	-0.329736
2471.51	0.692654
2472.89	-0.397799
2474.28	-0.291224
2475.67	0.317886
2477.05	0.548402
2478.44	0.370163
2479.83	0.113932
2481.21	0.109169
2482.6	-0.224672
2483.98	-0.276676
2485.37	-0.0166969
2486.75	-0.133404
2488.14	0.217126
2489.52	0.223108
2490.9	0.228905
2492.29	0.312971
2493.67	0.211686
2495.06	-0.399832
2496.44	0.231025
2497.82	0.102914
2499.2	-0.0247145
2500.59	0.24964
2501.97	0.38363
2503.35	0.145729
2504.73	-0.0309916
2506.11	0.208014
2507.49	-0.400275
2508.88	-0.284517
2510.26	-0.137856
2511.63	0.392749
2513.01	0.0494938
2514.39	0.167244
2515.77	-0.0662622
2517.15	0.236753
2518.53	0.433015
2519.91	0.308374
2521.29	-0.549505
2522.67	-0.0333481
2524.05	-0.0983639
2525.42	0.247453
2526.8	0.181263
2528.18	-0.173481
2529.56	-0.602608
2530.93	0.0950346
2532.31	0.201401
2533.69	0.491544
2535.06	0.265922
2536.44	-0.33952
2537.81	-0.246786
2539.19	0.634678
2540.56	0.391213
2541.94	0.0109053
2543.31	-0.00471687
2544.69	0.117094
2546.06	-0.472691
2547.44	0.21297
2548.81	0.232182
2550.18	0.0390701
2551.56	0.10339
2552.93	-0.227847
2554.3	0.426236
2555.68	-0.104282
2557.05	0.426595
2558.42	0.0169096
2559.79	-0.0739241
2561.16	-0.148993
2562.53	0.246432
2563.9	0.354519
2565.28	0.0690861
2566.64	-0.110004
2568.02	0.423293
2569.38	-0.346759
2570.76	0.125973
2572.12	0.280489
2573.49	0.541237
2574.86	0.392814
2576.23	0.214096
2577.6	-0.0102196
2578.97	-0.23479
2580.34	0.252934
2581.7	0.467278
2583.07	0.135368
2584.44	0.303543
2585.81	0.623203
2587.17	0.139636
2588.54	0.489916
2589.91	0.00677967
2591.27	0.205491
2592.64	0.661246
2594	-0.232267
2595.37	0.100259
2596.73	0.310319
2598.1	0.262116
2599.46	0.10772
2600.83	-0.152155
2602.19	-0.0336618
2603.55	0.266582
2604.92	0.325771
2606.28	0.0985422
2607.64	0.00685215
2609.01	0.276068
2610.37	0.287613
2611.73	-0.319368
2613.09	0.441794
2614.46	0.0289602
2615.82	-0.0681896
2617.18	0.164896
2618.54	0.503022
2619.9	0.407473
2621.26	0.133481
2622.62	0.0248299
2623.98	0.274961
2625.34	0.166571
2626.7	0.46069
2628.06	-0.0357389
2629.42	-0.11483
2630.78	-0.134503
2632.14	0.217396
2633.5	-0.129467
2634.86	0.206947
2636.22	0.379659
2637.57	0.477993
2638.93	0.161654
2640.29	0.289832
2641.64	0.166781
2643	0.443094
2644.36	0.128706
2645.72	0.272003
2647.07	-0.0570621
2648.43	-0.00336933
2649.78	0.240671
2651.14	-0.0310488
2652.49	0.0499153
2653.85	-0.10379
2655.2	0.168657
2656.56	0.207497
2657.91	0.115818
2659.27	-0.150312
2660.62	-0.0648127
2661.97	0.00585175
2663.33	-0.0118179
2664.68	-0.205477
2666.03	0.460881
2667.38	-0.098505
2668.74	0.114684
2670.09	-0.0795784
2671.44	-0.360227
2672.79	0.478984
2674.14	0.243262
2675.49	0.269694
2676.84	0.42731
2678.2	0.629054
2679.55	0.266134
2680.89	0.121964
2682.24	0.182079
2683.59	0.127495
2684.94	0.523584
2686.29	-0.370921
2687.64	0.0836954
2688.99	0.290502
2690.34	-0.259379
2691.69	-0.099822
2693.04	-0.0870447
2694.38	-0.0898066
2695.73	-0.121746
2697.08	0.165667
2698.43	0.367357
2699.77	-0.0373268
2701.12	0.58798
2702.46	0.041954
2703.81	0.337145
2705.16	0.792643
2706.5	0.247848
2707.85	0.398793
2709.19	0.360701
2710.54	0.00268745
2711.88	0.486694
2713.23	-0.177117
2714.57	0.161565
2715.92	0.413145
2717.26	0.257482
2718.6	0.348783
2719.95	0.148709
2721.29	0.341017
2722.63	0.445521
2723.97	0.534965
2725.32	0.725821
2726.66	0.0138283
2728	0.538666
2729.34	0.291871
2730.68	0.452389
2732.02	0.307311
2733.36	0.380569
2734.7	0.366732
2736.04	-0.155938
2737.39	0.0924253
2738.72	-0.00829315
2740.06	-0.225584
2741.4	-0.37061
2742.74	0.472286
2744.08	0.107766
2745.42	-0.199068
2746.76	0.0457096
2748.1	0.20299
2749.44	0.0264711
2750.77	0.0243502
2752.11	0.442936
2753.45	0.136847
2754.78	-0.0674324
2756.12	-0.0252199
2757.46	0.176418
2758.79	0.146607
2760.13	-0.273545
2761.47	-0.0418596
2762.8	0.306033
2764.14	-0.0547514
2765.47	-0.082736
2766.81	0.221558
2768.14	0.148709
2769.48	-0.0122261
2770.81	0.316793
2772.14	0.369534
2773.48	0.0603113
2774.81	0.284443
2776.14	0.104825
2777.48	0.0842056
2778.81	0.0642042
2780.14	-0.242609
2781.47	-0.405056
2782.81	0.0642567
2784.14	0.131319
2785.47	-0.0310431
2786.8	0.193716
2788.13	0.103821
2789.46	0.172236
2790.79	0.127146
2792.12	0.268805
2793.46	-0.446803
2794.79	0.124227
2796.11	-0.162665
2797.44	-0.364255
2798.77	0.247583
2800.1	0.444562
2801.43	-0.0579319
2802.76	0.480696
2804.09	0.106444
2805.42	0.50123
2806.74	0.453625
2808.07	0.320042
2809.4	-0.140691
2810.73	0.222969
2812.05	-0.335682
2813.38	0.610928
2814.71	0.395706
2816.03	0.0404558
2817.36	0.0975332
2818.68	0.112719
2820.01	0.198787
2821.33	0.0292625
2822.66	0.184996
2823.98	0.36834
2825.31	1.04696
2826.63	0.960605
2827.96	0.747448
2829.28	0.860595
2830.61	0.662827
2831.93	0.451161
2833.25	0.0978985
2834.57	0.593576
2835.9	0.465924
2837.22	0.804655
2838.54	0.944705
2839.86	0.957165
2841.18	0.927315
2842.51	1.56228
2843.83	0.826851
2845.15	1.53384
2846.47	1.37942
2847.79	1.74832
2849.11	2.18796
2850.43	2.20325
2851.75	2.10488
2853.07	1.82221
2854.39	2.13264
2855.71	2.10368
2857.03	1.93343
2858.35	2.34239
2859.67	2.63822
2860.98	1.903
2862.3	2.33941
2863.62	2.77521
2864.94	2.49085
2866.25	2.48874
2867.57	2.64203
2868.89	2.78164
2870.21	2.63971
2871.52	2.93498
2872.84	3.20165
2874.15	2.83331
2875.47	3.36545
2876.78	3.13564
2878.1	3.49611
2879.42	3.71521
2880.73	3.11917
2882.04	3.1147
2883.36	3.25184
2884.67	2.95472
2885.99	3.4726
2887.3	3.28859
2888.61	3.18835
2889.93	3.7606
2891.24	3.16765
2892.55	3.31733
2893.87	3.62076
2895.18	3.70027
2896.49	3.65465
2897.8	4.05803
2899.11	3.7349
2900.42	4.05626
2901.74	3.83255
2903.05	3.52516
2904.36	3.83339
2905.67	3.7083
2906.98	3.9195
2908.29	4.6492
2909.6	4.48463
2910.91	4.25065
2912.22	5.09438
2913.53	4.80354
2914.83	5.14105
2916.14	5.19655
2917.45	5.89397
2918.76	5.65237
2920.07	6.27785
2921.37	6.00888
2922.68	5.41998
2923.99	6.38439
2925.3	6.56733
2926.6	6.19187
2927.91	6.795
2929.22	6.72666
2930.52	6.40598
2931.83	6.5041
2933.13	6.42017
2934.44	6.50392
2935.74	7.23065
2937.05	6.97924
2938.35	6.28089
2939.66	6.22569
2940.96	6.49247
2942.27	6.15937
2943.57	6.03726
2944.87	5.51125
2946.18	5.26596
2947.48	5.32896
2948.78	5.39173
2950.09	5.35521
2951.39	4.7985
2952.69	5.02369
2953.99	4.8832
2955.29	4.77026
2956.6	4.77028
2957.9	4.56262
2959.2	4.21791
2960.5	4.31024
2961.8	4.5031
2963.1	4.29029
2964.4	4.03441
2965.7	3.66422
2967	3.61508
2968.3	4.35169
2969.6	3.61128
2970.9	3.55955
2972.2	3.46588
2973.49	3.11921
2974.79	4.09552
2976.09	3.26936
2977.39	2.94843
2978.69	3.61119
2979.98	3.1878
2981.28	2.59428
2982.58	2.85854
2983.88	2.11065
2985.17	2.81204
2986.47	2.25005
2987.76	2.1675
2989.06	2.24059
2990.36	2.06101
2991.65	2.09167
2992.95	1.75576
2994.24	2.14917
2995.54	1.52975
2996.83	1.47155
2998.12	1.52539
2999.42	0.96221
3000.71	1.18521
3002	1.04421
3003.3	1.01582
3004.59	1.4498
3005.88	1.02894
3007.18	0.943656
3008.47	0.25589
3009.76	1.02213
3011.05	0.710591
3012.35	0.245438
3013.64	0.36688
3014.93	0.223659
3016.22	0.345997
3017.51	0.510699
3018.8	0.536581
3020.09	0.771092
3021.38	0.087491
3022.67	0.626094
3023.96	0.0664444
3025.25	0.380379
3026.54	0.125556
3027.83	0.383632
3029.12	0.435016
3030.41	0.322093
3031.69	0.404194
3032.98	0.266456
3034.27	0.888156
3035.56	0.336175
3036.85	0.279631
3038.13	0.303864
3039.42	0.119538
3040.71	0.208807
3041.99	0.406582
3043.28	0.000617981
3044.57	0.226223
3045.85	0.48034
3047.14	0.0122757
3048.42	0.393781
3049.71	-0.000720024
3050.99	0.452655
3052.28	0.729425
3053.56	0.078331
3054.85	0.354332
3056.13	0.165339
3057.42	0.0161762
3058.7	0.642846
3059.98	0.111072
3061.27	0.192613
3062.55	0.343042
3063.83	0.671557
3065.11	0.15873
3066.4	0.218412
3067.68	0.0751858
3068.96	0.231484
3070.24	0.0610981
3071.52	-0.16466
3072.8	0.397035
3074.09	-0.116899
3075.37	0.00715733
3076.65	0.144258
3077.93	-0.315639
3079.21	-0.163529
3080.49	-0.294869
3081.77	0.131532
3083.05	0.477883
3084.32	0.0923548
3085.61	0.616014
3086.88	0.257
3088.16	0.589343
3089.44	0.120058
3090.72	-0.0104208
3092	0.116698
3093.27	-0.0952234
3094.55	-0.0491381
3095.83	-0.111297
3097.11	0.00284004
3098.38	0.306554
3099.66	-0.0946817
3100.94	0.194995
3102.21	0.105328
3103.49	0.0971766
3104.76	0.0759859
3106.04	0.0284729
3107.31	0.239019
3108.59	-0.0636215
3109.86	0.257406
3111.14	0.105719
3112.41	0.239169
3113.69	-0.250217
3114.96	-0.252019
3116.23	-0.037385
3117.51	-0.108437
3118.78	0.171936
3120.05	0.396744
3121.33	0.0644732
3122.6	0.09762
3123.87	0.33363
3125.14	0.298759
3126.42	0.318478
3127.69	0.00050354
3128.96	0.413587
3130.23	0.502235
3131.5	0.428695
3132.77	0.287401
3134.04	0.186251
3135.31	-0.00995207
3136.58	0.373512
3137.85	-0.107015
3139.12	-0.385232
3140.39	0.157786
3141.66	0.336773
3142.93	0.367886
3144.2	-0.312148
3145.47	0.0155849
3146.74	0.276457
3148	-0.132225
3149.27	0.276888
