200.388	2.40073
202.204	2.35366
204.019	2.30925
205.832	2.12173
207.646	1.49857
209.459	2.35895
211.274	2.48952
213.087	1.52705
214.899	1.68128
216.711	2.44157
218.524	1.8214
220.335	1.2284
222.146	1.3401
223.956	1.76846
225.766	1.37677
227.576	1.13166
229.388	1.22539
231.197	1.34353
233.005	1.60693
234.813	1.19647
236.621	0.475788
238.429	0.554722
240.236	0.493587
242.045	0.750147
243.852	0.817
245.658	1.17462
247.464	0.66227
249.269	0.774747
251.074	0.400865
252.879	1.32747
254.683	0.176954
256.487	0.570884
258.291	0.653135
260.094	0.714473
261.897	0.586768
263.702	1.08876
265.504	0.292284
267.306	0.701938
269.108	1.0399
270.909	0.630261
272.71	0.870689
274.511	0.0731354
276.311	0.696465
278.111	0.498219
279.91	0.225702
281.709	0.697412
283.508	0.0600653
285.306	0.912068
287.105	0.849774
288.9	1.31573
290.698	-0.0140953
292.495	0.0970306
294.291	-0.147906
296.088	0.0883741
297.884	0.589601
299.679	-0.150478
301.475	-0.45976
303.27	-0.172467
305.064	0.137289
306.858	-0.00727367
308.652	0.587488
310.444	0.325223
312.237	0.565641
314.03	0.0707712
315.822	1.19846
317.615	0.1387
319.406	1.0824
321.198	0.956725
322.987	0.212664
324.778	0.805213
326.568	0.754547
328.358	1.46853
330.148	1.34616
331.935	1.17446
333.724	0.976538
335.513	1.06284
337.301	0.691365
339.089	1.51335
340.875	0.276047
342.662	0.783876
344.449	0.694186
346.236	0.581815
348.02	0.399329
349.806	0.241991
351.592	0.443199
353.375	0.429114
355.16	-0.110942
356.944	0.492328
358.728	0.0447683
360.51	-0.37984
362.294	1.45582
364.077	-0.0887308
365.858	0.411667
367.64	0.364366
369.422	0.482116
371.202	-0.017271
372.983	1.06889
374.764	1.18328
376.543	2.02955
378.324	2.12049
380.102	2.30728
381.881	2.49599
383.661	4.02764
385.438	4.45519
387.216	4.25053
388.993	5.01159
390.771	3.89559
392.548	3.86203
394.324	3.50111
396.101	3.32906
397.875	3.29833
399.651	2.23413
401.425	2.10884
403.201	1.91227
404.974	2.04348
406.749	1.06994
408.524	1.59851
410.296	0.530323
412.07	1.43412
413.841	-0.125403
415.614	0.0763464
417.385	0.209014
419.156	0.225484
420.928	-0.297295
422.698	-0.0223284
424.469	-0.0768118
426.238	0.0552788
428.009	0.467956
429.777	0.246146
431.548	0.493841
433.315	0.554295
435.083	0.263331
436.852	-0.61427
438.618	0.00929165
440.387	-0.167049
442.153	-0.252286
443.919	0.245596
445.686	0.974357
447.451	0.319159
449.218	-0.125117
450.982	-0.101155
452.746	0.0400181
454.512	-0.21516
456.275	-0.213512
458.038	-0.0257082
459.803	0.0688419
461.565	0.257267
463.327	0.401271
465.091	-0.00889492
466.852	-0.0197515
468.613	0.112851
470.374	-0.0306149
472.136	0.780844
473.896	1.10326
475.655	0.747854
477.415	1.48379
479.176	0.749267
480.934	1.8533
482.692	0.861206
484.45	1.4081
486.21	0.513859
487.967	0.810885
489.724	0.691609
491.481	0.55042
493.237	1.39131
494.995	1.46238
496.75	0.995037
498.506	1.69785
500.26	1.18178
502.015	1.74342
503.771	1.29456
505.525	1.61884
507.279	1.68263
509.032	2.30857
510.785	3.14395
512.537	3.17673
514.289	2.90096
516.041	3.39919
517.793	3.21299
519.546	3.94192
521.297	3.61144
523.047	3.82053
524.797	3.13705
526.547	3.72102
528.297	3.71824
530.046	3.71527
531.795	3.47736
533.543	2.88719
535.291	1.87477
537.039	1.79648
538.787	2.18296
540.534	2.07687
542.281	1.27083
544.027	1.86195
545.773	1.33615
547.519	1.97229
549.264	1.5409
551.01	1.55078
552.754	1.56088
554.499	1.38636
556.243	0.88939
557.987	0.57843
559.73	1.1212
561.474	0.835091
563.216	0.688278
564.959	0.565487
566.701	0.76534
568.441	0.874263
570.182	0.70921
571.923	0.31683
573.664	0.729794
575.405	0.319461
577.145	0.921025
578.885	0.859241
580.624	0.454022
582.361	0.737879
584.1	0.952216
585.839	0.751163
587.577	0.939095
589.315	1.40125
591.052	1.17167
592.787	0.918153
594.524	1.49255
596.26	0.962581
597.997	1.88192
599.732	1.76533
601.466	1.64739
603.201	1.78041
604.936	1.84197
606.67	1.48766
608.403	1.95907
610.136	1.41971
611.87	0.766888
613.603	1.56026
615.334	1.66641
617.067	0.856277
618.799	1.19104
620.529	0.470848
622.26	0.756097
623.991	0.902383
625.72	1.11685
627.451	0.738871
629.181	1.3682
630.909	1.27057
632.638	0.400205
634.368	1.60811
636.095	0.875643
637.823	0.870956
639.551	1.31862
641.277	0.848929
643.005	1.33324
644.73	0.630616
646.457	0.634695
648.184	0.777725
649.908	0.516098
651.634	0.305488
653.357	0.623145
655.083	0.650302
656.806	1.09071
658.53	0.667341
660.253	1.45176
661.977	0.522472
663.7	0.936623
665.422	1.14175
667.145	1.3897
668.865	1.27046
670.588	0.00816727
672.308	0.7616
674.027	1.19874
675.749	0.745884
677.468	1.94593
679.188	0.714179
680.907	1.17969
682.627	0.676982
684.345	2.01193
686.064	0.903886
687.781	1.38196
689.498	1.582
691.216	1.36617
692.932	1.72517
694.65	0.908231
696.366	0.688725
698.081	1.38833
699.797	1.09593
701.512	1.30795
703.228	1.47218
704.942	1.56612
706.655	0.78689
708.371	2.20962
710.083	0.971425
711.796	1.58907
713.51	1.31296
715.222	0.922696
716.934	1.14943
718.645	2.31109
720.358	1.6019
722.068	2.01
723.779	1.25699
725.49	2.0736
727.2	1.2529
728.909	1.77185
730.618	1.56356
732.329	2.03443
734.037	1.98358
735.745	1.66157
737.453	1.58903
739.16	0.998656
740.869	1.8082
742.576	1.96504
744.282	1.31322
745.988	1.58672
747.694	1.99705
749.401	1.50944
751.107	1.99098
752.811	2.65441
754.516	1.90281
756.22	1.15301
757.924	3.19674
759.627	2.4514
761.332	3.26248
763.035	4.59457
764.738	4.82183
766.44	4.93443
768.142	6.08371
769.843	6.03129
771.544	6.58547
773.245	7.09156
774.946	6.87296
776.646	6.9266
778.346	7.29921
780.046	6.5441
781.745	7.26128
783.444	5.60302
785.143	5.73012
786.841	4.92485
788.539	4.18209
790.237	3.41162
791.934	3.72248
793.631	3.44284
795.328	2.84729
797.024	2.18652
798.72	2.49767
800.416	1.8208
802.112	2.27164
803.807	2.13844
805.502	1.5555
807.196	2.18522
808.89	1.62224
810.584	1.34989
812.278	2.13045
813.971	1.81093
815.664	2.87948
817.354	1.7764
819.047	1.8597
820.739	1.51876
822.43	2.38377
824.122	1.46485
825.813	2.06439
827.503	2.28779
829.192	2.4484
830.882	2.41318
832.571	1.95903
834.261	2.37707
835.95	1.6597
837.637	1.67771
839.325	1.64939
841.013	1.86439
842.701	1.22844
844.389	1.32882
846.074	1.05015
847.761	1.73522
849.447	1.08217
851.131	1.88726
852.817	1.4192
854.503	1.37795
856.188	1.83058
857.871	1.63048
859.556	1.36002
861.24	0.748721
862.922	0.675004
864.606	1.77123
866.289	1.64942
867.97	1.25594
869.653	0.636033
871.336	1.27861
873.016	1.40219
874.698	1.3677
876.379	0.611046
878.058	1.14069
879.739	1.7606
881.418	0.732132
883.098	0.515203
884.778	1.53829
886.456	1.56591
888.135	1.34291
889.812	1.23043
891.49	0.912928
893.167	1.29201
894.845	0.903573
896.523	1.05373
898.198	0.73047
899.875	1.34859
901.55	0.88859
903.226	0.719685
904.901	0.528542
906.576	1.27562
908.25	0.528066
909.925	0.896938
911.598	1.57784
913.271	0.658217
914.945	0.229356
916.617	1.04368
918.291	0.925503
919.962	1.29482
921.635	0.558124
923.306	0.421136
924.978	1.05982
926.648	1.1486
928.318	0.643957
929.989	1.81856
931.659	1.49354
933.328	1.27937
934.998	1.04346
936.666	0.962634
938.336	1.87554
940.004	0.871553
941.671	0.905991
943.34	0.787142
945.007	-0.104383
946.673	0.0838461
948.339	0.291553
950.007	1.00398
951.672	0.147691
953.337	0.637297
955.004	0.643759
956.669	0.279449
958.333	0.206554
959.997	0.0494919
961.662	-0.0391216
963.326	0.0268383
964.989	0.156897
966.651	0.150461
968.315	0.95854
969.977	-0.183574
971.639	0.442829
973.301	1.44555
974.962	-0.535047
976.624	0.251343
978.285	0.0227299
979.945	-0.0500317
981.605	-0.12332
983.264	0.000715256
984.924	0.232634
986.583	-0.136183
988.243	0.532366
989.901	-0.415846
991.56	0.050396
993.217	-0.522283
994.875	0.097868
996.532	0.188
998.188	0.719006
999.845	0.962584
1001.5	0.434486
1003.16	0.984785
1004.81	-0.115568
1006.47	0.543522
1008.12	0.411283
1009.78	0.235825
1011.43	-0.31152
1013.09	0.567112
1014.74	0.28442
1016.39	0.462404
1018.05	0.706646
1019.7	1.14877
1021.35	1.5048
1023	1.68758
1024.65	2.52757
1026.31	3.06249
1027.96	3.05116
1029.61	3.12615
1031.26	4.31281
1032.91	4.27311
1034.56	4.01211
1036.21	3.16015
1037.86	3.44075
1039.51	4.09075
1041.16	4.06664
1042.8	3.76242
1044.45	2.76651
1046.1	3.07808
1047.75	2.32882
1049.39	2.7119
1051.04	2.72809
1052.69	2.11579
1054.33	2.17755
1055.98	1.21788
1057.62	1.14867
1059.27	1.23088
1060.91	1.52954
1062.56	1.19638
1064.2	1.10093
1065.85	1.15599
1067.49	0.774593
1069.13	0.587421
1070.77	0.59478
1072.42	0.753857
1074.06	1.4994
1075.7	1.4002
1077.34	1.62858
1078.98	1.96749
1080.62	2.39452
1082.27	3.71066
1083.91	3.13875
1085.55	2.26068
1087.18	3.76309
1088.82	3.24617
1090.46	4.06817
1092.1	3.84885
1093.74	3.69368
1095.38	4.03537
1097.02	3.10611
1098.65	3.02095
1100.29	2.72387
1101.93	2.15082
1103.56	1.30171
1105.2	0.605797
1106.84	1.50266
1108.47	0.678513
1110.11	0.175468
1111.74	0.594482
1113.38	0.387537
1115.01	0.307638
1116.64	0.527189
1118.28	0.210653
1119.91	0.645462
1121.54	0.353386
1123.18	0.427197
1124.81	0.844933
1126.44	-0.276148
1128.07	0.400908
1129.7	0.92923
1131.33	0.303965
1132.97	0.213789
1134.6	0.251755
1136.23	-0.138683
1137.86	0.34552
1139.49	0.421684
1141.11	-0.122974
1142.74	0.228317
1144.37	-0.0604019
1146	-0.0492821
1147.63	0.240423
1149.26	0.808361
1150.88	0.162802
1152.51	0.0712986
1154.14	0.0645103
1155.76	0.504059
1157.39	0.687813
1159.01	0
1160.64	0.313368
1162.27	0.500891
1163.89	0.923986
1165.51	0.731424
1167.14	0.517275
1168.76	0.514093
1170.39	0.380697
1172.01	0.499197
1173.63	0.12632
1175.25	-0.035902
1176.88	0.437243
1178.5	0.105015
1180.12	0.13426
1181.74	0.503393
1183.36	0.239006
1184.98	-0.320724
1186.6	0.470284
1188.22	-0.0506115
1189.84	-0.0045929
1191.46	0.459352
1193.08	0.583225
1194.7	0.516397
1196.32	0.198166
1197.94	0.803581
1199.55	0.950268
1201.17	0.181301
1202.79	0.106997
1204.41	0.475309
1206.02	0.763527
1207.64	0.386375
1209.25	0.468815
1210.87	0.925436
1212.48	0.482546
1214.1	0.682428
1215.71	0.212042
1217.33	0.0515461
1218.94	0.0767021
1220.56	0.22616
1222.17	-0.142069
1223.79	0.6113
1225.4	0.579168
1227.01	0.901413
1228.62	0.68795
1230.23	0.53883
1231.85	0.329792
1233.46	-0.00117874
1235.07	1.32333
1236.68	0.438395
1238.29	0.712641
1239.9	0.429876
1241.51	0.623077
1243.12	0.960732
1244.73	0.780022
1246.34	0.43211
1247.94	0.537823
1249.55	1.15956
1251.16	0.766956
1252.77	1.32631
1254.37	0.0873089
1255.98	0.959869
1257.59	0.283106
1259.2	0.828848
1260.8	0.714045
1262.41	0.206566
1264.01	0.46529
1265.62	0.930853
1267.22	1.10537
1268.83	0.760145
1270.43	0.558317
1272.03	0.0645447
1273.64	0.39852
1275.24	0.191925
1276.85	-0.0367374
1278.45	1.18354
1280.05	0.414068
1281.65	0.576149
1283.25	0.262449
1284.85	0.797735
1286.46	0.403826
1288.06	0.693874
1289.66	1.02668
1291.26	1.46365
1292.86	1.4046
1294.46	1.8402
1296.06	1.22022
1297.66	1.50637
1299.25	2.32587
1300.85	1.14188
1302.45	0.410875
1304.05	1.6759
1305.65	0.655191
1307.24	0.909117
1308.84	1.22357
1310.43	0.512691
1312.03	0.64328
1313.63	1.71563
1315.22	0.826015
1316.82	1.18497
1318.41	0.52425
1320.01	0.659513
1321.6	1.28209
1323.2	0.985306
1324.79	0.605057
1326.38	1.19791
1327.98	0.957043
1329.57	1.08209
1331.16	1.35098
1332.76	0.572296
1334.35	1.21193
1335.94	1.1674
1337.53	0.740755
1339.12	0.615999
1340.71	1.31468
1342.3	0.640333
1343.89	1.17024
1345.48	0.97431
1347.07	0.93931
1348.66	0.166
1350.25	-0.161682
1351.84	0.875179
1353.43	0.614864
1355.01	0.536816
1356.6	-0.0200691
1358.19	0.940958
1359.77	0.861465
1361.36	0.00190353
1362.95	0.737762
1364.53	0.196283
1366.12	0.0542984
1367.71	0.750109
1369.29	0.531576
1370.88	0.952314
1372.46	0.280802
1374.04	0.247953
1375.63	0.0769424
1377.21	0.980692
1378.8	0.709684
1380.38	0.337627
1381.96	1.33624
1383.54	1.11907
1385.13	0.681761
1386.71	0.561962
1388.29	0.660948
1389.87	0.780769
1391.45	0.445601
1393.03	0.54838
1394.61	0.374128
1396.19	0.497158
1397.77	0.242403
1399.35	-0.132624
1400.93	0.659729
1402.51	0.361586
1404.09	0.518728
1405.67	-0.351704
1407.24	0.53911
1408.82	0.502003
1410.4	0.465807
1411.98	0.488861
1413.55	0.747887
1415.13	0.373859
1416.71	0.491859
1418.28	0.983562
1419.86	0.608461
1421.43	1.37747
1423.01	1.20369
1424.58	0.560377
1426.16	1.82839
1427.73	1.46378
1429.31	2.02388
1430.88	2.89734
1432.45	2.41071
1434.02	3.47675
1435.6	2.83028
1437.17	2.97098
1438.74	2.11043
1440.31	3.57107
1441.88	2.73388
1443.45	2.38932
1445.03	3.9126
1446.6	2.84189
1448.17	2.9114
1449.74	3.0011
1451.3	2.20683
1452.87	2.12121
1454.44	2.33131
1456.01	3.32852
1457.58	2.16032
1459.15	2.50514
1460.72	2.82731
1462.28	2.96901
1463.85	2.59634
1465.42	1.5145
1466.98	2.41722
1468.55	1.8274
1470.12	1.9265
1471.68	2.3021
1473.25	1.24761
1474.81	2.07741
1476.38	1.55483
1477.94	1.99322
1479.51	2.60782
1481.07	2.04612
1482.63	1.48443
1484.2	2.60776
1485.76	2.65266
1487.32	2.81371
1488.88	2.44373
1490.45	2.87308
1492.01	2.10523
1493.57	1.84275
1495.13	1.63618
1496.69	1.29181
1498.25	0.675416
1499.81	1.94669
1501.37	1.08133
1502.93	1.28647
1504.49	1.08588
1506.05	0.653848
1507.61	1.01459
1509.17	0.658119
1510.73	1.03382
1512.28	0.944606
1513.84	0.681717
1515.4	1.0541
1516.96	0.0634222
1518.51	0.974797
1520.07	0.620897
1521.63	0.134192
1523.18	0.183271
1524.74	0.402846
1526.29	-0.00894547
1527.85	0.16917
1529.4	0.669151
1530.96	0.370134
1532.51	-0.439221
1534.06	-0.0709858
1535.62	-0.004673
1537.17	0.913238
1538.72	0.773364
1540.28	0.162998
1541.83	-0.0127115
1543.38	0.414021
1544.93	0.971227
1546.48	0.925906
1548.03	0.561419
1549.59	0.0289221
1551.14	0.602564
1552.69	1.23198
1554.24	0.908549
1555.79	0.307707
1557.34	0.625024
1558.88	0.758549
1560.43	0.428671
1561.98	1.05279
1563.53	0.466153
1565.08	1.18642
1566.62	1.19795
1568.17	0.219915
1569.72	0.622352
1571.27	0.240216
1572.81	0.436278
1574.36	1.00545
1575.9	0.566607
1577.45	1.04278
1579	0.940907
1580.54	1.19473
1582.09	0.740177
1583.63	0.529568
1585.17	0.600289
1586.72	0.93358
1588.26	1.3235
1589.8	1.09593
1591.35	1.20444
1592.89	1.40585
1594.43	1.45704
1595.97	1.58323
1597.52	1.74762
1599.06	2.1757
1600.6	2.08008
1602.14	2.09776
1603.68	2.22812
1605.22	1.5309
1606.76	1.41353
1608.3	1.38697
1609.84	1.88297
1611.38	1.2476
1612.92	1.26683
1614.46	1.6405
1615.99	1.3752
1617.53	1.59827
1619.07	1.5419
1620.61	1.80636
1622.14	1.02439
1623.68	1.25499
1625.22	1.1674
1626.75	0.797948
1628.29	1.02539
1629.82	0.558555
1631.36	0.333508
1632.9	1.49024
1634.43	1.46998
1635.96	1.0032
1637.5	1.39619
1639.03	1.34244
1640.57	2.09022
1642.1	2.24031
1643.63	1.77397
1645.16	1.56669
1646.7	1.35818
1648.23	1.78119
1649.76	2.33411
1651.29	1.94147
1652.82	1.68111
1654.36	1.44134
1655.89	2.0183
1657.42	1.6128
1658.95	1.96576
1660.48	1.64987
1662.01	1.2395
1663.53	2.30672
1665.06	1.61652
1666.59	1.6108
1668.12	1.45922
1669.65	1.64194
1671.18	0.776622
1672.7	1.33193
1674.23	0.838031
1675.76	1.24617
1677.29	0.953474
1678.81	0.346583
1680.34	0.878624
1681.86	0.912704
1683.39	0.725819
1684.91	0.887893
1686.44	1.23366
1687.96	0.443329
1689.49	0.552086
1691.01	0.0385666
1692.54	0.587109
1694.06	0.147245
1695.58	-0.49354
1697.11	0.528723
1698.63	0.581429
1700.15	0.396132
1701.67	-0.154513
1703.2	-0.358994
1704.72	-0.199803
1706.24	0.41329
1707.76	0.206792
1709.28	0.218437
1710.8	0.593128
1712.32	0.369032
1713.84	0.417321
1715.36	0.139757
1716.88	-0.0108557
1718.4	-0.0168543
1719.91	0.428471
1721.43	-0.353662
1722.95	-0.232288
1724.47	-0.037571
1725.99	-0.183289
1727.5	0.717139
1729.02	0.55681
1730.54	-0.284218
1732.05	-0.313412
1733.57	0.515536
1735.09	0.640034
1736.6	-0.152853
1738.12	-0.138806
1739.63	0.636631
1741.15	-0.414572
1742.66	-0.0629244
1744.18	-0.102008
1745.69	0.346037
1747.2	-0.34629
1748.72	0.495498
1750.23	0.352517
1751.74	-0.187797
1753.25	0.316265
1754.77	0.0977955
1756.28	0.221965
1757.79	-0.115999
1759.3	-0.187948
1760.81	0.537805
1762.32	-0.721725
1763.83	0.0818939
1765.34	0.30816
1766.85	0.211701
1768.36	-0.0722532
1769.87	-0.0679951
1771.38	-0.16463
1772.89	0.241492
1774.4	-0.0808706
1775.91	0.27394
1777.41	-0.0166655
1778.92	-0.0236435
1780.43	-0.370187
1781.94	-0.0166235
1783.44	-0.231019
1784.95	-0.109998
1786.45	-0.254448
1787.96	0.0126619
1789.47	0.0896959
1790.97	0.137761
1792.48	0.149944
1793.98	0.303415
1795.48	-0.246745
1796.99	-0.146695
1798.49	0.210833
1800	0.492241
1801.5	0.06563
1803	0.394088
1804.51	0.330852
1806.01	0.276393
1807.51	0.381023
1809.01	0.106034
1810.51	0.175515
1812.02	-0.307926
1813.52	-0.269752
1815.02	-0.0208015
1816.52	-0.015913
1818.02	-0.0990725
1819.52	0.241663
1821.02	0.0359879
1822.52	-0.0214453
1824.02	-0.133324
1825.51	0.495111
1827.01	-0.211362
1828.51	0.135902
1830.01	-0.298977
1831.51	0.299844
1833	-0.347334
1834.5	0.191492
1836	0.040925
1837.5	0.106364
1838.99	0.445361
1840.49	0.183058
1841.98	0.0288954
1843.48	0.0206223
1844.97	0.00742912
1846.47	0.385394
1847.96	0.0824184
1849.46	0.356096
1850.95	0.0160036
1852.45	0.353203
1853.94	-0.466801
1855.43	-0.0560255
1856.92	-0.55073
1858.42	0.167771
1859.91	0.419191
1861.4	0.250336
1862.89	-0.192262
1864.39	0.512206
1865.88	0.299127
1867.37	-0.168255
1868.86	-0.132504
1870.35	0.104616
1871.84	0.424314
1873.33	-0.198232
1874.82	-0.156441
1876.31	0.395523
1877.8	0.356236
1879.29	0.0953188
1880.77	0.156515
1882.26	0.327272
1882.51	0.361522
1884	-0.180647
1885.5	0.74019
1886.99	-0.0306301
1888.48	0.034153
1889.98	0.307888
1891.47	0.391495
1892.97	0.303557
1894.46	0.0618706
1895.95	0.257122
1897.44	0.0536642
1898.93	0.145683
1900.42	-0.11171
1901.92	-0.12792
1903.41	-0.0945311
1904.9	0.597281
1906.39	0.348984
1907.88	0.448174
1909.37	0.391933
1910.86	0.215663
1912.35	0.387753
1913.84	0.734044
1915.32	0.178632
1916.81	-0.325058
1918.3	-0.343984
1919.79	-0.155643
1921.28	0.309549
1922.76	0.151663
1924.25	-0.108755
1925.74	0.11723
1927.22	-0.10535
1928.71	-0.119269
1930.2	-0.444943
1931.68	0.665525
1933.17	-0.563856
1934.65	0.628168
1936.14	0.103846
1937.62	0.702194
1939.11	0.469654
1940.59	-0.0557108
1942.08	-0.130539
1943.56	0.451716
1945.04	0.241572
1946.53	0.394137
1948.01	0.42562
1949.49	0.26646
1950.97	0.536403
1952.45	0.787402
1953.94	0.48691
1955.42	-0.00234127
1956.9	-0.0439138
1958.38	-0.30758
1959.86	0.545098
1961.34	0.248966
1962.82	0.124763
1964.3	-0.205209
1965.78	0.508986
1967.26	0.485435
1968.74	0.358283
1970.22	0.555144
1971.69	0.204734
1973.17	0.0253983
1974.65	0.136395
1976.13	0.571325
1977.61	0.0520744
1979.08	0.129395
1980.56	0.172538
1982.03	-0.0226173
1983.51	0.274644
1984.99	-0.209826
1986.46	-0.134239
1987.94	0.161495
1989.41	-0.101616
1990.89	0.0427494
1992.36	0.00224686
1993.84	0.301339
1995.31	-0.108371
1996.78	0.428888
1998.26	0.340869
1999.73	-0.0853834
2001.2	0.382186
2002.68	0.0220976
2004.15	-0.236701
2005.62	-0.326288
2007.09	0.141068
2008.56	0.660007
2010.04	0.45608
2011.51	0.0341845
2012.98	0.454025
2014.45	0.267286
2015.92	0.214069
2017.39	0.209983
2018.86	0.0869961
2020.33	0.652185
2021.8	0.309713
2023.27	-0.0990801
2024.74	0.0808535
2026.2	0.0946445
2027.67	-0.141064
2029.14	0.46403
2030.61	-0.438585
2032.07	0.472094
2033.54	0.595102
2035.01	-0.20546
2036.47	0.437583
2037.94	0.475277
2039.41	0.159441
2040.87	0.0955296
2042.34	-0.169644
2043.8	0.339808
2045.27	0.19472
2046.73	-0.30294
2048.2	0.0920982
2049.66	-0.0859461
2051.12	0.509994
2052.59	0.530585
2054.05	0.160546
2055.51	0.125227
2056.98	0.441898
2058.44	0.538069
2059.9	0.0443668
2061.36	0.460855
2062.82	0.541624
2064.29	0.320941
2065.75	0.421542
2067.21	0.708527
2068.67	-0.0302372
2070.13	1.26809
2071.59	0.883325
2073.05	0.329863
2074.51	0.718868
2075.97	0.349623
2077.43	0.754458
2078.88	0.973438
2080.34	0.821236
2081.8	1.22381
2083.26	0.665718
2084.72	0.981825
2086.17	0.80875
2087.63	0.954329
2089.09	1.16633
2090.54	1.05865
2092	0.615186
2093.46	1.24594
2094.91	0.986785
2096.37	0.810964
2097.82	0.684585
2099.28	0.925627
2100.73	1.13235
2102.19	1.63985
2103.64	1.02914
2105.09	1.10542
2106.55	1.08369
2108	0.880163
2109.46	1.42763
2110.91	1.27384
2112.36	1.95124
2113.81	1.44281
2115.27	1.38181
2116.72	1.07009
2118.17	1.57329
2119.62	1.36407
2121.07	1.4899
2122.52	1.45286
2123.97	1.94878
2125.42	2.14721
2126.87	1.15147
2128.32	1.64636
2129.77	1.70797
2131.22	1.71775
2132.67	1.72623
2134.12	1.91661
2135.57	2.0419
2137.01	2.50002
2138.46	2.31646
2139.91	2.36742
2141.36	2.52029
2142.8	2.21221
2144.25	2.94719
2145.7	2.01146
2147.14	2.36593
2148.59	2.78589
2150.03	2.6745
2151.48	2.32946
2152.92	2.39698
2154.37	2.89393
2155.81	2.99242
2157.26	3.20696
2158.7	2.59445
2160.15	2.97805
2161.59	3.04988
2163.03	2.77672
2164.48	2.58876
2165.92	3.39809
2167.36	3.16176
2168.8	3.73796
2170.25	2.49882
2171.69	3.25169
2173.13	3.13636
2174.57	2.80246
2176.01	2.70051
2177.45	2.63217
2178.89	3.13035
2180.33	3.13138
2181.77	3.05077
2183.21	3.03766
2184.65	2.02707
2186.09	2.94598
2187.53	2.93351
2188.97	2.9544
2190.41	2.95862
2191.84	2.94576
2193.28	2.53208
2194.72	2.83213
2196.16	2.26354
2197.59	2.37427
2199.03	2.74811
2200.47	2.70431
2201.9	2.54408
2203.34	2.20267
2204.78	2.64276
2206.21	1.97371
2207.65	2.08475
2209.08	1.61583
2210.51	2.20543
2211.95	2.44538
2213.38	2.40276
2214.82	1.79839
2216.25	1.90558
2217.68	1.51951
2219.12	2.20768
2220.55	2.30329
2221.98	1.82224
2223.42	1.83466
2224.85	1.56494
2226.28	1.7865
2227.71	1.92283
2229.14	1.31776
2230.57	2.17283
2232	1.43609
2233.43	1.1434
2234.86	0.917877
2236.29	1.21737
2237.72	1.176
2239.15	1.05604
2240.58	1.68961
2242.01	1.24937
2243.44	0.843754
2244.87	0.944333
2246.3	1.35386
2247.73	1.17375
2249.15	0.94153
2250.58	0.461793
2252.01	0.875406
2253.43	1.70979
2254.86	0.967144
2256.29	0.487679
2257.71	0.807412
2259.14	1.11503
2260.56	1.41097
2261.99	1.38631
2263.41	0.43844
2264.84	0.595015
2266.26	0.735014
2267.69	1.11799
2269.11	0.621045
2270.54	0.676078
2271.96	0.681522
2273.38	1.06129
2274.81	0.985251
2276.23	0.665092
2277.65	0.0679989
2279.07	0.399933
2280.49	0.601515
2281.92	0.330013
2283.34	0.205094
2284.76	0.422886
2286.18	0.461558
2287.6	0.0762911
2289.02	0.361096
2290.44	0.61405
2291.86	0.68784
2293.28	0.778256
2294.7	0.803284
2296.12	0.25532
2297.54	-0.244055
2298.96	-0.21953
2300.38	0.264206
2301.79	-0.218638
2303.21	0.348443
2304.63	0.112048
2306.05	-0.091835
2307.46	-0.000642776
2308.88	0.287127
2310.3	-0.0506077
2311.71	-0.027257
2313.13	-0.267201
2314.55	-0.556105
2315.96	-0.185538
2317.38	0.301831
2318.79	0.164003
2320.21	0.223628
2321.62	-0.18029
2323.03	0.30409
2324.45	0.554083
2325.86	0.206666
2327.27	0.648578
2328.69	0.198904
2330.1	-0.348813
2331.51	-0.137393
2332.93	0.124844
2334.34	0.0262156
2335.75	0.997306
2337.16	-0.104964
2338.57	-0.106427
2339.99	-0.0437975
2341.4	0.263729
2342.81	0.438818
2344.22	0.0232353
2345.63	-0.24389
2347.04	0.243189
2348.45	-0.13783
2349.86	0.757072
2351.26	-0.0341282
2352.67	-0.00886345
2354.08	0.439232
2355.49	0.885401
2356.9	0.0763788
2358.31	0.635287
2359.71	-0.090354
2361.12	-0.116392
2362.53	0.00354576
2363.94	-0.0388813
2365.34	0.306993
2366.75	-0.05867
2368.15	-0.132086
2369.56	-0.397451
2370.97	-0.0963249
2372.37	0.593005
2373.78	-0.327118
2375.18	0.041851
2376.59	0.426065
2377.99	-0.606722
2379.39	-0.0656328
2380.8	0.070838
2382.2	0.317189
2383.61	-0.271181
2385.01	0.485203
2386.41	0.377606
2387.81	0.27161
2389.22	0.374897
2390.62	0.0178967
2392.02	0.0930166
2393.42	0.201364
2394.82	-0.102654
2396.22	0.0238762
2397.63	0.19894
2399.02	-0.165451
2400.43	0.408328
2401.82	-0.0182676
2403.23	-0.0317345
2404.62	0.525898
2406.02	0.828012
2407.42	0.224058
2408.82	-0.332942
2410.22	0.235585
2411.62	0.154284
2413.02	0.0425882
2414.41	0.471138
2415.81	0.442666
2417.21	0.416215
2418.61	0.343661
2420	0.683412
2421.4	0.183617
2422.79	0.20595
2424.19	0.10114
2425.59	0.408402
2426.98	0.272752
2428.38	0.13834
2429.77	0.496893
2431.17	0.682279
2432.56	0.439492
2433.96	0.275126
2435.35	0.0931158
2436.74	0.417327
2438.14	0.15143
2439.53	0.439673
2440.92	0.0753269
2442.32	-0.146701
2443.71	-0.0516033
2445.1	0.23351
2446.49	0.201074
2447.88	0.422036
2449.28	0.0250216
2450.67	0.0878639
2452.06	0.436336
2453.45	-0.0212231
2454.84	-0.287476
2456.23	0.412301
2457.62	-0.722406
2459.01	0.388812
2460.4	-0.509473
2461.79	0.219969
2463.18	0.0627403
2464.57	0.726336
2465.96	-0.0323868
2467.34	0.298615
2468.73	0.219017
2470.12	-0.0658092
2471.51	0.216464
2472.89	-0.416248
2474.28	0.477786
2475.67	0.441475
2477.05	0.0117311
2478.44	0.100869
2479.83	0.629486
2481.21	0.248116
2482.6	-0.226748
2483.98	0.112544
2485.37	0.559447
2486.75	0.363213
2488.14	-0.0838699
2489.52	-0.141306
2490.9	-0.354445
2492.29	0.0865641
2493.67	-0.0619469
2495.06	-0.00654793
2496.44	-0.0579119
2497.82	-0.231853
2499.2	0.600948
2500.59	0.333927
2501.97	0.37527
2503.35	0.15261
2504.73	0.746597
2506.11	0.490937
2507.49	-0.287806
2508.88	0.226759
2510.26	0.372263
2511.63	-0.14128
2513.01	0.0370464
2514.39	0.231646
2515.77	0.0752134
2517.15	-0.263441
2518.53	0.545733
2519.91	-0.00566578
2521.29	0.00824356
2522.67	0.372266
2524.05	-0.211082
2525.42	0.287502
2526.8	0.114869
2528.18	0.125693
2529.56	-0.211652
2530.93	0.319948
2532.31	-0.225168
2533.69	0.340955
2535.06	0.254798
2536.44	0.411687
2537.81	0.0359144
2539.19	-0.0221672
2540.56	0.51072
2541.94	0.299021
2543.31	-0.610072
2544.69	0.0297298
2546.06	0.5346
2547.44	-0.0356874
2548.81	-0.407658
2550.18	0.388792
2551.56	-0.0292978
2552.93	0.173481
2554.3	0.147134
2555.68	0.347059
2557.05	-0.0151329
2558.42	0.27471
2559.79	0.504138
2561.16	0.249262
2562.53	0.131794
2563.9	-0.409115
2565.28	-0.373537
2566.64	-0.201225
2568.02	-0.180308
2569.38	0.78029
2570.76	0.0737495
2572.12	-0.162924
2573.49	-0.0356932
2574.86	0.106841
2576.23	0.446556
2577.6	0.316177
2578.97	0.382589
2580.34	0.0845699
2581.7	0.0285826
2583.07	-0.770849
2584.44	0.460968
2585.81	0.206937
2587.17	0.0289164
2588.54	0.305864
2589.91	0.279851
2591.27	0.405201
2592.64	0.1056
2594	-0.134445
2595.37	0.0633545
2596.73	0.274654
2598.1	-0.271816
2599.46	-0.31927
2600.83	-0.00389194
2602.19	0.0249043
2603.55	0.1603
2604.92	-0.186471
2606.28	0.432697
2607.64	0.116067
2609.01	0.371226
2610.37	0.308035
2611.73	0.0774546
2613.09	0.341792
2614.46	0.634514
2615.82	0.235985
2617.18	0.288313
2618.54	-0.197737
2619.9	0.575117
2621.26	0.600217
2622.62	-0.0762138
2623.98	-0.0794411
2625.34	0.215706
2626.7	0.510094
2628.06	0.356533
2629.42	0.202755
2630.78	0.00427628
2632.14	0.50466
2633.5	-0.0801935
2634.86	0.152178
2636.22	0.413785
2637.57	0.408222
2638.93	0.66925
2640.29	-0.209094
2641.64	-0.05089
2643	0.535895
2644.36	0.324915
2645.72	0.187874
2647.07	0.374774
2648.43	0.309972
2649.78	0.258812
2651.14	0.324353
2652.49	0.389297
2653.85	0.483756
2655.2	0.373911
2656.56	0.485535
2657.91	0.144962
2659.27	-0.32558
2660.62	-0.210211
2661.97	0.328663
2663.33	-0.0832901
2664.68	0.131763
2666.03	0.301662
2667.38	0.514309
2668.74	0.333304
2670.09	0.356667
2671.44	0.540685
2672.79	0.33306
2674.14	0.242764
2675.49	0.443682
2676.84	0.935408
2678.2	0.456015
2679.55	0.514607
2680.89	0.487702
2682.24	0.317559
2683.59	0.2941
2684.94	0.330029
2686.29	0.526261
2687.64	0.0982733
2688.99	0.263607
2690.34	0.47011
2691.69	0.644861
2693.04	0.846246
2694.38	0.335436
2695.73	-0.349033
2697.08	0.604892
2698.43	0.0828667
2699.77	0.113634
2701.12	0.407507
2702.46	0.805055
2703.81	0.639297
2705.16	0.517646
2706.5	0.294427
2707.85	-0.147046
2709.19	0.513792
2710.54	0.753434
2711.88	0.469865
2713.23	0.694472
2714.57	0.279552
2715.92	0.547648
2717.26	0.568427
2718.6	0.821605
2719.95	0.0121174
2721.29	0.409606
2722.63	0.151518
2723.97	-0.311076
2725.32	-0.0319643
2726.66	0.246588
2728	0.13169
2729.34	0.525782
2730.68	0.584893
2732.02	0.9058
2733.36	0.921254
2734.7	0.718768
2736.04	0.996568
2737.39	-0.194402
2738.72	0.636194
2740.06	0.346581
2741.4	-0.0599833
2742.74	-0.0166683
2744.08	-0.381281
2745.42	0.604549
2746.76	-0.313362
2748.1	-0.113096
2749.44	0.725429
2750.77	0.374275
2752.11	0.125222
2753.45	0.137532
2754.78	-0.270095
2756.12	-0.0110521
2757.46	-0.635213
2758.79	0.116498
2760.13	-0.144721
2761.47	-0.0289564
2762.8	-0.375607
2764.14	-0.186438
2765.47	-0.055192
2766.81	0.30687
2768.14	0.146791
2769.48	0.678996
2770.81	0.327052
2772.14	0.103529
2773.48	0.196296
2774.81	0.187185
2776.14	0.566912
2777.48	0.140553
2778.81	0.20457
2780.14	0.513519
2781.47	-0.240188
2782.81	-0.131718
2784.14	0.0912371
2785.47	0.242187
2786.8	-0.251352
2788.13	0.401543
2789.46	0.210697
2790.79	-0.164656
2792.12	0.0904236
2793.46	0.0458164
2794.79	0.0870247
2796.11	-0.358068
2797.44	0.13906
2798.77	0.435128
2800.1	0.302155
2801.43	-0.159206
2802.76	-0.0215683
2804.09	0.201051
2805.42	0.0382414
2806.74	0.216358
2808.07	0.35064
2809.4	0.413019
2810.73	0.106093
2812.05	0.566756
2813.38	0.276772
2814.71	0.357727
2816.03	0.497397
2817.36	0.326825
2818.68	-0.0271559
2820.01	-0.0976553
2821.33	0.171367
2822.66	0.481894
2823.98	0.352182
2825.31	0.363652
2826.63	0.0352907
2827.96	0.557266
2829.28	0.301262
2830.61	0.895308
2831.93	1.05079
2833.25	1.03629
2834.57	0.865626
2835.9	0.934848
2837.22	1.48432
2838.54	1.36801
2839.86	1.43527
2841.18	1.98334
2842.51	2.22079
2843.83	2.57222
2845.15	2.6138
2846.47	3.19338
2847.79	3.29305
2849.11	2.79913
2850.43	3.54852
2851.75	3.61866
2853.07	3.51836
2854.39	3.67179
2855.71	3.98028
2857.03	3.25739
2858.35	3.00089
2859.67	3.87421
2860.98	3.44794
2862.3	4.02364
2863.62	3.70931
2864.94	3.78979
2866.25	3.87017
2867.57	3.9932
2868.89	3.59513
2870.21	3.97321
2871.52	4.83066
2872.84	3.88346
2874.15	4.65451
2875.47	5.25443
2876.78	4.73988
2878.1	5.13917
2879.42	4.6375
2880.73	4.75529
2882.04	5.14115
2883.36	5.05083
2884.67	5.25694
2885.99	4.95854
2887.3	4.80073
2888.61	5.3439
2889.93	5.45068
2891.24	5.23354
2892.55	5.35198
2893.87	4.97972
2895.18	5.23846
2896.49	5.10631
2897.8	5.57758
2899.11	5.6445
2900.42	5.99245
2901.74	6.04732
2903.05	5.86473
2904.36	5.78028
2905.67	6.10189
2906.98	6.22855
2908.29	6.46839
2909.6	6.94749
2910.91	6.93789
2912.22	7.39019
2913.53	7.84145
2914.83	8.26251
2916.14	8.2747
2917.45	8.00436
2918.76	8.12428
2920.07	8.31376
2921.37	8.19661
2922.68	8.61271
2923.99	9.47829
2925.3	9.6748
2926.6	9.98423
2927.91	9.88838
2929.22	9.74995
2930.52	10.673
2931.83	10.5887
2933.13	10.1545
2934.44	10.4332
2935.74	10.4744
2937.05	10.446
2938.35	10.6835
2939.66	10.4743
2940.96	10.0144
2942.27	9.62589
2943.57	10.1758
2944.87	9.24634
2946.18	9.45116
2947.48	9.0136
2948.78	7.46959
2950.09	8.4289
2951.39	8.48954
2952.69	8.39298
2953.99	7.52406
2955.29	7.53666
2956.6	6.80884
2957.9	6.86809
2959.2	7.42169
2960.5	6.84556
2961.8	6.81877
2963.1	6.24608
2964.4	5.88234
2965.7	5.17883
2967	5.41381
2968.3	5.66103
2969.6	5.80879
2970.9	5.14066
2972.2	5.16205
2973.49	5.50767
2974.79	5.00892
2976.09	4.94547
2977.39	4.76744
2978.69	4.33339
2979.98	4.26287
2981.28	4.40147
2982.58	4.04683
2983.88	3.91794
2985.17	4.14218
2986.47	3.93305
2987.76	3.1923
2989.06	3.64753
2990.36	3.55519
2991.65	3.06863
2992.95	3.39567
2994.24	2.96196
2995.54	3.36954
2996.83	2.94733
2998.12	2.53921
2999.42	2.25811
3000.71	1.59949
3002	2.18971
3003.3	2.23376
3004.59	1.38146
3005.88	1.69168
3007.18	1.48289
3008.47	1.41304
3009.76	1.39794
3011.05	1.2281
3012.35	1.05794
3013.64	0.832284
3014.93	0.635494
3016.22	1.03904
3017.51	0.705347
3018.8	0.748542
3020.09	0.652804
3021.38	0.501036
3022.67	0.584452
3023.96	0.166841
3025.25	0.62241
3026.54	0.273531
3027.83	0.645576
3029.12	0.0231791
3030.41	0.260465
3031.69	0.251057
3032.98	-0.226135
3034.27	0.208369
3035.56	0.407407
3036.85	-0.0159168
3038.13	0.0136137
3039.42	0.329589
3040.71	0.587727
3041.99	0.390987
3043.28	0.235915
3044.57	-0.0406475
3045.85	-0.0133896
3047.14	-0.433905
3048.42	-0.086031
3049.71	0.182643
3050.99	0.235179
3052.28	-0.106709
3053.56	0.356606
3054.85	0.259704
3056.13	0.134253
3057.42	0.130188
3058.7	0.234135
3059.98	0.61002
3061.27	0.237657
3062.55	0.247976
3063.83	-0.0795908
3065.11	0.57406
3066.4	-0.0617857
3067.68	0.323534
3068.96	0.804864
3070.24	0.483672
3071.52	0.365362
3072.8	0.123133
3074.09	-0.0933609
3075.37	0.232696
3076.65	-0.0258226
3077.93	-0.161238
3079.21	0.207072
3080.49	-0.168686
3081.77	0.190398
3083.05	-0.276138
3084.32	-0.00898552
3085.61	-0.148588
3086.88	0.26781
3088.16	0.289812
3089.44	-0.123285
3090.72	-0.0482159
3092	-0.0410366
3093.27	-0.0877266
3094.55	0.313704
3095.83	0.0240641
3097.11	-0.0618172
3098.38	0.123516
3099.66	-0.341625
3100.94	0.12825
3102.21	-0.268563
3103.49	-0.0553551
3104.76	0.334596
3106.04	-0.0728483
3107.31	0.265511
3108.59	0.456637
3109.86	0.41939
3111.14	0.424317
3112.41	0.200258
3113.69	0.464596
3114.96	0.376925
3116.23	0.153165
3117.51	0.416643
3118.78	0.326264
3120.05	0.70927
3121.33	0.711416
3122.6	0.306407
3123.87	0.633156
3125.14	0.648726
3126.42	0.448605
3127.69	0.263188
3128.96	0.876827
3130.23	0.977024
3131.5	0.591007
3132.77	0.624197
3134.04	0.724665
3135.31	0.689573
3136.58	1.01832
3137.85	0.672121
3139.12	0.56867
3140.39	0.882729
3141.66	0.497364
3142.93	1.17482
3144.2	1.2748
3145.47	1.09411
3146.74	0.834518
3148	1.19269
3149.27	1.37756
