200.523	0.304285
202.339	0.325788
204.154	0.348398
205.967	-0.965801
207.781	0.128064
209.596	-0.0188618
211.409	-0.166795
213.222	0.436574
215.034	0.625669
216.848	0.0140944
218.659	0.154179
220.47	-0.0442123
222.281	0.218041
224.091	0.577536
225.903	-0.391908
227.713	0.475298
229.522	-0.42131
231.331	-0.183365
233.14	0.922447
234.948	-0.0943117
236.756	-0.530637
238.566	0.625844
240.373	0.0492077
242.18	0.438921
243.986	-0.255404
245.792	0.256232
247.598	0.0906553
249.403	0.47772
251.208	0.137331
253.013	-0.422787
254.818	0.511522
256.624	0.166661
258.427	-0.104818
260.231	0.32408
262.034	-0.136657
263.836	0.247309
265.638	0.77691
267.44	-0.163144
269.242	-0.453103
271.043	0.0516376
272.844	0.193659
274.645	0.189603
276.445	-0.129448
278.245	0.706525
280.044	-0.507471
281.843	-0.133437
283.642	0.0939417
285.44	-0.040863
287.238	0.111832
289.036	0.0244331
290.833	0.0576553
292.63	0.020237
294.425	0.151743
296.221	-0.0024004
298.017	0.226953
299.813	0.480482
301.608	0.661968
303.403	0.197796
305.198	0.0668774
306.992	0.292932
308.786	0.566169
310.579	0.386981
312.371	-0.386325
314.163	0.34244
315.956	-0.308233
317.748	0.352468
319.54	0.657619
321.331	0.296783
323.122	0.365573
324.911	0.745024
326.701	0.504235
328.491	0.45401
330.281	-0.0511961
332.071	0.709561
333.857	0.775291
335.646	0.264555
337.434	-0.200626
339.222	0.528499
341.008	0.203387
342.795	-0.217865
344.582	0.316911
346.369	0.541234
348.153	0.431788
349.939	0.155775
351.724	0.524288
353.51	0.0568857
355.292	0.304313
357.077	0.00185585
358.861	0.246489
360.643	0.346789
362.426	0.0652952
364.21	0.734546
365.99	0.332905
367.773	0.310929
369.555	0.216991
371.335	0.359231
373.116	0.00362015
374.897	0.262847
376.676	-0.115777
378.456	-0.3752
380.236	0.0734034
382.014	0.0751019
383.793	0.0309725
385.57	0.505267
387.349	0.0874043
389.127	-0.188166
390.903	0.265357
392.681	-0.21983
394.456	0.375834
396.233	0.00899029
398.007	-0.00553322
399.784	-0.70138
401.56	0.0820627
403.333	-0.0746365
405.108	-0.0206575
406.881	0.619636
408.656	0.179133
410.428	0.254879
412.202	0.354096
413.973	0.594476
415.746	-0.00915623
417.517	0.232683
419.29	0.00583076
421.06	0.0138369
422.831	-0.0957766
424.601	-0.0652399
426.37	0.692191
428.141	0.0167656
429.909	-0.588594
431.679	0.0265942
433.447	0.383828
435.216	0.295465
436.983	0.746865
438.75	0.117962
440.519	0.191728
442.285	0.146209
444.052	0.848784
445.818	0.0493469
447.583	0.0223951
449.349	0.322412
451.114	0.505185
452.878	0.0110245
454.643	0.194278
456.407	0.377212
458.169	0.140535
459.934	0.04391
461.696	0.389909
463.458	-0.285583
465.222	0.389314
466.983	0.555673
468.744	0.678291
470.507	0.15172
472.267	0.393023
474.027	0.284606
475.787	0.10449
477.548	0.225048
479.307	0.297256
481.065	-0.0274496
482.823	0.626243
484.583	0.838592
486.341	0.54046
488.098	0.127685
489.855	0.08957
491.612	-0.134361
493.37	-0.0776806
495.126	0.376869
496.881	0.832182
498.636	0.960013
500.391	-0.0849943
502.148	0.064641
503.902	0.495521
505.656	-0.202337
507.409	1.12011
509.162	0.301346
510.915	0.327622
512.668	0.211175
514.42	0.305049
516.174	-0.00234699
517.925	0.112589
519.676	0.344015
521.427	0.0810957
523.178	-0.0176296
524.928	0.165196
526.678	0.300893
528.427	0.0613317
530.176	0.876436
531.925	0.472352
533.673	-0.0959024
535.422	-0.196708
537.169	0.402408
538.917	0.695531
540.664	0.660378
542.411	0.624506
544.157	0.797708
545.903	-0.144803
547.649	0.469995
549.395	0.573637
551.14	0.0520868
552.884	0.248876
554.629	0.0757513
556.373	0.341801
558.117	0.054285
559.86	-0.140058
561.603	-0.241455
563.346	0.11786
565.089	0.178414
566.831	-0.449579
568.573	0.622746
570.314	0.18058
572.053	-0.259923
573.794	0.654671
575.534	-0.0806856
577.274	-0.493468
579.014	0.403189
580.754	-0.237446
582.493	0.477168
584.23	-0.325434
585.968	-0.0716934
587.706	0.0659962
589.444	0.455658
591.181	0.29228
592.919	-0.101682
594.653	0.171445
596.39	0.720688
598.126	0.280603
599.862	0.392326
601.595	-0.232896
603.33	-0.100155
605.065	0.169061
606.8	0.115101
608.532	0.496749
610.266	0.579473
611.999	0.135042
613.732	0.0128031
615.463	0.92265
617.196	0.43447
618.928	-0.466084
620.66	0.304132
622.389	0.134387
624.12	-0.150251
625.851	-0.160356
627.58	-0.00960732
629.31	0.302616
631.04	0.183467
632.767	0.134768
634.497	0.246819
636.223	-0.0979757
637.952	0.422967
639.68	0.553117
641.406	0.110006
643.134	0.0981674
644.861	-0.301864
646.586	0.481998
648.312	-0.142794
650.037	0.485767
651.762	0.231761
653.486	0.390604
655.211	0.120683
656.936	0.0346375
658.659	0.541965
660.383	0.0915356
662.105	0.50659
663.829	0.691449
665.55	0.119581
667.273	0.368786
668.994	0.61738
670.716	0.775349
672.436	0.592111
674.158	0.571415
675.877	0.827863
677.598	0.673048
679.317	0.793664
681.035	0.453703
682.755	0.0884075
684.473	0.802555
686.192	0.29484
687.909	0.683607
689.628	0.449469
691.344	0.698331
693.06	0.877459
694.778	0.894558
696.493	0.565242
698.211	0.695301
699.925	0.570911
701.64	0.928448
703.356	0.687034
705.07	0.422286
706.783	0.478704
708.498	0.786849
710.211	0.360939
711.924	0.530595
713.638	0.882607
715.35	0.388308
717.061	0.282976
718.774	0.702544
720.485	0.392262
722.196	1.03905
723.906	0.933978
725.618	0.465233
727.328	1.04179
729.037	0.663845
730.746	1.48765
732.456	0.837378
734.165	1.22894
735.873	0.873928
737.58	1.06189
739.289	0.550856
740.997	0.988367
742.703	0.660578
744.41	1.64026
746.116	1.60784
747.823	1.03698
749.529	1.29998
751.234	1.27186
752.938	0.952657
754.643	0.949707
756.347	1.08327
758.051	0.948281
759.756	0.994823
761.459	1.01999
763.162	1.06825
764.865	1.8389
766.567	0.48545
768.269	1.36675
769.97	1.11591
771.671	1.45094
773.372	0.925274
775.073	1.89156
776.773	1.34346
778.473	0.932297
780.174	1.31407
781.874	1.10892
783.573	1.2206
785.271	1.37648
786.97	1.41684
788.668	1.83875
790.365	2.0081
792.063	2.24218
793.76	1.41296
795.456	1.48734
797.153	1.26954
798.847	1.25642
800.543	1.35762
802.238	1.46012
803.933	1.36079
805.628	1.59857
807.322	1.65554
809.017	2.02562
810.71	1.92275
812.404	1.25848
814.097	2.00621
815.79	1.40928
817.483	1.43959
819.173	1.33584
820.865	1.74599
822.556	1.93277
824.248	2.00861
825.939	2.15272
827.629	1.43028
829.318	1.9804
831.008	1.55368
832.697	1.50836
834.387	1.66574
836.076	2.02504
837.765	1.62571
839.451	1.60435
841.139	2.16213
842.827	1.49
844.514	1.44282
846.2	1.70925
847.886	1.44103
849.573	1.80148
851.259	1.82912
852.943	1.56739
854.629	1.35092
856.314	0.954086
857.997	0.937596
859.682	0.784451
861.366	1.25984
863.05	1.23852
864.732	0.855323
866.415	1.84614
868.098	1.28093
869.779	1.72993
871.461	1.61482
873.141	1.04825
874.823	1.24861
876.505	1.15565
878.184	1.37868
879.865	0.789014
881.545	1.14701
883.223	1.91067
884.903	1.86045
886.581	1.37995
888.26	1.32676
889.937	1.13671
891.616	0.967906
893.294	0.865574
894.97	1.09977
896.648	1.66962
898.323	1.00226
900	1.05315
901.675	0.453436
903.351	1.04053
905.026	1.55895
906.701	1.31744
908.375	1.23322
910.05	0.949658
911.723	0.645354
913.398	1.07568
915.07	1.12809
916.742	1.3579
918.415	1.25477
920.087	1.24053
921.76	1.249
923.43	1.1039
925.103	1.42452
926.773	1.43759
928.443	1.23167
930.114	1.07123
931.783	1.22042
933.454	1.12716
935.123	0.857647
936.791	0.853284
938.461	0.695397
940.128	0.913651
941.796	0.736068
943.464	1.02249
945.131	0.867452
946.797	0.887797
948.465	0.46484
950.131	1.12154
951.797	0.783895
953.462	0.64505
955.128	0.39756
956.793	0.682
958.457	0.660882
960.121	0.819036
961.786	0.84636
963.45	1.20513
965.113	0.899054
966.775	0.545767
968.44	0.74278
970.102	0.428895
971.763	0.24702
973.425	1.08295
975.086	-0.246959
976.748	0.127635
978.409	-0.0271702
980.069	0.0508804
981.729	0.128583
983.388	1.10162
985.048	0.390326
986.708	0.651029
988.367	1.19741
990.025	0.702744
991.683	0.207975
993.341	0.906294
994.998	1.38315
996.655	0.933015
998.312	1.32119
999.969	1.24592
1001.62	1.21437
1003.28	2.06264
1004.94	0.710323
1006.59	0.612361
1008.25	0.448796
1009.9	0.527154
1011.56	0.145323
1013.21	0.465704
1014.86	0.0851927
1016.52	0.230873
1018.17	0.398775
1019.82	0.282991
1021.48	0.977234
1023.13	0.710461
1024.78	0.11694
1026.43	0.725965
1028.08	0.307932
1029.73	0.719522
1031.38	0.496347
1033.03	0.730177
1034.68	0.503947
1036.33	0.560081
1037.98	0.332138
1039.63	0.866315
1041.28	1.09585
1042.93	0.348292
1044.57	0.667857
1046.22	1.01083
1047.87	0.530354
1049.52	0.160131
1051.16	-0.0569077
1052.81	0.487104
1054.45	0.640565
1056.1	0.0333643
1057.75	0.403891
1059.39	0.556634
1061.04	0.730515
1062.68	0.381749
1064.32	0.61915
1065.97	0.768482
1067.61	0.329843
1069.25	-0.196359
1070.9	1.07967
1072.54	0.487721
1074.18	-0.363598
1075.82	0.0447044
1077.47	0.670928
1079.11	0.192302
1080.75	0.560133
1082.39	0.559286
1084.03	0.0154905
1085.67	0.965997
1087.31	0.397065
1088.95	0.822722
1090.59	0.72673
1092.22	0.370334
1093.86	0.208457
1095.5	0.0255175
1097.14	0.404137
1098.78	0.417333
1100.41	0.0447741
1102.05	0.449055
1103.69	0.768774
1105.32	0.551959
1106.96	0.0561428
1108.59	0.484832
1110.23	-0.141239
1111.86	0.155735
1113.5	0.171621
1115.13	0.315093
1116.77	0.672307
1118.4	1.22209
1120.03	0.400776
1121.67	0.652009
1123.3	0.133595
1124.93	0.408152
1126.56	0.298396
1128.19	-0.00299549
1129.83	0.808212
1131.46	0.529482
1133.09	-0.133709
1134.72	0.378722
1136.35	0.0782375
1137.98	0.0546236
1139.61	-0.141013
1141.24	0.0895452
1142.86	-0.342081
1144.49	0.314563
1146.12	0.161198
1147.75	-0.0763502
1149.38	0.432741
1151	0.281754
1152.63	-0.0608253
1154.26	-0.275836
1155.88	0.0409632
1157.51	-0.110619
1159.14	-0.240473
1160.76	0.481133
1162.39	0.0342131
1164.01	0.204908
1165.63	-0.112946
1167.26	0.0579519
1168.88	-0.0911179
1170.51	-0.0079689
1172.13	0.158216
1173.75	0.173864
1175.38	-0.448152
1177	-0.391346
1178.62	0.0468416
1180.24	0.294557
1181.86	0.310152
1183.48	0.07269
1185.1	0.448238
1186.72	0.590083
1188.34	-0.11388
1189.96	0.467216
1191.58	0.182004
1193.2	0.421616
1194.82	0.617771
1196.44	0.373178
1198.06	0.590805
1199.68	0.600559
1201.29	0.215755
1202.91	0.606722
1204.53	0.269461
1206.14	0.5396
1207.76	0.748366
1209.38	1.06163
1210.99	0.0391588
1212.61	0.70429
1214.22	0.928952
1215.84	0.567996
1217.45	0.767455
1219.07	0.342113
1220.68	1.10075
1222.29	0.904675
1223.91	0.793149
1225.52	0.35209
1227.13	0.658033
1228.74	0.923712
1230.36	0.797647
1231.97	0.858929
1233.58	0.85943
1235.19	1.3159
1236.8	1.40164
1238.41	0.76492
1240.02	0.893703
1241.63	0.815896
1243.24	1.02734
1244.85	0.762137
1246.46	1.36495
1248.07	1.32525
1249.67	1.53303
1251.28	1.11983
1252.89	1.41025
1254.5	0.853379
1256.1	1.16637
1257.71	1.3359
1259.32	1.15495
1260.92	1.53371
1262.53	1.22987
1264.13	0.552926
1265.74	1.3257
1267.34	1.16538
1268.95	1.21132
1270.55	1.04884
1272.15	1.32068
1273.76	1.40481
1275.36	1.63295
1276.97	1.32121
1278.57	1.21594
1280.17	0.799538
1281.77	1.52149
1283.37	1.22926
1284.97	0.958535
1286.58	1.47447
1288.18	1.51588
1289.78	1.37226
1291.38	1.20853
1292.98	1.39596
1294.58	1.43794
1296.18	1.80894
1297.78	1.66185
1299.37	1.14177
1300.97	1.44543
1302.57	2.24165
1304.17	1.88297
1305.77	1.60642
1307.36	1.80224
1308.96	1.15622
1310.55	1.94607
1312.15	1.60877
1313.75	1.53883
1315.34	1.83788
1316.94	2.11703
1318.53	1.49871
1320.13	2.16547
1321.72	1.4858
1323.32	1.84348
1324.91	1.64974
1326.5	1.57676
1328.1	1.05744
1329.69	1.34988
1331.28	1.56243
1332.87	1.49406
1334.47	2.13484
1336.06	1.52551
1337.65	2.14765
1339.24	2.08301
1340.83	2.11728
1342.42	2.02837
1344.01	1.57566
1345.6	1.46415
1347.19	1.37315
1348.78	1.66473
1350.37	1.91838
1351.96	0.634419
1353.54	1.51298
1355.13	1.1531
1356.72	0.653904
1358.31	1.2732
1359.89	0.89267
1361.48	1.28977
1363.07	1.30658
1364.65	1.04393
1366.24	0.881476
1367.82	1.33735
1369.41	0.659466
1370.99	0.520754
1372.58	0.900808
1374.16	0.963569
1375.75	0.708631
1377.33	0.573153
1378.91	0.755546
1380.5	1.05627
1382.08	1.09694
1383.66	1.21579
1385.25	0.816722
1386.83	0.497046
1388.41	0.833134
1389.99	0.693229
1391.57	1.36788
1393.15	0.872546
1394.73	0.635659
1396.31	0.517656
1397.89	1.0135
1399.47	0.933348
1401.05	0.990923
1402.63	1.04785
1404.21	1.3421
1405.78	0.0745258
1407.36	1.10164
1408.94	0.429676
1410.52	-0.00434875
1412.1	0.25295
1413.67	1.08193
1415.25	0.962255
1416.82	1.15735
1418.4	0.484661
1419.98	1.07375
1421.55	0.85611
1423.13	0.305584
1424.7	0.544146
1426.28	1.64991
1427.85	1.04387
1429.42	0.693379
1431	1.36545
1432.57	1.89838
1434.14	1.24968
1435.71	1.28923
1437.29	1.85983
1438.86	2.4506
1440.43	1.52898
1442	2.08249
1443.57	1.6148
1445.14	1.97296
1446.71	1.99722
1448.28	1.80543
1449.85	2.10541
1451.42	2.1307
1452.99	2.19594
1454.56	1.90753
1456.13	1.91406
1457.7	2.37251
1459.26	2.10143
1460.83	2.41881
1462.4	2.14375
1463.97	1.6901
1465.54	1.31435
1467.1	1.33152
1468.67	1.40795
1470.23	0.83767
1471.8	0.739783
1473.36	1.36867
1474.93	0.52742
1476.49	1.02009
1478.06	0.905
1479.62	0.378231
1481.19	0.811878
1482.75	0.383067
1484.31	0.620429
1485.88	0.0737543
1487.44	1.19128
1489	0.13362
1490.56	-0.122592
1492.13	0.401512
1493.69	-0.0344496
1495.25	0.484735
1496.81	0.572977
1498.37	0.135403
1499.93	0.37967
1501.49	0.119718
1503.05	0.482007
1504.61	1.01884
1506.17	0.548379
1507.73	0.232876
1509.28	0.284018
1510.84	-0.399282
1512.4	0.132328
1513.96	0.296555
1515.52	0.652756
1517.07	0.260004
1518.63	0.444197
1520.19	0.302956
1521.74	0.659693
1523.3	0.117009
1524.85	0.0329466
1526.41	0.234116
1527.96	0.414803
1529.52	0.689522
1531.07	0.79257
1532.63	0.118529
1534.18	0.2235
1535.73	0.196827
1537.29	1.24805
1538.84	0.504782
1540.39	0.593015
1541.94	0.360932
1543.5	0.787863
1545.05	1.10095
1546.6	0.643145
1548.15	0.242391
1549.7	0.966998
1551.25	0.960104
1552.8	0.860235
1554.35	1.06057
1555.9	0.795153
1557.45	0.66254
1559	0.942513
1560.55	0.608666
1562.1	0.948048
1563.65	1.19531
1565.19	1.03271
1566.74	1.16875
1568.29	1.17393
1569.83	0.898715
1571.38	1.07109
1572.93	1.24317
1574.47	1.09778
1576.02	1.34443
1577.56	1.32997
1579.11	1.35329
1580.66	0.64905
1582.2	1.32739
1583.74	1.4465
1585.29	2.14582
1586.83	1.27573
1588.38	1.39638
1589.92	0.8994
1591.46	1.44986
1593.01	1.5508
1594.55	1.29562
1596.09	0.965401
1597.63	1.32887
1599.17	1.89956
1600.71	1.36473
1602.25	1.80583
1603.79	1.4962
1605.34	1.41098
1606.88	1.81287
1608.41	1.02869
1609.95	1.57654
1611.49	1.63322
1613.03	1.55631
1614.57	1.34676
1616.11	1.4559
1617.65	1.50918
1619.18	0.833013
1620.72	1.41367
1622.26	1.28393
1623.79	0.874241
1625.33	1.25086
1626.87	1.47682
1628.4	1.5142
1629.94	1.81188
1631.48	0.986801
1633.01	0.90941
1634.55	1.0751
1636.08	1.59592
1637.61	0.99827
1639.15	1.70671
1640.68	1.78103
1642.21	2.02227
1643.75	1.72211
1645.28	2.07228
1646.81	1.36109
1648.34	1.20805
1649.88	1.70553
1651.41	2.0364
1652.94	1.8675
1654.47	1.6814
1656	1.95946
1657.53	2.34841
1659.06	1.90275
1660.59	1.95589
1662.12	1.50792
1663.65	2.02061
1665.18	1.71923
1666.71	1.73247
1668.24	1.67309
1669.76	1.32047
1671.29	1.08026
1672.82	1.55967
1674.35	1.9104
1675.87	1.02718
1677.4	1.52398
1678.93	1.15464
1680.45	1.13393
1681.98	1.2227
1683.5	1.42121
1685.03	0.958946
1686.55	0.901074
1688.08	0.715429
1689.6	0.805153
1691.13	0.78517
1692.65	0.43588
1694.17	0.324655
1695.7	0.743531
1697.22	0.668376
1698.74	0.483393
1700.27	0.279954
1701.79	0.641621
1703.31	1.05687
1704.83	-0.167939
1706.35	-0.117593
1707.87	0.0960131
1709.39	0.363655
1710.91	0.340571
1712.43	0.335835
1713.95	0.150087
1715.47	-0.379233
1716.99	-0.00339508
1718.51	-0.0439653
1720.03	-0.138704
1721.55	0.09163
1723.07	0.322154
1724.58	-0.275411
1726.1	-0.0967541
1727.62	0.0289974
1729.13	-0.114336
1730.65	-0.00319481
1732.17	0.391494
1733.68	0.279435
1735.2	0.649837
1736.72	0.020505
1738.23	0.234264
1739.74	0.316351
1741.26	0.365308
1742.77	0.208542
1744.29	0.00761414
1745.8	-0.0970039
1747.32	0.110307
1748.83	-0.194667
1750.34	0.229685
1751.85	0.0682955
1753.37	-0.31223
1754.88	0.0994368
1756.39	0.0897932
1757.9	0.208224
1759.41	0.228876
1760.92	-0.340387
1762.44	-0.347754
1763.95	-0.00330448
1765.46	0.406766
1766.96	-0.179893
1768.47	0.416781
1769.98	0.268914
1771.49	-0.216953
1773	-0.0886135
1774.51	0.104716
1776.02	0.266275
1777.53	0.31695
1779.03	0.0529976
1780.54	0.313844
1782.05	0.266737
1783.55	-0.00779915
1785.06	0.256569
1786.57	-0.047842
1788.07	0.235787
1789.58	0.292986
1791.08	-0.029767
1792.59	0.23842
1794.09	0.0709934
1795.6	-0.00859833
1797.1	0.116333
1798.61	0.0373554
1800.11	-0.0353022
1801.61	-0.0284977
1803.12	0.328367
1804.62	-0.069664
1806.12	-0.00258255
1807.62	-0.117898
1809.12	0.167375
1810.63	-0.101947
1812.13	0.134234
1813.63	-0.158655
1815.13	0.153629
1816.63	0.27042
1818.13	0.173233
1819.63	0.308673
1821.13	-0.14518
1822.63	-0.0653219
1824.13	0.241404
1825.63	0.013402
1827.13	-0.0563221
1828.62	0.203489
1830.12	-0.00120258
1831.62	0.103877
1833.12	-0.0182266
1834.61	-0.0559864
1836.11	0.0175047
1837.61	-0.176287
1839.1	-0.109284
1840.6	0.128791
1842.09	-0.0739231
1843.59	0.485607
1845.09	0.439362
1846.58	-0.00869942
1848.08	0.285162
1849.57	0.115652
1851.06	0.25128
1852.56	0.218554
1854.05	-0.0052042
1855.54	0.201131
1857.04	-0.0193939
1858.53	-0.173452
1860.02	-0.183476
1861.51	0.0622759
1863.01	0.444897
1864.5	0.0489454
1865.99	0.416112
1867.48	0.169165
1868.97	0.0207806
1870.46	0.486589
1871.95	0.155979
1873.44	0.209562
1874.93	0.0487385
1876.42	0.0688581
1877.91	-0.254653
1879.4	0.276364
1880.89	0.0606375
1882.37	0.0456295
1882.46	0.0437288
1883.95	-0.200738
1885.45	0.181571
1886.94	0.109807
1888.43	0.159446
1889.93	0.243975
1891.42	0.155465
1892.91	0.34677
1894.41	0.0182867
1895.9	0.212951
1897.39	0.28681
1898.88	-0.0568466
1900.37	0.0507689
1901.86	-0.0345364
1903.36	0.0349894
1904.85	-0.0360365
1906.34	-0.125172
1907.83	0.0809393
1909.32	-0.337453
1910.81	0.112935
1912.29	0.217006
1913.78	0.356298
1915.27	0.30491
1916.76	-0.284225
1918.25	0.0623627
1919.74	0.0271072
1921.23	0.199613
1922.71	-0.233668
1924.2	0.113139
1925.69	0.28785
1927.17	0.0827684
1928.66	-0.364091
1930.15	0.366464
1931.63	0.161232
1933.12	0.127765
1934.6	0.00603199
1936.09	0.0211697
1937.57	-0.137802
1939.06	-0.0205832
1940.54	0.321211
1942.02	0.525361
1943.51	-0.218381
1944.99	0.0394678
1946.47	-0.219632
1947.96	0.434618
1949.44	0.036829
1950.92	-0.034421
1952.4	0.168825
1953.88	-0.230629
1955.37	0.0233488
1956.85	0.00257683
1958.33	-0.274961
1959.81	0.289061
1961.29	0.218674
1962.77	0.0457182
1964.25	0.232538
1965.73	-0.197798
1967.21	0.484173
1968.69	0.360733
1970.16	0.117204
1971.64	0.300766
1973.12	0.108485
1974.6	0.0530176
1976.08	-0.036293
1977.55	-0.278608
1979.03	0.432706
1980.51	0.19047
1981.98	0.441355
1983.46	0.181998
1984.94	-0.145207
1986.41	0.104503
1987.89	-0.459679
1989.36	-0.142125
1990.84	-0.213639
1992.31	-0.0981464
1993.79	-0.100159
1995.26	0.16901
1996.73	-0.22043
1998.21	0.42057
1999.68	0.36853
2001.15	0.332804
2002.63	0.313472
2004.1	0.0579824
2005.57	0.308556
2007.04	0.121691
2008.51	0.0537376
2009.99	0.306532
2011.46	0.155781
2012.93	0.257609
2014.4	0.375838
2015.87	0.325016
2017.34	0.20605
2018.81	0.086359
2020.28	0.251877
2021.75	0.232328
2023.21	0.196312
2024.68	0.0436258
2026.15	0.110226
2027.62	0.295582
2029.09	0.146939
2030.56	-0.01721
2032.02	0.373274
2033.49	0.378419
2034.96	0.299602
2036.42	-0.0652084
2037.89	0.3422
2039.36	-0.376637
2040.82	-0.238544
2042.29	0.202605
2043.75	-0.112176
2045.22	0.263548
2046.68	0.253161
2048.14	0.394682
2049.61	0.30011
2051.07	0.103315
2052.54	0.225347
2054	0.0252151
2055.46	0.666558
2056.93	0.261011
2058.39	0.0908461
2059.85	0.0385342
2061.31	0.272866
2062.77	0.625653
2064.23	0.491225
2065.7	0.223205
2067.16	0.208461
2068.62	0.211131
2070.08	0.567613
2071.54	0.335018
2073	0.22009
2074.46	0.0543613
2075.92	0.0903721
2077.38	0.227073
2078.83	0.0434256
2080.29	0.532906
2081.75	0.718674
2083.21	0.533373
2084.67	0.381073
2086.12	0.24496
2087.58	0.377373
2089.04	0.677299
2090.49	0.422388
2091.95	0.100505
2093.41	0.265494
2094.86	0.12819
2096.32	0.292259
2097.77	0.0367489
2099.23	0.634549
2100.68	0.394924
2102.14	0.322954
2103.59	0.0347805
2105.05	0.382367
2106.5	0.213815
2107.95	0.430021
2109.41	0.37969
2110.86	0.228873
2112.31	0.510161
2113.76	0.523029
2115.21	0.384503
2116.67	0.428164
2118.12	0.804221
2119.57	0.351052
2121.02	0.497518
2122.47	0.828203
2123.92	0.530103
2125.37	0.348814
2126.82	0.565257
2128.27	0.0513182
2129.72	0.613479
2131.17	0.925438
2132.62	0.905158
2134.07	0.50433
2135.51	0.53457
2136.96	0.797572
2138.41	1.07879
2139.86	0.585146
2141.31	1.11786
2142.75	0.792237
2144.2	1.06257
2145.65	1.28365
2147.09	0.693328
2148.54	0.896957
2149.98	0.768517
2151.43	1.13611
2152.87	0.790276
2154.32	1.0898
2155.76	0.825505
2157.21	1.0417
2158.65	1.25854
2160.1	1.12882
2161.54	1.46479
2162.98	1.04028
2164.43	1.06477
2165.87	1.07356
2167.31	1.18201
2168.75	0.973718
2170.2	1.31231
2171.64	1.26637
2173.08	0.869076
2174.52	1.13578
2175.96	1.11905
2177.4	1.25213
2178.84	1.55217
2180.28	1.37105
2181.72	1.2407
2183.16	1.07767
2184.6	1.24751
2186.04	1.75022
2187.48	1.27144
2188.92	1.17528
2190.36	1.39533
2191.79	0.766125
2193.23	1.1517
2194.67	0.96992
2196.11	1.26912
2197.54	0.817367
2198.98	0.913098
2200.42	1.25686
2201.85	1.16823
2203.29	0.615794
2204.72	0.628863
2206.16	1.1567
2207.59	0.922565
2209.03	0.986547
2210.46	0.437315
2211.9	0.962918
2213.33	1.18952
2214.77	1.06876
2216.2	1.06428
2217.63	0.631978
2219.07	0.613565
2220.5	0.727911
2221.93	0.364389
2223.36	0.231127
2224.8	0.277845
2226.23	0.684919
2227.66	0.97462
2229.09	0.539776
2230.52	0.908948
2231.95	0.0807762
2233.39	0.220459
2234.81	0.295119
2236.25	0.746479
2237.67	0.64359
2239.1	0.575308
2240.53	0.443789
2241.96	0.542412
2243.39	0.51178
2244.82	0.236866
2246.25	0.401759
2247.68	0.206362
2249.1	0.481822
2250.53	0.380127
2251.96	0.439631
2253.38	0.481904
2254.81	0.508072
2256.24	0.438142
2257.66	0.305626
2259.09	0.565262
2260.51	0.243629
2261.94	0.605896
2263.36	0.239278
2264.79	0.246354
2266.21	0.562055
2267.64	0.0964613
2269.06	0.39448
2270.49	0.317499
2271.91	0.516777
2273.33	0.325082
2274.76	0.296267
2276.18	0.00692844
2277.6	0.320629
2279.02	-0.262067
2280.44	0.492015
2281.87	0.447141
2283.29	0.402143
2284.71	0.536656
2286.13	0.247046
2287.55	-0.0097332
2288.97	0.0930529
2290.39	0.000222206
2291.81	0.577795
2293.23	-0.135983
2294.65	0.147631
2296.07	0.136779
2297.49	0.109487
2298.91	0.442615
2300.33	0.448413
2301.74	0.257718
2303.16	0.231168
2304.58	0.188324
2306	0.424561
2307.41	0.529257
2308.83	0.370508
2310.25	0.539936
2311.66	0.116907
2313.08	0.137814
2314.5	0.274305
2315.91	0.790317
2317.33	0.500332
2318.74	0.325879
2320.16	-0.145838
2321.57	0.00802422
2322.98	0.490339
2324.4	0.557884
2325.81	0.507668
2327.23	0.57123
2328.64	0.980011
2330.05	0.41665
2331.46	0.249831
2332.88	0.215871
2334.29	0.232124
2335.7	0.0676737
2337.11	-0.0148592
2338.52	-0.459918
2339.94	0.671883
2341.35	0.0442839
2342.76	-0.0414515
2344.17	-0.0451221
2345.58	0.180897
2346.99	0.341386
2348.4	-0.284019
2349.81	0.530612
2351.22	-0.242288
2352.62	0.177452
2354.03	-0.122443
2355.44	0.11552
2356.85	-0.119567
2358.26	0.0036478
2359.67	0.272926
2361.07	0.395648
2362.48	0.161394
2363.89	-0.104853
2365.29	0.260383
2366.7	0.269446
2368.11	-0.334496
2369.51	-0.178208
2370.92	0.0435028
2372.32	0.0567369
2373.73	0.312474
2375.13	-0.0593777
2376.54	0.292793
2377.94	0.257668
2379.35	-0.164531
2380.75	0.0706263
2382.15	0.255844
2383.56	0.50379
2384.96	0.222972
2386.36	0.0949821
2387.76	-0.0318966
2389.17	-0.0697165
2390.57	-0.0585098
2391.97	0.00153828
2393.37	-0.0170927
2394.77	0.140028
2396.17	0.0910177
2397.58	-0.00503635
2398.98	0.0266199
2400.38	0.265253
2401.78	0.28174
2403.18	0.377684
2404.58	0.34622
2405.97	-0.0193872
2407.37	0.122133
2408.77	0.0407295
2410.17	0.371203
2411.57	-0.0589638
2412.97	0.19298
2414.37	0.160967
2415.76	0.27284
2417.16	0.101041
2418.56	0.357614
2419.95	0.218731
2421.35	0.158899
2422.75	0.415568
2424.14	0.307607
2425.54	0.342272
2426.93	0.234783
2428.33	-0.36339
2429.72	0.38695
2431.12	0.519823
2432.51	0.0656357
2433.91	0.00760651
2435.3	0.170919
2436.7	0.126347
2438.09	-0.221555
2439.48	-0.300532
2440.88	0.270768
2442.27	0.206172
2443.66	0.363489
2445.05	0.330159
2446.44	-0.163082
2447.84	-0.402454
2449.23	-0.0238562
2450.62	-0.231234
2452.01	0.0368557
2453.4	0.0681438
2454.79	0.131866
2456.18	0.227883
2457.57	0.197669
2458.96	0.404581
2460.35	-0.164006
2461.74	0.136477
2463.13	0.420223
2464.52	0.308191
2465.91	-0.040947
2467.29	0.0205469
2468.68	0.20816
2470.07	-0.046175
2471.46	0.187975
2472.85	0.389709
2474.23	0.133897
2475.62	0.0194006
2477.01	0.187635
2478.39	0.214188
2479.78	0.0525351
2481.16	-0.296864
2482.55	-0.0347176
2483.93	-0.0238924
2485.32	0.189429
2486.7	0.448112
2488.09	0.439832
2489.47	0.0255919
2490.86	0.203718
2492.24	0.335224
2493.62	-0.0449839
2495.01	0.11981
2496.39	0.0685053
2497.77	0.0336018
2499.15	-0.1248
2500.54	-0.283263
2501.92	0.0833044
2503.3	0.247586
2504.68	0.133013
2506.06	-0.043561
2507.45	0.287922
2508.83	-0.0115757
2510.21	-0.233246
2511.59	0.0524282
2512.97	-0.16756
2514.35	0.0578136
2515.73	0.115306
2517.11	0.188769
2518.48	-0.303007
2519.86	-0.457905
2521.24	0.349342
2522.62	0.117108
2524	-0.054595
2525.38	0.352427
2526.75	0.0732431
2528.13	-0.266005
2529.51	0.369404
2530.89	0.382473
2532.26	-0.0434599
2533.64	-0.164066
2535.02	0.308553
2536.39	0.158262
2537.77	0.235247
2539.14	0.0834856
2540.52	-0.12972
2541.89	0.0818253
2543.27	-0.0251589
2544.64	0.0658884
2546.01	0.15806
2547.39	0.0845537
2548.76	0.375966
2550.14	0.0151281
2551.51	0.230446
2552.88	-0.055892
2554.25	0.00584698
2555.63	0.0211973
2557	0.278684
2558.37	0.0506554
2559.74	0.0807009
2561.11	0.323426
2562.49	0.41516
2563.86	-0.477537
2565.23	-0.00593853
2566.6	-0.0341749
2567.97	0.362022
2569.34	-0.0298324
2570.71	-0.012495
2572.08	0.29288
2573.45	0.12846
2574.82	0.115709
2576.18	0.193966
2577.55	0.150875
2578.92	0.228879
2580.29	0.0336218
2581.66	0.247377
2583.02	0.0665531
2584.39	0.310006
2585.76	0.159243
2587.13	0.220812
2588.49	-0.141794
2589.86	-0.155676
2591.22	0.0121918
2592.59	0.361431
2593.96	0.0735431
2595.32	-0.139428
2596.69	0.161454
2598.05	0.0981827
2599.42	-0.0561123
2600.78	0.0920682
2602.14	0.210346
2603.51	-0.5011
2604.87	-0.109879
2606.23	-0.0807672
2607.6	-0.0067091
2608.96	-0.0239129
2610.32	0.0331001
2611.69	-0.0918221
2613.05	0.338733
2614.41	-0.118593
2615.77	0.0700154
2617.13	0.0785522
2618.49	-0.286789
2619.86	-0.0671554
2621.22	-0.0116591
2622.58	0.477606
2623.94	-0.138557
2625.3	0.156353
2626.66	-0.175688
2628.02	-0.120118
2629.37	-0.00534868
2630.73	-0.143887
2632.09	0.0150185
2633.45	0.0250888
2634.81	0.0796475
2636.17	0.0451131
2637.53	0.0995378
2638.88	-0.00894833
2640.24	0.163993
2641.6	0.20386
2642.96	0.0666709
2644.31	0.0331936
2645.67	-0.41337
2647.02	0.246018
2648.38	0.0346618
2649.74	0.0142188
2651.09	0.022563
2652.45	0.0158944
2653.8	0.00942755
2655.16	0.120926
2656.51	0.0282288
2657.86	0.0392275
2659.22	0.0510888
2660.57	0.224198
2661.93	0.323958
2663.28	0.0725021
2664.63	-0.135613
2665.98	0.137189
2667.34	-0.0281177
2668.69	-0.193255
2670.04	-0.154177
2671.39	0.437843
2672.75	0.0997362
2674.09	0.256405
2675.45	0.12317
2676.8	0.324314
2678.15	0.192361
2679.5	0.24979
2680.85	0.0907321
2682.2	-0.313643
2683.55	0.26904
2684.9	0.301757
2686.25	0.218909
2687.6	0.121406
2688.94	0.719594
2690.29	0.0386753
2691.64	0.227036
2692.99	-0.123012
2694.34	-0.0531363
2695.68	0.306319
2697.03	-0.0872836
2698.38	0.114335
2699.73	0.114747
2701.07	0.247158
2702.42	0.337633
2703.76	0.182891
2705.11	0.0865326
2706.45	0.396271
2707.8	0.154651
2709.15	-0.0585189
2710.49	0.51197
2711.83	0.574159
2713.18	0.389225
2714.52	0.145972
2715.87	-0.0102367
2717.21	0.327842
2718.55	0.243982
2719.9	0.159743
2721.24	0.133264
2722.58	-0.155659
2723.93	0.501056
2725.27	0.327711
2726.61	0.226785
2727.95	0.329326
2729.29	0.184227
2730.63	0.169981
2731.98	0.199358
2733.32	0.359732
2734.66	0.287521
2736	0.477328
2737.34	0.0127883
2738.68	-0.08813
2740.02	0.290643
2741.36	0.232695
2742.7	0.435828
2744.03	0.0568595
2745.37	0.0988579
2746.71	0.372765
2748.05	0.399487
2749.39	0.281138
2750.72	0.250103
2752.06	0.39332
2753.4	0.290295
2754.74	0.144046
2756.07	0.0559649
2757.41	-0.00294971
2758.75	-0.0760689
2760.08	0.328821
2761.42	0.285442
2762.76	-0.0179048
2764.09	-0.205145
2765.42	0.0561686
2766.76	0.548524
2768.09	0.041811
2769.43	0.286067
2770.76	0.210772
2772.1	0.134258
2773.43	0.100153
2774.76	0.0655694
2776.1	0.0742021
2777.43	0.054378
2778.76	0.0207329
2780.1	0.0163798
2781.43	0.313934
2782.76	0.39592
2784.09	0.176571
2785.42	0.215475
2786.75	0.154233
2788.09	0.222377
2789.42	0.00503874
2790.75	-0.0825381
2792.08	0.245338
2793.41	0.201844
2794.74	0.0869741
2796.07	-0.228175
2797.4	-0.257953
2798.73	0.140136
2800.06	0.194957
2801.39	0.163878
2802.71	0.08988
2804.04	-0.468809
2805.37	0.126406
2806.7	-0.0767474
2808.03	0.217605
2809.35	0.113159
2810.68	-0.104731
2812.01	-0.293382
2813.33	-0.0411034
2814.66	0.240636
2815.99	0.183414
2817.31	-0.198687
2818.64	0.312741
2819.96	-0.167943
2821.29	-0.280496
2822.61	-0.0960269
2823.94	0.328662
2825.26	0.271213
2826.59	0.0438924
2827.91	0.270215
2829.23	0.270501
2830.56	0.483582
2831.88	0.640247
2833.21	0.38637
2834.53	0.316235
2835.85	0.641918
2837.17	0.457603
2838.5	0.654889
2839.82	1.07813
2841.14	1.00641
2842.46	1.2461
2843.78	1.1613
2845.1	1.57187
2846.42	1.67215
2847.74	1.91417
2849.06	1.85944
2850.38	1.73374
2851.71	1.89024
2853.03	1.42436
2854.34	2.03215
2855.66	2.08854
2856.98	1.49507
2858.3	2.24367
2859.62	1.73513
2860.94	2.17265
2862.26	2.05912
2863.57	2.5804
2864.89	2.18397
2866.21	2.56357
2867.53	2.57655
2868.84	2.81557
2870.16	2.42055
2871.48	2.80109
2872.79	2.8712
2874.11	3.46188
2875.42	2.83977
2876.74	3.07587
2878.05	3.60638
2879.37	3.02495
2880.68	3.11915
2882	3.57936
2883.31	3.05718
2884.63	3.58938
2885.94	3.50431
2887.26	3.34921
2888.57	3.0394
2889.88	3.24801
2891.19	3.20322
2892.51	3.43814
2893.82	3.33644
2895.13	3.3052
2896.44	3.58272
2897.76	3.52529
2899.07	3.93065
2900.38	3.16163
2901.69	3.69416
2903	3.83518
2904.31	3.94837
2905.62	3.866
2906.93	3.86812
2908.24	3.63322
2909.55	3.97274
2910.86	3.94912
2912.17	4.68138
2913.48	4.54516
2914.79	4.5475
2916.1	4.81407
2917.41	4.51908
2918.71	5.38446
2920.02	5.01825
2921.33	5.24018
2922.64	5.54715
2923.94	5.38026
2925.25	5.67587
2926.56	5.35712
2927.86	5.49973
2929.17	5.71188
2930.48	5.90946
2931.78	5.7011
2933.09	5.71614
2934.39	5.70317
2935.7	5.7602
2937	5.99906
2938.31	5.72104
2939.61	4.85644
2940.92	5.22202
2942.22	5.09938
2943.53	4.54463
2944.83	4.52223
2946.13	4.3751
2947.43	4.41036
2948.74	3.87159
2950.04	4.17144
2951.34	4.11966
2952.64	3.89797
2953.95	4.24896
2955.25	3.84349
2956.55	3.45291
2957.85	3.56811
2959.15	3.48987
2960.45	3.31614
2961.75	3.39648
2963.05	3.07091
2964.35	3.5306
2965.65	3.31524
2966.95	3.32292
2968.25	3.27304
2969.55	3.3911
2970.85	3.03084
2972.15	2.90984
2973.45	2.87354
2974.75	3.0343
2976.05	2.82847
2977.34	2.63544
2978.64	2.34221
2979.94	2.45563
2981.24	2.21589
2982.53	2.22893
2983.83	2.04539
2985.13	1.75053
2986.42	2.10358
2987.72	2.12071
2989.01	1.77347
2990.31	2.03076
2991.61	1.65519
2992.9	1.7143
2994.19	1.6457
2995.49	1.4496
2996.78	1.35119
2998.08	1.05615
2999.37	1.30863
3000.67	1.37909
3001.96	1.05757
3003.25	0.848754
3004.55	1.06041
3005.84	0.571485
3007.13	0.642288
3008.42	1.02005
3009.72	0.963042
3011.01	0.570005
3012.3	0.582006
3013.59	0.175414
3014.88	0.313456
3016.17	0.730523
3017.46	0.465553
3018.76	0.270939
3020.05	0.257407
3021.34	0.465873
3022.63	0.534366
3023.92	0.310365
3025.21	0.335569
3026.49	0.0973005
3027.78	0.358013
3029.07	0.494821
3030.36	0.784809
3031.65	0.316348
3032.94	0.222019
3034.23	0.252274
3035.51	0.792452
3036.8	0.255394
3038.09	0.392444
3039.38	0.252186
3040.66	-0.0267191
3041.95	-0.099885
3043.23	0.512367
3044.52	0.425581
3045.81	0.38154
3047.09	0.476218
3048.38	0.572984
3049.66	0.57618
3050.95	0.28071
3052.23	0.559183
3053.52	0.646625
3054.8	0.501496
3056.09	0.450879
3057.37	0.140213
3058.65	0.251441
3059.94	0.321381
3061.22	0.663681
3062.5	0.408038
3063.79	0.711339
3065.07	0.567347
3066.35	0.16641
3067.63	0.922065
3068.92	0.345631
3070.2	0.204001
3071.48	0.156765
3072.76	0.393969
3074.04	0.0860715
3075.32	0.253074
3076.6	0.419532
3077.88	0.287518
3079.16	0.156574
3080.44	-0.0272074
3081.72	-0.155297
3083	0.450303
3084.28	0.025507
3085.56	0.442038
3086.84	0.451051
3088.12	0.174305
3089.4	0.304056
3090.67	-0.150207
3091.95	0.331629
3093.23	0.43357
3094.51	0.0339594
3095.78	0.000805855
3097.06	0.198175
3098.34	-0.377164
3099.61	0.0909643
3100.89	-0.281139
3102.17	0.200149
3103.44	0.166906
3104.72	-0.136599
3105.99	-0.00630522
3107.27	0.233016
3108.54	-0.0139346
3109.82	-0.138186
3111.09	-0.085628
3112.37	0.197902
3113.64	0.18392
3114.92	0.183451
3116.19	0.087604
3117.46	0.167205
3118.74	0.327177
3120.01	0.282606
3121.28	0.0202017
3122.55	0.109736
3123.83	0.185409
3125.1	0.58607
3126.37	0.0393686
3127.64	0.142971
3128.91	0.36867
3130.19	0.121299
3131.46	0.401296
3132.73	0.00533199
3134	0.163079
3135.27	0.27966
3136.54	0.0177588
3137.81	-0.00162697
3139.08	0.153758
3140.35	0.254832
3141.62	0.248134
3142.89	0.147608
3144.16	0.128188
3145.42	0.203207
3146.69	0.506591
3147.96	0.568999
3149.23	0.417605
