200.523	0.988105
202.339	0.980688
204.154	0.974624
205.967	0.288689
207.781	0.916683
209.596	0.912271
211.409	1.10164
213.222	0.659022
215.034	0.167983
216.848	0.525828
218.659	0.4476
220.47	0.684908
222.281	0.390826
224.091	0.363996
225.903	0.362092
227.713	0.553802
229.522	0.0692787
231.331	0.35739
233.14	0.162846
234.948	0.668318
236.756	0.716738
238.566	0.188672
240.373	0.48236
242.18	0.561218
243.986	0.593225
245.792	0.673755
247.598	0.511942
249.403	-0.0139818
251.208	0.713504
253.013	0.400905
254.818	0.425209
256.624	0.594097
258.427	0.257687
260.231	-0.245582
262.034	0.746541
263.836	0.367051
265.638	-0.252412
267.44	-0.293223
269.242	0.389127
271.043	0.203372
272.844	-0.0313034
274.645	-0.122163
276.445	-0.0211601
278.245	0.656926
280.044	-0.0157194
281.843	-0.376024
283.642	0.513535
285.44	-0.209095
287.238	-0.186671
289.036	-0.164094
290.833	-0.140799
292.63	0.290524
294.425	-0.0427589
296.221	0.534148
298.017	0.01227
299.813	-0.102528
301.608	0.666497
303.403	0.169077
305.198	-0.376439
306.992	0.0559702
308.786	0.559418
310.579	0.229098
312.371	0.281249
314.163	0.358685
315.956	0.461582
317.748	0.542321
319.54	-0.0663528
321.331	-0.388444
323.122	0.386873
324.911	0.543165
326.701	0.246245
328.491	0.641801
330.281	0.344141
332.071	0.404125
333.857	0.271486
335.646	-0.26958
337.434	0.0491514
339.222	0.605521
341.008	0.586461
342.795	0.447373
344.582	0.59523
346.369	0.0508785
348.153	0.00897694
349.939	0.0153599
351.724	0.212815
353.51	-0.115113
355.292	0.0573683
357.077	0.0380526
358.861	-0.291952
360.643	0.163525
362.426	-0.191312
364.21	0.286101
365.99	0.0733166
367.773	-0.0446715
369.555	0.121513
371.335	0.499931
373.116	0.0253363
374.897	-0.0466447
376.676	0.259355
378.456	-0.071424
380.236	-0.0945001
382.014	0.260049
383.793	0.474066
385.57	-0.274826
387.349	-0.0115852
389.127	0.76922
390.903	0.0944214
392.681	-0.438551
394.456	0.46157
396.233	0.117411
398.007	-0.250127
399.784	-0.288936
401.56	0.165245
403.333	0.43108
405.108	-0.0551858
406.881	0.350471
408.656	0.520806
410.428	-0.0133109
412.202	-0.195083
413.973	-0.0244417
415.746	0.264111
417.517	0.600293
419.29	0.303524
421.06	0.546753
422.831	0.296954
424.601	0.257864
426.37	0.0537567
428.141	-0.362205
429.909	0.39522
431.679	-0.513848
433.447	0.00910759
435.216	-0.0309033
436.983	0.187269
438.75	0.616135
440.519	-0.340665
442.285	0.0385766
444.052	0.0172992
445.818	0.556833
447.583	-0.0522461
449.349	-0.122746
451.114	0.157437
452.878	0.227359
454.643	0.134116
456.407	0.320713
458.169	0.111051
459.934	0.413746
461.696	0.0887666
463.458	0.090827
465.222	-0.230491
466.983	0.101035
468.744	-0.0533237
470.507	0.026195
472.267	-0.0333571
474.027	0.069437
475.787	0.403884
477.548	0.294191
479.307	0.019979
481.065	0.304087
482.823	0.262243
484.583	0.337829
486.341	-0.283921
488.098	0.400729
489.855	0.201497
491.612	-0.160615
493.37	0.0145621
495.126	0.0966625
496.881	0.529997
498.636	-0.0201974
500.391	0.460153
502.148	0.54181
503.902	0.270528
505.656	0.39754
507.409	0.28844
509.162	0.57796
510.915	0.372223
512.668	0.424023
514.42	0.333457
516.174	0.288897
517.925	1.09002
519.676	0.126686
521.427	-0.695378
523.178	0.103398
524.928	-0.108061
526.678	0.337524
528.427	0.407529
530.176	0.547682
531.925	0.523408
533.673	0.311263
535.422	0.729987
537.169	0.0952992
538.917	-0.0723629
540.664	0.528985
542.411	0.289828
544.157	-0.0188332
545.903	-0.280292
547.649	0.572956
549.395	0.219028
551.14	0.190243
552.884	0.231053
554.629	0.110191
556.373	0.38218
558.117	0.331109
559.86	-0.0880823
561.603	0.73689
563.346	0.571972
565.089	0.614639
566.831	-0.21508
568.573	0.196463
570.314	-0.263583
572.053	0.241226
573.794	0.403038
575.534	0.268015
577.274	0.226022
579.014	0.00135612
580.754	-0.291867
582.493	0.172997
584.23	0.545907
585.968	0.527318
587.706	0.0706148
589.444	0.0729604
591.181	0.120611
592.919	0.00680399
594.653	0.0309162
596.39	0.147075
598.126	0.0101161
599.862	-0.242155
601.595	0.126075
603.33	-0.403714
605.065	0.192231
606.8	0.143278
608.532	0.369326
610.266	0.709743
611.999	0.453793
613.732	0.290421
615.463	0.242286
617.196	0.537949
618.928	0.878754
620.66	0.325641
622.389	0.000935555
624.12	0.201769
625.851	0.402319
627.58	0.306672
629.31	0.463655
631.04	0.531133
632.767	0.0981746
634.497	0.464692
636.223	0.511452
637.952	0.328554
639.68	0.873857
641.406	0.481133
643.134	0.109826
644.861	0.444019
646.586	0.550399
648.312	0.862676
650.037	0.881817
651.762	0.404208
653.486	0.247633
655.211	-0.156865
656.936	0.122662
658.659	0.403413
660.383	0.433383
662.105	0.736205
663.829	0.534837
665.55	0.994351
667.273	0.537856
668.994	0.583767
670.716	0.813302
672.436	0.609691
674.158	0.453547
675.877	1.03226
677.598	1.24595
679.317	0.817018
681.035	0.80024
682.755	0.781975
684.473	0.85404
686.192	1.38509
687.909	0.947718
689.628	1.13124
691.344	1.3372
693.06	0.897638
694.778	0.595691
696.493	0.661482
698.211	1.16365
699.925	0.421863
701.64	0.990746
703.356	0.477978
705.07	1.13663
706.783	1.33489
708.498	1.30315
710.211	1.08783
711.924	1.28462
713.638	0.748866
715.35	1.31077
717.061	0.4561
718.774	0.99443
720.485	1.05334
722.196	0.907313
723.906	1.67162
725.618	0.956894
727.328	1.33335
729.037	0.823796
730.746	1.31228
732.456	0.961535
734.165	1.04118
735.873	0.736477
737.58	1.04228
739.289	1.03219
740.997	1.1356
742.703	1.12717
744.41	1.41249
746.116	1.51865
747.823	1.22092
749.529	1.30678
751.234	1.41614
752.938	1.48156
754.643	1.36813
756.347	1.36836
758.051	1.64002
759.756	0.606406
761.459	1.24066
763.162	1.24445
764.865	1.38348
766.567	1.13764
768.269	1.45521
769.97	1.70339
771.671	1.79166
773.372	1.72045
775.073	1.60365
776.773	2.02993
778.473	1.48502
780.174	1.89104
781.874	2.29819
783.573	1.73252
785.271	1.95786
786.97	2.02277
788.668	1.60973
790.365	2.64191
792.063	1.79444
793.76	1.60191
795.456	1.61253
797.153	1.75909
798.847	1.29871
800.543	1.69559
802.238	1.84573
803.933	2.1087
805.628	2.2589
807.322	1.95886
809.017	1.63567
810.71	1.73828
812.404	1.5709
814.097	1.8514
815.79	1.88496
817.483	1.22505
819.173	1.66134
820.865	1.73974
822.556	1.92987
824.248	1.11705
825.939	1.77702
827.629	1.45804
829.318	2.34398
831.008	2.51977
832.697	1.82919
834.387	1.60784
836.076	1.43161
837.765	1.58975
839.451	1.88108
841.139	1.81393
842.827	2.03608
844.514	1.6769
846.2	1.34048
847.886	1.54188
849.573	1.8573
851.259	1.48104
852.943	1.7108
854.629	2.21104
856.314	1.36436
857.997	1.57185
859.682	1.05825
861.366	1.64585
863.05	0.881064
864.732	1.15134
866.415	1.78177
868.098	1.48747
869.779	1.4633
871.461	1.55164
873.141	0.963009
874.823	1.27669
876.505	1.34221
878.184	1.18204
879.865	1.11202
881.545	1.04168
883.223	0.677272
884.903	0.740949
886.581	0.352174
888.26	1.22589
889.937	0.992665
891.616	1.29939
893.294	0.861483
894.97	1.68338
896.648	1.24406
898.323	1.29883
900	1.21811
901.675	0.912913
903.351	1.01076
905.026	0.951782
906.701	0.491364
908.375	1.16947
910.05	0.666465
911.723	1.144
913.398	1.55442
915.07	1.6091
916.742	1.39751
918.415	1.18624
920.087	0.709765
921.76	1.05304
923.43	0.910358
925.103	1.21091
926.773	0.761906
928.443	1.17532
930.114	1.28053
931.783	1.09942
933.454	1.24945
935.123	1.22311
936.791	0.976577
938.461	1.0395
940.128	0.706363
941.796	0.837314
943.464	0.483403
945.131	0.349896
946.797	0.855647
948.465	0.631583
950.131	1.22268
951.797	0.709408
953.462	1.05665
955.128	0.390645
956.793	1.04987
958.457	0.27803
960.121	1.22917
961.786	0.371452
963.45	0.484993
965.113	0.77433
966.775	0.353856
968.44	0.528566
970.102	0.54684
971.763	0.520231
973.425	1.00263
975.086	0.667874
976.748	0.732567
978.409	-0.0200901
980.069	0.698847
981.729	1.41787
983.388	1.17303
985.048	1.10367
986.708	0.191623
988.367	0.208028
990.025	0.466742
991.683	0.437401
993.341	0.562573
994.998	0.290337
996.655	0.658263
998.312	0.562722
999.969	0.533209
1001.62	1.18608
1003.28	0.319307
1004.94	0.618983
1006.59	0.610483
1008.25	0.338591
1009.9	0.572018
1011.56	1.06861
1013.21	0.819803
1014.86	0.615403
1016.52	-0.245184
1018.17	0.42708
1019.82	0.443211
1021.48	0.154032
1023.13	0.106261
1024.78	0.474434
1026.43	0.624418
1028.08	0.446625
1029.73	0.661609
1031.38	0.613459
1033.03	0.454954
1034.68	0.666238
1036.33	0.527358
1037.98	0.40985
1039.63	0.61897
1041.28	1.11104
1042.93	0.299322
1044.57	0.532673
1046.22	0.00712585
1047.87	0.395289
1049.52	0.198267
1051.16	0.545155
1052.81	0.479999
1054.45	-0.41065
1056.1	0.0241189
1057.75	0.306687
1059.39	0.654209
1061.04	0.783863
1062.68	0.521504
1064.32	0.0410137
1065.97	0.494661
1067.61	0.469136
1069.25	0.399434
1070.9	0.177285
1072.54	0.367656
1074.18	-0.157769
1075.82	0.402461
1077.47	0.442943
1079.11	0.115721
1080.75	0.00592422
1082.39	0.459895
1084.03	0.978157
1085.67	0.584497
1087.31	0.211191
1088.95	0.551272
1090.59	0.0890026
1092.22	-0.113945
1093.86	0.503721
1095.5	0.23583
1097.14	0.745039
1098.78	0.220632
1100.41	-0.108008
1102.05	0.0384498
1103.69	0.250651
1105.32	0.399222
1106.96	0.311601
1108.59	0.374287
1110.23	0.672601
1111.86	0.174282
1113.5	-0.17444
1115.13	0.678506
1116.77	0.242731
1118.4	0.279278
1120.03	-0.00505304
1121.67	0.782277
1123.3	0.157144
1124.93	0.0253291
1126.56	-0.169928
1128.19	-0.129295
1129.83	0.318078
1131.46	0.252688
1133.09	0.0378852
1134.72	0.165022
1136.35	0.0779185
1137.98	-0.0312977
1139.61	0.221769
1141.24	0.388473
1142.86	0.341253
1144.49	0.0809188
1146.12	0.247721
1147.75	-0.0537066
1149.38	0.0717897
1151	-0.313617
1152.63	0.195536
1154.26	-0.0196614
1155.88	-0.149894
1157.51	0.209203
1159.14	0.376951
1160.76	-0.156444
1162.39	0.161641
1164.01	0.118997
1165.63	0.204298
1167.26	0.395697
1168.88	0.0760036
1170.51	-0.159826
1172.13	-0.0145082
1173.75	-0.019278
1175.38	0.123559
1177	-0.0733685
1178.62	-0.142735
1180.24	0.317676
1181.86	0.0166621
1183.48	-0.0720844
1185.1	-0.393144
1186.72	0.151225
1188.34	-0.0659833
1189.96	0.76957
1191.58	0.212349
1193.2	-0.0292664
1194.82	0.107069
1196.44	-0.0714006
1198.06	0.0444341
1199.68	-0.131476
1201.29	0.342419
1202.91	-0.330713
1204.53	0.417906
1206.14	-0.125925
1207.76	0.311907
1209.38	0.874989
1210.99	0.144167
1212.61	0.767588
1214.22	0.51349
1215.84	0.6952
1217.45	0.521531
1219.07	0.285088
1220.68	0.630284
1222.29	0.53986
1223.91	0.409161
1225.52	0.466193
1227.13	0.6278
1228.74	0.335334
1230.36	0.664345
1231.97	0.766751
1233.58	1.03544
1235.19	0.664429
1236.8	0.893771
1238.41	0.524473
1240.02	0.879288
1241.63	0.800066
1243.24	0.699844
1244.85	0.619662
1246.46	0.766292
1248.07	0.643126
1249.67	0.809055
1251.28	0.560966
1252.89	0.519978
1254.5	0.645033
1256.1	0.584789
1257.71	0.256562
1259.32	1.08788
1260.92	1.15453
1262.53	0.745328
1264.13	1.26804
1265.74	0.112233
1267.34	0.343998
1268.95	0.492229
1270.55	1.09586
1272.15	1.05592
1273.76	0.351732
1275.36	1.05649
1276.97	0.952001
1278.57	0.950497
1280.17	1.30049
1281.77	0.573742
1283.37	0.73728
1284.97	0.880445
1286.58	0.858854
1288.18	1.33415
1289.78	0.942097
1291.38	1.29442
1292.98	1.1094
1294.58	0.841184
1296.18	1.31552
1297.78	1.08632
1299.37	0.835378
1300.97	0.995874
1302.57	1.15513
1304.17	1.12811
1305.77	0.812739
1307.36	0.826206
1308.96	1.35227
1310.55	1.30344
1312.15	1.25503
1313.75	1.0233
1315.34	1.28321
1316.94	0.76763
1318.53	0.742921
1320.13	1.10547
1321.72	1.40557
1323.32	0.706756
1324.91	1.67472
1326.5	1.05582
1328.1	0.985459
1329.69	1.6446
1331.28	1.25195
1332.87	1.28626
1334.47	1.38295
1336.06	1.01677
1337.65	1.25645
1339.24	1.07202
1340.83	0.926743
1342.42	1.54464
1344.01	1.15461
1345.6	0.925222
1347.19	1.2379
1348.78	1.29093
1350.37	1.26586
1351.96	1.24296
1353.54	0.761948
1355.13	0.741987
1356.72	0.9621
1358.31	1.06188
1359.89	1.16082
1361.48	1.23884
1363.07	0.617934
1364.65	0.475941
1366.24	0.932026
1367.82	0.751045
1369.41	0.451763
1370.99	0.830385
1372.58	1.03088
1374.16	0.695031
1375.75	0.359697
1377.33	0.521881
1378.91	0.663777
1380.5	0.645685
1382.08	0.765824
1383.66	1.04395
1385.25	0.943391
1386.83	0.663775
1388.41	1.51643
1389.99	0.681737
1391.57	0.622237
1393.15	1.15852
1394.73	0.802355
1396.31	0.307404
1397.89	0.585257
1399.47	0.406406
1401.05	0.543869
1402.63	0.779715
1404.21	0.599855
1405.78	1.05334
1407.36	0.380521
1408.94	1.17096
1410.52	0.736681
1412.1	0.55932
1413.67	0.875088
1415.25	0.716345
1416.82	0.990936
1418.4	0.71308
1419.98	0.494903
1421.55	1.00631
1423.13	0.49504
1424.7	0.831576
1426.28	1.01161
1427.85	0.955879
1429.42	0.604669
1431	0.0559659
1432.57	0.824994
1434.14	1.00275
1435.71	1.16039
1437.29	0.865917
1438.86	0.906349
1440.43	1.20306
1442	1.0485
1443.57	1.16965
1445.14	1.40904
1446.71	1.37345
1448.28	1.16106
1449.85	1.55832
1451.42	1.56283
1452.99	1.46947
1454.56	1.25835
1456.13	1.71607
1457.7	0.913918
1459.26	1.37013
1460.83	1.15582
1462.4	0.999102
1463.97	1.52945
1465.54	0.702241
1467.1	0.700687
1468.67	0.954647
1470.23	0.875477
1471.8	0.836504
1473.36	0.739555
1474.93	0.643255
1476.49	0.880622
1478.06	0.137791
1479.62	0.747635
1481.19	0.55367
1482.75	0.516467
1484.31	0.518353
1485.88	0.774626
1487.44	0.560125
1489	0.85372
1490.56	0.4803
1492.13	0.320745
1493.69	0.999647
1495.25	1.18791
1496.81	0.459108
1498.37	0.490861
1499.93	0.289773
1501.49	0.749996
1503.05	0.29874
1504.61	0.527132
1506.17	0.561724
1507.73	0.750461
1509.28	0.358442
1510.84	0.00500202
1512.4	0.364792
1513.96	0.376959
1515.52	0.543011
1517.07	1.03547
1518.63	0.683732
1520.19	0.199176
1521.74	0.615096
1523.3	0.915167
1524.85	0.144836
1526.41	-0.0714512
1527.96	0.892622
1529.52	0.655765
1531.07	0.666379
1532.63	0.715315
1534.18	0.670168
1535.73	0.342257
1537.29	0.601503
1538.84	0.785254
1540.39	0.799249
1541.94	1.24655
1543.5	1.26005
1545.05	1.17936
1546.6	0.967173
1548.15	0.792803
1549.7	0.768714
1551.25	0.950791
1552.8	1.03941
1554.35	1.09128
1555.9	1.29364
1557.45	0.470655
1559	0.620187
1560.55	0.528608
1562.1	0.923306
1563.65	0.815207
1565.19	1.24864
1566.74	0.89847
1568.29	1.25725
1569.83	1.09314
1571.38	1.2647
1572.93	1.08135
1574.47	1.36457
1576.02	1.38647
1577.56	1.31522
1579.11	1.82307
1580.66	1.28593
1582.2	1.9072
1583.74	1.42729
1585.29	1.28409
1586.83	1.40293
1588.38	0.848619
1589.92	1.15443
1591.46	0.861106
1593.01	1.22258
1594.55	1.39674
1596.09	0.971486
1597.63	1.63337
1599.17	1.62131
1600.71	1.45976
1602.25	1.03567
1603.79	1.70028
1605.34	1.53829
1606.88	0.867575
1608.41	1.28517
1609.95	1.13706
1611.49	1.30654
1613.03	1.73717
1614.57	1.26536
1616.11	1.33772
1617.65	1.29793
1619.18	1.24043
1620.72	1.25912
1622.26	1.22275
1623.79	0.812631
1625.33	1.39471
1626.87	0.853052
1628.4	1.65766
1629.94	0.796175
1631.48	1.01872
1633.01	1.18467
1634.55	1.48135
1636.08	0.621645
1637.61	0.882393
1639.15	0.901065
1640.68	0.733365
1642.21	0.751593
1643.75	0.806189
1645.28	0.84118
1646.81	0.89401
1648.34	1.39247
1649.88	1.24068
1651.41	1.42391
1652.94	0.699147
1654.47	1.1439
1656	1.12548
1657.53	0.717897
1659.06	1.31014
1660.59	1.10477
1662.12	1.02799
1663.65	0.839503
1665.18	1.16802
1666.71	0.924228
1668.24	1.10581
1669.76	1.17778
1671.29	1.21404
1672.82	0.901183
1674.35	0.736159
1675.87	0.64466
1677.4	0.939077
1678.93	0.846087
1680.45	0.403047
1681.98	0.970519
1683.5	0.527115
1685.03	0.341242
1686.55	0.540972
1688.08	0.667493
1689.6	0.574357
1691.13	0.884297
1692.65	0.754783
1694.17	0.113201
1695.7	1.06261
1697.22	0.0192237
1698.74	0.291525
1700.27	0.307678
1701.79	0.542255
1703.31	0.630258
1704.83	0.371707
1706.35	0.386133
1707.87	-0.0905008
1709.39	0.105641
1710.91	0.464833
1712.43	0.479043
1713.95	-0.231329
1715.47	-0.0353909
1716.99	-0.11114
1718.51	0.644451
1720.03	0.152792
1721.55	0.185294
1723.07	0.470569
1724.58	0.0535836
1726.1	0.196279
1727.62	0.033844
1729.13	-0.541654
1730.65	-0.23369
1732.17	0.194637
1733.68	0.192544
1735.2	0.101254
1736.72	0.284699
1738.23	-0.256397
1739.74	-0.171315
1741.26	0.30055
1742.77	0.230796
1744.29	0.246272
1745.8	0.0618687
1747.32	0.14515
1748.83	0.236424
1750.34	0.117064
1751.85	-0.0569715
1753.37	0.106859
1754.88	0.190323
1756.39	0.266537
1757.9	0.293316
1759.41	-0.0162611
1760.92	0.428247
1762.44	0.19464
1763.95	0.260411
1765.46	0.0405979
1766.96	0.0611644
1768.47	0.0787959
1769.98	0.073308
1771.49	0.153794
1773	0.21469
1774.51	0.244406
1776.02	0.41873
1777.53	0.0261726
1779.03	-0.14549
1780.54	0.356254
1782.05	-0.215586
1783.55	-0.232898
1785.06	0.235351
1786.57	-0.00292301
1788.07	0.0956492
1789.58	0.181651
1791.08	0.357374
1792.59	0.175817
1794.09	0.128919
1795.6	0.061491
1797.1	-0.0150566
1798.61	0.307081
1800.11	0.282284
1801.61	0.336199
1803.12	0.117919
1804.62	0.166728
1806.12	0.156898
1807.62	-0.00220108
1809.12	0.206746
1810.63	0.180803
1812.13	0.0344858
1813.63	0.0823288
1815.13	0.280246
1816.63	0.288065
1818.13	0.274266
1819.63	0.229348
1821.13	0.292862
1822.63	0.194315
1824.13	0.504669
1825.63	0.66487
1827.13	0.462141
1828.62	0.605774
1830.12	0.204434
1831.62	0.0150042
1833.12	0.244671
1834.61	0.185022
1836.11	0.338731
1837.61	0.0396719
1839.1	0.332226
1840.6	0.0869703
1842.09	0.0323324
1843.59	-0.218128
1845.09	0.202361
1846.58	-0.0807657
1848.08	-0.0371685
1849.57	0.00397539
1851.06	0.325138
1852.56	-0.0771041
1854.05	0.01899
1855.54	0.023602
1857.04	0.32233
1858.53	0.179173
1860.02	0.706856
1861.51	0.402383
1863.01	-0.121835
1864.5	0.198448
1865.99	0.323255
1867.48	0.113971
1868.97	-0.0124912
1870.46	0.339618
1871.95	0.0955896
1873.44	-0.10371
1874.93	0.100143
1876.42	-0.129051
1877.91	0.113003
1879.4	-0.226575
1880.89	-0.415419
1882.37	0.228284
1882.46	0.26725
1883.95	-0.0997634
1885.45	0.160246
1886.94	-0.155437
1888.43	0.155499
1889.93	0.292222
1891.42	0.499123
1892.91	0.394191
1894.41	0.551527
1895.9	0.153735
1897.39	0.643449
1898.88	0.124398
1900.37	0.143741
1901.86	0.0400829
1903.36	0.0916357
1904.85	0.211566
1906.34	0.678233
1907.83	0.0329633
1909.32	0.343433
1910.81	0.099133
1912.29	0.306696
1913.78	0.16775
1915.27	-0.0577645
1916.76	0.427387
1918.25	0.322575
1919.74	0.148153
1921.23	0.441421
1922.71	0.492385
1924.2	0.163136
1925.69	0.492673
1927.17	0.494135
1928.66	0.461508
1930.15	-0.0213571
1931.63	-0.037313
1933.12	-0.106276
1934.6	0.100448
1936.09	0.184607
1937.57	0.457926
1939.06	0.0393314
1940.54	-0.015893
1942.02	-0.00140095
1943.51	0.100114
1944.99	0.253951
1946.47	0.390762
1947.96	0.320519
1949.44	0.33589
1950.92	-0.0972018
1952.4	0.226624
1953.88	0.0508919
1955.37	-0.00439787
1956.85	0.181079
1958.33	0.246705
1959.81	0.192748
1961.29	0.104976
1962.77	0.068862
1964.25	0.203978
1965.73	0.0474677
1967.21	0.0788693
1968.69	0.0242023
1970.16	0.379394
1971.64	-0.0860195
1973.12	0.285541
1974.6	-0.0597339
1976.08	0.0217175
1977.55	-0.135273
1979.03	0.201644
1980.51	0.248916
1981.98	0.70396
1983.46	-0.183812
1984.94	0.134606
1986.41	0.0452857
1987.89	0.0747137
1989.36	-0.0142288
1990.84	0.472833
1992.31	0.435706
1993.79	0.145829
1995.26	0.296209
1996.73	0.15964
1998.21	0.496027
1999.68	0.207199
2001.15	-0.0143609
2002.63	0.0337715
2004.1	-0.0868492
2005.57	0.214139
2007.04	0.431199
2008.51	0.211045
2009.99	0.109515
2011.46	-0.109406
2012.93	0.496516
2014.4	0.109058
2015.87	0.225914
2017.34	0.106545
2018.81	0.373288
2020.28	0.286483
2021.75	0.283603
2023.21	0.163464
2024.68	0.111129
2026.15	-0.0409346
2027.62	0.54609
2029.09	-0.123697
2030.56	0.0125904
2032.02	0.367835
2033.49	-0.0988593
2034.96	0.105843
2036.42	0.579181
2037.89	0.128205
2039.36	-0.0711927
2040.82	0.0822754
2042.29	-0.0161276
2043.75	-0.11405
2045.22	-0.211394
2046.68	-0.257769
2048.14	0.352983
2049.61	0.593379
2051.07	0.141928
2052.54	0.363606
2054	0.0948477
2055.46	-0.074029
2056.93	0.295584
2058.39	-0.211948
2059.85	0.207203
2061.31	-0.0135169
2062.77	0.422979
2064.23	0.0522251
2065.7	0.0020566
2067.16	-0.0138197
2068.62	0.0885644
2070.08	0.325881
2071.54	0.310784
2073	0.430279
2074.46	0.0780993
2075.92	0.197139
2077.38	0.400108
2078.83	0.215447
2080.29	-0.0705748
2081.75	0.518549
2083.21	-0.0545211
2084.67	0.112577
2086.12	0.548155
2087.58	0.37756
2089.04	-0.364615
2090.49	0.724725
2091.95	0.0836358
2093.41	0.080792
2094.86	0.144847
2096.32	0.3593
2097.77	-0.0132499
2099.23	0.417608
2100.68	0.228776
2102.14	0.0738001
2103.59	-0.0469594
2105.05	0.30067
2106.5	0.231964
2107.95	-0.0860591
2109.41	-0.00344706
2110.86	0.39549
2112.31	0.126618
2113.76	0.273082
2115.21	0.118584
2116.67	0.312769
2118.12	0.589871
2119.57	0.319795
2121.02	0.416481
2122.47	0.265813
2123.92	0.381652
2125.37	0.182951
2126.82	0.315716
2128.27	0.348247
2129.72	0.0483136
2131.17	0.211428
2132.62	0.555832
2134.07	0.552371
2135.51	0.450287
2136.96	0.00227976
2138.41	0.365599
2139.86	0.548505
2141.31	0.418654
2142.75	0.388861
2144.2	0.392638
2145.65	-0.0337615
2147.09	0.383679
2148.54	0.0887861
2149.98	0.654557
2151.43	0.755856
2152.87	0.607852
2154.32	0.343232
2155.76	0.442764
2157.21	0.492614
2158.65	0.75831
2160.1	0.494912
2161.54	0.348709
2162.98	1.04927
2164.43	0.773091
2165.87	0.148575
2167.31	0.98514
2168.75	0.558593
2170.2	0.911951
2171.64	0.332314
2173.08	0.366621
2174.52	0.616121
2175.96	0.798548
2177.4	0.731624
2178.84	0.515654
2180.28	0.832453
2181.72	0.501517
2183.16	0.836139
2184.6	0.888345
2186.04	0.175386
2187.48	0.776656
2188.92	0.978777
2190.36	0.581729
2191.79	0.750385
2193.23	0.518937
2194.67	0.65278
2196.11	0.751922
2197.54	0.616516
2198.98	0.596313
2200.42	0.0934706
2201.85	0.637204
2203.29	0.583345
2204.72	0.198746
2206.16	0.527977
2207.59	0.443177
2209.03	0.490812
2210.46	0.372321
2211.9	0.402083
2213.33	0.613051
2214.77	0.16289
2216.2	0.274985
2217.63	0.404272
2219.07	0.534369
2220.5	0.763972
2221.93	0.466168
2223.36	-0.0131721
2224.8	0.577276
2226.23	0.227742
2227.66	0.255657
2229.09	0.216845
2230.52	0.472816
2231.95	0.170865
2233.39	0.0825696
2234.81	0.387456
2236.25	-0.271286
2237.67	0.0843182
2239.1	0.473481
2240.53	0.39082
2241.96	-0.000302792
2243.39	0.571836
2244.82	0.491889
2246.25	0.29729
2247.68	0.427735
2249.1	0.100016
2250.53	0.487823
2251.96	0.564385
2253.38	0.396178
2254.81	0.390938
2256.24	0.321837
2257.66	0.0760889
2259.09	0.384192
2260.51	-0.149205
2261.94	0.227855
2263.36	0.330407
2264.79	0.189614
2266.21	0.0158844
2267.64	0.313173
2269.06	0.414732
2270.49	0.304107
2271.91	0.0139198
2273.33	-0.178822
2274.76	0.540631
2276.18	0.299252
2277.6	0.188273
2279.02	0.41964
2280.44	0.145583
2281.87	0.37693
2283.29	0.0862517
2284.71	0.317652
2286.13	0.141262
2287.55	0.307923
2288.97	0.458695
2290.39	-0.0436897
2291.81	0.28741
2293.23	0.242751
2294.65	-0.145541
2296.07	0.316923
2297.49	0.190231
2298.91	0.128995
2300.33	-0.0796642
2301.74	0.0724297
2303.16	-0.0375977
2304.58	0.0165215
2306	0.21846
2307.41	0.43678
2308.83	0.14531
2310.25	0.231379
2311.66	0.0211153
2313.08	-0.00832462
2314.5	0.0612545
2315.91	0.114954
2317.33	0.218713
2318.74	0.306457
2320.16	0.0642848
2321.57	0.1511
2322.98	-0.0274734
2324.4	-0.00972557
2325.81	0.864273
2327.23	0.334496
2328.64	0.0353885
2330.05	0.214403
2331.46	-0.10003
2332.88	0.0474243
2334.29	-0.100735
2335.7	0.146195
2337.11	-0.21582
2338.52	0.0135703
2339.94	0.176192
2341.35	0.37075
2342.76	0.121546
2344.17	0.249841
2345.58	0.0995417
2346.99	-0.0339699
2348.4	-0.150914
2349.81	-0.137099
2351.22	0.268473
2352.62	0.0520058
2354.03	-0.181098
2355.44	0.0095706
2356.85	0.00418091
2358.26	0.0150394
2359.67	-0.0390368
2361.07	0.0369253
2362.48	0.436996
2363.89	0.172089
2365.29	-0.011405
2366.7	-0.242861
2368.11	-0.0213442
2369.51	0.00693178
2370.92	-0.221791
2372.32	0.0501719
2373.73	0.387034
2375.13	-0.0487061
2376.54	0.0466332
2377.94	0.0607009
2379.35	-0.183478
2380.75	-0.0431638
2382.15	0.095818
2383.56	-0.198657
2384.96	0.067265
2386.36	-0.0426378
2387.76	-0.151651
2389.17	0.194841
2390.57	0.223044
2391.97	0.220268
2393.37	0.186455
2394.77	0.185128
2396.17	0.216145
2397.58	0.199951
2398.98	-0.117684
2400.38	0.0258889
2401.78	0.169653
2403.18	-0.0677304
2404.58	-0.130626
2405.97	0.0916395
2407.37	0.201982
2408.77	-0.116592
2410.17	-0.229033
2411.57	0.102397
2412.97	0.30742
2414.37	-0.040863
2415.76	0.48276
2417.16	-0.385756
2418.56	-0.0345736
2419.95	-0.126415
2421.35	0.114283
2422.75	-0.167998
2424.14	-0.212885
2425.54	0.138405
2426.93	0.125644
2428.33	0.0501056
2429.72	0.0545239
2431.12	0.0912199
2432.51	0.112209
2433.91	0.291667
2435.3	0.136811
2436.7	0.107889
2438.09	0.125485
2439.48	-0.112062
2440.88	0.0150743
2442.27	-0.0170307
2443.66	0.410849
2445.05	0.0293031
2446.44	0.0601897
2447.84	0.0275598
2449.23	-0.0842552
2450.62	0.0575261
2452.01	0.120442
2453.4	0.0573111
2454.79	0.137235
2456.18	-0.00379419
2457.57	-0.0496378
2458.96	0.189132
2460.35	-0.0470018
2461.74	0.190696
2463.13	0.0325165
2464.52	0.0794034
2465.91	0.157604
2467.29	-0.0800519
2468.68	-0.207084
2470.07	0.0286021
2471.46	0.0115223
2472.85	0.340545
2474.23	0.0545917
2475.62	-0.0583973
2477.01	0.174302
2478.39	-0.190215
2479.78	-0.11464
2481.16	-0.101778
2482.55	-0.308322
2483.93	0.252244
2485.32	0.06043
2486.7	0.149392
2488.09	0.00324631
2489.47	0.15301
2490.86	-0.0868578
2492.24	-0.108123
2493.62	-0.128578
2495.01	-0.10148
2496.39	-0.0270123
2497.77	-0.0604353
2499.15	-0.0626307
2500.54	0.0896354
2501.92	0.148372
2503.3	0.314368
2504.68	0.386793
2506.06	0.335302
2507.45	0.1452
2508.83	0.201595
2510.21	-0.0029006
2511.59	0.315146
2512.97	0.12734
2514.35	-0.0748124
2515.73	0.198468
2517.11	0.441401
2518.48	0.118805
2519.86	0.224571
2521.24	-0.00596285
2522.62	-0.0993233
2524	0.294932
2525.38	-0.165442
2526.75	0.0904484
2528.13	-0.110278
2529.51	0.313511
2530.89	0.236464
2532.26	-0.15833
2533.64	0.0101705
2535.02	-0.261382
2536.39	-0.137924
2537.77	0.121784
2539.14	0.213645
2540.52	0.00116968
2541.89	0.152812
2543.27	0.0314331
2544.64	0.0169168
2546.01	0.0791402
2547.39	-0.0245786
2548.76	0.190914
2550.14	0.0727534
2551.51	0.136338
2552.88	-0.0739169
2554.25	0.0337677
2555.63	0.080061
2557	0.216913
2558.37	0.292925
2559.74	0.232655
2561.11	0.0818772
2562.49	-0.18961
2563.86	0.0394511
2565.23	-0.155477
2566.6	0.149872
2567.97	0.0158181
2569.34	0.427381
2570.71	0.126617
2572.08	-0.0831985
2573.45	0.252728
2574.82	0.179468
2576.18	-0.106027
2577.55	-0.0732055
2578.92	-0.0708637
2580.29	0.416454
2581.66	-0.0518041
2583.02	0.268118
2584.39	0.0117197
2585.76	0.285874
2587.13	0.363019
2588.49	0.0462584
2589.86	0.0478826
2591.22	-0.223337
2592.59	-0.0402637
2593.96	0.263362
2595.32	0.0208859
2596.69	0.35303
2598.05	0.184981
2599.42	-0.330916
2600.78	0.0453672
2602.14	0.164855
2603.51	-0.0171804
2604.87	0.0880671
2606.23	0.11798
2607.6	-0.244397
2608.96	-0.139814
2610.32	-0.141634
2611.69	0.0964136
2613.05	0.137702
2614.41	0.0431256
2615.77	-0.08148
2617.13	0.229065
2618.49	-0.194417
2619.86	-0.0479445
2621.22	0.293221
2622.58	-0.0978718
2623.94	0.0343852
2625.3	0.405206
2626.66	0.0744519
2628.02	0.0419531
2629.37	0.00928116
2630.73	0.0806551
2632.09	0.136962
2633.45	0.0743122
2634.81	-0.12184
2636.17	0.0679016
2637.53	0.286964
2638.88	0.239192
2640.24	-0.133878
2641.6	-0.269651
2642.96	-0.0209155
2644.31	-0.0824232
2645.67	0.018394
2647.02	0.0303349
2648.38	0.262708
2649.74	0.243881
2651.09	-0.231192
2652.45	0.205028
2653.8	0.0242958
2655.16	0.122946
2656.51	0.412646
2657.86	-0.0290112
2659.22	0.466781
2660.57	0.0558534
2661.93	0.0106111
2663.28	0.11106
2664.63	0.181594
2665.98	-0.0985985
2667.34	0.0147848
2668.69	0.229836
2670.04	-0.0208759
2671.39	0.136287
2672.75	-0.127677
2674.09	-0.20208
2675.45	0.21751
2676.8	0.361476
2678.15	0.012712
2679.5	0.172258
2680.85	-0.131424
2682.2	0.33419
2683.55	0.148267
2684.9	0.0935354
2686.25	0.155214
2687.6	0.144292
2688.94	0.422854
2690.29	-0.0837569
2691.64	0.0905962
2692.99	0.176655
2694.34	-0.0136299
2695.68	0.419317
2697.03	0.156951
2698.38	0.112952
2699.73	0.388755
2701.07	0.0577073
2702.42	0.23461
2703.76	0.3255
2705.11	0.0254583
2706.45	0.1458
2707.8	-0.111208
2709.15	0.182904
2710.49	0.447907
2711.83	0.0737166
2713.18	0.440262
2714.52	0.0511351
2715.87	0.156083
2717.21	-0.0298867
2718.55	0.249389
2719.9	0.237508
2721.24	0.370815
2722.58	0.416462
2723.93	0.607305
2725.27	0.317475
2726.61	0.303913
2727.95	0.188233
2729.29	0.232465
2730.63	0.40753
2731.98	0.102416
2733.32	0.175655
2734.66	0.0162768
2736	0.0606937
2737.34	0.308823
2738.68	0.164253
2740.02	0.150405
2741.36	0.42702
2742.7	0.223322
2744.03	0.237196
2745.37	0.0907831
2746.71	0.263639
2748.05	-0.0718441
2749.39	-0.0152645
2750.72	0.142929
2752.06	0.504158
2753.4	0.0826917
2754.74	0.183208
2756.07	0.558957
2757.41	0.500215
2758.75	0.253509
2760.08	0.354557
2761.42	0.224399
2762.76	0.239328
2764.09	0.124281
2765.42	0.124995
2766.76	-0.178418
2768.09	0.457799
2769.43	-0.049592
2770.76	-0.239648
2772.1	0.103909
2773.43	-0.0732975
2774.76	0.54232
2776.1	0.350157
2777.43	0.086637
2778.76	0.054039
2780.1	0.108094
2781.43	-0.0243735
2782.76	-0.0130863
2784.09	0.328012
2785.42	0.123998
2786.75	0.436008
2788.09	-0.311287
2789.42	-0.084321
2790.75	0.0572705
2792.08	0.0563617
2793.41	0.29882
2794.74	0.241079
2796.07	-0.0597806
2797.4	-0.0894647
2798.73	-0.14809
2800.06	0.0641904
2801.39	0.13342
2802.71	-0.353636
2804.04	0.114437
2805.37	-0.0734882
2806.7	-0.105048
2808.03	0.118998
2809.35	0.214471
2810.68	-0.24406
2812.01	0.12158
2813.33	-0.221596
2814.66	0.3014
2815.99	0.286534
2817.31	0.102449
2818.64	0.0889077
2819.96	0.20295
2821.29	0.217453
2822.61	0.018888
2823.94	0.42916
2825.26	0.0315771
2826.59	0.158169
2827.91	-0.0264153
2829.23	-0.182237
2830.56	0.0586586
2831.88	0.0307364
2833.21	0.172638
2834.53	0.455838
2835.85	0.384809
2837.17	0.214355
2838.5	0.369007
2839.82	0.141581
2841.14	0.253651
2842.46	0.606247
2843.78	0.747191
2845.1	0.902778
2846.42	0.733786
2847.74	0.607456
2849.06	0.834484
2850.38	0.863434
2851.71	0.97683
2853.03	0.976765
2854.34	0.778574
2855.66	0.749834
2856.98	1.00361
2858.3	0.734742
2859.62	1.14381
2860.94	1.28435
2862.26	1.17048
2863.57	1.29633
2864.89	1.64767
2866.21	1.25115
2867.53	1.46143
2868.84	1.53093
2870.16	1.61481
2871.48	1.52964
2872.79	1.92348
2874.11	1.89391
2875.42	1.9199
2876.74	1.49451
2878.05	1.60366
2879.37	1.82497
2880.68	1.68078
2882	1.6497
2883.31	1.75984
2884.63	1.80041
2885.94	1.8414
2887.26	1.51753
2888.57	1.9372
2889.88	2.04745
2891.19	2.0308
2892.51	1.64928
2893.82	1.95442
2895.13	2.21751
2896.44	2.08905
2897.76	1.69556
2899.07	2.15642
2900.38	1.42862
2901.69	1.69447
2903	2.14227
2904.31	1.97469
2905.62	2.33881
2906.93	2.46554
2908.24	2.35506
2909.55	2.24516
2910.86	2.42951
2912.17	2.73992
2913.48	2.81191
2914.79	2.46288
2916.1	2.65863
2917.41	2.97912
2918.71	2.72503
2920.02	2.91852
2921.33	2.80473
2922.64	3.25103
2923.94	3.19502
2925.25	3.19579
2926.56	3.22498
2927.86	3.56177
2929.17	3.57677
2930.48	3.47952
2931.78	3.25608
2933.09	3.2142
2934.39	2.85082
2935.7	3.07456
2937	3.0608
2938.31	3.34062
2939.61	3.35511
2940.92	3.39792
2942.22	2.95224
2943.53	2.5073
2944.83	2.6223
2946.13	2.92
2947.43	2.46287
2948.74	2.74705
2950.04	2.54061
2951.34	2.16482
2952.64	2.50182
2953.95	2.52974
2955.25	2.20738
2956.55	2.31956
2957.85	2.20916
2959.15	2.24059
2960.45	2.288
2961.75	2.01451
2963.05	2.16209
2964.35	2.05684
2965.65	2.24548
2966.95	1.80068
2968.25	1.95912
2969.55	1.76554
2970.85	2.26094
2972.15	2.22218
2973.45	1.5504
2974.75	1.52576
2976.05	1.47254
2977.34	1.54517
2978.64	1.40541
2979.94	1.58823
2981.24	1.43225
2982.53	0.924324
2983.83	1.28869
2985.13	1.40055
2986.42	1.09186
2987.72	0.854514
2989.01	1.12376
2990.31	0.718666
2991.61	0.608361
2992.9	0.680065
2994.19	0.736823
2995.49	0.680375
2996.78	0.581312
2998.08	0.776865
2999.37	0.523524
3000.67	0.831612
3001.96	0.593243
3003.25	0.509463
3004.55	0.635943
3005.84	0.244009
3007.13	0.369881
3008.42	0.397105
3009.72	0.185945
3011.01	0.156176
3012.3	0.405365
3013.59	0.165854
3014.88	0.303373
3016.17	0.260081
3017.46	0.537597
3018.76	0.0498638
3020.05	0.105117
3021.34	-0.0901766
3022.63	0.172549
3023.92	0.00395107
3025.21	0.292616
3026.49	0.23426
3027.78	0.134811
3029.07	0.050139
3030.36	0.187716
3031.65	0.0914383
3032.94	0.313539
3034.23	0.107925
3035.51	0.384934
3036.8	-0.152748
3038.09	0.21832
3039.38	0.215735
3040.66	-0.282849
3041.95	-0.0121217
3043.23	-0.13972
3044.52	0.0347295
3045.81	0.0458264
3047.09	-0.0918279
3048.38	0.195605
3049.66	0.238675
3050.95	-0.126464
3052.23	0.123112
3053.52	0.427272
3054.8	0.226126
3056.09	-0.0847993
3057.37	-0.000929832
3058.65	0.0277739
3059.94	-0.148013
3061.22	0.125708
3062.5	0.291002
3063.79	0.144443
3065.07	-0.0417137
3066.35	0.344145
3067.63	0.254949
3068.92	0.329224
3070.2	0.0497255
3071.48	0.123218
3072.76	0.0734348
3074.04	-0.00441408
3075.32	0.1481
3076.6	0.273028
3077.88	-0.0905433
3079.16	0.198217
3080.44	0.189471
3081.72	0.0733662
3083	-0.0825086
3084.28	0.26413
3085.56	0.0545392
3086.84	0.102462
3088.12	0.0955839
3089.4	-0.0203805
3090.67	-0.0280948
3091.95	-0.144451
3093.23	0.0920024
3094.51	-0.0240073
3095.78	-0.166885
3097.06	0.0970488
3098.34	0.225306
3099.61	0.163704
3100.89	-0.0333953
3102.17	-0.298054
3103.44	-0.0208273
3104.72	-0.12237
3105.99	0.142045
3107.27	0.0687647
3108.54	-0.00376129
3109.82	-0.102603
3111.09	0.0293937
3112.37	-0.095304
3113.64	0.10544
3114.92	0.0894613
3116.19	0.168077
3117.46	0.246107
3118.74	0.147042
3120.01	0.0743012
3121.28	-0.134658
3122.55	0.184646
3123.83	0.137784
3125.1	-0.00369644
3126.37	0.112427
3127.64	0.228876
3128.91	0.156293
3130.19	-0.0782185
3131.46	-0.0151262
3132.73	-0.438585
3134	0.178082
3135.27	0.159323
3136.54	0.383018
3137.81	0.228544
3139.08	0.208743
3140.35	0.565725
3141.62	0.411097
3142.89	0.122595
3144.16	0.143721
3145.42	-0.0493855
3146.69	0.334737
3147.96	0.0355926
3149.23	0.192479
