200.523	-0.193967
202.339	-0.176769
204.154	-0.158315
205.967	0.687989
207.781	0.658667
209.596	-0.00295448
211.409	0.330704
213.222	-0.405318
215.034	-0.00146294
216.848	0.377018
218.659	0.464388
220.47	0.866938
222.281	0.157358
224.091	-0.115364
225.903	0.265237
227.713	-0.175745
229.522	-0.109678
231.331	-0.140766
233.14	0.165608
234.948	-0.0824957
236.756	0.273512
238.566	0.655694
240.373	0.462039
242.18	0.318904
243.986	-0.064209
245.792	0.0590582
247.598	-0.157207
249.403	0.3964
251.208	0.00513268
253.013	0.407701
254.818	0.39804
256.624	0.00224972
258.427	0.161961
260.231	0.130548
262.034	-0.0434036
263.836	0.57934
265.638	0.576883
267.44	0.333765
269.242	-0.078537
271.043	1.05118
272.844	0.781416
274.645	0.220797
276.445	0.140705
278.245	0.131025
280.044	-0.193829
281.843	0.0572701
283.642	-0.222985
285.44	0.120459
287.238	0.0304289
289.036	-0.227239
290.833	0.234953
292.63	0.24297
294.425	0.228679
296.221	-0.405657
298.017	-0.0107412
299.813	-0.23678
301.608	0.277525
303.403	0.00268459
305.198	-0.416384
306.992	0.809742
308.786	0.43719
310.579	-0.220264
312.371	0.100513
314.163	0.470462
315.956	0.842323
317.748	0.787555
319.54	0.35327
321.331	0.229719
323.122	0.0591602
324.911	0.413796
326.701	0.625747
328.491	0.0492411
330.281	1.24043
332.071	0.876851
333.857	0.1043
335.646	0.693179
337.434	0.513899
339.222	0.8348
341.008	0.340712
342.795	0.75451
344.582	0.45112
346.369	0.00520229
348.153	0.228849
349.939	0.50066
351.724	0.438224
353.51	-0.0781717
355.292	0.454184
357.077	-0.0166893
358.861	-0.0357113
360.643	0.229852
362.426	0.874793
364.21	-0.146467
365.99	-0.216537
367.773	0.0212469
369.555	0.779286
371.335	0.492656
373.116	0.300515
374.897	0.0611486
376.676	0.0584354
378.456	0.409955
380.236	0.314171
382.014	-0.439225
383.793	0.785505
385.57	1.09336
387.349	1.04985
389.127	0.655298
390.903	-0.0198336
392.681	-0.224252
394.456	0.487829
396.233	-0.208757
398.007	0.503841
399.784	0.69961
401.56	0.00235748
403.333	0.831126
405.108	0.790013
406.881	0.771562
408.656	0.752457
410.428	0.216602
412.202	-0.225115
413.973	0.718162
415.746	0.183854
417.517	-0.466926
419.29	0.00924778
421.06	0.344964
422.831	0.0936575
424.601	0.428452
426.37	0.33971
428.141	-0.313312
429.909	0.371221
431.679	0.328028
433.447	0.261712
435.216	-0.250154
436.983	-0.222263
438.75	0.0630522
440.519	0.862991
442.285	0.581253
444.052	0.0160999
445.818	0.129069
447.583	0.685272
449.349	0.795712
451.114	0.181849
452.878	0.0595789
454.643	0.0543518
456.407	-0.0907269
458.169	0.323164
459.934	0.503787
461.696	0.754683
463.458	0.426001
465.222	0.193129
466.983	0.474533
468.744	-0.0313416
470.507	0.534063
472.267	0.518982
474.027	0.340075
475.787	0.508477
477.548	1.00074
479.307	0.955224
481.065	0.466074
482.823	0.349845
484.583	0.53769
486.341	0.471441
488.098	0.757087
489.855	0.625504
491.612	-0.0420389
493.37	0.621792
495.126	0.585437
496.881	0.127543
498.636	0.629175
500.391	0.66217
502.148	0.365919
503.902	0.491033
505.656	0.638577
507.409	0.502579
509.162	0.294211
510.915	1.02521
512.668	0.413317
514.42	0.599819
516.174	0.290752
517.925	0.874204
519.676	0.163219
521.427	0.885303
523.178	0.455452
524.928	1.24629
526.678	0.394213
528.427	0.856021
530.176	-0.205973
531.925	0.395622
533.673	0.17641
535.422	0.330464
537.169	0.295812
538.917	0.00291824
540.664	0.105838
542.411	0.394006
544.157	0.634542
545.903	0.549179
547.649	0.208936
549.395	0.379719
551.14	-0.144294
552.884	0.142569
554.629	0.775596
556.373	0.230457
558.117	0.171062
559.86	0.388772
561.603	0.100304
563.346	0.870952
565.089	0.49191
566.831	0.481611
568.573	0.541093
570.314	0.0968571
572.053	-0.207934
573.794	-0.0521288
575.534	0.839657
577.274	0.242105
579.014	0.334273
580.754	0.611098
582.493	0.428716
584.23	0.912277
585.968	0.774106
587.706	0.72645
589.444	0.309308
591.181	0.74239
592.919	1.03686
594.653	0.180801
596.39	0.245092
598.126	0.72347
599.862	-0.155929
601.595	0.27512
603.33	-0.491245
605.065	-0.0631914
606.8	0.43204
608.532	-0.153416
610.266	-0.118679
611.999	0.16884
613.732	0.0442476
615.463	0.264261
617.196	-0.203029
618.928	-0.0063839
620.66	-0.0399637
622.389	0.153947
624.12	-0.156222
625.851	0.265038
627.58	-0.112081
629.31	0.517345
631.04	0.829632
632.767	0.277096
634.497	0.570022
636.223	-0.233055
637.952	0.1033
639.68	0.642039
641.406	0.378745
643.134	1.13863
644.861	0.347593
646.586	-0.168635
648.312	0.1817
650.037	0.05791
651.762	0.347251
653.486	0.390927
655.211	0.597531
656.936	-0.0354958
658.659	0.607687
660.383	-0.117391
662.105	0.43345
663.829	0.205581
665.55	0.45499
667.273	0.199383
668.994	0.468949
670.716	0.281947
672.436	0.0969238
674.158	0.738742
675.877	0.146152
677.598	-0.0332289
679.317	0.591056
681.035	0.0889521
682.755	0.412371
684.473	0.0202885
686.192	0.800175
687.909	0.749574
689.628	0.513465
691.344	0.506887
693.06	-0.0762358
694.778	0.583643
696.493	0.0217953
698.211	-0.0345888
699.925	0.621078
701.64	0.561911
703.356	0.846492
705.07	1.01508
706.783	0.632051
708.498	0.937053
710.211	0.782901
711.924	0.857524
713.638	1.29759
715.35	0.525543
717.061	0.873539
718.774	0.992887
720.485	0.565265
722.196	0.753368
723.906	0.941199
725.618	1.40134
727.328	1.13356
729.037	1.00193
730.746	0.779362
732.456	0.964431
734.165	0.76432
735.873	1.17491
737.58	1.04321
739.289	1.16065
740.997	0.647868
742.703	0.948085
744.41	1.22692
746.116	1.30456
747.823	0.821308
749.529	1.12701
751.234	1.18669
752.938	1.60774
754.643	1.24309
756.347	1.60011
758.051	1.14862
759.756	1.44176
761.459	1.66894
763.162	0.994487
764.865	1.17678
766.567	1.26767
768.269	1.06274
769.97	1.12662
771.671	1.2109
773.372	1.45193
775.073	1.37588
776.773	1.70745
778.473	1.61091
780.174	1.8327
781.874	1.85227
783.573	2.00778
785.271	1.64139
786.97	1.18168
788.668	1.66914
790.365	1.42869
792.063	1.63756
793.76	1.77654
795.456	1.71195
797.153	1.69361
798.847	1.42948
800.543	1.52781
802.238	1.31265
803.933	1.84053
805.628	1.53604
807.322	0.781518
809.017	0.879867
810.71	1.82957
812.404	1.67809
814.097	2.13114
815.79	1.73248
817.483	1.87126
819.173	1.89815
820.865	1.07665
822.556	2.68889
824.248	2.00321
825.939	2.01087
827.629	2.02101
829.318	1.92302
831.008	1.49445
832.697	1.44761
834.387	1.0241
836.076	1.00267
837.765	1.96299
839.451	1.98514
841.139	2.13951
842.827	0.773129
844.514	1.5733
846.2	1.43584
847.886	1.56861
849.573	1.50293
851.259	1.41756
852.943	0.908281
854.629	1.0048
856.314	0.966534
857.997	0.79206
859.682	0.930541
861.366	1.58516
863.05	1.29247
864.732	1.24601
866.415	1.58174
868.098	0.699254
869.779	0.334645
871.461	1.50348
873.141	0.980395
874.823	0.163744
876.505	0.971709
878.184	0.696554
879.865	0.646937
881.545	1.13871
883.223	0.568676
884.903	1.30677
886.581	1.27572
888.26	1.10753
889.937	1.29853
891.616	1.21717
893.294	0.751592
894.97	0.55549
896.648	0.987973
898.323	1.12657
900	1.01706
901.675	0.682892
903.351	1.10967
905.026	1.37876
906.701	0.352907
908.375	1.24743
910.05	1.42829
911.723	0.319592
913.398	1.23617
915.07	1.2411
916.742	0.292234
918.415	0.719052
920.087	1.23378
921.76	0.642159
923.43	0.98114
925.103	0.769219
926.773	0.736216
928.443	0.727153
930.114	0.873904
931.783	0.624217
933.454	1.34553
935.123	1.14046
936.791	0.274285
938.461	0.533916
940.128	0.68462
941.796	0.96906
943.464	0.96757
945.131	0.149246
946.797	0.786308
948.465	0.648808
950.131	0.487189
951.797	0.456726
953.462	0.448444
955.128	0.331634
956.793	0.548614
958.457	0.967772
960.121	0.706206
961.786	0.313435
963.45	0.782022
965.113	0.829046
966.775	0.231483
968.44	0.405108
970.102	0.930435
971.763	0.702608
973.425	0.630219
975.086	0.183538
976.748	-0.0400639
978.409	0.910293
980.069	0.766529
981.729	0.622212
983.388	0.044631
985.048	0.660316
986.708	1.16285
988.367	0.623208
990.025	0.436465
991.683	0.337621
993.341	0.260801
994.998	0.184178
996.655	0.416624
998.312	0.670815
999.969	0.307464
1001.62	1.02316
1003.28	1.45133
1004.94	0.735013
1006.59	-0.0243616
1008.25	0.447185
1009.9	0.501512
1011.56	0.227315
1013.21	0.107374
1014.86	0.250838
1016.52	0.19757
1018.17	0.144923
1019.82	0.268175
1021.48	-0.0447836
1023.13	0.496078
1024.78	0.491439
1026.43	-0.124414
1028.08	0.112005
1029.73	0.828261
1031.38	0.319772
1033.03	0.421121
1034.68	0.433262
1036.33	0.116851
1037.98	0.714969
1039.63	0.876728
1041.28	0.169013
1042.93	0.637489
1044.57	0.281844
1046.22	0.797415
1047.87	0.31594
1049.52	0.357558
1051.16	0.574342
1052.81	0.357604
1054.45	-0.0978518
1056.1	0.750577
1057.75	0.272943
1059.39	0.68604
1061.04	0.533149
1062.68	0.248893
1064.32	0.615922
1065.97	0.133842
1067.61	0.737443
1069.25	0.557444
1070.9	-0.339764
1072.54	0.13118
1074.18	-0.070343
1075.82	0.29337
1077.47	0.788498
1079.11	-0.12459
1080.75	0.307656
1082.39	0.414592
1084.03	0.672276
1085.67	0.104299
1087.31	-0.422168
1088.95	0.00247478
1090.59	0.143355
1092.22	0.282716
1093.86	0.399665
1095.5	-0.044302
1097.14	0.289433
1098.78	0.193378
1100.41	0.0778904
1102.05	-0.379673
1103.69	0.778384
1105.32	0.410325
1106.96	0.709712
1108.59	-0.0880909
1110.23	0.317191
1111.86	0.741951
1113.5	0.412623
1115.13	0.704827
1116.77	0.288049
1118.4	0.900975
1120.03	0.592695
1121.67	0.285933
1123.3	0.387322
1124.93	0.532537
1126.56	0.7856
1128.19	0.226853
1129.83	0.438822
1131.46	0.843804
1133.09	0.308454
1134.72	-0.141469
1136.35	0.305648
1137.98	-0.0391703
1139.61	0.469258
1141.24	1.42446
1142.86	-0.481194
1144.49	0.153205
1146.12	0.70253
1147.75	-0.111334
1149.38	-0.178068
1151	-0.45725
1152.63	0.34973
1154.26	0.0914526
1155.88	-0.188397
1157.51	-0.595849
1159.14	0.422392
1160.76	0.229028
1162.39	0.0795183
1164.01	-0.00506878
1165.63	0.570015
1167.26	-0.194714
1168.88	0.23
1170.51	0.482603
1172.13	0.43537
1173.75	0.13138
1175.38	-0.237202
1177	-0.0970116
1178.62	0.127932
1180.24	-0.514499
1181.86	0.304462
1183.48	0.192986
1185.1	-0.00287247
1186.72	0.307201
1188.34	0.0242033
1189.96	0.0135288
1191.58	-0.588673
1193.2	0.322739
1194.82	0.160066
1196.44	0.0607996
1198.06	-0.372118
1199.68	0.389939
1201.29	0.421884
1202.91	0.519478
1204.53	0.035614
1206.14	0.409893
1207.76	0.305695
1209.38	-0.13195
1210.99	-0.403522
1212.61	0.198853
1214.22	-0.0561237
1215.84	0.04074
1217.45	0.239455
1219.07	0.706801
1220.68	-0.155435
1222.29	0.270566
1223.91	0.51073
1225.52	0.648728
1227.13	0.891768
1228.74	1.09484
1230.36	0.637641
1231.97	1.56703
1233.58	1.23684
1235.19	0.74285
1236.8	0.828972
1238.41	0.647548
1240.02	0.673592
1241.63	1.48585
1243.24	1.49122
1244.85	1.43357
1246.46	0.836664
1248.07	1.04557
1249.67	1.50186
1251.28	1.21293
1252.89	1.21395
1254.5	1.19516
1256.1	1.21904
1257.71	0.954767
1259.32	2.11956
1260.92	0.615855
1262.53	1.41019
1264.13	1.7701
1265.74	0.886397
1267.34	1.32793
1268.95	1.20877
1270.55	1.10908
1272.15	1.15328
1273.76	1.03041
1275.36	1.38316
1276.97	1.23731
1278.57	1.69129
1280.17	1.62654
1281.77	2.12028
1283.37	1.00015
1284.97	0.812147
1286.58	1.76231
1288.18	1.49383
1289.78	1.16455
1291.38	1.68313
1292.98	1.20974
1294.58	1.80979
1296.18	1.82972
1297.78	1.95087
1299.37	1.78101
1300.97	1.60952
1302.57	1.86937
1304.17	1.65427
1305.77	2.05545
1307.36	1.9007
1308.96	1.52025
1310.55	1.61197
1312.15	1.49925
1313.75	1.69444
1315.34	1.3388
1316.94	2.39362
1318.53	1.79501
1320.13	1.29906
1321.72	1.73976
1323.32	2.3202
1324.91	2.00291
1326.5	1.52225
1328.1	1.9342
1329.69	1.13101
1331.28	2.13152
1332.87	1.98111
1334.47	1.59146
1336.06	1.97103
1337.65	1.6853
1339.24	2.14481
1340.83	1.83624
1342.42	2.43105
1344.01	1.47446
1345.6	1.82369
1347.19	1.83145
1348.78	1.50081
1350.37	1.41391
1351.96	1.31016
1353.54	1.68877
1355.13	1.62897
1356.72	1.26991
1358.31	1.4299
1359.89	1.96803
1361.48	1.64615
1363.07	1.38345
1364.65	1.87819
1366.24	1.93435
1367.82	0.955957
1369.41	1.41309
1370.99	1.3741
1372.58	0.839336
1374.16	1.34061
1375.75	1.40491
1377.33	1.66831
1378.91	1.63261
1380.5	1.21762
1382.08	1.00015
1383.66	0.92049
1385.25	1.43605
1386.83	1.89099
1388.41	0.915993
1389.99	1.72905
1391.57	0.955218
1393.15	1.09527
1394.73	1.03737
1396.31	1.67326
1397.89	1.27715
1399.47	1.89067
1401.05	1.27456
1402.63	1.86584
1404.21	1.3486
1405.78	0.713913
1407.36	0.614437
1408.94	0.871646
1410.52	1.28729
1412.1	0.656067
1413.67	0.794407
1415.25	0.931593
1416.82	0.712723
1418.4	1.2229
1419.98	0.807111
1421.55	0.94429
1423.13	1.10289
1424.7	1.69635
1426.28	1.28749
1427.85	1.39098
1429.42	0.962693
1431	1.00574
1432.57	1.57875
1434.14	1.87495
1435.71	1.30512
1437.29	2.38739
1438.86	1.89755
1440.43	1.86116
1442	2.49414
1443.57	2.26326
1445.14	1.91492
1446.71	2.35298
1448.28	1.9657
1449.85	1.97191
1451.42	1.99835
1452.99	1.57312
1454.56	1.69894
1456.13	2.25764
1457.7	2.54022
1459.26	1.89625
1460.83	2.11606
1462.4	1.92033
1463.97	1.27047
1465.54	1.46511
1467.1	2.03235
1468.67	1.55891
1470.23	1.5776
1471.8	1.47994
1473.36	0.638325
1474.93	0.73917
1476.49	0.879663
1478.06	1.05945
1479.62	0.984298
1481.19	1.00705
1482.75	1.10808
1484.31	0.621112
1485.88	1.36806
1487.44	0.801549
1489	1.13441
1490.56	0.760386
1492.13	0.677604
1493.69	0.162814
1495.25	-0.00168228
1496.81	0.378613
1498.37	1.08847
1499.93	0.0287237
1501.49	0.176209
1503.05	1.33308
1504.61	0.977565
1506.17	0.777848
1507.73	0.345711
1509.28	0.589387
1510.84	-0.172132
1512.4	0.570367
1513.96	0.232809
1515.52	0.722823
1517.07	0.598012
1518.63	0.723673
1520.19	0.390051
1521.74	0.937523
1523.3	0.929136
1524.85	0.805274
1526.41	0.794933
1527.96	0.307538
1529.52	0.049057
1531.07	0.83551
1532.63	0.350089
1534.18	0.321421
1535.73	0.672251
1537.29	0.758893
1538.84	1.20475
1540.39	1.17879
1541.94	0.870429
1543.5	0.788373
1545.05	0.668645
1546.6	1.28138
1548.15	0.804471
1549.7	1.35936
1551.25	1.08951
1552.8	0.783392
1554.35	1.58162
1555.9	1.87606
1557.45	1.40706
1559	0.605021
1560.55	1.24201
1562.1	1.2092
1563.65	1.51352
1565.19	1.31479
1566.74	1.15343
1568.29	1.58899
1569.83	2.09884
1571.38	1.93629
1572.93	2.22137
1574.47	1.94628
1576.02	1.5032
1577.56	2.29247
1579.11	1.77548
1580.66	1.894
1582.2	2.31236
1583.74	2.45177
1585.29	2.61092
1586.83	2.34079
1588.38	2.27635
1589.92	1.57537
1591.46	1.19155
1593.01	1.74316
1594.55	2.03254
1596.09	1.85375
1597.63	1.93776
1599.17	2.52891
1600.71	2.35236
1602.25	1.96974
1603.79	2.0937
1605.34	1.6533
1606.88	1.75591
1608.41	1.12317
1609.95	2.08526
1611.49	2.06712
1613.03	2.40337
1614.57	1.72418
1616.11	1.73931
1617.65	1.34266
1619.18	1.56605
1620.72	1.43521
1622.26	1.21244
1623.79	1.47742
1625.33	1.68618
1626.87	1.72549
1628.4	0.996177
1629.94	2.02362
1631.48	1.44149
1633.01	1.28918
1634.55	1.54808
1636.08	1.82633
1637.61	1.73244
1639.15	1.8258
1640.68	1.95639
1642.21	2.0861
1643.75	1.17164
1645.28	1.57799
1646.81	1.25755
1648.34	1.38317
1649.88	1.17486
1651.41	1.89578
1652.94	1.54167
1654.47	1.4302
1656	2.0609
1657.53	1.63497
1659.06	1.74552
1660.59	1.57674
1662.12	1.55445
1663.65	1.84509
1665.18	2.02378
1666.71	1.5752
1668.24	2.17976
1669.76	1.3846
1671.29	1.91849
1672.82	1.40343
1674.35	2.78592
1675.87	1.57153
1677.4	2.01327
1678.93	1.33119
1680.45	1.2369
1681.98	0.535511
1683.5	1.19343
1685.03	1.35514
1686.55	1.13196
1688.08	0.964547
1689.6	0.797765
1691.13	0.887752
1692.65	0.959431
1694.17	0.37249
1695.7	0.15158
1697.22	0.570122
1698.74	1.37128
1700.27	1.9702
1701.79	2.23942
1703.31	0.0655251
1704.83	0.716784
1706.35	0.656888
1707.87	0.215028
1709.39	0.572991
1710.91	0.785262
1712.43	0.0545216
1713.95	0.194773
1715.47	0.443473
1716.99	-0.0679789
1718.51	0.306802
1720.03	-0.0955715
1721.55	0.188503
1723.07	0.707128
1724.58	0.487505
1726.1	0.125582
1727.62	0.0534458
1729.13	0.180351
1730.65	0.751842
1732.17	-0.0737562
1733.68	0.365733
1735.2	-0.317929
1736.72	-0.340074
1738.23	0.346366
1739.74	0.3015
1741.26	-0.304538
1742.77	0.037262
1744.29	0.408886
1745.8	0.41269
1747.32	0.338498
1748.83	-0.0944109
1750.34	0.0916357
1751.85	0.282487
1753.37	0.135183
1754.88	-0.0940666
1756.39	0.0921326
1757.9	0.108042
1759.41	0.161877
1760.92	0.0708885
1762.44	-0.185699
1763.95	-0.103498
1765.46	0.134515
1766.96	0.289365
1768.47	-0.128519
1769.98	0.0648508
1771.49	-0.0251942
1773	-0.00978947
1774.51	0.161172
1776.02	0.140227
1777.53	0.122204
1779.03	-0.0439262
1780.54	0.217451
1782.05	-0.0237551
1783.55	0.21312
1785.06	0.222139
1786.57	-0.0270348
1788.07	0.151774
1789.58	0.0492373
1791.08	-0.124038
1792.59	0.148599
1794.09	0.127269
1795.6	0.083333
1797.1	0.0650682
1798.61	-0.0988636
1800.11	-0.168486
1801.61	-0.0349846
1803.12	0.0174141
1804.62	-0.129895
1806.12	0.0547733
1807.62	-0.0581408
1809.12	-0.00608253
1810.63	0.09513
1812.13	0.0432072
1813.63	0.0517502
1815.13	0.0814333
1816.63	-0.172109
1818.13	0.190732
1819.63	-0.293311
1821.13	0.154177
1822.63	0.0885735
1824.13	0.053196
1825.63	-0.361953
1827.13	-0.0742903
1828.62	0.277887
1830.12	0.0178614
1831.62	0.246621
1833.12	0.116794
1834.61	-0.206422
1836.11	0.0660954
1837.61	-0.0310097
1839.1	0.156295
1840.6	-0.342284
1842.09	-0.448937
1843.59	0.0894203
1845.09	0.116112
1846.58	0.574512
1848.08	0.136871
1849.57	-0.224382
1851.06	-0.0566778
1852.56	0.28281
1854.05	-0.314295
1855.54	-0.215209
1857.04	0.029747
1858.53	0.0352449
1860.02	-0.111961
1861.51	0.116171
1863.01	0.179703
1864.5	0.0886526
1865.99	-0.0916262
1867.48	0.321434
1868.97	0.494902
1870.46	-0.0744591
1871.95	0.0883255
1873.44	0.0607653
1874.93	0.0907993
1876.42	0.311163
1877.91	0.230941
1879.4	0.0785894
1880.89	0.375598
1882.37	0.057889
1882.46	0.0355597
1883.95	0.209369
1885.45	0.17306
1886.94	0.11837
1888.43	0.0805435
1889.93	0.164713
1891.42	0.580304
1892.91	0.249833
1894.41	0.112775
1895.9	0.27306
1897.39	0.0865602
1898.88	0.317394
1900.37	0.529788
1901.86	0.131469
1903.36	-0.320878
1904.85	-0.0791445
1906.34	-0.168666
1907.83	0.175974
1909.32	-0.0171556
1910.81	-0.313213
1912.29	0.0684175
1913.78	0.259748
1915.27	0.173686
1916.76	0.104636
1918.25	0.13901
1919.74	-0.294975
1921.23	0.293136
1922.71	0.483047
1924.2	-0.0359631
1925.69	-0.380477
1927.17	-0.0659742
1928.66	0.439775
1930.15	0.114457
1931.63	-0.281043
1933.12	-0.0373745
1934.6	0.0484648
1936.09	0.0977583
1937.57	-0.0445604
1939.06	0.296562
1940.54	0.154033
1942.02	-0.142719
1943.51	0.182979
1944.99	0.0782986
1946.47	0.336157
1947.96	0.559154
1949.44	0.1093
1950.92	-0.0313253
1952.4	-0.0867853
1953.88	-0.108434
1955.37	0.110402
1956.85	0.415218
1958.33	0.171216
1959.81	0.460091
1961.29	-0.0737286
1962.77	0.352995
1964.25	0.00817966
1965.73	0.159756
1967.21	0.0536766
1968.69	0.374606
1970.16	0.489316
1971.64	0.501057
1973.12	0.290806
1974.6	0.183293
1976.08	0.263615
1977.55	0.224793
1979.03	-0.290477
1980.51	0.283575
1981.98	-0.095274
1983.46	-0.236094
1984.94	-0.156416
1986.41	0.872655
1987.89	-0.0319128
1989.36	0.11517
1990.84	-0.532623
1992.31	0.00529861
1993.79	-0.0479364
1995.26	0.0687675
1996.73	0.337937
1998.21	-0.220623
1999.68	0.55446
2001.15	0.0288467
2002.63	-0.159503
2004.1	0.0398989
2005.57	0.20575
2007.04	0.372259
2008.51	0.135584
2009.99	0.186191
2011.46	-0.183452
2012.93	-0.148971
2014.4	0.070179
2015.87	-0.283624
2017.34	0.488655
2018.81	-0.0686998
2020.28	-0.0212517
2021.75	0.361837
2023.21	0.358816
2024.68	0.0882025
2026.15	0.154531
2027.62	0.155322
2029.09	0.426126
2030.56	-0.0228567
2032.02	0.435188
2033.49	0.189054
2034.96	0.362573
2036.42	0.183024
2037.89	-0.11484
2039.36	-0.093955
2040.82	0.21262
2042.29	0.452478
2043.75	0.255981
2045.22	-0.0742846
2046.68	0.319894
2048.14	0.0915947
2049.61	0.216651
2051.07	0.425028
2052.54	-0.0596247
2054	0.161974
2055.46	0.364751
2056.93	0.194996
2058.39	0.0749931
2059.85	0.241218
2061.31	0.340382
2062.77	0.305708
2064.23	0.55827
2065.7	0.424854
2067.16	0.225086
2068.62	0.480392
2070.08	0.399465
2071.54	-0.0181179
2073	-0.116046
2074.46	0.173018
2075.92	0.124963
2077.38	0.143858
2078.83	0.381234
2080.29	0.0118837
2081.75	0.281795
2083.21	0.298381
2084.67	-0.207534
2086.12	0.177649
2087.58	0.477756
2089.04	0.609038
2090.49	0.185622
2091.95	0.350163
2093.41	0.346635
2094.86	0.191896
2096.32	0.556369
2097.77	0.182666
2099.23	0.511721
2100.68	0.405076
2102.14	0.516039
2103.59	0.510847
2105.05	0.323498
2106.5	0.554952
2107.95	0.270426
2109.41	0.319957
2110.86	0.185537
2112.31	0.533035
2113.76	0.0289679
2115.21	0.505606
2116.67	0.714388
2118.12	0.391568
2119.57	0.419242
2121.02	0.415794
2122.47	1.11106
2123.92	0.580644
2125.37	0.233508
2126.82	0.764918
2128.27	0.665164
2129.72	0.530787
2131.17	0.825693
2132.62	0.407565
2134.07	0.486133
2135.51	0.912663
2136.96	0.993351
2138.41	0.563778
2139.86	0.698251
2141.31	0.685814
2142.75	0.426665
2144.2	1.37568
2145.65	0.703771
2147.09	0.726372
2148.54	0.665491
2149.98	0.968087
2151.43	1.10399
2152.87	0.973667
2154.32	1.45544
2155.76	0.694059
2157.21	1.1587
2158.65	0.961458
2160.1	1.13011
2161.54	0.58823
2162.98	1.04265
2164.43	0.420992
2165.87	0.563091
2167.31	1.25361
2168.75	0.713712
2170.2	1.00291
2171.64	1.45631
2173.08	0.693145
2174.52	1.0596
2175.96	1.12589
2177.4	0.743397
2178.84	1.27621
2180.28	1.24481
2181.72	1.18116
2183.16	1.05165
2184.6	1.20517
2186.04	1.35884
2187.48	1.0467
2188.92	1.15054
2190.36	1.0713
2191.79	1.37465
2193.23	1.0945
2194.67	0.929415
2196.11	1.19515
2197.54	0.97594
2198.98	0.838141
2200.42	1.28087
2201.85	0.726534
2203.29	1.03642
2204.72	0.634116
2206.16	0.863169
2207.59	0.529368
2209.03	0.858073
2210.46	1.03667
2211.9	0.43648
2213.33	0.150311
2214.77	0.673744
2216.2	1.032
2217.63	0.863162
2219.07	0.926746
2220.5	0.447242
2221.93	0.907634
2223.36	0.444355
2224.8	0.671608
2226.23	0.567591
2227.66	0.60986
2229.09	0.404233
2230.52	0.460649
2231.95	0.156153
2233.39	0.360038
2234.81	0.744157
2236.25	0.606019
2237.67	0.600449
2239.1	0.515383
2240.53	0.187911
2241.96	0.188714
2243.39	0.549697
2244.82	0.894841
2246.25	0.815215
2247.68	0.326147
2249.1	0.307799
2250.53	0.303348
2251.96	0.0365171
2253.38	0.41971
2254.81	0.526241
2256.24	0.260728
2257.66	0.517301
2259.09	0.484798
2260.51	0.504202
2261.94	0.461414
2263.36	0.0793266
2264.79	0.574731
2266.21	0.371161
2267.64	0.540682
2269.06	0.0583591
2270.49	0.470177
2271.91	0.409436
2273.33	0.348452
2274.76	0.548152
2276.18	0.373412
2277.6	0.671418
2279.02	0.252357
2280.44	0.256981
2281.87	0.196235
2283.29	0.363752
2284.71	0.205015
2286.13	0.58507
2287.55	0.867776
2288.97	-0.00850868
2290.39	0.209761
2291.81	-0.0618925
2293.23	0.598531
2294.65	0.408731
2296.07	0.0549879
2297.49	0.0283833
2298.91	0.378592
2300.33	0.532623
2301.74	0.506738
2303.16	0.0217905
2304.58	0.209495
2306	0.183826
2307.41	0.108476
2308.83	0.213293
2310.25	-0.077096
2311.66	0.125345
2313.08	0.179766
2314.5	0.399224
2315.91	-0.071949
2317.33	0.116252
2318.74	0.453516
2320.16	0.32912
2321.57	0.038435
2322.98	-0.0893717
2324.4	0.176442
2325.81	0.505708
2327.23	0.717364
2328.64	0.713617
2330.05	0.545319
2331.46	-0.0993004
2332.88	-0.0674505
2334.29	0.0311213
2335.7	0.310898
2337.11	0.0473509
2338.52	-0.0526485
2339.94	-0.235936
2341.35	-0.206542
2342.76	0.331002
2344.17	-0.0342407
2345.58	-0.00538731
2346.99	0.187533
2348.4	-0.0126057
2349.81	-0.032937
2351.22	0.174804
2352.62	0.266822
2354.03	-0.19717
2355.44	0.0888433
2356.85	0.113338
2358.26	0.397978
2359.67	0.243423
2361.07	0.170461
2362.48	0.373269
2363.89	0.219214
2365.29	0.227202
2366.7	0.2192
2368.11	0.0503883
2369.51	-0.133147
2370.92	-0.218294
2372.32	0.0202789
2373.73	0.436841
2375.13	0.257928
2376.54	0.255778
2377.94	-0.27816
2379.35	-0.0738554
2380.75	0.208603
2382.15	0.20028
2383.56	0.126884
2384.96	0.357296
2386.36	0.276011
2387.76	0.195867
2389.17	0.0454292
2390.57	0.23117
2391.97	0.195037
2393.37	0.191889
2394.77	0.348704
2396.17	0.299502
2397.58	-0.146293
2398.98	0.0443468
2400.38	-0.288802
2401.78	-0.335595
2403.18	0.0147171
2404.58	0.20575
2405.97	0.237046
2407.37	0.108617
2408.77	0.280767
2410.17	0.198724
2411.57	-0.0573082
2412.97	0.511249
2414.37	0.00421906
2415.76	0.068862
2417.16	-0.150018
2418.56	0.186236
2419.95	0.348831
2421.35	0.352978
2422.75	0.40427
2424.14	0.407728
2425.54	-0.0483122
2426.93	-0.139435
2428.33	0.0556593
2429.72	0.458077
2431.12	0.0841684
2432.51	0.218079
2433.91	0.27217
2435.3	0.531623
2436.7	0.122212
2438.09	-0.130019
2439.48	-0.129417
2440.88	-0.0027647
2442.27	-0.226036
2443.66	0.248749
2445.05	-0.0542679
2446.44	0.197717
2447.84	0.0531435
2449.23	0.114599
2450.62	-0.108771
2452.01	0.000967026
2453.4	0.332983
2454.79	0.00133705
2456.18	0.0501947
2457.57	-0.0271311
2458.96	0.306646
2460.35	0.0546026
2461.74	0.11801
2463.13	0.196321
2464.52	0.163326
2465.91	-0.0752907
2467.29	0.128187
2468.68	0.489207
2470.07	0.0926666
2471.46	0.153161
2472.85	-0.196732
2474.23	0.0669823
2475.62	-0.189507
2477.01	0.00981808
2478.39	0.208743
2479.78	0.297671
2481.16	0.0260029
2482.55	0.287413
2483.93	-0.0313282
2485.32	0.275185
2486.7	-0.201337
2488.09	-0.521894
2489.47	0.0770712
2490.86	0.0361528
2492.24	-0.315045
2493.62	0.112068
2495.01	-0.282444
2496.39	0.0225735
2497.77	-0.0746508
2499.15	0.0298042
2500.54	0.0409813
2501.92	0.0976858
2503.3	0.0142717
2504.68	0.284832
2506.06	0.276762
2507.45	0.42233
2508.83	0.244834
2510.21	0.528919
2511.59	-0.245515
2512.97	0.37727
2514.35	0.0196867
2515.73	-0.275206
2517.11	-0.109983
2518.48	0.00977802
2519.86	-0.221844
2521.24	0.0505323
2522.62	-0.0138912
2524	0.317459
2525.38	0.251247
2526.75	0.13914
2528.13	-0.0180283
2529.51	-0.128211
2530.89	-0.0238276
2532.26	0.17345
2533.64	-0.114013
2535.02	0.0247593
2536.39	0.254676
2537.77	0.316769
2539.14	-0.0626383
2540.52	-0.214993
2541.89	0.148381
2543.27	-0.0799503
2544.64	0.0416136
2546.01	0.255458
2547.39	0.0914316
2548.76	0.307594
2550.14	0.00806046
2551.51	0.0721798
2552.88	0.165692
2554.25	0.167017
2555.63	0.106661
2557	0.136716
2558.37	0.0452909
2559.74	0.530243
2561.11	-0.0453749
2562.49	0.00121593
2563.86	-0.0879478
2565.23	0.141604
2566.6	-0.00741482
2567.97	-0.110875
2569.34	0.225197
2570.71	-0.0752811
2572.08	0.169928
2573.45	0.263675
2574.82	0.296906
2576.18	0.254387
2577.55	-0.167265
2578.92	0.32058
2580.29	-0.298829
2581.66	0.0214367
2583.02	0.250299
2584.39	-0.0972242
2585.76	-0.262831
2587.13	-0.109996
2588.49	0.179421
2589.86	0.0294533
2591.22	-0.105453
2592.59	0.289507
2593.96	0.0169296
2595.32	-0.0748625
2596.69	0.331821
2598.05	0.268224
2599.42	0.219378
2600.78	0.0951366
2602.14	-0.0284357
2603.51	0.060173
2604.87	0.345508
2606.23	-0.18369
2607.6	0.252244
2608.96	0.0840359
2610.32	0.170784
2611.69	-0.135351
2613.05	0.219408
2614.41	-0.0883389
2615.77	-0.200679
2617.13	0.436988
2618.49	-0.0491943
2619.86	0.12476
2621.22	0.299246
2622.58	0.0855818
2623.94	0.260723
2625.3	-0.0568542
2626.66	0.252067
2628.02	0.157843
2629.37	-0.264154
2630.73	0.192113
2632.09	-0.0660639
2633.45	0.00293159
2634.81	-0.0914774
2636.17	0.348139
2637.53	0.149835
2638.88	0.233234
2640.24	-0.260335
2641.6	0.341133
2642.96	0.454521
2644.31	-0.0668592
2645.67	0.0910587
2647.02	-0.105469
2648.38	0.389898
2649.74	0.515586
2651.09	-0.0654345
2652.45	0.176815
2653.8	0.374771
2655.16	0.441236
2656.51	-0.311383
2657.86	-0.315228
2659.22	-0.113307
2660.57	0.264337
2661.93	0.232278
2663.28	0.199624
2664.63	0.0493584
2665.98	0.248541
2667.34	0.257412
2668.69	0.0914068
2670.04	0.275165
2671.39	0.255665
2672.75	-0.228082
2674.09	0.218847
2675.45	0.215971
2676.8	0.0541344
2678.15	0.0816803
2679.5	0.052104
2680.85	0.168638
2682.2	-0.191983
2683.55	0.420132
2684.9	0.235857
2686.25	0.0955477
2687.6	0.158252
2688.94	-0.114158
2690.29	-0.039958
2691.64	0.0903378
2692.99	0.392991
2694.34	0.389731
2695.68	0.284783
2697.03	-0.311931
2698.38	-0.226242
2699.73	0.41137
2701.07	0.312404
2702.42	0.244051
2703.76	0.640532
2705.11	0.29863
2706.45	-0.290092
2707.8	0.237713
2709.15	-0.0183592
2710.49	0.160615
2711.83	0.412057
2713.18	0.154918
2714.52	0.0865126
2715.87	0.308803
2717.21	0.138395
2718.55	0.127652
2719.9	0.553049
2721.24	0.585165
2722.58	0.238325
2723.93	0.327583
2725.27	-0.00574398
2726.61	-0.237572
2727.95	-0.105851
2729.29	0.0692482
2730.63	0.418758
2731.98	0.637207
2733.32	0.230181
2734.66	0.405257
2736	0.900519
2737.34	0.421455
2738.68	0.524158
2740.02	0.379375
2741.36	0.277736
2742.7	0.349882
2744.03	0.0724325
2745.37	0.506354
2746.71	0.634495
2748.05	0.0800753
2749.39	0.556334
2750.72	0.104207
2752.06	0.551582
2753.4	0.21629
2754.74	0.50441
2756.07	0.271091
2757.41	0.255282
2758.75	0.514809
2760.08	0.282563
2761.42	0.181174
2762.76	0.442083
2764.09	0.385012
2765.42	0.11093
2766.76	0.03897
2768.09	0.255357
2769.43	0.238892
2770.76	0.322013
2772.1	0.158016
2773.43	0.195144
2774.76	-0.186507
2776.1	0.0806398
2777.43	0.290141
2778.76	-0.4636
2780.1	0.135151
2781.43	0.115922
2782.76	-0.0610447
2784.09	-0.409931
2785.42	0.130228
2786.75	0.0539684
2788.09	0.0499058
2789.42	0.189758
2790.75	-0.298833
2792.08	0.000133514
2793.41	0.113626
2794.74	-0.201622
2796.07	0.140217
2797.4	0.524125
2798.73	-0.120914
2800.06	0.290258
2801.39	0.272794
2802.71	0.0555258
2804.04	-0.304301
2805.37	0.404033
2806.7	0.157188
2808.03	0.222901
2809.35	-0.0956917
2810.68	-0.0871601
2812.01	-0.0354586
2813.33	0.173378
2814.66	0.142563
2815.99	0.411011
2817.31	-0.538277
2818.64	0.171436
2819.96	0.243377
2821.29	0.258154
2822.61	0.498941
2823.94	0.0447054
2825.26	0.0718803
2826.59	0.0990763
2827.91	0.466603
2829.23	0.749702
2830.56	0.056531
2831.88	0.35455
2833.21	0.411867
2834.53	0.822694
2835.85	0.511138
2837.17	0.298144
2838.5	0.495005
2839.82	0.366262
2841.14	0.619417
2842.46	1.2404
2843.78	1.2259
2845.1	1.66444
2846.42	1.29815
2847.74	1.48345
2849.06	1.68295
2850.38	1.9104
2851.71	1.69916
2853.03	1.77001
2854.34	2.13715
2855.66	1.99532
2856.98	2.02304
2858.3	2.20617
2859.62	2.16327
2860.94	2.38849
2862.26	2.38738
2863.57	2.62579
2864.89	2.62388
2866.21	2.66426
2867.53	2.64848
2868.84	3.0562
2870.16	3.14001
2871.48	2.98438
2872.79	3.02581
2874.11	3.24957
2875.42	3.54242
2876.74	3.31283
2878.05	3.50464
2879.37	3.5271
2880.68	3.71856
2882	3.7
2883.31	3.51416
2884.63	3.68059
2885.94	3.66517
2887.26	3.41127
2888.57	3.45167
2889.88	3.68755
2891.19	4.03446
2892.51	3.79167
2893.82	3.78704
2895.13	3.41874
2896.44	4.03143
2897.76	3.76336
2899.07	3.97229
2900.38	3.73443
2901.69	3.97277
2903	4.08543
2904.31	4.0304
2905.62	4.12953
2906.93	4.06143
2908.24	4.28798
2909.55	4.69744
2910.86	4.9398
2912.17	4.83234
2913.48	4.56999
2914.79	5.11807
2916.1	5.51013
2917.41	5.27036
2918.71	5.53319
2920.02	5.58581
2921.33	5.49931
2922.64	5.49814
2923.94	5.51254
2925.25	6.01751
2926.56	6.38348
2927.86	5.89681
2929.17	5.92692
2930.48	5.92844
2931.78	5.78959
2933.09	5.6784
2934.39	5.9725
2935.7	6.04307
2937	5.89021
2938.31	5.98911
2939.61	5.96255
2940.92	5.53133
2942.22	5.46435
2943.53	5.44064
2944.83	5.29262
2946.13	4.92209
2947.43	4.94372
2948.74	4.65722
2950.04	4.63532
2951.34	3.99534
2952.64	4.51547
2953.95	4.16589
2955.25	4.29186
2956.55	4.25073
2957.85	4.11378
2959.15	4.04972
2960.45	4.08669
2961.75	4.15403
2963.05	3.80156
2964.35	3.64458
2965.65	3.64039
2966.95	3.66249
2968.25	3.37382
2969.55	3.74502
2970.85	3.42702
2972.15	3.46089
2973.45	3.4248
2974.75	3.12124
2976.05	2.95767
2977.34	3.14469
2978.64	3.00599
2979.94	2.66829
2981.24	2.75146
2982.53	2.67915
2983.83	2.8462
2985.13	2.10076
2986.42	2.36902
2987.72	2.34375
2989.01	2.01043
2990.31	2.21144
2991.61	1.84978
2992.9	1.83833
2994.19	1.74119
2995.49	1.71305
2996.78	1.54367
2998.08	1.0093
2999.37	1.20503
3000.67	0.784179
3001.96	1.0931
3003.25	1.17807
3004.55	1.09499
3005.84	0.983667
3007.13	0.605789
3008.42	0.856975
3009.72	0.799268
3011.01	0.461343
3012.3	0.598125
3013.59	0.56723
3014.88	0.801647
3016.17	0.521017
3017.46	0.909807
3018.76	0.70038
3020.05	0.755509
3021.34	0.573801
3022.63	0.405287
3023.92	0.707785
3025.21	-0.141897
3026.49	0.242486
3027.78	0.322134
3029.07	0.388948
3030.36	0.208537
3031.65	0.181799
3032.94	0.446118
3034.23	0.476009
3035.51	0.49152
3036.8	0.519382
3038.09	0.37991
3039.38	0.156049
3040.66	0.164637
3041.95	0.391773
3043.23	0.412533
3044.52	0.33826
3045.81	0.361601
3047.09	0.236936
3048.38	0.688365
3049.66	0.609477
3050.95	0.327718
3052.23	0.115149
3053.52	0.407484
3054.8	0.385285
3056.09	0.266479
3057.37	0.132929
3058.65	0.393728
3059.94	0.422391
3061.22	0.383312
3062.5	0.399668
3063.79	0.743789
3065.07	0.708794
3066.35	0.349086
3067.63	0.343935
3068.92	0.298415
3070.2	0.41581
3071.48	0.369078
3072.76	0.253019
3074.04	0.0676718
3075.32	0.0716553
3076.6	0.0480566
3077.88	0.147003
3079.16	0.0162849
3080.44	0.307703
3081.72	0.0852585
3083	0.0133657
3084.28	-0.424182
3085.56	0.142467
3086.84	-0.0512953
3088.12	-0.0558214
3089.4	0.128899
3090.67	-0.0126419
3091.95	0.0627394
3093.23	-0.200887
3094.51	-0.179343
3095.78	0.00516224
3097.06	0.271009
3098.34	-0.00547886
3099.61	0.0296335
3100.89	0.335525
3102.17	-0.117114
3103.44	0.0264482
3104.72	0.224579
3105.99	-0.0908885
3107.27	0.230666
3108.54	-0.218102
3109.82	0.0244226
3111.09	-0.232899
3112.37	0.0657296
3113.64	0.148225
3114.92	0.217208
3116.19	0.122998
3117.46	0.407557
3118.74	0.284065
3120.01	0.186457
3121.28	0.155629
3122.55	-0.146914
3123.83	-0.151443
3125.1	0.250357
3126.37	0.801126
3127.64	-0.12264
3128.91	0.564217
3130.19	0.0746884
3131.46	0.0586267
3132.73	0.380223
3134	0.147361
3135.27	0.238124
3136.54	0.274156
3137.81	0.201689
3139.08	0.411774
3140.35	0.298232
3141.62	0.346256
3142.89	0.0451121
3144.16	0.2551
3145.42	0.451941
3146.69	0.327446
3147.96	0.592312
3149.23	0.0540919
