200.523	-0.0722809
202.339	-0.0343418
204.154	0.00608826
205.967	0.363808
207.781	1.30464
209.596	1.39271
211.409	0.555172
213.222	0.56525
215.034	0.694132
216.848	0.43358
218.659	0.851168
220.47	0.349199
222.281	0.695683
224.091	0.946299
225.903	0.714018
227.713	0.674831
229.522	0.441389
231.331	0.954914
233.14	1.73237
234.948	1.15916
236.756	1.09462
238.566	0.407078
240.373	0.928926
242.18	1.45484
243.986	1.28372
245.792	1.4498
247.598	0.936653
249.403	0.635223
251.208	1.5349
253.013	1.29424
254.818	0.350689
256.624	0.588482
258.427	0.248909
260.231	1.21326
262.034	0.759346
263.836	0.862337
265.638	1.52124
267.44	0.807026
269.242	1.99602
271.043	0.820848
272.844	1.45134
274.645	1.23505
276.445	0.677996
278.245	1.10553
280.044	0.926537
281.843	0.936226
283.642	1.15859
285.44	1.40164
287.238	0.274534
289.036	0.803841
290.833	0.662651
292.63	0.428232
294.425	0.292507
296.221	0.231182
298.017	0.649675
299.813	0.734156
301.608	2.06003
303.403	1.68798
305.198	0.788673
306.992	1.03322
308.786	-0.558506
310.579	0.401606
312.371	0.529402
314.163	0.779173
315.956	0.984673
317.748	1.00302
319.54	0.78598
321.331	1.2621
323.122	0.714672
324.911	0.0957432
326.701	0.120882
328.491	0.5756
330.281	0.0732632
332.071	0.500937
333.857	-0.318523
335.646	0.70031
337.434	0.661964
339.222	0.236826
341.008	-0.0475178
342.795	0.503443
344.582	-0.0213947
346.369	-0.0911446
348.153	1.03426
349.939	1.03802
351.724	0.445093
353.51	0.734182
355.292	-0.219362
357.077	1.28118
358.861	0.775858
360.643	-0.493118
362.426	-0.358099
364.21	0.58367
365.99	-0.140459
367.773	0.844025
369.555	-0.14307
371.335	0.646605
373.116	0.983616
374.897	0.279341
376.676	-0.116346
378.456	-0.0857983
380.236	0.34683
382.014	0.357275
383.793	0.205507
385.57	-0.13166
387.349	-0.207747
389.127	0.399546
390.903	0.609194
392.681	-0.118969
394.456	0.210896
396.233	0.729391
398.007	1.06027
399.784	0.780205
401.56	-0.0879059
403.333	0.757414
405.108	0.567846
406.881	0.611746
408.656	1.33535
410.428	0.720133
412.202	0.128763
413.973	0.218954
415.746	0.146317
417.517	-0.0185642
419.29	-0.510736
421.06	0.640438
422.831	0.336115
424.601	-0.251291
426.37	-0.0891781
428.141	0.376572
429.909	-0.332224
431.679	-0.0785713
433.447	-0.45793
435.216	0.524664
436.983	0.638922
438.75	-0.116493
440.519	0.697645
442.285	0.874079
444.052	0.506859
445.818	-0.472498
447.583	0.0219955
449.349	-0.186705
451.114	-0.651733
452.878	0.0285091
454.643	-0.201529
456.407	-0.244711
458.169	0.503738
459.934	-0.191484
461.696	0.673744
463.458	-0.43434
465.222	0.623997
466.983	-0.0315495
468.744	0.0385399
470.507	0.437994
472.267	-0.184719
474.027	0.145092
475.787	0.0293026
477.548	0.328636
479.307	0.0654278
481.065	0.802011
482.823	0.141518
484.583	-0.0972729
486.341	0.692825
488.098	0.508978
489.855	0.748991
491.612	0.151232
493.37	0.441763
495.126	-0.202148
496.881	0.955215
498.636	-0.533449
500.391	0.132013
502.148	-0.0709743
503.902	0.593172
505.656	0.245373
507.409	0.411901
509.162	0.222731
510.915	0.218622
512.668	-0.000307083
514.42	-0.316183
516.174	-0.352234
517.925	0.00930786
519.676	0.251177
521.427	0.867353
523.178	0.918446
524.928	0.147686
526.678	0.151926
528.427	0.507999
530.176	-0.308113
531.925	0.538816
533.673	0.634195
535.422	0.423073
537.169	0.51334
538.917	0.0170498
540.664	0.615559
542.411	-0.116451
544.157	0.315788
545.903	0.886427
547.649	0.156561
549.395	-0.501478
551.14	0.0928478
552.884	0.408768
554.629	0.608973
556.373	0.740185
558.117	0.480036
559.86	0.382774
561.603	0.148827
563.346	0.468542
565.089	0.398365
566.831	-0.0148354
568.573	0.745007
570.314	0.175493
572.053	-0.275976
573.794	0.239542
575.534	0.758785
577.274	0.272152
579.014	-0.39566
580.754	0.085928
582.493	0.0857239
584.23	0.314423
585.968	-0.539619
587.706	0.259764
589.444	0.228827
591.181	-0.126009
592.919	-0.228703
594.653	0.450666
596.39	-0.296228
598.126	-0.21484
599.862	-0.134085
601.595	0.589163
603.33	0.757643
605.065	-0.111441
606.8	0.0976391
608.532	-0.223167
610.266	-0.520836
611.999	-0.128986
613.732	-0.331932
615.463	0.635584
617.196	0.892582
618.928	0.621635
620.66	-0.269268
622.389	0.71423
624.12	-0.476902
625.851	-0.112919
627.58	0.184414
629.31	-0.678289
631.04	0.860041
632.767	0.599947
634.497	-1.21
636.223	0.174692
637.952	0.483212
639.68	-0.172363
641.406	0.489597
643.134	1.07729
644.861	-0.546984
646.586	0.380142
648.312	0.286896
650.037	0.427568
651.762	0.189922
653.486	-0.244364
655.211	0.351236
656.936	-0.368111
658.659	0.417454
660.383	0.564911
662.105	0.640888
663.829	0.712248
665.55	0.961607
667.273	0.498283
668.994	0.284958
670.716	0.50786
672.436	0.68922
674.158	1.10492
675.877	0.906914
677.598	0.504688
679.317	0.49242
681.035	1.30577
682.755	-0.206985
684.473	1.68106
686.192	0.549877
687.909	0.727777
689.628	1.11085
691.344	0.686275
693.06	0.490799
694.778	0.731441
696.493	0.233158
698.211	0.60751
699.925	1.09412
701.64	0.887972
703.356	0.795031
705.07	0.953457
706.783	0.605736
708.498	0.349428
710.211	0.459423
711.924	0.934811
713.638	0.882675
715.35	1.26448
717.061	1.25741
718.774	0.680302
720.485	0.719982
722.196	1.26091
723.906	0.68623
725.618	1.08977
727.328	1.56019
729.037	1.28011
730.746	1.45304
732.456	0.198086
734.165	1.16248
735.873	1.65047
737.58	1.07708
739.289	2.06273
740.997	1.44848
742.703	1.1981
744.41	1.22101
746.116	1.20183
747.823	1.68046
749.529	2.18421
751.234	1.92592
752.938	1.69291
754.643	2.29516
756.347	1.59562
758.051	1.97952
759.756	2.09656
761.459	1.49463
763.162	2.49492
764.865	1.98322
766.567	1.60402
768.269	2.26051
769.97	2.61899
771.671	2.40796
773.372	2.64624
775.073	1.77565
776.773	2.28554
778.473	2.52683
780.174	2.206
781.874	2.747
783.573	2.02126
785.271	2.44723
786.97	2.30245
788.668	2.89799
790.365	3.68965
792.063	2.93753
793.76	2.09305
795.456	1.79104
797.153	2.50565
798.847	2.09657
800.543	2.43446
802.238	3.2474
803.933	2.30694
805.628	2.89549
807.322	2.71784
809.017	3.43612
810.71	3.85922
812.404	3.04641
814.097	3.42114
815.79	2.98882
817.483	3.78732
819.173	3.66838
820.865	3.21503
822.556	4.01271
824.248	3.71849
825.939	3.60603
827.629	2.94152
829.318	3.419
831.008	3.36843
832.697	3.25707
834.387	3.10551
836.076	3.49119
837.765	4.39016
839.451	2.58559
841.139	2.87591
842.827	3.61042
844.514	1.97552
846.2	2.59886
847.886	3.11453
849.573	1.77886
851.259	2.17056
852.943	2.79102
854.629	3.28004
856.314	2.42187
857.997	1.94184
859.682	2.0651
861.366	2.77023
863.05	2.32375
864.732	2.00941
866.415	1.96347
868.098	2.25441
869.779	2.25132
871.461	2.11219
873.141	3.23599
874.823	2.91583
876.505	1.71546
878.184	2.90721
879.865	2.45119
881.545	2.51347
883.223	2.12268
884.903	2.81311
886.581	2.28158
888.26	2.31102
889.937	2.42728
891.616	0.850002
893.294	1.79437
894.97	1.33979
896.648	2.81696
898.323	2.06594
900	2.16685
901.675	1.84018
903.351	1.35645
905.026	2.2591
906.701	2.93673
908.375	1.76381
910.05	1.39699
911.723	1.74463
913.398	1.35956
915.07	1.46439
916.742	1.5469
918.415	1.09719
920.087	2.1984
921.76	1.75028
923.43	1.83579
925.103	1.54901
926.773	1.20011
928.443	1.27423
930.114	1.57144
931.783	1.56101
933.454	1.88199
935.123	2.48997
936.791	1.04761
938.461	1.19507
940.128	0.992111
941.796	1.87247
943.464	0.989389
945.131	1.62842
946.797	1.73545
948.465	1.06602
950.131	1.05493
951.797	0.423649
953.462	1.55729
955.128	1.03984
956.793	0.351664
958.457	0.993151
960.121	1.24354
961.786	2.07167
963.45	1.44165
965.113	1.58132
966.775	1.56058
968.44	-0.0370007
970.102	1.56928
971.763	0.629612
973.425	0.819088
975.086	0.768219
976.748	-0.0973206
978.409	0.367016
980.069	0.556244
981.729	0.74469
983.388	1.00788
985.048	1.66551
986.708	2.05293
988.367	0.400896
990.025	0.93692
991.683	0.520735
993.341	0.745178
994.998	0.108643
996.655	0.267221
998.312	0.403471
999.969	0.583113
1001.62	0.497425
1003.28	1.55526
1004.94	0.741703
1006.59	0.632193
1008.25	0.325451
1009.9	0.919439
1011.56	0.811762
1013.21	0.551702
1014.86	0.993608
1016.52	-0.0746574
1018.17	0.828379
1019.82	0.682423
1021.48	-0.0297604
1023.13	0.440948
1024.78	0.257746
1026.43	0.403475
1028.08	1.16092
1029.73	1.06477
1031.38	1.42467
1033.03	0.754873
1034.68	1.28224
1036.33	0.170897
1037.98	-0.243343
1039.63	-0.722395
1041.28	0.257832
1042.93	0.217718
1044.57	0.528788
1046.22	0.452576
1047.87	-0.358177
1049.52	0.398022
1051.16	0.722427
1052.81	0.331633
1054.45	0.593267
1056.1	0.246387
1057.75	0.463951
1059.39	0.376143
1061.04	0.460918
1062.68	0.196148
1064.32	0.538269
1065.97	-0.0566711
1067.61	0.215752
1069.25	0.290476
1070.9	0.14662
1072.54	0.58868
1074.18	0.250246
1075.82	-0.0858459
1077.47	0.578432
1079.11	0.724611
1080.75	0.872292
1082.39	0.889755
1084.03	0.363237
1085.67	0.397102
1087.31	1.07671
1088.95	-0.803864
1090.59	-0.262022
1092.22	0.838528
1093.86	0.3811
1095.5	0.377996
1097.14	0.398109
1098.78	0.981005
1100.41	1.0502
1102.05	-0.210789
1103.69	0.189054
1105.32	-0.677691
1106.96	0.543037
1108.59	0.364981
1110.23	-0.0948486
1111.86	0.259069
1113.5	0.30855
1115.13	-0.288607
1116.77	0.143494
1118.4	-0.389423
1120.03	-0.127644
1121.67	0.13583
1123.3	1.2145
1124.93	0.261887
1126.56	0.573565
1128.19	0.37348
1129.83	0.709421
1131.46	-0.0652466
1133.09	1.19162
1134.72	-0.0316181
1136.35	-0.0590878
1137.98	0.295877
1139.61	0.648066
1141.24	-0.43257
1142.86	0.343241
1144.49	-0.0331612
1146.12	0.615482
1147.75	0.711527
1149.38	0.148878
1151	-0.923737
1152.63	-0.0367832
1154.26	-0.385792
1155.88	0.307394
1157.51	0.382862
1159.14	-0.0514069
1160.76	-0.313585
1162.39	0.106955
1164.01	-0.150881
1165.63	0.123814
1167.26	-0.346273
1168.88	-0.138233
1170.51	0.278727
1172.13	-0.349678
1173.75	0.738607
1175.38	0.18922
1177	-0.275614
1178.62	0.277403
1180.24	1.02151
1181.86	-0.137205
1183.48	-0.510994
1185.1	0.594645
1186.72	-0.330204
1188.34	0.409595
1189.96	0.469408
1191.58	0.0829239
1193.2	-0.473944
1194.82	0.16568
1196.44	0.761648
1198.06	-0.149437
1199.68	0.534668
1201.29	0.908995
1202.91	0.0148563
1204.53	0.00361824
1206.14	-0.0658207
1207.76	0.910524
1209.38	0.719006
1210.99	0.421459
1212.61	0.0787125
1214.22	0.835958
1215.84	0.879459
1217.45	0.877361
1219.07	0.852335
1220.68	-0.00319672
1222.29	0.305731
1223.91	0.865341
1225.52	1.65504
1227.13	0.108809
1228.74	0.904234
1230.36	1.28819
1231.97	0.992384
1233.58	1.67068
1235.19	1.17354
1236.8	1.19569
1238.41	1.36474
1240.02	1.51461
1241.63	0.299778
1243.24	1.48352
1244.85	0.783041
1246.46	0.514799
1248.07	1.1135
1249.67	0.531183
1251.28	0.568983
1252.89	0.772739
1254.5	0.295422
1256.1	1.16484
1257.71	1.60264
1259.32	0.946404
1260.92	1.32664
1262.53	1.16973
1264.13	1.98636
1265.74	1.22773
1267.34	1.15108
1268.95	1.01017
1270.55	1.30242
1272.15	0.866726
1273.76	1.38256
1275.36	0.548777
1276.97	1.86851
1278.57	1.85987
1280.17	1.04235
1281.77	1.3632
1283.37	1.51853
1284.97	1.42676
1286.58	1.60574
1288.18	1.04283
1289.78	0.998678
1291.38	0.397671
1292.98	1.49078
1294.58	1.7763
1296.18	1.1708
1297.78	1.5738
1299.37	1.58079
1300.97	1.19279
1302.57	1.29712
1304.17	1.19339
1305.77	1.6845
1307.36	1.84492
1308.96	1.92226
1310.55	0.708467
1312.15	1.77028
1313.75	2.23854
1315.34	1.80912
1316.94	2.21954
1318.53	2.38574
1320.13	0.981636
1321.72	1.71653
1323.32	2.467
1324.91	2.15507
1326.5	1.13032
1328.1	1.66806
1329.69	1.84119
1331.28	1.47145
1332.87	1.79422
1334.47	2.08102
1336.06	1.42259
1337.65	1.00804
1339.24	1.74137
1340.83	1.66438
1342.42	0.556646
1344.01	1.65797
1345.6	1.75066
1347.19	2.14427
1348.78	2.02008
1350.37	1.52135
1351.96	1.94891
1353.54	1.68084
1355.13	1.29587
1356.72	1.39144
1358.31	1.22631
1359.89	0.580006
1361.48	1.30915
1363.07	1.2578
1364.65	1.0463
1366.24	2.03102
1367.82	1.40352
1369.41	0.759354
1370.99	1.21317
1372.58	0.993286
1374.16	0.65646
1375.75	1.65423
1377.33	1.85629
1378.91	0.425522
1380.5	0.843174
1382.08	0.760586
1383.66	0.436659
1385.25	0.886087
1386.83	1.7911
1388.41	0.372324
1389.99	1.35797
1391.57	1.33291
1393.15	0.793823
1394.73	0.51362
1396.31	0.510746
1397.89	0.585649
1399.47	0.658375
1401.05	0.511166
1402.63	0.738981
1404.21	1.18414
1405.78	0.52272
1407.36	0.812456
1408.94	0.471561
1410.52	1.0208
1412.1	0.621794
1413.67	0.37969
1415.25	0.254253
1416.82	-0.286924
1418.4	0.354269
1419.98	2.21684
1421.55	0.417765
1423.13	0.650833
1424.7	1.39907
1426.28	1.44142
1427.85	0.914148
1429.42	1.13419
1431	1.23417
1432.57	1.31197
1434.14	1.05324
1435.71	1.38375
1437.29	1.93083
1438.86	1.69304
1440.43	1.51655
1442	1.06706
1443.57	1.5035
1445.14	1.92117
1446.71	2.16242
1448.28	1.63745
1449.85	1.7225
1451.42	1.82828
1452.99	1.48298
1454.56	1.68914
1456.13	1.30503
1457.7	2.10013
1459.26	1.37719
1460.83	1.57545
1462.4	1.43514
1463.97	1.52736
1465.54	0.968592
1467.1	1.52939
1468.67	0.990978
1470.23	1.43625
1471.8	0.157364
1473.36	0.587751
1474.93	0.725494
1476.49	0.275904
1478.06	0.885319
1479.62	-0.034483
1481.19	0.868517
1482.75	1.33998
1484.31	0.77257
1485.88	0.968586
1487.44	0.22275
1489	0.394703
1490.56	0.71904
1492.13	0.334364
1493.69	0.25823
1495.25	0.841703
1496.81	0.194017
1498.37	0.28693
1499.93	-0.0855618
1501.49	-0.0277748
1503.05	0.265121
1504.61	0.0168896
1506.17	0.311636
1507.73	0.817215
1509.28	0.604702
1510.84	0.139309
1512.4	-0.73143
1513.96	-0.00336456
1515.52	0.223555
1517.07	0.566416
1518.63	0.450024
1520.19	0.603386
1521.74	-0.257202
1523.3	-0.0272064
1524.85	0.486904
1526.41	0.4828
1527.96	0.381474
1529.52	0.75462
1531.07	-0.145367
1532.63	0.588879
1534.18	0.887678
1535.73	0.715242
1537.29	0.280846
1538.84	1.0568
1540.39	0.8139
1541.94	0.967289
1543.5	0.724962
1545.05	0.952724
1546.6	1.7618
1548.15	0.655132
1549.7	0.0755196
1551.25	1.66949
1552.8	0.792377
1554.35	1.05909
1555.9	0.264015
1557.45	0.817717
1559	0.293074
1560.55	0.686943
1562.1	0.076889
1563.65	0.569916
1565.19	0.896372
1566.74	1.07386
1568.29	1.1949
1569.83	1.10984
1571.38	1.39731
1572.93	1.27351
1574.47	0.794775
1576.02	1.90287
1577.56	0.920702
1579.11	0.704834
1580.66	1.49862
1582.2	2.20111
1583.74	1.50476
1585.29	2.00574
1586.83	0.956423
1588.38	2.07628
1589.92	1.06342
1591.46	1.82718
1593.01	1.24223
1594.55	0.881104
1596.09	1.66283
1597.63	1.04034
1599.17	2.27516
1600.71	1.67431
1602.25	1.8622
1603.79	1.44933
1605.34	1.26001
1606.88	1.46223
1608.41	1.69785
1609.95	1.38337
1611.49	1.1767
1613.03	1.13499
1614.57	1.84128
1616.11	1.4205
1617.65	0.75771
1619.18	0.285555
1620.72	0.828297
1622.26	1.35497
1623.79	0.329409
1625.33	2.05581
1626.87	0.242828
1628.4	1.64597
1629.94	1.39939
1631.48	1.61805
1633.01	0.453526
1634.55	1.41908
1636.08	0.743601
1637.61	0.947268
1639.15	1.05892
1640.68	1.33831
1642.21	1.31808
1643.75	1.38859
1645.28	1.3634
1646.81	0.983
1648.34	1.62451
1649.88	1.02201
1651.41	1.40595
1652.94	1.25436
1654.47	1.10535
1656	1.34705
1657.53	1.58843
1659.06	1.36493
1660.59	1.19436
1662.12	1.61288
1663.65	0.660496
1665.18	1.40767
1666.71	0.954975
1668.24	1.64873
1669.76	0.944147
1671.29	1.90168
1672.82	1.8664
1674.35	1.59277
1675.87	0.968962
1677.4	0.803932
1678.93	1.35416
1680.45	0.449139
1681.98	0.921661
1683.5	1.08078
1685.03	0.983013
1686.55	0.427729
1688.08	-0.0342674
1689.6	0.824026
1691.13	0.967947
1692.65	-0.0592747
1694.17	0.816673
1695.7	-0.0819035
1697.22	0.225883
1698.74	0.532619
1700.27	0.673836
1701.79	0.266649
1703.31	-0.250519
1704.83	0.816185
1706.35	0.242708
1707.87	0.269535
1709.39	-0.157896
1710.91	0.105232
1712.43	0.277681
1713.95	-0.0389309
1715.47	-0.354845
1716.99	0.0169563
1718.51	-0.280769
1720.03	0.234449
1721.55	0.2621
1723.07	0.0926952
1724.58	-0.128296
1726.1	-0.382164
1727.62	-0.128944
1729.13	1.02597
1730.65	0.365961
1732.17	0.142109
1733.68	0.0868511
1735.2	-0.063448
1736.72	0.231258
1738.23	-0.036499
1739.74	0.180416
1741.26	-0.402992
1742.77	-0.276222
1744.29	0.293215
1745.8	0.756729
1747.32	0.183567
1748.83	0.408735
1750.34	-0.0344219
1751.85	-0.664454
1753.37	-0.0901966
1754.88	0.341009
1756.39	-0.320316
1757.9	-0.120356
1759.41	0.519073
1760.92	-0.121588
1762.44	-0.0444756
1763.95	-0.130566
1765.46	0.177858
1766.96	0.667982
1768.47	-0.17655
1769.98	0.460617
1771.49	0.311777
1773	-0.0887737
1774.51	-0.026453
1776.02	0.50338
1777.53	-0.078083
1779.03	0.209324
1780.54	0.361076
1782.05	-0.0236645
1783.55	0.386322
1785.06	0.0744019
1786.57	0.0296021
1788.07	0.265844
1789.58	0.23737
1791.08	-0.0494328
1792.59	0.145226
1794.09	0.0288391
1795.6	-0.0970383
1797.1	0.0352173
1798.61	0.133163
1800.11	0.280628
1801.61	-0.206663
1803.12	0.347994
1804.62	0.307568
1806.12	0.0176754
1807.62	0.242495
1809.12	-0.299692
1810.63	0.0782394
1812.13	-0.0465641
1813.63	-0.0741234
1815.13	0.306255
1816.63	-0.0529919
1818.13	0.700148
1819.63	0.0965767
1821.13	0.0131149
1822.63	0.146898
1824.13	0.0447598
1825.63	-0.18486
1827.13	0.291946
1828.62	0.0914478
1830.12	0.142485
1831.62	0.120733
1833.12	0.360264
1834.61	0.153898
1836.11	-0.0398712
1837.61	-0.0852852
1839.1	0.234716
1840.6	-0.163397
1842.09	0.255119
1843.59	-0.202347
1845.09	-0.361536
1846.58	-0.0681248
1848.08	0.627213
1849.57	0.086338
1851.06	-0.330173
1852.56	0.219511
1854.05	0.236292
1855.54	-0.38415
1857.04	0.557642
1858.53	-0.0426521
1860.02	0.251637
1861.51	-0.151552
1863.01	0.3542
1864.5	0.327356
1865.99	0.0989895
1867.48	0.574308
1868.97	0.220518
1870.46	0.499933
1871.95	0.577904
1873.44	0.0939217
1874.93	0.504484
1876.42	0.542353
1877.91	-0.301941
1879.4	-0.102201
1880.89	-0.322439
1882.37	0.151646
1882.46	0.183315
1883.95	-0.0223808
1885.45	0.0491314
1886.94	-0.125267
1888.43	0.151932
1889.93	0.0638351
1891.42	0.204132
1892.91	0.0176773
1894.41	-0.0428047
1895.9	0.369801
1897.39	0.384604
1898.88	0.294918
1900.37	0.446524
1901.86	0.0551319
1903.36	0.251123
1904.85	0.443602
1906.34	0.147505
1907.83	0.355196
1909.32	-0.199663
1910.81	-0.109943
1912.29	0.189985
1913.78	0.404434
1915.27	0.358984
1916.76	0.538219
1918.25	0.00551414
1919.74	0.165163
1921.23	0.393749
1922.71	0.207523
1924.2	-0.409437
1925.69	0.326603
1927.17	-0.198658
1928.66	0.870449
1930.15	0.156239
1931.63	0.0289555
1933.12	0.487186
1934.6	0.231447
1936.09	0.335392
1937.57	-0.220612
1939.06	0.156071
1940.54	0.204786
1942.02	-0.0897942
1943.51	0.532583
1944.99	0.311562
1946.47	-0.287628
1947.96	0.595213
1949.44	-0.0402031
1950.92	0.218079
1952.4	0.456747
1953.88	0.453012
1955.37	0.242849
1956.85	0.480326
1958.33	0.118382
1959.81	0.0672989
1961.29	0.0175457
1962.77	-0.271627
1964.25	-0.612314
1965.73	0.296377
1967.21	-0.252232
1968.69	-0.664814
1970.16	0.152565
1971.64	0.114149
1973.12	0.143923
1974.6	0.122707
1976.08	0.442822
1977.55	0.217859
1979.03	0.401966
1980.51	-0.230705
1981.98	0.378023
1983.46	0.203875
1984.94	0.0122604
1986.41	0.159599
1987.89	0.154127
1989.36	0.386433
1990.84	-0.141626
1992.31	-0.954493
1993.79	0.0614414
1995.26	0.14893
1996.73	0.304966
1998.21	-0.164
1999.68	0.0586338
2001.15	0.48225
2002.63	0.179073
2004.1	0.280445
2005.57	0.0791302
2007.04	-0.221455
2008.51	-0.0987949
2009.99	0.0762291
2011.46	0.302917
2012.93	0.445557
2014.4	-0.0690517
2015.87	0.104685
2017.34	0.730404
2018.81	-0.0583858
2020.28	0.210886
2021.75	0.0260983
2023.21	0.177879
2024.68	-0.256008
2026.15	0.168406
2027.62	0.210068
2029.09	-0.717796
2030.56	0.18557
2032.02	0.31962
2033.49	0.152735
2034.96	-0.0142822
2036.42	0.405739
2037.89	0.0182648
2039.36	0.0330849
2040.82	0.720125
2042.29	0.449892
2043.75	-0.0375462
2045.22	0.603992
2046.68	0.507101
2048.14	0.191833
2049.61	0.347479
2051.07	-0.12277
2052.54	-0.124426
2054	0.426571
2055.46	0.535172
2056.93	0.573174
2058.39	0.289124
2059.85	0.274376
2061.31	0.49621
2062.77	0.7365
2064.23	0.575001
2065.7	0.685043
2067.16	0.561371
2068.62	0.708313
2070.08	-0.288626
2071.54	1.00391
2073	0.511702
2074.46	0.42293
2075.92	1.25962
2077.38	0.478836
2078.83	0.825453
2080.29	0.480619
2081.75	-0.303099
2083.21	0.0566673
2084.67	0.397818
2086.12	0.501612
2087.58	-0.0181942
2089.04	0.772438
2090.49	0.839499
2091.95	0.58733
2093.41	0.419136
2094.86	0.787239
2096.32	0.718054
2097.77	0.530245
2099.23	0.0735188
2100.68	0.402744
2102.14	0.614893
2103.59	0.661499
2105.05	0.710833
2106.5	0.462887
2107.95	0.751162
2109.41	0.0396175
2110.86	0.444283
2112.31	-0.0539494
2113.76	0.344013
2115.21	0.604797
2116.67	0.580475
2118.12	0.805933
2119.57	0.41968
2121.02	0.402943
2122.47	0.423527
2123.92	0.231676
2125.37	1.3844
2126.82	0.364489
2128.27	0.75181
2129.72	0.787964
2131.17	1.10283
2132.62	1.31621
2134.07	0.917074
2135.51	0.437311
2136.96	0.539463
2138.41	1.24035
2139.86	0.276047
2141.31	0.868759
2142.75	0.339893
2144.2	0.324823
2145.65	0.442457
2147.09	1.25496
2148.54	0.609226
2149.98	0.855883
2151.43	0.984547
2152.87	0.961969
2154.32	1.40154
2155.76	1.60806
2157.21	0.671616
2158.65	0.614599
2160.1	1.65361
2161.54	0.675064
2162.98	1.35742
2164.43	1.04845
2165.87	0.87368
2167.31	1.23018
2168.75	0.587559
2170.2	1.37095
2171.64	2.01734
2173.08	1.2289
2174.52	1.58527
2175.96	1.34147
2177.4	1.59691
2178.84	1.17217
2180.28	1.56415
2181.72	1.20979
2183.16	1.25571
2184.6	1.96753
2186.04	1.36553
2187.48	0.913074
2188.92	0.993065
2190.36	1.07303
2191.79	1.28563
2193.23	0.880735
2194.67	0.7062
2196.11	1.54338
2197.54	1.22771
2198.98	0.908684
2200.42	1.06968
2201.85	1.42923
2203.29	1.67342
2204.72	1.19002
2206.16	0.493843
2207.59	0.263275
2209.03	0.777773
2210.46	1.47227
2211.9	0.790911
2213.33	0.819593
2214.77	1.1452
2216.2	1.20741
2217.63	0.793449
2219.07	0.448402
2220.5	0.995638
2221.93	0.718809
2223.36	1.34688
2224.8	1.27987
2226.23	0.71562
2227.66	0.46113
2229.09	1.00917
2230.52	1.12776
2231.95	0.934193
2233.39	0.888891
2234.81	1.51566
2236.25	0.607977
2237.67	0.309055
2239.1	0.732281
2240.53	0.816772
2241.96	0.236317
2243.39	0.767586
2244.82	0.38628
2246.25	0.460388
2247.68	1.02055
2249.1	0.825939
2250.53	0.529072
2251.96	0.554462
2253.38	0.740553
2254.81	0.813047
2256.24	0.5961
2257.66	0.562716
2259.09	0.859684
2260.51	0.578655
2261.94	0.610991
2263.36	0.662968
2264.79	0.862036
2266.21	0.784164
2267.64	0.737074
2269.06	0.687984
2270.49	1.01153
2271.91	1.15499
2273.33	0.874641
2274.76	0.431387
2276.18	0.754124
2277.6	0.751406
2279.02	0.536875
2280.44	0.354696
2281.87	0.743031
2283.29	0.951849
2284.71	0.883394
2286.13	0.766348
2287.55	0.976521
2288.97	1.07339
2290.39	-0.0216274
2291.81	0.746534
2293.23	0.828726
2294.65	1.02546
2296.07	0.0600014
2297.49	0.911222
2298.91	0.0922432
2300.33	0.747931
2301.74	-0.234951
2303.16	0.537167
2304.58	1.01492
2306	1.01673
2307.41	0.492023
2308.83	-0.247997
2310.25	0.0790405
2311.66	0.520567
2313.08	0.863499
2314.5	0.647804
2315.91	0.762741
2317.33	0.467522
2318.74	0.552061
2320.16	1.2465
2321.57	0.0912685
2322.98	0.466377
2324.4	0.737728
2325.81	0.839235
2327.23	1.18438
2328.64	1.21425
2330.05	0.0748959
2331.46	0.535412
2332.88	0.668667
2334.29	0.704924
2335.7	0.511408
2337.11	0.399328
2338.52	0.449738
2339.94	0.957811
2341.35	0.297274
2342.76	0.374964
2344.17	0.370417
2345.58	0.382769
2346.99	0.14999
2348.4	0.768778
2349.81	0.306313
2351.22	0.464085
2352.62	1.09322
2354.03	0.169004
2355.44	0.76112
2356.85	0.357954
2358.26	0.362183
2359.67	-0.364557
2361.07	0.436125
2362.48	0.537888
2363.89	0.218102
2365.29	0.497467
2366.7	0.291729
2368.11	0.555811
2369.51	0.289152
2370.92	0.396336
2372.32	0.038908
2373.73	0.489065
2375.13	0.199232
2376.54	0.0859203
2377.94	0.0831528
2379.35	0.591452
2380.75	0.469341
2382.15	0.488819
2383.56	0.634424
2384.96	0.347179
2386.36	0.452841
2387.76	0.0812397
2389.17	0.549879
2390.57	0.446733
2391.97	0.600899
2393.37	0.486475
2394.77	0.437515
2396.17	0.231068
2397.58	0.471058
2398.98	0.426088
2400.38	0.747538
2401.78	0.434183
2403.18	-0.212479
2404.58	0.45826
2405.97	0.111029
2407.37	0.634836
2408.77	0.553827
2410.17	0.598949
2411.57	-0.195295
2412.97	0.643929
2414.37	0.551056
2415.76	0.318756
2417.16	0.263353
2418.56	0.352333
2419.95	0.838068
2421.35	0.515915
2422.75	0.731567
2424.14	0.724861
2425.54	-0.29595
2426.93	0.490686
2428.33	0.676981
2429.72	0.500587
2431.12	0.547651
2432.51	0.261736
2433.91	0.133362
2435.3	0.479273
2436.7	0.0914249
2438.09	0.304184
2439.48	0.323603
2440.88	0.642809
2442.27	0.65901
2443.66	0.515884
2445.05	0.324903
2446.44	0.228884
2447.84	0.180199
2449.23	0.685921
2450.62	0.352451
2452.01	-0.660305
2453.4	0.0379848
2454.79	0.421253
2456.18	0.204731
2457.57	0.16292
2458.96	0.184105
2460.35	0.378113
2461.74	0.412306
2463.13	0.365807
2464.52	0.397112
2465.91	0.459318
2467.29	0.39496
2468.68	0.488331
2470.07	0.612751
2471.46	0.263235
2472.85	1.04699
2474.23	0.757614
2475.62	0.498737
2477.01	0.412363
2478.39	-0.0352364
2479.78	-0.105185
2481.16	0.123236
2482.55	0.429527
2483.93	0.0612431
2485.32	0.145447
2486.7	0.602186
2488.09	0.337778
2489.47	-0.0522346
2490.86	0.492306
2492.24	-0.518084
2493.62	0.401405
2495.01	-0.120998
2496.39	-0.0664616
2497.77	0.222078
2499.15	0.402472
2500.54	0.0560894
2501.92	0.280552
2503.3	-0.423805
2504.68	-0.0333557
2506.06	-0.199701
2507.45	-0.0122032
2508.83	-0.424503
2510.21	0.0863781
2511.59	0.167881
2512.97	0.296789
2514.35	0.365971
2515.73	0.589886
2517.11	0.310318
2518.48	0.643766
2519.86	0.197931
2521.24	-0.370106
2522.62	0.465525
2524	0.261173
2525.38	0.131868
2526.75	0.139252
2528.13	0.314754
2529.51	-0.222525
2530.89	-0.254559
2532.26	0.947519
2533.64	-0.0357628
2535.02	0.27397
2536.39	0.340605
2537.77	0.405956
2539.14	0.196001
2540.52	0.288139
2541.89	0.637459
2543.27	0.34981
2544.64	0.428059
2546.01	0.539093
2547.39	0.243093
2548.76	0.221863
2550.14	0.443686
2551.51	0.664673
2552.88	0.307142
2554.25	0.463495
2555.63	0.269005
2557	0.270632
2558.37	0.165833
2559.74	-0.271912
2561.11	0.792078
2562.49	-0.294888
2563.86	0.104578
2565.23	0.595858
2566.6	-0.200439
2567.97	-0.526793
2569.34	0.207787
2570.71	0.260389
2572.08	-0.217422
2573.45	0.456936
2574.82	0.115898
2576.18	-0.0431709
2577.55	0.388948
2578.92	0.335478
2580.29	0.175188
2581.66	-0.213345
2583.02	0.36779
2584.39	0.690615
2585.76	0.361467
2587.13	-0.194721
2588.49	-0.022953
2589.86	-0.002491
2591.22	-0.19438
2592.59	-0.00828552
2593.96	-0.141918
2595.32	-0.171442
2596.69	-0.0667229
2598.05	-0.644458
2599.42	-0.133684
2600.78	0.482445
2602.14	-0.0186749
2603.51	0.236824
2604.87	0.13113
2606.23	0.342754
2607.6	0.47826
2608.96	0.205072
2610.32	0.140697
2611.69	-0.197109
2613.05	-0.100559
2614.41	0.369827
2615.77	0.328487
2617.13	-0.236998
2618.49	-0.0214138
2619.86	0.225286
2621.22	-0.379208
2622.58	0.0941086
2623.94	0.193981
2625.3	-0.004776
2626.66	0.228743
2628.02	-0.194376
2629.37	-0.185614
2630.73	0.254227
2632.09	-0.421829
2633.45	0.492584
2634.81	-0.182655
2636.17	-0.23395
2637.53	0.248312
2638.88	0.31534
2640.24	0.663706
2641.6	0.450294
2642.96	0.355995
2644.31	-0.0920925
2645.67	0.242256
2647.02	0.0299435
2648.38	0.0376072
2649.74	0.161415
2651.09	0.0631104
2652.45	0.140617
2653.8	-0.163071
2655.16	0.150906
2656.51	0.36401
2657.86	-0.0355778
2659.22	-0.154909
2660.57	0.560217
2661.93	-0.0701008
2663.28	0.263176
2664.63	0.244156
2665.98	0.369535
2667.34	0.522913
2668.69	0.399179
2670.04	0.0142899
2671.39	0.605213
2672.75	-0.0239162
2674.09	0.380068
2675.45	-0.0425434
2676.8	0.116735
2678.15	-0.244917
2679.5	0.482767
2680.85	-0.107048
2682.2	0.276937
2683.55	0.329866
2684.9	-0.10836
2686.25	0.16511
2687.6	-0.185511
2688.94	0.216406
2690.29	0.121559
2691.64	0.139294
2692.99	0.0669861
2694.34	-0.0651855
2695.68	0.454573
2697.03	0.105844
2698.38	0.121935
2699.73	0.37299
2701.07	0.265528
2702.42	-0.0272617
2703.76	0.102097
2705.11	0.667583
2706.45	-0.0716152
2707.8	-0.376617
2709.15	0.275486
2710.49	0.143173
2711.83	0.460608
2713.18	-0.166527
2714.52	-0.140056
2715.87	0.337095
2717.21	0.0870953
2718.55	0.403866
2719.9	0.108984
2721.24	-0.0704317
2722.58	0.287756
2723.93	-0.271896
2725.27	-0.0609236
2726.61	0.294903
2727.95	0.24259
2729.29	0.117085
2730.63	0.253269
2731.98	0.433031
2733.32	0.26382
2734.66	-0.0649796
2736	0.173937
2737.34	0.369514
2738.68	0.419651
2740.02	0.658413
2741.36	0.0529099
2742.7	0.812923
2744.03	0.321352
2745.37	0.424557
2746.71	0.309029
2748.05	0.46905
2749.39	0.527476
2750.72	0.12217
2752.06	0.602093
2753.4	-0.0192909
2754.74	-0.0603495
2756.07	0.449298
2757.41	-0.0690641
2758.75	0.0792723
2760.08	0.0980463
2761.42	-0.272936
2762.76	0.268715
2764.09	-0.0716553
2765.42	0.702133
2766.76	0.38997
2768.09	0.0183191
2769.43	0.0204306
2770.76	-0.312574
2772.1	0.204349
2773.43	-0.262715
2774.76	-0.0524206
2776.1	-0.231488
2777.43	-0.00656414
2778.76	0.636132
2780.1	-0.100619
2781.43	-0.175075
2782.76	-0.234853
2784.09	0.0782785
2785.42	-0.139329
2786.75	0.130698
2788.09	-0.113963
2789.42	-0.113635
2790.75	-0.683663
2792.08	0.449661
2793.41	0.282525
2794.74	0.101322
2796.07	0.47688
2797.4	0.37983
2798.73	0.267514
2800.06	0.0973959
2801.39	0.340646
2802.71	0.283902
2804.04	-0.300523
2805.37	0.0407152
2806.7	-0.530511
2808.03	0.22068
2809.35	0.202485
2810.68	0.0281401
2812.01	0.366064
2813.33	0.0816708
2814.66	-0.0295544
2815.99	0.103012
2817.31	-0.159134
2818.64	0.0476351
2819.96	-0.340794
2821.29	-0.148879
2822.61	-0.0857449
2823.94	0.557112
2825.26	0.150815
2826.59	-0.241033
2827.91	0.231899
2829.23	0.450944
2830.56	0.670873
2831.88	0.763839
2833.21	0.616096
2834.53	0.552744
2835.85	0.205466
2837.17	0.395021
2838.5	0.682719
2839.82	0.460773
2841.14	0.606729
2842.46	0.244496
2843.78	0.123804
2845.1	0.880627
2846.42	0.988468
2847.74	0.998078
2849.06	0.838157
2850.38	0.918028
2851.71	1.22321
2853.03	1.4992
2854.34	1.42116
2855.66	1.75254
2856.98	1.32096
2858.3	0.861365
2859.62	0.980907
2860.94	1.22724
2862.26	1.33179
2863.57	1.60503
2864.89	1.96236
2866.21	1.72697
2867.53	2.04213
2868.84	1.9913
2870.16	1.75795
2871.48	1.66593
2872.79	2.19365
2874.11	2.74812
2875.42	1.83561
2876.74	2.30179
2878.05	2.17513
2879.37	2.44188
2880.68	2.02007
2882	2.9628
2883.31	2.67062
2884.63	1.7765
2885.94	2.55432
2887.26	2.58812
2888.57	2.38267
2889.88	2.62497
2891.19	2.03841
2892.51	2.48849
2893.82	2.57362
2895.13	2.68724
2896.44	2.39612
2897.76	3.15638
2899.07	2.8407
2900.38	3.37977
2901.69	2.42278
2903	2.93495
2904.31	2.39824
2905.62	2.75715
2906.93	3.28474
2908.24	3.18417
2909.55	2.903
2910.86	3.88211
2912.17	2.84601
2913.48	3.30636
2914.79	3.65268
2916.1	3.52032
2917.41	3.35757
2918.71	3.66902
2920.02	3.33657
2921.33	3.34083
2922.64	3.85013
2923.94	3.90009
2925.25	3.97974
2926.56	4.4238
2927.86	4.0991
2929.17	4.06738
2930.48	4.81768
2931.78	3.56813
2933.09	4.1914
2934.39	4.70265
2935.7	4.65493
2937	4.23011
2938.31	4.16891
2939.61	4.17795
2940.92	4.15976
2942.22	3.94715
2943.53	3.91791
2944.83	3.31746
2946.13	3.44556
2947.43	3.56067
2948.74	3.11565
2950.04	3.60672
2951.34	2.56902
2952.64	3.2227
2953.95	3.31407
2955.25	3.13873
2956.55	3.58046
2957.85	3.04535
2959.15	2.9761
2960.45	3.31716
2961.75	2.65245
2963.05	2.52112
2964.35	2.7819
2965.65	2.67559
2966.95	2.31361
2968.25	2.89116
2969.55	2.58183
2970.85	2.67992
2972.15	2.84878
2973.45	2.34274
2974.75	2.27273
2976.05	2.6663
2977.34	2.26939
2978.64	2.61595
2979.94	2.08673
2981.24	2.27323
2982.53	2.12096
2983.83	2.2363
2985.13	1.6083
2986.42	1.39041
2987.72	1.89144
2989.01	1.46659
2990.31	1.42154
2991.61	2.07839
2992.9	1.5107
2994.19	1.20792
2995.49	1.04378
2996.78	1.70675
2998.08	1.1056
2999.37	1.26271
3000.67	1.18208
3001.96	0.962214
3003.25	0.855187
3004.55	0.370074
3005.84	1.28513
3007.13	0.448542
3008.42	0.814443
3009.72	0.535055
3011.01	0.240634
3012.3	0.587999
3013.59	0.753265
3014.88	0.751536
3016.17	0.945898
3017.46	0.417224
3018.76	0.168225
3020.05	0.322832
3021.34	0.559777
3022.63	0.600336
3023.92	0.666683
3025.21	0.717476
3026.49	0.518229
3027.78	0.416816
3029.07	0.469403
3030.36	0.551994
3031.65	0.443616
3032.94	0.488926
3034.23	0.106839
3035.51	0.744847
3036.8	0.0975256
3038.09	0.288201
3039.38	0.282356
3040.66	0.259767
3041.95	0.619683
3043.23	0.498466
3044.52	0.159781
3045.81	0.658596
3047.09	0.217469
3048.38	0.286057
3049.66	0.658408
3050.95	0.828594
3052.23	0.931868
3053.52	0.666613
3054.8	0.250013
3056.09	0.663506
3057.37	0.488307
3058.65	0.543201
3059.94	0.365786
3061.22	0.256974
3062.5	0.693738
3063.79	0.398133
3065.07	0.757708
3066.35	0.915633
3067.63	0.449775
3068.92	0.229075
3070.2	0.823694
3071.48	0.478165
3072.76	0.225464
3074.04	0.609328
3075.32	0.528887
3076.6	0.583387
3077.88	0.298882
3079.16	0.206167
3080.44	0.46856
3081.72	0.109459
3083	0.172873
3084.28	0.386566
3085.56	0.72237
3086.84	-0.137248
3088.12	0.100943
3089.4	0.0797071
3090.67	0.532266
3091.95	0.278575
3093.23	-0.13783
3094.51	-0.431804
3095.78	0.318527
3097.06	0.377075
3098.34	0.0963373
3099.61	0.289406
3100.89	0.806982
3102.17	0.308331
3103.44	-0.189898
3104.72	0.354897
3105.99	0.507991
3107.27	-0.271373
3108.54	-0.183136
3109.82	0.136774
3111.09	0.173938
3112.37	-0.00452328
3113.64	0.12899
3114.92	-0.212187
3116.19	-0.202174
3117.46	0.00944519
3118.74	0.0153751
3120.01	-0.157371
3121.28	0.115298
3122.55	-0.101604
3123.83	0.195641
3125.1	0.154004
3126.37	-0.0360975
3127.64	-0.360752
3128.91	0.383807
3130.19	-0.0481672
3131.46	0.249835
3132.73	0.141599
3134	-0.399865
3135.27	-0.0916758
3136.54	0.133751
3137.81	-0.060483
3139.08	0.000365257
3140.35	0.0872231
3141.62	-0.135765
3142.89	0.0447321
3144.16	-0.1372
3145.42	0.137889
3146.69	0.0915565
3147.96	-0.329121
3149.23	-0.213135
