200.523	0.389615
202.339	0.40414
204.154	0.420169
205.967	0.437209
207.781	-0.104631
209.596	0.374041
211.409	0.875285
213.222	-0.0332909
215.034	-0.0686617
216.848	-0.201524
218.659	0.343974
220.47	-0.127102
222.281	-0.354735
224.091	0.627616
225.903	-0.251082
227.713	0.368674
229.522	-0.147369
231.331	-0.615274
233.14	-0.0457621
234.948	0.644189
236.756	0.105725
238.566	-0.213284
240.373	0.675582
242.18	0.554652
243.986	0.169747
245.792	0.146406
247.598	0.0971832
249.403	0.358915
251.208	-0.227818
253.013	0.0516796
254.818	-0.129242
256.624	-0.117503
258.427	0.256598
260.231	0.126346
262.034	-0.0981054
263.836	-0.585776
265.638	0.566006
267.44	0.561788
269.242	-0.0936422
271.043	0.4794
272.844	-0.2025
274.645	-0.259058
276.445	-0.100392
278.245	0.200783
280.044	0.0418806
281.843	0.193825
283.642	0.367529
285.44	-0.373599
287.238	0.805927
289.036	0.904185
290.833	-0.625679
292.63	0.0264902
294.425	0.129296
296.221	-0.4597
298.017	0.339089
299.813	0.875097
301.608	0.120812
303.403	0.703125
305.198	0.591475
306.992	-0.0458117
308.786	0.461576
310.579	0.32582
312.371	0.453526
314.163	-0.0360203
315.956	0.238551
317.748	0.0388889
319.54	0.793785
321.331	1.00248
323.122	0.687698
324.911	1.16053
326.701	-0.63423
328.491	0.268376
330.281	0.358525
332.071	0.208262
333.857	0.127741
335.646	0.308079
337.434	-0.040554
339.222	0.82871
341.008	0.428204
342.795	0.170558
344.582	-0.325809
346.369	0.540193
348.153	-0.0262022
349.939	0.57802
351.724	0.251203
353.51	0.21025
355.292	-0.0942459
357.077	0.148458
358.861	0.556249
360.643	0.581212
362.426	0.724071
364.21	0.223875
365.99	-0.205013
367.773	0.576451
369.555	0.407011
371.335	0.900123
373.116	0.421344
374.897	0.793963
376.676	0.103669
378.456	0.311506
380.236	0.684894
382.014	-0.188416
383.793	0.305224
385.57	-0.0700159
387.349	0.261417
389.127	-0.0873051
390.903	-0.0824585
392.681	-0.264548
394.456	0.0707169
396.233	-0.392041
398.007	0.343076
399.784	0.584877
401.56	0.567848
403.333	0.550106
405.108	0.648964
406.881	0.0894556
408.656	-0.329636
410.428	0.0961351
412.202	0.146327
413.973	0.689782
415.746	-0.0330019
417.517	-0.168232
419.29	0.471675
421.06	0.384479
422.831	0.179635
424.601	0.138307
426.37	0.189875
428.141	0.498757
429.909	0.267203
431.679	0.0591888
433.447	0.0628233
435.216	-0.0504637
436.983	0.37605
438.75	0.0507689
440.519	-0.205657
442.285	0.497544
444.052	-0.115188
445.818	-0.143525
447.583	0.575822
449.349	0.194399
451.114	0.0474386
452.878	0.0411911
454.643	0.175179
456.407	-0.133846
458.169	0.302687
459.934	0.0871086
461.696	0.0122032
463.458	0.473755
465.222	0.449872
466.983	0.824395
468.744	0.597994
470.507	1.00157
472.267	0.38245
474.027	0.320575
475.787	0.3498
477.548	-0.0194321
479.307	0.145033
481.065	0.541333
482.823	0.0760756
484.583	0.404119
486.341	0.478285
488.098	0.485115
489.855	-0.182045
491.612	0.201473
493.37	0.189235
495.126	0.878864
496.881	0.0949135
498.636	0.715083
500.391	0.0225592
502.148	0.431314
503.902	0.487367
505.656	0.166121
507.409	0.289774
509.162	-0.0586958
510.915	0.626187
512.668	0.344638
514.42	0.743747
516.174	0.717702
517.925	0.314008
519.676	0.144561
521.427	0.303379
523.178	0.837256
524.928	0.0794706
526.678	0.166997
528.427	0.324826
530.176	0.38866
531.925	0.264608
533.673	0.373858
535.422	0.0840111
537.169	0.073493
538.917	0.31823
540.664	0.35125
542.411	0.0572233
544.157	0.275291
545.903	0.190779
547.649	0.013875
549.395	0.162222
551.14	1.09778
552.884	0.0886536
554.629	0.098568
556.373	0.362708
558.117	0.303976
559.86	-0.168715
561.603	0.580074
563.346	0.0403271
565.089	-0.543884
566.831	-0.0929403
568.573	0.358412
570.314	-0.0155058
572.053	-0.341671
573.794	-0.321787
575.534	0.365376
577.274	0.504039
579.014	-0.365704
580.754	0.670969
582.493	-0.175513
584.23	0.0571404
585.968	0.426842
587.706	0.381244
589.444	0.265223
591.181	0.0791197
592.919	0.375609
594.653	0.625936
596.39	0.00207329
598.126	0.160439
599.862	0.06534
601.595	0.360378
603.33	0.469869
605.065	0.232761
606.8	0.109277
608.532	0.513211
610.266	0.250996
611.999	0.0584841
613.732	0.188079
615.463	-0.117079
617.196	0.24259
618.928	0.349483
620.66	0.22614
622.389	0.330292
624.12	0.0904465
625.851	0.0337296
627.58	-0.15862
629.31	0.609914
631.04	0.0346489
632.767	0.0778799
634.497	0.373384
636.223	-0.016222
637.952	0.847655
639.68	0.361599
641.406	0.328687
643.134	0.520906
644.861	0.369864
646.586	0.378773
648.312	0.503555
650.037	-0.367815
651.762	-0.416659
653.486	0.152467
655.211	-0.0701561
656.936	0.164802
658.659	0.811611
660.383	0.0445099
662.105	0.438927
663.829	0.808422
665.55	0.0551414
667.273	0.534133
668.994	0.0747538
670.716	0.554029
672.436	1.17323
674.158	0.467827
675.877	1.0245
677.598	0.574154
679.317	0.65132
681.035	-0.215112
682.755	-0.141644
684.473	0.597173
686.192	0.96589
687.909	0.480745
689.628	0.685257
691.344	0.566465
693.06	0.792468
694.778	0.326593
696.493	0.826894
698.211	0.796066
699.925	0.487688
701.64	0.937205
703.356	0.902428
705.07	0.958751
706.783	0.578351
708.498	0.817182
710.211	0.848993
711.924	1.04058
713.638	0.545292
715.35	0.621976
717.061	0.812634
718.774	0.91181
720.485	0.623606
722.196	1.2697
723.906	0.959196
725.618	0.717265
727.328	0.0893326
729.037	0.778173
730.746	0.875801
732.456	1.17661
734.165	0.730028
735.873	0.759048
737.58	0.788447
739.289	1.60814
740.997	0.894878
742.703	0.747228
744.41	1.81701
746.116	1.67233
747.823	0.899553
749.529	1.32081
751.234	1.29368
752.938	0.345873
754.643	1.01918
756.347	1.0194
758.051	1.47173
759.756	1.25039
761.459	0.984961
763.162	1.84792
764.865	1.01828
766.567	1.1352
768.269	1.5666
769.97	1.67918
771.671	1.60848
773.372	2.16928
775.073	2.25464
776.773	1.86588
778.473	1.99873
780.174	2.15609
781.874	1.74928
783.573	1.72709
785.271	2.56371
786.97	2.15253
788.668	1.69235
790.365	1.59058
792.063	1.89262
793.76	1.4923
795.456	1.34058
797.153	1.93394
798.847	1.78516
800.543	1.99881
802.238	1.78649
803.933	2.06988
805.628	1.92572
807.322	1.15157
809.017	1.81408
810.71	2.2724
812.404	1.78716
814.097	1.97416
815.79	2.00386
817.483	2.27949
819.173	2.13014
820.865	1.91424
822.556	1.72147
824.248	1.46304
825.939	2.65497
827.629	2.17788
829.318	1.94936
831.008	2.34808
832.697	1.59187
834.387	1.97429
836.076	2.38062
837.765	1.73818
839.451	2.09849
841.139	1.89876
842.827	2.05482
844.514	1.11542
846.2	2.27746
847.886	1.69829
849.573	2.30724
851.259	2.40506
852.943	1.60878
854.629	1.77681
856.314	1.63046
857.997	1.86472
859.682	1.48983
861.366	1.67522
863.05	1.18303
864.732	1.38761
866.415	1.47855
868.098	1.52367
869.779	1.34275
871.461	1.09371
873.141	1.58887
874.823	1.70049
876.505	1.11255
878.184	1.51756
879.865	1.71937
881.545	1.3564
883.223	1.55692
884.903	1.75612
886.581	1.95357
888.26	1.24655
889.937	1.25989
891.616	1.58698
893.294	1.70938
894.97	1.40267
896.648	1.40994
898.323	1.57321
900	1.69013
901.675	1.51458
903.351	1.15977
905.026	1.43138
906.701	1.07761
908.375	1.12673
910.05	1.5998
911.723	1.09415
913.398	0.856949
915.07	0.598398
916.742	1.18329
918.415	2.16588
920.087	0.357081
921.76	0.941223
923.43	1.39308
925.103	1.13932
926.773	1.15292
928.443	0.947713
930.114	1.2074
931.783	1.44569
933.454	1.30918
935.123	0.996463
936.791	1.05923
938.461	1.71845
940.128	1.25431
941.796	1.60767
943.464	1.56484
945.131	1.74248
946.797	1.21239
948.465	1.03327
950.131	1.1389
951.797	0.735661
953.462	0.817973
955.128	0.549217
956.793	1.36411
958.457	1.08016
960.121	0.931562
961.786	0.718212
963.45	0.990658
965.113	0.244053
966.775	0.400977
968.44	1.01953
970.102	0.440984
971.763	0.569489
973.425	0.698479
975.086	0.80697
976.748	0.121328
978.409	0.432512
980.069	0.567535
981.729	0.702148
983.388	1.10091
985.048	0.81118
986.708	0.851123
988.367	0.424397
990.025	0.947493
991.683	0.585298
993.341	-0.0858793
994.998	0.435793
996.655	0.51576
998.312	0.904266
999.969	1.60052
1001.62	0.930107
1003.28	0.898245
1004.94	0.668125
1006.59	1.20728
1008.25	0.560045
1009.9	0.330997
1011.56	0.826391
1013.21	0.773778
1014.86	0.152187
1016.52	0.670058
1018.17	0.356524
1019.82	0.30662
1021.48	0.673288
1023.13	0.407117
1024.78	0.120247
1026.43	0.773692
1028.08	0.203416
1029.73	0.615632
1031.38	-0.174911
1033.03	0.343195
1034.68	0.509853
1036.33	0.23872
1037.98	0.555269
1039.63	0.479425
1041.28	-0.0958061
1042.93	0.830978
1044.57	0.32482
1046.22	-0.22226
1047.87	0.405619
1049.52	-0.0289307
1051.16	0.102529
1052.81	-0.0258112
1054.45	-0.219021
1056.1	-0.412336
1057.75	0.393952
1059.39	0.917302
1061.04	0.0918627
1062.68	0.591893
1064.32	0.460279
1065.97	0.392721
1067.61	-0.262833
1069.25	0.297606
1070.9	-0.120341
1072.54	0.265066
1074.18	0.62899
1075.82	0.863691
1077.47	0.904628
1079.11	0.773501
1080.75	0.383021
1082.39	1.12007
1084.03	-0.268868
1085.67	0.985443
1087.31	0.41648
1088.95	1.14494
1090.59	0.463977
1092.22	0.388084
1093.86	0.0742121
1095.5	-0.023098
1097.14	0.505759
1098.78	0.475285
1100.41	0.769742
1102.05	0.980028
1103.69	0.267217
1105.32	0.567063
1106.96	-0.143399
1108.59	0.00612259
1110.23	0.0683727
1111.86	0.0428715
1113.5	0.101528
1115.13	0.158748
1116.77	0.279581
1118.4	0.228889
1120.03	0.671752
1121.67	0.66559
1123.3	1.0031
1124.93	0.870799
1126.56	0.418756
1128.19	0.823176
1129.83	0.287498
1131.46	0.116022
1133.09	0.457937
1134.72	0.286606
1136.35	0.0718288
1137.98	0.62517
1139.61	0.664143
1141.24	0.403023
1142.86	0.696376
1144.49	0.882949
1146.12	-0.102329
1147.75	0.342011
1149.38	0.360946
1151	0.380392
1152.63	0.676639
1154.26	-0.113428
1155.88	-0.0521898
1157.51	0.519474
1159.14	-0.355092
1160.76	-0.313927
1162.39	-0.462945
1164.01	0.218307
1165.63	0.389803
1167.26	0.369613
1168.88	0.1781
1170.51	0.494829
1172.13	0.341714
1173.75	0.37781
1175.38	-0.457353
1177	0.573639
1178.62	0.417089
1180.24	-0.0982742
1181.86	-0.125445
1183.48	-0.236444
1185.1	0.138638
1186.72	0.301021
1188.34	-0.087266
1189.96	0.366039
1191.58	0.795115
1193.2	0.317327
1194.82	0.532711
1196.44	-0.132964
1198.06	0.732575
1199.68	0.824253
1201.29	0.375318
1202.91	0.118041
1204.53	0.844805
1206.14	0.363419
1207.76	0.926761
1209.38	0.301253
1210.99	0.196369
1212.61	0.402335
1214.22	0.147159
1215.84	0.95168
1217.45	0.54621
1219.07	0.82612
1220.68	0.793949
1222.29	0.161268
1223.91	0.339201
1225.52	1.40883
1227.13	0.782138
1228.74	0.385224
1230.36	0.693008
1231.97	1.53943
1233.58	0.774904
1235.19	0.487273
1236.8	0.841732
1238.41	1.44554
1240.02	0.623567
1241.63	1.16652
1243.24	0.736939
1244.85	1.27881
1246.46	1.44709
1248.07	1.15892
1249.67	0.828512
1251.28	1.09776
1252.89	1.86364
1254.5	0.748072
1256.1	0.667976
1257.71	1.64433
1259.32	0.801505
1260.92	1.22188
1262.53	1.18752
1264.13	1.69174
1265.74	0.993879
1267.34	0.895858
1268.95	1.19061
1270.55	1.65007
1272.15	1.23745
1273.76	1.7151
1275.36	1.23792
1276.97	1.25717
1278.57	1.39972
1280.17	0.485431
1281.77	1.31008
1283.37	1.36871
1284.97	1.53133
1286.58	0.950701
1288.18	1.59099
1289.78	1.2402
1291.38	0.931397
1292.98	1.28368
1294.58	1.84154
1296.18	1.15842
1297.78	1.62991
1299.37	1.95446
1300.97	1.8644
1302.57	1.71117
1304.17	1.53644
1305.77	1.99846
1307.36	2.02765
1308.96	1.91278
1310.55	1.77768
1312.15	2.05274
1313.75	1.16247
1315.34	1.21493
1316.94	1.06423
1318.53	1.99565
1320.13	1.4577
1321.72	1.61203
1323.32	1.76419
1324.91	1.93422
1326.5	1.63523
1328.1	2.04589
1329.69	1.78806
1331.28	1.41148
1332.87	1.66465
1334.47	2.1624
1336.06	1.77366
1337.65	1.80949
1339.24	1.96537
1340.83	1.35357
1342.42	1.98783
1344.01	1.35205
1345.6	1.31874
1347.19	1.56641
1348.78	1.31487
1350.37	0.766503
1351.96	1.24184
1353.54	2.13895
1355.13	1.53802
1356.72	1.31749
1358.31	1.31629
1359.89	1.11426
1361.48	1.21053
1363.07	1.28576
1364.65	1.16115
1366.24	1.47529
1367.82	1.37189
1369.41	1.19041
1370.99	0.911214
1372.58	1.8475
1374.16	0.914648
1375.75	1.17644
1377.33	1.27914
1378.91	1.56031
1380.5	1.2632
1382.08	0.5071
1383.66	1.61917
1385.25	1.07941
1386.83	0.817759
1388.41	1.01326
1389.99	0.812387
1391.57	1.22781
1393.15	1.34636
1394.73	1.18762
1396.31	0.414029
1397.89	1.08708
1399.47	1.1046
1401.05	0.784285
1402.63	1.65127
1404.21	1.48856
1405.78	0.911427
1407.36	1.00782
1408.94	0.611177
1410.52	0.886922
1412.1	0.550297
1413.67	1.45677
1415.25	0.36864
1416.82	1.3315
1418.4	1.13004
1419.98	0.357956
1421.55	0.94642
1423.13	1.65441
1424.7	0.750195
1426.28	1.55985
1427.85	1.11046
1429.42	0.818172
1431	1.78446
1432.57	1.31259
1434.14	1.4103
1435.71	1.5861
1437.29	1.13292
1438.86	1.30982
1440.43	1.23235
1442	1.7849
1443.57	1.76835
1445.14	2.18465
1446.71	1.44153
1448.28	1.7993
1449.85	1.64635
1451.42	2.00515
1452.99	1.83372
1454.56	1.70202
1456.13	1.88499
1457.7	2.10659
1459.26	1.36229
1460.83	0.576621
1462.4	1.22531
1463.97	1.93062
1465.54	1.59224
1467.1	1.21454
1468.67	1.52482
1470.23	0.481832
1471.8	1.44188
1473.36	1.01014
1474.93	0.893235
1476.49	0.639584
1478.06	0.288091
1479.62	0.799098
1481.19	0.72187
1482.75	0.54658
1484.31	-0.00109768
1485.88	0.489272
1487.44	-0.0202904
1489	0.937285
1490.56	0.541709
1492.13	0.241906
1493.69	0.819089
1495.25	1.13931
1496.81	0.327448
1498.37	0.898918
1499.93	0.0898008
1501.49	0.157339
1503.05	0.497527
1504.61	-0.0144081
1506.17	0.655614
1507.73	0.762838
1509.28	0.462927
1510.84	0.316705
1512.4	0.478187
1513.96	0.465602
1515.52	0.203412
1517.07	0.979183
1518.63	0.392639
1520.19	0.823251
1521.74	0.870497
1523.3	0.267385
1524.85	0.962857
1526.41	0.511456
1527.96	0.383829
1529.52	1.28263
1531.07	0.659991
1532.63	0.494744
1534.18	0.23629
1535.73	0.811826
1537.29	0.650367
1538.84	0.508913
1540.39	1.34867
1541.94	0.472699
1543.5	0.633343
1545.05	0.492633
1546.6	1.19711
1548.15	1.01812
1549.7	1.06438
1551.25	0.904815
1552.8	1.36346
1554.35	1.37391
1555.9	0.844466
1557.45	0.971078
1559	0.484181
1560.55	1.04441
1562.1	1.6624
1563.65	1.16243
1565.19	0.700334
1566.74	1.1713
1568.29	1.6981
1569.83	0.93659
1571.38	1.46253
1572.93	0.98014
1574.47	1.16959
1576.02	1.5271
1577.56	1.25015
1579.11	1.19773
1580.66	1.4448
1582.2	1.37541
1583.74	0.802596
1585.29	1.61323
1586.83	1.17242
1588.38	1.32994
1589.92	1.22536
1591.46	1.41969
1593.01	1.16417
1594.55	1.93835
1596.09	1.58889
1597.63	1.146
1599.17	1.97859
1600.71	1.83733
1602.25	1.33987
1603.79	1.49912
1605.34	1.37587
1606.88	1.21329
1608.41	1.76254
1609.95	1.51962
1611.49	1.72491
1613.03	1.96518
1614.57	1.73439
1616.11	1.52214
1617.65	1.01086
1619.18	1.11975
1620.72	1.36143
1622.26	1.2114
1623.79	0.856453
1625.33	0.932136
1626.87	1.13789
1628.4	1.00524
1629.94	1.74995
1631.48	1.09095
1633.01	1.14202
1634.55	1.26807
1636.08	0.741957
1637.61	1.2804
1639.15	0.681936
1640.68	0.56846
1642.21	1.64662
1643.75	1.15839
1645.28	1.06007
1646.81	1.46288
1648.34	1.34448
1649.88	1.28245
1651.41	1.5928
1652.94	1.86724
1654.47	1.19726
1656	1.344
1657.53	1.21261
1659.06	1.50637
1660.59	1.26146
1662.12	1.27411
1663.65	1.78447
1665.18	1.22213
1666.71	1.65769
1668.24	1.57758
1669.76	1.49939
1671.29	1.55206
1672.82	0.979753
1674.35	1.36585
1675.87	0.665256
1677.4	1.03158
1678.93	0.458174
1680.45	0.30703
1681.98	1.01879
1683.5	0.93971
1685.03	0.952573
1686.55	0.764121
1688.08	0.704712
1689.6	1.04883
1691.13	0.147863
1692.65	0.455678
1694.17	0.45217
1695.7	0.942055
1697.22	0.773351
1698.74	0.293985
1700.27	0.234441
1701.79	0.0467205
1703.31	0.314204
1704.83	0.489603
1706.35	-0.263722
1707.87	-0.107149
1709.39	0.466798
1710.91	0.150656
1712.43	-0.237272
1713.95	0.172754
1715.47	-0.0875893
1716.99	-0.058197
1718.51	0.224009
1720.03	-0.0541019
1721.55	0.209702
1723.07	0.401645
1724.58	0.126068
1726.1	-0.201693
1727.62	0.912331
1729.13	0.0473604
1730.65	0.602791
1732.17	0.456266
1733.68	-0.284748
1735.2	0.287416
1736.72	0.243758
1738.23	0.174093
1739.74	0.237514
1741.26	-0.0687075
1742.77	0.289003
1744.29	0.621321
1745.8	0.507714
1747.32	0.237282
1748.83	0.216038
1750.34	-0.172487
1751.85	0.522861
1753.37	0.587054
1754.88	0.141978
1756.39	0.0584526
1757.9	-0.0749178
1759.41	0.308375
1760.92	-0.0265961
1762.44	-0.00707912
1763.95	-0.0298014
1765.46	0.0373917
1766.96	-0.114723
1768.47	-0.0979071
1769.98	-0.104935
1771.49	0.329965
1773	0.256681
1774.51	0.16438
1776.02	-0.0673342
1777.53	0.164265
1779.03	0.101159
1780.54	-0.244348
1782.05	-0.0161791
1783.55	0.089077
1785.06	0.312783
1786.57	0.14397
1788.07	-0.181569
1789.58	0.0251942
1791.08	-0.00573444
1792.59	0.034173
1794.09	0.171297
1795.6	-0.207947
1797.1	0.178881
1798.61	0.0294209
1800.11	0.0409918
1801.61	0.295527
1803.12	0.086874
1804.62	0.143148
1806.12	0.374883
1807.62	0.299021
1809.12	0.206087
1810.63	0.167898
1812.13	-0.0437069
1813.63	0.199385
1815.13	-0.0474796
1816.63	0.0650997
1818.13	0.24021
1819.63	0.151676
1821.13	-0.0792751
1822.63	0.0750084
1824.13	0.149553
1825.63	0.294076
1827.13	0.0206203
1828.62	-0.0854101
1830.12	0.390212
1831.62	-0.00642967
1833.12	0.557828
1834.61	0.258501
1836.11	0.333848
1837.61	0.356585
1839.1	0.254103
1840.6	0.035614
1842.09	0.0341139
1843.59	0.178212
1845.09	-0.0383034
1846.58	0.00887203
1848.08	-0.193685
1849.57	-0.210759
1851.06	0.0702219
1852.56	-0.223879
1854.05	0.0533972
1855.54	-0.229033
1857.04	-0.0319948
1858.53	0.0569935
1860.02	-0.0860672
1861.51	0.145099
1863.01	-0.045434
1864.5	0.328182
1865.99	0.0452909
1867.48	0.134837
1868.97	0.149299
1870.46	-0.284013
1871.95	0.448536
1873.44	-0.151525
1874.93	0.154142
1876.42	0.319104
1877.91	0.348035
1879.4	0.283442
1880.89	0.260979
1882.37	0.309002
1882.46	0.313625
1883.95	0.102545
1885.45	0.0126648
1886.94	-0.0607719
1888.43	-0.0303173
1889.93	-0.521671
1891.42	-0.263633
1892.91	0.256887
1894.41	0.066678
1895.9	-0.27813
1897.39	0.717129
1898.88	-0.165939
1900.37	-0.215374
1901.86	-0.0753365
1903.36	0.271239
1904.85	0.372406
1906.34	0.159716
1907.83	0.381315
1909.32	0.134773
1910.81	-0.214543
1912.29	0.270091
1913.78	0.0961761
1915.27	0.147898
1916.76	-0.0261593
1918.25	0.319201
1919.74	0.0400333
1921.23	-0.256404
1922.71	0.763813
1924.2	-0.171681
1925.69	0.331261
1927.17	-0.151267
1928.66	-0.217529
1930.15	-0.0586843
1931.63	-0.0219393
1933.12	0.151632
1934.6	0.357623
1936.09	-0.130692
1937.57	0.175466
1939.06	-0.020463
1940.54	-0.00860214
1942.02	0.29763
1943.51	0.2426
1944.99	0.240435
1946.47	0.600796
1947.96	0.23687
1949.44	0.458036
1950.92	-0.114256
1952.4	0.224986
1953.88	0.184765
1955.37	0.196024
1956.85	0.25924
1958.33	-0.0543728
1959.81	0.250799
1961.29	0.0762577
1962.77	-0.0121651
1964.25	0.310486
1965.73	-0.104126
1967.21	0.182622
1968.69	0.0406075
1970.16	0.0519085
1971.64	-0.142105
1973.12	0.261482
1974.6	-0.0688171
1976.08	0.453785
1977.55	0.243482
1979.03	0.595301
1980.51	-0.0399704
1981.98	0.362338
1983.46	-0.221483
1984.94	0.247534
1986.41	0.0201426
1987.89	0.606552
1989.36	0.0747509
1990.84	-0.0831881
1992.31	0.233754
1993.79	-0.39512
1995.26	0.00835419
1996.73	0.665508
1998.21	0.0724792
1999.68	-0.419343
2001.15	0.354177
2002.63	-0.189246
2004.1	0.228611
2005.57	-0.0612612
2007.04	0.104755
2008.51	0.254954
2009.99	0.13678
2011.46	-0.30053
2012.93	0.154423
2014.4	0.255368
2015.87	0.00204372
2017.34	0.0337133
2018.81	0.148425
2020.28	0.0439224
2021.75	0.107269
2023.21	0.254853
2024.68	0.2019
2026.15	0.0497532
2027.62	0.0335503
2029.09	0.0694485
2030.56	0.157295
2032.02	0.246376
2033.49	-0.385706
2034.96	0.106912
2036.42	0.0282803
2037.89	0.167418
2039.36	0.356562
2040.82	0.394403
2042.29	0.0123577
2043.75	0.186007
2045.22	-0.0766268
2046.68	-0.102901
2048.14	0.174389
2049.61	0.0808506
2051.07	0.356984
2052.54	0.445933
2054	-0.411755
2055.46	0.145119
2056.93	0.379778
2058.39	-0.178726
2059.85	0.105194
2061.31	-0.0821066
2062.77	0.438641
2064.23	0.371329
2065.7	0.036005
2067.16	0.0214653
2068.62	0.00764179
2070.08	0.263537
2071.54	0.0145273
2073	-0.0831642
2074.46	0.189279
2075.92	-0.397469
2077.38	0.66568
2078.83	-0.444019
2080.29	0.0118771
2081.75	0.0629616
2083.21	-0.139244
2084.67	0.297256
2086.12	0.37932
2087.58	0.00656986
2089.04	0.0202084
2090.49	0.235155
2091.95	0.164383
2093.41	0.0432482
2094.86	0.25737
2096.32	0.319812
2097.77	-0.0875864
2099.23	-0.461671
2100.68	0.485572
2102.14	0.362112
2103.59	0.440189
2105.05	0.0857792
2106.5	0.33395
2107.95	0.199648
2109.41	0.332665
2110.86	0.38167
2112.31	0.345771
2113.76	0.441101
2115.21	0.734006
2116.67	0.493258
2118.12	0.186818
2119.57	0.43013
2121.02	0.675426
2122.47	0.0107336
2123.92	0.591744
2125.37	-0.053545
2126.82	0.130013
2128.27	0.262664
2129.72	0.459922
2131.17	0.473269
2132.62	0.402847
2134.07	0.117362
2135.51	0.477913
2136.96	0.773737
2138.41	0.608909
2139.86	0.892595
2141.31	0.946954
2142.75	0.622498
2144.2	0.662544
2145.65	0.50422
2147.09	0.444774
2148.54	0.368002
2149.98	-0.0908384
2151.43	0.575719
2152.87	0.79385
2154.32	0.71275
2155.76	0.266623
2157.21	0.831109
2158.65	0.650928
2160.1	0.820153
2161.54	0.875515
2162.98	0.419162
2164.43	1.22491
2165.87	0.638286
2167.31	0.582403
2168.75	0.84114
2170.2	0.665642
2171.64	0.903462
2173.08	0.773009
2174.52	0.807239
2175.96	1.33963
2177.4	1.05728
2178.84	0.676147
2180.28	0.878086
2181.72	0.981334
2183.16	0.88578
2184.6	1.04003
2186.04	1.12789
2187.48	0.93295
2188.92	1.22061
2190.36	1.24204
2191.79	1.36305
2193.23	0.817204
2194.67	0.985703
2196.11	0.719213
2197.54	0.63357
2198.98	0.645738
2200.42	0.0750847
2201.85	0.750262
2203.29	0.993826
2204.72	0.624868
2206.16	0.920477
2207.59	0.454429
2209.03	0.882826
2210.46	0.482346
2211.9	0.0976858
2213.33	0.638313
2214.77	0.930221
2216.2	0.215489
2217.63	0.278295
2219.07	0.474393
2220.5	0.143834
2221.93	0.374028
2223.36	0.109037
2224.8	0.534333
2226.23	0.512806
2227.66	0.292043
2229.09	0.480769
2230.52	0.372828
2231.95	0.297618
2233.39	0.173758
2234.81	0.378057
2236.25	0.714009
2237.67	0.137081
2239.1	0.542059
2240.53	0.00299931
2241.96	0.346974
2243.39	0.382515
2244.82	0.271731
2246.25	0.519077
2247.68	0.340527
2249.1	0.518212
2250.53	0.709337
2251.96	0.523609
2253.38	0.434717
2254.81	0.0375662
2256.24	0.438194
2257.66	-0.0351858
2259.09	0.208824
2260.51	0.537345
2261.94	0.511893
2263.36	0.407167
2264.79	0.562783
2266.21	0.425494
2267.64	0.254593
2269.06	0.0336418
2270.49	0.446477
2271.91	0.207598
2273.33	0.619829
2274.76	0.217837
2276.18	0.386172
2277.6	0.17995
2279.02	0.120418
2280.44	0.435841
2281.87	0.164096
2283.29	0.740458
2284.71	0.19116
2286.13	0.376351
2287.55	0.268172
2288.97	0.0787668
2290.39	-0.061286
2291.81	0.207538
2293.23	-0.079298
2294.65	0.353491
2296.07	0.344608
2297.49	-0.122859
2298.91	-0.0172997
2300.33	0.449121
2301.74	0.0308504
2303.16	0.252322
2304.58	0.178748
2306	0.072175
2307.41	0.392305
2308.83	0.465513
2310.25	-0.218341
2311.66	0.067358
2313.08	0.386073
2314.5	-0.0187721
2315.91	0.103817
2317.33	0.392176
2318.74	0.203356
2320.16	-0.20032
2321.57	-0.16008
2322.98	-0.00638485
2324.4	0.35922
2325.81	0.540524
2327.23	0.637156
2328.64	0.815095
2330.05	0.367088
2331.46	0.644969
2332.88	-0.0141459
2334.29	0.315383
2335.7	-0.0951948
2337.11	0.398497
2338.52	0.13448
2339.94	0.11583
2341.35	-0.215949
2342.76	0.174181
2344.17	0.0717173
2345.58	0.117188
2346.99	0.162936
2348.4	0.0122433
2349.81	0.123057
2351.22	-0.0941114
2352.62	0.194265
2354.03	-0.318558
2355.44	-0.0650291
2356.85	-0.186957
2358.26	0.0491638
2359.67	0.398634
2361.07	0.000860214
2362.48	-0.185311
2363.89	-0.0634708
2365.29	-0.184657
2366.7	0.292602
2368.11	-0.0538712
2369.51	0.343533
2370.92	0.306615
2372.32	-0.00254822
2373.73	0.285615
2375.13	0.300377
2376.54	0.105556
2377.94	0.150915
2379.35	-0.175154
2380.75	0.187714
2382.15	0.00294876
2383.56	-0.150449
2384.96	-0.383773
2386.36	-0.0648909
2387.76	0.190419
2389.17	0.151623
2390.57	-0.156477
2391.97	0.0148535
2393.37	-0.306117
2394.77	0.296639
2396.17	-0.0859632
2397.58	0.644955
2398.98	0.311593
2400.38	-0.100458
2401.78	0.0756979
2403.18	0.537723
2404.58	0.125858
2405.97	0.205298
2407.37	0.140771
2408.77	0.138796
2410.17	-0.291592
2411.57	0.118376
2412.97	-0.136265
2414.37	-0.0568199
2415.76	0.0559359
2417.16	0.106918
2418.56	0.380678
2419.95	-0.231879
2421.35	0.279863
2422.75	0.0150805
2424.14	0.0350981
2425.54	-0.0716085
2426.93	0.392779
2428.33	0.509618
2429.72	0.167754
2431.12	0.096179
2432.51	-0.181635
2433.91	0.429098
2435.3	-0.120729
2436.7	0.0107203
2438.09	0.410505
2439.48	-0.160353
2440.88	0.173166
2442.27	0.0930672
2443.66	0.31417
2445.05	0.29695
2446.44	0.675921
2447.84	0.214464
2449.23	-0.104044
2450.62	-0.0895224
2452.01	0.242128
2453.4	0.337118
2454.79	0.0375719
2456.18	0.324222
2457.57	-0.227118
2458.96	0.265363
2460.35	0.377529
2461.74	-0.317652
2463.13	0.156272
2464.52	-0.0186224
2465.91	0.0115585
2467.29	0.120519
2468.68	-0.0389223
2470.07	-0.0565023
2471.46	0.31949
2472.85	0.410698
2474.23	0.343438
2475.62	0.102448
2477.01	0.112864
2478.39	-0.128102
2479.78	-0.0232706
2481.16	0.348153
2482.55	0.107878
2483.93	0.0240116
2485.32	0.486701
2486.7	-0.177796
2488.09	0.0318232
2489.47	-0.00933838
2490.86	-0.143981
2492.24	0.437357
2493.62	0.117952
2495.01	0.0334721
2496.39	-0.142406
2497.77	0.333535
2499.15	-0.0576458
2500.54	0.0463333
2501.92	-0.113475
2503.3	-0.0116186
2504.68	-0.234943
2506.06	0.157825
2507.45	-0.343287
2508.83	0.0331659
2510.21	0.317132
2511.59	-0.0277901
2512.97	-0.0952482
2514.35	0.00688171
2515.73	0.354762
2517.11	-0.107624
2518.48	0.241468
2519.86	-0.00554562
2521.24	0.144511
2522.62	0.278383
2524	-0.214273
2525.38	0.298873
2526.75	0.125574
2528.13	0.257311
2529.51	-0.15731
2530.89	0.555039
2532.26	-0.1898
2533.64	0.11554
2535.02	0.360941
2536.39	0.287285
2537.77	-0.0453606
2539.14	0.365203
2540.52	0.334249
2541.89	0.40909
2543.27	0.438658
2544.64	0.378182
2546.01	0.713545
2547.39	0.640859
2548.76	0.250617
2550.14	0.0728359
2551.51	0.28905
2552.88	0.519404
2554.25	0.202181
2555.63	0.293614
2557	0.262976
2558.37	0.110871
2559.74	-0.0257053
2561.11	0.353705
2562.49	0.491288
2563.86	-0.0675192
2565.23	0.0106773
2566.6	-0.244229
2567.97	-0.105014
2569.34	0.200943
2570.71	0.264418
2572.08	-0.0813074
2573.45	-0.138971
2574.82	0.318898
2576.18	0.352377
2577.55	0.234159
2578.92	0.191483
2580.29	-0.200356
2581.66	0.529388
2583.02	0.000188828
2584.39	0.00139713
2585.76	0.336017
2587.13	-0.223551
2588.49	0.202307
2589.86	0.0826836
2591.22	0.478173
2592.59	0.494249
2593.96	0.312431
2595.32	-0.0370722
2596.69	0.0363255
2598.05	-0.556933
2599.42	0.210775
2600.78	0.20705
2602.14	-0.0226326
2603.51	0.443078
2604.87	0.411133
2606.23	-0.299337
2607.6	-0.315986
2608.96	0.224114
2610.32	0.0693436
2611.69	-0.252312
2613.05	-0.213871
2614.41	-0.0862675
2615.77	0.490928
2617.13	0.33264
2618.49	-0.0492983
2619.86	0.42331
2621.22	-0.0160713
2622.58	0.532017
2623.94	0.273296
2625.3	0.223793
2626.66	0.472318
2628.02	0.109121
2629.37	0.043911
2630.73	0.0678272
2632.09	0.0320969
2633.45	0.130066
2634.81	0.33174
2636.17	0.266104
2637.53	0.052371
2638.88	0.149978
2640.24	0.158838
2641.6	-0.172054
2642.96	0.472911
2644.31	-0.0491047
2645.67	-0.0688677
2647.02	0.132089
2648.38	0.0667963
2649.74	0.795352
2651.09	0.154384
2652.45	0.131157
2653.8	0.328278
2655.16	0.291353
2656.51	0.358314
2657.86	0.016736
2659.22	0.159385
2660.57	0.0392065
2661.93	0.109005
2663.28	0.455575
2664.63	0.494217
2665.98	0.502703
2667.34	-0.0140829
2668.69	0.00863361
2670.04	0.497228
2671.39	0.186019
2672.75	0.326429
2674.09	0.278636
2675.45	0.246093
2676.8	0.228766
2678.15	0.22673
2679.5	0.0661697
2680.85	-0.16562
2682.2	0.227399
2683.55	0.12887
2684.9	0.13298
2686.25	0.181204
2687.6	0.0406637
2688.94	0.610069
2690.29	0.088747
2691.64	0.175006
2692.99	0.215877
2694.34	0.429534
2695.68	0.483277
2697.03	0.276927
2698.38	0.318421
2699.73	0.390845
2701.07	0.190233
2702.42	0.15066
2703.76	0.184774
2705.11	0.147076
2706.45	0.268967
2707.8	0.100464
2709.15	-0.0105791
2710.49	0.473239
2711.83	0.419587
2713.18	0.467448
2714.52	0.224547
2715.87	0.0395937
2717.21	0.305245
2718.55	0.16341
2719.9	0.152049
2721.24	0.533097
2722.58	0.273259
2723.93	0.187489
2725.27	0.24676
2726.61	0.305585
2727.95	0.0729494
2729.29	0.451273
2730.63	0.116361
2731.98	-0.145767
2733.32	0.188688
2734.66	0.334188
2736	0.319919
2737.34	-0.101407
2738.68	-0.0573158
2740.02	0.437307
2741.36	0.407833
2742.7	0.043251
2744.03	-0.20569
2745.37	0.416492
2746.71	0.108276
2748.05	0.250068
2749.39	0.261204
2750.72	0.0550108
2752.06	0.153732
2753.4	-0.0227003
2754.74	0.105437
2756.07	-0.157406
2757.41	0.130322
2758.75	0.157617
2760.08	0.272191
2761.42	0.25706
2762.76	-0.0613575
2764.09	0.156007
2765.42	0.199744
2766.76	-0.104238
2768.09	0.111563
2769.43	0.0510464
2770.76	0.0611563
2772.1	-0.291371
2773.43	0.120232
2774.76	0.170043
2776.1	0.277308
2777.43	0.183323
2778.76	-0.326901
2780.1	-0.102875
2781.43	-0.0798254
2782.76	-0.042346
2784.09	0.138451
2785.42	0.132649
2786.75	0.227323
2788.09	-0.14993
2789.42	-0.22543
2790.75	0.0577116
2792.08	-0.144547
2793.41	0.0684061
2794.74	-0.0759621
2796.07	0.136589
2797.4	-0.0229959
2798.73	0.145288
2800.06	0.0988445
2801.39	-0.119062
2802.71	0.133556
2804.04	-0.0561523
2805.37	0.166898
2806.7	0.147003
2808.03	-0.414097
2809.35	0.162146
2810.68	0.0558376
2812.01	0.106462
2813.33	-0.267175
2814.66	-0.185141
2815.99	0.181988
2817.31	-0.00241566
2818.64	-0.0301838
2819.96	0.0413103
2821.29	-0.0010767
2822.61	0.154181
2823.94	0.0961304
2825.26	-0.429749
2826.59	0.177559
2827.91	0.148064
2829.23	0.105078
2830.56	-0.0222874
2831.88	-0.36171
2833.21	0.615255
2834.53	0.473595
2835.85	0.133271
2837.17	0.344275
2838.5	0.512242
2839.82	0.877861
2841.14	0.819248
2842.46	0.789414
2843.78	0.944077
2845.1	0.873447
2846.42	1.171
2847.74	1.17222
2849.06	1.08869
2850.38	1.31578
2851.71	1.2031
2853.03	1.42904
2854.34	1.27293
2855.66	1.48399
2856.98	0.988646
2858.3	1.55284
2859.62	1.17066
2860.94	1.62151
2862.26	1.32362
2863.57	1.71704
2864.89	1.77131
2866.21	2.12175
2867.53	2.11973
2868.84	1.99131
2870.16	2.0044
2871.48	2.29961
2872.79	2.29848
2874.11	2.53606
2875.42	2.44834
2876.74	2.52838
2878.05	2.31189
2879.37	2.44687
2880.68	2.13225
2882	2.0717
2883.31	2.75674
2884.63	2.88083
2885.94	2.62658
2887.26	2.35851
2888.57	2.03398
2889.88	2.85904
2891.19	2.6169
2892.51	2.73866
2893.82	2.84609
2895.13	2.49173
2896.44	2.46047
2897.76	2.47238
2899.07	2.65331
2900.38	3.01696
2901.69	2.65369
2903	2.87821
2904.31	2.86508
2905.62	2.82428
2906.93	3.00789
2908.24	3.33229
2909.55	3.5458
2910.86	3.62012
2912.17	3.27457
2913.48	3.55809
2914.79	3.51815
2916.1	3.74233
2917.41	3.86672
2918.71	3.44425
2920.02	4.02886
2921.33	4.09646
2922.64	4.40304
2923.94	3.92833
2925.25	4.32157
2926.56	4.2263
2927.86	4.01926
2929.17	4.03551
2930.48	4.55445
2931.78	4.23407
2933.09	4.44462
2934.39	4.24977
2935.7	4.58616
2937	4.09818
2938.31	4.30915
2939.61	3.96148
2940.92	4.15932
2942.22	3.51963
2943.53	3.90134
2944.83	3.59963
2946.13	3.43886
2947.43	2.92887
2948.74	3.34205
2950.04	3.18033
2951.34	3.07273
2952.64	2.97714
2953.95	3.1881
2955.25	2.8386
2956.55	2.90995
2957.85	2.74543
2959.15	2.97569
2960.45	2.32657
2961.75	2.3096
2963.05	2.93884
2964.35	2.82443
2965.65	2.39933
2966.95	2.61853
2968.25	2.11948
2969.55	2.26617
2970.85	2.38465
2972.15	2.33468
2973.45	2.25692
2974.75	2.47475
2976.05	1.95991
2977.34	1.59847
2978.64	2.02374
2979.94	1.57425
2981.24	1.74274
2982.53	1.60102
2983.83	1.27695
2985.13	1.44615
2986.42	1.43421
2987.72	1.49412
2989.01	1.41463
2990.31	1.47603
2991.61	1.15745
2992.9	1.06264
2994.19	1.33179
2995.49	1.00957
2996.78	1.12199
2998.08	0.728841
2999.37	0.490587
3000.67	0.926126
3001.96	0.633132
3003.25	1.0134
3004.55	0.272906
3005.84	0.302821
3007.13	-0.073884
3008.42	0.514281
3009.72	0.303771
3011.01	0.036808
3012.3	-0.062706
3013.59	0.312234
3014.88	0.0736637
3016.17	0.379495
3017.46	0.379488
3018.76	-0.426977
3020.05	0.102658
3021.34	0.15865
3022.63	0.0747395
3023.92	0.23965
3025.21	-0.0957499
3026.49	-0.12607
3027.78	-0.0451584
3029.07	0.299507
3030.36	-0.0731087
3031.65	-0.388409
3032.94	-0.288112
3034.23	0.0747213
3035.51	0.450529
3036.8	0.162677
3038.09	-0.154357
3039.38	0.0363035
3040.66	0.155994
3041.95	0.137012
3043.23	0.255023
3044.52	-0.11915
3045.81	0.0289593
3047.09	0.138226
3048.38	0.277313
3049.66	0.391459
3050.95	0.0434771
3052.23	0.024024
3053.52	0.0728607
3054.8	-0.0154333
3056.09	0.140644
3057.37	0.240828
3058.65	0.339965
3059.94	-0.133242
3061.22	0.496736
3062.5	0.161441
3063.79	0.37184
3065.07	0.244056
3066.35	0.0771284
3067.63	0.332843
3068.92	0.0179596
3070.2	0.0971403
3071.48	-0.327832
3072.76	0.0618763
3074.04	0.504353
3075.32	0.252349
3076.6	0.0816498
3077.88	0.101572
3079.16	-0.311517
3080.44	-0.288652
3081.72	0.129296
3083	0.114631
3084.28	0.127913
3085.56	0.141303
3086.84	-0.103691
3088.12	0.179852
3089.4	0.163976
3090.67	-0.123841
3091.95	0.415835
3093.23	0.0602341
3094.51	-0.0914707
3095.78	0.177515
3097.06	-0.448197
3098.34	0.0240993
3099.61	0.103075
3100.89	0.0328913
3102.17	0.355527
3103.44	0.00135136
3104.72	0.135197
3105.99	0.0126772
3107.27	-0.514769
3108.54	0.000958443
3109.82	0.125468
3111.09	0.0886831
3112.37	-0.042057
3113.64	0.179914
3114.92	0.0360518
3116.19	0.0949888
3117.46	0.0987272
3118.74	0.00632095
3120.01	0.143223
3121.28	0.387448
3122.55	-0.236551
3123.83	0.169241
3125.1	0.276959
3126.37	0.209147
3127.64	0.426139
3128.91	0.170212
3130.19	0.46922
3131.46	0.646514
3132.73	0.377633
3134	0.338146
3135.27	0.284596
3136.54	0.62169
3137.81	0.418444
3139.08	0.673072
3140.35	0.617476
3141.62	0.239247
3142.89	0.345716
3144.16	0.613647
3145.42	0.170835
3146.69	-0.0426641
3147.96	0.53529
3149.23	0.564232
