200.523	0.506648
202.339	0.510013
204.154	0.514662
205.967	0.0825739
207.781	0.769611
209.596	0.872645
211.409	0.221942
213.222	-0.477397
215.034	0.327351
216.848	0.355117
218.659	0.746392
220.47	0.218204
222.281	-0.332528
224.091	-0.0355921
225.903	0.092577
227.713	-0.189772
229.522	0.1558
231.331	0.0905123
233.14	0.242348
234.948	0.17754
236.756	-0.609102
238.566	0.00433159
240.373	0.330742
242.18	0.056572
243.986	-0.19242
245.792	0.185977
247.598	0.370383
249.403	-0.0750618
251.208	0.466993
253.013	0.137741
254.818	-0.578444
256.624	0.176637
258.427	0.112499
260.231	-0.43187
262.034	0.832349
263.836	-0.0218325
265.638	0.160902
267.44	-0.0896807
269.242	0.117521
271.043	0.685895
272.844	-0.00026226
274.645	-0.205267
276.445	-0.00163269
278.245	-0.185061
280.044	0.111841
281.843	-0.1227
283.642	0.122659
285.44	-0.282166
287.238	0.129309
289.036	-0.0832863
290.833	-0.0551901
292.63	0.30915
294.425	0.0764475
296.221	-0.130726
298.017	-0.026041
299.813	0.461362
301.608	0.112451
303.403	0.646544
305.198	0.105309
306.992	-0.102136
308.786	0.143481
310.579	0.127349
312.371	0.25524
314.163	0.170294
315.956	0.110859
317.748	-0.0422335
319.54	0.59215
321.331	0.584637
323.122	0.720995
324.911	0.189829
326.701	0.255142
328.491	0.10538
330.281	0.241828
332.071	-0.220481
333.857	0.535727
335.646	0.117938
337.434	0.105031
339.222	-0.148797
341.008	0.576788
342.795	0.225501
344.582	0.232957
346.369	0.455873
348.153	0.130137
349.939	0.521238
351.724	0.482641
353.51	0.252729
355.292	0.57072
357.077	0.0528574
358.861	-0.0604467
360.643	0.873265
362.426	0.0915937
364.21	0.0951653
365.99	0.454511
367.773	0.622701
369.555	-0.371961
371.335	0.671679
373.116	0.813433
374.897	0.198392
376.676	0.00973988
378.456	0.694422
380.236	0.012331
382.014	0.391645
383.793	0.418755
385.57	0.141411
387.349	0.335379
389.127	0.31881
390.903	-0.213571
392.681	0.147308
394.456	-0.17234
396.233	-0.280287
398.007	0.316437
399.784	0.0910521
401.56	0.053215
403.333	0.531589
405.108	-0.235447
406.881	0.147736
408.656	0.248583
410.428	0.513445
412.202	0.684404
413.973	-0.200196
415.746	0.323799
417.517	0.191498
419.29	-0.0575838
421.06	0.186368
422.831	0.0076685
424.601	-0.0542698
426.37	0.141283
428.141	-0.180299
429.909	0.131554
431.679	0.255598
433.447	0.778893
435.216	0.199444
436.983	0.371002
438.75	0.682769
440.519	-0.250438
442.285	-0.457625
444.052	0.318261
445.818	0.0140066
447.583	-0.360943
449.349	0.0594387
451.114	-0.058157
452.878	0.338273
454.643	0.244454
456.407	0.477059
458.169	0.173573
459.934	0.452374
461.696	0.173313
463.458	0.198068
465.222	-0.239851
466.983	-0.0015316
468.744	0.471528
470.507	0.481494
472.267	0.0498352
474.027	0.618211
475.787	0.393631
477.548	0.446617
479.307	0.358252
481.065	0.245778
482.823	0.529404
484.583	0.324959
486.341	0.0987988
488.098	0.223861
489.855	0.0242338
491.612	0.432116
493.37	0.210402
495.126	0.736834
496.881	0.889611
498.636	0.175456
500.391	0.585305
502.148	0.291154
503.902	0.794383
505.656	0.615659
507.409	0.459024
509.162	0.230345
510.915	-0.0704093
512.668	0.851088
514.42	0.171223
516.174	0.125571
517.925	0.337623
519.676	0.666197
521.427	0.735359
523.178	0.240433
524.928	0.33261
526.678	0.260459
528.427	0.282179
530.176	0.608414
531.925	0.652878
533.673	0.556131
535.422	0.739151
537.169	0.26631
538.917	0.843696
540.664	0.136257
542.411	0.757383
544.157	0.608999
545.903	0.623593
547.649	-0.313198
549.395	1.0009
551.14	0.274602
552.884	0.47523
554.629	0.121064
556.373	0.529544
558.117	0.10741
559.86	0.1242
561.603	0.578769
563.346	0.297072
565.089	1.00462
566.831	0.448454
568.573	-0.312985
570.314	-0.0172768
572.053	0.371105
573.794	0.600163
575.534	-0.0410018
577.274	0.374514
579.014	0.0568027
580.754	0.244703
582.493	0.846486
584.23	0.0919108
585.968	0.232809
587.706	0.372723
589.444	-0.224579
591.181	0.534742
592.919	0.281284
594.653	0.326787
596.39	0.303288
598.126	-0.341437
599.862	0.485939
601.595	-0.274771
603.33	-0.231307
605.065	0.224758
606.8	0.311683
608.532	0.145235
610.266	0.323106
611.999	-0.209888
613.732	-0.122713
615.463	0.721222
617.196	0.0984035
618.928	-0.0434723
620.66	0.271678
622.389	0.265172
624.12	-0.153519
625.851	0.387779
627.58	0.107433
629.31	-0.285151
631.04	-0.470352
632.767	0.235947
634.497	0.0531425
636.223	0.0297604
637.952	0.0734258
639.68	-0.158989
641.406	0.587153
643.134	0.327446
644.861	-0.0239143
646.586	0.194309
648.312	0.481923
650.037	0.431078
651.762	0.178986
653.486	0.452791
655.211	0.638709
656.936	0.00713587
658.659	0.469151
660.383	1.15993
662.105	0.594417
663.829	0.643084
665.55	0.689692
667.273	0.0486355
668.994	-0.0214772
670.716	0.275007
672.436	0.825017
674.158	0.438774
675.877	0.718416
677.598	0.701352
679.317	0.684333
681.035	0.75836
682.755	0.370797
684.473	0.855698
686.192	1.43138
687.909	1.03854
689.628	0.921023
691.344	0.802833
693.06	0.661044
694.778	0.771954
696.493	0.329307
698.211	-0.183175
699.925	0.77638
701.64	1.02106
703.356	1.05775
705.07	1.18561
706.783	1.12921
708.498	0.705601
710.211	1.47376
711.924	0.660702
713.638	1.40407
715.35	0.843387
717.061	0.511968
718.774	1.04798
720.485	1.15018
722.196	1.20679
723.906	0.239495
725.618	1.04683
727.328	1.37555
729.037	1.43097
730.746	1.34986
732.456	0.589122
734.165	0.802576
735.873	1.06084
737.58	1.29632
739.289	0.381424
740.997	0.415595
742.703	1.05886
744.41	0.869508
746.116	1.04157
747.823	1.64213
749.529	0.916554
751.234	1.81162
752.938	1.53825
754.643	1.64851
756.347	1.94021
758.051	1.01769
759.756	1.37962
761.459	1.29206
763.162	1.04685
764.865	1.27521
766.567	1.9096
768.269	1.75176
769.97	1.63705
771.671	1.18126
773.372	1.78704
775.073	1.51051
776.773	1.7093
778.473	1.09523
780.174	1.47737
781.874	2.2679
783.573	2.17642
785.271	1.44996
786.97	1.26455
788.668	2.34382
790.365	1.74533
792.063	1.55204
793.76	1.60605
795.456	1.68228
797.153	1.69157
798.847	0.959136
800.543	1.51205
802.238	1.70566
803.933	1.65229
805.628	1.86856
807.322	1.65697
809.017	1.53437
810.71	1.41088
812.404	1.33162
814.097	1.61046
815.79	1.55282
817.483	1.49522
819.173	2.19762
820.865	2.05045
822.556	1.61381
824.248	1.93659
825.939	1.61403
827.629	1.47186
829.318	1.35441
831.008	1.03911
832.697	1.88453
834.387	1.99695
836.076	1.50814
837.765	1.42027
839.451	1.66622
841.139	1.55358
842.827	1.95357
844.514	1.83933
846.2	1.12217
847.886	1.47935
849.573	1.63765
851.259	1.05939
852.943	1.51276
854.629	0.801007
856.314	1.43536
857.997	0.67595
859.682	1.03899
861.366	1.15334
863.05	0.883455
864.732	0.837638
866.415	0.745937
868.098	1.33013
869.779	1.3729
871.461	1.12214
873.141	1.34491
874.823	0.958435
876.505	0.97806
878.184	0.591439
879.865	0.656077
881.545	0.901015
883.223	1.46142
884.903	1.14043
886.581	0.750622
888.26	1.28472
889.937	1.29833
891.616	0.814818
893.294	1.682
894.97	0.904227
896.648	0.846244
898.323	1.23665
900	1.13189
901.675	1.36274
903.351	0.742251
905.026	0.88297
906.701	0.510169
908.375	0.785292
910.05	1.6172
911.723	1.09119
913.398	0.900148
915.07	1.15384
916.742	1.54017
918.415	1.37166
920.087	0.849326
921.76	1.25749
923.43	0.649217
925.103	0.948814
926.773	0.697682
928.443	1.46344
930.114	1.4796
931.783	1.43016
933.454	0.71917
935.123	1.15549
936.791	1.34948
938.461	1.58834
940.128	1.10046
941.796	1.12089
943.464	0.325494
945.131	1.03043
946.797	0.675049
948.465	0.825779
950.131	1.28382
951.797	0.747769
953.462	0.609122
955.128	1.39799
956.793	0.579468
958.457	0.822165
960.121	0.846723
961.786	0.519174
963.45	1.0089
965.113	0.812107
966.775	0.679216
968.44	0.389037
970.102	0.252041
971.763	0.60102
973.425	1.10508
975.086	0.902682
976.748	0.945124
978.409	0.413699
980.069	0.502111
981.729	0.590225
983.388	0.942881
985.048	0.519068
986.708	0.934645
988.367	0.839573
990.025	1.16364
991.683	0.22712
993.341	0.0645771
994.998	0.498285
996.655	0.490369
998.312	1.25413
999.969	1.11333
1001.62	0.752134
1003.28	0.765147
1004.94	0.953783
1006.59	0.548725
1008.25	0.276116
1009.9	0.421085
1011.56	0.588152
1013.21	0.47049
1014.86	0.265687
1016.52	0.521157
1018.17	0.49236
1019.82	0.529882
1021.48	-0.196945
1023.13	0.214117
1024.78	0.778781
1026.43	0.0108204
1028.08	0.925441
1029.73	0.310035
1031.38	0.873219
1033.03	0.474077
1034.68	0.37939
1036.33	0.392693
1037.98	0.906331
1039.63	0.113107
1041.28	0.800676
1042.93	0.0755758
1044.57	0.460745
1046.22	0.543173
1047.87	0.323132
1049.52	0.213068
1051.16	1.34209
1052.81	0.473536
1054.45	0.126431
1056.1	0.300803
1057.75	-0.0902071
1059.39	0.257499
1061.04	0.77871
1062.68	0.49474
1064.32	0.514402
1065.97	0.163602
1067.61	0.224996
1069.25	0.459355
1070.9	0.258665
1072.54	0.622416
1074.18	0.0966988
1075.82	0.548295
1077.47	0.458642
1079.11	0.760394
1080.75	0.715822
1082.39	0.476068
1084.03	0.0621252
1085.67	0.318967
1087.31	0.0322618
1088.95	0.112279
1090.59	0.212388
1092.22	0.808517
1093.86	0.388139
1095.5	-0.203853
1097.14	0.779438
1098.78	0.362295
1100.41	1.04507
1102.05	0.416309
1103.69	0.112164
1105.32	0.260913
1106.96	-0.25664
1108.59	0.494452
1110.23	0.857334
1111.86	0.44488
1113.5	0.418063
1115.13	0.561963
1116.77	0.662258
1118.4	0.891156
1120.03	0.263433
1121.67	-0.0415325
1123.3	-0.0456877
1124.93	0.100726
1126.56	0.35471
1128.19	0.844467
1129.83	0.479442
1131.46	0.307417
1133.09	0.520459
1134.72	-0.185801
1136.35	-0.400843
1137.98	0.0671206
1139.61	0.726029
1141.24	-0.21767
1142.86	-0.349992
1144.49	0.00847149
1146.12	0.324548
1147.75	-0.31778
1149.38	-0.000300407
1151	0.0618153
1152.63	0.549794
1154.26	0.0579281
1155.88	0.672703
1157.51	0.265762
1159.14	0.348595
1160.76	0.198217
1162.39	0.0700998
1164.01	0.00662136
1165.63	0.177434
1167.26	0.199184
1168.88	0.453876
1170.51	0.388189
1172.13	0.427101
1173.75	-0.0875578
1175.38	-0.0297089
1177	0.15483
1178.62	0.508718
1180.24	0.397033
1181.86	0.582427
1183.48	0.324219
1185.1	0.00292397
1186.72	0.209106
1188.34	0.139318
1189.96	-0.163832
1191.58	0.0794735
1193.2	0.320922
1194.82	0.351084
1196.44	0.653747
1198.06	0.328333
1199.68	-0.0365982
1201.29	-0.252552
1202.91	0.348269
1204.53	0.47064
1206.14	0.61564
1207.76	0.198462
1209.38	0.761997
1210.99	0.323553
1212.61	0.446786
1214.22	0.297109
1215.84	0.458045
1217.45	0.471545
1219.07	0.359491
1220.68	0.70426
1222.29	0.654948
1223.91	1.26986
1225.52	0.249573
1227.13	0.452748
1228.74	0.656916
1230.36	0.593247
1231.97	0.778715
1233.58	0.779181
1235.19	1.15277
1236.8	1.03142
1238.41	0.683558
1240.02	0.873766
1241.63	0.83671
1243.24	0.675201
1244.85	0.575033
1246.46	1.38447
1248.07	0.827292
1249.67	0.683347
1251.28	0.373685
1252.89	0.871007
1254.5	0.789755
1256.1	1.10247
1257.71	0.671609
1259.32	0.758901
1260.92	0.826316
1262.53	1.30835
1264.13	1.06571
1265.74	1.17482
1267.34	1.17969
1268.95	0.789786
1270.55	1.00017
1272.15	1.29257
1273.76	1.29375
1275.36	0.962377
1276.97	0.85828
1278.57	1.16782
1280.17	1.24881
1281.77	0.832762
1283.37	1.3688
1284.97	1.1191
1286.58	0.68433
1288.18	1.20143
1289.78	1.53318
1291.38	1.53471
1292.98	1.30887
1294.58	1.59885
1296.18	0.792929
1297.78	1.20413
1299.37	1.24206
1300.97	1.38165
1302.57	1.08734
1304.17	1.53352
1305.77	1.34089
1307.36	1.16872
1308.96	1.79671
1310.55	1.60369
1312.15	1.45237
1313.75	1.69064
1315.34	1.62292
1316.94	1.59703
1318.53	1.51049
1320.13	1.75013
1321.72	2.00887
1323.32	1.71622
1324.91	1.91036
1326.5	1.7576
1328.1	1.72638
1329.69	1.55406
1331.28	1.88925
1332.87	1.41772
1334.47	1.89796
1336.06	1.87466
1337.65	1.12584
1339.24	1.52614
1340.83	1.82363
1342.42	1.31371
1344.01	1.50651
1345.6	1.49713
1347.19	1.4679
1348.78	1.46036
1350.37	1.53516
1351.96	1.15222
1353.54	2.01104
1355.13	0.711931
1356.72	1.13227
1358.31	1.39218
1359.89	0.852308
1361.48	0.491606
1363.07	1.26757
1364.65	1.62369
1366.24	1.24247
1367.82	1.22085
1369.41	1.35961
1370.99	0.862758
1372.58	1.42192
1374.16	1.00705
1375.75	1.16981
1377.33	0.874976
1378.91	1.65422
1380.5	1.49726
1382.08	1.19989
1383.66	1.65714
1385.25	0.821136
1386.83	1.27685
1388.41	0.600428
1389.99	0.778687
1391.57	0.580588
1393.15	0.581654
1394.73	0.840866
1396.31	0.941158
1397.89	1.04076
1399.47	0.604407
1401.05	0.642944
1402.63	0.958064
1404.21	1.41131
1405.78	1.21206
1407.36	0.420842
1408.94	0.994241
1410.52	0.896147
1412.1	1.27197
1413.67	1.01534
1415.25	0.679189
1416.82	0.520123
1418.4	0.518589
1419.98	0.990119
1421.55	1.00929
1423.13	0.577114
1424.7	1.07157
1426.28	1.46866
1427.85	1.03957
1429.42	1.08259
1431	0.829575
1432.57	1.46113
1434.14	1.42266
1435.71	0.970826
1437.29	1.65977
1438.86	1.54315
1440.43	1.58474
1442	1.45033
1443.57	1.53274
1445.14	1.81206
1446.71	1.87537
1448.28	2.21405
1449.85	1.80602
1451.42	1.63426
1452.99	2.03328
1454.56	1.9017
1456.13	2.06515
1457.7	1.02758
1459.26	1.48437
1460.83	1.64439
1462.4	1.86164
1463.97	1.44791
1465.54	1.64288
1467.1	0.914092
1468.67	1.14842
1470.23	1.61882
1471.8	0.618604
1473.36	1.46345
1474.93	0.798743
1476.49	0.683584
1478.06	1.01945
1479.62	0.7475
1481.19	0.985129
1482.75	0.7327
1484.31	0.382254
1485.88	0.854398
1487.44	0.36599
1489	0.444515
1490.56	0.521399
1492.13	0.654961
1493.69	0.53251
1495.25	0.447808
1496.81	0.966396
1498.37	0.744052
1499.93	0.600503
1501.49	0.535879
1503.05	0.646934
1504.61	0.545416
1506.17	-0.136413
1507.73	0.130098
1509.28	0.202027
1510.84	0.427189
1512.4	0.612532
1513.96	0.104249
1515.52	0.135612
1517.07	0.320968
1518.63	0.449019
1520.19	0.883764
1521.74	0.361063
1523.3	0.431694
1524.85	0.90237
1526.41	0.322364
1527.96	0.542774
1529.52	0.743096
1531.07	0.525145
1532.63	0.668499
1534.18	0.357803
1535.73	0.918759
1537.29	0.836946
1538.84	0.604917
1540.39	0.581088
1541.94	0.519707
1543.5	0.702998
1545.05	1.26176
1546.6	1.29333
1548.15	0.499141
1549.7	1.0373
1551.25	0.731956
1552.8	1.02625
1554.35	0.853643
1555.9	1.39222
1557.45	0.849172
1559	0.8681
1560.55	1.0939
1562.1	1.32109
1563.65	1.02693
1565.19	1.47957
1566.74	1.55917
1568.29	1.60124
1569.83	1.36297
1571.38	1.68432
1572.93	1.52007
1574.47	1.67303
1576.02	1.75135
1577.56	1.96056
1579.11	1.96483
1580.66	1.83899
1582.2	1.62048
1583.74	1.72024
1585.29	1.7647
1586.83	2.0153
1588.38	2.13531
1589.92	2.04937
1591.46	1.5324
1593.01	1.80108
1594.55	1.20805
1596.09	1.79509
1597.63	1.502
1599.17	1.54681
1600.71	1.02952
1602.25	1.71333
1603.79	1.32742
1605.34	1.52291
1606.88	1.60453
1608.41	1.45881
1609.95	1.31098
1611.49	1.66842
1613.03	1.34771
1614.57	1.87072
1616.11	1.24862
1617.65	1.39624
1619.18	1.52602
1620.72	1.33871
1622.26	1.24634
1623.79	1.37937
1625.33	1.06312
1626.87	1.06445
1628.4	1.27042
1629.94	1.58718
1631.48	1.41674
1633.01	1.13409
1634.55	1.54271
1636.08	1.27999
1637.61	1.27941
1639.15	1.09295
1640.68	1.37255
1642.21	1.0366
1643.75	1.57511
1645.28	1.77697
1646.81	1.79175
1648.34	1.32314
1649.88	1.37546
1651.41	1.68839
1652.94	1.11185
1654.47	1.14861
1656	1.90872
1657.53	1.24157
1659.06	1.75954
1660.59	0.868963
1662.12	1.18064
1663.65	0.917863
1665.18	1.35685
1666.71	1.98002
1668.24	1.20172
1669.76	1.07081
1671.29	1.30981
1672.82	0.849669
1674.35	1.25565
1675.87	1.293
1677.4	0.90631
1678.93	1.14443
1680.45	0.682747
1681.98	0.588445
1683.5	0.732694
1685.03	1.13371
1686.55	1.20445
1688.08	0.890613
1689.6	0.430911
1691.13	0.631006
1692.65	0.355157
1694.17	0.701414
1695.7	0.46216
1697.22	0.241213
1698.74	0.0750079
1700.27	0.620375
1701.79	0.635707
1703.31	0.614068
1704.83	0.683026
1706.35	0.0782876
1707.87	0.346912
1709.39	0.415205
1710.91	0.356424
1712.43	0.134702
1713.95	0.511327
1715.47	0.0908947
1716.99	0.267963
1718.51	0.155469
1720.03	-0.0110683
1721.55	-0.0148163
1723.07	0.252325
1724.58	-0.00255442
1726.1	1.05843
1727.62	-0.112324
1729.13	0.140062
1730.65	0.157569
1732.17	0.651631
1733.68	0.434715
1735.2	0.212445
1736.72	0.386632
1738.23	0.198367
1739.74	0.310901
1741.26	0.576532
1742.77	0.1931
1744.29	0.381391
1745.8	0.0962839
1747.32	0.411375
1748.83	0.412818
1750.34	-0.0200243
1751.85	-0.0556078
1753.37	0.224507
1754.88	-0.130971
1756.39	0.28316
1757.9	-0.205718
1759.41	0.358824
1760.92	0.43895
1762.44	-0.0157022
1763.95	-0.047905
1765.46	0.439259
1766.96	-0.0424318
1768.47	0.0294104
1769.98	-0.00794554
1771.49	0.0103431
1773	-0.386372
1774.51	0.0756474
1776.02	-0.208599
1777.53	0.0317888
1779.03	0.161363
1780.54	-0.159021
1782.05	-0.00790405
1783.55	0.117763
1785.06	0.219449
1786.57	0.0857372
1788.07	0.0115156
1789.58	0.113182
1791.08	0.0244608
1792.59	-0.219652
1794.09	-0.0889215
1795.6	0.121066
1797.1	0.278097
1798.61	0.0749922
1800.11	-0.0338292
1801.61	0.164248
1803.12	0.332178
1804.62	0.000649929
1806.12	-0.0339499
1807.62	0.0164008
1809.12	0.300591
1810.63	0.0954556
1812.13	-0.200521
1813.63	-0.0274391
1815.13	0.153593
1816.63	0.609789
1818.13	0.199903
1819.63	0.0852489
1821.13	-0.00798798
1822.63	0.418391
1824.13	0.0756416
1825.63	0.168273
1827.13	0.354527
1828.62	0.237146
1830.12	-0.0753064
1831.62	0.0644608
1833.12	0.0872345
1834.61	0.0208883
1836.11	-0.192161
1837.61	0.106301
1839.1	-0.0457048
1840.6	0.187136
1842.09	0.00217676
1843.59	0.169074
1845.09	0.0616565
1846.58	0.229192
1848.08	0.379189
1849.57	0.363636
1851.06	0.0476556
1852.56	-0.211494
1854.05	0.13161
1855.54	0.208267
1857.04	0.442574
1858.53	0.305425
1860.02	0.212365
1861.51	0.133712
1863.01	0.0503278
1864.5	0.086678
1865.99	0.120561
1867.48	-0.0359316
1868.97	0.290929
1870.46	0.0599184
1871.95	0.0106077
1873.44	-0.0477376
1874.93	0.367536
1876.42	0.362407
1877.91	-0.189567
1879.4	-0.111316
1880.89	0.168145
1882.37	0.0850716
1882.46	0.0773301
1883.95	0.146238
1885.45	0.144747
1886.94	-0.118742
1888.43	-0.225716
1889.93	-0.0540795
1891.42	-0.455747
1892.91	-0.177845
1894.41	0.257893
1895.9	0.225512
1897.39	0.12429
1898.88	0.423061
1900.37	0.338353
1901.86	0.495811
1903.36	0.199507
1904.85	0.458452
1906.34	0.177822
1907.83	0.157914
1909.32	0.20794
1910.81	-0.140379
1912.29	0.0499983
1913.78	0.188741
1915.27	-0.0713077
1916.76	0.413979
1918.25	0.118614
1919.74	0.0136366
1921.23	-0.0740461
1922.71	0.0117927
1924.2	0.271417
1925.69	0.410747
1927.17	0.239379
1928.66	0.501407
1930.15	0.209373
1931.63	0.384212
1933.12	-0.429146
1934.6	0.0720439
1936.09	0.104305
1937.57	0.118233
1939.06	0.200844
1940.54	0.283562
1942.02	-0.0990829
1943.51	0.295763
1944.99	0.432378
1946.47	0.293427
1947.96	-0.31092
1949.44	-0.243551
1950.92	0.1329
1952.4	0.0951753
1953.88	0.0226188
1955.37	0.0359917
1956.85	-0.34533
1958.33	0.321283
1959.81	-0.281631
1961.29	0.333905
1962.77	-0.16501
1964.25	0.0216784
1965.73	0.0365496
1967.21	-0.223002
1968.69	0.0303731
1970.16	0.38549
1971.64	0.176201
1973.12	0.189046
1974.6	0.0825515
1976.08	-0.262272
1977.55	-0.214726
1979.03	0.275398
1980.51	0.135467
1981.98	0.233566
1983.46	0.161423
1984.94	0.462527
1986.41	0.101487
1987.89	-0.00480318
1989.36	0.126392
1990.84	-0.266678
1992.31	0.0856614
1993.79	0.0665355
1995.26	-0.120891
1996.73	0.435511
1998.21	-0.0386567
1999.68	-0.225832
2001.15	-0.143328
2002.63	0.00616693
2004.1	0.1891
2005.57	0.287865
2007.04	-0.000253677
2008.51	-0.287417
2009.99	0.268016
2011.46	0.0493879
2012.93	0.11701
2014.4	0.116971
2015.87	0.0490131
2017.34	0.316729
2018.81	-0.156149
2020.28	0.379122
2021.75	0.124401
2023.21	-0.113025
2024.68	-0.299293
2026.15	0.0522399
2027.62	0.354475
2029.09	0.238628
2030.56	0.0232153
2032.02	0.379054
2033.49	-0.489902
2034.96	0.10153
2036.42	0.172311
2037.89	0.343515
2039.36	0.396818
2040.82	-0.0878458
2042.29	0.0665011
2043.75	0.238346
2045.22	0.108181
2046.68	0.332068
2048.14	0.0679698
2049.61	0.106716
2051.07	0.0603952
2052.54	0.248915
2054	-0.154286
2055.46	0.250584
2056.93	0.182101
2058.39	0.298347
2059.85	-0.158357
2061.31	0.210645
2062.77	0.142409
2064.23	0.377961
2065.7	0.3787
2067.16	0.0940633
2068.62	-0.173285
2070.08	0.131887
2071.54	0.100492
2073	-0.032042
2074.46	0.289842
2075.92	0.0389409
2077.38	0.343459
2078.83	0.361364
2080.29	0.0757947
2081.75	0.766349
2083.21	0.311451
2084.67	0.377829
2086.12	0.275325
2087.58	0.256457
2089.04	-0.115671
2090.49	0.385874
2091.95	0.114557
2093.41	0.380416
2094.86	0.176202
2096.32	0.47464
2097.77	0.353412
2099.23	0.382453
2100.68	0.49478
2102.14	0.206044
2103.59	0.352554
2105.05	0.0660062
2106.5	0.414814
2107.95	0.263934
2109.41	0.346891
2110.86	0.179344
2112.31	0.310807
2113.76	-0.00888872
2115.21	0.619046
2116.67	0.314127
2118.12	0.342177
2119.57	0.205255
2121.02	0.534558
2122.47	0.450603
2123.92	0.268426
2125.37	0.600873
2126.82	0.53517
2128.27	0.22003
2129.72	0.566792
2131.17	0.349045
2132.62	0.163963
2134.07	0.392619
2135.51	0.423221
2136.96	0.554144
2138.41	0.20726
2139.86	0.324674
2141.31	0.377324
2142.75	0.364835
2144.2	0.634111
2145.65	0.7548
2147.09	0.560777
2148.54	0.316418
2149.98	0.518526
2151.43	0.405103
2152.87	0.671954
2154.32	0.490767
2155.76	0.673688
2157.21	0.541874
2158.65	0.526583
2160.1	0.611738
2161.54	0.764628
2162.98	0.653895
2164.43	0.46137
2165.87	0.584718
2167.31	0.459005
2168.75	0.465318
2170.2	0.786239
2171.64	0.523403
2173.08	0.807903
2174.52	1.10783
2175.96	0.608875
2177.4	0.542547
2178.84	0.643086
2180.28	0.36202
2181.72	0.414168
2183.16	0.466809
2184.6	0.403273
2186.04	0.672495
2187.48	0.708893
2188.92	0.34593
2190.36	0.5987
2191.79	0.651573
2193.23	0.570683
2194.67	0.372194
2196.11	0.388734
2197.54	0.270584
2198.98	0.733166
2200.42	0.795456
2201.85	0.276394
2203.29	0.389037
2204.72	0.137601
2206.16	0.599906
2207.59	0.217357
2209.03	0.580204
2210.46	0.213838
2211.9	0.227548
2213.33	0.290226
2214.77	0.78215
2216.2	-0.112703
2217.63	0.182208
2219.07	0.576756
2220.5	0.510144
2221.93	0.0811262
2223.36	0.327358
2224.8	0.177088
2226.23	0.568685
2227.66	0.0211596
2229.09	0.426252
2230.52	0.0587511
2231.95	0.216277
2233.39	-0.101052
2234.81	0.433176
2236.25	0.330153
2237.67	0.408148
2239.1	0.454948
2240.53	0.226056
2241.96	-0.00128698
2243.39	0.180136
2244.82	0.264027
2246.25	0.0212154
2247.68	0.26651
2249.1	0.379538
2250.53	0.229972
2251.96	-0.0184703
2253.38	-0.169582
2254.81	0.0372105
2256.24	0.0661612
2257.66	-0.000473022
2259.09	0.0487056
2260.51	0.0839424
2261.94	0.169832
2263.36	0.793052
2264.79	0.263535
2266.21	0.269704
2267.64	-0.0826402
2269.06	0.296336
2270.49	-0.187868
2271.91	0.271673
2273.33	-0.278474
2274.76	0.197447
2276.18	0.315293
2277.6	0.335558
2279.02	-0.0190601
2280.44	0.0826769
2281.87	-0.0765953
2283.29	0.269732
2284.71	0.355156
2286.13	0.27757
2287.55	0.0532842
2288.97	-0.236138
2290.39	0.242513
2291.81	0.100606
2293.23	-0.204864
2294.65	0.209286
2296.07	0.361836
2297.49	0.137841
2298.91	0.159424
2300.33	0.0664425
2301.74	0.170367
2303.16	-0.233948
2304.58	-0.261031
2306	0.204498
2307.41	0.177302
2308.83	-0.12979
2310.25	0.335281
2311.66	0.0930266
2313.08	0.475826
2314.5	0.217271
2315.91	0.0743632
2317.33	0.113163
2318.74	-0.358634
2320.16	-0.402276
2321.57	0.229767
2322.98	-0.0469813
2324.4	0.202529
2325.81	0.862596
2327.23	0.448777
2328.64	0.298417
2330.05	0.181289
2331.46	0.196681
2332.88	0.0648284
2334.29	-0.000437737
2335.7	0.329362
2337.11	-0.0485296
2338.52	-0.114554
2339.94	0.114376
2341.35	0.325864
2342.76	-0.136213
2344.17	0.337099
2345.58	-0.0258679
2346.99	0.0049572
2348.4	0.133998
2349.81	-0.113665
2351.22	0.390381
2352.62	0.337505
2354.03	0.349208
2355.44	-0.0472016
2356.85	-0.215092
2358.26	-0.0573425
2359.67	0.262634
2361.07	-0.148373
2362.48	-0.185603
2363.89	0.165885
2365.29	-0.130589
2366.7	0.0747247
2368.11	-0.107422
2369.51	0.0987225
2370.92	0.386178
2372.32	0.432705
2373.73	0.02915
2375.13	0.09308
2376.54	0.204956
2377.94	-0.0218072
2379.35	0.0397587
2380.75	-0.349576
2382.15	-0.17794
2383.56	0.0886827
2384.96	-0.0614676
2386.36	0.0526695
2387.76	0.167236
2389.17	0.402107
2390.57	-0.318299
2391.97	0.0299563
2393.37	0.0762572
2394.77	0.12318
2396.17	-0.0360436
2397.58	-0.0675116
2398.98	0.0921626
2400.38	-0.113216
2401.78	-0.30239
2403.18	0.191433
2404.58	-0.220253
2405.97	0.0819459
2407.37	-0.0134883
2408.77	-0.0460248
2410.17	-0.158063
2411.57	0.0470285
2412.97	-0.143369
2414.37	0.0789738
2415.76	-0.188364
2417.16	0.115276
2418.56	-0.00779724
2419.95	0.154465
2421.35	-9.29832e-005
2422.75	-0.0123892
2424.14	-0.088284
2425.54	0.216142
2426.93	0.235774
2428.33	-0.0768223
2429.72	-0.103419
2431.12	0.108519
2432.51	-0.060194
2433.91	0.0723062
2435.3	0.235819
2436.7	0.286996
2438.09	0.178056
2439.48	0.0998621
2440.88	0.0844851
2442.27	-0.137696
2443.66	0.131979
2445.05	-0.122142
2446.44	0.1946
2447.84	-0.138795
2449.23	0.034986
2450.62	0.335451
2452.01	0.00298834
2453.4	-0.217896
2454.79	-0.153261
2456.18	0.0542617
2457.57	-0.291608
2458.96	-0.0048604
2460.35	0.439535
2461.74	0.282296
2463.13	0.345772
2464.52	0.0611277
2465.91	0.281829
2467.29	0.612753
2468.68	0.406866
2470.07	0.0748391
2471.46	-0.131105
2472.85	0.277051
2474.23	-0.291978
2475.62	0.209003
2477.01	0.0487366
2478.39	0.139955
2479.78	0.0585332
2481.16	0.228258
2482.55	0.209659
2483.93	-0.231953
2485.32	0.249343
2486.7	0.166321
2488.09	0.0513935
2489.47	0.123163
2490.86	0.116788
2492.24	0.204085
2493.62	0.167791
2495.01	0.349823
2496.39	0.39306
2497.77	-0.136151
2499.15	-0.0297666
2500.54	0.138106
2501.92	-0.143088
2503.3	0.208552
2504.68	-0.212489
2506.06	-0.0167761
2507.45	0.178297
2508.83	0.0655346
2510.21	0.0762053
2511.59	0.133379
2512.97	0.359679
2514.35	-0.210175
2515.73	-0.212194
2517.11	0.138213
2518.48	-0.0770297
2519.86	-0.353024
2521.24	0.104193
2522.62	0.132999
2524	0.191615
2525.38	0.0361915
2526.75	0.352865
2528.13	-0.137129
2529.51	0.0130515
2530.89	0.0122843
2532.26	0.286333
2533.64	0.30311
2535.02	0.0318322
2536.39	-0.0571308
2537.77	0.172436
2539.14	0.00630331
2540.52	0.0825324
2541.89	0.097693
2543.27	-0.0235176
2544.64	0.0531716
2546.01	0.29763
2547.39	0.270035
2548.76	0.106587
2550.14	-0.223731
2551.51	-0.129559
2552.88	0.115704
2554.25	0.223554
2555.63	0.254779
2557	0.194517
2558.37	-0.0477905
2559.74	0.119526
2561.11	0.241711
2562.49	-0.166044
2563.86	0.245024
2565.23	-0.0861135
2566.6	0.0830274
2567.97	0.1007
2569.34	0.118384
2570.71	-0.151914
2572.08	0.0325146
2573.45	0.353452
2574.82	0.174242
2576.18	0.374055
2577.55	0.0128436
2578.92	0.333746
2580.29	-0.043117
2581.66	-0.223176
2583.02	-0.0851068
2584.39	0.355943
2585.76	0.160204
2587.13	0.191939
2588.49	0.299598
2589.86	0.2861
2591.22	0.0452104
2592.59	0.137356
2593.96	0.319735
2595.32	0.274037
2596.69	0.0307612
2598.05	-0.0162368
2599.42	0.254011
2600.78	0.176466
2602.14	0.22021
2603.51	-0.0676608
2604.87	0.0676608
2606.23	0.142715
2607.6	-0.0539427
2608.96	0.155874
2610.32	0.274139
2611.69	-0.0904503
2613.05	0.176221
2614.41	0.0812278
2615.77	0.301328
2617.13	0.386228
2618.49	0.0820365
2619.86	0.033392
2621.22	0.31436
2622.58	0.490759
2623.94	0.44313
2625.3	0.0373836
2626.66	-0.0399327
2628.02	0.24024
2629.37	0.0432587
2630.73	-0.257734
2632.09	0.0809174
2633.45	0.240734
2634.81	0.31121
2636.17	0.455698
2637.53	0.185018
2638.88	-0.0851932
2640.24	-0.414044
2641.6	-0.003016
2642.96	-0.0946693
2644.31	0.0206246
2645.67	0.327494
2647.02	0.382993
2648.38	0.0990615
2649.74	0.079874
2651.09	0.280698
2652.45	-0.0478711
2653.8	0.269926
2655.16	-0.101243
2656.51	0.114903
2657.86	0.11209
2659.22	0.168511
2660.57	0.181351
2661.93	-0.171282
2663.28	0.0018487
2664.63	0.0427728
2665.98	-0.150331
2667.34	-0.00831079
2668.69	-0.157852
2670.04	0.0131459
2671.39	0.198822
2672.75	0.181314
2674.09	0.411199
2675.45	0.191341
2676.8	0.160749
2678.15	0.130691
2679.5	-0.101707
2680.85	-0.173763
2682.2	0.262521
2683.55	0.221303
2684.9	0.195348
2686.25	-0.0188618
2687.6	0.390831
2688.94	0.320726
2690.29	0.452502
2691.64	0.132801
2692.99	0.20381
2694.34	0.230447
2695.68	0.0684681
2697.03	-0.0349541
2698.38	-0.0214858
2699.73	0.0511656
2701.07	-0.077569
2702.42	0.258302
2703.76	0.218499
2705.11	0.353057
2706.45	0.734361
2707.8	0.187116
2709.15	0.176197
2710.49	0.310174
2711.83	0.095386
2713.18	0.505178
2714.52	0.479096
2715.87	0.191229
2717.21	0.310315
2718.55	0.472904
2719.9	0.242395
2721.24	0.389821
2722.58	0.449564
2723.93	0.232366
2725.27	0.247695
2726.61	0.102612
2727.95	0.248369
2729.29	0.350243
2730.63	0.23371
2731.98	0.131722
2733.32	0.378942
2734.66	0.117149
2736	0.0300879
2737.34	0.117668
2738.68	0.437916
2740.02	0.278039
2741.36	0.00150108
2742.7	0.0443792
2744.03	0.130293
2745.37	0.346405
2746.71	0.140859
2748.05	0.32724
2749.39	-0.0233555
2750.72	0.018074
2752.06	-0.0273266
2753.4	0.0579176
2754.74	0.288115
2756.07	-0.133501
2757.41	0.067874
2758.75	0.0666642
2760.08	0.210477
2761.42	0.050724
2762.76	0.238651
2764.09	-0.253237
2765.42	0.166434
2766.76	0.180624
2768.09	0.0205274
2769.43	0.322228
2770.76	0.27565
2772.1	0.126934
2773.43	0.237347
2774.76	0.361526
2776.1	0.154127
2777.43	-0.124597
2778.76	-0.0860829
2780.1	0.240181
2781.43	-0.0512657
2782.76	0.102637
2784.09	0.328001
2785.42	-0.00593138
2786.75	0.162011
2788.09	-0.0420566
2789.42	-0.216708
2790.75	0.0814366
2792.08	-0.306322
2793.41	-0.236091
2794.74	0.0342369
2796.07	-0.195908
2797.4	0.387848
2798.73	0.0426354
2800.06	-0.174187
2801.39	0.0369358
2802.71	-0.265596
2804.04	-0.0977335
2805.37	0.212043
2806.7	0.435558
2808.03	0.373771
2809.35	-0.000957012
2810.68	-0.00587845
2812.01	0.24509
2813.33	0.0994921
2814.66	0.182003
2815.99	0.109686
2817.31	0.165844
2818.64	0.00987482
2819.96	-0.287807
2821.29	-0.273989
2822.61	0.249491
2823.94	0.191395
2825.26	0.118867
2826.59	-0.0810547
2827.91	0.030972
2829.23	0.0726066
2830.56	0.241998
2831.88	-0.0414257
2833.21	0.213022
2834.53	-0.0281854
2835.85	0.169008
2837.17	0.294974
2838.5	0.293227
2839.82	-0.0198154
2841.14	0.289455
2842.46	0.485801
2843.78	0.611904
2845.1	0.667886
2846.42	0.908077
2847.74	0.653921
2849.06	0.993392
2850.38	0.781423
2851.71	0.809359
2853.03	0.92169
2854.34	0.765205
2855.66	0.552094
2856.98	0.649813
2858.3	0.888785
2859.62	1.32539
2860.94	1.33813
2862.26	1.29414
2863.57	1.20753
2864.89	1.09254
2866.21	1.42898
2867.53	1.34236
2868.84	1.1997
2870.16	1.56493
2871.48	1.33816
2872.79	1.33677
2874.11	1.65892
2875.42	1.90964
2876.74	1.66654
2878.05	1.88739
2879.37	1.86866
2880.68	1.7518
2882	1.35466
2883.31	2.22263
2884.63	1.9395
2885.94	1.79737
2887.26	1.68344
2888.57	2.10246
2889.88	1.79121
2891.19	1.53564
2892.51	1.65823
2893.82	1.73855
2895.13	1.97308
2896.44	1.90009
2897.76	1.89791
2899.07	1.74261
2900.38	2.04961
2901.69	2.23104
2903	2.42661
2904.31	2.13272
2905.62	2.18874
2906.93	2.72074
2908.24	2.16232
2909.55	2.61176
2910.86	2.50206
2912.17	2.64429
2913.48	2.91201
2914.79	2.7587
2916.1	2.45011
2917.41	2.86822
2918.71	2.23599
2920.02	3.12854
2921.33	3.0982
2922.64	2.80321
2923.94	3.68351
2925.25	3.4045
2926.56	3.19589
2927.86	3.30884
2929.17	3.21184
2930.48	3.29615
2931.78	3.70162
2933.09	3.4918
2934.39	3.22608
2935.7	3.33784
2937	2.94662
2938.31	2.73727
2939.61	3.00323
2940.92	3.45122
2942.22	2.90772
2943.53	2.92407
2944.83	2.91348
2946.13	2.56814
2947.43	2.68472
2948.74	2.6473
2950.04	3.16907
2951.34	3.05958
2952.64	2.4865
2953.95	2.31848
2955.25	2.08021
2956.55	2.55643
2957.85	2.72619
2959.15	2.26804
2960.45	2.58207
2961.75	2.2813
2963.05	2.20522
2964.35	2.1708
2965.65	2.27578
2966.95	2.1407
2968.25	1.76551
2969.55	2.07857
2970.85	1.77282
2972.15	2.02989
2973.45	1.7667
2974.75	1.74269
2976.05	1.92944
2977.34	1.76326
2978.64	1.93372
2979.94	1.70863
2981.24	1.35599
2982.53	1.27044
2983.83	1.33984
2985.13	1.3819
2986.42	1.07379
2987.72	1.35703
2989.01	1.36003
2990.31	0.969787
2991.61	0.888372
2992.9	0.876483
2994.19	0.681003
2995.49	0.484801
2996.78	0.554974
2998.08	0.681058
2999.37	0.961512
3000.67	0.541078
3001.96	0.135429
3003.25	0.501061
3004.55	0.292239
3005.84	0.573525
3007.13	0.364217
3008.42	0.67217
3009.72	0.33588
3011.01	0.181121
3012.3	0.291551
3013.59	0.2902
3014.88	0.135831
3016.17	0.232978
3017.46	0.107835
3018.76	-0.00282097
3020.05	0.1788
3021.34	0.0124388
3022.63	0.0401468
3023.92	-0.0994363
3025.21	-0.0313578
3026.49	0.271884
3027.78	-0.352209
3029.07	0.173168
3030.36	0.146265
3031.65	0.0238981
3032.94	0.109568
3034.23	0.0298724
3035.51	0.115438
3036.8	0.213753
3038.09	0.227921
3039.38	0.116751
3040.66	-0.0778418
3041.95	0.180347
3043.23	0.314405
3044.52	0.106557
3045.81	0.160285
3047.09	0.0243621
3048.38	0.25909
3049.66	0.0312862
3050.95	0.378006
3052.23	0.302367
3053.52	0.226816
3054.8	0.137194
3056.09	0.224146
3057.37	0.214787
3058.65	0.0140972
3059.94	-0.0231543
3061.22	-0.0192461
3062.5	0.447855
3063.79	-0.117658
3065.07	0.650578
3066.35	0.182773
3067.63	0.300408
3068.92	0.132869
3070.2	0.15555
3071.48	0.35445
3072.76	0.321222
3074.04	-0.0527878
3075.32	0.102741
3076.6	0.135655
3077.88	0.209587
3079.16	0.0943599
3080.44	0.15674
3081.72	0.152539
3083	0.0679908
3084.28	0.106129
3085.56	0.103689
3086.84	-0.021194
3088.12	0.179184
3089.4	0.148328
3090.67	0.049315
3091.95	-0.0632968
3093.23	0.0684481
3094.51	-0.165728
3095.78	-0.209729
3097.06	0.0717664
3098.34	0.0414376
3099.61	-0.287022
3100.89	0.129734
3102.17	0.19425
3103.44	0.137144
3104.72	-0.0277705
3105.99	0.0515814
3107.27	0.0910697
3108.54	0.28027
3109.82	0.0778689
3111.09	0.160521
3112.37	-0.216643
3113.64	0.20577
3114.92	0.0727935
3116.19	0.359824
3117.46	0.429374
3118.74	0.308273
3120.01	0.335559
3121.28	0.416393
3122.55	0.212161
3123.83	0.170558
3125.1	0.2375
3126.37	0.494284
3127.64	0.277857
3128.91	0.576008
3130.19	0.401107
3131.46	0.564387
3132.73	0.389738
3134	0.0799513
3135.27	0.47215
3136.54	0.499255
3137.81	0.256372
3139.08	0.606389
3140.35	0.605813
3141.62	0.605341
3142.89	0.309588
3144.16	0.739762
3145.42	0.552711
3146.69	0.406781
3147.96	0.315238
3149.23	0.451946
