200.523	-0.101811
202.339	-0.0860291
204.154	-0.0692902
205.967	0.142889
207.781	0.257909
209.596	0.372376
211.409	0.995709
213.222	0.136474
215.034	0.538623
216.848	0.261069
218.659	0.371496
220.47	0.191965
222.281	-0.204144
224.091	-0.0187712
225.903	-0.123011
227.713	0.280169
229.522	-0.234877
231.331	0.480914
233.14	0.279094
234.948	-0.235631
236.756	-0.290803
238.566	0.330838
240.373	0.882553
242.18	0.231133
243.986	-0.226553
245.792	0.35307
247.598	-0.0582256
249.403	-0.0858412
251.208	0.318269
253.013	-0.125121
254.818	0.322832
256.624	-0.073842
258.427	-0.0355844
260.231	0.534219
262.034	-0.243319
263.836	0.329776
265.638	-0.107989
267.44	0.297904
269.242	0.390298
271.043	-0.0966825
272.844	-0.15083
274.645	0.565238
276.445	-0.190862
278.245	0.160205
280.044	-0.11711
281.843	0.0372524
283.642	-0.267257
285.44	0.292373
287.238	-0.0858212
289.036	0.783504
290.833	-0.575755
292.63	0.222587
294.425	0.208009
296.221	0.0275078
298.017	0.0632553
299.813	-0.641201
301.608	-0.151182
303.403	-0.11592
305.198	0.586354
306.992	-0.334826
308.786	0.461098
310.579	-0.00599098
312.371	0.0762119
314.163	0.302811
315.956	0.602586
317.748	0.0230103
319.54	0.0878096
321.331	0.320599
323.122	0.0535679
324.911	0.908149
326.701	1.19088
328.491	0.61359
330.281	0.608707
332.071	0.0525293
333.857	0.499173
335.646	0.321796
337.434	0.668637
339.222	0.43916
341.008	0.447455
342.795	0.478885
344.582	0.558043
346.369	0.327147
348.153	0.335843
349.939	-0.227906
351.724	0.354235
353.51	0.62536
355.292	0.203518
357.077	0.209931
358.861	0.000606537
360.643	-0.0666618
362.426	0.198448
364.21	1.03306
365.99	0.392672
367.773	0.417214
369.555	-0.317866
371.335	0.226764
373.116	0.296358
374.897	0.767163
376.676	0.00955677
378.456	0.19727
380.236	0.0792437
382.014	0.268512
383.793	-0.17632
385.57	-0.102257
387.349	0.184344
389.127	0.0724659
390.903	0.360826
392.681	-0.359918
394.456	0.117635
396.233	0.360705
398.007	0.486454
399.784	0.283231
401.56	0.784214
403.333	0.579925
405.108	-0.282666
406.881	0.239708
408.656	0.0804873
410.428	0.320058
412.202	0.324899
413.973	0.470942
415.746	0.124937
417.517	-0.0325899
419.29	0.256335
421.06	0.803749
422.831	0.787702
424.601	0.0666513
426.37	-0.256231
428.141	-0.298149
429.909	-0.270078
431.679	0.462089
433.447	-0.237159
435.216	0.659861
436.983	0.688485
438.75	-0.104999
440.519	0.719397
442.285	-0.522797
444.052	0.0393143
445.818	0.505235
447.583	0.758594
449.349	0.566777
451.114	0.702492
452.878	0.53485
454.643	0.227761
456.407	0.200812
458.169	-0.291983
459.934	-0.527981
461.696	-0.274693
463.458	0.398065
465.222	0.0735302
466.983	0.286191
468.744	0.431778
470.507	-0.234663
472.267	-0.0868759
474.027	-0.358718
475.787	0.462293
477.548	0.67596
479.307	0.631589
481.065	0.399934
482.823	0.308233
484.583	0.543769
486.341	0.431829
488.098	-0.144292
489.855	0.283757
491.612	0.526716
493.37	0.0230522
495.126	0.243658
496.881	0.207085
498.636	0.310756
500.391	0.320366
502.148	0.282437
503.902	0.854298
505.656	0.462125
507.409	-0.284589
509.162	0.14289
510.915	0.169101
512.668	0.499724
514.42	-0.0181742
516.174	0.28616
517.925	0.636216
519.676	0.115269
521.427	0.533902
523.178	0.411539
524.928	0.242163
526.678	0.190243
528.427	0.630766
530.176	0.508312
531.925	0.526109
533.673	1.15165
535.422	0.231439
537.169	0.316219
538.917	-0.16079
540.664	0.0150652
542.411	0.376103
544.157	0.386965
545.903	0.281607
547.649	0.246292
549.395	0.095397
551.14	0.0839806
552.884	-0.0428896
554.629	0.154168
556.373	0.535731
558.117	0.571036
559.86	0.0538635
561.603	0.781144
563.346	-0.194222
565.089	0.326397
566.831	0.0659733
568.573	-0.0556335
570.314	0.37462
572.053	0.0947571
573.794	-0.206373
575.534	-0.368221
577.274	0.205689
579.014	-0.343617
580.754	0.462374
582.493	0.120283
584.23	0.421069
585.968	-0.0148516
587.706	0.398943
589.444	0.60465
591.181	-0.064826
592.919	-0.182616
594.653	0.297651
596.39	0.0187197
598.126	0.222905
599.862	-0.0103779
601.595	0.0776358
603.33	0.0494223
605.065	-0.462911
606.8	0.40267
608.532	0.210214
610.266	0.201459
611.999	-0.265563
613.732	0.162762
615.463	0.178854
617.196	-0.0569305
618.928	0.142095
620.66	0.294124
622.389	0.0101624
624.12	-0.571391
625.851	0.195621
627.58	-0.178772
629.31	0.0195322
631.04	-0.259212
632.767	-0.12533
634.497	0.237784
636.223	0.418069
637.952	0.551017
639.68	-0.0718384
641.406	0.831184
643.134	-0.297709
644.861	-0.0597
646.586	0.109971
648.312	-0.400749
650.037	0.591578
651.762	0.45125
653.486	0.655662
655.211	0.454154
656.936	0.52777
658.659	-0.149799
660.383	0.129189
662.105	-0.0495758
663.829	0.591971
665.55	0.0658026
667.273	0.154954
668.994	0.312073
670.716	0.149733
672.436	0.492618
674.158	0.265715
675.877	0.521838
677.598	0.0913038
679.317	0.119377
681.035	0.744306
682.755	0.724297
684.473	0.310812
686.192	1.32277
687.909	0.468027
689.628	0.602468
691.344	0.667106
693.06	1.23788
694.778	0.195546
696.493	0.396076
698.211	0.802526
699.925	0.540144
701.64	0.276897
703.356	0.863407
705.07	1.21877
706.783	0.976404
708.498	0.688109
710.211	0.651946
711.924	1.27936
713.638	0.990464
715.35	0.290574
717.061	1.05307
718.774	0.536892
720.485	0.432036
722.196	0.646303
723.906	0.541728
725.618	0.48266
727.328	0.991229
729.037	1.1354
730.746	0.712111
732.456	1.26308
734.165	1.02092
735.873	1.25393
737.58	0.448217
739.289	0.592112
740.997	1.16499
742.703	1.03995
744.41	1.38919
746.116	1.01942
747.823	1.57367
749.529	0.891947
751.234	0.886392
752.938	0.904601
754.643	1.32913
756.347	0.675123
758.051	0.810127
759.756	0.338353
761.459	1.12958
763.162	1.01994
764.865	1.76792
766.567	1.25041
768.269	1.06959
769.97	1.31615
771.671	1.51555
773.372	1.19346
775.073	1.41363
776.773	1.36302
778.473	1.26847
780.174	1.46941
781.874	1.0607
783.573	2.03237
785.271	1.50936
786.97	1.64032
788.668	1.29282
790.365	1.55308
792.063	1.06449
793.76	1.52355
795.456	1.71079
797.153	1.89863
798.847	2.11041
800.543	1.62606
802.238	1.54858
803.933	1.35937
805.628	1.79958
807.322	1.38473
809.017	1.32845
810.71	1.6077
812.404	1.63896
814.097	1.78162
815.79	1.2746
817.483	1.88674
819.173	2.27445
820.865	2.23741
822.556	1.70998
824.248	1.80846
825.939	1.44032
827.629	1.74289
829.318	1.75857
831.008	1.86641
832.697	1.643
834.387	2.06794
836.076	1.51297
837.765	0.57768
839.451	1.51598
841.139	0.867557
842.827	0.776073
844.514	1.3992
846.2	1.39745
847.886	1.55398
849.573	1.22088
851.259	0.934515
852.943	1.16498
854.629	1.19485
856.314	1.42676
857.997	1.32074
859.682	0.717823
861.366	1.08058
863.05	1.01414
864.732	0.788651
866.415	0.922839
868.098	1.73296
869.779	0.648465
871.461	0.894161
873.141	1.27511
874.823	1.11456
876.505	1.04423
878.184	0.906197
879.865	0.655151
881.545	0.403699
883.223	1.14487
884.903	0.869088
886.581	0.614614
888.26	0.967943
889.937	1.34199
891.616	0.79014
893.294	0.868305
894.97	0.472723
896.648	1.38059
898.323	1.32008
900	0.765269
901.675	1.03991
903.351	0.731547
905.026	0.535538
906.701	1.34459
908.375	0.681018
910.05	0.376072
911.723	0.984677
913.398	0.703771
915.07	1.31186
916.742	1.12029
918.415	0.818195
920.087	0.937463
921.76	1.2119
923.43	0.691313
925.103	1.14495
926.773	0.738856
928.443	1.12928
930.114	1.34416
931.783	0.699192
933.454	1.33414
935.123	1.28533
936.791	0.354774
938.461	0.130877
940.128	0.812397
941.796	0.634912
943.464	0.171168
945.131	0.94304
946.797	0.411669
948.465	0.518645
950.131	0.469314
951.797	0.308572
953.462	0.655273
955.128	0.871025
956.793	1.06743
958.457	0.00973797
960.121	0.719401
961.786	0.128202
963.45	0.751777
965.113	0.44553
966.775	-0.195401
968.44	0.377861
970.102	0.263314
971.763	0.435562
973.425	0.47552
975.086	1.11394
976.748	0.958055
978.409	0.493885
980.069	0.417321
981.729	0.340311
983.388	1.20284
985.048	0.978738
986.708	0.819008
988.367	0.569119
990.025	1.04796
991.683	0.354357
993.341	0.633212
994.998	0.205475
996.655	0.925512
998.312	0.917093
999.969	1.17286
1001.62	1.11961
1003.28	1.30806
1004.94	0.374391
1006.59	0.408814
1008.25	0.113938
1009.9	0.346425
1011.56	0.0965748
1013.21	0.504932
1014.86	0.124678
1016.52	0.270613
1018.17	0.635686
1019.82	0.148262
1021.48	0.449263
1023.13	0.445146
1024.78	0.245264
1026.43	0.286344
1028.08	0.305567
1029.73	1.04507
1031.38	0.516295
1033.03	0.204644
1034.68	0.131736
1036.33	0.057642
1037.98	0.636428
1039.63	0.234734
1041.28	0.356308
1042.93	0.0659838
1044.57	0.103514
1046.22	0.577234
1047.87	0.270777
1049.52	0.226523
1051.16	0.487537
1052.81	0.445266
1054.45	0.272943
1056.1	-0.05161
1057.75	0.0147371
1059.39	0.428523
1061.04	0.428639
1062.68	0.667185
1064.32	0.100307
1065.97	0.510842
1067.61	-0.101331
1069.25	0.285355
1070.9	-0.132371
1072.54	-0.0505991
1074.18	0.226842
1075.82	-0.687902
1077.47	0.545934
1079.11	0.0892353
1080.75	0.565713
1082.39	0.434985
1084.03	0.23835
1085.67	0.126931
1087.31	0.446989
1088.95	0.483191
1090.59	0.279648
1092.22	-0.119206
1093.86	0.0436821
1095.5	0.357479
1097.14	0.434395
1098.78	0.318671
1100.41	0.355497
1102.05	0.566278
1103.69	0.154809
1105.32	-0.126206
1106.96	0.303102
1108.59	0.151371
1110.23	-0.151863
1111.86	-0.133997
1113.5	0.54825
1115.13	0.0907364
1116.77	-0.00204182
1118.4	0.612854
1120.03	0.520644
1121.67	0.301063
1123.3	-0.00287628
1124.93	0.229219
1126.56	0.119781
1128.19	-0.0743961
1129.83	0.54464
1131.46	-0.0758905
1133.09	0.0307817
1134.72	0.158676
1136.35	0.350032
1137.98	0.326611
1139.61	0.109796
1141.24	0.105695
1142.86	0.165139
1144.49	0.843158
1146.12	0.199537
1147.75	0.154045
1149.38	-0.231462
1151	-0.318139
1152.63	0.148878
1154.26	-0.108506
1155.88	-0.30227
1157.51	0.291167
1159.14	0.437956
1160.76	0.309084
1162.39	0.33018
1164.01	0.947578
1165.63	0.119657
1167.26	-0.00690174
1168.88	-0.155735
1170.51	0.0552053
1172.13	-0.0120344
1173.75	0.471105
1175.38	-0.0235138
1177	0.584442
1178.62	-0.375771
1180.24	0.359396
1181.86	0.0579634
1183.48	-0.348186
1185.1	0.133546
1186.72	-0.0196962
1188.34	-0.0898924
1189.96	-0.246122
1191.58	0.75404
1193.2	-0.352177
1194.82	0.349351
1196.44	0.671603
1198.06	0.0727215
1199.68	-0.104753
1201.29	-0.133368
1202.91	0.571326
1204.53	0.234342
1206.14	0.567313
1207.76	0.525937
1209.38	0.0259037
1210.99	0.380311
1212.61	0.336718
1214.22	0.103454
1215.84	0.576268
1217.45	0.692854
1219.07	0.84977
1220.68	0.777918
1222.29	0.520288
1223.91	0.678768
1225.52	0.755698
1227.13	0.792673
1228.74	0.955119
1230.36	0.312376
1231.97	0.580679
1233.58	1.1601
1235.19	1.24471
1236.8	0.834503
1238.41	1.04541
1240.02	1.0503
1241.63	0.558958
1243.24	1.18422
1244.85	1.27092
1246.46	1.17034
1248.07	0.903178
1249.67	1.2353
1251.28	1.00849
1252.89	1.07155
1254.5	1.03193
1256.1	1.24163
1257.71	0.563075
1259.32	0.713089
1260.92	1.07106
1262.53	0.311532
1264.13	0.504355
1265.74	1.50512
1267.34	0.764516
1268.95	0.768999
1270.55	0.772457
1272.15	1.02367
1273.76	0.693326
1275.36	1.3363
1276.97	1.16985
1278.57	1.58266
1280.17	1.02134
1281.77	0.791341
1283.37	1.22366
1284.97	1.5321
1286.58	1.15909
1288.18	1.3867
1289.78	1.20188
1291.38	1.38954
1292.98	1.06052
1294.58	1.32989
1296.18	0.978247
1297.78	1.73994
1299.37	1.38504
1300.97	1.27641
1302.57	1.72283
1304.17	1.32371
1305.77	1.15075
1307.36	1.38836
1308.96	1.42001
1310.55	1.32865
1312.15	1.42212
1313.75	1.14807
1315.34	1.65199
1316.94	1.50273
1318.53	1.25226
1320.13	1.34858
1321.72	1.46416
1323.32	1.00815
1324.91	1.42534
1326.5	1.69798
1328.1	1.84773
1329.69	1.87621
1331.28	1.84571
1332.87	0.908456
1334.47	1.71131
1336.06	2.03055
1337.65	1.58362
1339.24	2.10394
1340.83	1.79593
1342.42	1.84834
1344.01	1.81812
1345.6	1.50577
1347.19	1.13422
1348.78	1.56642
1350.37	0.919708
1351.96	1.4365
1353.54	1.17518
1355.13	1.47499
1356.72	1.21551
1358.31	1.47508
1359.89	0.854885
1361.48	0.513585
1363.07	0.550839
1364.65	1.00636
1366.24	0.98344
1367.82	1.06093
1369.41	1.04006
1370.99	0.861429
1372.58	0.82353
1374.16	1.125
1375.75	0.631204
1377.33	0.754323
1378.91	1.11572
1380.5	0.958715
1382.08	1.13861
1383.66	1.41649
1385.25	0.898061
1386.83	0.856466
1388.41	1.35122
1389.99	0.39726
1391.57	0.536199
1393.15	0.675815
1394.73	0.538061
1396.31	0.796744
1397.89	0.697764
1399.47	0.677125
1401.05	0.814002
1402.63	0.851193
1404.21	1.06638
1405.78	1.10391
1407.36	0.549347
1408.94	1.18151
1410.52	1.16195
1412.1	1.10286
1413.67	1.00371
1415.25	1.3575
1416.82	0.724085
1418.4	1.35235
1419.98	0.719596
1421.55	1.26992
1423.13	1.1522
1424.7	0.76067
1426.28	0.527867
1427.85	1.12223
1429.42	0.810911
1431	1.26629
1432.57	1.40551
1434.14	1.56336
1435.71	1.34699
1437.29	2.03537
1438.86	1.19102
1440.43	2.11681
1442	2.23772
1443.57	2.06459
1445.14	2.10807
1446.71	2.15175
1448.28	1.68451
1449.85	2.14149
1451.42	2.20584
1452.99	1.60213
1454.56	2.23784
1456.13	2.34253
1457.7	1.6003
1459.26	1.56507
1460.83	1.90194
1462.4	1.74484
1463.97	1.70411
1465.54	1.28885
1467.1	1.08977
1468.67	1.36246
1470.23	1.20409
1471.8	1.4001
1473.36	1.02832
1474.93	0.579042
1476.49	0.36557
1478.06	0.681568
1479.62	1.01702
1481.19	0.803508
1482.75	0.727139
1484.31	0.729024
1485.88	0.20162
1487.44	0.33959
1489	0.417456
1490.56	0.767365
1492.13	0.625851
1493.69	0.0527668
1495.25	0.630213
1496.81	1.18572
1498.37	0.0467215
1499.93	0.271502
1501.49	0.360908
1503.05	0.645178
1504.61	0.329162
1506.17	0.865651
1507.73	0.530277
1509.28	0.291129
1510.84	-0.141548
1512.4	-0.284908
1513.96	1.09211
1515.52	0.428421
1517.07	0.765216
1518.63	0.545932
1520.19	0.231956
1521.74	0.339785
1523.3	0.619055
1524.85	0.381445
1526.41	0.124363
1527.96	0.533463
1529.52	0.636689
1531.07	0.625683
1532.63	0.463559
1534.18	0.548909
1535.73	0.748552
1537.29	0.400807
1538.84	0.507426
1540.39	0.350224
1541.94	0.532488
1543.5	0.751925
1545.05	0.857925
1546.6	1.28277
1548.15	1.06866
1549.7	0.948675
1551.25	0.716786
1552.8	1.00963
1554.35	1.26554
1555.9	1.57854
1557.45	0.623802
1559	0.866027
1560.55	1.35255
1562.1	0.963873
1563.65	1.00539
1565.19	0.711624
1566.74	1.10834
1568.29	1.39293
1569.83	1.49052
1571.38	1.49439
1572.93	1.49795
1574.47	1.10935
1576.02	1.22479
1577.56	1.45247
1579.11	1.86731
1580.66	1.49868
1582.2	1.54163
1583.74	1.41734
1585.29	1.14423
1586.83	0.796608
1588.38	1.38405
1589.92	1.41038
1591.46	1.41756
1593.01	1.27445
1594.55	1.89891
1596.09	1.51205
1597.63	1.95005
1599.17	1.95785
1600.71	1.62875
1602.25	1.09333
1603.79	1.57138
1605.34	2.03037
1606.88	2.05596
1608.41	1.62831
1609.95	1.98757
1611.49	1.14172
1613.03	1.703
1614.57	1.49282
1616.11	1.32001
1617.65	1.99137
1619.18	1.57669
1620.72	1.33248
1622.26	1.16471
1623.79	1.12885
1625.33	1.72943
1626.87	1.03767
1628.4	1.11203
1629.94	1.27841
1631.48	1.10717
1633.01	1.7949
1634.55	1.00751
1636.08	1.06134
1637.61	1.11604
1639.15	0.481524
1640.68	1.56203
1642.21	1.50468
1643.75	1.80001
1645.28	1.55408
1646.81	1.90256
1648.34	1.95293
1649.88	1.74371
1651.41	1.68427
1652.94	1.58911
1654.47	1.79183
1656	1.99507
1657.53	1.71634
1659.06	1.93704
1660.59	1.91548
1662.12	1.74441
1663.65	1.72025
1665.18	1.6032
1666.71	1.56055
1668.24	1.0765
1669.76	1.09219
1671.29	1.27518
1672.82	1.33021
1674.35	1.82763
1675.87	1.80903
1677.4	0.979811
1678.93	1.49303
1680.45	1.15891
1681.98	1.37564
1683.5	1.26124
1685.03	0.523171
1686.55	1.10675
1688.08	0.60874
1689.6	0.423066
1691.13	1.04341
1692.65	1.05931
1694.17	1.14828
1695.7	0.0852613
1697.22	0.466563
1698.74	0.737528
1700.27	0.332506
1701.79	0.620507
1703.31	0.488379
1704.83	0.0463486
1706.35	0.714442
1707.87	0.144985
1709.39	-0.151131
1710.91	0.20664
1712.43	0.582101
1713.95	-0.20239
1715.47	-0.170945
1716.99	0.22212
1718.51	-0.2892
1720.03	0.373964
1721.55	-0.118497
1723.07	0.417967
1724.58	-0.0722723
1726.1	0.699783
1727.62	0.0504942
1729.13	0.0503702
1730.65	0.301731
1732.17	0.0695572
1733.68	0.208354
1735.2	0.361039
1736.72	0.405772
1738.23	0.300576
1739.74	0.649178
1741.26	0.057725
1742.77	-0.109396
1744.29	0.0707178
1745.8	-0.0354671
1747.32	0.514871
1748.83	0.321016
1750.34	0.370278
1751.85	0.469048
1753.37	-0.0292721
1754.88	0.112997
1756.39	0.338272
1757.9	0.128772
1759.41	0.00685596
1760.92	-0.00271702
1762.44	0.186209
1763.95	-0.147838
1765.46	0.0479889
1766.96	-0.00472546
1768.47	0.0653324
1769.98	0.0416899
1771.49	-0.102185
1773	-0.255755
1774.51	0.31079
1776.02	0.339252
1777.53	0.04848
1779.03	0.186865
1780.54	0.149311
1782.05	0.0510197
1783.55	0.128152
1785.06	0.126143
1786.57	-0.104314
1788.07	-0.0869379
1789.58	-0.18879
1791.08	0.0173941
1792.59	0.00602913
1794.09	-0.118485
1795.6	0.252855
1797.1	0.381891
1798.61	-0.172676
1800.11	0.0631332
1801.61	0.151862
1803.12	0.205912
1804.62	0.295122
1806.12	0.249801
1807.62	0.39261
1809.12	0.157041
1810.63	0.0901155
1812.13	-0.038291
1813.63	0.324099
1815.13	-0.0878057
1816.63	0.345895
1818.13	-0.0174837
1819.63	0.0154486
1821.13	-0.14187
1822.63	0.306169
1824.13	0.119699
1825.63	-0.0402155
1827.13	0.111719
1828.62	-0.0156155
1830.12	0.206097
1831.62	0.0136757
1833.12	-0.0416546
1834.61	-0.135164
1836.11	-0.209311
1837.61	0.139937
1839.1	0.17657
1840.6	-0.166629
1842.09	0.0391932
1843.59	0.114696
1845.09	0.106472
1846.58	0.127739
1848.08	-0.188386
1849.57	0.210925
1851.06	-0.140587
1852.56	-0.0972338
1854.05	0.266594
1855.54	-0.0200472
1857.04	0.346864
1858.53	0.239581
1860.02	0.117286
1861.51	0.150437
1863.01	-0.150496
1864.5	0.290272
1865.99	0.138949
1867.48	0.294815
1868.97	0.313441
1870.46	-0.0548449
1871.95	0.0179653
1873.44	0.0819664
1874.93	-0.265708
1876.42	0.317255
1877.91	-0.349673
1879.4	0.0843687
1880.89	0.300207
1882.37	-0.0301266
1882.46	-0.0521803
1883.95	-0.0880098
1885.45	0.328542
1886.94	-0.179271
1888.43	-0.0255451
1889.93	-0.167623
1891.42	-0.221722
1892.91	0.00385857
1894.41	0.231093
1895.9	-0.374745
1897.39	0.133065
1898.88	-0.193935
1900.37	0.208735
1901.86	0.227163
1903.36	0.504736
1904.85	-0.192833
1906.34	-0.178146
1907.83	0.235876
1909.32	0.493842
1910.81	0.266685
1912.29	0.595661
1913.78	0.144617
1915.27	0.716946
1916.76	0.196503
1918.25	-0.133553
1919.74	0.0559645
1921.23	0.262571
1922.71	-0.327112
1924.2	0.330779
1925.69	0.470262
1927.17	0.403069
1928.66	-0.37336
1930.15	0.408513
1931.63	-0.0224485
1933.12	-0.298873
1934.6	0.0809984
1936.09	0.303249
1937.57	0.0572176
1939.06	0.208447
1940.54	0.0661783
1942.02	0.252773
1943.51	0.146948
1944.99	0.197252
1946.47	0.178958
1947.96	0.453454
1949.44	0.0896454
1950.92	-0.533041
1952.4	0.3584
1953.88	0.0616035
1955.37	-0.0286827
1956.85	-0.238713
1958.33	0.221491
1959.81	-0.175813
1961.29	0.0793648
1962.77	0.180276
1964.25	-0.267318
1965.73	-0.235455
1967.21	-0.0159769
1968.69	0.236831
1970.16	0.215244
1971.64	0.227583
1973.12	-0.135671
1974.6	0.0645428
1976.08	0.29873
1977.55	-0.233714
1979.03	0.18786
1980.51	0.472771
1981.98	0.230169
1983.46	-0.114287
1984.94	-0.22092
1986.41	-0.582032
1987.89	0.192872
1989.36	0.0015974
1990.84	0.268139
1992.31	0.180061
1993.79	0.00850964
1995.26	-0.0100231
1996.73	0.0732479
1998.21	-0.164426
1999.68	-0.233494
2001.15	0.388824
2002.63	-0.153732
2004.1	0.079586
2005.57	0.0265207
2007.04	0.125772
2008.51	0.141656
2009.99	0.293045
2011.46	-0.0264206
2012.93	0.428506
2014.4	0.0751419
2015.87	0.108171
2017.34	-0.246496
2018.81	0.0539913
2020.28	0.236048
2021.75	0.384173
2023.21	0.0120993
2024.68	0.480013
2026.15	0.378439
2027.62	0.513103
2029.09	0.280232
2030.56	0.283466
2032.02	0.10306
2033.49	0.0741043
2034.96	0.263442
2036.42	0.0997925
2037.89	0.305212
2039.36	-0.29637
2040.82	0.110327
2042.29	-0.272716
2043.75	0.28658
2045.22	0.258219
2046.68	0.398925
2048.14	0.102134
2049.61	0.512599
2051.07	0.349223
2052.54	0.268594
2054	0.489789
2055.46	0.338263
2056.93	0.809186
2058.39	0.385845
2059.85	0.181627
2061.31	0.112634
2062.77	0.599922
2064.23	0.684062
2065.7	0.584072
2067.16	0.434443
2068.62	-0.337355
2070.08	0.304945
2071.54	0.257234
2073	0.125196
2074.46	0.380183
2075.92	-0.341828
2077.38	-0.00327969
2078.83	0.452782
2080.29	0.184294
2081.75	0.235237
2083.21	0.403364
2084.67	0.149992
2086.12	0.064311
2087.58	0.297586
2089.04	0.647883
2090.49	0.292123
2091.95	0.759308
2093.41	0.454045
2094.86	0.735845
2096.32	0.312889
2097.77	0.325327
2099.23	0.353872
2100.68	0.683064
2102.14	0.410358
2103.59	0.339207
2105.05	0.336113
2106.5	0.534556
2107.95	0.433702
2109.41	-0.233681
2110.86	0.0157003
2112.31	0.297049
2113.76	0.343365
2115.21	0.587747
2116.67	0.41518
2118.12	0.508944
2119.57	0.205427
2121.02	0.401752
2122.47	0.284649
2123.92	0.334812
2125.37	0.733821
2126.82	0.154347
2128.27	0.966571
2129.72	0.252488
2131.17	0.945601
2132.62	0.147388
2134.07	0.47497
2135.51	0.670627
2136.96	0.520391
2138.41	0.223229
2139.86	0.274898
2141.31	0.592582
2142.75	0.184
2144.2	0.387809
2145.65	0.442989
2147.09	0.66352
2148.54	0.817379
2149.98	1.10303
2151.43	0.841033
2152.87	0.594599
2154.32	0.844443
2155.76	0.845284
2157.21	0.746777
2158.65	0.814572
2160.1	0.635117
2161.54	0.755491
2162.98	0.74506
2164.43	0.437479
2165.87	0.976969
2167.31	0.836033
2168.75	0.544334
2170.2	1.04902
2171.64	0.503983
2173.08	0.905241
2174.52	0.739565
2175.96	1.10552
2177.4	1.02256
2178.84	0.60783
2180.28	1.07519
2181.72	0.811871
2183.16	0.748613
2184.6	0.253159
2186.04	0.739103
2187.48	0.809279
2188.92	0.646532
2190.36	0.916492
2191.79	1.1863
2193.23	0.789479
2194.67	0.840932
2196.11	0.990529
2197.54	0.855246
2198.98	0.868082
2200.42	0.597404
2201.85	0.310339
2203.29	0.687898
2204.72	0.585127
2206.16	0.698897
2207.59	0.564596
2209.03	0.546188
2210.46	0.593299
2211.9	0.325132
2213.33	0.668206
2214.77	0.597698
2216.2	0.758911
2217.63	0.558047
2219.07	0.342044
2220.5	0.934828
2221.93	0.406693
2223.36	0.537293
2224.8	0.2219
2226.23	0.826828
2227.66	0.492049
2229.09	0.173092
2230.52	0.313437
2231.95	0.10911
2233.39	0.412908
2234.81	0.177121
2236.25	0.334932
2237.67	0.20008
2239.1	0.0671148
2240.53	0.245987
2241.96	0.165494
2243.39	0.0372372
2244.82	0.414979
2246.25	0.0907917
2247.68	0.336067
2249.1	0.481405
2250.53	0.543024
2251.96	0.554004
2253.38	-0.0538559
2254.81	0.233228
2256.24	0.423704
2257.66	0.470076
2259.09	0.275744
2260.51	0.067914
2261.94	0.56017
2263.36	0.486031
2264.79	0.265909
2266.21	0.191554
2267.64	0.0513306
2269.06	0.349552
2270.49	0.142565
2271.91	0.325773
2273.33	0.378592
2274.76	0.366341
2276.18	0.012105
2277.6	0.358662
2279.02	0.2327
2280.44	0.285991
2281.87	0.388129
2283.29	0.310761
2284.71	0.168113
2286.13	-0.153968
2287.55	0.0792274
2288.97	0.280303
2290.39	0.024395
2291.81	0.0464277
2293.23	0.37932
2294.65	0.0416784
2296.07	0.325661
2297.49	0.4297
2298.91	0.451956
2300.33	0.310503
2301.74	0.267565
2303.16	0.290477
2304.58	0.182245
2306	0.320181
2307.41	0.425077
2308.83	-0.0293293
2310.25	0.173124
2311.66	0.671406
2313.08	0.26498
2314.5	0.171372
2315.91	0.144217
2317.33	0.167177
2318.74	0.470823
2320.16	0.543709
2321.57	0.0876341
2322.98	0.1742
2324.4	0.159628
2325.81	0.588424
2327.23	0.569985
2328.64	0.418932
2330.05	0.449369
2331.46	0.398273
2332.88	-0.112567
2334.29	0.0522957
2335.7	-0.144583
2337.11	0.25033
2338.52	-0.0299492
2339.94	0.313398
2341.35	-0.132811
2342.76	0.290863
2344.17	0.0579119
2345.58	0.120511
2346.99	0.0686378
2348.4	0.376994
2349.81	0.17749
2351.22	-0.283994
2352.62	-0.271949
2354.03	0.114532
2355.44	-0.152429
2356.85	-0.0120716
2358.26	-0.116038
2359.67	-0.00846481
2361.07	0.585895
2362.48	0.41694
2363.89	0.151069
2365.29	0.160745
2366.7	0.122073
2368.11	0.342346
2369.51	0.25667
2370.92	0.414152
2372.32	0.476038
2373.73	0.538846
2375.13	0.1352
2376.54	0.214265
2377.94	-0.17405
2379.35	0.304461
2380.75	0.266894
2382.15	0.452555
2383.56	-0.0357981
2384.96	0.468566
2386.36	0.285042
2387.76	0.10275
2389.17	0.113258
2390.57	-0.0503492
2391.97	0.137612
2393.37	0.0557785
2394.77	0.133842
2396.17	0.291987
2397.58	0.0532885
2398.98	-0.0576324
2400.38	0.181441
2401.78	-0.182851
2403.18	0.104148
2404.58	0.216063
2405.97	0.263652
2407.37	0.0405798
2408.77	-0.103734
2410.17	0.0370979
2411.57	0.431451
2412.97	0.604472
2414.37	0.319458
2415.76	0.384211
2417.16	0.276088
2418.56	-0.163692
2419.95	-0.144003
2421.35	0.0181637
2422.75	-0.231838
2424.14	0.183308
2425.54	-0.0352683
2426.93	0.142759
2428.33	-0.249074
2429.72	-0.243847
2431.12	0.174555
2432.51	0.180772
2433.91	0.138894
2435.3	0.175406
2436.7	0.0834618
2438.09	0.339632
2439.48	0.35623
2440.88	0.149606
2442.27	0.101336
2443.66	0.00521946
2445.05	0.305551
2446.44	0.462783
2447.84	0.223552
2449.23	0.142916
2450.62	0.474218
2452.01	0.220124
2453.4	0.694779
2454.79	-0.332886
2456.18	0.0482292
2457.57	0.19232
2458.96	-0.0117016
2460.35	0.19499
2461.74	0.290183
2463.13	0.337151
2464.52	0.336116
2465.91	0.0820961
2467.29	-0.187586
2468.68	0.394957
2470.07	0.17245
2471.46	0.454158
2472.85	0.372576
2474.23	0.243136
2475.62	0.144724
2477.01	0.266151
2478.39	0.214558
2479.78	0.225958
2481.16	-0.0133877
2482.55	-0.174074
2483.93	0.0408134
2485.32	-0.230319
2486.7	-0.0331955
2488.09	0.0220327
2489.47	-0.157362
2490.86	0.161623
2492.24	0.18488
2493.62	0.395385
2495.01	0.032742
2496.39	0.307405
2497.77	0.210731
2499.15	-0.241546
2500.54	0.157261
2501.92	0.075634
2503.3	0.116785
2504.68	-0.0897932
2506.06	0.181157
2507.45	0.158819
2508.83	0.167374
2510.21	0.222364
2511.59	0.400569
2512.97	0.165292
2514.35	0.48262
2515.73	-0.118071
2517.11	0.353513
2518.48	0.19824
2519.86	0.318367
2521.24	0.636681
2522.62	0.221344
2524	-0.133212
2525.38	0.182703
2526.75	0.299866
2528.13	-0.0849481
2529.51	-0.240163
2530.89	0.244527
2532.26	0.502504
2533.64	0.123606
2535.02	0.00372696
2536.39	-0.0553851
2537.77	0.0368428
2539.14	0.0978031
2540.52	-0.191247
2541.89	0.111468
2543.27	0.110749
2544.64	0.156292
2546.01	0.0664296
2547.39	-0.0981541
2548.76	0.0565953
2550.14	0.317735
2551.51	0.168772
2552.88	0.276947
2554.25	0.566232
2555.63	0.293178
2557	0.201719
2558.37	0.110169
2559.74	0.0946898
2561.11	0.140326
2562.49	0.186536
2563.86	0.218131
2565.23	-0.416637
2566.6	0.0853748
2567.97	-0.0186977
2569.34	-0.0469913
2570.71	0.106586
2572.08	0.351158
2573.45	0.12592
2574.82	-0.0386271
2576.18	0.0848918
2577.55	0.253851
2578.92	0.225505
2580.29	0.0300379
2581.66	-0.0596642
2583.02	0.0625629
2584.39	0.169377
2585.76	0.0638971
2587.13	0.276825
2588.49	0.0806952
2589.86	0.33934
2591.22	0.112931
2592.59	0.249792
2593.96	0.294971
2595.32	0.308876
2596.69	-0.0263586
2598.05	0.0464683
2599.42	0.28515
2600.78	0.100537
2602.14	0.233723
2603.51	0.352309
2604.87	0.0639138
2606.23	0.349146
2607.6	0.181517
2608.96	-0.0319505
2610.32	-0.0655212
2611.69	0.170668
2613.05	0.330167
2614.41	-0.427724
2615.77	0.0761986
2617.13	-0.0653315
2618.49	0.10845
2619.86	0.0731444
2621.22	-0.350202
2622.58	-0.383961
2623.94	0.254501
2625.3	0.145943
2626.66	0.141687
2628.02	-0.101299
2629.37	-0.210191
2630.73	0.514085
2632.09	0.285631
2633.45	0.265464
2634.81	0.111716
2636.17	0.180644
2637.53	0.071619
2638.88	-0.0371904
2640.24	0.0318484
2641.6	0.204494
2642.96	0.465793
2644.31	0.0477881
2645.67	0.205667
2647.02	-0.0793033
2648.38	-0.128767
2649.74	0.0271487
2651.09	0.299734
2652.45	-0.00132799
2653.8	0.0505185
2655.16	0.117582
2656.51	0.170888
2657.86	0.00564432
2659.22	-0.0122781
2660.57	0.189541
2661.93	0.522582
2663.28	0.401906
2664.63	-0.0259261
2665.98	0.042058
2667.34	-0.123703
2668.69	-0.0126233
2670.04	-0.0178938
2671.39	0.195412
2672.75	0.0748124
2674.09	0.100162
2675.45	0.198587
2676.8	0.486065
2678.15	0.309835
2679.5	0.293991
2680.85	-0.0978241
2682.2	0.134905
2683.55	0.412281
2684.9	0.270082
2686.25	0.20081
2687.6	0.145917
2688.94	0.00282097
2690.29	0.192076
2691.64	-0.20099
2692.99	-0.145426
2694.34	-0.00381231
2695.68	0.0649815
2697.03	0.264613
2698.38	-0.287753
2699.73	0.334427
2701.07	0.19077
2702.42	0.309199
2703.76	0.0954466
2705.11	0.345923
2706.45	0.335624
2707.8	0.0929055
2709.15	0.401239
2710.49	0.186653
2711.83	0.131457
2713.18	0.177809
2714.52	-0.0665846
2715.87	0.357653
2717.21	0.112989
2718.55	0.566251
2719.9	-0.159245
2721.24	0.366163
2722.58	0.338171
2723.93	0.164166
2725.27	0.295414
2726.61	0.164307
2727.95	-0.243605
2729.29	0.0759568
2730.63	0.45351
2731.98	0.248984
2733.32	0.146413
2734.66	-0.0577946
2736	0.305453
2737.34	-0.0584006
2738.68	-0.0441065
2740.02	0.435319
2741.36	0.0999537
2742.7	-0.163204
2744.03	0.198064
2745.37	0.209843
2746.71	0.366419
2748.05	0.232359
2749.39	0.287071
2750.72	0.443444
2752.06	0.222995
2753.4	-0.0840311
2754.74	0.319229
2756.07	0.0995603
2757.41	0.0104861
2758.75	0.428353
2760.08	-0.00751877
2761.42	0.208402
2762.76	-0.154066
2764.09	0.0915155
2765.42	0.221336
2766.76	0.00352335
2768.09	0.262272
2769.43	0.143743
2770.76	-0.0772014
2772.1	0.0185933
2773.43	0.214283
2774.76	-0.0666609
2776.1	-0.332766
2777.43	0.337382
2778.76	0.172885
2780.1	-0.120208
2781.43	-0.096652
2782.76	-0.116098
2784.09	0.122594
2785.42	0.0456247
2786.75	0.054853
2788.09	0.0645237
2789.42	0.132132
2790.75	0.24343
2792.08	-0.445297
2793.41	-0.246956
2794.74	0.0228124
2796.07	0.163568
2797.4	-0.067647
2798.73	-0.0850358
2800.06	0.311086
2801.39	0.107438
2802.71	0.0321379
2804.04	0.0564394
2805.37	-0.176052
2806.7	-0.394565
2808.03	-0.158189
2809.35	0.00637865
2810.68	0.156492
2812.01	0.193394
2813.33	0.174569
2814.66	0.11459
2815.99	0.041831
2817.31	-0.100715
2818.64	-0.115126
2819.96	0.0689297
2821.29	0.0966802
2822.61	-0.287148
2823.94	0.207024
2825.26	0.332349
2826.59	0.202744
2827.91	-0.0112796
2829.23	0.568059
2830.56	0.142687
2831.88	-0.0700974
2833.21	0.439
2834.53	-0.283632
2835.85	0.691716
2837.17	0.406943
2838.5	0.41895
2839.82	0.727731
2841.14	0.442631
2842.46	0.87894
2843.78	0.990651
2845.1	1.20197
2846.42	0.94753
2847.74	0.961967
2849.06	0.863377
2850.38	0.962404
2851.71	0.90552
2853.03	1.0319
2854.34	1.22856
2855.66	1.65104
2856.98	1.28229
2858.3	1.13969
2859.62	1.19485
2860.94	1.05217
2862.26	1.65748
2863.57	1.78231
2864.89	1.94916
2866.21	1.76322
2867.53	2.29687
2868.84	1.82961
2870.16	1.98322
2871.48	1.91143
2872.79	1.79716
2874.11	2.3727
2875.42	2.14405
2876.74	2.53403
2878.05	2.34591
2879.37	2.21395
2880.68	2.91173
2882	2.42943
2883.31	1.72382
2884.63	2.40957
2885.94	2.11294
2887.26	2.57442
2888.57	2.53017
2889.88	2.26079
2891.19	2.5517
2892.51	2.57549
2893.82	2.27688
2895.13	2.69301
2896.44	2.24171
2897.76	2.26745
2899.07	2.51798
2900.38	2.74121
2901.69	2.811
2903	2.74113
2904.31	2.76931
2905.62	2.88168
2906.93	2.67285
2908.24	2.91237
2909.55	3.20872
2910.86	3.01594
2912.17	3.17304
2913.48	2.96555
2914.79	3.66683
2916.1	2.85457
2917.41	3.3568
2918.71	3.32617
2920.02	3.56113
2921.33	3.75458
2922.64	4.11683
2923.94	4.06098
2925.25	3.95033
2926.56	4.24567
2927.86	3.8701
2929.17	3.94155
2930.48	4.45987
2931.78	3.99917
2933.09	3.9157
2934.39	4.06984
2935.7	4.04238
2937	3.65176
2938.31	3.56879
2939.61	3.77952
2940.92	3.82304
2942.22	3.16862
2943.53	3.25586
2944.83	3.52609
2946.13	3.65771
2947.43	3.49624
2948.74	3.09653
2950.04	2.7516
2951.34	2.75511
2952.64	2.53296
2953.95	2.71566
2955.25	2.534
2956.55	2.787
2957.85	2.95776
2959.15	3.38305
2960.45	2.35441
2961.75	2.43378
2963.05	2.4018
2964.35	2.66421
2965.65	2.71502
2966.95	2.01954
2968.25	2.32053
2969.55	2.38196
2970.85	2.55582
2972.15	2.22359
2973.45	1.72264
2974.75	2.30534
2976.05	2.40911
2977.34	2.01894
2978.64	1.64133
2979.94	1.8817
2981.24	1.98
2982.53	1.76826
2983.83	1.79598
2985.13	1.55763
2986.42	1.44724
2987.72	1.38037
2989.01	1.46903
2990.31	1.13639
2991.61	1.18281
2992.9	1.04563
2994.19	0.570169
2995.49	0.894629
2996.78	0.72679
2998.08	0.951847
2999.37	0.251133
3000.67	0.897544
3001.96	0.520816
3003.25	1.06957
3004.55	0.987747
3005.84	0.765726
3007.13	0.655321
3008.42	0.390371
3009.72	0.460526
3011.01	0.306356
3012.3	0.473159
3013.59	0.486239
3014.88	0.0675387
3016.17	0.318755
3017.46	0.319754
3018.76	0.321271
3020.05	0.0864811
3021.34	-0.176183
3022.63	0.255269
3023.92	-0.10584
3025.21	-0.106486
3026.49	-0.0796232
3027.78	0.155165
3029.07	-0.0518804
3030.36	0.101976
3031.65	-0.088223
3032.94	0.17831
3034.23	0.0309968
3035.51	0.15929
3036.8	0.0105786
3038.09	-0.222137
3039.38	0.273363
3040.66	-0.113398
3041.95	0.13144
3043.23	0.0465775
3044.52	0.291238
3045.81	0.27705
3047.09	0.251276
3048.38	0.418891
3049.66	0.151672
3050.95	0.240909
3052.23	0.276371
3053.52	0.339205
3054.8	0.41513
3056.09	0.380975
3057.37	0.26406
3058.65	0.323668
3059.94	0.301263
3061.22	0.0751133
3062.5	0.502963
3063.79	-0.0471878
3065.07	-0.133447
3066.35	0.542906
3067.63	0.377382
3068.92	0.375427
3070.2	0.250884
3071.48	0.560831
3072.76	0.352866
3074.04	0.0895081
3075.32	0.0836983
3076.6	0.172673
3077.88	0.302658
3079.16	0.107904
3080.44	0.321617
3081.72	0.143399
3083	0.129185
3084.28	-0.142153
3085.56	0.265113
3086.84	0.0749326
3088.12	0.114887
3089.4	0.262828
3090.67	-0.0103183
3091.95	0.299915
3093.23	-0.176501
3094.51	-0.31338
3095.78	0.0110841
3097.06	0.132232
3098.34	-0.112607
3099.61	-0.276094
3100.89	-0.0466695
3102.17	0.033761
3103.44	-0.0480232
3104.72	0.54751
3105.99	0.182679
3107.27	-0.0999999
3108.54	-0.0975218
3109.82	0.339092
3111.09	0.0186424
3112.37	0.33534
3113.64	0.313983
3114.92	0.102882
3116.19	0.216743
3117.46	0.397758
3118.74	0.360882
3120.01	0.0789437
3121.28	0.175978
3122.55	0.47575
3123.83	0.192651
3125.1	0.3839
3126.37	0.616069
3127.64	0.496881
3128.91	0.0807743
3130.19	0.327851
3131.46	0.561421
3132.73	0.484022
3134	0.636034
3135.27	0.611993
3136.54	0.627975
3137.81	0.603093
3139.08	0.187306
3140.35	0.848909
3141.62	0.379833
3142.89	0.637493
3144.16	0.411913
3145.42	0.589761
3146.69	0.78146
3147.96	0.598478
3149.23	0.884945
