200.43	-0.191632
202.244	-0.15931
204.059	-0.12603
205.873	0.345777
207.688	-0.155135
209.501	0.485762
211.314	0.906091
213.127	0.232059
214.941	0.455059
216.753	0.773827
218.564	1.06776
220.375	0.611485
222.186	0.979002
223.999	0.500778
225.809	0.820893
227.618	0.657519
229.428	0.68688
231.236	0.546507
233.045	-0.221463
234.855	0.361787
236.663	0.367146
238.471	1.33857
240.278	0.552969
242.085	-0.0619612
243.891	-0.000724792
245.698	-0.229259
247.503	-0.0975056
249.309	0.538577
251.116	0.495246
252.921	-0.395872
254.725	0.183381
256.529	-0.275303
258.333	0.640724
260.136	1.09991
261.939	0.163697
263.742	0.192712
265.544	0.608206
267.346	0.517994
269.148	0.162124
270.949	-0.0260677
272.75	0.00141239
274.55	0.268451
276.351	-0.117205
278.15	0.00143623
279.95	-0.219337
281.749	0.207885
283.548	0.488151
285.346	0.333835
287.144	0.178893
288.942	-0.0238285
290.739	0.780542
292.536	0.96247
294.333	0.0453825
296.129	0.445664
297.925	0.34473
299.721	-0.0185223
301.514	0.334698
303.309	0.113732
305.104	0.39278
306.898	0.43196
308.692	0.661442
310.486	0.104891
312.279	-0.116667
314.072	0.568254
315.862	-0.411983
317.654	-0.0094471
319.446	0.251763
321.238	0.132924
323.029	0.968548
324.819	0.755618
326.608	-0.388762
328.398	0.687078
330.188	0.735502
331.977	0.567413
333.766	0.325573
335.553	0.392456
337.341	0.0262527
339.129	0.184318
340.917	0.436293
342.704	0.304674
344.489	0.579202
346.275	-0.220866
348.062	0.197953
349.845	0.688601
351.631	0.0333843
353.416	0.23689
355.201	0.224483
356.984	0.42529
358.768	0.314698
360.552	0.512593
362.333	-0.361663
364.116	-0.30803
365.899	0.695046
367.68	0.247613
369.462	-0.199883
371.243	-0.0551958
373.023	0.0174446
374.804	0.373075
376.585	0.680683
378.363	0.0448837
380.143	-0.0234118
381.923	-0.137582
383.7	0.172982
385.479	-0.220847
387.256	0.185753
389.034	0.00585556
390.812	0.0853157
392.588	0.259441
394.365	0.222779
396.14	-0.0249233
397.916	0.0797176
399.691	0.278097
401.467	-0.0172119
403.24	-0.383647
405.015	0.353059
406.788	0.196469
408.563	0.227124
410.335	0.11655
412.109	0.334572
413.88	0.412102
415.654	0.302593
417.424	0.0295982
419.197	0.296912
420.967	-0.092658
422.739	0.0807848
424.508	0.183131
426.279	0.143712
428.048	0.432081
429.819	0.250438
431.587	0.608577
433.356	0.708805
435.124	-0.622278
436.891	-0.216666
438.66	0.728056
440.426	0.122396
442.194	0.0311241
443.96	0.242567
445.725	0.803231
447.492	0.191432
449.257	0.211573
451.021	0.231738
452.787	-0.308086
454.551	-0.450304
456.314	-0.0562754
458.079	-0.221956
459.842	0.264225
461.604	0.122461
463.368	-0.180343
465.13	0.123458
466.891	0.615854
468.654	0.344193
470.415	0.632337
472.175	0.0604868
473.935	0.0693331
475.696	0.891664
477.456	0.407622
479.215	0.340913
480.973	0.0868444
482.733	0.391891
484.491	0.232245
486.249	0.00454903
488.006	0.384753
489.765	0.277672
491.522	0.568302
493.278	1.11714
495.034	0.427727
496.789	0.392378
498.544	1.34073
500.301	0.578414
502.056	0.588634
503.81	0.785873
505.564	0.324106
507.317	0.801058
509.071	0.0300436
510.825	0.0570316
512.578	0.388388
514.33	0.200589
516.082	0.552559
517.833	0.856077
519.585	0.688165
521.335	0.919054
523.086	0.656034
524.836	0.346123
526.586	0.200724
528.335	1.01681
530.085	0.214968
531.835	0.772038
533.584	0.789273
535.332	-0.0835381
537.08	0.212192
538.827	0.249179
540.574	0.82128
542.321	0.203287
544.068	0.749608
545.814	0.086278
547.56	0.561932
549.305	0.341267
551.05	0.491824
552.795	-0.190477
554.54	0.261085
556.282	-0.0959148
558.025	0.101601
559.769	0.368347
561.512	0.335934
563.255	-0.293887
564.997	0.686754
566.739	-0.193875
568.481	0.373652
570.223	-0.205715
571.964	-0.301599
573.705	-0.418844
575.443	0.314368
577.183	0.452895
578.923	0.546965
580.663	-0.00115585
582.402	-0.342886
584.141	0.28014
585.879	0.350728
587.615	0.650151
589.353	0.00515842
591.09	0.141416
592.828	0.231135
594.564	-0.323506
596.299	-0.279911
598.035	0.821968
599.771	-0.00905323
601.506	0.0563955
603.242	-0.0403805
604.974	-0.207452
606.709	0.12988
608.443	0.236396
610.177	0.0213289
611.908	-0.307728
613.642	-0.131318
615.374	-0.504454
617.105	-0.143988
618.837	-0.0132761
620.569	0.368084
622.3	0.656273
624.03	0.143102
625.761	0.567207
627.491	0.23843
629.219	0.00319862
630.949	0.546165
632.677	0.589177
634.406	0.770268
636.135	-0.121741
637.861	-0.102391
639.59	0.188262
641.318	0.635422
643.043	0.441353
644.77	0.587835
646.495	0.415874
648.222	0.0187082
649.948	0.442987
651.672	0.00750637
653.398	0.575775
655.121	0.44292
656.846	0.81311
658.569	0.113773
660.293	0.325307
662.015	0.375854
663.738	-0.032835
665.46	0.698842
667.183	0.76586
668.903	0.374674
670.626	0.281366
672.346	0.441638
674.067	1.06253
675.787	0.701073
677.508	0.523808
679.226	0.782741
680.947	0.190623
682.665	0.493032
684.385	0.287297
686.102	1.59922
687.821	0.215357
689.538	0.00477409
691.254	0.208096
692.972	0.710252
694.688	0.405473
696.406	0.721553
698.121	1.05929
699.835	0.751182
701.552	0.557162
703.266	0.707178
704.98	0.534729
706.695	0.384943
708.409	0.968808
710.121	0.314031
711.836	0.438358
713.548	0.607919
715.26	0.639858
716.973	0.740164
718.685	0.886021
720.396	0.575964
722.108	0.676484
723.818	0.32185
725.528	1.10437
727.238	1.29469
728.949	0.848835
730.658	1.5369
732.367	0.796385
734.075	1.5504
735.785	0.991999
737.493	0.909262
739.2	0.782238
740.907	0.543682
742.614	-0.0762911
744.322	0.679059
746.028	0.849959
747.734	1.60705
749.439	1.17308
751.144	0.538111
752.849	1.70385
754.555	0.93657
756.26	1.49817
757.963	2.08437
759.667	1.95186
761.37	1.50477
763.073	1.1704
764.775	0.880446
766.477	1.26684
768.179	1.5388
769.883	1.74087
771.584	1.37552
773.285	1.52877
774.986	1.5006
776.686	1.45036
778.386	1.89887
780.085	1.53493
781.785	2.16741
783.484	1.37474
785.182	1.66707
786.881	1.21006
788.579	1.83634
790.276	1.82535
791.974	1.20127
793.671	1.88626
795.367	1.66729
797.064	2.30607
798.76	1.90962
800.456	1.5381
802.151	2.11335
803.846	2.30655
805.541	1.62272
807.234	1.61276
808.928	2.00581
810.622	1.679
812.315	2.15894
814.008	2.27901
815.701	2.26427
817.394	2.49554
819.086	1.67609
820.778	1.86305
822.468	2.18397
824.159	1.68026
825.85	2.0254
827.541	1.68194
829.231	1.89823
830.921	2.11766
832.609	1.78324
834.298	1.74052
835.987	2.25645
837.676	1.74619
839.364	1.74777
841.051	1.72537
842.738	1.72391
844.426	1.56548
846.113	1.80995
847.798	1.89987
849.484	1.4107
851.171	2.13253
852.857	1.62496
854.54	1.31927
856.226	1.50696
857.911	1.73888
859.593	1.47442
861.278	1.14019
862.961	0.511072
864.645	2.02116
866.327	0.983857
868.01	1.38848
869.692	1.04854
871.373	1.38488
873.055	1.42781
874.735	2.19271
876.416	1.55867
878.097	1.46615
879.776	1.23805
881.457	1.23529
883.135	1.27695
884.815	1.09177
886.495	0.972944
888.172	1.93559
889.851	1.06912
891.528	0.94582
893.206	0.641186
894.882	1.79847
896.56	1.15413
898.237	1.67777
899.912	0.875839
901.589	1.48643
903.263	1.15513
904.94	1.20434
906.614	0.985825
908.289	0.768426
909.962	0.997784
911.635	0.96058
913.31	1.01303
914.982	0.621665
916.656	0.741285
918.328	1.08225
920.001	1.22338
921.672	1.38694
923.345	1.52926
925.015	1.07664
926.685	0.604298
928.357	1.39208
930.026	1.29803
931.698	0.807586
933.366	1.83972
935.035	1.72478
936.705	1.50003
938.373	1.5629
940.041	0.855067
941.71	1.11891
943.377	1.22915
945.044	0.94204
946.712	1.27178
948.378	0.473925
950.044	1.37373
951.709	1.36722
953.376	0.897561
955.041	1.17939
956.706	0.846512
958.372	0.979966
960.036	1.0943
961.699	0.503559
963.362	0.751854
965.027	0.932482
966.69	0.933597
968.352	1.02038
970.014	0.640408
971.676	0.72415
973.339	0.365968
975	1.46875
976.661	0.583033
978.322	1.62308
979.982	1.11543
981.642	0.607107
983.303	0.54002
984.962	0.648127
986.621	1.44024
988.28	1.32289
989.938	0.673587
991.596	0.687312
993.254	1.03214
994.911	0.868936
996.57	1.2355
998.227	1.22679
999.884	1.92299
1001.54	1.715
1003.2	2.76118
1004.85	1.54042
1006.51	1.0904
1008.16	0.685055
1009.82	1.00475
1011.47	0.644632
1013.12	0.197753
1014.78	1.48217
1016.43	0.576392
1018.08	0.984903
1019.74	0.409655
1021.39	0.426173
1023.04	0.924641
1024.69	0.768259
1026.34	0.743632
1028	0.65349
1029.65	0.999669
1031.3	0.60189
1032.95	0.573917
1034.6	1.22067
1036.25	0.469776
1037.9	0.721277
1039.54	0.645751
1041.19	0.54923
1042.84	0.367168
1044.49	0.969175
1046.14	-0.0128717
1047.78	0.028019
1049.43	0.678562
1051.08	0.591978
1052.72	0.397564
1054.37	0.594574
1056.02	0.704738
1057.66	-0.0983772
1059.31	-0.206474
1060.95	0.358874
1062.6	0.532118
1064.24	0.269568
1065.88	0.527808
1067.53	0.111103
1069.17	0.193402
1070.81	0.513868
1072.45	0.50831
1074.1	0.503215
1075.74	0.173765
1077.38	0.691548
1079.02	0.82012
1080.66	0.559151
1082.3	1.36072
1083.94	0.903714
1085.58	0.510237
1087.22	0.461669
1088.86	0.476049
1090.5	0.596817
1092.14	-0.0836535
1093.78	0.0788889
1095.42	0.694342
1097.05	1.50351
1098.69	0.137268
1100.33	0.690486
1101.96	0.578024
1103.6	0.574995
1105.24	0.637839
1106.87	-0.24507
1108.51	0.248268
1110.14	0.331882
1111.78	0.155986
1113.41	-0.0428123
1115.05	0.873714
1116.68	0.0292673
1118.31	0.665272
1119.95	0.52985
1121.58	0.652527
1123.21	0.583549
1124.85	-0.083436
1126.48	0.705295
1128.11	0.275517
1129.74	-0.516879
1131.37	-0.089941
1133	0.615123
1134.63	-0.518358
1136.26	0.121773
1137.89	0.247823
1139.52	0.0949402
1141.15	0.304132
1142.78	0.277868
1144.41	-0.302783
1146.04	-0.264015
1147.66	0.372329
1149.29	0.0291138
1150.92	0.581155
1152.55	0.323742
1154.17	-0.168065
1155.8	0.233901
1157.43	0.188684
1159.05	-0.664399
1160.68	-0.282926
1162.3	0.269564
1163.93	0.227653
1165.55	0.398878
1167.17	-0.0042057
1168.8	0.675982
1170.42	0.567793
1172.05	0.0115585
1173.67	0.558214
1175.29	0.27543
1176.91	0.140927
1178.54	-0.0567417
1180.16	-0.168778
1181.78	-0.131737
1183.4	-0.178658
1185.02	0.345022
1186.64	-0.0197163
1188.26	0.289668
1189.88	-0.309806
1191.5	0.206006
1193.12	0.0672464
1194.74	0.641859
1196.36	0.502042
1197.97	0.698535
1199.59	0.666276
1201.21	0.511136
1202.83	0.839192
1204.44	1.12786
1206.06	0.917883
1207.68	-0.166797
1209.29	0.271835
1210.91	1.12669
1212.52	0.394775
1214.14	0.703171
1215.75	0.758986
1217.37	0.0847416
1218.98	0.719989
1220.59	0.419617
1222.21	0.804892
1223.82	0.361918
1225.43	1.08065
1227.05	0.848171
1228.66	0.989694
1230.27	1.21513
1231.88	0.904284
1233.49	1.17352
1235.1	1.77471
1236.72	1.32315
1238.33	1.53411
1239.94	1.4771
1241.55	0.696346
1243.16	1.23895
1244.76	1.59472
1246.37	0.749287
1247.98	1.47541
1249.59	1.35231
1251.2	0.815155
1252.8	1.51943
1254.41	0.838555
1256.02	0.903428
1257.62	1.34195
1259.23	1.32665
1260.84	1.10531
1262.44	0.780777
1264.05	1.63682
1265.66	1.35331
1267.26	1.06886
1268.86	1.61259
1270.47	1.65774
1272.07	1.97129
1273.67	0.604363
1275.28	1.91075
1276.88	1.3505
1278.48	1.20402
1280.09	1.3883
1281.69	1.90324
1283.29	1.59032
1284.89	1.67116
1286.49	0.863965
1288.09	1.36037
1289.69	1.32027
1291.29	1.83864
1292.89	1.24113
1294.49	1.07683
1296.09	1.51022
1297.69	1.71451
1299.29	1.33911
1300.89	1.23063
1302.49	2.02734
1304.08	2.03956
1305.68	1.94814
1307.28	1.91794
1308.88	2.19521
1310.47	1.57017
1312.07	1.49961
1313.66	1.87991
1315.26	1.68845
1316.85	1.80461
1318.45	1.73761
1320.04	1.95601
1321.64	1.92864
1323.23	2.42874
1324.83	1.95012
1326.42	2.28311
1328.01	1.94555
1329.61	1.60945
1331.2	2.40841
1332.79	1.75347
1334.38	2.05102
1335.97	2.02717
1337.56	1.74181
1339.16	2.0003
1340.75	1.69268
1342.34	1.58449
1343.93	1.51461
1345.52	1.46375
1347.11	1.47327
1348.7	1.38439
1350.29	1.15818
1351.87	1.27498
1353.46	1.45383
1355.05	1.15428
1356.64	1.49474
1358.22	1.0555
1359.81	0.995003
1361.4	1.75177
1362.98	0.89106
1364.57	1.12744
1366.16	1.54311
1367.74	1.72021
1369.33	1.00271
1370.91	1.28219
1372.5	1.02577
1374.08	0.830264
1375.67	0.914042
1377.25	1.25663
1378.83	1.14104
1380.41	1.06422
1382	1.40383
1383.58	1.22481
1385.16	0.885875
1386.74	1.83814
1388.33	0.803868
1389.91	1.14081
1391.49	0.982368
1393.07	1.08275
1394.65	1.58016
1396.23	0.966767
1397.81	0.471922
1399.39	1.12571
1400.97	0.649025
1402.55	0.785857
1404.13	0.84337
1405.7	0.68384
1407.28	0.268378
1408.86	0.624646
1410.44	0.842949
1412.01	0.824143
1413.59	0.824505
1415.17	0.685836
1416.74	1.15779
1418.32	0.150595
1419.89	0.523737
1421.47	0.582516
1423.04	0.819974
1424.62	0.586639
1426.19	0.393973
1427.77	1.54028
1429.34	1.26921
1430.91	1.31212
1432.49	1.45221
1434.06	1.92565
1435.63	1.37564
1437.2	1.31769
1438.78	1.5947
1440.35	1.71545
1441.92	1.48348
1443.49	2.07769
1445.06	2.29898
1446.63	1.9898
1448.2	2.48669
1449.77	2.90538
1451.34	1.47645
1452.91	2.09289
1454.48	2.37563
1456.05	2.40269
1457.62	2.37003
1459.18	1.80458
1460.75	1.74895
1462.32	1.92741
1463.89	1.98596
1465.45	1.4536
1467.02	1.47146
1468.59	1.31296
1470.15	1.19479
1471.72	1.39177
1473.28	1.51132
1474.85	1.14143
1476.41	1.10542
1477.98	0.8539
1479.54	0.798406
1481.1	0.762424
1482.67	0.726381
1484.23	0.749006
1485.79	0.732096
1487.36	0.75361
1488.92	1.49816
1490.48	0.655155
1492.04	0.221665
1493.61	0.489985
1495.17	0.385278
1496.73	0.47458
1498.29	0.310445
1499.85	-0.105411
1501.41	0.626098
1502.97	0.348793
1504.53	0.324796
1506.09	0.281768
1507.65	0.683031
1509.2	0.039259
1510.76	0.379908
1512.32	-0.302519
1513.88	0.402179
1515.43	0.394031
1516.99	0.309698
1518.55	0.0729284
1520.1	0.0288401
1521.66	0.539974
1523.22	0.45716
1524.77	0.602874
1526.33	-0.129878
1527.88	0.509412
1529.44	0.176629
1530.99	-0.079277
1532.54	-0.0306149
1534.1	0.889854
1535.65	0.485128
1537.21	0.611305
1538.76	0.209441
1540.31	0.581881
1541.86	0.614615
1543.42	0.797764
1544.97	0.547919
1546.52	0.18568
1548.07	1.1562
1549.62	0.400272
1551.17	1.10659
1552.72	1.15733
1554.27	0.779077
1555.82	1.09386
1557.37	0.775434
1558.92	0.68319
1560.47	0.779465
1562.02	0.951962
1563.56	0.435346
1565.11	0.814819
1566.66	1.13853
1568.21	1.0515
1569.75	0.534756
1571.3	0.950898
1572.85	1.68413
1574.39	1.12919
1575.94	1.39564
1577.49	1.00893
1579.03	1.2947
1580.57	1.37578
1582.12	1.60713
1583.66	1.54058
1585.21	1.51217
1586.75	1.54035
1588.3	1.25074
1589.84	1.80272
1591.38	0.969483
1592.92	1.18378
1594.47	1.69761
1596.01	1.4436
1597.55	1.62093
1599.09	1.33035
1600.63	2.07197
1602.17	1.66997
1603.71	1.24877
1605.25	2.104
1606.79	1.96239
1608.33	1.08558
1609.87	1.20252
1611.41	1.29828
1612.95	1.69242
1614.49	1.61552
1616.03	1.44447
1617.57	1.7802
1619.1	1.21753
1620.64	1.16251
1622.18	1.22128
1623.72	1.01878
1625.25	1.07846
1626.79	1.58653
1628.32	1.40076
1629.86	1.47552
1631.39	1.75467
1632.93	1.52876
1634.46	1.56476
1636	1.39632
1637.53	1.15439
1639.07	1.65902
1640.6	1.3247
1642.13	1.58617
1643.67	1.69731
1645.2	1.80706
1646.73	1.72973
1648.26	2.41402
1649.8	2.67066
1651.33	2.26001
1652.86	1.94394
1654.39	1.6479
1655.92	2.18681
1657.45	2.11388
1658.98	2.16983
1660.51	2.90926
1662.04	2.12919
1663.57	2.0699
1665.1	1.65915
1666.63	2.22754
1668.16	2.33521
1669.68	2.44439
1671.21	2.40774
1672.74	1.78294
1674.27	2.13499
1675.79	2.21047
1677.32	1.88016
1678.85	1.54896
1680.37	2.43045
1681.9	1.78497
1683.42	1.47048
1684.95	1.21151
1686.47	1.44837
1688	0.878972
1689.52	0.823519
1691.05	1.28104
1692.57	1.51859
1694.09	0.530321
1695.62	0.420426
1697.14	1.05955
1698.66	1.05847
1700.18	0.45471
1701.71	0.927251
1703.23	0.122845
1704.75	0.46637
1706.27	0.299439
1707.79	0.696071
1709.31	0.438049
1710.83	-0.000930786
1712.35	0.667089
1713.87	-0.042779
1715.39	-0.0273085
1716.91	0.458372
1718.43	0.111767
1719.95	-0.216269
1721.47	0.0337629
1722.99	0.374055
1724.5	0.17432
1726.02	0.156128
1727.54	0.067214
1729.06	0.537136
1730.57	-0.0337992
1732.09	0.540167
1733.61	-0.426201
1735.12	-0.493596
1736.64	-0.0194054
1738.15	0.189063
1739.67	-0.0782719
1741.18	0.177507
1742.7	0.679796
1744.21	0.155982
1745.72	0.580517
1747.24	0.454076
1748.75	0.0906973
1750.26	0.00341606
1751.77	-0.498116
1753.29	0.0512218
1754.8	0.226365
1756.31	-0.0915108
1757.82	0.0544167
1759.33	0.299063
1760.84	-0.0139971
1762.36	0.133452
1763.87	0.0861273
1765.38	0.232643
1766.89	0.070756
1768.4	-0.022953
1769.91	0.212768
1771.41	0.152621
1772.92	0.39074
1774.43	0.0115786
1775.94	0.0161762
1777.45	0.209805
1778.95	-0.067379
1780.46	-0.0172501
1781.97	-0.248693
1783.48	0.298427
1784.98	-0.107754
1786.49	-0.185126
1787.99	-0.200816
1789.5	0.0609531
1791.01	-0.034133
1792.51	0.219556
1794.01	0.0907831
1795.52	-0.157706
1797.02	0.12659
1798.53	-0.33517
1800.03	0.151156
1801.53	0.204768
1803.04	-0.0224361
1804.54	0.178869
1806.04	-0.338228
1807.54	-0.0832281
1809.05	-0.0591602
1810.55	-0.147148
1812.05	0.218781
1813.55	-0.148793
1815.05	-0.194602
1816.55	0.035615
1818.05	-0.000162125
1819.55	0.237585
1821.05	0.14237
1822.55	-0.0499191
1824.05	0.133427
1825.55	0.0412779
1827.05	0.263159
1828.55	0.158556
1830.04	-0.189814
1831.54	0.258034
1833.04	0.231162
1834.54	0.153928
1836.03	-0.329765
1837.53	0.0179567
1839.03	0.197245
1840.52	0.0659809
1842.02	0.102492
1843.51	0.295159
1845.01	0.381729
1846.5	-0.127872
1848	-0.111748
1849.49	0.211845
1850.99	0.00621414
1852.48	0.24915
1853.97	0.358919
1855.47	0.0802422
1856.96	0.249654
1858.45	0.473596
1859.94	-0.0635624
1861.44	-0.0464058
1862.93	0.490801
1864.42	0.490834
1865.91	0.319822
1867.4	0.320722
1868.89	0.684943
1870.38	0.330949
1871.87	0.115247
1873.36	0.171213
1874.85	0.317104
1876.34	0.516659
1877.83	0.429231
1879.32	0.404927
1880.81	0.599553
1882.3	0.511252
1882.57	0.480412
1884.07	0.167419
1885.56	-0.111258
1887.06	1.02028
1888.55	0.304954
1890.04	0.164742
1891.54	0.321256
1893.03	0.618318
1894.52	0.0651951
1896.02	0.539351
1897.51	0.701406
1899	0.602449
1900.49	0.311061
1901.98	0.487772
1903.47	0.45399
1904.96	0.314533
1906.45	0.122343
1907.94	0.74649
1909.43	0.381301
1910.92	0.55519
1912.41	0.157407
1913.9	0.176559
1915.39	0.421192
1916.88	0.700065
1918.37	0.94359
1919.85	0.11228
1921.34	0.337988
1922.83	0.200331
1924.32	0.219386
1925.8	0.187576
1927.29	0.416444
1928.78	0.265033
1930.26	0.269369
1931.75	0.549984
1933.23	0.396252
1934.72	0.483201
1936.2	0.689549
1937.69	0.462246
1939.17	0.54581
1940.66	0.664099
1942.14	0.368921
1943.63	0.0750408
1945.11	0.402955
1946.59	0.144877
1948.07	0.610512
1949.56	0.420456
1951.04	0.711685
1952.52	0.485461
1954	0.310561
1955.48	0.273293
1956.96	0.682922
1958.45	0.183131
1959.93	0.147705
1961.41	0.592914
1962.89	0.523734
1964.37	0.437278
1965.85	0.692882
1967.32	0.844835
1968.8	0.551234
1970.28	0.667654
1971.76	0.52744
1973.24	0.43857
1974.72	0.45225
1976.19	0.244513
1977.67	0.803652
1979.15	0.511091
1980.63	0.86524
1982.1	0.38583
1983.58	0.263488
1985.05	0.514395
1986.53	0.544196
1988	0.150274
1989.48	0.51926
1990.95	-0.126958
1992.43	0.395448
1993.9	0.664697
1995.38	0.866922
1996.85	0.596409
1998.32	0.461112
1999.8	0.730633
2001.27	0.256843
2002.74	0.373331
2004.22	0.10185
2005.69	0.656582
2007.16	0.419941
2008.63	0.453773
2010.1	0.757771
2011.57	0.624516
2013.04	0.676457
2014.51	0.391377
2015.98	0.139306
2017.45	0.710612
2018.92	0.272011
2020.39	0.908623
2021.86	1.05744
2023.33	0.467911
2024.8	0.752127
2026.27	0.584438
2027.74	0.284029
2029.2	0.437894
2030.67	0.391741
2032.14	0.430366
2033.61	0.419088
2035.07	0.525309
2036.54	0.614414
2038.01	0.400573
2039.47	0.505573
2040.94	0.543322
2042.4	0.531007
2043.87	0.653967
2045.33	0.929338
2046.8	0.498594
2048.26	0.573017
2049.72	0.562891
2051.19	1.04071
2052.65	0.724584
2054.12	0.794476
2055.58	0.879484
2057.04	0.575371
2058.5	0.961575
2059.97	0.623046
2061.43	0.504064
2062.89	0.840408
2064.35	0.756845
2065.81	0.808896
2067.27	0.727126
2068.73	0.326108
2070.19	0.480765
2071.65	0.618668
2073.11	1.16055
2074.57	0.557195
2076.03	0.458619
2077.49	0.494399
2078.95	1.06866
2080.41	0.648898
2081.87	0.700087
2083.32	0.312951
2084.78	1.01909
2086.24	0.714742
2087.7	0.64542
2089.15	0.4245
2090.61	0.892267
2092.07	0.368966
2093.52	0.718627
2094.98	0.514231
2096.43	0.510697
2097.89	0.874977
2099.34	0.769524
2100.8	0.597032
2102.25	0.775919
2103.71	0.805071
2105.16	0.267989
2106.61	0.616841
2108.07	0.933079
2109.52	0.782557
2110.97	0.431519
2112.43	0.412734
2113.88	0.808672
2115.33	0.27074
2116.78	0.830072
2118.23	0.707763
2119.68	0.769497
2121.13	0.219186
2122.59	1.06414
2124.04	1.29659
2125.49	0.61764
2126.94	0.767495
2128.39	0.733977
2129.83	1.12997
2131.28	0.315326
2132.73	0.758798
2134.18	0.788173
2135.63	1.08282
2137.08	0.800152
2138.53	0.899467
2139.97	0.76919
2141.42	0.805698
2142.87	0.876387
2144.31	1.14624
2145.76	1.01921
2147.21	1.04077
2148.65	1.02859
2150.1	1.26404
2151.54	1.08436
2152.99	1.23507
2154.43	1.36839
2155.88	0.921391
2157.32	0.988073
2158.77	1.51924
2160.21	1.09092
2161.65	0.995515
2163.1	1.24994
2164.54	0.659997
2165.98	1.11594
2167.43	1.00751
2168.87	1.16389
2170.31	1.25217
2171.75	1.13882
2173.19	0.940391
2174.64	1.67216
2176.07	1.2889
2177.52	1.52117
2178.96	1.25538
2180.4	1.27318
2181.84	1.2918
2183.28	1.47729
2184.72	1.61318
2186.15	1.36655
2187.59	1.21967
2189.03	1.30575
2190.47	1.59157
2191.91	1.24456
2193.35	1.46281
2194.78	1.16359
2196.22	0.762805
2197.66	0.942748
2199.09	1.13749
2200.53	1.3808
2201.97	1.05914
2203.4	1.07039
2204.84	1.16558
2206.27	1.12906
2207.71	1.02679
2209.14	1.05687
2210.58	0.953725
2212.01	0.651233
2213.45	0.943472
2214.88	0.937868
2216.31	0.685266
2217.75	0.730961
2219.18	0.79425
2220.61	1.30339
2222.05	0.922354
2223.48	0.83739
2224.91	0.504159
2226.34	0.663367
2227.78	0.787866
2229.21	0.730242
2230.64	0.54076
2232.07	0.63006
2233.5	0.441169
2234.93	0.841983
2236.36	0.655058
2237.79	0.731109
2239.22	0.645701
2240.65	0.872152
2242.08	0.855593
2243.5	0.693406
2244.93	1.03716
2246.36	0.776715
2247.79	1.08556
2249.22	0.870395
2250.64	1.07685
2252.07	0.320909
2253.5	0.996555
2254.92	0.761468
2256.35	0.722972
2257.78	0.735474
2259.2	0.961602
2260.63	0.817397
2262.05	0.578052
2263.48	0.61604
2264.9	0.784322
2266.33	0.61095
2267.75	0.631836
2269.18	0.700666
2270.6	0.329238
2272.02	0.575892
2273.45	0.496759
2274.87	0.466532
2276.29	0.778646
2277.71	1.00958
2279.14	0.865726
2280.56	0.591263
2281.98	0.887409
2283.4	0.743102
2284.82	0.908813
2286.24	0.780999
2287.66	0.522834
2289.08	0.444573
2290.5	0.513683
2291.92	0.648489
2293.34	0.636324
2294.76	0.787726
2296.18	0.529943
2297.6	0.615767
2299.02	0.455961
2300.44	0.410915
2301.86	0.661247
2303.27	0.485522
2304.69	0.670881
2306.11	0.790647
2307.53	0.992332
2308.94	0.700489
2310.36	0.194059
2311.78	0.344893
2313.19	0.989411
2314.61	0.400261
2316.02	0.55235
2317.44	0.342856
2318.85	0.792928
2320.27	0.0556717
2321.68	0.587242
2323.1	1.1338
2324.51	0.770373
2325.92	0.734822
2327.34	1.20884
2328.75	0.841095
2330.16	1.2481
2331.58	0.65135
2332.99	0.385301
2334.4	0.465719
2335.81	0.200847
2337.23	0.248128
2338.64	0.27801
2340.05	0.241054
2341.46	0.515261
2342.87	0.279902
2344.28	0.340016
2345.69	0.236413
2347.1	0.280602
2348.51	0.832172
2349.92	0.384804
2351.33	0.542091
2352.74	0.338853
2354.15	0.477719
2355.55	0.909021
2356.96	0.280773
2358.37	0.336918
2359.78	0.0356216
2361.19	0.108315
2362.59	0.278108
2364	0.107315
2365.41	0.0824213
2366.81	0.283998
2368.22	0.178987
2369.62	0.510647
2371.03	0.42396
2372.44	0.4192
2373.84	0.141643
2375.24	0.218765
2376.65	0.231082
2378.05	0.692575
2379.46	0.0432549
2380.86	0.0837355
2382.26	0.0907593
2383.67	0.225045
2385.07	0.3428
2386.47	0.292896
2387.88	0.0684156
2389.28	0.0288382
2390.68	0.325013
2392.08	0.574106
2393.48	-0.00352669
2394.89	0.326698
2396.29	0.228068
2397.69	-0.124194
2399.09	0.429923
2400.49	0.30117
2401.89	0.109216
2403.29	-0.130298
2404.69	0.28092
2406.09	0.373625
2407.48	0.560574
2408.88	0.429394
2410.28	0.234638
2411.68	0.737375
2413.08	0.654539
2414.48	0.303878
2415.87	0.540477
2417.27	0.683367
2418.67	0.589668
2420.06	0.480434
2421.46	0.418552
2422.86	-0.0239267
2424.25	0.880011
2425.65	0.247128
2427.04	0.613059
2428.44	0.773924
2429.83	0.444191
2431.23	0.368714
2432.62	0.213923
2434.02	0.693751
2435.41	0.346683
2436.81	0.57003
2438.2	0.235815
2439.59	0.424653
2440.99	0.596635
2442.38	0.386997
2443.77	0.0661716
2445.16	0.237128
2446.56	0.518769
2447.95	0.498931
2449.34	-0.106977
2450.73	-0.0154943
2452.12	0.0289373
2453.51	0.184828
2454.9	0.452197
2456.29	0.403791
2457.68	0.339874
2459.07	0.418149
2460.46	0.321879
2461.85	0.240673
2463.24	0.364225
2464.63	0.234339
2466.02	0.199035
2467.4	0.258384
2468.79	0.112513
2470.18	0.266219
2471.57	0.419325
2472.95	-0.0270176
2474.34	0.360808
2475.73	0.0396137
2477.12	0.190087
2478.5	0.340271
2479.89	0.0510149
2481.27	0.122994
2482.66	0.633461
2484.04	0.172078
2485.43	0.00780773
2486.81	0.217736
2488.2	0.566566
2489.58	0.259286
2490.97	0.450695
2492.35	0.284634
2493.73	0.368434
2495.12	0.25172
2496.5	0.260415
2497.88	0.285397
2499.27	0.202241
2500.65	0.134331
2502.03	0.158496
2503.41	0.505925
2504.79	0.38906
2506.17	0.302654
2507.56	-0.168537
2508.94	-0.00826359
2510.32	0.167426
2511.7	0.312704
2513.08	0.0446081
2514.46	0.283206
2515.84	0.537609
2517.22	0.471236
2518.59	0.176148
2519.97	-0.179595
2521.35	-0.367216
2522.73	-0.0362778
2524.11	0.125661
2525.49	0.0733223
2526.86	0.249239
2528.24	0.197068
2529.62	0.404532
2530.99	0.278979
2532.37	0.079195
2533.75	-0.377505
2535.12	0.154005
2536.5	0.138517
2537.88	0.0312424
2539.25	0.120536
2540.63	0.0875454
2542	-0.021637
2543.38	-0.267004
2544.75	-0.0715446
2546.12	0.0491838
2547.5	0.489625
2548.87	-0.237193
2550.24	0.249728
2551.62	-0.0376601
2552.99	0.0534735
2554.36	0.17398
2555.74	-0.0250015
2557.11	0.260972
2558.48	0.288907
2559.85	0.104879
2561.22	-0.290734
2562.59	0.360031
2563.96	0.117199
2565.34	0.283952
2566.71	0.0720978
2568.08	-0.169987
2569.45	-0.139267
2570.82	0.27039
2572.18	-0.108054
2573.55	0.180528
2574.92	-0.12198
2576.29	-0.0151434
2577.66	0.106808
2579.03	-0.195994
2580.4	-0.256516
2581.77	0.152642
2583.13	0.227859
2584.5	0.25737
2585.87	0.0443163
2587.23	0.0587845
2588.6	-0.229667
2589.97	-0.139102
2591.33	0.269562
2592.7	0.132236
2594.06	-0.278478
2595.43	0.0975523
2596.79	0.169588
2598.16	0.0592699
2599.52	0.115053
2600.89	0.276663
2602.25	-0.225871
2603.62	0.133138
2604.98	-0.201722
2606.34	-0.249553
2607.71	0.154705
2609.07	0.226227
2610.43	0.401929
2611.79	0.440631
2613.16	0.0571251
2614.52	-0.296322
2615.88	-0.0340509
2617.24	0.182964
2618.6	-0.0341315
2619.96	-0.190245
2621.32	-0.240744
2622.68	-0.245852
2624.04	0.107634
2625.4	-0.0467405
2626.76	0.171654
2628.12	0.0318174
2629.48	0.0408087
2630.84	0.153749
2632.2	-0.0308928
2633.56	0.215483
2634.92	0.105253
2636.28	0.0545092
2637.63	-0.159142
2638.99	-0.283548
2640.35	-0.274447
2641.71	0.0305614
2643.06	-0.10777
2644.42	-0.171925
2645.77	-0.0885334
2647.13	-0.256238
2648.49	0.400514
2649.84	-0.018898
2651.2	-0.247025
2652.55	-0.107815
2653.91	0.134048
2655.26	0.390862
2656.62	0.135767
2657.97	0.0138998
2659.33	0.200236
2660.68	0.0943604
2662.03	-0.128456
2663.39	0.188822
2664.74	0.169227
2666.09	0.0468531
2667.44	0.230272
2668.8	0.165802
2670.15	-0.000123978
2671.5	0.0818939
2672.85	0.0336647
2674.2	0.203938
2675.55	0.0698118
2676.91	0.110482
2678.26	-0.370336
2679.61	0.251901
2680.96	0.00508595
2682.31	0.411893
2683.66	-0.137072
2685	-0.337251
2686.35	-0.000253677
2687.7	0.075532
2689.05	-0.140118
2690.4	0.165258
2691.75	0.0914555
2693.1	0.00176048
2694.44	-0.306235
2695.79	-0.0923009
2697.14	0.266889
2698.49	-0.0679832
2699.83	0.0622396
2701.18	0.0348616
2702.52	0.24068
2703.87	0.302768
2705.22	0.263945
2706.56	0.0801105
2707.91	0.142561
2709.25	0.248243
2710.6	0.048697
2711.94	0.0957398
2713.29	0.0700407
2714.63	0.305936
2715.97	0.207506
2717.32	0.152529
2718.66	0.242781
2720.01	0.0853648
2721.35	-0.145291
2722.69	0.0747662
2724.03	-0.0549116
2725.38	-0.024869
2726.72	0.36871
2728.06	0.0488148
2729.4	-0.0820456
2730.74	0.13622
2732.08	0.223491
2733.42	0.121741
2734.76	0.0347514
2736.1	-0.00837898
2737.44	0.268608
2738.78	0.0220103
2740.12	0.56049
2741.46	-0.108427
2742.8	0.138127
2744.14	0.194983
2745.48	0.178588
2746.82	0.423199
2748.16	0.144907
2749.49	0.0265179
2750.83	0.0824785
2752.17	0.182155
2753.51	-0.181755
2754.84	-0.154067
2756.18	0.351709
2757.52	-0.387856
2758.85	0.190534
2760.19	-0.171678
2761.53	0.00213528
2762.86	0.205321
2764.2	0.408803
2765.53	-0.0677519
2766.87	-0.139583
2768.2	0.0770335
2769.54	-0.011322
2770.87	-0.245464
2772.2	-0.0617676
2773.54	0.481418
2774.87	-0.0292001
2776.2	-0.308466
2777.54	0.075099
2778.87	0.0847135
2780.2	0.0948381
2781.53	0.234516
2782.87	0.0440454
2784.2	-0.17489
2785.53	0.265727
2786.86	0.233346
2788.19	-0.0990725
2789.52	-0.330226
2790.85	0.183364
2792.18	-0.0318069
2793.51	-0.0462966
2794.84	0.239397
2796.17	-0.346934
2797.5	0.180705
2798.83	-0.163504
2800.16	0.291408
2801.49	-0.224349
2802.82	0.158472
2804.15	0.0276523
2805.47	-0.0607023
2806.8	-0.234901
2808.13	-0.0538597
2809.46	-0.0582047
2810.78	0.249931
2812.11	-0.137099
2813.44	0.214952
2814.76	-0.112408
2816.09	0.313038
2817.42	-0.139287
2818.74	-0.179998
2820.07	-0.0647888
2821.39	0.22008
2822.72	0.0649652
2824.04	0.12185
2825.37	-0.0198936
2826.69	0.0509109
2828.02	0.0938792
2829.34	0.406369
2830.66	0.351225
2831.99	0.183058
2833.31	0.269643
2834.63	0.469152
2835.96	0.498327
2837.28	0.470387
2838.6	0.753255
2839.92	0.58326
2841.24	0.78107
2842.57	1.02163
2843.89	1.30517
2845.21	1.25025
2846.53	1.15356
2847.85	1.67909
2849.17	1.56868
2850.49	1.96679
2851.81	2.25131
2853.13	2.57765
2854.45	2.22524
2855.77	2.32486
2857.09	2.09954
2858.41	2.21334
2859.72	2.55306
2861.04	2.58185
2862.36	2.70911
2863.68	2.80769
2865	3.07528
2866.31	3.48377
2867.63	3.51159
2868.95	3.93471
2870.26	3.99162
2871.58	4.07689
2872.9	4.35911
2874.21	4.49944
2875.53	4.28631
2876.84	4.62115
2878.16	4.60293
2879.47	4.99227
2880.79	4.03224
2882.1	4.52117
2883.42	4.64578
2884.73	4.15366
2886.05	4.70124
2887.36	4.58901
2888.67	4.84112
2889.99	4.89579
2891.3	4.43063
2892.61	4.34358
2893.92	5.12497
2895.24	4.29586
2896.55	4.77005
2897.86	5.10524
2899.17	4.90982
2900.48	4.95319
2901.79	5.29084
2903.11	4.78941
2904.42	5.56102
2905.73	5.19996
2907.04	5.51096
2908.35	5.83692
2909.66	5.7862
2910.97	6.19794
2912.27	5.86792
2913.58	6.23686
2914.89	6.8282
2916.2	6.54943
2917.51	7.73839
2918.82	7.83412
2920.13	7.73382
2921.43	7.83019
2922.74	7.69044
2924.05	8.09761
2925.35	7.989
2926.66	7.67143
2927.97	8.38835
2929.27	8.37785
2930.58	8.78601
2931.89	8.5924
2933.19	8.74793
2934.5	8.60988
2935.8	8.37415
2937.11	8.43212
2938.41	7.95928
2939.72	8.28331
2941.02	7.9512
2942.32	7.27076
2943.63	7.56998
2944.93	7.50748
2946.24	6.64917
2947.54	6.86819
2948.84	6.47118
2950.14	6.75857
2951.45	6.07771
2952.75	5.98267
2954.05	6.05405
2955.35	5.97098
2956.65	5.34311
2957.95	5.9493
2959.26	5.59273
2960.56	5.44912
2961.86	5.27954
2963.16	5.37707
2964.46	5.16514
2965.76	4.85297
2967.06	5.25541
2968.36	4.85527
2969.66	4.72122
2970.96	5.07924
2972.25	4.60767
2973.55	4.62873
2974.85	4.38228
2976.15	4.31798
2977.45	4.08322
2978.74	4.25485
2980.04	4.00216
2981.34	3.80443
2982.64	3.70467
2983.93	3.39446
2985.23	3.14183
2986.52	3.29838
2987.82	2.99272
2989.12	3.33446
2990.41	3.03
2991.71	2.66868
2993	2.75594
2994.3	2.67316
2995.59	2.11163
2996.89	2.3921
2998.18	2.08268
2999.48	2.02621
3000.77	1.50759
3002.06	1.81684
3003.36	1.21546
3004.65	1.69311
3005.94	1.49794
3007.23	1.35822
3008.53	1.14778
3009.82	1.10443
3011.11	0.948563
3012.4	1.32298
3013.69	1.15272
3014.99	0.773972
3016.28	0.925727
3017.57	0.938738
3018.86	0.5904
3020.15	0.854333
3021.44	0.631005
3022.73	0.615414
3024.02	0.557204
3025.31	0.90035
3026.6	0.231535
3027.89	0.491446
3029.18	0.641304
3030.46	0.253492
3031.75	0.820294
3033.04	0.504065
3034.33	0.57468
3035.62	0.396319
3036.9	0.754488
3038.19	0.62816
3039.48	0.362534
3040.76	0.714428
3042.05	0.693848
3043.34	0.42652
3044.62	0.338607
3045.91	0.402792
3047.19	0.632785
3048.48	0.386836
3049.77	0.839098
3051.05	0.746794
3052.34	0.941775
3053.62	0.972905
3054.9	0.621283
3056.19	0.74604
3057.47	0.487845
3058.76	0.474293
3060.04	0.828032
3061.32	0.814242
3062.61	0.665337
3063.89	0.912127
3065.17	1.03792
3066.45	0.879544
3067.74	0.980376
3069.02	0.591959
3070.3	0.665484
3071.58	0.357235
3072.86	0.578108
3074.14	0.539259
3075.42	0.445086
3076.7	0.567871
3077.99	0.650121
3079.26	0.353373
3080.54	0.410828
3081.82	0.334022
3083.1	0.475356
3084.38	0.386613
3085.66	-0.0279465
3086.94	0.2898
3088.22	0.0638533
3089.5	0.285043
3090.78	-0.0642943
3092.05	-0.0203075
3093.33	0.172888
3094.61	0.257681
3095.89	0.112088
3097.16	-0.291059
3098.44	-0.0978842
3099.72	0.067852
3100.99	0.273934
3102.27	0.344411
3103.54	-0.140082
3104.82	0.147528
3106.1	0.0837417
3107.37	0.0748401
3108.65	0.120924
3109.92	0.181441
3111.2	0.0261526
3112.47	-0.155758
3113.74	0.29935
3115.02	0.0903974
3116.29	-0.0108104
3117.56	0.266752
3118.84	-0.0943117
3120.11	0.11308
3121.38	0.183776
3122.66	-0.1935
3123.93	-0.259219
3125.2	-0.0405297
3126.47	0.17824
3127.74	0.0319405
3129.01	-0.0192575
3130.29	0.200164
3131.56	0.0949922
3132.83	-0.0779815
3134.1	-0.264843
3135.37	-0.195673
3136.64	0.115561
3137.91	-0.073092
3139.18	-0.15422
3140.45	-0.006742
3141.72	0.0731282
3142.99	-0.0620151
3144.26	0.232927
3145.52	0.326594
3146.79	-0.075397
3148.06	-0.0611229
3149.33	0.167716
