200.398	0.0215883
202.213	0.0423708
204.027	0.0642681
205.843	-0.0589256
207.657	0.353018
209.47	0.836959
211.283	0.566347
213.097	0.610254
214.909	0.604397
216.721	0.743297
218.533	0.445999
220.344	-0.0924139
222.157	-0.0488157
223.967	-0.0045166
225.777	0.716886
227.587	0.350646
229.396	0.298203
231.205	0.486564
233.016	0.529641
234.824	0.428227
236.632	0.376224
238.439	-0.0353708
240.247	0.856952
242.053	0.763282
243.86	-0.873019
245.666	-0.0250416
247.474	0.242782
249.279	0.363256
251.085	-0.0263338
252.889	0.305671
254.694	0.466757
256.498	0.144964
258.301	0.884528
260.105	0.78192
261.908	-0.0173645
263.71	0.509913
265.513	0.122726
267.315	0.868417
269.116	0.240091
270.918	0.502777
272.718	0.065155
274.519	0.349465
276.319	0.00537491
278.119	0.0452719
279.918	0.324082
281.718	0.841253
283.516	0.105179
285.315	1.09889
287.113	0.0256491
288.911	0.177358
290.708	0.137778
292.505	0.099452
294.302	0.0865345
296.098	0.218454
297.894	-0.0789108
299.69	0.388947
301.485	0.306995
303.278	0.391415
305.073	0.235934
306.867	0.19894
308.661	0.519286
310.454	0.625348
312.247	-0.172585
314.04	0.722072
315.833	0.832576
317.623	0.611472
319.415	0.630036
321.206	0.339936
322.997	0.121847
324.788	0.452738
326.579	0.187236
328.367	0.518451
330.156	0.849457
331.946	0.533883
333.735	0.958091
335.523	-0.151134
337.31	0.101336
339.098	0.375692
340.885	0.337465
342.673	0.704818
344.458	0.163789
346.244	0.650705
348.03	0.684304
349.816	0.336441
351.6	0.299049
353.385	0.380489
355.17	0.413182
356.953	0.110765
358.737	-0.121099
360.521	0.0987196
362.304	0.222161
364.085	0.27335
365.868	0.822676
367.65	0.325877
369.431	0.303439
371.212	0.0196657
372.994	0.114412
374.773	0.89393
376.554	-0.193155
378.332	0.019557
380.112	0.586039
381.892	0.187589
383.669	0.237884
385.448	0.171816
387.225	0.506451
389.003	0.0902424
390.781	0.544188
392.557	0.0594378
394.334	0.326838
396.109	0.124919
397.885	0.157972
399.66	0.167387
401.436	0.0354986
403.211	0.701624
404.984	0.333578
406.759	-0.129004
408.532	-0.404166
410.306	0.0246811
412.078	0.453377
413.851	0.694625
415.623	-0.142793
417.395	0.35803
419.166	0.39022
420.938	0.141061
422.708	0.196787
424.477	0.0640984
426.248	0.071435
428.017	-0.0393791
429.788	0.365788
431.556	-0.355742
433.326	-0.208517
435.093	0.220651
436.86	-0.0777273
438.629	0.163099
440.395	0.543349
442.163	0.0536051
443.929	0.0546246
445.694	-0.367736
447.461	-0.111753
449.226	0.353796
450.99	-0.23276
452.756	0.0924149
454.52	-0.0958614
456.285	0.135695
458.048	-0.0990019
459.811	-0.123833
461.573	0.0147591
463.337	0.177838
465.099	-0.423749
466.86	0.301792
468.623	0.449112
470.384	0.0403118
472.144	0.120357
473.906	0.688811
475.666	0.74368
477.425	0.656672
479.184	-0.0611382
480.944	0.291641
482.703	0.271828
484.461	0.0667801
486.218	0.306096
487.975	0.617575
489.734	0.185116
491.491	0.4533
493.247	0.418891
495.003	0.197566
496.759	-0.0710459
498.516	0.596805
500.271	-0.211949
502.025	0.596782
503.779	0.583892
505.533	0.522896
507.287	0.131317
509.042	-0.473724
510.795	0.0959673
512.547	0.782041
514.299	0.854883
516.051	0.761683
517.803	0.22053
519.554	0.642655
521.305	0.382287
523.055	0.755802
524.805	0.377637
526.555	0.797476
528.307	0.56041
530.056	0.464128
531.805	0.765769
533.553	0.879049
535.301	0.45307
537.049	0.47049
538.797	-0.283886
540.544	0.431508
542.291	0.282649
544.037	0.506027
545.783	0.821792
547.529	0.347885
549.275	0.0607977
551.02	-0.202259
552.765	0.20626
554.509	0.498568
556.253	-0.040451
557.997	-0.0245695
559.738	-0.169519
561.482	0.0315962
563.224	0.301941
564.967	0.411557
566.709	-0.21341
568.451	-0.148163
570.192	-0.036128
571.933	-0.244104
573.674	0.604663
575.415	0.583393
577.153	-0.0787477
578.893	0.0404081
580.632	-0.390803
582.371	0.0508842
584.11	-0.0132208
585.849	0.358693
587.587	0.154576
589.323	-0.188771
591.06	-0.440973
592.797	0.571774
594.534	0.456996
596.271	-0.41696
598.005	0.0894938
599.741	0.066493
601.476	-0.0952482
603.211	-0.21204
604.944	0.267694
606.679	-0.0354548
608.413	-0.017518
610.147	-0.206296
611.878	0.201949
613.611	-0.352449
615.344	0.561045
617.077	0.374354
618.807	0.278977
620.539	1.09833
622.27	0.542958
623.999	-0.309686
625.73	0.118097
627.461	0.203803
629.189	0.222752
630.919	0.312313
632.648	0.814551
634.376	0.473548
636.105	0.314815
637.833	0.611073
639.559	0.996007
641.287	0.739056
643.013	0.36613
644.74	0.243085
646.467	0.802934
648.192	0.704444
649.918	0.586316
651.642	0.767261
653.368	0.224669
655.091	0.59444
656.816	1.14922
658.538	0.361325
660.263	0.46132
661.987	0.94832
663.708	0.199808
665.432	0.385641
667.153	0.249662
668.875	1.02773
670.596	0.548506
672.318	-0.0436449
674.037	0.21302
675.759	0.976293
677.478	1.03101
679.196	1.33868
680.917	1.0713
682.635	0.916748
684.355	1.01315
686.072	1.24583
687.791	0.394529
689.508	0.394236
691.224	0.90004
692.942	0.691173
694.658	1.56415
696.376	1.42265
698.091	0.750549
699.805	1.20529
701.522	1.15247
703.236	0.754026
704.95	1.41194
706.665	1.311
708.379	0.751174
710.093	1.54376
711.806	1.46469
713.518	1.20246
715.23	0.414881
716.943	1.02142
718.655	1.07948
720.366	1.29716
722.078	1.44628
723.788	0.730609
725.498	1.31187
727.208	0.937869
728.919	1.19953
730.628	0.802829
732.337	1.47101
734.045	1.09688
735.755	1.3564
737.463	1.63834
739.17	1.04057
740.877	1.41403
742.584	1.38262
744.292	1.69025
745.998	1.05383
747.704	1.7915
749.409	0.75321
751.114	1.40321
752.819	1.49213
754.526	2.03235
756.23	1.47161
757.934	1.72247
759.637	0.983744
761.34	1.48508
763.043	1.96513
764.746	2.01665
766.448	2.02195
768.152	1.59594
769.853	1.68757
771.554	1.75461
773.255	2.13682
774.956	1.70446
776.656	1.61177
778.356	1.13589
780.056	2.19917
781.755	2.33658
783.454	1.32009
785.153	2.22614
786.851	2.60946
788.549	1.85789
790.247	1.96323
791.944	2.22396
793.641	2.23416
795.338	2.17633
797.034	2.52514
798.73	2.15435
800.426	2.52862
802.121	2.02656
803.817	2.44767
805.511	2.10398
807.206	1.9171
808.9	2.35805
810.592	1.96693
812.286	2.44998
813.979	2.28188
815.672	2.83018
817.364	2.03539
819.057	2.62766
820.748	2.2142
822.44	2.58273
824.129	2.92919
825.82	2.78639
827.511	2.15588
829.201	2.84232
830.891	2.66325
832.581	2.21966
834.269	2.02301
835.958	2.45167
837.646	1.58627
839.335	2.19255
841.023	1.99366
842.709	2.28484
844.396	2.46386
846.084	2.26359
847.77	2.24376
849.455	2.67376
851.141	2.00974
852.827	2.15331
854.513	1.75961
856.196	2.10616
857.881	2.09261
859.566	1.31234
861.248	1.88021
862.932	1.72626
864.616	1.5033
866.297	2.00067
867.98	1.5506
869.663	2.47563
871.343	2.0021
873.026	1.48307
874.707	1.61815
876.387	1.64042
878.068	1.21129
879.747	1.88801
881.428	1.23259
883.108	1.45688
884.786	1.22865
886.465	2.1728
888.143	1.67092
889.822	1.2581
891.498	1.13733
893.177	1.75864
894.855	1.83778
896.53	1.21883
898.208	1.88019
899.883	1.41761
901.56	1.26897
903.234	1.92575
904.91	1.15029
906.584	1.73858
908.26	1.92468
909.933	1.59901
911.608	1.03014
913.28	1.12981
914.955	1.34062
916.627	2.06131
918.298	2.47029
919.972	1.97074
921.643	1.539
923.315	1.48479
924.986	0.946187
926.656	1.24885
928.328	1.57489
929.997	1.48265
931.668	1.72205
933.337	1.49838
935.006	1.64989
936.676	1.22831
938.344	1.44712
940.012	1.99791
941.681	1.49113
943.348	1.71301
945.014	1.51553
946.683	1.44935
948.349	1.75668
950.015	0.782058
951.682	1.17464
953.347	1.61107
955.012	0.879992
956.676	1.60686
958.343	1.23412
960.006	0.907795
961.67	2.10656
963.333	1.49444
964.998	1.38866
966.661	1.28025
968.323	0.925775
969.985	1.58702
971.649	1.56145
973.31	0.60743
974.971	0.649961
976.632	1.20275
978.293	1.58015
979.953	1.3167
981.615	1.05276
983.274	1.23023
984.933	1.25094
986.592	1.26968
988.251	1.17606
989.909	1.43512
991.567	1.25122
993.225	1.13359
994.884	1.28105
996.541	1.60493
998.198	1.9284
999.855	1.78849
1001.51	2.02272
1003.17	1.00178
1004.82	0.861588
1006.48	1.18294
1008.13	0.911007
1009.79	0.946948
1011.44	0.785848
1013.1	1.34859
1014.75	1.36343
1016.4	0.59051
1018.06	1.30672
1019.71	1.10441
1021.36	0.618977
1023.01	1.24957
1024.66	1.02847
1026.32	1.00466
1027.97	1.06827
1029.62	1.65558
1031.27	1.38968
1032.92	1.64635
1034.57	1.50839
1036.22	0.976792
1037.87	1.1423
1039.52	0.872063
1041.16	1.08133
1042.81	0.856737
1044.46	1.17714
1046.11	0.934372
1047.76	1.30154
1049.4	0.844951
1051.05	0.259132
1052.7	0.716612
1054.34	0.84868
1055.99	0.719986
1057.63	1.28662
1059.28	0.809342
1060.92	0.657516
1062.57	0.591937
1064.21	0.416811
1065.85	0.871242
1067.5	0.868045
1069.14	1.21154
1070.78	0.946038
1072.43	0.941094
1074.07	0.480897
1075.71	1.25831
1077.35	1.23415
1078.99	0.972651
1080.63	0.885372
1082.27	0.993263
1083.91	0.970245
1085.55	1.0758
1087.19	1.02769
1088.83	0.95601
1090.47	0.926031
1092.11	0.592316
1093.75	1.05779
1095.39	0.918369
1097.03	0.65059
1098.66	0.707565
1100.3	1.04588
1101.94	1.51474
1103.57	0.651239
1105.21	1.07987
1106.84	1.12182
1108.48	1.01296
1110.11	1.07512
1111.75	1.00681
1113.38	1.36663
1115.02	0.436715
1116.65	1.18079
1118.29	0.959166
1119.92	0.781294
1121.55	0.947136
1123.19	0.792747
1124.82	1.08869
1126.45	0.636644
1128.08	0.44213
1129.71	0.590414
1131.34	0.610899
1132.97	0.524763
1134.6	0.630906
1136.23	0.373122
1137.86	0.477749
1139.49	0.965697
1141.12	0.640974
1142.75	0.508105
1144.38	0.22616
1146.01	0.478014
1147.64	0.538719
1149.26	0.237979
1150.89	0.534226
1152.52	0.979416
1154.15	1.14728
1155.77	0.612316
1157.4	0.311582
1159.02	0.372902
1160.65	0.3286
1162.27	0.668008
1163.9	0.540531
1165.52	0.966341
1167.15	0.796599
1168.77	0.455824
1170.39	1.00633
1172.02	0.513604
1173.64	0.593015
1175.26	0.331688
1176.89	0.706218
1178.51	0.508381
1180.13	0.819461
1181.75	0.242473
1183.37	0.533589
1184.99	0.0848808
1186.61	0.54392
1188.23	0.958612
1189.85	0.295698
1191.47	0.643051
1193.09	0.273232
1194.71	0.848467
1196.33	0.855973
1197.94	1.28306
1199.56	1.20881
1201.18	0.969814
1202.8	0.504061
1204.41	0.89688
1206.03	0.289944
1207.65	0.602373
1209.26	0.977593
1210.88	1.14341
1212.49	1.20328
1214.11	0.635818
1215.72	0.837426
1217.34	0.932959
1218.95	0.923384
1220.57	0.913668
1222.18	0.98753
1223.79	1.24889
1225.41	1.44917
1227.02	1.60929
1228.63	1.21219
1230.24	1.3542
1231.85	1.62132
1233.47	1.80686
1235.08	1.70428
1236.69	1.54089
1238.3	1.48183
1239.91	1.4441
1241.52	1.1997
1243.13	1.26521
1244.74	1.57832
1246.34	1.33178
1247.95	1.39463
1249.56	1.72569
1251.17	1.84946
1252.78	1.82859
1254.38	1.06381
1255.99	1.89275
1257.6	1.31633
1259.2	1.63057
1260.81	2.13218
1262.42	1.84778
1264.02	1.33533
1265.63	1.87898
1267.23	1.65528
1268.84	1.783
1270.44	1.99265
1272.04	1.84877
1273.65	1.49653
1275.25	1.37143
1276.85	1.78426
1278.46	1.18097
1280.06	1.48861
1281.66	1.87847
1283.26	1.23367
1284.86	2.34766
1286.46	1.91131
1288.07	2.50964
1289.67	1.68282
1291.27	1.78657
1292.87	1.49767
1294.47	2.09644
1296.06	0.979521
1297.66	2.17397
1299.26	2.25139
1300.86	1.79111
1302.46	2.05125
1304.06	1.96008
1305.65	2.32066
1307.25	1.94056
1308.85	1.88922
1310.44	1.59204
1312.04	1.93047
1313.64	2.53485
1315.23	2.34219
1316.83	2.23253
1318.42	2.28685
1320.02	2.13713
1321.61	2.06822
1323.2	1.89615
1324.8	2.16986
1326.39	1.95424
1327.99	2.50896
1329.58	2.07063
1331.17	2.66637
1332.76	2.15193
1334.36	2.46848
1335.95	1.57562
1337.54	2.53983
1339.13	1.62775
1340.72	1.74252
1342.31	2.51904
1343.9	2.06573
1345.49	1.79295
1347.08	2.08233
1348.67	1.91205
1350.26	1.46435
1351.85	1.79986
1353.43	1.63728
1355.02	2.21567
1356.61	2.13476
1358.2	1.73385
1359.78	1.8914
1361.37	1.56871
1362.96	1.68435
1364.54	1.93903
1366.13	1.51621
1367.71	1.03487
1369.3	1.31153
1370.88	1.43016
1372.47	1.62969
1374.05	1.2334
1375.64	1.23573
1377.22	1.89485
1378.8	1.67795
1380.39	1.55957
1381.97	1.20123
1383.55	1.87589
1385.13	1.4955
1386.72	1.77061
1388.3	0.675393
1389.88	0.931512
1391.46	1.30734
1393.04	1.80276
1394.62	1.30667
1396.2	1.32621
1397.78	1.46401
1399.36	1.0459
1400.94	1.00354
1402.52	0.960663
1404.1	1.76847
1405.68	1.54771
1407.25	2.21744
1408.83	1.56375
1410.41	1.1678
1411.98	1.14725
1413.56	1.58018
1415.14	1.00559
1416.71	1.29844
1418.29	0.979581
1419.87	1.35082
1421.44	1.3289
1423.02	1.36756
1424.59	1.54561
1426.16	1.11477
1427.74	1.70796
1429.31	1.92697
1430.89	1.77112
1432.46	1.39768
1434.03	2.26286
1435.6	2.18303
1437.18	1.86751
1438.75	2.00498
1440.32	2.33996
1441.89	2.55798
1443.46	2.22647
1445.03	2.11156
1446.6	2.33096
1448.17	2.60954
1449.74	2.90813
1451.31	2.6371
1452.88	3.09421
1454.45	2.17498
1456.02	2.25876
1457.59	1.6335
1459.16	2.03027
1460.72	2.18914
1462.29	2.03126
1463.86	1.69481
1465.43	1.57377
1466.99	1.2757
1468.56	1.86176
1470.13	1.80053
1471.69	1.3089
1473.26	1.19124
1474.82	1.44698
1476.38	0.624684
1477.95	0.959378
1479.51	0.941101
1481.08	1.02074
1482.64	0.786723
1484.2	0.92495
1485.77	0.886501
1487.33	0.534015
1488.89	0.944111
1490.46	0.765094
1492.02	0.251925
1493.58	1.14404
1495.14	0.471719
1496.7	0.111761
1498.26	1.05629
1499.82	0.638459
1501.38	0.533206
1502.94	0.40989
1504.5	-0.0417471
1506.06	1.01763
1507.62	-0.0915632
1509.18	0.500682
1510.73	1.09056
1512.29	0.232725
1513.85	0.377578
1515.41	0.56063
1516.96	0.705384
1518.52	0.658742
1520.08	0.804359
1521.63	-0.0834284
1523.19	1.05656
1524.75	0.742225
1526.3	1.30483
1527.85	0.722535
1529.41	0.692726
1530.96	0.169295
1532.52	0.766485
1534.07	0.851626
1535.62	0.59708
1537.18	0.721882
1538.73	1.09248
1540.28	1.19872
1541.84	1.17301
1543.39	0.75203
1544.94	0.444501
1546.49	1.30193
1548.04	0.975349
1549.59	1.17423
1551.14	1.67249
1552.69	1.25364
1554.25	0.836471
1555.79	1.18701
1557.34	1.37081
1558.89	1.61235
1560.44	0.978889
1561.99	1.4664
1563.54	1.02226
1565.08	1.5302
1566.63	0.900064
1568.18	1.31473
1569.73	1.69179
1571.27	1.45252
1572.82	1.79163
1574.37	1.32792
1575.91	1.36824
1577.46	0.979399
1579	1.87911
1580.55	2.08877
1582.09	1.90712
1583.64	1.42734
1585.18	2.0506
1586.73	2.00181
1588.27	2.30853
1589.81	2.1288
1591.35	1.89233
1592.9	1.50543
1594.44	1.97959
1595.98	1.55474
1597.52	1.84223
1599.06	1.69936
1600.61	1.85721
1602.15	2.03448
1603.69	1.87392
1605.23	1.29926
1606.77	2.09476
1608.31	1.59176
1609.85	2.06379
1611.39	1.48109
1612.93	1.44153
1614.46	2.32037
1616	1.02192
1617.54	1.1501
1619.08	0.67969
1620.61	1.4471
1622.15	0.923456
1623.69	1.48663
1625.23	1.37585
1626.76	1.05854
1628.3	1.46985
1629.83	1.46809
1631.37	0.867242
1632.9	1.33136
1634.44	1.32851
1635.97	1.8675
1637.51	1.21333
1639.04	1.71618
1640.57	1.02597
1642.11	1.41625
1643.64	1.60033
1645.17	1.65276
1646.71	1.44388
1648.24	1.92251
1649.77	1.84374
1651.3	1.59902
1652.83	2.06062
1654.36	2.04091
1655.89	1.46585
1657.42	1.13201
1658.96	1.26076
1660.48	1.73992
1662.01	1.32911
1663.54	1.6572
1665.07	1.91031
1666.6	1.73885
1668.13	2.04822
1669.66	1.87947
1671.19	1.67553
1672.71	1.50968
1674.24	1.49173
1675.77	1.58406
1677.29	1.41793
1678.82	1.36127
1680.35	1.17495
1681.87	1.28212
1683.4	1.55407
1684.92	1.20181
1686.45	1.08874
1687.97	0.921242
1689.5	0.589437
1691.02	0.331448
1692.54	0.567915
1694.07	0.218771
1695.59	0.692532
1697.11	0.617399
1698.64	0.469002
1700.16	0.521148
1701.68	0.499812
1703.2	0.368639
1704.72	0.674217
1706.25	0.560389
1707.77	0.337403
1709.29	0.241876
1710.81	0.81806
1712.33	-0.0209246
1713.85	-0.0249462
1715.37	0.278859
1716.89	0.383148
1718.41	-0.00083065
1719.92	0.0672235
1721.44	0.261612
1722.96	0.366035
1724.48	-0.303521
1725.99	-0.14284
1727.51	-0.287172
1729.03	0.25326
1730.55	0.128116
1732.06	0.146246
1733.58	0.0403576
1735.09	0.666101
1736.61	0.212521
1738.13	-0.0571747
1739.64	0.579613
1741.15	0.384642
1742.67	0.141068
1744.18	0.189993
1745.7	-0.099474
1747.21	0.164686
1748.72	0.214242
1750.24	0.446218
1751.75	0.312649
1753.26	0.0011301
1754.77	0.308869
1756.29	0.256152
1757.8	0.329511
1759.31	0.724258
1760.82	0.347967
1762.33	0.0573177
1763.84	-0.0358725
1765.35	0.0935831
1766.86	0.286325
1768.37	-0.00898361
1769.88	-0.109835
1771.39	-0.0150928
1772.9	0.322324
1774.4	-0.117606
1775.91	-0.144602
1777.42	-0.0828857
1778.93	0.0643549
1780.44	0.422712
1781.94	-0.349688
1783.45	0.0174274
1784.96	0.0337305
1786.46	-0.0324593
1787.97	0.00263119
1789.47	-0.00227261
1790.98	0.0903759
1792.48	-0.0990343
1793.99	-0.213355
1795.49	-0.086647
1797	-0.250384
1798.5	-0.0308037
1800.01	-0.0482473
1801.51	0.225674
1803.01	0.0988655
1804.51	0.217017
1806.02	0.254546
1807.52	0.0795765
1809.02	0.0531759
1810.52	0.043952
1812.02	0.17429
1813.52	0.284258
1815.02	0.154674
1816.53	-0.160592
1818.03	-0.06954
1819.52	0.202597
1821.02	0.241361
1822.52	0.164227
1824.02	0.187428
1825.52	0.191433
1827.02	-0.185981
1828.52	0.131323
1830.02	0.402157
1831.51	0.325814
1833.01	0.167933
1834.51	0.258328
1836.01	0.0781002
1837.5	0.0779991
1839	0.111177
1840.49	0.273649
1841.99	0.239644
1843.49	0.0665464
1844.98	-0.059598
1846.48	0.160383
1847.97	0.108234
1849.47	0.321733
1850.96	0.0649233
1852.45	0.00995731
1853.95	0.442624
1855.44	-0.200527
1856.93	0.0977879
1858.42	0.124926
1859.92	0.0870495
1861.41	0.26789
1862.9	0.265834
1864.39	0.125826
1865.88	-0.0664272
1867.38	0.211678
1868.87	0.0245399
1870.36	-0.0200787
1871.85	0.24589
1873.34	0.0542641
1874.83	0.192715
1876.32	0.370598
1877.81	0.302527
1879.29	-0.0416136
1880.78	-0.162908
1882.27	0.311759
1882.53	0.414912
1884.03	-0.0908203
1885.52	0.431231
1887.01	-0.127862
1888.51	0.392447
1890	0.146859
1891.5	0.145882
1892.99	0.111596
1894.48	0.496238
1895.97	0.239022
1897.47	-0.0348978
1898.96	0.195427
1900.45	0.320508
1901.94	-0.00819492
1903.43	0.14858
1904.92	0.40823
1906.41	-0.0975685
1907.9	-0.0645475
1909.39	0.194628
1910.88	0.124782
1912.37	0.107838
1913.86	0.36891
1915.35	0.300502
1916.84	-0.149593
1918.33	-0.114642
1919.81	0.335729
1921.3	0.335384
1922.79	0.179582
1924.28	-0.0792208
1925.76	0.182391
1927.25	0.0987244
1928.73	0.188771
1930.22	0.053689
1931.71	-0.151403
1933.19	0.161707
1934.68	-0.115451
1936.16	-0.0997381
1937.65	0.191552
1939.13	0.378373
1940.62	0.219881
1942.1	0.70089
1943.58	-0.232061
1945.07	0.422921
1946.55	0.250363
1948.03	0.353433
1949.51	-0.0955057
1951	0.0921392
1952.48	0.364776
1953.96	0.0690832
1955.44	0.632896
1956.92	0.114472
1958.4	0.0778475
1959.88	0.161998
1961.36	0.298009
1962.84	0.331248
1964.32	0.415685
1965.8	0.0543394
1967.28	0.291777
1968.76	-0.326891
1970.24	0.251229
1971.72	0.230483
1973.2	0.226785
1974.67	-0.203217
1976.15	0.287908
1977.63	-0.175294
1979.1	0.230287
1980.58	0.039957
1982.06	0.00271034
1983.54	-0.119681
1985.01	0.283985
1986.49	0.110159
1987.96	0.258573
1989.44	0.254647
1990.91	0.0482664
1992.39	-0.123199
1993.86	0.145926
1995.33	-0.175904
1996.81	0.516486
1998.28	0.110656
1999.75	0.109885
2001.23	0.294188
2002.7	0.224871
2004.17	0.189209
2005.65	0.170732
2007.12	0.203474
2008.59	-0.284953
2010.06	0.271382
2011.53	0.356688
2013	0.256872
2014.47	0.156694
2015.94	-0.0114326
2017.41	0.475644
2018.88	0.255511
2020.35	0.0182877
2021.82	0.26818
2023.29	0.132063
2024.76	0.181331
2026.23	-0.338685
2027.69	0.0316229
2029.16	0.285814
2030.63	0.0379868
2032.1	0.327893
2033.56	-0.0362902
2035.03	0.220613
2036.5	0.225349
2037.96	0.162394
2039.43	-0.169856
2040.89	0.50631
2042.36	0.0902014
2043.83	0.195926
2045.29	0.420334
2046.75	0.325753
2048.22	0.0628953
2049.68	-0.234238
2051.15	0.310518
2052.61	0.196495
2054.07	0.283187
2055.54	0.654945
2057	0.418364
2058.46	0.316016
2059.92	-0.140113
2061.39	0.296846
2062.85	0.246108
2064.31	-0.0729847
2065.77	0.55127
2067.23	0.183356
2068.69	0.438658
2070.15	0.374473
2071.61	0.343987
2073.07	0.347034
2074.53	0.568744
2075.99	0.284967
2077.45	0.371323
2078.91	0.171031
2080.37	0.121898
2081.82	-0.0287371
2083.28	0.308243
2084.74	0.593898
2086.2	0.0712452
2087.65	0.38917
2089.11	0.252663
2090.57	0.250478
2092.02	0.0131826
2093.48	-0.274287
2094.94	0.411
2096.39	0.0559235
2097.85	0.504644
2099.3	0.466804
2100.76	0.37856
2102.21	0.357486
2103.66	0.103398
2105.12	0.334726
2106.57	0.800639
2108.03	0.399946
2109.48	0.449965
2110.93	0.416116
2112.38	0.397762
2113.84	0.0615039
2115.29	0.25679
2116.74	0.284708
2118.19	0.379289
2119.64	0.624289
2121.09	0.173977
2122.54	0.422257
2123.99	0.655136
2125.45	0.556924
2126.89	0.408747
2128.34	0.442058
2129.79	0.341554
2131.24	0.554669
2132.69	0.5351
2134.14	0.598232
2135.59	0.546259
2137.04	0.660922
2138.48	0.61193
2139.93	0.300198
2141.38	0.717137
2142.83	0.457383
2144.27	0.528861
2145.72	0.484656
2147.17	0.721615
2148.61	0.792543
2150.06	0.663916
2151.5	0.99827
2152.95	0.586134
2154.39	0.769738
2155.84	0.604989
2157.28	0.390638
2158.73	0.425387
2160.17	0.676636
2161.61	0.564956
2163.06	0.819538
2164.5	0.428746
2165.94	0.56941
2167.38	0.560658
2168.83	0.600848
2170.27	0.506464
2171.71	0.759529
2173.15	0.894469
2174.59	0.263006
2176.03	0.828619
2177.47	0.828873
2178.91	0.613666
2180.36	0.68196
2181.8	0.751024
2183.23	1.16984
2184.67	0.0920992
2186.11	0.794058
2187.55	0.747532
2188.99	0.750946
2190.43	0.604525
2191.87	0.457808
2193.3	0.976399
2194.74	0.694639
2196.18	0.810822
2197.62	0.858578
2199.05	0.622055
2200.49	0.916603
2201.93	0.612884
2203.36	0.658576
2204.8	0.356978
2206.23	0.338312
2207.67	0.27041
2209.1	0.765418
2210.54	0.514455
2211.97	0.329054
2213.41	0.539934
2214.84	0.8495
2216.27	0.48242
2217.71	0.331234
2219.14	0.181246
2220.57	0.29586
2222.01	0.0479245
2223.44	0.26085
2224.87	0.752313
2226.3	0.649234
2227.73	0.61057
2229.16	0.423001
2230.6	0.628853
2232.03	0.473541
2233.46	0.171496
2234.89	0.377626
2236.32	0.404675
2237.75	0.416748
2239.18	0.560995
2240.61	0.266509
2242.03	0.00631762
2243.46	0.366971
2244.89	0.401735
2246.32	0.0607581
2247.75	0.224053
2249.17	0.466891
2250.6	0.46311
2252.03	0.555426
2253.46	0.256527
2254.88	0.54331
2256.31	0.0841298
2257.73	0.357709
2259.16	0.228019
2260.59	0.149541
2262.01	0.0244126
2263.44	0.225332
2264.86	0.32923
2266.29	0.481704
2267.71	0.291986
2269.14	0.329131
2270.56	0.365585
2271.98	0.287625
2273.4	0.486333
2274.83	0.310532
2276.25	0.362929
2277.67	0.0732431
2279.09	0.0116868
2280.52	0.0641918
2281.94	-0.0628138
2283.36	-0.0268178
2284.78	0.580378
2286.2	-0.00350714
2287.62	0.490226
2289.04	0.184323
2290.46	0.352397
2291.88	-0.0513024
2293.3	0.329755
2294.72	0.302083
2296.14	0.372516
2297.56	0.410201
2298.98	0.251365
2300.4	0.371182
2301.82	-0.0497775
2303.23	0.152514
2304.65	0.387974
2306.07	-0.213982
2307.49	0.0868831
2308.9	0.124532
2310.32	0.0465894
2311.73	-0.278491
2313.15	0.218898
2314.57	0.140863
2315.98	0.0304646
2317.4	-0.0629048
2318.81	0.239629
2320.23	0.39384
2321.64	0.0851932
2323.06	0.0552902
2324.47	0.237923
2325.88	0.336012
2327.3	0.745833
2328.71	0.791928
2330.12	0.0310588
2331.54	-0.00388956
2332.95	0.0115085
2334.36	0.0276232
2335.77	0.175539
2337.18	0.191411
2338.6	-0.171705
2340.01	0.171094
2341.42	-0.0128188
2342.83	-0.24617
2344.24	-0.10205
2345.65	0.107663
2347.06	-0.1085
2348.47	0.248534
2349.88	0.195811
2351.29	0.0770884
2352.7	-0.0259767
2354.1	0.196669
2355.51	-0.184836
2356.92	-0.0773625
2358.33	0.306342
2359.74	0.413128
2361.14	0.227625
2362.55	-0.00614786
2363.96	0.035799
2365.36	-0.0194588
2366.77	-0.00980568
2368.18	-0.0158081
2369.58	-0.246752
2370.99	-0.0732446
2372.39	0.149496
2373.8	0.195753
2375.2	0.0491509
2376.61	-0.017211
2378.01	0.237157
2379.42	0.361274
2380.82	0.451563
2382.22	0.0753613
2383.63	-0.0765367
2385.03	0.315562
2386.43	0.291687
2387.84	0.0771508
2389.24	-0.391024
2390.64	0.194108
2392.04	-0.159898
2393.44	0.0442791
2394.84	0.0740223
2396.25	0.199737
2397.65	-0.0555072
2399.05	0.245997
2400.45	0.182431
2401.85	-0.119092
2403.25	0.278282
2404.65	0.182964
2406.05	-0.214667
2407.45	0.0377469
2408.84	0.0989399
2410.24	-0.0462875
2411.64	0.315801
2413.04	-0.240233
2414.44	-0.161539
2415.83	-0.0341415
2417.23	0.11022
2418.63	0.0178967
2420.02	-0.0266337
2421.42	0.00791693
2422.82	0.121388
2424.21	-0.0188689
2425.61	0.0785913
2427	0.398418
2428.4	0.481369
2429.8	-0.0532837
2431.19	0.173824
2432.58	0.306031
2433.98	0.120263
2435.37	0.314645
2436.77	0.269454
2438.16	-0.126631
2439.55	-0.158372
2440.95	0.0314498
2442.34	-0.223801
2443.73	0.441234
2445.12	0.106309
2446.51	-0.0382161
2447.91	0.181753
2449.3	0.0688715
2450.69	-0.439544
2452.08	-0.0449591
2453.47	0.0968695
2454.86	-0.029561
2456.25	0.240114
2457.64	0.225308
2459.03	0.19455
2460.42	0.432133
2461.81	0.052279
2463.2	-0.0435514
2464.59	-0.0924182
2465.98	-0.0625415
2467.36	0.188223
2468.75	0.123151
2470.14	-0.115515
2471.53	0.21312
2472.92	0.0524364
2474.3	-0.0772228
2475.69	0.123081
2477.08	0.0555482
2478.46	0.349281
2479.85	-0.141901
2481.23	0.120459
2482.62	-0.0563354
2484	-0.468063
2485.39	-0.00395727
2486.77	0.161404
2488.16	0.528273
2489.54	0.145512
2490.93	-0.00293684
2492.31	-0.0883794
2493.69	0.0757313
2495.08	-0.0540552
2496.46	-0.384026
2497.84	-0.310082
2499.23	0.0580721
2500.61	-0.00765848
2501.99	0.096045
2503.37	-0.0946608
2504.75	-0.0543914
2506.13	-0.0455532
2507.52	-0.267803
2508.9	-0.0897388
2510.28	0.226523
2511.66	0.251217
2513.04	0.322554
2514.42	0.0422792
2515.8	-0.405177
2517.18	-0.270148
2518.55	0.0639424
2519.93	0.245033
2521.31	0.0133405
2522.69	-0.249176
2524.07	0.189564
2525.45	0.0783701
2526.82	0.0889444
2528.2	0.0998626
2529.58	-0.0403237
2530.95	0.368172
2532.33	0.0181751
2533.71	0.12529
2535.08	-0.146785
2536.46	-0.266953
2537.84	0.235161
2539.21	-0.0230985
2540.59	0.0369024
2541.96	0.217976
2543.34	0.00469446
2544.71	0.0804873
2546.08	0.127007
2547.46	0.326301
2548.83	0.116795
2550.2	-0.092721
2551.58	0.137409
2552.95	-0.118869
2554.32	0.0337195
2555.7	0.246177
2557.07	-0.0121498
2558.44	0.138968
2559.81	0.0325408
2561.18	-0.194616
2562.55	-0.451467
2563.93	0.231753
2565.3	0.0364056
2566.67	0.0685959
2568.04	0.176654
2569.41	0.0725594
2570.78	-0.198265
2572.15	0.000814915
2573.51	-0.148648
2574.88	0.0506334
2576.25	0.0983729
2577.62	0.161228
2578.99	-0.00354338
2580.36	-0.0169845
2581.73	-0.0914211
2583.09	-0.0600252
2584.46	0.0318089
2585.83	-0.103781
2587.19	0.260937
2588.56	0.292354
2589.93	-0.176228
2591.29	-0.311463
2592.66	0.159019
2594.02	0.12874
2595.39	0.218736
2596.75	0.00502872
2598.12	0.199312
2599.48	-4.3869e-005
2600.85	0.32979
2602.21	0.0405393
2603.58	-0.0968843
2604.94	-0.158254
2606.3	-0.30991
2607.67	-0.17522
2609.03	0.124439
2610.39	-0.149638
2611.76	0.267856
2613.12	-0.0681944
2614.48	0.151527
2615.84	-0.0645785
2617.2	-0.339994
2618.56	0.419001
2619.92	0.0251751
2621.28	-0.247752
2622.65	0.675529
2624.01	-0.0895362
2625.37	-0.0328979
2626.72	-0.0511007
2628.08	0.183767
2629.44	0.23935
2630.8	-0.0326419
2632.16	0.0227695
2633.52	0.107774
2634.88	0.118417
2636.24	0.247669
2637.59	0.00626612
2638.95	-0.175466
2640.31	0.0574794
2641.67	0.11291
2643.02	0.094655
2644.38	0.179929
2645.74	0.058495
2647.09	-0.122066
2648.45	0.0358529
2649.8	0.0456443
2651.16	0.14304
2652.51	-0.259335
2653.87	0.204892
2655.22	-0.327798
2656.58	-0.243534
2657.93	-0.0998626
2659.29	0.0444164
2660.64	-0.322834
2661.99	0.157796
2663.35	0.18462
2664.7	0.0355535
2666.05	0.0610766
2667.41	0.0278668
2668.76	0.460607
2670.11	-0.0237222
2671.46	0.147421
2672.81	0.144544
2674.16	0.156758
2675.51	0.067883
2676.87	0.124685
2678.22	-0.122535
2679.57	0.196609
2680.92	0.139627
2682.27	-0.00327539
2683.62	0.0868468
2684.97	0.250382
2686.31	0.153272
2687.66	0.40432
2689.01	0.393132
2690.36	0.0900903
2691.71	0.351592
2693.06	0.176335
2694.4	-0.333104
2695.75	0.099874
2697.1	0.503997
2698.45	0.0835776
2699.79	0.113676
2701.14	0.405963
2702.49	0.308635
2703.83	-0.0341487
2705.18	0.116146
2706.52	0.237635
2707.87	0.373521
2709.21	-0.0860076
2710.56	0.179906
2711.9	0.126188
2713.25	0.130456
2714.59	0.410858
2715.94	0.327888
2717.28	0.128406
2718.62	0.263206
2719.97	0.237701
2721.31	0.45921
2722.65	0.156374
2723.99	0.377097
2725.34	0.612009
2726.68	0.0751629
2728.02	-0.243569
2729.36	0.456231
2730.7	-0.00827885
2732.04	0.152901
2733.39	0.357773
2734.73	0.460954
2736.07	0.404328
2737.41	0.115141
2738.75	0.291359
2740.08	0.191051
2741.43	0.163066
2742.76	0.120008
2744.1	0.236243
2745.44	0.0467925
2746.78	0.307301
2748.12	0.23359
2749.46	0.159996
2750.79	0.246181
2752.13	-0.102389
2753.47	0.129206
2754.81	-0.0303659
2756.14	-0.0303884
2757.48	-0.00130081
2758.81	0.172765
2760.15	0.115535
2761.49	0.145584
2762.82	0.161582
2764.16	-0.0391712
2765.49	0.0060606
2766.83	0.19558
2768.16	0.268538
2769.5	0.195748
2770.83	0.511942
2772.16	-0.0543733
2773.5	0.0141902
2774.83	0.0965986
2776.17	0.0924168
2777.5	0.146138
2778.83	-0.0585804
2780.16	0.211668
2781.5	0.108467
2782.83	0.0628972
2784.16	0.36155
2785.49	0.0721889
2786.82	-0.202299
2788.15	0.225386
2789.49	0.0523968
2790.82	0.0805674
2792.15	-0.162265
2793.48	0.067153
2794.81	0.18218
2796.14	-0.103196
2797.46	-0.0174789
2798.79	0.381831
2800.12	-0.0758691
2801.45	0.0372357
2802.78	0.221367
2804.11	-0.221932
2805.44	0.0612645
2806.76	0.0589461
2808.09	-0.0861263
2809.42	0.0529132
2810.75	-0.39046
2812.07	0.0613384
2813.4	0.173156
2814.73	0.0734682
2816.05	0.31527
2817.38	0.260353
2818.7	0.163437
2820.03	0.137406
2821.36	0.0401359
2822.68	0.353284
2824.01	0.594942
2825.33	0.283772
2826.65	0.128568
2827.98	0.0305123
2829.3	0.15947
2830.63	0.0623164
2831.95	0.121066
2833.27	0.293005
2834.6	0.209888
2835.92	0.395267
2837.24	0.594274
2838.56	0.439174
2839.88	0.722378
2841.21	0.440004
2842.53	0.638717
2843.85	0.950984
2845.17	1.19318
2846.49	0.898891
2847.81	1.04303
2849.13	1.20134
2850.45	1.69862
2851.77	1.55942
2853.09	1.50457
2854.41	1.61895
2855.73	1.4223
2857.05	1.80488
2858.37	1.67893
2859.69	1.66597
2861	1.77994
2862.32	2.06299
2863.64	1.97862
2864.96	2.28913
2866.28	2.33143
2867.59	2.28933
2868.91	2.13486
2870.23	2.93945
2871.54	2.64449
2872.86	2.88491
2874.17	2.80046
2875.49	2.74323
2876.81	3.19188
2878.12	2.97794
2879.44	2.89054
2880.75	2.80353
2882.07	2.81569
2883.38	2.99734
2884.69	2.96917
2886.01	2.98366
2887.32	2.36664
2888.63	2.82994
2889.95	2.96964
2891.26	2.814
2892.57	3.54089
2893.89	2.96415
2895.2	2.94836
2896.51	3.31123
2897.82	3.38098
2899.13	3.21381
2900.44	3.74688
2901.76	2.75555
2903.07	3.87667
2904.38	3.20743
2905.69	3.64346
2907	3.64638
2908.31	4.2096
2909.62	4.18612
2910.93	4.24714
2912.24	4.37814
2913.55	4.15845
2914.85	4.46941
2916.16	4.42873
2917.47	4.76443
2918.78	4.4554
2920.09	4.78976
2921.4	5.08259
2922.7	5.26464
2924.01	5.35013
2925.32	5.25501
2926.62	5.02067
2927.93	5.49929
2929.24	5.57213
2930.54	5.37879
2931.85	5.68823
2933.15	5.53607
2934.46	5.6215
2935.76	5.20388
2937.07	5.69481
2938.37	5.27753
2939.68	5.25178
2940.98	5.25444
2942.29	4.50329
2943.59	4.56367
2944.89	4.63927
2946.2	4.33838
2947.5	4.41554
2948.8	4.14259
2950.11	4.31642
2951.41	3.87254
2952.71	4.47708
2954.01	4.10014
2955.32	4.03088
2956.62	4.06039
2957.92	3.55984
2959.22	4.06958
2960.52	4.00791
2961.82	3.99009
2963.12	4.01502
2964.42	3.66036
2965.72	3.73938
2967.02	3.56395
2968.32	3.28872
2969.62	3.57509
2970.92	3.60827
2972.22	3.16337
2973.51	3.46434
2974.81	3.10384
2976.11	3.05229
2977.41	3.28113
2978.71	3.12818
2980	2.70615
2981.3	2.94448
2982.6	2.66165
2983.9	2.7589
2985.19	2.54784
2986.49	2.5771
2987.78	2.38282
2989.08	2.30181
2990.38	1.95396
2991.67	2.26616
2992.97	1.77628
2994.26	1.51017
2995.56	1.32746
2996.85	1.46712
2998.14	1.46608
2999.44	1.38103
3000.73	1.17027
3002.03	1.14232
3003.32	1.21277
3004.61	0.961021
3005.91	1.28329
3007.2	0.806834
3008.49	1.23944
3009.78	1.13937
3011.07	0.731315
3012.37	0.574735
3013.66	1.08794
3014.95	0.84791
3016.24	0.66448
3017.53	0.593235
3018.82	0.341555
3020.11	0.479539
3021.4	0.672516
3022.69	0.989421
3023.98	0.513886
3025.27	0.731653
3026.56	0.50553
3027.85	0.404694
3029.14	0.318734
3030.43	0.468957
3031.71	0.192091
3033	0.371819
3034.29	0.662023
3035.58	0.716944
3036.87	0.563765
3038.15	0.450481
3039.44	0.294422
3040.73	0.370952
3042.01	0.473863
3043.3	0.466689
3044.59	0.473879
3045.87	0.564422
3047.16	0.574638
3048.44	0.532209
3049.73	0.696314
3051.01	0.752502
3052.3	0.631939
3053.58	0.265724
3054.87	0.717484
3056.15	0.949797
3057.43	0.471979
3058.72	0.647805
3060	0.877547
3061.29	0.984776
3062.57	0.671044
3063.85	0.92976
3065.13	0.659475
3066.42	0.71666
3067.7	0.611491
3068.98	0.778525
3070.26	0.510034
3071.54	0.281463
3072.82	0.43255
3074.11	0.58236
3075.39	0.296311
3076.67	0.322491
3077.95	0.403175
3079.23	0.430341
3080.51	0.119564
3081.79	0.352658
3083.07	0.220458
3084.35	0.278669
3085.63	0.146844
3086.9	0.177367
3088.18	-0.0642915
3089.46	0.195548
3090.74	0.22412
3092.02	0.198168
3093.29	-0.0447831
3094.57	0.241369
3095.85	-0.177514
3097.13	-0.36584
3098.4	0.150506
3099.68	0.00242853
3100.95	0.138694
3102.23	0.152925
3103.51	0.140173
3104.78	-0.075294
3106.06	0.197005
3107.33	0.0368671
3108.61	0.134614
3109.88	0.124885
3111.16	-0.114316
3112.43	-0.0687137
3113.71	-0.0499511
3114.98	0.077137
3116.25	0.217338
3117.53	-0.294312
3118.8	-0.0610952
3120.07	0.116773
3121.35	0.0766888
3122.62	-0.0453429
3123.89	0.279419
3125.16	-0.235569
3126.44	0.386959
3127.71	-0.0459256
3128.98	-0.126585
3130.25	0.279695
3131.52	-0.0712705
3132.79	-0.0304418
3134.06	-0.0306444
3135.33	-0.0044589
3136.6	0.0345316
3137.87	0.0728426
3139.14	-0.0645294
3140.41	-0.25584
3141.68	0.0102692
3142.95	-0.16741
3144.22	0.246128
3145.49	-0.14552
3146.76	-0.214485
3148.02	0.346663
3149.29	-0.083322
