200.43	0.344083
202.244	0.366038
204.059	0.388808
205.873	0.266294
207.688	-0.0990677
209.501	-0.051506
211.314	0.0436678
213.127	0.259007
214.941	-0.108996
216.753	-0.0165243
218.564	-0.33598
220.375	0.119852
222.186	0.237075
223.999	0.306454
225.809	0.448607
227.618	-0.0857668
229.428	0.176772
231.236	-0.430298
233.045	0.144939
234.855	-0.148225
236.663	0.138156
238.471	-0.152558
240.278	0.0646706
242.085	0.163049
243.891	0.407194
245.698	0.0480881
247.503	0.339336
249.309	0.049077
251.116	0.311728
252.921	-0.127892
254.725	-0.0378113
256.529	-0.0687819
258.333	0.0694799
260.136	0.497898
261.939	0.0844574
263.742	-0.303694
265.544	0.152092
267.346	-0.331662
269.148	0.220627
270.949	0.386691
272.75	-0.0268211
274.55	0.522947
276.351	-0.134008
278.15	0.316452
279.95	0.403666
281.749	-0.136645
283.548	0.236295
285.346	0.247034
287.144	0.497112
288.942	0.123215
290.739	0.564998
292.536	-0.23766
294.333	0.0143852
296.129	0.338912
297.925	0.401054
299.721	-0.0143299
301.514	-0.023602
303.309	0.133627
305.104	0.0988531
306.898	0.349582
308.692	0.0753713
310.486	0.302141
312.279	0.410481
314.072	0.162799
315.862	0.464153
317.654	0.266798
319.446	0.118113
321.238	0.37532
323.029	0.633351
324.819	0.27159
326.608	0.697347
328.398	0.382801
330.188	0.449832
331.977	0.157238
333.766	0.50911
335.553	0.859476
337.341	0.274816
339.129	-0.359137
340.917	0.273627
342.704	0.522762
344.489	0.365396
346.275	0.47124
348.062	0.434252
349.845	0.326021
351.631	0.217857
353.416	0.44338
355.201	0.500977
356.984	0.366743
358.768	0.279285
360.552	0.0719738
362.333	0.625729
364.116	0.10804
365.899	0.469673
367.68	-0.0718985
369.462	0.216838
371.243	0.0305934
373.023	0.317412
374.804	0.414218
376.585	0.109533
378.363	0.819826
380.143	0.351508
381.923	0.026124
383.7	0.548906
385.479	0.34327
387.256	0.35022
389.034	0.14658
390.812	0.413477
392.588	0.352118
394.365	0.526066
396.14	0.0661964
397.916	0.545805
399.691	0.461617
401.467	0.118728
403.24	0.198137
405.015	0.159564
406.788	0.355257
408.563	0.362605
410.335	-0.0528321
412.109	-0.0925951
413.88	0.501474
415.654	0.180877
417.424	0.588249
419.197	0.315638
420.967	0.137012
422.739	0.0285854
424.508	0.483055
426.279	0.25607
428.048	-0.253235
429.819	0.0352707
431.587	-0.216147
433.356	0.330636
435.124	0.384775
436.891	-0.335604
438.66	0.0935502
440.426	0.146142
442.194	-0.107657
443.96	-0.151746
445.725	0.833636
447.492	0.131305
449.257	0.505518
451.021	0.341769
452.787	0.201883
454.551	0.0857162
456.314	-0.0768914
458.079	0.203132
459.842	0.0173445
461.604	0.50666
463.368	0.322514
465.13	0.18673
466.891	-0.156096
468.654	0.0839138
470.415	0.278953
472.175	0.474679
473.935	0.134601
475.696	0.398534
477.456	0.497931
479.215	0.642531
480.973	0.227328
482.733	0.208223
484.491	-0.322468
486.249	0.685538
488.006	0.274135
489.765	0.703421
491.522	0.737324
493.278	0.0708671
495.034	0.455719
496.789	0.41988
498.544	0.477478
500.301	0.511403
502.056	-0.370453
503.81	0.624752
505.564	0.468828
507.317	0.664444
509.071	0.459158
510.825	0.0408106
512.578	0.491886
514.33	0.706555
516.082	0.59078
517.833	0.49768
519.585	0.733006
521.335	0.497625
523.086	0.238636
524.836	0.47266
526.586	0.28416
528.335	0.63515
530.085	0.376406
531.835	-0.21025
533.584	0.631082
535.332	0.488031
537.08	0.0637503
538.827	0.246294
540.574	0.450932
542.321	0.0721903
544.068	0.29896
545.814	0.618099
547.56	0.286769
549.305	0.211393
551.05	0.62263
552.795	0.339176
554.54	0.0564752
556.282	-0.202362
558.025	0.0238361
559.769	0.549461
561.512	0.36097
563.255	0.28822
564.997	-0.0368366
566.739	0.419988
568.481	0.601359
570.223	0.209641
571.964	0.530363
573.705	0.508089
575.443	0.624765
577.183	0.123177
578.923	0.310869
580.663	0.269617
582.402	0.435223
584.141	0.0488582
585.879	0.420417
587.615	0.30821
589.353	0.287127
591.09	0.0582981
592.828	-0.0788789
594.564	0.197961
596.299	0.106707
598.035	0.33753
599.771	-0.306131
601.506	-0.145112
603.242	0.0150132
604.974	0.334976
606.709	-0.127522
608.443	-0.245605
610.177	-0.13415
611.908	-0.0225148
613.642	0.204175
615.374	0.201966
617.105	0.131161
618.837	0.174578
620.569	0.217214
622.3	0.487695
624.03	0.0713949
625.761	0.318122
627.491	0.473939
629.219	0.334337
630.949	0.515919
632.677	0.242595
634.406	0.106909
636.135	0.0851164
637.861	0.450235
639.59	0.471023
641.318	0.307198
643.043	0.141875
644.77	0.340239
646.495	0.583929
648.222	0.123883
649.948	0.302691
651.672	0.188709
653.398	-0.0590272
655.121	0.468589
656.846	0.520591
658.569	0.505016
660.293	0.397866
662.015	0.837511
663.738	0.47628
665.46	0.661622
667.183	1.18868
668.903	0.594643
670.626	0.847254
672.346	0.0487165
674.067	0.00666142
675.787	0.149319
677.508	0.889648
679.226	0.919613
680.947	1.06387
682.665	0.562817
684.385	0.7962
686.102	0.775003
687.821	0.637461
689.538	0.844599
691.254	0.705684
692.972	0.474169
694.688	0.47248
696.406	0.861562
698.121	0.651039
699.835	1.24513
701.552	0.503857
703.266	0.797032
704.98	0.85962
706.695	1.03647
708.409	0.639431
710.121	0.334406
711.836	0.739325
713.548	0.777345
715.26	0.380949
716.973	1.14964
718.685	0.822065
720.396	0.677525
722.108	1.23927
723.818	1.23128
725.528	0.995881
727.238	1.16951
728.949	1.54674
730.658	0.902726
732.367	1.48268
734.075	1.24681
735.785	1.10184
737.493	0.867094
739.2	1.12959
740.907	1.07675
742.614	1.04739
744.322	1.33423
746.028	1.59935
747.734	0.807995
749.439	1.27756
751.144	1.34311
752.849	1.29717
754.555	1.6122
756.26	1.3884
757.963	1.79601
759.667	1.52932
761.37	0.94748
763.073	0.906669
764.775	1.11399
766.477	1.18523
768.179	1.23263
769.883	2.04727
771.584	1.57158
773.285	1.5018
774.986	1.74821
776.686	1.72364
778.386	1.70004
780.085	1.42879
781.785	1.83694
783.484	1.77022
785.182	1.67999
786.881	2.31237
788.579	1.56155
790.276	2.18864
791.974	1.32103
793.671	1.9214
795.367	1.41504
797.064	1.81177
798.76	1.69109
800.456	1.50441
802.151	1.8814
803.846	1.22411
805.541	2.11836
807.234	1.91019
808.928	2.01571
810.622	1.73866
812.315	2.47038
814.008	1.29597
815.701	2.3396
817.394	1.97225
819.086	1.82904
820.778	2.15513
822.468	1.76697
824.159	1.95968
825.85	1.46242
827.541	1.81359
829.231	1.43169
830.921	1.89834
832.609	2.05542
834.298	2.03596
835.987	2.10649
837.676	1.61901
839.364	2.09029
841.051	1.68959
842.738	1.53339
844.426	1.51081
846.113	1.71219
847.798	1.7361
849.484	1.35911
851.171	1.76708
852.857	1.37033
854.54	1.37732
856.226	1.74361
857.911	1.32287
859.593	1.46273
861.278	1.15112
862.961	1.26602
864.645	1.28992
866.327	1.04263
868.01	1.35847
869.692	1.56132
871.373	1.20006
873.055	1.62815
874.735	0.860404
876.416	0.814572
878.097	0.949287
879.776	1.26453
881.457	1.39898
883.135	1.21685
884.815	1.12422
886.495	1.30146
888.172	1.00365
889.851	1.17853
891.528	1.48736
893.206	1.14167
894.882	1.2232
896.56	1.57354
898.237	1.0017
899.912	1.41741
901.589	1.04736
903.263	1.21485
904.94	1.20296
906.614	1.41447
908.289	0.912474
909.962	1.32529
911.635	1.22618
913.31	1.08331
914.982	0.940965
916.656	1.22038
918.328	1.18895
920.001	0.648375
921.672	0.927656
923.345	1.47248
925.015	0.73648
926.685	1.39356
928.357	0.837367
930.026	0.81195
931.698	1.00764
933.366	1.22552
935.035	1.17876
936.705	1.11024
938.373	1.10849
940.041	0.842906
941.71	1.3502
943.377	1.08593
945.044	1.32908
946.712	0.732659
948.378	1.15031
950.044	0.992672
951.709	0.944534
953.376	0.940533
955.041	0.562725
956.706	1.17911
958.372	0.893631
960.036	0.411178
961.699	0.945191
963.362	0.905191
965.027	1.06303
966.69	0.599605
968.352	0.68724
970.014	1.03888
971.676	0.836778
973.339	0.834059
975	0.788095
976.661	1.07511
978.322	0.987241
979.982	1.08789
981.642	1.09977
983.303	0.590456
984.962	1.03165
986.621	0.807263
988.28	0.426869
989.938	0.598771
991.596	0.328018
993.254	1.25015
994.911	0.714348
996.57	0.311593
998.227	0.98968
999.884	1.13793
1001.54	1.24166
1003.2	1.19087
1004.85	0.897985
1006.51	0.891092
1008.16	0.818397
1009.82	0.131577
1011.47	0.432791
1013.12	0.427085
1014.78	-0.0821433
1016.43	0.175644
1018.08	0.805449
1019.74	0.101081
1021.39	0.0319533
1023.04	0.422578
1024.69	0.398445
1026.34	0.462114
1028	1.00647
1029.65	0.392385
1031.3	0.498468
1032.95	0.603385
1034.6	0.641594
1036.25	0.613368
1037.9	0.453884
1039.54	0.642846
1041.19	0.614433
1042.84	0.521726
1044.49	0.777925
1046.14	0.948399
1047.78	0.121151
1049.43	0.467816
1051.08	0.272369
1052.72	-0.0312324
1054.37	0.36062
1056.02	0.100607
1057.66	0.362026
1059.31	0.188357
1060.95	0.362125
1062.6	0.491891
1064.24	0.512296
1065.88	0.205881
1067.53	0.268342
1069.17	0.395276
1070.81	0.174191
1072.45	0.278794
1074.1	0.361907
1075.74	-0.0749531
1077.38	0.0747819
1079.02	0.420435
1080.66	0.267826
1082.3	0.310376
1083.94	0.243931
1085.58	-0.278769
1087.22	0.45432
1088.86	0.102536
1090.5	-0.120093
1092.14	0.413459
1093.78	0.362571
1095.42	0.0961151
1097.05	-0.147776
1098.69	0.751194
1100.33	0.832138
1101.96	0.247301
1103.6	0.158829
1105.24	0.587492
1106.87	-0.123449
1108.51	0.412869
1110.14	0.152754
1111.78	0.214137
1113.41	0.209937
1115.05	0.161952
1116.68	0.628477
1118.31	0.151144
1119.95	0.553267
1121.58	0.741467
1123.21	0.138334
1124.85	0.541898
1126.48	0.624968
1128.11	-0.0826883
1129.74	0.856718
1131.37	-0.0850635
1133	-0.000370502
1134.63	0.0200944
1136.26	0.339356
1137.89	-0.154175
1139.52	0.312998
1141.15	0.245348
1142.78	0.070704
1144.41	-0.423614
1146.04	0.10623
1147.66	0.0821919
1149.29	0.0800419
1150.92	-0.11349
1152.55	0.140272
1154.17	-0.266298
1155.8	0.455089
1157.43	-0.0793552
1159.05	0.21626
1160.68	-0.14693
1162.3	-0.190358
1163.93	0.0857825
1165.55	0.426044
1167.17	0.149543
1168.8	-0.0213323
1170.42	0.295599
1172.05	0.0161262
1173.67	0.0330143
1175.29	-0.205544
1176.91	-0.316896
1178.54	0.567595
1180.16	0.0965509
1181.78	-0.161738
1183.4	-0.0810213
1185.02	-0.275057
1186.64	0.206267
1188.26	0.200518
1189.88	0.446373
1191.5	0.206133
1193.12	0.301851
1194.74	0.312726
1196.36	0.0300541
1197.97	-0.376888
1199.59	-0.154342
1201.21	0.131915
1202.83	0.0645227
1204.44	0.145015
1206.06	0.310345
1207.68	0.288768
1209.29	0.559434
1210.91	0.28721
1212.52	0.0348277
1214.14	0.0520988
1215.75	0.630043
1217.37	0.519233
1218.98	0.303997
1220.59	0.0475845
1222.21	0.310586
1223.82	0.0973654
1225.43	-0.0109968
1227.05	0.792255
1228.66	0.354671
1230.27	0.641963
1231.88	0.578524
1233.49	0.102589
1235.1	0.0822287
1236.72	0.72408
1238.33	1.20145
1239.94	0.873071
1241.55	0.854928
1243.16	0.898606
1244.76	1.14866
1246.37	0.301288
1247.98	0.901665
1249.59	0.715175
1251.2	0.342314
1252.8	0.610912
1254.41	0.528331
1256.02	0.198277
1257.62	0.386155
1259.23	0.968059
1260.84	0.681566
1262.44	0.705826
1264.05	0.585116
1265.66	0.691995
1267.26	0.570414
1268.86	0.572524
1270.47	0.801992
1272.07	0.698982
1273.67	0.761112
1275.28	1.17489
1276.88	0.821052
1278.48	0.135417
1280.09	0.712969
1281.69	1.12423
1283.29	0.480117
1284.89	0.78816
1286.49	0.45575
1288.09	0.392908
1289.69	0.992002
1291.29	0.930101
1292.89	0.950802
1294.49	0.970973
1296.09	0.886954
1297.69	0.595414
1299.29	0.509328
1300.89	0.669718
1302.49	0.767178
1304.08	0.740312
1305.68	1.30919
1307.28	0.870162
1308.88	1.23196
1310.47	1.1626
1312.07	1.29838
1313.66	0.759527
1315.26	1.06015
1316.85	1.17721
1318.45	0.539632
1320.04	0.922276
1321.64	1.20181
1323.23	0.543642
1324.83	0.739365
1326.42	0.872728
1328.01	1.04586
1329.61	0.449529
1331.2	0.806228
1332.79	1.10315
1334.38	0.674345
1335.97	0.751735
1337.56	0.91012
1339.16	1.10818
1340.75	1.16379
1342.34	0.95612
1343.93	1.14945
1345.52	0.518368
1347.11	0.630783
1348.7	1.18476
1350.29	0.438641
1351.87	0.815413
1353.46	0.693458
1355.05	1.43197
1356.64	1.31116
1358.22	0.510905
1359.81	0.669037
1361.4	0.58677
1362.98	0.663578
1364.57	0.580549
1366.16	0.318464
1367.74	0.71436
1369.33	0.792253
1370.91	0.552698
1372.5	0.69227
1374.08	0.494364
1375.67	0.79439
1377.25	0.497549
1378.83	0.618236
1380.41	0.877488
1382	0.121194
1383.58	0.478063
1385.16	0.0985146
1386.74	0.692497
1388.33	0.650564
1389.91	0.450335
1391.49	0.608047
1393.07	0.190937
1394.65	0.686632
1396.23	0.190542
1397.81	0.0114207
1399.39	0.624373
1400.97	0.38448
1402.55	0.599689
1404.13	0.221133
1405.7	0.357429
1407.28	0.533714
1408.86	0.809258
1410.44	0.196148
1412.01	0.235023
1413.59	0.174787
1415.17	0.252113
1416.74	0.387954
1418.32	0.50366
1419.89	0.540662
1421.47	0.36177
1423.04	-0.0521412
1424.62	0.696434
1426.19	0.225533
1427.77	0.365163
1429.34	0.563679
1430.91	0.643477
1432.49	0.840517
1434.06	0.702329
1435.63	1.1539
1437.2	1.13348
1438.78	1.40845
1440.35	0.976566
1441.92	1.01713
1443.49	1.07787
1445.06	1.13891
1446.63	0.806988
1448.2	1.16313
1449.77	0.85113
1451.34	1.32588
1452.91	1.25055
1454.48	1.37219
1456.05	1.17905
1457.62	1.39865
1459.18	1.02693
1460.75	1.22466
1462.32	0.929084
1463.89	1.39946
1465.45	0.964427
1467.02	0.686741
1468.59	0.154374
1470.15	0.329586
1471.72	0.466183
1473.28	0.446536
1474.85	0.211742
1476.41	0.487086
1477.98	0.487981
1479.54	0.430031
1481.1	0.430828
1482.67	0.568748
1484.23	0.39304
1485.79	0.0408454
1487.36	0.491296
1488.92	0.392378
1490.48	0.64448
1492.04	0.210387
1493.61	0.517786
1495.17	0.472086
1496.73	0.679006
1498.29	0.534954
1499.85	-0.269156
1501.41	-0.00295782
1502.97	-0.124403
1504.53	-0.148151
1506.09	0.0219092
1507.65	0.152569
1509.2	-0.142729
1510.76	0.430185
1512.32	0.0375147
1513.88	0.0882473
1515.43	-0.283911
1516.99	0.170758
1518.55	-0.218863
1520.1	0.101529
1521.66	-0.0952549
1523.22	0.128679
1524.77	0.466137
1526.33	-0.0178413
1527.88	-0.0441656
1529.44	0.15737
1530.99	0.130473
1532.54	-0.445884
1534.1	0.210732
1535.65	0.299017
1537.21	0.614494
1538.76	0.36358
1540.31	0.170009
1541.86	-0.00427771
1543.42	0.649801
1544.97	0.117961
1546.52	0.657641
1548.07	0.820842
1549.62	0.665038
1551.17	0.472232
1552.72	0.598186
1554.27	0.818031
1555.82	0.665009
1557.37	0.980113
1558.92	0.344791
1560.47	0.587953
1562.02	0.421809
1563.56	0.741512
1565.11	0.837811
1566.66	0.822254
1568.21	0.563904
1569.75	0.510554
1571.3	0.419597
1572.85	0.92579
1574.39	1.07722
1575.94	0.519302
1577.49	0.969594
1579.03	0.897489
1580.57	1.06856
1582.12	1.03485
1583.66	1.07648
1585.21	0.539357
1586.75	0.974369
1588.3	0.923553
1589.84	0.853841
1591.38	1.13942
1592.92	0.376259
1594.47	0.75498
1596.01	0.703029
1597.55	0.670077
1599.09	0.76882
1600.63	0.886917
1602.17	0.874096
1603.71	1.29316
1605.25	1.43034
1606.79	0.927621
1608.33	1.45703
1609.87	0.913424
1611.41	1.11989
1612.95	1.00547
1614.49	0.908976
1616.03	0.605965
1617.57	1.01593
1619.1	0.583231
1620.64	0.938526
1622.18	0.920146
1623.72	0.808783
1625.25	0.772367
1626.79	0.847726
1628.32	0.641496
1629.86	0.789758
1631.39	0.881044
1632.93	0.91589
1634.46	0.950906
1636	0.743917
1637.53	0.910779
1639.07	1.28306
1640.6	0.77918
1642.13	1.16947
1643.67	0.83242
1645.2	1.01593
1646.73	0.826612
1648.26	1.12046
1649.8	0.987089
1651.33	0.724699
1652.86	0.723144
1654.39	1.27861
1655.92	0.851837
1657.45	0.758826
1658.98	1.38769
1660.51	1.38559
1662.04	1.49339
1663.57	1.17498
1665.1	1.15217
1666.63	1.29575
1668.16	0.923525
1669.68	0.718734
1671.21	0.736291
1672.74	1.27038
1674.27	0.718048
1675.79	1.1416
1677.32	0.956982
1678.85	0.753326
1680.37	1.21101
1681.9	0.656996
1683.42	0.709398
1684.95	0.376426
1686.47	0.722653
1688	0.738884
1689.52	0.828659
1691.05	0.643886
1692.57	0.642364
1694.09	0.640803
1695.62	0.456307
1697.14	0.0708427
1698.66	-0.0404949
1700.18	0.906522
1701.71	0.228769
1703.23	0.225881
1704.75	0.149774
1706.27	0.291822
1707.79	0.0334826
1709.31	-0.0428286
1710.83	0.189555
1712.35	-0.158574
1713.87	0.109986
1715.39	0.45056
1716.91	0.15746
1718.43	0.20814
1719.95	0.0600486
1721.47	0.182962
1722.99	0.396204
1724.5	0.17745
1726.02	0.193948
1727.54	0.247356
1729.06	0.373401
1730.57	-0.239785
1732.09	0.359213
1733.61	0.228467
1735.12	0.125712
1736.64	0.0987477
1738.15	0.195834
1739.67	-0.285491
1741.18	-0.130086
1742.7	0.0235376
1744.21	0.157666
1745.72	0.088378
1747.24	-0.023078
1748.75	0.228923
1750.26	-0.286293
1751.77	0.387608
1753.29	0.186543
1754.8	0.316257
1756.31	0.32153
1757.82	0.0307722
1759.33	0.244428
1760.84	0.352987
1762.36	-0.0474997
1763.87	-0.111022
1765.38	-0.159006
1766.89	0.0426488
1768.4	0.0502157
1769.91	0.279332
1771.41	0.161109
1772.92	-0.013556
1774.43	0.314932
1775.94	0.039782
1777.45	0.089684
1778.95	-0.166661
1780.46	0.227373
1781.97	-0.112706
1783.48	-0.0467849
1784.98	0.180057
1786.49	-0.0319424
1787.99	-0.0593224
1789.5	0.0780311
1791.01	-0.0185161
1792.51	0.136278
1794.01	0.112354
1795.52	0.0329618
1797.02	0.0160832
1798.53	0.00348186
1800.03	0.0738568
1801.53	0.279646
1803.04	0.195189
1804.54	-0.25138
1806.04	-0.0468478
1807.54	-0.145049
1809.05	0.183775
1810.55	0.0917745
1812.05	0.170393
1813.55	-0.0268283
1815.05	0.0547566
1816.55	0.247525
1818.05	0.143479
1819.55	0.0521784
1821.05	0.0247979
1822.55	-0.079495
1824.05	-0.0739417
1825.55	-0.0269179
1827.05	-0.103538
1828.55	0.0606232
1830.04	-0.0151896
1831.54	0.167521
1833.04	0.0385175
1834.54	-0.0334477
1836.03	-0.267629
1837.53	-0.184988
1839.03	-0.050529
1840.52	0.0893555
1842.02	0.0459986
1843.51	0.295764
1845.01	0.202568
1846.5	0.262469
1848	0.155385
1849.49	0.098135
1850.99	-0.149799
1852.48	-0.0605736
1853.97	0.000905514
1855.47	-0.189373
1856.96	0.140393
1858.45	-0.0840206
1859.94	0.117066
1861.44	-0.156622
1862.93	0.0988264
1864.42	0.147926
1865.91	-0.0874577
1867.4	-0.170327
1868.89	0.157147
1870.38	-0.107609
1871.87	-0.00582314
1873.36	-0.157233
1874.85	-0.147724
1876.34	0.0410862
1877.83	0.31587
1879.32	-0.204452
1880.81	0.0905166
1882.3	0.150096
1882.57	0.145338
1884.07	0.179878
1885.56	0.10928
1887.06	-0.0663567
1888.55	0.00156307
1890.04	0.0173645
1891.54	0.0512352
1893.03	0.0862031
1894.52	0.278897
1896.02	0.0553894
1897.51	0.0236735
1899	0.13101
1900.49	0.289842
1901.98	0.0822053
1903.47	0.203838
1904.96	0.185311
1906.45	-0.0769734
1907.94	0.0951319
1909.43	0.146002
1910.92	-0.218936
1912.41	-0.0106244
1913.9	0.0418825
1915.39	-0.0269623
1916.88	0.0426807
1918.37	0.0772562
1919.85	0.180809
1921.34	-0.270017
1922.83	0.145494
1924.32	0.00743294
1925.8	0.0259876
1927.29	0.183766
1928.78	-0.0389061
1930.26	0.240507
1931.75	0.207666
1933.23	0.139167
1934.72	-0.0863233
1936.2	-0.0532398
1937.69	0.134619
1939.17	-0.0581894
1940.66	0.0948057
1942.14	0.282728
1943.63	-0.305026
1945.11	-0.150283
1946.59	0.125269
1948.07	-0.202688
1949.56	0.364854
1951.04	0.19081
1952.52	0.0679345
1954	0.0823879
1955.48	0.165508
1956.96	-0.0431271
1958.45	0.0407143
1959.93	0.210739
1961.41	0.123785
1962.89	0.17415
1964.37	-0.289642
1965.85	0.137113
1967.32	0.186418
1968.8	0.218099
1970.28	-0.0754271
1971.76	0.399878
1973.24	-0.0813274
1974.72	0.256884
1976.19	0.134571
1977.67	0.131763
1979.15	0.0949826
1980.63	0.0582261
1982.1	0.00439882
1983.58	0.120293
1985.05	0.0830216
1986.53	0.0965133
1988	-0.347573
1989.48	-0.0118299
1990.95	-0.0314665
1992.43	-0.337958
1993.9	0.286285
1995.38	0.505018
1996.85	0.233999
1998.32	-0.00311136
1999.8	0.384266
2001.27	0.146532
2002.74	0.296594
2004.22	0.227263
2005.69	-0.347246
2007.16	-0.0617819
2008.63	0.190451
2010.1	0.0727859
2011.57	-0.212823
2013.04	0.00659418
2014.51	0.124676
2015.98	0.561814
2017.45	0.00575209
2018.92	0.0379386
2020.39	0.0193143
2021.86	0.621958
2023.33	0.43536
2024.8	0.0984974
2026.27	0.148474
2027.74	0.367149
2029.2	-0.13436
2030.67	0.18692
2032.14	0.106265
2033.61	0.244115
2035.07	0.281271
2036.54	-0.0682034
2038.01	0.237086
2039.47	0.559044
2040.94	0.393603
2042.4	0.00976992
2043.87	0.18129
2045.33	0.387218
2046.8	0.3245
2048.26	0.194531
2049.72	0.552942
2051.19	0.33765
2052.65	0.374075
2054.12	-0.096745
2055.58	0.021523
2057.04	0.475955
2058.5	0.592489
2059.97	0.186676
2061.43	0.101375
2062.89	-0.000148773
2064.35	0.454428
2065.81	0.27012
2067.27	0.0359111
2068.73	0.105014
2070.19	0.29217
2071.65	0.159532
2073.11	0.19513
2074.57	0.584166
2076.03	0.383605
2077.49	0.0817232
2078.95	0.133204
2080.41	0.319065
2081.87	0.453978
2083.32	0.285373
2084.78	0.402395
2086.24	0.199214
2087.7	0.786008
2089.15	0.582084
2090.61	0.277431
2092.07	0.325581
2093.52	0.709191
2094.98	0.27046
2096.43	0.0497627
2097.89	0.38158
2099.34	0.361038
2100.8	0.0225883
2102.25	0.0190034
2103.71	-0.0675139
2105.16	-0.0195751
2106.61	0.596446
2108.07	0.428919
2109.52	0.41176
2110.97	0.110823
2112.43	0.0591431
2113.88	-0.0435762
2115.33	0.534993
2116.78	0.363884
2118.23	0.160093
2119.68	0.322678
2121.13	0.220961
2122.59	0.535244
2124.04	-0.0284615
2125.49	0.287153
2126.94	0.270918
2128.39	0.370019
2129.83	0.335543
2131.28	0.267082
2132.73	0.231264
2134.18	0.427071
2135.63	0.524014
2137.08	-0.0392294
2138.53	0.555812
2139.97	0.540621
2141.42	0.59268
2142.87	0.579439
2144.31	0.268842
2145.76	0.586981
2147.21	0.723029
2148.65	0.328703
2150.1	0.347724
2151.54	0.233521
2152.99	0.350611
2154.43	0.367733
2155.88	0.152611
2157.32	0.1198
2158.77	0.750046
2160.21	0.668932
2161.65	0.473005
2163.1	0.510284
2164.54	0.515454
2165.98	0.587593
2167.43	0.493596
2168.87	0.53173
2170.31	0.552042
2171.75	0.371287
2173.19	0.521905
2174.64	0.704836
2176.07	0.604599
2177.52	0.80383
2178.96	0.853921
2180.4	0.572189
2181.84	0.789835
2183.28	0.326118
2184.72	0.760589
2186.15	0.646276
2187.59	0.615124
2189.03	0.733764
2190.47	0.66932
2191.91	0.704546
2193.35	0.289693
2194.78	0.356751
2196.22	0.0896645
2197.66	0.337234
2199.09	-0.0151739
2200.53	0.662335
2201.97	0.176611
2203.4	0.621083
2204.84	0.584916
2206.27	0.648934
2207.71	0.431621
2209.14	0.230901
2210.58	0.294649
2212.01	0.308016
2213.45	0.386976
2214.88	0.680456
2216.31	0.000118732
2217.75	0.377136
2219.18	0.424829
2220.61	0.374149
2222.05	0.45541
2223.48	0.552575
2224.91	0.648653
2226.34	0.249747
2227.78	0.343536
2229.21	0.403417
2230.64	0.397012
2232.07	0.308547
2233.5	0.53146
2234.93	0.345644
2236.36	0.438721
2237.79	0.238906
2239.22	0.481161
2240.65	0.218966
2242.08	0.398451
2243.5	0.578764
2244.93	0.139494
2246.36	0.564224
2247.79	0.465856
2249.22	0.300807
2250.64	0.362467
2252.07	-0.0654836
2253.5	0.433685
2254.92	0.412273
2256.35	0.408151
2257.78	0.0487232
2259.2	-0.146347
2260.63	0.24458
2262.05	0.377653
2263.48	0.300803
2264.9	0.337797
2266.33	0.390828
2267.75	0.557218
2269.18	0.560331
2270.6	0.725665
2272.02	0.141694
2273.45	0.43681
2274.87	0.27599
2276.29	0.310761
2277.71	0.622734
2279.14	-0.0106435
2280.56	0.382931
2281.98	0.613503
2283.4	0.338357
2284.82	0.226292
2286.24	0.424457
2287.66	0.0841608
2289.08	0.135946
2290.5	0.465822
2291.92	0.125919
2293.34	0.472692
2294.76	0.328887
2296.18	0.414058
2297.6	0.450128
2299.02	0.486261
2300.44	0.178366
2301.86	0.263926
2303.27	0.513824
2304.69	0.452205
2306.11	0.488995
2307.53	0.229797
2308.94	0.29875
2310.36	0.153563
2311.78	0.419236
2313.19	0.471146
2314.61	0.424623
2316.02	0.427987
2317.44	0.168295
2318.85	0.0569773
2320.27	0.29173
2321.68	0.179399
2323.1	0.560805
2324.51	0.643503
2325.92	0.642016
2327.34	0.573339
2328.75	0.619555
2330.16	0.43528
2331.58	0.350611
2332.99	0.595951
2334.4	0.0684314
2335.81	0.034811
2337.23	0.214682
2338.64	0.196468
2340.05	0.325348
2341.46	0.174253
2342.87	0.00659132
2344.28	0.577102
2345.69	0.130961
2347.1	0.635535
2348.51	0.582964
2349.92	-0.0260067
2351.33	0.149935
2352.74	0.112591
2354.15	0.188876
2355.55	0.346022
2356.96	0.242096
2358.37	-0.251972
2359.78	0.148659
2361.19	0.0291576
2362.59	0.169293
2364	0.0823078
2365.41	-0.166309
2366.81	0.393754
2368.22	0.000582695
2369.62	0.189536
2371.03	0.508064
2372.44	0.182755
2373.84	0.019496
2375.24	-0.0468054
2376.65	-0.000698566
2378.05	0.125013
2379.46	0.602949
2380.86	-0.0127087
2382.26	0.0934806
2383.67	0.326921
2385.07	0.527646
2386.47	0.392685
2387.88	0.258686
2389.28	-0.0655169
2390.68	0.312632
2392.08	-0.120859
2393.48	0.115104
2394.89	0.144649
2396.29	0.397224
2397.69	0.0302572
2399.09	0.251775
2400.49	0.0763936
2401.89	-0.194018
2403.29	0.186797
2404.69	0.297287
2406.09	0.391216
2407.48	0.0718684
2408.88	0.291475
2410.28	0.130214
2411.68	0.143548
2413.08	0.0465922
2414.48	0.283055
2415.87	-0.366042
2417.27	0.0781121
2418.67	0.174627
2420.06	0.208069
2421.46	0.304795
2422.86	0.290397
2424.25	0.307489
2425.65	0.292945
2427.04	0.247074
2428.44	0.312778
2429.83	0.268185
2431.23	0.287508
2432.62	0.370452
2434.02	0.167202
2435.41	0.217196
2436.81	0.170835
2438.2	0.202838
2439.59	0.249815
2440.99	0.391404
2442.38	0.405521
2443.77	0.371819
2445.16	0.290431
2446.56	0.288273
2447.95	0.080009
2449.34	-0.223114
2450.73	0.0283365
2452.12	0.105864
2453.51	0.373761
2454.9	0.0568123
2456.29	0.230804
2457.68	0.167724
2459.07	0.041265
2460.46	0.0409474
2461.85	0.198177
2463.24	0.180902
2464.63	0.0526385
2466.02	0.413835
2467.4	0.285314
2468.79	-0.127135
2470.18	0.044168
2471.57	-0.0214529
2472.95	-0.0717154
2474.34	0.129431
2475.73	0.12535
2477.12	-0.0204287
2478.5	0.100967
2479.89	0.253669
2481.27	0.296498
2482.66	0.52721
2484.04	0.177998
2485.43	0.235394
2486.81	-0.0986958
2488.2	0.284996
2489.58	0.449038
2490.97	-0.18116
2492.35	0.371933
2493.73	0.210296
2495.12	0.0654621
2496.5	0.0767498
2497.88	-0.0662766
2499.27	0.208974
2500.65	-0.351619
2502.03	0.231753
2503.41	0.0722938
2504.79	0.0976148
2506.17	-0.000803947
2507.56	0.147076
2508.94	-0.212583
2510.32	-0.248683
2511.7	0.0225587
2513.08	0.140552
2514.46	0.0598531
2515.84	0.0870214
2517.22	0.129993
2518.59	0.295609
2519.97	0.262525
2521.35	0.412551
2522.73	0.195604
2524.11	0.161374
2525.49	0.218134
2526.86	0.137582
2528.24	-0.00339317
2529.62	0.251941
2530.99	0.280167
2532.37	-0.267794
2533.75	-0.0702052
2535.12	0.127841
2536.5	-0.114735
2537.88	0.0827937
2539.25	0.203656
2540.63	0.202413
2542	0.337522
2543.38	0.0934587
2544.75	0.168686
2546.12	0.00209379
2547.5	0.261079
2548.87	0.141448
2550.24	0.0976839
2551.62	-0.0830169
2552.99	-0.0367141
2554.36	-0.17321
2555.74	-0.143364
2557.11	0.0681195
2558.48	0.127779
2559.85	0.505952
2561.22	0.232646
2562.59	0.399373
2563.96	0.278585
2565.34	0.0520411
2566.71	-0.159181
2568.08	-0.02178
2569.45	0.0853367
2570.82	0.222789
2572.18	0.345135
2573.55	0.0734439
2574.92	0.104983
2576.29	0.273011
2577.66	-0.317099
2579.03	0.290458
2580.4	0.00317717
2581.77	0.0795355
2583.13	0.155634
2584.5	-0.0867891
2585.87	-0.162444
2587.23	0.0499854
2588.6	0.156431
2589.97	0.17202
2591.33	0.308751
2592.7	0.263298
2594.06	-0.0705304
2595.43	0.019145
2596.79	0.123182
2598.16	0.362715
2599.52	-0.139088
2600.89	0.175713
2602.25	0.143198
2603.62	0.247056
2604.98	0.215432
2606.34	0.24431
2607.71	-0.194498
2609.07	0.0899253
2610.43	0.162326
2611.79	0.0531006
2613.16	-0.387518
2614.52	-0.0617247
2615.88	0.173216
2617.24	0.153039
2618.6	-0.271004
2619.96	0.263875
2621.32	0.305034
2622.68	-0.0867896
2624.04	0.119353
2625.4	0.0118308
2626.76	-0.0509806
2628.12	0.079793
2629.48	0.135723
2630.84	-0.00197363
2632.2	0.0537372
2633.56	-0.143177
2634.92	-0.131998
2636.28	0.0571113
2637.63	0.112558
2638.99	-0.11334
2640.35	-0.176026
2641.71	-0.10538
2643.06	0.0835457
2644.42	0.0951838
2645.77	-0.144027
2647.13	0.132775
2648.49	0.364476
2649.84	-0.0522861
2651.2	0.236922
2652.55	-0.0620675
2653.91	0.167865
2655.26	0.265999
2656.62	0.203679
2657.97	0.186194
2659.33	0.301031
2660.68	0.0651398
2662.03	-0.126775
2663.39	-0.0413737
2664.74	0.0141835
2666.09	0.112908
2667.44	0.109152
2668.8	0.294655
2670.15	0.0581398
2671.5	-0.0467834
2672.85	0.0958939
2674.2	0.238852
2675.55	0.0482554
2676.91	0.104889
2678.26	0.0749402
2679.61	0.190611
2680.96	-0.18593
2682.31	0.221297
2683.66	0.33945
2685	0.21178
2686.35	0.214954
2687.7	0.203484
2689.05	0.191174
2690.4	0.0905738
2691.75	0.0613098
2693.1	-0.0560155
2694.44	-0.086863
2695.79	0.027154
2697.14	-0.177173
2698.49	-0.13428
2699.83	0.0690165
2701.18	-0.102971
2702.52	0.189519
2703.87	-0.183627
2705.22	0.197134
2706.56	0.114153
2707.91	0.103479
2709.25	0.107041
2710.6	0.0813146
2711.94	0.0408745
2713.29	0.0584478
2714.63	0.352186
2715.97	0.282562
2717.32	0.00918531
2718.66	0.157394
2720.01	0.276322
2721.35	0.13302
2722.69	0.0330219
2724.03	0.267474
2725.38	0.0649743
2726.72	0.255219
2728.06	0.37246
2729.4	0.300343
2730.74	0.140851
2732.08	0.257818
2733.42	0.098443
2734.76	-0.0898514
2736.1	-0.0888901
2737.44	0.0139823
2738.78	0.247725
2740.12	0.190434
2741.46	-0.0416508
2742.8	0.380081
2744.14	-0.0417857
2745.48	0.306169
2746.82	-0.0289388
2748.16	0.0570645
2749.49	-0.0745916
2750.83	-0.11897
2752.17	0.170315
2753.51	0.300151
2754.84	0.111306
2756.18	0.183391
2757.52	0.226607
2758.85	0.0383859
2760.19	-0.0481563
2761.53	-0.206679
2762.86	-0.147796
2764.2	0.20068
2765.53	0.0137868
2766.87	-0.0865836
2768.2	0.101739
2769.54	0.0432711
2770.87	0.113927
2772.2	0.35685
2773.54	-0.18048
2774.87	0.162145
2776.2	-0.028759
2777.54	0.198273
2778.87	0.152121
2780.2	0.106416
2781.53	0.046648
2782.87	-0.0560217
2784.2	-0.0725327
2785.53	-0.246671
2786.86	0.224077
2788.19	0.107744
2789.52	-0.0508261
2790.85	0.306233
2792.18	0.434862
2793.51	0.277869
2794.84	0.0495205
2796.17	-0.0217729
2797.5	-0.0219688
2798.83	0.191637
2800.16	-0.151813
2801.49	-0.195552
2802.82	0.302428
2804.15	0.0872068
2805.47	0.213736
2806.8	0.296991
2808.13	0.30858
2809.46	-0.120684
2810.78	0.331189
2812.11	0.0165634
2813.44	-0.282692
2814.76	-0.0986848
2816.09	-0.0130363
2817.42	-0.0542135
2818.74	-0.094996
2820.07	0.232739
2821.39	-0.0351095
2822.72	-0.034102
2824.04	-0.0618362
2825.37	0.17935
2826.69	0.009799
2828.02	-0.0177374
2829.34	0.068378
2830.66	0.084023
2831.99	0.255524
2833.31	0.257114
2834.63	0.286795
2835.96	-0.00935841
2837.28	0.514887
2838.6	0.345466
2839.92	0.13358
2841.24	0.232925
2842.57	0.247707
2843.89	0.432521
2845.21	0.787387
2846.53	0.464325
2847.85	0.551344
2849.17	0.878666
2850.49	0.696971
2851.81	0.656285
2853.13	0.558732
2854.45	0.842487
2855.77	0.942373
2857.09	0.83033
2858.41	1.0856
2859.72	0.832377
2861.04	1.01684
2862.36	1.13044
2863.68	1.2155
2865	1.0887
2866.31	1.31462
2867.63	1.30086
2868.95	1.23101
2870.26	1.52801
2871.58	1.55721
2872.9	1.74123
2874.21	1.78375
2875.53	1.57196
2876.84	1.86642
2878.16	1.42834
2879.47	1.74996
2880.79	1.69196
2882.1	1.83129
2883.42	1.7044
2884.73	1.63441
2886.05	1.76138
2887.36	1.5094
2888.67	1.79042
2889.99	1.69201
2891.3	1.25659
2892.61	1.39577
2893.92	1.70283
2895.24	1.78583
2896.55	1.91132
2897.86	1.9115
2899.17	1.57661
2900.48	1.53609
2901.79	1.88755
2903.11	1.6656
2904.42	1.94729
2905.73	1.96341
2907.04	1.97989
2908.35	1.92697
2909.66	2.25234
2910.97	1.92047
2912.27	2.3023
2913.58	2.66976
2914.89	2.35028
2916.2	2.7716
2917.51	2.68785
2918.82	2.5755
2920.13	2.74285
2921.43	2.56101
2922.74	3.20484
2924.05	3.10865
2925.35	2.77561
2926.66	2.68058
2927.97	2.62749
2929.27	2.92364
2930.58	3.12154
2931.89	3.02554
2933.19	2.98528
2934.5	2.91706
2935.8	3.11445
2937.11	2.92062
2938.41	3.31383
2939.72	2.67316
2941.02	3.1507
2942.32	2.87425
2943.63	2.66841
2944.93	2.61714
2946.24	2.60856
2947.54	2.4884
2948.84	2.36796
2950.14	2.27466
2951.45	2.27819
2952.75	2.57453
2954.05	2.16984
2955.35	2.22697
2956.65	2.20069
2957.95	1.90978
2959.26	2.12452
2960.56	2.27117
2961.86	2.19502
2963.16	2.06311
2964.46	2.16926
2965.76	1.50193
2967.06	1.5356
2968.36	1.56847
2969.66	1.98055
2970.96	2.25207
2972.25	1.80639
2973.55	1.61398
2974.85	1.73111
2976.15	1.6648
2977.45	1.49904
2978.74	1.0083
2980.04	1.44568
2981.34	1.65677
2982.64	1.40316
2983.93	1.17808
2985.23	0.996016
2986.52	0.829009
2987.82	1.12662
2989.12	1.2
2990.41	1.09082
2991.71	0.854777
2993	1.01153
2994.3	1.20952
2995.59	0.760488
2996.89	1.01327
2998.18	0.269316
2999.48	0.536072
3000.77	0.410316
3002.06	0.733508
3003.36	0.734449
3004.65	0.455248
3005.94	0.652124
3007.23	0.638428
3008.53	0.610141
3009.82	0.707077
3011.11	0.579772
3012.4	0.396484
3013.69	0.408744
3014.99	0.476978
3016.28	0.32266
3017.57	0.336045
3018.86	0.127078
3020.15	0.293814
3021.44	0.390513
3022.73	0.305909
3024.02	-0.167809
3025.31	0.0658441
3026.6	0.395807
3027.89	0.0335946
3029.18	0.00449467
3030.46	0.142144
3031.75	0.128644
3033.04	0.226223
3034.33	0.434282
3035.62	0.338256
3036.9	0.117289
3038.19	0.129581
3039.48	0.236874
3040.76	0.219124
3042.05	0.0497818
3043.34	0.689438
3044.62	0.274019
3045.91	0.202468
3047.19	0.610579
3048.48	0.296149
3049.77	0.44742
3051.05	0.354022
3052.34	0.370295
3053.62	0.468364
3054.9	0.238472
3056.19	0.0897498
3057.47	0.376572
3058.76	0.56712
3060.04	0.307882
3061.32	0.362119
3062.61	0.321692
3063.89	0.159808
3065.17	0.474774
3066.45	0.151639
3067.74	0.264139
3069.02	0.200071
3070.3	0.298935
3071.58	0.383537
3072.86	-0.144722
3074.14	0.210012
3075.42	0.319188
3076.7	-0.00659609
3077.99	0.387525
3079.26	0.144293
3080.54	0.404044
3081.82	0.203548
3083.1	0.315827
3084.38	0.0757322
3085.66	-0.110214
3086.94	0.0427442
3088.22	-0.117022
3089.5	0.143427
3090.78	0.14559
3092.05	-0.0423574
3093.33	0.0953155
3094.61	-0.105977
3095.89	0.153883
3097.16	-0.223517
3098.44	0.0225468
3099.72	0.30896
3100.99	-0.312512
3102.27	-0.0263648
3103.54	0.029563
3104.82	0.0180392
3106.1	0.358786
3107.37	-0.0984039
3108.65	0.040462
3109.92	0.27474
3111.2	0.0628948
3112.47	-0.0267749
3113.74	-0.0621262
3115.02	0.0515018
3116.29	0.0427375
3117.56	0.0875316
3118.84	-0.00414515
3120.11	-0.0152907
3121.38	0.0812998
3122.66	-0.269894
3123.93	-0.0114627
3125.2	-0.0375795
3126.47	0.112453
3127.74	0.316755
3129.01	-0.0739231
3130.29	-0.00454044
3131.56	-0.232612
3132.83	-0.00134277
3134.1	0.296901
3135.37	0.13539
3136.64	-0.147879
3137.91	0.148453
3139.18	0.0667753
3140.45	-0.311113
3141.72	0.078052
3142.99	-0.137995
3144.26	0.00897121
3145.52	0.102326
3146.79	-0.13926
3148.06	-0.0988936
3149.33	0.263004
