200.398	-0.233376
202.213	-0.207234
204.027	-0.179641
205.843	0.310808
207.657	0.557817
209.47	0.245069
211.283	0.052866
213.097	0.442069
214.909	0.271609
216.721	0.173374
218.533	0.268918
220.344	0.509971
222.157	0.291905
223.967	0.219838
225.777	0.486588
227.587	-0.358155
229.396	0.415154
231.205	0.776795
233.016	-0.237394
234.824	0.123923
236.632	-0.261292
238.439	0.439992
240.247	0.0347195
242.053	0.0652866
243.86	0.458884
245.666	0.756173
247.474	0.448553
249.279	1.05563
251.085	-0.175477
252.889	0.425592
254.694	0.421226
256.498	0.464507
258.301	0.19509
260.105	0.553689
261.908	0.648919
263.71	0.480695
265.513	0.289288
267.315	0.170353
269.116	0.5572
270.918	0.750435
272.718	0.0986004
274.519	0.409733
276.319	0.309345
278.119	0.520436
279.918	-0.0414133
281.718	0.11749
283.516	0.394553
285.315	0.549505
287.113	0.391259
288.911	0.185255
290.708	0.842617
292.505	0.614421
294.302	0.531518
296.098	0.234895
297.894	0.274083
299.69	0.289778
301.485	0.376893
303.278	0.63021
305.073	0.571825
306.867	0.488648
308.661	0.619782
310.454	0.131735
312.247	0.431094
314.04	0.827021
315.833	0.605532
317.623	0.052269
319.415	0.548334
321.206	0.187846
322.997	0.304621
324.788	0.445757
326.579	0.778139
328.367	0.72838
330.156	-0.0870886
331.946	0.434831
333.735	0.381298
335.523	0.349607
337.31	0.674612
339.098	0.806047
340.885	0.218349
342.673	0.610342
344.458	0.762916
346.244	0.00817204
348.03	0.448412
349.816	0.602402
351.6	0.326701
353.385	0.360797
355.17	0.0121851
356.953	-0.0274448
358.737	0.241503
360.521	0.461359
362.304	0.775152
364.085	0.326776
365.868	-0.169092
367.65	0.0472364
369.431	0.309736
371.212	0.452404
372.994	0.68868
374.773	0.356816
376.554	0.0965281
378.332	0.356023
380.112	-0.0909357
381.892	0.0994558
383.669	-0.0856428
385.448	0.388865
387.225	0.206091
389.003	0.423826
390.781	0.172642
392.557	-0.14819
394.334	0.0482025
396.109	0.409307
397.885	0.112931
399.66	-0.183668
401.436	0.176981
403.211	-0.120624
404.984	0.262188
406.759	0.174553
408.532	0.156784
410.306	0.13869
412.078	0.284873
413.851	-0.0613918
415.623	-0.0784883
417.395	0.139766
419.166	0.0300922
420.938	0.789043
422.708	-0.142148
424.477	-0.0647058
426.248	0.364059
428.017	0.60419
429.788	-0.0716381
431.556	0.16795
433.326	0.102674
435.093	-0.0327101
436.86	-0.0038271
438.629	0.2826
440.395	0.262585
442.163	0.522192
443.929	0.216837
445.694	-0.043025
447.461	0.562386
449.226	0.34779
450.99	-0.0299072
452.756	0.316986
454.52	0.173699
456.285	-0.342299
458.048	-0.368551
459.811	-0.0224018
461.573	0.068018
463.337	-0.119199
465.099	-0.0950212
466.86	-0.0450544
468.623	0.239832
470.384	0.108166
472.144	0.186401
473.906	0.427073
475.666	0.992372
477.425	0.647288
479.184	0.929266
480.944	0.534699
482.703	-0.325489
484.461	0.375843
486.218	0.240512
487.975	0.130406
489.734	0.325308
491.491	0.171357
493.247	0.298149
495.003	0.565706
496.759	0.31872
498.516	0.0944538
500.271	0.432174
502.025	0.558642
503.779	0.590518
505.533	0.38632
507.287	0.439268
509.042	0.631961
510.795	0.399682
512.547	0.354091
514.299	0.542381
516.051	0.329383
517.803	0.515152
519.554	0.770344
521.305	0.95407
523.055	0.479573
524.805	0.615625
526.555	-0.0930109
528.307	-0.0505886
530.056	0.202621
531.805	0.642577
533.553	0.402452
535.301	0.512411
537.049	0.223576
538.797	0.260825
540.544	-0.122888
542.291	-0.0871811
544.037	0.0411377
545.783	0.471184
547.529	0.157678
549.275	-0.01577
551.02	0.228203
552.765	0.240501
554.509	0.437817
556.253	0.173317
557.997	0.624592
559.738	0.752964
561.482	0.467303
563.224	-0.162354
564.967	-0.100968
566.709	0.0987463
568.451	0.0464239
570.192	0.224607
571.933	-0.054884
573.674	-0.103378
575.415	-0.150259
577.153	0.469817
578.893	-0.14801
580.632	0.24489
582.371	0.31662
584.11	-0.209782
585.849	0.205418
587.587	0.021616
589.323	-0.301402
591.06	0.15696
592.797	-0.351484
594.534	0.0602312
596.271	0.218896
598.005	0.101468
599.741	-0.200312
601.476	0.187342
603.211	-0.185226
604.944	0.0158787
606.679	0.307513
608.413	-0.228673
610.147	-0.0529022
611.878	-0.106288
613.611	0.345496
615.344	-0.0733576
617.077	0.172704
618.807	0.486856
620.539	0.204564
622.27	0.218828
623.999	-0.0191965
625.73	0.474073
627.461	0.259941
629.189	-0.0890779
630.919	-0.116339
632.648	0.154925
634.376	-0.211757
636.105	1.06477
637.833	0.627794
639.559	0.667607
641.287	0.453606
643.013	0.533823
644.74	-0.252576
646.467	-0.0136585
648.192	0.476583
649.918	0.446603
651.642	0.238503
653.368	0.602242
655.091	0.30997
656.816	0.770797
658.538	0.435787
660.263	0.784264
661.987	1.08625
663.708	0.152364
665.432	0.518389
667.153	0.425462
668.875	0.217376
670.596	0.581669
672.318	0.421678
674.037	0.355422
675.759	0.611992
677.478	0.480257
679.196	0.486255
680.917	0.192534
682.635	0.172771
684.355	0.496325
686.072	0.841297
687.791	0.171484
689.508	0.352737
691.224	0.5794
692.942	0.36781
694.658	0.63924
696.376	0.333962
698.091	0.925545
699.805	0.595037
701.522	0.585708
703.236	0.920242
704.95	0.564603
706.665	0.57617
708.379	0.816658
710.093	0.643931
711.806	0.654312
713.518	0.664374
715.23	0.948457
716.943	0.75248
718.655	0.420085
720.366	1.0229
722.078	0.736702
723.788	0.314543
725.498	1.02968
727.208	0.83476
728.919	1.07094
730.628	1.05686
732.337	0.725363
734.045	1.02784
735.755	1.30713
737.463	1.02172
739.17	1.09845
740.877	1.2887
742.584	1.70511
744.292	1.19932
745.998	1.6631
747.704	1.29558
749.409	1.19948
751.114	1.23961
752.819	1.19105
754.526	1.77374
756.23	2.06569
757.934	1.70654
759.637	1.68644
761.34	1.62238
763.043	1.01728
764.746	1.17876
766.448	1.31682
768.152	1.29506
769.853	1.65557
771.554	1.4036
773.255	1.1502
774.956	1.846
776.656	1.32128
778.356	1.90572
780.056	1.49676
781.755	1.65428
783.454	1.92527
785.153	1.17669
786.851	1.89717
788.549	2.00331
790.247	1.56315
791.944	1.79893
793.641	1.60361
795.338	1.38578
797.034	1.59739
798.73	1.83277
800.426	1.50693
802.121	1.25033
803.817	1.69179
805.511	1.70566
807.206	1.76367
808.9	2.08993
810.592	1.76379
812.286	2.8499
813.979	1.82749
815.672	1.36618
817.364	1.9569
819.057	2.18909
820.748	1.79579
822.44	1.71587
824.129	1.50307
825.82	2.04949
827.511	1.95153
829.201	2.05678
830.891	1.43011
832.581	1.96442
834.269	1.45368
835.958	1.79094
837.646	1.63748
839.335	1.99631
841.023	1.32636
842.709	2.01759
844.396	1.68063
846.084	1.34414
847.77	1.56806
849.455	1.88405
851.141	2.00146
852.827	2.16589
854.513	1.72584
856.196	1.48687
857.881	1.69604
859.566	1.43141
861.248	1.00702
862.932	1.41412
864.616	1.14423
866.297	1.21141
867.98	1.70642
869.663	1.34415
871.343	1.38746
873.026	1.56594
874.707	1.20284
876.387	1.33612
878.068	1.55972
879.747	1.24153
881.428	0.968075
883.108	1.168
884.786	1.59263
886.465	1.24839
888.143	1.512
889.822	1.36788
891.498	1.71829
893.177	0.873263
894.855	1.51355
896.53	1.43227
898.208	0.878528
899.883	0.818604
901.56	1.27335
903.234	1.30128
904.91	1.06071
906.584	1.33435
908.26	1.67477
909.933	1.1245
911.608	1.46613
913.28	0.940989
914.955	1.06111
916.627	0.826129
918.298	0.990452
919.972	1.04383
921.643	1.36309
923.315	1.13026
924.986	0.634236
926.656	1.22236
928.328	1.21567
929.997	1.05575
931.668	1.55846
933.337	0.759747
935.006	1.48336
936.676	1.325
938.344	1.01311
940.012	1.03318
941.681	0.922056
943.348	1.67216
945.014	1.16447
946.683	1.18529
948.349	0.873248
950.015	0.868433
951.682	0.685913
953.347	1.16516
955.012	0.741518
956.676	0.893809
958.343	1.15951
960.006	1.16333
961.67	0.616504
963.333	0.864588
964.998	-0.0165062
966.661	0.891356
968.323	0.934
969.985	0.886093
971.649	0.704585
973.31	0.766783
974.971	1.02931
976.632	0.76281
978.293	1.0728
979.953	1.20662
981.615	1.25163
983.274	1.27321
984.933	1.16006
986.592	0.93422
988.251	0.795259
989.909	1.16379
991.567	0.205232
993.225	0.970411
994.884	0.71933
996.541	0.998138
998.198	1.91603
999.855	2.23762
1001.51	1.78761
1003.17	1.5798
1004.82	0.404319
1006.48	0.878546
1008.13	0.254206
1009.79	0.925748
1011.44	0.741524
1013.1	0.49221
1014.75	0.374986
1016.4	0.170683
1018.06	0.448425
1019.71	0.42044
1021.36	0.305975
1023.01	1.1762
1024.66	0.582781
1026.32	0.645651
1027.97	0.970739
1029.62	0.814529
1031.27	1.00667
1032.92	0.695
1034.57	0.643872
1036.22	0.874914
1037.87	0.952275
1039.52	0.637566
1041.16	0.280434
1042.81	0.772726
1044.46	0.853317
1046.11	0.566473
1047.76	0.976502
1049.4	0.345656
1051.05	0.562994
1052.7	0.585661
1054.34	0.804272
1055.99	0.392684
1057.63	0.524132
1059.28	0.524717
1060.92	-0.149377
1062.57	0.284745
1064.21	0.870197
1065.85	0.541432
1067.5	0.407374
1069.14	0.446278
1070.78	0.636533
1072.43	0.34892
1074.07	0.365736
1075.71	0.0147285
1077.35	-0.00961018
1078.99	0.400881
1080.63	1.05059
1082.27	0.616095
1083.91	0.874662
1085.55	0.286191
1087.19	0.302921
1088.83	0.642512
1090.47	0.179356
1092.11	-0.0247364
1093.75	-0.250521
1095.39	0.495144
1097.03	0.809067
1098.66	0.305259
1100.3	0.0835915
1101.94	0.358819
1103.57	0.033165
1105.21	0.891891
1106.84	0.783164
1108.48	0.760216
1110.11	0.585741
1111.75	0.8827
1113.38	0.146684
1115.02	0.0758362
1116.65	0.862622
1118.29	0.104847
1119.92	0.334199
1121.55	0.0288963
1123.19	0.0244999
1124.82	0.513106
1126.45	0.125274
1128.08	0.401271
1129.71	0.164689
1131.34	0.313526
1132.97	0.163343
1134.6	0.48334
1136.23	-0.00947666
1137.86	-0.139802
1139.49	0.00654984
1141.12	0.0664473
1142.75	0.339176
1144.38	-0.113427
1146.01	0.373013
1147.64	0.348506
1149.26	0.239619
1150.89	-0.358644
1152.52	-0.147386
1154.15	-0.27717
1155.77	0.209963
1157.4	0.100925
1159.02	0.524004
1160.65	0.692491
1162.27	0.266658
1163.9	0.607261
1165.52	0.289254
1167.15	0.693938
1168.77	0.353475
1170.39	0.09657
1172.02	0.156722
1173.64	-0.0184021
1175.26	0.102566
1176.89	0.434816
1178.51	-0.271234
1180.13	-0.0865936
1181.75	-0.112934
1183.37	0.178504
1184.99	-0.248742
1186.61	-0.0427876
1188.23	-0.0706902
1189.85	-0.142492
1191.47	-0.0264025
1193.09	0.1931
1194.71	0.411212
1196.33	0.356139
1197.94	0.490508
1199.56	0.228823
1201.18	0.6385
1202.8	0.402829
1204.41	0.587324
1206.03	0.398226
1207.65	0.62774
1209.26	0.377739
1210.88	0.544207
1212.49	0.625585
1214.11	0.121293
1215.72	0.469273
1217.34	0.835716
1218.95	0.971796
1220.57	0.339338
1222.18	0.268729
1223.79	0.821026
1225.41	0.73205
1227.02	0.686065
1228.63	1.11721
1230.24	1.3632
1231.85	1.07284
1233.47	1.13516
1235.08	0.909379
1236.69	1.28419
1238.3	0.895242
1239.91	0.920377
1241.52	1.71102
1243.13	0.805286
1244.74	1.3055
1246.34	0.728765
1247.95	0.97873
1249.56	0.752031
1251.17	1.47668
1252.78	0.980951
1254.38	1.37539
1255.99	1.27449
1257.6	1.44375
1259.2	1.05557
1260.81	1.01995
1262.42	0.674191
1264.02	1.21897
1265.63	1.2457
1267.23	0.629146
1268.84	1.00657
1270.44	1.15502
1272.04	1.2817
1273.65	0.806103
1275.25	1.221
1276.85	1.71765
1278.46	1.59168
1280.06	1.44445
1281.66	1.21425
1283.26	1.00502
1284.86	1.33416
1286.46	1.35386
1288.07	0.547857
1289.67	1.08628
1291.27	1.29448
1292.87	1.46126
1294.47	1.5653
1296.06	1.6267
1297.66	1.72771
1299.26	1.2492
1300.86	1.59447
1302.46	1.44353
1304.06	1.72405
1305.65	1.2837
1307.25	1.43933
1308.85	1.32762
1310.44	1.27761
1312.04	1.8013
1313.64	2.07929
1315.23	1.60174
1316.83	0.819726
1318.42	1.59006
1320.02	1.54368
1321.61	1.78165
1323.2	1.12224
1324.8	1.76341
1326.39	1.52865
1327.99	1.55744
1329.58	1.36394
1331.17	1.29381
1332.76	1.69077
1334.36	1.78653
1335.95	1.33906
1337.54	1.59859
1339.13	1.45409
1340.72	1.7714
1342.31	1.44204
1343.9	0.930435
1345.49	1.56326
1347.08	0.91127
1348.67	1.32399
1350.26	1.41815
1351.85	1.07476
1353.43	0.813742
1355.02	1.27375
1356.61	1.3143
1358.2	0.99485
1359.78	1.47346
1361.37	1.3917
1362.96	1.28922
1364.54	1.00706
1366.13	0.805151
1367.71	1.1419
1369.3	0.942082
1370.88	0.703978
1372.47	1.20354
1374.05	0.430712
1375.64	0.733043
1377.22	0.756934
1378.8	0.760474
1380.39	0.962038
1381.97	0.863883
1383.55	1.02303
1385.13	1.00217
1386.72	0.802047
1388.3	0.900121
1389.88	0.502504
1391.46	0.7807
1393.04	0.722271
1394.62	0.584934
1396.2	0.844094
1397.78	0.6267
1399.36	0.467964
1400.94	1.14029
1402.52	0.960162
1404.1	0.661482
1405.68	0.759075
1407.25	0.205157
1408.83	0.660136
1410.41	0.503014
1411.98	0.760655
1413.56	1.0768
1415.14	1.05639
1416.71	0.542124
1418.29	0.757292
1419.87	0.480038
1421.44	0.676605
1423.02	1.34696
1424.59	1.27079
1426.16	0.959757
1427.74	1.535
1429.31	1.08652
1430.89	1.01116
1432.46	1.48569
1434.03	1.72293
1435.6	2.0579
1437.18	1.82268
1438.75	2.3353
1440.32	1.86613
1441.89	2.32176
1443.46	2.03133
1445.03	2.15406
1446.6	2.08045
1448.17	2.28219
1449.74	2.22871
1451.31	2.37234
1452.88	1.84796
1454.45	2.60238
1456.02	1.86178
1457.59	2.14358
1459.16	2.08957
1460.72	1.83697
1462.29	1.28743
1463.86	1.34626
1465.43	1.5022
1466.99	1.1665
1468.56	0.949295
1470.13	0.850903
1471.69	0.949846
1473.26	0.834036
1474.82	0.268027
1476.38	0.741754
1477.95	0.784184
1479.51	0.591331
1481.08	0.41804
1482.64	0.499483
1484.2	0.267294
1485.77	0.0348835
1487.33	0.0761089
1488.89	0.253201
1490.46	0.0958309
1492.02	0.425508
1493.58	-0.145914
1495.14	-0.112902
1496.7	0.113891
1498.26	0.223108
1499.82	0.0993252
1501.38	0.481544
1502.94	-0.280141
1504.5	0.0842409
1506.06	0.0417099
1507.62	-0.117308
1509.18	0.30267
1510.73	0.296134
1512.29	0.635679
1513.85	0.0116444
1515.41	0.235131
1516.96	0.305032
1518.52	-0.238161
1520.08	-0.0708151
1521.63	-0.343735
1523.19	0.243827
1524.75	0.218412
1526.3	0.0968113
1527.85	-0.00626564
1529.41	0.0615568
1530.96	0.053216
1532.52	0.0832644
1534.07	0.170862
1535.62	0.448355
1537.18	-0.143024
1538.73	0.343374
1540.28	0.584036
1541.84	0.353385
1543.39	0.386592
1544.94	0.851993
1546.49	0.452259
1548.04	0.69115
1549.59	0.535889
1551.14	0.793075
1552.69	0.732228
1554.25	0.821907
1555.79	-0.0397301
1557.34	0.818583
1558.89	0.83832
1560.44	0.710654
1561.99	0.994965
1563.54	1.09384
1565.08	0.93212
1566.63	0.845124
1568.18	0.757894
1569.73	0.520967
1571.27	0.638325
1572.82	0.998102
1574.37	1.26443
1575.91	0.728067
1577.46	0.957281
1579	0.813519
1580.55	1.11845
1582.09	1.16277
1583.64	1.30136
1585.18	1.01095
1586.73	0.627327
1588.27	1.08521
1589.81	0.907096
1591.35	1.43975
1592.9	1.14842
1594.44	1.66202
1595.98	1.52021
1597.52	1.60362
1599.06	1.25652
1600.61	1.36002
1602.15	1.65177
1603.69	1.62461
1605.23	1.03317
1606.77	1.21052
1608.31	1.42368
1609.85	1.08958
1611.39	0.978853
1612.93	1.14804
1614.46	1.14686
1616	1.16399
1617.54	0.787892
1619.08	1.25635
1620.61	1.07037
1622.15	0.623695
1623.69	1.2638
1625.23	1.19249
1626.76	1.06436
1628.3	1.58989
1629.83	1.21602
1631.37	1.30875
1632.9	0.784579
1634.44	1.11998
1635.97	1.41847
1637.51	1.88545
1639.04	1.36463
1640.57	1.7761
1642.11	1.53464
1643.64	2.01852
1645.17	1.86792
1646.71	2.10709
1648.24	2.04826
1649.77	1.52568
1651.3	2.13671
1652.83	1.80243
1654.36	2.11852
1655.89	1.97171
1657.42	1.9176
1658.96	2.10357
1660.48	2.04739
1662.01	2.02679
1663.54	1.48744
1665.07	1.29931
1666.6	1.40708
1668.13	1.82925
1669.66	1.95748
1671.19	1.60807
1672.71	1.55473
1674.24	1.79656
1675.77	1.85396
1677.29	1.43204
1678.82	1.94761
1680.35	0.788451
1681.87	1.3204
1683.4	1.08011
1684.92	0.98699
1686.45	1.00435
1687.97	0.80218
1689.5	1.15018
1691.02	0.930464
1692.54	0.399946
1694.07	0.61986
1695.59	0.601735
1697.11	0.400681
1698.64	0.802182
1700.16	0.491045
1701.68	0.362221
1703.2	0.160164
1704.72	0.577077
1706.25	0.356063
1707.77	0.316953
1709.29	0.423145
1710.81	0.492929
1712.33	-0.307614
1713.85	0.306514
1715.37	0.177478
1716.89	0.573164
1718.41	0.335511
1719.92	0.332952
1721.44	0.312505
1722.96	0.27456
1724.48	0.273606
1725.99	0.4539
1727.51	0.635262
1729.03	0.0976362
1730.55	0.496095
1732.06	-0.423338
1733.58	0.148685
1735.09	0.395581
1736.61	0.611053
1738.13	0.277817
1739.64	0.0457306
1741.15	0.331463
1742.67	-0.125938
1744.18	0.250915
1745.7	0.226896
1747.21	0.0665588
1748.72	0.369511
1750.24	0.140005
1751.75	0.119971
1753.26	0.407472
1754.77	-0.0305347
1756.29	0.116342
1757.8	0.291526
1759.31	-0.0991364
1760.82	0.0743885
1762.33	0.0821142
1763.84	-0.0884409
1765.35	-0.0474176
1766.86	0.0292253
1768.37	0.242634
1769.88	0.0121412
1771.39	0.0777245
1772.9	-0.191147
1774.4	-0.0660648
1775.91	0.115918
1777.42	0.0274487
1778.93	0.285993
1780.44	0.033412
1781.94	0.4266
1783.45	0.0090065
1784.96	-0.176404
1786.46	-0.10974
1787.97	-0.137946
1789.47	-0.194459
1790.98	-0.102087
1792.48	-0.523473
1793.99	0.119104
1795.49	-0.0309048
1797	-0.112543
1798.5	-0.137208
1800.01	0.0872707
1801.51	-0.0210619
1803.01	0.278058
1804.51	0.0600882
1806.02	0.204258
1807.52	0.268147
1809.02	0.17745
1810.52	0.0454197
1812.02	-0.00149345
1813.52	-0.182539
1815.02	0.000418663
1816.53	0.00182152
1818.03	0.241513
1819.52	0.0402021
1821.02	0.180581
1822.52	-0.214432
1824.02	-0.120609
1825.52	0.135243
1827.02	-0.0798922
1828.52	0.0590439
1830.02	0.0438442
1831.51	-0.331033
1833.01	0.0677795
1834.51	0.00706005
1836.01	-0.313015
1837.5	-0.0562487
1839	0.068078
1840.49	0.232102
1841.99	0.104653
1843.49	0.356959
1844.98	0.385398
1846.48	0.371422
1847.97	0.129411
1849.47	0.185254
1850.96	0.370029
1852.45	0.0343103
1853.95	0.130095
1855.44	0.0172281
1856.93	0.223116
1858.42	-0.0340748
1859.92	0.210316
1861.41	0.025219
1862.9	0.190146
1864.39	-0.104241
1865.88	0.170641
1867.38	-0.0707159
1868.87	0.202556
1870.36	-0.24911
1871.85	0.168454
1873.34	0.174758
1874.83	0.309025
1876.32	-0.124664
1877.81	-0.0585413
1879.29	-0.0651884
1880.78	0.0728989
1882.27	0.244356
1882.53	0.276536
1884.03	-0.280319
1885.52	0.364876
1887.01	0.0158567
1888.51	0.101909
1890	0.188053
1891.5	0.0663815
1892.99	0.120188
1894.48	0.0192556
1895.97	0.0414934
1897.47	0.0297527
1898.96	-0.17346
1900.45	-0.342885
1901.94	0.582127
1903.43	-0.00797081
1904.92	0.0615435
1906.41	0.321355
1907.9	-0.0963726
1909.39	0.250591
1910.88	0.164404
1912.37	0.582192
1913.86	-0.126969
1915.35	0.273999
1916.84	0.223727
1918.33	0.138292
1919.81	0.3297
1921.3	0.122512
1922.79	-0.0148954
1924.28	0.177525
1925.76	0.163245
1927.25	-0.17895
1928.73	0.154648
1930.22	-0.0138969
1931.71	0.301654
1933.19	0.425298
1934.68	-0.00676632
1936.16	0.42499
1937.65	0.128903
1939.13	0.385666
1940.62	0.0207615
1942.1	-0.222106
1943.58	0.226226
1945.07	-0.325124
1946.55	0.606763
1948.03	0.0902281
1949.51	0.314094
1951	0.295735
1952.48	0.156049
1953.96	0.153553
1955.44	0.2369
1956.92	0.457884
1958.4	0.456156
1959.88	-0.402564
1961.36	0.231767
1962.84	0.454395
1964.32	0.265464
1965.8	0.675572
1967.28	0.160345
1968.76	0.363476
1970.24	-0.135038
1971.72	0.135513
1973.2	0.269074
1974.67	0.402529
1976.15	0.12691
1977.63	0.141376
1979.1	0.377189
1980.58	0.0683393
1982.06	0.201687
1983.54	-0.039134
1985.01	0.161385
1986.49	0.0899916
1987.96	0.255939
1989.44	0.388067
1990.91	-0.00394821
1992.39	0.400303
1993.86	0.23033
1995.33	0.297861
1996.81	0.281288
1998.28	-0.00553131
1999.75	0.416485
2001.23	0.415692
2002.7	0.245749
2004.17	0.261271
2005.65	0.243391
2007.12	0.310448
2008.59	0.108939
2010.06	0.750101
2011.53	0.432086
2013	0.265672
2014.47	0.418631
2015.94	0.570765
2017.41	0.503266
2018.88	0.334137
2020.35	0.26545
2021.82	-0.256731
2023.29	0.346502
2024.76	0.312372
2026.23	0.145199
2027.69	0.348412
2029.16	0.267898
2030.63	0.272498
2032.1	0.328359
2033.56	0.267186
2035.03	0.340299
2036.5	0.362677
2037.96	0.149304
2039.43	0.338814
2040.89	0.427472
2042.36	0.314758
2043.83	0.404514
2045.29	0.865405
2046.75	0.0647783
2048.22	-0.0626192
2049.68	0.33201
2051.15	0.45625
2052.61	-0.0280581
2054.07	-0.210595
2055.54	0.161781
2057	0.650694
2058.46	0.397038
2059.92	0.177112
2061.39	0.563878
2062.85	0.698689
2064.31	0.581976
2065.77	0.685031
2067.23	0.418657
2068.69	0.287448
2070.15	0.425826
2071.61	0.732637
2073.07	0.113308
2074.53	0.032444
2075.99	0.40593
2077.45	0.12231
2078.91	0.781342
2080.37	0.766299
2081.82	0.0604134
2083.28	0.431439
2084.74	0.111627
2086.2	0.0268373
2087.65	0.277822
2089.11	0.292892
2090.57	0.845249
2092.02	0.624681
2093.48	0.488142
2094.94	0.167023
2096.39	0.465924
2097.85	0.462324
2099.3	0.658949
2100.76	-0.265457
2102.21	0.532856
2103.66	0.562666
2105.12	0.877384
2106.57	0.692681
2108.03	0.459071
2109.48	0.542702
2110.93	0.542414
2112.38	0.807458
2113.84	0.854067
2115.29	0.699353
2116.74	0.57727
2118.19	0.987203
2119.64	0.501513
2121.09	0.449543
2122.54	0.8472
2123.99	0.284306
2125.45	0.66724
2126.89	0.618773
2128.34	0.751697
2129.79	0.750646
2131.24	0.665527
2132.69	0.811467
2134.14	0.874478
2135.59	0.855501
2137.04	0.672656
2138.48	0.871729
2139.93	0.808155
2141.38	0.845295
2142.83	0.53631
2144.27	0.773602
2145.72	0.829152
2147.17	0.751993
2148.61	0.740418
2150.06	1.0759
2151.5	1.07915
2152.95	0.932303
2154.39	0.387017
2155.84	0.719422
2157.28	0.803341
2158.73	1.28546
2160.17	1.35474
2161.61	0.895492
2163.06	1.06763
2164.5	0.760282
2165.94	0.785334
2167.38	0.86016
2168.83	0.950717
2170.27	1.20599
2171.71	0.910386
2173.15	0.912319
2174.59	1.49511
2176.03	1.39527
2177.47	1.41204
2178.91	1.03054
2180.36	1.28176
2181.8	0.785623
2183.23	1.62027
2184.67	1.22464
2186.11	0.779017
2187.55	0.433059
2188.99	0.935756
2190.43	1.12235
2191.87	0.875875
2193.3	0.861719
2194.74	0.962852
2196.18	0.745957
2197.62	0.760276
2199.05	0.789583
2200.49	0.817868
2201.93	0.63012
2203.36	0.907769
2204.8	0.622341
2206.23	0.885063
2207.67	1.04865
2209.1	1.09598
2210.54	0.74527
2211.97	0.857141
2213.41	0.819367
2214.84	0.170382
2216.27	0.546185
2217.71	0.972071
2219.14	1.18436
2220.57	0.540071
2222.01	0.522551
2223.44	0.998619
2224.87	0.534319
2226.3	0.661352
2227.73	0.655081
2229.16	0.237012
2230.6	0.393289
2232.03	0.59816
2233.46	0.590028
2234.89	0.746121
2236.32	0.559945
2237.75	0.669392
2239.18	0.454148
2240.61	0.583467
2242.03	0.632865
2243.46	0.504003
2244.89	0.522249
2246.32	0.393069
2247.75	0.719072
2249.17	0.423352
2250.6	0.598302
2252.03	0.70621
2253.46	0.422823
2254.88	0.416411
2256.31	0.0866485
2257.73	0.473342
2259.16	0.667734
2260.59	0.361901
2262.01	0.561329
2263.44	0.58379
2264.86	0.655298
2266.29	0.661488
2267.71	0.731985
2269.14	0.524976
2270.56	0.170549
2271.98	0.548194
2273.4	0.241804
2274.83	0.293724
2276.25	0.28066
2277.67	0.821878
2279.09	0.36898
2280.52	0.535436
2281.94	0.86495
2283.36	0.32984
2284.78	0.0229611
2286.2	0.891364
2287.62	0.55234
2289.04	0.556509
2290.46	0.544708
2291.88	0.467761
2293.3	0.538038
2294.72	0.232028
2296.14	0.400352
2297.56	-0.200896
2298.98	0.524364
2300.4	0.463714
2301.82	0.436052
2303.23	0.392212
2304.65	0.315633
2306.07	0.715167
2307.49	0.293191
2308.9	0.544281
2310.32	0.449673
2311.73	0.453305
2313.15	-0.00381804
2314.57	0.148119
2315.98	0.399632
2317.4	0.652101
2318.81	0.344782
2320.23	0.795599
2321.64	0.305224
2323.06	0.737006
2324.47	0.753997
2325.88	0.917245
2327.3	0.979743
2328.71	0.579946
2330.12	0.641964
2331.54	0.210856
2332.95	-0.0707741
2334.36	0.306668
2335.77	0.355144
2337.18	0.288036
2338.6	0.137856
2340.01	0.348241
2341.42	0.0976839
2342.83	-0.0381541
2344.24	0.236137
2345.65	0.0350318
2347.06	0.178379
2348.47	0.485256
2349.88	0.0879579
2351.29	0.246263
2352.7	0.0440741
2354.1	0.281938
2355.51	0.567561
2356.92	0.119546
2358.33	0.42062
2359.74	0.249989
2361.14	0.0797906
2362.55	0.234181
2363.96	0.0156293
2365.36	0.169588
2366.77	-0.0160084
2368.18	0.23522
2369.58	0.14818
2370.99	0.223689
2372.39	0.477532
2373.8	0.0235424
2375.2	-0.107787
2376.61	0.146785
2378.01	0.110654
2379.42	0.0892138
2380.82	0.419416
2382.22	0.0580873
2383.63	0.209258
2385.03	0.279835
2386.43	0.142923
2387.84	-0.168417
2389.24	0.319117
2390.64	0.201602
2392.04	-0.0738645
2393.44	0.113339
2394.84	0.34882
2396.25	0.441679
2397.65	0.185431
2399.05	0.565415
2400.45	0.119637
2401.85	0.0396152
2403.25	-0.103873
2404.65	0.244567
2406.05	0.385669
2407.45	-0.0613055
2408.84	-0.064538
2410.24	0.375749
2411.64	0.102854
2413.04	0.337714
2414.44	0.51029
2415.83	0.0984817
2417.23	0.162858
2418.63	0.196422
2420.02	0.198658
2421.42	0.248303
2422.82	0.519425
2424.21	0.172409
2425.61	-0.142942
2427	0.54057
2428.4	0.337427
2429.8	0.087471
2431.19	0.61543
2432.58	0.159786
2433.98	0.116173
2435.37	0.135027
2436.77	-0.149368
2438.16	0.375123
2439.55	0.135782
2440.95	0.245066
2442.34	0.496628
2443.73	0.6049
2445.12	0.0150142
2446.51	0.313326
2447.91	0.357681
2449.3	0.0693393
2450.69	0.224787
2452.08	0.507228
2453.47	0.268076
2454.86	0.441168
2456.25	0.393421
2457.64	0.0770793
2459.03	0.298401
2460.42	0.266095
2461.81	-0.367766
2463.2	-0.116863
2464.59	-0.0246634
2465.98	-0.0117826
2467.36	-0.0463586
2468.75	-0.0336256
2470.14	0.278554
2471.53	0.227454
2472.92	0.396301
2474.3	0.26509
2475.69	0.275018
2477.08	-0.0454874
2478.46	0.137014
2479.85	0.0683045
2481.23	0.376167
2482.62	0.0254521
2484	0.285377
2485.39	0.199935
2486.77	-0.24573
2488.16	0.229267
2489.54	0.125771
2490.93	-0.226624
2492.31	0.417183
2493.69	-0.0574441
2495.08	-0.281668
2496.46	0.379106
2497.84	0.187819
2499.23	0.322093
2500.61	0.22385
2501.99	0.0941114
2503.37	-0.0517645
2504.75	0.187436
2506.13	-0.252404
2507.52	0.231938
2508.9	-0.00723124
2510.28	-0.0919194
2511.66	0.100307
2513.04	0.047648
2514.42	-0.00411892
2515.8	-0.0396905
2517.18	-0.16629
2518.55	-0.0782099
2519.93	-0.0664649
2521.31	-0.177156
2522.69	0.108533
2524.07	0.454065
2525.45	0.188779
2526.82	0.471858
2528.2	-0.294998
2529.58	0.506411
2530.95	0.183793
2532.33	0.151702
2533.71	0.0601439
2535.08	0.273127
2536.46	0.486064
2537.84	0.060318
2539.21	-0.381365
2540.59	-0.504706
2541.96	0.0547042
2543.34	0.0526185
2544.71	-0.039681
2546.08	0.0663724
2547.46	0.00671434
2548.83	-0.143185
2550.2	-0.18685
2551.58	-0.0640168
2552.95	-0.184819
2554.32	0.0576558
2555.7	0.299222
2557.07	0.0851202
2558.44	0.0833087
2559.81	0.187869
2561.18	0.36868
2562.55	-0.0409679
2563.93	-0.343922
2565.3	0.141535
2566.67	0.112002
2568.04	0.0219421
2569.41	0.250167
2570.78	0.099504
2572.15	0.16108
2573.51	0.0256906
2574.88	0.163256
2576.25	-0.153949
2577.62	-0.304478
2578.99	0.287771
2580.36	0.16706
2581.73	0.455364
2583.09	-0.0299525
2584.46	0.257762
2585.83	-0.182217
2587.19	-0.106658
2588.56	-0.137016
2589.93	-0.0308676
2591.29	0.241852
2592.66	0.226201
2594.02	0.118905
2595.39	-0.216434
2596.75	-0.189159
2598.12	0.351721
2599.48	0.0449672
2600.85	0.176878
2602.21	-0.294953
2603.58	-0.176999
2604.94	0.137551
2606.3	0.059875
2607.67	-0.0331197
2609.03	0.400693
2610.39	0.260501
2611.76	-0.136615
2613.12	-0.248418
2614.48	0.0899353
2615.84	-0.0678205
2617.2	-0.0601406
2618.56	-0.141753
2619.92	0.106702
2621.28	0.16109
2622.65	0.200969
2624.01	0.151438
2625.37	0.116858
2626.72	-0.0222859
2628.08	-0.131729
2629.44	-0.0923781
2630.8	0.274036
2632.16	-0.252174
2633.52	0.0839572
2634.88	0.182061
2636.24	0.191011
2637.59	-0.0815949
2638.95	-0.0279675
2640.31	-0.107421
2641.67	-0.363897
2643.02	0.325731
2644.38	-0.31407
2645.74	-0.0826497
2647.09	-0.235198
2648.45	-0.167184
2649.8	0.194288
2651.16	0.0692925
2652.51	0.0176988
2653.87	0.40656
2655.22	0.194469
2656.58	0.115621
2657.93	0.257548
2659.29	0.18076
2660.64	-0.348808
2661.99	0.568835
2663.35	0.126572
2664.7	0.253347
2666.05	-0.233348
2667.41	-0.0347576
2668.76	0.279927
2670.11	0.259744
2671.46	0.240116
2672.81	-0.0258651
2674.16	-0.116663
2675.51	-0.0761809
2676.87	0.211451
2678.22	-0.0661216
2679.57	0.208258
2680.92	0.135605
2682.27	0.0496182
2683.62	-0.0352483
2684.97	-0.336819
2686.31	0.101865
2687.66	0.134295
2689.01	0.426954
2690.36	0.355096
2691.71	0.00573063
2693.06	0.0614033
2694.4	-0.0433764
2695.75	0.0836825
2697.1	0.124301
2698.45	-0.0366092
2699.79	-0.253789
2701.14	0.0953832
2702.49	-0.162249
2703.83	0.218518
2705.18	0.208701
2706.52	-0.163668
2707.87	0.17443
2709.21	0.0624342
2710.56	0.269497
2711.9	0.41835
2713.25	-0.217506
2714.59	0.163699
2715.94	0.0507326
2717.28	0.286649
2718.62	0.435173
2719.97	-0.0713682
2721.31	0.0764036
2722.65	0.398433
2723.99	0.123287
2725.34	0.284405
2726.68	0.386946
2728.02	0.139893
2729.36	0.0673041
2730.7	0.343823
2732.04	0.198353
2733.39	0.169393
2734.73	0.576991
2736.07	0.606585
2737.41	0.519979
2738.75	0.0116291
2740.08	0.23023
2741.43	0.47743
2742.76	0.316893
2744.1	-0.0331478
2745.44	0.197579
2746.78	0.268001
2748.12	0.39626
2749.46	0.132731
2750.79	0.406236
2752.13	0.37535
2753.47	0.402702
2754.81	-0.163787
2756.14	0.124757
2757.48	0.239548
2758.81	-0.195543
2760.15	0.513303
2761.49	0.68698
2762.82	0.108694
2764.16	0.109562
2765.49	0.0814986
2766.83	-0.0337744
2768.16	0.0526457
2769.5	0.282415
2770.83	0.178215
2772.16	-0.0137811
2773.5	0.284155
2774.83	0.0188336
2776.17	-0.0155864
2777.5	0.22385
2778.83	0.190223
2780.16	-0.0152826
2781.5	0.0813804
2782.83	0.0345097
2784.16	0.245813
2785.49	0.0555348
2786.82	-0.105656
2788.15	0.335039
2789.49	0.103587
2790.82	0.216456
2792.15	0.101245
2793.48	0.100904
2794.81	0.214954
2796.14	0.100033
2797.46	-0.143875
2798.79	0.240128
2800.12	0.0810852
2801.45	-0.320553
2802.78	0.261838
2804.11	-0.182638
2805.44	0.127831
2806.76	0.0957661
2808.09	-0.192847
2809.42	-0.0124059
2810.75	0.352408
2812.07	0.248992
2813.4	0.203544
2814.73	0.216249
2816.05	0.00354767
2817.38	-0.208039
2818.7	0.232917
2820.03	0.30538
2821.36	0.122312
2822.68	0.363791
2824.01	0.0945487
2825.33	0.00925541
2826.65	0.363046
2827.98	0.207497
2829.3	-0.117344
2830.63	0.322727
2831.95	0.451553
2833.27	0.792649
2834.6	0.652166
2835.92	0.695218
2837.24	1.00657
2838.56	0.921277
2839.88	1.00553
2841.21	1.04745
2842.53	1.3866
2843.85	1.69805
2845.17	2.02435
2846.49	1.92734
2847.81	2.14164
2849.13	2.21465
2850.45	2.62658
2851.77	2.57155
2853.09	2.45945
2854.41	2.74261
2855.73	2.68642
2857.05	3.26592
2858.37	3.0826
2859.69	3.30887
2861	3.3372
2862.32	3.47809
2863.64	3.57617
2864.96	3.8291
2866.28	4.1242
2867.59	4.50408
2868.91	4.46132
2870.23	4.68693
2871.54	4.79991
2872.86	4.88434
2874.17	5.08055
2875.49	4.68378
2876.81	5.06037
2878.12	5.0416
2879.44	5.12095
2880.75	4.91949
2882.07	5.09853
2883.38	4.95568
2884.69	4.99659
2886.01	5.29087
2887.32	5.38863
2888.63	5.19113
2889.95	5.091
2891.26	4.89179
2892.57	5.36475
2893.89	5.19269
2895.2	5.5953
2896.51	5.4107
2897.82	5.33942
2899.13	5.7171
2900.44	5.7319
2901.76	5.97107
2903.07	5.79083
2904.38	6.54791
2905.69	5.85064
2907	6.45485
2908.31	6.36069
2909.62	6.75722
2910.93	6.97267
2912.24	6.96422
2913.55	7.29081
2914.85	7.36367
2916.16	7.64433
2917.47	7.90887
2918.78	8.03206
2920.09	8.56054
2921.4	8.48834
2922.7	8.83715
2924.01	8.76837
2925.32	8.53335
2926.62	8.97008
2927.93	9.08537
2929.24	8.85063
2930.54	9.11842
2931.85	9.79093
2933.15	9.21893
2934.46	9.73716
2935.76	9.33304
2937.07	9.3065
2938.37	8.5675
2939.68	8.9887
2940.98	7.70576
2942.29	8.26837
2943.59	8.14776
2944.89	7.4416
2946.2	7.77134
2947.5	7.13665
2948.8	6.71109
2950.11	7.01191
2951.41	6.21846
2952.71	6.08084
2954.01	6.34761
2955.32	6.57183
2956.62	6.40509
2957.92	5.97479
2959.22	5.57543
2960.52	6.34158
2961.82	5.65313
2963.12	5.35734
2964.42	5.35528
2965.72	5.77303
2967.02	5.48651
2968.32	5.25446
2969.62	4.93699
2970.92	4.91456
2972.22	4.86427
2973.51	4.77208
2974.81	4.49679
2976.11	4.60077
2977.41	4.39353
2978.71	4.29696
2980	3.76208
2981.3	4.18289
2982.6	3.68846
2983.9	3.98206
2985.19	3.67227
2986.49	3.35018
2987.78	3.53555
2989.08	3.24418
2990.38	2.91085
2991.67	2.91423
2992.97	2.69158
2994.26	2.07419
2995.56	2.36893
2996.85	2.35374
2998.14	2.60491
2999.44	2.49135
3000.73	2.23819
3002.03	1.74748
3003.32	1.78992
3004.61	1.88841
3005.91	1.52438
3007.2	0.907984
3008.49	1.20071
3009.78	0.779072
3011.07	1.3772
3012.37	1.27587
3013.66	0.951419
3014.95	0.418708
3016.24	1.08534
3017.53	0.874712
3018.82	0.734333
3020.11	0.677554
3021.4	0.884422
3022.69	0.604008
3023.98	1.0585
3025.27	1.01224
3026.56	0.536414
3027.85	0.698373
3029.14	0.460119
3030.43	0.555149
3031.71	0.513316
3033	0.6105
3034.29	0.611248
3035.58	0.749349
3036.87	1.01003
3038.15	0.800072
3039.44	0.382133
3040.73	0.843192
3042.01	0.656959
3043.3	0.70408
3044.59	0.560205
3045.87	0.609596
3047.16	0.619939
3048.44	0.769001
3049.73	0.865364
3051.01	1.09965
3052.3	0.693314
3053.58	1.17384
3054.87	1.06688
3056.15	0.958798
3057.43	0.876857
3058.72	0.943956
3060	0.928907
3061.29	1.11826
3062.57	0.791459
3063.85	0.846907
3065.13	1.18927
3066.42	0.97555
3067.7	0.681143
3068.98	1.06689
3070.26	0.432318
3071.54	0.517589
3072.82	0.655955
3074.11	0.575404
3075.39	-0.103944
3076.67	0.765102
3077.95	0.357667
3079.23	0.412821
3080.51	0.0351906
3081.79	0.2694
3083.07	0.0570178
3084.35	0.374302
3085.63	0.0673618
3086.9	0.112707
3088.18	0.211576
3089.46	-0.0160632
3090.74	-0.0813446
3092.02	0.0566478
3093.29	0.140347
3094.57	0.0885644
3095.85	-0.0715308
3097.13	0.25641
3098.4	0.163885
3099.68	0.0982432
3100.95	-0.116583
3102.23	0.0613651
3103.51	-0.00435162
3104.78	-0.110294
3106.06	-0.0532484
3107.33	-0.184951
3108.61	-0.0316348
3109.88	-0.324108
3111.16	0.250603
3112.43	0.0677767
3113.71	0.264501
3114.98	0.461235
3116.25	0.128633
3117.53	0.133986
3118.8	0.273788
3120.07	0.249612
3121.35	-0.128099
3122.62	0.184897
3123.89	0.023181
3125.16	0.051177
3126.44	-0.313076
3127.71	-0.0543504
3128.98	-0.038918
3130.25	0.138928
3131.52	-0.0348253
3132.79	-0.12769
3134.06	0.278744
3135.33	-0.0583539
3136.6	0.103394
3137.87	0.18336
3139.14	-0.101053
3140.41	0.112651
3141.68	0.352757
3142.95	0.243197
3144.22	-0.0404301
3145.49	-0.0280933
3146.76	0.225967
3148.02	0.105028
3149.29	-0.0689449
