200.43	-0.0122299
202.244	0.00714397
204.059	0.027442
205.873	0.291698
207.688	-0.0275297
209.501	0.0418148
211.314	0.474413
213.127	0.39557
214.941	0.412834
216.753	0.889969
218.564	0.276515
220.375	-0.238793
222.186	-0.220596
223.999	0.185127
225.809	0.107572
227.618	0.46492
229.428	-0.458168
231.236	-0.0535021
233.045	0.229839
234.855	-0.186094
236.663	0.146506
238.471	-0.459291
240.278	0.166227
242.085	-0.218801
243.891	-0.385933
245.698	1.23268
247.503	0.774816
249.309	0.314268
251.116	0.3097
252.921	0.350916
254.725	-0.0678301
256.529	-0.00437164
258.333	0.131957
260.136	0.630937
261.939	0.360565
263.742	-0.414266
265.544	-0.272822
267.346	-0.0346594
269.148	-0.254688
270.949	0.271894
272.75	0.267124
274.55	0.405764
276.351	-0.541824
278.15	0.0517979
279.95	0.54685
281.749	0.197061
283.548	-0.0576477
285.346	-0.0248337
287.144	-0.160788
288.942	0.470753
290.739	0.766338
292.536	0.344522
294.333	-0.0992546
296.129	-0.0392256
297.925	0.117255
299.721	0.680228
301.514	0.406716
303.309	0.586308
305.104	0.0487108
306.898	0.0594244
308.692	0.713522
310.486	-0.348054
312.279	0.0927019
314.072	0.582215
315.862	0.1208
317.654	0.518226
319.446	-0.202474
321.238	0.2451
323.029	0.336096
324.819	0.0457973
326.608	0.352136
328.398	0.156952
330.188	0.200028
331.977	0.146471
333.766	-0.339252
335.553	0.369534
337.341	0.167125
339.129	0.297896
340.917	0.188075
342.704	0.985974
344.489	0.373388
346.275	0.382738
348.062	0.130037
349.845	-0.0266132
351.631	0.556753
353.416	0.566698
355.201	0.170197
356.984	0.368961
358.768	0.399566
360.552	-0.118606
362.333	0.362624
364.116	0.224244
365.899	0.251781
367.68	0.0649757
369.462	-0.169617
371.243	-0.26232
373.023	-0.118799
374.804	0.449464
376.585	0.0958729
378.363	-0.209337
380.143	0.16999
381.923	0.220109
383.7	-0.0109882
385.479	-0.217186
387.256	0.000787735
389.034	0.196074
390.812	-0.12458
392.588	0.68279
394.365	0.0581369
396.14	-0.425296
397.916	-0.438944
399.691	0.416306
401.467	0.237801
403.24	-0.364016
405.015	0.654174
406.788	-0.20712
408.563	0.293118
410.335	-0.0990992
412.109	-0.350305
413.88	-0.178726
415.654	0.157658
417.424	0.3774
419.197	-0.270514
420.967	-0.143853
422.739	0.945115
424.508	0.0147705
426.279	0.116563
428.048	-0.181423
429.819	-0.0807066
431.587	0.418967
433.356	0.566827
435.124	-0.0125513
436.891	0.182569
438.66	0.306728
440.426	0.218468
442.194	0.363143
443.96	-0.24434
445.725	-0.12633
447.492	-0.0797138
449.257	0.0132065
451.021	0.0826845
452.787	0.152336
454.551	-0.0111618
456.314	0.291749
458.079	0.105021
459.842	-0.151161
461.604	0.105177
463.368	-0.055851
465.13	0.180224
466.891	0.465147
468.654	0.427172
470.415	-0.0277634
472.175	0.355047
473.935	0.0857964
475.696	0.11765
477.456	-0.0386429
479.215	0.129643
480.973	-0.122181
482.733	0.581051
484.491	-0.0888886
486.249	-0.105138
488.006	0.626208
489.765	0.427307
491.522	0.322397
493.278	0.0543489
495.034	0.931935
496.789	0.102303
498.544	0.723559
500.301	0.665501
502.056	0.231249
503.81	-0.0165148
505.564	0.674594
507.317	0.659852
509.071	0.0556526
510.825	0.390988
512.578	0.466233
514.33	0.0225558
516.082	0.377737
517.833	0.261379
519.585	0.520394
521.335	0.30862
523.086	0.284534
524.836	0.0960097
526.586	0.283022
528.335	0.61056
530.085	0.30496
531.835	0.0462151
533.584	0.302099
535.332	0.36956
537.08	0.225425
538.827	0.290527
540.574	0.401154
542.321	0.347809
544.068	-0.0779495
545.814	0.240868
547.56	0.721553
549.305	0.459534
551.05	0.45304
552.795	0.585528
554.54	-0.391187
556.282	0.573318
558.025	0.429351
559.769	-0.0134072
561.512	0.511912
563.255	0.415854
564.997	-0.0702915
566.739	0.409521
568.481	0.292553
570.223	-0.374153
571.964	0.245414
573.705	0.0173759
575.443	0.341369
577.183	0.0243926
578.923	-0.108054
580.663	0.0126586
582.402	-0.0961895
584.141	0.185278
585.879	-0.430775
587.615	0.0790386
589.353	0.887165
591.09	0.406158
592.828	0.26981
594.564	-0.0277114
596.299	0.249988
598.035	0.0675378
599.771	-0.437258
601.506	0.0695562
603.242	0.000243187
604.974	0.113736
606.709	-0.25646
608.443	-0.0757437
610.177	0.173499
611.908	-0.196481
613.642	0.374561
615.374	0.14355
617.105	0.439825
618.837	0.39195
620.569	0.57214
622.3	0.407942
624.03	0.403265
625.761	0.0330763
627.491	0.0523133
629.219	0.141561
630.949	0.734658
632.677	-0.381952
634.406	0.373526
636.135	0.467044
637.861	0.513524
639.59	0.0785122
641.318	0.30294
643.043	0.114846
644.77	0.267572
646.495	0.488496
648.222	0.278704
649.948	0.298906
651.672	0.435838
653.398	0.189628
655.121	0.582766
656.846	0.386518
658.569	0.327437
660.293	0.678643
662.015	0.709472
663.738	0.281357
665.46	0.239477
667.183	0.676241
668.903	0.357756
670.626	0.199806
672.346	0.684082
674.067	0.758721
675.787	0.583166
677.508	0.890173
679.226	0.141442
680.947	0.677874
682.665	0.385485
684.385	0.482317
686.102	0.738776
687.821	0.786748
689.538	1.29449
691.254	1.2488
692.972	1.22558
694.688	0.418613
696.406	0.440083
698.121	0.713807
699.835	0.894239
701.552	0.291574
703.266	0.631181
704.98	0.510405
706.695	0.894266
708.409	1.30012
710.121	1.10924
711.836	0.574963
713.548	0.704683
715.26	1.03968
716.973	1.0087
718.685	1.13755
720.396	1.26631
722.108	0.484106
723.818	0.886425
725.528	0.8333
727.238	0.757313
728.949	1.08958
730.658	0.944757
732.367	1.07168
734.075	1.08504
735.785	0.691566
737.493	1.11205
739.2	1.1488
740.907	1.20884
742.614	1.47254
744.322	1.4444
746.028	2.07013
747.734	1.03192
749.439	1.20992
751.144	1.05159
752.849	1.34419
754.555	1.07558
756.26	1.4832
757.963	1.41964
759.667	1.19952
761.37	1.56625
763.073	1.41502
764.775	1.55689
766.477	1.87874
768.179	1.92808
769.883	0.641429
771.584	1.34271
773.285	1.45489
774.986	1.72491
776.686	2.28926
778.386	2.08598
780.085	1.70305
781.785	2.06747
783.484	1.86649
785.182	1.86817
786.881	2.13948
788.579	1.6611
790.276	2.56006
791.974	2.43822
793.671	2.2925
795.367	1.83095
797.064	1.41608
798.76	1.61129
800.456	1.49264
802.151	1.91525
803.846	2.1132
805.541	1.70391
807.234	2.05825
808.928	2.05188
810.622	2.08935
812.315	2.23804
814.008	2.0723
815.701	2.10807
817.394	1.96478
819.086	1.75473
820.778	1.92478
822.468	2.69732
824.159	2.51063
825.85	1.94664
827.541	2.56554
829.231	2.13987
830.921	1.2937
832.609	1.71937
834.298	1.72365
835.987	2.2418
837.676	2.1132
839.364	1.73782
841.051	1.47246
842.738	1.74203
844.426	1.7431
846.113	2.25879
847.798	1.7701
849.484	2.20028
851.171	1.49127
852.857	1.43256
854.54	2.65346
856.226	2.03494
857.911	1.23433
859.593	1.28601
861.278	1.76411
862.961	0.979781
864.645	1.6586
866.327	1.07465
868.01	1.14377
869.692	1.23508
871.373	1.10057
873.055	1.75546
874.735	1.62072
876.416	1.86956
878.097	1.0351
879.776	1.32897
881.457	1.14851
883.135	1.14805
884.815	1.53046
886.495	1.18937
888.172	1.23073
889.851	1.60901
891.528	1.53486
893.206	1.41463
894.882	1.94614
896.56	1.0595
898.237	1.47627
899.912	1.37543
901.589	1.36374
903.263	1.70963
904.94	1.22757
906.614	1.3049
908.289	1.42711
909.962	1.17118
911.635	1.18346
913.31	1.46295
914.982	1.1427
916.656	1.53294
918.328	1.41264
920.001	1.35905
921.672	1.81481
923.345	1.14341
925.015	1.37997
926.685	1.57359
928.357	0.995942
930.026	1.03747
931.698	1.32221
933.366	1.40854
935.035	2.00229
936.705	1.44938
938.373	1.31626
940.041	1.14
941.71	1.6044
943.377	1.34143
945.044	1.69621
946.712	1.12304
948.378	0.901496
950.044	1.164
951.709	1.3371
953.376	1.79679
955.041	1.08886
956.706	1.48578
958.372	0.914931
960.036	1.49351
961.699	0.859292
963.362	0.931413
965.027	1.04654
966.69	1.29237
968.352	0.938564
970.014	1.13615
971.676	1.11173
973.339	0.556882
975	1.19736
976.661	1.08739
978.322	0.912215
979.982	0.770659
981.642	0.628717
983.303	1.75861
984.962	1.18237
986.621	1.88822
988.28	1.08762
989.938	0.905839
991.596	0.944699
993.254	0.51952
994.911	1.08823
996.57	0.906251
998.227	1.14338
999.884	1.358
1001.54	1.7702
1003.2	1.71931
1004.85	1.69018
1006.51	0.957747
1008.16	0.731512
1009.82	0.988599
1011.47	1.28953
1013.12	0.911034
1014.78	1.01517
1016.43	0.681654
1018.08	1.4429
1019.74	1.17614
1021.39	0.82298
1023.04	0.798755
1024.69	0.818995
1026.34	0.664866
1028	0.357835
1029.65	0.705786
1031.3	1.07446
1032.95	1.13593
1034.6	0.759614
1036.25	0.622491
1037.9	0.332412
1039.54	1.08753
1041.19	0.776178
1042.84	1.61833
1044.49	0.940156
1046.14	0.568134
1047.78	0.414892
1049.43	1.02302
1051.08	1.3716
1052.72	1.11268
1054.37	1.44065
1056.02	0.877632
1057.66	1.00978
1059.31	0.90239
1060.95	0.446541
1062.6	0.533649
1064.24	0.446083
1065.88	0.792515
1067.53	0.529372
1069.17	1.00429
1070.81	1.19596
1072.45	0.562483
1074.1	0.42893
1075.74	0.860195
1077.38	0.489876
1079.02	0.944629
1080.66	1.26984
1082.3	0.44577
1083.94	0.878682
1085.58	1.09337
1087.22	1.30623
1088.86	0.69427
1090.5	0.601036
1092.14	0.70155
1093.78	0.434328
1095.42	0.383463
1097.05	0.50575
1098.69	0.391914
1100.33	1.29133
1101.96	0.254782
1103.6	1.00581
1105.24	0.445527
1106.87	0.810638
1108.51	0.27222
1110.14	0.657681
1111.78	0.396894
1113.41	0.500268
1115.05	0.323447
1116.68	0.275098
1118.31	0.37693
1119.95	0.586245
1121.58	1.41703
1123.21	0.343041
1124.85	0.982265
1126.48	0.766218
1128.11	1.0855
1129.74	0.635511
1131.37	0.464008
1133	0.613419
1134.63	0.548938
1136.26	0.334366
1137.89	0.418214
1139.52	0.394276
1141.15	0.43361
1142.78	0.216419
1144.41	0.170147
1146.04	0.294956
1147.66	0.569558
1149.29	0.0563712
1150.92	0.587502
1152.55	0.351764
1154.17	0.605522
1155.8	0.518278
1157.43	0.111832
1159.05	0.769359
1160.68	0.449027
1162.3	0.108393
1163.93	0.533968
1165.55	0.407125
1167.17	0.173772
1168.8	0.556177
1170.42	0.299493
1172.05	0.423895
1173.67	0.398152
1175.29	1.2413
1176.91	0.535161
1178.54	0.825825
1180.16	0.693259
1181.78	0.582727
1183.4	0.5997
1185.02	0.172955
1186.64	0.738477
1188.26	0.310218
1189.88	0.408153
1191.5	0.757006
1193.12	0.599143
1194.74	0.67196
1196.36	0.723609
1197.97	0.58739
1199.59	0.933878
1201.21	0.738307
1202.83	0.858378
1204.44	0.542154
1206.06	0.916372
1207.68	0.832574
1209.29	0.978487
1210.91	0.664873
1212.52	0.850447
1214.14	0.992373
1215.75	0.778278
1217.37	1.20793
1218.98	0.866962
1220.59	1.23237
1222.21	1.24504
1223.82	1.11367
1225.43	0.693891
1227.05	0.855265
1228.66	1.121
1230.27	1.22216
1231.88	0.766146
1233.49	1.57201
1235.1	1.3661
1236.72	1.05785
1238.33	0.957078
1239.94	1.04292
1241.55	0.963483
1243.16	1.17338
1244.76	1.44479
1246.37	1.26015
1247.98	0.971189
1249.59	1.67476
1251.2	1.30214
1252.8	1.07456
1254.41	1.65426
1256.02	1.57296
1257.62	0.934143
1259.23	1.1237
1260.84	1.7695
1262.44	1.19443
1264.05	0.826095
1265.66	0.933798
1267.26	1.41409
1268.86	1.52062
1270.47	1.46042
1272.07	1.08831
1273.67	0.508067
1275.28	1.44036
1276.88	1.19026
1278.48	1.6025
1280.09	0.812936
1281.69	1.2242
1283.29	1.7593
1284.89	1.1984
1286.49	1.17611
1288.09	1.38203
1289.69	1.34066
1291.29	1.05176
1292.89	1.71328
1294.49	1.34108
1296.09	1.91799
1297.69	2.16277
1299.29	1.91062
1300.89	1.80178
1302.49	1.83619
1304.08	1.62274
1305.68	2.23141
1307.28	1.5445
1308.88	1.57682
1310.47	2.08039
1312.07	1.49822
1313.66	1.77681
1315.26	1.76967
1316.85	1.25293
1318.45	1.36992
1320.04	1.67012
1321.64	1.72463
1323.23	1.53353
1324.83	1.86982
1326.42	1.79806
1328.01	1.88814
1329.61	1.75572
1331.2	1.48339
1332.79	2.00151
1334.38	1.10741
1335.97	1.78978
1337.56	2.06853
1339.16	1.62076
1340.75	2.38067
1342.34	1.48725
1343.93	1.7598
1345.52	1.52881
1347.11	1.29846
1348.7	1.25027
1350.29	1.76457
1351.87	0.700271
1353.46	1.87789
1355.05	1.65674
1356.64	1.77575
1358.22	1.65461
1359.81	0.993583
1361.4	0.891105
1362.98	1.02742
1364.57	1.22308
1366.16	1.21946
1367.74	1.11692
1369.33	1.29416
1370.91	1.85057
1372.5	1.69166
1374.08	1.37459
1375.67	1.1377
1377.25	1.55754
1378.83	1.06162
1380.41	1.28122
1382	1.10181
1383.58	1.2197
1385.16	1.03849
1386.74	0.658397
1388.33	1.23194
1389.91	1.48793
1391.49	0.553927
1393.07	1.26763
1394.65	1.22766
1396.23	1.52464
1397.81	1.38476
1399.39	1.16487
1400.97	1.39988
1402.55	1.15906
1404.13	1.25479
1405.7	1.13334
1407.28	1.19059
1408.86	1.32755
1410.44	0.497
1412.01	1.36512
1413.59	1.20573
1415.17	0.789193
1416.74	0.904831
1418.32	1.39449
1419.89	0.820138
1421.47	1.11356
1423.04	0.974998
1424.62	0.995298
1426.19	1.21346
1427.77	1.17622
1429.34	0.764784
1430.91	1.57293
1432.49	1.84858
1434.06	1.23795
1435.63	1.53196
1437.2	1.23613
1438.78	1.98284
1440.35	1.86541
1441.92	1.78817
1443.49	2.0653
1445.06	1.96939
1446.63	1.7557
1448.2	2.05319
1449.77	1.93815
1451.34	1.56788
1452.91	1.37493
1454.48	1.55597
1456.05	1.56
1457.62	1.62253
1459.18	1.86114
1460.75	1.72434
1462.32	1.64498
1463.89	1.62325
1465.45	1.20748
1467.02	1.08651
1468.59	1.73165
1470.15	1.17985
1471.72	1.00214
1473.28	0.923481
1474.85	1.23768
1476.41	1.10119
1477.98	1.02364
1479.54	0.671633
1481.1	0.398034
1482.67	0.359612
1484.23	0.30151
1485.79	0.713327
1487.36	0.830581
1488.92	0.711776
1490.48	0.572053
1492.04	0.430792
1493.61	0.971696
1495.17	0.514977
1496.73	0.818377
1498.29	0.420266
1499.85	0.742669
1501.41	-0.00254917
1502.97	0.631648
1504.53	0.199689
1506.09	0.0203891
1507.65	0.305107
1509.2	0.607785
1510.76	0.600116
1512.32	1.20845
1513.88	0.352149
1515.43	0.689936
1516.99	0.413012
1518.55	0.616758
1520.1	0.379974
1521.66	0.335224
1523.22	0.213863
1524.77	0.416744
1526.33	0.446725
1527.88	0.780561
1529.44	0.447494
1530.99	0.343199
1532.54	0.561924
1534.1	0.837576
1535.65	0.186604
1537.21	-0.140976
1538.76	0.495276
1540.31	0.187745
1541.86	0.728613
1543.42	0.402642
1544.97	0.453178
1546.52	0.165369
1548.07	0.515964
1549.62	0.88455
1551.17	0.971657
1552.72	1.48927
1554.27	1.09094
1555.82	0.601023
1557.37	0.971777
1558.92	0.634769
1560.47	0.971069
1562.02	1.17805
1563.56	0.71437
1565.11	0.88547
1566.66	0.515526
1568.21	1.07851
1569.75	1.51064
1571.3	1.06517
1572.85	1.06744
1574.39	0.752251
1575.94	0.754422
1577.49	1.57817
1579.03	1.69292
1580.57	1.65886
1582.12	1.49475
1583.66	1.06975
1585.21	1.50476
1586.75	1.02443
1588.3	1.21717
1589.84	1.03568
1591.38	1.58372
1592.92	0.952071
1594.47	1.01282
1596.01	1.65446
1597.55	1.64088
1599.09	2.05912
1600.63	2.08444
1602.17	1.99761
1603.71	1.5539
1605.25	1.29707
1606.79	0.944945
1608.33	0.741469
1609.87	1.32555
1611.41	1.45653
1612.95	1.30403
1614.49	1.24443
1616.03	1.01573
1617.57	1.46248
1619.1	1.29147
1620.64	1.25297
1622.18	1.10329
1623.72	0.710998
1625.25	1.21735
1626.79	0.749744
1628.32	0.692975
1629.86	1.53276
1631.39	1.00645
1632.93	0.947371
1634.46	1.13127
1636	0.755888
1637.53	0.829185
1639.07	1.07073
1640.6	1.16305
1642.13	1.29207
1643.67	1.12215
1645.2	1.50969
1646.73	0.910387
1648.26	1.27793
1649.8	0.809668
1651.33	1.38198
1652.86	1.36117
1654.39	1.65653
1655.92	1.30353
1657.45	1.35836
1658.98	1.39399
1660.51	1.50256
1662.04	1.79477
1663.57	1.34613
1665.1	1.74734
1666.63	1.64991
1668.16	1.46133
1669.68	0.795008
1671.21	0.996475
1672.74	1.2908
1674.27	1.21707
1675.79	1.23526
1677.32	1.17917
1678.85	0.975069
1680.37	0.788699
1681.9	0.987806
1683.42	0.341711
1684.95	1.07278
1686.47	0.959625
1688	0.608701
1689.52	0.350069
1691.05	0.677808
1692.57	0.309869
1694.09	0.545866
1695.62	0.525546
1697.14	0.797403
1698.66	0.831279
1700.18	0.189519
1701.71	0.150036
1703.23	0.60224
1704.75	0.252065
1706.27	0.411566
1707.79	0.425131
1709.31	0.456774
1710.83	0.633604
1712.35	0.356966
1713.87	0.733155
1715.39	0.0769176
1716.91	0.000529766
1718.43	0.665156
1719.95	0.0645733
1721.47	-0.101852
1722.99	0.669895
1724.5	0.270264
1726.02	0.520391
1727.54	0.645361
1729.06	0.159228
1730.57	0.465261
1732.09	0.447274
1733.61	0.251143
1735.12	-0.08425
1736.64	0.203878
1738.15	0.196487
1739.67	-0.0745063
1741.18	0.00274467
1742.7	0.187235
1744.21	0.132751
1745.72	-0.0154767
1747.24	-0.124531
1748.75	0.224392
1750.26	-0.21254
1751.77	0.0522733
1753.29	-0.306778
1754.8	0.29547
1756.31	0.0802603
1757.82	0.0799031
1759.33	-0.290995
1760.84	-0.00881243
1762.36	0.171968
1763.87	-0.271335
1765.38	-0.0690317
1766.89	-0.00196505
1768.4	0.326011
1769.91	0.45115
1771.41	0.152243
1772.92	-0.0450673
1774.43	0.210891
1775.94	0.0700674
1777.45	-0.316657
1778.95	0.0401897
1780.46	0.353324
1781.97	0.148777
1783.48	-0.0172024
1784.98	0.0737991
1786.49	-0.225969
1787.99	0.220724
1789.5	-0.0472579
1791.01	-0.0529475
1792.51	-0.280438
1794.01	-0.150446
1795.52	0.100823
1797.02	-0.049118
1798.53	-0.176829
1800.03	0.293015
1801.53	-0.00449562
1803.04	-0.0240293
1804.54	0.0564775
1806.04	-0.0837793
1807.54	0.142374
1809.05	0.244942
1810.55	-0.0562348
1812.05	-0.124043
1813.55	0.126646
1815.05	0.463015
1816.55	0.0433826
1818.05	-0.154063
1819.55	0.141768
1821.05	0.259722
1822.55	0.0509324
1824.05	0.144278
1825.55	-0.0358377
1827.05	-0.193318
1828.55	0.158651
1830.04	-0.256265
1831.54	0.143186
1833.04	-0.0651426
1834.54	0.249856
1836.03	0.217667
1837.53	0.119377
1839.03	0.143899
1840.52	0.120908
1842.02	0.191924
1843.51	0.0405192
1845.01	-0.0450974
1846.5	0.337881
1848	0.366608
1849.49	0.261986
1850.99	-0.00415611
1852.48	-0.15724
1853.97	0.180156
1855.47	0.502672
1856.96	0.387452
1858.45	0.406463
1859.94	0.0725722
1861.44	0.0746956
1862.93	0.396101
1864.42	0.316206
1865.91	0.278675
1867.4	0.0141001
1868.89	-0.0468369
1870.38	0.104836
1871.87	-0.158076
1873.36	0.365013
1874.85	0.504197
1876.34	0.224983
1877.83	0.00609779
1879.32	0.0607524
1880.81	0.296919
1882.3	0.0953169
1882.57	0.0373225
1884.07	-0.207218
1885.56	0.209992
1887.06	0.260389
1888.55	0.36257
1890.04	-0.283296
1891.54	-0.406082
1893.03	0.272175
1894.52	0.256265
1896.02	0.502398
1897.51	0.644933
1899	0.143784
1900.49	0.267963
1901.98	-0.0962286
1903.47	0.460068
1904.96	0.545456
1906.45	0.525887
1907.94	0.193765
1909.43	0.157529
1910.92	0.191466
1912.41	-0.103498
1913.9	0.0530205
1915.39	-0.0505667
1916.88	-0.0503511
1918.37	0.348087
1919.85	0.087534
1921.34	-0.0343428
1922.83	-0.0519252
1924.32	0.190868
1925.8	-0.0848384
1927.29	0.332757
1928.78	0.439271
1930.26	0.043581
1931.75	0.080122
1933.23	0.513767
1934.72	0.0283618
1936.2	0.112993
1937.69	0.196615
1939.17	0.383448
1940.66	0.155888
1942.14	0.239908
1943.63	0.186684
1945.11	0.134175
1946.59	-0.159364
1948.07	0.305352
1949.56	0.545182
1951.04	0.336318
1952.52	0.161365
1954	0.158145
1955.48	0.137696
1956.96	0.443857
1958.45	0.269668
1959.93	0.216323
1961.41	0.1806
1962.89	0.0422134
1964.37	0.092247
1965.85	-0.0636544
1967.32	-0.0830021
1968.8	0.0340099
1970.28	0.184602
1971.76	0.420174
1973.24	-0.0273404
1974.72	0.327467
1976.19	0.221748
1977.67	-0.0710478
1979.15	0.181285
1980.63	0.161106
1982.1	0.174811
1983.58	0.307156
1985.05	-0.121071
1986.53	0.231314
1988	0.295055
1989.48	-0.0305209
1990.95	0.254091
1992.43	0.319237
1993.9	0.368214
1995.38	0.400906
1996.85	0.112941
1998.32	0.112216
1999.8	0.144909
2001.27	-0.0928936
2002.74	0.242599
2004.22	0.1225
2005.69	-0.0140572
2007.16	0.304841
2008.63	0.590607
2010.1	0.287713
2011.57	-0.0146766
2013.04	-0.199146
2014.51	0.373383
2015.98	0.288902
2017.45	0.254201
2018.92	0.0339613
2020.39	0.384775
2021.86	0.298502
2023.33	0.128663
2024.8	0.295158
2026.27	0.127017
2027.74	0.194864
2029.2	0.247101
2030.67	0.417833
2032.14	0.539075
2033.61	0.0396376
2035.07	0.177969
2036.54	-0.154284
2038.01	0.0337725
2039.47	0.322454
2040.94	0.359065
2042.4	0.295113
2043.87	0.416748
2045.33	0.168994
2046.8	0.443512
2048.26	-0.174258
2049.72	0.555377
2051.19	0.408069
2052.65	0.175083
2054.12	0.26106
2055.58	0.497415
2057.04	0.108842
2058.5	0.225455
2059.97	0.47661
2061.43	0.441676
2062.89	0.188597
2064.35	0.0710478
2065.81	0.122571
2067.27	0.444005
2068.73	0.395659
2070.19	0.0782113
2071.65	0.501482
2073.11	0.48696
2074.57	0.539571
2076.03	0.238273
2077.49	-0.0128131
2078.95	0.476749
2080.41	0.191314
2081.87	0.343243
2083.32	-0.17871
2084.78	0.00580788
2086.24	0.35786
2087.7	0.356046
2089.15	0.320293
2090.61	0.485976
2092.07	-0.00331306
2093.52	0.330016
2094.98	0.126135
2096.43	0.324335
2097.89	0.119797
2099.34	0.266526
2100.8	0.0281787
2102.25	0.208111
2103.71	0.455223
2105.16	0.36927
2106.61	-0.0325046
2108.07	0.200525
2109.52	0.783837
2110.97	0.449535
2112.43	0.347698
2113.88	0.294594
2115.33	0.473279
2116.78	0.418236
2118.23	0.33034
2119.68	0.243624
2121.13	0.258022
2122.59	0.1412
2124.04	0.191325
2125.49	0.20874
2126.94	0.292249
2128.39	-0.205213
2129.83	0.655364
2131.28	0.421091
2132.73	0.169909
2134.18	0.266402
2135.63	0.69408
2137.08	0.180459
2138.53	0.61045
2139.97	0.628715
2141.42	0.466422
2142.87	0.817567
2144.31	0.209963
2145.76	0.39636
2147.21	0.980043
2148.65	0.752046
2150.1	0.738584
2151.54	0.243821
2152.99	0.460723
2154.43	0.693561
2155.88	0.64437
2157.32	0.578691
2158.77	0.76205
2160.21	0.548881
2161.65	0.419817
2163.1	0.573889
2164.54	0.994745
2165.98	0.47048
2167.43	0.909009
2168.87	0.466131
2170.31	0.62019
2171.75	0.0407553
2173.19	0.391406
2174.64	0.541393
2176.07	0.790681
2177.52	0.690877
2178.96	0.591693
2180.4	0.842401
2181.84	0.312339
2183.28	0.26483
2184.72	0.666584
2186.15	0.702546
2187.59	0.0396824
2189.03	0.724633
2190.47	0.560888
2191.91	0.863029
2193.35	0.814987
2194.78	0.665977
2196.22	0.299202
2197.66	0.696516
2199.09	0.609881
2200.53	0.389653
2201.97	0.435281
2203.4	0.730208
2204.84	0.511623
2206.27	0.376914
2207.71	0.607161
2209.14	0.5721
2210.58	0.668856
2212.01	0.433891
2213.45	0.545772
2214.88	0.34358
2216.31	0.455748
2217.75	0.733629
2219.18	0.253661
2220.61	0.714346
2222.05	0.499115
2223.48	0.332878
2224.91	0.495038
2226.34	0.277205
2227.78	0.255735
2229.21	0.249758
2230.64	0.505679
2232.07	0.154591
2233.5	0.131855
2234.93	0.46944
2236.36	0.186526
2237.79	0.346019
2239.22	0.39256
2240.65	0.652655
2242.08	0.131213
2243.5	0.491468
2244.93	0.44423
2246.36	0.445379
2247.79	0.7062
2249.22	0.264147
2250.64	0.0489416
2252.07	0.337335
2253.5	0.283096
2254.92	0.00175953
2256.35	0.208986
2257.78	0.287949
2259.2	0.57995
2260.63	0.614661
2262.05	0.213058
2263.48	0.60808
2264.9	0.434973
2266.33	0.261366
2267.75	0.249636
2269.18	0.334829
2270.6	0.14272
2272.02	0.194373
2273.45	0.441355
2274.87	0.346418
2276.29	-0.0742831
2277.71	0.09166
2279.14	0.534878
2280.56	0.521682
2281.98	0.638861
2283.4	0.364468
2284.82	0.106292
2286.24	0.158286
2287.66	0.112617
2289.08	-0.0144243
2290.5	0.316263
2291.92	-0.0882006
2293.34	0.0794811
2294.76	0.181836
2296.18	0.316949
2297.6	0.353874
2299.02	0.243424
2300.44	0.0838494
2301.86	0.219501
2303.27	0.0109653
2304.69	0.163455
2306.11	0.381731
2307.53	-0.0737462
2308.94	0.127496
2310.36	0.32844
2311.78	0.117977
2313.19	0.269356
2314.61	0.371772
2316.02	0.0961008
2317.44	-0.0144916
2318.85	-0.0919166
2320.27	0.325197
2321.68	0.41181
2323.1	0.447456
2324.51	0.349226
2325.92	0.71121
2327.34	0.411947
2328.75	0.903464
2330.16	0.669883
2331.58	0.815931
2332.99	0.123444
2334.4	0.287594
2335.81	0.30379
2337.23	-0.0915456
2338.64	0.235994
2340.05	0.0365429
2341.46	0.000820637
2342.87	0.0960488
2344.28	0.109136
2345.69	0.286302
2347.1	0.283299
2348.51	-0.0634308
2349.92	0.0807214
2351.33	0.305798
2352.74	0.0724401
2354.15	-0.0143642
2355.55	-0.183007
2356.96	0.0392289
2358.37	0.244693
2359.78	0.35233
2361.19	0.200139
2362.59	0.0644674
2364	0.171916
2365.41	0.0526004
2366.81	0.192255
2368.22	0.202943
2369.62	0.45637
2371.03	0.162412
2372.44	0.0792823
2373.84	0.302945
2375.24	0.0599103
2376.65	-0.183216
2378.05	-0.298258
2379.46	0.115946
2380.86	0.544215
2382.26	-0.0717578
2383.67	-0.0143542
2385.07	-0.0692143
2386.47	0.068069
2387.88	0.109983
2389.28	0.407827
2390.68	0.116714
2392.08	-0.0138683
2393.48	0.111032
2394.89	0.23644
2396.29	0.266905
2397.69	0.0435548
2399.09	0.217989
2400.49	0.122669
2401.89	0.0593853
2403.29	-0.00385332
2404.69	0.0120335
2406.09	-0.194981
2407.48	0.168681
2408.88	0.341104
2410.28	-0.0892272
2411.68	-0.0595012
2413.08	0.0183282
2414.48	0.334558
2415.87	0.271905
2417.27	0.0836368
2418.67	-0.00898218
2420.06	0.152026
2421.46	0.217957
2422.86	0.172731
2424.25	0.333263
2425.65	-0.0131931
2427.04	0.338012
2428.44	0.357147
2429.83	0.297745
2431.23	0.540315
2432.62	0.449855
2434.02	0.470045
2435.41	0.473448
2436.81	-0.207551
2438.2	-0.238315
2439.59	-0.0793872
2440.99	-0.159406
2442.38	0.220584
2443.77	-0.272653
2445.16	-0.0201473
2446.56	0.406425
2447.95	0.0560098
2449.34	0.00686073
2450.73	-0.121236
2452.12	0.178513
2453.51	0.304628
2454.9	-0.169805
2456.29	0.178975
2457.68	0.0534072
2459.07	-0.262071
2460.46	0.402586
2461.85	0.433919
2463.24	-0.199217
2464.63	0.084023
2466.02	-0.0753698
2467.4	0.207293
2468.79	0.331884
2470.18	0.314266
2471.57	-0.302663
2472.95	-0.131754
2474.34	-0.0246043
2475.73	-0.0596566
2477.12	-0.142075
2478.5	-0.0516434
2479.89	0.305527
2481.27	-0.0432935
2482.66	0.047051
2484.04	0.403001
2485.43	-0.14946
2486.81	0.00135326
2488.2	-0.0830541
2489.58	0.22179
2490.97	-0.127905
2492.35	-0.103258
2493.73	0.201623
2495.12	-0.14457
2496.5	-0.179235
2497.88	0.189477
2499.27	-0.169587
2500.65	-0.0025301
2502.03	0.0864029
2503.41	-0.381407
2504.79	0.0610895
2506.17	0.101594
2507.56	-0.150577
2508.94	-0.0638747
2510.32	0.34546
2511.7	-0.196692
2513.08	0.0291443
2514.46	0.163369
2515.84	0.0378866
2517.22	0.24968
2518.59	0.232338
2519.97	-0.151586
2521.35	0.167223
2522.73	-0.30852
2524.11	0.191895
2525.49	0.0966525
2526.86	-0.0290756
2528.24	0.180465
2529.62	-0.0199704
2530.99	0.191383
2532.37	0.0848231
2533.75	-0.127004
2535.12	-0.0800061
2536.5	0.134066
2537.88	0.180492
2539.25	0.13504
2540.63	-0.0324745
2542	-0.260841
2543.38	0.0877194
2544.75	0.0878749
2546.12	0.195168
2547.5	-0.2275
2548.87	0.1241
2550.24	0.263423
2551.62	0.0837102
2552.99	0.38892
2554.36	0.162172
2555.74	0.16239
2557.11	0.222866
2558.48	0.0254536
2559.85	0.025435
2561.22	-0.156041
2562.59	0.0721917
2563.96	0.02807
2565.34	0.332825
2566.71	-0.135087
2568.08	0.0790272
2569.45	-0.0705686
2570.82	-0.00796986
2572.18	-0.127218
2573.55	0.0264511
2574.92	-0.168458
2576.29	0.0459895
2577.66	0.0936308
2579.03	-0.177306
2580.4	0.415791
2581.77	-0.234776
2583.13	-0.00616789
2584.5	0.282875
2585.87	0.359615
2587.23	0.315197
2588.6	0.483121
2589.97	-0.0156784
2591.33	0.0916367
2592.7	0.168273
2594.06	0.12308
2595.43	0.273996
2596.79	-0.0149479
2598.16	0.255542
2599.52	0.162605
2600.89	0.205868
2602.25	0.234389
2603.62	0.187944
2604.98	-0.0994554
2606.34	-0.20549
2607.71	-0.191053
2609.07	0.0036068
2610.43	0.302575
2611.79	-0.0470448
2613.16	0.0240846
2614.52	-0.0406756
2615.88	0.0295725
2617.24	0.129857
2618.6	0.20048
2619.96	0.0022521
2621.32	-0.404419
2622.68	-0.346934
2624.04	-0.0653763
2625.4	0.245621
2626.76	-0.0404587
2628.12	0.075954
2629.48	-0.120698
2630.84	0.158897
2632.2	0.170397
2633.56	0.033318
2634.92	0.119077
2636.28	-0.121561
2637.63	-0.213631
2638.99	-0.00938416
2640.35	0.10591
2641.71	0.280375
2643.06	-0.0326796
2644.42	-0.197533
2645.77	-0.126174
2647.13	-0.0404692
2648.49	0.0887818
2649.84	0.0111866
2651.2	0.065547
2652.55	-0.071321
2653.91	-0.031671
2655.26	-0.167398
2656.62	0.269106
2657.97	-0.128358
2659.33	-0.0126958
2660.68	0.000807285
2662.03	-0.0150366
2663.39	0.669765
2664.74	0.112416
2666.09	0.138691
2667.44	0.295739
2668.8	0.263193
2670.15	0.172735
2671.5	0.228228
2672.85	0.298686
2674.2	0.0936532
2675.55	-0.183282
2676.91	0.0482574
2678.26	0.164108
2679.61	-0.00944281
2680.96	0.00634146
2682.31	0.110029
2683.66	-0.162374
2685	0.0299692
2686.35	0.295332
2687.7	0.168826
2689.05	0.0849113
2690.4	0.246517
2691.75	0.116416
2693.1	0.464023
2694.44	0.0565591
2695.79	-0.104205
2697.14	0.170236
2698.49	0.0834498
2699.83	0.171738
2701.18	0.261364
2702.52	0.00454807
2703.87	0.501871
2705.22	0.217163
2706.56	-0.0387516
2707.91	0.154759
2709.25	0.0723119
2710.6	-0.0249844
2711.94	-0.0644207
2713.29	0.375559
2714.63	0.481453
2715.97	0.601912
2717.32	0.198738
2718.66	0.406186
2720.01	0.118714
2721.35	0.340174
2722.69	0.255678
2724.03	0.272706
2725.38	-0.103584
2726.72	0.102078
2728.06	0.205616
2729.4	0.512699
2730.74	0.339447
2732.08	0.151684
2733.42	0.269531
2734.76	0.212957
2736.1	0.287458
2737.44	0.332979
2738.78	0.131253
2740.12	0.162048
2741.46	0.294267
2742.8	-0.0682974
2744.14	0.251859
2745.48	0.222693
2746.82	0.106114
2748.16	0.120146
2749.49	-0.0689049
2750.83	0.104934
2752.17	0.249847
2753.51	0.438325
2754.84	0.00384617
2756.18	0.337381
2757.52	0.0627241
2758.85	0.280601
2760.19	0.411855
2761.53	0.456633
2762.86	0.443909
2764.2	0.330159
2765.53	0.39003
2766.87	0.0299993
2768.2	-0.0557799
2769.54	0.406985
2770.87	0.160123
2772.2	0.143609
2773.54	0.0397921
2774.87	0.0511003
2776.2	0.163208
2777.54	0.0451541
2778.87	-0.0722909
2780.2	0.270662
2781.53	0.196952
2782.87	0.00860929
2784.2	0.164677
2785.53	-0.066421
2786.86	-0.0678992
2788.19	-0.0260496
2789.52	0.0878792
2790.85	-0.0264459
2792.18	-0.0114388
2793.51	0.304093
2794.84	0.147888
2796.17	0.291563
2797.5	0.249059
2798.83	0.0633931
2800.16	0.305728
2801.49	-0.108535
2802.82	0.204618
2804.15	-0.0527501
2805.47	0.245294
2806.8	0.158234
2808.13	-0.0713911
2809.46	-0.24411
2810.78	0.1231
2812.11	0.5612
2813.44	0.0636082
2814.76	0.304787
2816.09	0.419359
2817.42	0.237122
2818.74	-0.0580568
2820.07	0.0294552
2821.39	-0.0392604
2822.72	0.274176
2824.04	0.289517
2825.37	0.460416
2826.69	0.333897
2828.02	0.16536
2829.34	0.053925
2830.66	0.225968
2831.99	0.752039
2833.31	0.400419
2834.63	0.374137
2835.96	0.404104
2837.28	0.674197
2838.6	0.406309
2839.92	0.237409
2841.24	0.704895
2842.57	0.748442
2843.89	1.07514
2845.21	0.625077
2846.53	0.839716
2847.85	1.1253
2849.17	0.986907
2850.49	1.1027
2851.81	1.07677
2853.13	1.3755
2854.45	1.29235
2855.77	1.23734
2857.09	0.942186
2858.41	1.55112
2859.72	1.53849
2861.04	1.2998
2862.36	1.68211
2863.68	1.59821
2865	1.50005
2866.31	1.45834
2867.63	1.83994
2868.95	1.82692
2870.26	2.37813
2871.58	1.97078
2872.9	2.00023
2874.21	2.21226
2875.53	2.16979
2876.84	2.35177
2878.16	2.26558
2879.47	2.10896
2880.79	1.7841
2882.1	2.27502
2883.42	2.1484
2884.73	2.41574
2886.05	2.33246
2887.36	2.33346
2888.67	2.6007
2889.99	1.96943
2891.3	2.29144
2892.61	2.62673
2893.92	2.24715
2895.24	2.4843
2896.55	2.42796
2897.86	2.4704
2899.17	2.5276
2900.48	2.76723
2901.79	2.40567
2903.11	2.64577
2904.42	2.80202
2905.73	2.90252
2907.04	2.75168
2908.35	3.06306
2909.66	2.84349
2910.97	3.11407
2912.27	3.31473
2913.58	3.41685
2914.89	3.86787
2916.2	3.88346
2917.51	3.4779
2918.82	3.89724
2920.13	3.26726
2921.43	3.71477
2922.74	3.60387
2924.05	3.71771
2925.35	4.01411
2926.66	4.49271
2927.97	4.21647
2929.27	4.14958
2930.58	3.87252
2931.89	4.05642
2933.19	4.11428
2934.5	4.20004
2935.8	4.18804
2937.11	4.1482
2938.41	3.91286
2939.72	3.85938
2941.02	4.01589
2942.32	4.22897
2943.63	3.46467
2944.93	3.21832
2946.24	3.49012
2947.54	3.13292
2948.84	3.47507
2950.14	3.25649
2951.45	3.19048
2952.75	3.33306
2954.05	2.8725
2955.35	3.06971
2956.65	2.9736
2957.95	3.42491
2959.26	3.23442
2960.56	3.03188
2961.86	2.97078
2963.16	2.78385
2964.46	2.96119
2965.76	2.99715
2967.06	2.69456
2968.36	2.55942
2969.66	2.77517
2970.96	2.47048
2972.25	2.71453
2973.55	2.25528
2974.85	2.64033
2976.15	2.63079
2977.45	2.6906
2978.74	2.214
2980.04	2.04589
2981.34	2.08794
2982.64	1.63725
2983.93	1.7495
2985.23	2.12948
2986.52	1.8359
2987.82	1.44507
2989.12	1.75751
2990.41	1.45178
2991.71	1.59534
2993	1.18997
2994.3	1.69705
2995.59	1.64109
2996.89	1.4161
2998.18	1.41563
2999.48	1.33114
3000.77	1.12088
3002.06	1.21952
3003.36	1.36039
3004.65	0.940868
3005.94	1.05349
3007.23	0.913539
3008.53	0.563179
3009.82	0.92561
3011.11	0.672174
3012.4	0.642128
3013.69	0.835281
3014.99	0.777482
3016.28	0.748093
3017.57	0.858454
3018.86	0.315042
3020.15	0.592708
3021.44	0.563888
3022.73	0.464974
3024.02	0.531954
3025.31	0.265483
3026.6	0.304004
3027.89	0.0936842
3029.18	0.506583
3030.46	0.629778
3031.75	0.298153
3033.04	0.105528
3034.33	0.354792
3035.62	0.424063
3036.9	0.340576
3038.19	0.641547
3039.48	0.486337
3040.76	0.330258
3042.05	0.695381
3043.34	0.401541
3044.62	0.478619
3045.91	0.406276
3047.19	0.526857
3048.48	0.853737
3049.77	0.253851
3051.05	0.364892
3052.34	0.408194
3053.62	0.451411
3054.9	0.575899
3056.19	0.440341
3057.47	0.372161
3058.76	0.480499
3060.04	0.588434
3061.32	0.601195
3062.61	0.641797
3063.89	0.560971
3065.17	0.467666
3066.45	0.388918
3067.74	0.337987
3069.02	0.491222
3070.3	0.712204
3071.58	0.442817
3072.86	0.634817
3074.14	0.186763
3075.42	0.281807
3076.7	0.267792
3077.99	0.226862
3079.26	0.403746
3080.54	0.323819
3081.82	0.258527
3083.1	0.166907
3084.38	0.197775
3085.66	0.310023
3086.94	0.0553932
3088.22	0.139459
3089.5	-0.0756602
3090.78	0.210932
3092.05	0.0223827
3093.33	-0.0846963
3094.61	0.0660295
3095.89	0.12188
3097.16	0.231886
3098.44	0.124839
3099.72	0.193777
3100.99	0.221864
3102.27	0.344663
3103.54	0.142568
3104.82	-0.113304
3106.1	-0.00327349
3107.37	0.0125518
3108.65	-0.119861
3109.92	-0.319355
3111.2	0.226326
3112.47	0.000730038
3113.74	0.00551319
3115.02	0.118618
3116.29	0.000800133
3117.56	-0.144942
3118.84	0.359448
3120.11	0.0626769
3121.38	0.0363832
3122.66	0.0908637
3123.93	0.158575
3125.2	0.212688
3126.47	0.321087
3127.74	0.145582
3129.01	0.227407
3130.29	-0.0422339
3131.56	-0.284743
3132.83	0.0807033
3134.1	0.188828
3135.37	-0.000668526
3136.64	-0.015131
3137.91	0.0912323
3139.18	-0.287924
3140.45	-0.0610728
3141.72	0.0711508
3142.99	0.297256
3144.26	-0.174906
3145.52	0.038095
3146.79	0.0366354
3148.06	0.223049
3149.33	0.088182
