200.419	0.213613
202.234	0.225107
204.048	0.237681
205.862	0.129597
207.678	0.240791
209.491	0.424437
211.304	-0.315914
213.116	0.764009
214.928	-0.0988779
216.742	0.469063
218.554	0.358128
220.365	0.368992
222.176	-0.199777
223.986	1.43304
225.798	1.03504
227.608	0.999889
229.417	0.143527
231.226	0.494281
233.035	-0.2652
234.843	0.182022
236.653	-0.310013
238.46	-0.920531
240.268	0.110138
242.074	0.540521
243.881	0.273012
245.687	0.319069
247.493	0.00172806
249.298	-0.0765572
251.103	-0.157487
252.908	-0.144176
254.715	0.108878
256.519	-0.265547
258.322	0.78297
260.126	0.0495205
261.929	0.281703
263.731	0.226369
265.534	-0.430314
267.336	0.455545
269.137	0.0880861
270.938	0.443123
272.739	-0.16719
274.54	0.306261
276.34	0.320187
278.14	0.597559
279.939	0.511604
281.739	0.37577
283.537	0.0220346
285.336	0.556649
287.134	0.609487
288.932	0.0628157
290.729	-0.194651
292.526	0.363305
294.323	-0.0827169
296.117	0.333811
297.913	0.249153
299.709	0.642926
301.504	-0.348957
303.299	0.378237
305.093	0.149158
306.888	0.491934
308.682	0.0474949
310.475	0.080555
312.268	-0.0520439
314.059	0.150269
315.852	0.687615
317.644	0.298
319.436	0.266997
321.227	0.761441
323.018	0.398698
324.807	-0.536706
326.597	0.580286
328.387	0.312802
330.177	0.355216
331.967	0.157476
333.753	0.580143
335.542	-0.0518122
337.331	-0.0158062
339.119	-0.149096
340.906	0.00332165
342.691	0.322225
344.478	0.688611
346.265	-0.568974
348.051	-0.464085
349.835	0.309632
351.621	-0.0148134
353.406	0.519472
355.189	-0.0209198
356.973	0.51094
358.757	-0.269598
360.541	0.140557
362.323	0.263759
364.106	0.291001
365.889	0.10375
367.669	0.295919
369.451	0.320978
371.233	0.179411
373.012	-0.0571012
374.793	-0.00980091
376.574	-0.576293
378.353	0.202987
380.133	-0.667515
381.91	0.394625
383.69	0.327317
385.469	0.425872
387.245	0.173016
389.024	-0.102103
390.8	0.492796
392.577	-0.10937
394.353	-0.1473
396.129	0.496194
397.906	0.69364
399.68	0.656094
401.456	0.477257
403.23	-0.218878
405.005	1.12771
406.778	0.289421
408.552	-0.149988
410.325	-0.213939
412.099	-0.16048
413.87	-0.059742
415.643	0.276251
417.414	0.401796
419.187	0.574924
420.957	0.419777
422.728	0.170509
424.498	0.390108
426.269	0.608925
428.038	0.568734
429.806	0.316856
431.576	0.229313
433.344	0.282884
435.114	-0.0621901
436.881	0.836628
438.649	-0.0722876
440.416	-0.0201826
442.182	0.452379
443.949	0.828759
445.715	0.148728
447.48	-0.0163813
449.247	0.402985
451.011	-0.0894814
452.777	0.142857
454.541	0.188438
456.304	0.443718
458.069	0.419019
459.832	0.184988
461.594	0.347228
463.358	0.0690794
465.119	0.350916
466.881	0.00792408
468.642	-0.239816
470.404	0.165053
472.165	-0.359817
473.925	-0.00114822
475.684	0.333048
477.445	-0.126552
479.204	0.390538
480.963	-0.00174904
482.721	-0.18424
484.481	0.14667
486.239	0.642455
487.996	0.348164
489.753	-0.177835
491.511	0.46346
493.268	0.475645
495.023	0.698544
496.779	0.266365
498.534	0.137727
500.289	0.852689
502.046	0.676431
503.8	0.992312
505.554	0.672966
507.307	0.25792
509.06	0.546875
510.813	0.0815926
512.566	1.02667
514.32	0.62913
516.072	0.842079
517.823	0.277714
519.574	0.0889883
521.325	0.416688
523.076	0.27395
524.826	0.201586
526.576	0.410795
528.325	0.596374
530.074	0.406725
531.823	0.919585
533.572	-0.301022
535.32	0.747895
537.068	0.555244
538.815	0.455064
540.562	0.377344
542.309	1.02116
544.056	0.616156
545.802	0.932436
547.547	0.691132
549.293	0.775187
551.038	0.812964
552.783	0.527012
554.527	0.357398
556.271	0.303807
558.015	0.804131
559.759	1.41919
561.502	0.537461
563.245	0.140757
564.987	0.434733
566.729	0.154637
568.471	0.197002
570.213	0.33206
571.954	0.651785
573.693	0.651772
575.433	0.125779
577.173	0.610746
578.913	0.592251
580.652	0.206995
582.392	0.0972233
584.13	0.0328808
585.867	0.151602
587.605	0.108282
589.343	0.0638952
591.08	0.455835
592.817	0.617225
594.552	0.203287
596.289	0.134503
598.025	-0.0263214
599.761	-0.210438
601.496	0.0878668
603.229	0.476983
604.964	0.22085
606.699	0.285478
608.433	-0.10998
610.165	-0.0460854
611.898	0.270445
613.631	0.403938
615.364	-0.195462
617.095	0.236737
618.827	-0.476898
620.559	0.342897
622.288	0.199894
624.02	0.0563097
625.75	-0.22416
627.479	-0.526237
629.209	0.268955
630.939	0.061801
632.667	0.107452
634.396	0.564896
636.125	-0.119108
637.851	0.26826
639.58	0.402161
641.305	0.259627
643.033	-0.112763
644.76	0.265767
646.485	0.211633
648.212	0.409216
649.936	1.13196
651.662	0.676516
653.388	-0.0482998
655.111	0.093298
656.836	0.760823
658.558	0.496073
660.283	0.390163
662.005	0.556735
663.728	0.675821
665.45	0.51849
667.173	0.656611
668.893	0.633965
670.616	0.520371
672.336	0.911898
674.057	0.870996
675.777	0.740335
677.498	0.977707
679.216	0.113297
680.937	0.211919
682.655	0.217164
684.375	0.0364475
686.092	1.25855
687.809	0.660284
689.528	0.544571
691.244	0.42819
692.962	0.380365
694.678	0.838609
696.393	1.20372
698.111	0.761799
699.825	1.0094
701.54	0.404763
703.256	0.834253
704.97	0.206037
706.685	0.381529
708.398	1.19849
710.111	1.48678
711.826	1.79712
713.538	1.28319
715.25	0.747124
716.961	0.668618
718.675	0.499076
720.386	0.876995
722.096	0.571246
723.808	1.08516
725.518	0.984303
727.228	1.22407
728.937	1.39494
730.648	1.225
732.357	0.941808
734.065	1.26988
735.773	2.07199
737.483	1.40512
739.19	0.965742
740.897	1.18169
742.604	0.857784
744.31	1.2559
746.018	0.979804
747.724	1.62753
749.429	1.71389
751.134	0.991757
752.839	0.923071
754.544	1.26053
756.248	1.10439
757.953	1.17466
759.657	1.33643
761.36	1.61217
763.063	1.23451
764.765	1.44313
766.468	1.31213
768.169	1.54102
769.871	1.7681
771.572	2.06119
773.273	1.99109
774.976	1.60397
776.676	1.21736
778.376	1.62326
780.075	1.69142
781.775	1.96428
783.474	2.21486
785.172	2.07972
786.871	1.98763
788.569	1.19104
790.266	1.93032
791.964	2.05582
793.661	2.26985
795.358	1.80642
797.054	1.66019
798.75	1.60577
800.446	1.44051
802.141	1.90665
803.834	1.74336
805.529	1.28784
807.224	1.50609
808.918	1.72308
810.612	1.64697
812.305	1.77195
813.998	1.87378
815.691	1.54985
817.384	1.71851
819.076	2.53507
820.766	2.18925
822.458	1.71045
824.149	2.59318
825.84	2.51793
827.531	1.95478
829.221	1.86216
830.909	1.81687
832.599	1.43996
834.288	2.0677
835.977	1.98339
837.666	1.72028
839.353	1.94709
841.041	1.88225
842.729	1.5927
844.416	1.70478
846.103	1.57161
847.788	1.19394
849.475	1.57868
851.161	2.4812
852.845	1.61653
854.53	1.53628
856.216	1.9499
857.901	1.86869
859.583	1.51578
861.268	2.10642
862.952	1.54726
864.633	2.20341
866.317	2.16025
868	1.41743
869.681	1.59854
871.363	2.27569
873.045	1.64432
874.725	1.91524
876.406	1.10303
878.088	1.6448
879.767	1.82545
881.447	1.14795
883.125	1.53081
884.805	1.55147
886.483	1.57088
888.162	0.979677
889.841	1.31218
891.518	0.831667
893.196	0.508311
894.872	0.972052
896.55	1.18674
898.225	1.84927
899.902	0.849542
901.577	1.37497
903.254	1.24966
904.928	1.45972
906.604	1.6248
908.277	0.987452
909.952	0.931313
911.625	0.853827
913.3	1.44383
914.972	0.58977
916.646	0.979618
918.318	1.36869
919.991	1.15928
921.662	1.10559
923.333	1.42873
925.005	0.736691
926.675	0.996401
928.347	1.56636
930.017	0.945514
931.686	1.56106
933.357	1.40456
935.025	1.24826
936.693	1.31291
938.363	1.17981
940.031	1.20214
941.698	1.60057
943.367	1.40409
945.034	0.677675
946.7	1.12
948.368	1.45041
950.034	1.09488
951.699	0.981112
953.367	1.02181
955.031	0.33611
956.696	0.997857
958.36	0.339079
960.026	0.940084
961.689	0.6597
963.353	1.30723
965.016	0.671336
966.68	0.541511
968.343	0.320804
970.005	-0.0564775
971.666	1.0476
973.328	0.692039
974.991	1.33286
976.652	0.847412
978.312	0.849758
979.972	0.71992
981.632	0.5897
983.292	0.834662
984.953	0.878765
986.612	0.721875
988.27	0.784784
989.929	0.780209
991.587	0.0899553
993.244	0.902279
994.902	0.764522
996.559	0.0534143
998.216	0.489655
999.872	0.616691
1001.53	0.589083
1003.19	0.165027
1004.84	1.01678
1006.5	0.570656
1008.15	0.586411
1009.81	1.32657
1011.46	0.969623
1013.11	0.0436954
1014.77	-0.0484753
1016.42	0.253817
1018.07	0.0529461
1019.73	0.0716028
1021.38	0.593921
1023.03	0.614117
1024.68	0.219885
1026.34	1.00625
1027.99	0.634434
1029.64	0.611738
1031.29	0.588041
1032.94	0.759493
1034.59	0.798442
1036.24	0.421899
1037.89	0.589848
1039.53	0.779197
1041.18	1.03405
1042.83	1.39836
1044.48	1.17722
1046.13	1.02314
1047.77	0.762199
1049.42	0.61129
1051.07	0.417982
1052.71	0.377365
1054.36	1.35833
1056	0.644445
1057.65	0.560444
1059.3	0.867362
1060.94	0.738911
1062.59	0.196627
1064.23	0.719037
1065.87	1.19695
1067.52	0.413118
1069.16	0.693523
1070.8	0.842839
1072.44	0.340686
1074.09	0.446873
1075.73	0.749038
1077.37	0.596755
1079.01	0.662412
1080.65	0.338398
1082.29	0.448083
1083.93	0.578728
1085.57	0.469537
1087.21	0.96541
1088.85	0.419559
1090.49	1.01974
1092.13	0.796401
1093.77	0.616201
1095.41	0.350168
1097.04	0.236183
1098.68	0.511187
1100.32	0.313671
1101.95	0.139432
1103.59	0.612123
1105.23	0.397434
1106.86	0.613438
1108.5	-0.00954247
1110.13	1.12987
1111.77	0.225429
1113.4	0.652308
1115.04	0.175965
1116.67	0.836744
1118.31	0.767787
1119.94	0.206736
1121.57	0.439401
1123.2	0.330273
1124.84	0.371808
1126.47	0.649311
1128.1	0.435491
1129.73	0.863772
1131.36	0.0738373
1132.99	0.460039
1134.62	0.397184
1136.25	1.10324
1137.88	0.0987005
1139.51	0.588967
1141.14	0.309374
1142.77	0.691111
1144.4	0.752633
1146.03	0.132471
1147.66	0.0889664
1149.28	0.344456
1150.91	0.0251198
1152.54	0.0253687
1154.16	-0.272707
1155.79	0.0462732
1157.42	-0.209515
1159.04	0.215743
1160.67	0.0673056
1162.29	0.302523
1163.92	-0.205628
1165.54	0.456037
1167.17	0.224513
1168.79	0.0134163
1170.41	0.119875
1172.04	0.309668
1173.66	0.773789
1175.28	0.217832
1176.9	0.192244
1178.53	0.124463
1180.15	0.332506
1181.77	0.139075
1183.39	-0.243857
1185.01	0.261138
1186.63	0.131282
1188.25	0.169106
1189.87	0.015564
1191.49	0.19767
1193.11	0.672423
1194.73	0.536282
1196.35	0.589199
1197.96	0.663676
1199.58	-0.0343809
1201.2	-0.123199
1202.82	0.103395
1204.43	-0.336037
1206.05	-0.0641212
1207.66	0.000119209
1209.28	0.210602
1210.9	0.149267
1212.51	0.503589
1214.13	0.543184
1215.74	0.705769
1217.36	-0.1944
1218.97	0.693538
1220.58	0.500026
1222.2	0.286713
1223.81	0.199113
1225.42	0.96177
1227.04	0.897016
1228.65	0.916267
1230.26	0.771184
1231.87	0.957933
1233.48	0.628947
1235.1	0.342374
1236.71	0.511478
1238.32	0.867524
1239.93	0.541914
1241.53	0.0921898
1243.14	0.572976
1244.75	0.577408
1246.36	1.1811
1247.97	0.749292
1249.58	1.02036
1251.19	0.649764
1252.8	0.920653
1254.4	0.716363
1256.01	0.885273
1257.62	0.931129
1259.22	0.626207
1260.83	0.901425
1262.43	1.21866
1264.04	1.24615
1265.64	1.27329
1267.25	0.221946
1268.85	0.973069
1270.46	0.811217
1272.06	0.710664
1273.66	0.8995
1275.27	0.838706
1276.87	0.694259
1278.48	0.96351
1280.08	0.880012
1281.68	0.982582
1283.28	1.39545
1284.88	0.877856
1286.48	0.340687
1288.08	1.23073
1289.68	0.901986
1291.28	1.75157
1292.88	1.60917
1294.48	1.50745
1296.08	1.32205
1297.68	1.61016
1299.28	1.73141
1300.88	1.41818
1302.48	0.754146
1304.07	1.28411
1305.67	1.62736
1307.27	1.47655
1308.87	1.07958
1310.46	1.17528
1312.06	1.35299
1313.65	1.75595
1315.25	1.7095
1316.85	1.6844
1318.44	1.1294
1320.03	1.87989
1321.63	0.998796
1323.22	1.35934
1324.82	0.904539
1326.41	1.85039
1328	2.0431
1329.6	1.06143
1331.19	1.23624
1332.78	1.4934
1334.37	1.5704
1335.96	1.48732
1337.56	1.72755
1339.15	1.28161
1340.74	1.70094
1342.33	1.47369
1343.92	1.26525
1345.51	1.63851
1347.1	1.4695
1348.69	1.34241
1350.28	1.59794
1351.86	1.55538
1353.45	0.954902
1355.04	1.29537
1356.63	0.796729
1358.21	1.37674
1359.8	0.997027
1361.39	1.13566
1362.97	1.01408
1364.56	0.752766
1366.15	1.42838
1367.73	0.968843
1369.32	1.22736
1370.9	1.70583
1372.49	1.42923
1374.07	0.994497
1375.65	1.49556
1377.24	1.28039
1378.82	0.806082
1380.41	2.02222
1381.99	1.28727
1383.57	1.38678
1385.15	1.40579
1386.73	0.887933
1388.32	0.688404
1389.9	0.886568
1391.48	1.12502
1393.06	0.868067
1394.64	1.00823
1396.22	1.10852
1397.8	0.930632
1399.38	0.474603
1400.96	0.770791
1402.54	0.82863
1404.11	0.530253
1405.69	1.18172
1407.27	1.12177
1408.85	0.687191
1410.43	0.905147
1412	0.787251
1413.58	0.649203
1415.16	1.16163
1416.73	1.12064
1418.31	1.76917
1419.88	1.25501
1421.46	1.09668
1423.03	1.4516
1424.61	1.33547
1426.18	0.905556
1427.76	1.3815
1429.33	1.79819
1430.9	2.01722
1432.48	1.4283
1434.05	1.76339
1435.62	1.21285
1437.2	1.29195
1438.77	1.94165
1440.34	1.96311
1441.91	1.61204
1443.48	1.94947
1445.05	1.93351
1446.62	2.40909
1448.19	1.27298
1449.76	1.45407
1451.33	1.77323
1452.9	2.05364
1454.47	1.90177
1456.04	1.9859
1457.61	2.42371
1459.17	1.71895
1460.74	1.76046
1462.31	1.7019
1463.88	1.95652
1465.44	1.44333
1467.01	1.51967
1468.58	1.43914
1470.14	0.731478
1471.71	1.24157
1473.27	1.08545
1474.84	1.91053
1476.4	1.99068
1477.97	1.5612
1479.53	1.19056
1481.1	0.937519
1482.66	0.860838
1484.22	0.960405
1485.78	1.29472
1487.35	2.11783
1488.91	1.47084
1490.47	1.25327
1492.03	0.955847
1493.59	0.793799
1495.16	0.708595
1496.72	1.18771
1498.28	1.39294
1499.84	0.412554
1501.4	0.658379
1502.96	1.07919
1504.52	0.72494
1506.08	0.332859
1507.64	0.598543
1509.19	0.746931
1510.75	0.23793
1512.31	0.577414
1513.87	0.434518
1515.42	0.541997
1516.98	0.880055
1518.54	1.14126
1520.1	1.01931
1521.65	0.323765
1523.21	0.757174
1524.76	0.578013
1526.32	0.379369
1527.87	0.2757
1529.43	0.590159
1530.98	0.372046
1532.54	0.704808
1534.09	0.601855
1535.64	0.386526
1537.2	0.248015
1538.75	0.336852
1540.3	0.501241
1541.85	-0.238864
1543.41	0.302163
1544.96	0.165102
1546.51	0.0469136
1548.06	0.416675
1549.61	-0.0390925
1551.16	0.461154
1552.71	0.493146
1554.26	0.637964
1555.81	1.04514
1557.36	0.519989
1558.91	0.258132
1560.46	0.371016
1562.01	0.522457
1563.56	0.637498
1565.1	0.491817
1566.65	0.719408
1568.2	0.853553
1569.75	0.782073
1571.29	0.672927
1572.84	0.974205
1574.38	0.715339
1575.93	1.25919
1577.48	1.24318
1579.02	1.17151
1580.57	1.17502
1582.11	0.618918
1583.65	0.418154
1585.2	0.83455
1586.74	0.933851
1588.29	0.977235
1589.83	0.533974
1591.37	0.632857
1592.92	0.937395
1594.46	0.380272
1596	1.32171
1597.54	0.97087
1599.08	1.05156
1600.62	1.0391
1602.16	0.914418
1603.7	0.845926
1605.24	0.307157
1606.78	1.66501
1608.32	1.46174
1609.86	1.20005
1611.4	1.2371
1612.94	0.521219
1614.48	0.87486
1616.02	1.05887
1617.56	1.20551
1619.09	0.790911
1620.63	1.08955
1622.17	1.05214
1623.71	0.921844
1625.24	0.922648
1626.78	1.18484
1628.31	1.12775
1629.85	0.901218
1631.39	1.36554
1632.92	0.876361
1634.46	0.835998
1635.99	1.00155
1637.52	1.18637
1639.06	1.20379
1640.59	0.885776
1642.12	1.01461
1643.66	1.21689
1645.19	1.41791
1646.72	0.892642
1648.25	1.18543
1649.79	1.1253
1651.32	1.23306
1652.85	1.28611
1654.38	1.59964
1655.91	1.3204
1657.44	1.93068
1658.97	1.44707
1660.5	1.33301
1662.03	1.32883
1663.56	0.972429
1665.09	1.68736
1666.62	1.7924
1668.15	1.04987
1669.67	0.95463
1671.2	1.13708
1672.73	1.11772
1674.26	1.44867
1675.79	0.637814
1677.31	1.74084
1678.84	1.11281
1680.36	0.870597
1681.89	0.701519
1683.42	1.06487
1684.94	1.26264
1686.47	1.2037
1687.99	0.796974
1689.51	0.61084
1691.04	-0.0143328
1692.56	1.00822
1694.08	0.584683
1695.61	0.65504
1697.13	0.779923
1698.65	-0.100004
1700.18	-0.0849543
1701.7	0.0755734
1703.22	0.49057
1704.74	-0.0606689
1706.26	-0.302057
1707.78	0.529315
1709.3	-0.0394216
1710.82	0.118794
1712.35	0.186199
1713.86	-0.525441
1715.39	-0.113498
1716.9	0.207281
1718.42	0.111737
1719.94	0.0704551
1721.46	-0.439746
1722.98	0.0789127
1724.5	0.417429
1726.01	0.468488
1727.53	0.250591
1729.05	0.411536
1730.56	-0.199306
1732.08	0.0864148
1733.6	-0.0577593
1735.11	-0.203279
1736.63	0.223057
1738.14	0.744998
1739.66	0.27702
1741.17	0.426806
1742.69	-0.0259418
1744.2	-0.370136
1745.71	-0.062799
1747.23	-0.175119
1748.74	0.127153
1750.25	0.221843
1751.77	0.235887
1753.28	-0.100828
1754.79	0.281471
1756.3	-0.0833349
1757.81	0.100462
1759.33	0.0824571
1760.84	0.119738
1762.35	0.322145
1763.86	0.244893
1765.37	-0.0107098
1766.88	0.175278
1768.39	0.244447
1769.9	0.290322
1771.41	0.437583
1772.91	0.038723
1774.42	0.189721
1775.93	-0.0211706
1777.44	0.0271707
1778.95	0.40827
1780.45	0.0491714
1781.96	0.180182
1783.47	0.38161
1784.97	0.201185
1786.48	-0.0916872
1787.99	0.149235
1789.49	-0.255033
1791	0.178404
1792.5	0.221021
1794.01	0.186106
1795.51	-0.0942125
1797.01	0.279814
1798.52	0.0970469
1800.02	0.0684028
1801.52	0.0724921
1803.03	0.152197
1804.53	-0.0552402
1806.03	0.00980568
1807.54	0.120265
1809.04	0.0363159
1810.54	0.0519862
1812.04	0.285538
1813.54	0.144816
1815.04	0.0892839
1816.54	0.222834
1818.04	0.00012207
1819.54	-0.00947571
1821.04	0.259292
1822.54	0.313251
1824.04	0.507633
1825.54	-0.226476
1827.04	0.160457
1828.54	0.0547252
1830.03	-0.0352216
1831.53	-0.228544
1833.03	0.0393882
1834.53	0.0975637
1836.02	0.368968
1837.52	0.209814
1839.02	0.0990977
1840.51	0.345876
1842.01	0.0354662
1843.5	0.229759
1845	0.225029
1846.49	-0.304841
1847.99	0.0153475
1849.48	-0.221072
1850.98	-0.0225978
1852.47	0.306013
1853.96	-0.0324621
1855.46	0.109197
1856.95	-0.24568
1858.44	-0.0681515
1859.94	-0.0275679
1861.43	0.408746
1862.92	-0.168413
1864.41	0.0710216
1865.9	0.0385184
1867.39	0.161202
1868.88	0.0387821
1870.37	-0.0134859
1871.86	0.253571
1873.35	0.319011
1874.84	0.0951452
1876.33	-0.128192
1877.82	-0.140563
1879.31	0.386555
1880.8	-0.000274181
1882.29	0.116953
1882.58	0.176541
1884.08	0.0875201
1885.57	0.520695
1887.06	0.343161
1888.56	-0.0608754
1890.05	-0.116343
1891.54	0.0724988
1893.04	0.384219
1894.53	-0.154537
1896.02	0.507625
1897.51	-0.0815167
1899	0.111779
1900.5	-0.200209
1901.99	0.217154
1903.48	0.111213
1904.97	0.508308
1906.46	0.000938416
1907.95	0.310243
1909.44	0.029624
1910.93	-0.232671
1912.42	0.321175
1913.91	0.458992
1915.4	0.215339
1916.88	0.162209
1918.37	0.074008
1919.86	0.41867
1921.35	0.381994
1922.84	-0.225717
1924.32	0.137043
1925.81	-0.070641
1927.3	0.189945
1928.78	-0.189549
1930.27	0.140803
1931.75	-0.0489759
1933.24	0.0717859
1934.72	-0.258962
1936.21	0.0148139
1937.69	-0.075727
1939.18	-0.201044
1940.66	0.278389
1942.15	0.119445
1943.63	0.272005
1945.11	0.494128
1946.6	-0.076571
1948.08	0.128386
1949.56	-0.0119333
1951.04	0.329166
1952.53	0.342199
1954.01	0.199999
1955.49	0.0579462
1956.97	0.0709548
1958.45	-0.293067
1959.93	0.0300164
1961.41	-0.109722
1962.89	-0.163499
1964.37	0.210931
1965.85	0.0195069
1967.33	-0.00111771
1968.81	-0.15906
1970.29	0.212607
1971.77	0.156545
1973.24	-0.13842
1974.72	-0.279379
1976.2	0.142439
1977.68	0.172085
1979.15	0.0656061
1980.63	-0.346923
1982.11	-0.045115
1983.58	-0.0327229
1985.06	0.352785
1986.53	0.211762
1988.01	0.409871
1989.48	0.0660834
1990.96	0.0787048
1992.43	-0.212351
1993.91	-0.0966125
1995.38	-0.0986176
1996.86	0.0348659
1998.33	0.269553
1999.8	-0.0871501
2001.27	-0.00530243
2002.75	0.00861788
2004.22	0.140436
2005.69	0.103915
2007.16	0.303845
2008.64	0.23502
2010.11	-0.00141811
2011.58	0.0151329
2013.05	-0.0356126
2014.52	0.182567
2015.99	-0.289758
2017.46	0.22977
2018.93	0.294336
2020.4	0.123172
2021.87	0.170397
2023.34	-0.45354
2024.8	0.114934
2026.27	0.0130482
2027.74	-0.104419
2029.21	-0.0865235
2030.68	-0.000470161
2032.14	0.136734
2033.61	0.324777
2035.08	-0.00767565
2036.54	0.415298
2038.01	0.165944
2039.48	0.134646
2040.94	0.355463
2042.41	0.0890894
2043.87	-0.294563
2045.34	-0.273959
2046.8	0.083972
2048.27	0.0213823
2049.73	0.430362
2051.19	0.552224
2052.66	0.217488
2054.12	0.0667124
2055.58	0.0326128
2057.05	0.0311751
2058.51	0.07968
2059.97	0.1112
2061.43	-0.0421658
2062.9	0.293359
2064.36	0.444445
2065.82	0.209271
2067.28	0.210401
2068.74	-0.242433
2070.2	-0.00496817
2071.66	0.569321
2073.12	-0.0181551
2074.58	-0.0502701
2076.04	0.102597
2077.5	-0.334222
2078.95	0.0706606
2080.41	0.289914
2081.87	-0.0805926
2083.33	0.390139
2084.79	0.136444
2086.24	0.336509
2087.7	0.0819454
2089.16	0.0961843
2090.61	0.00947094
2092.07	0.0571003
2093.53	-0.130299
2094.98	0.621413
2096.44	0.315976
2097.89	-0.0230985
2099.35	0.0729589
2100.8	0.268972
2102.26	-0.0531077
2103.71	-0.023407
2105.16	0.15747
2106.62	0.406016
2108.07	0.421753
2109.53	0.287669
2110.98	0.203215
2112.43	0.417686
2113.88	0.214244
2115.33	0.359247
2116.79	0.453433
2118.24	0.597579
2119.69	0.377491
2121.14	-0.0895982
2122.59	-0.156814
2124.04	0.440378
2125.49	0.67317
2126.94	-0.0227704
2128.39	0.275294
2129.84	0.290403
2131.29	0.271357
2132.74	0.483448
2134.19	0.397534
2135.63	0.775328
2137.08	0.592094
2138.53	0.509636
2139.98	0.610522
2141.43	0.481344
2142.87	0.534942
2144.32	0.407118
2145.77	0.179984
2147.21	0.730617
2148.66	0.85049
2150.1	0.621804
2151.55	0.607625
2152.99	0.692058
2154.44	0.775829
2155.88	0.842655
2157.33	1.10833
2158.77	0.331039
2160.21	0.880048
2161.66	0.966755
2163.1	0.85613
2164.55	0.978908
2165.99	0.853501
2167.43	0.89396
2168.87	0.767325
2170.31	0.822052
2171.76	0.741996
2173.2	1.07624
2174.64	0.860387
2176.08	1.32599
2177.52	0.777365
2178.96	0.944423
2180.4	1.07904
2181.84	0.665718
2183.28	0.934582
2184.72	0.837845
2186.16	0.458322
2187.6	1.22679
2189.04	1.14682
2190.47	0.850407
2191.91	0.670207
2193.35	0.839
2194.79	0.590462
2196.23	0.939753
2197.66	0.937747
2199.1	0.684912
2200.54	0.265458
2201.97	0.726432
2203.41	0.556879
2204.84	0.554235
2206.28	0.817598
2207.71	0.584167
2209.15	0.698513
2210.58	0.365235
2212.02	0.345809
2213.45	0.425006
2214.89	0.470974
2216.32	0.500882
2217.75	0.465692
2219.19	0.151194
2220.62	0.282682
2222.05	0.381217
2223.48	0.446152
2224.92	0.411111
2226.35	0.670908
2227.78	0.517937
2229.21	0.0521841
2230.64	0.407075
2232.07	0.0728025
2233.5	0.525162
2234.93	0.0942326
2236.36	0.236829
2237.79	0.217208
2239.22	0.492806
2240.65	0.54146
2242.08	0.281688
2243.51	0.283869
2244.94	0.302628
2246.37	0.451327
2247.79	0.0116043
2249.22	0.0758295
2250.65	0.480371
2252.08	0.264369
2253.5	0.243251
2254.93	0.108722
2256.36	0.072968
2257.78	0.233825
2259.21	0.202165
2260.63	-0.249056
2262.06	0.112882
2263.48	0.346458
2264.91	0.369251
2266.33	0.0177751
2267.76	-0.464837
2269.18	0.0767713
2270.6	0.308825
2272.03	0.0846877
2273.45	0.251194
2274.87	0.189785
2276.3	-0.00184011
2277.72	-0.0793295
2279.14	-0.124211
2280.56	0.254818
2281.98	0.11199
2283.41	-0.19412
2284.83	0.152418
2286.25	0.0585785
2287.67	-0.0840087
2289.09	-0.0140119
2290.51	0.0400071
2291.93	0.372193
2293.35	0.37767
2294.77	0.00681639
2296.19	-0.233479
2297.61	0.0336328
2299.02	0.137188
2300.44	0.0770831
2301.86	0.0991364
2303.28	0.236279
2304.7	-0.102349
2306.11	-0.0143824
2307.53	-0.00875568
2308.95	-0.00354862
2310.36	0.0669913
2311.78	-0.0930171
2313.2	0.158215
2314.61	-0.0673909
2316.03	-0.0126715
2317.44	0.0921254
2318.86	-0.247721
2320.27	0.319022
2321.69	0.208872
2323.1	-0.265944
2324.51	0.0495872
2325.93	0.627225
2327.34	0.460974
2328.76	0.689823
2330.17	0.226826
2331.58	0.440013
2332.99	0.258965
2334.41	-0.250384
2335.82	0.0631876
2337.23	-0.100697
2338.64	0.293726
2340.05	-0.085402
2341.46	0.175611
2342.87	0.189743
2344.28	-0.00934792
2345.69	-0.191568
2347.1	0.249046
2348.51	-0.0801911
2349.92	0.146859
2351.33	0.340274
2352.74	0.352927
2354.15	-0.255221
2355.56	0.00119495
2356.97	-0.052526
2358.37	0.0564857
2359.78	0.230348
2361.19	0.16048
2362.6	-0.00652695
2364	0.0858507
2365.41	0.0162125
2366.82	0.35089
2368.22	-0.0734062
2369.63	0.0361891
2371.03	0.162765
2372.44	0.483555
2373.84	-0.000294685
2375.25	-0.0488529
2376.65	-0.0654979
2378.06	-0.0668893
2379.46	-0.0534053
2380.86	0.167454
2382.27	0.226395
2383.67	0.108335
2385.07	0.118357
2386.48	0.136666
2387.88	0.155663
2389.28	0.470517
2390.69	0.164567
2392.09	0.130636
2393.49	0.0179768
2394.89	0.399091
2396.29	-0.0939193
2397.69	-0.172896
2399.09	-0.013061
2400.49	0.162969
2401.89	-0.105558
2403.29	-0.0563555
2404.69	-0.00746584
2406.09	0.278817
2407.49	0.135746
2408.89	-0.00781107
2410.29	0.00704098
2411.69	0.386443
2413.08	0.338599
2414.48	0.00684309
2415.88	0.388725
2417.28	0.138399
2418.67	0.062901
2420.07	0.0984974
2421.47	0.0864868
2422.86	0.137556
2424.26	0.109199
2425.65	0.207667
2427.05	-0.0104079
2428.45	0.120873
2429.84	-0.016643
2431.23	0.0842547
2432.63	0.153604
2434.02	0.238461
2435.42	-0.154131
2436.81	-0.277897
2438.2	0.21682
2439.6	-0.020299
2440.99	-0.448548
2442.38	-0.162569
2443.78	-0.146767
2445.17	-0.0993924
2446.56	-0.321701
2447.95	-0.1002
2449.34	0.26365
2450.73	0.199871
2452.13	0.152396
2453.52	0.200501
2454.91	0.154339
2456.3	-0.0336428
2457.69	0.0633569
2459.08	0.17602
2460.47	0.00353432
2461.85	0.0518336
2463.24	0.115294
2464.63	0.194053
2466.02	0.146173
2467.41	-0.185868
2468.8	0.318572
2470.19	0.191556
2471.57	0.0485349
2472.96	0.0784168
2474.35	0.1234
2475.73	-0.146785
2477.12	-0.118199
2478.51	0.0359359
2479.89	-0.233718
2481.28	0.187057
2482.66	0.215439
2484.05	-0.273187
2485.43	0.286208
2486.82	0.156182
2488.2	0.197223
2489.59	-0.0429211
2490.97	0.122094
2492.35	0.162756
2493.74	0.0954857
2495.12	0.075933
2496.5	-0.12861
2497.89	0.581599
2499.27	0.145661
2500.65	0.375122
2502.03	0.433585
2503.42	0.0433764
2504.8	0.100535
2506.18	0.0646472
2507.56	0.0132642
2508.94	0.0697036
2510.32	0.0802889
2511.7	-0.00070715
2513.08	0.0263419
2514.46	0.0999522
2515.84	0.189431
2517.22	-0.225384
2518.6	-0.0125198
2519.98	0.246082
2521.36	-0.04562
2522.73	-0.0932913
2524.11	-0.156795
2525.49	-0.31218
2526.87	0.263402
2528.25	-0.272318
2529.62	0.212297
2531	-0.0166965
2532.38	0.105229
2533.75	0.243346
2535.13	-0.134556
2536.5	0.171152
2537.88	0.233224
2539.25	0.203383
2540.63	0.233633
2542.01	0.384999
2543.38	0.157195
2544.75	-0.433875
2546.13	0.0530257
2547.5	0.449841
2548.88	0.361935
2550.25	0.0464101
2551.62	0.246387
2553	0.0510736
2554.37	0.264696
2555.74	0.371337
2557.11	0.325809
2558.49	-0.0533795
2559.86	0.143885
2561.23	0.235382
2562.6	0.206108
2563.97	0.177291
2565.34	0.224572
2566.71	0.135642
2568.08	0.243789
2569.45	0.170069
2570.82	0.308534
2572.19	0.310618
2573.56	0.297606
2574.93	0.102736
2576.3	0.438493
2577.67	0.334519
2579.03	0.184857
2580.4	0.444304
2581.77	0.0665741
2583.14	0.173761
2584.5	0.508134
2585.87	0.37249
2587.24	0.176339
2588.6	0.374402
2589.97	0.178495
2591.34	-0.0174985
2592.7	0.255873
2594.07	0.0589027
2595.43	0.315534
2596.8	0.359229
2598.16	0.674535
2599.53	-0.114481
2600.89	0.306288
2602.26	0.379645
2603.62	-0.044673
2604.98	-0.0306416
2606.35	-0.378518
2607.71	-0.213725
2609.07	0.327057
2610.44	0.489709
2611.8	-0.101438
2613.16	0.134515
2614.52	0.264271
2615.88	0.273508
2617.25	-0.31667
2618.61	0.128061
2619.97	0.228445
2621.33	-0.0744715
2622.69	0.221099
2624.05	0.27753
2625.41	0.00554276
2626.77	0.031949
2628.13	0.341165
2629.49	0.113656
2630.85	0.555816
2632.21	0.268764
2633.56	-0.196116
2634.92	0.0966349
2636.28	0.00331402
2637.64	0.117571
2639	0.172454
2640.35	0.256954
2641.71	0.47457
2643.07	0.219365
2644.42	0.230357
2645.78	0.300264
2647.14	0.119133
2648.49	0.040833
2649.85	0.271047
2651.2	0.441472
2652.56	0.141373
2653.91	0.106131
2655.27	0.20345
2656.62	0.242882
2657.98	0.122159
2659.33	0.250938
2660.68	0.0874596
2662.04	0.0993743
2663.39	0.140007
2664.74	0.267519
2666.1	-0.0870476
2667.45	-0.120822
2668.8	0.151166
2670.15	0.0591927
2671.5	-0.00316477
2672.86	0.211102
2674.21	0.280376
2675.56	0.306482
2676.91	0.245963
2678.26	0.316535
2679.61	-0.00376081
2680.96	-0.0186915
2682.31	0.170259
2683.66	0.0121441
2685.01	0.637952
2686.36	0.190766
2687.71	-0.0972285
2689.06	0.165396
2690.4	0.0638075
2691.75	0.381735
2693.1	0.39357
2694.45	0.187123
2695.8	0.125681
2697.14	0.0503011
2698.49	0.0194135
2699.84	0.0332527
2701.18	0.251147
2702.53	0.122648
2703.88	0.429585
2705.22	-0.103684
2706.57	0.0587959
2707.91	-0.0545025
2709.26	-0.0230417
2710.6	0.385726
2711.95	-0.0770602
2713.29	0.273499
2714.64	0.0718555
2715.98	0.233535
2717.32	0.264286
2718.67	0.163908
2720.01	0.266901
2721.35	-0.168911
2722.7	0.326308
2724.04	0.355435
2725.38	0.194984
2726.72	0.28167
2728.06	0.353531
2729.4	0.250552
2730.75	0.336632
2732.09	0.248077
2733.43	0.523275
2734.77	0.202189
2736.11	0.0558352
2737.45	0.0113983
2738.79	-0.0185237
2740.13	-0.0777273
2741.47	0.0662689
2742.81	0.253322
2744.15	0.0763993
2745.48	0.407566
2746.82	0.360567
2748.16	-0.238109
2749.5	0.179362
2750.84	0.219565
2752.17	0.390407
2753.51	0.184497
2754.85	-0.00665951
2756.19	0.19345
2757.52	0.205337
2758.86	0.362175
2760.19	0.215316
2761.53	0.300422
2762.86	0.038609
2764.2	-0.497856
2765.54	0.0363626
2766.87	0.136123
2768.2	-0.169873
2769.54	-0.0429158
2770.87	0.198418
2772.21	0.178438
2773.54	0.0855217
2774.88	0.223003
2776.21	0.475436
2777.54	0.00817633
2778.87	-0.0552812
2780.21	0.0972934
2781.54	-0.109108
2782.87	0.100988
2784.2	0.0382719
2785.53	0.161923
2786.87	-0.0152025
2788.2	-0.163097
2789.53	0.0331268
2790.86	0.258478
2792.19	-0.187713
2793.52	-0.0615544
2794.85	-0.0211906
2796.18	0.290361
2797.51	0.272761
2798.84	-0.473452
2800.17	0.307703
2801.49	-0.224441
2802.82	-0.000561714
2804.15	0.00911951
2805.48	-0.123982
2806.81	0.126894
2808.13	0.192029
2809.46	0.242521
2810.79	-0.0904446
2812.12	0.0458384
2813.44	0.0977468
2814.77	-0.161159
2816.09	0.148153
2817.42	-0.193732
2818.75	-0.0249224
2820.07	0.328135
2821.4	0.298136
2822.72	0.0975475
2824.05	0.264906
2825.37	0.1203
2826.7	0.131574
2828.02	0.454736
2829.35	-0.0286632
2830.67	0.0121403
2831.99	0.36452
2833.31	0.391252
2834.64	0.162949
2835.96	0.259799
2837.28	0.469385
2838.61	0.466344
2839.93	0.562139
2841.25	0.926594
2842.57	0.711704
2843.89	1.20407
2845.21	1.38607
2846.53	0.861969
2847.85	1.32745
2849.17	1.41136
2850.49	1.12754
2851.81	1.4652
2853.13	1.66105
2854.45	1.55979
2855.77	1.57143
2857.09	1.73845
2858.41	1.63711
2859.73	1.57815
2861.05	1.9003
2862.36	1.85501
2863.68	2.04935
2865	2.00351
2866.32	2.35265
2867.64	2.16594
2868.95	2.45911
2870.27	2.55517
2871.59	2.58085
2872.9	2.60628
2874.22	3.20872
2875.53	2.72527
2876.85	2.84662
2878.16	3.05156
2879.48	3.18572
2880.79	3.10921
2882.11	3.06164
2883.42	2.76227
2884.74	2.74475
2886.05	2.74178
2887.36	2.85116
2888.68	3.00218
2889.99	2.98409
2891.3	2.61473
2892.62	2.6236
2893.93	2.87047
2895.24	3.17347
2896.55	3.56096
2897.86	3.22153
2899.18	3.68067
2900.49	3.31503
2901.8	3.22965
2903.11	3.36827
2904.42	3.64687
2905.73	3.68796
2907.04	3.61767
2908.35	3.91182
2909.66	4.08091
2910.97	4.04068
2912.28	4.43433
2913.59	4.19741
2914.9	4.42119
2916.21	4.43337
2917.51	4.55609
2918.82	4.55193
2920.13	4.82739
2921.44	5.21519
2922.74	4.76527
2924.05	4.79202
2925.36	4.84778
2926.67	5.29552
2927.97	5.11425
2929.28	5.53377
2930.59	5.26775
2931.89	5.07122
2933.2	5.04224
2934.5	5.32074
2935.81	5.37573
2937.11	5.37497
2938.42	5.13685
2939.72	4.64751
2941.02	5.06693
2942.33	4.70464
2943.63	4.76269
2944.94	4.0391
2946.24	4.40697
2947.54	4.38391
2948.85	4.3746
2950.15	3.94422
2951.45	3.86218
2952.75	3.77851
2954.05	3.72167
2955.36	3.76255
2956.66	3.34236
2957.96	3.55384
2959.26	3.26372
2960.56	3.31194
2961.86	3.48814
2963.16	3.09002
2964.46	2.94355
2965.76	3.23122
2967.06	3.03994
2968.36	2.65061
2969.66	3.03389
2970.96	2.58744
2972.26	2.59124
2973.56	2.58128
2974.85	2.23348
2976.15	2.58899
2977.45	2.57743
2978.75	2.311
2980.05	2.36698
2981.34	1.88716
2982.64	2.06837
2983.94	2.06698
2985.23	1.98222
2986.53	1.6037
2987.83	1.97122
2989.12	1.84776
2990.42	1.64019
2991.71	1.75546
2993.01	1.01261
2994.3	1.36495
2995.6	1.32292
2996.89	0.999569
2998.19	1.18156
2999.48	1.0831
3000.77	0.620635
3002.07	0.593506
3003.36	0.945085
3004.65	0.470085
3005.95	0.961445
3007.24	0.752069
3008.53	0.472282
3009.82	0.373914
3011.12	0.722229
3012.41	0.357713
3013.7	0.440208
3014.99	0.299927
3016.28	0.355461
3017.57	0.0913568
3018.86	0.398474
3020.15	-0.0456147
3021.44	-0.155932
3022.73	0.0388479
3024.02	-0.0449114
3025.31	0.536391
3026.6	0.174677
3027.89	-0.0475354
3029.18	-0.199316
3030.47	-0.322069
3031.76	0.578383
3033.04	0.0847044
3034.33	-0.0219359
3035.62	-0.128882
3036.91	-0.0298643
3038.19	0.0952363
3039.48	0.108594
3040.77	-0.0579123
3042.05	-0.0873647
3043.34	-0.116696
3044.63	-0.0904613
3045.91	-0.00825977
3047.2	0.13018
3048.48	0.0928607
3049.77	-0.0109301
3051.05	-0.0315309
3052.34	-0.297052
3053.62	0.0787973
3054.91	-0.323485
3056.19	0.173825
3057.48	0.0974364
3058.76	-0.00666618
3060.04	-0.0154591
3061.33	0.125816
3062.61	-0.099452
3063.89	0.0572891
3065.17	0.228823
3066.46	0.143219
3067.74	0.0992208
3069.02	0.300363
3070.3	-0.246638
3071.59	0.348203
3072.87	0.357283
3074.15	0.0935516
3075.43	0.0603814
3076.71	0.393734
3077.99	0.143545
3079.27	0.057323
3080.55	-0.000470161
3081.83	0.105808
3083.11	0.267408
3084.39	-0.0316668
3085.67	0.171414
3086.94	0.0485206
3088.22	-0.0748558
3089.5	-0.212207
3090.78	0.0301623
3092.06	0.272424
3093.34	-0.0141797
3094.61	0.242088
3095.89	-0.0166507
3097.17	0.145093
3098.44	0.184837
3099.72	0.210998
3101	0.0339856
3102.27	-0.156318
3103.55	0.141179
3104.82	0.425501
3106.1	0.412684
3107.38	0.170661
3108.65	0.26788
3109.93	0.176562
3111.2	0.505788
3112.47	-0.0309358
3113.75	0.164085
3115.02	-0.00668573
3116.3	0.486645
3117.57	0.0980039
3118.84	0.346045
3120.12	0.484791
3121.39	0.0669813
3122.66	0.448714
3123.93	0.193448
3125.2	0.588573
3126.48	0.523691
3127.75	0.567659
3129.02	0.503914
3130.29	0.562312
3131.56	0.688463
3132.83	0.54428
3134.1	0.670134
3135.37	0.512105
3136.64	0.907055
3137.91	0.357499
3139.18	0.307006
3140.45	0.808445
3141.72	0.74444
3142.99	0.519672
3144.26	0.953633
3145.53	0.985123
3146.8	0.936816
3148.07	0.755309
3149.33	0.654971
