200.419	0.719984
202.234	0.7358
204.048	0.752963
205.862	0.771113
207.678	0.716681
209.491	0.710436
211.304	0.19313
213.116	0.888849
214.928	0.321295
216.742	0.141838
218.554	-0.085742
220.365	0.171641
222.176	0.550548
223.986	1.00249
225.798	0.246343
227.608	0.505509
229.417	0.257059
231.226	0.201422
233.035	-0.143923
234.843	-0.777979
236.653	-0.229295
238.46	0.634352
240.268	0.584485
242.074	0.343959
243.881	0.442325
245.687	0.46839
247.493	0.951776
249.298	0.587626
251.103	0.437752
252.908	1.05761
254.715	0.493147
256.519	0.073494
258.322	0.474378
260.126	0.900675
261.929	0.196566
263.731	-0.264984
265.534	0.310455
267.336	0.476796
269.137	-0.0561152
270.938	-0.421171
272.739	-0.136319
274.54	0.0990534
276.34	0.188241
278.14	0.0346966
279.939	-0.0723953
281.739	0.227943
283.537	0.550117
285.336	0.630063
287.134	0.373069
288.932	0.668065
290.729	-0.0428696
292.526	0.972013
294.323	0.360472
296.117	0.420505
297.913	0.792287
299.709	-0.0780191
301.504	0.00748062
303.299	0.116055
305.093	0.509782
306.888	-0.1234
308.682	-0.565388
310.475	-0.0772219
312.268	0.0305452
314.059	0.330274
315.852	0.465068
317.644	0.101536
319.436	0.668403
321.227	0.235881
323.018	-0.00551891
324.807	0.206586
326.597	0.490746
328.387	0.72729
330.177	0.820067
331.967	0.792222
333.753	0.427702
335.542	0.778893
337.331	0.505724
339.119	0.0870676
340.906	0.575951
342.691	0.418223
344.478	0.33227
346.265	0.437948
348.051	0.400983
349.835	0.173562
351.621	0.328201
353.406	0.506139
355.189	0.873813
356.973	0.310023
358.757	0.3413
360.541	-0.128654
362.323	0.210289
364.106	-0.046423
365.889	0.243053
367.669	0.198993
369.451	-0.248876
371.233	0.5351
373.012	0.559574
374.793	0.181884
376.574	-0.666994
378.353	0.0663347
380.133	-0.23751
381.91	0.307611
383.69	0.194544
385.469	-0.0346775
387.245	0.0194416
389.024	0.379971
390.8	0.295037
392.577	-0.352682
394.353	0.550169
396.129	0.138289
397.906	-0.0151567
399.68	0.324468
401.456	0.217473
403.23	0.156869
405.005	0.30698
406.778	0.644218
408.552	0.0886164
410.325	0.0258636
412.099	0.0805216
413.87	-0.00524235
415.643	0.144316
417.414	0.458875
419.187	0.304794
420.957	0.244818
422.728	0.231583
424.498	-0.416142
426.269	0.0856361
428.038	0.985697
429.806	0.641086
431.576	-0.360641
433.344	0.304368
435.114	0.218673
436.881	-0.289481
438.649	0.234432
440.416	-0.0408869
442.182	0.292008
443.949	0.13028
445.715	0.154446
447.48	0.0136108
449.247	0.176581
451.011	0.152444
452.777	0.15201
454.541	-0.174744
456.304	-0.31452
458.069	0.314334
459.832	0.616483
461.594	-0.081089
463.358	0.0602951
465.119	-0.0518398
466.881	0.00129986
468.642	0.498567
470.404	0.0213947
472.165	0.335451
473.925	0.160288
475.684	-0.272834
477.445	-0.0092411
479.204	0.159519
480.963	-0.185102
482.721	-0.156909
484.481	0.244977
486.239	-0.21322
487.996	0.122624
489.753	0.274173
491.511	0.100157
493.268	-0.213731
495.023	0.781636
496.779	0.421124
498.534	0.504851
500.289	0.119296
502.046	-0.0562534
503.8	0.095953
505.554	0.317858
507.307	0.303607
509.06	0.452602
510.813	1.07078
512.566	0.769846
514.32	0.514526
516.072	-0.188979
517.823	0.564896
519.574	0.353465
521.325	0.23551
523.076	-0.0941181
524.826	0.538737
526.576	0.279472
528.325	0.41911
530.074	0.581958
531.823	0.884804
533.572	0.929058
535.32	1.15925
537.068	0.546368
538.815	0.680405
540.562	1.16284
542.309	0.665063
544.056	0.866056
545.802	0.625047
547.547	0.872188
549.293	0.423546
551.038	0.416117
552.783	0.3395
554.527	0.448098
556.271	0.625987
558.015	0.803905
559.759	0.22169
561.502	0.953156
563.245	0.372925
564.987	0.437713
566.729	0.617883
568.471	0.155789
570.213	0.245876
571.954	0.405983
573.693	-0.625266
575.433	0.730839
577.173	0.436865
578.913	-0.0396919
580.652	-0.332234
582.392	0.0184593
584.13	0.185122
585.867	-0.0859509
587.605	-0.105235
589.343	0.150496
591.08	-0.284808
592.817	0.0386629
594.552	0.269955
596.289	-0.280955
598.025	0.272453
599.761	-0.163724
601.496	0.0435562
603.229	-0.141301
604.964	0.155469
606.699	0.221026
608.433	-0.426121
610.165	0.350304
611.898	0.392249
613.631	0.136829
615.364	0.248947
617.095	-0.119955
618.827	-0.0996685
620.559	0.263038
622.288	0.075202
624.02	0.915534
625.75	0.384033
627.479	0.424932
629.209	0.262184
630.939	-0.194981
632.667	0.536273
634.396	0.332974
636.125	0.585908
637.851	0.243824
639.58	0.789465
641.305	-0.0138273
643.033	0.09342
644.76	0.381493
646.485	0.350818
648.212	0.480967
649.936	0.681993
651.662	0.659294
653.388	0.526582
655.111	0.328563
656.836	0.36
658.558	0.643121
660.283	0.33325
662.005	0.980567
663.728	-0.361474
665.45	0.533525
667.173	0.283966
668.893	0.353793
670.616	0.584342
672.336	0.359086
674.057	-0.11614
675.777	0.624515
677.498	0.312342
679.216	0.45903
680.937	0.743092
682.655	0.266775
684.375	0.61665
686.092	0.941974
687.809	0.25256
689.528	0.897973
691.244	0.460123
692.962	0.182953
694.678	1.17194
696.393	0.248405
698.111	0.751563
699.825	0.125691
701.54	1.31627
703.256	0.711811
704.97	0.291251
706.685	0.444586
708.398	1.0101
710.111	0.589079
711.826	0.809448
713.538	0.640315
715.25	0.699826
716.961	0.804846
718.675	0.727257
720.386	0.581599
722.096	0.595748
723.808	0.99671
725.518	0.760365
727.228	0.41061
728.937	0.605746
730.648	0.845448
732.357	0.699329
734.065	0.937951
735.773	1.15353
737.483	0.601271
739.19	0.637204
740.897	1.16985
742.604	0.328698
744.31	0.345267
746.018	0.655558
747.724	0.719379
749.429	1.32418
751.134	1.07535
752.839	0.917673
754.544	0.873667
756.248	0.853447
757.953	0.204131
759.657	1.22248
761.36	1.40903
763.063	1.00973
764.765	1.24184
766.468	1.11175
768.169	1.81629
769.871	1.79571
771.572	1.72794
773.273	1.52312
774.976	1.97357
776.676	1.31656
778.376	1.65558
780.075	0.910527
781.775	1.68184
783.474	2.0691
785.172	2.0028
786.871	1.57209
788.569	1.7949
790.266	1.47161
791.964	2.02771
793.661	1.04582
795.358	1.75738
797.054	2.06275
798.75	1.62597
800.446	0.69626
802.141	0.916108
803.834	1.67612
805.529	1.80596
807.224	1.46307
808.918	1.54617
810.612	1.71785
812.305	1.64175
813.998	1.61005
815.691	1.60054
817.384	2.1502
819.076	1.55919
820.766	1.41593
822.458	1.4071
824.149	2.02328
825.84	2.23887
827.531	0.89707
829.221	1.62948
830.909	1.47369
832.599	1.27581
834.288	1.99357
835.977	1.01797
837.666	1.46939
839.353	2.59014
841.041	1.45426
842.729	1.34423
844.416	1.50184
846.103	1.59301
847.788	1.59636
849.475	1.95988
851.161	1.0723
852.845	1.66409
854.53	2.12337
856.216	1.81978
857.901	1.87429
859.583	2.8274
861.268	2.06881
862.952	2.38909
864.633	2.55062
866.317	2.57606
868	2.05966
869.681	1.90344
871.363	0.912229
873.045	1.3644
874.725	1.92943
876.406	1.68221
878.088	1.36721
879.767	1.14233
881.447	1.5266
883.125	1.12011
884.805	1.18674
886.483	1.22956
888.162	1.54169
889.841	1.26579
891.518	0.988863
893.196	1.11651
894.872	0.972898
896.55	0.896042
898.225	0.79602
899.902	0.897283
901.577	1.3785
903.254	1.05245
904.928	1.28576
906.604	1.51867
908.277	0.837513
909.952	0.849007
911.625	1.15046
913.3	1.02964
914.972	1.10921
916.646	1.03339
918.318	1.42307
919.991	1.23641
921.662	1.0727
923.333	1.39654
925.005	1.56672
926.675	1.53968
928.347	1.38177
930.017	1.60021
931.686	1.42208
933.357	1.24424
935.025	1.00043
936.693	0.779084
938.363	0.845188
940.031	1.08877
941.698	0.980501
943.367	0.630109
945.034	0.367721
946.7	1.23011
948.368	1.14181
950.034	0.787014
951.699	0.938749
953.367	0.737514
955.031	0.405348
956.696	0.670841
958.36	0.69649
960.026	0.879037
961.689	1.48286
963.353	-0.0124359
965.016	1.20944
966.68	1.0141
968.343	0.838338
970.005	0.52801
971.666	0.48244
973.328	0.304532
974.991	0.835447
976.652	0.461176
978.312	-0.000475883
979.972	0.334782
981.632	0.669931
983.292	0.605619
984.953	0.362577
986.612	0.560534
988.27	0.513493
989.929	1.01824
991.587	0.858854
993.244	0.54487
994.902	0.628654
996.559	0.778621
998.216	0.774049
999.872	1.16593
1001.53	1.05046
1003.19	0.912753
1004.84	0.862911
1006.5	0.988821
1008.15	0.214303
1009.81	0.757788
1011.46	0.730725
1013.11	0.901332
1014.77	0.918745
1016.42	1.08972
1018.07	0.801472
1019.73	0.820367
1021.38	0.402866
1023.03	1.01385
1024.68	0.357864
1026.34	0.445518
1027.99	0.773522
1029.64	1.05721
1031.29	1.29602
1032.94	0.921962
1034.59	0.917725
1036.24	0.694252
1037.89	0.818949
1039.53	0.921576
1041.18	0.937591
1042.83	0.976439
1044.48	1.88584
1046.13	1.14563
1047.77	1.47159
1049.42	0.865168
1051.07	0.954807
1052.71	1.69693
1054.36	0.940377
1056	0.987652
1057.65	0.578177
1059.3	-0.00579453
1060.94	0.866445
1062.59	0.194228
1064.23	0.760653
1065.87	0.130373
1067.52	0.890432
1069.16	0.410788
1070.8	0.929916
1072.44	0.254584
1074.09	0.404714
1075.73	0.815861
1077.37	0.100224
1079.01	0.513395
1080.65	0.62359
1082.29	0.45189
1083.93	0.756499
1085.57	0.409329
1087.21	0.169051
1088.85	0.685219
1090.49	0.160599
1092.13	0.349246
1093.77	0.601882
1095.41	0.422655
1097.04	0.610886
1098.68	0.390672
1100.32	0.710379
1101.95	1.20353
1103.59	0.622316
1105.23	0.580197
1106.86	0.431049
1108.5	0.34621
1110.13	0.755027
1111.77	0.474489
1113.4	-0.172339
1115.04	0.382773
1116.67	0.0356197
1118.31	0.567957
1119.94	0.564543
1121.57	0.47631
1123.2	1.03113
1124.84	0.773367
1126.47	0.644847
1128.1	0.303204
1129.73	0.454032
1131.36	0.797709
1132.99	0.991942
1134.62	0.523385
1136.25	1.18715
1137.88	0.866823
1139.51	0.844664
1141.14	0.672179
1142.77	0.0512867
1144.4	-0.0356903
1146.03	0.62409
1147.66	0.175978
1149.28	0.538444
1150.91	0.155637
1152.54	0.347987
1154.16	0.433507
1155.79	0.476066
1157.42	0.00785637
1159.04	0.901454
1160.67	0.0941324
1162.29	0.0746708
1163.92	0.396202
1165.54	-0.0685349
1167.17	0.529629
1168.79	0.276454
1170.41	-0.360572
1172.04	-0.255067
1173.66	0.0400314
1175.28	0.0366993
1176.9	0.117729
1178.53	0.219947
1180.15	0.132059
1181.77	-0.293458
1183.39	-0.252829
1185.01	0.379428
1186.63	0.397787
1188.25	0.478075
1189.87	0.577642
1191.49	0.822736
1193.11	0.35103
1194.73	0.299816
1196.35	0.122935
1197.96	-0.0108566
1199.58	0.0870914
1201.2	0.228487
1202.82	0.517962
1204.43	0.475357
1206.05	0.434573
1207.66	0.165436
1209.28	-0.0825348
1210.9	0.0443687
1212.51	0.294968
1214.13	0.39768
1215.74	0.352654
1217.36	0.680651
1218.97	0.404464
1220.58	0.336313
1222.2	0.22736
1223.81	0.3268
1225.42	0.530824
1227.04	0.818605
1228.65	0.96249
1230.26	0.69383
1231.87	0.61237
1233.48	0.821294
1235.1	0.617876
1236.71	0.518789
1238.32	0.833976
1239.93	0.756982
1241.53	1.40403
1243.14	1.30633
1244.75	1.7252
1246.36	1.14996
1247.97	1.04973
1249.58	1.17644
1251.19	1.05457
1252.8	0.705374
1254.4	0.522283
1256.01	0.608949
1257.62	0.944888
1259.22	1.21986
1260.83	0.854088
1262.43	0.944018
1264.04	1.53121
1265.64	1.26884
1267.25	1.08858
1268.85	2.02696
1270.46	1.63765
1272.06	1.26806
1273.66	1.10492
1275.27	1.16898
1276.87	0.96281
1278.48	1.33608
1280.08	1.66708
1281.68	1.66636
1283.28	1.23128
1284.88	1.08653
1286.48	1.45945
1288.08	0.841002
1289.68	1.23614
1291.28	1.52832
1292.88	1.0559
1294.48	0.91351
1296.08	1.18317
1297.68	1.1829
1299.28	1.34625
1300.88	1.1988
1302.48	1.02991
1304.07	1.70427
1305.67	1.55429
1307.27	1.30147
1308.87	0.946328
1310.46	1.14526
1312.06	2.06061
1313.65	1.89083
1315.25	1.00709
1316.85	1.37109
1318.44	1.55141
1320.03	1.73137
1321.63	1.76765
1323.22	1.55828
1324.82	1.38846
1326.41	1.44113
1328	1.57422
1329.6	1.78842
1331.19	1.57878
1332.78	1.71503
1334.37	0.924294
1335.96	1.40724
1337.56	0.881738
1339.15	1.08194
1340.74	1.30064
1342.33	1.67812
1343.92	1.69123
1345.51	1.38207
1347.1	2.01612
1348.69	1.18807
1350.28	1.20424
1351.86	1.08256
1353.45	1.36263
1355.04	1.40381
1356.63	1.80498
1358.21	1.0669
1359.8	1.78624
1361.39	1.14675
1362.97	1.12558
1364.56	1.06424
1366.15	1.40164
1367.73	1.30125
1369.32	1.20199
1370.9	1.14381
1372.49	1.12662
1374.07	0.89153
1375.65	0.995274
1377.24	1.3976
1378.82	1.08315
1380.41	0.568907
1381.99	0.86937
1383.57	1.268
1385.15	1.32752
1386.73	1.50576
1388.32	1.12794
1389.9	0.671599
1391.48	0.9902
1393.06	1.48783
1394.64	0.676553
1396.22	1.25352
1397.8	0.977191
1399.38	0.819097
1400.96	0.997026
1402.54	0.897135
1404.11	1.13363
1405.69	1.46916
1407.27	1.15289
1408.85	0.936386
1410.43	1.74758
1412	1.13652
1413.58	1.15702
1415.16	1.51214
1416.73	0.742078
1418.31	0.800308
1419.88	1.2133
1421.46	1.6268
1423.03	1.84454
1424.61	1.68974
1426.18	1.49675
1427.76	1.67822
1429.33	2.09567
1430.9	1.86276
1432.48	1.94369
1434.05	2.12205
1435.62	2.33919
1437.2	2.16316
1438.77	2.73483
1440.34	2.34423
1441.91	2.03323
1443.48	2.11595
1445.05	2.23835
1446.62	2.16437
1448.19	1.75634
1449.76	2.72463
1451.33	2.35658
1452.9	2.57888
1454.47	2.86067
1456.04	2.72936
1457.61	2.26284
1459.17	2.48386
1460.74	1.99479
1462.31	2.54688
1463.88	2.21206
1465.44	1.71927
1467.01	1.40347
1468.58	1.91289
1470.14	1.91237
1471.71	1.91287
1473.27	1.42403
1474.84	1.44591
1476.4	1.8603
1477.97	1.15723
1479.53	1.21875
1481.1	1.31936
1482.66	1.65503
1484.22	1.14794
1485.78	1.48309
1487.35	2.28747
1488.91	1.56302
1490.47	1.50286
1492.03	1.28443
1493.59	1.29885
1495.16	1.25311
1496.72	0.816805
1498.28	1.56843
1499.84	1.23025
1501.4	0.71907
1502.96	0.908126
1504.52	0.981318
1506.08	0.667458
1507.64	0.701785
1509.19	0.50338
1510.75	0.960535
1512.31	0.76059
1513.87	0.445337
1515.42	0.74612
1516.98	1.3154
1518.54	0.675917
1520.1	0.440626
1521.65	0.780064
1523.21	0.506849
1524.76	0.787286
1526.32	0.913648
1527.87	0.86752
1529.43	-0.0156083
1530.98	1.00248
1532.54	0.520196
1534.09	0.342881
1535.64	0.469459
1537.2	0.483137
1538.75	0.459603
1540.3	0.719272
1541.85	0.601743
1543.41	0.484369
1544.96	0.479868
1546.51	0.982317
1548.06	0.864418
1549.61	0.559285
1551.16	0.685578
1552.71	0.363071
1554.26	0.901629
1555.81	0.93619
1557.36	0.673513
1558.91	0.65522
1560.46	0.470568
1562.01	0.697628
1563.56	0.160699
1565.1	1.32205
1566.65	0.748291
1568.2	0.790105
1569.75	1.14892
1571.29	1.1528
1572.84	1.00709
1574.38	1.49593
1575.93	0.827413
1577.48	0.999088
1579.02	1.18978
1580.57	0.671484
1582.11	0.676548
1583.65	0.757001
1585.2	0.950226
1586.74	0.975749
1588.29	1.22585
1589.83	1.36372
1591.37	1.16439
1592.92	1.13303
1594.46	1.19506
1596	0.938632
1597.54	1.35708
1599.08	1.15765
1600.62	0.808558
1602.16	1.52929
1603.7	1.06773
1605.24	1.09364
1606.78	1.36276
1608.32	1.17928
1609.86	1.40735
1611.4	1.70851
1612.94	1.2565
1614.48	1.23553
1616.02	1.38301
1617.56	0.949585
1619.09	1.07962
1620.63	0.986027
1622.17	1.39915
1623.71	1.38225
1625.24	0.859992
1626.78	1.38534
1628.31	0.899057
1629.85	0.916929
1631.39	1.51329
1632.92	0.950549
1634.46	1.19138
1635.99	1.05945
1637.52	0.909745
1639.06	1.15217
1640.59	1.76721
1642.12	1.56156
1643.66	1.46688
1645.19	1.48292
1646.72	1.2936
1648.25	1.58739
1649.79	1.23116
1651.32	1.41435
1652.85	2.08063
1654.38	1.37533
1655.91	1.70902
1657.44	1.50511
1658.97	1.39332
1660.5	1.61375
1662.03	1.49968
1663.56	1.32933
1665.09	1.52814
1666.62	1.87456
1668.15	1.57591
1669.67	1.38949
1671.2	1.37033
1672.73	1.09424
1674.26	0.929188
1675.79	1.07702
1677.31	1.02168
1678.84	0.836722
1680.36	1.27623
1681.89	1.45732
1683.42	1.60115
1684.94	0.992471
1686.47	0.54989
1687.99	0.91464
1689.51	1.02284
1691.04	0.838178
1692.56	0.306054
1694.08	0.999928
1695.61	0.394939
1697.13	0.393365
1698.65	0.464568
1700.18	0.279845
1701.7	0.45971
1703.22	0.201482
1704.74	0.525938
1706.26	0.431014
1707.78	0.426908
1709.3	0.38641
1710.82	0.418628
1712.35	0.197062
1713.86	0.229638
1715.39	-0.172268
1716.9	0.312752
1718.42	0.110088
1719.94	0.413315
1721.46	0.607907
1722.98	0.207675
1724.5	0.0790272
1726.01	0.131588
1727.53	0.0411105
1729.05	0.365327
1730.56	0.277202
1732.08	0.350856
1733.6	0.173547
1735.11	0.073741
1736.63	0.121326
1738.14	0.204741
1739.66	0.264809
1741.17	0.297243
1742.69	0.430192
1744.2	0.117686
1745.71	0.210299
1747.23	0.370784
1748.74	-0.223752
1750.25	0.0643511
1751.77	-0.0520973
1753.28	0.0363965
1754.79	0.314582
1756.3	0.161371
1757.81	0.162938
1759.33	-0.354342
1760.84	-0.144029
1762.35	0.0791421
1763.86	0.017652
1765.37	-0.227137
1766.88	-0.0508924
1768.39	-0.225141
1769.9	0.410501
1771.41	-0.211393
1772.91	0.00901175
1774.42	0.191997
1775.93	0.174754
1777.44	-0.0616322
1778.95	0.0814686
1780.45	0.166781
1781.96	0.396087
1783.47	0.335309
1784.97	0.499365
1786.48	0.15174
1787.99	0.0349865
1789.49	0.0389147
1791	0.170072
1792.5	0.200833
1794.01	0.125502
1795.51	0.241014
1797.01	0.390786
1798.52	0.157111
1800.02	-0.0840058
1801.52	0.227519
1803.03	-0.0301929
1804.53	0.444451
1806.03	0.379076
1807.54	0.25977
1809.04	0.246978
1810.54	0.523448
1812.04	0.211721
1813.54	0.0195665
1815.04	0.552736
1816.54	-0.0291586
1818.04	-0.0291414
1819.54	0.252564
1821.04	-0.0945821
1822.54	0.031848
1824.04	0.122002
1825.54	0.287885
1827.04	0.121271
1828.54	0.126506
1830.03	0.115794
1831.53	0.319451
1833.03	0.322677
1834.53	0.245296
1836.02	0.179169
1837.52	0.00180531
1839.02	0.198923
1840.51	0.324348
1842.01	0.398381
1843.5	0.204152
1845	0.135198
1846.49	0.374088
1847.99	0.0256715
1849.48	0.0774236
1850.98	0.30968
1852.47	0.235877
1853.96	0.151123
1855.46	0.384967
1856.95	0.231689
1858.44	-0.0709858
1859.94	0.0239277
1861.43	0.00276995
1862.92	-0.0934572
1864.41	0.327065
1865.9	0.268769
1867.39	0.0948343
1868.88	0.166993
1870.37	0.347325
1871.86	0.516279
1873.35	0.065598
1874.84	0.0624123
1876.33	-0.175458
1877.82	-0.0974669
1879.31	-0.286604
1880.8	0.0415263
1882.29	0.188448
1882.58	0.200494
1884.08	0.461074
1885.57	0.354874
1887.06	0.544147
1888.56	-0.0330944
1890.05	0.382139
1891.54	-0.0369463
1893.04	0.327894
1894.53	0.224694
1896.02	0.470472
1897.51	0.195246
1899	-0.0106273
1900.5	-0.0955887
1901.99	0.235685
1903.48	0.0958762
1904.97	0.337465
1906.46	0.178602
1907.95	0.106726
1909.44	-0.0166616
1910.93	0.0689907
1912.42	0.467535
1913.91	0.120592
1915.4	0.276706
1916.88	0.519166
1918.37	0.345092
1919.86	0.188093
1921.35	0.221661
1922.84	0.37676
1924.32	0.307456
1925.81	0.377584
1927.3	0.240829
1928.78	0.277698
1930.27	0.349158
1931.75	-0.0476069
1933.24	0.195189
1934.72	0.22875
1936.21	0.0879421
1937.69	-0.0882025
1939.18	0.0465508
1940.66	0.233176
1942.15	0.247698
1943.63	0.263052
1945.11	-0.169261
1946.6	0.0712833
1948.08	0.380411
1949.56	0.292496
1951.04	0.100549
1952.53	-0.177933
1954.01	-0.0266085
1955.49	0.22756
1956.97	-0.359715
1958.45	0.135454
1959.93	-0.0726309
1961.41	0.251436
1962.89	-0.384446
1964.37	0.0594029
1965.85	-0.13115
1967.33	0.0887208
1968.81	0.239407
1970.29	0.150131
1971.77	0.214492
1973.24	-0.318642
1974.72	0.0700536
1976.2	0.0493031
1977.68	0.250128
1979.15	0.14439
1980.63	0.0727839
1982.11	0.205113
1983.58	0.184143
1985.06	0.502386
1986.53	0.0398045
1988.01	0.459136
1989.48	0.200757
1990.96	0.129435
1992.43	-0.0594363
1993.91	0.361239
1995.38	0.37666
1996.86	0.172802
1998.33	-0.166072
1999.8	0.372805
2001.27	0.218898
2002.75	0.0647411
2004.22	0.298368
2005.69	0.0265579
2007.16	0.429296
2008.64	0.394752
2010.11	0.226242
2011.58	0.192865
2013.05	0.428823
2014.52	0.19316
2015.99	-0.228086
2017.46	0.107048
2018.93	0.0714421
2020.4	0.0522475
2021.87	0.419214
2023.34	0.0811276
2024.8	-0.00435448
2026.27	0.431129
2027.74	0.230301
2029.21	0.45
2030.68	0.234663
2032.14	0.238138
2033.61	0.241989
2035.08	0.46413
2036.54	0.266125
2038.01	0.403647
2039.48	0.204774
2040.94	0.0225959
2042.41	-0.0921054
2043.87	0.281495
2045.34	0.0839715
2046.8	0.156229
2048.27	0.195098
2049.73	0.183162
2051.19	0.473899
2052.66	0.25759
2054.12	0.20843
2055.58	0.360249
2057.05	-0.230808
2058.51	0.2227
2059.97	0.119903
2061.43	0.573147
2062.9	0.589136
2064.36	0.101064
2065.82	0.0514264
2067.28	0.170731
2068.74	0.223182
2070.2	0.0233879
2071.66	-0.142745
2073.12	0.212934
2074.58	-0.00405359
2076.04	0.0312734
2077.5	0.268406
2078.95	0.252619
2080.41	0.23647
2081.87	0.741801
2083.33	0.152277
2084.79	0.218749
2086.24	0.335065
2087.7	0.131336
2089.16	0.297198
2090.61	0.865854
2092.07	0.090817
2093.53	0.0715809
2094.98	0.30371
2096.44	0.166459
2097.89	0.296834
2099.35	0.225713
2100.8	0.238079
2102.26	0.400998
2103.71	0.113511
2105.16	0.294662
2106.62	0.00961161
2108.07	0.325952
2109.53	0.275535
2110.98	0.341388
2112.43	0.32283
2113.88	0.186389
2115.33	0.365055
2116.79	0.492862
2118.24	0.670557
2119.69	0.118793
2121.14	0.332283
2122.59	0.331517
2124.04	0.845926
2125.49	0.46536
2126.94	0.383061
2128.39	0.515474
2129.84	0.398158
2131.29	0.644287
2132.74	0.740554
2134.19	0.605113
2135.63	0.569677
2137.08	0.419758
2138.53	0.337468
2139.98	0.686346
2141.43	0.292746
2142.87	0.677033
2144.32	0.81397
2145.77	0.769063
2147.21	0.922554
2148.66	0.678115
2150.1	0.283743
2151.55	1.01515
2152.99	0.867679
2154.44	0.437886
2155.88	0.769883
2157.33	1.01906
2158.77	0.655931
2160.21	1.02275
2161.66	0.695174
2163.1	0.949088
2164.55	0.872717
2165.99	1.31159
2167.43	1.03655
2168.87	0.893246
2170.31	1.04772
2171.76	1.15065
2173.2	0.985809
2174.64	0.853146
2176.08	0.769973
2177.52	0.85328
2178.96	0.920561
2180.4	0.972004
2181.84	0.808012
2183.28	1.11007
2184.72	1.16297
2186.16	1.28249
2187.6	1.26895
2189.04	0.939241
2190.47	0.975585
2191.91	0.612154
2193.35	1.11383
2194.79	0.948443
2196.23	0.731674
2197.66	0.879488
2199.1	0.776354
2200.54	0.755613
2201.97	0.668402
2203.41	0.697989
2204.84	0.61235
2206.28	0.825929
2207.71	0.791237
2209.15	0.938558
2210.58	0.803722
2212.02	0.668215
2213.45	1.1108
2214.89	0.71031
2216.32	0.459427
2217.75	0.407699
2219.19	0.637323
2220.62	0.55423
2222.05	0.30646
2223.48	0.601955
2224.92	0.69847
2226.35	0.365659
2227.78	0.591045
2229.21	0.289443
2230.64	0.398019
2232.07	0.506182
2233.5	0.123317
2234.93	0.771938
2236.36	0.293099
2237.79	0.175397
2239.22	0.304033
2240.65	0.417803
2242.08	0.108885
2243.51	0.0944896
2244.94	0.259766
2246.37	0.310338
2247.79	0.441197
2249.22	0.390946
2250.65	0.0783587
2252.08	0.318334
2253.5	0.0206327
2254.93	-0.130047
2256.36	0.25632
2257.78	0.0599141
2259.21	0.238922
2260.63	0.241691
2262.06	0.0840068
2263.48	0.203449
2264.91	0.485742
2266.33	0.426591
2267.76	0.317929
2269.18	0.159626
2270.6	0.30992
2272.03	0.297079
2273.45	0.36553
2274.87	0.157151
2276.3	0.11177
2277.72	0.115399
2279.14	0.331007
2280.56	0.318381
2281.98	0.321959
2283.41	0.0644321
2284.83	0.133197
2286.25	0.0715771
2287.67	-0.0714397
2289.09	0.0307832
2290.51	0.42751
2291.93	0.072803
2293.35	-0.151291
2294.77	0.311604
2296.19	0.332864
2297.61	-0.202676
2299.02	0.195187
2300.44	0.216569
2301.86	-0.253748
2303.28	0.309275
2304.7	-0.0626578
2306.11	0.106935
2307.53	0.276425
2308.95	0.29769
2310.36	0.466511
2311.78	0.141648
2313.2	0.112744
2314.61	0.314584
2316.03	0.154881
2317.44	0.325133
2318.86	0.49591
2320.27	-0.224013
2321.69	0.209616
2323.1	0.443986
2324.51	0.428976
2325.93	0.280195
2327.34	0.789824
2328.76	0.803888
2330.17	0.439293
2331.58	0.158104
2332.99	-0.0726299
2334.41	0.141649
2335.82	0.2244
2337.23	0.125833
2338.64	-0.00630856
2340.05	-0.073472
2341.46	-0.00989056
2342.87	-0.110867
2344.28	-0.129725
2345.69	-0.0172429
2347.1	-0.166744
2348.51	0.191376
2349.92	0.107074
2351.33	-0.190215
2352.74	0.132851
2354.15	-0.00224543
2355.56	-0.267978
2356.97	0.11788
2358.37	-0.228994
2359.78	0.416007
2361.19	0.199557
2362.6	-0.0975108
2364	0.124201
2365.41	0.37775
2366.82	0.000657558
2368.22	0.173715
2369.63	0.0569053
2371.03	0.0863638
2372.44	0.261793
2373.84	0.147969
2375.25	-0.0459561
2376.65	0.130027
2378.06	0.112025
2379.46	-0.00355196
2380.86	-0.280706
2382.27	0.163215
2383.67	-0.131248
2385.07	0.166661
2386.48	0.0487933
2387.88	-0.0681043
2389.28	-0.0882168
2390.69	0.0519509
2392.09	0.0654459
2393.49	0.111505
2394.89	0.015017
2396.29	0.109913
2397.69	0.0145121
2399.09	0.0308213
2400.49	-0.0795918
2401.89	-0.269157
2403.29	0.287771
2404.69	0.0979385
2406.09	0.0821247
2407.49	0.208417
2408.89	0.0961008
2410.29	0.142164
2411.69	0.188361
2413.08	-0.160747
2414.48	-0.0337129
2415.88	0.252688
2417.28	0.144318
2418.67	-0.121727
2420.07	0.0716667
2421.47	-0.0834513
2422.86	-0.112151
2424.26	-0.267817
2425.65	0.0360827
2427.05	0.657458
2428.45	-0.0835805
2429.84	-0.126578
2431.23	-0.105639
2432.63	-0.116331
2434.02	0.174315
2435.42	0.0830097
2436.81	0.0858655
2438.2	-0.0872121
2439.6	0.135915
2440.99	0.374116
2442.38	0.0878925
2443.78	-0.118989
2445.17	0.165859
2446.56	0.180819
2447.95	-0.16882
2449.34	0.257998
2450.73	0.0196338
2452.13	0.0351028
2453.52	0.225206
2454.91	0.00456524
2456.3	-0.215502
2457.69	0.213219
2459.08	0.293778
2460.47	0.231528
2461.85	0.548117
2463.24	0.342306
2464.63	0.0729914
2466.02	0.040556
2467.41	0.118576
2468.8	-0.229524
2470.19	0.179528
2471.57	0.00461054
2472.96	-0.202137
2474.35	0.204747
2475.73	-0.39616
2477.12	-0.147669
2478.51	-0.0880628
2479.89	0.0500293
2481.28	-0.000119686
2482.66	0.0280838
2484.05	0.228066
2485.43	0.411353
2486.82	-0.172131
2488.2	0.181111
2489.59	0.143324
2490.97	0.0744071
2492.35	0.0682492
2493.74	0.0784564
2495.12	0.0276179
2496.5	-0.0531821
2497.89	-0.133236
2499.27	0.344209
2500.65	0.202031
2502.03	0.136722
2503.42	-0.145391
2504.8	0.0351105
2506.18	0.168541
2507.56	0.0706468
2508.94	-0.0730472
2510.32	-0.27753
2511.7	0.0711589
2513.08	0.128561
2514.46	0.0946341
2515.84	-0.198776
2517.22	-0.0476527
2518.6	0.118989
2519.98	0.117494
2521.36	0.131053
2522.73	0.113559
2524.11	0.0649347
2525.49	0.198717
2526.87	0.134134
2528.25	0.0547695
2529.62	-0.0540524
2531	-0.207162
2532.38	0.218454
2533.75	-0.145069
2535.13	-0.0826435
2536.5	0.146843
2537.88	0.0263853
2539.25	0.178609
2540.63	0.223837
2542.01	0.147348
2543.38	0.0711408
2544.75	0.0714731
2546.13	0.0272431
2547.5	0.226631
2548.88	-0.104294
2550.25	0.0957952
2551.62	0.143801
2553	-0.0820661
2554.37	0.207263
2555.74	-0.035193
2557.11	0.0102444
2558.49	0.192033
2559.86	0.116229
2561.23	-0.0500703
2562.6	-0.00368309
2563.97	0.103748
2565.34	0.226651
2566.71	0.10727
2568.08	0.063724
2569.45	0.277827
2570.82	0.0978789
2572.19	0.266564
2573.56	-0.064898
2574.93	0.0281286
2576.3	0.500226
2577.67	0.33551
2579.03	0.200923
2580.4	0.081214
2581.77	-0.0539665
2583.14	0.21995
2584.5	0.22076
2585.87	0.1609
2587.24	-0.0201087
2588.6	0.223407
2589.97	0.0274858
2591.34	0.301246
2592.7	0.483664
2594.07	0.438138
2595.43	0.164673
2596.8	-0.23045
2598.16	-0.0357666
2599.53	-0.0229974
2600.89	-0.282131
2602.26	-0.193277
2603.62	-0.0738306
2604.98	0.242089
2606.35	0.226062
2607.71	0.556584
2609.07	0.0572119
2610.44	0.174994
2611.8	0.0808978
2613.16	0.196587
2614.52	0.326485
2615.88	-0.099267
2617.25	0.180558
2618.61	0.310553
2619.97	-0.142638
2621.33	0.481964
2622.69	0.134875
2624.05	0.40063
2625.41	0.0691028
2626.77	0.0957041
2628.13	-0.146197
2629.49	-0.224176
2630.85	0.263156
2632.21	0.0658154
2633.56	0.225239
2634.92	0.310166
2636.28	0.0538549
2637.64	0.109117
2639	-0.205814
2640.35	-0.12069
2641.71	-0.227688
2643.07	0.049757
2644.42	0.282645
2645.78	-0.148702
2647.14	0.231026
2648.49	-0.0679164
2649.85	-0.219793
2651.2	0.201449
2652.56	-0.0832853
2653.91	0.1462
2655.27	-0.16648
2656.62	-0.0384603
2657.98	0.148776
2659.33	0.1463
2660.68	0.231852
2662.04	0.0687542
2663.39	0.0368204
2664.74	0.485971
2666.1	-0.0724645
2667.45	0.243995
2668.8	-0.0371261
2670.15	0.220747
2671.5	-0.0156841
2672.86	-0.0479059
2674.21	0.428629
2675.56	0.222941
2676.91	-0.185231
2678.26	0.335598
2679.61	0.0883002
2680.96	0.363817
2682.31	0.611263
2683.66	-0.0103316
2685.01	0.166281
2686.36	0.314325
2687.71	0.186516
2689.06	0.275493
2690.4	0.24703
2691.75	0.289733
2693.1	0.157138
2694.45	0.183446
2695.8	0.137139
2697.14	-0.198346
2698.49	0.234865
2699.84	0.336169
2701.18	0.192658
2702.53	0.0647202
2703.88	0.386691
2705.22	0.0569382
2706.57	-0.0555191
2707.91	0.383142
2709.26	0.241172
2710.6	0.156895
2711.95	-0.0293312
2713.29	-0.157659
2714.64	0.164499
2715.98	-0.00756598
2717.32	0.198308
2718.67	0.0403957
2720.01	-0.0451169
2721.35	0.160074
2722.7	0.3795
2724.04	0.336584
2725.38	0.293324
2726.72	0.351655
2728.06	-0.0850964
2729.4	0.322083
2730.75	0.46715
2732.09	0.219347
2733.43	-0.07197
2734.77	-0.0140066
2736.11	0.116818
2737.45	0.509514
2738.79	-0.0576987
2740.13	0.17478
2741.47	0.290519
2742.81	-0.0303912
2744.15	0.345903
2745.48	0.372813
2746.82	-0.0798383
2748.16	0.0919075
2749.5	-0.1282
2750.84	0.174128
2752.17	0.0124936
2753.51	0.227951
2754.85	-0.121629
2756.19	-0.137775
2757.52	-0.124831
2758.86	-0.024848
2760.19	0.147743
2761.53	0.0456996
2762.86	0.204489
2764.2	0.117518
2765.54	-0.143087
2766.87	0.00107527
2768.2	0.115564
2769.54	-0.0167952
2770.87	0.24005
2772.21	0.365558
2773.54	0.100482
2774.88	-0.0203829
2776.21	-0.0690384
2777.54	0.141701
2778.87	0.136816
2780.21	0.00300789
2781.54	0.0132213
2782.87	0.410951
2784.2	-0.138411
2785.53	-0.185453
2786.87	-0.0890608
2788.2	0.0648484
2789.53	0.190578
2790.86	0.345495
2792.19	-0.0995951
2793.52	0.242085
2794.85	-0.288164
2796.18	0.110321
2797.51	-0.220304
2798.84	-0.0942044
2800.17	0.00293303
2801.49	0.0712509
2802.82	0.0395484
2804.15	0.349681
2805.48	0.13216
2806.81	0.0425329
2808.13	0.322334
2809.46	0.0329366
2810.79	-0.298583
2812.12	0.00940752
2813.44	0.0625868
2814.77	-0.265973
2816.09	0.285514
2817.42	-0.0552182
2818.75	-0.0836878
2820.07	-0.197203
2821.4	0.241695
2822.72	0.169839
2824.05	0.0125279
2825.37	0.0958323
2826.7	0.306582
2828.02	0.0362706
2829.35	0.276105
2830.67	0.23314
2831.99	-0.135236
2833.31	0.47305
2834.64	0.175166
2835.96	0.4855
2837.28	0.752861
2838.61	0.567094
2839.93	0.763096
2841.25	0.492532
2842.57	1.15533
2843.89	1.027
2845.21	1.13954
2846.53	1.32324
2847.85	1.59205
2849.17	1.06939
2850.49	1.52172
2851.81	1.54961
2853.13	1.47814
2854.45	1.80203
2855.77	1.7866
2857.09	1.58752
2858.41	1.45917
2859.73	2.02282
2861.05	1.68248
2862.36	1.65258
2863.68	2.10224
2865	1.64844
2866.32	2.33745
2867.64	2.53275
2868.95	2.51686
2870.27	2.76918
2871.59	2.62689
2872.9	2.94947
2874.22	2.82036
2875.53	2.73267
2876.85	3.39025
2878.16	2.93485
2879.48	3.04223
2880.79	3.07952
2882.11	3.2299
2883.42	3.2547
2884.74	3.51905
2886.05	3.36268
2887.36	3.19239
2888.68	3.44272
2889.99	3.2293
2891.3	3.30973
2892.62	3.38955
2893.93	3.58124
2895.24	3.7311
2896.55	3.74163
2897.86	3.54323
2899.18	3.73758
2900.49	3.87663
2901.8	3.76429
2903.11	4.07178
2904.42	4.12759
2905.73	4.25361
2907.04	4.35218
2908.35	3.71011
2909.66	4.00603
2910.97	4.2046
2912.28	4.62719
2913.59	4.53121
2914.9	4.65793
2916.21	5.00704
2917.51	5.70442
2918.82	5.86878
2920.13	5.10984
2921.44	5.77818
2922.74	5.5248
2924.05	5.25885
2925.36	6.05632
2926.67	5.90386
2927.97	5.66753
2929.28	5.65449
2930.59	5.90654
2931.89	6.25597
2933.2	6.01803
2934.5	6.28327
2935.81	6.0874
2937.11	5.79389
2938.42	6.00365
2939.72	5.68268
2941.02	5.69758
2942.33	5.40586
2943.63	5.4227
2944.94	4.8956
2946.24	4.6769
2947.54	4.8783
2948.85	4.50573
2950.15	4.2859
2951.45	4.0364
2952.75	4.16331
2954.05	3.61697
2955.36	3.98039
2956.66	3.46273
2957.96	3.39471
2959.26	3.74898
2960.56	3.48952
2961.86	3.23144
2963.16	3.47864
2964.46	2.99563
2965.76	2.89015
2967.06	3.17676
2968.36	2.77362
2969.66	3.15713
2970.96	2.86561
2972.26	2.91185
2973.56	2.97246
2974.85	2.76564
2976.15	2.88201
2977.45	3.12404
2978.75	2.88587
2980.05	3.05449
2981.34	2.72938
2982.64	2.72755
2983.94	2.38863
2985.23	2.64117
2986.53	2.72629
2987.83	2.34896
2989.12	2.36594
2990.42	1.84908
2991.71	1.92204
2993.01	1.74116
2994.3	2.2337
2995.6	1.99461
2996.89	1.9797
2998.19	1.68398
2999.48	1.69732
3000.77	1.37459
3002.07	1.05258
3003.36	1.2916
3004.65	1.16634
3005.95	0.928902
3007.24	0.593169
3008.53	1.0126
3009.82	0.745718
3011.12	0.911738
3012.41	0.588543
3013.7	0.865708
3014.99	0.710673
3016.28	0.960397
3017.57	0.389034
3018.86	0.44486
3020.15	0.611932
3021.44	0.0974379
3022.73	0.360743
3024.02	0.248225
3025.31	-0.0587344
3026.6	0.216443
3027.89	0.1594
3029.18	0.117144
3030.47	0.186617
3031.76	0.17428
3033.04	0.0523071
3034.33	0.0686555
3035.62	0.374268
3036.91	0.237381
3038.19	0.223297
3039.48	0.00139856
3040.77	-0.234867
3042.05	-0.237813
3043.34	0.1841
3044.63	-0.17461
3045.91	-0.0663862
3047.2	0.125209
3048.48	0.250058
3049.77	0.117133
3051.05	0.258382
3052.34	0.0454636
3053.62	0.351061
3054.91	0.355959
3056.19	0.196404
3057.48	0.199736
3058.76	0.175236
3060.04	0.313976
3061.33	0.34401
3062.61	0.265978
3063.89	0.0803194
3065.17	0.344544
3066.46	0.324349
3067.74	0.304922
3069.02	0.190602
3070.3	0.157657
3071.59	0.328085
3072.87	0.171185
3074.15	-0.0273404
3075.43	0.126907
3076.71	-0.235246
3077.99	0.068388
3079.27	-0.0073061
3080.55	0.121656
3081.83	-0.290807
3083.11	-0.146188
3084.39	0.202531
3085.67	0.130715
3086.94	-0.104326
3088.22	0.0673065
3089.5	0.0212898
3090.78	0.219209
3092.06	0.118508
3093.34	-0.0498242
3094.61	0.0398145
3095.89	0.075417
3097.17	0.111091
3098.44	0.106065
3099.72	0.0874128
3101	0.190648
3102.27	0.17202
3103.55	0.0588751
3104.82	0.176306
3106.1	-0.0575809
3107.38	-0.0877237
3108.65	-0.117082
3109.93	0.341663
3111.2	-0.146413
3112.47	0.151408
3113.75	-0.32261
3115.02	0.233296
3116.3	0.0705314
3117.57	0.354653
3118.84	0.0683436
3120.12	0.296609
3121.39	0.158034
3122.66	0.425712
3123.93	0.273133
3125.2	0.242723
3126.48	0.212716
3127.75	0.31848
3129.02	0.68156
3130.29	0.111807
3131.56	0.0831771
3132.83	0.257164
3134.1	0.417249
3135.37	0.00985718
3136.64	0.641347
3137.91	0.206606
3139.18	0.311083
3140.45	0.0115466
3141.72	0.58669
3142.99	0.650543
3144.26	0.916091
3145.53	0.578107
3146.8	0.281388
3148.07	0.360716
3149.33	0.641264
