200.419	0.420584
202.234	0.445219
204.048	0.4706
205.862	0.132022
207.678	0.0614014
209.491	0.719255
211.304	0.403758
213.116	0.548401
214.928	0.206535
216.742	-0.183963
218.554	-0.186454
220.365	0.368215
222.176	-0.455751
223.986	0.245076
225.798	0.317445
227.608	0.341418
229.417	-0.0697126
231.226	0.291239
233.035	-0.0722609
234.843	-0.603983
236.653	-0.362866
238.46	0.169182
240.268	0.438426
242.074	0.275965
243.881	0.0422859
245.687	0.484062
247.493	0.393466
249.298	0.227671
251.103	0.445042
252.908	0.32157
254.715	-0.0689535
256.519	-0.122068
258.322	-0.126257
260.126	-0.610802
261.929	0.135077
263.731	0.689766
265.534	-0.00731754
267.336	0.259636
269.137	0.454032
270.938	0.334222
272.739	0.11675
274.54	0.669366
276.34	0.0872011
278.14	0.202329
279.939	0.483944
281.739	0.57058
283.537	0.943731
285.336	0.329604
287.134	0.5799
288.932	0.110304
290.729	0.33696
292.526	0.277228
294.323	0.601798
296.117	0.951354
297.913	0.513051
299.709	-0.0917044
301.504	0.378535
303.299	0.322333
305.093	0.789953
306.888	0.325888
308.682	-0.543188
310.475	-0.0766621
312.268	-0.395434
314.059	0.358955
315.852	0.0910883
317.644	0.205923
319.436	0.250813
321.227	0.344524
323.018	0.272153
324.807	0.748893
326.597	0.414542
328.387	0.36622
330.177	1.17778
331.967	0.314735
333.753	0.525922
335.542	0.447949
337.331	1.03769
339.119	0.0939617
340.906	0.512382
342.691	0.23638
344.478	0.557873
346.265	-0.219135
348.051	0.15113
349.835	0.0680838
351.621	0.868218
353.406	0.331159
355.189	0.22274
356.973	0.0654421
358.757	0.550425
360.541	-0.0141897
362.323	-0.079196
364.106	0.211837
365.889	0.287854
367.669	0.624044
369.451	0.0813818
371.233	0.273271
373.012	-0.00916004
374.793	0.464913
376.574	-0.549215
378.353	-0.14585
380.133	-0.142962
381.91	0.331741
383.69	0.0778046
385.469	0.483644
387.245	0.020853
389.024	0.311177
390.8	0.4379
392.577	0.40102
394.353	0.0359621
396.129	0.352324
397.906	0.0816669
399.68	0.0221882
401.456	0.784397
403.23	0.0897303
405.005	0.451296
406.778	0.037118
408.552	-0.142712
410.325	0.592647
412.099	0.435943
413.87	0.0450373
415.643	0.0772238
417.414	-0.194881
419.187	0.566128
420.957	0.247948
422.728	-0.140957
424.498	-0.0141172
426.269	-0.545445
428.038	0.260571
429.806	-0.0372295
431.576	0.345644
433.344	-0.468184
435.114	0.126501
436.881	0.533421
438.649	0.00093174
440.416	-0.0400152
442.182	0.433247
443.949	0.153798
445.715	0.247746
447.48	0.480801
449.247	0.853273
451.011	0.547638
452.777	0.522985
454.541	0.0787611
456.304	0.544209
458.069	-0.132344
459.832	0.123034
461.594	-0.225948
463.358	0.0776644
465.119	0.243854
466.881	-0.214634
468.642	-0.0199862
470.404	-0.0326653
472.165	0.560254
473.925	0.0821838
475.684	0.114451
477.445	-0.204719
479.204	0.359551
480.963	0.0842562
482.721	-0.49364
484.481	0.187216
486.239	0.613817
487.996	0.297017
489.753	0.215071
491.511	0.204057
493.268	-0.0867081
495.023	0.393946
496.779	0.383858
498.534	-0.0716801
500.289	0.151619
502.046	0.163492
503.8	0.104085
505.554	0.184562
507.307	0.404953
509.06	0.365312
510.813	0.653539
512.566	0.681461
514.32	-0.233263
516.072	0.568346
517.823	0.498231
519.574	0.333177
521.325	0.590484
523.076	0.753138
524.826	0.610288
526.576	0.279912
528.325	0.418855
530.074	0.206055
531.823	0.203922
533.572	0.692616
535.32	0.664945
537.068	0.79955
538.815	0.185441
540.562	0.690915
542.309	0.891636
544.056	0.579678
545.802	-0.103332
547.547	0.445541
549.293	0.552929
551.038	0.243498
552.783	-0.0419302
554.527	0.551501
556.271	-0.148668
558.015	0.282887
559.759	-0.161384
561.502	0.109263
563.245	0.679053
564.987	-0.130534
566.729	-0.433077
568.471	0.183776
570.213	0.36501
571.954	0.616256
573.693	0.708455
575.433	-0.321683
577.173	-0.0885992
578.913	0.995239
580.652	-0.123999
582.392	0.617075
584.13	0.254874
585.867	0.351401
587.605	0.699863
589.343	-0.0340471
591.08	-0.0786934
592.817	0.244299
594.552	0.268049
596.289	-0.168292
598.025	-0.259535
599.761	0.592174
601.496	0.361827
603.229	0.0154018
604.964	-0.424082
606.699	-0.151998
608.433	0.302773
610.165	-0.207047
611.898	0.0640202
613.631	0.381406
615.364	-0.33216
617.095	-0.380603
618.827	0.326332
620.559	0.0931511
622.288	0.453894
624.02	0.218973
625.75	0.55546
627.479	0.413083
629.209	-0.00116634
630.939	0.0204811
632.667	0.386295
634.396	0.47937
636.125	0.800501
637.851	0.138491
639.58	0.20451
641.305	0.701121
643.033	0.191928
644.76	0.206119
646.485	0.243285
648.212	0.304813
649.936	0.482774
651.662	0.187104
653.388	0.508636
655.111	0.424246
656.836	0.182514
658.558	0.328689
660.283	0.611746
662.005	0.551311
663.728	0.580055
665.45	0.560814
667.173	0.608347
668.893	0.380692
670.616	0.405174
672.336	1.43842
674.057	0.391333
675.777	0.719867
677.498	-0.0280933
679.216	0.554684
680.937	1.02278
682.655	0.59269
684.375	0.0449448
686.092	0.761426
687.809	0.394286
689.528	0.48672
691.244	0.46331
692.962	0.370225
694.678	1.10563
696.393	0.41216
698.111	0.362525
699.825	0.0356731
701.54	-0.107889
703.256	0.759161
704.97	0.315258
706.685	0.697721
708.398	0.758172
710.111	0.932736
711.826	0.602999
713.538	0.456545
715.25	0.858639
716.961	0.643497
718.675	0.793803
720.386	1.17194
722.096	1.27632
723.808	1.08479
725.518	0.893502
727.228	0.520573
728.937	0.73795
730.648	0.818474
732.357	0.672019
734.065	1.18181
735.773	1.35158
737.483	0.911679
739.19	1.03725
740.897	0.712675
742.604	0.479792
744.31	1.19397
746.018	0.806093
747.724	0.532272
749.429	1.4519
751.134	1.06804
752.839	0.640413
754.544	1.33878
756.248	1.34126
757.953	0.7373
759.657	0.877452
761.36	0.748276
763.063	1.47679
764.765	1.75458
766.468	1.37643
768.169	1.44825
769.871	1.54067
771.572	1.1789
773.273	1.76551
774.976	1.49235
776.676	1.06143
778.376	1.94312
780.075	1.56003
781.775	1.33617
783.474	1.88181
785.172	1.20434
786.871	1.38479
788.569	1.94705
790.266	1.41994
791.964	1.0492
793.661	1.0389
795.358	1.07345
797.054	2.05531
798.75	1.91111
800.446	1.3412
802.141	1.29065
803.834	2.20782
805.529	1.95517
807.224	1.29751
808.918	2.21143
810.612	2.02341
812.305	1.34141
813.998	1.42174
815.691	1.38978
817.384	1.69333
819.076	2.17522
820.766	1.78559
822.458	2.24481
824.149	1.65616
825.84	1.89407
827.531	1.53236
829.221	0.995212
830.909	1.28482
832.599	1.88902
834.288	2.00538
835.977	1.54296
837.666	1.72703
839.353	1.97721
841.041	1.69
842.729	1.91521
844.416	2.07296
846.103	1.58319
847.788	1.13942
849.475	1.52519
851.161	1.19726
852.845	1.56529
854.53	2.22668
856.216	1.58654
857.901	1.97832
859.583	2.12165
861.268	2.78128
862.952	2.20093
864.633	1.41592
866.317	2.2977
868	2.36755
869.681	2.09863
871.363	2.52857
873.045	1.78526
874.725	1.89906
876.406	2.10316
878.088	1.51737
879.767	1.58592
881.447	1.3381
883.125	1.7217
884.805	1.44959
886.483	0.950565
888.162	0.585778
889.841	1.70827
891.518	1.2956
893.196	0.837204
894.872	0.806017
896.55	1.38088
898.225	1.0105
899.902	1.53731
901.577	1.14354
903.254	0.906841
904.928	0.603506
906.604	1.23858
908.277	1.15925
909.952	1.05861
911.625	0.981241
913.3	1.43803
914.972	0.8507
916.646	1.35149
918.318	1.51884
919.991	0.955272
921.662	1.96388
923.333	1.24772
925.005	0.887488
926.675	0.948793
928.347	1.03361
930.017	0.501621
931.686	1.80168
933.357	1.22648
935.025	1.51182
936.693	0.849106
938.363	0.870893
940.031	0.915787
941.698	0.807331
943.367	1.22906
945.034	0.679732
946.7	1.18879
948.368	1.10026
950.034	0.943789
951.699	1.13927
953.367	0.739133
955.031	0.97998
956.696	0.341128
958.36	0.542972
960.026	1.36543
961.689	1.08599
963.353	0.828178
965.016	0.590687
966.68	0.771052
968.343	1.19239
970.005	1.41264
971.666	0.702951
973.328	0.480407
974.991	1.14366
976.652	0.99028
978.312	0.616979
979.972	0.874717
981.632	1.13227
983.292	1.04557
984.953	1.06779
986.612	0.623316
988.27	0.620007
989.929	0.858821
991.587	0.301159
993.244	1.29008
994.902	0.865139
996.559	0.661401
998.216	0.347618
999.872	1.09172
1001.53	0.821525
1003.19	0.815374
1004.84	1.71056
1006.5	0.912228
1008.15	0.642155
1009.81	0.592171
1011.46	0.696126
1013.11	0.230508
1014.77	0.882851
1016.42	0.396434
1018.07	1.44259
1019.73	0.585717
1021.38	0.670529
1023.03	0.625098
1024.68	0.755352
1026.34	0.842382
1027.99	0.754613
1029.64	0.666311
1031.29	0.839059
1032.94	0.704622
1034.59	1.11428
1036.24	0.715445
1037.89	0.948208
1039.53	0.962809
1041.18	0.825687
1042.83	1.34201
1044.48	1.3162
1046.13	1.42253
1047.77	1.31341
1049.42	1.03209
1051.07	0.903924
1052.71	0.928513
1054.36	0.953441
1056	0.587143
1057.65	0.65521
1059.3	1.28816
1060.94	0.137617
1062.59	0.899816
1064.23	0.26957
1065.87	0.877727
1067.52	0.484877
1069.16	0.699726
1070.8	0.0885839
1072.44	0.867057
1074.09	0.430187
1075.73	0.883819
1077.37	0.579354
1079.01	0.839858
1080.65	0.277008
1082.29	0.429749
1083.93	1.16714
1085.57	0.688883
1087.21	0.599162
1088.85	0.96242
1090.49	0.414818
1092.13	0.904695
1093.77	0.723681
1095.41	0.953067
1097.04	0.0618172
1098.68	1.04712
1100.32	0.913238
1101.95	1.21158
1103.59	0.156055
1105.23	0.822829
1106.86	0.866245
1108.5	1.16745
1110.13	1.03753
1111.77	0.605341
1113.4	0.60172
1115.04	0.146149
1116.67	1.14943
1118.31	0.650734
1119.94	0.988814
1121.57	0.685005
1123.2	0.703473
1124.84	0.252095
1126.47	0.357849
1128.1	0.335895
1129.73	1.12703
1131.36	0.592981
1132.99	0.593714
1134.62	0.487448
1136.25	0.295161
1137.88	0.230256
1139.51	0.207071
1141.14	1.33591
1142.77	0.350593
1144.4	0.21948
1146.03	1.06969
1147.66	0.300458
1149.28	0.342036
1150.91	0.149706
1152.54	0.298186
1154.16	0.57402
1155.79	0.998301
1157.42	0.634958
1159.04	0.591174
1160.67	0.165366
1162.29	-0.11054
1163.92	0.44361
1165.54	0.168975
1167.17	0.0642223
1168.79	0.107411
1170.41	0.616756
1172.04	0.189243
1173.66	0.482525
1175.28	0.243896
1176.9	0.0263491
1178.53	0.190552
1180.15	-0.0894375
1181.77	0.13936
1183.39	-0.223533
1185.01	-0.0788641
1186.63	0.0859728
1188.25	-0.130569
1189.87	0.305062
1191.49	0.317026
1193.11	0.70608
1194.73	0.27447
1196.35	0.661716
1197.96	0.588059
1199.58	0.348781
1201.2	0.237365
1202.82	0.399815
1204.43	0.564314
1206.05	0.355011
1207.66	0.751934
1209.28	0.836124
1210.9	0.0644827
1212.51	0.521916
1214.13	0.935326
1215.74	0.409153
1217.36	0.381534
1218.97	0.976479
1220.58	0.615112
1222.2	0.586864
1223.81	0.787659
1225.42	1.05158
1227.04	0.612961
1228.65	1.04472
1230.26	0.91902
1231.87	1.16653
1233.48	0.981024
1235.1	0.713975
1236.71	1.19206
1238.32	1.11303
1239.93	1.42746
1241.53	1.01829
1243.14	0.981015
1244.75	0.984412
1246.36	1.15243
1247.97	1.19536
1249.58	0.968585
1251.19	1.73455
1252.8	1.11462
1254.4	1.44686
1256.01	1.92488
1257.62	1.47324
1259.22	1.16734
1260.83	1.64866
1262.43	1.24035
1264.04	0.976748
1265.64	1.41716
1267.25	1.2975
1268.85	1.38422
1270.46	1.47
1272.06	1.67918
1273.66	1.34831
1275.27	1.34825
1276.87	2.17619
1278.48	1.59416
1280.08	1.05339
1281.68	1.52693
1283.28	1.71049
1284.88	1.62556
1286.48	2.16169
1288.08	1.87182
1289.68	0.673652
1291.28	1.87317
1292.88	1.6054
1294.48	1.70886
1296.08	2.16214
1297.68	1.72583
1299.28	1.5772
1300.88	2.02519
1302.48	2.10045
1304.07	1.14563
1305.67	1.30216
1307.27	1.90971
1308.87	1.69504
1310.46	2.05461
1312.06	2.25
1313.65	1.95486
1315.25	1.98816
1316.85	1.79772
1318.44	2.56702
1320.03	2.173
1321.63	1.55465
1323.22	2.4215
1324.82	2.65462
1326.41	2.15488
1328	2.12212
1329.6	2.69737
1331.19	1.85712
1332.78	2.37448
1334.37	1.96446
1335.96	1.79872
1337.56	2.03709
1339.15	2.05284
1340.74	2.04681
1342.33	2.32041
1343.92	1.90802
1345.51	2.39888
1347.1	2.40735
1348.69	1.67636
1350.28	2.37002
1351.86	2.08521
1353.45	2.26258
1355.04	2.24128
1356.63	2.02056
1358.21	2.09918
1359.8	1.71753
1361.39	2.63249
1362.97	1.75029
1364.56	2.04495
1366.15	1.50267
1367.73	1.73834
1369.32	1.4574
1370.9	2.1531
1372.49	2.07387
1374.07	1.63761
1375.65	1.3015
1377.24	1.36344
1378.82	1.50452
1380.41	1.62472
1381.99	1.30599
1383.57	1.72198
1385.15	1.34158
1386.73	1.23921
1388.32	1.61365
1389.9	1.41272
1391.48	2.08587
1393.06	1.68817
1394.64	1.90587
1396.22	3.09491
1397.8	3.01387
1399.38	1.44566
1400.96	1.56137
1402.54	1.39923
1404.11	2.08792
1405.69	0.878101
1407.27	1.29091
1408.85	1.68443
1410.43	1.46588
1412	1.30666
1413.58	1.32465
1415.16	1.49961
1416.73	1.92995
1418.31	1.84695
1419.88	1.62644
1421.46	2.07661
1423.03	2.05559
1424.61	1.50479
1426.18	2.1362
1427.76	2.13835
1429.33	1.66783
1430.9	2.16089
1432.48	2.5149
1434.05	2.49395
1435.62	2.55118
1437.2	2.76585
1438.77	2.9615
1440.34	2.43095
1441.91	2.43211
1443.48	3.1808
1445.05	2.16109
1446.62	1.94731
1448.19	3.16862
1449.76	2.75873
1451.33	3.4503
1452.9	2.45138
1454.47	2.71138
1456.04	2.0467
1457.61	1.71567
1459.17	2.30837
1460.74	2.19088
1462.31	2.36666
1463.88	2.20632
1465.44	2.33983
1467.01	1.56918
1468.58	2.54705
1470.14	1.28768
1471.71	2.14904
1473.27	1.89304
1474.84	1.53987
1476.4	1.81463
1477.97	1.59931
1479.53	1.58
1481.1	1.3646
1482.66	1.32554
1484.22	1.73701
1485.78	2.26554
1487.35	1.69629
1488.91	0.910768
1490.47	1.31787
1492.03	1.25311
1493.59	1.16687
1495.16	1.46928
1496.72	1.36068
1498.28	0.60995
1499.84	1.18317
1501.4	0.70771
1502.96	1.02946
1504.52	0.963902
1506.08	0.937441
1507.64	0.891117
1509.19	0.148478
1510.75	0.313405
1512.31	0.746964
1513.87	0.640128
1515.42	0.898923
1516.98	0.888817
1518.54	0.169927
1520.1	0.315147
1521.65	0.17322
1523.21	0.795874
1524.76	0.480919
1526.32	0.451833
1527.87	0.82187
1529.43	1.00019
1530.98	0.57037
1532.54	0.862711
1534.09	0.624831
1535.64	1.33421
1537.2	1.11706
1538.75	0.957671
1540.3	0.440673
1541.85	0.923192
1543.41	0.840089
1544.96	1.43381
1546.51	1.16212
1548.06	1.05969
1549.61	1.46351
1551.16	0.911703
1552.71	0.735582
1554.26	1.06525
1555.81	0.854041
1557.36	1.05536
1558.91	0.679864
1560.46	1.29502
1562.01	0.90421
1563.56	0.850227
1565.1	1.76703
1566.65	1.41521
1568.2	0.839116
1569.75	1.2145
1571.29	1.3469
1572.84	1.23637
1574.38	1.49904
1575.93	1.6684
1577.48	2.02464
1579.02	1.93326
1580.57	1.8985
1582.11	1.11744
1583.65	0.953265
1585.2	1.27555
1586.74	1.26204
1588.29	1.60402
1589.83	1.66543
1591.37	1.63286
1592.92	1.54365
1594.46	1.52901
1596	1.92659
1597.54	1.89374
1599.08	1.28028
1600.62	1.71743
1602.16	1.74256
1603.7	1.18559
1605.24	2.14921
1606.78	1.90948
1608.32	1.49856
1609.86	1.17941
1611.4	1.72252
1612.94	1.9628
1614.48	1.432
1616.02	1.44536
1617.56	1.75902
1619.09	1.77369
1620.63	1.69617
1622.17	1.3579
1623.71	1.32009
1625.24	1.5444
1626.78	1.41235
1628.31	2.06492
1629.85	1.33177
1631.39	1.12167
1632.92	1.63987
1634.46	0.869695
1635.99	1.20187
1637.52	0.658032
1639.06	1.30836
1640.59	1.23143
1642.12	1.32168
1643.66	1.85771
1645.19	1.44291
1646.72	1.69723
1648.25	1.70928
1649.79	1.33173
1651.32	1.66075
1652.85	2.00914
1654.38	1.46839
1655.91	1.74418
1657.44	1.22301
1658.97	1.73872
1660.5	1.25308
1662.03	1.54364
1663.56	1.49996
1665.09	1.58506
1666.62	0.969041
1668.15	1.31391
1669.67	1.86249
1671.2	1.25124
1672.73	0.991422
1674.26	1.72661
1675.79	0.988388
1677.31	0.857244
1678.84	0.596462
1680.36	0.757895
1681.89	1.01031
1683.42	0.5276
1684.94	0.430928
1686.47	0.683112
1687.99	0.587156
1689.51	0.986264
1691.04	0.616192
1692.56	0.868778
1694.08	0.572319
1695.61	0.129754
1697.13	0.308692
1698.65	0.450606
1700.18	0.318221
1701.7	0.47735
1703.22	0.417054
1704.74	0.101403
1706.26	0.841182
1707.78	0.288692
1709.3	0.354643
1710.82	0.438696
1712.35	-0.0393591
1713.86	0.117648
1715.39	0.256344
1716.9	0.0691814
1718.42	0.297889
1719.94	0.0385809
1721.46	0.28505
1722.98	0.351327
1724.5	0.112105
1726.01	0.468553
1727.53	0.0158663
1729.05	0.356135
1730.56	0.301796
1732.08	0.213419
1733.6	0.752617
1735.11	0.326158
1736.63	-0.105096
1738.14	0.115328
1739.66	-0.153317
1741.17	0.115445
1742.69	0.170856
1744.2	0.405517
1745.71	0.0476627
1747.23	0.23371
1748.74	-0.222241
1750.25	0.0774508
1751.77	0.0294285
1753.28	0.194027
1754.79	0.0832453
1756.3	-0.0164537
1757.81	0.3227
1759.33	-0.166279
1760.84	-0.322968
1762.35	0.0104971
1763.86	0.244256
1765.37	-0.226434
1766.88	-0.103884
1768.39	0.0913382
1769.9	0.330373
1771.41	0.130794
1772.91	0.248865
1774.42	0.375823
1775.93	0.0821285
1777.44	0.107571
1778.95	0.385352
1780.45	0.097331
1781.96	0.140575
1783.47	0.152517
1784.97	0.332197
1786.48	-0.0363922
1787.99	0.389934
1789.49	0.131617
1791	0.0625491
1792.5	-0.019671
1794.01	-0.0381289
1795.51	0.216405
1797.01	0.310057
1798.52	0.150283
1800.02	0.160009
1801.52	0.418266
1803.03	-0.101893
1804.53	0.141883
1806.03	0.197055
1807.54	-0.00349331
1809.04	-0.0363164
1810.54	0.248755
1812.04	0.235713
1813.54	-0.2604
1815.04	-0.0985312
1816.54	-0.139642
1818.04	-0.0895534
1819.54	0.165045
1821.04	0.0194945
1822.54	-0.0134826
1824.04	0.00887299
1825.54	0.150355
1827.04	0.151949
1828.54	-0.113315
1830.03	0.297827
1831.53	0.246599
1833.03	0.275455
1834.53	0.165357
1836.02	0.214427
1837.52	-0.0772362
1839.02	0.0658817
1840.51	0.24203
1842.01	0.218544
1843.5	0.23517
1845	0.244349
1846.49	0.123303
1847.99	-0.129823
1849.48	-0.109956
1850.98	-0.0223646
1852.47	-0.00669289
1853.96	-0.119631
1855.46	0.104294
1856.95	0.408992
1858.44	0.0458751
1859.94	-0.0345907
1861.43	-0.32822
1862.92	0.133673
1864.41	0.291059
1865.9	0.310207
1867.39	0.139297
1868.88	0.196782
1870.37	0.0953212
1871.86	0.128005
1873.35	-0.0600696
1874.84	0.202626
1876.33	0.133165
1877.82	0.295012
1879.31	0.252819
1880.8	0.127377
1882.29	0.073472
1882.58	0.0653367
1884.08	-0.00586891
1885.57	-0.304215
1887.06	-0.11532
1888.56	-0.309972
1890.05	0.243886
1891.54	0.0155282
1893.04	0.292912
1894.53	0.0328636
1896.02	-0.243288
1897.51	0.281159
1899	0.249056
1900.5	0.146459
1901.99	0.285998
1903.48	0.250041
1904.97	-0.0304894
1906.46	-0.172395
1907.95	-0.0363116
1909.44	0.134886
1910.93	0.358819
1912.42	0.0283241
1913.91	0.149379
1915.4	0.0970597
1916.88	0.235178
1918.37	0.112792
1919.86	0.198026
1921.35	0.265827
1922.84	0.593704
1924.32	0.316312
1925.81	-0.0984893
1927.3	0.110849
1928.78	0.16494
1930.27	-0.00611687
1931.75	-0.212524
1933.24	0.0820255
1934.72	-0.057795
1936.21	0.0433173
1937.69	0.14333
1939.18	-0.0163245
1940.66	-0.0200887
1942.15	0.114946
1943.63	-0.00798512
1945.11	0.0768328
1946.6	-0.286298
1948.08	0.0916257
1949.56	0.14134
1951.04	0.0179806
1952.53	0.341363
1954.01	0.0448265
1955.49	0.0235772
1956.97	0.0370493
1958.45	-0.034708
1959.93	0.0143118
1961.41	0.0123119
1962.89	0.0618978
1964.37	-0.197103
1965.85	0.194439
1967.33	0.0201964
1968.81	0.0850754
1970.29	-0.107009
1971.77	0.469561
1973.24	0.0553455
1974.72	0.443422
1976.2	0.268691
1977.68	0.0432558
1979.15	0.107565
1980.63	0.0527029
1982.11	-0.00222397
1983.58	0.0615749
1985.06	-0.0617056
1986.53	0.0354857
1988.01	-0.0877824
1989.48	-0.193646
1990.96	0.41195
1992.43	0.222755
1993.91	0.592503
1995.38	0.202242
1996.86	0.16739
1998.33	-0.289682
1999.8	-0.155925
2001.27	0.0615978
2002.75	-0.0419493
2004.22	0.0568047
2005.69	0.189466
2007.16	0.221619
2008.64	0.237744
2010.11	0.25462
2011.58	0.322448
2013.05	0.171493
2014.52	0.138008
2015.99	0.120699
2017.46	-0.0487342
2018.93	-0.101038
2020.4	0.0814919
2021.87	0.431664
2023.34	-0.208512
2024.8	0.125681
2026.27	-0.0257564
2027.74	-0.159146
2029.21	0.144808
2030.68	0.198341
2032.14	0.252731
2033.61	-0.128908
2035.08	0.177695
2036.54	-0.00299883
2038.01	0.0510144
2039.48	0.0374975
2040.94	0.360153
2042.41	0.2125
2043.87	0.014966
2045.34	0.0368037
2046.8	0.227668
2048.27	-0.00214958
2049.73	0.15514
2051.19	-0.143541
2052.66	-0.342503
2054.12	-0.121334
2055.58	0.519941
2057.05	-0.070858
2058.51	-0.358565
2059.97	-0.0229359
2061.43	0.279121
2062.9	0.0598927
2064.36	0.228701
2065.82	-0.00555944
2067.28	0.0806513
2068.74	-0.186085
2070.2	0.0523672
2071.66	-0.0289364
2073.12	-0.329268
2074.58	0.14473
2076.04	-0.122443
2077.5	-0.120481
2078.95	0.436871
2080.41	0.25287
2081.87	0.00109386
2083.33	-0.537293
2084.79	-0.301907
2086.24	0.201882
2087.7	-0.0686846
2089.16	0.28247
2090.61	0.397949
2092.07	-0.107905
2093.53	0.124979
2094.98	-0.196008
2096.44	0.287437
2097.89	0.283998
2099.35	-0.00445461
2100.8	0.309293
2102.26	0.388837
2103.71	0.30202
2105.16	0.299863
2106.62	-0.151552
2108.07	0.348835
2109.53	0.298978
2110.98	0.181993
2112.43	0.180618
2113.88	0.277741
2115.33	-0.0758467
2116.79	0.102427
2118.24	0.14781
2119.69	0.210854
2121.14	0.225675
2122.59	0.457702
2124.04	0.292886
2125.49	-0.070344
2126.94	0.146543
2128.39	0.412256
2129.84	0.196115
2131.29	0.426266
2132.74	0.556202
2134.19	0.288973
2135.63	0.551807
2137.08	0.402489
2138.53	0.58533
2139.98	0.769784
2141.43	0.60857
2142.87	0.514416
2144.32	0.66888
2145.77	0.724277
2147.21	0.100606
2148.66	0.701607
2150.1	0.805201
2151.55	0.709142
2152.99	0.479665
2154.44	0.564317
2155.88	1.02961
2157.33	0.848869
2158.77	1.14916
2160.21	1.0034
2161.66	0.809412
2163.1	0.699762
2164.55	0.724002
2165.99	1.11423
2167.43	0.890171
2168.87	0.980742
2170.31	0.670673
2171.76	0.458439
2173.2	1.0098
2174.64	1.32704
2176.08	0.828803
2177.52	1.04591
2178.96	1.01426
2180.4	1.09985
2181.84	0.471259
2183.28	0.790883
2184.72	1.21065
2186.16	1.16482
2187.6	0.95261
2189.04	0.773636
2190.47	0.777676
2191.91	0.914673
2193.35	0.734694
2194.79	0.353776
2196.23	0.853669
2197.66	0.552897
2199.1	0.766456
2200.54	0.56349
2201.97	0.609759
2203.41	0.573586
2204.84	0.488645
2206.28	0.686392
2207.71	0.751873
2209.15	0.800565
2210.58	0.649912
2212.02	0.267008
2213.45	0.479045
2214.89	0.211705
2216.32	0.225843
2217.75	0.438865
2219.19	0.751671
2220.62	0.323133
2222.05	0.883788
2223.48	0.389041
2224.92	0.55221
2226.35	0.220086
2227.78	0.0679846
2229.21	0.539203
2230.64	0.483838
2232.07	0.330104
2233.5	0.144233
2234.93	0.0247741
2236.36	0.282239
2237.79	0.165139
2239.22	0.229215
2240.65	0.343822
2242.08	0.296783
2243.51	0.315998
2244.94	0.188685
2246.37	0.174978
2247.79	0.420892
2249.22	0.387705
2250.65	0.417848
2252.08	0.120947
2253.5	0.214189
2254.93	0.2588
2256.36	0.255852
2257.78	0.141302
2259.21	0.321179
2260.63	0.55216
2262.06	0.298387
2263.48	0.143104
2264.91	0.264119
2266.33	0.531309
2267.76	-0.14549
2269.18	0.120326
2270.6	0.108928
2272.03	-0.21225
2273.45	-0.370842
2274.87	0.431674
2276.3	0.305978
2277.72	0.0988789
2279.14	0.234067
2280.56	-0.0220952
2281.98	0.455503
2283.41	0.313292
2284.83	-0.0247703
2286.25	0.12686
2287.67	-0.243623
2289.09	0.170015
2290.51	-0.0039649
2291.93	0.247164
2293.35	0.0243173
2294.77	0.0794096
2296.19	0.314527
2297.61	0.271409
2299.02	0.228296
2300.44	-0.224458
2301.86	0.14249
2303.28	0.313153
2304.7	0.336381
2306.11	-0.36308
2307.53	0.0702591
2308.95	0.191207
2310.36	0.37754
2311.78	0.11953
2313.2	0.239787
2314.61	0.113572
2316.03	0.0207853
2317.44	0.323946
2318.86	-0.608582
2320.27	0.255492
2321.69	0.195411
2323.1	0.00169086
2324.51	0.400175
2325.93	0.351167
2327.34	0.779001
2328.76	0.431162
2330.17	0.479205
2331.58	0.297481
2332.99	0.511819
2334.41	0.0027833
2335.82	0.168622
2337.23	-0.0936093
2338.64	-0.0934229
2340.05	-0.0284247
2341.46	-0.243415
2342.87	0.214303
2344.28	0.21221
2345.69	0.407014
2347.1	0.0940766
2348.51	-0.169363
2349.92	0.0415974
2351.33	0.0227795
2352.74	0.133842
2354.15	0.292874
2355.56	0.0924368
2356.97	0.234071
2358.37	-0.0149612
2359.78	0.224034
2361.19	0.105553
2362.6	0.214278
2364	0.0959415
2365.41	0.0101652
2366.82	0.296421
2368.22	0.195136
2369.63	0.046504
2371.03	-0.262014
2372.44	-0.0213699
2373.84	-0.359879
2375.25	0.106982
2376.65	0.186977
2378.06	0.282056
2379.46	0.488171
2380.86	0.0985827
2382.27	0.141556
2383.67	0.103633
2385.07	0.0336356
2386.48	-0.139706
2387.88	-0.375767
2389.28	0.242528
2390.69	0.223557
2392.09	0.141903
2393.49	-0.0183949
2394.89	-0.00293255
2396.29	0.33103
2397.69	0.0931458
2399.09	0.300745
2400.49	-0.11089
2401.89	0.351442
2403.29	0.0354862
2404.69	0.402077
2406.09	0.212168
2407.49	0.132689
2408.89	0.163652
2410.29	-0.2495
2411.69	0.209303
2413.08	0.304136
2414.48	0.0674944
2415.88	0.354537
2417.28	0.167721
2418.67	0.187441
2420.07	0.223275
2421.47	0.417418
2422.86	0.199398
2424.26	0.329671
2425.65	0.254031
2427.05	0.0678506
2428.45	0.135947
2429.84	-0.191652
2431.23	0.147423
2432.63	0.248801
2434.02	0.333925
2435.42	0.497584
2436.81	-0.182059
2438.2	0.042655
2439.6	-0.0355296
2440.99	0.298477
2442.38	-0.161889
2443.78	0.0760503
2445.17	-0.0828791
2446.56	0.106986
2447.95	0.0271678
2449.34	-0.179311
2450.73	-0.0371065
2452.13	0.0895815
2453.52	-0.194583
2454.91	0.534533
2456.3	0.33073
2457.69	-0.0151529
2459.08	0.0500979
2460.47	-0.0591025
2461.85	0.384454
2463.24	0.147461
2464.63	0.0207567
2466.02	-0.0744996
2467.41	-0.0434704
2468.8	0.0821452
2470.19	0.286324
2471.57	0.363809
2472.96	-0.189485
2474.35	0.626862
2475.73	0.0415125
2477.12	-0.134573
2478.51	0.129299
2479.89	0.283036
2481.28	-0.0180345
2482.66	-0.0366983
2484.05	0.0851612
2485.43	-0.0597892
2486.82	0.044601
2488.2	0.101055
2489.59	-0.0146456
2490.97	0.0410357
2492.35	-0.0739813
2493.74	-0.249988
2495.12	0.149332
2496.5	-0.195006
2497.89	-0.104506
2499.27	-0.106812
2500.65	-0.26407
2502.03	0.0573802
2503.42	0.0377951
2504.8	-0.275535
2506.18	0.274128
2507.56	-0.177972
2508.94	0.00131989
2510.32	0.303422
2511.7	-0.238358
2513.08	0.00319958
2514.46	-0.183815
2515.84	-0.109695
2517.22	0.11789
2518.6	0.192764
2519.98	0.114878
2521.36	0.357555
2522.73	0.233076
2524.11	0.0318007
2525.49	0.119806
2526.87	0.10087
2528.25	0.401823
2529.62	0.368757
2531	0.382651
2532.38	-0.179448
2533.75	0.703023
2535.13	0.309808
2536.5	0.341931
2537.88	0.145609
2539.25	0.024498
2540.63	-0.112396
2542.01	0.205837
2543.38	0.0385814
2544.75	0.0996323
2546.13	0.0403137
2547.5	0.270167
2548.88	0.136637
2550.25	0.261049
2551.62	0.06638
2553	0.00752783
2554.37	-0.0369697
2555.74	0.145409
2557.11	0.387925
2558.49	0.357263
2559.86	0.251042
2561.23	0.160461
2562.6	0.0401063
2563.97	0.0869203
2565.34	0.361375
2566.71	-0.0459237
2568.08	0.243953
2569.45	0.20042
2570.82	0.126564
2572.19	0.113355
2573.56	0.0698876
2574.93	0.178075
2576.3	0.13469
2577.67	0.197355
2579.03	0.214348
2580.4	0.0339222
2581.77	0.126094
2583.14	0.111819
2584.5	-0.175522
2585.87	0.128318
2587.24	-0.189233
2588.6	0.478511
2589.97	0.130892
2591.34	-0.0652642
2592.7	0.192782
2594.07	0.359176
2595.43	0.252039
2596.8	0.492262
2598.16	0.0357003
2599.53	0.27482
2600.89	0.166226
2602.26	0.224273
2603.62	0.252618
2604.98	0.341743
2606.35	0.129259
2607.71	0.0975876
2609.07	0.00496387
2610.44	0.227756
2611.8	0.403995
2613.16	0.233134
2614.52	0.137074
2615.88	0.266069
2617.25	-0.0996585
2618.61	0.119848
2619.97	0.234844
2621.33	-0.173078
2622.69	0.226837
2624.05	0.372543
2625.41	-0.213177
2626.77	-0.201848
2628.13	0.181715
2629.49	-0.0608935
2630.85	0.0686393
2632.21	0.346526
2633.56	0.252581
2634.92	0.500105
2636.28	-0.0535975
2637.64	-0.117443
2639	0.0853496
2640.35	0.19918
2641.71	0.0912929
2643.07	0.205368
2644.42	0.393219
2645.78	0.241431
2647.14	0.177961
2648.49	0.187654
2649.85	0.0200677
2651.2	0.234471
2652.56	0.448186
2653.91	0.22155
2655.27	0.0399361
2656.62	0.269581
2657.98	0.0168481
2659.33	-0.0593519
2660.68	0.464297
2662.04	0.315044
2663.39	0.267678
2664.74	0.29267
2666.1	0.229492
2667.45	0.00571489
2668.8	0.277302
2670.15	0.461385
2671.5	-0.0958557
2672.86	0.307114
2674.21	0.216378
2675.56	-0.0189428
2676.91	0.0655818
2678.26	0.194075
2679.61	0.120183
2680.96	-0.0108337
2682.31	0.0765843
2683.66	0.0199566
2685.01	0.0510836
2686.36	0.15513
2687.71	0.0703769
2689.06	0.0717292
2690.4	0.420132
2691.75	0.389553
2693.1	0.241662
2694.45	-0.283872
2695.8	0.089541
2697.14	-0.217734
2698.49	-0.132788
2699.84	0.14166
2701.18	0.272699
2702.53	0.0283957
2703.88	0.32091
2705.22	0.0776749
2706.57	0.370918
2707.91	0.330443
2709.26	0.434762
2710.6	-0.172745
2711.95	0.468438
2713.29	-0.00901604
2714.64	0.283583
2715.98	0.300035
2717.32	0.112751
2718.67	0.492528
2720.01	0.0136476
2721.35	0.523856
2722.7	0.335145
2724.04	0.247896
2725.38	0.349505
2726.72	0.683668
2728.06	-0.0303597
2729.4	0.448833
2730.75	0.447629
2732.09	0.271815
2733.43	0.43069
2734.77	0.109676
2736.11	0.399741
2737.45	-0.110032
2738.79	0.223717
2740.13	0.120954
2741.47	0.352237
2742.81	0.190403
2744.15	0.376854
2745.48	-0.0910621
2746.82	0.0654616
2748.16	-0.0395617
2749.5	0.377849
2750.84	0.0409322
2752.17	0.0234213
2753.51	0.107548
2754.85	0.119318
2756.19	-0.0571012
2757.52	0.0563025
2758.86	0.140903
2760.19	-0.0636821
2761.53	0.122903
2762.86	0.324299
2764.2	0.120786
2765.54	-0.0827308
2766.87	-0.112988
2768.2	0.0729861
2769.54	0.185507
2770.87	0.137775
2772.21	0.132314
2773.54	0.28473
2774.88	0.17696
2776.21	0.184582
2777.54	0.106145
2778.87	0.114553
2780.21	-0.135285
2781.54	-0.0973296
2782.87	0.227652
2784.2	-0.46607
2785.53	-0.112682
2786.87	0.0255699
2788.2	-0.12222
2789.53	-0.0832367
2790.86	0.099443
2792.19	0.139653
2793.52	0.108735
2794.85	-0.00789976
2796.18	0.189585
2797.51	-0.184837
2798.84	0.24013
2800.17	0.0649881
2801.49	-0.30992
2802.82	-0.157081
2804.15	0.237646
2805.48	0.147334
2806.81	-0.0287662
2808.13	-0.00601625
2809.46	-0.0120521
2810.79	0.251767
2812.12	0.0474315
2813.44	-0.0989861
2814.77	-0.102336
2816.09	0.178947
2817.42	0.00751448
2818.75	0.162546
2820.07	0.0766239
2821.4	-0.0663528
2822.72	0.271976
2824.05	0.1138
2825.37	0.111234
2826.7	-0.0753779
2828.02	0.0783076
2829.35	0.119156
2830.67	0.0471311
2831.99	0.428256
2833.31	0.512046
2834.64	0.567244
2835.96	0.239911
2837.28	0.379169
2838.61	0.50387
2839.93	0.953602
2841.25	1.1063
2842.57	0.835265
2843.89	1.00301
2845.21	1.48228
2846.53	1.34026
2847.85	1.29748
2849.17	1.56565
2850.49	1.36715
2851.81	1.06929
2853.13	1.46353
2854.45	1.58888
2855.77	1.53037
2857.09	1.58489
2858.41	1.7948
2859.73	1.91992
2861.05	1.90364
2862.36	2.32471
2863.68	2.01135
2865	2.54452
2866.32	2.6401
2867.64	2.28461
2868.95	2.46547
2870.27	2.56207
2871.59	2.54602
2872.9	2.51562
2874.22	2.93544
2875.53	2.87514
2876.85	2.89836
2878.16	3.14596
2879.48	2.67583
2880.79	3.19041
2882.11	3.19951
2883.42	3.02702
2884.74	3.30484
2886.05	2.96543
2887.36	3.63673
2888.68	2.72173
2889.99	3.05496
2891.3	3.3311
2892.62	2.5273
2893.93	3.48917
2895.24	3.66643
2896.55	3.49442
2897.86	3.01566
2899.18	3.50342
2900.49	3.53014
2901.8	3.55728
2903.11	3.57064
2904.42	3.62609
2905.73	4.0315
2907.04	3.76606
2908.35	4.28474
2909.66	3.75502
2910.97	3.95334
2912.28	4.13772
2913.59	4.46146
2914.9	4.48992
2916.21	4.85271
2917.51	4.73803
2918.82	4.81836
2920.13	4.99643
2921.44	5.02127
2922.74	5.35486
2924.05	5.36826
2925.36	5.45266
2926.67	5.1183
2927.97	4.99364
2929.28	5.38588
2930.59	5.38616
2931.89	5.79139
2933.2	5.69313
2934.5	5.30137
2935.81	5.45485
2937.11	4.93769
2938.42	5.30115
2939.72	5.34346
2941.02	4.98105
2942.33	5.34613
2943.63	4.92978
2944.94	4.47261
2946.24	4.6316
2947.54	4.0917
2948.85	4.09702
2950.15	4.04532
2951.45	3.58592
2952.75	3.78297
2954.05	3.40476
2955.36	3.50232
2956.66	3.54469
2957.96	3.81285
2959.26	3.69154
2960.56	3.33448
2961.86	3.07689
2963.16	3.18433
2964.46	3.1791
2965.76	3.04621
2967.06	2.77126
2968.36	2.5653
2969.66	2.63987
2970.96	2.40498
2972.26	2.66265
2973.56	2.62523
2974.85	2.67225
2976.15	2.14149
2977.45	2.39805
2978.75	2.32934
2980.05	1.99174
2981.34	2.18798
2982.64	2.3555
2983.94	2.3545
2985.23	1.77827
2986.53	1.72353
2987.83	1.88082
2989.12	1.71576
2990.42	1.36821
2991.71	1.69484
2993.01	1.36007
2994.3	1.43181
2995.6	1.17954
2996.89	1.5025
2998.19	1.2216
2999.48	1.06744
3000.77	1.41863
3002.07	1.18141
3003.36	1.0288
3004.65	0.90439
3005.95	1.07392
3007.24	0.612918
3008.53	0.291582
3009.82	0.599118
3011.12	0.207067
3012.41	0.569193
3013.7	0.414639
3014.99	0.121304
3016.28	-0.0317321
3017.57	0.0248623
3018.86	0.47142
3020.15	0.138795
3021.44	0.459438
3022.73	-0.165431
3024.02	-0.0962133
3025.31	-0.124705
3026.6	0.0544815
3027.89	-0.0153055
3029.18	-0.0840411
3030.47	-0.137652
3031.76	0.0585566
3033.04	-0.0758572
3034.33	-0.0443006
3035.62	0.166152
3036.91	0.00312328
3038.19	-0.188616
3039.48	0.292868
3040.77	-0.0113878
3042.05	0.109944
3043.34	-0.303544
3044.63	0.352406
3045.91	0.16055
3047.2	-0.00178432
3048.48	0.124726
3049.77	0.157351
3051.05	0.150327
3052.34	-0.101607
3053.62	0.124072
3054.91	0.253712
3056.19	0.246103
3057.48	-0.116767
3058.76	0.24223
3060.04	0.178568
3061.33	-0.279265
3062.61	0.175434
3063.89	0.182254
3065.17	0.163178
3066.46	-0.00425768
3067.74	0.0738325
3069.02	0.00270367
3070.3	0.10819
3071.59	0.294653
3072.87	0.0857639
3074.15	-0.137553
3075.43	-0.116771
3076.71	0.0396004
3077.99	-0.075243
3079.27	0.340061
3080.55	-0.00321865
3081.83	0.238149
3083.11	-0.021358
3084.39	0.0588684
3085.67	0.152787
3086.94	-0.0929136
3088.22	-0.12197
3089.5	-0.0971971
3090.78	0.0765243
3092.06	-0.143298
3093.34	-0.28146
3094.61	0.0417886
3095.89	-0.163581
3097.17	0.34971
3098.44	0.307123
3099.72	0.0341501
3101	-0.0354915
3102.27	-0.0372677
3103.55	-0.0658336
3104.82	0.0685101
3106.1	0.0410547
3107.38	0.257987
3108.65	0.164555
3109.93	0.220917
3111.2	0.264597
3112.47	0.295458
3113.75	0.177674
3115.02	0.114056
3116.3	0.145001
3117.57	0.270278
3118.84	0.408324
3120.12	0.423447
3121.39	0.180268
3122.66	0.438299
3123.93	0.425115
3125.2	0.236159
3126.48	0.129003
3127.75	0.265968
3129.02	0.335686
3130.29	0.513898
3131.56	0.543481
3132.83	0.694589
3134.1	0.372597
3135.37	0.739042
3136.64	0.416628
3137.91	0.539187
3139.18	0.445792
3140.45	0.769741
3141.72	0.555387
3142.99	0.476067
3144.26	0.826965
3145.53	0.654745
3146.8	0.577237
3148.07	0.594245
3149.33	0.651965
