200.419	0.460214
202.234	0.472928
204.048	0.48691
205.862	-0.0574064
207.678	0.1042
209.491	0.0951595
211.304	0.668041
213.116	0.559361
214.928	0.716575
216.742	-0.0237427
218.554	0.0606079
220.365	0.944233
222.176	0.303928
223.986	0.584063
225.798	0.0671616
227.608	0.106457
229.417	0.193728
231.226	-0.226392
233.035	0.776941
234.843	-0.101022
236.653	0.99964
238.46	-0.500916
240.268	0.387405
242.074	0.0246954
243.881	0.242136
245.687	-0.360741
247.493	-0.313628
249.298	-0.00339222
251.103	-0.0824947
252.908	0.246038
254.715	0.186583
256.519	0.0544415
258.322	0.212483
260.126	0.227605
261.929	0.100225
263.731	0.287812
265.534	-0.149833
267.336	-0.105204
269.137	0.276692
270.938	0.22401
272.739	-0.263788
274.54	-0.150171
276.34	0.0823956
278.14	0.0238733
279.939	0.613734
281.739	-0.339619
283.537	0.558439
285.336	-0.0361824
287.134	0.161659
288.932	-0.312232
290.729	-0.017889
292.526	0.516662
294.323	0.310624
296.117	0.536769
297.913	0.357664
299.709	0.418219
301.504	0.335322
303.299	0.203932
305.093	0.2385
306.888	-0.276473
308.682	0.114763
310.475	0.124961
312.268	-0.0779476
314.059	-0.112375
315.852	-0.21631
317.644	0.396042
319.436	0.128915
321.227	0.0535154
323.018	0.0265989
324.807	0.286471
326.597	0.80952
328.387	-0.124354
330.177	0.589534
331.967	0.346303
333.753	0.675354
335.542	0.308408
337.331	-0.156622
339.119	-0.264732
340.906	0.367048
342.691	0.328166
344.478	0.00256348
346.265	-0.059515
348.051	-0.0491819
349.835	0.272039
351.621	0.0920048
353.406	-0.136182
355.189	0.111837
356.973	0.286842
358.757	-0.0401058
360.541	0.584779
362.323	-0.624521
364.106	0.283558
365.889	0.144095
367.669	0.217727
369.451	-0.278717
371.233	0.243545
373.012	0.172468
374.793	-0.0169725
376.574	-0.0170555
378.353	-0.299556
380.133	0.314625
381.91	0.293418
383.69	0.602921
385.469	0.020155
387.245	0.0736847
389.024	0.198835
390.8	0.207539
392.577	-0.205582
394.353	0.0395298
396.129	0.613862
397.906	-0.338196
399.68	0.565
401.456	0.0350895
403.23	-0.213586
405.005	0.194668
406.778	-0.19632
408.552	0.0461607
410.325	0.0534878
412.099	0.811857
413.87	0.678776
415.643	0.124176
417.414	0.368219
419.187	0.237542
420.957	0.388773
422.728	0.211215
424.498	-0.154877
426.269	0.182419
428.038	0.612755
429.806	0.197508
431.576	-0.217665
433.344	0.306308
435.114	0.337789
436.881	0.15805
438.649	0.024601
440.416	0.405989
442.182	-0.0827618
443.949	0.0128841
445.715	0.270516
447.48	0.152002
449.247	0.454131
451.011	-0.0151682
452.777	-0.179845
454.541	0.262461
456.304	-0.228206
458.069	0.0735903
459.832	-0.392942
461.594	0.351085
463.358	0.0266743
465.119	0.471702
466.881	-0.63718
468.642	0.115595
470.404	-0.873182
472.165	0.348134
473.925	-0.0363407
475.684	0.182674
477.445	0.562682
479.204	0.335119
480.963	-0.172968
482.721	-0.121871
484.481	-0.1395
486.239	0.380577
487.996	0.32058
489.753	0.0993881
491.511	0.135731
493.268	0.359735
495.023	0.163439
496.779	-0.00988865
498.534	0.519085
500.289	1.00165
502.046	0.428226
503.8	0.205286
505.554	0.121911
507.307	0.648481
509.06	0.491709
510.813	0.262601
512.566	0.784826
514.32	0.576045
516.072	0.365896
517.823	-0.00999451
519.574	0.765265
521.325	0.787154
523.076	1.60697
524.826	0.712276
526.576	0.991467
528.325	0.238757
530.074	0.705333
531.823	0.304405
533.572	0.137224
535.32	0.624041
537.068	0.127096
538.815	0.493505
540.562	0.997842
542.309	0.615018
544.056	0.465358
545.802	0.0604267
547.547	0.306499
549.293	1.01591
551.038	0.820869
552.783	0.626478
554.527	-0.144946
556.271	-0.245085
558.015	0.623894
559.759	0.408914
561.502	0.609259
563.245	-0.547204
564.987	-0.0694227
566.729	0.729939
568.471	0.0828533
570.213	-0.0117817
571.954	0.675017
573.693	0.170456
575.433	0.470629
577.173	0.130139
578.913	0.158066
580.652	0.462419
582.392	-0.312799
584.13	0.267129
585.867	-0.395382
587.605	-0.13932
589.343	0.184682
591.08	-0.0213861
592.817	0.278174
594.552	0.301478
596.289	0.508877
598.025	0.0720615
599.761	-0.894214
601.496	0.807317
603.229	-0.0228395
604.964	0.019681
606.699	-0.00806427
608.433	0.399732
610.165	1.01345
611.898	-0.345719
613.631	0.223138
615.364	0.906808
617.095	0.421743
618.827	0.554893
620.559	0.114572
622.288	0.771578
624.02	0.649545
625.75	0.23068
627.479	0.178679
629.209	0.288399
630.939	-0.0559359
632.667	-0.284146
634.396	0.447221
636.125	0.0828524
637.851	0.4016
639.58	0.169861
641.305	0.528404
643.033	0.245812
644.76	0.645472
646.485	0.726209
648.212	0.308619
649.936	0.462656
651.662	0.166055
653.388	-0.0358925
655.111	1.10726
656.836	0.296684
658.558	0.670714
660.283	0.38345
662.005	0.9619
663.728	1.01322
665.45	0.696226
667.173	0.628569
668.893	0.239866
670.616	0.560786
672.336	0.174403
674.057	0.95791
675.777	0.644686
677.498	0.309245
679.216	0.157027
680.937	0.440377
682.655	0.561384
684.375	1.46305
686.092	1.11985
687.809	0.544432
689.528	0.497519
691.244	0.219503
692.962	0.470665
694.678	0.790142
696.393	0.624938
698.111	0.919015
699.825	1.41867
701.54	-0.107244
703.256	0.0684929
704.97	0.220351
706.685	0.669812
708.398	0.407274
710.111	0.488472
711.826	0.889661
713.538	1.12973
715.25	0.797828
716.961	0.900272
718.675	0.546375
720.386	0.535153
722.096	0.865689
723.808	0.695138
725.518	0.342909
727.228	0.0364342
728.937	0.819356
730.648	1.23761
732.357	1.0205
734.065	0.89411
735.773	1.08445
737.483	0.800566
739.19	0.901409
740.897	1.09321
742.604	0.722781
744.31	0.939494
746.018	0.5948
747.724	0.814137
749.429	0.292413
751.134	1.03155
752.839	0.782296
754.544	0.939271
756.248	0.80522
757.953	1.25798
759.657	1.26211
761.36	1.22231
763.063	1.183
764.765	1.12079
766.468	1.12518
768.169	1.46684
769.871	0.856849
771.572	1.03611
773.273	1.86973
774.976	1.73043
776.676	1.61428
778.376	1.47682
780.075	1.58963
781.775	1.70366
783.474	1.59165
785.172	2.04437
786.871	1.49873
788.569	1.19899
790.266	1.37125
791.964	1.26933
793.661	1.36915
795.358	1.13008
797.054	1.68114
798.75	1.57984
800.446	1.09786
802.141	1.83267
803.834	1.33068
805.529	1.68319
807.224	1.96716
808.918	1.39626
810.612	1.92451
812.305	1.66616
813.998	1.74371
815.691	1.48505
817.384	1.40571
819.076	1.79589
820.766	1.27004
822.458	2.28497
824.149	1.06951
825.84	1.30542
827.531	1.60996
829.221	1.07081
830.909	1.58138
832.599	2.09502
834.288	1.87574
835.977	2.08107
837.666	1.97402
839.353	1.84334
841.041	1.46521
842.729	1.3536
844.416	1.88946
846.103	1.57683
847.788	1.28809
849.475	1.67265
851.161	1.67962
852.845	2.04718
854.53	1.51901
856.216	1.84311
857.901	2.16673
859.583	2.21912
861.268	2.69745
862.952	2.56624
864.633	2.81659
866.317	2.3672
868	2.95408
869.681	2.14237
871.363	1.82626
873.045	1.64519
874.725	1.23833
876.406	1.89199
878.088	1.34963
879.767	1.50678
881.447	1.07664
883.125	0.261962
884.805	0.868482
886.483	0.841558
888.162	0.700324
889.841	1.12146
891.518	0.729327
893.196	1.43993
894.872	0.64063
896.55	1.12307
898.225	1.06461
899.902	1.25207
901.577	0.76615
903.254	0.415101
904.928	0.712861
906.604	1.30023
908.277	0.838966
909.952	0.936318
911.625	1.25681
913.3	0.62167
914.972	1.29814
916.646	0.95294
918.318	0.807797
919.991	0.640862
921.662	0.319899
923.333	1.45939
925.005	1.00837
926.675	1.53117
928.347	0.863377
930.017	0.903319
931.686	1.23074
933.357	1.0289
935.025	0.981675
936.693	0.471707
938.363	1.81517
940.031	1.30723
941.698	1.50632
943.367	1.17667
945.034	0.559809
946.7	1.0233
948.368	0.535888
950.034	1.06195
951.699	0.43927
953.367	-0.050684
955.031	0.453242
956.696	0.915535
958.36	0.653196
960.026	0.989258
961.689	1.52612
963.353	1.02476
965.016	0.454783
966.68	0.988007
968.343	1.36378
970.005	0.343588
971.666	0.782698
973.328	0.624934
974.991	0.800261
976.652	0.955242
978.312	0.625089
979.972	0.638404
981.632	0.651375
983.292	0.784834
984.953	1.00497
986.612	0.492609
988.27	1.35051
989.929	1.1007
991.587	0.518973
993.244	0.291126
994.902	0.306435
996.559	1.02781
998.216	0.337187
999.872	1.16763
1001.53	0.939595
1003.19	0.667418
1004.84	0.703167
1006.5	0.123426
1008.15	0.598675
1009.81	0.568837
1011.46	0.451732
1013.11	0.269456
1014.77	0.109668
1016.42	0.30069
1018.07	0.404465
1019.73	0.399536
1021.38	0.0239124
1023.03	0.370833
1024.68	0.565549
1026.34	0.542262
1027.99	1.0871
1029.64	0.451487
1031.29	0.75412
1032.94	1.18595
1034.59	1.22293
1036.24	0.342731
1037.89	1.03157
1039.53	0.870265
1041.18	1.07961
1042.83	1.11605
1044.48	1.52358
1046.13	1.19434
1047.77	0.519688
1049.42	0.997749
1051.07	0.890698
1052.71	0.762709
1054.36	0.721955
1056	-0.079525
1057.65	0.618384
1059.3	0.533344
1060.94	0.360686
1062.59	0.665649
1064.23	0.426117
1065.87	0.120421
1067.52	0.987454
1069.16	0.723207
1070.8	-0.323272
1072.44	0.432673
1074.09	0.407292
1075.73	0.513043
1077.37	0.316401
1079.01	0.90165
1080.65	0.490132
1082.29	0.599059
1083.93	0.815549
1085.57	0.770254
1087.21	0.982991
1088.85	0.348908
1090.49	-0.285954
1092.13	0.613965
1093.77	0.928585
1095.41	0.466045
1097.04	0.694941
1098.68	0.537051
1100.32	0.402593
1101.95	0.0333996
1103.59	0.806281
1105.23	0.569221
1106.86	0.440335
1108.5	0.096159
1110.13	0.00910854
1111.77	0.221558
1113.4	0.690064
1115.04	0.663014
1116.67	0.699748
1118.31	0.372066
1119.94	0.302549
1121.57	0.747949
1123.2	0.787313
1124.84	0.570887
1126.47	0.697678
1128.1	0.140872
1129.73	0.183613
1131.36	0.440678
1132.99	0.163553
1134.62	0.655885
1136.25	0.142981
1137.88	0.0993843
1139.51	0.417796
1141.14	0.265269
1142.77	0.00568771
1144.4	0.0237417
1146.03	0.148993
1147.66	-0.108558
1149.28	-0.216003
1150.91	-0.152539
1152.54	0.166453
1154.16	0.314651
1155.79	-0.197394
1157.42	0.0354128
1159.04	0.11951
1160.67	0.353205
1162.29	-0.0499821
1163.92	0.249459
1165.54	-0.301083
1167.17	0.0624237
1168.79	0.191054
1170.41	-0.170785
1172.04	0.103191
1173.66	0.0354977
1175.28	0.157659
1176.9	0.385111
1178.53	0.103991
1180.15	0.585959
1181.77	0.412382
1183.39	-0.225445
1185.01	0.384165
1186.63	0.0841589
1188.25	-0.512295
1189.87	0.429262
1191.49	-0.0436296
1193.11	0.17707
1194.73	-0.0865326
1196.35	0.132809
1197.96	0.436169
1199.58	0.531306
1201.2	0.0852814
1202.82	0.164472
1204.43	-0.588775
1206.05	-0.045989
1207.66	-0.211474
1209.28	-0.272341
1210.9	0.375223
1212.51	0.249429
1214.13	0.371704
1215.74	-0.237091
1217.36	0.380836
1218.97	-0.208743
1220.58	0.510591
1222.2	-0.243335
1223.81	0.559288
1225.42	0.658103
1227.04	0.240954
1228.65	0.259917
1230.26	0.300731
1231.87	0.177284
1233.48	0.571712
1235.1	0.119898
1236.71	0.351262
1238.32	0.335576
1239.93	0.19646
1241.53	0.595227
1243.14	0.931828
1244.75	0.957434
1246.36	0.878576
1247.97	0.364181
1249.58	0.676742
1251.19	0.802728
1252.8	0.92888
1254.4	0.890232
1256.01	0.500998
1257.62	0.464547
1259.22	1.33966
1260.83	0.477426
1262.43	0.609003
1264.04	0.989299
1265.64	0.727076
1267.25	1.18949
1268.85	0.946289
1270.46	1.30329
1272.06	0.684758
1273.66	0.625059
1275.27	0.978995
1276.87	0.772347
1278.48	1.14505
1280.08	1.28907
1281.68	1.16359
1283.28	1.32794
1284.88	1.26522
1286.48	1.20343
1288.08	1.26672
1289.68	1.04159
1291.28	1.02367
1292.88	0.778409
1294.48	0.842393
1296.08	1.19426
1297.68	0.181839
1299.28	1.02574
1300.88	1.1661
1302.48	1.2844
1304.07	0.907625
1305.67	1.27099
1307.27	1.18126
1308.87	1.0504
1310.46	1.39115
1312.06	1.7725
1313.65	1.49939
1315.25	1.45257
1316.85	1.26386
1318.44	1.17805
1320.03	0.990325
1321.63	1.73905
1323.22	1.34526
1324.82	1.74328
1326.41	0.656946
1328	0.95147
1329.6	1.30648
1331.19	1.45994
1332.78	1.47388
1334.37	1.40932
1335.96	1.12454
1337.56	1.28436
1339.15	0.596799
1340.74	0.93586
1342.33	0.930213
1343.92	1.16387
1345.51	0.532598
1347.1	0.604712
1348.69	0.978686
1350.28	1.25426
1351.86	0.931952
1353.45	1.01185
1355.04	1.47276
1356.63	1.49421
1358.21	0.935922
1359.8	0.796439
1361.39	1.1151
1362.97	1.17327
1364.56	1.11139
1366.15	0.551697
1367.73	1.80554
1369.32	1.18833
1370.9	1.8665
1372.49	1.01371
1374.07	0.878482
1375.65	0.485249
1377.24	1.14675
1378.82	1.11132
1380.41	1.15449
1381.99	1.47485
1383.57	1.09769
1385.15	1.19687
1386.73	0.182914
1388.32	1.39412
1389.9	1.29485
1391.48	0.581435
1393.06	1.35703
1394.64	0.605486
1396.22	1.08351
1397.8	1.06502
1399.38	1.26351
1400.96	1.04495
1402.54	0.924994
1404.11	0.904037
1405.69	1.1802
1407.27	1.06165
1408.85	1.35897
1410.43	0.787535
1412	0.61134
1413.58	0.829505
1415.16	1.32286
1416.73	1.04576
1418.31	1.81317
1419.88	1.04354
1421.46	1.12237
1423.03	1.3208
1424.61	1.12716
1426.18	1.2891
1427.76	1.60906
1429.33	1.63354
1430.9	2.48373
1432.48	1.83689
1434.05	2.01558
1435.62	1.66266
1437.2	2.11625
1438.77	1.84308
1440.34	1.86585
1441.91	2.38094
1443.48	2.42512
1445.05	2.35181
1446.62	2.12143
1448.19	2.22536
1449.76	1.89709
1451.33	2.53268
1452.9	2.55941
1454.47	2.19316
1456.04	1.5906
1457.61	2.42376
1459.17	1.93716
1460.74	2.13755
1462.31	2.0998
1463.88	1.86369
1465.44	1.92146
1467.01	1.72339
1468.58	2.09526
1470.14	1.83971
1471.71	1.15395
1473.27	1.56796
1474.84	1.61003
1476.4	1.16235
1477.97	1.67552
1479.53	0.816347
1481.1	1.46646
1482.66	1.05809
1484.22	1.21792
1485.78	1.37735
1487.35	1.22259
1488.91	1.18409
1490.47	1.26119
1492.03	1.21868
1493.59	1.25218
1495.16	0.678973
1496.72	0.534755
1498.28	0.663102
1499.84	1.06371
1501.4	0.901457
1502.96	0.837673
1504.52	0.348639
1506.08	0.383427
1507.64	0.785029
1509.19	0.798462
1510.75	0.675653
1512.31	0.899191
1513.87	0.159428
1515.42	0.267484
1516.98	0.759773
1518.54	0.772241
1520.1	0.0382223
1521.65	-0.00515556
1523.21	0.00861263
1524.76	0.174395
1526.32	0.0146999
1527.87	0.54009
1529.43	0.607121
1530.98	0.446085
1532.54	1.36676
1534.09	0.259624
1535.64	0.593692
1537.2	0.417761
1538.75	0.261738
1540.3	0.144094
1541.85	1.06289
1543.41	0.568298
1544.96	0.394116
1546.51	0.576941
1548.06	0.252636
1549.61	0.734941
1551.16	0.579782
1552.71	0.724715
1554.26	0.888954
1555.81	0.493958
1557.36	0.399761
1558.91	0.867208
1560.46	0.739248
1562.01	0.687469
1563.56	0.487496
1565.1	0.269362
1566.65	0.947021
1568.2	1.10206
1569.75	0.435466
1571.29	1.01909
1572.84	0.445108
1574.38	0.841676
1575.93	0.808915
1577.48	0.234954
1579.02	1.06151
1580.57	1.19797
1582.11	0.943017
1583.65	0.464556
1585.2	0.846114
1586.74	0.704956
1588.29	1.06882
1589.83	0.777871
1591.37	0.748355
1592.92	0.999245
1594.46	1.58715
1596	0.901383
1597.54	1.77117
1599.08	1.27352
1600.62	1.07626
1602.16	1.16077
1603.7	1.02003
1605.24	1.01003
1606.78	1.73167
1608.32	1.51192
1609.86	1.27107
1611.4	0.595926
1612.94	1.00872
1614.48	0.913076
1616.02	1.15472
1617.56	0.796659
1619.09	0.852221
1620.63	0.628195
1622.17	0.630239
1623.71	1.40062
1625.24	1.32849
1626.78	0.619352
1628.31	1.48096
1629.85	0.825804
1631.39	0.805774
1632.92	0.82273
1634.46	1.13859
1635.99	1.11903
1637.52	1.26821
1639.06	1.43653
1640.59	1.10158
1642.12	1.17617
1643.66	1.43585
1645.19	1.22883
1646.72	1.26295
1648.25	1.63116
1649.79	1.27502
1651.32	2.08936
1652.85	1.17914
1654.38	1.19781
1655.91	1.45805
1657.44	1.62542
1658.97	1.14367
1660.5	1.40162
1662.03	1.71336
1663.56	1.30256
1665.09	1.44594
1666.62	1.47868
1668.15	0.903793
1669.67	0.920819
1671.2	0.847082
1672.73	1.01387
1674.26	0.573318
1675.79	1.25583
1677.31	0.64888
1678.84	0.482933
1680.36	0.500064
1681.89	0.406231
1683.42	0.624363
1684.94	0.768858
1686.47	0.71175
1687.99	0.435175
1689.51	1.11183
1691.04	0.158475
1692.56	0.432271
1694.08	0.577694
1695.61	0.302325
1697.13	0.520359
1698.65	0.3726
1700.18	0.115123
1701.7	0.00341702
1703.22	0.164728
1704.74	-0.0571222
1706.26	0.121272
1707.78	-0.100849
1709.3	0.458364
1710.82	0.581125
1712.35	0.304911
1713.86	0.446009
1715.39	-0.191498
1716.9	0.474323
1718.42	0.397921
1719.94	0.339623
1721.46	0.0109291
1722.98	0.242133
1724.5	0.365793
1726.01	0.0403109
1727.53	0.00430489
1729.05	0.635015
1730.56	0.437639
1732.08	0.366322
1733.6	0.117035
1735.11	0.00248528
1736.63	0.00862122
1738.14	0.297172
1739.66	-0.0868187
1741.17	-0.139779
1742.69	0.0225172
1744.2	-0.0956173
1745.71	-0.312508
1747.23	0.00356293
1748.74	-0.0785227
1750.25	-0.115232
1751.77	-0.332331
1753.28	-0.0396557
1754.79	0.204424
1756.3	0.742254
1757.81	0.352013
1759.33	-0.149993
1760.84	-0.179069
1762.35	0.39514
1763.86	-0.15616
1765.37	0.0592871
1766.88	0.179239
1768.39	0.0533791
1769.9	0.224715
1771.41	0.170016
1772.91	0.107683
1774.42	0.348602
1775.93	0.211986
1777.44	0.0574675
1778.95	0.0443459
1780.45	0.212919
1781.96	-0.117893
1783.47	0.166132
1784.97	0.264076
1786.48	0.238944
1787.99	-0.230127
1789.49	-0.0823641
1791	-0.0519276
1792.5	-0.207209
1794.01	0.433414
1795.51	0.203994
1797.01	0.13922
1798.52	0.0231161
1800.02	0.0727491
1801.52	0.0634623
1803.03	0.131579
1804.53	0.0974255
1806.03	0.0603514
1807.54	0.17271
1809.04	0.26458
1810.54	0.222736
1812.04	-0.0106316
1813.54	0.30079
1815.04	0.287712
1816.54	-0.00615788
1818.04	-0.0366936
1819.54	0.266463
1821.04	0.285926
1822.54	0.236851
1824.04	0.282018
1825.54	0.454643
1827.04	0.11562
1828.54	0.254657
1830.03	-0.00583267
1831.53	0.392447
1833.03	0.172039
1834.53	0.0332441
1836.02	-0.011796
1837.52	0.236618
1839.02	0.312367
1840.51	0.148387
1842.01	-0.129777
1843.5	-0.200604
1845	0.00529575
1846.49	-0.334599
1847.99	0.540147
1849.48	0.0348024
1850.98	0.318695
1852.47	0.166769
1853.96	-0.0519152
1855.46	0.15237
1856.95	0.243062
1858.44	0.22066
1859.94	-0.202848
1861.43	-0.0899401
1862.92	0.137176
1864.41	-0.0377865
1865.9	0.360975
1867.39	0.466323
1868.88	0.346085
1870.37	0.135073
1871.86	0.141127
1873.35	0.352541
1874.84	0.348713
1876.33	0.332343
1877.82	0.296493
1879.31	-0.0059824
1880.8	-0.0238523
1882.29	-0.151608
1882.58	-0.188486
1884.08	-0.0322266
1885.57	0.489155
1887.06	0.55642
1888.56	-0.00349426
1890.05	0.0463076
1891.54	0.131724
1893.04	0.322837
1894.53	0.0808954
1896.02	-0.0727863
1897.51	0.208964
1899	0.125398
1900.5	0.406212
1901.99	0.424592
1903.48	0.458729
1904.97	-0.0473518
1906.46	0.106587
1907.95	-0.243223
1909.44	0.0847492
1910.93	-0.246058
1912.42	-0.0728617
1913.91	0.11807
1915.4	0.118248
1916.88	0.0834436
1918.37	0.273488
1919.86	-0.0221176
1921.35	0.271297
1922.84	-0.31819
1924.32	0.686087
1925.81	0.185096
1927.3	-0.0725832
1928.78	0.0684614
1930.27	-0.413921
1931.75	0.57489
1933.24	0.592596
1934.72	0.10666
1936.21	0.432774
1937.69	-0.141623
1939.18	-0.0936432
1940.66	0.0926762
1942.15	0.227754
1943.63	0.363638
1945.11	0.396722
1946.6	0.0680895
1948.08	-0.0710011
1949.56	-0.124516
1951.04	-0.0927629
1952.53	0.437148
1954.01	0.226472
1955.49	0.497145
1956.97	-0.107946
1958.45	0.386668
1959.93	0.0751858
1961.41	-0.132667
1962.89	-0.168797
1964.37	-0.0508795
1965.85	-0.0876398
1967.33	0.559626
1968.81	-0.231221
1970.29	0.0723667
1971.77	0.341129
1973.24	0.404641
1974.72	0.416983
1976.2	0.24199
1977.68	0.0503473
1979.15	0.386682
1980.63	0.161221
1982.11	0.394844
1983.58	0.441011
1985.06	0.249169
1986.53	0.464431
1988.01	0.0692654
1989.48	0.11526
1990.96	0.077177
1992.43	0.32749
1993.91	0.0712948
1995.38	0.221592
1996.86	0.405949
1998.33	0.505691
1999.8	-0.407967
2001.27	-0.00518894
2002.75	-0.092339
2004.22	-0.19637
2005.69	-0.0472651
2007.16	0.422381
2008.64	0.303233
2010.11	0.706807
2011.58	0.774076
2013.05	0.891847
2014.52	0.43699
2015.99	0.620914
2017.46	0.0302391
2018.93	0.565612
2020.4	-0.143371
2021.87	0.42453
2023.34	0.371124
2024.8	-0.168072
2026.27	0.166329
2027.74	-0.0348196
2029.21	0.302062
2030.68	0.724105
2032.14	0.123582
2033.61	-0.141183
2035.08	0.198398
2036.54	0.638643
2038.01	0.120851
2039.48	0.409189
2040.94	0.44545
2042.41	0.33075
2043.87	0.418506
2045.34	0.271566
2046.8	0.293519
2048.27	0.332592
2049.73	0.118564
2051.19	0.426119
2052.66	0.327678
2054.12	0.311894
2055.58	0.243959
2057.05	-0.0442991
2058.51	0.425239
2059.97	0.860581
2061.43	0.0500326
2062.9	-0.153316
2064.36	-0.00230026
2065.82	0.603912
2067.28	0.537707
2068.74	0.270051
2070.2	0.238262
2071.66	-0.147037
2073.12	0.34299
2074.58	0.630803
2076.04	0.0426588
2077.5	0.54877
2078.95	0.364068
2080.41	0.178965
2081.87	0.498486
2083.33	0.295467
2084.79	-0.211005
2086.24	0.59429
2087.7	0.557671
2089.16	0.772781
2090.61	0.567557
2092.07	-0.22511
2093.53	0.778337
2094.98	0.489162
2096.44	0.400976
2097.89	-0.223637
2099.35	0.239928
2100.8	0.451676
2102.26	0.446088
2103.71	0.257582
2105.16	0.0203638
2106.62	0.218293
2108.07	0.700524
2109.53	0.532483
2110.98	0.380681
2112.43	0.244461
2113.88	-0.059629
2115.33	0.417389
2116.79	0.62684
2118.24	0.53727
2119.69	1.02999
2121.14	0.213381
2122.59	0.593186
2124.04	0.0952549
2125.49	0.592822
2126.94	0.741866
2128.39	0.724158
2129.84	0.440065
2131.29	0.668481
2132.74	0.465588
2134.19	0.279465
2135.63	0.391854
2137.08	0.35669
2138.53	0.521469
2139.98	0.919283
2141.43	0.955035
2142.87	0.826523
2144.32	0.698485
2145.77	0.454588
2147.21	0.673815
2148.66	0.346049
2150.1	0.82911
2151.55	0.847509
2152.99	0.699312
2154.44	0.881755
2155.88	0.782123
2157.33	1.03046
2158.77	0.815626
2160.21	0.668245
2161.66	0.671502
2163.1	1.55512
2164.55	0.699203
2165.99	0.805782
2167.43	0.663179
2168.87	1.1013
2170.31	0.972721
2171.76	0.642503
2173.2	0.676491
2174.64	0.576209
2176.08	1.42338
2177.52	1.08993
2178.96	1.17291
2180.4	0.691529
2181.84	0.975716
2183.28	0.894641
2184.72	0.614184
2186.16	0.866036
2187.6	1.0348
2189.04	0.954034
2190.47	1.15618
2191.91	0.808743
2193.35	0.61038
2194.79	0.710504
2196.23	0.79232
2197.66	0.922188
2199.1	0.684563
2200.54	0.712178
2201.97	1.10488
2203.41	0.883803
2204.84	0.780077
2206.28	0.113903
2207.71	0.376441
2209.15	0.72137
2210.58	0.40323
2212.02	0.646932
2213.45	0.691306
2214.89	0.619892
2216.32	0.367571
2217.75	0.825923
2219.19	0.872723
2220.62	0.524608
2222.05	0.671218
2223.48	0.553462
2224.92	0.286359
2226.35	0.593979
2227.78	0.751658
2229.21	0.0867138
2230.64	0.603661
2232.07	0.594905
2233.5	0.537339
2234.93	0.660428
2236.36	0.408638
2237.79	0.452506
2239.22	0.59592
2240.65	0.0070219
2242.08	0.267983
2243.51	0.35058
2244.94	0.188801
2246.37	0.401568
2247.79	-0.15362
2249.22	0.316698
2250.65	0.295832
2252.08	0.371112
2253.5	0.884583
2254.93	0.56886
2256.36	0.238764
2257.78	0.381729
2259.21	0.462258
2260.63	0.00996971
2262.06	0.208787
2263.48	0.068089
2264.91	0.382487
2266.33	0.209095
2267.76	0.408985
2269.18	-0.0427699
2270.6	0.383584
2272.03	0.337511
2273.45	0.323838
2274.87	-0.0807204
2276.3	0.150171
2277.72	-0.00982141
2279.14	-0.332879
2280.56	0.289646
2281.98	0.210999
2283.41	0.181185
2284.83	0.135081
2286.25	-0.0740862
2287.67	0.059833
2289.09	-0.0344529
2290.51	-0.275532
2291.93	0.595048
2293.35	0.174471
2294.77	-0.131958
2296.19	-0.242304
2297.61	-0.139902
2299.02	-0.135663
2300.44	0.0654216
2301.86	0.13576
2303.28	0.583765
2304.7	0.638415
2306.11	0.364573
2307.53	0.0737081
2308.95	0.0615535
2310.36	-0.0168939
2311.78	0.118108
2313.2	-0.223997
2314.61	-0.0557117
2316.03	-0.117203
2317.44	-0.0792365
2318.86	-0.271646
2320.27	-0.332541
2321.69	0.0180998
2323.1	0.202268
2324.51	0.4339
2325.93	0.34994
2327.34	0.759241
2328.76	0.640047
2330.17	0.0435414
2331.58	-0.139992
2332.99	0.105475
2334.41	0.483177
2335.82	0.3016
2337.23	0.00456095
2338.64	0.348008
2340.05	-0.0821667
2341.46	0.291978
2342.87	-0.385063
2344.28	-0.241247
2345.69	-0.0646038
2347.1	0.079308
2348.51	0.0102682
2349.92	0.169987
2351.33	-0.11256
2352.74	0.0454512
2354.15	0.463405
2355.56	0.227933
2356.97	0.122925
2358.37	0.1157
2359.78	0.417284
2361.19	-0.222987
2362.6	-0.0188789
2364	0.168497
2365.41	0.209823
2366.82	-0.120448
2368.22	0.0832567
2369.63	-0.0351076
2371.03	0.00906277
2372.44	0.183226
2373.84	-0.0927782
2375.25	0.195135
2376.65	-0.00021553
2378.06	0.0931029
2379.46	0.0724497
2380.86	-0.206462
2382.27	0.235526
2383.67	0.403448
2385.07	0.122913
2386.48	-0.00480652
2387.88	-0.131425
2389.28	0.0541344
2390.69	0.144898
2392.09	0.236582
2393.49	0.344966
2394.89	-0.182152
2396.29	0.436414
2397.69	0.339965
2399.09	0.132876
2400.49	0.11695
2401.89	0.355444
2403.29	0.117469
2404.69	0.228556
2406.09	-0.0104194
2407.49	0.305309
2408.89	0.731063
2410.29	0.046536
2411.69	0.0124774
2413.08	0.13755
2414.48	0.358684
2415.88	0.280307
2417.28	-0.113497
2418.67	-0.221588
2420.07	0.00316
2421.47	0.0853276
2422.86	0.00877905
2424.26	-0.305689
2425.65	0.457399
2427.05	-0.11013
2428.45	0.353338
2429.84	0.48493
2431.23	-0.366508
2432.63	-0.297878
2434.02	0.215054
2435.42	0.0918698
2436.81	0.0944347
2438.2	0.413405
2439.6	0.0639668
2440.99	0.285584
2442.38	0.474831
2443.78	0.219383
2445.17	0.344656
2446.56	-0.0852122
2447.95	-0.292951
2449.34	-0.278747
2450.73	0.0998082
2452.13	0.272797
2453.52	0.129936
2454.91	0.462516
2456.3	0.0838108
2457.69	-0.104743
2459.08	0.307615
2460.47	-0.324389
2461.85	-0.166302
2463.24	-0.135418
2464.63	0.0687394
2466.02	-0.122325
2467.41	-0.139657
2468.8	-0.0939031
2470.19	0.0147166
2471.57	0.138592
2472.96	0.308973
2474.35	0.0534134
2475.73	0.14371
2477.12	-0.00220299
2478.51	-0.163613
2479.89	0.397197
2481.28	0.141969
2482.66	0.247416
2484.05	0.305301
2485.43	0.112048
2486.82	0.0431528
2488.2	-0.0733566
2489.59	-0.283705
2490.97	-0.0578461
2492.35	0.0124803
2493.74	0.192292
2495.12	-0.154449
2496.5	0.228976
2497.89	-0.0688992
2499.27	-0.0101461
2500.65	0.125557
2502.03	-0.0641899
2503.42	-0.254456
2504.8	0.00219917
2506.18	0.196149
2507.56	0.235569
2508.94	-0.0170512
2510.32	0.19197
2511.7	0.140342
2513.08	0.411413
2514.46	0.49905
2515.84	0.55677
2517.22	0.401005
2518.6	0.352939
2519.98	0.014751
2521.36	0.577746
2522.73	0.208432
2524.11	0.0981417
2525.49	-0.195485
2526.87	-0.00156879
2528.25	0.00984097
2529.62	0.113456
2531	0.157593
2532.38	0.355167
2533.75	-0.190534
2535.13	-0.264588
2536.5	-0.125994
2537.88	0.285429
2539.25	0.0883622
2540.63	-0.0941377
2542.01	0.33028
2543.38	0.147808
2544.75	0.163415
2546.13	0.11947
2547.5	0.0614481
2548.88	-0.0565286
2550.25	-0.0379281
2551.62	0.253422
2553	-0.472825
2554.37	0.226586
2555.74	0.181581
2557.11	-0.379568
2558.49	-0.0761962
2559.86	0.348534
2561.23	0.000611305
2562.6	0.274699
2563.97	-0.13264
2565.34	0.309038
2566.71	-0.325012
2568.08	0.162466
2569.45	0.0740776
2570.82	-0.165871
2572.19	0.321764
2573.56	-0.160601
2574.93	-0.279117
2576.3	0.193677
2577.67	-0.106798
2579.03	-0.149719
2580.4	0.00418329
2581.77	0.157738
2583.14	-0.00743484
2584.5	0.17591
2585.87	0.162131
2587.24	0.330354
2588.6	-0.0317097
2589.97	0.0307059
2591.34	0.153624
2592.7	-0.223901
2594.07	0.0796971
2595.43	0.0945129
2596.8	0.274917
2598.16	-0.271679
2599.53	0.195
2600.89	0.0266438
2602.26	0.206272
2603.62	-0.277844
2604.98	0.20464
2606.35	-0.218108
2607.71	0.128178
2609.07	0.3227
2610.44	0.169491
2611.8	0.0604858
2613.16	0.14613
2614.52	0.351111
2615.88	0.21034
2617.25	0.0251322
2618.61	0.0205426
2619.97	-0.103051
2621.33	0.282557
2622.69	0.264672
2624.05	-0.126273
2625.41	0.244277
2626.77	0.4799
2628.13	0.0741653
2629.49	0.130352
2630.85	0.260669
2632.21	0.167713
2633.56	0.193706
2634.92	0.011858
2636.28	0.023077
2637.64	0.404721
2639	-0.0136924
2640.35	0.086503
2641.71	-0.241921
2643.07	0.139466
2644.42	0.0776029
2645.78	-0.0432458
2647.14	-0.105298
2648.49	0.0530901
2649.85	0.210496
2651.2	0.278806
2652.56	-0.284736
2653.91	0.312048
2655.27	-0.014997
2656.62	0.318533
2657.98	-0.0937996
2659.33	-0.329336
2660.68	-0.403462
2662.04	0.340744
2663.39	0.192674
2664.74	-0.320818
2666.1	-0.119534
2667.45	-0.1084
2668.8	0.281244
2670.15	0.248598
2671.5	0.318267
2672.86	-0.163703
2674.21	-0.0636859
2675.56	0.210904
2676.91	0.166584
2678.26	0.166408
2679.61	-0.0215054
2680.96	0.0525336
2682.31	0.229112
2683.66	0.377794
2685.01	0.135778
2686.36	0.0681319
2687.71	0.145413
2689.06	0.381396
2690.4	0.180384
2691.75	0.166508
2693.1	-0.0372725
2694.45	0.135344
2695.8	0.539525
2697.14	-0.185966
2698.49	-0.229181
2699.84	-0.169612
2701.18	0.210011
2702.53	0.156552
2703.88	0.277864
2705.22	0.341746
2706.57	0.260697
2707.91	0.309943
2709.26	0.373392
2710.6	0.712485
2711.95	0.49955
2713.29	0.591515
2714.64	0.0729885
2715.98	0.237488
2717.32	0.227428
2718.67	-0.102907
2720.01	0.322955
2721.35	0.282873
2722.7	0.286026
2724.04	0.186875
2725.38	0.349355
2726.72	0.162177
2728.06	0.55691
2729.4	0.136438
2730.75	0.44347
2732.09	0.24121
2733.43	0.12637
2734.77	-0.337378
2736.11	0.013617
2737.45	0.350146
2738.79	0.352135
2740.13	0.426613
2741.47	0.369794
2742.81	0.167058
2744.15	0.0946174
2745.48	0.486578
2746.82	0.471262
2748.16	0.0348754
2749.5	0.324352
2750.84	0.222198
2752.17	0.424805
2753.51	0.250679
2754.85	0.0188775
2756.19	0.221852
2757.52	0.164232
2758.86	0.179259
2760.19	0.180157
2761.53	0.326196
2762.86	0.139827
2764.2	0.243138
2765.54	0.0715232
2766.87	0.333544
2768.2	0.33431
2769.54	0.0881395
2770.87	0.361176
2772.21	0.213896
2773.54	0.152524
2774.88	0.335878
2776.21	-0.244472
2777.54	0.140693
2778.87	0.310021
2780.21	0.0341048
2781.54	0.117849
2782.87	0.0437045
2784.2	-0.130771
2785.53	-0.262029
2786.87	0.0224113
2788.2	-0.0365934
2789.53	0.0052886
2790.86	-0.152325
2792.19	0.091157
2793.52	0.0490088
2794.85	0.0354934
2796.18	0.121714
2797.51	0.207417
2798.84	0.264021
2800.17	0.477202
2801.49	0.0908313
2802.82	0.389043
2804.15	0.27346
2805.48	0.371248
2806.81	-0.0155349
2808.13	0.152362
2809.46	0.220183
2810.79	0.0181365
2812.12	0.0723505
2813.44	0.581334
2814.77	0.0987525
2816.09	0.227192
2817.42	0.228998
2818.75	0.0470414
2820.07	0.48872
2821.4	0.17881
2822.72	0.491902
2824.05	0.237622
2825.37	0.6064
2826.7	0.252844
2828.02	0.59365
2829.35	0.354447
2830.67	0.625304
2831.99	0.599056
2833.31	0.700145
2834.64	0.574469
2835.96	0.971999
2837.28	1.04347
2838.61	0.944757
2839.93	1.29845
2841.25	1.52483
2842.57	1.90699
2843.89	1.38517
2845.21	1.61314
2846.53	1.57317
2847.85	2.07058
2849.17	2.07337
2850.49	1.83558
2851.81	2.12027
2853.13	2.26309
2854.45	1.85442
2855.77	2.1945
2857.09	2.19543
2858.41	2.16817
2859.73	2.64929
2861.05	2.53705
2862.36	2.48099
2863.68	3.1444
2865	3.00293
2866.32	2.74868
2867.64	3.07302
2868.95	2.96055
2870.27	3.38425
2871.59	3.56833
2872.9	3.39972
2874.22	3.72356
2875.53	3.56724
2876.85	3.55072
2878.16	3.84297
2879.48	3.62835
2880.79	3.7938
2882.11	3.93183
2883.42	4.02869
2884.74	4.07031
2886.05	3.71945
2887.36	4.02843
2888.68	3.66327
2889.99	3.73237
2891.3	3.94079
2892.62	4.1344
2893.93	4.0475
2895.24	4.1291
2896.55	4.21145
2897.86	4.42076
2899.18	4.19731
2900.49	4.31046
2901.8	4.41004
2903.11	4.25803
2904.42	4.95938
2905.73	4.47208
2907.04	4.18115
2908.35	4.54844
2909.66	4.76276
2910.97	4.222
2912.28	4.98275
2913.59	4.95897
2914.9	5.21377
2916.21	5.69075
2917.51	5.55011
2918.82	5.49248
2920.13	5.88229
2921.44	5.79718
2922.74	5.69942
2924.05	6.21811
2925.36	6.26269
2926.67	6.29391
2927.97	6.43698
2929.28	6.13226
2930.59	6.21838
2931.89	6.55561
2933.2	6.52909
2934.5	6.65627
2935.81	6.61583
2937.11	6.17028
2938.42	6.52148
2939.72	6.36987
2941.02	6.12097
2942.33	5.71921
2943.63	5.64002
2944.94	4.97495
2946.24	5.33152
2947.54	5.26917
2948.85	4.88454
2950.15	4.98855
2951.45	4.33466
2952.75	4.60308
2954.05	4.39409
2955.36	4.00284
2956.66	3.86446
2957.96	3.89591
2959.26	3.7198
2960.56	3.93828
2961.86	3.82242
2963.16	3.52463
2964.46	3.42239
2965.76	3.30467
2967.06	3.12913
2968.36	3.03662
2969.66	2.77465
2970.96	3.41262
2972.26	3.09445
2973.56	3.28301
2974.85	2.68332
2976.15	3.09648
2977.45	3.18469
2978.75	2.59545
2980.05	2.84941
2981.34	2.708
2982.64	2.41148
2983.94	2.90279
2985.23	2.67798
2986.53	2.81999
2987.83	2.68228
2989.12	2.33465
2990.42	2.39473
2991.71	2.2435
2993.01	2.09126
2994.3	2.27508
2995.6	1.3762
2996.89	2.00765
2998.19	1.58586
2999.48	1.58542
3000.77	1.34706
3002.07	1.45976
3003.36	1.36252
3004.65	1.69964
3005.95	0.957969
3007.24	1.08414
3008.53	1.01355
3009.82	0.928238
3011.12	1.05193
3012.41	0.798076
3013.7	0.460881
3014.99	0.849369
3016.28	0.73639
3017.57	0.345713
3018.86	0.568087
3020.15	0.34521
3021.44	0.525218
3022.73	0.28757
3024.02	0.548992
3025.31	0.836985
3026.6	0.376313
3027.89	0.11061
3029.18	0.426901
3030.47	0.412367
3031.76	0.509528
3033.04	0.289936
3034.33	0.760713
3035.62	0.927101
3036.91	0.278657
3038.19	0.249466
3039.48	0.315038
3040.77	0.530277
3042.05	0.318663
3043.34	0.505
3044.63	0.14406
3045.91	0.496255
3047.2	0.248549
3048.48	0.0577168
3049.77	0.496542
3051.05	0.499784
3052.34	0.50367
3053.62	0.111814
3054.91	0.26514
3056.19	0.322008
3057.48	0.486918
3058.76	0.569183
3060.04	0.514922
3061.33	0.338538
3062.61	0.734353
3063.89	0.0840898
3065.17	0.332584
3066.46	0.609371
3067.74	0.683043
3069.02	0.498631
3070.3	0.273061
3071.59	0.359501
3072.87	0.689591
3074.15	0.284283
3075.43	0.639345
3076.71	0.477676
3077.99	0.818684
3079.27	0.264848
3080.55	0.214454
3081.83	0.233144
3083.11	0.334219
3084.39	-0.25618
3085.67	0.171057
3086.94	0.48939
3088.22	0.223419
3089.5	0.37756
3090.78	0.137683
3092.06	-0.00731134
3093.34	0.0648413
3094.61	0.150709
3095.89	-0.0208979
3097.17	-0.382224
3098.44	-0.0116496
3099.72	0.128233
3101	-0.0571961
3102.27	0.0147672
3103.55	0.303471
3104.82	0.226957
3106.1	0.313437
3107.38	0.0758438
3108.65	0.0826502
3109.93	0.212112
3111.2	0.6132
3112.47	0.297275
3113.75	0.143994
3115.02	0.126064
3116.3	0.216132
3117.57	0.169799
3118.84	0.298785
3120.12	0.331789
3121.39	0.418122
3122.66	0.395392
3123.93	0.507892
3125.2	0.390204
3126.48	0.13759
3127.75	0.223793
3129.02	-0.0548735
3130.29	0.572734
3131.56	0.334909
3132.83	0.124043
3134.1	0.291108
3135.37	0.120008
3136.64	0.56911
3137.91	0.262115
3139.18	0.0898757
3140.45	0.254165
3141.72	0.162646
3142.99	0.00426149
3144.26	0.0612545
3145.53	0.373455
3146.8	-0.118617
3148.07	0.180818
3149.33	0.399961
