200.419	0.52529
202.234	0.560047
204.048	0.595819
205.862	0.000205994
207.678	0.158951
209.491	0.146577
211.304	0.59412
213.116	0.359636
214.928	-0.385502
216.742	0.881233
218.554	0.49898
220.365	0.0694084
222.176	-0.116817
223.986	0.133227
225.798	0.311094
227.608	0.609463
229.417	-0.20382
231.226	-0.124236
233.035	0.340662
234.843	-0.279737
236.653	0.0417452
238.46	-0.261295
240.268	-0.103571
242.074	-0.0879221
243.881	0.508161
245.687	-0.0538864
247.493	0.371473
249.298	-0.244731
251.103	-0.0922241
252.908	-0.0881109
254.715	0.0825758
256.519	0.179999
258.322	0.422716
260.126	0.0166397
261.929	0.16694
263.731	-0.042243
265.534	0.135189
267.336	0.0719824
269.137	0.225177
270.938	0.280858
272.739	0.45555
274.54	0.266709
276.34	0.581994
278.14	0.991066
279.939	0.361416
281.739	0.500052
283.537	0.924601
285.336	0.409399
287.134	1.26217
288.932	0.722393
290.729	0.759377
292.526	1.42015
294.323	1.29258
296.117	2.05161
297.913	2.11834
299.709	1.51669
301.504	1.4167
303.299	1.17233
305.093	1.02193
306.888	0.894223
308.682	0.217962
310.475	0.972511
312.268	0.17972
314.059	0.341736
315.852	0.00587082
317.644	0.410295
319.436	0.840557
321.227	1.08191
323.018	0.34672
324.807	0.470136
326.597	0.784818
328.387	0.83673
330.177	0.529211
331.967	0.530767
333.753	0.936857
335.542	0.407144
337.331	0.472699
339.119	1.65996
340.906	1.48118
342.691	0.775477
344.478	1.16934
346.265	0.393102
348.051	0.406133
349.835	1.01653
351.621	0.290095
353.406	0.565467
355.189	0.743906
356.973	0.610542
358.757	0.475588
360.541	0.172602
362.323	0.130605
364.106	0.658365
365.889	0.447813
367.669	0.212877
369.451	0.166982
371.233	0.40431
373.012	0.379939
374.793	0.47326
376.574	1.03849
378.353	0.494824
380.133	0.377374
381.91	0.732278
383.69	0.500192
385.469	0.528564
387.245	-0.00555992
389.024	0.472127
390.8	0.457549
392.577	0.13868
394.353	0.196293
396.129	0.395262
397.906	0.359496
399.68	0.957646
401.456	0.827163
403.23	0.601901
405.005	0.868924
406.778	0.172132
408.552	1.23567
410.325	1.31244
412.099	0.262732
413.87	0.739075
415.643	-0.355859
417.414	0.26303
419.187	0.460386
420.957	0.235629
422.728	0.409587
424.498	0.371438
426.269	0.332165
428.038	0.29185
429.806	0.579544
431.576	-0.118629
433.344	0.028533
435.114	-0.222893
436.881	-0.263126
438.649	0.118293
440.416	-0.276426
442.182	0.124249
443.949	0.287515
445.715	0.752802
447.48	0.373193
449.247	0.32101
451.011	0.315743
452.777	0.871128
454.541	0.329619
456.304	-0.0245895
458.069	1.11205
459.832	1.08345
461.594	-0.0371847
463.358	0.216629
465.119	0.54283
466.881	0.500738
468.642	-0.444474
470.404	0.262892
472.165	0.902043
473.925	0.563181
475.684	0.967156
477.445	0.972557
479.204	-0.142591
480.963	0.301752
482.721	0.699576
484.481	0.516572
486.239	0.312601
487.996	0.740438
489.753	0.588304
491.511	1.11425
493.268	1.36164
495.023	1.04852
496.779	1.15608
498.534	0.34973
500.289	0.690467
502.046	0.51467
503.8	0.126111
505.554	0.793306
507.307	0.895195
509.06	-0.0633564
510.813	0.599182
512.566	0.601082
514.32	1.00112
516.072	0.105453
517.823	0.502255
519.574	1.03858
521.325	0.610112
523.076	1.1678
524.826	1.0205
526.576	0.169573
528.325	1.07809
530.074	0.556046
531.823	0.853849
533.572	0.401288
535.32	0.673025
537.068	1.26977
538.815	1.04646
540.562	1.63831
542.309	0.96991
544.056	0.418947
545.802	0.961393
547.547	1.13145
549.293	0.814623
551.038	0.452512
552.783	0.669726
554.527	1.18713
556.271	1.21909
558.015	1.06704
559.759	0.731627
561.502	0.535664
563.245	0.662798
564.987	0.767526
566.729	0.183831
568.471	0.543105
570.213	0.627995
571.954	0.301618
573.693	1.10142
575.433	0.5271
577.173	0.482485
578.913	0.806831
580.652	0.765029
582.392	0.378691
584.13	0.290235
585.867	0.476478
587.605	-0.235847
589.343	0.315542
591.08	-0.238486
592.817	-0.148933
594.552	0.262547
596.289	0.44401
598.025	0.418405
599.761	0.507425
601.496	0.687458
603.229	-0.00803566
604.964	0.536592
606.699	-0.161672
608.433	-0.125275
610.165	0.255174
611.898	0.750451
613.631	0.283295
615.364	0.894584
617.095	-0.304245
618.827	-0.197327
620.559	-0.20618
622.288	0.263954
624.02	-0.0905514
625.75	-0.193302
627.479	0.321732
629.209	0.0855389
630.939	0.0348558
632.667	-0.150251
634.396	0.259327
636.125	0.257846
637.851	1.37289
639.58	0.247665
641.305	0.374264
643.033	1.20416
644.76	1.43895
646.485	0.809288
648.212	0.501204
649.936	0.629048
651.662	0.87523
653.388	0.467293
655.111	0.176785
656.836	0.708306
658.558	0.763503
660.283	0.749927
662.005	0.254814
663.728	0.693174
665.45	0.534585
667.173	0.510739
668.893	0.966208
670.616	0.141603
672.336	0.646144
674.057	0.558846
675.777	0.45116
677.498	0.689027
679.216	1.01949
680.937	0.314914
682.655	0.366241
684.375	0.184895
686.092	0.968156
687.809	1.28922
689.528	0.480282
691.244	0.591763
692.962	1.02497
694.678	-0.10898
696.393	0.437303
698.111	-0.215181
699.825	0.419997
701.54	0.731195
703.256	1.04085
704.97	0.729096
706.685	0.600745
708.398	0.609695
710.111	1.05353
711.826	1.35879
713.538	1.2743
715.25	0.686958
716.961	1.15089
718.675	1.15786
720.386	1.32461
722.096	0.87644
723.808	1.02068
725.518	1.61922
727.228	0.830861
728.937	0.814964
730.648	0.911894
732.357	1.00819
734.065	0.990928
735.773	0.431305
737.483	0.59577
739.19	0.715631
740.897	0.250364
742.604	0.575608
744.31	0.474296
746.018	0.914828
747.724	0.771832
749.429	1.19283
751.134	0.760661
752.839	1.00484
754.544	0.575824
756.248	1.13855
757.953	1.11821
759.657	1.12216
761.36	1.39806
763.063	0.817662
764.765	1.04898
766.468	0.872618
768.169	1.37208
769.871	1.41704
771.572	0.803717
773.273	1.20625
774.976	1.56291
776.676	1.67145
778.376	1.62329
780.075	1.5544
781.775	1.46424
783.474	1.60058
785.172	1.23768
786.871	1.50578
788.569	1.9737
790.266	1.87164
791.964	1.6081
793.661	2.31392
795.358	1.52915
797.054	1.60335
798.75	2.10733
800.446	1.6676
802.141	1.70255
803.834	1.33355
805.529	1.03213
807.224	1.94339
808.918	1.70696
810.612	2.12017
812.305	2.10554
813.998	1.64208
815.691	1.51488
817.384	2.08123
819.076	1.30577
820.766	1.80466
822.458	1.52222
824.149	2.64586
825.84	2.09858
827.531	1.26494
829.221	1.32582
830.909	1.90255
832.599	1.45819
834.288	1.35039
835.977	1.89055
837.666	1.96248
839.353	1.67582
841.041	0.76156
842.729	0.448461
844.416	1.63183
846.103	1.90006
847.788	1.61159
849.475	1.72851
851.161	1.983
852.845	1.54554
854.53	2.23028
856.216	0.894717
857.901	2.34315
859.583	2.12687
861.268	1.72785
862.952	2.22745
864.633	2.20748
866.317	2.27646
868	2.29953
869.681	1.87093
871.363	1.23875
873.045	1.91463
874.725	1.55265
876.406	1.37111
878.088	1.30239
879.767	1.21094
881.447	1.25449
883.125	0.958559
884.805	0.954812
886.483	1.01714
888.162	0.129974
889.841	0.752674
891.518	1.77862
893.196	1.0449
894.872	0.670965
896.55	1.26306
898.225	1.58329
899.902	0.869792
901.577	1.52369
903.254	1.43682
904.928	1.26053
906.604	1.01795
908.277	1.75767
909.952	0.603837
911.625	1.52246
913.3	1.26216
914.972	1.35808
916.646	1.1433
918.318	1.10615
919.991	1.44558
921.662	1.09929
923.333	1.44014
925.005	1.0093
926.675	1.50848
928.347	0.883659
930.017	1.76123
931.686	1.22727
933.357	2.3042
935.025	0.954763
936.693	1.87779
938.363	1.34617
940.031	1.9629
941.698	1.14743
943.367	0.575216
945.034	0.81921
946.7	0.576352
948.368	0.530018
950.034	1.16562
951.699	1.49049
953.367	1.28584
955.031	0.642108
956.696	0.574973
958.36	0.136534
960.026	0.914822
961.689	0.679944
963.353	0.555157
965.016	1.51202
966.68	0.342508
968.343	1.49252
970.005	1.15754
971.666	0.534005
973.328	1.17172
974.991	0.550515
976.652	0.462164
978.312	0.176425
979.972	0.389194
981.632	0.601662
983.292	0.535935
984.953	0.645037
986.612	1.90253
988.27	0.302954
989.929	0.958813
991.587	0.309235
993.244	0.742453
994.902	0.490941
996.559	0.79139
998.216	0.31974
999.872	1.76549
1001.53	2.39412
1003.19	1.23878
1004.84	0.876302
1006.5	0.426273
1008.15	0.0209293
1009.81	1.08677
1011.46	0.485018
1013.11	0.936541
1014.77	0.621357
1016.42	0.788603
1018.07	0.168575
1019.73	0.796671
1021.38	1.35991
1023.03	1.07173
1024.68	0.457026
1026.34	1.02319
1027.99	0.584172
1029.64	-0.0739174
1031.29	1.05779
1032.94	0.920568
1034.59	0.912356
1036.24	0.706235
1037.89	1.2183
1039.53	1.05461
1041.18	1.06594
1042.83	0.970128
1044.48	1.05035
1046.13	0.785346
1047.77	1.52172
1049.42	1.54341
1051.07	1.2409
1052.71	1.17827
1054.36	0.89878
1056	0.923438
1057.65	1.01297
1059.3	0.819276
1060.94	1.05963
1062.59	1.05985
1064.23	1.53726
1065.87	0.882762
1067.52	1.57469
1069.16	0.787552
1070.8	0.651712
1072.44	-0.135411
1074.09	0.272022
1075.73	1.13584
1077.37	1.43698
1079.01	1.15412
1080.65	0.742129
1082.29	1.00237
1083.93	1.21814
1085.57	0.73818
1087.21	0.94944
1088.85	1.07129
1090.49	1.42876
1092.13	2.32449
1093.77	3.26098
1095.41	3.93699
1097.04	4.07405
1098.68	3.22203
1100.32	2.71809
1101.95	1.31352
1103.59	2.17098
1105.23	0.943437
1106.86	1.48052
1108.5	0.447251
1110.13	1.02558
1111.77	0.484006
1113.4	1.03652
1115.04	0.835426
1116.67	0.590926
1118.31	0.261093
1119.94	0.810859
1121.57	0.804435
1123.2	1.03474
1124.84	0.688399
1126.47	1.30583
1128.1	1.11132
1129.73	0.212167
1131.36	1.49457
1132.99	0.724887
1134.62	0.275802
1136.25	0.616861
1137.88	0.465075
1139.51	0.589599
1141.14	0.243084
1142.77	0.365716
1144.4	0.680299
1146.03	0.163955
1147.66	0.395002
1149.28	0.456491
1150.91	0.774134
1152.54	0.0268764
1154.16	0.0460072
1155.79	1.06493
1157.42	0.508599
1159.04	0.357137
1160.67	0.24926
1162.29	0.61048
1163.92	0.930331
1165.54	1.08072
1167.17	0.486637
1168.79	0.826777
1170.41	-0.23805
1172.04	0.798865
1173.66	0.643508
1175.28	0.295865
1176.9	0.223678
1178.53	-0.229505
1180.15	0.10195
1181.77	-0.0737123
1183.39	0.0898695
1185.01	-0.401701
1186.63	0.0776167
1188.25	0.174565
1189.87	0.121468
1191.49	-0.0600948
1193.11	0.00931454
1194.73	1.48423
1196.35	0.334221
1197.96	-0.392821
1199.58	0.577883
1201.2	0.609121
1202.82	0.434725
1204.43	0.576684
1206.05	0.116057
1207.66	0.512509
1209.28	1.11782
1210.9	0.679173
1212.51	0.342942
1214.13	0.462801
1215.74	1.68335
1217.36	0.486366
1218.97	0.558087
1220.58	0.338834
1222.2	0.203748
1223.81	0.443305
1225.42	1.36753
1227.04	0.512847
1228.65	1.06719
1230.26	0.73358
1231.87	0.628981
1233.48	0.856544
1235.1	0.672215
1236.71	0.758014
1238.32	1.03112
1239.93	1.26382
1241.53	1.00045
1243.14	1.10896
1244.75	0.802721
1246.36	1.32291
1247.97	1.61421
1249.58	0.538924
1251.19	1.11849
1252.8	1.49129
1254.4	1.12028
1256.01	2.09508
1257.62	1.14772
1259.22	0.82219
1260.83	0.994324
1262.43	1.22929
1264.04	2.04449
1265.64	0.808224
1267.25	1.43586
1268.85	1.58576
1270.46	1.81732
1272.06	1.79872
1273.66	1.15681
1275.27	1.07352
1276.87	1.32066
1278.48	1.09017
1280.08	1.79085
1281.68	1.64194
1283.28	1.82426
1284.88	1.96574
1286.48	1.71547
1288.08	2.04535
1289.68	1.73567
1291.28	1.30274
1292.88	2.13014
1294.48	1.73753
1296.08	1.30218
1297.68	1.89731
1299.28	0.901087
1300.88	1.12068
1302.48	2.26534
1304.07	1.86322
1305.67	2.28326
1307.27	1.4695
1308.87	2.23675
1310.46	2.69493
1312.06	2.47704
1313.65	1.60609
1315.25	2.41358
1316.85	1.44463
1318.44	1.82444
1320.03	1.36767
1321.63	1.60311
1323.22	1.81582
1324.82	1.63965
1326.41	1.52302
1328	1.60865
1329.6	1.71496
1331.19	1.05443
1332.78	1.81231
1334.37	1.42091
1335.96	1.55672
1337.56	1.65278
1339.15	2.07042
1340.74	1.72
1342.33	1.62903
1343.92	1.59604
1345.51	1.82266
1347.1	1.98861
1348.69	1.87593
1350.28	1.32629
1351.86	1.68069
1353.45	1.0577
1355.04	1.21627
1356.63	1.69494
1358.21	0.874361
1359.8	1.33119
1361.39	1.38708
1362.97	1.24236
1364.56	0.957784
1366.15	1.78957
1367.73	1.10798
1369.32	2.14041
1370.9	1.10432
1372.49	1.06525
1374.07	0.967884
1375.65	1.52799
1377.24	1.01373
1378.82	1.63308
1380.41	1.29602
1381.99	1.67356
1383.57	2.00942
1385.15	1.05167
1386.73	1.00811
1388.32	0.984593
1389.9	0.981739
1391.48	0.900606
1393.06	0.939515
1394.64	1.25656
1396.22	1.35512
1397.8	0.85805
1399.38	0.954556
1400.96	0.732898
1402.54	1.50045
1404.11	0.704198
1405.69	1.13533
1407.27	1.52759
1408.85	0.893212
1410.43	0.95121
1412	1.44356
1413.58	1.20447
1415.16	2.12856
1416.73	1.37435
1418.31	2.05922
1419.88	1.67999
1421.46	1.26309
1423.03	1.34056
1424.61	1.57753
1426.18	0.851683
1427.76	1.9373
1429.33	2.33374
1430.9	1.88264
1432.48	2.43373
1434.05	2.57011
1435.62	2.46977
1437.2	1.97651
1438.77	2.07414
1440.34	3.0771
1441.91	3.27546
1443.48	2.57077
1445.05	2.57412
1446.62	2.49908
1448.19	2.85669
1449.76	2.82156
1451.33	2.86569
1452.9	3.02857
1454.47	2.75929
1456.04	2.7653
1457.61	3.06566
1459.17	2.14415
1460.74	2.55857
1462.31	2.08501
1463.88	2.37654
1465.44	1.99804
1467.01	1.75694
1468.58	1.7325
1470.14	1.74845
1471.71	1.45196
1473.27	1.78459
1474.84	1.82397
1476.4	1.25607
1477.97	1.27659
1479.53	2.13992
1481.1	1.43492
1482.66	1.14153
1484.22	1.18115
1485.78	1.20073
1487.35	1.43478
1488.91	0.727282
1490.47	0.976968
1492.03	0.813018
1493.59	1.56466
1495.16	1.10272
1496.72	-0.0414743
1498.28	0.957491
1499.84	1.60473
1501.4	0.446404
1502.96	0.707705
1504.52	0.988976
1506.08	0.728069
1507.64	0.544242
1509.19	0.610686
1510.75	0.964976
1512.31	0.160993
1513.87	0.166926
1515.42	0.865014
1516.98	0.890133
1518.54	0.877808
1520.1	-0.0914936
1521.65	0.204453
1523.21	-0.131394
1524.76	0.124461
1526.32	0.37848
1527.87	0.211797
1529.43	0.196984
1530.98	0.201162
1532.54	0.509282
1534.09	-0.223902
1535.64	-0.0083456
1537.2	0.547913
1538.75	0.292243
1540.3	0.263822
1541.85	1.25284
1543.41	0.338991
1544.96	0.0659399
1546.51	0.638371
1548.06	0.477671
1549.61	0.635887
1551.16	0.831428
1552.71	0.896265
1554.26	0.793918
1555.81	0.618719
1557.36	0.483217
1558.91	0.480799
1560.46	0.517982
1562.01	0.7623
1563.56	0.336392
1565.1	0.620131
1566.65	0.960067
1568.2	0.889213
1569.75	0.967193
1571.29	0.876705
1572.84	0.711188
1574.38	0.601483
1575.93	0.659808
1577.48	0.718378
1579.02	0.590745
1580.57	0.837264
1582.11	0.356442
1583.65	0.511539
1585.2	1.22827
1586.74	0.805737
1588.29	0.831921
1589.83	0.745613
1591.37	0.752308
1592.92	0.983133
1594.46	0.389603
1596	0.770021
1597.54	0.738836
1599.08	1.34592
1600.62	1.14779
1602.16	0.762363
1603.7	0.695765
1605.24	1.30464
1606.78	1.21698
1608.32	1.07049
1609.86	0.845995
1611.4	1.0885
1612.94	1.49738
1614.48	0.702955
1616.02	0.64047
1617.56	1.08467
1619.09	0.836603
1620.63	0.702921
1622.17	0.720761
1623.71	0.646003
1625.24	1.22648
1626.78	1.01981
1628.31	1.09231
1629.85	0.84513
1631.39	1.47531
1632.92	1.39444
1634.46	1.61269
1635.99	0.768238
1637.52	1.67876
1639.06	1.84368
1640.59	1.61718
1642.12	1.4087
1643.66	1.86937
1645.19	1.71385
1646.72	1.65034
1648.25	1.43782
1649.79	1.28177
1651.32	1.90652
1652.85	1.67899
1654.38	1.97225
1655.91	1.48769
1657.44	1.5222
1658.97	1.40756
1660.5	1.68016
1662.03	1.61757
1663.56	0.980556
1665.09	1.45203
1666.62	1.75705
1668.15	2.00767
1669.67	1.15397
1671.2	1.37158
1672.73	1.11154
1674.26	1.55201
1675.79	1.10829
1677.31	1.19759
1678.84	1.17509
1680.36	0.599721
1681.89	1.27355
1683.42	0.899416
1684.94	0.892856
1686.47	0.684986
1687.99	0.202982
1689.51	0.399769
1691.04	0.59665
1692.56	0.189512
1694.08	0.404617
1695.61	0.820391
1697.13	0.467988
1698.65	0.444264
1700.18	0.328794
1701.7	0.0304565
1703.22	0.223923
1704.74	0.179678
1706.26	0.189538
1707.78	0.362634
1709.3	0.553484
1710.82	0.68965
1712.35	0.100485
1713.86	0.400269
1715.39	0.138439
1716.9	-0.19538
1718.42	-0.149278
1719.94	0.0591631
1721.46	0.682446
1722.98	-0.551557
1724.5	0.253251
1726.01	0.140313
1727.53	0.299098
1729.05	-0.134845
1730.56	-0.403945
1732.08	0.147866
1733.6	0.143101
1735.11	0.153539
1736.63	0.0768948
1738.14	-0.0911493
1739.66	0.289805
1741.17	0.00929451
1742.69	0.0249681
1744.2	-0.369719
1745.71	-0.298777
1747.23	-0.0343218
1748.74	-0.122008
1750.25	-0.0110931
1751.77	0.206685
1753.28	0.270255
1754.79	0.091506
1756.3	0.192434
1757.81	0.261743
1759.33	-0.265087
1760.84	0.0214605
1762.35	0.114305
1763.86	0.336151
1765.37	0.0843763
1766.88	0.122099
1768.39	-0.0387354
1769.9	0.153471
1771.41	0.101392
1772.91	-0.0625534
1774.42	-0.342951
1775.93	0.531694
1777.44	0.189916
1778.95	0.23006
1780.45	-0.00696087
1781.96	0.139071
1783.47	0.0296497
1784.97	-0.0889139
1786.48	0.152473
1787.99	0.606322
1789.49	-0.137228
1791	-0.126873
1792.5	-0.183377
1794.01	0.0542879
1795.51	0.0581951
1797.01	-0.0282354
1798.52	0.0927935
1800.02	0.286396
1801.52	0.313409
1803.03	-0.245181
1804.53	0.199576
1806.03	0.134626
1807.54	-0.159189
1809.04	-0.230262
1810.54	-0.193883
1812.04	0.353381
1813.54	0.293387
1815.04	0.0216227
1816.54	0.0857086
1818.04	-0.168351
1819.54	0.0209951
1821.04	0.392042
1822.54	0.307524
1824.04	0.0735607
1825.54	0.291071
1827.04	-0.0818014
1828.54	-0.204597
1830.03	0.076745
1831.53	-0.256982
1833.03	-0.0190248
1834.53	0.446589
1836.02	0.00551224
1837.52	-0.0234842
1839.02	0.326355
1840.51	0.0609417
1842.01	-0.120026
1843.5	0.0993948
1845	0.0317354
1846.49	-0.0499086
1847.99	0.00583267
1849.48	0.156831
1850.98	-0.129559
1852.47	0.529864
1853.96	0.324539
1855.46	0.636632
1856.95	0.396264
1858.44	0.181611
1859.94	0.546266
1861.43	0.10795
1862.92	-0.0523901
1864.41	-0.098176
1865.9	0.198403
1867.39	0.364079
1868.88	0.240998
1870.37	-0.0263996
1871.86	0.257366
1873.35	-0.0211725
1874.84	0.0735826
1876.33	0.2026
1877.82	0.282424
1879.31	0.0101814
1880.8	-0.0277758
1882.29	-0.0295267
1882.58	-0.0309658
1884.08	0.576426
1885.57	0.102001
1887.06	0.288798
1888.56	0.544436
1890.05	0.504311
1891.54	0.361152
1893.04	0.428734
1894.53	0.429027
1896.02	0.0139151
1897.51	0.173562
1899	0.0547819
1900.5	-0.117475
1901.99	0.056241
1903.48	0.0190773
1904.97	0.293118
1906.46	0.270602
1907.95	-0.0123653
1909.44	0.156972
1910.93	0.570236
1912.42	-0.0390701
1913.91	0.20238
1915.4	-0.024353
1916.88	0.0433197
1918.37	0.543606
1919.86	0.176732
1921.35	0.191059
1922.84	-0.0192022
1924.32	0.568082
1925.81	0.0487328
1927.3	0.257789
1928.78	0.329139
1930.27	0.261899
1931.75	0.297536
1933.24	0.469886
1934.72	0.034112
1936.21	0.946136
1937.69	0.143927
1939.18	0.378911
1940.66	-0.0421572
1942.15	0.228606
1943.63	0.258902
1945.11	-0.278828
1946.6	0.339204
1948.08	0.0604143
1949.56	0.349381
1951.04	-0.069068
1952.53	-0.109594
1954.01	0.00401878
1955.49	0.357963
1956.97	0.402843
1958.45	0.12245
1959.93	-0.0366793
1961.41	0.199361
1962.89	-0.078764
1964.37	0.174215
1965.85	-0.0531416
1967.33	0.181005
1968.81	0.362772
1970.29	0.0820751
1971.77	0.296773
1973.24	0.272151
1974.72	0.14536
1976.2	0.00192928
1977.68	0.472048
1979.15	-0.385958
1980.63	0.0498524
1982.11	0.535858
1983.58	0.528214
1985.06	-0.226654
1986.53	-0.268346
1988.01	-0.360835
1989.48	0.275349
1990.96	-0.459228
1992.43	-0.0924654
1993.91	0.0384502
1995.38	0.0519514
1996.86	0.133534
1998.33	-0.156539
1999.8	0.12704
2001.27	0.0215349
2002.75	0.235988
2004.22	-0.510804
2005.69	0.057807
2007.16	-0.147936
2008.64	0.085393
2010.11	-0.286416
2011.58	0.285164
2013.05	0.301211
2014.52	0.569136
2015.99	-0.0557127
2017.46	0.176437
2018.93	0.272914
2020.4	0.217412
2021.87	-0.0732899
2023.34	-0.31294
2024.8	0.304262
2026.27	-0.402596
2027.74	0.0497541
2029.21	0.0677958
2030.68	0.221666
2032.14	-0.00918674
2033.61	0.129697
2035.08	0.402986
2036.54	0.591975
2038.01	0.091464
2039.48	0.161671
2040.94	-0.474178
2042.41	0.571593
2043.87	-0.365841
2045.34	0.17788
2046.8	0.403152
2048.27	0.64587
2049.73	0.517599
2051.19	0.505943
2052.66	-0.249737
2054.12	0.408928
2055.58	0.610051
2057.05	0.371076
2058.51	0.434611
2059.97	0.346338
2061.43	0.241822
2062.9	-0.130941
2064.36	0.72623
2065.82	0.372808
2067.28	0.222386
2068.74	0.442937
2070.2	0.579751
2071.66	0.413631
2073.12	0.449337
2074.58	0.501554
2076.04	0.485999
2077.5	0.284739
2078.95	-0.304324
2080.41	0.267992
2081.87	0.283905
2083.33	0.349483
2084.79	0.397287
2086.24	0.0740881
2087.7	0.406144
2089.16	0.0987759
2090.61	0.0770092
2092.07	0.306995
2093.53	0.586959
2094.98	0.329646
2096.44	0.625076
2097.89	0.517328
2099.35	-0.00941563
2100.8	0.0830126
2102.26	0.342676
2103.71	0.335831
2105.16	0.514151
2106.62	0.410407
2108.07	0.274641
2109.53	0.289384
2110.98	0.686831
2112.43	0.465803
2113.88	0.192955
2115.33	0.401112
2116.79	0.757462
2118.24	0.582125
2119.69	0.441942
2121.14	0.287705
2122.59	0.152499
2124.04	0.433615
2125.49	0.433541
2126.94	1.16261
2128.39	0.348562
2129.84	0.626925
2131.29	0.77096
2132.74	0.897315
2134.19	1.22202
2135.63	0.786858
2137.08	0.965458
2138.53	0.683585
2139.98	0.866813
2141.43	1.31661
2142.87	0.974426
2144.32	1.12907
2145.77	1.3171
2147.21	0.412103
2148.66	0.449749
2150.1	1.67917
2151.55	0.886333
2152.99	1.5171
2154.44	1.11954
2155.88	1.30132
2157.33	1.10218
2158.77	1.0365
2160.21	0.856512
2161.66	1.68948
2163.1	1.51415
2164.55	1.05853
2165.99	1.284
2167.43	1.07766
2168.87	1.31856
2170.31	1.44102
2171.76	1.51094
2173.2	1.44529
2174.64	1.21157
2176.08	1.59254
2177.52	1.55799
2178.96	1.35818
2180.4	1.19288
2181.84	1.49423
2183.28	1.76312
2184.72	1.08438
2186.16	1.78627
2187.6	1.47346
2189.04	1.27707
2190.47	1.43014
2191.91	1.0002
2193.35	1.26851
2194.79	1.11889
2196.23	1.8159
2197.66	1.0956
2199.1	0.872737
2200.54	1.37994
2201.97	1.12256
2203.41	0.965939
2204.84	0.678237
2206.28	1.3699
2207.71	1.15046
2209.15	0.964053
2210.58	1.3561
2212.02	0.390067
2213.45	1.14341
2214.89	0.755886
2216.32	0.254122
2217.75	1.37103
2219.19	0.971379
2220.62	1.11709
2222.05	0.999155
2223.48	0.0236769
2224.92	0.47997
2226.35	0.604503
2227.78	0.430886
2229.21	0.584475
2230.64	0.0642309
2232.07	0.085619
2233.5	0.401934
2234.93	0.881995
2236.36	0.725539
2237.79	0.816193
2239.22	0.338074
2240.65	0.808836
2242.08	0.531425
2243.51	-0.13591
2244.94	0.518292
2246.37	0.6334
2247.79	0.387699
2249.22	0.481808
2250.65	0.507908
2252.08	0.694563
2253.5	0.0180244
2254.93	0.301663
2256.36	0.408042
2257.78	0.192702
2259.21	0.289197
2260.63	0.162081
2262.06	0.265062
2263.48	0.207619
2264.91	0.507951
2266.33	0.385385
2267.76	0.831086
2269.18	0.299503
2270.6	0.222419
2272.03	0.356373
2273.45	0.115589
2274.87	0.363505
2276.3	0.530316
2277.72	0.0292063
2279.14	0.424541
2280.56	0.5754
2281.98	0.285775
2283.41	0.28957
2284.83	0.63612
2286.25	0.62401
2287.67	0.253141
2289.09	0.421583
2290.51	0.198477
2291.93	-0.0244799
2293.35	0.0141783
2294.77	-0.143497
2296.19	-0.366895
2297.61	-0.0992727
2299.02	0.676504
2300.44	-0.153033
2301.86	0.0172749
2303.28	0.122463
2304.7	0.113041
2306.11	0.579786
2307.53	0.0770922
2308.95	0.181493
2310.36	0.548364
2311.78	0.536644
2313.2	0.162892
2314.61	0.349051
2316.03	0.420996
2317.44	0.807016
2318.86	0.534613
2320.27	0.129619
2321.69	-0.326634
2323.1	0.699967
2324.51	0.205438
2325.93	0.714701
2327.34	0.743218
2328.76	1.00148
2330.17	0.650317
2331.58	0.399439
2332.99	0.46285
2334.41	0.494377
2335.82	0.180711
2337.23	-0.199178
2338.64	0.35707
2340.05	-0.0416384
2341.46	0.396445
2342.87	0.373852
2344.28	0.220065
2345.69	-0.228171
2347.1	0.0779104
2348.51	0.0889959
2349.92	0.475818
2351.33	0.256291
2352.74	0.133866
2354.15	0.49998
2355.56	0.114731
2356.97	-0.17241
2358.37	-0.0686426
2359.78	0.0187988
2361.19	0.300923
2362.6	0.776975
2364	0.685029
2365.41	0.544668
2366.82	0.243251
2368.22	0.395263
2369.63	0.0159893
2371.03	0.00967216
2372.44	0.504398
2373.84	0.194744
2375.25	0.0789557
2376.65	0.348908
2378.06	0.247361
2379.46	-0.273744
2380.86	0.359795
2382.27	-0.116116
2383.67	0.52903
2385.07	0.260622
2386.48	0.177089
2387.88	0.0948925
2389.28	-0.312519
2390.69	0.636379
2392.09	-0.197639
2393.49	0.418469
2394.89	-0.0941687
2396.29	0.443723
2397.69	0.250975
2399.09	0.106717
2400.49	0.20142
2401.89	-0.0847311
2403.29	-0.243707
2404.69	-0.0855255
2406.09	0.801671
2407.49	0.132074
2408.89	0.112328
2410.29	0.314122
2411.69	0.325889
2413.08	0.00613499
2414.48	0.0998011
2415.88	0.100268
2417.28	0.60898
2418.67	0.469764
2420.07	0.315093
2421.47	-0.235806
2422.86	0.464252
2424.26	0.356072
2425.65	0.216275
2427.05	-0.0021534
2428.45	0.224298
2429.84	0.166606
2431.23	0.522268
2432.63	0.132314
2434.02	0.392484
2435.42	-0.238256
2436.81	-0.156049
2438.2	-0.0439034
2439.6	0.654376
2440.99	0.271307
2442.38	0.237055
2443.78	0.551567
2445.17	0.913178
2446.56	0.465706
2447.95	0.303707
2449.34	-0.285835
2450.73	0.122902
2452.13	-0.00614166
2453.52	-0.0550213
2454.91	0.0553703
2456.3	0.498775
2457.69	0.0883455
2459.08	0.310423
2460.47	0.00983906
2461.85	-0.117714
2463.24	0.433469
2464.63	0.13037
2466.02	-0.172841
2467.41	0.0292292
2468.8	0.483497
2470.19	0.258945
2471.57	-0.233918
2472.96	0.0133171
2474.35	-0.244451
2475.73	-0.28241
2477.12	0.292212
2478.51	0.0492411
2479.89	0.0579376
2481.28	-0.0586061
2482.66	0.138276
2484.05	0.0837755
2485.43	0.653818
2486.82	0.00269127
2488.2	0.163066
2489.59	-0.441459
2490.97	-0.00184536
2492.35	-0.464228
2493.74	0.379992
2495.12	0.153874
2496.5	0.162217
2497.89	-0.029748
2499.27	-0.0508842
2500.65	0.113175
2502.03	-0.434902
2503.42	0.00496578
2504.8	0.319478
2506.18	0.0624762
2507.56	0.221284
2508.94	0.0109606
2510.32	-0.121573
2511.7	0.0077467
2513.08	-0.153431
2514.46	0.268723
2515.84	0.247501
2517.22	0.0131378
2518.6	-0.00625896
2519.98	0.050972
2521.36	-0.0449266
2522.73	0.194248
2524.11	0.233768
2525.49	0.0284939
2526.87	-0.00925541
2528.25	0.16661
2529.62	-0.295006
2531	0.157717
2532.38	0.201987
2533.75	0.0808287
2535.13	-0.160983
2536.5	-0.0534353
2537.88	0.0836372
2539.25	-0.327269
2540.63	0.172009
2542.01	0.169681
2543.38	0.228431
2544.75	-0.181994
2546.13	-0.0902424
2547.5	0.367062
2548.88	0.340061
2550.25	0.631771
2551.62	-0.0179977
2553	0.0746593
2554.37	0.378478
2555.74	0.347296
2557.11	0.391279
2558.49	0.526073
2559.86	0.0093174
2561.23	0.35737
2562.6	0.00903225
2563.97	0.328251
2565.34	-0.261234
2566.71	0.407379
2568.08	0.227481
2569.45	0.0172682
2570.82	0.0192423
2572.19	-0.327353
2573.56	0.38723
2574.93	0.162126
2576.3	-0.0326366
2577.67	0.318312
2579.03	0.214135
2580.4	0.321798
2581.77	0.307643
2583.14	-0.707621
2584.5	-0.14634
2585.87	0.248032
2587.24	0.218101
2588.6	0.218733
2589.97	-0.250285
2591.34	-0.0223341
2592.7	-0.128347
2594.07	-0.159571
2595.43	0.156269
2596.8	0.167853
2598.16	0.284337
2599.53	-0.416156
2600.89	0.259305
2602.26	0.406111
2603.62	0.538557
2604.98	-0.143211
2606.35	0.110965
2607.71	0.0478868
2609.07	-0.181974
2610.44	-0.262444
2611.8	-0.299235
2613.16	0.0836535
2614.52	0.359719
2615.88	-0.0553265
2617.25	-0.19938
2618.61	0.136826
2619.97	-0.514151
2621.33	0.391781
2622.69	-0.316612
2624.05	-0.00840855
2625.41	-0.208026
2626.77	-0.124362
2628.13	0.241899
2629.49	0.696572
2630.85	0.0791006
2632.21	-0.344262
2633.56	-0.291678
2634.92	0.191191
2636.28	-0.0237322
2637.64	-0.267948
2639	-0.185969
2640.35	0.47306
2641.71	0.288794
2643.07	0.134708
2644.42	0.512498
2645.78	0.299579
2647.14	-0.00199604
2648.49	0.0495338
2649.85	0.202962
2651.2	-0.115161
2652.56	0.0369377
2653.91	0.0129948
2655.27	-0.405684
2656.62	0.276095
2657.98	0.32903
2659.33	0.236765
2660.68	0.159722
2662.04	0.0533352
2663.39	0.501327
2664.74	0.874731
2666.1	0.502795
2667.45	-0.000318527
2668.8	0.0360527
2670.15	-0.756592
2671.5	0.19727
2672.86	-0.127969
2674.21	-0.161603
2675.56	0.110313
2676.91	0.107058
2678.26	-0.0838957
2679.61	0.349809
2680.96	-0.447618
2682.31	0.23531
2683.66	0.325354
2685.01	0.257111
2686.36	0.552155
2687.71	0.310086
2689.06	-0.485264
2690.4	-0.324597
2691.75	0.457948
2693.1	0.30956
2694.45	-0.086381
2695.8	0.199049
2697.14	0.151846
2698.49	-0.125364
2699.84	0.0919142
2701.18	0.282415
2702.53	-0.162451
2703.88	0.031251
2705.22	-0.0207043
2706.57	0.49305
2707.91	0.150778
2709.26	0.301297
2710.6	0.161026
2711.95	0.194665
2713.29	0.344407
2714.64	0.30521
2715.98	0.0332766
2717.32	0.371873
2718.67	0.244802
2720.01	0.131764
2721.35	0.498395
2722.7	0.209537
2724.04	0.313051
2725.38	0.488811
2726.72	0.329321
2728.06	0.271341
2729.4	0.271292
2730.75	-0.034481
2732.09	0.430872
2733.43	0.503475
2734.77	0.241758
2736.11	0.023982
2737.45	0.417247
2738.79	0.592301
2740.13	-0.323633
2741.47	0.170444
2742.81	0.271056
2744.15	0.167285
2745.48	0.164517
2746.82	0.466174
2748.16	-0.0890179
2749.5	-0.04881
2750.84	0.325195
2752.17	-0.098115
2753.51	-0.187503
2754.85	0.201493
2756.19	0.126956
2757.52	-0.0486727
2758.86	0.1525
2760.19	0.151464
2761.53	0.0931683
2762.86	0.252535
2764.2	-0.19542
2765.54	0.152405
2766.87	-0.25268
2768.2	-0.00788307
2769.54	0.408683
2770.87	0.114932
2772.21	-0.338988
2773.54	0.202137
2774.88	0.10739
2776.21	0.0848055
2777.54	-0.153134
2778.87	-0.0592737
2780.21	-0.0942268
2781.54	-0.387217
2782.87	0.267441
2784.2	0.118064
2785.53	-0.00246906
2786.87	-0.0652876
2788.2	0.201839
2789.53	0.212161
2790.86	0.137806
2792.19	0.278955
2793.52	0.334843
2794.85	-0.280961
2796.18	-0.11103
2797.51	-0.0132799
2798.84	-0.387448
2800.17	-0.0339489
2801.49	0.247581
2802.82	-0.0987415
2804.15	0.310234
2805.48	0.262451
2806.81	0.100098
2808.13	-0.304591
2809.46	-0.15491
2810.79	-0.0195932
2812.12	0.158878
2813.44	0.196756
2814.77	0.278978
2816.09	-0.0764265
2817.42	0.108233
2818.75	-0.216655
2820.07	-0.102161
2821.4	0.252715
2822.72	0.294926
2824.05	0.19467
2825.37	0.0373917
2826.7	0.772396
2828.02	0.0778027
2829.35	0.700697
2830.67	0.503056
2831.99	0.0367479
2833.31	0.731099
2834.64	0.646493
2835.96	0.632035
2837.28	0.914032
2838.61	0.926581
2839.93	0.868168
2841.25	1.41787
2842.57	1.14806
2843.89	1.47279
2845.21	1.27553
2846.53	1.47478
2847.85	1.5473
2849.17	1.11103
2850.49	1.73442
2851.81	2.34303
2853.13	2.0464
2854.45	1.97543
2855.77	2.25746
2857.09	2.10148
2858.41	2.43997
2859.73	2.39704
2861.05	2.39626
2862.36	2.70562
2863.68	2.57684
2865	2.51833
2866.32	2.68555
2867.64	3.37482
2868.95	3.0633
2870.27	3.23175
2871.59	3.48494
2872.9	3.6249
2874.22	3.48201
2875.53	3.47864
2876.85	3.51607
2878.16	4.2841
2879.48	4.17901
2880.79	3.89177
2882.11	3.92907
2883.42	4.15032
2884.74	3.67072
2886.05	4.42742
2887.36	4.35583
2888.68	3.93286
2889.99	3.87378
2891.3	4.59882
2892.62	4.25727
2893.93	4.58823
2895.24	4.40134
2896.55	4.70561
2897.86	4.50738
2899.18	4.28263
2900.49	5.12218
2901.8	4.49342
2903.11	5.06795
2904.42	4.48166
2905.73	5.32246
2907.04	5.28284
2908.35	5.94377
2909.66	5.85052
2910.97	5.61807
2912.28	5.39944
2913.59	5.68368
2914.9	6.05006
2916.21	6.62401
2917.51	6.06192
2918.82	6.96784
2920.13	7.04781
2921.44	7.26851
2922.74	6.42848
2924.05	7.17007
2925.36	7.56373
2926.67	7.52491
2927.97	7.31836
2929.28	7.265
2930.59	7.30872
2931.89	7.50554
2933.2	7.60412
2934.5	7.52094
2935.81	7.46589
2937.11	7.80235
2938.42	7.7198
2939.72	7.23241
2941.02	6.89945
2942.33	6.97289
2943.63	6.75449
2944.94	6.42599
2946.24	6.33661
2947.54	5.08662
2948.85	5.71087
2950.15	5.47993
2951.45	5.54061
2952.75	5.96285
2954.05	5.13708
2955.36	5.50093
2956.66	4.53622
2957.96	4.93187
2959.26	4.72909
2960.56	4.23547
2961.86	4.669
2963.16	4.44466
2964.46	4.66847
2965.76	4.16019
2967.06	4.22553
2968.36	4.38763
2969.66	4.19728
2970.96	4.04887
2972.26	3.8304
2973.56	4.10476
2974.85	3.68945
2976.15	4.06155
2977.45	3.82654
2978.75	3.87085
2980.05	3.29347
2981.34	3.71378
2982.64	3.47196
2983.94	2.96366
2985.23	3.08957
2986.53	3.24545
2987.83	3.4594
2989.12	2.7331
2990.42	2.76589
2991.71	2.86827
2993.01	2.37895
2994.3	1.88811
2995.6	2.47759
2996.89	2.40576
2998.19	1.94076
2999.48	1.93934
3000.77	1.60206
3002.07	1.74228
3003.36	1.49055
3004.65	1.25306
3005.95	1.58946
3007.24	1.37884
3008.53	0.999397
3009.82	1.23442
3011.12	0.769531
3012.41	1.08659
3013.7	0.88695
3014.99	0.451136
3016.28	0.365005
3017.57	0.822789
3018.86	0.22316
3020.15	0.486423
3021.44	0.304019
3022.73	0.96794
3024.02	0.574877
3025.31	0.153798
3026.6	0.481104
3027.89	0.379418
3029.18	0.306908
3030.47	0.429738
3031.76	-0.0396042
3033.04	0.182879
3034.33	0.543523
3035.62	0.0616455
3036.91	0.281708
3038.19	0.141018
3039.48	-0.139383
3040.77	0.348581
3042.05	0.738
3043.34	0.207972
3044.63	0.0636559
3045.91	0.126741
3047.2	0.711432
3048.48	0.479127
3049.77	0.167778
3051.05	0.104073
3052.34	0.286922
3053.62	0.251369
3054.91	0.310432
3056.19	0.790871
3057.48	1.06498
3058.76	0.275024
3060.04	0.629313
3061.33	0.58899
3062.61	0.6179
3063.89	0.40376
3065.17	0.517874
3066.46	0.38898
3067.74	0.451583
3069.02	0.297028
3070.3	0.631632
3071.59	0.570658
3072.87	0.399255
3074.15	0.416591
3075.43	-0.124398
3076.71	0.353189
3077.99	0.0299492
3079.27	0.427355
3080.55	0.365166
3081.83	-0.210571
3083.11	0.449603
3084.39	-0.0425987
3085.67	0.238581
3086.94	-0.10518
3088.22	-0.558511
3089.5	0.208799
3090.78	-0.178162
3092.06	0.235199
3093.34	-0.0568018
3094.61	0.316081
3095.89	0.092515
3097.17	0.0994949
3098.44	0.133406
3099.72	-0.131059
3101	-0.260112
3102.27	-0.19951
3103.55	0.281006
3104.82	0.572361
3106.1	0.39082
3107.38	0.291608
3108.65	0.51844
3109.93	0.191649
3111.2	0.0418587
3112.47	-0.337434
3113.75	0.00159359
3115.02	0.313656
3116.3	0.137031
3117.57	0.135445
3118.84	0.485027
3120.12	0.358356
3121.39	0.189762
3122.66	0.413442
3123.93	0.568851
3125.2	0.26391
3126.48	0.514584
3127.75	-0.0595846
3129.02	0.584384
3130.29	0.119606
3131.56	0.114693
3132.83	0.136493
3134.1	0.400786
3135.37	0.0835752
3136.64	0.53486
3137.91	-0.0263472
3139.18	0.315214
3140.45	0.480907
3141.72	0.377326
3142.99	0.153242
3144.26	-0.016283
3145.53	0.754108
3146.8	0.545555
3148.07	0.123664
3149.33	0.452667
