200.563	-0.065836
202.377	-0.0548086
204.194	-0.0423574
206.008	0.384516
207.821	-0.209632
209.634	0.678703
211.449	0.229529
213.262	-0.0502634
215.074	0.372887
216.885	0.649648
218.699	0.829388
220.51	-0.152057
222.321	0.247401
224.131	0.333111
225.941	0.298568
227.751	0.191774
229.562	-0.156586
231.371	0.436239
233.18	-0.394861
234.988	0.270226
236.796	0.18891
238.603	-0.324144
240.411	-0.473321
242.219	0.175232
244.026	0.150086
245.832	0.173189
247.638	0.0983801
249.443	0.0936337
251.248	0.134459
253.053	0.245301
254.857	0.0410233
256.661	-0.404341
258.465	0.260106
260.268	-0.327028
262.071	0.123679
263.874	0.214614
265.678	0.18617
267.48	-0.0829353
269.282	-0.641639
271.083	0.414187
272.884	0.0466881
274.684	0.111968
276.484	0.320456
278.284	-0.24389
280.084	0.467017
281.883	0.0440569
283.682	-0.668414
285.48	-0.155491
287.276	0.283825
289.074	0.410697
290.871	0.274652
292.668	0.211959
294.465	-0.255753
296.261	0.0434675
298.057	0.0566797
299.853	0.0942812
301.648	0.155621
303.443	0.0968113
305.237	-0.130057
307.032	-0.0473785
308.823	0.225779
310.617	-0.00105762
312.41	0.5594
314.203	-0.0693798
315.995	-0.410577
317.788	-0.0357618
319.579	0.150079
321.369	0.217974
323.16	-0.166392
324.951	0.403728
326.741	0.306123
328.531	0.327676
330.321	0.0856905
332.108	0.00980949
333.897	-0.354743
335.686	0.0684052
337.474	-0.0129356
339.26	0.478056
341.048	0.0108137
342.835	-0.122063
344.622	-0.0397682
346.406	-0.00481319
348.192	0.460588
349.978	0.210097
351.764	0.484838
353.547	0.0908098
355.332	0.0538912
357.116	-0.508696
358.901	0.214954
360.682	0.127043
362.466	-0.247079
364.249	0.0444803
366.03	0.192394
367.812	-0.0403776
369.594	0.0821962
371.374	0.180078
373.155	0.986861
374.936	0.279149
376.715	-0.356033
378.495	-0.447024
380.273	0.0754242
382.053	-0.155134
383.832	0.297894
385.609	-0.306249
387.388	0.383625
389.164	-0.382358
390.942	0.309034
392.72	0.13209
394.495	0.190556
396.272	0.155443
398.047	0.284811
399.823	0.437541
401.597	0.261035
403.372	0.29536
405.145	0.587334
406.92	0.221073
408.693	0.276993
410.467	-0.0194626
412.239	0.0597353
414.012	0.444357
415.783	-0.155886
417.556	-0.19226
419.327	0.123912
421.099	0.0883341
422.869	-0.1353
424.64	-0.0543947
426.409	-0.0212574
428.18	-0.176636
429.948	0.207466
431.718	0.145569
433.486	0.623767
435.253	-0.446706
437.022	0.0317755
438.789	0.274906
440.558	0.164674
442.324	-0.0176792
444.089	0.0326662
445.857	0.409264
447.622	0.0586681
449.386	0.0590448
451.153	0.223058
452.917	-0.149789
454.682	0.107906
456.446	-0.00771904
458.208	0.202735
459.973	0.133719
461.735	-0.167091
463.497	0.11486
465.259	0.212848
467.022	0.336609
468.783	0.486058
470.544	0.00937366
472.306	-0.0252256
474.066	0.288671
475.825	0.158707
477.585	-0.0198288
479.346	0.731813
481.104	0.41104
482.862	0.533009
484.62	0.656082
486.38	0.804309
488.137	0.32529
489.894	0.453971
491.65	0.583788
493.407	0.060153
495.164	-0.0666809
496.92	0.391378
498.675	0.592259
500.43	0.277109
502.184	0.289422
503.939	-0.121871
505.694	0.217419
507.448	0.508815
509.201	-0.0243225
510.954	0.523217
512.706	0.881204
514.459	0.508351
516.21	0.510751
517.962	0.559082
519.715	0.771008
521.466	0.441649
523.216	0.229606
524.966	0.487003
526.716	0.134197
528.466	0.344466
530.215	0.22633
531.964	0.342141
533.712	0.808164
535.46	0.266723
537.208	0.682999
538.955	0.676992
540.703	-0.122911
542.449	0.266181
544.196	0.212023
545.942	0.436778
547.688	0.545124
549.433	0.421629
551.178	0.27545
552.923	0.199129
554.667	0.515914
556.412	0.0244427
558.155	0.387445
559.899	0.266417
561.642	0.0770292
563.385	0.0724382
565.127	-0.138507
566.867	0.133727
568.609	0.0619678
570.35	0.0600319
572.092	0.219869
573.832	0.381083
575.573	-0.0296583
577.313	0.386952
579.053	0.345856
580.79	0.0986423
582.529	0.241891
584.268	0.361777
586.006	0.227835
587.745	-0.137348
589.482	0.531631
591.218	0.0954914
592.955	0.188065
594.692	0.165459
596.428	-0.0871916
598.164	0.0742311
599.898	-0.316833
601.634	-0.363506
603.369	0.255708
605.104	0.183578
606.836	0.317172
608.57	0.128425
610.304	-0.0372572
612.037	0.279336
613.769	0.642161
615.501	0.134382
617.234	-0.0750837
618.966	0.264759
620.696	-0.0604677
622.427	0.00248718
624.159	0.841823
625.887	0.515043
627.618	0.349458
629.348	-0.0196114
631.076	0.594647
632.806	0.275076
634.535	-0.271955
636.262	0.572965
637.99	0.138073
639.716	0.659428
641.444	0.310954
643.172	-0.267018
644.897	0.908082
646.624	0.693843
648.348	0.208946
650.075	0.704321
651.801	0.703121
653.524	0.159868
655.249	0.323994
656.972	0.103202
658.697	-0.0717125
660.419	0.368698
662.143	0.694326
663.865	0.401273
665.588	0.700225
667.309	0.40308
669.032	0.631244
670.752	0.311187
672.474	0.312983
674.194	0.477156
675.915	0.803864
677.634	0.604509
679.355	0.703418
681.073	0.548688
682.793	0.369091
684.511	0.924047
686.23	0.556549
687.947	0.371728
689.664	0.899992
691.382	0.897828
693.098	-0.187534
694.816	0.523101
696.531	1.09447
698.247	1.04289
699.963	0.852112
701.678	0.844456
703.392	0.583142
705.108	0.780862
706.821	0.610645
708.534	0.898922
710.249	0.728126
711.962	1.28983
713.674	1.4157
715.388	1.56397
717.099	1.32383
718.81	1.08418
720.523	1.073
722.234	0.857037
723.944	1.48326
725.654	1.0399
727.365	0.93768
729.075	0.857961
730.784	1.00467
732.492	1.03751
734.202	1.29632
735.91	0.989652
737.618	1.09033
739.325	0.94329
741.034	1.56372
742.741	1.37348
744.447	1.40983
746.153	0.862369
747.859	0.923903
749.564	0.761638
751.271	1.61263
752.976	1.25023
754.681	1.40641
756.385	1.00138
758.088	1.38544
759.792	2.04161
761.495	1.5949
763.2	1.30593
764.902	1.4001
766.604	1.38036
768.306	1.56237
770.008	1.94601
771.709	1.78513
773.41	1.66817
775.11	1.93521
776.811	1.14009
778.51	1.29575
780.21	2.17653
781.909	1.33937
783.608	2.24438
785.307	2.15272
787.005	1.87765
788.703	1.91653
790.401	2.26896
792.098	2.27933
793.795	1.99466
795.492	2.36444
797.188	2.19357
798.884	2.20473
800.58	2.33012
802.276	1.60182
803.971	1.95415
805.665	2.08121
807.36	1.93773
809.054	2.15258
810.748	1.89479
812.441	1.9056
814.135	2.43115
815.826	1.67964
817.518	1.39903
819.21	2.28102
820.902	2.0899
822.594	1.96638
824.285	2.40119
825.976	2.16836
827.665	2.27191
829.355	1.59858
831.045	1.86344
832.735	1.93048
834.424	1.75428
836.111	2.2479
837.8	2.13927
839.488	1.85074
841.177	1.89556
842.864	1.78279
844.55	1.33437
846.237	1.78046
847.924	1.78127
849.61	1.91858
851.295	1.65529
852.98	1.50531
854.666	1.33336
856.349	1.09344
858.034	1.66152
859.719	0.833858
861.403	1.33201
863.085	1.28859
864.769	1.13133
866.452	1.33385
868.133	1.28788
869.816	1.35425
871.498	1.96174
873.179	1.64422
874.86	1.52962
876.54	1.36985
878.221	1.66145
879.902	0.779211
881.58	1.47671
883.26	0.931955
884.938	1.19893
886.618	1.19374
888.297	1.25484
889.974	1.08898
891.653	1.0572
893.329	1.0018
895.007	1.21544
896.683	1.47271
898.36	1.16716
900.035	1.5119
901.712	1.38463
903.387	1.36906
905.063	1.06284
906.737	0.95849
908.412	1.14473
910.085	1.53174
911.76	0.984455
913.433	1.88337
915.107	0.649439
916.779	1.36985
918.452	0.86998
920.124	1.03537
921.797	1.75397
923.467	1.38941
925.138	1.31402
926.81	1.32868
928.48	1.36691
930.151	1.47242
931.82	0.784222
933.489	1.24356
935.16	0.930938
936.828	0.773155
938.496	0.92491
940.165	1.47476
941.833	0.856642
943.5	0.547787
945.168	1.07733
946.834	0.855492
948.5	1.16178
950.168	1.48836
951.834	1.41656
953.499	1.21259
955.163	1.14249
956.83	1.6262
958.494	1.03222
960.158	0.373879
961.821	1.24007
963.487	0.780998
965.15	0.872764
966.812	0.785246
968.474	0.407639
970.138	0.736277
971.8	0.621739
973.461	0.640374
975.123	0.92564
976.783	0.836557
978.446	0.372651
980.106	0.606063
981.766	0.839229
983.425	0.772409
985.084	0.947378
986.743	0.89914
988.402	0.296287
990.06	1.24079
991.72	0.194762
993.378	1.09342
995.035	0.710855
996.692	0.902414
998.349	0.65276
1000.01	1.65917
1001.66	1.0124
1003.32	0.872225
1004.97	0.512061
1006.63	0.899435
1008.28	0.737414
1009.94	1.03671
1011.59	1.09479
1013.25	0.802561
1014.9	0.751952
1016.55	0.504746
1018.21	0.805237
1019.86	0.471931
1021.51	1.1892
1023.16	0.857891
1024.81	0.134182
1026.47	0.918909
1028.12	0.632831
1029.77	0.914245
1031.42	1.08522
1033.07	1.12364
1034.72	1.37868
1036.37	1.2615
1038.02	1.71013
1039.67	2.0927
1041.31	2.08389
1042.96	2.59808
1044.61	2.83111
1046.26	2.28413
1047.91	2.04332
1049.55	1.82589
1051.2	1.91372
1052.84	1.003
1054.49	0.678916
1056.14	1.39796
1057.78	0.638751
1059.43	1.0312
1061.07	0.901295
1062.72	0.270547
1064.36	0.813179
1066	0.246048
1067.65	0.504124
1069.29	0.652575
1070.93	0.800355
1072.58	0.926211
1074.22	0.553391
1075.86	0.420342
1077.5	0.418619
1079.14	0.504692
1080.78	0.461282
1082.42	0.743092
1084.06	0.698827
1085.7	0.653136
1087.34	0.280691
1088.98	0.166741
1090.62	0.635667
1092.26	0.519159
1093.9	0.661593
1095.54	0.760812
1097.17	0.494161
1098.81	0.875321
1100.45	0.633288
1102.09	0.0704136
1103.72	0.434407
1105.36	0.433704
1106.99	0.648539
1108.63	0.84152
1110.27	0.0874348
1111.9	0.428579
1113.53	0.510262
1115.17	0.461996
1116.8	0.520559
1118.43	0.429121
1120.07	0.338407
1121.7	0.120197
1123.33	0.887586
1124.97	0.435764
1126.6	0.541082
1128.23	0.347657
1129.86	0.261812
1131.49	0.433021
1133.12	0.497561
1134.75	-0.0793076
1136.38	0.198318
1138.01	0.560404
1139.64	1.02801
1141.27	0.384167
1142.9	0.423359
1144.53	0.654599
1146.16	-0.0943613
1147.78	0.564548
1149.41	0.179878
1151.04	0.0300951
1152.67	0.604388
1154.29	0.305231
1155.92	-0.334599
1157.54	0.153486
1159.17	0.38637
1160.8	-0.294475
1162.42	0.131434
1164.05	0.409293
1165.67	-0.354273
1167.29	0.0300589
1168.92	-0.458201
1170.54	0.497627
1172.16	0.388867
1173.79	-0.273274
1175.41	-0.277833
1177.03	0.289569
1178.65	-0.266314
1180.28	0.174015
1181.9	-0.0412178
1183.52	0.505412
1185.14	-0.0261545
1186.76	-0.135576
1188.38	0.196857
1190	-0.358167
1191.62	0.181151
1193.24	0.192303
1194.86	0.076808
1196.47	0.611576
1198.09	-0.236028
1199.71	0.446478
1201.33	0.711782
1202.95	0.582353
1204.56	0.204921
1206.18	-0.0661516
1207.8	0.185471
1209.41	0.0200319
1211.03	0.187632
1212.64	0.916586
1214.26	0.788557
1215.87	0.84609
1217.49	0.589923
1219.1	0.354187
1220.71	0.450997
1222.33	0.672661
1223.94	1.18511
1225.55	0.91139
1227.16	1.28086
1228.78	0.534384
1230.39	0.761347
1232	0.823879
1233.61	0.742794
1235.22	1.40686
1236.83	0.914601
1238.44	1.06399
1240.05	0.924534
1241.66	1.07473
1243.27	0.872976
1244.88	1.53951
1246.49	1.21195
1248.1	1.3387
1249.71	1.00957
1251.32	1.01126
1252.92	1.28208
1254.53	1.28465
1256.14	1.41233
1257.74	1.35501
1259.35	1.52634
1260.96	1.03619
1262.56	0.877422
1264.17	1.65076
1265.77	0.890756
1267.38	1.31117
1268.98	1.68943
1270.59	1.13378
1272.19	1.07476
1273.79	0.952626
1275.4	1.5344
1277	1.36904
1278.6	1.99018
1280.21	1.22298
1281.81	1.82214
1283.41	1.20037
1285.01	1.75831
1286.61	1.40714
1288.21	1.3258
1289.81	1.51397
1291.41	1.47524
1293.01	1.56038
1294.61	1.2936
1296.21	1.29423
1297.81	1.89204
1299.41	1.20856
1301.01	1.47293
1302.6	1.63278
1304.2	1.40047
1305.8	1.72302
1307.4	1.16138
1308.99	1.56483
1310.59	1.3527
1312.19	0.977604
1313.78	1.46287
1315.38	1.6621
1316.97	1.65771
1318.57	1.71504
1320.16	1.36443
1321.76	1.74678
1323.35	1.3334
1324.94	1.28516
1326.54	1.70268
1328.13	1.73347
1329.72	1.33961
1331.32	1.45374
1332.91	1.5899
1334.5	1.88943
1336.09	1.58474
1337.68	1.78503
1339.27	1.58131
1340.87	1.6784
1342.45	1.45138
1344.04	1.9265
1345.64	1.45601
1347.22	1.56835
1348.81	1.46171
1350.4	0.817201
1351.99	1.39582
1353.58	1.11603
1355.17	1.31724
1356.75	0.899212
1358.34	0.700757
1359.93	1.04076
1361.51	0.780792
1363.1	0.640077
1364.69	0.858085
1366.27	0.358833
1367.86	1.23483
1369.44	0.697835
1371.03	0.898725
1372.61	0.643074
1374.2	0.826153
1375.78	1.30826
1377.37	0.954699
1378.95	0.580771
1380.53	1.10138
1382.11	0.506688
1383.7	1.42253
1385.28	0.905663
1386.86	0.388908
1388.44	0.925224
1390.02	1.62045
1391.6	0.98657
1393.19	1.08772
1394.77	0.395814
1396.35	0.635987
1397.93	1.11328
1399.51	0.776961
1401.08	0.77681
1402.66	0.716796
1404.24	0.617283
1405.82	1.03242
1407.4	1.05265
1408.97	0.717973
1410.55	1.05549
1412.13	0.820106
1413.71	0.367226
1415.28	0.624251
1416.86	0.80145
1418.43	0.662811
1420.01	1.05649
1421.59	1.45077
1423.16	0.92105
1424.73	1.2196
1426.31	0.987807
1427.88	1.46502
1429.46	1.29244
1431.03	1.31586
1432.6	1.25952
1434.18	1.51714
1435.75	1.42024
1437.32	1.08767
1438.89	1.24733
1440.46	1.42748
1442.04	1.09747
1443.61	1.5149
1445.18	1.7558
1446.75	1.82001
1448.32	2.08093
1449.89	1.49683
1451.46	1.71917
1453.03	1.50941
1454.6	1.49658
1456.16	1.68045
1457.73	1.70634
1459.3	1.49488
1460.87	1.36059
1462.44	1.06731
1464	1.85439
1465.57	1.55875
1467.14	1.49885
1468.7	1.00745
1470.27	0.988284
1471.83	1.20551
1473.4	1.14896
1474.96	1.24998
1476.53	1.17487
1478.09	1.2959
1479.66	0.848393
1481.22	1.49848
1482.78	0.874519
1484.35	0.720872
1485.91	1.58562
1487.47	1.62667
1489.04	1.35321
1490.6	1.46961
1492.16	0.84094
1493.72	1.14896
1495.28	0.518371
1496.84	1.05741
1498.4	1.12791
1499.96	0.615752
1501.52	0.804528
1503.08	0.761226
1504.64	0.796237
1506.2	0.618464
1507.76	0.440475
1509.32	0.725569
1510.88	0.642444
1512.44	0.385359
1513.99	0.956161
1515.55	0.257148
1517.11	0.597005
1518.66	0.572392
1520.22	0.33766
1521.78	0.67757
1523.33	0.309293
1524.89	1.16292
1526.44	0.698038
1528	0.538212
1529.55	0.796658
1531.11	0.67467
1532.66	0.534509
1534.21	0.149332
1535.77	0.65484
1537.32	0.215387
1538.87	0.7777
1540.43	0.585002
1541.98	0.336238
1543.53	0.765339
1545.08	0.140618
1546.63	0.418464
1548.18	0.395424
1549.74	0.0912676
1551.29	0.424484
1552.84	1.169
1554.39	0.66084
1555.94	0.434814
1557.48	0.658497
1559.03	0.529115
1560.58	0.401361
1562.13	0.386847
1563.68	1.02618
1565.23	0.938445
1566.78	0.813414
1568.32	0.520157
1569.87	0.357177
1571.42	0.716536
1572.96	0.98235
1574.51	0.576024
1576.05	1.34577
1577.6	0.715625
1579.14	0.795205
1580.69	1.17409
1582.24	1.64717
1583.78	0.645382
1585.32	1.06388
1586.87	1.09048
1588.41	1.32295
1589.95	1.16245
1591.5	0.851684
1593.04	1.12078
1594.58	0.752964
1596.12	0.740963
1597.67	0.691819
1599.21	1.37445
1600.75	1.66434
1602.29	1.50446
1603.83	0.611989
1605.37	0.920465
1606.91	1.64146
1608.45	1.13925
1609.99	0.691427
1611.53	1.27525
1613.07	0.317034
1614.6	0.297263
1616.14	1.42126
1617.68	1.02607
1619.22	1.45662
1620.75	1.32631
1622.29	1.02875
1623.83	0.919168
1625.37	1.50218
1626.9	0.886553
1628.44	0.775285
1629.97	1.37353
1631.51	0.755497
1633.04	0.997034
1634.58	0.883904
1636.11	1.25666
1637.65	1.36878
1639.18	1.35083
1640.72	1.40745
1642.25	1.14675
1643.78	1.40669
1645.31	1.88855
1646.85	1.99705
1648.38	1.99364
1649.91	1.76783
1651.44	2.21123
1652.97	1.69089
1654.5	2.24732
1656.03	2.17376
1657.56	1.9334
1659.1	1.85915
1660.62	1.46908
1662.15	1.79963
1663.68	2.31353
1665.21	1.68101
1666.74	1.71422
1668.27	2.22787
1669.8	1.61798
1671.32	1.94964
1672.85	1.25058
1674.38	1.17837
1675.91	1.56621
1677.43	1.05129
1678.96	1.05092
1680.49	1.38059
1682.01	1.61734
1683.54	1.33938
1685.06	1.20865
1686.59	1.17009
1688.11	1.00366
1689.64	1.27738
1691.16	0.78205
1692.68	0.927761
1694.21	1.07326
1695.73	0.670014
1697.25	0.796841
1698.78	0.886708
1700.3	0.465107
1701.82	0.827804
1703.34	1.0437
1704.86	0.148032
1706.39	0.508826
1707.91	0.577928
1709.43	-0.0978127
1710.95	0.570528
1712.47	0.802726
1713.99	0.762918
1715.51	0.397392
1717.02	0.177094
1718.54	-0.133318
1720.06	0.134545
1721.58	0.456226
1723.1	0.128864
1724.62	0.523407
1726.13	0.396389
1727.65	0.0185676
1729.17	0.57747
1730.68	-0.102334
1732.2	0.205104
1733.72	0.839888
1735.23	0.190942
1736.75	0.0590949
1738.26	0.176278
1739.78	0.579254
1741.29	0.423082
1742.81	0.229575
1744.32	-0.16615
1745.84	0.311699
1747.35	-0.0770612
1748.86	0.110611
1750.37	0.27024
1751.89	0.531447
1753.4	0.102451
1754.91	0.209594
1756.42	0.270248
1757.93	0.0133796
1759.45	0.025557
1760.96	0.175683
1762.47	0.173355
1763.98	0.46059
1765.49	0.145098
1767	0.071744
1768.51	0.252224
1770.02	-0.100479
1771.53	0.322396
1773.03	0.390701
1774.54	0.232962
1776.05	0.219966
1777.56	0.0105557
1779.07	-0.232758
1780.57	0.0240068
1782.08	-0.089066
1783.59	0.0191307
1785.09	-0.164437
1786.6	-0.0854845
1788.11	0.231319
1789.61	0.0547466
1791.12	-0.0223303
1792.62	-0.0772057
1794.13	0.159502
1795.63	0.0551014
1797.13	0.26533
1798.64	0.0901508
1800.14	0.0350704
1801.65	0.0253878
1803.15	-0.119499
1804.65	0.147245
1806.15	-0.00703573
1807.66	0.525807
1809.16	0.0310264
1810.66	0.244591
1812.16	-0.0863786
1813.66	0.136705
1815.16	-0.109337
1816.66	0.175001
1818.16	0.0113478
1819.66	0.099143
1821.16	0.208508
1822.66	0.302293
1824.16	0.175454
1825.66	-0.292095
1827.16	-0.100225
1828.66	-0.0993528
1830.16	0.0899677
1831.65	-0.252697
1833.15	0.0218258
1834.65	-0.103992
1836.14	0.254756
1837.64	0.100365
1839.14	0.00744152
1840.63	0.243311
1842.13	-0.243508
1843.62	0.0170031
1845.12	0.177317
1846.61	0.124761
1848.11	0.278691
1849.6	0.115189
1851.1	0.05829
1852.59	-0.0752726
1854.08	-0.211014
1855.58	0.0115857
1857.07	0.431714
1858.56	0.0459652
1860.05	0.279589
1861.55	0.557879
1863.04	0.0821147
1864.53	0.133409
1866.02	-0.0178418
1867.51	0.311854
1869	0.223898
1870.49	0.11862
1871.98	0.172626
1873.47	0.181644
1874.96	0.105231
1876.45	-0.0815835
1877.94	0.120554
1879.43	0.361946
1880.92	0.643733
1882.41	0.113388
1882.51	0.0738025
1884	0.421925
1885.5	-0.119591
1886.99	0.296625
1888.48	0.276782
1889.98	0.43109
1891.47	-0.213908
1892.96	-0.0226622
1894.46	0.117834
1895.95	0.0857282
1897.44	0.123868
1898.93	0.040175
1900.42	0.28618
1901.91	0.217716
1903.41	0.356491
1904.9	0.267957
1906.39	0.144082
1907.88	-0.101255
1909.37	0.331059
1910.86	0.330024
1912.35	0.225667
1913.83	0.087141
1915.32	0.278213
1916.81	0.330237
1918.3	0.0698047
1919.79	-0.0349073
1921.27	-0.226236
1922.76	0.240866
1924.25	0.569965
1925.74	-0.190659
1927.22	0.0709925
1928.71	0.229331
1930.19	0.439634
1931.68	-0.216565
1933.17	0.0438643
1934.65	0.181581
1936.14	0.0236826
1937.62	0.210793
1939.11	-0.0174184
1940.59	0.203846
1942.07	0.42554
1943.56	0.440906
1945.04	-0.00859547
1946.52	0.00795221
1948.01	0.179407
1949.49	0.315675
1950.97	0.123847
1952.45	-0.292218
1953.93	-0.071969
1955.42	0.010437
1956.9	-0.198895
1958.38	-0.0641847
1959.86	0.431207
1961.34	0.120699
1962.82	-0.292227
1964.3	-0.0196371
1965.78	0.235178
1967.26	0.352237
1968.74	-0.0958495
1970.21	0.105708
1971.69	0.204273
1973.17	0.13196
1974.65	0.230387
1976.13	0.00498486
1977.6	0.239902
1979.08	0.321394
1980.56	0.317703
1982.03	0.381868
1983.51	0.190894
1984.99	0.407279
1986.46	0.131274
1987.94	0.313248
1989.41	-0.063633
1990.89	0.237463
1992.36	-0.00226164
1993.84	0.130979
1995.31	-0.00561047
1996.78	0.0609746
1998.26	0.752357
1999.73	0.0754313
2001.2	0.78229
2002.68	0.0375304
2004.15	0.102575
2005.62	0.0835738
2007.09	0.0651808
2008.56	0.485365
2010.04	0.232668
2011.51	0.249821
2012.98	0.58681
2014.45	0.182889
2015.92	0.300056
2017.39	0.214576
2018.86	0.380644
2020.33	0.260447
2021.8	0.509702
2023.26	0.339349
2024.73	0.304025
2026.2	0.152287
2027.67	0.471387
2029.14	0.0704994
2030.61	-0.0777693
2032.07	0.244528
2033.54	0.315634
2035.01	0.202053
2036.47	0.40726
2037.94	0.326483
2039.4	0.430208
2040.87	0.26496
2042.33	0.419415
2043.8	0.339106
2045.27	0.343616
2046.73	0.146735
2048.19	0.37102
2049.66	0.376176
2051.12	0.565972
2052.59	0.231764
2054.05	0.570587
2055.51	0.503166
2056.97	0.653748
2058.44	0.112643
2059.9	0.228742
2061.36	0.260889
2062.82	0.19268
2064.28	0.293622
2065.74	-0.210471
2067.21	0.598793
2068.67	0.297822
2070.13	0.333706
2071.59	0.453829
2073.05	-0.0491252
2074.51	0.558981
2075.96	0.257532
2077.42	0.595694
2078.88	0.546191
2080.34	0.90043
2081.8	0.479633
2083.26	0.445573
2084.72	0.579185
2086.17	0.712078
2087.63	0.373532
2089.09	0.522316
2090.54	0.502803
2092	0.902955
2093.45	0.816001
2094.91	0.44382
2096.37	0.222504
2097.82	0.687621
2099.28	0.666185
2100.73	0.527445
2102.19	0.589614
2103.64	0.669086
2105.09	0.81631
2106.55	0.747728
2108	0.479959
2109.45	0.712863
2110.91	1.07855
2112.36	0.692976
2113.81	0.805927
2115.26	1.05044
2116.72	0.645372
2118.17	0.889064
2119.62	1.11692
2121.07	0.881694
2122.52	0.897113
2123.97	1.24545
2125.42	1.22951
2126.87	1.21336
2128.32	1.13001
2129.77	0.747224
2131.22	1.10895
2132.67	1.38681
2134.11	1.11839
2135.56	1.31391
2137.01	0.965128
2138.46	0.981693
2139.91	1.38001
2141.35	1.30053
2142.8	1.17246
2144.25	1.45845
2145.7	1.46346
2147.14	1.30264
2148.59	1.65457
2150.03	1.57518
2151.48	1.31258
2152.92	1.7781
2154.37	1.66295
2155.81	1.49768
2157.26	1.91228
2158.7	1.81399
2160.15	2.06482
2161.59	1.52198
2163.03	1.69331
2164.47	1.76669
2165.92	1.45912
2167.36	2.08142
2168.8	2.20483
2170.24	1.94413
2171.69	1.6979
2173.13	1.88236
2174.57	1.98232
2176.01	1.91538
2177.45	1.81539
2178.89	2.01538
2180.33	1.55126
2181.77	2.019
2183.21	1.57278
2184.65	2.07474
2186.09	1.96142
2187.53	1.91464
2188.97	1.90116
2190.4	2.00418
2191.84	1.65747
2193.28	1.50981
2194.72	1.54409
2196.16	2.14265
2197.59	1.37459
2199.03	1.27091
2200.47	1.29935
2201.9	1.65965
2203.34	1.53889
2204.77	1.46901
2206.21	1.84762
2207.64	1.54718
2209.08	1.32962
2210.51	0.979179
2211.95	1.12449
2213.38	1.26895
2214.82	0.96711
2216.25	0.979812
2217.68	0.597519
2219.12	0.958696
2220.55	0.64444
2221.98	0.495299
2223.41	1.07059
2224.85	0.656183
2226.28	1.04714
2227.71	1.33738
2229.14	0.771875
2230.57	1.22402
2232	0.544279
2233.43	1.30671
2234.86	0.661927
2236.29	0.460469
2237.72	0.783025
2239.15	0.959935
2240.58	0.453353
2242.01	0.600851
2243.44	0.276377
2244.87	0.849295
2246.29	0.606132
2247.72	0.329093
2249.15	0.767762
2250.58	0.373229
2252.01	0.0917907
2253.43	0.265517
2254.86	0.861569
2256.29	0.126606
2257.71	0.286868
2259.14	0.497965
2260.56	0.14357
2261.99	0.229172
2263.41	0.153722
2264.84	0.1597
2266.26	0.750771
2267.69	0.300631
2269.11	0.0283723
2270.53	0.243685
2271.96	0.458694
2273.38	0.299069
2274.8	0.481523
2276.23	0.126535
2277.65	0.488622
2279.07	0.296672
2280.49	0.381786
2281.91	0.0427618
2283.34	0.209261
2284.76	0.326909
2286.18	0.395822
2287.6	0.514055
2289.02	0.469392
2290.44	0.572092
2291.86	0.413559
2293.28	0.107805
2294.7	0.456222
2296.12	0.264708
2297.54	0.302242
2298.96	0.0121965
2300.37	0.37763
2301.79	0.071332
2303.21	0.175101
2304.63	0.426837
2306.04	0.317468
2307.46	0.125554
2308.88	0.146737
2310.3	0.677222
2311.71	0.434614
2313.13	0.208276
2314.54	0.113782
2315.96	0.217392
2317.37	0.338197
2318.79	0.179264
2320.2	0.168417
2321.62	-0.123814
2323.03	0.358022
2324.45	0.276935
2325.86	0.73849
2327.27	0.934387
2328.69	0.981061
2330.1	0.533698
2331.51	0.153378
2332.92	0.152782
2334.34	0.646494
2335.75	0.0873613
2337.16	0.317568
2338.57	-0.110765
2339.98	0.380576
2341.39	0.148029
2342.8	0.0302391
2344.21	0.338967
2345.63	-0.204732
2347.04	-0.0596046
2348.45	0.249063
2349.85	-0.146379
2351.26	-0.345706
2352.67	-0.0881414
2354.08	0.510879
2355.49	0.130126
2356.9	-0.0872679
2358.3	0.134917
2359.71	0.145502
2361.12	0.188605
2362.53	-0.0278077
2363.93	0.25823
2365.34	-0.0711803
2366.75	-0.0441937
2368.15	-0.0329452
2369.56	-0.279025
2370.97	-0.0884924
2372.37	0.263929
2373.77	0.214234
2375.18	-0.0926433
2376.59	0.0348682
2377.99	0.354367
2379.39	0.238344
2380.8	0.153269
2382.2	0.0191274
2383.6	0.204885
2385.01	0.294015
2386.41	0.119626
2387.81	-0.053658
2389.21	0.292525
2390.62	-0.0299935
2392.02	0.0468993
2393.42	-0.0346255
2394.82	-0.131319
2396.22	0.0905752
2397.62	-0.0845108
2399.02	0.106399
2400.42	0.313505
2401.82	0.536682
2403.22	0.39456
2404.62	0.141039
2406.02	0.188555
2407.42	0.108352
2408.82	0.23376
2410.22	0.200251
2411.62	0.198632
2413.01	0.245171
2414.41	0.0552187
2415.81	0.325585
2417.21	0.106253
2418.6	0.283456
2420	0.12844
2421.4	-0.153442
2422.79	0.245541
2424.19	-0.290419
2425.59	0.31447
2426.98	-0.0468483
2428.38	-0.233271
2429.77	-0.14949
2431.17	-0.192041
2432.56	0.463987
2433.95	0.310217
2435.35	0.155431
2436.74	-0.048274
2438.14	0.0645738
2439.53	0.17637
2440.92	-0.0619922
2442.31	-0.189501
2443.71	0.0478253
2445.1	0.237232
2446.49	0.347075
2447.88	-0.0662522
2449.27	0.0910225
2450.67	-0.0366678
2452.06	-0.0530534
2453.45	0.105224
2454.84	0.327389
2456.23	0.36024
2457.62	0.219355
2459.01	0.283983
2460.4	-0.0630398
2461.79	0.000520229
2463.18	0.0792255
2464.57	-0.205973
2465.95	0.014183
2467.34	0.376136
2468.73	0.327484
2470.12	0.121003
2471.5	-0.0383468
2472.89	0.180024
2474.28	0.334528
2475.67	0.299506
2477.05	-0.0501208
2478.44	0.291775
2479.82	0.099719
2481.21	0.143296
2482.6	0.124082
2483.98	0.0575643
2485.37	0.131229
2486.75	-0.202355
2488.13	-0.177125
2489.52	0.0812325
2490.9	0.167591
2492.29	-0.27439
2493.67	0.248167
2495.05	0.134707
2496.44	-0.00854588
2497.82	-0.460689
2499.2	-0.107123
2500.58	0.245697
2501.97	0.0873356
2503.35	-0.256817
2504.73	0.139416
2506.11	-0.29773
2507.49	0.281691
2508.87	0.260342
2510.25	-0.052413
2511.63	-0.0725279
2513.01	0.352521
2514.39	0.379333
2515.77	0.269071
2517.15	0.419629
2518.53	-0.0563693
2519.91	-0.0121813
2521.29	0.184486
2522.67	0.273556
2524.05	-0.0499949
2525.42	0.129313
2526.8	0.0340085
2528.18	-0.0151868
2529.55	0.195035
2530.93	0.269495
2532.31	0.102153
2533.69	0.0575056
2535.06	0.104591
2536.44	0.182033
2537.81	-0.105639
2539.19	0.441353
2540.56	0.106767
2541.94	0.136362
2543.31	0.0144205
2544.69	0.0297236
2546.06	0.19766
2547.44	0.139047
2548.81	-0.00993395
2550.18	0.159764
2551.56	-0.171676
2552.93	0.0880184
2554.3	0.255822
2555.67	-0.123343
2557.04	0.376959
2558.42	0.179358
2559.79	0.270097
2561.16	-0.366283
2562.53	0.19522
2563.9	0.363097
2565.27	-0.256682
2566.64	-0.0124936
2568.01	-0.283492
2569.38	0.33969
2570.75	0.129311
2572.12	0.0856709
2573.49	0.208835
2574.86	0.195652
2576.23	-0.363308
2577.6	-0.194626
2578.97	0.0193939
2580.33	0.0663557
2581.7	0.310107
2583.07	0.129
2584.44	0.281249
2585.8	-0.0364852
2587.17	-0.0660872
2588.54	0.222725
2589.9	0.344887
2591.27	0.179016
2592.64	0.103714
2594	0.118691
2595.37	0.0571284
2596.73	0.282386
2598.1	0.0831785
2599.46	0.201391
2600.83	-0.103548
2602.19	-0.196338
2603.55	0.254905
2604.92	0.132819
2606.28	0.0562363
2607.64	0.371504
2609.01	0.143231
2610.37	-0.0556269
2611.73	-0.0595822
2613.09	0.100961
2614.46	0.455837
2615.82	0.16452
2617.18	0.26373
2618.54	0.153561
2619.9	0.493114
2621.26	-0.0195441
2622.62	0.260884
2623.98	0.257409
2625.34	0.164356
2626.7	-0.0182452
2628.06	0.112075
2629.42	0.0186067
2630.78	-0.119519
2632.14	-0.376446
2633.5	-0.00913095
2634.86	0.134936
2636.21	0.308403
2637.57	0.111119
2638.93	-0.0117803
2640.29	0.472217
2641.64	0.334772
2643	-0.363623
2644.36	-0.0865631
2645.71	-0.326293
2647.07	0.392229
2648.43	0.225284
2649.78	0.0873966
2651.14	-0.124286
2652.49	-0.232986
2653.85	0.260206
2655.2	0.0641375
2656.56	-0.0575037
2657.91	0.187838
2659.26	-0.180794
2660.62	0.211589
2661.97	0.179657
2663.32	0.220311
2664.68	0.31864
2666.03	0.4162
2667.38	0.352893
2668.74	0.260479
2670.09	-0.0207171
2671.44	0.0187798
2672.79	-0.290009
2674.14	0.0555282
2675.49	0.139884
2676.84	0.0214953
2678.19	0.222788
2679.54	-0.140865
2680.89	-0.0976439
2682.24	0.163966
2683.59	-0.153457
2684.94	0.22595
2686.29	0.330288
2687.64	0.231369
2688.99	0.000796795
2690.34	0.0592127
2691.69	0.058115
2693.03	0.302443
2694.38	-0.280791
2695.73	0.0639749
2697.08	0.206058
2698.42	0.334578
2699.77	0.131389
2701.12	-0.345549
2702.46	-0.0828199
2703.81	-0.0509543
2705.15	0.184309
2706.5	0.144258
2707.85	-0.0121274
2709.19	0.0778193
2710.54	0.370834
2711.88	0.30066
2713.22	0.0268807
2714.57	0.159879
2715.91	0.176582
2717.26	0.324076
2718.6	-0.401429
2719.94	-0.152634
2721.29	0.299653
2722.63	0.154913
2723.97	0.40277
2725.31	-0.135728
2726.66	0.402568
2728	0.372934
2729.34	0.022953
2730.68	0.298602
2732.02	0.16679
2733.36	0.573311
2734.7	0.281702
2736.04	0.252106
2737.38	0.135357
2738.72	-0.330434
2740.06	-0.0256248
2741.4	0.104271
2742.74	-0.0862098
2744.08	0.333244
2745.42	-0.134274
2746.76	0.284044
2748.09	0.33897
2749.43	0.0311484
2750.77	0.24585
2752.11	0.0981412
2753.45	-0.136235
2754.78	0.0063653
2756.12	-0.184148
2757.46	0.320592
2758.79	0.202801
2760.13	-0.24751
2761.46	-0.0171647
2762.8	-0.278472
2764.14	0.560141
2765.47	-0.192857
2766.8	0.0955343
2768.14	-0.0218906
2769.47	0.134465
2770.81	0.303961
2772.14	0.125527
2773.48	-0.226624
2774.81	0.0124736
2776.14	-0.19541
2777.48	0.144207
2778.81	-0.00521326
2780.14	-0.240229
2781.47	-0.000773907
2782.8	-0.163404
2784.14	-0.268504
2785.47	0.156804
2786.8	0.109042
2788.13	0.0331059
2789.46	0.344171
2790.79	0.126529
2792.12	0.066937
2793.45	-0.192383
2794.78	-0.0370889
2796.11	0.403635
2797.44	0.200877
2798.77	-0.373429
2800.1	0.079988
2801.43	-0.0378337
2802.76	0.272047
2804.09	0.0398679
2805.41	-0.206648
2806.74	0.115996
2808.07	0.138996
2809.4	0.17583
2810.72	0.0990119
2812.05	-0.147513
2813.38	0.117736
2814.71	0.610739
2816.03	0.169168
2817.36	0.139671
2818.68	-0.172815
2820.01	-0.343553
2821.33	-0.00439215
2822.66	0.206639
2823.98	-0.00795364
2825.31	0.244698
2826.63	0.28484
2827.96	-0.226796
2829.28	-0.0866399
2830.6	0.1671
2831.93	0.0246372
2833.25	0.278479
2834.57	-0.0482712
2835.9	-0.134746
2837.22	0.584903
2838.54	0.497563
2839.86	0.282817
2841.18	0.63379
2842.5	0.46194
2843.83	0.926652
2845.15	0.798325
2846.47	0.811841
2847.79	0.924589
2849.11	0.980834
2850.43	0.881369
2851.75	1.00765
2853.07	0.709523
2854.39	1.38618
2855.71	1.04522
2857.03	1.12815
2858.35	1.71958
2859.66	1.51996
2860.98	1.44735
2862.3	1.52979
2863.62	1.95061
2864.94	1.84892
2866.25	2.07171
2867.57	1.97024
2868.89	2.13708
2870.2	2.02227
2871.52	2.40099
2872.84	2.27199
2874.15	2.38195
2875.47	2.50501
2876.78	2.3173
2878.1	1.87579
2879.41	2.48928
2880.73	2.512
2882.04	2.52137
2883.36	2.78443
2884.67	2.79545
2885.99	2.39991
2887.3	2.84671
2888.61	2.77375
2889.93	2.95264
2891.24	2.73805
2892.55	2.67727
2893.86	2.60239
2895.18	3.01798
2896.49	3.11201
2897.8	2.98302
2899.11	3.30271
2900.42	3.28729
2901.73	3.44016
2903.05	3.67714
2904.36	3.35473
2905.67	3.64803
2906.98	3.96981
2908.29	3.83075
2909.6	4.41998
2910.91	3.9604
2912.21	4.52245
2913.52	4.25801
2914.83	4.48226
2916.14	4.67689
2917.45	4.78599
2918.76	5.04798
2920.07	4.97397
2921.37	5.33408
2922.68	5.66724
2923.99	5.42862
2925.29	5.1492
2926.6	5.28973
2927.91	5.76585
2929.22	6.11582
2930.52	5.87808
2931.83	5.90548
2933.13	6.04446
2934.44	5.98771
2935.74	5.56772
2937.05	5.56719
2938.35	5.35725
2939.66	5.76241
2940.96	5.94449
2942.26	5.45667
2943.57	4.914
2944.87	5.29507
2946.18	4.92231
2947.48	5.06753
2948.78	4.97471
2950.08	4.36273
2951.39	4.77108
2952.69	4.67359
2953.99	4.74278
2955.29	4.29365
2956.59	4.48929
2957.9	4.15492
2959.2	4.27098
2960.5	3.91344
2961.8	3.92183
2963.1	3.62234
2964.4	3.44829
2965.7	3.58182
2967	3.23619
2968.3	3.36711
2969.6	3.01932
2970.9	3.06509
2972.19	2.97046
2973.49	2.93238
2974.79	2.33123
2976.09	2.65854
2977.39	2.60468
2978.68	2.43671
2979.98	2.37993
2981.28	2.64568
2982.58	1.85583
2983.87	2.23383
2985.17	2.13465
2986.47	1.76983
2987.76	1.49063
2989.06	1.69004
2990.35	1.31353
2991.65	1.16147
2992.94	1.07888
2994.24	1.24822
2995.53	1.2199
2996.83	1.28928
2998.12	0.769031
2999.42	1.02093
3000.71	0.586015
3002	0.824693
3003.3	1.02154
3004.59	0.55999
3005.88	0.672688
3007.18	0.588852
3008.47	0.616362
3009.76	0.167727
3011.05	0.361854
3012.34	0.653088
3013.64	0.0649953
3014.93	-0.117603
3016.22	0.285687
3017.51	-0.034873
3018.8	0.355005
3020.09	0.104818
3021.38	0.229865
3022.67	0.0207586
3023.96	0.00551081
3025.25	0.197669
3026.54	0.0845852
3027.83	0.138148
3029.12	-0.0839872
3030.41	-0.180266
3031.69	0.373802
3032.98	-0.341761
3034.27	0.240705
3035.56	0.0498228
3036.84	0.0235701
3038.13	0.0786324
3039.42	0.0220184
3040.71	0.25294
3041.99	0.345253
3043.28	0.300216
3044.57	0.17389
3045.85	-0.0874953
3047.14	0.0358663
3048.42	-0.248631
3049.71	0.164846
3050.99	0.429337
3052.28	-0.21972
3053.56	-0.336506
3054.85	0.0646944
3056.13	-0.107869
3057.41	0.0460491
3058.7	0.567059
3059.98	0.0660658
3061.26	-0.0257783
3062.55	0.141685
3063.83	0.0382171
3065.11	0.0991983
3066.39	0.0933495
3067.68	0.156325
3068.96	0.15169
3070.24	0.255703
3071.52	0.168654
3072.8	0.0670848
3074.08	0.277264
3075.36	-0.111305
3076.65	0.152145
3077.93	-0.0729613
3079.21	-0.10704
3080.49	0.158542
3081.77	-0.0629654
3083.04	-0.0799637
3084.32	-0.069231
3085.6	-0.180521
3086.88	0.237202
3088.16	0.111508
3089.44	-0.313269
3090.72	-0.0733228
3091.99	0.0714965
3093.27	-0.0548511
3094.55	-0.0452538
3095.83	0.127315
3097.1	0.164382
3098.38	0.133668
3099.66	-0.127439
3100.93	-0.0904098
3102.21	0.000872135
3103.49	0.0382156
3104.76	0.400849
3106.04	-0.0615263
3107.31	-0.157657
3108.59	0.0854011
3109.86	0.342962
3111.14	-0.11611
3112.41	0.197238
3113.69	-0.00369358
3114.96	-0.0420833
3116.23	-0.0129738
3117.51	-0.147209
3118.78	0.0568581
3120.05	-0.187433
3121.33	0.421863
3122.6	0.00035429
3123.87	-0.0145264
3125.14	0.255162
3126.41	0.0378113
3127.69	0.0511336
3128.96	0.321896
3130.23	0.308899
3131.5	0.323118
3132.77	0.242697
3134.04	-0.0134649
3135.31	0.189265
3136.58	0.512831
3137.85	0.485085
3139.12	0.511029
3140.39	0.375328
3141.66	0.482059
3142.93	0.266447
3144.2	0.239594
3145.47	0.441416
3146.74	0.469298
3148	0.18961
3149.27	0.392837
