200.563	0.358561
202.377	0.364188
204.194	0.371045
206.008	0.792309
207.821	0.654467
209.634	0.273479
211.449	0.3293
213.262	0.554049
215.074	1.0203
216.885	0.806961
218.699	0.376241
220.51	0.697077
222.321	0.704054
224.131	0.566913
225.941	-0.487767
227.751	0.222019
229.562	0.110106
231.371	0.335873
233.18	0.39249
234.988	0.184316
236.796	0.772991
238.603	0.182438
240.411	0.0762129
242.219	0.140736
244.026	0.447742
245.832	-0.13794
247.638	-0.363088
249.443	0.423835
251.248	-0.385218
253.053	0.348735
254.857	-0.149457
256.661	-0.237434
258.465	-0.107619
260.268	0.360875
262.071	0.252819
263.874	-0.0705423
265.678	0.161196
267.48	0.610305
269.282	0.40858
271.083	0.230314
272.884	0.24404
274.684	0.377242
276.484	0.21987
278.284	0.181621
280.084	-0.0267563
281.883	-0.428988
283.682	0.346351
285.48	0.110187
287.276	-0.606018
289.074	0.597372
290.871	0.673435
292.668	0.60705
294.465	0.183453
296.261	0.0724669
298.057	-0.085247
299.853	-0.122907
301.648	0.532014
303.443	0.0398178
305.237	-0.118804
307.032	0.103693
308.823	0.445047
310.617	0.500751
312.41	0.0812359
314.203	0.377787
315.995	0.223548
317.788	0.189966
319.579	0.348329
321.369	0.293357
323.16	0.143697
324.951	0.471556
326.741	0.441824
328.531	0.220775
330.321	0.357562
332.108	0.206497
333.897	0.26928
335.686	-0.196115
337.474	0.174176
339.26	0.303434
341.048	0.0248556
342.835	0.15228
344.622	0.709715
346.406	-0.0702782
348.192	-0.0611696
349.978	0.0438948
351.764	0.268312
353.547	0.0626793
355.332	-0.286775
357.116	0.388276
358.901	-0.320531
360.682	0.423268
362.466	-0.000679016
364.249	0.0509872
366.03	0.387081
367.812	0.0336809
369.594	0.249328
371.374	0.250683
373.155	0.133206
374.936	0.370201
376.715	-0.38457
378.495	0.0417118
380.273	-0.474292
382.053	0.188404
383.832	0.239707
385.609	0.0805206
387.388	-0.335917
389.164	0.329412
390.942	-0.0380783
392.72	0.205827
394.495	0.544185
396.272	0.0139837
398.047	-0.0934153
399.823	0.409745
401.597	-0.191356
403.372	0.193552
405.145	0.202044
406.92	0.444779
408.693	-0.11129
410.467	-0.31526
412.239	0.0206757
414.012	0.145718
415.783	0.154042
417.556	0.655836
419.327	0.336941
421.099	-0.146097
422.869	0.497285
424.64	0.36552
426.409	0.0216885
428.18	-0.0645447
429.948	0.154017
431.718	0.677683
433.486	0.239353
435.253	-0.50375
437.022	0.27866
438.789	0.544138
440.558	-0.13028
442.324	0.132293
444.089	0.134991
445.857	-0.449406
447.622	-0.120998
449.386	0.159736
451.153	-0.0738754
452.917	-0.563573
454.682	0.836945
456.446	-0.0720029
458.208	0.23132
459.973	0.394655
461.735	0.02356
463.497	-0.113363
465.259	-0.457359
467.022	0.153606
468.783	-0.0465565
470.544	0.196454
472.306	0.254046
474.066	-0.0847621
475.825	0.436494
477.585	0.0709982
479.346	0.822125
481.104	0.174823
482.862	0.575862
484.62	0.488826
486.38	0.0772686
488.137	0.412996
489.894	0.867474
491.65	-0.0771141
493.407	0.145471
495.164	0.298475
496.92	0.358031
498.675	0.628336
500.43	0.312421
502.184	0.183192
503.939	0.452343
505.694	0.485865
507.448	0.58879
509.201	0.64344
510.954	0.696746
512.706	0.0192342
514.459	-0.0476885
516.21	0.425389
517.962	0.944244
519.715	0.0279346
521.466	0.756525
523.216	0.779492
524.966	0.567564
526.716	0.825008
528.466	1.1291
530.215	0.0736375
531.964	0.775509
533.712	0.328955
535.46	0.443361
537.208	0.626517
538.955	0.831482
540.703	0.84845
542.449	-0.160089
544.196	0.112941
545.942	0.19942
547.688	0.33226
549.433	-0.34631
551.178	0.273459
552.923	0.360045
554.667	0.469713
556.412	0.233171
558.155	0.251067
559.899	0.453643
561.642	0.403134
563.385	0.514192
565.127	0.418728
566.867	0.140175
568.609	0.528356
570.35	-0.0696759
572.092	0.159678
573.832	0.504971
575.573	0.0717521
577.313	0.396956
579.053	0.539798
580.79	0.56854
582.529	-0.0920291
584.268	0.142944
586.006	-0.45069
587.745	-0.516527
589.482	0.336999
591.218	0.131537
592.955	0.339791
594.692	-0.11929
596.428	0.479983
598.164	0.0669098
599.898	-0.0933905
601.634	0.0907111
603.369	0.595685
605.104	0.409442
606.836	0.475042
608.57	0.402129
610.304	0.122661
612.037	0.302642
613.769	0.34553
615.501	-0.0236149
617.234	-0.140374
618.966	0.177644
620.696	0.128258
622.427	0.169434
624.159	-0.133001
625.887	0.113241
627.618	0.542658
629.348	-0.190532
631.076	0.105227
632.806	0.402549
634.535	0.335584
636.262	0.0171618
637.99	-0.0972486
639.716	0.174223
641.444	0.260642
643.172	0.367789
644.897	0.769748
646.624	1.12578
648.348	0.505578
650.075	-0.0432024
651.801	0.0473824
653.524	0.481981
655.249	0.191805
656.972	0.472143
658.697	0.434632
660.419	0.168432
662.143	0.791169
663.865	0.612978
665.588	0.501179
667.309	0.342021
669.032	0.616789
670.752	0.526313
672.474	0.826419
674.194	0.51052
675.915	0.631345
677.634	0.225614
679.355	0.416315
681.073	0.836446
682.793	1.04869
684.511	0.706865
686.23	0.708508
687.947	0.455492
689.664	0.777398
691.382	0.799264
693.098	0.544177
694.816	0.242426
696.531	0.538686
698.247	1.24817
699.963	1.17367
701.678	0.684306
703.392	0.493506
705.108	1.24398
706.821	0.82253
708.534	0.768254
710.249	0.530432
711.962	1.16261
713.674	1.35884
715.388	0.800449
717.099	1.04209
718.81	1.46584
720.523	1.31922
722.234	1.51454
723.944	1.00427
725.654	0.972115
727.365	0.962454
729.075	1.63318
730.784	0.783414
732.492	1.49759
734.202	0.73962
735.91	1.24887
737.618	1.35101
739.325	1.04747
741.034	1.1059
742.741	1.00757
744.447	1.04554
746.153	1.10712
747.859	1.12481
749.564	1.16607
751.271	1.29835
752.976	1.29676
754.681	0.86885
756.385	1.6572
758.088	1.3442
759.792	1.27989
761.495	1.32913
763.2	1.19834
764.902	1.56385
766.604	1.34137
768.306	1.9083
770.008	1.54662
771.709	1.43185
773.41	1.70031
775.11	1.92315
776.811	2.07862
778.51	1.7604
780.21	1.98618
781.909	1.19492
783.608	2.10058
785.307	1.48902
787.005	2.09771
788.703	1.57189
790.401	1.88063
792.098	2.02842
793.795	1.7456
795.492	1.89169
797.188	1.76787
798.884	1.19525
800.58	1.8177
802.276	1.94575
803.971	2.05174
805.665	1.32573
807.36	2.15
809.054	1.66992
810.748	1.728
812.441	1.71795
814.135	1.50579
815.826	1.51764
817.518	2.15566
819.21	2.09989
820.902	1.3968
822.594	1.87766
824.285	1.82339
825.976	1.74813
827.665	1.94205
829.355	1.42558
831.045	2.40385
832.735	2.02599
834.424	1.69417
836.111	1.74194
837.8	1.52173
839.488	1.72454
841.177	2.01551
842.864	1.27775
844.55	1.74603
846.237	1.96925
847.924	1.43388
849.61	1.48171
851.295	0.949405
852.98	1.62804
854.666	1.50096
856.349	1.82268
858.034	1.49199
859.719	1.60938
861.403	1.13994
863.085	1.0967
864.769	1.30031
866.452	1.02988
868.133	1.23232
869.816	1.34426
871.498	1.36574
873.179	1.09376
874.86	1.13752
876.54	1.40696
878.221	1.94731
879.902	1.44934
881.58	1.26697
883.26	1.55805
884.938	1.3064
886.618	1.61787
888.297	1.29609
889.974	1.42428
891.653	0.852458
893.329	0.82083
895.007	1.2158
896.683	1.1821
898.36	1.10271
900.035	1.51618
901.712	1.34552
903.387	1.84607
905.063	1.40662
906.737	0.990811
908.412	1.40131
910.085	0.943177
911.76	0.909358
913.433	0.698359
915.107	0.843243
916.779	0.987884
918.452	1.37594
920.124	1.25416
921.797	0.690648
923.467	0.990999
925.138	1.42477
926.81	1.10892
928.48	0.706389
930.151	0.967009
931.82	1.20599
933.489	1.20244
935.16	0.84611
936.828	0.997469
938.496	1.23774
940.165	0.949665
941.833	0.64041
943.5	0.94941
945.168	1.08182
946.834	1.19124
948.5	0.835575
950.168	0.677105
951.834	0.782532
953.499	0.755659
955.163	0.333158
956.83	0.4641
958.494	0.244602
960.158	1.24098
961.821	0.914528
963.487	0.941123
965.15	0.988437
966.812	1.14421
968.474	0.987957
970.138	1.00702
971.8	1.18023
973.461	1.02208
975.123	1.01997
976.783	0.68759
978.446	0.842929
980.106	0.744361
981.766	0.645376
983.425	0.799838
985.084	0.177939
986.743	1.50226
988.402	1.36409
990.06	0.495291
991.72	0.731894
993.378	0.990188
995.035	1.02752
996.692	0.844294
998.349	0.903768
1000.01	0.676514
1001.66	0.757508
1003.32	1.27815
1004.97	0.588348
1006.63	0.866293
1008.28	0.353443
1009.94	0.25848
1011.59	0.251689
1013.25	0.880789
1014.9	1.13711
1016.55	0.342723
1018.21	1.19054
1019.86	1.18531
1021.51	0.240857
1023.16	1.09011
1024.81	0.519289
1026.47	0.73572
1028.12	0.711744
1029.77	0.840159
1031.42	0.770946
1033.07	0.787797
1034.72	0.781477
1036.37	1.16647
1038.02	0.809578
1039.67	1.28031
1041.31	1.48992
1042.96	1.50476
1044.61	1.67321
1046.26	1.84325
1047.91	1.2331
1049.55	1.18906
1051.2	0.994006
1052.84	1.32094
1054.49	0.648733
1056.14	1.01948
1057.78	0.455343
1059.43	1.02123
1061.07	0.825648
1062.72	0.498937
1064.36	0.736825
1066	0.386844
1067.65	0.188305
1069.29	0.40193
1070.93	0.484593
1072.58	0.588806
1074.22	-0.00097084
1075.86	0.234687
1077.5	0.211008
1079.14	-0.0285721
1080.78	0.75158
1082.42	-0.116329
1084.06	0.532914
1085.7	0.161844
1087.34	0.396132
1088.98	0.390369
1090.62	0.102017
1092.26	0.591413
1093.9	1.40342
1095.54	0.14299
1097.17	0.480555
1098.81	0.150961
1100.45	0.382833
1102.09	0.185616
1103.72	0.699788
1105.36	0.246873
1106.99	0.396684
1108.63	0.266623
1110.27	-0.143757
1111.9	0.283126
1113.53	0.214317
1115.17	0.294916
1116.8	0.911246
1118.43	0.176335
1120.07	0.321273
1121.7	0.381186
1123.33	0.65589
1124.97	0.0539961
1126.6	0.629508
1128.23	0.478311
1129.86	0.37049
1131.49	0.241762
1133.12	0.284291
1134.75	0.412193
1136.38	0.261704
1138.01	0.47368
1139.64	0.129238
1141.27	0.318041
1142.9	0.03685
1144.53	0.0333176
1146.16	0.819096
1147.78	-0.0571604
1149.41	-0.165262
1151.04	0.429927
1152.67	0.0239725
1154.29	0.533371
1155.92	0.297275
1157.54	0.656952
1159.17	0.314842
1160.8	0.0799189
1162.42	0.590101
1164.05	-0.259722
1165.67	-0.00356865
1167.29	0.146055
1168.92	-0.194157
1170.54	-0.131681
1172.16	-0.155678
1173.79	0.158729
1175.41	0.323257
1177.03	-0.40314
1178.65	0.0579138
1180.28	0.201338
1181.9	-0.0777874
1183.52	0.658664
1185.14	-0.211516
1186.76	-0.194531
1188.38	-0.136604
1190	0.615249
1191.62	0.185042
1193.24	0.175232
1194.86	0.416757
1196.47	-0.117994
1198.09	0.417176
1199.71	0.178699
1201.33	0.0470228
1202.95	-0.165923
1204.56	0.374597
1206.18	-0.23113
1207.8	0.311706
1209.41	0.166224
1211.03	0.353817
1212.64	0.498243
1214.26	0.369881
1215.87	1.15602
1217.49	0.275236
1219.1	-0.16821
1220.71	0.136477
1222.33	0.586258
1223.94	0.269627
1225.55	0.472278
1227.16	0.510333
1228.78	0.487411
1230.39	0.300103
1232	0.217188
1233.61	0.238576
1235.22	-0.0490999
1236.83	0.883608
1238.44	0.866424
1240.05	0.973843
1241.66	0.585031
1243.27	0.547462
1244.88	0.57133
1246.49	0.718558
1248.1	1.23744
1249.71	0.100424
1251.32	0.328826
1252.92	0.391883
1254.53	0.372771
1256.14	1.34736
1257.74	0.730257
1259.35	0.672534
1260.96	0.698267
1262.56	1.05572
1264.17	0.626239
1265.77	0.3619
1267.38	0.718695
1268.98	0.805368
1270.59	0.829032
1272.19	0.851845
1273.79	0.770164
1275.4	0.936443
1277	0.936112
1278.6	1.2044
1280.21	0.975039
1281.81	1.34583
1283.41	0.723438
1285.01	0.5983
1286.61	0.556652
1288.21	0.929204
1289.81	0.620408
1291.41	0.518699
1293.01	0.726831
1294.61	0.913644
1296.21	1.18191
1297.81	1.34543
1299.41	0.764684
1301.01	1.39979
1302.6	1.33255
1304.2	0.976522
1305.8	1.25789
1307.4	1.78468
1308.99	1.20236
1310.59	0.76476
1312.19	0.983446
1313.78	0.527462
1315.38	1.66682
1316.97	1.33514
1318.57	1.08602
1320.16	1.08178
1321.76	1.01565
1323.35	0.887346
1324.94	1.34732
1326.54	1.27726
1328.13	1.16641
1329.72	0.752672
1331.32	1.12991
1332.91	1.10415
1334.5	1.86768
1336.09	1.09809
1337.68	1.43898
1339.27	1.21451
1340.87	0.948646
1342.45	0.902838
1344.04	0.835452
1345.64	0.546566
1347.22	1.00043
1348.81	0.493291
1350.4	0.949602
1351.99	1.16732
1353.58	0.466851
1355.17	0.507353
1356.75	0.30831
1358.34	0.508552
1359.93	0.488274
1361.51	0.447238
1363.1	0.844445
1364.69	0.503344
1366.27	0.461709
1367.86	0.659717
1369.44	1.07748
1371.03	0.560824
1372.61	0.841366
1374.2	0.585526
1375.78	0.867439
1377.37	0.472864
1378.95	0.256961
1380.53	0.398452
1382.11	0.240513
1383.7	0.14135
1385.28	0.836591
1386.86	0.398452
1388.44	1.0133
1390.02	0.774662
1391.6	0.775033
1393.19	0.00236464
1394.77	1.13431
1396.35	0.937049
1397.93	0.541087
1399.51	0.303141
1401.08	0.460782
1402.66	0.776176
1404.24	0.0625248
1405.82	0.53639
1407.4	0.595437
1408.97	0.43777
1410.55	0.794131
1412.13	0.360385
1413.71	0.972622
1415.28	0.99172
1416.86	0.457965
1418.43	0.358108
1420.01	0.770799
1421.59	0.69173
1423.16	0.574603
1424.73	0.124199
1426.31	0.422681
1427.88	0.780608
1429.46	0.88243
1431.03	0.373383
1432.6	1.12298
1434.18	0.474719
1435.75	0.632841
1437.32	0.928669
1438.89	0.242143
1440.46	1.28612
1442.04	0.542308
1443.61	1.33199
1445.18	0.9821
1446.75	1.14336
1448.32	1.04922
1449.89	1.11259
1451.46	1.45164
1453.03	1.26026
1454.6	1.58055
1456.16	1.56644
1457.73	1.07943
1459.3	0.630641
1460.87	1.38093
1462.44	0.752259
1464	0.771702
1465.57	0.849259
1467.14	1.33897
1468.7	0.493474
1470.27	0.552179
1471.83	0.709794
1473.4	0.868147
1474.96	0.634868
1476.53	0.500006
1478.09	0.855362
1479.66	0.524515
1481.22	0.879654
1482.78	0.823097
1484.35	0.74685
1485.91	0.768279
1487.47	0.475706
1489.04	0.515084
1490.6	0.572531
1492.16	0.374031
1493.72	0.994483
1495.28	0.83183
1496.84	0.84407
1498.4	0.0972724
1499.96	0.42164
1501.52	0.299611
1503.08	0.896255
1504.64	0.911227
1506.2	0.442455
1507.76	0.341472
1509.32	0.259193
1510.88	0.349869
1512.44	1.11409
1513.99	-0.125374
1515.55	0.25297
1517.11	0.342906
1518.66	0.0113845
1520.22	0.236513
1521.78	0.308221
1523.33	0.150161
1524.89	0.220922
1526.44	0.405131
1528	0.454858
1529.55	0.294901
1531.11	0.515109
1532.66	0.204255
1534.21	-0.256561
1535.77	0.0977492
1537.32	0.810937
1538.87	0.447399
1540.43	0.292272
1541.98	0.55193
1543.53	0.585176
1545.08	0.599393
1546.63	0.14389
1548.18	0.664801
1549.74	0.266242
1551.29	0.392906
1552.84	0.688081
1554.39	0.460187
1555.94	0.569912
1557.48	0.43825
1559.03	0.17761
1560.58	0.869938
1562.13	0.332194
1563.68	0.578812
1565.23	0.490055
1566.78	-0.0838809
1568.32	0.312387
1569.87	0.559122
1571.42	0.32026
1572.96	0.734525
1574.51	0.495335
1576.05	1.28289
1577.6	0.782544
1579.14	0.767893
1580.69	0.697719
1582.24	0.572111
1583.78	0.820718
1585.32	0.37858
1586.87	0.665624
1588.41	0.541497
1589.95	0.71649
1591.5	0.479445
1593.04	0.953443
1594.58	0.940509
1596.12	0.983828
1597.67	0.840091
1599.21	0.809273
1600.75	0.816491
1602.29	0.598835
1603.83	1.15085
1605.37	1.66524
1606.91	1.05122
1608.45	1.05559
1609.99	1.22726
1611.53	0.964825
1613.07	0.926398
1614.6	0.887012
1616.14	1.10994
1617.68	0.883162
1619.22	0.620102
1620.75	1.03261
1622.29	0.959162
1623.83	0.90509
1625.37	1.22539
1626.9	1.05834
1628.44	0.684544
1629.97	1.09535
1631.51	0.906857
1633.04	1.372
1634.58	1.16488
1636.11	1.0706
1637.65	0.809299
1639.18	1.33167
1640.72	1.4064
1642.25	1.05207
1643.78	1.05094
1645.31	1.14188
1646.85	1.23198
1648.38	1.58183
1649.91	1.41167
1651.44	1.35389
1652.97	1.6867
1654.5	1.18586
1656.03	1.33456
1657.56	1.42749
1659.1	1.18631
1660.62	1.11089
1662.15	1.60784
1663.68	1.40073
1665.21	1.39666
1666.74	1.35601
1668.27	1.48232
1669.8	1.48072
1671.32	1.13029
1672.85	1.29672
1674.38	0.910969
1675.91	0.819755
1677.43	1.33527
1678.96	0.616985
1680.49	1.05688
1682.01	0.687213
1683.54	0.593201
1685.06	0.114041
1686.59	0.0758619
1688.11	0.367949
1689.64	0.714959
1691.16	0.604075
1692.68	1.11555
1694.21	0.693626
1695.73	0.144031
1697.25	0.965158
1698.78	0.251194
1700.3	0.778697
1701.82	0.356779
1703.34	0.554606
1704.86	0.351099
1706.39	0.0747991
1707.91	0.762204
1709.43	0.37678
1710.95	0.627217
1712.47	0.351563
1713.99	0.29388
1715.51	0.200136
1717.02	0.305442
1718.54	0.392389
1720.06	0.659704
1721.58	0.259179
1723.1	0.166199
1724.62	-0.0339851
1726.13	0.361255
1727.65	-0.196827
1729.17	0.163877
1730.68	0.451916
1732.2	0.00783396
1733.72	0.325055
1735.23	0.321898
1736.75	0.181729
1738.26	-0.247335
1739.78	-0.058301
1741.29	0.379911
1742.81	-0.0578628
1744.32	0.17903
1745.84	-0.0743194
1747.35	0.477673
1748.86	0.123189
1750.37	-0.396065
1751.89	-0.106876
1753.4	-0.0546761
1754.91	0.284033
1756.42	-0.12124
1757.93	0.0498528
1759.45	0.0670977
1760.96	0.406452
1762.47	-0.0548491
1763.98	0.417761
1765.49	0.0885148
1767	0.223526
1768.51	-0.321566
1770.02	0.278369
1771.53	-0.050004
1773.03	0.209454
1774.54	0.0530972
1776.05	0.203683
1777.56	0.209511
1779.07	-0.0596075
1780.57	0.118175
1782.08	-0.0819216
1783.59	0.446887
1785.09	0.0395846
1786.6	0.0152893
1788.11	-0.00193787
1789.61	0.210085
1791.12	-0.0502963
1792.62	0.0822072
1794.13	0.0458946
1795.63	0.136467
1797.13	-0.00111485
1798.64	-0.293573
1800.14	-0.156056
1801.65	-0.0701294
1803.15	0.176789
1804.65	0.148179
1806.15	-0.0163159
1807.66	0.118917
1809.16	0.104303
1810.66	0.103833
1812.16	0.042798
1813.66	0.258842
1815.16	0.171296
1816.66	0.0289092
1818.16	-0.142199
1819.66	0.0443783
1821.16	0.0213099
1822.66	-0.125325
1824.16	0.25876
1825.66	0.281649
1827.16	-0.0851245
1828.66	-0.112601
1830.16	0.126651
1831.65	0.0875716
1833.15	-0.318601
1834.65	0.143001
1836.14	-0.192755
1837.64	0.216585
1839.14	-0.0290594
1840.63	0.3413
1842.13	0.374811
1843.62	0.224139
1845.12	-0.00489044
1846.61	0.127404
1848.11	0.218391
1849.6	0.233706
1851.1	0.177848
1852.59	-0.0941443
1854.08	0.111261
1855.58	-0.0454535
1857.07	-0.0897393
1858.56	0.0321436
1860.05	-0.141983
1861.55	0.396729
1863.04	0.419778
1864.53	0.104575
1866.02	-0.0391326
1867.51	-0.00303173
1869	-0.107041
1870.49	0.185121
1871.98	-0.28174
1873.47	0.118856
1874.96	-0.130421
1876.45	0.448578
1877.94	0.22572
1879.43	0.169366
1880.92	0.10738
1882.41	0.0042119
1882.51	-0.00204134
1884	0.276589
1885.5	0.13619
1886.99	0.204256
1888.48	0.0629606
1889.98	0.00894499
1891.47	0.0774436
1892.96	-0.113698
1894.46	-0.251287
1895.95	-0.0574026
1897.44	0.432833
1898.93	0.209991
1900.42	0.108088
1901.91	0.474637
1903.41	0.126621
1904.9	0.403545
1906.39	-0.0849018
1907.88	0.260664
1909.37	-0.0705829
1910.86	0.34523
1912.35	0.258437
1913.83	0.0507188
1915.32	0.0512366
1916.81	0.120852
1918.3	0.294018
1919.79	0.120197
1921.27	0.0849819
1922.76	-0.0018611
1924.25	0.3448
1925.74	-0.259871
1927.22	-0.413648
1928.71	0.264098
1930.19	0.145426
1931.68	-0.0431342
1933.17	0.200133
1934.65	-0.0254188
1936.14	0.0247831
1937.62	-0.168031
1939.11	0.0710235
1940.59	0.327239
1942.07	0.0833311
1943.56	-0.0732927
1945.04	-0.108448
1946.52	0.0635681
1948.01	-0.0921283
1949.49	-0.0243082
1950.97	0.473154
1952.45	0.212205
1953.93	0.0371222
1955.42	0.223065
1956.9	-0.312191
1958.38	0.303587
1959.86	0.250262
1961.34	0.145968
1962.82	0.521837
1964.3	-0.42198
1965.78	0.227298
1967.26	-0.356915
1968.74	0.136677
1970.21	-0.464761
1971.69	0.0105271
1973.17	0.0925145
1974.65	-0.132551
1976.13	0.120063
1977.6	-0.00225973
1979.08	0.113953
1980.56	0.0939088
1982.03	0.107761
1983.51	0.342186
1984.99	0.0498257
1986.46	0.402212
1987.94	0.21173
1989.41	-0.0290298
1990.89	-0.302804
1992.36	-0.220398
1993.84	-0.37404
1995.31	0.14899
1996.78	0.283434
1998.26	0.0124459
1999.73	0.0114436
2001.2	0.128114
2002.68	0.328632
2004.15	0.309683
2005.62	-0.0965438
2007.09	-0.0471148
2008.56	-0.165417
2010.04	-0.350382
2011.51	0.104749
2012.98	-0.0292878
2014.45	-0.0794497
2015.92	0.374571
2017.39	0.0203376
2018.86	-0.199741
2020.33	0.420099
2021.8	0.0987525
2023.26	-0.121318
2024.73	0.498295
2026.2	0.229403
2027.67	0.0287895
2029.14	-0.0365257
2030.61	0.335302
2032.07	0.154278
2033.54	0.225316
2035.01	0.2796
2036.47	0.283234
2037.94	0.269658
2039.4	0.407029
2040.87	0.359496
2042.33	0.0936399
2043.8	0.0300226
2045.27	0.320385
2046.73	0.207547
2048.19	0.1622
2049.66	0.049149
2051.12	0.221889
2052.59	-0.179826
2054.05	0.209722
2055.51	-0.00915098
2056.97	0.0576401
2058.44	0.309143
2059.9	0.189749
2061.36	0.0875874
2062.82	-0.081243
2064.28	0.255625
2065.74	0.0883102
2067.21	0.0226049
2068.67	0.00781488
2070.13	-0.0404158
2071.59	-0.088614
2073.05	0.267173
2074.51	0.252373
2075.96	0.119437
2077.42	0.356707
2078.88	0.0884709
2080.34	0.493465
2081.8	-0.0617237
2083.26	0.106604
2084.72	0.341608
2086.17	0.340392
2087.63	0.742236
2089.09	0.185434
2090.54	0.200138
2092	0.298708
2093.45	0.380329
2094.91	0.394582
2096.37	0.49224
2097.82	0.405017
2099.28	0.283964
2100.73	0.530753
2102.19	0.108923
2103.64	0.423039
2105.09	0.203683
2106.55	0.219126
2108	0.318739
2109.45	0.418564
2110.91	0.567944
2112.36	0.766185
2113.81	0.66311
2115.26	0.392519
2116.72	0.770043
2118.17	0.648842
2119.62	0.429272
2121.07	0.294372
2122.52	0.476132
2123.97	0.459936
2125.42	0.626639
2126.87	0.892597
2128.32	0.743271
2129.77	0.924352
2131.22	0.839236
2132.67	1.03496
2134.11	0.71759
2135.56	0.913738
2137.01	0.862949
2138.46	1.2268
2139.91	0.99721
2141.35	0.884589
2142.8	1.05396
2144.25	0.777328
2145.7	0.765374
2147.14	0.637282
2148.59	1.05518
2150.03	0.876225
2151.48	1.19348
2152.92	0.896923
2154.37	1.09677
2155.81	0.716379
2157.26	1.01528
2158.7	1.16561
2160.15	1.31702
2161.59	1.37048
2163.03	1.59131
2164.47	1.13349
2165.92	0.908154
2167.36	1.347
2168.8	1.00422
2170.24	1.54118
2171.69	1.46121
2173.13	1.06352
2174.57	1.38
2176.01	1.23025
2177.45	1.66266
2178.89	1.51369
2180.33	1.08292
2181.77	1.20149
2183.21	1.35384
2184.65	0.957576
2186.09	0.877304
2187.53	1.62898
2188.97	1.16609
2190.4	1.51863
2191.84	0.75563
2193.28	1.09077
2194.72	1.35828
2196.16	0.908481
2197.59	1.12294
2199.03	0.8536
2200.47	0.982559
2201.9	1.44324
2203.34	1.19038
2204.77	0.888986
2206.21	1.00305
2207.64	0.76954
2209.08	1.13224
2210.51	0.898127
2211.95	0.597328
2213.38	0.709584
2214.82	0.772015
2216.25	0.504689
2217.68	0.65096
2219.12	0.97944
2220.55	0.467598
2221.98	0.59893
2223.41	0.630795
2224.85	0.645111
2226.28	0.36191
2227.71	0.982139
2229.14	0.483348
2230.57	0.805282
2232	0.454465
2233.43	0.415639
2234.86	0.639069
2236.29	0.732279
2237.72	0.418435
2239.15	0.0737638
2240.58	0.220152
2242.01	0.302554
2243.44	0.206455
2244.87	0.175864
2246.29	0.193738
2247.72	0.569258
2249.15	0.0463209
2250.58	0.467235
2252.01	0.202533
2253.43	0.0515137
2254.86	0.112185
2256.29	0.401057
2257.71	0.415474
2259.14	0.15622
2260.56	0.499443
2261.99	0.195427
2263.41	0.10342
2264.84	0.320314
2266.26	0.472153
2267.69	0.265652
2269.11	0.627888
2270.53	0.599052
2271.96	0.472102
2273.38	-0.273919
2274.8	0.201523
2276.23	0.155936
2277.65	0.224538
2279.07	0.162806
2280.49	0.410824
2281.91	0.16955
2283.34	0.303334
2284.76	-0.00339842
2286.18	0.261169
2287.6	0.33022
2289.02	0.399642
2290.44	0.338698
2291.86	0.114445
2293.28	-0.0935569
2294.7	0.369061
2296.12	0.275485
2297.54	0.0507846
2298.96	0.219103
2300.37	0.141857
2301.79	0.228719
2303.21	0.168222
2304.63	-0.138442
2306.04	-0.100592
2307.46	0.216385
2308.88	0.253805
2310.3	0.471694
2311.71	0.19595
2313.13	-0.0470867
2314.54	0.105027
2315.96	0.257785
2317.37	0.361837
2318.79	0.202591
2320.2	0.158455
2321.62	0.360988
2323.03	0.446711
2324.45	0.481171
2325.86	0.0354428
2327.27	0.75965
2328.69	0.460671
2330.1	0.50806
2331.51	0.0786281
2332.92	0.308664
2334.34	0.275946
2335.75	0.243432
2337.16	0.0461431
2338.57	0.111326
2339.98	0.060595
2341.39	0.403355
2342.8	0.12167
2344.21	0.266726
2345.63	-0.0962758
2347.04	-0.180173
2348.45	-0.0347767
2349.85	-0.151567
2351.26	-0.00719261
2352.67	0.201575
2354.08	-0.0476074
2355.49	0.567108
2356.9	-0.0897622
2358.3	0.0191936
2359.71	0.111752
2361.12	-0.298952
2362.53	0.00457811
2363.93	-0.0327234
2365.34	-0.00527811
2366.75	0.151534
2368.15	0.0662832
2369.56	0.0303211
2370.97	0.221042
2372.37	0.122518
2373.77	0.234173
2375.18	0.297735
2376.59	0.0070076
2377.99	-0.219864
2379.39	0.130936
2380.8	0.030448
2382.2	0.346051
2383.6	0.13172
2385.01	-0.482164
2386.41	-0.199609
2387.81	0.0829234
2389.21	0.126582
2390.62	0.0276995
2392.02	0.0730977
2393.42	0.294197
2394.82	0.118093
2396.22	-0.264018
2397.62	0.0220819
2399.02	-0.120568
2400.42	0.00725651
2401.82	0.0876131
2403.22	0.215622
2404.62	0.375075
2406.02	0.121091
2407.42	-0.133398
2408.82	0.00826883
2410.22	0.260505
2411.62	0.370048
2413.01	0.115859
2414.41	-0.137233
2415.81	0.196535
2417.21	0.214639
2418.6	0.0117493
2420	-0.0167365
2421.4	0.350698
2422.79	0.211023
2424.19	0.134486
2425.59	0.327356
2426.98	0.140283
2428.38	0.175707
2429.77	0.291147
2431.17	0.105734
2432.56	0.190139
2433.95	-0.186329
2435.35	-0.0237012
2436.74	0.360382
2438.14	0.219047
2439.53	0.203862
2440.92	-0.0819559
2442.31	0.409865
2443.71	-0.00338221
2445.1	0.202169
2446.49	-0.147476
2447.88	0.0419025
2449.27	0.0410147
2450.67	-0.0388799
2452.06	-0.00754261
2453.45	-0.102259
2454.84	0.325742
2456.23	-0.0367908
2457.62	-0.0510402
2459.01	0.124404
2460.4	0.251954
2461.79	0.110075
2463.18	-0.0481071
2464.57	0.219986
2465.95	-0.0335197
2467.34	0.0604057
2468.73	0.122649
2470.12	-0.162268
2471.5	0.340912
2472.89	-0.228196
2474.28	0.0057559
2475.67	0.0501366
2477.05	-0.000129223
2478.44	0.420783
2479.82	0.0565357
2481.21	0.320178
2482.6	-0.0903425
2483.98	-0.124816
2485.37	-0.0190859
2486.75	0.0856271
2488.13	-0.169595
2489.52	0.120745
2490.9	0.130065
2492.29	0.170822
2493.67	0.2899
2495.05	0.378706
2496.44	0.375313
2497.82	0.109266
2499.2	0.0295339
2500.58	-0.313267
2501.97	0.054853
2503.35	0.0201783
2504.73	0.432249
2506.11	-0.512943
2507.49	-0.00947428
2508.87	0.154737
2510.25	-0.0803919
2511.63	-0.145821
2513.01	0.14197
2514.39	-0.397187
2515.77	0.121153
2517.15	0.211081
2518.53	0.301312
2519.91	-0.158529
2521.29	0.237206
2522.67	-0.253273
2524.05	-0.194584
2525.42	0.198807
2526.8	0.0583868
2528.18	-0.0967388
2529.55	0.235712
2530.93	-0.0541964
2532.31	-0.0691948
2533.69	0.281413
2535.06	0.191927
2536.44	0.0264673
2537.81	0.209944
2539.19	-0.0325875
2540.56	0.392461
2541.94	0.452688
2543.31	0.0730758
2544.69	0.0735044
2546.06	-0.107198
2547.44	0.0618463
2548.81	0.322572
2550.18	0.0827093
2551.56	-0.096859
2552.93	0.193374
2554.3	-0.154516
2555.67	0.02808
2557.04	0.0281782
2558.42	-0.0628004
2559.79	0.195117
2561.16	0.0289311
2562.53	0.181501
2563.9	0.0465531
2565.27	0.154387
2566.64	0.171481
2568.01	0.0825615
2569.38	0.160353
2570.75	-0.06498
2572.12	0.315993
2573.49	-0.121488
2574.86	-0.149651
2576.23	0.0647798
2577.6	0.264032
2578.97	-0.143375
2580.33	0.146455
2581.7	0.284357
2583.07	0.421963
2584.44	-0.0167103
2585.8	-0.0915327
2587.17	0.000466347
2588.54	0.0622735
2589.9	-0.133473
2591.27	-0.101975
2592.64	0.217077
2594	0.232466
2595.37	0.171375
2596.73	0.0338969
2598.1	0.38008
2599.46	0.362722
2600.83	0.224576
2602.19	-0.0640717
2603.55	0.16128
2604.92	-0.231824
2606.28	-0.0211229
2607.64	0.023335
2609.01	-0.0383415
2610.37	-0.130924
2611.73	-0.0436921
2613.09	0.223004
2614.46	0.0830317
2615.82	0.16824
2617.18	-0.511076
2618.54	-0.00554085
2619.9	-0.0839453
2621.26	-0.0271306
2622.62	-0.104502
2623.98	0.266368
2625.34	0.114422
2626.7	0.484427
2628.06	0.0489864
2629.42	0.224461
2630.78	0.250726
2632.14	0.0836072
2633.5	0.035552
2634.86	0.165662
2636.21	0.0730886
2637.57	-0.034164
2638.93	0.228948
2640.29	0.269841
2641.64	-0.0587311
2643	0.484987
2644.36	0.319457
2645.71	0.360637
2647.07	-0.0113029
2648.43	0.102923
2649.78	0.172214
2651.14	0.520188
2652.49	0.0154247
2653.85	0.0986876
2655.2	0.240955
2656.56	0.208036
2657.91	0.0296488
2659.26	0.203207
2660.62	0.0844622
2661.97	0.11188
2663.32	0.10963
2664.68	0.179779
2666.03	0.118006
2667.38	-0.0314608
2668.74	0.0959129
2670.09	-0.184122
2671.44	0.176363
2672.79	0.057322
2674.14	0.0550475
2675.49	0.212852
2676.84	0.0662503
2678.19	-0.0217519
2679.54	0.38388
2680.89	0.210224
2682.24	-0.136523
2683.59	-0.206995
2684.94	0.274349
2686.29	0.29203
2687.64	0.0918961
2688.99	0.311823
2690.34	0.0805101
2691.69	0.283364
2693.03	0.368889
2694.38	0.0765872
2695.73	0.103295
2697.08	0.188351
2698.42	0.390122
2699.77	0.202122
2701.12	0.160206
2702.46	0.177307
2703.81	0.0502806
2705.15	-0.148973
2706.5	0.289825
2707.85	-0.0402427
2709.19	0.383995
2710.54	0.256432
2711.88	0.215747
2713.22	-0.0430412
2714.57	0.337535
2715.91	0.282095
2717.26	0.0956202
2718.6	0.199822
2719.94	0.0273371
2721.29	0.13098
2722.63	0.190639
2723.97	0.0898485
2725.31	0.119742
2726.66	0.178472
2728	0.120531
2729.34	0.615411
2730.68	0.411643
2732.02	-0.0103283
2733.36	0.193377
2734.7	0.1208
2736.04	0.0920124
2737.38	0.22331
2738.72	0.26732
2740.06	0.252977
2741.4	0.16559
2742.74	0.150454
2744.08	0.367347
2745.42	0.118749
2746.76	0.087853
2748.09	0.361669
2749.43	0.446657
2750.77	-0.0629058
2752.11	0.0370097
2753.45	0.310932
2754.78	-0.125119
2756.12	-0.242163
2757.46	-0.112876
2758.79	0.0165162
2760.13	0.204013
2761.46	0.189205
2762.8	-0.230406
2764.14	-0.027575
2765.47	0.0739527
2766.8	0.233014
2768.14	-0.0714936
2769.47	0.042583
2770.81	-0.191302
2772.14	0.0218334
2773.48	0.306058
2774.81	0.0848036
2776.14	0.00794458
2777.48	-0.0973196
2778.81	-0.245169
2780.14	0.0242906
2781.47	0.00639582
2782.8	-0.370191
2784.14	-0.100949
2785.47	0.0675955
2786.8	0.207401
2788.13	0.0181642
2789.46	-0.0558591
2790.79	0.128251
2792.12	0.212717
2793.45	0.0830579
2794.78	0.167867
2796.11	0.0666471
2797.44	0.279335
2798.77	0.191615
2800.1	-0.153245
2801.43	0.258074
2802.76	0.141303
2804.09	0.0529594
2805.41	0.0213699
2806.74	-0.110244
2808.07	0.0707788
2809.4	0.0380473
2810.72	0.175791
2812.05	0.0157514
2813.38	-0.0298228
2814.71	0.23757
2816.03	-0.046947
2817.36	-0.0612955
2818.68	-0.0043602
2820.01	-0.0749769
2821.33	0.165905
2822.66	0.406257
2823.98	0.192677
2825.31	0.177239
2826.63	0.416733
2827.96	0.260073
2829.28	-0.0376987
2830.6	-0.0236626
2831.93	0.259475
2833.25	0.0329747
2834.57	0.386587
2835.9	0.272752
2837.22	0.158566
2838.54	0.553367
2839.86	0.198287
2841.18	0.946238
2842.5	0.775374
2843.83	0.633318
2845.15	0.746198
2846.47	0.63341
2847.79	0.959005
2849.11	0.761697
2850.43	0.88925
2851.75	0.705499
2853.07	1.00192
2854.39	1.00124
2855.71	0.774362
2857.03	1.09847
2858.35	0.885795
2859.66	0.757901
2860.98	1.36417
2862.3	1.25
2863.62	1.27675
2864.94	1.72659
2866.25	1.72477
2867.57	1.83596
2868.89	1.69363
2870.2	2.03099
2871.52	1.83274
2872.84	2.00077
2874.15	1.75957
2875.47	1.78535
2876.78	1.86662
2878.1	1.83463
2879.41	2.16811
2880.73	1.91111
2882.04	1.79545
2883.36	2.08793
2884.67	1.84741
2885.99	2.12683
2887.3	2.05533
2888.61	1.7029
2889.93	2.24787
2891.24	1.86637
2892.55	2.26961
2893.86	2.01393
2895.18	2.15082
2896.49	2.09222
2897.8	1.62862
2899.11	2.18728
2900.42	2.17279
2901.73	2.5783
2903.05	2.31251
2904.36	2.39652
2905.67	2.48074
2906.98	2.91505
2908.29	2.53867
2909.6	2.94634
2910.91	2.92076
2912.21	2.90917
2913.52	2.68701
2914.83	3.09382
2916.14	3.35932
2917.45	3.60951
2918.76	3.46702
2920.07	3.67415
2921.37	3.43423
2922.68	3.67065
2923.99	3.85218
2925.29	3.79696
2926.6	3.46264
2927.91	3.22618
2929.22	3.68843
2930.52	4.09435
2931.83	3.73101
2933.13	3.54923
2934.44	3.84267
2935.74	3.87061
2937.05	3.94059
2938.35	3.68931
2939.66	3.68978
2940.96	3.495
2942.26	3.60828
2943.57	3.5967
2944.87	3.4743
2946.18	3.28279
2947.48	3.53932
2948.78	2.98406
2950.08	3.51966
2951.39	3.01792
2952.69	2.79475
2953.99	2.86462
2955.29	2.86417
2956.59	2.82236
2957.9	2.95001
2959.2	3.10773
2960.5	2.63731
2961.8	2.4482
2963.1	2.53997
2964.4	2.74381
2965.7	2.45518
2967	2.30559
2968.3	2.47826
2969.6	2.38327
2970.9	2.03496
2972.19	2.10876
2973.49	2.15469
2974.79	2.10212
2976.09	1.72524
2977.39	1.92465
2978.68	2.03836
2979.98	1.67213
2981.28	1.83987
2982.58	1.55697
2983.87	1.68224
2985.17	1.41468
2986.47	1.38721
2987.76	1.27648
2989.06	1.27889
2990.35	1.37989
2991.65	1.41027
2992.94	1.01827
2994.24	0.976754
2995.53	0.878257
2996.83	1.03202
2998.12	0.75045
2999.42	0.707753
3000.71	0.595354
3002	0.595575
3003.3	0.736219
3004.59	0.624705
3005.88	0.667112
3007.18	0.681049
3008.47	0.484493
3009.76	0.623093
3011.05	0.677114
3012.34	0.451495
3013.64	0.0867114
3014.93	0.0712624
3016.22	0.362782
3017.51	0.083653
3018.8	0.236559
3020.09	0.166842
3021.38	0.305379
3022.67	-0.05687
3023.96	0.0525947
3025.25	0.147462
3026.54	0.0896287
3027.83	0.19827
3029.12	0.321336
3030.41	0.127523
3031.69	-0.00977993
3032.98	0.447393
3034.27	0.200667
3035.56	0.160672
3036.84	0.243876
3038.13	-0.252914
3039.42	0.0894122
3040.71	0.196182
3041.99	0.315715
3043.28	0.174446
3044.57	0.321608
3045.85	0.428601
3047.14	0.277454
3048.42	0.128249
3049.71	0.417449
3050.99	0.243735
3052.28	0.329934
3053.56	0.075036
3054.85	0.133517
3056.13	0.136689
3057.41	0.193608
3058.7	0.318011
3059.98	0.523757
3061.26	0.14439
3062.55	0.378166
3063.83	0.164079
3065.11	0.209507
3066.39	0.174373
3067.68	0.303123
3068.96	0.133031
3070.24	0.438749
3071.52	0.199835
3072.8	0.0280833
3074.08	0.0458565
3075.36	0.321117
3076.65	0.147711
3077.93	0.0833507
3079.21	-0.197276
3080.49	0.255804
3081.77	0.357242
3083.04	-0.0151901
3084.32	-0.0887156
3085.6	0.149948
3086.88	0.306921
3088.16	0.151206
3089.44	0.239303
3090.72	-0.161463
3091.99	-0.155167
3093.27	0.176765
3094.55	-0.386239
3095.83	0.0138226
3097.1	-0.0470924
3098.38	-0.148675
3099.66	0.102004
3100.93	0.176396
3102.21	0.372676
3103.49	0.433667
3104.76	0.210774
3106.04	-0.038559
3107.31	0.0917234
3108.59	0.128024
3109.86	0.205719
3111.14	-0.0137033
3112.41	-0.327537
3113.69	0.00912523
3114.96	0.0342607
3116.23	0.126919
3117.51	0.219024
3118.78	0.405314
3120.05	0.319525
3121.33	0.341549
3122.6	0.457984
3123.87	0.262609
3125.14	-0.0949206
3126.41	0.211352
3127.69	0.193104
3128.96	0.62158
3130.23	0.346978
3131.5	0.410567
3132.77	0.325385
3134.04	0.46962
3135.31	0.221844
3136.58	0.432662
3137.85	0.00919247
3139.12	-0.0366936
3140.39	0.253873
3141.66	0.544011
3142.93	0.0814443
3144.2	0.398661
3145.47	0.259739
3146.74	0.429852
3148	0.426065
3149.27	0.288857
