200.563	0.424949
202.377	0.444898
204.194	0.465721
206.008	1.24145
207.821	0.874202
209.634	-0.0764971
211.449	-0.274475
213.262	0.108955
215.074	0.515018
216.885	0.192833
218.699	0.113431
220.51	0.470415
222.321	0.416768
224.131	-0.409508
225.941	-0.0503559
227.751	-0.00548744
229.562	-0.274926
231.371	0.155192
233.18	-0.114948
234.988	0.025466
236.796	0.528694
238.603	0.190413
240.411	0.602005
242.219	-0.0206318
244.026	0.491351
245.832	0.352002
247.638	0.741989
249.443	0.0667448
251.248	0.0401545
253.053	0.469316
254.857	0.606833
256.661	-0.268747
258.465	-0.226879
260.268	-0.0147114
262.071	0.271615
263.874	0.00555801
265.678	0.535675
267.48	-0.138745
269.282	0.560225
271.083	0.535266
272.884	0.00271225
274.684	0.360744
276.484	0.644624
278.284	-0.302585
280.084	0.097702
281.883	0.784188
283.682	0.722119
285.48	0.514476
287.276	0.95441
289.074	0.602315
290.871	0.0601177
292.668	0.166438
294.465	-0.180234
296.261	0.311728
298.057	0.0874166
299.853	0.532711
301.648	0.0937815
303.443	0.561493
305.237	-0.165722
307.032	0.323248
308.823	0.167854
310.617	0.203841
312.41	-0.0685482
314.203	0.708624
315.995	0.773324
317.788	0.339873
319.579	0.574878
321.369	0.0485582
323.16	0.595684
324.951	0.356429
326.741	0.785557
328.531	0.474267
330.321	-0.0772133
332.108	0.039175
333.897	0.0821104
335.686	0.553577
337.474	0.352615
339.26	0.125564
341.048	-0.126842
342.835	0.0743093
344.622	0.872579
346.406	0.213842
348.192	0.702385
349.978	-0.0501356
351.764	0.176217
353.547	-0.0276718
355.332	0.530768
357.116	-0.128634
358.901	-0.193004
360.682	0.45592
362.466	-0.277179
364.249	0.44043
366.03	0.657188
367.812	0.421761
369.594	0.0435905
371.374	0.281088
373.155	0.115137
374.936	0.0437012
376.715	0.184936
378.495	0.279263
380.273	0.115249
382.053	0.0233545
383.832	0.168118
385.609	-0.0620728
387.388	0.414121
389.164	0.397849
390.942	0.382632
392.72	-0.101406
394.495	0.589398
396.272	0.435169
398.047	0.140083
399.823	-0.202201
401.597	0.465009
403.372	0.732249
405.145	-0.0112534
406.92	0.160466
408.693	0.0732374
410.467	0.290864
412.239	0.719655
414.012	0.257133
415.783	0.264713
417.556	-0.290001
419.327	0.188368
421.099	0.925301
422.869	-0.215802
424.64	-0.254488
426.409	-0.294121
428.18	-0.592799
429.948	0.140891
431.718	0.475443
433.486	0.340913
435.253	0.159808
437.022	0.0960093
438.789	0.313075
440.558	0.810096
442.324	0.17874
444.089	-0.266727
445.857	0.0127058
447.622	0.875568
449.386	-0.0874062
451.153	0.516684
452.917	0.11637
454.682	-0.306393
456.446	-0.239103
458.208	0.293674
459.973	-0.0817795
461.735	-0.0374031
463.497	0.217716
465.259	-0.33808
467.022	-0.054431
468.783	0.0693054
470.544	0.52061
472.306	0.623964
474.066	0.167788
475.825	0.477975
477.585	-0.0525875
479.346	0.346718
481.104	0.675103
482.862	0.700875
484.62	0.215555
486.38	0.128162
488.137	0.439128
489.894	0.192809
491.65	0.507473
493.407	0.706537
495.164	-0.00593472
496.92	0.614515
498.675	0.368831
500.43	0.0987654
502.184	0.602129
503.939	0.54158
505.694	1.09084
507.448	0.745545
509.201	0.233602
510.954	0.402066
512.706	-0.301742
514.459	0.404747
516.21	0.968449
517.962	0.166561
519.715	0.751138
521.466	0.300594
523.216	0.178779
524.966	0.338529
526.716	0.005476
528.466	0.305833
530.215	0.34799
531.964	-0.0319147
533.712	0.0793238
535.46	0.259363
537.208	0.414287
538.955	0.170587
540.703	0.555798
542.449	0.450181
544.196	0.204862
545.942	0.750079
547.688	-0.283851
549.433	1.00288
551.178	0.110453
552.923	0.538544
554.667	0.526945
556.412	0.538755
558.155	-0.00243855
559.899	0.310302
561.642	0.36989
563.385	0.453003
565.127	0.191869
566.867	-0.0911961
568.609	0.0171595
570.35	-0.0111675
572.092	0.306071
573.832	-0.338492
575.573	-0.0865908
577.313	0.258883
579.053	0.192742
580.79	-0.0334625
582.529	0.0619144
584.268	-0.0730944
586.006	0.158724
587.745	0.619427
589.482	0.181725
591.218	0.088131
592.955	-0.397111
594.692	-0.376312
596.428	0.449776
598.164	0.125483
599.898	0.514006
601.634	0.00443935
603.369	0.551644
605.104	0.0164776
606.836	-0.31272
608.57	-0.137146
610.304	0.451212
612.037	0.144899
613.769	0.412905
615.501	0.291787
617.234	-0.356011
618.966	0.255703
620.696	-0.0269547
622.427	0.124072
624.159	-0.640302
625.887	-0.0558329
627.618	0.209397
629.348	0.339539
631.076	0.335213
632.806	0.584031
634.535	0.240597
636.262	0.0107861
637.99	0.692227
639.716	-0.0443478
641.444	-0.281517
643.172	-0.0877466
644.897	0.377704
646.624	-0.317354
648.348	-0.100163
650.075	0.301764
651.801	-0.405809
653.524	0.140347
655.249	0.258306
656.972	0.264929
658.697	0.318098
660.419	0.325241
662.143	0.422081
663.865	0.219527
665.588	-0.191483
667.309	-0.192982
669.032	0.193651
670.752	0.764319
672.474	0.627995
674.194	-0.124251
675.915	0.27054
677.634	0.139574
679.355	0.536738
681.073	0.450808
682.793	0.109777
684.511	0.0193815
686.23	-0.0730705
687.947	0.109282
689.664	0.797379
691.382	0.356061
693.098	-0.178032
694.816	0.093318
696.531	0.156352
698.247	0.586469
699.963	0.347664
701.678	0.590866
703.392	1.38437
705.108	0.24688
706.821	0.6022
708.534	0.658444
710.249	0.278866
711.962	0.563444
713.674	0.412652
715.388	0.650387
717.099	1.29862
718.81	0.782492
720.523	0.996736
722.234	0.413833
723.944	0.810277
725.654	1.16046
727.365	0.419536
729.075	0.859463
730.784	0.323333
732.492	1.2146
734.202	0.452361
735.91	0.95739
737.618	1.01026
739.325	0.567481
741.034	0.599811
742.741	0.723459
744.447	0.780829
746.153	1.33469
747.859	1.01231
749.564	0.309115
751.271	1.04683
752.976	1.08867
754.681	0.974496
756.385	0.726796
758.088	1.24605
759.792	0.978845
761.495	0.75753
763.2	1.28103
764.902	1.33079
766.604	1.37939
768.306	1.62952
770.008	0.995615
771.709	1.78408
773.41	1.21431
775.11	1.00595
776.811	1.54435
778.51	1.29278
780.21	1.22366
781.909	1.44976
783.608	1.54032
785.307	1.26748
787.005	1.3543
788.703	2.20723
790.401	1.56301
792.098	1.75302
793.795	0.947587
795.492	1.40663
797.188	1.57286
798.884	1.67305
800.58	1.23487
802.276	2.01344
803.971	1.60018
805.665	1.32193
807.36	1.088
809.054	1.59415
810.748	1.62718
812.441	1.77131
814.135	1.2873
815.826	1.78882
817.518	1.28296
819.21	1.02386
820.902	1.81484
822.594	1.2886
824.285	1.65584
825.976	1.80132
827.665	2.43902
829.355	1.6765
831.045	1.7636
832.735	0.672931
834.424	0.853963
836.111	1.01385
837.8	2.04412
839.488	1.42181
841.177	1.06537
842.864	1.46705
844.55	1.04163
846.237	1.39908
847.924	1.42325
849.61	1.4724
851.295	1.6138
852.98	1.77989
854.666	1.52093
856.349	1.46334
858.034	0.864805
859.719	1.34368
861.403	1.23591
863.085	0.901045
864.769	0.722379
866.452	1.0612
868.133	0.745625
869.816	1.12864
871.498	1.19566
873.179	0.924101
874.86	1.19392
876.54	1.0125
878.221	1.55329
879.902	1.28147
881.58	1.37041
883.26	0.803881
884.938	0.687749
886.618	1.42786
888.297	0.496378
889.974	1.66126
891.653	0.749949
893.329	1.21221
895.007	1.02002
896.683	1.25416
898.36	1.21732
900.035	0.84315
901.712	0.872271
903.387	0.788916
905.063	0.549153
906.737	1.64939
908.412	0.852815
910.085	0.615676
911.76	1.11401
913.433	0.61203
915.107	1.17706
916.779	0.410187
918.452	1.10729
920.124	0.895501
921.797	0.883772
923.467	0.519618
925.138	0.864471
926.81	0.261445
928.48	0.96276
930.151	0.583675
931.82	0.624606
933.489	0.467245
935.16	0.729191
936.828	0.79304
938.496	0.659302
940.165	0.857641
941.833	0.527814
943.5	0.772271
945.168	0.751796
946.834	0.840486
948.5	1.19216
950.168	0.482457
951.834	0.147015
953.499	0.848473
955.163	0.470785
956.83	0.889802
958.494	0.937327
960.158	0.789093
961.821	0.310824
963.487	0.804319
965.15	1.18604
966.812	0.392615
968.474	1.29984
970.138	0.656177
971.8	0.564878
973.461	0.827974
975.123	0.384911
976.783	0.142669
978.446	0.853029
980.106	0.900556
981.766	0.94765
983.425	1.36966
985.084	1.05906
986.743	1.10048
988.402	0.34356
990.06	0.71382
991.72	-0.441804
993.378	0.590314
995.035	0.650109
996.692	0.114319
998.349	0.835852
1000.01	0.939314
1001.66	1.2184
1003.32	1.05654
1004.97	0.762632
1006.63	-0.124259
1008.28	0.834754
1009.94	0.958927
1011.59	0.425538
1013.25	0.638407
1014.9	0.851423
1016.55	0.298462
1018.21	0.731185
1019.86	0.661337
1021.51	0.68007
1023.16	1.31195
1024.81	0.961157
1026.47	0.698462
1028.12	0.698007
1029.77	0.631338
1031.42	0.432401
1033.07	0.974201
1034.72	0.771946
1036.37	1.24438
1038.02	1.62812
1039.67	1.92412
1041.31	1.72023
1042.96	1.84414
1044.61	2.64343
1046.26	2.79285
1047.91	1.29399
1049.55	1.96883
1051.2	1.42883
1052.84	0.715697
1054.49	1.26297
1056.14	0.0716848
1057.78	0.270917
1059.43	0.817603
1061.07	0.885365
1062.72	0.626145
1064.36	0.344249
1066	0.104853
1067.65	0.885957
1069.29	0.405496
1070.93	0.011651
1072.58	0.985525
1074.22	1.17802
1075.86	0.46051
1077.5	0.308548
1079.14	1.0903
1080.78	0.376524
1082.42	0.616819
1084.06	-0.0978508
1085.7	0.183269
1087.34	0.050519
1088.98	0.0458202
1090.62	-0.0687151
1092.26	0.658811
1093.9	0.196811
1095.54	0.663588
1097.17	0.548402
1098.81	0.650212
1100.45	0.323167
1102.09	0.38568
1103.72	0.256313
1105.36	0.192801
1106.99	0.452437
1108.63	0.00201321
1110.27	0.754654
1111.9	0.0867376
1113.53	1.05035
1115.17	0.873818
1116.8	0.375148
1118.43	0.563293
1120.07	0.323443
1121.7	0.106296
1123.33	0.446857
1124.97	0.595589
1126.6	0.873445
1128.23	0.318
1129.86	0.811131
1131.49	1.21921
1133.12	0.922077
1134.75	0.28281
1136.38	0.134602
1138.01	0.0922432
1139.64	-0.143496
1141.27	0.132381
1142.9	-0.0832529
1144.53	0.0640516
1146.16	0.403777
1147.78	0.914691
1149.41	0.574008
1151.04	0.170069
1152.67	0.362551
1154.29	0.128796
1155.92	1.10787
1157.54	0.107597
1159.17	-0.211064
1160.8	-0.252296
1162.42	0.366675
1164.05	-0.310396
1165.67	-0.0727539
1167.29	-0.0267563
1168.92	0.294539
1170.54	0.231431
1172.16	0.272653
1173.79	0.0785408
1175.41	0.350221
1177.03	0.133454
1178.65	0.573874
1180.28	0.104226
1181.9	0.566814
1183.52	-0.133234
1185.14	0.223933
1186.76	0.600797
1188.38	-0.374824
1190	0.124808
1191.62	0.621463
1193.24	0.358534
1194.86	1.08221
1196.47	0.483227
1198.09	0.0543394
1199.71	0.318342
1201.33	0.166312
1202.95	0.434723
1204.56	0.183702
1206.18	0.26875
1207.8	0.459334
1209.41	1.12986
1211.03	0.172535
1212.64	0.673401
1214.26	0.23388
1215.87	0.771307
1217.49	0.598759
1219.1	0.529451
1220.71	0.231877
1222.33	0.205191
1223.94	0.842803
1225.55	1.02548
1227.16	1.18881
1228.78	1.08458
1230.39	0.754315
1232	0.818205
1233.61	1.42068
1235.22	1.40437
1236.83	0.74858
1238.44	0.672482
1240.05	0.514283
1241.66	1.349
1243.27	1.54238
1244.88	0.969371
1246.49	1.71954
1248.1	1.59955
1249.71	0.795999
1251.32	1.64732
1252.92	1.31966
1254.53	0.910097
1256.14	0.89465
1257.74	1.60452
1259.35	1.52958
1260.96	1.86951
1262.56	1.02983
1264.17	0.955993
1265.77	1.60697
1267.38	1.24184
1268.98	1.08286
1270.59	1.62774
1272.19	1.32142
1273.79	1.61527
1275.4	1.49341
1277	1.28773
1278.6	1.4956
1280.21	2.01325
1281.81	1.92994
1283.41	1.82615
1285.01	1.16473
1286.61	1.76571
1288.21	1.64412
1289.81	1.11022
1291.41	1.44479
1293.01	1.65519
1294.61	1.5755
1296.21	1.20533
1297.81	1.06083
1299.41	1.45118
1301.01	1.61267
1302.6	1.48423
1304.2	1.3756
1305.8	1.73926
1307.4	1.19804
1308.99	1.92952
1310.59	1.75783
1312.19	0.972793
1313.78	1.31489
1315.38	1.94343
1316.97	1.69403
1318.57	1.6496
1320.16	2.05353
1321.76	1.62068
1323.35	1.71602
1324.94	1.19956
1326.54	1.96176
1328.13	2.21461
1329.72	1.15153
1331.32	1.32622
1332.91	1.82614
1334.5	1.3989
1336.09	1.45812
1337.68	1.86064
1339.27	1.79834
1340.87	1.53289
1342.45	1.92964
1344.04	1.90137
1345.64	1.41032
1347.22	1.64252
1348.81	1.53551
1350.4	1.75149
1351.99	2.30988
1353.58	1.51048
1355.17	1.11269
1356.75	1.47474
1358.34	2.31552
1359.93	1.01808
1361.51	1.23751
1363.1	1.49576
1364.69	1.59389
1366.27	1.37341
1367.86	1.53237
1369.44	1.23463
1371.03	1.43605
1372.61	1.10157
1374.2	1.38508
1375.78	0.893216
1377.37	1.57542
1378.95	1.22233
1380.53	1.14678
1382.11	1.68656
1383.7	1.3298
1385.28	1.03195
1386.86	0.972325
1388.44	1.40936
1390.02	1.25124
1391.6	0.756828
1393.19	0.878414
1394.77	0.960622
1396.35	0.705489
1397.93	1.48053
1399.51	1.08492
1401.08	0.906553
1402.66	1.30181
1404.24	1.0438
1405.82	0.766816
1407.4	1.14315
1408.97	1.28296
1410.55	0.672597
1412.13	0.891852
1413.71	0.65635
1415.28	0.854209
1416.86	0.794689
1418.43	0.93196
1420.01	1.06944
1421.59	1.66076
1423.16	0.580148
1424.73	0.918632
1426.31	1.19924
1427.88	1.55908
1429.46	1.17066
1431.03	1.03718
1432.6	1.49292
1434.18	1.43598
1435.75	1.67364
1437.32	1.51817
1438.89	1.30458
1440.46	1.2886
1442.04	1.96142
1443.61	2.12397
1445.18	1.61869
1446.75	1.88008
1448.32	2.3579
1449.89	1.47962
1451.46	2.31224
1453.03	2.30005
1454.6	2.24889
1456.16	2.31568
1457.73	1.98815
1459.3	2.21023
1460.87	1.56454
1462.44	2.41231
1464	1.66487
1465.57	1.34942
1467.14	2.11433
1468.7	1.87756
1470.27	1.87746
1471.83	1.32927
1473.4	1.09626
1474.96	1.72691
1476.53	1.27941
1478.09	1.65549
1479.66	2.20783
1481.22	1.85833
1482.78	1.70478
1484.35	1.80584
1485.91	1.29916
1487.47	1.49692
1489.04	1.7127
1490.6	2.37625
1492.16	2.3326
1493.72	2.14983
1495.28	1.7704
1496.84	2.09213
1498.4	2.70466
1499.96	2.57786
1501.52	1.65672
1503.08	1.18483
1504.64	1.56717
1506.2	1.6587
1507.76	1.40128
1509.32	1.49095
1510.88	1.21261
1512.44	1.16527
1513.99	1.05996
1515.55	0.782121
1517.11	0.793542
1518.66	1.07413
1520.22	0.416178
1521.78	0.754723
1523.33	0.767268
1524.89	1.48528
1526.44	0.675225
1528	0.818346
1529.55	0.675352
1531.11	0.817538
1532.66	0.751287
1534.21	0.269534
1535.77	0.716663
1537.32	0.710294
1538.87	0.817834
1540.43	0.831237
1541.98	0.505623
1543.53	0.707452
1545.08	0.889866
1546.63	0.846323
1548.18	0.896504
1549.74	0.909052
1551.29	1.78304
1552.84	0.804048
1554.39	0.650095
1555.94	1.13272
1557.48	0.944567
1559.03	1.37426
1560.58	1.30199
1562.13	0.634393
1563.68	0.714044
1565.23	0.906194
1566.78	0.874514
1568.32	0.749253
1569.87	0.679577
1571.42	1.30019
1572.96	1.00586
1574.51	1.51407
1576.05	1.01425
1577.6	1.63472
1579.14	1.47156
1580.69	1.309
1582.24	1.33394
1583.78	0.93004
1585.32	1.46102
1586.87	1.30111
1588.41	1.77714
1589.95	1.09315
1591.5	1.38158
1593.04	1.40757
1594.58	1.7517
1596.12	1.14054
1597.67	1.1854
1599.21	1.71846
1600.75	1.52108
1602.29	1.83072
1603.83	1.27678
1605.37	1.36036
1606.91	1.78087
1608.45	1.7296
1609.99	1.37522
1611.53	2.01442
1613.07	1.18626
1614.6	1.2586
1616.14	1.18041
1617.68	1.51517
1619.22	0.970266
1620.75	1.45729
1622.29	1.5522
1623.83	1.90997
1625.37	1.18195
1626.9	0.958676
1628.44	0.771665
1629.97	1.48104
1631.51	1.8896
1633.04	1.30741
1634.58	1.65953
1636.11	0.91136
1637.65	2.01103
1639.18	1.61907
1640.72	1.63737
1642.25	2.51191
1643.78	2.52791
1645.31	1.51913
1646.85	1.7194
1648.38	2.21637
1649.91	2.21177
1651.44	1.92989
1652.97	2.11329
1654.5	1.94546
1656.03	2.27879
1657.56	2.22268
1659.1	2.18426
1660.62	2.34808
1662.15	2.23263
1663.68	2.41187
1665.21	1.62984
1666.74	2.10436
1668.27	1.97079
1669.8	1.83896
1671.32	1.94831
1672.85	1.1746
1674.38	1.54343
1675.91	1.65404
1677.43	1.76373
1678.96	1.20995
1680.49	1.83231
1682.01	1.29562
1683.54	0.796017
1685.06	1.03111
1686.59	1.04621
1688.11	1.7765
1689.64	0.491404
1691.16	1.09366
1692.68	0.798686
1694.21	1.07093
1695.73	0.995378
1697.25	1.28505
1698.78	0.387103
1700.3	0.748995
1701.82	0.63574
1703.34	1.0141
1704.86	0.499081
1706.39	0.62123
1707.91	0.215733
1709.43	0.446537
1710.95	0.84033
1712.47	-0.108099
1713.99	0.70248
1715.51	0.769612
1717.02	0.0588169
1718.54	0.306856
1720.06	0.265507
1721.58	0.549139
1723.1	0.562453
1724.62	0.432602
1726.13	0.304168
1727.65	0.879095
1729.17	0.554863
1730.68	0.37485
1732.2	0.639852
1733.72	0.196663
1735.23	0.225497
1736.75	0.174045
1738.26	0.32795
1739.78	0.275053
1741.29	0.375776
1742.81	0.233033
1744.32	-0.058507
1745.84	0.241841
1747.35	0.201207
1748.86	-0.106015
1750.37	0.395737
1751.89	0.403856
1753.4	0.116184
1754.91	0.434479
1756.42	0.0564356
1757.93	0.10859
1759.45	0.399505
1760.96	0.230956
1762.47	0.210131
1763.98	0.24637
1765.49	-0.0621862
1767	0.396869
1768.51	0.0991602
1770.02	0.327606
1771.53	-0.176426
1773.03	0.132891
1774.54	-0.0175657
1776.05	-0.00494766
1777.56	0.0395794
1779.07	-0.183267
1780.57	-0.238629
1782.08	-0.0296431
1783.59	0.103257
1785.09	-0.0408287
1786.6	0.0947752
1788.11	-0.0289106
1789.61	0.110227
1791.12	0.278466
1792.62	0.144927
1794.13	0.257653
1795.63	-0.158131
1797.13	0.200029
1798.64	-0.260368
1800.14	-0.0332069
1801.65	-0.0889807
1803.15	0.0739307
1804.65	-0.0098772
1806.15	0.238823
1807.66	-0.0243359
1809.16	0.124604
1810.66	0.092679
1812.16	0.112783
1813.66	0.107342
1815.16	0.237013
1816.66	0.00795937
1818.16	0.277208
1819.66	0.0976515
1821.16	0.0547476
1822.66	0.121617
1824.16	-0.101972
1825.66	0.312366
1827.16	0.188896
1828.66	0.415407
1830.16	0.0314503
1831.65	0.171641
1833.15	-0.27763
1834.65	-0.0479155
1836.14	-0.198116
1837.64	0.0267773
1839.14	0.0557413
1840.63	0.0879927
1842.13	0.593462
1843.62	0.117296
1845.12	-0.101777
1846.61	0.174105
1848.11	0.0475769
1849.6	0.100656
1851.1	0.00972939
1852.59	-0.270045
1854.08	0.166498
1855.58	0.559306
1857.07	0.261569
1858.56	0.281125
1860.05	0.0624743
1861.55	0.175063
1863.04	0.086915
1864.53	-0.128538
1866.02	0.22072
1867.51	0.134212
1869	-0.326905
1870.49	0.0818558
1871.98	0.287381
1873.47	-0.0391493
1874.96	0.103754
1876.45	0.227394
1877.94	0.211658
1879.43	0.0546808
1880.92	0.092062
1882.41	0.151857
1882.51	0.159044
1884	0.175242
1885.5	0.243009
1886.99	-0.28226
1888.48	-0.11111
1889.98	0.181797
1891.47	-0.220349
1892.96	0.0398226
1894.46	0.0928841
1895.95	0.390748
1897.44	-0.0235701
1898.93	0.292454
1900.42	0.329316
1901.91	0.347316
1903.41	-0.227591
1904.9	0.048461
1906.39	-0.041317
1907.88	-0.287323
1909.37	-0.168083
1910.86	0.333585
1912.35	0.211283
1913.83	0.0548573
1915.32	0.349432
1916.81	-0.153904
1918.3	0.00116539
1919.79	0.103769
1921.27	-0.330728
1922.76	0.118486
1924.25	0.256632
1925.74	-0.556368
1927.22	0.0511236
1928.71	-0.0679111
1930.19	0.107385
1931.68	0.247376
1933.17	0.438009
1934.65	-0.0308313
1936.14	0.225897
1937.62	-0.0374451
1939.11	0.148385
1940.59	0.144282
1942.07	0.244478
1943.56	0.0177689
1945.04	0.0334148
1946.52	0.118343
1948.01	-0.331214
1949.49	-0.0575476
1950.97	0.352752
1952.45	-0.0297813
1953.93	0.155122
1955.42	0.167858
1956.9	0.146574
1958.38	-0.0113802
1959.86	0.534802
1961.34	0.0693216
1962.82	-0.0870705
1964.3	0.150571
1965.78	0.0621853
1967.26	0.161556
1968.74	0.0378656
1970.21	0.221491
1971.69	-0.00531578
1973.17	0.0241728
1974.65	-0.0486326
1976.13	0.20266
1977.6	0.249368
1979.08	-0.231555
1980.56	0.189667
1982.03	0.117221
1983.51	-0.108265
1984.99	0.26036
1986.46	-0.05021
1987.94	0.13115
1989.41	0.126228
1990.89	0.0542135
1992.36	0.186072
1993.84	0.11582
1995.31	0.0294571
1996.78	0.0618
1998.26	-0.159229
1999.73	0.0753517
2001.2	0.174216
2002.68	0.205081
2004.15	0.134641
2005.62	0.401565
2007.09	0.113098
2008.56	0.0277224
2010.04	-0.0568542
2011.51	0.0442238
2012.98	-0.359606
2014.45	0.0945864
2015.92	-0.108225
2017.39	-0.362142
2018.86	0.123132
2020.33	-0.115035
2021.8	0.11713
2023.26	0.34935
2024.73	-0.0555096
2026.2	-0.0229559
2027.67	-0.274301
2029.14	0.314268
2030.61	0.0653811
2032.07	0.0521574
2033.54	0.190445
2035.01	0.513554
2036.47	0.433368
2037.94	-0.0170164
2039.4	0.0194397
2040.87	0.156724
2042.33	0.210328
2043.8	0.197351
2045.27	0.218816
2046.73	0.325161
2048.19	0.280297
2049.66	0.13398
2051.12	-0.417993
2052.59	0.107749
2054.05	0.176697
2055.51	0.0923319
2056.97	0.107947
2058.44	0.0217428
2059.9	0.137589
2061.36	-0.167237
2062.82	0.151632
2064.28	0.16831
2065.74	0.152213
2067.21	0.1537
2068.67	0.441833
2070.13	0.157998
2071.59	-0.210031
2073.05	-0.207845
2074.51	0.06355
2075.96	0.536781
2077.42	0.184542
2078.88	0.387672
2080.34	0.573537
2081.8	0.371622
2083.26	-0.537787
2084.72	0.403723
2086.17	0.166446
2087.63	0.349173
2089.09	-0.00643158
2090.54	0.326833
2092	-0.162947
2093.45	0.203477
2094.91	0.0997152
2096.37	0.599013
2097.82	-0.159083
2099.28	0.0875416
2100.73	0.567629
2102.19	0.32864
2103.64	0.508194
2105.09	0.0377951
2106.55	0.553332
2108	0.635856
2109.45	0.835388
2110.91	0.234167
2112.36	0.448718
2113.81	0.1453
2115.26	0.622973
2116.72	0.101547
2118.17	0.511467
2119.62	0.490373
2121.07	0.288534
2122.52	0.934381
2123.97	1.01752
2125.42	0.703321
2126.87	0.886343
2128.32	1.01866
2129.77	0.652504
2131.22	0.517355
2132.67	1.34168
2134.11	0.31221
2135.56	0.673435
2137.01	0.440633
2138.46	0.953245
2139.91	1.3684
2141.35	1.57036
2142.8	1.01296
2144.25	0.654258
2145.7	1.48701
2147.14	0.879721
2148.59	1.3811
2150.03	1.31868
2151.48	1.43754
2152.92	1.63832
2154.37	1.45721
2155.81	1.62358
2157.26	1.45868
2158.7	1.90738
2160.15	1.71135
2161.59	1.68268
2163.03	1.7387
2164.47	1.21566
2165.92	1.43979
2167.36	1.84693
2168.8	1.62186
2170.24	1.72748
2171.69	2.24698
2173.13	1.93279
2174.57	1.71706
2176.01	1.89993
2177.45	1.43447
2178.89	2.01727
2180.33	1.45383
2181.77	1.43988
2183.21	1.60943
2184.65	1.76268
2186.09	2.24878
2187.53	1.73675
2188.97	1.79041
2190.4	2.02717
2191.84	1.83089
2193.28	1.53395
2194.72	1.48545
2196.16	1.35201
2197.59	1.38315
2199.03	1.86155
2200.47	1.62379
2201.9	0.821751
2203.34	1.31554
2204.77	0.765125
2206.21	1.07804
2207.64	0.977011
2209.08	1.27334
2210.51	1.188
2211.95	0.986018
2213.38	0.948906
2214.82	0.845648
2216.25	0.875127
2217.68	1.13657
2219.12	1.13508
2220.55	0.755233
2221.98	0.1615
2223.41	0.885575
2224.85	0.718565
2226.28	1.14259
2227.71	0.413553
2229.14	0.440252
2230.57	0.745097
2232	0.508302
2233.43	0.337757
2234.86	0.593359
2236.29	0.963885
2237.72	0.682273
2239.15	0.467994
2240.58	0.206728
2242.01	0.0939059
2243.44	0.569317
2244.87	0.245856
2246.29	0.182808
2247.72	0.852318
2249.15	0.785881
2250.58	0.212459
2252.01	0.11042
2253.43	0.284295
2254.86	0.620567
2256.29	0.145826
2257.71	-0.196508
2259.14	0.0964227
2260.56	0.408036
2261.99	0.153844
2263.41	0.550423
2264.84	0.541495
2266.26	0.450937
2267.69	0.359587
2269.11	0.169707
2270.53	0.092978
2271.96	0.0809035
2273.38	-0.0127544
2274.8	0.121671
2276.23	0.38669
2277.65	0.114161
2279.07	0.461043
2280.49	0.155789
2281.91	-0.0192361
2283.34	0.474488
2284.76	0.0383186
2286.18	0.418259
2287.6	0.325231
2289.02	0.346863
2290.44	0.00938463
2291.86	0.407489
2293.28	0.429907
2294.7	0.403239
2296.12	0.0982099
2297.54	0.398769
2298.96	-0.00481796
2300.37	0.607563
2301.79	-0.353401
2303.21	0.0137978
2304.63	0.381515
2306.04	0.289706
2307.46	0.131786
2308.88	-0.191112
2310.3	-0.054317
2311.71	0.0164371
2313.13	0.0213881
2314.54	-0.220221
2315.96	0.23018
2317.37	0.385128
2318.79	-0.0692844
2320.2	0.399251
2321.62	0.190759
2323.03	0.36012
2324.45	0.213912
2325.86	0.0493169
2327.27	0.411114
2328.69	0.705916
2330.1	0.522879
2331.51	0.439596
2332.92	0.0446672
2334.34	-0.0695844
2335.75	-0.0190616
2337.16	0.113302
2338.57	0.507802
2339.98	0.276518
2341.39	-0.300192
2342.8	-0.203737
2344.21	-0.238641
2345.63	0.283954
2347.04	0.101844
2348.45	-0.0963807
2349.85	-0.212873
2351.26	0.0624804
2352.67	0.140574
2354.08	-0.239155
2355.49	0.131108
2356.9	-0.118427
2358.3	-0.139752
2359.71	0.342738
2361.12	0.142624
2362.53	-0.0246515
2363.93	-0.0296988
2365.34	-0.131855
2366.75	0.186558
2368.15	-0.270139
2369.56	0.27498
2370.97	0.256197
2372.37	0.0774951
2373.77	-0.390017
2375.18	-0.0519848
2376.59	-0.132865
2377.99	0.444733
2379.39	-0.120615
2380.8	0.244668
2382.2	0.23917
2383.6	-0.0553861
2385.01	0.0824614
2386.41	0.100477
2387.81	0.119214
2389.21	-0.379255
2390.62	-0.0792799
2392.02	0.253071
2393.42	0.156275
2394.82	0.0762024
2396.22	-0.130385
2397.62	0.188167
2399.02	-0.0331912
2400.42	-0.111062
2401.82	0.0337267
2403.22	-0.0914683
2404.62	0.0530052
2406.02	-0.343007
2407.42	-0.0254688
2408.82	0.0849562
2410.22	-0.169599
2411.62	-0.265286
2413.01	0.320739
2414.41	-0.232457
2415.81	-0.0243845
2417.21	0.184793
2418.6	-0.00105286
2420	0.225114
2421.4	0.340396
2422.79	-0.510994
2424.19	-0.126957
2425.59	0.273057
2426.98	0.0396609
2428.38	0.377614
2429.77	0.193246
2431.17	0.00932026
2432.56	0.444479
2433.95	0.101371
2435.35	0.487851
2436.74	0.0310869
2438.14	0.144962
2439.53	0.194166
2440.92	0.258434
2442.31	-0.0111752
2443.71	-0.138012
2445.1	0.179224
2446.49	0.543616
2447.88	0.115198
2449.27	-0.15445
2450.67	-0.107011
2452.06	0.478959
2453.45	0.574718
2454.84	0.13331
2456.23	-0.165012
2457.62	0.106415
2459.01	-0.0968199
2460.4	0.28465
2461.79	0.570414
2463.18	0.207278
2464.57	-0.124504
2465.95	0.0806732
2467.34	-0.0932631
2468.73	0.190479
2470.12	-0.220129
2471.5	-0.126293
2472.89	-0.269417
2474.28	0.169487
2475.67	0.13529
2477.05	0.132257
2478.44	0.207702
2479.82	0.267468
2481.21	0.139127
2482.6	-0.083075
2483.98	0.11737
2485.37	0.347994
2486.75	0.0772333
2488.13	0.165055
2489.52	-0.0129156
2490.9	0.603207
2492.29	0.0212712
2493.67	0.0626874
2495.05	-0.0189657
2496.44	0.00906897
2497.82	0.130709
2499.2	0.1905
2500.58	0.00244856
2501.97	0.0767674
2503.35	0.0266118
2504.73	0.114624
2506.11	-0.275734
2507.49	-0.034409
2508.87	0.00661612
2510.25	0.308974
2511.63	-0.0944772
2513.01	-0.389246
2514.39	0.0217195
2515.77	0.126678
2517.15	0.323936
2518.53	0.139225
2519.91	0.138226
2521.29	0.243915
2522.67	0.455761
2524.05	0.0412335
2525.42	-0.0684662
2526.8	0.0958824
2528.18	0.138566
2529.55	0.303751
2530.93	-0.183446
2532.31	-0.15231
2533.69	0.290132
2535.06	0.322932
2536.44	0.203781
2537.81	0.0992723
2539.19	0.343303
2540.56	0.298009
2541.94	0.0702915
2543.31	-0.050849
2544.69	0.481031
2546.06	0.0127454
2547.44	-0.0297942
2548.81	-0.0868225
2550.18	-0.0224061
2551.56	0.0112839
2552.93	0.1201
2554.3	0.0155883
2555.67	0.274472
2557.04	-0.149794
2558.42	0.290363
2559.79	0.139283
2561.16	0.0948076
2562.53	0.278195
2563.9	-0.00772429
2565.27	0.176497
2566.64	-0.093708
2568.01	0.530296
2569.38	-0.239992
2570.75	0.202182
2572.12	0.174538
2573.49	-0.0955791
2574.86	0.0284877
2576.23	0.182916
2577.6	0.170518
2578.97	0.233737
2580.33	0.357309
2581.7	0.404705
2583.07	0.33047
2584.44	0.119598
2585.8	-0.0306506
2587.17	0.470958
2588.54	0.351262
2589.9	-0.116881
2591.27	0.066534
2592.64	0.143462
2594	-0.0529857
2595.37	0.1587
2596.73	-0.0242033
2598.1	0.12523
2599.46	0.259043
2600.83	0.105678
2602.19	0.390856
2603.55	0.38952
2604.92	0.117051
2606.28	-0.0947194
2607.64	-0.125653
2609.01	0.189398
2610.37	0.126525
2611.73	0.122825
2613.09	0.0580006
2614.46	0.217955
2615.82	0.452376
2617.18	0.311747
2618.54	-0.0527477
2619.9	0.287327
2621.26	-0.0603275
2622.62	-0.392114
2623.98	0.635565
2625.34	0.3785
2626.7	0.0619125
2628.06	0.386241
2629.42	0.17378
2630.78	-0.336098
2632.14	0.641348
2633.5	0.250587
2634.86	-0.198943
2636.21	-0.143555
2637.57	0.222903
2638.93	-0.0182509
2640.29	0.0221934
2641.64	0.417586
2643	0.20694
2644.36	0.144354
2645.71	0.494855
2647.07	-0.0842252
2648.43	0.0293159
2649.78	0.377431
2651.14	0.0921183
2652.49	0.115515
2653.85	0.285744
2655.2	0.177772
2656.56	-0.163438
2657.91	-0.0641432
2659.26	-0.0373826
2660.62	0.223628
2661.97	0.0458264
2663.32	0.0283847
2664.68	0.302211
2666.03	0.00616074
2667.38	0.0453563
2668.74	0.302815
2670.09	0.0944862
2671.44	0.0904465
2672.79	0.392065
2674.14	0.316279
2675.49	-0.00568867
2676.84	0.34049
2678.19	0.251856
2679.54	0.32347
2680.89	0.453936
2682.24	0.208462
2683.59	0.166953
2684.94	0.0827117
2686.29	0.274492
2687.64	0.0598588
2688.99	0.250627
2690.34	0.222237
2691.69	0.293899
2693.03	0.0160027
2694.38	0.549573
2695.73	0.372258
2697.08	0.268061
2698.42	0.193988
2699.77	0.280625
2701.12	0.0646367
2702.46	0.371262
2703.81	0.447146
2705.15	-0.0418572
2706.5	0.222949
2707.85	0.0669546
2709.19	0.273402
2710.54	0.26184
2711.88	0.0176086
2713.22	0.121838
2714.57	0.313284
2715.91	-0.0477362
2717.26	0.143582
2718.6	0.145666
2719.94	0.453004
2721.29	0.0760479
2722.63	0.149783
2723.97	-0.0388794
2725.31	0.194198
2726.66	0.849029
2728	0.164528
2729.34	0.0329275
2730.68	-0.113323
2732.02	0.293271
2733.36	0.234326
2734.7	0.190078
2736.04	0.364167
2737.38	0.174747
2738.72	0.130752
2740.06	0.537351
2741.4	0.129196
2742.74	0.18582
2744.08	0.00929403
2745.42	0.340826
2746.76	0.148938
2748.09	0.160259
2749.43	0.0700278
2750.77	0.255586
2752.11	0.223738
2753.45	-0.0542736
2754.78	0.348973
2756.12	0.303077
2757.46	-0.0901728
2758.79	0.457925
2760.13	-0.166219
2761.46	0.0640244
2762.8	0.00520754
2764.14	0.163689
2765.47	0.481294
2766.8	0.292107
2768.14	0.275751
2769.47	0.128169
2770.81	-0.121667
2772.14	-0.09794
2773.48	-0.132817
2774.81	-0.0383482
2776.14	-0.174555
2777.48	-0.310258
2778.81	0.173049
2780.14	0.210594
2781.47	0.248354
2782.8	0.357889
2784.14	0.108674
2785.47	0.160738
2786.8	0.255847
2788.13	0.480088
2789.46	0.0466189
2790.79	-0.0567832
2792.12	0.312357
2793.45	-0.175992
2794.78	-0.0924172
2796.11	0.176587
2797.44	0.087873
2798.77	0.0415759
2800.1	-0.0478663
2801.43	0.0337238
2802.76	-0.355453
2804.09	0.0108371
2805.41	-0.16486
2806.74	0.228488
2808.07	0.0518198
2809.4	0.0740237
2810.72	0.266613
2812.05	-0.10822
2813.38	-0.141271
2814.71	-0.0738802
2816.03	-0.0478735
2817.36	-0.29025
2818.68	0.119844
2820.01	0.331515
2821.33	-0.00995207
2822.66	0.200754
2823.98	0.113318
2825.31	0.0681157
2826.63	-0.118649
2827.96	0.388837
2829.28	0.00478029
2830.6	0.116631
2831.93	0.0304694
2833.25	0.439689
2834.57	0.225816
2835.9	0.577652
2837.22	0.575168
2838.54	0.17622
2839.86	0.512676
2841.18	0.382476
2842.5	0.803951
2843.83	0.688775
2845.15	0.786218
2846.47	1.1951
2847.79	0.742217
2849.11	1.0808
2850.43	0.698309
2851.75	0.795966
2853.07	1.30303
2854.39	1.65421
2855.71	1.70841
2857.03	1.43766
2858.35	1.23767
2859.66	1.32016
2860.98	1.8402
2862.3	1.96448
2863.62	2.17305
2864.94	1.8592
2866.25	2.10974
2867.57	2.43089
2868.89	2.3434
2870.2	2.29862
2871.52	2.57821
2872.84	2.37829
2874.15	2.36095
2875.47	2.56805
2876.78	2.71767
2878.1	2.54275
2879.41	2.55058
2880.73	2.64301
2882.04	2.48319
2883.36	2.57724
2884.67	2.96696
2885.99	2.64113
2887.3	2.93305
2888.61	2.88768
2889.93	2.57511
2891.24	2.48636
2892.55	2.50927
2893.86	2.74214
2895.18	2.80709
2896.49	3.25064
2897.8	2.95324
2899.11	3.13261
2900.42	3.6624
2901.73	3.60504
2903.05	2.8485
2904.36	3.07127
2905.67	3.28029
2906.98	3.6297
2908.29	3.57423
2909.6	3.82735
2910.91	3.61928
2912.21	3.98503
2913.52	4.25223
2914.83	4.82617
2916.14	4.53045
2917.45	4.75115
2918.76	4.90079
2920.07	5.00822
2921.37	5.22809
2922.68	5.11358
2923.99	5.58756
2925.29	5.78311
2926.6	5.82556
2927.91	5.91001
2929.22	5.42091
2930.52	5.86792
2931.83	6.37033
2933.13	5.68429
2934.44	5.54342
2935.74	5.96174
2937.05	5.40193
2938.35	5.34545
2939.66	5.35913
2940.96	5.28946
2942.26	5.36039
2943.57	5.50241
2944.87	4.91889
2946.18	5.23122
2947.48	4.7749
2948.78	4.97586
2950.08	4.88184
2951.39	4.28196
2952.69	4.29634
2953.99	4.5054
2955.29	4.29409
2956.59	3.95769
2957.9	4.16911
2959.2	4.04714
2960.5	4.06781
2961.8	3.65592
2963.1	3.80535
2964.4	3.64566
2965.7	3.76542
2967	3.30755
2968.3	2.96059
2969.6	3.0065
2970.9	2.67258
2972.19	2.66235
2973.49	2.79317
2974.79	2.67071
2976.09	2.91373
2977.39	2.71916
2978.68	2.63571
2979.98	2.60702
2981.28	2.08467
2982.58	1.66071
2983.87	2.01064
2985.17	1.81317
2986.47	1.95437
2987.76	1.92825
2989.06	1.50957
2990.35	1.72353
2991.65	1.51549
2992.94	1.40495
2994.24	0.942115
2995.53	1.23708
2996.83	1.26445
2998.12	1.29163
2999.42	1.19277
3000.71	0.197111
3002	0.828604
3003.3	0.689402
3004.59	0.760532
3005.88	0.565352
3007.18	0.537817
3008.47	0.649544
3009.76	0.732442
3011.05	0.63296
3012.34	0.449508
3013.64	0.0571094
3014.93	0.306919
3016.22	0.194798
3017.51	0.445457
3018.8	0.25105
3020.09	0.30729
3021.38	0.363134
3022.67	0.209885
3023.96	0.0422072
3025.25	0.262422
3026.54	0.440499
3027.83	-0.336085
3029.12	0.133931
3030.41	0.231503
3031.69	0.0264525
3032.98	-0.149882
3034.27	0.060638
3035.56	-0.0880513
3036.84	-0.0307989
3038.13	0.231598
3039.42	0.230468
3040.71	0.035614
3041.99	0.0326948
3043.28	-0.0798726
3044.57	0.0686812
3045.85	0.0405579
3047.14	0.014359
3048.42	0.195007
3049.71	-0.113971
3050.99	0.192634
3052.28	0.0496573
3053.56	0.220599
3054.85	0.44558
3056.13	0.124086
3057.41	0.17003
3058.7	0.705774
3059.98	0.355665
3061.26	-0.034483
3062.55	0.433511
3063.83	0.358522
3065.11	-0.190844
3066.39	0.702125
3067.68	-0.171388
3068.96	0.029563
3070.24	0.33925
3071.52	0.117869
3072.8	0.153948
3074.08	0.161831
3075.36	0.073874
3076.65	-0.0820985
3077.93	0.359698
3079.21	-0.188361
3080.49	-0.232904
3081.77	-0.316809
3083.04	-0.0604873
3084.32	-0.0883794
3085.6	0.155305
3086.88	0.41232
3088.16	0.125887
3089.44	0.178274
3090.72	-0.203894
3091.99	-0.0975485
3093.27	0.13103
3094.55	-0.0605392
3095.83	-0.00766754
3097.1	0.262245
3098.38	0.0712752
3099.66	-0.214481
3100.93	0.082418
3102.21	0.0136542
3103.49	0.202474
3104.76	0.0533371
3106.04	0.0132241
3107.31	-0.229028
3108.59	-0.037293
3109.86	0.0877714
3111.14	-0.151778
3112.41	0.00203323
3113.69	0.0209074
3114.96	0.541445
3116.23	0.180626
3117.51	-0.00466537
3118.78	0.175451
3120.05	0.300483
3121.33	0.140074
3122.6	0.670546
3123.87	0.360628
3125.14	0.660554
3126.41	0.0945349
3127.69	0.030108
3128.96	0.385535
3130.23	0.335517
3131.5	0.54258
3132.77	0.425211
3134.04	0.375274
3135.31	0.176558
3136.58	0.584862
3137.85	0.587853
3139.12	0.267347
3140.39	0.270361
3141.66	0.677013
3142.93	0.317475
3144.2	0.469209
3145.47	0.634782
3146.74	0.505905
3148	0.605612
3149.27	0.545191
