200.563	0.551958
202.377	0.575988
204.194	0.601104
206.008	0.529977
207.821	0.629343
209.634	0.169054
211.449	0.412228
213.262	0.896227
215.074	-0.319543
216.885	0.162305
218.699	-0.0345573
220.51	0.955423
222.321	-0.231612
224.131	-0.304306
225.941	-0.473015
227.751	-0.0135069
229.562	0.0105333
231.371	0.637218
233.18	0.828732
234.988	0.393621
236.796	0.442453
238.603	0.156332
240.411	0.596258
242.219	-0.383594
244.026	0.30171
245.832	0.215118
247.638	0.609408
249.443	0.276187
251.248	-0.0124331
253.053	-0.255793
254.857	0.150414
256.661	-0.215721
258.465	0.455684
260.268	0.285383
262.071	0.575089
263.874	0.649928
265.678	0.677855
267.48	-0.113316
269.282	0.444687
271.083	0.278596
272.884	0.954956
274.684	-0.130447
276.484	0.0841875
278.284	0.20015
280.084	0.409973
281.883	0.424557
283.682	0.436894
285.48	-0.0810137
287.276	0.433192
289.074	0.610742
290.871	0.0942345
292.668	0.609309
294.465	0.312276
296.261	0.184649
298.057	0.655828
299.853	-0.330132
301.648	-0.121533
303.443	0.276905
305.237	-0.161702
307.032	0.663159
308.823	0.175818
310.617	0.547376
312.41	0.562823
314.203	0.0564051
315.995	-0.114422
317.788	0.812276
319.579	0.645411
321.369	0.789621
323.16	0.195646
324.951	0.4128
326.741	0.725839
328.531	0.680567
330.321	0.132357
332.108	-0.226526
333.897	0.34549
335.686	0.149483
337.474	0.477218
339.26	0.108592
341.048	-0.26157
342.835	0.467221
344.622	0.95642
346.406	0.609916
348.192	0.455504
349.978	0.898561
351.764	0.649282
353.547	-0.316451
355.332	0.0529699
357.116	-0.127816
358.901	0.214296
360.682	0.00693226
362.466	0.86959
364.249	0.54118
366.03	-0.0963802
367.812	-0.164101
369.594	0.170377
371.374	0.0768232
373.155	0.526786
374.936	-0.466164
376.715	-0.252986
378.495	-0.0396757
380.273	-0.296868
382.053	0.318551
383.832	0.299511
385.609	0.258501
387.388	0.359948
389.164	0.298192
390.942	0.472486
392.72	0.812092
394.495	0.729689
396.272	0.0371332
398.047	1.05909
399.823	0.178459
401.597	0.307216
403.372	1.11637
405.145	0.562325
406.92	0.312804
408.693	0.0861368
410.467	-0.281631
412.239	0.477253
414.012	-0.101074
415.783	0.658933
417.556	0.786382
419.327	0.891152
421.099	1.13709
422.869	0.255988
424.64	0.219016
426.409	0.462671
428.18	0.353217
429.948	0.407534
431.718	0.931251
433.486	0.892046
435.253	0.336946
437.022	0.204253
438.789	0.0237741
440.558	0.686357
442.324	0.47827
444.089	-0.013483
445.857	-0.0850372
447.622	-0.251413
449.386	0.727755
451.153	-0.420615
452.917	0.790928
454.682	0.414746
456.446	1.08788
458.208	0.665303
459.973	0.0108061
461.735	-0.0838375
463.497	-0.780842
465.259	0.0355453
467.022	0.157926
468.783	0.283411
470.544	0.690205
472.306	0.306936
474.066	0.224986
475.825	0.234072
477.585	0.333854
479.346	0.524715
481.104	-0.100776
482.862	0.718049
484.62	0.583373
486.38	0.683959
488.137	0.297664
489.894	0.706338
491.65	-0.167079
493.407	0.173738
495.164	0.328322
496.92	0.506477
498.675	0.52059
500.43	0.79216
502.184	0.500083
503.939	0.0185738
505.694	0.851346
507.448	0.0607557
509.201	-0.144149
510.954	0.119638
512.706	0.146386
514.459	1.04201
516.21	0.547765
517.962	0.710841
519.715	-0.0441494
521.466	0.422459
523.216	0.0426693
524.966	0.860038
526.716	0.315966
528.466	0.171072
530.215	0.518302
531.964	0.20888
533.712	-0.124517
535.46	0.47676
537.208	0.0472288
538.955	0.107158
540.703	0.375499
542.449	0.223081
544.196	-0.068964
545.942	0.545813
547.688	0.695211
549.433	0.0796194
551.178	0.322379
552.923	-0.129051
554.667	0.599043
556.412	0.310395
558.155	0.483953
559.899	0.150962
561.642	0.0493841
563.385	0.270639
565.127	-0.0363798
566.867	0.415751
568.609	0.0188875
570.35	0.472685
572.092	0.0331106
573.832	-0.587929
575.573	-0.0600052
577.313	-0.0348558
579.053	0.450918
580.79	0.248957
582.529	0.0928497
584.268	0.211838
586.006	0.145742
587.745	0.00915432
589.482	0.354308
591.218	0.58341
592.955	-0.476501
594.692	-0.0180655
596.428	-0.295808
598.164	0.093605
599.898	-0.184593
601.634	0.203393
603.369	-0.445114
605.104	0.261523
606.836	0.0240002
608.57	0.222141
610.304	0.0068388
612.037	-0.253527
613.769	0.0604296
615.501	0.787404
617.234	-0.0896797
618.966	0.796667
620.696	0.284644
622.427	0.68676
624.159	0.0587044
625.887	-0.0201817
627.618	0.290364
629.348	-0.0816917
631.076	-0.0630102
632.806	0.528418
634.535	0.0256529
636.262	0.252756
637.99	0.0213137
639.716	-0.258758
641.444	0.18798
643.172	0.107216
644.897	0.662728
646.624	0.76274
648.348	-0.157924
650.075	0.74365
651.801	0.104403
653.524	0.628594
655.249	0.13359
656.972	0.050128
658.697	-0.374436
660.419	0.660006
662.143	0.506876
663.865	0.579334
665.588	0.443273
667.309	0.533622
669.032	0.829036
670.752	0.439266
672.474	0.303231
674.194	0.123993
675.915	0.840805
677.634	0.481959
679.355	0.283282
681.073	0.335942
682.793	0.639721
684.511	0.642146
686.23	0.319869
687.947	0.686621
689.664	0.867954
691.382	0.265247
693.098	0.606241
694.816	0.646878
696.531	0.433049
698.247	0.194949
699.963	0.691924
701.678	0.520164
703.392	0.232618
705.108	0.702537
706.821	0.0925865
708.534	0.469126
710.249	1.09663
711.962	0.509377
713.674	0.586075
715.388	0.753795
717.099	1.08099
718.81	0.632166
720.523	0.981967
722.234	0.80764
723.944	0.542646
725.654	1.25543
727.365	0.535756
729.075	1.49603
730.784	1.16182
732.492	0.827819
734.202	0.856219
735.91	0.229239
737.618	0.507055
739.325	0.33395
741.034	0.522854
742.741	0.690321
744.447	1.28686
746.153	1.43441
747.859	0.436208
749.564	1.7117
751.271	1.09918
752.976	1.20796
754.681	0.148471
756.385	1.0255
758.088	1.4772
759.792	1.36785
761.495	1.5302
763.2	1.33236
764.902	1.08869
766.604	0.820754
768.306	1.5225
770.008	1.36295
771.709	1.56282
773.41	1.85151
775.11	1.43873
776.811	1.04927
778.51	2.08583
780.21	1.58658
781.909	1.92542
783.608	1.40459
785.307	1.92339
787.005	1.2397
788.703	1.52571
790.401	0.97083
792.098	1.72452
793.795	1.63967
795.492	2.00584
797.188	2.12457
798.884	1.56951
800.58	1.85005
802.276	1.86197
803.971	1.67224
805.665	1.28012
807.36	1.62885
809.054	2.53721
810.748	1.60288
812.441	1.65544
814.135	1.52803
815.826	2.31836
817.518	1.89951
819.21	1.95074
820.902	2.33702
822.594	1.76376
824.285	2.39628
825.976	1.78194
827.665	1.37121
829.355	1.45378
831.045	1.33937
832.735	1.82965
834.424	0.740058
836.111	1.14473
837.8	1.77279
839.488	1.90887
841.177	1.41774
842.864	1.5951
844.55	1.57089
846.237	1.70398
847.924	1.25787
849.61	0.903591
851.295	1.58161
852.98	2.03891
854.666	1.39866
856.349	1.4756
858.034	1.12416
859.719	0.837718
861.403	1.47208
863.085	1.45194
864.769	0.506285
866.452	1.52032
868.133	0.88806
869.816	1.11206
871.498	0.478585
873.179	1.06299
874.86	2.05362
876.54	1.03606
878.221	1.01132
879.902	0.986433
881.58	0.690214
883.26	1.00268
884.938	1.1107
886.618	0.585146
888.297	1.16364
889.974	1.22119
891.653	1.25441
893.329	1.26355
895.007	1.02379
896.683	1.23282
898.36	1.10343
900.035	1.35455
901.712	0.551208
903.387	0.465232
905.063	1.20607
906.737	0.985662
908.412	0.788785
910.085	0.749237
911.76	1.26687
913.433	1.49537
915.107	0.924521
916.779	1.21988
918.452	0.783281
920.124	1.29967
921.797	1.70519
923.467	0.962067
925.138	0.928719
926.81	1.18451
928.48	1.11097
930.151	0.663716
931.82	0.592447
933.489	1.3377
935.16	1.15654
936.828	1.10827
938.496	0.619937
940.165	0.794621
941.833	0.882464
943.5	1.30214
945.168	1.32449
946.834	1.12471
948.5	0.96691
950.168	0.387663
951.834	0.645772
953.499	0.506879
955.163	0.921107
956.83	0.654878
958.494	0.723065
960.158	0.308801
961.821	0.536191
963.487	0.520527
965.15	0.679821
966.812	0.880455
968.474	0.79032
970.138	0.852708
971.8	0.516016
973.461	1.37422
975.123	1.06197
976.783	1.50379
978.446	0.752941
980.106	0.48921
981.766	0.224826
983.425	0.445854
985.084	0.48762
986.743	1.01396
988.402	0.652966
990.06	0.512029
991.72	0.812514
993.378	0.14069
995.035	0.374767
996.692	0.476337
998.349	0.577748
1000.01	1.16353
1001.66	0.647069
1003.32	1.20907
1004.97	1.08823
1006.63	0.989386
1008.28	0.846922
1009.94	-0.172685
1011.59	0.69542
1013.25	0.773993
1014.9	0.765308
1016.55	0.36307
1018.21	0.0712318
1019.86	0.305443
1021.51	0.343867
1023.16	0.09935
1024.81	0.642718
1026.47	0.662135
1028.12	-0.236143
1029.77	1.4866
1031.42	0.63
1033.07	1.6277
1034.72	1.37879
1036.37	0.801549
1038.02	1.48771
1039.67	1.75916
1041.31	1.59606
1042.96	1.95648
1044.61	1.51484
1046.26	1.48861
1047.91	0.986894
1049.55	0.508862
1051.2	1.35712
1052.84	0.751028
1054.49	0.557958
1056.14	0.364778
1057.78	0.627707
1059.43	0.390079
1061.07	0.630039
1062.72	-0.152872
1064.36	1.06361
1066	0.539416
1067.65	0.622744
1069.29	0.791806
1070.93	0.156519
1072.58	0.411615
1074.22	0.363322
1075.86	0.684978
1077.5	-0.0329399
1079.14	0.595132
1080.78	0.248179
1082.42	0.313177
1084.06	0.702358
1085.7	0.65598
1087.34	0.49894
1088.98	0.491282
1090.62	0.568216
1092.26	0.0600739
1093.9	0.200191
1095.54	0.0814066
1097.17	0.243981
1098.81	0.795558
1100.45	0.487394
1102.09	0.676628
1103.72	0.265435
1105.36	0.651689
1106.99	-0.0153942
1108.63	0.112966
1110.27	0.519534
1111.9	0.60167
1113.53	0.123379
1115.17	0.159493
1116.8	0.495242
1118.43	0.48771
1120.07	0.13822
1121.7	0.860842
1123.33	0.834931
1124.97	1.40924
1126.6	0.551217
1128.23	-0.24134
1129.86	0.335536
1131.49	0.357061
1133.12	0.48579
1134.75	0.250933
1136.38	0.122256
1138.01	0.654816
1139.64	0.139065
1141.27	0.540633
1142.9	0.706541
1144.53	-0.556453
1146.16	0.634051
1147.78	0.141219
1149.41	0.3314
1151.04	0.394217
1152.67	-0.181853
1154.29	0.689618
1155.92	-0.163739
1157.54	0.706627
1159.17	-0.230955
1160.8	0.087492
1162.42	0.151946
1164.05	0.153725
1165.67	-0.247947
1167.29	-0.0546083
1168.92	-0.266432
1170.54	0.15758
1172.16	-0.121944
1173.79	0.339968
1175.41	-0.494217
1177.03	0.580154
1178.65	-0.0201921
1180.28	0.354784
1181.9	-0.0946722
1183.52	-0.120061
1185.14	0.150365
1186.76	0.419357
1188.38	0.285202
1190	-0.146004
1191.62	0.158423
1193.24	0.103047
1194.86	0.130924
1196.47	0.515186
1198.09	-0.063529
1199.71	0.134892
1201.33	0.251994
1202.95	0.204896
1204.56	0.119028
1206.18	0.765828
1207.8	0.203903
1209.41	0.539322
1211.03	1.01965
1212.64	0.267592
1214.26	-0.215401
1215.87	1.34023
1217.49	0.0413418
1219.1	0.572505
1220.71	0.749601
1222.33	0.491705
1223.94	0.691557
1225.55	0.520182
1227.16	0.454221
1228.78	1.13449
1230.39	0.223707
1232	0.885758
1233.61	1.07363
1235.22	0.250222
1236.83	0.93698
1238.44	1.37703
1240.05	1.61127
1241.66	0.687524
1243.27	1.29389
1244.88	1.0098
1246.49	0.745155
1248.1	1.1622
1249.71	1.72314
1251.32	1.3113
1252.92	1.14809
1254.53	0.84099
1256.14	1.44528
1257.74	1.1616
1259.35	1.56204
1260.96	1.90167
1262.56	1.9108
1264.17	1.00842
1265.77	1.6177
1267.38	1.14856
1268.98	1.40372
1270.59	1.40892
1272.19	1.62019
1273.79	1.47775
1275.4	1.64509
1277	1.18957
1278.6	1.3341
1280.21	1.31217
1281.81	0.958785
1283.41	1.68159
1285.01	0.99832
1286.61	1.78432
1288.21	1.51713
1289.81	1.72641
1291.41	1.77093
1293.01	1.62934
1294.61	1.52819
1296.21	2.39614
1297.81	1.67194
1299.41	2.45248
1301.01	1.51903
1302.6	1.84205
1304.2	1.71061
1305.8	1.53746
1307.4	1.87746
1308.99	1.72406
1310.59	1.91938
1312.19	1.43926
1313.78	1.81995
1315.38	1.64947
1316.97	2.07249
1318.57	1.8835
1320.16	1.26651
1321.76	2.0548
1323.35	1.67991
1324.94	1.58827
1326.54	1.41403
1328.13	1.09774
1329.72	1.2284
1331.32	1.74487
1332.91	1.51546
1334.5	2.0159
1336.09	0.963934
1337.68	2.1523
1339.27	1.92755
1340.87	2.00312
1342.45	1.53266
1344.04	1.86481
1345.64	1.73318
1347.22	1.54206
1348.81	1.45355
1350.4	1.12799
1351.99	1.08582
1353.58	1.38591
1355.17	1.3675
1356.75	1.78909
1358.34	1.43085
1359.93	1.41118
1361.51	1.74952
1363.1	1.18891
1364.69	0.927608
1366.27	1.28455
1367.86	1.14425
1369.44	1.28419
1371.03	0.729176
1372.61	1.36981
1374.2	0.99689
1375.78	0.405821
1377.37	0.829641
1378.95	1.05389
1380.53	1.41621
1382.11	1.16021
1383.7	1.38009
1385.28	1.22101
1386.86	0.862911
1388.44	0.942226
1390.02	0.784065
1391.6	1.30169
1393.19	0.451138
1394.77	1.18804
1396.35	1.36916
1397.93	0.895206
1399.51	0.123235
1401.08	1.58886
1402.66	0.894782
1404.24	0.933434
1405.82	1.80313
1407.4	1.07215
1408.97	1.29108
1410.55	1.07591
1412.13	0.999016
1413.71	1.69129
1415.28	0.902158
1416.86	0.941082
1418.43	0.821897
1420.01	1.17602
1421.59	1.9052
1423.16	1.002
1424.73	1.45909
1426.31	1.30745
1427.88	1.39258
1429.46	1.65452
1431.03	2.01374
1432.6	1.91888
1434.18	2.3344
1435.75	1.47086
1437.32	1.66978
1438.89	1.88916
1440.46	2.56171
1442.04	2.15444
1443.61	2.1411
1445.18	2.50166
1446.75	2.17454
1448.32	2.59454
1449.89	2.07135
1451.46	2.47275
1453.03	2.38329
1454.6	2.43193
1456.16	2.12635
1457.73	1.99693
1459.3	2.20051
1460.87	1.61483
1462.44	2.40429
1464	2.50292
1465.57	1.53883
1467.14	1.73433
1468.7	1.24296
1470.27	1.96978
1471.83	1.91273
1473.4	1.64125
1474.96	1.50807
1476.53	1.86557
1478.09	1.53695
1479.66	1.52197
1481.22	1.1345
1482.78	1.19776
1484.35	1.28043
1485.91	0.755358
1487.47	1.34595
1489.04	1.77794
1490.6	1.69854
1492.16	1.4211
1493.72	1.20017
1495.28	0.489968
1496.84	0.89087
1498.4	0.687339
1499.96	1.22347
1501.52	0.614313
1503.08	1.26827
1504.64	0.585165
1506.2	0.968183
1507.76	1.11769
1509.32	0.377087
1510.88	0.427951
1512.44	0.631903
1513.99	0.62326
1515.55	0.576422
1517.11	0.434431
1518.66	0.159407
1520.22	0.996572
1521.78	0.397151
1523.33	0.448462
1524.89	0.861468
1526.44	0.509697
1528	0.253033
1529.55	0.31973
1531.11	0.576103
1532.66	0.187738
1534.21	0.861764
1535.77	0.51403
1537.32	0.281493
1538.87	0.201171
1540.43	0.159118
1541.98	0.51282
1543.53	0.922185
1545.08	0.183715
1546.63	0.197741
1548.18	0.155289
1549.74	0.618934
1551.29	1.1942
1552.84	0.403482
1554.39	0.867418
1555.94	0.0436077
1557.48	0.603939
1559.03	0.774097
1560.58	0.815691
1562.13	0.728458
1563.68	0.399897
1565.23	0.743588
1566.78	1.12478
1568.32	0.871212
1569.87	1.27047
1571.42	0.810667
1572.96	0.817216
1574.51	0.916946
1576.05	1.53942
1577.6	1.0794
1579.14	0.582474
1580.69	1.05709
1582.24	1.25261
1583.78	1.3371
1585.32	0.843113
1586.87	1.02235
1588.41	1.38892
1589.95	1.32514
1591.5	1.07362
1593.04	0.671601
1594.58	1.61765
1596.12	1.32774
1597.67	1.61916
1599.21	1.94907
1600.75	0.948178
1602.29	1.8237
1603.83	2.00525
1605.37	0.758283
1606.91	1.74527
1608.45	1.17034
1609.99	1.06266
1611.53	2.061
1613.07	1.29097
1614.6	1.49629
1616.14	1.36332
1617.68	1.2311
1619.22	1.53125
1620.75	1.1025
1622.29	1.49933
1623.83	1.61612
1625.37	0.609744
1626.9	1.02518
1628.44	1.12091
1629.97	1.27113
1631.51	1.34528
1633.04	1.0454
1634.58	1.19424
1636.11	1.56771
1637.65	1.60622
1639.18	2.09283
1640.72	0.566362
1642.25	1.8347
1643.78	1.38759
1645.31	0.902427
1646.85	2.10903
1648.38	1.7342
1649.91	1.89887
1651.44	1.41503
1652.97	2.08304
1654.5	1.67646
1656.03	1.62301
1657.56	2.34766
1659.1	1.904
1660.62	1.64433
1662.15	2.36374
1663.68	1.95322
1665.21	1.5612
1666.74	1.68698
1668.27	2.23801
1669.8	1.4078
1671.32	1.55653
1672.85	1.2459
1674.38	1.72775
1675.91	1.76721
1677.43	1.19836
1678.96	1.86124
1680.49	1.47427
1682.01	1.80348
1683.54	1.2322
1685.06	0.771856
1686.59	1.00933
1688.11	1.357
1689.64	1.24677
1691.16	1.21016
1692.68	0.954068
1694.21	0.716442
1695.73	0.69824
1697.25	0.716317
1698.78	0.496608
1700.3	0.477431
1701.82	0.421243
1703.34	0.419188
1704.86	0.707891
1706.39	0.0495472
1707.91	0.791752
1709.43	0.588149
1710.95	0.60275
1712.47	1.01642
1713.99	0.867961
1715.51	0.466391
1717.02	0.11966
1718.54	0.911874
1720.06	0.619293
1721.58	0.579984
1723.1	-0.0715818
1724.62	0.792166
1726.13	0.377895
1727.65	0.541421
1729.17	-0.103889
1730.68	0.223395
1732.2	0.634173
1733.72	0.421338
1735.23	0.261068
1736.75	-0.143653
1738.26	0.287189
1739.78	0.187009
1741.29	0.204362
1742.81	0.299185
1744.32	0.313544
1745.84	0.35113
1747.35	0.252742
1748.86	0.193384
1750.37	0.0669441
1751.89	0.128617
1753.4	0.470861
1754.91	-0.0317268
1756.42	0.221368
1757.93	0.102303
1759.45	0.299012
1760.96	0.223221
1762.47	0.145104
1763.98	-0.0120497
1765.49	-0.155422
1767	0.0308523
1768.51	-0.290989
1770.02	0.090765
1771.53	0.0184469
1773.03	0.312168
1774.54	0.300297
1776.05	-0.178575
1777.56	0.0887709
1779.07	-0.123324
1780.57	-0.0614023
1782.08	0.0918484
1783.59	0.0589199
1785.09	0.195431
1786.6	0.140384
1788.11	-0.0472651
1789.61	-0.212505
1791.12	0.121463
1792.62	-0.14518
1794.13	-0.0345278
1795.63	-0.0387268
1797.13	0.146428
1798.64	0.0222101
1800.14	0.0451155
1801.65	0.29379
1803.15	-0.107306
1804.65	-0.373353
1806.15	0.207039
1807.66	0.379702
1809.16	-0.0104647
1810.66	-0.092
1812.16	0.105784
1813.66	-0.0944834
1815.16	0.320777
1816.66	-0.0528889
1818.16	-0.0402737
1819.66	0.259009
1821.16	-0.0042429
1822.66	0.367301
1824.16	-0.203058
1825.66	-0.354099
1827.16	0.0224676
1828.66	0.258238
1830.16	-0.134249
1831.65	0.249222
1833.15	0.0348005
1834.65	0.102931
1836.14	-0.0349874
1837.64	-0.164622
1839.14	-0.00836468
1840.63	0.188488
1842.13	-0.0169601
1843.62	0.173874
1845.12	0.410646
1846.61	0.0526505
1848.11	0.0544147
1849.6	0.125473
1851.1	-0.00855541
1852.59	-0.0783424
1854.08	0.0457611
1855.58	0.31736
1857.07	-0.3214
1858.56	0.418779
1860.05	0.297398
1861.55	-0.1207
1863.04	0.359756
1864.53	-0.360438
1866.02	-0.0136938
1867.51	0.0776997
1869	-0.139045
1870.49	0.0484056
1871.98	-0.548151
1873.47	0.305986
1874.96	-0.106302
1876.45	-0.0791788
1877.94	0.162047
1879.43	0.118109
1880.92	0.397032
1882.41	0.0939617
1882.51	0.0716925
1884	0.247369
1885.5	-0.0483665
1886.99	-0.0660124
1888.48	-0.0841408
1889.98	-0.0324898
1891.47	-0.0842972
1892.96	0.108871
1894.46	0.18206
1895.95	-0.0735865
1897.44	-0.0154657
1898.93	-0.166164
1900.42	-0.300472
1901.91	-0.262342
1903.41	-0.260675
1904.9	0.0351353
1906.39	0.0171423
1907.88	0.450624
1909.37	0.346204
1910.86	0.156044
1912.35	-0.0851631
1913.83	0.385365
1915.32	0.162191
1916.81	-0.563993
1918.3	-0.0597382
1919.79	0.183881
1921.27	0.150104
1922.76	-0.00447941
1924.25	0.205407
1925.74	0.173987
1927.22	-0.168011
1928.71	-0.1978
1930.19	0.291867
1931.68	0.105448
1933.17	0.454406
1934.65	0.0917225
1936.14	0.298635
1937.62	0.192891
1939.11	0.363271
1940.59	0.171087
1942.07	0.16979
1943.56	0.514518
1945.04	0.445991
1946.52	0.119302
1948.01	-0.000607491
1949.49	0.343972
1950.97	0.101839
1952.45	-0.0376835
1953.93	0.630595
1955.42	0.558969
1956.9	-0.422322
1958.38	0.211489
1959.86	0.382174
1961.34	0.673273
1962.82	0.518692
1964.3	0.67244
1965.78	0.602905
1967.26	0.00216198
1968.74	0.0343561
1970.21	0.510345
1971.69	-0.159007
1973.17	0.486782
1974.65	0.108379
1976.13	0.22495
1977.6	0.0179005
1979.08	0.202707
1980.56	0.217134
1982.03	0.401351
1983.51	0.24528
1984.99	-0.11458
1986.46	0.221235
1987.94	0.217561
1989.41	-0.158371
1990.89	0.702216
1992.36	0.378762
1993.84	0.242585
1995.31	0.394602
1996.78	0.344218
1998.26	0.547154
1999.73	0.0404625
2001.2	0.225455
2002.68	0.578451
2004.15	0.492632
2005.62	0.137618
2007.09	0.440502
2008.56	0.171594
2010.04	0.408708
2011.51	-0.0439053
2012.98	0.244216
2014.45	0.178444
2015.92	0.0110035
2017.39	0.582798
2018.86	0.447245
2020.33	0.512887
2021.8	0.527924
2023.26	-0.0945835
2024.73	0.458679
2026.2	0.257897
2027.67	0.0585747
2029.14	0.212896
2030.61	0.385313
2032.07	0.189567
2033.54	0.245964
2035.01	0.352759
2036.47	0.0896759
2037.94	0.63247
2039.4	0.586875
2040.87	0.154555
2042.33	0.428581
2043.8	0.367093
2045.27	0.138148
2046.73	0.19591
2048.19	0.270863
2049.66	0.632086
2051.12	0.672285
2052.59	0.7278
2054.05	0.376727
2055.51	0.631024
2056.97	0.782665
2058.44	0.495248
2059.9	0.258414
2061.36	0.274703
2062.82	0.274919
2064.28	0.107794
2065.74	0.143589
2067.21	0.0623751
2068.67	0.520281
2070.13	0.170602
2071.59	0.71316
2073.05	0.245452
2074.51	0.636172
2075.96	0.790847
2077.42	0.305222
2078.88	0.374922
2080.34	0.376806
2081.8	0.209785
2083.26	0.765982
2084.72	0.833137
2086.17	0.411665
2087.63	0.696115
2089.09	0.744584
2090.54	0.456844
2092	0.706544
2093.45	0.821651
2094.91	0.936359
2096.37	0.748744
2097.82	0.744926
2099.28	0.30534
2100.73	0.702249
2102.19	0.547314
2103.64	0.860951
2105.09	0.608043
2106.55	0.757118
2108	1.12397
2109.45	0.473823
2110.91	1.0404
2112.36	0.622126
2113.81	0.768794
2115.26	0.447748
2116.72	1.47294
2118.17	1.20106
2119.62	0.66538
2121.07	1.3101
2122.52	1.4256
2123.97	0.812959
2125.42	0.748273
2126.87	0.93204
2128.32	0.832952
2129.77	0.666273
2131.22	1.01189
2132.67	1.257
2134.11	1.13782
2135.56	1.28411
2137.01	1.58051
2138.46	1.48207
2139.91	1.20381
2141.35	1.29081
2142.8	1.37906
2144.25	1.65002
2145.7	0.829024
2147.14	1.53029
2148.59	1.60204
2150.03	1.55694
2151.48	1.42793
2152.92	2.10976
2154.37	1.58118
2155.81	2.04618
2157.26	1.63319
2158.7	1.71792
2160.15	2.51639
2161.59	1.46113
2163.03	1.86592
2164.47	1.42668
2165.92	2.48189
2167.36	2.25925
2168.8	2.20139
2170.24	1.82554
2171.69	2.41206
2173.13	1.54924
2174.57	1.96585
2176.01	1.99919
2177.45	2.08259
2178.89	2.0005
2180.33	2.10234
2181.77	2.122
2183.21	2.04251
2184.65	2.19615
2186.09	2.49963
2187.53	1.90474
2188.97	2.04191
2190.4	1.71302
2191.84	1.70006
2193.28	1.90276
2194.72	1.90427
2196.16	2.0703
2197.59	1.28569
2199.03	1.49783
2200.47	1.75841
2201.9	1.91881
2203.34	1.43262
2204.77	1.36267
2206.21	1.55901
2207.64	0.993666
2209.08	1.6209
2210.51	1.83296
2211.95	1.39859
2213.38	1.01361
2214.82	1.07498
2216.25	1.2689
2217.68	1.13376
2219.12	1.24735
2220.55	1.24632
2221.98	0.882851
2223.41	1.3262
2224.85	0.89502
2226.28	1.17023
2227.71	0.654177
2229.14	1.1561
2230.57	0.835891
2232	1.31911
2233.43	1.11404
2234.86	0.697569
2236.29	0.528079
2237.72	1.02968
2239.15	1.32042
2240.58	0.927893
2242.01	0.553627
2243.44	0.963466
2244.87	0.90068
2246.29	0.641508
2247.72	0.543953
2249.15	0.411797
2250.58	0.978195
2252.01	0.565328
2253.43	0.396297
2254.86	1.02394
2256.29	0.450585
2257.71	0.96734
2259.14	0.529396
2260.56	0.710833
2261.99	0.42401
2263.41	0.706857
2264.84	0.535325
2266.26	0.444541
2267.69	0.304103
2269.11	0.553255
2270.53	0.557616
2271.96	0.496345
2273.38	0.467439
2274.8	0.796962
2276.23	0.442495
2277.65	0.739931
2279.07	0.157249
2280.49	0.0470915
2281.91	0.540257
2283.34	0.560448
2284.76	0.189024
2286.18	0.519492
2287.6	0.262683
2289.02	0.626783
2290.44	0.550362
2291.86	0.572224
2293.28	0.496097
2294.7	0.19081
2296.12	0.507178
2297.54	0.725502
2298.96	0.239606
2300.37	-0.197383
2301.79	0.0213718
2303.21	0.388247
2304.63	0.525844
2306.04	0.499277
2307.46	0.143727
2308.88	0.362685
2310.3	0.367476
2311.71	0.421227
2313.13	0.244611
2314.54	0.150537
2315.96	0.633394
2317.37	0.359599
2318.79	0.613438
2320.2	0.520968
2321.62	0.295352
2323.03	0.595957
2324.45	0.267232
2325.86	0.579932
2327.27	0.34657
2328.69	0.607129
2330.1	0.669901
2331.51	0.256013
2332.92	0.0739059
2334.34	0.0901365
2335.75	-0.15662
2337.16	0.336426
2338.57	0.499434
2339.98	-0.0125179
2341.39	0.0007267
2342.8	0.193996
2344.21	-0.0722332
2345.63	0.301304
2347.04	0.625501
2348.45	0.0817642
2349.85	0.258136
2351.26	0.253718
2352.67	-0.0456076
2354.08	0.421633
2355.49	-0.0581255
2356.9	0.260658
2358.3	0.00943565
2359.71	0.16504
2361.12	0.0444899
2362.53	-0.124467
2363.93	-0.195985
2365.34	-0.154165
2366.75	0.081666
2368.15	0.0430908
2369.56	0.473325
2370.97	0.259359
2372.37	0.240249
2373.77	0.206005
2375.18	0.349216
2376.59	-0.0228996
2377.99	0.102872
2379.39	0.355584
2380.8	-0.0358286
2382.2	-0.123075
2383.6	0.0773325
2385.01	0.0370836
2386.41	-0.0186968
2387.81	-0.0735397
2389.21	0.143859
2390.62	-0.323007
2392.02	0.389971
2393.42	0.434743
2394.82	0.368946
2396.22	0.113104
2397.62	0.223569
2399.02	0.318624
2400.42	-0.0307035
2401.82	0.287491
2403.22	-0.363123
2404.62	0.0658798
2406.02	-0.0299377
2407.42	-0.221742
2408.82	-0.414084
2410.22	0.265283
2411.62	0.342106
2413.01	0.340443
2414.41	0.387485
2415.81	-0.118162
2417.21	-0.147635
2418.6	0.0928917
2420	0.112125
2421.4	0.147108
2422.79	0.181772
2424.19	-0.0531673
2425.59	-0.288116
2426.98	0.570903
2428.38	0.210437
2429.77	-0.260401
2431.17	0.0306015
2432.56	-0.201834
2433.95	0.120914
2435.35	0.220462
2436.74	0.31866
2438.14	0.145325
2439.53	-0.0927162
2440.92	0.0814037
2442.31	0.302526
2443.71	0.142373
2445.1	0.0773497
2446.49	0.123218
2447.88	0.248158
2449.27	-0.00719643
2450.67	0.450381
2452.06	0.0534172
2453.45	0.163765
2454.84	0.306504
2456.23	0.513145
2457.62	0.118995
2459.01	0.0569115
2460.4	0.0892048
2461.79	0.120744
2463.18	0.151525
2464.57	0.18174
2465.95	0.195847
2467.34	-0.311065
2468.73	-0.328447
2470.12	0.174455
2471.5	0.487282
2472.89	0.767588
2474.28	0.196687
2475.67	-0.0122013
2477.05	0.28185
2478.44	-0.00569725
2479.82	0.287972
2481.21	0.189348
2482.6	0.278831
2483.98	0.164226
2485.37	0.158484
2486.75	0.229813
2488.13	-0.0745602
2489.52	0.384768
2490.9	0.157944
2492.29	0.165341
2493.67	0.251357
2495.05	-0.0958891
2496.44	-0.208874
2497.82	0.0353308
2499.2	0.279459
2500.58	0.182657
2501.97	-0.0383601
2503.35	-0.0282745
2504.73	0.289473
2506.11	-0.226084
2507.49	-0.155869
2508.87	0.452379
2510.25	0.092205
2511.63	0.147612
2513.01	-0.0569472
2514.39	0.0765915
2515.77	0.0423813
2517.15	-0.0828447
2518.53	-0.115692
2519.91	-0.0719333
2521.29	-0.288085
2522.67	-0.412979
2524.05	-0.0350986
2525.42	0.295839
2526.8	0.00164747
2528.18	0.149555
2529.55	0.0701857
2530.93	0.250744
2532.31	-0.00787497
2533.69	0.114694
2535.06	0.101193
2536.44	0.345944
2537.81	0.0431757
2539.19	-0.108491
2540.56	-0.427835
2541.94	-0.140188
2543.31	0.132337
2544.69	-0.0192294
2546.06	0.467429
2547.44	0.196836
2548.81	0.564188
2550.18	0.506891
2551.56	0.0090189
2552.93	0.269065
2554.3	0.0425229
2555.67	0.179345
2557.04	0.118405
2558.42	-0.0487633
2559.79	-0.00336742
2561.16	-0.10906
2562.53	0.119267
2563.9	-0.0004282
2565.27	0.198523
2566.64	0.185561
2568.01	0.0362997
2569.38	0.508433
2570.75	0.192475
2572.12	-0.168948
2573.49	0.0456977
2574.86	-0.118525
2576.23	0.065969
2577.6	-0.219595
2578.97	0.404395
2580.33	0.0728159
2581.7	-0.168146
2583.07	0.151565
2584.44	0.243605
2585.8	0.123366
2587.17	0.0790563
2588.54	0.0500927
2589.9	0.233415
2591.27	0.0983829
2592.64	0.0387187
2594	0.372206
2595.37	-0.0829105
2596.73	-0.0996404
2598.1	0.0947251
2599.46	0.046617
2600.83	0.376415
2602.19	-0.2451
2603.55	0.583755
2604.92	0.00914717
2606.28	-0.293325
2607.64	0.0676198
2609.01	0.00548697
2610.37	0.0628276
2611.73	-0.212229
2613.09	-0.172084
2614.46	0.227795
2615.82	0.311497
2617.18	-0.0394692
2618.54	-0.269383
2619.9	0.0105729
2621.26	0.0066781
2622.62	0.332014
2623.98	-0.193995
2625.34	-0.226904
2626.7	0.0382633
2628.06	-0.0250692
2629.42	-0.192802
2630.78	-0.122403
2632.14	0.0815883
2633.5	0.181234
2634.86	-0.0309782
2636.21	-0.020411
2637.57	0.00495481
2638.93	-0.117727
2640.29	0.159396
2641.64	0.140672
2643	0.506349
2644.36	-0.0140796
2645.71	0.159526
2647.07	0.155628
2648.43	0.047997
2649.78	0.0281119
2651.14	0.345766
2652.49	-0.438962
2653.85	0.201203
2655.2	0.0493312
2656.56	0.250243
2657.91	0.276331
2659.26	0.200856
2660.62	0.286699
2661.97	0.182354
2663.32	0.194431
2664.68	0.337111
2666.03	-0.0461936
2667.38	0.2702
2668.74	0.0180964
2670.09	0.101312
2671.44	-0.164056
2672.79	0.210845
2674.14	-0.0966401
2675.49	-0.185545
2676.84	0.42256
2678.19	0.0736098
2679.54	0.0736418
2680.89	0.147133
2682.24	-0.0247378
2683.59	-0.239051
2684.94	0.0260658
2686.29	0.0596356
2687.64	-0.0665545
2688.99	-0.0922313
2690.34	0.258044
2691.69	0.258198
2693.03	0.329466
2694.38	0.12424
2695.73	0.339349
2697.08	0.482397
2698.42	-0.0685172
2699.77	0.106302
2701.12	0.340652
2702.46	0.0116234
2703.81	0.480328
2705.15	-0.0358729
2706.5	0.143719
2707.85	-0.228167
2709.19	0.44449
2710.54	0.30407
2711.88	0.570061
2713.22	-0.253751
2714.57	0.055665
2715.91	0.292521
2717.26	0.00580072
2718.6	0.373367
2719.94	0.333339
2721.29	-0.0855055
2722.63	0.251969
2723.97	0.283396
2725.31	0.168873
2726.66	0.243228
2728	0.0698729
2729.34	0.129175
2730.68	0.231992
2732.02	0.582088
2733.36	0.321221
2734.7	-0.0266914
2736.04	0.0910697
2737.38	0.107148
2738.72	0.0795851
2740.06	-0.00635242
2741.4	0.590698
2742.74	0.183873
2744.08	0.314335
2745.42	0.0954728
2746.76	0.268477
2748.09	0.223438
2749.43	0.047904
2750.77	0.365811
2752.11	0.437261
2753.45	-0.23024
2754.78	0.088057
2756.12	0.174549
2757.46	0.434904
2758.79	0.174235
2760.13	0.174566
2761.46	-0.0851254
2762.8	0.335755
2764.14	0.192598
2765.47	0.338825
2766.8	0.108476
2768.14	0.181117
2769.47	0.252542
2770.81	0.163599
2772.14	-0.143106
2773.48	0.0114822
2774.81	-0.223934
2776.14	-0.127677
2777.48	0.601965
2778.81	-0.236493
2780.14	0.320672
2781.47	-0.0847793
2782.8	-0.245631
2784.14	-0.10514
2785.47	0.0208216
2786.8	-0.38316
2788.13	0.0297203
2789.46	0.0136414
2790.79	-0.0874176
2792.12	0.155452
2793.45	0.141325
2794.78	0.112962
2796.11	0.170048
2797.44	0.340874
2798.77	0.368277
2800.1	0.0955462
2801.43	0.165188
2802.76	0.0492349
2804.09	0.132679
2805.41	0.0162444
2806.74	0.340642
2808.07	-0.246266
2809.4	0.147965
2810.72	-0.040628
2812.05	0.481147
2813.38	0.0672626
2814.71	0.193835
2816.03	-0.18862
2817.36	0.0111384
2818.68	0.126375
2820.01	0.0148568
2821.33	0.427347
2822.66	0.1731
2823.98	0.329243
2825.31	0.541647
2826.63	0.3858
2827.96	0.287134
2829.28	-0.0233326
2830.6	0.147973
2831.93	0.376082
2833.25	0.42011
2834.57	0.548771
2835.9	0.167478
2837.22	0.677234
2838.54	0.521506
2839.86	0.195966
2841.18	0.52104
2842.5	0.959418
2843.83	0.903592
2845.15	1.07457
2846.47	0.666695
2847.79	1.4463
2849.11	1.51933
2850.43	1.09737
2851.75	0.971786
2853.07	1.19906
2854.39	1.22811
2855.71	1.22871
2857.03	1.24342
2858.35	2.0209
2859.66	1.5836
2860.98	1.79581
2862.3	1.64058
2863.62	2.03552
2864.94	2.23246
2866.25	2.2741
2867.57	2.37236
2868.89	2.2736
2870.2	2.33035
2871.52	2.44362
2872.84	2.83846
2874.15	2.86607
2875.47	2.65317
2876.78	2.87584
2878.1	3.0834
2879.41	2.99512
2880.73	2.64015
2882.04	2.94663
2883.36	3.0713
2884.67	3.09855
2885.99	3.04215
2887.3	2.87356
2888.61	3.42024
2889.93	2.99795
2891.24	3.20611
2892.55	3.32939
2893.86	3.36832
2895.18	2.79146
2896.49	3.15362
2897.8	3.55854
2899.11	3.55855
2900.42	3.41945
2901.73	3.58857
2903.05	4.02364
2904.36	4.12311
2905.67	4.50258
2906.98	4.1273
2908.29	4.08849
2909.6	4.44228
2910.91	4.23698
2912.21	4.53548
2913.52	4.69334
2914.83	4.96179
2916.14	5.29843
2917.45	5.21342
2918.76	5.07142
2920.07	5.11115
2921.37	5.58495
2922.68	5.52859
2923.99	5.76721
2925.29	5.76938
2926.6	6.06575
2927.91	6.09658
2929.22	6.21087
2930.52	6.36648
2931.83	5.72474
2933.13	5.92147
2934.44	6.27187
2935.74	6.41267
2937.05	6.9449
2938.35	6.58292
2939.66	5.91383
2940.96	5.83215
2942.26	5.47185
2943.57	5.50402
2944.87	5.46767
2946.18	5.4185
2947.48	5.13206
2948.78	4.77515
2950.08	5.10289
2951.39	5.16288
2952.69	5.24889
2953.99	4.80135
2955.29	4.24154
2956.59	4.60646
2957.9	4.8054
2959.2	4.01306
2960.5	4.04925
2961.8	4.3398
2963.1	4.42112
2964.4	3.75789
2965.7	4.24432
2967	4.05496
2968.3	3.72349
2969.6	3.39104
2970.9	3.80373
2972.19	3.06324
2973.49	3.20923
2974.79	3.3975
2976.09	3.00795
2977.39	2.98314
2978.68	2.70322
2979.98	2.71733
2981.28	2.6879
2982.58	2.67198
2983.87	2.58603
2985.17	2.34654
2986.47	2.51606
2987.76	2.61667
2989.06	1.80481
2990.35	2.15953
2991.65	2.00783
2992.94	1.50378
2994.24	1.72932
2995.53	2.03788
2996.83	1.67154
2998.12	1.68415
2999.42	1.57068
3000.71	1.6821
3002	1.07911
3003.3	1.5558
3004.59	1.34586
3005.88	1.07973
3007.18	1.07915
3008.47	0.755954
3009.76	0.977573
3011.05	0.960609
3012.34	0.845475
3013.64	0.716509
3014.93	0.323196
3016.22	0.599668
3017.51	0.514438
3018.8	0.638447
3020.09	0.512015
3021.38	0.552063
3022.67	0.869007
3023.96	0.393465
3025.25	0.583487
3026.54	0.412763
3027.83	0.768529
3029.12	0.253641
3030.41	0.265812
3031.69	0.0997105
3032.98	0.0726738
3034.27	0.390908
3035.56	0.280728
3036.84	0.34867
3038.13	0.0291166
3039.42	0.35524
3040.71	0.376738
3041.99	0.616852
3043.28	0.2531
3044.57	0.219526
3045.85	-0.0176482
3047.14	0.0753274
3048.42	0.170172
3049.71	0.143936
3050.99	0.310113
3052.28	0.449664
3053.56	0.329919
3054.85	0.114059
3056.13	0.538308
3057.41	0.429502
3058.7	0.53798
3059.98	0.251135
3061.26	0.155393
3062.55	0.332555
3063.83	0.00767422
3065.11	0.214424
3066.39	0.599075
3067.68	0.467981
3068.96	0.337156
3070.24	0.614019
3071.52	0.441206
3072.8	0.294416
3074.08	0.350385
3075.36	0.51406
3076.65	0.351239
3077.93	0.0259881
3079.21	0.0410924
3080.49	0.0167432
3081.77	-0.22333
3083.04	0.0802426
3084.32	-0.0497422
3085.6	0.0509396
3086.88	0.27333
3088.16	0.1964
3089.44	-0.315541
3090.72	-0.0407858
3091.99	-0.186915
3093.27	0.277428
3094.55	-0.044765
3095.83	0.107874
3097.1	-0.159785
3098.38	-0.142857
3099.66	0.456503
3100.93	0.0529537
3102.21	0.123572
3103.49	0.140152
3104.76	-0.221896
3106.04	0.120479
3107.31	-0.18604
3108.59	0.1308
3109.86	0.177886
3111.14	-0.0991507
3112.41	-0.294503
3113.69	0.038763
3114.96	-0.102274
3116.23	0.203598
3117.51	0.115408
3118.78	-0.218027
3120.05	-0.172765
3121.33	0.142705
3122.6	0.0100856
3123.87	-0.109168
3125.14	0.232092
3126.41	-0.0627451
3127.69	0.103036
3128.96	0.20145
3130.23	-0.267854
3131.5	0.290402
3132.77	-0.178875
3134.04	0.0541134
3135.31	0.299795
3136.58	-0.103034
3137.85	-0.101458
3139.12	0.155606
3140.39	-0.00528288
3141.66	0.331599
3142.93	-0.0709562
3144.2	-0.33828
3145.47	0.146465
3146.74	-0.0929041
3148	0.0436273
3149.27	0.274129
