200.388	0.58805
202.204	0.637023
204.019	0.687291
205.832	0.690183
207.646	0.304391
209.459	0.574164
211.274	0.987661
213.087	0.0391705
214.899	0.73952
216.711	0.177406
218.524	0.391071
220.335	0.411463
222.146	0.408828
223.956	0.238124
225.766	0.648266
227.576	0.260848
229.388	0.838966
231.197	-0.539476
233.005	0.760482
234.813	0.66098
236.621	-0.184083
238.429	-0.857334
240.236	0.473297
242.045	-0.12128
243.852	-0.497501
245.658	0.54965
247.464	0.557123
249.269	0.63296
251.074	0.800583
252.879	-0.0740187
254.683	0.0866833
256.487	-0.284081
258.291	0.141679
260.094	0.0633252
261.897	0.276624
263.702	0.853566
265.504	-0.182335
267.306	-0.398892
269.108	0.0829191
270.909	0.129618
272.71	0.102189
274.511	0.0967028
276.311	0.016427
278.111	-0.476212
279.91	-0.200609
281.709	0.408639
283.508	0.0761941
285.306	0.246682
287.105	0.535533
288.9	0.104238
290.698	0.608905
292.495	0.0133461
294.291	0.0186765
296.088	-0.0697298
297.884	0.703702
299.679	0.139253
301.475	0.840682
303.27	0.37037
305.064	-0.0775682
306.858	0.308274
308.652	-0.308044
310.444	0.434882
312.237	0.226
314.03	0.162239
315.822	0.386638
317.615	0.82779
319.406	-0.0390169
321.198	-0.0708593
322.987	0.494306
324.778	0.297087
326.568	0.290643
328.358	0.140365
330.148	-0.226306
331.935	0.935572
333.724	0.349294
335.513	-0.455756
337.301	0.171647
339.089	0.436975
340.875	0.388857
342.662	-0.0430019
344.449	0.719939
346.236	0.121359
348.02	0.359683
349.806	0.908841
351.592	0.693934
353.375	-0.380818
355.16	0.905133
356.944	-0.339346
358.728	0.0359789
360.51	0.623443
362.294	-0.219168
364.077	0.127255
365.858	0.495736
367.64	0.743678
369.422	0.610401
371.202	0.570794
372.983	-0.297939
374.764	-0.0309661
376.543	0.117291
378.324	-0.347313
380.102	0.0381532
381.881	-0.258242
383.661	0.52938
385.438	0.165774
387.216	0.203556
388.993	0.219216
390.771	0.56493
392.548	0.606281
394.324	0.0847493
396.101	0.362114
397.875	0.169793
399.651	0.658276
401.425	0.34748
403.201	0.176663
404.974	0.615363
406.749	0.747559
408.524	0.550051
410.296	0.140767
412.07	0.482566
413.841	0.543101
415.614	0.604497
417.385	0.502634
419.156	0.213808
420.928	-0.426866
422.698	0.551553
424.469	0.331913
426.238	0.463042
428.009	0.146909
429.777	0.205602
431.548	0.123308
433.315	0.0413093
435.083	0.522934
436.852	0.981011
438.618	0.170722
440.387	0.57881
442.153	0.18633
443.919	0.822735
445.686	0.659115
447.451	0.11946
449.218	0.889515
450.982	0.817122
452.746	0.371709
454.512	0.487077
456.275	0.415716
458.038	0.344187
459.803	0.389109
461.565	0.458013
463.327	0.226659
465.091	0.207702
466.852	-0.411671
468.613	0.296998
470.374	0.194853
472.136	0.256332
473.896	1.27144
475.655	1.00393
477.415	0.826297
479.176	0.925465
480.934	0.696982
482.692	0.119261
484.45	0.474615
486.21	0.76273
487.967	1.42689
489.724	1.27846
491.481	0.617727
493.237	1.2184
494.995	-0.12057
496.75	0.199717
498.506	0.192153
500.26	0.371512
502.015	1.74723
503.771	0.446199
505.525	1.04548
507.279	0.82044
509.032	0.828263
510.785	1.06911
512.537	1.00183
514.289	0.932382
516.041	1.355
517.793	1.25821
519.546	0.572306
521.297	1.13121
523.047	1.61836
524.797	1.0484
526.547	0.901224
528.297	1.59828
530.046	0.443076
531.795	0.600162
533.543	0.404838
535.291	0.980053
537.039	1.08495
538.787	0.53391
540.534	0.0756374
542.281	0.898418
544.027	1.09046
545.773	0.189795
547.519	0.800073
549.264	0.968757
551.01	0.627887
552.754	0.241721
554.499	0.734664
556.243	0.303575
557.987	0.611771
559.73	0.666586
561.474	1.0213
563.216	-0.21091
564.959	0.766062
566.701	0.180547
568.441	-0.0588561
570.182	-0.204912
571.923	1.00442
573.664	0.403373
575.405	0.148835
577.145	0.263573
578.885	0.35721
580.624	-0.443731
582.361	0.0874435
584.1	0.963295
585.839	-0.576354
587.577	0.572905
589.315	1.0537
591.052	0.0146973
592.787	-0.265833
594.524	-0.0634569
596.26	0.000894789
597.997	0.410291
599.732	0.290056
601.466	-0.0382897
603.201	0.666731
604.936	0.0588969
606.67	0.736591
608.403	-0.424783
610.136	-0.0702961
611.87	-0.0138493
613.603	0.112335
615.334	0.308077
617.067	-0.481243
618.799	0.676065
620.529	0.159876
622.26	0.374623
623.991	0.427844
625.72	-0.432842
627.451	0.398287
629.181	-0.434777
630.909	0.0818508
632.638	0.0306709
634.368	0.57436
636.095	0.364594
637.823	0.63193
639.551	0.963995
641.277	0.675797
643.005	0.726393
644.73	0.888923
646.457	0.755715
648.184	0.51156
649.908	0.294609
651.634	-0.00805234
653.357	0.42168
655.083	-0.212681
656.806	0.999203
658.53	0.756228
660.253	0.466614
661.977	0.516958
663.7	-0.258401
665.422	0.814124
667.145	0.695549
668.865	0.621537
670.588	0.0450202
672.308	0.386072
674.027	-0.414254
675.749	-0.296237
677.468	0.121928
679.188	-0.492283
680.907	0.178479
682.627	0.226908
684.345	0.180511
686.064	0.983414
687.781	0.70203
689.498	-0.0646748
691.216	-0.302639
692.932	0.702473
694.65	0.508762
696.366	0.728305
698.081	0.969136
699.797	0.747811
701.512	0.57112
703.228	0.807021
704.942	0.720092
706.655	1.34403
708.371	1.09495
710.083	1.14364
711.796	0.894105
713.51	0.736043
715.222	0.509445
716.934	1.33346
718.645	0.992719
720.358	0.607209
722.068	1.13351
723.779	1.40872
725.49	1.06947
727.2	1.321
728.909	0.754565
730.618	1.73021
732.329	0.325283
734.037	0.800846
735.745	0.891261
737.453	1.52392
739.16	1.79536
740.869	1.3689
742.576	1.39531
744.282	1.40108
745.988	1.36382
747.694	0.946091
749.401	0.980233
751.107	1.28605
752.811	1.21129
754.516	1.1834
756.22	0.572408
757.924	1.40396
759.627	0.886691
761.332	1.8132
763.035	1.13995
764.738	1.09763
766.44	0.963424
768.142	0.962325
769.843	1.25232
771.544	1.9467
773.245	2.00592
774.946	1.54436
776.646	1.37748
778.346	2.11679
780.046	2.20262
781.745	1.49834
783.444	1.8802
785.143	1.89865
786.841	1.00845
788.539	1.90226
790.237	1.59197
791.934	1.77557
793.631	1.30172
795.328	1.61786
797.024	1.88953
798.72	1.28469
800.416	1.53842
802.112	1.83887
803.807	1.46541
805.502	1.13706
807.196	1.77417
808.89	0.881969
810.584	1.56027
812.278	2.21389
813.971	1.99183
815.664	2.419
817.354	2.39806
819.047	1.8632
820.739	1.75376
822.43	1.8012
824.122	1.82737
825.813	2.07826
827.503	1.68589
829.192	1.4534
830.882	1.75954
832.571	1.51278
834.261	2.0935
835.95	1.51659
837.637	2.25555
839.325	2.07828
841.013	1.31793
842.701	1.76179
844.389	2.18276
846.074	1.55429
847.761	2.15757
849.447	2.13845
851.131	2.14524
852.817	1.37038
854.503	1.26842
856.188	0.806723
857.871	1.24204
859.556	1.20343
861.24	1.41004
862.922	1.65972
864.606	0.645808
866.289	1.34328
867.97	1.13832
869.653	0.932664
871.336	1.56114
873.016	1.60298
874.698	1.48679
876.379	1.19006
878.058	1.41241
879.739	0.664077
881.418	0.614969
883.098	0.564963
884.778	1.25852
886.456	1.6115
888.135	1.46576
889.812	1.47583
891.49	0.988008
893.167	0.791858
894.845	0.909464
896.523	0.868077
898.198	0.443701
899.875	0.490074
901.55	1.31952
903.226	1.92237
904.901	1.00371
906.576	1.06978
908.25	1.09197
909.925	1.53842
911.598	0.628151
913.271	0.431874
914.945	1.01362
916.617	0.928896
918.291	1.46481
919.962	0.981359
921.635	0.300414
923.306	0.859958
924.978	0.537238
926.648	0.747247
928.318	1.13595
929.989	1.54824
931.659	0.924429
933.328	0.874792
934.998	0.759254
936.666	1.30597
938.336	0.574651
940.004	1.23445
941.671	1.01371
943.34	0.705668
945.007	1.34643
946.673	0.838091
948.339	0.702549
950.007	0.807267
951.672	0.932318
953.337	0.572095
955.004	1.29452
956.669	0.63137
958.333	0.678167
959.997	0.77295
961.662	0.759619
963.326	0.282055
964.989	0.421064
966.651	0.556765
968.315	0.64457
969.977	0.48617
971.639	1.16712
973.301	1.11858
974.962	0.497064
976.624	0.607761
978.285	0.853293
979.945	1.0225
981.605	1.19136
983.264	0.860402
984.924	1.12452
986.583	0.588959
988.243	0.449532
989.901	0.994064
991.56	0.166873
993.217	0.864447
994.875	0.83288
996.532	1.06628
998.188	1.25531
999.845	0.628505
1001.5	2.20419
1003.16	1.31237
1004.81	1.47694
1006.47	1.22358
1008.12	1.30015
1009.78	0.301792
1011.43	0.555404
1013.09	0.875084
1014.74	0.625455
1016.39	1.69018
1018.05	1.92307
1019.7	1.08524
1021.35	1.18966
1023	1.1426
1024.65	-0.0176401
1026.31	0.702536
1027.96	1.11675
1029.61	1.55188
1031.26	2.07248
1032.91	1.73899
1034.56	2.66889
1036.21	3.02859
1037.86	3.21215
1039.51	3.46053
1041.16	4.57962
1042.8	4.74291
1044.45	5.30011
1046.1	4.64398
1047.75	4.14345
1049.39	3.25485
1051.04	2.17271
1052.69	2.22116
1054.33	0.944734
1055.98	1.01531
1057.62	1.12904
1059.27	0.829051
1060.91	0.680348
1062.56	1.22642
1064.2	1.22762
1065.85	0.553455
1067.49	0.530137
1069.13	1.13558
1070.77	0.784099
1072.42	0.519551
1074.06	0.841709
1075.7	0.90475
1077.34	1.01298
1078.98	1.10127
1080.62	0.713614
1082.27	0.564566
1083.91	0.392742
1085.55	0.739127
1087.18	0.930867
1088.82	0.686471
1090.46	0.786211
1092.1	0.624741
1093.74	0.246882
1095.38	0.581981
1097.02	0.70199
1098.65	1.12523
1100.29	0.68925
1101.93	1.22467
1103.56	0.966307
1105.2	1.18315
1106.84	1.55137
1108.47	1.31701
1110.11	1.18876
1111.74	0.241693
1113.38	0.882957
1115.01	0.620093
1116.64	0.485455
1118.28	1.14434
1119.91	0.860619
1121.54	0.343082
1123.18	0.555209
1124.81	0.811322
1126.44	0.704876
1128.07	1.24111
1129.7	1.20089
1131.33	1.43944
1132.97	1.59291
1134.6	0.378167
1136.23	0.29566
1137.86	0.703279
1139.49	0.446887
1141.11	0.787138
1142.74	-0.0259602
1144.37	0.121683
1146	0.653824
1147.63	0.227852
1149.26	0.762069
1150.88	0.466025
1152.51	0.553492
1154.14	0.257267
1155.76	0.258654
1157.39	-0.165648
1159.01	-0.0362273
1160.64	0.455729
1162.27	0.0347483
1163.89	0.380592
1165.51	-0.0170083
1167.14	-0.0534266
1168.76	-0.00610944
1170.39	0.251585
1172.01	-0.152034
1173.63	-0.111644
1175.25	0.0119337
1176.88	0.155816
1178.5	-0.0603917
1180.12	-0.211879
1181.74	0.0822307
1183.36	0.355761
1184.98	-0.237223
1186.6	0.309667
1188.22	-0.306796
1189.84	0.255742
1191.46	0.182949
1193.08	1.05448
1194.7	0.641714
1196.32	0.293003
1197.94	0.616481
1199.55	0.711422
1201.17	0.182529
1202.79	0.660248
1204.41	0.807033
1206.02	0.560266
1207.64	0.461475
1209.25	0.780355
1210.87	0.681009
1212.48	0.871374
1214.1	0.308422
1215.71	0.846828
1217.33	0.820181
1218.94	0.480431
1220.56	1.17917
1222.17	1.27598
1223.79	0.918494
1225.4	0.874223
1227.01	1.16319
1228.62	1.61926
1230.23	1.105
1231.85	1.75027
1233.46	1.38429
1235.07	1.33012
1236.68	2.00106
1238.29	1.74339
1239.9	1.50727
1241.51	2.76056
1243.12	2.15205
1244.73	2.65956
1246.34	1.92412
1247.94	2.0149
1249.55	1.98043
1251.16	1.88344
1252.77	1.95222
1254.37	1.67038
1255.98	2.27947
1257.59	1.91815
1259.2	2.03428
1260.8	2.02756
1262.41	2.04225
1264.01	2.47133
1265.62	2.85873
1267.22	2.39543
1268.83	2.44887
1270.43	2.12761
1272.03	2.26097
1273.64	1.85382
1275.24	1.9636
1276.85	1.67829
1278.45	1.99276
1280.05	2.61671
1281.65	2.14272
1283.25	2.57954
1284.85	2.72726
1286.46	2.62809
1288.06	1.99312
1289.66	3.1369
1291.26	3.28939
1292.86	3.19382
1294.46	2.64272
1296.06	2.87485
1297.66	2.83609
1299.25	2.67115
1300.85	2.73099
1302.45	2.93312
1304.05	2.49548
1305.65	2.40716
1307.24	3.48894
1308.84	2.94722
1310.43	2.69357
1312.03	2.85043
1313.63	2.63992
1315.22	2.24733
1316.82	2.36721
1318.41	3.22223
1320.01	2.32256
1321.6	2.99159
1323.2	2.82285
1324.79	3.3024
1326.38	3.04783
1327.98	3.19854
1329.57	3.16735
1331.16	2.87563
1332.76	2.64834
1334.35	2.46507
1335.94	3.35391
1337.53	3.55695
1339.12	3.75885
1340.71	2.52792
1342.3	2.74492
1343.89	3.07919
1345.48	2.74848
1347.07	2.65922
1348.66	2.63265
1350.25	2.2494
1351.84	2.29035
1353.43	1.89435
1355.01	2.4199
1356.6	1.8867
1358.19	2.53184
1359.77	2.27662
1361.36	1.28162
1362.95	2.24142
1364.53	1.70438
1366.12	2.0848
1367.71	1.39052
1369.29	2.03218
1370.88	1.46141
1372.46	1.80806
1374.04	1.67865
1375.63	1.51038
1377.21	1.76014
1378.8	1.92968
1380.38	1.64019
1381.96	1.32916
1383.54	1.41428
1385.13	1.51786
1386.71	1.52136
1388.29	1.10801
1389.87	1.56925
1391.45	0.979671
1393.03	1.04613
1394.61	1.15275
1396.19	1.45741
1397.77	0.750012
1399.35	1.48835
1400.93	1.09584
1402.51	1.1978
1404.09	1.18088
1405.67	1.38214
1407.24	1.78198
1408.82	1.72825
1410.4	1.59627
1411.98	1.54332
1413.55	1.58835
1415.13	1.61239
1416.71	0.787274
1418.28	1.48016
1419.86	1.44381
1421.43	1.78297
1423.01	1.31691
1424.58	1.20748
1426.16	1.82795
1427.73	1.74063
1429.31	1.96792
1430.88	1.72162
1432.45	2.45777
1434.02	2.22822
1435.6	2.47016
1437.17	2.27965
1438.74	2.14918
1440.31	2.25596
1441.88	3.05187
1443.45	2.63028
1445.03	3.44743
1446.6	3.14458
1448.17	3.29399
1449.74	3.40451
1451.3	3.24042
1452.87	3.76538
1454.44	3.38628
1456.01	2.67247
1457.58	3.09891
1459.15	3.81889
1460.72	3.53267
1462.28	3.08642
1463.85	2.9724
1465.42	2.26726
1466.98	2.7999
1468.55	2.42927
1470.12	1.88359
1471.68	1.73218
1473.25	2.48444
1474.81	1.90405
1476.38	1.59889
1477.94	1.80369
1479.51	2.32196
1481.07	2.46758
1482.63	2.43665
1484.2	2.30757
1485.76	1.68831
1487.32	1.77339
1488.88	2.24824
1490.45	1.87876
1492.01	1.91742
1493.57	1.62099
1495.13	1.96661
1496.69	2.1345
1498.25	2.08751
1499.81	1.74982
1501.37	2.055
1502.93	1.62418
1504.49	1.29229
1506.05	1.48406
1507.61	1.67469
1509.17	1.14877
1510.73	1.60664
1512.28	1.09863
1513.84	1.419
1515.4	0.546967
1516.96	0.407379
1518.51	0.479997
1520.07	0.840543
1521.63	0.645673
1523.18	0.89048
1524.74	0.236438
1526.29	0.707794
1527.85	0.35795
1529.4	0.52179
1530.96	0.74206
1532.51	0.0521561
1534.06	0.747529
1535.62	0.64804
1537.17	0.644418
1538.72	1.01917
1540.28	0.733677
1541.83	0.693773
1543.38	0.973773
1544.93	0.914541
1546.48	0.479496
1548.03	0.589267
1549.59	1.12987
1551.14	1.07038
1552.69	0.674893
1554.24	1.96339
1555.79	1.12248
1557.34	0.191502
1558.88	1.27882
1560.43	1.6217
1561.98	1.53751
1563.53	0.876432
1565.08	0.570427
1566.62	1.27218
1568.17	1.1153
1569.72	1.21923
1571.27	1.54667
1572.81	1.3884
1574.36	0.651227
1575.9	1.46346
1577.45	1.69724
1579	1.27812
1580.54	1.83059
1582.09	2.10408
1583.63	2.0612
1585.17	1.47729
1586.72	1.62268
1588.26	1.74966
1589.8	2.34427
1591.35	1.98413
1592.89	1.69798
1594.43	2.23538
1595.97	1.94874
1597.52	1.90605
1599.06	1.95789
1600.6	2.14197
1602.14	2.23298
1603.68	2.34284
1605.22	2.30166
1606.76	1.6761
1608.3	1.89363
1609.84	2.12706
1611.38	1.96284
1612.92	2.13423
1614.46	2.17231
1615.99	2.24724
1617.53	2.21014
1619.07	2.24948
1620.61	1.61648
1622.14	1.58473
1623.68	1.83485
1625.22	2.29087
1626.75	2.16561
1628.29	2.15101
1629.82	2.19072
1631.36	1.96734
1632.9	2.49077
1634.43	1.98722
1635.96	2.25017
1637.5	2.12241
1639.03	2.36843
1640.57	2.76344
1642.1	2.5612
1643.63	3.02805
1645.16	2.78558
1646.7	3.47196
1648.23	2.9862
1649.76	3.31862
1651.29	4.02304
1652.82	2.74381
1654.36	3.43253
1655.89	3.19494
1657.42	3.86534
1658.95	3.92297
1660.48	3.25675
1662.01	3.32929
1663.53	3.21525
1665.06	3.1375
1666.59	3.39249
1668.12	2.4682
1669.65	2.72664
1671.18	3.15263
1672.7	2.38252
1674.23	2.66314
1675.76	2.20692
1677.29	2.02603
1678.81	2.17505
1680.34	1.60549
1681.86	1.75224
1683.39	1.91671
1684.91	2.02595
1686.44	2.04378
1687.96	1.78721
1689.49	1.29325
1691.01	1.60572
1692.54	1.14935
1694.06	0.949416
1695.58	1.22481
1697.11	1.44476
1698.63	0.897057
1700.15	0.604983
1701.67	1.40694
1703.2	0.894883
1704.72	0.419332
1706.24	0.962939
1707.76	0.94169
1709.28	0.593397
1710.8	1.22578
1712.32	0.479176
1713.84	0.404358
1715.36	0.329721
1716.88	0.653064
1718.4	0.487722
1719.91	0.232264
1721.43	-0.00456449
1722.95	0.606944
1724.47	0.480004
1725.99	0.156603
1727.5	-0.363029
1729.02	0.720323
1730.54	0.703182
1732.05	0.6828
1733.57	-0.00325344
1735.09	0.595283
1736.6	0.191119
1738.12	0.312644
1739.63	0.365377
1741.15	0.239119
1742.66	0.227555
1744.18	-0.0355519
1745.69	0.0782452
1747.2	-0.0424423
1748.72	-0.0575715
1750.23	0.187275
1751.74	0.193467
1753.25	0.370207
1754.77	0.209614
1756.28	0.0290971
1757.79	-0.064015
1759.3	0.183524
1760.81	-0.0609825
1762.32	0.0215789
1763.83	0.269398
1765.34	-0.00424484
1766.85	-0.124564
1768.36	-0.0157425
1769.87	-0.0047134
1771.38	0.118625
1772.89	0.197769
1774.4	-0.181733
1775.91	-0.148989
1777.41	0.0930758
1778.92	0.210684
1780.43	-0.338149
1781.94	0.0809333
1783.44	-0.13864
1784.95	0.0646853
1786.45	0.101993
1787.96	0.126585
1789.47	0.435597
1790.97	0.0378531
1792.48	-0.127343
1793.98	-0.0397439
1795.48	-0.00222741
1796.99	-0.0240276
1798.49	0.161557
1800	0.193972
1801.5	0.0313852
1803	0.180536
1804.51	-0.112348
1806.01	0.148946
1807.51	-0.0949296
1809.01	0.198394
1810.51	0.186637
1812.02	0.149685
1813.52	0.352111
1815.02	-0.281366
1816.52	0.0964766
1818.02	-0.239167
1819.52	0.318864
1821.02	-0.484161
1822.52	0.194797
1824.02	-0.198175
1825.51	-0.198879
1827.01	-0.373036
1828.51	-0.464363
1830.01	0.0455783
1831.51	0.0852929
1833	0.169918
1834.5	0.0220315
1836	0.0445504
1837.5	0.203928
1838.99	-0.196389
1840.49	0.206119
1841.98	0.328002
1843.48	-0.0644413
1844.97	0.163865
1846.47	-0.256421
1847.96	-0.00990227
1849.46	-0.0742631
1850.95	0.134254
1852.45	0.0753269
1853.94	0.240104
1855.43	0.245172
1856.92	-0.0526301
1858.42	0.0444032
1859.91	0.345978
1861.4	0.121028
1862.89	0.153059
1864.39	-0.391463
1865.88	0.201194
1867.37	-0.206081
1868.86	0.109008
1870.35	-0.0498169
1871.84	0.0678824
1873.33	0.337092
1874.82	0.0384974
1876.31	0.0633747
1877.8	0.27919
1879.29	-0.182213
1880.77	-0.0259205
1882.26	-0.309308
1882.51	-0.376318
1884	0.496304
1885.5	0.199879
1886.99	0.0246794
1888.48	0.232068
1889.98	0.0740516
1891.47	0.334598
1892.97	0.162047
1894.46	0.391373
1895.95	0.205106
1897.44	0.158809
1898.93	0.268932
1900.42	0.134423
1901.92	-0.262773
1903.41	0.625252
1904.9	0.363704
1906.39	-0.00273922
1907.88	0.429948
1909.37	0.394215
1910.86	-0.369226
1912.35	-0.194567
1913.84	0.0152829
1915.32	0.13844
1916.81	0.313196
1918.3	0.0712981
1919.79	0.262212
1921.28	-0.0147821
1922.76	-0.0487694
1924.25	0.1086
1925.74	0.163258
1927.22	0.184428
1928.71	0.171662
1930.2	0.158853
1931.68	-0.235801
1933.17	0.164582
1934.65	-0.025646
1936.14	0.0247192
1937.62	0.0737473
1939.11	0.208591
1940.59	-0.0881309
1942.08	-0.504428
1943.56	0.288232
1945.04	-0.0224217
1946.53	0.270881
1948.01	0.219076
1949.49	0.114825
1950.97	0.353955
1952.45	0.161612
1953.94	0.158036
1955.42	0.326193
1956.9	0.151084
1958.38	0.0970434
1959.86	-0.213484
1961.34	-0.0773508
1962.82	0.247412
1964.3	0.331843
1965.78	0.210145
1967.26	-0.168903
1968.74	0.221512
1970.22	0.183445
1971.69	0.708788
1973.17	-0.0468127
1974.65	0.273286
1976.13	-0.00342778
1977.61	0.0610584
1979.08	-0.0106162
1980.56	0.00281695
1982.03	-0.187937
1983.51	0.385636
1984.99	0.143265
1986.46	0.0536323
1987.94	0.0827382
1989.41	-0.0402947
1990.89	0.040609
1992.36	0.29152
1993.84	0.357284
1995.31	0.204188
1996.78	0.423324
1998.26	-0.0670346
1999.73	0.13466
2001.2	0.183669
2002.68	0.198357
2004.15	0.465739
2005.62	0.295113
2007.09	0.293848
2008.56	0.411463
2010.04	0.260587
2011.51	0.497489
2012.98	0.296769
2014.45	0.348078
2015.92	-0.20714
2017.39	-0.140683
2018.86	0.395563
2020.33	0.275404
2021.8	0.0544407
2023.27	0.236875
2024.74	-0.150494
2026.2	0.168099
2027.67	0.27004
2029.14	0.42388
2030.61	0.545648
2032.07	-0.153751
2033.54	0.456296
2035.01	0.210292
2036.47	0.988441
2037.94	0.321353
2039.41	0.393003
2040.87	0.279703
2042.34	0.536654
2043.8	0.256323
2045.27	0.397405
2046.73	0.337404
2048.2	0.361888
2049.66	-0.0690064
2051.12	0.645194
2052.59	0.396857
2054.05	0.0284421
2055.51	0.265299
2056.98	0.938866
2058.44	0.229277
2059.9	-0.193581
2061.36	0.19249
2062.82	0.579155
2064.29	-0.160856
2065.75	0.83368
2067.21	0.667912
2068.67	0.300793
2070.13	0.220087
2071.59	-0.0289362
2073.05	0.715238
2074.51	0.36473
2075.97	0.451648
2077.43	1.17811
2078.88	0.944221
2080.34	0.962413
2081.8	0.104485
2083.26	0.37395
2084.72	0.928554
2086.17	0.321274
2087.63	1.07576
2089.09	1.07279
2090.54	0.616065
2092	0.915201
2093.46	0.861544
2094.91	1.10952
2096.37	0.937642
2097.82	0.83222
2099.28	1.12791
2100.73	1.23883
2102.19	0.848506
2103.64	1.0608
2105.09	1.07401
2106.55	1.30565
2108	1.3549
2109.46	1.4879
2110.91	1.20345
2112.36	1.01769
2113.81	1.59623
2115.27	1.07385
2116.72	1.61528
2118.17	1.50833
2119.62	1.1541
2121.07	1.74809
2122.52	1.28247
2123.97	1.26645
2125.42	1.64913
2126.87	1.91539
2128.32	2.11407
2129.77	1.68127
2131.22	2.02573
2132.67	2.00468
2134.12	2.2152
2135.57	2.06268
2137.01	2.0608
2138.46	1.64799
2139.91	2.44389
2141.36	2.10142
2142.8	2.75237
2144.25	2.44514
2145.7	2.78329
2147.14	2.64119
2148.59	2.69694
2150.03	2.88415
2151.48	3.51752
2152.92	3.25493
2154.37	2.89183
2155.81	2.59447
2157.26	3.15862
2158.7	3.16041
2160.15	2.79944
2161.59	3.53422
2163.03	3.54253
2164.48	3.53629
2165.92	3.29875
2167.36	2.91122
2168.8	3.22008
2170.25	3.52699
2171.69	3.48195
2173.13	3.88348
2174.57	3.48467
2176.01	3.28476
2177.45	3.00203
2178.89	3.31885
2180.33	3.73665
2181.77	3.74
2183.21	3.39493
2184.65	3.8152
2186.09	3.05458
2187.53	3.35861
2188.97	3.41316
2190.41	3.30125
2191.84	2.95588
2193.28	3.34208
2194.72	2.92741
2196.16	3.02655
2197.59	3.12308
2199.03	2.46905
2200.47	2.6952
2201.9	2.58876
2203.34	2.49986
2204.78	2.81035
2206.21	1.94513
2207.65	2.15811
2209.08	2.20512
2210.51	2.11874
2211.95	2.16358
2213.38	2.04216
2214.82	1.80511
2216.25	2.14681
2217.68	2.29148
2219.12	1.87683
2220.55	1.57891
2221.98	1.95704
2223.42	1.70805
2224.85	1.81993
2226.28	1.4031
2227.71	1.36316
2229.14	1.60103
2230.57	1.13206
2232	1.2374
2233.43	1.31008
2234.86	1.69412
2236.29	1.14758
2237.72	1.04447
2239.15	0.99252
2240.58	1.12224
2242.01	0.911416
2243.44	0.685658
2244.87	0.672326
2246.3	1.06608
2247.73	0.724163
2249.15	0.901791
2250.58	0.767274
2252.01	0.989143
2253.43	0.835652
2254.86	1.17016
2256.29	0.580326
2257.71	0.56165
2259.14	0.64333
2260.56	0.354937
2261.99	0.929215
2263.41	0.255234
2264.84	0.360842
2266.26	0.56378
2267.69	1.14025
2269.11	0.544428
2270.54	0.647365
2271.96	0.456711
2273.38	0.900946
2274.81	0.547257
2276.23	0.519493
2277.65	0.182249
2279.07	0.725221
2280.49	0.534614
2281.92	0.457952
2283.34	0.707454
2284.76	0.598111
2286.18	0.684813
2287.6	0.314775
2289.02	0.761627
2290.44	0.702712
2291.86	0.464235
2293.28	0.274748
2294.7	0.150515
2296.12	-0.0393847
2297.54	0.245383
2298.96	0.170031
2300.38	0.0947983
2301.79	0.167362
2303.21	0.469971
2304.63	0.116477
2306.05	0.140274
2307.46	-0.0169969
2308.88	-0.0763183
2310.3	0.0939384
2311.71	0.34614
2313.13	0.631365
2314.55	0.32465
2315.96	0.298388
2317.38	0.0257814
2318.79	0.115995
2320.21	0.173092
2321.62	-0.0183736
2323.03	-0.327362
2324.45	0.599088
2325.86	0.747391
2327.27	0.135204
2328.69	0.824838
2330.1	0.509134
2331.51	0.293462
2332.93	-0.381711
2334.34	-0.00259725
2335.75	0.475303
2337.16	-0.100049
2338.57	0.277528
2339.99	0.439974
2341.4	-0.0227928
2342.81	0.433516
2344.22	0.00358412
2345.63	0.115334
2347.04	0.391029
2348.45	0.453624
2349.86	-0.678422
2351.26	0.021177
2352.67	0.392024
2354.08	-0.152539
2355.49	0.525788
2356.9	0.160258
2358.31	-0.188268
2359.71	0.0489783
2361.12	0.0261408
2362.53	-0.353344
2363.94	0.239612
2365.34	0.23264
2366.75	-0.258961
2368.15	0.00986026
2369.56	0.0372442
2370.97	-0.0146756
2372.37	0.0153672
2373.78	-0.146833
2375.18	0.142199
2376.59	0.301892
2377.99	-0.0863988
2379.39	-0.106158
2380.8	-0.0151667
2382.2	-0.0380452
2383.61	0.242512
2385.01	-0.117697
2386.41	0.154433
2387.81	0.42686
2389.22	0.548524
2390.62	-0.157107
2392.02	0.222072
2393.42	0.204038
2394.82	0.0596506
2396.22	-0.242872
2397.63	0.18652
2399.02	0.314374
2400.43	0.17263
2401.82	0.396584
2403.23	0.191726
2404.62	0.335884
2406.02	-0.0923646
2407.42	-0.426042
2408.82	-0.078226
2410.22	-0.333442
2411.62	-0.413918
2413.02	0.203266
2414.41	0.0455493
2415.81	0.34847
2417.21	0.0669978
2418.61	-0.0394158
2420	-0.11383
2421.4	0.239314
2422.79	0.0852443
2424.19	0.279432
2425.59	-0.0809006
2426.98	-0.0287602
2428.38	0.595003
2429.77	0.23689
2431.17	0.434542
2432.56	0.251563
2433.96	0.0996455
2435.35	0.327758
2436.74	0.0618967
2438.14	0.191656
2439.53	0.224748
2440.92	-0.0130853
2442.32	-0.0290725
2443.71	0.224416
2445.1	-0.0934927
2446.49	0.000926969
2447.88	0.079282
2449.28	-0.143416
2450.67	-0.112361
2452.06	-0.00167277
2453.45	-0.25421
2454.84	0.301041
2456.23	0.0659244
2457.62	0.226619
2459.01	0.181522
2460.4	0.135852
2461.79	-0.305885
2463.18	0.105351
2464.57	0.168111
2465.96	-0.574906
2467.34	-0.00718139
2468.73	0.260194
2470.12	0.211701
2471.51	0.383468
2472.89	0.50707
2474.28	0.456532
2475.67	0.0750459
2477.05	-0.0861782
2478.44	0.428099
2479.83	0.329726
2481.21	0.419843
2482.6	0.21207
2483.98	0.223319
2485.37	-0.188625
2486.75	-0.163408
2488.14	0.125942
2489.52	-0.349819
2490.9	0.358363
2492.29	0.101503
2493.67	0.017126
2495.06	0.322081
2496.44	0.240307
2497.82	-0.0882752
2499.2	0.156575
2500.59	0.168741
2501.97	-0.00536573
2503.35	0.0360231
2504.73	-0.0315502
2506.11	0.285592
2507.49	0.0169237
2508.88	-0.358641
2510.26	0.127025
2511.63	-0.0473636
2513.01	0.30052
2514.39	0.158578
2515.77	0.247327
2517.15	0.352059
2518.53	0.16676
2519.91	0.272171
2521.29	0.255025
2522.67	0.0693292
2524.05	0.111819
2525.42	0.138276
2526.8	0.286232
2528.18	0.221341
2529.56	0.0207981
2530.93	-0.253938
2532.31	-0.162165
2533.69	-0.114664
2535.06	0.343747
2536.44	0.179219
2537.81	-0.0771015
2539.19	0.227651
2540.56	0.212552
2541.94	0.43992
2543.31	-0.197418
2544.69	0.713656
2546.06	0.275836
2547.44	-0.0241964
2548.81	0.0710025
2550.18	0.0904568
2551.56	-0.0878505
2552.93	0.142673
2554.3	0.0838105
2555.68	0.342658
2557.05	0.100267
2558.42	0.0549932
2559.79	0.10096
2561.16	0.511191
2562.53	-0.0176158
2563.9	0.121016
2565.28	-0.179383
2566.64	0.232704
2568.02	-0.20377
2569.38	0.162983
2570.76	0.317578
2572.12	0.229704
2573.49	0.308651
2574.86	0.402855
2576.23	0.315183
2577.6	0.272898
2578.97	0.291035
2580.34	-0.115763
2581.7	0.250344
2583.07	-0.00560217
2584.44	-0.00402262
2585.81	0.179394
2587.17	0.0142856
2588.54	-0.014208
2589.91	-0.300217
2591.27	0.292596
2592.64	0.0514752
2594	-0.0237333
2595.37	0.0666572
2596.73	-0.464653
2598.1	0.16867
2599.46	0.15076
2600.83	0.0725233
2602.19	-0.125948
2603.55	0.0990989
2604.92	0.0830889
2606.28	0.0672924
2607.64	0.594018
2609.01	0.26032
2610.37	0.33243
2611.73	0.0569126
2613.09	0.216743
2614.46	-0.105221
2615.82	0.428527
2617.18	0.436753
2618.54	-0.00370746
2619.9	-0.00867111
2621.26	-0.11756
2622.62	-0.300487
2623.98	-0.109635
2625.34	0.215204
2626.7	-0.146606
2628.06	0.356035
2629.42	-0.214458
2630.78	-0.189155
2632.14	-0.0153439
2633.5	0.55919
2634.86	0.0492927
2636.22	0.133386
2637.57	-0.0938553
2638.93	0.0494697
2640.29	0.000387175
2641.64	0.217735
2643	0.12481
2644.36	0.106
2645.72	-0.0751459
2647.07	0.451172
2648.43	0.151091
2649.78	0.218599
2651.14	0.329368
2652.49	0.0283744
2653.85	0.212348
2655.2	0.426027
2656.56	0.0692865
2657.91	-0.344338
2659.27	-0.0983262
2660.62	0.381783
2661.97	0.305928
2663.33	0.0980873
2664.68	0.0502426
2666.03	0.278819
2667.38	0.302508
2668.74	0.253248
2670.09	0.175229
2671.44	0.068776
2672.79	-0.0514374
2674.14	0.511639
2675.49	0.160289
2676.84	0.549771
2678.2	0.461026
2679.55	0.0396991
2680.89	-0.0324882
2682.24	0.200973
2683.59	0.406678
2684.94	0.453917
2686.29	0.313047
2687.64	0.186444
2688.99	0.247311
2690.34	0.219373
2691.69	0.0299248
2693.04	0.0421843
2694.38	0.604466
2695.73	0.223921
2697.08	-0.286006
2698.43	0.422105
2699.77	0.0601585
2701.12	0.148856
2702.46	0.0797623
2703.81	-0.0173141
2705.16	-0.0124818
2706.5	0.326011
2707.85	0.127639
2709.19	0.669035
2710.54	0.13581
2711.88	0.153955
2713.23	0.491642
2714.57	0.160829
2715.92	0.0623817
2717.26	0.356418
2718.6	0.155723
2719.95	0.623903
2721.29	0.0730389
2722.63	0.147398
2723.97	0.294061
2725.32	0.120056
2726.66	0.367765
2728	0.265817
2729.34	0.498333
2730.68	0.337776
2732.02	0.700962
2733.36	0.409536
2734.7	-0.0271166
2736.04	0.176455
2737.39	0.205605
2738.72	0.278354
2740.06	0.118166
2741.4	-0.0424665
2742.74	-0.0147032
2744.08	0.419271
2745.42	0.750613
2746.76	-0.00789724
2748.1	-0.0982561
2749.44	-0.0579301
2750.77	-0.0754627
2752.11	0.226207
2753.45	-0.196747
2754.78	0.148608
2756.12	0.334553
2757.46	0.0427196
2758.79	0.301374
2760.13	0.241891
2761.47	-0.251212
2762.8	0.0954885
2764.14	0.0662638
2765.47	-0.382558
2766.81	0.209875
2768.14	-0.182362
2769.48	0.422031
2770.81	0.215104
2772.14	0.0503494
2773.48	-0.014207
2774.81	-0.223374
2776.14	0.345578
2777.48	0.194324
2778.81	0.0582387
2780.14	0.00909743
2781.47	0.175748
2782.81	-0.0739244
2784.14	0.0352043
2785.47	0.0151691
2786.8	0.124237
2788.13	-0.0383108
2789.46	-0.0568467
2790.79	0.0971389
2792.12	-0.00556363
2793.46	0.106666
2794.79	-0.138411
2796.11	-0.169381
2797.44	0.256204
2798.77	0.0812216
2800.1	-0.0940594
2801.43	-0.1696
2802.76	-0.116946
2804.09	0.0351469
2805.42	-0.126707
2806.74	-0.0470026
2808.07	-0.167169
2809.4	0.437221
2810.73	0.0892293
2812.05	0.224837
2813.38	0.389785
2814.71	-0.0819129
2816.03	0.128471
2817.36	-0.0569353
2818.68	-0.355136
2820.01	-0.0013429
2821.33	0.0401833
2822.66	0.0526892
2823.98	-0.0771255
2825.31	0.217699
2826.63	-0.124834
2827.96	0.425249
2829.28	0.168809
2830.61	0.33756
2831.93	0.704687
2833.25	0.774469
2834.57	0.942977
2835.9	0.884483
2837.22	0.726382
2838.54	1.0064
2839.86	0.805214
2841.18	1.59391
2842.51	1.47804
2843.83	1.67384
2845.15	1.78562
2846.47	2.11007
2847.79	1.96856
2849.11	2.53375
2850.43	2.20819
2851.75	2.2354
2853.07	1.88046
2854.39	2.57084
2855.71	2.68152
2857.03	3.11706
2858.35	2.81806
2859.67	3.04164
2860.98	3.37791
2862.3	3.84072
2863.62	3.66774
2864.94	3.62151
2866.25	3.82918
2867.57	3.95242
2868.89	4.51323
2870.21	4.79241
2871.52	4.38103
2872.84	4.81503
2874.15	4.50115
2875.47	5.17211
2876.78	4.44733
2878.1	5.12937
2879.42	4.78366
2880.73	5.19772
2882.04	4.75538
2883.36	5.25567
2884.67	4.9004
2885.99	5.26198
2887.3	4.72526
2888.61	5.21255
2889.93	5.34791
2891.24	5.55218
2892.55	5.08276
2893.87	5.97239
2895.18	5.81149
2896.49	5.53978
2897.8	6.34708
2899.11	6.05011
2900.42	6.31383
2901.74	6.07455
2903.05	5.94747
2904.36	7.02349
2905.67	7.0368
2906.98	7.05086
2908.29	7.5836
2909.6	7.2222
2910.91	8.14893
2912.22	7.67628
2913.53	8.43442
2914.83	8.5187
2916.14	9.02051
2917.45	8.86206
2918.76	10.0314
2920.07	9.6472
2921.37	10.4247
2922.68	10.5467
2923.99	10.7407
2925.3	10.0838
2926.6	10.7138
2927.91	10.6729
2929.22	10.7433
2930.52	10.5333
2931.83	11.0774
2933.13	10.992
2934.44	11.3259
2935.74	11.2825
2937.05	10.8761
2938.35	10.9171
2939.66	10.218
2940.96	9.81307
2942.27	9.85652
2943.57	9.83184
2944.87	9.24992
2946.18	9.2567
2947.48	9.25038
2948.78	8.82381
2950.09	8.87138
2951.39	8.53837
2952.69	7.58653
2953.99	8.36901
2955.29	7.77887
2956.6	7.62395
2957.9	7.27581
2959.2	7.3232
2960.5	6.78598
2961.8	7.13397
2963.1	7.10476
2964.4	6.70976
2965.7	6.95858
2967	6.20759
2968.3	5.70736
2969.6	6.1199
2970.9	5.75887
2972.2	5.77791
2973.49	5.24856
2974.79	5.23976
2976.09	4.80778
2977.39	4.81064
2978.69	4.37492
2979.98	4.58475
2981.28	4.42696
2982.58	4.11386
2983.88	4.50437
2985.17	3.89808
2986.47	3.99651
2987.76	3.2255
2989.06	2.87723
2990.36	2.81031
2991.65	3.00989
2992.95	3.1661
2994.24	2.59013
2995.54	2.19578
2996.83	2.27825
2998.12	2.33234
2999.42	1.90974
3000.71	2.00687
3002	1.69811
3003.3	1.96454
3004.59	1.1523
3005.88	1.53062
3007.18	1.43207
3008.47	1.06688
3009.76	1.05071
3011.05	1.36911
3012.35	1.16999
3013.64	0.943273
3014.93	0.689472
3016.22	0.381051
3017.51	0.909143
3018.8	0.532754
3020.09	0.546283
3021.38	0.281387
3022.67	0.724334
3023.96	0.249675
3025.25	0.509889
3026.54	0.256922
3027.83	0.641438
3029.12	0.279888
3030.41	-0.0243139
3031.69	0.363833
3032.98	0.393853
3034.27	0.0930069
3035.56	-0.00118476
3036.85	0.110267
3038.13	0.550424
3039.42	0.217138
3040.71	-0.0757332
3041.99	0.605759
3043.28	0.462952
3044.57	0.0887453
3045.85	0.168337
3047.14	0.591538
3048.42	0.511522
3049.71	0.147268
3050.99	0.617259
3052.28	0.228443
3053.56	0.863061
3054.85	0.44642
3056.13	0.492617
3057.42	-0.00761023
3058.7	0.622711
3059.98	0.612093
3061.27	0.561079
3062.55	0.415962
3063.83	0.517183
3065.11	0.579254
3066.4	0.411731
3067.68	0.340455
3068.96	0.120036
3070.24	0.00816552
3071.52	0.425905
3072.8	0.0400458
3074.09	0.400838
3075.37	-0.054844
3076.65	0.2094
3077.93	-0.164122
3079.21	0.04721
3080.49	0.0700658
3081.77	0.0402873
3083.05	0.161059
3084.32	0.228371
3085.61	-0.0298631
3086.88	0.308643
3088.16	0.117153
3089.44	0.155755
3090.72	-0.131736
3092	-0.324233
3093.27	0.134617
3094.55	-0.192887
3095.83	-0.126732
3097.11	-0.0333308
3098.38	0.0193833
3099.66	0.0855546
3100.94	0.0568458
3102.21	0.136618
3103.49	0.555154
3104.76	0.134891
3106.04	-0.0543289
3107.31	-0.107206
3108.59	0.192884
3109.86	0.0881266
3111.14	-0.0697771
3112.41	0.233591
3113.69	0.00919975
3114.96	-0.0526042
3116.23	0.0614613
3117.51	0.0391837
3118.78	-0.296047
3120.05	0.0187512
3121.33	0.0885409
3122.6	-0.167467
3123.87	0.402918
3125.14	0.350246
3126.42	-0.10786
3127.69	0.517362
3128.96	0.236622
3130.23	0.308035
3131.5	-0.0123549
3132.77	0.37006
3134.04	0.0495638
3135.31	0.322927
3136.58	0.29872
3137.85	0.0853863
3139.12	0.612994
3140.39	0.3994
3141.66	0.374609
3142.93	0.189023
3144.2	0.407068
3145.47	0.424291
3146.74	0.38866
3148	0.407417
3149.27	0.440273
