200.563	0.513191
202.377	0.542593
204.194	0.573369
206.008	0.62941
207.821	-0.116613
209.634	-0.182228
211.449	-0.0546885
213.262	0.483832
215.074	0.122989
216.885	-0.068325
218.699	-0.0897436
220.51	-0.0621281
222.321	-0.420605
224.131	0.0199871
225.941	0.436548
227.751	0.611206
229.562	1.02672
231.371	0.934315
233.18	0.503916
234.988	0.218975
236.796	0.200767
238.603	-0.080307
240.411	0.243844
242.219	0.570558
244.026	-0.0178738
245.832	-0.0519552
247.638	-0.0395689
249.443	0.187187
251.248	0.289783
253.053	0.437566
254.857	1.06574
256.661	0.29449
258.465	-0.402827
260.268	0.395707
262.071	0.497404
263.874	0.408127
265.678	-0.161979
267.48	0.159636
269.282	-0.0975952
271.083	0.34332
272.884	0.252549
274.684	0.618263
276.484	0.331169
278.284	0.210835
280.084	0.0161266
281.883	0.132314
283.682	0.462711
285.48	0.550676
287.276	-0.490388
289.074	-0.330589
290.871	-0.338034
292.668	0.038785
294.465	0.368826
296.261	0.484877
298.057	-0.33013
299.853	0.456579
301.648	0.167724
303.443	0.0929594
305.237	0.1362
307.032	-0.32247
308.823	0.029542
310.617	-0.0947409
312.41	-0.0748167
314.203	0.51825
315.995	-0.267909
317.788	0.424137
319.579	0.355761
321.369	-0.0452242
323.16	0.245741
324.951	0.22721
326.741	0.519105
328.531	0.428743
330.321	0.122306
332.108	0.483899
333.897	0.0543108
335.686	-0.13848
337.474	0.288455
339.26	0.641205
341.048	0.298534
342.835	0.242098
344.622	0.137847
346.406	-0.347998
348.192	-0.116552
349.978	0.0197344
351.764	0.22751
353.547	0.21975
355.332	-0.266236
357.116	-0.324061
358.901	0.665257
360.682	0.366138
362.466	0.137817
364.249	-0.186088
366.03	0.606263
367.812	0.494431
369.594	-0.0212307
371.374	-0.418348
373.155	-0.484123
374.936	0.0406065
376.715	0.186517
378.495	0.497684
380.273	0.22027
382.053	-0.0319147
383.832	0.32907
385.609	0.479355
387.388	-0.238636
389.164	0.501339
390.942	0.372985
392.72	-0.224211
394.495	0.0950661
396.272	0.743478
398.047	0.1707
399.823	0.49016
401.597	0.433297
403.372	0.493162
405.145	1.04536
406.92	0.187654
408.693	0.010416
410.467	0.34929
412.239	0.242133
414.012	0.158898
415.783	0.0763664
417.556	0.111947
419.327	0.359327
421.099	0.325342
422.869	0.267532
424.64	-0.119727
426.409	0.00847912
428.18	0.0653811
429.948	0.990227
431.718	0.389297
433.486	0.258134
435.253	-0.0604677
437.022	-0.261803
438.789	-0.323085
440.558	-0.0104103
442.324	0.276548
444.089	0.021801
445.857	0.608771
447.622	-0.234109
449.386	0.0697718
451.153	0.419918
452.917	0.372955
454.682	0.349591
456.446	0.163067
458.208	0.0465212
459.973	0.0232983
461.735	0.000798225
463.497	-0.368731
465.259	-0.178034
467.022	0.247763
468.783	0.467204
470.544	0.642189
472.306	0.212902
474.066	0.527334
475.825	0.583943
477.585	1.011
479.346	0.713975
481.104	0.742041
482.862	1.09635
484.62	0.846381
486.38	0.575121
488.137	1.16828
489.894	0.131579
491.65	0.798491
493.407	0.742864
495.164	0.710721
496.92	1.12316
498.675	0.551888
500.43	0.706093
502.184	0.625116
503.939	0.472573
505.694	0.765189
507.448	0.539266
509.201	1.04079
510.954	0.787868
512.706	0.486113
514.459	0.535731
516.21	1.0779
517.962	0.489665
519.715	0.464974
521.466	0.697964
523.216	0.460546
524.966	0.387445
526.716	0.290926
528.466	0.217959
530.215	0.0746279
531.964	0.727306
533.712	0.137818
535.46	0.530252
537.208	0.383111
538.955	0.608312
540.703	0.0856075
542.449	0.47165
544.196	0.763324
545.942	0.589573
547.688	-0.186954
549.433	0.197552
551.178	0.303542
552.923	0.47886
554.667	1.34714
556.412	0.205857
558.155	0.934989
559.899	-0.0875778
561.642	0.227245
563.385	0.105126
565.127	0.259575
566.867	0.138835
568.609	0.409304
570.35	0.0151329
572.092	0.0814295
573.832	0.195218
575.573	-0.0562725
577.313	-0.214442
579.053	0.0417452
580.79	0.115139
582.529	0.0967541
584.268	-0.29007
586.006	-0.287235
587.745	0.266487
589.482	-0.00907612
591.218	0.0595245
592.955	-0.0104313
594.692	0.310591
596.428	0.424579
598.164	0.400478
599.898	0.122925
601.634	-0.20145
603.369	0.323955
605.104	-0.0260296
606.836	0.26638
608.57	0.213213
610.304	0.48129
612.037	-0.00734711
613.769	0.51407
615.501	0.119003
617.234	0.365854
618.966	0.566157
620.696	-0.150431
622.427	0.550827
624.159	-0.0755253
625.887	-0.0613537
627.618	0.0451832
629.348	0.518721
631.076	-0.0323315
632.806	0.126017
634.535	-0.239537
636.262	-0.0805635
637.99	-0.197217
639.716	0.0714989
641.444	0.67915
643.172	-0.197795
644.897	1.17957
646.624	0.848855
648.348	-0.00204754
650.075	0.718864
651.801	-0.0561066
653.524	0.377139
655.249	0.472998
656.972	0.685151
658.697	-0.0587463
660.419	0.381914
662.143	0.319325
663.865	0.711375
665.588	0.392569
667.309	0.597626
669.032	0.253132
670.752	0.527014
672.474	0.597081
674.194	0.463586
675.915	0.286167
677.634	0.68324
679.355	0.346214
681.073	0.78918
682.793	0.310714
684.511	0.381997
686.23	-0.193418
687.947	0.956824
689.664	0.585997
691.382	0.306527
693.098	0.302851
694.816	0.505705
696.531	0.362093
698.247	1.00004
699.963	0.140567
701.678	0.821629
703.392	0.972321
705.108	0.318263
706.821	0.720301
708.534	0.754407
710.249	0.742229
711.962	0.889966
713.674	0.328109
715.388	0.0869675
717.099	1.12474
718.81	0.700914
720.523	0.893337
722.234	1.06284
723.944	0.595069
725.654	1.05998
727.365	0.819695
729.075	0.28446
730.784	1.20061
732.492	0.710519
734.202	1.08089
735.91	1.11161
737.618	0.329826
739.325	1.39998
741.034	1.31979
742.741	1.01576
744.447	1.18628
746.153	1.11057
747.859	0.94637
749.564	0.963545
751.271	1.52183
752.976	0.821901
754.681	1.13557
756.385	1.72102
758.088	1.04768
759.792	0.80314
761.495	0.897574
763.2	1.64702
764.902	1.33597
766.604	1.90451
768.306	1.11534
770.008	1.8158
771.709	2.40128
773.41	0.927507
775.11	1.75981
776.811	1.75608
778.51	1.43717
780.21	2.13748
781.909	1.73077
783.608	2.02548
785.307	1.61736
787.005	1.50096
788.703	0.974015
790.401	2.02758
792.098	2.05987
793.795	1.526
795.492	1.35384
797.188	1.11535
798.884	1.8923
800.58	1.5448
802.276	2.32394
803.971	1.73134
805.665	1.76845
807.36	1.17554
809.054	1.57015
810.748	1.2001
812.441	1.95083
814.135	1.6468
815.826	1.49974
817.518	1.91205
819.21	1.51924
820.902	1.46221
822.594	1.87422
824.285	1.66221
825.976	1.47426
827.665	1.82326
829.355	1.46232
831.045	1.95082
832.735	1.79638
834.424	2.15668
836.111	1.69312
837.8	1.94294
839.488	1.72288
841.177	1.74671
842.864	1.61281
844.55	1.32199
846.237	1.36706
847.924	1.16802
849.61	1.62007
851.295	1.1348
852.98	1.25575
854.666	1.13099
856.349	0.915882
858.034	1.28387
859.719	1.76334
861.403	1.43099
863.085	0.600992
864.769	1.0537
866.452	1.77636
868.133	1.57423
869.816	1.05579
871.498	1.01058
873.179	1.43895
874.86	0.694044
876.54	0.783939
878.221	1.14473
879.902	1.03147
881.58	1.54992
883.26	0.916325
884.938	1.32008
886.618	1.72229
888.297	1.37812
889.974	1.52872
891.653	1.94806
893.329	1.57726
895.007	1.74582
896.683	1.2611
898.36	1.22543
900.035	1.36834
901.712	1.03964
903.387	0.934986
905.063	1.00918
906.737	0.949568
908.412	1.02448
910.085	1.45642
911.76	1.04306
913.433	1.85351
915.107	1.46384
916.779	1.34115
918.452	1.24077
920.124	0.742224
921.797	1.21845
923.467	1.54036
925.138	1.24504
926.81	0.709064
928.48	2.13952
930.151	0.856328
931.82	1.29521
933.489	1.27097
935.16	1.666
936.828	1.37773
938.496	1.09041
940.165	0.870477
941.833	0.916406
943.5	1.02926
945.168	1.40684
946.834	0.193991
948.5	0.436181
950.168	1.1841
951.834	1.02592
953.499	0.669483
955.163	0.689667
956.83	0.778735
958.494	0.165097
960.158	0.590876
961.821	1.35
963.487	1.38054
965.15	0.679415
966.812	1.52379
968.474	0.860993
970.138	0.638684
971.8	1.6543
973.461	1.18842
975.123	0.436668
976.783	0.416447
978.446	0.663097
980.106	0.833041
981.766	1.00265
983.425	1.38126
985.084	0.717421
986.743	1.13621
988.402	1.08836
990.06	1.30466
991.72	1.1223
993.378	0.851665
995.035	0.559388
996.692	0.642603
998.349	0.791845
1000.01	1.84411
1001.66	1.41926
1003.32	1.23659
1004.97	0.987889
1006.63	1.17892
1008.28	0.206043
1009.94	1.2975
1011.59	1.22574
1013.25	0.672411
1014.9	0.58009
1016.55	1.10122
1018.21	1.22851
1019.86	0.787911
1021.51	0.348692
1023.16	0.479085
1024.81	0.785182
1026.47	0.895093
1028.12	1.15792
1029.77	1.44185
1031.42	1.0255
1033.07	1.04443
1034.72	0.66899
1036.37	1.44817
1038.02	1.70255
1039.67	1.34702
1041.31	1.51479
1042.96	1.9663
1044.61	2.7017
1046.26	2.48313
1047.91	2.22337
1049.55	2.07405
1051.2	1.75231
1052.84	1.47476
1054.49	1.39304
1056.14	1.48515
1057.78	1.2509
1059.43	1.55962
1061.07	0.932722
1062.72	0.196264
1064.36	0.480907
1066	1.22099
1067.65	1.13378
1069.29	0.980471
1070.93	0.414059
1072.58	0.542642
1074.22	0.563136
1075.86	0.801546
1077.5	1.3014
1079.14	0.848275
1080.78	0.721182
1082.42	0.940995
1084.06	0.943047
1085.7	0.444906
1087.34	0.833488
1088.98	0.483429
1090.62	0.608194
1092.26	0.299323
1093.9	0.660017
1095.54	0.696647
1097.17	0.367608
1098.81	0.75122
1100.45	1.07149
1102.09	0.0162487
1103.72	0.684321
1105.36	0.665095
1106.99	0.53886
1108.63	0.605869
1110.27	0.92977
1111.9	0.564154
1113.53	0.712845
1115.17	1.0963
1116.8	0.792224
1118.43	1.02464
1120.07	0.593342
1121.7	0.805883
1123.33	0.741045
1124.97	0.826988
1126.6	1.04207
1128.23	0.40248
1129.86	0.854226
1131.49	0.344372
1133.12	0.604464
1134.75	0.43685
1136.38	0.867073
1138.01	0.163632
1139.64	0.335227
1141.27	0.76193
1142.9	0.825004
1144.53	0.163054
1146.16	0.461699
1147.78	0.462692
1149.41	0.102334
1151.04	0.445477
1152.67	-0.638295
1154.29	0.875422
1155.92	0.0468206
1157.54	0.473892
1159.17	-0.098568
1160.8	0.605925
1162.42	0.269436
1164.05	-0.214898
1165.67	0.449339
1167.29	-0.0135765
1168.92	0.202867
1170.54	-0.219973
1172.16	-0.368066
1173.79	0.0132198
1175.41	-0.0314102
1177.03	0.474731
1178.65	-0.248196
1180.28	0.17356
1181.9	0.214841
1183.52	0.129836
1185.14	-0.102984
1186.76	0.297039
1188.38	0.188586
1190	0.183889
1191.62	0.135337
1193.24	0.1276
1194.86	0.643998
1196.47	-0.0149374
1198.09	-0.189665
1199.71	0.285906
1201.33	0.0523615
1202.95	0.656775
1204.56	0.511718
1206.18	0.514812
1207.8	1.06153
1209.41	0.481915
1211.03	0.36049
1212.64	0.59193
1214.26	1.2586
1215.87	0.589608
1217.49	0.3361
1219.1	0.206861
1220.71	0.430702
1222.33	0.903614
1223.94	0.796763
1225.55	1.18845
1227.16	0.981073
1228.78	0.816647
1230.39	1.25315
1232	0.801769
1233.61	1.26111
1235.22	0.832907
1236.83	1.45998
1238.44	1.15793
1240.05	1.14589
1241.66	1.17536
1243.27	1.34932
1244.88	1.35701
1246.49	1.57061
1248.1	1.92803
1249.71	1.31219
1251.32	1.8547
1252.92	1.94226
1254.53	2.11331
1256.14	1.97525
1257.74	2.00395
1259.35	1.66138
1260.96	1.21598
1262.56	1.37124
1264.17	1.87878
1265.77	1.51588
1267.38	1.25564
1268.98	1.3468
1270.59	1.49916
1272.19	1.87855
1273.79	2.02878
1275.4	2.32301
1277	2.30526
1278.6	1.81024
1280.21	1.56344
1281.81	1.62701
1283.41	1.9389
1285.01	2.14771
1286.61	1.90252
1288.21	2.03055
1289.81	2.13881
1291.41	2.18555
1293.01	1.83958
1294.61	2.87698
1296.21	1.53751
1297.81	1.82817
1299.41	1.64235
1301.01	2.1768
1302.6	2.19418
1304.2	2.00476
1305.8	2.10278
1307.4	2.24113
1308.99	1.98913
1310.59	3.04917
1312.19	2.40836
1313.78	2.03552
1315.38	1.95044
1316.97	2.15229
1318.57	1.68114
1320.16	2.75984
1321.76	2.12484
1323.35	2.4661
1324.94	2.13407
1326.54	2.28859
1328.13	1.99619
1329.72	1.60395
1331.32	3.11521
1332.91	2.24178
1334.5	2.32103
1336.09	2.40183
1337.68	2.42255
1339.27	2.4828
1340.87	1.5744
1342.45	2.23492
1344.04	2.42976
1345.64	2.34198
1347.22	1.85369
1348.81	1.20799
1350.4	2.04675
1351.99	1.82688
1353.58	1.00948
1355.17	1.95265
1356.75	1.71671
1358.34	1.62028
1359.93	1.50299
1361.51	1.48456
1363.1	2.10364
1364.69	1.12687
1366.27	0.868738
1367.86	1.02982
1369.44	0.972923
1371.03	1.594
1372.61	1.57943
1374.2	0.949124
1375.78	1.03573
1377.37	1.24179
1378.95	1.24835
1380.53	1.09476
1382.11	1.31792
1383.7	1.22155
1385.28	1.54172
1386.86	0.907579
1388.44	1.14792
1390.02	1.22988
1391.6	1.39199
1393.19	1.6341
1394.77	0.845117
1396.35	1.54342
1397.93	0.872885
1399.51	1.09354
1401.08	1.01604
1402.66	1.29438
1404.24	0.919576
1405.82	1.2377
1407.4	0.983161
1408.97	1.3816
1410.55	0.851892
1412.13	0.816081
1413.71	1.15477
1415.28	1.45286
1416.86	1.15827
1418.43	1.11986
1420.01	1.4364
1421.59	1.5371
1423.16	1.02903
1424.73	1.13279
1426.31	1.15895
1427.88	1.38239
1429.46	0.857593
1431.03	1.49319
1432.6	1.39944
1434.18	1.83598
1435.75	1.85886
1437.32	2.01956
1438.89	2.4561
1440.46	2.186
1442.04	2.48681
1443.61	1.51086
1445.18	2.59888
1446.75	2.50787
1448.32	2.63322
1449.89	2.22809
1451.46	2.27556
1453.03	1.85156
1454.6	1.99818
1456.16	2.32187
1457.73	2.46787
1459.3	2.25833
1460.87	2.75545
1462.44	1.5192
1464	1.71778
1465.57	2.36719
1467.14	1.93518
1468.7	1.48439
1470.27	1.52547
1471.83	0.998674
1473.4	1.49298
1474.96	1.41912
1476.53	0.973134
1478.09	1.15467
1479.66	1.00286
1481.22	1.39976
1482.78	1.48291
1484.35	1.70304
1485.91	1.3938
1487.47	1.18184
1489.04	0.792572
1490.6	1.1846
1492.16	1.4372
1493.72	1.21852
1495.28	1.40829
1496.84	1.2654
1498.4	1.02538
1499.96	1.58328
1501.52	0.859739
1503.08	1.1278
1504.64	0.931149
1506.2	0.618926
1507.76	0.809484
1509.32	0.419175
1510.88	0.935562
1512.44	0.370787
1513.99	0.634667
1515.55	0.667391
1517.11	0.719782
1518.66	1.38631
1520.22	0.806942
1521.78	0.956028
1523.33	0.932448
1524.89	0.469105
1526.44	0.80675
1528	0.799951
1529.55	0.37442
1531.11	0.975297
1532.66	0.513252
1534.21	0.905301
1535.77	0.540806
1537.32	0.140166
1538.87	0.873334
1540.43	0.115807
1541.98	0.377007
1543.53	0.392957
1545.08	0.540289
1546.63	0.837376
1548.18	0.927325
1549.74	0.36107
1551.29	0.938252
1552.84	0.878792
1554.39	0.876357
1555.94	1.06194
1557.48	0.614274
1559.03	0.579201
1560.58	1.08676
1562.13	0.812156
1563.68	0.836978
1565.23	0.694355
1566.78	0.607718
1568.32	0.614155
1569.87	0.750905
1571.42	1.522
1572.96	1.75153
1574.51	0.767532
1576.05	1.14627
1577.6	1.22651
1579.14	0.597673
1580.69	1.20161
1582.24	1.32087
1583.78	0.843118
1585.32	0.683379
1586.87	1.02872
1588.41	1.2061
1589.95	0.784606
1591.5	1.46682
1593.04	1.15662
1594.58	1.33296
1596.12	1.39704
1597.67	2.13628
1599.21	1.50793
1600.75	1.89266
1602.29	1.71511
1603.83	1.0115
1605.37	1.35867
1606.91	1.42292
1608.45	1.37261
1609.99	1.56451
1611.53	1.32205
1613.07	1.11558
1614.6	1.00204
1616.14	1.31966
1617.68	0.887595
1619.22	1.22512
1620.75	1.91953
1622.29	0.929695
1623.83	1.41985
1625.37	1.53548
1626.9	1.36959
1628.44	1.68901
1629.97	1.40848
1631.51	1.07123
1633.04	1.33172
1634.58	1.77885
1636.11	1.40535
1637.65	1.57386
1639.18	1.46313
1640.72	1.61338
1642.25	1.85605
1643.78	2.48843
1645.31	2.20709
1646.85	2.12978
1648.38	2.75835
1649.91	1.91962
1651.44	2.25196
1652.97	2.73353
1654.5	2.71523
1656.03	2.23419
1657.56	2.69829
1659.1	2.55002
1660.62	2.32651
1662.15	1.89835
1663.68	2.20909
1665.21	2.07555
1666.74	1.77651
1668.27	2.03219
1669.8	1.84662
1671.32	1.6442
1672.85	2.43754
1674.38	1.46306
1675.91	1.96161
1677.43	1.39164
1678.96	1.81447
1680.49	1.94171
1682.01	1.57199
1683.54	1.00047
1685.06	1.43898
1686.59	1.49215
1688.11	1.08747
1689.64	0.738529
1691.16	1.19573
1692.68	1.19502
1694.21	0.938172
1695.73	0.882513
1697.25	1.02765
1698.78	0.934922
1700.3	0.659407
1701.82	0.383789
1703.34	0.727659
1704.86	0.506034
1706.39	0.247983
1707.91	0.662725
1709.43	1.04035
1710.95	0.183405
1712.47	0.59726
1713.99	0.467055
1715.51	0.536223
1717.02	0.569031
1718.54	0.457074
1720.06	0.0743933
1721.58	0.37807
1723.1	0.35724
1724.62	0.157121
1726.13	0.246421
1727.65	0.444733
1729.17	0.49976
1730.68	0.286255
1732.2	0.165243
1733.72	0.659313
1735.23	0.270825
1736.75	0.551088
1738.26	0.55398
1739.78	0.364913
1741.29	0.0512538
1742.81	0.292551
1744.32	0.0307789
1745.84	0.469971
1747.35	0.322827
1748.86	0.437901
1750.37	0.330418
1751.89	0.165048
1753.4	-0.0837736
1754.91	-0.130593
1756.42	0.258471
1757.93	0.0725813
1759.45	0.0331497
1760.96	-0.072207
1762.47	-0.0286975
1763.98	0.0186133
1765.49	-0.0871525
1767	0.251258
1768.51	0.311967
1770.02	-0.174558
1771.53	-0.0749168
1773.03	0.118115
1774.54	-0.0223389
1776.05	0.100582
1777.56	0.301285
1779.07	0.393571
1780.57	0.0294628
1782.08	0.234342
1783.59	0.0338969
1785.09	0.137978
1786.6	0.203901
1788.11	0.127477
1789.61	0.0485477
1791.12	-0.423299
1792.62	0.015305
1794.13	-0.318885
1795.63	0.0806465
1797.13	0.181266
1798.64	0.190752
1800.14	0.316031
1801.65	0.129329
1803.15	0.224105
1804.65	0.00539255
1806.15	-0.135971
1807.66	-0.245997
1809.16	0.0271039
1810.66	-0.127905
1812.16	0.0290394
1813.66	0.0535645
1815.16	0.190362
1816.66	-0.117915
1818.16	0.367053
1819.66	0.010963
1821.16	-0.329723
1822.66	0.252353
1824.16	-0.0897446
1825.66	-0.0432205
1827.16	0.0821562
1828.66	0.220644
1830.16	0.127326
1831.65	-0.234233
1833.15	0.252671
1834.65	-0.0950003
1836.14	-0.0887489
1837.64	-0.217668
1839.14	0.0364065
1840.63	0.0644917
1842.13	0.156851
1843.62	-0.0611868
1845.12	0.200568
1846.61	-0.0816116
1848.11	0.178292
1849.6	0.181111
1851.1	-0.0809736
1852.59	0.0363827
1854.08	0.06745
1855.58	-0.13991
1857.07	0.0986619
1858.56	0.075151
1860.05	0.232491
1861.55	0.263265
1863.04	0.047081
1864.53	-0.293044
1866.02	0.197595
1867.51	0.109049
1869	-0.234527
1870.49	-0.0191417
1871.98	-0.194306
1873.47	0.254465
1874.96	0.0817971
1876.45	-0.00230217
1877.94	0.260549
1879.43	0.288723
1880.92	-0.118345
1882.41	0.159961
1882.51	0.183567
1884	-0.0261908
1885.5	0.0249496
1886.99	-0.0291777
1888.48	0.194853
1889.98	0.175211
1891.47	0.0172715
1892.96	0.156317
1894.46	-0.103036
1895.95	-0.0655661
1897.44	0.0595584
1898.93	0.184654
1900.42	0.291551
1901.91	0.484058
1903.41	0.257581
1904.9	-0.143797
1906.39	-0.250074
1907.88	0.251512
1909.37	0.30182
1910.86	-0.132957
1912.35	0.231208
1913.83	-0.236802
1915.32	0.162462
1916.81	0.283908
1918.3	-0.0977917
1919.79	-0.150426
1921.27	-0.203103
1922.76	0.00430441
1924.25	0.177698
1925.74	0.126944
1927.22	-0.0441108
1928.71	0.0104213
1930.19	0.134213
1931.68	-0.106291
1933.17	0.171523
1934.65	0.39582
1936.14	-0.0043416
1937.62	-0.00735331
1939.11	0.162037
1940.59	0.0206299
1942.07	-0.102661
1943.56	-0.224985
1945.04	0.0673332
1946.52	-0.260827
1948.01	0.307182
1949.49	-0.00439453
1950.97	0.0106435
1952.45	0.00770235
1953.93	0.141856
1955.42	-0.274122
1956.9	0.135035
1958.38	-0.331038
1959.86	0.301831
1961.34	0.18012
1962.82	0.315781
1964.3	0.211321
1965.78	-0.0818353
1967.26	0.0526428
1968.74	0.118006
1970.21	0.063149
1971.69	-0.179737
1973.17	0.123858
1974.65	0.0518684
1976.13	-0.548238
1977.6	-0.0913773
1979.08	0.381979
1980.56	0.225316
1982.03	0.204712
1983.51	0.234847
1984.99	0.077949
1986.46	-0.112832
1987.94	0.238973
1989.41	0.370354
1990.89	0.332891
1992.36	-0.12656
1993.84	0.209817
1995.31	0.310015
1996.78	0.342944
1998.26	0.240723
1999.73	0.0706897
2001.2	0.187172
2002.68	0.286271
2004.15	0.250288
2005.62	-0.375133
2007.09	-0.0225263
2008.56	0.498992
2010.04	0.162403
2011.51	-0.358804
2012.98	0.247863
2014.45	0.0294175
2015.92	0.231048
2017.39	0.0954418
2018.86	0.194621
2020.33	-0.0427938
2021.8	-0.145734
2023.26	-0.0468893
2024.73	-0.014617
2026.2	-0.216251
2027.67	0.27097
2029.14	-0.146328
2030.61	0.125155
2032.07	-0.0219617
2033.54	-0.118416
2035.01	0.322444
2036.47	-0.0430474
2037.94	0.279752
2039.4	0.28305
2040.87	0.185441
2042.33	-0.180934
2043.8	0.0417638
2045.27	0.0802598
2046.73	0.2541
2048.19	0.091486
2049.66	0.316076
2051.12	0.135397
2052.59	0.121987
2054.05	0.191432
2055.51	0.191985
2056.97	0.157693
2058.44	0.375527
2059.9	0.104579
2061.36	0.339298
2062.82	0.322053
2064.28	0.272003
2065.74	0.273288
2067.21	-0.0108161
2068.67	0.328263
2070.13	-0.207635
2071.59	0.114986
2073.05	0.673306
2074.51	0.103302
2075.96	-0.315493
2077.42	0.225308
2078.88	0.479502
2080.34	0.312325
2081.8	0.481453
2083.26	0.599466
2084.72	0.464372
2086.17	0.564249
2087.63	0.461752
2089.09	0.543862
2090.54	0.474544
2092	0.673852
2093.45	0.470173
2094.91	0.534828
2096.37	0.280555
2097.82	0.227052
2099.28	0.876029
2100.73	0.620697
2102.19	0.750276
2103.64	0.596509
2105.09	0.928024
2106.55	0.826707
2108	0.626322
2109.45	0.409667
2110.91	0.709463
2112.36	0.658006
2113.81	0.77168
2115.26	0.933727
2116.72	0.645841
2118.17	1.03974
2119.62	1.30141
2121.07	0.967291
2122.52	0.983439
2123.97	0.702391
2125.42	0.935991
2126.87	0.854328
2128.32	1.352
2129.77	1.35104
2131.22	1.11702
2132.67	1.39567
2134.11	1.04533
2135.56	1.27477
2137.01	1.4888
2138.46	1.29127
2139.91	1.69044
2141.35	1.94249
2142.8	2.03048
2144.25	1.30856
2145.7	1.87709
2147.14	1.88288
2148.59	1.65621
2150.03	1.74337
2151.48	2.04502
2152.92	1.83213
2154.37	2.09895
2155.81	1.76888
2157.26	2.13468
2158.7	2.087
2160.15	1.84179
2161.59	1.73069
2163.03	1.77042
2164.47	2.06049
2165.92	2.35177
2167.36	2.49387
2168.8	2.35251
2170.24	2.17601
2171.69	2.09717
2173.13	2.08299
2174.57	2.25045
2176.01	2.03479
2177.45	2.3681
2178.89	2.05366
2180.33	2.53821
2181.77	2.27547
2183.21	2.27932
2184.65	2.18367
2186.09	2.2544
2187.53	1.87594
2188.97	1.88016
2190.4	2.30049
2191.84	2.03815
2193.28	1.70844
2194.72	1.94358
2196.16	1.81076
2197.59	2.0422
2199.03	1.95584
2200.47	1.63598
2201.9	1.58209
2203.34	1.52887
2204.77	1.59278
2206.21	1.54157
2207.64	1.25896
2209.08	1.73818
2210.51	1.43834
2211.95	1.13794
2213.38	1.43232
2214.82	1.52796
2216.25	1.37642
2217.68	1.14359
2219.12	1.19241
2220.55	1.34088
2221.98	0.846631
2223.41	1.25825
2224.85	1.20723
2226.28	0.924388
2227.71	0.591258
2229.14	1.11172
2230.57	0.71169
2232	0.574562
2233.43	1.07634
2234.86	0.629309
2236.29	1.0173
2237.72	0.508152
2239.15	0.441736
2240.58	0.474873
2242.01	0.770424
2243.44	0.39829
2244.87	0.238478
2246.29	0.616423
2247.72	0.373293
2249.15	0.324209
2250.58	0.420026
2252.01	0.59566
2253.43	0.445039
2254.86	0.701107
2256.29	-0.0161357
2257.71	0.145546
2259.14	0.520239
2260.56	0.32942
2261.99	0.335237
2263.41	0.391068
2264.84	0.756007
2266.26	0.438142
2267.69	0.623616
2269.11	0.531819
2270.53	0.260242
2271.96	0.183507
2273.38	0.318322
2274.8	0.3881
2276.23	0.409201
2277.65	0.137091
2279.07	0.843038
2280.49	0.375227
2281.91	0.200675
2283.34	0.548044
2284.76	-0.00191641
2286.18	0.345775
2287.6	0.253103
2289.02	0.193388
2290.44	0.47709
2291.86	-0.105138
2293.28	0.1463
2294.7	0.316132
2296.12	0.289623
2297.54	0.11567
2298.96	0.0235195
2300.37	0.078938
2301.79	0.101833
2303.21	-0.121119
2304.63	0.0333576
2306.04	-0.0419841
2307.46	-0.0355039
2308.88	0.102081
2310.3	0.18998
2311.71	0.12958
2313.13	0.0855665
2314.54	0.0747495
2315.96	-0.0343137
2317.37	0.0877662
2318.79	0.0784521
2320.2	0.00297976
2321.62	-0.00739336
2323.03	0.409904
2324.45	0.115763
2325.86	0.38091
2327.27	0.660986
2328.69	0.264414
2330.1	0.329628
2331.51	0.164987
2332.92	-0.0151086
2334.34	0.00300503
2335.75	0.0213099
2337.16	0.170841
2338.57	-0.1408
2339.98	0.154953
2341.39	0.268996
2342.8	0.0542688
2344.21	0.348193
2345.63	0.412498
2347.04	-0.620444
2348.45	0.328571
2349.85	0.000126839
2351.26	0.22733
2352.67	-0.281563
2354.08	0.188782
2355.49	0.136052
2356.9	0.0180421
2358.3	0.127963
2359.71	-0.233434
2361.12	-0.123307
2362.53	0.0352178
2363.93	-0.114392
2365.34	-0.00487089
2366.75	0.266175
2368.15	-0.0117993
2369.56	0.19546
2370.97	-0.257479
2372.37	-0.0322156
2373.77	0.080862
2375.18	0.242435
2376.59	0.0174441
2377.99	-0.0634093
2379.39	-0.113181
2380.8	0.0445704
2382.2	0.152807
2383.6	0.324148
2385.01	0.686826
2386.41	0.521716
2387.81	0.325797
2389.21	0.00367403
2390.62	0.495569
2392.02	0.175751
2393.42	-0.0315065
2394.82	-0.317438
2396.22	0.430758
2397.62	0.0664291
2399.02	-0.249586
2400.42	0.24509
2401.82	0.0727301
2403.22	-0.0360179
2404.62	0.251948
2406.02	0.221635
2407.42	0.301682
2408.82	-0.205772
2410.22	0.364913
2411.62	0.174706
2413.01	0.0486412
2414.41	0.176947
2415.81	0.369661
2417.21	0.310126
2418.6	0.472976
2420	0.319436
2421.4	0.0707083
2422.79	0.0117331
2424.19	-0.01578
2425.59	0.0518112
2426.98	0.199048
2428.38	0.489705
2429.77	0.131063
2431.17	-0.17975
2432.56	0.00137949
2433.95	-0.0877109
2435.35	0.203582
2436.74	0.0807438
2438.14	0.179158
2439.53	-0.0570383
2440.92	0.261991
2442.31	0.120022
2443.71	0.025538
2445.1	0.0420208
2446.49	-0.258724
2447.88	0.312298
2449.27	0.233341
2450.67	-0.098712
2452.06	-0.0502534
2453.45	-0.112019
2454.84	0.412226
2456.23	0.414858
2457.62	0.101386
2459.01	-0.560128
2460.4	-0.0199995
2461.79	-0.0656762
2463.18	-0.0170884
2464.57	-0.047977
2465.95	0.142016
2467.34	0.0160561
2468.73	0.284618
2470.12	0.0323348
2471.5	-0.062418
2472.89	0.110228
2474.28	0.171868
2475.67	0.37448
2477.05	0.199251
2478.44	0.259825
2479.82	-0.0561867
2481.21	0.0204139
2482.6	0.0811753
2483.98	-0.124643
2485.37	-0.283825
2486.75	-0.396631
2488.13	0.207841
2489.52	-0.171584
2490.9	0.0724149
2492.29	-0.0413599
2493.67	0.140937
2495.05	-0.0329189
2496.44	-0.236536
2497.82	-0.0365191
2499.2	0.147943
2500.58	0.254555
2501.97	-0.0259776
2503.35	0.264549
2504.73	-0.0940394
2506.11	0.241024
2507.49	-0.163613
2508.87	-0.305915
2510.25	0.135965
2511.63	0.193867
2513.01	0.175602
2514.39	0.096755
2515.77	0.386019
2517.15	0.0330467
2518.53	-0.150949
2519.91	0.29189
2521.29	0.199508
2522.67	-0.290122
2524.05	0.409988
2525.42	0.361689
2526.8	-0.0369945
2528.18	0.219528
2529.55	-0.0100822
2530.93	-0.0862927
2532.31	-0.00927496
2533.69	-0.280721
2535.06	0.101655
2536.44	0.332059
2537.81	0.151762
2539.19	0.122664
2540.56	-0.392904
2541.94	0.184371
2543.31	0.184894
2544.69	0.125369
2546.06	0.491478
2547.44	-0.0212483
2548.81	0.255437
2550.18	0.0467062
2551.56	0.156246
2552.93	0.325805
2554.3	0.0241156
2555.67	0.419734
2557.04	0.405183
2558.42	-0.00371981
2559.79	0.436698
2561.16	0.24076
2562.53	-0.0304122
2563.9	0.0474176
2565.27	0.0800939
2566.64	0.0371723
2568.01	0.312567
2569.38	0.345484
2570.75	0.181356
2572.12	0.032382
2573.49	0.0350285
2574.86	0.447045
2576.23	0.101087
2577.6	0.285686
2578.97	0.379145
2580.33	0.123569
2581.7	-0.101993
2583.07	0.127028
2584.44	0.128414
2585.8	0.220694
2587.17	0.388814
2588.54	0.253929
2589.9	0.164601
2591.27	0.332789
2592.64	0.000568867
2594	0.122311
2595.37	0.243205
2596.73	0.363197
2598.1	0.331152
2599.46	0.32907
2600.83	0.478149
2602.19	-0.00684643
2603.55	0.611077
2604.92	0.112289
2606.28	0.157046
2607.64	0.231673
2609.01	0.094584
2610.37	0.0471044
2611.73	0.390001
2613.09	0.235187
2614.46	0.0199656
2615.82	0.120094
2617.18	0.325106
2618.54	-0.038938
2619.9	0.196768
2621.26	0.163502
2622.62	0.130671
2623.98	0.112978
2625.34	0.125097
2626.7	0.0624394
2628.06	0.342334
2629.42	0.130195
2630.78	0.349676
2632.14	0.34571
2633.5	0.326841
2634.86	-0.0630879
2636.21	0.0666313
2637.57	0.507294
2638.93	0.295794
2640.29	0.365834
2641.64	0.00722504
2643	0.314119
2644.36	0.000658035
2645.71	0.262909
2647.07	0.00850868
2648.43	0.240054
2649.78	-0.206375
2651.14	0.303118
2652.49	0.209189
2653.85	0.45303
2655.2	0.462448
2656.56	0.414114
2657.91	0.0593724
2659.26	0.0275373
2660.62	0.288459
2661.97	0.125188
2663.32	0.297569
2664.68	-0.0271773
2666.03	0.158446
2667.38	0.168515
2668.74	0.353212
2670.09	-0.102391
2671.44	0.228184
2672.79	0.122867
2674.14	0.221438
2675.49	-0.34735
2676.84	-0.160791
2678.19	0.156609
2679.54	0.590429
2680.89	0.0245399
2682.24	0.213491
2683.59	0.171354
2684.94	0.202436
2686.29	0.509571
2687.64	0.352314
2688.99	0.411812
2690.34	0.179648
2691.69	0.396074
2693.03	-0.0417128
2694.38	-0.117317
2695.73	0.343229
2697.08	0.108441
2698.42	0.120956
2699.77	-0.0390487
2701.12	0.178708
2702.46	0.45561
2703.81	0.0089798
2705.15	0.461177
2706.5	0.4642
2707.85	-0.113432
2709.19	-0.0240922
2710.54	0.181193
2711.88	0.21208
2713.22	0.0103626
2714.57	0.389884
2715.91	0.478769
2717.26	-0.0869074
2718.6	0.365264
2719.94	0.235307
2721.29	0.163156
2722.63	0.192488
2723.97	0.367007
2725.31	0.119066
2726.66	0.220153
2728	0.335524
2729.34	0.654399
2730.68	0.245546
2732.02	0.113176
2733.36	0.359105
2734.7	0.241461
2736.04	0.123978
2737.38	0.166577
2738.72	0.209142
2740.06	0.46963
2741.4	0.148074
2742.74	0.349458
2744.08	0.564719
2745.42	-0.0342231
2746.76	0.38347
2748.09	0.205522
2749.43	0.317919
2750.77	0.0677824
2752.11	-0.0225129
2753.45	0.206256
2754.78	0.13074
2756.12	0.330546
2757.46	0.342112
2758.79	0.0932894
2760.13	-0.241988
2761.46	0.175677
2762.8	0.130564
2764.14	0.273781
2765.47	0.257815
2766.8	-0.192516
2768.14	0.181064
2769.47	0.105217
2770.81	0.143935
2772.14	-0.179486
2773.48	-0.0703025
2774.81	0.0382686
2776.14	0.117791
2777.48	0.0966783
2778.81	0.0616298
2780.14	-0.0592093
2781.47	0.0357518
2782.8	0.173696
2784.14	-0.118857
2785.47	0.0619106
2786.8	0.113658
2788.13	-0.278045
2789.46	-0.0106349
2790.79	0.142785
2792.12	0.0822144
2793.45	0.236447
2794.78	0.0762153
2796.11	-0.0699158
2797.44	-0.159243
2798.77	-0.177538
2800.1	-0.067699
2801.43	-0.0722928
2802.76	0.00850916
2804.09	0.0177693
2805.41	0.140617
2806.74	-0.0502934
2808.07	-0.269882
2809.4	0.036387
2810.72	0.427392
2812.05	0.222264
2813.38	0.0891781
2814.71	0.0707345
2816.03	0.0959163
2817.36	-0.133181
2818.68	-0.0216613
2820.01	0.344985
2821.33	-0.238322
2822.66	-0.0426083
2823.98	0.322579
2825.31	0.219886
2826.63	0.31552
2827.96	0.0150747
2829.28	0.0832114
2830.6	0.420648
2831.93	0.560046
2833.25	0.218119
2834.57	0.343062
2835.9	0.495898
2837.22	0.718999
2838.54	0.687015
2839.86	0.584166
2841.18	1.58422
2842.5	1.15652
2843.83	1.06871
2845.15	1.34895
2846.47	1.6721
2847.79	1.5716
2849.11	1.83859
2850.43	1.49757
2851.75	1.74976
2853.07	1.87429
2854.39	1.85713
2855.71	2.02349
2857.03	2.20391
2858.35	2.5397
2859.66	2.12688
2860.98	2.44829
2862.3	2.41636
2863.62	2.42646
2864.94	2.9725
2866.25	2.98218
2867.57	3.34466
2868.89	3.2985
2870.2	3.35145
2871.52	3.39044
2872.84	3.62648
2874.15	3.26993
2875.47	3.61688
2876.78	3.68094
2878.1	3.61751
2879.41	3.37106
2880.73	3.43437
2882.04	3.45624
2883.36	3.40884
2884.67	3.85379
2885.99	3.61127
2887.3	4.05665
2888.61	4.16464
2889.93	3.78087
2891.24	3.87332
2892.55	4.20336
2893.86	4.04263
2895.18	4.4005
2896.49	4.143
2897.8	4.25052
2899.11	4.13513
2900.42	4.30035
2901.73	4.64787
2903.05	4.61788
2904.36	4.56008
2905.67	4.97812
2906.98	4.85123
2908.29	5.22872
2909.6	5.29938
2910.91	5.80449
2912.21	5.42798
2913.52	5.59659
2914.83	5.86183
2916.14	5.69133
2917.45	6.37303
2918.76	6.01796
2920.07	6.39025
2921.37	6.87486
2922.68	6.1304
2923.99	7.07894
2925.29	6.36526
2926.6	7.18989
2927.91	6.84039
2929.22	7.20346
2930.52	7.42616
2931.83	7.62037
2933.13	7.31108
2934.44	7.40715
2935.74	7.5313
2937.05	6.901
2938.35	7.05353
2939.66	6.52166
2940.96	6.68903
2942.26	6.60577
2943.57	6.25822
2944.87	6.12164
2946.18	6.2659
2947.48	6.10313
2948.78	5.87004
2950.08	5.66368
2951.39	5.46948
2952.69	5.62347
2953.99	5.006
2955.29	5.27025
2956.59	5.24136
2957.9	5.20051
2959.2	4.75631
2960.5	4.59463
2961.8	4.49081
2963.1	4.62614
2964.4	4.05922
2965.7	4.10839
2967	3.90315
2968.3	3.94961
2969.6	4.12198
2970.9	3.78799
2972.19	3.46821
2973.49	3.50043
2974.79	3.40602
2976.09	3.50815
2977.39	3.04595
2978.68	3.00466
2979.98	2.87741
2981.28	2.80538
2982.58	2.77513
2983.87	2.64681
2985.17	2.4212
2986.47	2.46405
2987.76	2.07262
2989.06	1.94909
2990.35	2.24745
2991.65	1.77248
2992.94	1.85884
2994.24	1.76148
2995.53	1.32615
2996.83	1.28372
2998.12	1.12892
2999.42	0.946448
3000.71	1.04503
3002	1.00391
3003.3	0.879133
3004.59	0.726562
3005.88	0.531927
3007.18	0.463011
3008.47	0.491514
3009.76	0.449438
3011.05	0.420867
3012.34	0.28037
3013.64	0.223852
3014.93	0.4466
3016.22	0.182076
3017.51	0.113443
3018.8	0.35148
3020.09	-0.119869
3021.38	0.117917
3022.67	0.0909295
3023.96	-0.33912
3025.25	0.0213709
3026.54	0.0902114
3027.83	-0.00669241
3029.12	0.132526
3030.41	-0.210811
3031.69	0.48317
3032.98	0.100718
3034.27	0.0500808
3035.56	0.261277
3036.84	-0.0801563
3038.13	0.00469494
3039.42	0.129332
3040.71	-0.146036
3041.99	0.16891
3043.28	0.0581298
3044.57	0.0852733
3045.85	0.0316725
3047.14	0.225827
3048.42	0.0939865
3049.71	0.209672
3050.99	0.231124
3052.28	0.0623035
3053.56	0.398463
3054.85	0.338509
3056.13	0.305143
3057.41	0.230142
3058.7	0.113822
3059.98	0.242623
3061.26	0.235574
3062.55	-0.124245
3063.83	0.169998
3065.11	0.275086
3066.39	0.136649
3067.68	0.515756
3068.96	-0.0293255
3070.24	0.241424
3071.52	-0.209185
3072.8	-0.11653
3074.08	-0.119873
3075.36	-0.164534
3076.65	0.00802565
3077.93	0.0858054
3079.21	-0.0797696
3080.49	0.352855
3081.77	0.0949321
3083.04	0.217934
3084.32	0.382352
3085.6	-0.0365386
3086.88	-0.102869
3088.16	0.224037
3089.44	-0.128081
3090.72	0.238881
3091.99	-0.0726004
3093.27	0.0639052
3094.55	0.200725
3095.83	0.188709
3097.1	-0.243326
3098.38	-0.0516272
3099.66	0.0722904
3100.93	-0.0882401
3102.21	-0.00471163
3103.49	-0.0427203
3104.76	0.109318
3106.04	0.194339
3107.31	0.293721
3108.59	0.394055
3109.86	0.265284
3111.14	0.326916
3112.41	0.267428
3113.69	0.262581
3114.96	0.0816236
3116.23	0.361454
3117.51	0.328987
3118.78	0.485754
3120.05	0.574007
3121.33	0.295615
3122.6	0.261092
3123.87	0.362072
3125.14	0.503926
3126.41	0.578516
3127.69	0.518377
3128.96	0.2019
3130.23	0.724347
3131.5	0.489844
3132.77	0.498806
3134.04	0.561714
3135.31	0.462356
3136.58	0.578785
3137.85	0.991475
3139.12	0.622144
3140.39	0.42845
3141.66	0.706061
3142.93	1.01051
3144.2	0.630339
3145.47	0.734421
3146.74	1.04018
3148	1.17208
3149.27	1.02338
