200.563	0.209332
202.377	0.227782
204.194	0.247851
206.008	0.439189
207.821	-0.00133514
209.634	0.6759
211.449	-0.0571566
213.262	0.010417
215.074	0.319503
216.885	-0.608323
218.699	0.0638313
220.51	0.251729
222.321	0.0534372
224.131	0.0255795
225.941	0.167555
227.751	-0.0286217
229.562	0.258021
231.371	0.374991
233.18	0.274562
234.988	0.0541601
236.796	0.269191
238.603	-0.0197926
240.411	-0.113399
242.219	-0.470007
244.026	-0.101931
245.832	0.338837
247.638	0.0782328
249.443	0.394429
251.248	0.0556726
253.053	0.124769
254.857	0.505795
256.661	0.0905476
258.465	0.110407
260.268	-0.446218
262.071	0.251885
263.874	0.0603094
265.678	-0.154305
267.48	-0.199977
269.282	-0.101308
271.083	0.8887
272.884	0.310538
274.684	-0.0278978
276.484	-0.584736
278.284	0.519721
280.084	0.248432
281.883	-0.31332
283.682	-0.17855
285.48	0.387106
287.276	0.542942
289.074	0.147138
290.871	-0.0315065
292.668	-0.0888348
294.465	0.668723
296.261	-0.246527
298.057	0.226181
299.853	-0.0893393
301.648	0.669955
303.443	0.425116
305.237	-0.130955
307.032	0.219028
308.823	0.282408
310.617	0.155758
312.41	0.125712
314.203	-0.164581
315.995	0.570871
317.788	0.61765
319.579	0.0466146
321.369	0.953997
323.16	-0.0446911
324.951	0.530824
326.741	-0.229996
328.531	0.704398
330.321	0.563424
332.108	0.636336
333.897	0.635809
335.686	0.680973
337.474	0.101682
339.26	0.333917
341.048	0.564532
342.835	0.459545
344.622	0.0440378
346.406	0.704147
348.192	0.552745
349.978	0.163211
351.764	0.561479
353.547	0.481744
355.332	0.87808
357.116	0.867423
358.901	0.617124
360.682	0.270727
362.466	0.899549
364.249	1.07489
366.03	0.916606
367.812	0.876478
369.594	0.574738
371.374	0.391179
373.155	0.940734
374.936	0.307166
376.715	0.218012
378.495	0.318223
380.273	0.254245
382.053	0.803485
383.832	0.0596189
385.609	-0.164949
387.388	0.716215
389.164	0.235422
390.942	0.0846205
392.72	0.0520439
394.495	-0.77844
396.272	0.669401
398.047	0.379462
399.823	0.441631
401.597	0.714736
403.372	0.540941
405.145	0.248973
406.92	0.214674
408.693	0.156313
410.467	1.06006
412.239	0.837007
414.012	0.332909
415.783	0.62734
417.556	0.218641
419.327	1.10115
421.099	0.482018
422.869	0.425791
424.64	0.392337
426.409	1.0153
428.18	0.604477
429.948	-0.111897
431.718	0.462723
433.486	0.474299
435.253	0.509664
437.022	0.498046
438.789	0.20407
440.558	0.847324
442.324	0.643764
444.089	0.344493
445.857	0.488917
447.622	0.18729
449.386	0.49372
451.153	0.589451
452.917	0.241821
454.682	0.431404
456.446	0.107926
458.208	0.483429
459.973	0.276697
461.735	1.2801
463.497	0.261968
465.259	0.594524
467.022	0.836837
468.783	0.0358629
470.544	0.607976
472.306	0.576221
474.066	0.70661
475.825	0.672311
477.585	1.26484
479.346	0.900489
481.104	1.02436
482.862	1.28813
484.62	0.668048
486.38	0.469003
488.137	1.43723
489.894	1.26577
491.65	1.00172
493.407	0.691092
495.164	0.684114
496.92	1.14518
498.675	0.95069
500.43	0.919525
502.184	0.723324
503.939	1.34804
505.694	0.914726
507.448	0.83225
509.201	0.771695
510.954	0.191865
512.706	0.881098
514.459	0.768832
516.21	0.561164
517.962	0.893328
519.715	0.283992
521.466	1.24867
523.216	0.826404
524.966	0.66254
526.716	0.733393
528.466	0.569719
530.215	0.874757
531.964	1.34298
533.712	0.0777569
535.46	1.17543
537.208	1.14823
538.955	0.582754
540.703	0.157268
542.449	-0.198089
544.196	0.261253
545.942	0.672977
547.688	0.573335
549.433	0.6364
551.178	0.23643
552.923	0.762656
554.667	0.36374
556.412	0.17362
558.155	0.629858
559.899	-0.0431461
561.642	0.482453
563.385	0.271713
565.127	0.475517
566.867	0.358065
568.609	-0.0799274
570.35	0.0571051
572.092	0.585258
573.832	0.036622
575.573	0.0630646
577.313	0.159811
579.053	-0.0177212
580.79	0.90768
582.529	0.455268
584.268	0.162802
586.006	0.237123
587.745	-0.0807476
589.482	0.129355
591.218	0.22361
592.955	0.524456
594.692	-0.23319
596.428	-0.254578
598.164	-0.184001
599.898	-0.0677643
601.634	0.323726
603.369	-0.252002
605.104	0.389757
606.836	0.0417452
608.57	0.060811
610.304	0.538731
612.037	-0.0156164
613.769	0.531754
615.501	0.0250254
617.234	0.297718
618.966	-0.0944309
620.696	0.909055
622.427	0.12595
624.159	0.37177
625.887	0.0462093
627.618	0.269907
629.348	0.312599
631.076	0.585556
632.806	0.83753
634.535	0.748158
636.262	0.498572
637.99	0.17883
639.716	-0.0975952
641.444	-0.0570383
643.172	0.459928
644.897	-0.0951376
646.624	-0.0347385
648.348	0.527293
650.075	0.0236807
651.801	0.455174
653.524	0.344789
655.249	0.487438
656.972	0.655098
658.697	0.801113
660.419	0.239555
662.143	1.02299
663.865	0.114187
665.588	0.436915
667.309	0.23217
669.032	0.507016
670.752	-0.0408554
672.474	0.213562
674.194	0.516146
675.915	0.912767
677.634	0.829381
679.355	0.493237
681.073	0.454369
682.793	0.459826
684.511	0.0950527
686.23	0.142745
687.947	0.327302
689.664	0.810409
691.382	0.210233
693.098	0.85335
694.816	0.712566
696.531	0.547879
698.247	0.175019
699.963	0.445614
701.678	0.46195
703.392	0.914083
705.108	0.561129
706.821	0.873729
708.534	0.680979
710.249	1.01513
711.962	1.25681
713.674	0.994591
715.388	0.70978
717.099	0.630916
718.81	1.16813
720.523	0.792935
722.234	1.16996
723.944	0.886576
725.654	1.14911
727.365	1.16106
729.075	1.10452
730.784	1.07033
732.492	0.560274
734.202	0.752376
735.91	0.76335
737.618	0.977835
739.325	0.741362
741.034	1.24998
742.741	0.97059
744.447	1.34563
746.153	1.06902
747.859	1.01882
749.564	1.01483
751.271	0.742085
752.976	0.605424
754.681	1.27983
756.385	0.71815
758.088	1.14806
759.792	1.08407
761.495	1.02096
763.2	1.45461
764.902	1.39183
766.604	1.44085
768.306	1.12651
770.008	1.73707
771.709	1.84843
773.41	0.96351
775.11	1.66108
776.811	1.4547
778.51	1.49822
780.21	1.58837
781.909	1.74743
783.608	1.77088
785.307	1.72531
787.005	1.13421
788.703	1.71728
790.401	1.14331
792.098	1.83334
793.795	1.88851
795.492	1.53735
797.188	1.48066
798.884	1.69581
800.58	1.70978
802.276	2.06247
803.971	1.5609
805.665	0.857239
807.36	2.17565
809.054	2.18909
810.748	1.79746
812.441	1.71946
814.135	1.79789
815.826	1.89836
817.518	1.73021
819.21	1.83057
820.902	1.64063
822.594	1.49599
824.285	1.7982
825.976	2.10136
827.665	1.87173
829.355	1.88975
831.045	1.79925
832.735	1.80043
834.424	1.09017
836.111	1.76287
837.8	1.63266
839.488	1.47889
841.177	1.52459
842.864	1.77021
844.55	1.85909
846.237	0.920497
847.924	1.63754
849.61	1.88769
851.295	1.55828
852.98	1.85762
854.666	1.46277
856.349	1.42627
858.034	1.63601
859.719	1.30448
861.403	1.151
863.085	1.01844
864.769	1.56078
866.452	0.997983
868.133	0.885322
869.816	1.33606
871.498	1.26785
873.179	1.28969
874.86	1.17608
876.54	1.31068
878.221	1.60331
879.902	1.78305
881.58	1.60126
883.26	1.48648
884.938	1.52871
886.618	0.960262
888.297	1.47368
889.974	1.39892
891.653	1.66091
893.329	1.69612
895.007	1.66266
896.683	1.6957
898.36	1.77263
900.035	1.13076
901.712	2.01304
903.387	1.0803
905.063	2.18324
906.737	1.4982
908.412	1.17207
910.085	1.805
911.76	1.74783
913.433	1.26919
915.107	1.32461
916.779	1.84578
918.452	1.94485
920.124	1.22468
921.797	1.47963
923.467	0.939523
925.138	1.0643
926.81	0.771071
928.48	0.965101
930.151	1.16008
931.82	0.936392
933.489	0.624751
935.16	1.50442
936.828	1.10513
938.496	0.97132
940.165	1.14737
941.833	0.486248
943.5	0.730139
945.168	0.996053
946.834	0.819528
948.5	1.10492
950.168	1.12371
951.834	0.898767
953.499	1.51215
955.163	1.28882
956.83	1.04601
958.494	0.695696
960.158	0.8551
961.821	1.39153
963.487	1.35382
965.15	1.07113
966.812	0.874279
968.474	1.25017
970.138	0.739241
971.8	1.37794
973.461	1.04383
975.123	1.35242
976.783	0.888649
978.446	0.934812
980.106	0.85984
981.766	0.784434
983.425	1.0952
985.084	0.98362
986.743	1.77763
988.402	1.08717
990.06	0.705809
991.72	0.699995
993.378	0.671981
995.035	1.17385
996.692	1.10167
998.349	1.33822
1000.01	2.19124
1001.66	1.58944
1003.32	1.40613
1004.97	1.24476
1006.63	0.863793
1008.28	0.812868
1009.94	1.37672
1011.59	0.909571
1013.25	0.903647
1014.9	1.40184
1016.55	1.06802
1018.21	0.844419
1019.86	1.56218
1021.51	1.29656
1023.16	1.09769
1024.81	1.20572
1026.47	1.99165
1028.12	1.68493
1029.77	1.59611
1031.42	1.57167
1033.07	1.48023
1034.72	1.84548
1036.37	2.27432
1038.02	1.87395
1039.67	2.49716
1041.31	1.90216
1042.96	2.83081
1044.61	2.69574
1046.26	2.45424
1047.91	2.69255
1049.55	2.08556
1051.2	2.52232
1052.84	1.78688
1054.49	1.55126
1056.14	1.68501
1057.78	1.01418
1059.43	1.90814
1061.07	1.51874
1062.72	1.17205
1064.36	1.38985
1066	1.25879
1067.65	1.36584
1069.29	1.40675
1070.93	1.64247
1072.58	1.35695
1074.22	1.50609
1075.86	1.24402
1077.5	1.50378
1079.14	2.08992
1080.78	2.43821
1082.42	2.43948
1084.06	2.07122
1085.7	2.43843
1087.34	2.2616
1088.98	3.0572
1090.62	2.16227
1092.26	2.24036
1093.9	1.95073
1095.54	2.11492
1097.17	1.63301
1098.81	2.23018
1100.45	1.7305
1102.09	1.92175
1103.72	1.79193
1105.36	2.22267
1106.99	2.15917
1108.63	1.27817
1110.27	1.44992
1111.9	1.38366
1113.53	1.61667
1115.17	2.17023
1116.8	2.03603
1118.43	1.68779
1120.07	1.87628
1121.7	1.91566
1123.33	1.89185
1124.97	1.50533
1126.6	1.11988
1128.23	1.48378
1129.86	1.0999
1131.49	1.46489
1133.12	1.65907
1134.75	1.23318
1136.38	1.57619
1138.01	1.83256
1139.64	1.3614
1141.27	1.33801
1142.9	0.61006
1144.53	0.864039
1146.16	1.4382
1147.78	0.563708
1149.41	0.777054
1151.04	0.458215
1152.67	0.863534
1154.29	0.11873
1155.92	1.01277
1157.54	0.523249
1159.17	0.693712
1160.8	0.69475
1162.42	0.314062
1164.05	0.891047
1165.67	0.490403
1167.29	0.514739
1168.92	0.623163
1170.54	0.0711956
1172.16	0.176591
1173.79	-0.335262
1175.41	0.277003
1177.03	-0.0659609
1178.65	-0.0057478
1180.28	-0.0508652
1181.9	-0.0105724
1183.52	0.262755
1185.14	0.366732
1186.76	0.427523
1188.38	0.402424
1190	0.312467
1191.62	0.515813
1193.24	0.381021
1194.86	0.140973
1196.47	-0.55953
1198.09	0.229084
1199.71	0.410803
1201.33	0.301676
1202.95	0.257611
1204.56	0.340982
1206.18	0.467804
1207.8	0.512225
1209.41	0.556829
1211.03	0.392131
1212.64	0.601332
1214.26	0.558383
1215.87	0.846707
1217.49	1.25778
1219.1	0.773639
1220.71	0.373474
1222.33	0.804212
1223.94	0.800174
1225.55	0.404099
1227.16	0.671964
1228.78	1.29236
1230.39	1.14842
1232	0.654257
1233.61	1.42206
1235.22	1.3022
1236.83	1.34879
1238.44	1.18957
1240.05	1.4858
1241.66	0.6654
1243.27	1.10631
1244.88	1.60876
1246.49	1.55166
1248.1	1.36947
1249.71	0.834904
1251.32	1.83107
1252.92	1.04835
1254.53	1.21785
1256.14	2.05024
1257.74	1.64273
1259.35	1.919
1260.96	1.34754
1262.56	1.74938
1264.17	1.48861
1265.77	1.33088
1267.38	1.13093
1268.98	1.36543
1270.59	1.72347
1272.19	2.08055
1273.79	1.44147
1275.4	1.8588
1277	0.845252
1278.6	1.4888
1280.21	1.77931
1281.81	1.67607
1283.41	1.73855
1285.01	1.82218
1286.61	1.49315
1288.21	1.49593
1289.81	2.22282
1291.41	2.51608
1293.01	2.08601
1294.61	1.65533
1296.21	1.90516
1297.81	2.48355
1299.41	2.33765
1301.01	2.19048
1302.6	1.58923
1304.2	2.18171
1305.8	2.3201
1307.4	2.33449
1308.99	2.16396
1310.59	2.32169
1312.19	1.72207
1313.78	2.06509
1315.38	1.85675
1316.97	1.75172
1318.57	1.99416
1320.16	2.19532
1321.76	1.88604
1323.35	2.28806
1324.94	2.4843
1326.54	1.74499
1328.13	1.3923
1329.72	2.09384
1331.32	2.12789
1332.91	2.02259
1334.5	1.89938
1336.09	2.12083
1337.68	2.34251
1339.27	1.89811
1340.87	2.25834
1342.45	1.50923
1344.04	2.10653
1345.64	2.09921
1347.22	1.39042
1348.81	1.98661
1350.4	1.32323
1351.99	2.46308
1353.58	2.08434
1355.17	1.60714
1356.75	1.90977
1358.34	1.75238
1359.93	1.57424
1361.51	1.7346
1363.1	1.89403
1364.69	1.39512
1366.27	1.73383
1367.86	1.57509
1369.44	1.61666
1371.03	1.7192
1372.61	1.74335
1374.2	1.1716
1375.78	1.33663
1377.37	1.62112
1378.95	1.10919
1380.53	1.63106
1382.11	2.07199
1383.7	1.97453
1385.28	1.47872
1386.86	1.34058
1388.44	1.14316
1390.02	1.44273
1391.6	1.26665
1393.19	1.46826
1394.77	1.3726
1396.35	0.919883
1397.93	1.51738
1399.51	0.746371
1401.08	1.06452
1402.66	1.12454
1404.24	1.91645
1405.82	1.18552
1407.4	1.50353
1408.97	1.68375
1410.55	1.31124
1412.13	1.39305
1413.71	1.86905
1415.28	1.57433
1416.86	0.983363
1418.43	0.846034
1420.01	0.906144
1421.59	2.01068
1423.16	1.5018
1424.73	1.19138
1426.31	0.862381
1427.88	1.89189
1429.46	2.29131
1431.03	1.7648
1432.6	1.47351
1434.18	1.65366
1435.75	2.207
1437.32	1.52159
1438.89	1.91829
1440.46	2.7678
1442.04	1.96726
1443.61	2.0321
1445.18	2.31349
1446.75	1.82851
1448.32	2.09056
1449.89	2.39227
1451.46	2.77315
1453.03	2.13201
1454.6	2.65152
1456.16	2.18741
1457.73	2.13574
1459.3	2.18127
1460.87	1.91033
1462.44	2.18864
1464	2.46525
1465.57	1.99373
1467.14	2.09206
1468.7	1.58204
1470.27	1.64239
1471.83	1.62522
1473.4	1.07946
1474.96	1.02479
1476.53	1.22535
1478.09	1.30832
1479.66	0.861948
1481.22	0.964391
1482.78	0.949147
1484.35	0.914195
1485.91	0.780989
1487.47	1.05846
1489.04	0.355768
1490.6	0.630569
1492.16	0.942326
1493.72	0.939221
1495.28	0.603015
1496.84	0.695409
1498.4	0.826313
1499.96	0.316073
1501.52	0.89492
1503.08	0.310003
1504.64	0.327474
1506.2	0.751577
1507.76	0.574886
1509.32	0.223846
1510.88	0.0270586
1512.44	0.234767
1513.99	0.845806
1515.55	0.0523787
1517.11	0.777927
1518.66	0.428626
1520.22	0.214659
1521.78	0.135216
1523.33	-0.0589991
1524.89	0.777468
1526.44	0.581515
1528	0.632843
1529.55	0.246322
1531.11	0.772192
1532.66	0.216349
1534.21	0.0603147
1535.77	0.661962
1537.32	-0.00278139
1538.87	0.542275
1540.43	0.615159
1541.98	0.367739
1543.53	0.722911
1545.08	0.663613
1546.63	0.360108
1548.18	0.770036
1549.74	1.08538
1551.29	0.27685
1552.84	0.779692
1554.39	0.665654
1555.94	0.833059
1557.48	0.292419
1559.03	0.201569
1560.58	0.186805
1562.13	0.341115
1563.68	0.0111938
1565.23	0.465278
1566.78	0.65827
1568.32	0.533825
1569.87	1.00635
1571.42	0.675948
1572.96	0.793312
1574.51	1.0039
1576.05	0.915824
1577.6	0.790577
1579.14	0.758992
1580.69	0.877273
1582.24	0.884166
1583.78	1.56427
1585.32	0.937234
1586.87	1.13273
1588.41	0.580296
1589.95	0.663433
1591.5	1.38273
1593.04	1.67144
1594.58	1.39815
1596.12	1.16222
1597.67	1.65746
1599.21	1.40361
1600.75	1.07508
1602.29	1.59118
1603.83	1.33783
1605.37	1.45938
1606.91	1.37312
1608.45	1.43552
1609.99	0.875766
1611.53	1.21625
1613.07	1.12294
1614.6	1.27268
1616.14	1.57194
1617.68	0.934081
1619.22	1.0285
1620.75	1.21768
1622.29	0.846146
1623.83	1.07443
1625.37	0.759802
1626.9	1.39909
1628.44	1.2886
1629.97	1.38273
1631.51	1.15821
1633.04	1.47528
1634.58	1.32559
1636.11	1.30734
1637.65	1.3458
1639.18	1.25423
1640.72	1.61
1642.25	1.74139
1643.78	1.51792
1645.31	1.88913
1646.85	1.38512
1648.38	1.4576
1649.91	1.77171
1651.44	1.73369
1652.97	1.73388
1654.5	2.34683
1656.03	2.21854
1657.56	2.05317
1659.1	2.72063
1660.62	2.6828
1662.15	2.05167
1663.68	2.28922
1665.21	2.1011
1666.74	1.65528
1668.27	1.89339
1669.8	1.96664
1671.32	1.37784
1672.85	1.45341
1674.38	1.43723
1675.91	1.54968
1677.43	1.827
1678.96	1.4777
1680.49	1.82649
1682.01	1.12692
1683.54	0.813583
1685.06	1.45489
1686.59	0.903699
1688.11	1.06829
1689.64	1.10479
1691.16	0.775265
1692.68	0.0984149
1694.21	0.848847
1695.73	0.995091
1697.25	0.885166
1698.78	1.17681
1700.3	0.555271
1701.82	0.152971
1703.34	0.661975
1704.86	0.33215
1706.39	0.566519
1707.91	0.745736
1709.43	0.742954
1710.95	0.576917
1712.47	0.393167
1713.99	0.535933
1715.51	0.606099
1717.02	0.567564
1718.54	0.203685
1720.06	0.382056
1721.58	0.163347
1723.1	0.143712
1724.62	-0.253489
1726.13	0.575151
1727.65	0.576088
1729.17	0.613757
1730.68	0.239049
1732.2	0.437881
1733.72	0.05335
1735.23	0.163538
1736.75	0.0903068
1738.26	0.307778
1739.78	0.39495
1741.29	0.228311
1742.81	-0.162127
1744.32	0.643161
1745.84	0.267879
1747.35	0.494455
1748.86	0.211469
1750.37	0.409342
1751.89	0.231966
1753.4	0.281396
1754.91	-0.246211
1756.42	0.164186
1757.93	0.238954
1759.45	0.2995
1760.96	-0.142579
1762.47	0.265425
1763.98	0.191638
1765.49	-0.0075345
1767	0.283342
1768.51	0.0243616
1770.02	0.087719
1771.53	-0.195404
1773.03	-0.0794992
1774.54	0.463399
1776.05	-0.0977149
1777.56	0.0340638
1779.07	0.001791
1780.57	-0.0784721
1782.08	0.127217
1783.59	0.290798
1785.09	0.224719
1786.6	0.16428
1788.11	-0.0454712
1789.61	0.0462217
1791.12	0.0300031
1792.62	0.174192
1794.13	-0.00444126
1795.63	-0.0280042
1797.13	-0.0368538
1798.64	0.424056
1800.14	0.186569
1801.65	0.150896
1803.15	0.00194597
1804.65	-0.317204
1806.15	-0.00700235
1807.66	0.191811
1809.16	0.127381
1810.66	0.123375
1812.16	-0.00583267
1813.66	0.0703168
1815.16	0.0831995
1816.66	0.159003
1818.16	-0.00605392
1819.66	0.0959649
1821.16	0.198697
1822.66	0.0837312
1824.16	0.13014
1825.66	0.133009
1827.16	0.140014
1828.66	-0.101933
1830.16	0.00335455
1831.65	-0.0129623
1833.15	-0.100461
1834.65	0.0298791
1836.14	-0.125659
1837.64	-0.0453811
1839.14	-0.00659037
1840.63	-0.20775
1842.13	0.0325313
1843.62	0.171374
1845.12	-0.0682406
1846.61	-0.159237
1848.11	0.112295
1849.6	-0.0252748
1851.1	-0.136928
1852.59	0.046844
1854.08	0.0874577
1855.58	0.142872
1857.07	-0.0207257
1858.56	0.403307
1860.05	-0.0448689
1861.55	0.148537
1863.04	0.418788
1864.53	0.288536
1866.02	-0.0262356
1867.51	0.0532808
1869	0.275502
1870.49	0.1088
1871.98	0.157076
1873.47	0.334949
1874.96	0.117714
1876.45	0.0744467
1877.94	-0.0521116
1879.43	0.0898151
1880.92	0.105939
1882.41	-0.234192
1882.51	-0.259978
1884	0.0539927
1885.5	0.245156
1886.99	0.0522809
1888.48	0.2944
1889.98	0.101436
1891.47	0.205049
1892.96	-0.194377
1894.46	-0.175087
1895.95	-0.102491
1897.44	0.266416
1898.93	0.026566
1900.42	0.238197
1901.91	0.518147
1903.41	-0.0382009
1904.9	0.308678
1906.39	0.0638628
1907.88	-0.163364
1909.37	0.0266461
1910.86	0.0436959
1912.35	0.148154
1913.83	0.200974
1915.32	0.288528
1916.81	0.185082
1918.3	0.219923
1919.79	0.167757
1921.27	0.0289397
1922.76	0.0463524
1924.25	0.0817275
1925.74	0.117957
1927.22	0.483938
1928.71	0.0540433
1930.19	0.17815
1931.68	0.0938578
1933.17	-0.285887
1934.65	0.354525
1936.14	0.128033
1937.62	-0.0472565
1939.11	0.0883393
1940.59	0.137632
1942.07	0.0494518
1943.56	-0.175847
1945.04	0.237702
1946.52	0.0306754
1948.01	0.013176
1949.49	-0.29772
1950.97	-0.161387
1952.45	0.197799
1953.93	0.160574
1955.42	0.484185
1956.9	-0.0509543
1958.38	0.0500846
1959.86	0.0657988
1961.34	0.0476203
1962.82	-0.0560913
1964.3	-0.314049
1965.78	-0.00701952
1967.26	-0.0431271
1968.74	0.433449
1970.21	0.276495
1971.69	0.341594
1973.17	0.0651855
1974.65	0.0109735
1976.13	0.348985
1977.6	-0.0798025
1979.08	0.292059
1980.56	0.0680542
1982.03	0.18419
1983.51	0.265957
1984.99	0.0927391
1986.46	0.292719
1987.94	-0.0160375
1989.41	0.539552
1990.89	0.248749
1992.36	0.0435987
1993.84	0.278954
1995.31	-0.0260205
1996.78	0.0918884
1998.26	0.209698
1999.73	0.0569806
2001.2	0.00517797
2002.68	0.509644
2004.15	0.153734
2005.62	-0.336379
2007.09	0.18506
2008.56	0.0669971
2010.04	0.101162
2011.51	-0.0831151
2012.98	0.0356579
2014.45	-0.0478563
2015.92	0.170928
2017.39	-0.199749
2018.86	-0.100031
2020.33	0.385634
2021.8	0.299706
2023.26	-0.121591
2024.73	-0.156037
2026.2	0.0284553
2027.67	-0.0544076
2029.14	0.199292
2030.61	-0.0995407
2032.07	0.072063
2033.54	0.109851
2035.01	-0.32256
2036.47	0.017211
2037.94	-0.0128875
2039.4	0.0575423
2040.87	0.312868
2042.33	0.232309
2043.8	0.0681748
2045.27	0.291608
2046.73	0.431661
2048.19	0.268895
2049.66	0.30795
2051.12	0.295694
2052.59	-0.0550561
2054.05	0.419165
2055.51	0.504116
2056.97	0.250784
2058.44	0.0812645
2059.9	0.164409
2061.36	0.214115
2062.82	0.415898
2064.28	0.635209
2065.74	0.316755
2067.21	0.116774
2068.67	0.354812
2070.13	0.559481
2071.59	0.208687
2073.05	0.615381
2074.51	0.398904
2075.96	0.367374
2077.42	0.487122
2078.88	0.353956
2080.34	0.355159
2081.8	0.827349
2083.26	0.0532084
2084.72	0.221262
2086.17	0.203612
2087.63	0.0509949
2089.09	0.183906
2090.54	0.249341
2092	0.566476
2093.45	0.446941
2094.91	0.243484
2096.37	0.391854
2097.82	0.372031
2099.28	-0.150323
2100.73	0.0971417
2102.19	0.578317
2103.64	0.64198
2105.09	0.456238
2106.55	0.588725
2108	0.671927
2109.45	1.02216
2110.91	0.438258
2112.36	0.353652
2113.81	0.983896
2115.26	0.646845
2116.72	0.509132
2118.17	1.30207
2119.62	0.518044
2121.07	0.748443
2122.52	0.316808
2123.97	0.815079
2125.42	0.915824
2126.87	0.983191
2128.32	1.01657
2129.77	0.584841
2131.22	1.26213
2132.67	1.16004
2134.11	1.07458
2135.56	0.940242
2137.01	1.22041
2138.46	1.41935
2139.91	0.710894
2141.35	0.61516
2142.8	0.900619
2144.25	1.2199
2145.7	1.14237
2147.14	1.19699
2148.59	1.33394
2150.03	1.53651
2151.48	1.4732
2152.92	1.29305
2154.37	1.27791
2155.81	1.49432
2157.26	1.59478
2158.7	1.76209
2160.15	1.49984
2161.59	1.80236
2163.03	1.72541
2164.47	1.3179
2165.92	1.85686
2167.36	1.8981
2168.8	1.98836
2170.24	1.77777
2171.69	2.13081
2173.13	1.70029
2174.57	2.1003
2176.01	1.90096
2177.45	1.93463
2178.89	1.8027
2180.33	2.0374
2181.77	2.00687
2183.21	1.76067
2184.65	1.88055
2186.09	1.71773
2187.53	1.55487
2188.97	1.60833
2190.4	1.57857
2191.84	1.43203
2193.28	1.55124
2194.72	1.80253
2196.16	1.41966
2197.59	1.41805
2199.03	1.46488
2200.47	1.52738
2201.9	1.324
2203.34	1.25417
2204.77	1.23507
2206.21	1.59803
2207.64	1.06653
2209.08	1.29708
2210.51	1.27851
2211.95	1.0441
2213.38	1.05732
2214.82	0.921753
2216.25	0.88588
2217.68	1.19739
2219.12	0.866471
2220.55	0.76728
2221.98	0.750663
2223.41	0.71704
2224.85	0.847044
2226.28	0.448984
2227.71	0.527076
2229.14	0.768268
2230.57	0.877084
2232	0.788837
2233.43	0.766478
2234.86	0.72839
2236.29	0.642284
2237.72	0.818735
2239.15	0.653814
2240.58	0.229596
2242.01	0.654984
2243.44	0.428892
2244.87	0.594533
2246.29	0.417153
2247.72	0.466949
2249.15	0.417281
2250.58	0.561486
2252.01	0.525066
2253.43	0.601888
2254.86	0.370093
2256.29	0.529376
2257.71	0.349494
2259.14	0.25297
2260.56	0.59669
2261.99	0.423052
2263.41	0.75393
2264.84	0.419166
2266.26	0.620326
2267.69	0.316772
2269.11	0.207557
2270.53	-0.0162649
2271.96	0.199061
2273.38	0.5935
2274.8	0.173676
2276.23	0.161151
2277.65	0.425814
2279.07	-0.0918531
2280.49	0.205499
2281.91	0.307179
2283.34	0.164127
2284.76	0.184211
2286.18	0.269754
2287.6	0.404595
2289.02	0.556187
2290.44	0.152638
2291.86	0.451885
2293.28	0.342631
2294.7	0.396874
2296.12	0.123727
2297.54	0.325193
2298.96	0.0517716
2300.37	0.581338
2301.79	0.0457673
2303.21	0.47782
2304.63	0.368757
2306.04	0.0295992
2307.46	0.281374
2308.88	0.122025
2310.3	0.0607829
2311.71	0.295287
2313.13	0.18437
2314.54	-0.0909333
2315.96	0.309196
2317.37	0.232497
2318.79	0.0406542
2320.2	0.524668
2321.62	-0.295225
2323.03	0.120887
2324.45	-0.174248
2325.86	0.40356
2327.27	0.303545
2328.69	0.219534
2330.1	0.695769
2331.51	0.365485
2332.92	0.381919
2334.34	-0.0617251
2335.75	0.366892
2337.16	0.0877814
2338.57	0.153392
2339.98	0.316697
2341.39	0.16709
2342.8	-0.0319371
2344.21	-0.411128
2345.63	-0.297966
2347.04	0.355759
2348.45	0.239358
2349.85	0.171898
2351.26	0.103963
2352.67	0.280407
2354.08	0.145804
2355.49	0.0924602
2356.9	-0.123841
2358.3	0.359675
2359.71	0.1436
2361.12	0.187738
2362.53	-0.514034
2363.93	0.0488868
2365.34	0.303164
2366.75	-0.186385
2368.15	0.278054
2369.56	0.21005
2370.97	0.0464082
2372.37	-0.0838466
2373.77	0.269832
2375.18	-0.116941
2376.59	0.0755696
2377.99	0.0419941
2379.39	0.200165
2380.8	-0.0605273
2382.2	0.031075
2383.6	-0.0703793
2385.01	0.116163
2386.41	0.23862
2387.81	0.106106
2389.21	0.0225549
2390.62	-0.139612
2392.02	-0.0300713
2393.42	-0.174541
2394.82	0.158838
2396.22	-0.0162902
2397.62	0.0634403
2399.02	-0.206022
2400.42	-0.0937629
2401.82	0.256929
2403.22	-0.0594659
2404.62	0.386137
2406.02	0.227682
2407.42	-0.0582924
2408.82	0.115348
2410.22	-0.0601659
2411.62	0.271626
2413.01	-0.172288
2414.41	-0.345878
2415.81	0.130639
2417.21	-0.0251689
2418.6	0.278825
2420	0.203103
2421.4	0.554956
2422.79	0.13036
2424.19	0.0223355
2425.59	-0.117376
2426.98	0.250391
2428.38	-0.078599
2429.77	0.147939
2431.17	0.153032
2432.56	0.189998
2433.95	0.147202
2435.35	0.421295
2436.74	0.0588379
2438.14	-0.177647
2439.53	0.331608
2440.92	0.379397
2442.31	-0.160612
2443.71	0.0771112
2445.1	-0.129612
2446.49	-0.0667491
2447.88	-0.0991259
2449.27	-0.179013
2450.67	0.184651
2452.06	-0.258801
2453.45	0.46947
2454.84	0.201371
2456.23	-0.0977845
2457.62	0.204406
2459.01	-0.236941
2460.4	0.159575
2461.79	0.0494099
2463.18	0.0967855
2464.57	0.127898
2465.95	0.0639997
2467.34	-0.0946312
2468.73	-0.0796056
2470.12	0.0298848
2471.5	0.280801
2472.89	0.105588
2474.28	0.11895
2475.67	0.147542
2477.05	-0.0442362
2478.44	0.266795
2479.82	-0.0188608
2481.21	0.401638
2482.6	0.0693841
2483.98	0.300889
2485.37	0.0464911
2486.75	0.026135
2488.13	0.00503206
2489.52	0.154867
2490.9	0.288628
2492.29	-0.0594702
2493.67	0.0287576
2495.05	-0.00635433
2496.44	0.0524821
2497.82	0.297704
2499.2	0.388001
2500.58	-0.0943742
2501.97	-0.159284
2503.35	0.423747
2504.73	0.41881
2506.11	0.120644
2507.49	0.330844
2508.87	0.156313
2510.25	-0.125043
2511.63	0.116252
2513.01	0.250343
2514.39	0.047873
2515.77	0.0912132
2517.15	0.11975
2518.53	0.102779
2519.91	-0.219674
2521.29	-0.190699
2522.67	0.204106
2524.05	0.0486765
2525.42	-0.0460811
2526.8	-0.0799756
2528.18	-0.0526857
2529.55	0.00573301
2530.93	-0.0108056
2532.31	-0.0413427
2533.69	-0.511509
2535.06	0.0823331
2536.44	-0.18984
2537.81	0.0692344
2539.19	0.342725
2540.56	-0.0374141
2541.94	-0.0684938
2543.31	-0.0235152
2544.69	-0.00831366
2546.06	0.00773907
2547.44	0.221848
2548.81	0.254566
2550.18	0.0445685
2551.56	0.0921555
2552.93	0.169438
2554.3	0.10938
2555.67	0.0638504
2557.04	-0.148912
2558.42	-0.043232
2559.79	0.198997
2561.16	0.259619
2562.53	0.260067
2563.9	0.321555
2565.27	0.201507
2566.64	0.248327
2568.01	0.0981946
2569.38	0.402722
2570.75	-0.247602
2572.12	0.208523
2573.49	-0.0780144
2574.86	-0.000702381
2576.23	0.0766363
2577.6	0.093276
2578.97	-0.0115552
2580.33	0.171451
2581.7	0.126705
2583.07	0.142329
2584.44	0.0364881
2585.8	-0.0239053
2587.17	0.0370407
2588.54	0.0677886
2589.9	0.174378
2591.27	-0.113136
2592.64	-0.0221319
2594	0.356084
2595.37	-0.296426
2596.73	0.00445938
2598.1	-0.0737333
2599.46	-0.197474
2600.83	0.117176
2602.19	0.114682
2603.55	-0.128862
2604.92	0.246853
2606.28	-0.0111113
2607.64	-0.14849
2609.01	0.105514
2610.37	0.328233
2611.73	0.143283
2613.09	0.00289392
2614.46	-0.318054
2615.82	-0.218377
2617.18	0.450877
2618.54	-0.168697
2619.9	0.0962129
2621.26	-0.0125861
2622.62	0.357288
2623.98	0.174333
2625.34	0.0960255
2626.7	0.12202
2628.06	0.266933
2629.42	0.158266
2630.78	0.13887
2632.14	0.253204
2633.5	-0.0337586
2634.86	0.258555
2636.21	-0.0428424
2637.57	0.0414958
2638.93	-0.0371461
2640.29	0.135944
2641.64	-0.208483
2643	0.0830173
2644.36	0.0937257
2645.71	-0.0579281
2647.07	0.129405
2648.43	0.124449
2649.78	0.163042
2651.14	0.348053
2652.49	0.224031
2653.85	0.379158
2655.2	0.256039
2656.56	0.426854
2657.91	-0.0603514
2659.26	-0.0636044
2660.62	0.0211592
2661.97	0.091115
2663.32	0.0291038
2664.68	-0.179386
2666.03	0.122365
2667.38	-0.217952
2668.74	0.0974703
2670.09	0.0924749
2671.44	0.102388
2672.79	-0.0906863
2674.14	0.123517
2675.49	-0.141086
2676.84	0.0301991
2678.19	0.100289
2679.54	-0.0900669
2680.89	0.0248289
2682.24	0.111564
2683.59	0.315178
2684.94	0.0264335
2686.29	-0.247649
2687.64	-0.217215
2688.99	0.0737352
2690.34	0.0876889
2691.69	-0.10289
2693.03	0.300395
2694.38	-0.0659671
2695.73	0.0316782
2697.08	-0.174558
2698.42	0.141569
2699.77	-0.00456762
2701.12	0.357367
2702.46	0.372931
2703.81	0.17194
2705.15	0.0726361
2706.5	0.0312934
2707.85	0.047761
2709.19	0.107494
2710.54	0.239594
2711.88	-0.00611591
2713.22	0.140247
2714.57	0.315718
2715.91	0.09866
2717.26	0.303144
2718.6	0.0129161
2719.94	0.406176
2721.29	0.0715661
2722.63	0.071269
2723.97	0.303511
2725.31	0.418982
2726.66	0.315825
2728	0.692708
2729.34	0.443572
2730.68	0.529035
2732.02	0.338017
2733.36	0.307119
2734.7	0.189075
2736.04	0.376632
2737.38	0.346103
2738.72	0.344644
2740.06	0.0957766
2741.4	0.253735
2742.74	0.207629
2744.08	-0.202299
2745.42	0.302836
2746.76	0.357069
2748.09	0.236924
2749.43	0.0588636
2750.77	0.258172
2752.11	-0.267382
2753.45	-0.0097928
2754.78	0.146326
2756.12	0.172083
2757.46	0.357217
2758.79	-0.0655513
2760.13	0.105534
2761.46	-0.157216
2762.8	0.361794
2764.14	0.229863
2765.47	-0.0467467
2766.8	0.0669641
2768.14	0.237819
2769.47	0.494361
2770.81	0.171482
2772.14	0.0212564
2773.48	-0.0862155
2774.81	0.0655856
2776.14	0.0298271
2777.48	0.239033
2778.81	0.0744262
2780.14	-0.17578
2781.47	-0.224368
2782.8	-0.028862
2784.14	-0.0344524
2785.47	0.18926
2786.8	0.0833845
2788.13	0.178406
2789.46	-0.0265536
2790.79	0.112569
2792.12	-0.148174
2793.45	-0.379861
2794.78	0.274683
2796.11	0.157096
2797.44	0.0677319
2798.77	-0.079102
2800.1	0.0878525
2801.43	0.0690022
2802.76	0.434993
2804.09	-0.083137
2805.41	0.0541358
2806.74	0.361588
2808.07	0.426323
2809.4	0.0500598
2810.72	0.214027
2812.05	0.0801888
2813.38	0.245204
2814.71	0.28357
2816.03	0.408074
2817.36	0.363344
2818.68	0.389951
2820.01	0.317357
2821.33	0.371984
2822.66	0.411913
2823.98	0.0546341
2825.31	0.532961
2826.63	0.175586
2827.96	0.285979
2829.28	0.198577
2830.6	0.932591
2831.93	0.647531
2833.25	0.348298
2834.57	0.657477
2835.9	0.852989
2837.22	0.892363
2838.54	0.77576
2839.86	1.33786
2841.18	1.67354
2842.5	1.62779
2843.83	1.55436
2845.15	1.67943
2846.47	2.05943
2847.79	1.97339
2849.11	2.00045
2850.43	1.95658
2851.75	1.96883
2853.07	2.23503
2854.39	2.50083
2855.71	2.25775
2857.03	2.66456
2858.35	2.74645
2859.66	2.50348
2860.98	3.5595
2862.3	3.25956
2863.62	3.22757
2864.94	3.51988
2866.25	4.16468
2867.57	4.07606
2868.89	4.65063
2870.2	4.46418
2871.52	4.53169
2872.84	4.66938
2874.15	4.77807
2875.47	4.71657
2876.78	4.93557
2878.1	4.91427
2879.41	5.2021
2880.73	5.26505
2882.04	4.92139
2883.36	4.87406
2884.67	5.37538
2885.99	5.39984
2887.3	5.62088
2888.61	5.74312
2889.93	6.07486
2891.24	5.94269
2892.55	5.36146
2893.86	5.50904
2895.18	5.92294
2896.49	5.67954
2897.8	6.36103
2899.11	6.17596
2900.42	6.39756
2901.73	6.28395
2903.05	6.2965
2904.36	6.18333
2905.67	6.85378
2906.98	6.30796
2908.29	6.70024
2909.6	6.70184
2910.91	6.42421
2912.21	6.4824
2913.52	7.11383
2914.83	7.0018
2916.14	6.67791
2917.45	6.7863
2918.76	7.50916
2920.07	7.30829
2921.37	7.6396
2922.68	7.30116
2923.99	7.1321
2925.29	7.45355
2926.6	7.53808
2927.91	7.55281
2929.22	7.14775
2930.52	7.63683
2931.83	7.59416
2933.13	7.1319
2934.44	7.41047
2935.74	7.87083
2937.05	7.67452
2938.35	7.38064
2939.66	6.68187
2940.96	7.25526
2942.26	7.4663
2943.57	6.91001
2944.87	6.22912
2946.18	6.50004
2947.48	5.84841
2948.78	6.60973
2950.08	5.83032
2951.39	5.90301
2952.69	5.44171
2953.99	5.27314
2955.29	5.11828
2956.59	5.21624
2957.9	5.06424
2959.2	5.20886
2960.5	4.58586
2961.8	4.5949
2963.1	4.54863
2964.4	4.41759
2965.7	4.53796
2967	4.26341
2968.3	4.43731
2969.6	4.09033
2970.9	4.01032
2972.19	3.66329
2973.49	3.75267
2974.79	3.36354
2976.09	3.50873
2977.39	3.37125
2978.68	2.90844
2979.98	3.2889
2981.28	2.89404
2982.58	2.69595
2983.87	2.5827
2985.17	2.76565
2986.47	2.4721
2987.76	2.08157
2989.06	2.36644
2990.35	1.62571
2991.65	2.1073
2992.94	1.80104
2994.24	1.53603
2995.53	1.56525
2996.83	1.21482
2998.12	1.32767
2999.42	1.13207
3000.71	1.14743
3002	1.03714
3003.3	1.3477
3004.59	0.887753
3005.88	0.904076
3007.18	0.933967
3008.47	0.76735
3009.76	0.726122
3011.05	0.530726
3012.34	0.670425
3013.64	0.433298
3014.93	0.37813
3016.22	0.449011
3017.51	0.283764
3018.8	0.0217686
3020.09	0.205216
3021.38	0.541091
3022.67	-0.0407281
3023.96	-0.0533085
3025.25	-0.0386128
3026.54	0.0867648
3027.83	-0.161282
3029.12	-0.131514
3030.41	-0.073009
3031.69	0.179917
3032.98	-0.00825167
3034.27	0.0386424
3035.56	0.209364
3036.84	0.186003
3038.13	-0.155419
3039.42	-0.043323
3040.71	-0.0562367
3041.99	-0.0696936
3043.28	-0.110483
3044.57	0.164365
3045.85	-0.161736
3047.14	-0.00742531
3048.42	-0.110929
3049.71	0.0738888
3050.99	0.041543
3052.28	0.0781488
3053.56	0.101218
3054.85	0.0556989
3056.13	-0.263202
3057.41	0.044549
3058.7	-0.043591
3059.98	0.195065
3061.26	0.18886
3062.55	0.346689
3063.83	0.328782
3065.11	0.29857
3066.39	-0.0703659
3067.68	0.173325
3068.96	-0.0448766
3070.24	0.158428
3071.52	0.279629
3072.8	0.168842
3074.08	0.0437098
3075.36	0.108348
3076.65	-0.0308957
3077.93	0.0339928
3079.21	0.0590081
3080.49	0.0852075
3081.77	-0.0365644
3083.04	0.019032
3084.32	0.0209942
3085.6	0.091011
3086.88	-0.164923
3088.16	0.18955
3089.44	0.0278783
3090.72	0.0831614
3091.99	-0.241412
3093.27	-0.0366259
3094.55	0.11418
3095.83	0.0076561
3097.1	-0.0172906
3098.38	0.0120869
3099.66	0.000849247
3100.93	-0.199947
3102.21	0.16834
3103.49	0.130602
3104.76	0.0933943
3106.04	0.219268
3107.31	0.318853
3108.59	0.284009
3109.86	0.0876393
3111.14	0.0409513
3112.41	0.19809
3113.69	0.315155
3114.96	0.12063
3116.23	0.346203
3117.51	0.313725
3118.78	0.402693
3120.05	0.35539
3121.33	0.619421
3122.6	0.137633
3123.87	0.753478
3125.14	0.59733
3126.41	0.523023
3127.69	0.341123
3128.96	0.403343
3130.23	0.452416
3131.5	0.501745
3132.77	0.672736
3134.04	0.667922
3135.31	0.716891
3136.58	0.549742
3137.85	0.908422
3139.12	0.794995
3140.39	0.695253
3141.66	0.891809
3142.93	0.698794
3144.2	0.922812
3145.47	0.852034
3146.74	0.956339
3148	0.766437
3149.27	0.791663
