200.398	-0.0607471
202.213	-0.024271
204.027	0.0150051
205.843	0.226074
207.657	0.850634
209.47	0.0643063
211.283	-0.0430813
213.097	-0.00691414
214.909	-0.191071
216.721	-0.618433
218.533	0.553276
220.344	-0.284622
222.157	0.718336
223.967	0.125944
225.777	-0.0300312
227.587	0.780458
229.396	0.261482
231.205	0.00743484
233.016	0.621475
234.824	-0.163208
236.632	-0.174042
238.439	0.541437
240.247	0.561981
242.053	2.27415
243.86	2.44623
245.666	1.60474
247.474	2.40158
249.279	1.28621
251.085	2.26575
252.889	2.29834
254.694	2.64109
256.498	3.85047
258.301	3.32499
260.105	2.48979
261.908	3.24833
263.71	2.97412
265.513	2.96691
267.315	1.73122
269.116	2.13357
270.918	2.07644
272.718	1.58312
274.519	1.83461
276.319	1.28755
278.119	2.30377
279.918	2.97816
281.718	0.42251
283.516	1.571
285.315	1.46538
287.113	1.09441
288.911	0.700047
290.708	0.403391
292.505	1.28215
294.302	0.631384
296.098	0.67713
297.894	0.652916
299.69	0.62953
301.485	0.366947
303.278	0.341806
305.073	0.38616
306.867	0.691126
308.661	0.0416832
310.454	0.251406
312.247	1.24875
314.04	0.795742
315.833	0.250668
317.623	0.613361
319.415	-0.0694199
321.206	0.297791
322.997	0.428129
324.788	0.583147
326.579	-0.503117
328.367	0.941265
330.156	0.449877
331.946	0.266846
333.735	0.415714
335.523	-0.252592
337.31	0.104147
339.098	0.170155
340.885	0.616035
342.673	-0.326429
344.458	-0.0258636
346.244	0.0840702
348.03	-0.545254
349.816	-0.123138
351.6	0.107813
353.385	0.504736
355.17	0.42252
356.953	0.791082
358.737	0.489656
360.521	0.186537
362.304	0.0963459
364.085	0.123817
365.868	0.173702
367.65	-1.08336
369.431	-0.110544
371.212	0.0297127
372.994	0.381321
374.773	0.40052
376.554	1.03339
378.332	-0.527338
380.112	-0.0576
381.892	0.130634
383.669	0.0853958
385.448	0.559443
387.225	1.50499
389.003	0.290617
390.781	0.675512
392.557	0.709356
394.334	1.28434
396.109	1.43721
397.885	2.24786
399.66	0.944351
401.436	2.34108
403.211	2.23339
404.984	2.31215
406.759	1.19184
408.532	2.72377
410.306	2.07138
412.078	1.27843
413.851	1.91777
415.623	2.3705
417.395	3.62248
419.166	2.38841
420.938	2.86786
422.708	2.61927
424.477	3.00315
426.248	3.22093
428.017	3.17879
429.788	1.84464
431.556	1.05043
433.326	1.28946
435.093	0.942286
436.86	0.595045
438.629	0.669056
440.395	0.294727
442.163	1.09
443.929	1.36492
445.694	0.113396
447.461	0.640522
449.226	-0.634795
450.99	0.00801277
452.756	-0.330301
454.52	0.825098
456.285	0.953049
458.048	0.311964
459.811	0.509642
461.573	0.615053
463.337	0.11858
465.099	0.184067
466.86	0.649288
468.623	-0.159054
470.384	-0.0812206
472.144	0.370087
473.906	-0.925447
475.666	0.0575314
477.425	0.268633
479.184	0.220276
480.944	0.007061
482.703	0.515999
484.461	0.188337
486.218	1.26156
487.975	0.614634
489.734	-0.00617218
491.491	0.0741062
493.247	0.0621796
495.003	0.424749
496.759	-0.125076
498.516	0.659075
500.271	0.482355
502.025	0.186855
503.779	0.781906
505.533	1.42278
507.287	0.0395947
509.042	0.463924
510.795	0.956301
512.547	0.881237
514.299	0.285837
516.051	1.02913
517.803	1.8639
519.554	1.61479
521.305	0.730047
523.055	0.761168
524.805	1.33165
526.555	1.4088
528.307	1.25139
530.056	2.12507
531.805	1.54489
533.553	1.59591
535.301	0.475174
537.049	1.34021
538.797	1.26716
540.544	1.19205
542.291	1.13887
544.037	1.13157
545.783	0.58971
547.529	0.258278
549.275	0.994385
551.02	0.849234
552.765	0.820341
554.509	0.976662
556.253	0.463682
557.997	1.26682
559.738	0.410482
561.482	0.753609
563.224	0.568127
564.967	-0.696398
566.709	0.453743
568.451	0.915134
570.192	0.368214
571.933	0.420534
573.674	0.728016
575.415	0.21278
577.153	0.0903797
578.893	0.658878
580.632	0.356546
582.371	0.628618
584.11	-0.0885105
585.849	0.755915
587.587	0.494419
589.323	-0.505554
591.06	0.40234
592.797	0.0898685
594.534	0.812418
596.271	0.0625534
598.005	-0.0891705
599.741	1.09284
601.476	-0.326195
603.211	-0.206013
604.944	0.256449
606.679	0.0268097
608.413	-0.36482
610.147	0.276478
611.878	0.550831
613.611	0.940897
615.344	0.552639
617.077	0.691965
618.807	1.17385
620.539	0.417231
622.27	0.80303
623.999	0.272314
625.73	-0.394863
627.461	0.424494
629.189	0.561848
630.919	0.612041
632.648	0.163925
634.376	0.0372066
636.105	0.640448
637.833	0.875553
639.559	0.421118
641.287	0.326658
643.013	0.296312
644.74	0.400234
646.467	0.822832
648.192	0.0432911
649.918	0.678764
651.642	0.593792
653.368	0.72039
655.091	1.0125
656.816	0.945129
658.538	0.400841
660.263	0.881561
661.987	0.720978
663.708	0.807409
665.432	0.340809
667.153	0.625093
668.875	0.999475
670.596	0.00255585
672.318	0.289934
674.037	0.742262
675.759	0.121984
677.478	-0.198896
679.196	0.214886
680.917	0.788757
682.635	-0.296041
684.355	0.962017
686.072	-0.246405
687.791	-0.283646
689.508	0.253082
691.224	-0.0637417
692.942	0.217218
694.658	-0.378376
696.376	0.613407
698.091	-0.69949
699.805	-0.172684
701.522	0.512529
703.236	-0.0229034
704.95	0.244963
706.665	-1.00327
708.379	0.707979
710.093	0.30769
711.806	0.250845
713.518	0.102016
715.23	0.227304
716.943	-0.195778
718.655	0.226105
720.366	1.39965
722.078	0.294176
723.788	0.510386
725.498	0.316803
727.208	0.690872
728.919	-0.184641
730.628	1.23049
732.337	0.241396
734.045	0.0684071
735.755	0.777277
737.463	0.920876
739.17	-0.0400715
740.877	0.557673
742.584	0.413256
744.292	0.383923
745.998	1.14476
747.704	0.512781
749.409	-0.0265636
751.114	0.740955
752.819	0.768536
754.526	1.09103
756.23	1.12384
757.934	0.889309
759.637	0.904987
761.34	0.2013
763.043	-0.163996
764.746	1.32131
766.448	0.298771
768.152	1.30643
769.853	1.49692
771.554	1.05055
773.255	0.782455
774.956	1.05615
776.656	1.42115
778.356	0.748318
780.056	1.57067
781.755	1.89785
783.454	1.68248
785.153	1.39714
786.851	1.7188
788.549	1.49151
790.247	1.28104
791.944	1.51791
793.641	0.96101
795.338	1.08131
797.034	0.819744
798.73	0.854233
800.426	1.00441
802.121	1.24699
803.817	0.950899
805.511	0.340117
807.206	1.52607
808.9	1.72054
810.592	1.68821
812.286	1.6093
813.979	1.19333
815.672	1.15814
817.364	1.16764
819.057	1.87004
820.748	1.45503
822.44	1.62149
824.129	1.96752
825.82	1.84766
827.511	1.33088
829.201	1.28701
830.891	0.290928
832.581	1.95057
834.269	1.54264
835.958	1.47077
837.646	1.73333
839.335	0.386459
841.023	2.14051
842.709	1.0333
844.396	1.3548
846.084	1.09644
847.77	0.662153
849.455	1.28329
851.141	1.59641
852.827	1.57755
854.513	1.11174
856.196	-0.00663948
857.881	2.06352
859.566	1.32154
861.248	0.7778
862.932	0.83873
864.616	0.581865
866.297	1.56305
867.98	0.649427
869.663	0.839695
871.343	0.713663
873.026	1.42196
874.707	0.505707
876.387	0.153416
878.068	0.545858
879.747	0.644808
881.428	0.630257
883.108	0.749887
884.786	0.57411
886.465	1.4566
888.143	1.04967
889.822	0.752838
891.498	0.769127
893.177	0.760365
894.855	1.24445
896.53	0.826454
898.208	0.923866
899.883	1.01934
901.56	0.530458
903.234	-0.0477543
904.91	0.380737
906.584	0.429123
908.26	0.389259
909.933	0.529261
911.608	0.203371
913.28	0.168375
914.955	0.73358
916.627	0.632368
918.298	0.154444
919.972	0.275381
921.643	0.839554
923.315	1.29428
924.986	0.757389
926.656	0.136223
928.328	0.644308
929.997	0.624878
931.668	0.739136
933.337	0.589203
935.006	0.792564
936.676	1.28336
938.344	1.22437
940.012	1.76323
941.681	0.826578
943.348	1.61212
945.014	1.3605
946.683	0.885921
948.349	0.142998
950.015	-0.00739098
951.682	0.700386
953.347	0.569649
955.012	0.419727
956.676	1.15697
958.343	1.01836
960.006	1.32654
961.67	1.06399
963.333	0.204163
964.998	0.534542
966.661	-0.268072
968.323	0.20719
969.985	0.899677
971.649	0.50631
973.31	0.578285
974.971	0.918297
976.632	1.28395
978.293	0.5909
979.953	0.783966
981.615	0.976479
983.274	0.657373
984.933	1.41926
986.592	1.31367
988.251	1.22668
989.909	0.34116
991.567	1.93053
993.225	1.83903
994.884	1.57117
996.541	2.47316
998.198	2.44799
999.855	3.1055
1001.51	4.24583
1003.17	3.31501
1004.82	2.89055
1006.48	2.46639
1008.13	1.71367
1009.79	2.38904
1011.44	1.57315
1013.1	2.00847
1014.75	2.79454
1016.4	0.82221
1018.06	0.975386
1019.71	1.61115
1021.36	1.50517
1023.01	2.16655
1024.66	2.15222
1026.32	1.50545
1027.97	1.38331
1029.62	2.13382
1031.27	1.63661
1032.92	1.35479
1034.57	1.89895
1036.22	2.43953
1037.87	2.43281
1039.52	2.05578
1041.16	2.05042
1042.81	2.46077
1044.46	3.11335
1046.11	2.53163
1047.76	3.88709
1049.4	3.63906
1051.05	4.43644
1052.7	5.27945
1054.34	4.9721
1055.99	5.208
1057.63	3.66074
1059.28	3.54685
1060.92	3.69241
1062.57	2.83599
1064.21	1.8254
1065.85	2.18245
1067.5	1.58074
1069.14	2.23743
1070.78	1.50232
1072.43	1.13655
1074.07	1.46634
1075.71	1.0171
1077.35	1.35152
1078.99	1.97035
1080.63	0.942766
1082.27	0.826012
1083.91	1.40141
1085.55	1.60479
1087.19	1.47879
1088.83	1.47853
1090.47	1.66925
1092.11	0.516829
1093.75	0.747654
1095.39	1.8629
1097.03	0.929911
1098.66	1.09978
1100.3	0.713249
1101.94	0.933519
1103.57	0.963678
1105.21	1.08262
1106.84	0.407015
1108.48	1.08584
1110.11	1.24626
1111.75	0.586605
1113.38	1.01981
1115.02	0.784359
1116.65	0.612307
1118.29	1.1052
1119.92	0.549019
1121.55	0.0597572
1123.19	0.900061
1124.82	1.33525
1126.45	1.04475
1128.08	0.328341
1129.71	1.19585
1131.34	0.247135
1132.97	0.474993
1134.6	0.339191
1136.23	-0.545832
1137.86	-0.364155
1139.49	-0.334436
1141.12	0.397793
1142.75	-0.130787
1144.38	0.791708
1146.01	-0.758276
1147.64	0.145617
1149.26	0.518076
1150.89	0.252367
1152.52	-0.2048
1154.15	-0.257912
1155.77	0.475681
1157.4	0.102171
1159.02	-0.100271
1160.65	0.422077
1162.27	1.28672
1163.9	0.962744
1165.52	0.342222
1167.15	0.614254
1168.77	0.67153
1170.39	-0.146097
1172.02	0.541359
1173.64	0.842218
1175.26	0.694469
1176.89	0.566956
1178.51	-0.110731
1180.13	0.272322
1181.75	0.381676
1183.37	0.428873
1184.99	0.476147
1186.61	0.352592
1188.23	1.00657
1189.85	1.06501
1191.47	1.41397
1193.09	0.518192
1194.71	0.399939
1196.33	1.22547
1197.94	0.878078
1199.56	0.953438
1201.18	0.908205
1202.8	0.8269
1204.41	1.27294
1206.03	2.05713
1207.65	0.674404
1209.26	0.439978
1210.88	1.58055
1212.49	1.65361
1214.11	1.59678
1215.72	1.18116
1217.34	1.74006
1218.95	2.58645
1220.57	1.89453
1222.18	1.78613
1223.79	1.6599
1225.41	2.51029
1227.02	2.45247
1228.63	1.94283
1230.24	2.28412
1231.85	1.86304
1233.47	2.02347
1235.08	3.11665
1236.69	2.76581
1238.3	3.61627
1239.91	2.50427
1241.52	2.28158
1243.13	2.72014
1244.74	3.19856
1246.34	3.15747
1247.95	2.61745
1249.56	3.39995
1251.17	2.40239
1252.78	2.85347
1254.38	1.94093
1255.99	2.83027
1257.6	3.06056
1259.2	1.96927
1260.81	2.45247
1262.42	2.89571
1264.02	2.32435
1265.63	2.76714
1267.23	2.50384
1268.84	2.63227
1270.44	2.44743
1272.04	2.90301
1273.65	1.82206
1275.25	2.35608
1276.85	2.20394
1278.46	2.21582
1280.06	1.77079
1281.66	2.23612
1283.26	2.47367
1284.86	2.33995
1286.46	2.51836
1288.07	2.2236
1289.67	1.72432
1291.27	2.92072
1292.87	2.6911
1294.47	2.60458
1296.06	2.49466
1297.66	2.91801
1299.26	1.97553
1300.86	3.44312
1302.46	3.79317
1304.06	3.25541
1305.65	3.18989
1307.25	3.36974
1308.85	2.83048
1310.44	2.74317
1312.04	3.08678
1313.64	3.81997
1315.23	3.08279
1316.83	3.02284
1318.42	3.73955
1320.02	4.2919
1321.61	2.86541
1323.2	3.61558
1324.8	3.40475
1326.39	3.5363
1327.99	3.40253
1329.58	2.88557
1331.17	3.80925
1332.76	3.34198
1334.36	3.3652
1335.95	3.45275
1337.54	3.66259
1339.13	3.24594
1340.72	3.39012
1342.31	3.14681
1343.9	3.36182
1345.49	3.19218
1347.08	2.30119
1348.67	3.5992
1350.26	3.11918
1351.85	3.22579
1353.43	2.73729
1355.02	3.59133
1356.61	3.14701
1358.2	2.62211
1359.78	2.87425
1361.37	2.98401
1362.96	3.35101
1364.54	2.40095
1366.13	2.80736
1367.71	2.61769
1369.3	2.37117
1370.88	2.42651
1372.47	2.54465
1374.05	2.10821
1375.64	2.76773
1377.22	2.65153
1378.8	3.03171
1380.39	2.27545
1381.97	2.09341
1383.55	2.2864
1385.13	2.27819
1386.72	2.58679
1388.3	1.74364
1389.88	1.93483
1391.46	1.73103
1393.04	1.86637
1394.62	2.55789
1396.2	2.35644
1397.78	1.08311
1399.36	1.94856
1400.94	2.21694
1402.52	2.62225
1404.1	2.90829
1405.68	2.77994
1407.25	2.51533
1408.83	2.3912
1410.41	2.1301
1411.98	2.18507
1413.56	2.04133
1415.14	2.27057
1416.71	2.30046
1418.29	3.09805
1419.87	2.28013
1421.44	3.31627
1423.02	3.37108
1424.59	2.79994
1426.16	3.68832
1427.74	3.06253
1429.31	3.04634
1430.89	3.83506
1432.46	4.20761
1434.03	4.14482
1435.6	4.27761
1437.18	4.35177
1438.75	4.95836
1440.32	4.95794
1441.89	5.31367
1443.46	5.69084
1445.03	4.67361
1446.6	6.21195
1448.17	5.84416
1449.74	5.73259
1451.31	4.65871
1452.88	5.31642
1454.45	5.22789
1456.02	4.92285
1457.59	4.95077
1459.16	4.07035
1460.72	4.01241
1462.29	4.46158
1463.86	4.67047
1465.43	5.03366
1466.99	4.07935
1468.56	4.42268
1470.13	3.7081
1471.69	3.72262
1473.26	3.22975
1474.82	3.44491
1476.38	1.93562
1477.95	2.48546
1479.51	2.74102
1481.08	2.46709
1482.64	2.52621
1484.2	1.7229
1485.77	2.70182
1487.33	2.0922
1488.89	2.61554
1490.46	1.54926
1492.02	1.84819
1493.58	2.27837
1495.14	1.63045
1496.7	1.46867
1498.26	1.05373
1499.82	0.951977
1501.38	1.68753
1502.94	1.29938
1504.5	1.47588
1506.06	0.839691
1507.62	1.28638
1509.18	1.3049
1510.73	1.24363
1512.29	1.00706
1513.85	0.404554
1515.41	0.572775
1516.96	0.972258
1518.52	0.624573
1520.08	1.06444
1521.63	0.70015
1523.19	1.11969
1524.75	1.25018
1526.3	1.14932
1527.85	1.37037
1529.41	1.22819
1530.96	1.0104
1532.52	0.832184
1534.07	0.656399
1535.62	1.05074
1537.18	2.29654
1538.73	0.483604
1540.28	1.27735
1541.84	1.09022
1543.39	1.29849
1544.94	1.16746
1546.49	1.78754
1548.04	1.78679
1549.59	1.42979
1551.14	1.91656
1552.69	2.10421
1554.25	2.18146
1555.79	1.85088
1557.34	2.17801
1558.89	1.89357
1560.44	1.48304
1561.99	2.6432
1563.54	1.73525
1565.08	2.11591
1566.63	2.08643
1568.18	1.23522
1569.73	2.21225
1571.27	2.75923
1572.82	2.98825
1574.37	1.91023
1575.91	2.69901
1577.46	3.56298
1579	2.52371
1580.55	2.64333
1582.09	2.24185
1583.64	3.13112
1585.18	3.03227
1586.73	3.00931
1588.27	2.98672
1589.81	3.43146
1591.35	2.24702
1592.9	2.91447
1594.44	4.19974
1595.98	3.2563
1597.52	3.92503
1599.06	2.83339
1600.61	3.8434
1602.15	3.93592
1603.69	4.04733
1605.23	3.48099
1606.77	2.91107
1608.31	4.06567
1609.85	3.14747
1611.39	3.42671
1612.93	3.55082
1614.46	2.90217
1616	3.00349
1617.54	3.63053
1619.08	2.61092
1620.61	2.49456
1622.15	2.84952
1623.69	2.88807
1625.23	2.3465
1626.76	3.0948
1628.3	2.34305
1629.83	1.73837
1631.37	2.83272
1632.9	2.93487
1634.44	3.56021
1635.97	2.32098
1637.51	2.80078
1639.04	3.33765
1640.57	3.79975
1642.11	3.01194
1643.64	2.632
1645.17	3.04992
1646.71	3.70691
1648.24	3.45165
1649.77	2.6034
1651.3	4.02241
1652.83	3.56949
1654.36	2.93426
1655.89	3.45016
1657.42	3.31714
1658.96	3.47885
1660.48	3.71148
1662.01	3.44093
1663.54	3.40835
1665.07	3.30057
1666.6	3.56282
1668.13	3.21857
1669.66	2.45425
1671.19	3.51815
1672.71	3.29455
1674.24	2.63029
1675.77	2.66552
1677.29	2.69897
1678.82	3.06108
1680.35	2.8504
1681.87	2.61983
1683.4	2.16838
1684.92	2.04798
1686.45	2.33196
1687.97	1.8285
1689.5	2.40734
1691.02	1.10026
1692.54	1.77117
1694.07	1.67305
1695.59	1.42841
1697.11	0.94593
1698.64	1.24852
1700.16	1.22129
1701.68	1.24767
1703.2	1.0176
1704.72	2.20706
1706.25	1.13733
1707.77	1.03226
1709.29	1.90802
1710.81	-0.175692
1712.33	0.555117
1713.85	0.868353
1715.37	0.131277
1716.89	-0.134418
1718.41	0.630205
1719.92	0.779442
1721.44	0.712282
1722.96	0.376003
1724.48	0.925222
1725.99	0.486275
1727.51	0.770681
1729.03	0.139383
1730.55	0.177425
1732.06	0.163172
1733.58	0.0591431
1735.09	0.777563
1736.61	0.279076
1738.13	0.175657
1739.64	0.46081
1741.15	-0.199291
1742.67	0.687525
1744.18	-0.137552
1745.7	-0.150223
1747.21	-0.0804195
1748.72	0.275427
1750.24	0.242153
1751.75	-0.255331
1753.26	-0.220573
1754.77	-0.134846
1756.29	0.215698
1757.8	0.217087
1759.31	0.183512
1760.82	-0.0529652
1762.33	0.365009
1763.84	0.369816
1765.35	0.209209
1766.86	0.795918
1768.37	0.0695992
1769.88	0.632256
1771.39	0.0340214
1772.9	0.489271
1774.4	0.253578
1775.91	0.0912781
1777.42	-0.293198
1778.93	-0.0177116
1780.44	0.077013
1781.94	0.0246105
1783.45	0.237682
1784.96	0.380625
1786.46	0.0117722
1787.97	-0.36252
1789.47	-0.328802
1790.98	0.133753
1792.48	0.0911865
1793.99	0.222664
1795.49	0.489759
1797	0.444315
1798.5	-0.0181122
1800.01	0.381598
1801.51	0.151714
1803.01	0.213085
1804.51	0.210871
1806.02	0.253185
1807.52	0.268169
1809.02	0.214304
1810.52	0.15892
1812.02	0.224924
1813.52	-0.0466614
1815.02	-0.0587444
1816.53	0.452003
1818.03	0.340061
1819.52	0.20722
1821.02	0.221123
1822.52	0.331259
1824.02	0.376431
1825.52	-0.105322
1827.02	0.22566
1828.52	0.306116
1830.02	0.0862617
1831.51	0.11783
1833.01	0.25211
1834.51	0.280445
1836.01	0.269979
1837.5	0.113791
1839	0.125168
1840.49	0.435516
1841.99	0.522738
1843.49	0.370403
1844.98	0.0296001
1846.48	0.329885
1847.97	0.215551
1849.47	0.283968
1850.96	0.024332
1852.45	0.403301
1853.95	0.208078
1855.44	0.168303
1856.93	0.0147915
1858.42	0.397009
1859.92	0.0925198
1861.41	0.345186
1862.9	0.0667915
1864.39	0.305803
1865.88	0.285032
1867.38	0.505886
1868.87	0.349775
1870.36	0.0661774
1871.85	-0.485619
1873.34	-0.283535
1874.83	0.0283318
1876.32	-0.12092
1877.81	0.172192
1879.29	-0.0824394
1880.78	0.130053
1882.27	-0.112629
1882.53	-0.181221
1884.03	0.740698
1885.52	0.509979
1887.01	-0.053524
1888.51	0.757589
1890	0.802811
1891.5	0.519989
1892.99	0.623734
1894.48	-0.120039
1895.97	-0.147337
1897.47	-0.120497
1898.96	-0.337423
1900.45	-0.174004
1901.94	0.00307846
1903.43	0.280325
1904.92	0.29323
1906.41	0.49539
1907.9	0.176346
1909.39	0.588076
1910.88	0.290352
1912.37	0.498026
1913.86	0.342773
1915.35	0.395903
1916.84	0.794975
1918.33	-0.540623
1919.81	0.15077
1921.3	0.131371
1922.79	0.649769
1924.28	-0.163004
1925.76	0.446629
1927.25	-0.101107
1928.73	-0.301125
1930.22	-0.154924
1931.71	0.837997
1933.19	-0.198511
1934.68	0.319223
1936.16	0.486574
1937.65	0.823826
1939.13	-0.136328
1940.62	0.235071
1942.1	0.0558224
1943.58	0.206984
1945.07	-0.105503
1946.55	0.169228
1948.03	0.0985985
1949.51	0.07798
1951	0.296114
1952.48	0.288153
1953.96	-0.873209
1955.44	0.217896
1956.92	0.106417
1958.4	-0.930079
1959.88	0.369164
1961.36	0.142456
1962.84	-0.237831
1964.32	0.392624
1965.8	0.49048
1967.28	-0.320478
1968.76	0.0995445
1970.24	-0.5079
1971.72	-0.243975
1973.2	0.804596
1974.67	0.982069
1976.15	0.0859795
1977.63	0.23052
1979.1	-0.118477
1980.58	-0.092844
1982.06	0.187342
1983.54	0.109753
1985.01	0.320068
1986.49	0.427725
1987.96	-0.0748882
1989.44	0.64329
1990.91	0.0421066
1992.39	0.661619
1993.86	0.133371
1995.33	-0.0545197
1996.81	0.299347
1998.28	-0.292826
1999.75	0.498777
2001.23	0.0564651
2002.7	-0.352829
2004.17	0.40118
2005.65	0.177977
2007.12	0.832592
2008.59	0.781837
2010.06	0.716368
2011.53	-0.273623
2013	-0.303846
2014.47	0.203495
2015.94	-0.0650654
2017.41	0.942635
2018.88	0.182444
2020.35	1.06833
2021.82	0.172884
2023.29	0.319811
2024.76	0.0993595
2026.23	0.200523
2027.69	-0.0639668
2029.16	-0.10693
2030.63	0.239016
2032.1	0.134323
2033.56	0.400002
2035.03	-0.106628
2036.5	-0.396099
2037.96	-0.115606
2039.43	0.11372
2040.89	0.410259
2042.36	0.556524
2043.83	0.469166
2045.29	-0.693048
2046.75	0.569685
2048.22	0.099453
2049.68	0.436979
2051.15	0.1486
2052.61	0.42989
2054.07	0.926258
2055.54	-0.200392
2057	0.844976
2058.46	0.893538
2059.92	0.318491
2061.39	-0.440334
2062.85	0.183456
2064.31	-0.166822
2065.77	0.360371
2067.23	0.233177
2068.69	0.831074
2070.15	0.167383
2071.61	-0.361654
2073.07	0.354847
2074.53	0.532061
2075.99	1.19689
2077.45	0.530523
2078.91	-0.00203323
2080.37	0.474762
2081.82	-0.262026
2083.28	0.615894
2084.74	1.17194
2086.2	0.060545
2087.65	0.445118
2089.11	-0.213564
2090.57	0.438141
2092.02	-0.119747
2093.48	-0.677237
2094.94	0.425573
2096.39	-0.217043
2097.85	-0.022871
2099.3	0.0692158
2100.76	0.294249
2102.21	0.034874
2103.66	0.479086
2105.12	0.0745678
2106.57	0.0239067
2108.03	0.225834
2109.48	0.345057
2110.93	-0.287128
2112.38	0.427929
2113.84	-0.0272732
2115.29	-0.0361195
2116.74	0.751034
2118.19	0.0260563
2119.64	0.483673
2121.09	-0.000499725
2122.54	0.00097847
2123.99	0.13834
2125.45	-0.0876656
2126.89	0.249514
2128.34	0.103668
2129.79	-0.161114
2131.24	0.184315
2132.69	0.395214
2134.14	0.208792
2135.59	0.123541
2137.04	0.107712
2138.48	-0.333736
2139.93	0.0221977
2141.38	-0.180246
2142.83	-0.0329914
2144.27	0.148872
2145.72	-0.512878
2147.17	0.165323
2148.61	0.428596
2150.06	0.275961
2151.5	1.11524
2152.95	0.428068
2154.39	0.352158
2155.84	-0.0726318
2157.28	-0.265245
2158.73	-0.307245
2160.17	0.597826
2161.61	0.496233
2163.06	0.216192
2164.5	0.171343
2165.94	0.792343
2167.38	-0.297245
2168.83	0.288633
2170.27	0.206053
2171.71	0.651258
2173.15	0.0276909
2174.59	0.415941
2176.03	0.885979
2177.47	0.109253
2178.91	0.381763
2180.36	0.373722
2181.8	0.799871
2183.23	0.479065
2184.67	-0.140619
2186.11	0.237785
2187.55	0.416714
2188.99	0.812172
2190.43	-0.307011
2191.87	0.254351
2193.3	-0.101475
2194.74	0.239195
2196.18	0.942093
2197.62	0.192663
2199.05	0.27174
2200.49	0.315271
2201.93	-0.289055
2203.36	0.602024
2204.8	0.549269
2206.23	0.946301
2207.67	0.267349
2209.1	0.250963
2210.54	0.117071
2211.97	-0.134584
2213.41	0.0753231
2214.84	0.218615
2216.27	0.230961
2217.71	0.410728
2219.14	0.263222
2220.57	0.249575
2222.01	1.07676
2223.44	-0.322308
2224.87	0.516384
2226.3	-0.0812626
2227.73	0.502192
2229.16	-0.100767
2230.6	0.0833492
2232.03	0.29937
2233.46	0.155428
2234.89	0.487633
2236.32	0.00496674
2237.75	0.11421
2239.18	0.276377
2240.61	0.55698
2242.03	0.433723
2243.46	0.606804
2244.89	0.568642
2246.32	0.431171
2247.75	0.518559
2249.17	0.32402
2250.6	0.564674
2252.03	0.817358
2253.46	-0.184435
2254.88	0.668402
2256.31	0.451584
2257.73	-0.116732
2259.16	0.765345
2260.59	0.161175
2262.01	-0.0322132
2263.44	0.670931
2264.86	0.871769
2266.29	0.356564
2267.71	0.27832
2269.14	0.816422
2270.56	0.246096
2271.98	0.130291
2273.4	0.0954819
2274.83	0.223759
2276.25	0.0429363
2277.67	0.383955
2279.09	0.0568962
2280.52	0.332901
2281.94	0.413027
2283.36	0.264587
2284.78	0.279358
2286.2	0.164026
2287.62	0.343334
2289.04	0.180731
2290.46	0.247631
2291.88	0.0372944
2293.3	-0.156612
2294.72	-0.0889492
2296.14	0.109535
2297.56	-0.527084
2298.98	0.506878
2300.4	0.116255
2301.82	0.11941
2303.23	-0.22135
2304.65	0.422758
2306.07	0.213356
2307.49	0.676666
2308.9	0.152884
2310.32	0.00563049
2311.73	-0.372875
2313.15	-0.0441628
2314.57	-0.191704
2315.98	0.238537
2317.4	-0.0210857
2318.81	-0.0987034
2320.23	0.416849
2321.64	-0.142063
2323.06	0.202372
2324.47	0.195244
2325.88	0.3647
2327.3	0.414932
2328.71	0.941374
2330.12	0.0181961
2331.54	-0.0295677
2332.95	-0.535719
2334.36	-0.200634
2335.77	0.282881
2337.18	0.567825
2338.6	0.373676
2340.01	-0.0364285
2341.42	0.241604
2342.83	-0.138254
2344.24	0.581112
2345.65	-0.0601463
2347.06	0.331896
2348.47	0.0687714
2349.88	-0.374788
2351.29	0.455637
2352.7	-0.21999
2354.1	-0.357941
2355.51	0.497213
2356.92	0.324049
2358.33	-0.792139
2359.74	-0.0859871
2361.14	-0.338692
2362.55	0.138691
2363.96	-0.178753
2365.36	0.232405
2366.77	-0.61746
2368.18	0.00486374
2369.58	0.0475445
2370.99	0.189726
2372.39	0.689039
2373.8	-0.323593
2375.2	0.419952
2376.61	0.840263
2378.01	-0.205523
2379.42	-0.112387
2380.82	0.619143
2382.22	0.624477
2383.63	0.00324631
2385.03	0.246765
2386.43	0.0192833
2387.84	-0.221714
2389.24	0.265749
2390.64	-0.0573788
2392.04	-0.154638
2393.44	0.116316
2394.84	-0.358696
2396.25	0.296926
2397.65	0.127035
2399.05	-0.232187
2400.45	0.267633
2401.85	0.132624
2403.25	0.378889
2404.65	0.27495
2406.05	0.185064
2407.45	0.0932503
2408.84	0.856234
2410.24	0.872709
2411.64	0.414375
2413.04	0.0849171
2414.44	-0.716572
2415.83	0.210783
2417.23	-0.283888
2418.63	0.0782719
2420.02	0.425503
2421.42	0.740919
2422.82	0.0734253
2424.21	0.65686
2425.61	0.0679359
2427	-0.123838
2428.4	0.447073
2429.8	-0.375229
2431.19	0.374035
2432.58	-0.0345497
2433.98	0.381264
2435.37	0.111805
2436.77	0.299852
2438.16	0.166897
2439.55	0.0788555
2440.95	-0.106358
2442.34	0.326506
2443.73	-0.0191002
2445.12	0.428261
2446.51	0.00291252
2447.91	0.243238
2449.3	0.419954
2450.69	-0.352991
2452.08	-0.0321312
2453.47	0.195221
2454.86	0.186979
2456.25	0.180218
2457.64	0.569574
2459.03	-0.00627899
2460.42	0.397282
2461.81	0.435299
2463.2	-0.0657883
2464.59	-0.109568
2465.98	0.193485
2467.36	0.559214
2468.75	0.530045
2470.14	0.326984
2471.53	0.265017
2472.92	-0.00312233
2474.3	0.640516
2475.69	-0.0866985
2477.08	0.19236
2478.46	0.298105
2479.85	-0.0667171
2481.23	0.0240936
2482.62	0.756989
2484	0.798882
2485.39	-0.130865
2486.77	-0.0299931
2488.16	0.396051
2489.54	0.476608
2490.93	0.525513
2492.31	0.000276566
2493.69	0.0685444
2495.08	-0.0311489
2496.46	-0.329544
2497.84	-0.0681362
2499.23	0.131557
2500.61	-0.102818
2501.99	-0.245716
2503.37	0.041954
2504.75	0.126671
2506.13	-0.00579453
2507.52	0.354017
2508.9	-0.00925064
2510.28	0.105232
2511.66	-0.239441
2513.04	-0.321276
2514.42	0.395239
2515.8	0.393179
2517.18	-0.295591
2518.55	0.317059
2519.93	-0.109659
2521.31	0.379877
2522.69	-0.658859
2524.07	-0.157412
2525.45	0.235136
2526.82	0.154436
2528.2	0.363808
2529.58	0.134228
2530.95	0.683334
2532.33	0.0352783
2533.71	0.31706
2535.08	-0.964535
2536.46	0.32132
2537.84	-0.0501671
2539.21	-0.0438194
2540.59	0.340382
2541.96	0.344128
2543.34	0.181549
2544.71	-0.0853539
2546.08	-0.607523
2547.46	0.32896
2548.83	0.37233
2550.2	0.188219
2551.58	0.0941238
2552.95	-0.153641
2554.32	0.415932
2555.7	0.194521
2557.07	0.245073
2558.44	-0.068594
2559.81	0.512846
2561.18	0.352484
2562.55	0.511751
2563.93	-0.0551624
2565.3	0.181974
2566.67	0.465101
2568.04	0.187681
2569.41	0.183065
2570.78	0.254217
2572.15	1.02271
2573.51	0.518141
2574.88	-0.19854
2576.25	-0.0207844
2577.62	-0.404158
2578.99	0.227882
2580.36	0.0859146
2581.73	0.367649
2583.09	0.148256
2584.46	0.489309
2585.83	-0.215723
2587.19	0.489182
2588.56	0.13348
2589.93	0.399376
2591.29	0.301289
2592.66	0.384079
2594.02	0.480303
2595.39	0.0443268
2596.75	0.348267
2598.12	-0.287672
2599.48	0.376575
2600.85	0.224323
2602.21	0.33
2603.58	-0.106472
2604.94	-0.0585899
2606.3	0.261166
2607.67	0.218132
2609.03	-0.233519
2610.39	0.517853
2611.76	0.347349
2613.12	-0.276342
2614.48	0.316324
2615.84	0.27701
2617.2	-0.166481
2618.56	0.170874
2619.92	0.0752697
2621.28	0.624271
2622.65	0.710375
2624.01	0.30409
2625.37	0.27129
2626.72	0.640635
2628.08	0.0550938
2629.44	0.378078
2630.8	-0.0437679
2632.16	0.233534
2633.52	0.762814
2634.88	0.32645
2636.24	0.291138
2637.59	0.300306
2638.95	-0.253063
2640.31	-0.154291
2641.67	0.225735
2643.02	0.206905
2644.38	0.129396
2645.74	0.420649
2647.09	0.563236
2648.45	0.380116
2649.8	0.622393
2651.16	0.157135
2652.51	0.0299644
2653.87	0.270275
2655.22	0.350414
2656.58	-0.197109
2657.93	0.312267
2659.29	-0.215761
2660.64	0.485762
2661.99	0.192528
2663.35	0.146702
2664.7	0.566364
2666.05	-0.241278
2667.41	0.190123
2668.76	0.27116
2670.11	-0.171169
2671.46	0.0134029
2672.81	0.431473
2674.16	0.661531
2675.51	0.457106
2676.87	0.166981
2678.22	0.124964
2679.57	0.113646
2680.92	0.379889
2682.27	0.619535
2683.62	-0.0373783
2684.97	0.496706
2686.31	-0.491472
2687.66	0.449818
2689.01	0.924625
2690.36	0.437859
2691.71	0.600611
2693.06	0.252357
2694.4	-0.19903
2695.75	-0.143061
2697.1	0.334146
2698.45	0.147442
2699.79	0.239279
2701.14	-0.186712
2702.49	0.259148
2703.83	0.0263443
2705.18	0.461248
2706.52	0.954679
2707.87	0.316133
2709.21	0.518221
2710.56	0.443754
2711.9	0.586573
2713.25	0.264196
2714.59	0.363007
2715.94	0.723469
2717.28	0.443899
2718.62	0.149096
2719.97	0.275406
2721.31	0.793797
2722.65	0.947437
2723.99	0.576113
2725.34	0.480436
2726.68	0.849756
2728.02	0.44701
2729.36	1.04796
2730.7	0.877291
2732.04	0.779333
2733.39	0.594296
2734.73	0.0169106
2736.07	0.559938
2737.41	0.492329
2738.75	0.817343
2740.08	0.676456
2741.43	0.0838928
2742.76	0.144423
2744.1	0.857515
2745.44	0.188751
2746.78	0.419985
2748.12	0.403883
2749.46	0.155741
2750.79	0.35778
2752.13	0.545679
2753.47	-0.0921764
2754.81	-0.265656
2756.14	-0.120132
2757.48	0.706158
2758.81	0.273123
2760.15	0.434446
2761.49	-0.242631
2762.82	-0.0504627
2764.16	0.185703
2765.49	0.363937
2766.83	-0.182112
2768.16	-0.122293
2769.5	-0.0794563
2770.83	0.654161
2772.16	0.0266628
2773.5	0.0762615
2774.83	-0.0482979
2776.17	-0.201528
2777.5	0.0779552
2778.83	0.25741
2780.16	-0.18029
2781.5	0.704397
2782.83	-0.205778
2784.16	-0.584227
2785.49	-0.087965
2786.82	0.0356178
2788.15	-0.0403671
2789.49	0.22863
2790.82	0.141619
2792.15	-0.45854
2793.48	-0.0282841
2794.81	0.273233
2796.14	0.545364
2797.46	0.402014
2798.79	0.314758
2800.12	-0.00162697
2801.45	0.109707
2802.78	-0.378282
2804.11	0.174009
2805.44	0.0554447
2806.76	-0.0641594
2808.09	-0.36972
2809.42	0.177088
2810.75	0.140875
2812.07	-0.10696
2813.4	-0.47994
2814.73	0.411966
2816.05	-0.224646
2817.38	0.0906906
2818.7	-0.0605888
2820.03	0.0999699
2821.36	-0.264743
2822.68	0.0353794
2824.01	-0.416711
2825.33	0.24975
2826.65	0.505295
2827.98	0.790076
2829.3	-0.0141687
2830.63	0.697309
2831.95	0.460732
2833.27	0.549618
2834.6	0.836024
2835.92	1.24877
2837.24	0.669849
2838.56	0.797623
2839.88	1.68859
2841.21	1.8017
2842.53	2.28313
2843.85	2.68093
2845.17	2.47248
2846.49	2.83063
2847.81	2.42636
2849.13	3.13866
2850.45	3.08716
2851.77	2.68131
2853.09	2.93871
2854.41	2.98332
2855.73	3.86114
2857.05	3.46728
2858.37	4.04823
2859.69	3.8805
2861	4.70087
2862.32	4.645
2863.64	5.36463
2864.96	4.81344
2866.28	6.30789
2867.59	6.51881
2868.91	6.67421
2870.23	7.19704
2871.54	6.55013
2872.86	7.12895
2874.17	7.29727
2875.49	6.89974
2876.81	7.72499
2878.12	7.1827
2879.44	7.66699
2880.75	7.29408
2882.07	7.66794
2883.38	6.68155
2884.69	7.48101
2886.01	7.50933
2887.32	7.84657
2888.63	7.14435
2889.95	6.76348
2891.26	7.62903
2892.57	6.86674
2893.89	8.33219
2895.2	8.34089
2896.51	7.60955
2897.82	8.16835
2899.13	7.55392
2900.44	7.69681
2901.76	8.45617
2903.07	8.15282
2904.38	8.75899
2905.69	8.44259
2907	8.6869
2908.31	8.96098
2909.62	8.87318
2910.93	10.172
2912.24	10.1416
2913.55	9.84358
2914.85	10.7185
2916.16	11.0295
2917.47	11.127
2918.78	11.2222
2920.09	11.6387
2921.4	11.8607
2922.7	11.5822
2924.01	12.0197
2925.32	12.8092
2926.62	13.041
2927.93	12.3782
2929.24	12.6652
2930.54	11.9724
2931.85	13.4034
2933.15	12.7929
2934.46	12.9231
2935.76	12.9558
2937.07	12.7374
2938.37	12.0023
2939.68	12.5955
2940.98	11.2893
2942.29	11.9693
2943.59	11.7297
2944.89	10.8778
2946.2	10.2657
2947.5	10.228
2948.8	9.74196
2950.11	9.5892
2951.41	9.23665
2952.71	9.11817
2954.01	9.17884
2955.32	8.24484
2956.62	8.47461
2957.92	8.05068
2959.22	8.23414
2960.52	8.11524
2961.82	8.09852
2963.12	7.92905
2964.42	7.91263
2965.72	7.17686
2967.02	7.46298
2968.32	7.0859
2969.62	7.26956
2970.92	6.35599
2972.22	7.10269
2973.51	6.30252
2974.81	6.2198
2976.11	5.99501
2977.41	6.21822
2978.71	5.76215
2980	5.2183
2981.3	5.10841
2982.6	5.39134
2983.9	5.22483
2985.19	4.72334
2986.49	4.09865
2987.78	4.10925
2989.08	4.10779
2990.38	3.69932
2991.67	3.88018
2992.97	3.28606
2994.26	3.60296
2995.56	2.97642
2996.85	3.19133
2998.14	2.21284
2999.44	1.99317
3000.73	2.04111
3002.03	1.90794
3003.32	1.97184
3004.61	1.72776
3005.91	1.42735
3007.2	1.51799
3008.49	0.963438
3009.78	1.27481
3011.07	1.23509
3012.37	0.915436
3013.66	0.931115
3014.95	0.836067
3016.24	0.784288
3017.53	0.775777
3018.82	0.239525
3020.11	0.747075
3021.4	0.572225
3022.69	0.284981
3023.98	0.301739
3025.27	0.164629
3026.56	-0.803559
3027.85	0.403378
3029.14	-0.0211143
3030.43	0.262418
3031.71	0.424095
3033	0.311554
3034.29	-0.0624847
3035.58	-0.299185
3036.87	-0.0553551
3038.15	0.515621
3039.44	0.146317
3040.73	0.379798
3042.01	0.0620356
3043.3	-0.0492945
3044.59	-0.309272
3045.87	0.145335
3047.16	0.165952
3048.44	0.436627
3049.73	0.0286646
3051.01	0.592715
3052.3	0.639709
3053.58	0.536717
3054.87	0.418989
3056.15	-0.218789
3057.43	0.559783
3058.72	0.436982
3060	0.776829
3061.29	0.436644
3062.57	0.438713
3063.85	0.837677
3065.13	0.913156
3066.42	0.624279
3067.7	0.500471
3068.98	0.309415
3070.26	0.675519
3071.54	0.08811
3072.82	-0.0661354
3074.11	0.294154
3075.39	0.149795
3076.67	0.113713
3077.95	0.254943
3079.23	-0.415984
3080.51	0.299809
3081.79	0.0281639
3083.07	0.287881
3084.35	0.481181
3085.63	0.0233145
3086.9	-0.448966
3088.18	-0.0401602
3089.46	0.272471
3090.74	0.407874
3092.02	-0.0674362
3093.29	-0.0945778
3094.57	-0.10751
3095.85	0.327586
3097.13	-0.145469
3098.4	0.0593262
3099.68	-0.264547
3100.95	0.00774288
3102.23	0.212391
3103.51	-0.0427818
3104.78	0.420567
3106.06	0.113791
3107.33	-0.0287971
3108.61	-0.60253
3109.88	-0.132216
3111.16	0.00164032
3112.43	-0.282864
3113.71	0.192105
3114.98	-0.1594
3116.25	0.0983925
3117.53	-0.0112705
3118.8	0.25703
3120.07	0.10311
3121.35	0.0155678
3122.62	0.320214
3123.89	0.218025
3125.16	0.603819
3126.44	-0.0384064
3127.71	0.322168
3128.98	0.724133
3130.25	0.545239
3131.52	0.745214
3132.79	0.580166
3134.06	1.02252
3135.33	0.775199
3136.6	0.729623
3137.87	0.427241
3139.14	0.986962
3140.41	0.778451
3141.68	0.933626
3142.95	0.820538
3144.22	1.21882
3145.49	0.772571
3146.76	1.10589
3148.02	1.21239
3149.29	0.93165
