200.398	0.0536976
202.213	0.0727596
204.027	0.0933952
205.843	-0.0060463
207.657	0.527172
209.47	0.524605
211.283	1.29761
213.097	0.708389
214.909	0.287998
216.721	0.715614
218.533	-0.74646
220.344	0.166321
222.157	1.34548
223.967	0.348927
225.777	0.586737
227.587	0.0514965
229.396	0.55448
231.205	0.742409
233.016	0.326593
234.824	0.442146
236.632	0.535439
238.439	1.01758
240.247	1.04579
242.053	1.9699
243.86	1.42563
245.666	2.03937
247.474	1.99929
249.279	2.3652
251.085	2.12217
252.889	3.03299
254.694	2.61307
256.498	2.67499
258.301	3.02745
260.105	2.05757
261.908	2.36817
263.71	2.22403
265.513	1.86496
267.315	1.79565
269.116	1.38839
270.918	2.35393
272.718	1.36474
274.519	1.40996
276.319	1.5248
278.119	1.39556
279.918	0.492369
281.718	1.29589
283.516	1.18123
285.315	1.61697
287.113	0.970407
288.911	0.636805
290.708	1.19135
292.505	1.029
294.302	0.941233
296.098	0.282219
297.894	0.772722
299.69	1.02485
301.485	0.0584812
303.278	0.0465221
305.073	0.342932
306.867	-0.268829
308.661	0.597645
310.454	0.677784
312.247	0.68832
314.04	0.106222
315.833	0.646322
317.623	0.594048
319.415	1.09225
321.206	0.615658
322.997	0.640717
324.788	0.284796
326.579	1.50452
328.367	0.575182
330.156	0.623861
331.946	1.12518
333.735	0.164654
335.523	0.995043
337.31	0.481735
339.098	0.539351
340.885	0.283482
342.673	0.432831
344.458	0.0323563
346.244	0.0390148
348.03	0.619843
349.816	0.34182
351.6	0.111744
353.385	0.0241222
355.17	0.769823
356.953	0.177551
358.737	0.656115
360.521	-0.368127
362.304	0.201992
364.085	0.246897
365.868	0.219288
367.65	0.309145
369.431	-0.0530987
371.212	-0.842342
372.994	0.735046
374.773	0.063097
376.554	0.573029
378.332	1.10626
380.112	1.07454
381.892	0.197479
383.669	0.476416
385.448	0.804146
387.225	0.264194
389.003	0.807076
390.781	0.928608
392.557	0.699261
394.334	1.01115
396.109	1.62902
397.885	1.61308
399.66	2.1136
401.436	1.86183
403.211	1.42109
404.984	1.73067
406.759	1.82757
408.532	2.04077
410.306	0.891869
412.078	1.85565
413.851	2.77293
415.623	2.11934
417.395	2.38238
419.166	2.5763
420.938	2.30143
422.708	1.65053
424.477	2.87642
426.248	1.82356
428.017	1.59091
429.788	0.934942
431.556	1.52299
433.326	0.374785
435.093	1.38641
436.86	0.144982
438.629	0.334124
440.395	0.919825
442.163	0.563594
443.929	-0.522629
445.694	0.661919
447.461	0.976471
449.226	0.167184
450.99	0.551012
452.756	0.491176
454.52	0.665112
456.285	-0.21007
458.048	0.476269
459.811	0.556584
461.573	0.0565205
463.337	-0.32425
465.099	0.669972
466.86	-1.16601
468.623	0.0928755
470.384	0.169978
472.144	0.387938
473.906	0.768022
475.666	0.959188
477.425	0.354711
479.184	0.399273
480.944	0.232475
482.703	0.531704
484.461	0.436912
486.218	0.158944
487.975	0.72344
489.734	0.709077
491.491	-0.00375557
493.247	1.05902
495.003	0.206521
496.759	0.0779829
498.516	0.276807
500.271	0.920829
502.025	-0.0545378
503.779	0.564315
505.533	0.195028
507.287	1.28104
509.042	1.28325
510.795	0.717952
512.547	0.785151
514.299	0.873335
516.051	1.00619
517.803	1.4191
519.554	1.14821
521.305	0.735256
523.055	0.134022
524.805	0.753567
526.555	0.950165
528.307	0.86524
530.056	0.522482
531.805	0.554197
533.553	1.31018
535.301	0.753254
537.049	1.19974
538.797	0.125385
540.544	0.567173
542.291	0.00493813
544.037	0.746223
545.783	0.161142
547.529	0.645378
549.275	0.178431
551.02	0.708654
552.765	0.544098
554.509	0.357126
556.253	0.424917
557.997	0.447115
559.738	-0.221035
561.482	0.148792
563.224	-0.263066
564.967	0.843716
566.709	0.273266
568.451	0.118109
570.192	-0.241652
571.933	0.158175
573.674	-0.0587311
575.415	0.209101
577.153	-0.162609
578.893	0.0186214
580.632	-0.00533104
582.371	-0.235855
584.11	-0.237524
585.849	0.38014
587.587	0.0299091
589.323	-0.0693874
591.06	0.174854
592.797	0.280146
594.534	0.546225
596.271	0.0531464
598.005	0.549355
599.741	0.584852
601.476	0.0668793
603.211	-0.315006
604.944	-0.0553169
606.679	0.31682
608.413	-0.644805
610.147	0.437046
611.878	-0.316578
613.611	0.330425
615.344	0.313431
617.077	0.411369
618.807	1.2184
620.539	0.100008
622.27	-0.0812969
623.999	0.46771
625.73	-0.0121288
627.461	0.172445
629.189	-0.484241
630.919	0.55179
632.648	0.290644
634.376	0.0313797
636.105	0.753174
637.833	-0.0572224
639.559	0.0866623
641.287	0.339453
643.013	0.0179424
644.74	0.355034
646.467	0.168722
648.192	0.0767441
649.918	-0.46438
651.642	0.682432
653.368	0.563574
655.091	0.31398
656.816	0.546154
658.538	0.689415
660.263	0.330412
661.987	1.06433
663.708	-0.0100079
665.432	0.259308
667.153	1.00574
668.875	1.38507
670.596	0.667616
672.318	0.204813
674.037	0.524282
675.759	-0.733484
677.478	-0.133097
679.196	-0.243101
680.917	0.610674
682.635	-0.101559
684.355	0.539865
686.072	0.142176
687.791	0.939238
689.508	0.37558
691.224	-0.235477
692.942	0.142912
694.658	0.0133114
696.376	0.020277
698.091	0.669844
699.805	1.27074
701.522	0.535046
703.236	0.212286
704.95	-0.15719
706.665	0.551624
708.379	0.478952
710.093	-0.327522
711.806	-0.103003
713.518	0.898296
715.23	0.709097
716.943	0.31461
718.655	0.354431
720.366	0.212132
722.078	0.502991
723.788	0.543198
725.498	1.10602
727.208	-0.24058
728.919	0.320713
730.628	0.404127
732.337	0.0790558
734.045	0.410414
735.755	0.605516
737.463	0.575047
739.17	0.748802
740.877	0.675938
742.584	0.965639
744.292	0.53685
745.998	1.14608
747.704	0.992393
749.409	0.953568
751.114	0.557108
752.819	0.905117
754.526	1.25556
756.23	1.11368
757.934	0.524048
759.637	0.409351
761.34	1.35606
763.043	1.01908
764.746	1.31344
766.448	0.883327
768.152	1.42171
769.853	0.848793
771.554	1.33505
773.255	0.620354
774.956	1.03544
776.656	1.04435
778.356	1.34934
780.056	1.56659
781.755	1.55971
783.454	1.28162
785.153	1.38638
786.851	1.19298
788.549	1.31118
790.247	0.835571
791.944	1.66689
793.641	1.41002
795.338	1.53654
797.034	0.672617
798.73	1.25415
800.426	1.47787
802.121	1.43386
803.817	1.68347
805.511	1.70788
807.206	0.8995
808.9	1.1904
810.592	1.20966
812.286	1.3618
813.979	1.26621
815.672	1.5733
817.364	1.83503
819.057	1.96232
820.748	0.794491
822.44	1.61502
824.129	1.09785
825.82	1.475
827.511	1.38761
829.201	0.85951
830.891	1.53918
832.581	1.46657
834.269	0.951782
835.958	1.17425
837.646	1.66456
839.335	1.37196
841.023	1.27744
842.709	0.622017
844.396	0.725185
846.084	1.27646
847.77	1.74158
849.455	1.69681
851.141	1.29811
852.827	0.902054
854.513	1.33705
856.196	1.72784
857.881	1.21823
859.566	1.1099
861.248	0.930767
862.932	1.37941
864.616	0.654305
866.297	0.400522
867.98	1.58864
869.663	1.51348
871.343	0.332409
873.026	1.04571
874.707	0.382671
876.387	0.644712
878.068	1.01969
879.747	0.514275
881.428	0.279039
883.108	0.810165
884.786	0.504208
886.465	0.534512
888.143	0.923159
889.822	0.451784
891.498	0.496763
893.177	0.651983
894.855	1.00743
896.53	1.36038
898.208	0.543032
899.883	0.735279
901.56	0.634363
903.234	0.487976
904.91	0.00630188
906.584	0.731562
908.26	0.564264
909.933	0.265242
911.608	0.902689
913.28	-0.149004
914.955	0.311773
916.627	0.816179
918.298	0.277866
919.972	0.40494
921.643	0.444227
923.315	1.01581
924.986	0.506981
926.656	0.68634
928.328	0.0517921
929.997	1.29543
931.668	0.289368
933.337	0.894505
935.006	0.882179
936.676	0.429457
938.344	1.23535
940.012	0.675949
941.681	1.30976
943.348	0.70953
945.014	1.1903
946.683	0.675951
948.349	0.312916
950.015	0.454273
951.682	0.813974
953.347	0.445633
955.012	-0.00815392
956.676	0.711437
958.343	0.797235
960.006	0.755665
961.67	0.937752
963.333	0.700043
964.998	0.28224
966.661	0.766605
968.323	0.272661
969.985	1.01394
971.649	0.84642
973.31	0.171034
974.971	1.17887
976.632	0.575541
978.293	0.0852814
979.953	0.746643
981.615	1.40776
983.274	1.1591
984.933	0.973322
986.592	0.385452
988.251	-0.050375
989.909	0.860859
991.567	1.37208
993.225	0.822153
994.884	1.06766
996.541	2.68095
998.198	1.71257
999.855	2.28741
1001.51	2.61854
1003.17	2.26615
1004.82	1.0999
1006.48	0.726179
1008.13	1.34137
1009.79	0.793203
1011.44	1.69393
1013.1	1.63003
1014.75	0.646976
1016.4	0.891678
1018.06	1.59652
1019.71	0.355667
1021.36	0.888546
1023.01	1.02968
1024.66	1.12882
1026.32	0.442375
1027.97	0.848639
1029.62	1.4066
1031.27	0.455112
1032.92	2.01196
1034.57	1.64404
1036.22	1.6664
1037.87	1.75242
1039.52	1.77275
1041.16	2.05525
1042.81	2.64414
1044.46	2.7361
1046.11	2.50605
1047.76	3.34401
1049.4	3.49031
1051.05	3.70442
1052.7	3.31204
1054.34	3.61563
1055.99	2.37622
1057.63	3.30962
1059.28	2.22032
1060.92	2.06448
1062.57	1.77664
1064.21	1.4653
1065.85	0.825951
1067.5	0.836863
1069.14	0.911112
1070.78	0.462856
1072.43	0.535669
1074.07	0.934694
1075.71	1.09669
1077.35	0.415295
1078.99	0.256796
1080.63	0.251518
1082.27	0.658278
1083.91	0.911667
1085.55	1.57386
1087.19	0.519983
1088.83	0.805965
1090.47	0.287666
1092.11	1.23797
1093.75	1.38644
1095.39	0.628683
1097.03	0.391127
1098.66	0.974951
1100.3	0.592466
1101.94	1.16071
1103.57	-0.569946
1105.21	1.23002
1106.84	0.686375
1108.48	0.529434
1110.11	0.757607
1111.75	0.832275
1113.38	0.17347
1115.02	0.457666
1116.65	0.611618
1118.29	0.336708
1119.92	-0.0651894
1121.55	0.884163
1123.19	0.272129
1124.82	1.22427
1126.45	1.72828
1128.08	0.629719
1129.71	0.473661
1131.34	1.02422
1132.97	0.720169
1134.6	0.843456
1136.23	-0.167183
1137.86	-0.110929
1139.49	-0.035511
1141.12	0.0166359
1142.75	0.537193
1144.38	-0.136957
1146.01	-0.105774
1147.64	-0.45649
1149.26	-0.14497
1150.89	0.699785
1152.52	0.41556
1154.15	0.450174
1155.77	0.994797
1157.4	0.177134
1159.02	-0.32037
1160.65	-0.241966
1162.27	0.327431
1163.9	0.664742
1165.52	0.386446
1167.15	1.02199
1168.77	0.188562
1170.39	0.0112305
1172.02	-0.0208111
1173.64	1.02671
1175.26	1.07321
1176.89	-0.132219
1178.51	0.994646
1180.13	0.51239
1181.75	0.265144
1183.37	0.547997
1184.99	0.0910969
1186.61	0.245461
1188.23	0.523199
1189.85	0.438389
1191.47	0.51856
1193.09	-0.161327
1194.71	0.775757
1196.33	0.263502
1197.94	0.529007
1199.56	0.985294
1201.18	1.04811
1202.8	1.24123
1204.41	0.583538
1206.03	1.05709
1207.65	0.907236
1209.26	1.1335
1210.88	1.02453
1212.49	1.18342
1214.11	0.941969
1215.72	0.571564
1217.34	1.11363
1218.95	1.56944
1220.57	2.37688
1222.18	1.71155
1223.79	0.925554
1225.41	0.971914
1227.02	1.64191
1228.63	1.79687
1230.24	2.22301
1231.85	1.49374
1233.47	1.55249
1235.08	1.63434
1236.69	1.98726
1238.3	1.59809
1239.91	2.0786
1241.52	2.49771
1243.13	2.52331
1244.74	1.92663
1246.34	2.17623
1247.95	1.80304
1249.56	1.84217
1251.17	2.60469
1252.78	2.16769
1254.38	1.77352
1255.99	2.41568
1257.6	1.6537
1259.2	1.32823
1260.81	1.99788
1262.42	1.34371
1264.02	1.70419
1265.63	1.33888
1267.23	1.49017
1268.84	2.1373
1270.44	2.30567
1272.04	2.30607
1273.65	1.64097
1275.25	2.15562
1276.85	2.02577
1278.46	2.24651
1280.06	2.19663
1281.66	1.13202
1283.26	2.22003
1284.86	2.50167
1286.46	1.70988
1288.07	2.55334
1289.67	2.07578
1291.27	2.11595
1292.87	2.5279
1294.47	2.52514
1296.06	2.37527
1297.66	1.76814
1299.26	1.88046
1300.86	2.93802
1302.46	2.77597
1304.06	2.36526
1305.65	1.91276
1307.25	2.73347
1308.85	1.91055
1310.44	3.05675
1312.04	2.13355
1313.64	3.15665
1315.23	2.64729
1316.83	2.14075
1318.42	2.79906
1320.02	1.82525
1321.61	2.25677
1323.2	2.31821
1324.8	3.33136
1326.39	3.16166
1327.99	2.58563
1329.58	3.10551
1331.17	2.53516
1332.76	2.94035
1334.36	3.79366
1335.95	3.23686
1337.54	2.37938
1339.13	2.85199
1340.72	3.11922
1342.31	2.95899
1343.9	2.57387
1345.49	3.41192
1347.08	2.76417
1348.67	2.24147
1350.26	2.58522
1351.85	2.61371
1353.43	2.62642
1355.02	2.06226
1356.61	1.3993
1358.2	2.39395
1359.78	2.80695
1361.37	2.29923
1362.96	2.38872
1364.54	1.75965
1366.13	1.70956
1367.71	1.48184
1369.3	2.49085
1370.88	2.36773
1372.47	2.80465
1374.05	2.64694
1375.64	1.63505
1377.22	2.19535
1378.8	1.66025
1380.39	2.25737
1381.97	2.39412
1383.55	2.15028
1385.13	1.40764
1386.72	1.7177
1388.3	1.6107
1389.88	2.19981
1391.46	2.5522
1393.04	2.03318
1394.62	1.75323
1396.2	2.99991
1397.78	1.58819
1399.36	1.8003
1400.94	1.45573
1402.52	1.54579
1404.1	2.09067
1405.68	1.21228
1407.25	1.77924
1408.83	1.75474
1410.41	2.20538
1411.98	2.00408
1413.56	1.72279
1415.14	1.89372
1416.71	2.27967
1418.29	1.7577
1419.87	2.30065
1421.44	2.88459
1423.02	2.25092
1424.59	2.11297
1426.16	2.43034
1427.74	3.16224
1429.31	2.92921
1430.89	3.24542
1432.46	3.14585
1434.03	3.69346
1435.6	3.64973
1437.18	4.35351
1438.75	4.88161
1440.32	4.97941
1441.89	4.33257
1443.46	5.22029
1445.03	4.79215
1446.6	3.65677
1448.17	4.36933
1449.74	4.15864
1451.31	3.83094
1452.88	4.11395
1454.45	3.63075
1456.02	4.36719
1457.59	3.98089
1459.16	3.59181
1460.72	3.51394
1462.29	4.21907
1463.86	3.16987
1465.43	3.1217
1466.99	3.03347
1468.56	2.63188
1470.13	2.60538
1471.69	2.65969
1473.26	3.24574
1474.82	2.2645
1476.38	2.32361
1477.95	2.03007
1479.51	2.46177
1481.08	1.79556
1482.64	1.6193
1484.2	2.03064
1485.77	2.40197
1487.33	1.42021
1488.89	2.21805
1490.46	1.66124
1492.02	1.35494
1493.58	1.80653
1495.14	1.39502
1496.7	1.7616
1498.26	1.971
1499.82	1.92832
1501.38	0.839567
1502.94	1.79185
1504.5	1.69785
1506.06	1.1594
1507.62	0.949505
1509.18	1.89715
1510.73	2.04913
1512.29	1.38943
1513.85	0.846098
1515.41	1.26553
1516.96	1.53153
1518.52	1.62585
1520.08	1.70212
1521.63	0.802767
1523.19	1.39567
1524.75	1.66108
1526.3	1.29454
1527.85	1.32695
1529.41	1.60524
1530.96	1.67381
1532.52	1.98965
1534.07	1.3786
1535.62	1.88713
1537.18	1.71628
1538.73	1.24526
1540.28	2.5485
1541.84	1.64534
1543.39	1.23307
1544.94	1.79887
1546.49	1.44275
1548.04	1.68744
1549.59	1.6691
1551.14	1.23923
1552.69	1.54077
1554.25	1.88099
1555.79	1.5138
1557.34	1.59862
1558.89	1.5194
1560.44	1.87317
1561.99	1.78247
1563.54	1.41426
1565.08	1.42036
1566.63	2.26649
1568.18	1.67526
1569.73	1.73644
1571.27	2.33819
1572.82	1.80069
1574.37	2.40159
1575.91	2.53585
1577.46	1.9985
1579	2.24604
1580.55	2.12146
1582.09	2.72681
1583.64	1.69028
1585.18	2.24308
1586.73	2.51692
1588.27	1.91223
1589.81	1.96156
1591.35	2.62777
1592.9	2.58194
1594.44	2.1983
1595.98	2.50773
1597.52	2.57454
1599.06	2.00529
1600.61	2.2061
1602.15	3.47787
1603.69	2.00937
1605.23	1.872
1606.77	2.91579
1608.31	1.83213
1609.85	2.67962
1611.39	3.01467
1612.93	1.84285
1614.46	2.03974
1616	1.84155
1617.54	2.88161
1619.08	1.84332
1620.61	2.36339
1622.15	2.34302
1623.69	1.65045
1625.23	2.51187
1626.76	2.24858
1628.3	2.41313
1629.83	2.36897
1631.37	2.50955
1632.9	2.64907
1634.44	1.79963
1635.97	2.53862
1637.51	2.21579
1639.04	2.36062
1640.57	2.50549
1642.11	2.33234
1643.64	1.8592
1645.17	1.92383
1646.71	2.74892
1648.24	3.07041
1649.77	2.74228
1651.3	2.19388
1652.83	3.00262
1654.36	2.64499
1655.89	2.49286
1657.42	2.78545
1658.96	2.65028
1660.48	1.95725
1662.01	3.37108
1663.54	2.96882
1665.07	2.49207
1666.6	2.47814
1668.13	2.55862
1669.66	2.60521
1671.19	2.19422
1672.71	2.46735
1674.24	2.39146
1675.77	1.89177
1677.29	1.24359
1678.82	1.64239
1680.35	1.35838
1681.87	2.32266
1683.4	2.2383
1684.92	1.82386
1686.45	1.77742
1687.97	1.2554
1689.5	0.97291
1691.02	1.02078
1692.54	1.3982
1694.07	1.70195
1695.59	0.78017
1697.11	1.4668
1698.64	1.36673
1700.16	0.499397
1701.68	0.72645
1703.2	0.569321
1704.72	0.447756
1706.25	0.507435
1707.77	0.475517
1709.29	0.352669
1710.81	0.829054
1712.33	-0.0187092
1713.85	0.4035
1715.37	0.354481
1716.89	0.450136
1718.41	0.183887
1719.92	1.27229
1721.44	0.0858078
1722.96	0.092186
1724.48	0.0824871
1725.99	-0.158777
1727.51	0.142769
1729.03	0.626028
1730.55	0.857069
1732.06	0.302961
1733.58	-0.38784
1735.09	0.481316
1736.61	0.484869
1738.13	0.232775
1739.64	0.326651
1741.15	0.471066
1742.67	0.272482
1744.18	0.47154
1745.7	0.126999
1747.21	-0.178997
1748.72	-0.0385704
1750.24	0.245245
1751.75	0.214811
1753.26	0.905878
1754.77	-0.295012
1756.29	-0.134266
1757.8	-0.0154629
1759.31	0.0916023
1760.82	0.307386
1762.33	-0.23402
1763.84	0.0248489
1765.35	0.18087
1766.86	0.0168514
1768.37	0.100863
1769.88	0.483685
1771.39	0.575155
1772.9	0.252045
1774.4	0.475683
1775.91	0.0306015
1777.42	0.0653439
1778.93	0.220474
1780.44	0.28858
1781.94	-0.237137
1783.45	-0.445456
1784.96	0.0954933
1786.46	0.0280113
1787.97	0.386707
1789.47	0.614151
1790.98	0.132961
1792.48	0.249067
1793.99	0.205254
1795.49	0.0316105
1797	-0.316349
1798.5	0.263439
1800.01	0.421156
1801.51	0.416384
1803.01	-0.034771
1804.51	0.581676
1806.02	0.293585
1807.52	0.524517
1809.02	0.202429
1810.52	0.300539
1812.02	-0.104433
1813.52	0.286024
1815.02	0.288034
1816.53	0.266281
1818.03	-0.0516338
1819.52	-0.0511475
1821.02	0.0898132
1822.52	0.208132
1824.02	0.226185
1825.52	0.14592
1827.02	0.0645313
1828.52	0.344404
1830.02	0.13092
1831.51	0.103006
1833.01	0.465277
1834.51	0.176397
1836.01	0.16371
1837.5	-0.0973949
1839	0.190561
1840.49	0.0916824
1841.99	0.150997
1843.49	0.13773
1844.98	0.280016
1846.48	0.0281105
1847.97	0.556837
1849.47	0.184818
1850.96	0.267078
1852.45	-0.142582
1853.95	0.238403
1855.44	-0.101667
1856.93	0.0972843
1858.42	-0.3419
1859.92	0.394732
1861.41	-0.0854912
1862.9	0.315424
1864.39	0.0756035
1865.88	0.0891705
1867.38	0.381203
1868.87	0.388729
1870.36	0.29637
1871.85	0.314585
1873.34	0.153502
1874.83	0.00289726
1876.32	-0.297201
1877.81	-0.14859
1879.29	0.14109
1880.78	-0.0658607
1882.27	0.318878
1882.53	0.41378
1884.03	0.114147
1885.52	0.388229
1887.01	0.0507317
1888.51	0.00852203
1890	-0.868355
1891.5	0.448715
1892.99	0.255518
1894.48	-0.0556736
1895.97	-0.120413
1897.47	-0.0791759
1898.96	-0.490412
1900.45	-0.0338573
1901.94	0.228184
1903.43	0.0866337
1904.92	-0.19672
1906.41	0.248383
1907.9	-0.348927
1909.39	0.392036
1910.88	-0.0282288
1912.37	-0.151567
1913.86	0.1772
1915.35	0.506035
1916.84	0.383324
1918.33	-0.0870323
1919.81	0.706858
1921.3	-0.387905
1922.79	0.544758
1924.28	0.751644
1925.76	0.129873
1927.25	0.271976
1928.73	-0.294489
1930.22	0.524172
1931.71	-0.303789
1933.19	0.510471
1934.68	0.541874
1936.16	-0.0529575
1937.65	-0.0269928
1939.13	-0.105631
1940.62	0.351707
1942.1	0.327007
1943.58	0.011198
1945.07	0.249157
1946.55	0.436001
1948.03	0.294842
1949.51	0.359024
1951	0.524466
1952.48	0.446962
1953.96	0.763905
1955.44	0.238285
1956.92	-0.114138
1958.4	0.187397
1959.88	0.215614
1961.36	-0.492416
1962.84	0.325994
1964.32	-0.347185
1965.8	-0.0617352
1967.28	0.564379
1968.76	0.0082283
1970.24	0.545578
1971.72	-0.216457
1973.2	0.405018
1974.67	-0.151052
1976.15	0.0780315
1977.63	-0.578527
1979.1	-0.536137
1980.58	0.356634
1982.06	0.31296
1983.54	-0.308764
1985.01	-0.573769
1986.49	0.263552
1987.96	0.438616
1989.44	-0.131027
1990.91	0.0629749
1992.39	0.393902
1993.86	-0.338518
1995.33	-0.240688
1996.81	0.0775471
1998.28	0.243523
1999.75	0.425413
2001.23	-0.271542
2002.7	-0.108604
2004.17	0.374203
2005.65	-0.305422
2007.12	0.0107498
2008.59	0.597982
2010.06	0.580629
2011.53	-0.024807
2013	0.194746
2014.47	0.110495
2015.94	-0.429483
2017.41	0.290497
2018.88	0.403078
2020.35	0.581682
2021.82	0.104877
2023.29	0.0824146
2024.76	0.0111942
2026.23	0.110088
2027.69	0.07761
2029.16	0.0648518
2030.63	0.490894
2032.1	0.0968227
2033.56	-0.531599
2035.03	-0.27042
2036.5	-0.0434055
2037.96	-0.186953
2039.43	0.189692
2040.89	0.499142
2042.36	0.18738
2043.83	-0.308109
2045.29	0.123278
2046.75	-0.217903
2048.22	0.552937
2049.68	0.700365
2051.15	0.812153
2052.61	0.212568
2054.07	-0.120918
2055.54	0.0312824
2057	0.73703
2058.46	0.648691
2059.92	0.475899
2061.39	0.489283
2062.85	0.4538
2064.31	-0.101376
2065.77	0.203791
2067.23	-0.0952415
2068.69	0.280066
2070.15	0.201593
2071.61	0.106386
2073.07	0.246609
2074.53	-0.10198
2075.99	0.525457
2077.45	0.0744438
2078.91	1.03721
2080.37	-0.19006
2081.82	0.113974
2083.28	-0.239864
2084.74	0.128662
2086.2	0.596439
2087.65	0.524569
2089.11	-0.00180817
2090.57	0.798918
2092.02	0.121294
2093.48	0.165726
2094.94	0.0754566
2096.39	0.0178642
2097.85	-0.141417
2099.3	0.735958
2100.76	0.424053
2102.21	-0.0373096
2103.66	-0.0288696
2105.12	0.249065
2106.57	0.36261
2108.03	0.478142
2109.48	0.294134
2110.93	-0.30756
2112.38	0.58835
2113.84	-0.268511
2115.29	0.0874958
2116.74	0.12533
2118.19	-0.00239182
2119.64	0.1548
2121.09	0.282307
2122.54	-0.332874
2123.99	0.530754
2125.45	0.218195
2126.89	0.203623
2128.34	0.502102
2129.79	0.00238228
2131.24	-0.00248337
2132.69	-0.224009
2134.14	0.0840359
2135.59	0.227898
2137.04	0.440533
2138.48	0.0286026
2139.93	0.529222
2141.38	0.685976
2142.83	0.150572
2144.27	0.228081
2145.72	-0.339552
2147.17	0.515711
2148.61	0.525711
2150.06	0.252443
2151.5	-0.205036
2152.95	-0.183878
2154.39	-0.0316563
2155.84	0.00373268
2157.28	-0.258907
2158.73	-0.0564213
2160.17	0.148502
2161.61	0.340147
2163.06	0.104298
2164.5	0.0368652
2165.94	0.0870972
2167.38	0.286766
2168.83	-0.0804672
2170.27	0.0809326
2171.71	0.105507
2173.15	0.20974
2174.59	-0.303997
2176.03	0.362143
2177.47	-0.152119
2178.91	0.365908
2180.36	0.752691
2181.8	0.326443
2183.23	0.566355
2184.67	0.158199
2186.11	-0.000429153
2187.55	0.00731277
2188.99	-0.0347843
2190.43	0.588896
2191.87	-0.152868
2193.3	0.585678
2194.74	0.272888
2196.18	0.556061
2197.62	0.203083
2199.05	0.795055
2200.49	-0.0944614
2201.93	0.278833
2203.36	0.337585
2204.8	-0.198601
2206.23	0.344902
2207.67	0.541027
2209.1	0.438576
2210.54	0.731974
2211.97	0.0637684
2213.41	0.105804
2214.84	0.444862
2216.27	0.586514
2217.71	-0.193697
2219.14	-0.195841
2220.57	0.0673656
2222.01	-0.196737
2223.44	-0.0171394
2224.87	0.126806
2226.3	0.300283
2227.73	0.404589
2229.16	0.210617
2230.6	0.0319996
2232.03	0.0991802
2233.46	0.133989
2234.89	-0.745529
2236.32	-0.281652
2237.75	0.412951
2239.18	0.261847
2240.61	0.294106
2242.03	0.052515
2243.46	0.253649
2244.89	0.178185
2246.32	1.06384
2247.75	1.03293
2249.17	0.573929
2250.6	0.176271
2252.03	-0.2241
2253.46	0.317852
2254.88	-0.180424
2256.31	0.428766
2257.73	-0.0616665
2259.16	-0.0759563
2260.59	0.0774708
2262.01	0.00832939
2263.44	0.348156
2264.86	-0.026104
2266.29	-0.0112362
2267.71	0.197378
2269.14	0.209127
2270.56	-0.464363
2271.98	0.310043
2273.4	0.0584221
2274.83	0.214106
2276.25	0.630941
2277.67	-0.190321
2279.09	0.553148
2280.52	0.139122
2281.94	0.246582
2283.36	-0.168146
2284.78	0.281895
2286.2	0.308184
2287.62	0.351517
2289.04	0.134398
2290.46	0.228336
2291.88	0.24115
2293.3	-0.121948
2294.72	0.479935
2296.14	0.198265
2297.56	0.391142
2298.98	-0.0710258
2300.4	-0.00875473
2301.82	0.873983
2303.23	0.544102
2304.65	-0.0484524
2306.07	0.458591
2307.49	0.357515
2308.9	0.0415974
2310.32	0.727407
2311.73	-0.10043
2313.15	0.4533
2314.57	0.432079
2315.98	0.231123
2317.4	0.278597
2318.81	-0.0851421
2320.23	0.325472
2321.64	0.371347
2323.06	0.793207
2324.47	0.352386
2325.88	0.550798
2327.3	0.811747
2328.71	0.345779
2330.12	0.687796
2331.54	0.0763187
2332.95	0.306803
2334.36	-0.316811
2335.77	-0.28166
2337.18	-0.0500164
2338.6	0.0152493
2340.01	0.505503
2341.42	-0.780174
2342.83	-0.0466118
2344.24	-0.0192776
2345.65	0.38549
2347.06	0.479105
2348.47	0.278021
2349.88	-0.545164
2351.29	0.0861797
2352.7	0.290005
2354.1	0.165319
2355.51	-0.00934219
2356.92	-0.200556
2358.33	-0.147448
2359.74	0.409451
2361.14	0.445986
2362.55	0.125734
2363.96	0.0164928
2365.36	-0.189669
2366.77	0.445328
2368.18	-0.27599
2369.58	-0.413319
2370.99	-0.177231
2372.39	0.286592
2373.8	0.156075
2375.2	0.12298
2376.61	0.169647
2378.01	0.101646
2379.42	0.255737
2380.82	-0.235735
2382.22	0.0568409
2383.63	0.202913
2385.03	0.572096
2386.43	0.150349
2387.84	-0.268724
2389.24	0.104498
2390.64	0.479483
2392.04	-0.242306
2393.44	0.0251846
2394.84	0.293987
2396.25	0.230064
2397.65	-0.30938
2399.05	0.217117
2400.45	-0.129395
2401.85	0.255451
2403.25	0.274992
2404.65	0.182673
2406.05	0.16811
2407.45	0.310461
2408.84	0.847651
2410.24	0.274065
2411.64	0.176792
2413.04	0.128668
2414.44	0.0196781
2415.83	0.546738
2417.23	-0.269316
2418.63	0.0403728
2420.02	0.841825
2421.42	-0.130764
2422.82	-0.13793
2424.21	0.377241
2425.61	-0.137358
2427	0.743589
2428.4	-0.180677
2429.8	-0.0411701
2431.19	0.480562
2432.58	0.272833
2433.98	-0.476044
2435.37	0.694729
2436.77	-0.250076
2438.16	0.708754
2439.55	0.235184
2440.95	-0.0969772
2442.34	0.395523
2443.73	0.26825
2445.12	0.58486
2446.51	0.504536
2447.91	0.265547
2449.3	0.296034
2450.69	0.216093
2452.08	0.327168
2453.47	0.0124435
2454.86	0.506308
2456.25	0.194635
2457.64	-0.575097
2459.03	0.489721
2460.42	-0.486852
2461.81	-0.35779
2463.2	-0.0563965
2464.59	0.243679
2465.98	0.195505
2467.36	0.00512695
2468.75	-0.0431805
2470.14	-0.233755
2471.53	0.536528
2472.92	-0.00287628
2474.3	0.291307
2475.69	0.00181389
2477.08	-0.193619
2478.46	-0.153265
2479.85	0.0599499
2481.23	0.13203
2482.62	0.109875
2484	-0.147953
2485.39	0.296824
2486.77	0.347973
2488.16	-0.305277
2489.54	0.163773
2490.93	0.242237
2492.31	0.368137
2493.69	-0.4203
2495.08	0.40863
2496.46	-0.419949
2497.84	0.0863323
2499.23	0.112598
2500.61	-0.279418
2501.99	0.285921
2503.37	-0.0934525
2504.75	0.00440407
2506.13	-0.36134
2507.52	0.473738
2508.9	0.523153
2510.28	0.312229
2511.66	0.0722752
2513.04	0.0948334
2514.42	-0.172022
2515.8	-0.0695152
2517.18	0.0190086
2518.55	0.154324
2519.93	0.167591
2521.31	0.302523
2522.69	-0.0981617
2524.07	0.506781
2525.45	-0.140251
2526.82	-0.360353
2528.2	-0.305477
2529.58	-0.431129
2530.95	-0.0217972
2532.33	-0.111042
2533.71	0.0453758
2535.08	0.400627
2536.46	-0.0342197
2537.84	-0.136043
2539.21	-0.254788
2540.59	-0.329442
2541.96	0.703238
2543.34	0.188173
2544.71	0.175583
2546.08	-0.0166969
2547.46	-0.100503
2548.83	0.530323
2550.2	-0.325587
2551.58	0.183233
2552.95	-0.0532312
2554.32	0.618887
2555.7	-0.137062
2557.07	0.425903
2558.44	-0.543171
2559.81	0.323039
2561.18	0.14409
2562.55	0.0724831
2563.93	-0.0889292
2565.3	0.629389
2566.67	0.348033
2568.04	0.172912
2569.41	0.225145
2570.78	-0.177324
2572.15	-0.306912
2573.51	0.548944
2574.88	0.116533
2576.25	0.320877
2577.62	-0.23299
2578.99	-0.226307
2580.36	0.598554
2581.73	0.164109
2583.09	0.214192
2584.46	0.0364246
2585.83	-0.580976
2587.19	-0.10676
2588.56	-0.10208
2589.93	0.296816
2591.29	0.119603
2592.66	0.638536
2594.02	0.383175
2595.39	-0.525126
2596.75	0.714786
2598.12	0.136577
2599.48	0.374743
2600.85	0.295535
2602.21	-0.114881
2603.58	0.321679
2604.94	-0.267146
2606.3	-0.13113
2607.67	0.531945
2609.03	0.243349
2610.39	-0.0020113
2611.76	0.171928
2613.12	0.14794
2614.48	0.543149
2615.84	-0.128328
2617.2	0.760982
2618.56	0.182091
2619.92	0.787815
2621.28	0.646399
2622.65	0.401613
2624.01	0.0978794
2625.37	0.316738
2626.72	0.340974
2628.08	-0.171881
2629.44	0.283308
2630.8	0.201796
2632.16	0.313478
2633.52	0.157531
2634.88	0.105682
2636.24	-0.124092
2637.59	0.00212193
2638.95	0.231881
2640.31	0.16568
2641.67	0.144431
2643.02	0.0794249
2644.38	-0.472334
2645.74	0.378017
2647.09	-0.35094
2648.45	0.186721
2649.8	0.0744381
2651.16	0.137523
2652.51	0.317394
2653.87	0.145226
2655.22	0.238623
2656.58	-0.207975
2657.93	-0.183456
2659.29	0.354674
2660.64	-0.291309
2661.99	0.0130157
2663.35	0.184473
2664.7	0.602349
2666.05	-0.119441
2667.41	0.310322
2668.76	-0.0179701
2670.11	0.440471
2671.46	0.215879
2672.81	0.443216
2674.16	-0.170794
2675.51	0.363562
2676.87	0.361691
2678.22	0.187029
2679.57	-0.290466
2680.92	0.306963
2682.27	-0.2388
2683.62	0.116538
2684.97	0.517321
2686.31	0.629047
2687.66	0.667971
2689.01	0.312706
2690.36	0.186525
2691.71	0.419855
2693.06	0.693711
2694.4	0.283954
2695.75	-0.154682
2697.1	0.147017
2698.45	0.537751
2699.79	0.497112
2701.14	0.0542984
2702.49	0.309337
2703.83	0.334658
2705.18	0.723419
2706.52	0.75004
2707.87	0.369865
2709.21	0.235426
2710.56	0.564885
2711.9	0.458255
2713.25	0.641932
2714.59	0.258704
2715.94	0.384039
2717.28	-0.0434895
2718.62	0.401162
2719.97	0.146898
2721.31	0.444748
2722.65	0.392449
2723.99	0.0627155
2725.34	0.605514
2726.68	0.507162
2728.02	0.786632
2729.36	0.454406
2730.7	0.369351
2732.04	1.33176
2733.39	0.47575
2734.73	0.652987
2736.07	0.19062
2737.41	0.775719
2738.75	0.197276
2740.08	0.0983429
2741.43	1.00184
2742.76	0.217496
2744.1	0.449566
2745.44	0.593167
2746.78	0.111435
2748.12	0.399077
2749.46	0.0771885
2750.79	0.23453
2752.13	0.464717
2753.47	0.47779
2754.81	0.0130806
2756.14	0.403448
2757.48	0.0119991
2758.81	0.127889
2760.15	0.186551
2761.49	-0.448518
2762.82	0.769526
2764.16	0.222788
2765.49	0.515249
2766.83	0.126878
2768.16	0.662642
2769.5	0.400452
2770.83	0.265858
2772.16	0.128933
2773.5	0.322206
2774.83	0.254646
2776.17	0.403183
2777.5	0.0772381
2778.83	0.0979605
2780.16	0.0764923
2781.5	0.457738
2782.83	0.020648
2784.16	-0.301228
2785.49	-0.00643539
2786.82	-0.141366
2788.15	-0.332479
2789.49	-0.0641594
2790.82	0.119745
2792.15	0.0618868
2793.48	0.305097
2794.81	-0.166316
2796.14	0.147754
2797.46	0.232114
2798.79	0.486728
2800.12	-0.144517
2801.45	0.465399
2802.78	0.104827
2804.11	0.171665
2805.44	0.180662
2806.76	-0.138814
2808.09	0.209488
2809.42	0.55651
2810.75	0.306623
2812.07	-0.0978804
2813.4	0.322779
2814.73	0.419634
2816.05	0.0655203
2817.38	0.478911
2818.7	0.53902
2820.03	1.0527
2821.36	0.105706
2822.68	0.305531
2824.01	0.43331
2825.33	0.0221481
2826.65	0.616698
2827.98	0.758894
2829.3	0.817162
2830.63	0.225131
2831.95	0.737669
2833.27	0.981119
2834.6	1.53533
2835.92	1.06954
2837.24	2.03197
2838.56	1.88976
2839.88	2.35531
2841.21	3.10359
2842.53	3.47074
2843.85	3.86738
2845.17	3.48818
2846.49	3.52013
2847.81	3.82133
2849.13	3.86821
2850.45	3.85794
2851.77	3.87495
2853.09	3.77788
2854.41	3.9768
2855.73	3.99163
2857.05	4.13356
2858.37	4.4168
2859.69	4.69992
2861	5.12382
2862.32	4.51633
2863.64	5.03749
2864.96	5.03579
2866.28	5.37258
2867.59	6.01999
2868.91	5.85023
2870.23	6.47085
2871.54	7.04932
2872.86	6.73916
2874.17	7.24479
2875.49	7.46618
2876.81	7.64282
2878.12	7.70498
2879.44	7.21798
2880.75	7.22414
2882.07	7.13364
2883.38	6.70833
2884.69	6.62223
2886.01	6.31277
2887.32	7.21059
2888.63	6.39524
2889.95	6.43445
2891.26	6.51404
2892.57	6.41013
2893.89	6.50214
2895.2	6.66479
2896.51	6.53498
2897.82	7.16295
2899.13	6.98122
2900.44	7.12288
2901.76	6.7059
2903.07	6.8209
2904.38	7.03407
2905.69	6.92607
2907	7.54648
2908.31	7.53906
2909.62	8.1629
2910.93	7.79447
2912.24	8.15374
2913.55	8.51165
2914.85	7.77484
2916.16	8.88268
2917.47	9.16128
2918.78	9.46574
2920.09	8.77666
2921.4	9.38964
2922.7	9.64129
2924.01	10.0494
2925.32	9.36942
2926.62	8.84438
2927.93	9.43773
2929.24	9.86264
2930.54	9.86707
2931.85	10.0383
2933.15	9.42627
2934.46	9.96037
2935.76	9.9216
2937.07	9.6875
2938.37	9.18828
2939.68	9.44419
2940.98	8.48536
2942.29	8.95344
2943.59	8.31974
2944.89	7.99584
2946.2	7.74381
2947.5	7.40874
2948.8	6.80703
2950.11	7.25295
2951.41	6.70164
2952.71	6.791
2954.01	6.51382
2955.32	7.13191
2956.62	6.56173
2957.92	5.46332
2959.22	5.54529
2960.52	6.15044
2961.82	5.68054
2963.12	6.09516
2964.42	5.76528
2965.72	5.48864
2967.02	5.82715
2968.32	5.16538
2969.62	5.50028
2970.92	5.2303
2972.22	4.82003
2973.51	4.79009
2974.81	4.76011
2976.11	4.26436
2977.41	4.56883
2978.71	4.32113
2980	4.50677
2981.3	3.8597
2982.6	3.47938
2983.9	3.91538
2985.19	3.56594
2986.49	3.55659
2987.78	3.2407
2989.08	3.05304
2990.38	2.90798
2991.67	2.69177
2992.97	2.40345
2994.26	2.07083
2995.56	2.25612
2996.85	2.41188
2998.14	2.04787
2999.44	1.51627
3000.73	1.93946
3002.03	1.01778
3003.32	1.58268
3004.61	1.53107
3005.91	1.47899
3007.2	1.04791
3008.49	1.06346
3009.78	0.75583
3011.07	0.852495
3012.37	0.850527
3013.66	0.722978
3014.95	0.861189
3016.24	0.401405
3017.53	0.959794
3018.82	0.363542
3020.11	0.296523
3021.4	0.145414
3022.69	0.284711
3023.98	0.31107
3025.27	0.419226
3026.56	0.194369
3027.85	0.178294
3029.14	0.357716
3030.43	0.276958
3031.71	-0.464037
3033	0.150228
3034.29	-0.187632
3035.58	0.0394459
3036.87	0.277833
3038.15	-0.0795898
3039.44	0.0833607
3040.73	0.0507936
3042.01	0.359846
3043.3	0.338971
3044.59	0.333339
3045.87	0.398956
3047.16	0.304351
3048.44	0.186676
3049.73	0.659666
3051.01	0.50755
3052.3	0.397834
3053.58	0.219935
3054.87	0.395651
3056.15	0.133017
3057.43	0.563917
3058.72	0.325377
3060	0.440632
3061.29	0.651632
3062.57	0.877725
3063.85	0.956541
3065.13	0.616666
3066.42	0.374481
3067.7	0.269979
3068.98	0.533288
3070.26	-0.237473
3071.54	0.377508
3072.82	-0.0840254
3074.11	0.417709
3075.39	0.197237
3076.67	0.112196
3077.95	0.543711
3079.23	0.406894
3080.51	0.0693035
3081.79	0.00579166
3083.07	0.283559
3084.35	-0.00728607
3085.63	-0.121712
3086.9	0.224543
3088.18	-0.136218
3089.46	-0.118126
3090.74	-0.331512
3092.02	0.201093
3093.29	-0.215732
3094.57	0.385183
3095.85	0.172832
3097.13	-0.134193
3098.4	-0.346336
3099.68	-0.00307465
3100.95	0.448215
3102.23	0.411819
3103.51	-0.0843897
3104.78	0.435667
3106.06	0.144819
3107.33	0.559304
3108.61	0.068881
3109.88	0.04039
3111.16	0.582253
3112.43	0.448568
3113.71	0.125799
3114.98	0.114521
3116.25	0.156659
3117.53	0.305831
3118.8	0.0868864
3120.07	0.639084
3121.35	0.592833
3122.62	0.586198
3123.89	0.118649
3125.16	0.477736
3126.44	0.363573
3127.71	0.737533
3128.98	0.435912
3130.25	0.175649
3131.52	0.510432
3132.79	0.250233
3134.06	0.502829
3135.33	0.686769
3136.6	0.194902
3137.87	0.430821
3139.14	0.571431
3140.41	0.321186
3141.68	0.501767
3142.95	0.131674
3144.22	0.125488
3145.49	0.831306
3146.76	0.8134
3148.02	0.984238
3149.29	0.821142
