200.398	-0.366093
202.213	-0.342621
204.027	-0.317064
205.843	1.16929
207.657	0.95302
209.47	0.055727
211.283	0.323414
213.097	0.394545
214.909	0.851841
216.721	0.362202
218.533	0.98741
220.344	0.741381
222.157	0.448784
223.967	0.278799
225.777	1.10072
227.587	1.22155
229.396	0.134317
231.205	1.02625
233.016	0.590004
234.824	1.14326
236.632	0.902634
238.439	0.593184
240.247	1.4448
242.053	1.79427
243.86	1.71221
245.666	1.82314
247.474	2.80078
249.279	3.58089
251.085	3.22039
252.889	3.48241
254.694	3.01712
256.498	2.62375
258.301	3.99141
260.105	3.38564
261.908	3.74733
263.71	3.19679
265.513	3.03371
267.315	2.89538
269.116	2.9252
270.918	2.78481
272.718	3.05217
274.519	2.15968
276.319	2.6385
278.119	2.05343
279.918	2.35645
281.718	1.50007
283.516	0.9303
285.315	0.623352
287.113	2.06774
288.911	1.30318
290.708	0.804792
292.505	0.955643
294.302	0.821808
296.098	1.40784
297.894	1.37385
299.69	0.0983772
301.485	0.0893135
303.278	1.29656
305.073	1.18813
306.867	1.36435
308.661	1.13465
310.454	1.02517
312.247	1.53699
314.04	0.384489
315.833	1.49734
317.623	1.18454
319.415	0.826612
321.206	1.23306
322.997	0.782803
324.788	0.857727
326.579	0.550913
328.367	0.816704
330.156	0.292858
331.946	1.20159
333.735	0.457281
335.523	1.1688
337.31	0.440716
339.098	0.833727
340.885	0.291126
342.673	0.679785
344.458	-0.413506
346.244	-0.0243359
348.03	0.413403
349.816	-0.246403
351.6	-0.0466499
353.385	0.0328178
355.17	0.301363
356.953	0.68672
358.737	1.11707
360.521	-0.217424
362.304	0.566313
364.085	-0.126707
365.868	0.700678
367.65	0.528326
369.431	0.520792
371.212	0.772308
372.994	0.761757
374.773	0.60873
376.554	0.833755
378.332	1.05912
380.112	1.02639
381.892	0.878008
383.669	1.50825
385.448	1.15262
387.225	0.916973
389.003	1.38815
390.781	0.616055
392.557	1.7478
394.334	1.26015
396.109	2.79286
397.885	2.32963
399.66	2.75856
401.436	2.76396
403.211	2.79166
404.984	2.81795
406.759	2.86629
408.532	3.40649
410.306	3.03036
412.078	3.35848
413.851	3.31188
415.623	3.47786
417.395	3.78625
419.166	3.50936
420.938	3.60851
422.708	3.94201
424.477	4.13338
426.248	3.00826
428.017	2.72668
429.788	2.23293
431.556	2.4668
433.326	1.43386
435.093	1.43425
436.86	1.41116
438.629	1.48076
440.395	0.773451
442.163	0.626009
443.929	0.943825
445.694	0.859678
447.461	1.12453
449.226	1.34125
450.99	0.576418
452.756	0.280291
454.52	-0.084938
456.285	0.692406
458.048	0.792894
459.811	0.311523
461.573	0.483065
463.337	0.866152
465.099	0.811625
466.86	0.73888
468.623	0.0665627
470.384	0.745768
472.144	0.728859
473.906	0.710752
475.666	1.55135
477.425	1.1538
479.184	0.776096
480.944	0.652807
482.703	0.66947
484.461	0.268883
486.218	1.38573
487.975	1.1555
489.734	1.37192
491.491	0.796959
493.247	1.46055
495.003	0.886351
496.759	0.498222
498.516	1.09296
500.271	0.398212
502.025	-0.134529
503.779	0.622253
505.533	0.884569
507.287	1.19182
509.042	1.42601
510.795	0.410347
512.547	0.379959
514.299	1.07639
516.051	0.78211
517.803	0.603416
519.554	1.19882
521.305	1.32237
523.055	1.16309
524.805	0.815788
526.555	0.844151
528.307	1.36488
530.056	1.97866
531.805	1.09205
533.553	1.3286
535.301	1.51591
537.049	1.2563
538.797	1.13466
540.544	0.544674
542.291	1.28228
544.037	0.877371
545.783	1.42606
547.529	0.790071
549.275	1.0833
551.02	0.658407
552.765	0.836187
554.509	1.38363
556.253	0.637772
557.997	0.424479
559.738	0.696318
561.482	1.12979
563.224	0.781565
564.967	-0.0707569
566.709	0.893879
568.451	0.297668
570.192	1.05785
571.933	0.672932
573.674	0.405842
575.415	0.440172
577.153	-0.256746
578.893	0.150082
580.632	0.558699
582.371	0.78417
584.11	0.962984
585.849	0.45019
587.587	0.509956
589.323	0.429548
591.06	0.623526
592.797	0.954576
594.534	-0.118111
596.271	1.22503
598.005	0.244461
599.741	0.252588
601.476	-0.361807
603.211	-0.0122051
604.944	-0.194094
606.679	-0.355158
608.413	0.355152
610.147	0.329903
611.878	-0.359688
613.611	-0.428215
615.344	0.765055
617.077	0.285339
618.807	0.515112
620.539	-0.0584145
622.27	0.327316
623.999	0.871
625.73	0.271603
627.461	1.36425
629.189	0.45126
630.919	1.00336
632.648	-0.0380497
634.376	0.15476
636.105	0.598288
637.833	0.0573139
639.559	0.0823288
641.287	0.717863
643.013	1.30243
644.74	0.0164165
646.467	0.666763
648.192	0.660204
649.918	0.250296
651.642	0.665451
653.368	0.906096
655.091	0.539143
656.816	0.130342
658.538	0.771065
660.263	1.00181
661.987	0.385201
663.708	0.403423
665.432	0.851671
667.153	1.02224
668.875	1.09986
670.596	0.400894
672.318	0.0253735
674.037	0.56983
675.759	0.156462
677.478	-0.301208
679.196	0.251127
680.917	0.389109
682.635	0.0640354
684.355	0.356287
686.072	0.253727
687.791	-0.174213
689.508	-0.419914
691.224	0.0932465
692.942	0.789558
694.658	0.770445
696.376	0.404114
698.091	0.450214
699.805	0.240896
701.522	-0.292313
703.236	1.05811
704.95	-0.0750961
706.665	0.398886
708.379	0.802608
710.093	0.288399
711.806	1.19383
713.518	-0.00726318
715.23	-0.0867977
716.943	0.472963
718.655	0.393181
720.366	0.245466
722.078	-0.152237
723.788	0.81605
725.498	0.714008
727.208	-0.0470695
728.919	0.667471
730.628	-0.433792
732.337	0.663321
734.045	0.174059
735.755	-0.0655613
737.463	0.283035
739.17	0.88032
740.877	1.20783
742.584	0.996445
744.292	0.607672
745.998	0.761961
747.704	0.536236
749.409	1.66261
751.114	0.721935
752.819	0.728336
754.526	0.692225
756.23	0.388727
757.934	0.560575
759.637	1.61389
761.34	1.47586
763.043	0.639265
764.746	0.771946
766.448	0.383223
768.152	0.578651
769.853	0.408642
771.554	1.36566
773.255	1.30251
774.956	0.605337
776.656	0.451778
778.356	1.92848
780.056	0.694515
781.755	1.20397
783.454	0.71837
785.153	1.49829
786.851	0.440622
788.549	0.848824
790.247	0.821098
791.944	0.99194
793.641	0.75305
795.338	1.30355
797.034	1.11083
798.73	1.01143
800.426	1.3881
802.121	1.31706
803.817	0.707649
805.511	1.13261
807.206	0.589581
808.9	1.07808
810.592	1.519
812.286	0.701746
813.979	0.556919
815.672	1.01632
817.364	1.25116
819.057	1.12813
820.748	0.224016
822.44	1.44174
824.129	1.65572
825.82	1.35941
827.511	1.3568
829.201	-0.244274
830.891	0.988445
832.581	2.31593
834.269	1.95459
835.958	0.568863
837.646	0.832737
839.335	1.02794
841.023	0.885424
842.709	1.83518
844.396	1.2201
846.084	0.851774
847.77	1.73848
849.455	1.19872
851.141	0.931496
852.827	1.20529
854.513	0.853222
856.196	1.15159
857.881	1.31373
859.566	0.460556
861.248	0.526096
862.932	0.295927
864.616	0.401318
866.297	0.753103
867.98	1.41958
869.663	0.439093
871.343	0.450205
873.026	0.0548553
874.707	0.40386
876.387	0.414494
878.068	-0.297077
879.747	1.09029
881.428	1.12281
883.108	0.657362
884.786	1.31869
886.465	0.555325
888.143	0.421286
889.822	0.600163
891.498	-0.0577412
893.177	-0.311796
894.855	-0.297518
896.53	0.681519
898.208	0.197006
899.883	-0.0189552
901.56	0.436226
903.234	-0.386223
904.91	-0.022543
906.584	0.0504684
908.26	0.324997
909.933	0.155113
911.608	0.187391
913.28	0.420948
914.955	0.810122
916.627	0.910332
918.298	-0.40819
919.972	0.667225
921.643	0.724083
923.315	0.915503
924.986	1.17598
926.656	-0.238388
928.328	0.404142
929.997	0.408714
931.668	1.05442
933.337	0.487185
935.006	0.670391
936.676	0.413212
938.344	0.422304
940.012	0.87476
941.681	0.734015
943.348	0.351934
945.014	1.20546
946.683	1.06386
948.349	1.29405
950.015	0.593578
951.682	0.266127
953.347	1.08576
955.012	0.0555859
956.676	0.0228672
958.343	0.260765
960.006	-0.0697231
961.67	-0.198895
963.333	-0.0630703
964.998	0.645012
966.661	-0.509697
968.323	-0.762753
969.985	0.462666
971.649	0.0712414
973.31	0.0566826
974.971	0.730276
976.632	-0.162876
978.293	0.716194
979.953	0.656652
981.615	0.596416
983.274	0.876799
984.933	1.02067
986.592	0.82847
988.251	1.62844
989.909	1.43005
991.567	1.65041
993.225	0.96454
994.884	2.20008
996.541	2.13281
998.198	3.34442
999.855	3.20991
1001.51	3.95559
1003.17	4.21516
1004.82	3.39601
1006.48	4.59948
1008.13	4.37406
1009.79	4.85189
1011.44	3.33442
1013.1	3.83619
1014.75	3.33066
1016.4	2.27926
1018.06	1.75518
1019.71	1.86746
1021.36	1.15097
1023.01	1.44259
1024.66	1.69236
1026.32	0.501066
1027.97	1.47324
1029.62	0.958391
1031.27	1.57706
1032.92	1.03503
1034.57	1.3193
1036.22	2.49429
1037.87	1.98821
1039.52	1.3956
1041.16	2.11026
1042.81	2.58749
1044.46	2.87235
1046.11	3.66076
1047.76	3.95358
1049.4	3.55516
1051.05	4.44103
1052.7	5.52462
1054.34	5.37103
1055.99	4.97831
1057.63	5.04128
1059.28	3.32025
1060.92	3.16296
1062.57	2.80824
1064.21	1.69052
1065.85	2.15789
1067.5	2.18805
1069.14	1.1298
1070.78	0.592207
1072.43	1.27036
1074.07	1.4498
1075.71	1.28412
1077.35	0.860996
1078.99	1.13444
1080.63	0.542076
1082.27	0.621992
1083.91	0.505093
1085.55	0.298367
1087.19	1.10616
1088.83	0.804527
1090.47	0.521358
1092.11	0.603714
1093.75	0.879229
1095.39	0.356169
1097.03	0.525454
1098.66	0.912563
1100.3	0.785978
1101.94	0.340622
1103.57	1.21137
1105.21	1.43925
1106.84	0.141296
1108.48	0.391455
1110.11	0.35993
1111.75	-0.147535
1113.38	0.0726738
1115.02	-0.22513
1116.65	0.484535
1118.29	0.271507
1119.92	0.831343
1121.55	0.129202
1123.19	0.992262
1124.82	0.765522
1126.45	0.583477
1128.08	0.445864
1129.71	-0.182028
1131.34	0.944454
1132.97	0.617718
1134.6	0.932062
1136.23	0.539783
1137.86	0.594269
1139.49	0.64629
1141.12	0.973719
1142.75	0.5315
1144.38	0.857761
1146.01	0.780008
1147.64	1.21575
1149.26	-0.328327
1150.89	0.514978
1152.52	0.591328
1154.15	0.666933
1155.77	0.464989
1157.4	0.326712
1159.02	0.252995
1160.65	-0.180498
1162.27	0.919224
1163.9	0.298697
1165.52	0.380894
1167.15	-0.19647
1168.77	1.05252
1170.39	0.682236
1172.02	0.499426
1173.64	0.355608
1175.26	0.336685
1176.89	0.910202
1178.51	0.169861
1180.13	0.0670052
1181.75	0.960306
1183.37	0.0780277
1184.99	0.57032
1186.61	0.553379
1188.23	0.701939
1189.85	0.593204
1191.47	0.396515
1193.09	0.575571
1194.71	0.77338
1196.33	0.131939
1197.94	0.77128
1199.56	1.1407
1201.18	1.09636
1202.8	1.32915
1204.41	0.857618
1206.03	1.68456
1207.65	0.323616
1209.26	0.215239
1210.88	1.315
1212.49	1.05545
1214.11	1.62501
1215.72	1.02292
1217.34	0.875662
1218.95	1.57848
1220.57	1.36607
1222.18	1.44582
1223.79	2.87487
1225.41	2.25518
1227.02	1.24649
1228.63	1.33806
1230.24	1.08073
1231.85	1.73559
1233.47	1.42139
1235.08	1.70923
1236.69	2.16503
1238.3	1.09338
1239.91	1.9458
1241.52	2.282
1243.13	2.49356
1244.74	0.696455
1246.34	2.80786
1247.95	1.52353
1249.56	1.33433
1251.17	1.45478
1252.78	1.16191
1254.38	2.50456
1255.99	1.7604
1257.6	1.32903
1259.2	1.66557
1260.81	1.56952
1262.42	2.65479
1264.02	2.41519
1265.63	1.7394
1267.23	2.03589
1268.84	2.04027
1270.44	2.41564
1272.04	0.901934
1273.65	1.56313
1275.25	1.04055
1276.85	1.13794
1278.46	1.62713
1280.06	2.0732
1281.66	1.40058
1283.26	1.16316
1284.86	1.3613
1286.46	1.70584
1288.07	1.49434
1289.67	2.19415
1291.27	2.6263
1292.87	1.90118
1294.47	1.71186
1296.06	2.4493
1297.66	2.1712
1299.26	2.34367
1300.86	2.71877
1302.46	2.61673
1304.06	2.30691
1305.65	2.98297
1307.25	2.40362
1308.85	2.64548
1310.44	2.84577
1312.04	2.55508
1313.64	2.59385
1315.23	2.38946
1316.83	2.35084
1318.42	2.29313
1320.02	3.56046
1321.61	2.31826
1323.2	2.8455
1324.8	2.37171
1326.39	3.25613
1327.99	3.24481
1329.58	2.46524
1331.17	2.90438
1332.76	2.59991
1334.36	2.68449
1335.95	2.08655
1337.54	3.4469
1339.13	2.4057
1340.72	2.81256
1342.31	1.88585
1343.9	2.12264
1345.49	2.47681
1347.08	2.34895
1348.67	2.76581
1350.26	1.92643
1351.85	2.45391
1353.43	1.64589
1355.02	2.82006
1356.61	2.17612
1358.2	2.13093
1359.78	3.26188
1361.37	2.15398
1362.96	2.66112
1364.54	1.95074
1366.13	2.23788
1367.71	2.50651
1369.3	1.86187
1370.88	2.31528
1372.47	2.41341
1374.05	1.69825
1375.64	2.1188
1377.22	2.04216
1378.8	1.42721
1380.39	1.52649
1381.97	2.14015
1383.55	2.19378
1385.13	1.29103
1386.72	2.97083
1388.3	1.76991
1389.88	1.78229
1391.46	1.41961
1393.04	1.29691
1394.62	1.77015
1396.2	1.98505
1397.78	1.90097
1399.36	1.61661
1400.94	2.1028
1402.52	1.79536
1404.1	1.88382
1405.68	1.41961
1407.25	2.20287
1408.83	1.74267
1410.41	2.23205
1411.98	2.4249
1413.56	2.55711
1415.14	2.39121
1416.71	2.14465
1418.29	2.33105
1419.87	2.37999
1421.44	2.03741
1423.02	2.32843
1424.59	2.56398
1426.16	2.15289
1427.74	2.70752
1429.31	3.20259
1430.89	3.28228
1432.46	2.98541
1434.03	3.92582
1435.6	3.95991
1437.18	4.26963
1438.75	3.89294
1440.32	3.42047
1441.89	3.79539
1443.46	4.11301
1445.03	3.92059
1446.6	3.72858
1448.17	4.51976
1449.74	4.15185
1451.31	3.72596
1452.88	4.73681
1454.45	3.68359
1456.02	3.73167
1457.59	3.62094
1459.16	3.99934
1460.72	2.30745
1462.29	3.74015
1463.86	3.35882
1465.43	3.23077
1466.99	3.75021
1468.56	2.87588
1470.13	2.63238
1471.69	2.56818
1473.26	2.50641
1474.82	2.05429
1476.38	1.4464
1477.95	2.13282
1479.51	1.4468
1481.08	0.878332
1482.64	2.38711
1484.2	2.30806
1485.77	2.03237
1487.33	1.2851
1488.89	1.71016
1490.46	1.44594
1492.02	1.27507
1493.58	0.826258
1495.14	1.13541
1496.7	1.85051
1498.26	1.1037
1499.82	0.670902
1501.38	2.20211
1502.94	1.92915
1504.5	2.06564
1506.06	1.79603
1507.62	0.191147
1509.18	1.4852
1510.73	1.69322
1512.29	1.2049
1513.85	1.94876
1515.41	1.03791
1516.96	1.05217
1518.52	1.0297
1520.08	1.73657
1521.63	1.75354
1523.19	1.55954
1524.75	1.00148
1526.3	0.347263
1527.85	1.00665
1529.41	1.01641
1530.96	1.15897
1532.52	1.6814
1534.07	1.04928
1535.62	1.4613
1537.18	1.02423
1538.73	1.36354
1540.28	1.17504
1541.84	1.32626
1543.39	1.28878
1544.94	1.58933
1546.49	1.83247
1548.04	1.73699
1549.59	1.64159
1551.14	1.28464
1552.69	1.22881
1554.25	1.38067
1555.79	1.42326
1557.34	1.52566
1558.89	1.40837
1560.44	1.85501
1561.99	1.24186
1563.54	2.38487
1565.08	1.14117
1566.63	2.1741
1568.18	1.20977
1569.73	1.943
1571.27	1.94749
1572.82	1.44733
1574.37	1.7122
1575.91	1.80911
1577.46	2.27984
1579	2.30348
1580.55	2.58992
1582.09	1.90709
1583.64	2.51482
1585.18	1.83516
1586.73	2.42743
1588.27	2.21629
1589.81	1.79871
1591.35	1.52963
1592.9	2.15813
1594.44	2.46794
1595.98	3.43377
1597.52	2.93928
1599.06	2.35219
1600.61	2.51654
1602.15	2.58829
1603.69	2.26579
1605.23	2.09184
1606.77	2.68533
1608.31	2.16579
1609.85	2.50569
1611.39	2.46448
1612.93	2.21224
1614.46	2.46408
1616	1.81425
1617.54	2.12215
1619.08	1.96388
1620.61	1.65921
1622.15	1.95692
1623.69	2.53723
1625.23	2.23775
1626.76	2.03033
1628.3	2.10084
1629.83	2.41129
1631.37	1.35471
1632.9	2.70792
1634.44	3.16412
1635.97	1.23346
1637.51	2.66357
1639.04	1.80091
1640.57	2.56042
1642.11	2.23753
1643.64	2.21045
1645.17	2.51569
1646.71	3.06018
1648.24	2.95276
1649.77	2.15925
1651.3	2.68647
1652.83	2.01031
1654.36	2.33844
1655.89	2.61222
1657.42	2.51517
1658.96	3.23148
1660.48	2.40771
1662.01	1.74817
1663.54	2.27011
1665.07	2.34663
1666.6	1.66705
1668.13	1.8207
1669.66	2.54882
1671.19	2.65316
1672.71	2.18896
1674.24	2.14968
1675.77	1.98111
1677.29	1.82934
1678.82	1.30742
1680.35	1.57433
1681.87	2.20674
1683.4	1.35018
1684.92	1.83447
1686.45	1.75038
1687.97	1.4108
1689.5	1.3839
1691.02	1.06463
1692.54	1.18511
1694.07	0.610252
1695.59	1.37023
1697.11	1.28832
1698.64	1.46144
1700.16	0.903372
1701.68	0.107817
1703.2	0.970598
1704.72	0.137299
1706.25	1.1057
1707.77	0.908295
1709.29	0.820036
1710.81	-0.0845814
1712.33	0.735352
1713.85	0.485312
1715.37	-0.126205
1716.89	-0.338898
1718.41	-0.153925
1719.92	-0.186089
1721.44	-0.235897
1722.96	0.148222
1724.48	-0.0245876
1725.99	0.363813
1727.51	0.30475
1729.03	0.841761
1730.55	-0.306587
1732.06	0.533756
1733.58	0.19455
1735.09	0.459627
1736.61	0.29624
1738.13	0.250761
1739.64	-0.507147
1741.15	0.200277
1742.67	0.303774
1744.18	0.427036
1745.7	0.288845
1747.21	0.470953
1748.72	0.23366
1750.24	0.623138
1751.75	-0.0965214
1753.26	0.372934
1754.77	0.706198
1756.29	-0.401081
1757.8	0.446199
1759.31	0.432957
1760.82	0.216633
1762.33	-0.0227127
1763.84	0.537855
1765.35	0.2631
1766.86	-0.00934029
1768.37	0.190321
1769.88	-0.0052948
1771.39	0.0287018
1772.9	0.334856
1774.4	-0.362017
1775.91	0.145323
1777.42	-0.274523
1778.93	-0.0216064
1780.44	0.218952
1781.94	-0.0714207
1783.45	0.207582
1784.96	0.0651608
1786.46	0.0371208
1787.97	0.220398
1789.47	0.118162
1790.98	-0.254213
1792.48	0.288214
1793.99	-0.0147209
1795.49	0.0187778
1797	0.124981
1798.5	0.274656
1800.01	0.120762
1801.51	0.487259
1803.01	-0.0142212
1804.51	-0.0198421
1806.02	0.105764
1807.52	0.334726
1809.02	0.468351
1810.52	0.606066
1812.02	0.224546
1813.52	-0.0146027
1815.02	0.464184
1816.53	0.300245
1818.03	0.141382
1819.52	-0.304457
1821.02	-0.0147724
1822.52	0.0942898
1824.02	-0.438377
1825.52	0.168175
1827.02	0.201071
1828.52	0.125887
1830.02	-0.272772
1831.51	0.0616016
1833.01	0.395054
1834.51	0.113676
1836.01	-0.0671902
1837.5	0.186155
1839	0.418411
1840.49	-0.177153
1841.99	0.577518
1843.49	-0.152035
1844.98	0.195646
1846.48	0.166441
1847.97	0.272465
1849.47	0.400064
1850.96	-0.0691719
1852.45	0.479279
1853.95	-0.344513
1855.44	-0.134718
1856.93	0.159122
1858.42	-0.386642
1859.92	0.150042
1861.41	0.0113983
1862.9	0.193148
1864.39	0.177774
1865.88	-0.0760498
1867.38	0.416502
1868.87	0.532972
1870.36	0.498871
1871.85	0.116852
1873.34	0.351957
1874.83	0.34618
1876.32	0.605513
1877.81	0.235697
1879.29	-0.0260258
1880.78	0.436911
1882.27	-0.203608
1882.53	-0.361149
1884.03	0.211176
1885.52	-0.333916
1887.01	0.809032
1888.51	-0.174082
1890	0.0448074
1891.5	0.109219
1892.99	0.385872
1894.48	-0.341738
1895.97	0.359848
1897.47	0.228807
1898.96	-0.493969
1900.45	0.955456
1901.94	-0.312576
1903.43	0.450672
1904.92	-0.00672722
1906.41	0.368521
1907.9	0.448135
1909.39	-0.0784149
1910.88	-0.133942
1912.37	-0.0659733
1913.86	-0.482365
1915.35	-0.204762
1916.84	-0.188032
1918.33	0.278151
1919.81	-0.435135
1921.3	0.514662
1922.79	0.564425
1924.28	0.0275841
1925.76	-0.350737
1927.25	-0.328493
1928.73	-0.322113
1930.22	-0.142626
1931.71	0.468054
1933.19	0.123062
1934.68	0.46664
1936.16	-0.0762196
1937.65	0.381723
1939.13	0.00868416
1940.62	-0.380438
1942.1	0.0956917
1943.58	-0.0645161
1945.07	-0.0157146
1946.55	-0.0177975
1948.03	-0.313337
1949.51	0.45775
1951	0.158392
1952.48	-0.0738678
1953.96	0.277557
1955.44	-0.179262
1956.92	0.395744
1958.4	0.0277042
1959.88	-0.578436
1961.36	0.0346203
1962.84	0.510519
1964.32	0.16325
1965.8	0.12343
1967.28	0.219044
1968.76	-0.046114
1970.24	-0.0387383
1971.72	0.241344
1973.2	-0.0252438
1974.67	-0.257107
1976.15	0.227617
1977.63	0.320345
1979.1	-0.233591
1980.58	0.063652
1982.06	0.547102
1983.54	0.24786
1985.01	-0.425077
1986.49	-0.0460033
1987.96	-0.175941
1989.44	-0.0678616
1990.91	-0.144569
1992.39	0.102274
1993.86	0.148283
1995.33	-0.141857
1996.81	0.00842476
1998.28	-0.29743
1999.75	0.0375195
2001.23	0.235861
2002.7	0.635326
2004.17	-0.0279465
2005.65	0.253796
2007.12	-0.103041
2008.59	-0.407009
2010.06	-0.45639
2011.53	0.135086
2013	0.0869598
2014.47	0.54277
2015.94	0.559223
2017.41	0.15316
2018.88	0.165854
2020.35	0.177334
2021.82	0.322849
2023.29	0.200424
2024.76	0.281246
2026.23	0.0292263
2027.69	0.283686
2029.16	0.3067
2030.63	0.584379
2032.1	-0.108883
2033.56	0.47431
2035.03	-0.184797
2036.5	0.0451508
2037.96	0.526121
2039.43	0.0148506
2040.89	0.0243626
2042.36	1.16132
2043.83	0.652346
2045.29	0.111422
2046.75	0.076746
2048.22	0.261728
2049.68	0.0754166
2051.15	-0.163883
2052.61	0.655771
2054.07	-0.147539
2055.54	0.00660324
2057	0.02281
2058.46	0.357422
2059.92	0.337715
2061.39	0.167437
2062.85	0.251595
2064.31	0.573595
2065.77	-0.0445957
2067.23	0.180569
2068.69	-0.350311
2070.15	0.415548
2071.61	-0.114574
2073.07	-0.072649
2074.53	-0.0312691
2075.99	0.278837
2077.45	0.554499
2078.91	0.00411987
2080.37	0.766228
2081.82	0.297882
2083.28	-0.171757
2084.74	0.0471878
2086.2	0.264393
2087.65	0.412821
2089.11	0.140059
2090.57	0.371054
2092.02	0.282679
2093.48	0.378788
2094.94	0.373623
2096.39	0.434427
2097.85	-0.0589943
2099.3	0.434362
2100.76	0.725607
2102.21	0.164724
2103.66	0.608381
2105.12	-0.330837
2106.57	0.201895
2108.03	0.0694427
2109.48	-0.128897
2110.93	0.205173
2112.38	0.252884
2113.84	0.28021
2115.29	0.237476
2116.74	0.342501
2118.19	0.198904
2119.64	0.407007
2121.09	-0.37631
2122.54	0.387465
2123.99	0.291794
2125.45	0.363367
2126.89	-0.179064
2128.34	-0.159826
2129.79	0.569033
2131.24	-0.278921
2132.69	0.395216
2134.14	-0.238352
2135.59	0.122498
2137.04	0.469639
2138.48	0.159552
2139.93	-0.0142899
2141.38	-0.35004
2142.83	-0.418962
2144.27	0.175137
2145.72	0.521778
2147.17	0.305145
2148.61	0.236092
2150.06	0.198322
2151.5	-0.172903
2152.95	-0.297663
2154.39	0.553455
2155.84	0.674541
2157.28	0.298834
2158.73	0.438177
2160.17	0.282125
2161.61	0.510798
2163.06	0.312454
2164.5	0.166817
2165.94	0.670231
2167.38	0.376688
2168.83	-0.185406
2170.27	-0.285975
2171.71	0.507473
2173.15	0.06604
2174.59	0.00442886
2176.03	0.307531
2177.47	0.627575
2178.91	0.167736
2180.36	0.0424728
2181.8	0.650587
2183.23	0.129257
2184.67	0.107332
2186.11	0.0190144
2187.55	0.0804634
2188.99	-0.423801
2190.43	0.619761
2191.87	0.664236
2193.3	0.840361
2194.74	0.614128
2196.18	0.434095
2197.62	0.21678
2199.05	0.0460472
2200.49	-0.37578
2201.93	0.115849
2203.36	-0.0554962
2204.8	0.223324
2206.23	0.0896645
2207.67	0.454226
2209.1	0.5366
2210.54	0.137287
2211.97	0.10026
2213.41	0.474964
2214.84	0.46899
2216.27	0.0846596
2217.71	-0.082386
2219.14	-0.197241
2220.57	-0.0299873
2222.01	0.76372
2223.44	-0.240372
2224.87	0.531969
2226.3	0.378267
2227.73	0.714514
2229.16	0.636766
2230.6	0.0325756
2232.03	-0.193811
2233.46	0.546616
2234.89	0.436827
2236.32	0.770853
2237.75	0.405815
2239.18	0.485815
2240.61	0.863649
2242.03	-0.255239
2243.46	0.73255
2244.89	0.612032
2246.32	0.163887
2247.75	0.103901
2249.17	0.495892
2250.6	0.214788
2252.03	0.223404
2253.46	0.506678
2254.88	-0.217218
2256.31	-0.141422
2257.73	0.31238
2259.16	0.0905495
2260.59	0.361629
2262.01	0.183544
2263.44	0.75576
2264.86	0.37047
2266.29	0.634369
2267.71	0.132233
2269.14	0.246157
2270.56	0.60264
2271.98	0.844246
2273.4	0.368979
2274.83	0.59417
2276.25	-0.108866
2277.67	0.426781
2279.09	0.147728
2280.52	0.504385
2281.94	0.192194
2283.36	-0.185591
2284.78	0.0729561
2286.2	0.691202
2287.62	0.510523
2289.04	0.804365
2290.46	0.511042
2291.88	0.201731
2293.3	1.05357
2294.72	-0.188175
2296.14	-0.17079
2297.56	0.665276
2298.98	0.158787
2300.4	0.209526
2301.82	-0.06707
2303.23	0.362118
2304.65	0.332468
2306.07	-0.584236
2307.49	0.14056
2308.9	0.68404
2310.32	0.634693
2311.73	0.419952
2313.15	0.484726
2314.57	-0.0421524
2315.98	-0.255049
2317.4	0.192471
2318.81	0.262259
2320.23	0.265648
2321.64	0.250204
2323.06	0.197771
2324.47	0.767551
2325.88	0.276371
2327.3	0.837399
2328.71	0.143673
2330.12	0.109987
2331.54	0.0123386
2332.95	0.196882
2334.36	0.761562
2335.77	0.569799
2337.18	-0.494486
2338.6	0.149694
2340.01	0.232227
2341.42	-0.212822
2342.83	-0.0019207
2344.24	-0.00455856
2345.65	-0.498285
2347.06	-0.0899639
2348.47	0.350664
2349.88	-0.158857
2351.29	-0.0317688
2352.7	0.32172
2354.1	-0.0942955
2355.51	-0.136015
2356.92	-0.0317993
2358.33	0.462482
2359.74	-0.60375
2361.14	0.669598
2362.55	-0.135017
2363.96	-0.225538
2365.36	-0.413029
2366.77	0.175997
2368.18	-0.0421677
2369.58	-0.322296
2370.99	0.722521
2372.39	0.125624
2373.8	-0.178699
2375.2	-0.208338
2376.61	-0.49613
2378.01	0.0824928
2379.42	0.528589
2380.82	0.296173
2382.22	-0.211346
2383.63	-0.0308571
2385.03	0.292645
2386.43	0.160902
2387.84	-0.12825
2389.24	0.342976
2390.64	0.306257
2392.04	0.0810242
2393.44	0.430971
2394.84	0.750526
2396.25	-0.0574188
2397.65	0.137762
2399.05	0.318151
2400.45	0.0864639
2401.85	0.713223
2403.25	0.0376205
2404.65	0.0601215
2406.05	0.0490723
2407.45	0.956402
2408.84	-0.438395
2410.24	-0.469255
2411.64	0.149925
2413.04	0.089262
2414.44	0.42708
2415.83	0.372103
2417.23	0.383253
2418.63	0.301302
2420.02	0.0933895
2421.42	0.0276985
2422.82	-0.18132
2424.21	0.322027
2425.61	-0.0300903
2427	-0.0959625
2428.4	-0.207685
2429.8	0.126532
2431.19	0.0657597
2432.58	0.227474
2433.98	0.118282
2435.37	-0.104544
2436.77	0.892933
2438.16	-0.0828686
2439.55	-0.0603542
2440.95	0.516085
2442.34	-0.131319
2443.73	-0.0964947
2445.12	-0.601347
2446.51	0.653748
2447.91	0.544586
2449.3	-0.118912
2450.69	0.136959
2452.08	0.156309
2453.47	0.303835
2454.86	0.18412
2456.25	-0.566881
2457.64	-0.11499
2459.03	-0.122164
2460.42	-0.494225
2461.81	0.302223
2463.2	0.227278
2464.59	-0.528185
2465.98	0.153471
2467.36	0.250278
2468.75	0.173325
2470.14	0.301039
2471.53	0.0493851
2472.92	0.458237
2474.3	0.455664
2475.69	-0.20892
2477.08	0.572775
2478.46	0.740614
2479.85	0.155327
2481.23	0.308249
2482.62	0.225784
2484	-0.18626
2485.39	-0.130152
2486.77	-0.201427
2488.16	0.177778
2489.54	0.383095
2490.93	-0.252869
2492.31	0.357384
2493.69	0.502602
2495.08	0.340071
2496.46	0.304426
2497.84	-0.240532
2499.23	0.175453
2500.61	0.0178795
2501.99	0.291698
2503.37	-0.0391521
2504.75	0.430908
2506.13	0.236158
2507.52	0.364529
2508.9	-0.152809
2510.28	0.191833
2511.66	-0.107285
2513.04	0.116886
2514.42	-0.0864201
2515.8	0.339869
2517.18	0.094141
2518.55	0.0179653
2519.93	0.00334167
2521.31	-0.179806
2522.69	0.170156
2524.07	0.533194
2525.45	-0.126886
2526.82	0.751545
2528.2	0.336088
2529.58	-0.0157108
2530.95	0.669569
2532.33	-0.283157
2533.71	0.301653
2535.08	0.24976
2536.46	0.62314
2537.84	0.433043
2539.21	0.377718
2540.59	-0.0133018
2541.96	0.672791
2543.34	0.327265
2544.71	0.135351
2546.08	-0.00853539
2547.46	0.0320549
2548.83	0.256418
2550.2	0.890675
2551.58	0.416264
2552.95	0.744255
2554.32	0.463055
2555.7	-0.350904
2557.07	0.0478306
2558.44	0.324766
2559.81	0.0563583
2561.18	0.10741
2562.55	0.50828
2563.93	0.349588
2565.3	0.449377
2566.67	0.473913
2568.04	-0.153061
2569.41	-0.264769
2570.78	0.214603
2572.15	0.133278
2573.51	-0.0237007
2574.88	-0.0440788
2576.25	-0.0644169
2577.62	0.0667171
2578.99	0.121588
2580.36	0.797451
2581.73	0.168442
2583.09	0.524254
2584.46	0.591459
2585.83	0.309908
2587.19	0.543966
2588.56	0.050909
2589.93	0.603786
2591.29	0.0349712
2592.66	0.283527
2594.02	0.257696
2595.39	0.0481033
2596.75	-0.208788
2598.12	0.0624981
2599.48	-0.075491
2600.85	0.0588703
2602.21	0.52631
2603.58	0.058754
2604.94	0.55843
2606.3	-0.269295
2607.67	-0.11694
2609.03	-0.539076
2610.39	0.0761967
2611.76	0.0859699
2613.12	0.318964
2614.48	-0.186073
2615.84	0.344774
2617.2	-0.444141
2618.56	0.491909
2619.92	-0.277979
2621.28	0.0463066
2622.65	0.0872612
2624.01	-0.0356369
2625.37	0.214577
2626.72	0.031498
2628.08	0.220545
2629.44	0.602261
2630.8	0.923437
2632.16	-0.0345879
2633.52	0.108019
2634.88	-0.135557
2636.24	0.169907
2637.59	-0.206778
2638.95	0.409248
2640.31	-0.0258045
2641.67	-0.0753117
2643.02	0.555353
2644.38	-0.512238
2645.74	-0.236027
2647.09	0.00951767
2648.45	-0.380041
2649.8	0.598066
2651.16	-0.470522
2652.51	0.72406
2653.87	-0.195946
2655.22	0.162455
2656.58	0.419895
2657.93	0.152376
2659.29	0.0185947
2660.64	0.280529
2661.99	0.5273
2663.35	0.36364
2664.7	0.563459
2666.05	0.14889
2667.41	-0.120241
2668.76	0.164209
2670.11	0.419643
2671.46	0.370424
2672.81	0.656725
2674.16	0.595425
2675.51	-0.262953
2676.87	0.11377
2678.22	-0.393214
2679.57	0.145672
2680.92	0.0484924
2682.27	0.345108
2683.62	-0.0229053
2684.97	0.248981
2686.31	0.144693
2687.66	0.388363
2689.01	-0.168642
2690.36	0.11302
2691.71	0.216881
2693.06	0.491781
2694.4	0.300474
2695.75	-0.412719
2697.1	0.498365
2698.45	0.136965
2699.79	0.213377
2701.14	0.9014
2702.49	-0.0295963
2703.83	0.185574
2705.18	0.300463
2706.52	0.560598
2707.87	-0.0357189
2709.21	0.31028
2710.56	0.292734
2711.9	0.594219
2713.25	0.750307
2714.59	0.20863
2715.94	0.451664
2717.28	0.505484
2718.62	0.864315
2719.97	0.669638
2721.31	0.401213
2722.65	0.481062
2723.99	0.530878
2725.34	0.157717
2726.68	0.919119
2728.02	0.384493
2729.36	0.387926
2730.7	0.391073
2732.04	0.423246
2733.39	0.106461
2734.73	0.357347
2736.07	0.114073
2737.41	0.365574
2738.75	0.486122
2740.08	0.257153
2741.43	0.376272
2742.76	0.683067
2744.1	0.0146198
2745.44	0.14443
2746.78	0.404003
2748.12	0.459778
2749.46	1.21202
2750.79	-0.254924
2752.13	0.222441
2753.47	-0.285589
2754.81	-0.198941
2756.14	-0.0541573
2757.48	-0.242175
2758.81	-0.197992
2760.15	0.281099
2761.49	0.428143
2762.82	0.272223
2764.16	0.21822
2765.49	-0.139635
2766.83	0.0659142
2768.16	0.298555
2769.5	0.181557
2770.83	0.52428
2772.16	-0.161407
2773.5	0.00330925
2774.83	-0.409956
2776.17	0.329718
2777.5	0.277309
2778.83	-0.00401783
2780.16	0.118434
2781.5	0.0402966
2782.83	0.249468
2784.16	-0.129743
2785.49	-0.336502
2786.82	-0.0413361
2788.15	-0.332456
2789.49	0.165121
2790.82	0.22065
2792.15	-0.136988
2793.48	-0.16478
2794.81	0.579287
2796.14	0.00782967
2797.46	0.149848
2798.79	0.16219
2800.12	-0.211636
2801.45	-0.129133
2802.78	0.252349
2804.11	0.0771694
2805.44	0.485286
2806.76	-0.104595
2808.09	0.514078
2809.42	-0.474914
2810.75	0.0571718
2812.07	0.234876
2813.4	0.201817
2814.73	0.2992
2816.05	-0.252702
2817.38	-0.547216
2818.7	0.32161
2820.03	0.0282278
2821.36	0.0600004
2822.68	-0.0228558
2824.01	0.176508
2825.33	0.106009
2826.65	0.00731659
2827.98	0.362729
2829.3	0.478462
2830.63	0.411074
2831.95	0.372422
2833.27	0.91403
2834.6	0.280197
2835.92	1.24475
2837.24	1.2458
2838.56	1.59964
2839.88	1.9529
2841.21	2.57483
2842.53	2.68849
2843.85	2.40775
2845.17	2.39708
2846.49	2.55726
2847.81	3.19873
2849.13	3.14776
2850.45	2.96899
2851.77	3.41114
2853.09	3.23038
2854.41	3.03476
2855.73	3.14969
2857.05	3.16568
2858.37	3.28066
2859.69	3.48034
2861	3.69375
2862.32	3.45472
2863.64	4.44299
2864.96	4.18856
2866.28	4.96401
2867.59	4.78062
2868.91	5.34553
2870.23	5.4318
2871.54	5.5184
2872.86	5.56216
2874.17	5.91438
2875.49	5.63041
2876.81	5.75276
2878.12	6.09849
2879.44	6.4714
2880.75	6.01532
2882.07	6.10931
2883.38	6.07902
2884.69	6.02267
2886.01	4.95687
2887.32	5.7864
2888.63	5.37994
2889.95	5.56134
2891.26	6.13359
2892.57	5.40073
2893.89	5.88703
2895.2	5.89757
2896.51	6.18968
2897.82	6.63767
2899.13	6.05226
2900.44	6.02818
2901.76	6.31281
2903.07	6.17821
2904.38	6.23975
2905.69	6.14802
2907	6.67284
2908.31	6.90559
2909.62	6.97218
2910.93	6.99795
2912.24	7.13573
2913.55	7.03414
2914.85	7.78392
2916.16	7.49442
2917.47	7.87382
2918.78	8.04126
2920.09	7.76079
2921.4	8.51648
2922.7	8.22583
2924.01	8.70678
2925.32	8.15558
2926.62	8.73787
2927.93	8.49553
2929.24	8.76977
2930.54	8.84727
2931.85	8.81208
2933.15	8.88827
2934.46	9.04832
2935.76	8.9291
2937.07	8.32115
2938.37	8.02111
2939.68	8.44828
2940.98	7.56295
2942.29	8.20239
2943.59	7.26493
2944.89	6.93076
2946.2	6.92021
2947.5	6.86883
2948.8	6.11719
2950.11	5.64311
2951.41	6.48207
2952.71	6.09954
2954.01	5.75663
2955.32	5.97313
2956.62	5.50539
2957.92	5.55922
2959.22	5.26789
2960.52	5.68171
2961.82	5.49697
2963.12	5.4958
2964.42	4.65129
2965.72	4.88498
2967.02	4.86307
2968.32	4.95135
2969.62	4.4337
2970.92	4.68925
2972.22	4.48125
2973.51	3.97829
2974.81	4.2634
2976.11	3.44939
2977.41	3.70315
2978.71	3.63015
2980	3.79348
2981.3	3.3353
2982.6	3.36884
2983.9	2.88285
2985.19	2.46946
2986.49	2.57889
2987.78	2.46607
2989.08	2.861
2990.38	2.53979
2991.67	2.20372
2992.97	2.2032
2994.26	2.01784
2995.56	1.80259
2996.85	1.74074
2998.14	1.60847
2999.44	1.71529
3000.73	1.13603
3002.03	1.27314
3003.32	0.892527
3004.61	0.820612
3005.91	0.91642
3007.2	0.591231
3008.49	0.278999
3009.78	0.860566
3011.07	1.0489
3012.37	0.482381
3013.66	0.488802
3014.95	0.286947
3016.24	0.337458
3017.53	0.110883
3018.82	0.37257
3020.11	0.328279
3021.4	0.255564
3022.69	0.63991
3023.98	0.147759
3025.27	0.195972
3026.56	0.216122
3027.85	-0.164075
3029.14	0.163532
3030.43	0.355255
3031.71	0.0109062
3033	0.248632
3034.29	0.27986
3035.58	0.268878
3036.87	0.0213404
3038.15	-0.766047
3039.44	0.0689116
3040.73	0.143446
3042.01	0.202599
3043.3	-0.368821
3044.59	0.47275
3045.87	-0.0108538
3047.16	0.671591
3048.44	0.497306
3049.73	0.340772
3051.01	0.351031
3052.3	0.52659
3053.58	0.593152
3054.87	0.208522
3056.15	0.0815086
3057.43	0.484519
3058.72	0.776896
3060	0.415031
3061.29	0.408201
3062.57	0.539264
3063.85	0.196897
3065.13	0.319722
3066.42	0.717021
3067.7	0.572461
3068.98	0.755059
3070.26	0.325346
3071.54	0.12548
3072.82	0.576477
3074.11	0.263996
3075.39	0.684023
3076.67	0.464953
3077.95	0.382733
3079.23	0.384043
3080.51	-0.0324059
3081.79	-0.0796633
3083.07	0.350134
3084.35	0.143685
3085.63	-0.0218468
3086.9	0.0970402
3088.18	0.418532
3089.46	0.616827
3090.74	0.556633
3092.02	0.523532
3093.29	0.57228
3094.57	0.282699
3095.85	0.332854
3097.13	0.166447
3098.4	1.09802
3099.68	0.701233
3100.95	0.507895
3102.23	0.396235
3103.51	0.908086
3104.78	0.919984
3106.06	1.09578
3107.33	1.16511
3108.61	0.830477
3109.88	0.511348
3111.16	1.00634
3112.43	0.798848
3113.71	0.930894
3114.98	0.873424
3116.25	1.23569
3117.53	0.783045
3118.8	1.21025
3120.07	1.06616
3121.35	0.947873
3122.62	0.801808
3123.89	1.31953
3125.16	0.794801
3126.44	0.921117
3127.71	1.04859
3128.98	1.2718
3130.25	1.56335
3131.52	1.57125
3132.79	1.75488
3134.06	1.15459
3135.33	1.25623
3136.6	1.53241
3137.87	1.51108
3139.14	1.93397
3140.41	1.95238
3141.68	1.67526
3142.95	1.8563
3144.22	2.159
3145.49	1.80523
3146.76	2.00312
3148.02	2.2424
3149.29	1.89354
