200.398	0.184242
202.213	0.19488
204.027	0.207906
205.843	-0.385392
207.657	0.724414
209.47	0.569373
211.283	0.121956
213.097	0.693173
214.909	0.267992
216.721	-0.37516
218.533	-0.774772
220.344	-0.228804
222.157	0.148706
223.967	0.164692
225.777	0.520125
227.587	0.658318
229.396	0.603057
231.205	0.0405693
233.016	-0.424991
234.824	1.13608
236.632	1.49275
238.439	2.02129
240.247	1.46917
242.053	1.52327
243.86	2.42407
245.666	2.79506
247.474	2.65737
249.279	4.10944
251.085	4.44599
252.889	4.39175
254.694	4.04529
256.498	4.34965
258.301	4.41434
260.105	4.53027
261.908	4.09573
263.71	4.48346
265.513	3.7651
267.315	3.16787
269.116	3.55852
270.918	3.32141
272.718	3.05854
274.519	3.05886
276.319	2.64703
278.119	1.87129
279.918	1.81596
281.718	1.80597
283.516	2.25031
285.315	1.51454
287.113	0.851218
288.911	0.956644
290.708	1.13493
292.505	1.00376
294.302	0.994792
296.098	0.725128
297.894	0.146717
299.69	0.95533
301.485	1.04684
303.278	1.06562
305.073	0.891904
306.867	0.359386
308.661	0.828434
310.454	0.463943
312.247	0.0777016
314.04	0.384547
315.833	1.00353
317.623	1.26804
319.415	0.272469
321.206	0.660216
322.997	0.548795
324.788	0.318678
326.579	0.78097
328.367	0.335724
330.156	0.486835
331.946	0.230019
333.735	0.999609
335.523	-0.0759068
337.31	0.664083
339.098	0.013505
340.885	0.533096
342.673	-0.0484085
344.458	-0.62947
346.244	0.271492
348.03	0.719182
349.816	0.117043
351.6	0.0881033
353.385	0.3449
355.17	0.266258
356.953	0.376699
358.737	-0.110459
360.521	-0.193657
362.304	-0.0399427
364.085	0.0650082
365.868	-0.0211773
367.65	-0.250608
369.431	0.206954
371.212	0.425597
372.994	0.0276785
374.773	0.480965
376.554	0.909714
378.332	-0.10015
380.112	0.942794
381.892	0.526171
383.669	0.511847
385.448	0.781451
387.225	0.864543
389.003	0.573341
390.781	1.83379
392.557	2.24971
394.334	2.2204
396.109	2.05081
397.885	2.58601
399.66	3.19151
401.436	3.8669
403.211	4.04807
404.984	3.10067
406.759	3.91352
408.532	3.41034
410.306	3.68146
412.078	3.95254
413.851	3.61419
415.623	4.3095
417.395	3.29336
419.166	4.62485
420.938	4.57248
422.708	5.01269
424.477	5.14664
426.248	3.77656
428.017	3.13286
429.788	2.23032
431.556	2.5014
433.326	1.59947
435.093	1.68378
436.86	1.15788
438.629	1.00656
440.395	0.876756
442.163	0.838105
443.929	0.960591
445.694	1.38484
447.461	0.402305
449.226	0.0989542
450.99	0.380319
452.756	0.988428
454.52	0.103027
456.285	0.104675
458.048	0.455444
459.811	0.223943
461.573	0.598225
463.337	0.741654
465.099	0.307274
466.86	0.597055
468.623	0.193284
470.384	0.34979
472.144	0.67022
473.906	0.361462
475.666	-0.229427
477.425	0.527682
479.184	-0.0221357
480.944	0.637935
482.703	1.29797
484.461	0.445648
486.218	0.667217
487.975	0.215889
489.734	0.606361
491.491	0.765363
493.247	0.832064
495.003	0.26773
496.759	0.451245
498.516	0.751856
500.271	1.07579
502.025	0.883017
503.779	0.876603
505.533	1.12713
507.287	0.952754
509.042	1.59945
510.795	1.06772
512.547	0.863054
514.299	1.38573
516.051	0.894735
517.803	0.849136
519.554	1.69545
521.305	1.788
523.055	1.7623
524.805	0.985177
526.555	0.912576
528.307	1.68413
530.056	1.86886
531.805	1.49066
533.553	1.29902
535.301	1.01243
537.049	1.37872
538.797	1.04193
540.544	1.10063
542.291	1.76366
544.037	1.8196
545.783	2.08444
547.529	1.00274
549.275	1.03662
551.02	0.399153
552.765	0.966125
554.509	0.00705242
556.253	0.643008
557.997	0.724709
559.738	0.0926561
561.482	0.6364
563.224	-0.108126
564.967	0.758144
566.709	0.957906
568.451	1.02072
570.192	1.03898
571.933	0.806688
573.674	0.553712
575.415	0.211273
577.153	0.513335
578.893	0.381158
580.632	0.594358
582.371	0.302374
584.11	0.469191
585.849	-0.0781441
587.587	-0.00632668
589.323	0.66212
591.06	0.43208
592.797	0.546383
594.534	0.131256
596.271	0.498372
598.005	0.0371656
599.741	0.77181
601.476	-0.0129957
603.211	-0.224187
604.944	-0.0922451
606.679	0.175754
608.413	-0.154731
610.147	0.0886879
611.878	0.0571041
613.611	-0.0193691
615.344	-0.438745
617.077	0.0817299
618.807	0.853097
620.539	0.477792
622.27	0.444393
623.999	0.478436
625.73	0.443788
627.461	0.433286
629.189	0.0601177
630.919	0.762498
632.648	0.942674
634.376	0.485306
636.105	0.963321
637.833	0.61737
639.559	0.450571
641.287	0.781811
643.013	0.334442
644.74	0.432554
646.467	0.985714
648.192	-0.346339
649.918	0.28091
651.642	0.594607
653.368	0.936195
655.091	0.941411
656.816	1.01804
658.538	0.731449
660.263	1.81279
661.987	1.66078
663.708	1.80239
665.432	0.706126
667.153	0.498402
668.875	1.18147
670.596	1.38518
672.318	0.76774
674.037	0.496307
675.759	0.47934
677.478	0.372191
679.196	1.18373
680.917	0.570275
682.635	0.78169
684.355	0.46113
686.072	0.644262
687.791	0.318686
689.508	0.406203
691.224	0.285442
692.942	0.371163
694.658	0.179522
696.376	0.309066
698.091	0.275879
699.805	0.287137
701.522	0.66484
703.236	0.856973
704.95	0.473687
706.665	-0.116322
708.379	-0.155579
710.093	0.217144
711.806	0.565877
713.518	0.295979
715.23	0.32336
716.943	0.761539
718.655	0.240939
720.366	-0.0734386
722.078	0.11386
723.788	0.642195
725.498	0.646585
727.208	0.673291
728.919	1.17591
730.628	0.566105
732.337	0.817615
734.045	0.457428
735.755	0.95687
737.463	1.50093
739.17	0.443044
740.877	0.447612
742.584	0.228365
744.292	0.731429
745.998	0.740676
747.704	0.886642
749.409	0.651833
751.114	1.09343
752.819	0.614459
754.526	1.30692
756.23	0.0437222
757.934	0.650126
759.637	0.67322
761.34	1.48684
763.043	1.64807
764.746	0.815722
766.448	0.997578
768.152	1.26777
769.853	0.495232
771.554	1.30285
773.255	1.38502
774.956	0.946453
776.656	1.79731
778.356	1.65494
780.056	2.0573
781.755	1.39809
783.454	1.66658
785.153	1.50374
786.851	2.08491
788.549	1.66597
790.247	1.40139
791.944	0.726797
793.641	1.18032
795.338	1.6551
797.034	1.70186
798.73	1.54796
800.426	1.53165
802.121	2.05715
803.817	0.896454
805.511	0.972935
807.206	0.846122
808.9	1.32433
810.592	1.32916
812.286	1.22064
813.979	1.0219
815.672	1.6067
817.364	1.56412
819.057	1.38758
820.748	1.32318
822.44	1.17009
824.129	1.50874
825.82	1.24703
827.511	1.87918
829.201	1.42329
830.891	1.66173
832.581	1.4361
834.269	1.54738
835.958	1.03564
837.646	1.97375
839.335	0.81249
841.023	1.34589
842.709	0.827809
844.396	1.60491
846.084	0.729142
847.77	1.33068
849.455	0.951469
851.141	1.76159
852.827	1.18609
854.513	1.75499
856.196	1.04462
857.881	0.803618
859.566	1.2577
861.248	0.989607
862.932	0.155945
864.616	1.2356
866.297	1.21017
867.98	0.575057
869.663	0.773572
871.343	0.137142
873.026	0.989257
874.707	0.307175
876.387	0.527591
878.068	0.996353
879.747	0.0204649
881.428	0.714477
883.108	0.324073
884.786	1.15138
886.465	1.00618
888.143	0.678574
889.822	-0.124329
891.498	0.0860672
893.177	1.35301
894.855	0.658774
896.53	-0.46268
898.208	1.17909
899.883	0.371059
901.56	0.706519
903.234	0.100619
904.91	0.613397
906.584	0.857335
908.26	0.209637
909.933	0.165798
911.608	0.390079
913.28	0.703711
914.955	0.684122
916.627	0.553754
918.298	0.157598
919.972	0.337975
921.643	0.585073
923.315	0.169985
924.986	0.133011
926.656	0.230796
928.328	0.3085
929.997	0.630473
931.668	0.644321
933.337	0.261464
935.006	-0.187231
936.676	0.886466
938.344	0.659916
940.012	0.633393
941.681	1.49082
943.348	0.363729
945.014	-0.190187
946.683	0.291874
948.349	0.286151
950.015	-0.0308981
951.682	0.775848
953.347	0.192632
955.012	-0.101781
956.676	0.511257
958.343	0.224177
960.006	0.116923
961.67	0.276579
963.333	0.259585
964.998	0.0194025
966.661	0.328889
968.323	0.435866
969.985	0.739256
971.649	-0.153066
973.31	0.503495
974.971	-0.541052
976.632	0.207898
978.293	0.936899
979.953	0.660399
981.615	0.383304
983.274	0.0048275
984.933	0.42089
986.592	0.635035
988.251	0.227254
989.909	0.282606
991.567	0.558054
993.225	-0.160979
994.884	1.65949
996.541	1.31598
998.198	1.70047
999.855	1.79774
1001.51	1.38785
1003.17	2.1883
1004.82	1.11789
1006.48	1.14762
1008.13	0.913955
1009.79	1.38326
1011.44	1.37008
1013.1	0.787715
1014.75	0.92941
1016.4	1.61877
1018.06	1.17033
1019.71	0.92024
1021.36	1.26204
1023.01	1.53959
1024.66	1.33759
1026.32	1.04908
1027.97	1.65654
1029.62	0.864861
1031.27	0.901867
1032.92	1.08956
1034.57	0.729387
1036.22	1.04373
1037.87	1.85752
1039.52	1.6903
1041.16	1.89401
1042.81	1.77321
1044.46	2.48063
1046.11	2.56048
1047.76	2.83858
1049.4	4.22678
1051.05	4.53124
1052.7	4.72857
1054.34	4.44859
1055.99	5.95074
1057.63	4.80089
1059.28	4.8239
1060.92	3.97607
1062.57	3.51829
1064.21	2.34158
1065.85	2.40277
1067.5	1.26698
1069.14	1.19511
1070.78	0.38404
1072.43	0.528588
1074.07	0.304752
1075.71	0.255925
1077.35	0.902816
1078.99	0.401928
1080.63	0.444247
1082.27	1.09377
1083.91	0.614615
1085.55	0.67546
1087.19	0.321914
1088.83	-0.466996
1090.47	0.993238
1092.11	0.222817
1093.75	0.640954
1095.39	0.799578
1097.03	1.21768
1098.66	0.53842
1100.3	0.486664
1101.94	-0.358686
1103.57	0.0680218
1105.21	-0.25655
1106.84	0.23702
1108.48	0.300056
1110.11	0.10371
1111.75	0.87266
1113.38	0.199492
1115.02	-0.109583
1116.65	0.203113
1118.29	0.515478
1119.92	0.271285
1121.55	0.671065
1123.19	0.172954
1124.82	0.31841
1126.45	0.18687
1128.08	1.04011
1129.71	0.204905
1131.34	-0.201735
1132.97	-0.0948372
1134.6	-0.543849
1136.23	-0.224077
1137.86	-0.268961
1139.49	-0.080349
1141.12	0.619215
1142.75	0.655887
1144.38	-0.2031
1146.01	0.346606
1147.64	-0.0618505
1149.26	0.0850201
1150.89	0.701085
1152.52	0.69935
1154.15	0.143652
1155.77	-0.241976
1157.4	-0.0105209
1159.02	0.306314
1160.65	0.453978
1162.27	0.0927763
1163.9	-0.160735
1165.52	-0.0520954
1167.15	0.630342
1168.77	0.84362
1170.39	1.58591
1172.02	-0.37315
1173.64	-0.0818138
1175.26	0.44089
1176.89	-0.18269
1178.51	-0.000113487
1180.13	-0.155602
1181.75	0.430653
1183.37	0.446285
1184.99	0.631043
1186.61	0.307598
1188.23	-0.0807667
1189.85	0.519724
1191.47	0.0215969
1193.09	0.321686
1194.71	-0.156985
1196.33	0.77043
1197.94	0.0842657
1199.56	0.677803
1201.18	0.270311
1202.8	0.556023
1204.41	0.782289
1206.03	0.740097
1207.65	1.26305
1209.26	0.451304
1210.88	0.347907
1212.49	0.409177
1214.11	0.821746
1215.72	1.45978
1217.34	1.07483
1218.95	0.709974
1220.57	0.719335
1222.18	1.10286
1223.79	1.48738
1225.41	0.568974
1227.02	0.998864
1228.63	1.22339
1230.24	1.42881
1231.85	0.767612
1233.47	1.94776
1235.08	1.97213
1236.69	1.6882
1238.3	2.58405
1239.91	1.53755
1241.52	2.02141
1243.13	2.00855
1244.74	2.036
1246.34	1.62745
1247.95	1.90032
1249.56	1.42722
1251.17	2.02952
1252.78	2.07347
1254.38	1.66339
1255.99	2.08219
1257.6	1.69602
1259.2	1.53896
1260.81	1.85915
1262.42	1.60048
1264.02	1.21738
1265.63	1.99394
1267.23	1.79574
1268.84	1.49248
1270.44	1.70607
1272.04	1.75236
1273.65	1.54841
1275.25	1.38461
1276.85	1.21962
1278.46	1.79936
1280.06	1.73589
1281.66	1.2788
1283.26	1.09118
1284.86	1.46277
1286.46	1.77329
1288.07	1.52704
1289.67	1.75746
1291.27	1.32734
1292.87	1.41376
1294.47	1.4992
1296.06	1.87201
1297.66	1.39596
1299.26	1.66087
1300.86	2.10889
1302.46	1.93647
1304.06	1.82473
1305.65	1.89724
1307.25	2.46177
1308.85	1.83476
1310.44	1.98784
1312.04	2.48913
1313.64	2.29512
1315.23	2.42982
1316.83	2.91278
1318.42	2.39614
1320.02	2.57332
1321.61	1.73045
1323.2	2.31153
1324.8	2.62465
1326.39	2.32593
1327.99	2.35149
1329.58	2.27649
1331.17	2.28476
1332.76	2.88214
1334.36	2.53288
1335.95	1.60129
1337.54	2.10353
1339.13	2.4431
1340.72	2.05478
1342.31	1.9861
1343.9	2.49769
1345.49	1.44048
1347.08	1.589
1348.67	2.12003
1350.26	1.69285
1351.85	1.56985
1353.43	1.5898
1355.02	1.93136
1356.61	1.57393
1358.2	1.31604
1359.78	2.2352
1361.37	1.49543
1362.96	1.61302
1364.54	1.09201
1366.13	1.84706
1367.71	1.62659
1369.3	1.70657
1370.88	2.10687
1372.47	1.31509
1374.05	1.2214
1375.64	1.40721
1377.22	1.31462
1378.8	1.18158
1380.39	1.52475
1381.97	1.28914
1383.55	0.972346
1385.13	1.37003
1386.72	1.34947
1388.3	1.22982
1389.88	2.06393
1391.46	0.954074
1393.04	1.61151
1394.62	1.47585
1396.2	1.53832
1397.78	1.18352
1399.36	1.02578
1400.94	0.688642
1402.52	1.24182
1404.1	1.79431
1405.68	1.35823
1407.25	1.55621
1408.83	1.22174
1410.41	1.44127
1411.98	1.3052
1413.56	1.95804
1415.14	0.89247
1416.71	1.87775
1418.29	2.0927
1419.87	2.34722
1421.44	2.79991
1423.02	1.85696
1424.59	1.72369
1426.16	1.41508
1427.74	2.56375
1429.31	2.84607
1430.89	2.67439
1432.46	2.50105
1434.03	2.79852
1435.6	3.19344
1437.18	3.41144
1438.75	3.59109
1440.32	3.4774
1441.89	3.2866
1443.46	4.19744
1445.03	4.38176
1446.6	4.13398
1448.17	3.31632
1449.74	3.61951
1451.31	4.15942
1452.88	3.55971
1454.45	4.41598
1456.02	3.40341
1457.59	3.90481
1459.16	3.6959
1460.72	3.95666
1462.29	3.23072
1463.86	4.07602
1465.43	3.01222
1466.99	3.36335
1468.56	2.35988
1470.13	2.81085
1471.69	2.94922
1473.26	3.1087
1474.82	2.26923
1476.38	1.58746
1477.95	2.21952
1479.51	1.87123
1481.08	2.32647
1482.64	1.40967
1484.2	1.9233
1485.77	1.26087
1487.33	2.39955
1488.89	1.73447
1490.46	1.75229
1492.02	2.17763
1493.58	1.54432
1495.14	1.02691
1496.7	2.06803
1498.26	1.70499
1499.82	1.3436
1501.38	1.45043
1502.94	0.957454
1504.5	1.57105
1506.06	0.596552
1507.62	0.744776
1509.18	0.891357
1510.73	0.57297
1512.29	0.4469
1513.85	1.53319
1515.41	0.944533
1516.96	1.26047
1518.52	0.713748
1520.08	0.82036
1521.63	0.467773
1523.19	0.440497
1524.75	0.144991
1526.3	0.306567
1527.85	0.980653
1529.41	0.701333
1530.96	0.935422
1532.52	0.847132
1534.07	1.36624
1535.62	0.523591
1537.18	0.742155
1538.73	0.810185
1540.28	1.35
1541.84	1.13537
1543.39	1.0904
1544.94	0.951227
1546.49	0.511518
1548.04	1.04818
1549.59	1.02133
1551.14	1.27565
1552.69	1.56754
1554.25	1.18727
1555.79	1.23902
1557.34	0.901037
1558.89	1.29361
1560.44	1.1475
1561.99	1.46992
1563.54	1.45807
1565.08	0.79396
1566.63	1.43612
1568.18	1.44355
1569.73	1.50647
1571.27	1.83019
1572.82	1.64951
1574.37	1.58062
1575.91	1.81042
1577.46	1.49911
1579	1.22563
1580.55	1.41968
1582.09	2.06305
1583.64	1.4002
1585.18	1.63492
1586.73	1.79569
1588.27	1.9381
1589.81	1.79967
1591.35	2.27825
1592.9	1.82024
1594.44	2.3355
1595.98	2.62626
1597.52	2.41172
1599.06	2.36668
1600.61	1.81611
1602.15	2.18526
1603.69	2.17921
1605.23	2.15347
1606.77	2.29498
1608.31	1.94517
1609.85	2.09965
1611.39	2.0442
1612.93	1.64801
1614.46	1.60706
1616	1.77183
1617.54	1.84324
1619.08	1.20417
1620.61	1.85981
1622.15	1.43094
1623.69	1.99556
1625.23	1.84878
1626.76	0.933747
1628.3	1.45814
1629.83	1.34447
1631.37	1.15475
1632.9	1.31957
1634.44	0.980517
1635.97	1.23987
1637.51	1.61205
1639.04	1.89158
1640.57	1.50005
1642.11	1.18254
1643.64	1.497
1645.17	1.3443
1646.71	2.02738
1648.24	0.887994
1649.77	2.05318
1651.3	1.86343
1652.83	1.67554
1654.36	2.15678
1655.89	2.10105
1657.42	2.63821
1658.96	2.08115
1660.48	2.24482
1662.01	2.09179
1663.54	1.86344
1665.07	1.13593
1666.6	2.34783
1668.13	2.13928
1669.66	0.937632
1671.19	1.43411
1672.71	1.74748
1674.24	1.12214
1675.77	1.39897
1677.29	1.60098
1678.82	0.955188
1680.35	1.11765
1681.87	0.911431
1683.4	1.51295
1684.92	1.50818
1686.45	0.861978
1687.97	0.565336
1689.5	0.800756
1691.02	1.03624
1692.54	0.319944
1694.07	0.409099
1695.59	1.00984
1697.11	1.26242
1698.64	1.00293
1700.16	0.797925
1701.68	0.446597
1703.2	0.49596
1704.72	0.162111
1706.25	0.483246
1707.77	-0.0691795
1709.29	0.305575
1710.81	0.353088
1712.33	0.219399
1713.85	0.176704
1715.37	0.0798464
1716.89	0.254376
1718.41	0.0669661
1719.92	-0.0118856
1721.44	0.252391
1722.96	0.643113
1724.48	0.385931
1725.99	0.0946646
1727.51	0.147315
1729.03	0.525074
1730.55	0.25704
1732.06	-0.307169
1733.58	0.223868
1735.09	0.14091
1736.61	0.387605
1738.13	-0.00748062
1739.64	0.327574
1741.15	0.63912
1742.67	0.38096
1744.18	0.102823
1745.7	0.402613
1747.21	0.580666
1748.72	0.380123
1750.24	0.0918331
1751.75	0.606882
1753.26	0.437292
1754.77	-0.153213
1756.29	-0.122135
1757.8	0.0198927
1759.31	-0.047905
1760.82	0.231443
1762.33	0.680725
1763.84	-0.215026
1765.35	-0.243056
1766.86	0.166313
1768.37	0.28568
1769.88	0.0803986
1771.39	0.00783348
1772.9	0.0699043
1774.4	0.108509
1775.91	0.229497
1777.42	0.0747709
1778.93	0.176865
1780.44	0.222153
1781.94	-0.0581493
1783.45	-0.196139
1784.96	0.0506678
1786.46	-0.182725
1787.97	0.379513
1789.47	0.0265265
1790.98	0.1524
1792.48	-0.000224113
1793.99	0.0703468
1795.49	-0.185447
1797	0.013051
1798.5	0.161997
1800.01	-0.233034
1801.51	0.034008
1803.01	0.301007
1804.51	0.0758352
1806.02	-0.136879
1807.52	0.16638
1809.02	0.173844
1810.52	0.09554
1812.02	0.367879
1813.52	-0.127679
1815.02	0.100881
1816.53	0.361867
1818.03	0.617043
1819.52	0.013133
1821.02	0.202765
1822.52	0.232865
1824.02	-0.128592
1825.52	0.158879
1827.02	0.119079
1828.52	0.118857
1830.02	-0.000318527
1831.51	-0.061573
1833.01	-0.167006
1834.51	0.155921
1836.01	0.210631
1837.5	-0.0325031
1839	-0.091814
1840.49	0.124435
1841.99	-0.10679
1843.49	0.383557
1844.98	-0.0975866
1846.48	-0.406235
1847.97	-0.34525
1849.47	0.081049
1850.96	0.0491848
1852.45	0.0862455
1853.95	0.139873
1855.44	0.626694
1856.93	-0.295131
1858.42	-0.0105801
1859.92	-0.371367
1861.41	0.031702
1862.9	0.210726
1864.39	0.361547
1865.88	-0.0970144
1867.38	0.0568409
1868.87	-0.378704
1870.36	0.10499
1871.85	-0.00850391
1873.34	-0.0285463
1874.83	-0.186757
1876.32	-0.275551
1877.81	0.392271
1879.29	0.0142546
1880.78	0.121009
1882.27	0.105326
1882.53	0.0931854
1884.03	0.247369
1885.52	-0.0352726
1887.01	0.308187
1888.51	0.946518
1890	0.105587
1891.5	-0.437575
1892.99	-0.0916004
1894.48	-0.177964
1895.97	0.589703
1897.47	0.0370216
1898.96	-0.46386
1900.45	0.216795
1901.94	-0.0788889
1903.43	-0.133346
1904.92	-0.120135
1906.41	0.708601
1907.9	-0.0958872
1909.39	-0.0309296
1910.88	0.382241
1912.37	-0.383188
1913.86	0.0491552
1915.35	0.221351
1916.84	0.427699
1918.33	0.251897
1919.81	-0.270943
1921.3	0.592098
1922.79	0.139178
1924.28	0.18972
1925.76	0.172542
1927.25	0.537677
1928.73	0.332396
1930.22	-0.21932
1931.71	-0.287297
1933.19	-0.0974264
1934.68	0.366971
1936.16	-0.105561
1937.65	0.00872517
1939.13	-0.292437
1940.62	-0.109334
1942.1	0.0574188
1943.58	-0.0850878
1945.07	0.101298
1946.55	-0.12567
1948.03	-0.266635
1949.51	0.521753
1951	-0.0349388
1952.48	-0.230889
1953.96	-0.0318508
1955.44	0.0637159
1956.92	0.142496
1958.4	0.0504818
1959.88	-0.280614
1961.36	0.246653
1962.84	0.48237
1964.32	-0.241799
1965.8	0.147126
1967.28	-0.115661
1968.76	-0.0882339
1970.24	0.0751085
1971.72	0.186623
1973.2	0.570992
1974.67	-0.597136
1976.15	0.128474
1977.63	0.444549
1979.1	-0.00560474
1980.58	-0.455209
1982.06	0.149455
1983.54	-0.130405
1985.01	-0.189641
1986.49	0.531034
1987.96	-0.172968
1989.44	0.157511
1990.91	-0.205404
1992.39	0.1268
1993.86	0.00358391
1995.33	0.0843515
1996.81	0.486633
1998.28	-0.09091
1999.75	-0.145287
2001.23	0.153944
2002.7	-0.0706244
2004.17	0.261154
2005.65	0.23922
2007.12	0.319388
2008.59	-0.0875282
2010.06	0.382347
2011.53	0.600301
2013	0.582635
2014.47	-0.377999
2015.94	0.158112
2017.41	0.188129
2018.88	0.401917
2020.35	0.648355
2021.82	-0.113259
2023.29	0.82163
2024.76	0.0118618
2026.23	-0.0577269
2027.69	0.243612
2029.16	0.0437813
2030.63	0.634173
2032.1	0.437505
2033.56	-0.0943832
2035.03	-0.257203
2036.5	0.419302
2037.96	0.221708
2039.43	0.662145
2040.89	0.278987
2042.36	-0.120635
2043.83	0.0523815
2045.29	-0.092967
2046.75	0.116096
2048.22	0.595329
2049.68	0.231928
2051.15	0.069149
2052.61	0.0559855
2054.07	0.209041
2055.54	0.123641
2057	0.40729
2058.46	0.184134
2059.92	-0.527517
2061.39	0.310957
2062.85	0.897516
2064.31	-0.0799198
2065.77	-0.0292435
2067.23	0.073041
2068.69	0.209794
2070.15	-0.0401545
2071.61	-0.121735
2073.07	-0.472916
2074.53	0.337393
2075.99	0.0864468
2077.45	0.424411
2078.91	0.492392
2080.37	0.475545
2081.82	0.138057
2083.28	-0.132872
2084.74	0.638682
2086.2	0.281669
2087.65	-0.210394
2089.11	0.0537186
2090.57	0.787617
2092.02	-0.0406647
2093.48	0.558055
2094.94	0.0154133
2096.39	-0.359648
2097.85	-0.132128
2099.3	0.295079
2100.76	-0.265424
2102.21	0.54543
2103.66	0.153965
2105.12	0.181932
2106.57	0.195047
2108.03	0.659886
2109.48	0.107801
2110.93	0.105405
2112.38	0.284561
2113.84	-0.0882692
2115.29	-0.163142
2116.74	-0.172546
2118.19	0.63236
2119.64	-0.205368
2121.09	0.42029
2122.54	0.102726
2123.99	0.566585
2125.45	0.0363541
2126.89	-0.262003
2128.34	0.0352087
2129.79	0.545879
2131.24	0.0440922
2132.69	-0.0774784
2134.14	0.0161123
2135.59	-0.335799
2137.04	0.454901
2138.48	0.371788
2139.93	0.109386
2141.38	0.179646
2142.83	0.41685
2144.27	-0.205152
2145.72	0.463428
2147.17	0.0394115
2148.61	0.177412
2150.06	0.0327482
2151.5	-0.428036
2152.95	0.236614
2154.39	-0.0110664
2155.84	-0.259279
2157.28	0.155258
2158.73	0.35532
2160.17	0.192657
2161.61	0.512738
2163.06	0.387837
2164.5	0.198409
2165.94	0.242235
2167.38	0.13648
2168.83	-0.0538559
2170.27	0.185832
2171.71	0.522811
2173.15	0.125376
2174.59	0.574556
2176.03	-0.00822926
2177.47	-0.124981
2178.91	0.241383
2180.36	0.359579
2181.8	-0.385692
2183.23	-0.348834
2184.67	0.104203
2186.11	-0.0413847
2187.55	0.212344
2188.99	0.283166
2190.43	0.9366
2191.87	-0.274715
2193.3	-0.00540447
2194.74	0.179023
2196.18	-0.537745
2197.62	0.224342
2199.05	-0.0308475
2200.49	-0.237141
2201.93	-0.127871
2203.36	-0.0511179
2204.8	-0.00623322
2206.23	0.139351
2207.67	0.517423
2209.1	0.497516
2210.54	0.277987
2211.97	0.00779152
2213.41	-0.064661
2214.84	0.1106
2216.27	0.170848
2217.71	0.31499
2219.14	0.345189
2220.57	-0.216985
2222.01	-0.0864553
2223.44	0.240791
2224.87	0.07195
2226.3	0.147925
2227.73	0.106536
2229.16	0.260631
2230.6	-0.341252
2232.03	-0.00803375
2233.46	0.488479
2234.89	-0.143293
2236.32	0.0281515
2237.75	-0.0108414
2239.18	0.899021
2240.61	0.375517
2242.03	0.507034
2243.46	-0.207911
2244.89	0.480311
2246.32	0.14009
2247.75	-0.397841
2249.17	0.0725451
2250.6	0.197414
2252.03	-0.184801
2253.46	0.782298
2254.88	0.155836
2256.31	0.246651
2257.73	-0.0976286
2259.16	0.356959
2260.59	0.312454
2262.01	0.303653
2263.44	0.443154
2264.86	0.339458
2266.29	0.527845
2267.71	0.552669
2269.14	0.185676
2270.56	-0.215178
2271.98	0.132125
2273.4	-0.237244
2274.83	0.207839
2276.25	0.262343
2277.67	0.268225
2279.09	0.649161
2280.52	0.182272
2281.94	-0.285027
2283.36	-0.377422
2284.78	0.395084
2286.2	0.237872
2287.62	0.96277
2289.04	-0.107931
2290.46	-0.035099
2291.88	0.446844
2293.3	0.0135241
2294.72	0.479686
2296.14	0.422345
2297.56	-0.388392
2298.98	-0.28233
2300.4	-0.012023
2301.82	0.504864
2303.23	-0.0929604
2304.65	0.228032
2306.07	0.614952
2307.49	-0.0498152
2308.9	0.0731373
2310.32	0.0967493
2311.73	0.251439
2313.15	-0.054533
2314.57	0.446351
2315.98	0.257021
2317.4	0.233313
2318.81	0.342055
2320.23	0.170208
2321.64	0.211235
2323.06	0.00221252
2324.47	-0.242904
2325.88	-0.0453873
2327.3	0.726926
2328.71	1.25014
2330.12	0.438885
2331.54	-0.0246058
2332.95	0.106228
2334.36	0.0242176
2335.77	-0.205482
2337.18	0.238636
2338.6	-0.0915194
2340.01	0.00433636
2341.42	0.722855
2342.83	-0.201323
2344.24	-0.173127
2345.65	-0.193773
2347.06	-0.607121
2348.47	0.191379
2349.88	0.644829
2351.29	0.148484
2352.7	0.0272503
2354.1	0.345537
2355.51	-0.283134
2356.92	0.293957
2358.33	-0.18743
2359.74	-0.0989695
2361.14	0.249101
2362.55	0.239732
2363.96	-0.174656
2365.36	-0.297012
2366.77	0.162924
2368.18	-0.0553694
2369.58	0.27656
2370.99	0.0294571
2372.39	-0.376668
2373.8	-0.104765
2375.2	0.119114
2376.61	0.841053
2378.01	-0.819074
2379.42	0.172253
2380.82	-0.204802
2382.22	-0.214139
2383.63	0.303891
2385.03	-0.0114498
2386.43	0.0978909
2387.84	0.208169
2389.24	0.295911
2390.64	0.0506639
2392.04	-0.0334635
2393.44	-0.0684233
2394.84	-0.356719
2396.25	-0.0715427
2397.65	-0.198945
2399.05	0.230588
2400.45	0.215789
2401.85	0.439672
2403.25	0.1077
2404.65	0.0611515
2406.05	0.0134735
2407.45	-0.178211
2408.84	0.46979
2410.24	0.260715
2411.64	-0.122118
2413.04	-0.456035
2414.44	0.114332
2415.83	-0.342549
2417.23	0.215518
2418.63	0.489913
2420.02	0.606532
2421.42	0.0577326
2422.82	-0.269923
2424.21	0.146658
2425.61	-0.0228987
2427	0.061758
2428.4	0.084177
2429.8	0.234758
2431.19	0.0373116
2432.58	-0.239507
2433.98	0.451542
2435.37	0.25189
2436.77	0.542695
2438.16	0.0846882
2439.55	0.228678
2440.95	0.577797
2442.34	-0.629741
2443.73	0.464109
2445.12	0.0341434
2446.51	0.254355
2447.91	0.109696
2449.3	0.155222
2450.69	-0.0681601
2452.08	0.579839
2453.47	0.0892277
2454.86	0.185326
2456.25	0.139957
2457.64	0.142467
2459.03	-0.0450392
2460.42	0.699778
2461.81	0.115084
2463.2	0.319921
2464.59	-0.01336
2465.98	-0.204644
2467.36	0.12502
2468.75	0.122965
2470.14	0.104864
2471.53	0.275316
2472.92	0.334369
2474.3	0.171903
2475.69	0.386312
2477.08	0.191214
2478.46	0.467484
2479.85	0.288463
2481.23	-0.21933
2482.62	-0.0213976
2484	0.269503
2485.39	0.15206
2486.77	0.408267
2488.16	0.724795
2489.54	-0.176072
2490.93	0.0613317
2492.31	0.081192
2493.69	-0.0683784
2495.08	-0.0917892
2496.46	-0.253015
2497.84	-0.165082
2499.23	0.44933
2500.61	-0.12856
2501.99	0.746145
2503.37	0.104774
2504.75	0.574013
2506.13	0.163139
2507.52	0.0760317
2508.9	0.112262
2510.28	0.317902
2511.66	-0.0897055
2513.04	0.148259
2514.42	0.341022
2515.8	-0.00102043
2517.18	-0.173357
2518.55	0.358478
2519.93	0.0342569
2521.31	-0.183083
2522.69	0.362123
2524.07	0.55464
2525.45	0.105781
2526.82	0.19024
2528.2	0.320742
2529.58	0.102799
2530.95	0.0695915
2532.33	0.828751
2533.71	-0.0816755
2535.08	0.40667
2536.46	0.30242
2537.84	0.470699
2539.21	0.440165
2540.59	0.529952
2541.96	0.0120754
2543.34	0.0714474
2544.71	0.298768
2546.08	0.664187
2547.46	0.379041
2548.83	0.550128
2550.2	0.372341
2551.58	-0.170387
2552.95	-0.122516
2554.32	0.136432
2555.7	0.0906496
2557.07	-0.0923719
2558.44	-0.199657
2559.81	0.193697
2561.18	0.178361
2562.55	-0.260458
2563.93	0.210773
2565.3	0.27339
2566.67	-0.209229
2568.04	0.338774
2569.41	-0.0983105
2570.78	-0.00496864
2572.15	0.224841
2573.51	0.469935
2574.88	0.442306
2576.25	0.293412
2577.62	0.0079174
2578.99	0.737996
2580.36	0.102927
2581.73	0.21028
2583.09	0.195814
2584.46	0.408412
2585.83	0.696667
2587.19	-0.000166893
2588.56	0.242997
2589.93	0.48626
2591.29	0.15347
2592.66	0.59284
2594.02	0.470431
2595.39	0.0892315
2596.75	0.615114
2598.12	0.00475502
2599.48	0.135391
2600.85	-0.172185
2602.21	-0.191848
2603.58	-0.180448
2604.94	0.314532
2606.3	0.0250101
2607.67	-0.0838079
2609.03	-0.0127964
2610.39	-0.0790424
2611.76	0.00353622
2613.12	0.0092392
2614.48	0.0138836
2615.84	-0.0268679
2617.2	0.172585
2618.56	-0.211612
2619.92	-0.429538
2621.28	0.101423
2622.65	0.00473213
2624.01	0.192179
2625.37	0.0808401
2626.72	0.386828
2628.08	-0.0680466
2629.44	0.147368
2630.8	0.124092
2632.16	0.933184
2633.52	0.196081
2634.88	0.4842
2636.24	-0.0141973
2637.59	0.584702
2638.95	0.54603
2640.31	0.152537
2641.67	0.11479
2643.02	0.683141
2644.38	0.43897
2645.74	0.20976
2647.09	0.702642
2648.45	0.472021
2649.8	0.0934916
2651.16	0.24398
2652.51	0.349658
2653.87	-0.0434046
2655.22	0.180868
2656.58	0.362291
2657.93	0.427936
2659.29	0.231404
2660.64	-0.183708
2661.99	0.468215
2663.35	0.417515
2664.7	-0.0575542
2666.05	0.108771
2667.41	0.143012
2668.76	0.206171
2670.11	0.0367851
2671.46	0.0864305
2672.81	-0.13923
2674.16	0.333236
2675.51	0.138309
2676.87	0.292509
2678.22	0.113897
2679.57	0.762993
2680.92	0.267975
2682.27	0.19508
2683.62	0.181775
2684.97	0.648415
2686.31	0.230877
2687.66	0.277299
2689.01	0.351155
2690.36	0.292042
2691.71	0.0852947
2693.06	0.0797243
2694.4	0.348339
2695.75	0.399012
2697.1	-0.042038
2698.45	0.503663
2699.79	-0.12138
2701.14	0.0668058
2702.49	0.271545
2703.83	0.492336
2705.18	0.656045
2706.52	0.529882
2707.87	0.635395
2709.21	0.537186
2710.56	0.554534
2711.9	0.716767
2713.25	0.675456
2714.59	0.503193
2715.94	0.708765
2717.28	0.768803
2718.62	0.348415
2719.97	0.45115
2721.31	0.946223
2722.65	0.465535
2723.99	1.07577
2725.34	0.419047
2726.68	0.693331
2728.02	0.253983
2729.36	0.425565
2730.7	0.611442
2732.04	-0.13389
2733.39	0.750306
2734.73	0.485462
2736.07	0.686351
2737.41	0.436541
2738.75	0.506659
2740.08	0.823627
2741.43	0.354667
2742.76	-0.0278101
2744.1	0.780643
2745.44	0.774114
2746.78	0.273238
2748.12	0.236991
2749.46	0.20083
2750.79	-0.081604
2752.13	0.79633
2753.47	0.471066
2754.81	0.378052
2756.14	0.140442
2757.48	-0.125777
2758.81	0.216463
2760.15	0.0669928
2761.49	-0.342257
2762.82	0.652771
2764.16	0.0854521
2765.49	-0.105663
2766.83	0.556176
2768.16	-0.200969
2769.5	0.457556
2770.83	-0.100464
2772.16	-0.226402
2773.5	-0.137105
2774.83	0.542363
2776.17	0.442751
2777.5	-0.188659
2778.83	-0.0130272
2780.16	0.292368
2781.5	-0.177691
2782.83	-0.0442648
2784.16	0.174949
2785.49	0.0928564
2786.82	0.225962
2788.15	-0.270241
2789.49	0.036335
2790.82	-0.0994873
2792.15	-0.319962
2793.48	0.0749693
2794.81	0.11248
2796.14	-0.0933905
2797.46	0.100051
2798.79	-0.178595
2800.12	0.11327
2801.45	0.147729
2802.78	-0.0890179
2804.11	0.201383
2805.44	-0.135818
2806.76	0.110126
2808.09	0.241069
2809.42	0.143836
2810.75	0.316602
2812.07	0.0642366
2813.4	-0.0302334
2814.73	0.132565
2816.05	-0.35476
2817.38	0.307604
2818.7	-0.333223
2820.03	0.131507
2821.36	0.425524
2822.68	-0.287589
2824.01	0.202988
2825.33	0.211272
2826.65	-0.00695038
2827.98	0.00215912
2829.3	0.450899
2830.63	0.178282
2831.95	0.65623
2833.27	0.99252
2834.6	0.663084
2835.92	0.814195
2837.24	0.907903
2838.56	1.66579
2839.88	1.70175
2841.21	1.66716
2842.53	2.05729
2843.85	1.91123
2845.17	2.52943
2846.49	2.76702
2847.81	3.3868
2849.13	3.07384
2850.45	2.64735
2851.77	3.56283
2853.09	3.31852
2854.41	3.44107
2855.73	3.78937
2857.05	3.65725
2858.37	3.82189
2859.69	4.46663
2861	3.7695
2862.32	4.39915
2863.64	4.84447
2864.96	5.44434
2866.28	4.90127
2867.59	5.28971
2868.91	5.56593
2870.23	5.72999
2871.54	5.8802
2872.86	5.83261
2874.17	5.8261
2875.49	6.00094
2876.81	6.45542
2878.12	5.57131
2879.44	5.99559
2880.75	6.50431
2882.07	6.00238
2883.38	6.31722
2884.69	6.4229
2886.01	6.24882
2887.32	6.34162
2888.63	6.48979
2889.95	6.58049
2891.26	6.40331
2892.57	6.5196
2893.89	6.36939
2895.2	6.02391
2896.51	6.43593
2897.82	7.3952
2899.13	6.99872
2900.44	6.65971
2901.76	6.89509
2903.07	7.1728
2904.38	6.97518
2905.69	7.21167
2907	6.86166
2908.31	7.4782
2909.62	7.67662
2910.93	7.69417
2912.24	8.42563
2913.55	8.20413
2914.85	8.30228
2916.16	8.64957
2917.47	9.09209
2918.78	8.94508
2920.09	9.1476
2921.4	9.3232
2922.7	9.24927
2924.01	10.2121
2925.32	10.1706
2926.62	9.59894
2927.93	10.2296
2929.24	9.6994
2930.54	10.4265
2931.85	10.2301
2933.15	9.89357
2934.46	9.76677
2935.76	10.3111
2937.07	9.76562
2938.37	9.47213
2939.68	9.64031
2940.98	9.43212
2942.29	8.91798
2943.59	8.16817
2944.89	8.62258
2946.2	7.63875
2947.5	8.18024
2948.8	7.6021
2950.11	8.11389
2951.41	6.59266
2952.71	6.86077
2954.01	6.86072
2955.32	6.5522
2956.62	6.79105
2957.92	6.89317
2959.22	6.39761
2960.52	5.70988
2961.82	6.20202
2963.12	6.41556
2964.42	6.51631
2965.72	5.47714
2967.02	5.72748
2968.32	5.83548
2969.62	5.59088
2970.92	5.75396
2972.22	5.04539
2973.51	4.99847
2974.81	5.09237
2976.11	5.10095
2977.41	4.37545
2978.71	4.29514
2980	4.31089
2981.3	4.2403
2982.6	4.23932
2983.9	3.7047
2985.19	4.09979
2986.49	3.37292
2987.78	3.05596
2989.08	3.19024
2990.38	2.41154
2991.67	2.79869
2992.97	2.76279
2994.26	2.55653
2995.56	2.03983
2996.85	2.22456
2998.14	1.9739
2999.44	1.75197
3000.73	1.88164
3002.03	1.70381
3003.32	1.28859
3004.61	1.39221
3005.91	1.21542
3007.2	1.30398
3008.49	0.943686
3009.78	1.07205
3011.07	0.836032
3012.37	0.278791
3013.66	0.754869
3014.95	0.464239
3016.24	0.70448
3017.53	0.708933
3018.82	0.602927
3020.11	0.622455
3021.4	-0.0951462
3022.69	-0.0766678
3023.98	0.259798
3025.27	0.372953
3026.56	-0.179062
3027.85	0.22552
3029.14	0.243962
3030.43	-0.177528
3031.71	0.107885
3033	-0.171338
3034.29	0.0608349
3035.58	0.154343
3036.87	-0.0847464
3038.15	-0.243049
3039.44	-0.11437
3040.73	0.369444
3042.01	0.0548401
3043.3	0.0975742
3044.59	0.0731115
3045.87	-0.0172262
3047.16	-0.281839
3048.44	-0.133224
3049.73	-0.336576
3051.01	-0.0190039
3052.3	0.559036
3053.58	0.0593243
3054.87	0.268464
3056.15	0.749022
3057.43	0.314547
3058.72	0.710707
3060	0.234815
3061.29	0.250077
3062.57	0.416479
3063.85	0.163337
3065.13	0.578743
3066.42	0.43886
3067.7	0.23258
3068.98	-0.0682249
3070.26	0.242785
3071.54	-0.181533
3072.82	0.562351
3074.11	0.312032
3075.39	0.848927
3076.67	0.162846
3077.95	0.564114
3079.23	-0.118674
3080.51	-0.324095
3081.79	-0.0388641
3083.07	0.397475
3084.35	-0.209686
3085.63	0.0111198
3086.9	0.218083
3088.18	0.234358
3089.46	0.1821
3090.74	0.0345297
3092.02	0.253391
3093.29	0.201358
3094.57	0.326306
3095.85	0.546758
3097.13	0.604851
3098.4	0.47337
3099.68	0.504643
3100.95	0.265144
3102.23	0.473046
3103.51	0.437799
3104.78	0.71486
3106.06	0.316451
3107.33	0.501518
3108.61	0.471728
3109.88	0.524852
3111.16	0.430652
3112.43	0.581501
3113.71	0.489406
3114.98	0.844864
3116.25	0.956142
3117.53	0.998787
3118.8	0.796078
3120.07	0.7957
3121.35	0.83509
3122.62	1.06373
3123.89	0.614963
3125.16	1.60239
3126.44	1.60191
3127.71	1.19674
3128.98	0.901101
3130.25	1.35012
3131.52	1.16403
3132.79	1.70795
3134.06	1.40037
3135.33	1.21425
3136.6	1.21679
3137.87	1.24605
3139.14	1.7197
3140.41	1.96394
3141.68	1.41479
3142.95	1.4855
3144.22	1.40948
3145.49	1.65672
3146.76	1.65028
3148.02	1.84611
3149.29	2.14997
