200.398	-0.100747
202.213	-0.0850306
204.027	-0.0685244
205.843	0.0950975
207.657	0.502069
209.47	0.0576277
211.283	-0.314754
213.097	0.0642948
214.909	0.393029
216.721	-0.151965
218.533	0.345349
220.344	0.140814
222.157	-0.304219
223.967	0.316079
225.777	-0.465131
227.587	0.324644
229.396	-0.287148
231.205	-0.126675
233.016	-0.352672
234.824	0.844584
236.632	0.331014
238.439	0.181732
240.247	0.63809
242.053	0.374135
243.86	0.425311
245.666	0.452443
247.474	1.08143
249.279	1.07955
251.085	0.735724
252.889	1.20921
254.694	1.9936
256.498	1.20942
258.301	1.12593
260.105	1.33373
261.908	2.00172
263.71	1.13021
265.513	0.886443
267.315	1.17331
269.116	1.02608
270.918	0.877817
272.718	1.01744
274.519	0.432023
276.319	0.664352
278.119	0.8461
279.918	1.04927
281.718	-0.21862
283.516	1.08645
285.315	0.369134
287.113	0.972343
288.911	0.495322
290.708	0.858569
292.505	-0.0457468
294.302	0.00994396
296.098	-0.0760679
297.894	0.986523
299.69	0.185512
301.485	0.388009
303.278	0.54162
305.073	0.526567
306.867	-0.085927
308.661	0.374676
310.454	0.0491953
312.247	0.487589
314.04	0.0229378
315.833	0.513116
317.623	0.648414
319.415	-0.0956545
321.206	-0.481342
322.997	0.135119
324.788	-0.2493
326.579	0.0822811
328.367	-0.11159
330.156	0.745439
331.946	0.645261
333.735	0.471119
335.523	0.126767
337.31	0.28211
339.098	0.243462
340.885	0.346392
342.673	-0.149398
344.458	0.0241785
346.244	1.01032
348.03	-0.271668
349.816	0.0471115
351.6	0.676118
353.385	-0.0320597
355.17	0.642478
356.953	0.0749826
358.737	0.00689125
360.521	0.270885
362.304	-0.20434
364.085	0.176268
365.868	-0.181112
367.65	-0.111543
369.431	-0.375104
371.212	0.142516
372.994	0.445199
374.773	0.0377426
376.554	0.339453
378.332	-0.0898438
380.112	-0.140239
381.892	-0.0949736
383.669	0.328146
385.448	0.235202
387.225	0.825358
389.003	-0.321754
390.781	0.294408
392.557	1.00539
394.334	0.871754
396.109	0.856076
397.885	0.723166
399.66	0.0498438
401.436	1.39597
403.211	0.956244
404.984	0.98533
406.759	0.0976563
408.532	0.594744
410.306	1.11471
412.078	1.44677
413.851	0.512217
415.623	2.18324
417.395	1.13357
419.166	1.37535
420.938	1.4768
422.708	1.41369
424.477	1.18537
426.248	1.4019
428.017	1.12434
429.788	0.235909
431.556	0.356854
433.326	0.642485
435.093	-0.0571365
436.86	0.0881672
438.629	0.0683956
440.395	0.398879
442.163	0.60942
443.929	0.207484
445.694	0.295691
447.461	0.311989
449.226	0.421192
450.99	0.27332
452.756	-0.27073
454.52	0.166097
456.285	-0.283437
458.048	0.059413
459.811	0.215645
461.573	0.163193
463.337	0.275422
465.099	0.06528
466.86	-0.536253
468.623	0.00418758
470.384	0.314943
472.144	-0.3271
473.906	0.216726
475.666	-0.17275
477.425	0.483209
479.184	0.950524
480.944	0.740962
482.703	-0.120512
484.461	0.556673
486.218	-0.394208
487.975	0.241755
489.734	0.414644
491.491	0.5425
493.247	0.250941
495.003	-0.0408325
496.759	-0.0991402
498.516	-0.157851
500.271	0.0173063
502.025	0.238946
503.779	0.295446
505.533	0.186109
507.287	0.474727
509.042	0.173574
510.795	0.340844
512.547	0.106153
514.299	0.528449
516.051	0.619536
517.803	0.89717
519.554	1.03225
521.305	0.273345
523.055	0.947134
524.805	0.939267
526.555	0.649894
528.307	0.970495
530.056	0.376719
531.805	0.34523
533.553	1.06184
535.301	0.910517
537.049	0.827719
538.797	0.719898
540.544	0.214314
542.291	-0.244544
544.037	0.553529
545.783	0.443402
547.529	0.0784798
549.275	0.247933
551.02	0.695192
552.765	0.632839
554.509	0.686437
556.253	-0.0907011
557.997	0.310307
559.738	0.34259
561.482	0.00722694
563.224	0.547234
564.967	0.696469
566.709	0.111313
568.451	0.652829
570.192	0.070755
571.933	-0.302687
573.674	0.358294
575.415	-0.446654
577.153	-0.217223
578.893	-0.0318823
580.632	0.0398064
582.371	0.295601
584.11	-0.0926886
585.849	0.0234432
587.587	0.253133
589.323	-0.139802
591.06	0.0412464
592.797	-0.0314474
594.534	0.33281
596.271	0.167965
598.005	-0.226947
599.741	-0.18513
601.476	0.0627432
603.211	0.125004
604.944	-0.0214796
606.679	0.519868
608.413	-0.134591
610.147	0.0377541
611.878	-0.0188818
613.611	-0.418395
615.344	-0.220828
617.077	0.457992
618.807	0.242541
620.539	-0.180062
622.27	0.402855
623.999	-0.502013
625.73	-0.149243
627.461	-0.389258
629.189	0.537212
630.919	0.097167
632.648	0.344361
634.376	0.73001
636.105	0.0882549
637.833	0.197638
639.559	-0.540716
641.287	0.200557
643.013	0.436351
644.74	-0.172395
646.467	0.403176
648.192	0.0254402
649.918	0.310922
651.642	0.214884
653.368	0.0100985
655.091	0.241473
656.816	0.157455
658.538	-0.221766
660.263	0.310492
661.987	0.316596
663.708	-0.114357
665.432	0.205719
667.153	0.134841
668.875	-0.0971708
670.596	0.44926
672.318	0.243287
674.037	0.406578
675.759	0.206173
677.478	0.00702477
679.196	-0.375998
680.917	0.733383
682.635	0.346965
684.355	0.0954809
686.072	0.255766
687.791	0.460215
689.508	-0.0968056
691.224	0.727322
692.942	0.260715
694.658	0.875764
696.376	0.245868
698.091	0.880951
699.805	0.501468
701.522	0.0748692
703.236	0.452039
704.95	0.299553
706.665	0.972824
708.379	-0.0753794
710.093	-0.0454512
711.806	0.396093
713.518	0.676367
715.23	-0.255322
716.943	0.275848
718.655	0.144655
720.366	1.31304
722.078	0.407335
723.788	0.367884
725.498	0.669371
727.208	0.742846
728.919	0.974493
730.628	0.366321
732.337	0.619505
734.045	0.939797
735.755	0.920438
737.463	1.03708
739.17	0.297067
740.877	0.686606
742.584	0.558958
744.292	0.72582
745.998	1.05183
747.704	0.299554
749.409	0.7189
751.114	0.375051
752.819	-0.574532
754.526	0.0970163
756.23	0.703163
757.934	0.433609
759.637	0.751312
761.34	1.04832
763.043	0.647034
764.746	0.989996
766.448	1.06094
768.152	0.971465
769.853	1.30884
771.554	2.11859
773.255	1.27571
774.956	1.3141
776.656	1.28529
778.356	1.37114
780.056	1.95653
781.755	2.47588
783.454	2.00008
785.153	1.68107
786.851	1.76647
788.549	2.82095
790.247	1.69856
791.944	1.11654
793.641	1.41406
795.338	0.808265
797.034	1.309
798.73	1.45063
800.426	1.50434
802.121	1.35737
803.817	1.57125
805.511	1.31272
807.206	1.70504
808.9	1.0849
810.592	1.04756
812.286	1.48
813.979	1.61973
815.672	1.33354
817.364	1.24907
819.057	1.23187
820.748	1.92949
822.44	2.40332
824.129	1.56198
825.82	1.32515
827.511	0.979823
829.201	1.35066
830.891	1.27982
832.581	1.85861
834.269	1.52677
835.958	1.1736
837.646	1.86875
839.335	0.75458
841.023	1.11178
842.709	1.15472
844.396	1.06293
846.084	1.06127
847.77	1.55365
849.455	1.6245
851.141	1.11648
852.827	1.25997
854.513	1.15817
856.196	1.32553
857.881	0.74993
859.566	1.4989
861.248	1.2334
862.932	0.379795
864.616	0.538029
866.297	0.965753
867.98	0.829177
869.663	1.21069
871.343	1.1859
873.026	1.27363
874.707	1.02282
876.387	1.60692
878.068	0.385596
879.747	1.44368
881.428	0.0182991
883.108	1.0978
884.786	1.06977
886.465	0.85944
888.143	0.895465
889.822	1.29027
891.498	1.14185
893.177	0.85679
894.855	0.458184
896.53	0.93572
898.208	1.14154
899.883	0.313862
901.56	1.23468
903.234	0.608515
904.91	0.788185
906.584	0.498942
908.26	0.0550537
909.933	0.993952
911.608	0.686116
913.28	0.646489
914.955	1.16247
916.627	0.878971
918.298	0.972677
919.972	1.42058
921.643	0.695882
923.315	1.01267
924.986	0.911332
926.656	0.437051
928.328	1.31161
929.997	1.32669
931.668	0.416006
933.337	1.05017
935.006	0.272703
936.676	0.973592
938.344	0.352186
940.012	0.945291
941.681	1.2533
943.348	0.547378
945.014	0.304471
946.683	1.25215
948.349	0.343404
950.015	0.800823
951.682	0.704851
953.347	0.564827
955.012	1.11028
956.676	0.997562
958.343	0.24918
960.006	0.71749
961.67	0.658297
963.333	0.311592
964.998	1.11254
966.661	0.0744934
968.323	0.360205
969.985	0.178685
971.649	0.659648
973.31	0.411133
974.971	0.916262
976.632	1.00351
978.293	1.66789
979.953	1.28248
981.615	0.896373
983.274	1.49355
984.933	0.959239
986.592	0.355982
988.251	1.21102
989.909	0.957973
991.567	1.08002
993.225	1.15748
994.884	0.594774
996.541	1.4007
998.198	1.3678
999.855	1.95163
1001.51	1.45511
1003.17	0.650554
1004.82	1.0782
1006.48	0.4722
1008.13	0.745584
1009.79	1.10675
1011.44	1.02938
1013.1	0.777356
1014.75	0.701362
1016.4	0.669728
1018.06	0.332432
1019.71	0.893141
1021.36	0.602057
1023.01	1.18686
1024.66	1.09521
1026.32	1.41955
1027.97	0.869875
1029.62	1.43371
1031.27	0.685282
1032.92	0.655753
1034.57	1.0823
1036.22	1.72448
1037.87	1.60203
1039.52	0.456519
1041.16	1.74971
1042.81	1.06473
1044.46	1.44741
1046.11	2.07131
1047.76	1.52484
1049.4	2.37061
1051.05	1.58927
1052.7	2.63367
1054.34	1.7886
1055.99	2.07333
1057.63	2.18387
1059.28	1.35884
1060.92	1.68517
1062.57	0.423107
1064.21	0.74719
1065.85	0.787225
1067.5	0.847549
1069.14	0.385122
1070.78	0.747429
1072.43	0.240937
1074.07	0.733528
1075.71	0.814922
1077.35	1.09316
1078.99	0.895898
1080.63	1.67548
1082.27	0.611897
1083.91	0.761542
1085.55	0.475533
1087.19	0.923816
1088.83	1.02244
1090.47	1.24837
1092.11	1.21286
1093.75	0.701576
1095.39	0.579789
1097.03	1.10594
1098.66	1.00834
1100.3	0.827031
1101.94	0.949654
1103.57	0.170997
1105.21	0.34074
1106.84	0.446676
1108.48	0.165144
1110.11	0.376891
1111.75	0.565028
1113.38	0.278306
1115.02	0.37671
1116.65	0.838874
1118.29	0.228575
1119.92	0.498299
1121.55	1.02592
1123.19	0.0775995
1124.82	1.03545
1126.45	0.774665
1128.08	0.237011
1129.71	0.0853033
1131.34	0.426068
1132.97	0.254097
1134.6	0.830144
1136.23	0.0373993
1137.86	0.333392
1139.49	0.734468
1141.12	0.279869
1142.75	0.678563
1144.38	-0.181382
1146.01	-0.464108
1147.64	0.767616
1149.26	-0.258649
1150.89	0.654528
1152.52	0.0766401
1154.15	0.0947104
1155.77	0.388925
1157.4	0.555098
1159.02	0.253661
1160.65	0.144814
1162.27	-0.260285
1163.9	0.207631
1165.52	-0.429416
1167.15	-0.386371
1168.77	0.186896
1170.39	0.354004
1172.02	0.454761
1173.64	0.446927
1175.26	0.0979929
1176.89	0.575626
1178.51	0.501982
1180.13	-0.269217
1181.75	0.59056
1183.37	0.435363
1184.99	0.407198
1186.61	0.335662
1188.23	0.515346
1189.85	0.354877
1191.47	0.150164
1193.09	0.511662
1194.71	0.745082
1196.33	0.0762615
1197.94	0.541055
1199.56	0.735021
1201.18	-0.07129
1202.8	1.04796
1204.41	0.771119
1206.03	0.705974
1207.65	0.872111
1209.26	0.892609
1210.88	0.620084
1212.49	0.762492
1214.11	1.73536
1215.72	1.20459
1217.34	0.401784
1218.95	0.762906
1220.57	0.417238
1222.18	0.67452
1223.79	0.767149
1225.41	0.903003
1227.02	0.895825
1228.63	0.993916
1230.24	1.48644
1231.85	1.36018
1233.47	2.08299
1235.08	1.05069
1236.69	1.71482
1238.3	1.3262
1239.91	1.47598
1241.52	1.48132
1243.13	1.27934
1244.74	1.59355
1246.34	0.789019
1247.95	0.831511
1249.56	1.36955
1251.17	1.80355
1252.78	2.23771
1254.38	1.03876
1255.99	1.84762
1257.6	1.52052
1259.2	0.801693
1260.81	1.01509
1262.42	1.24998
1264.02	1.23651
1265.63	0.973845
1267.23	0.979516
1268.84	0.859575
1270.44	1.46394
1272.04	1.50711
1273.65	1.11349
1275.25	1.44414
1276.85	1.0688
1278.46	1.08618
1280.06	1.22695
1281.66	0.891135
1283.26	1.5901
1284.86	2.04103
1286.46	1.56256
1288.07	1.39578
1289.67	2.13956
1291.27	1.78874
1292.87	1.7478
1294.47	1.49931
1296.06	1.45574
1297.66	1.76098
1299.26	1.11458
1300.86	1.86892
1302.46	2.10536
1304.06	1.94898
1305.65	2.22363
1307.25	1.32629
1308.85	1.18952
1310.44	1.72929
1312.04	1.65423
1313.64	1.49851
1315.23	1.93696
1316.83	1.92681
1318.42	1.71342
1320.02	2.4788
1321.61	1.8158
1323.2	2.12871
1324.8	1.9913
1326.39	2.40037
1327.99	1.9357
1329.58	2.16136
1331.17	1.82233
1332.76	1.64867
1334.36	2.60903
1335.95	2.37995
1337.54	1.8091
1339.13	1.84274
1340.72	2.1158
1342.31	2.78786
1343.9	1.76715
1345.49	1.89156
1347.08	2.07585
1348.67	2.08176
1350.26	2.33123
1351.85	2.10398
1353.43	1.24011
1355.02	1.77774
1356.61	1.91598
1358.2	1.93371
1359.78	2.16977
1361.37	1.50591
1362.96	2.27781
1364.54	1.35371
1366.13	2.1644
1367.71	2.45753
1369.3	1.67719
1370.88	1.37694
1372.47	1.81492
1374.05	2.03552
1375.64	1.71985
1377.22	1.8222
1378.8	1.96367
1380.39	1.66597
1381.97	1.96333
1383.55	1.6422
1385.13	1.14101
1386.72	1.89126
1388.3	1.78707
1389.88	1.64416
1391.46	0.84779
1393.04	1.30272
1394.62	1.06379
1396.2	0.844586
1397.78	1.7743
1399.36	1.03749
1400.94	1.54777
1402.52	1.16591
1404.1	0.863514
1405.68	1.74851
1407.25	0.87476
1408.83	1.60324
1410.41	1.12708
1411.98	1.22382
1413.56	1.57633
1415.14	1.82864
1416.71	2.02031
1418.29	1.20598
1419.87	1.39758
1421.44	2.27957
1423.02	1.39154
1424.59	1.66739
1426.16	1.29547
1427.74	1.59353
1429.31	2.20619
1430.89	2.69945
1432.46	1.99051
1434.03	2.04772
1435.6	2.96956
1437.18	2.88838
1438.75	2.80831
1440.32	2.59215
1441.89	2.35779
1443.46	2.51752
1445.03	3.0316
1446.6	3.05462
1448.17	2.80266
1449.74	2.70833
1451.31	2.51633
1452.88	2.3447
1454.45	2.3309
1456.02	2.9467
1457.59	2.28268
1459.16	2.75821
1460.72	1.9324
1462.29	3.03229
1463.86	2.45738
1465.43	2.25483
1466.99	2.32694
1468.56	1.63373
1470.13	1.84513
1471.69	1.52825
1473.26	1.4876
1474.82	1.87946
1476.38	1.74242
1477.95	1.86043
1479.51	1.60588
1481.08	1.11605
1482.64	1.23373
1484.2	1.39039
1485.77	1.15471
1487.33	1.03562
1488.89	1.11062
1490.46	1.06565
1492.02	0.822268
1493.58	0.674016
1495.14	1.26503
1496.7	1.09312
1498.26	0.804496
1499.82	0.96433
1501.38	0.931057
1502.94	0.899475
1504.5	0.539781
1506.06	1.24582
1507.62	0.595932
1509.18	0.969891
1510.73	1.51509
1512.29	0.843542
1513.85	1.27023
1515.41	0.715668
1516.96	0.892832
1518.52	1.24318
1520.08	0.501764
1521.63	0.929453
1523.19	0.801486
1524.75	0.691832
1526.3	1.5154
1527.85	0.65979
1529.41	1.09874
1530.96	1.0617
1532.52	0.513429
1534.07	0.573784
1535.62	0.82451
1537.18	0.943678
1538.73	0.384059
1540.28	2.05116
1541.84	0.757513
1543.39	1.19771
1544.94	0.790668
1546.49	1.0791
1548.04	1.53558
1549.59	1.97228
1551.14	1.13505
1552.69	1.2355
1554.25	1.61738
1555.79	0.730581
1557.34	1.13523
1558.89	1.26229
1560.44	1.5225
1561.99	1.11336
1563.54	1.82513
1565.08	1.28777
1566.63	1.16098
1568.18	1.20182
1569.73	1.24214
1571.27	0.889932
1572.82	1.48933
1574.37	2.16322
1575.91	1.02637
1577.46	1.90592
1579	1.87132
1580.55	1.52016
1582.09	1.56215
1583.64	1.28776
1585.18	1.23846
1586.73	1.48894
1588.27	1.9456
1589.81	1.9907
1591.35	1.67956
1592.9	1.92928
1594.44	1.87904
1595.98	1.69766
1597.52	1.64791
1599.06	1.6178
1600.61	2.00133
1602.15	1.89794
1603.69	2.05733
1605.23	1.23905
1606.77	1.48952
1608.31	1.5119
1609.85	1.43715
1611.39	1.22773
1612.93	1.52282
1614.46	2.45386
1616	1.61997
1617.54	1.14386
1619.08	1.00705
1620.61	1.58401
1622.15	1.33871
1623.69	1.2257
1625.23	1.5995
1626.76	1.89729
1628.3	1.22025
1629.83	1.86955
1631.37	1.58219
1632.9	1.92962
1634.44	1.30632
1635.97	1.56168
1637.51	1.65024
1639.04	1.38539
1640.57	1.23263
1642.11	1.67534
1643.64	2.26509
1645.17	2.23833
1646.71	1.48504
1648.24	2.08884
1649.77	1.9495
1651.3	1.79315
1652.83	1.80563
1654.36	1.78261
1655.89	1.40837
1657.42	2.10898
1658.96	1.34483
1660.48	1.57928
1662.01	2.36643
1663.54	2.3189
1665.07	1.31013
1666.6	1.57684
1668.13	1.47576
1669.66	1.5243
1671.19	1.3906
1672.71	1.44272
1674.24	2.41626
1675.77	1.71365
1677.29	1.5809
1678.82	1.22601
1680.35	1.10902
1681.87	1.70772
1683.4	1.11158
1684.92	1.61733
1686.45	0.747462
1687.97	0.795662
1689.5	1.02753
1691.02	0.746827
1692.54	0.942337
1694.07	0.844895
1695.59	0.765609
1697.11	0.594693
1698.64	0.861785
1700.16	0.963705
1701.68	0.59059
1703.2	0.454124
1704.72	0.754161
1706.25	0.234289
1707.77	0.205733
1709.29	0.576709
1710.81	0.892683
1712.33	0.99077
1713.85	0.183018
1715.37	0.517179
1716.89	0.705995
1718.41	-0.208164
1719.92	0.125115
1721.44	0.0430527
1722.96	0.628905
1724.48	0.656763
1725.99	0.452272
1727.51	0.537794
1729.03	-0.0411911
1730.55	0.5128
1732.06	0.507002
1733.58	0.501536
1735.09	0.27708
1736.61	0.0502539
1738.13	0.0130234
1739.64	0.383232
1741.15	-0.55672
1742.67	0.179957
1744.18	0.53103
1745.7	0.343153
1747.21	0.651189
1748.72	0.476399
1750.24	0.265658
1751.75	0.493991
1753.26	-0.147109
1754.77	0.0490999
1756.29	-0.100758
1757.8	-0.0117273
1759.31	-0.0931501
1760.82	0.175696
1762.33	0.039876
1763.84	0.114758
1765.35	0.272353
1766.86	-0.201853
1768.37	0.118871
1769.88	0.774741
1771.39	0.0645113
1772.9	-0.00135231
1774.4	0.203343
1775.91	-0.170714
1777.42	-0.130445
1778.93	0.334907
1780.44	0.232041
1781.94	0.0294752
1783.45	-0.00657368
1784.96	-0.0691166
1786.46	-0.0107126
1787.97	0.028533
1789.47	0.229598
1790.98	0.314529
1792.48	0.252665
1793.99	0.0346794
1795.49	0.360524
1797	0.389118
1798.5	0.134878
1800.01	0.0532875
1801.51	-0.153784
1803.01	0.397681
1804.51	0.560155
1806.02	-0.0525894
1807.52	-0.00640392
1809.02	0.262073
1810.52	0.408387
1812.02	0.185188
1813.52	-0.0579424
1815.02	0.207376
1816.53	-0.194181
1818.03	0.24723
1819.52	0.295242
1821.02	0.13885
1822.52	0.0786552
1824.02	0.343272
1825.52	0.0838127
1827.02	0.0862465
1828.52	0.214898
1830.02	0.393908
1831.51	0.276628
1833.01	0.0456238
1834.51	0.145966
1836.01	0.383038
1837.5	-0.295476
1839	-0.439323
1840.49	-0.0175714
1841.99	0.420083
1843.49	-0.0591373
1844.98	-0.00854778
1846.48	-0.0193958
1847.97	0.00388145
1849.47	-0.397923
1850.96	-0.0615578
1852.45	0.278508
1853.95	-0.139511
1855.44	-0.417215
1856.93	-0.269296
1858.42	0.112424
1859.92	0.641047
1861.41	0.280498
1862.9	0.172921
1864.39	0.213894
1865.88	0.116149
1867.38	-0.141227
1868.87	-0.0320234
1870.36	0.0828266
1871.85	0.241445
1873.34	-0.0756311
1874.83	-0.0488367
1876.32	-0.0813818
1877.81	-0.19457
1879.29	0.119083
1880.78	0.176908
1882.27	0.363702
1882.53	0.405718
1884.03	-0.190413
1885.52	-0.107503
1887.01	0.0438976
1888.51	-0.031806
1890	0.0668144
1891.5	0.184011
1892.99	0.0771999
1894.48	0.45959
1895.97	0.11378
1897.47	0.290697
1898.96	0.206619
1900.45	0.0342083
1901.94	-0.0707016
1903.43	0.0134745
1904.92	0.0957375
1906.41	-0.309571
1907.9	0.0669432
1909.39	0.721598
1910.88	0.231831
1912.37	0.142522
1913.86	0.383523
1915.35	0.225732
1916.84	0.223604
1918.33	-0.333845
1919.81	-0.181132
1921.3	0.36975
1922.79	0.349424
1924.28	-0.0679121
1925.76	0.0529747
1927.25	-0.0325041
1928.73	0.436902
1930.22	-0.184565
1931.71	0.12799
1933.19	0.23086
1934.68	0.296753
1936.16	0.135476
1937.65	0.18032
1939.13	0.742857
1940.62	0.0618277
1942.1	-0.0305147
1943.58	0.413336
1945.07	-0.0904274
1946.55	0.251327
1948.03	0.110035
1949.51	0.243505
1951	0.100067
1952.48	0.38577
1953.96	-0.32698
1955.44	0.370196
1956.92	0.225517
1958.4	0.0304279
1959.88	-0.558046
1961.36	0.38077
1962.84	0.376376
1964.32	0.320348
1965.8	0.229464
1967.28	0.377382
1968.76	-0.570424
1970.24	0.311196
1971.72	0.268895
1973.2	-0.285443
1974.67	0.16742
1976.15	0.176743
1977.63	-0.120298
1979.1	0.195956
1980.58	0.0184669
1982.06	0.265951
1983.54	0.139005
1985.01	-0.327643
1986.49	-0.319016
1987.96	0.130191
1989.44	0.104989
1990.91	0.46992
1992.39	-0.263687
1993.86	-0.166903
1995.33	0.37023
1996.81	-0.0046854
1998.28	-0.00785637
1999.75	0.174125
2001.23	0.388914
2002.7	-0.0380669
2004.17	0.462385
2005.65	0.238256
2007.12	0.267964
2008.59	-0.0547123
2010.06	-0.056241
2011.53	0.111245
2013	-0.209344
2014.47	0.0754519
2015.94	-0.111944
2017.41	0.2378
2018.88	-0.187107
2020.35	0.395827
2021.82	-0.0632076
2023.29	0.385047
2024.76	-0.189524
2026.23	-0.0241508
2027.69	0.193335
2029.16	0.043766
2030.63	-0.0202274
2032.1	0.219065
2033.56	-0.0948362
2035.03	0.39712
2036.5	-0.287018
2037.96	0.170406
2039.43	0.30821
2040.89	0.193849
2042.36	0.0295
2043.83	0.219246
2045.29	0.275716
2046.75	0.23222
2048.22	0.121707
2049.68	0.0949364
2051.15	-0.186079
2052.61	0.002985
2054.07	-0.0294771
2055.54	0.273082
2057	-0.471457
2058.46	0.114748
2059.92	0.31288
2061.39	-0.414654
2062.85	0.508904
2064.31	0.558255
2065.77	0.137741
2067.23	0.391514
2068.69	0.0906839
2070.15	0.312027
2071.61	-0.00522137
2073.07	0.552824
2074.53	-0.270165
2075.99	0.607151
2077.45	0.153665
2078.91	0.339583
2080.37	0.508048
2081.82	0.254836
2083.28	-0.0159845
2084.74	-0.119333
2086.2	0.382028
2087.65	0.478636
2089.11	0.204881
2090.57	0.166299
2092.02	0.127655
2093.48	0.122497
2094.94	-0.151299
2096.39	0.64723
2097.85	0.271456
2099.3	0.0962381
2100.76	0.489451
2102.21	-0.22049
2103.66	0.0735312
2105.12	-0.315425
2106.57	0.0984831
2108.03	0.296649
2109.48	0.261706
2110.93	0.159416
2112.38	-0.0611267
2113.84	-0.117045
2115.29	0.507319
2116.74	-0.466471
2118.19	0.156382
2119.64	0.315221
2121.09	0.0616112
2122.54	0.0262585
2123.99	0.307818
2125.45	-0.189162
2126.89	0.142602
2128.34	-0.0574312
2129.79	0.0392008
2131.24	-0.445535
2132.69	0.0955486
2134.14	0.0238876
2135.59	0.317047
2137.04	0.347378
2138.48	0.429627
2139.93	0.0845947
2141.38	-0.0105314
2142.83	-0.00503063
2144.27	-0.0648947
2145.72	0.256021
2147.17	0.229135
2148.61	0.317382
2150.06	0.470857
2151.5	0.275183
2152.95	0.343353
2154.39	-0.0202847
2155.84	0.377645
2157.28	0.26208
2158.73	0.478711
2160.17	0.26631
2161.61	0.337706
2163.06	0.0798693
2164.5	-0.176406
2165.94	0.0826521
2167.38	-0.0733843
2168.83	-0.280753
2170.27	-0.0580015
2171.71	0.0459166
2173.15	-0.25174
2174.59	-0.434548
2176.03	0.396465
2177.47	0.62885
2178.91	0.363373
2180.36	0.431651
2181.8	0.218371
2183.23	0.271839
2184.67	0.508636
2186.11	0.279812
2187.55	0.117486
2188.99	-0.693903
2190.43	0.00913239
2191.87	-0.419992
2193.3	0.481897
2194.74	0.399864
2196.18	-0.117188
2197.62	0.0625076
2199.05	0.0902624
2200.49	-0.531258
2201.93	0.25915
2203.36	0.120156
2204.8	-0.0338812
2206.23	0.19468
2207.67	0.042675
2209.1	0.00649071
2210.54	0.316951
2211.97	0.890448
2213.41	-0.0584736
2214.84	-0.163827
2216.27	0.325916
2217.71	-0.206324
2219.14	0.153943
2220.57	-0.358716
2222.01	0.315718
2223.44	0.198013
2224.87	0.572655
2226.3	0.1877
2227.73	-0.00146008
2229.16	-0.126172
2230.6	0.0601177
2232.03	0.147401
2233.46	-0.272578
2234.89	-0.33101
2236.32	0.216553
2237.75	0.667303
2239.18	-0.13638
2240.61	0.107019
2242.03	0.319975
2243.46	0.306169
2244.89	-0.131276
2246.32	0.180764
2247.75	0.0830259
2249.17	0.504279
2250.6	-0.10415
2252.03	0.262773
2253.46	0.384027
2254.88	-0.0631933
2256.31	0.173987
2257.73	0.511237
2259.16	0.186839
2260.59	0.0608988
2262.01	0.197688
2263.44	-0.0856199
2264.86	0.134895
2266.29	-0.116343
2267.71	0.298165
2269.14	0.0771399
2270.56	0.473552
2271.98	-0.17259
2273.4	0.385945
2274.83	0.456143
2276.25	-0.516172
2277.67	0.189946
2279.09	0.521567
2280.52	0.0705671
2281.94	0.38578
2283.36	-0.0331326
2284.78	0.380061
2286.2	0.108182
2287.62	-0.17971
2289.04	-0.0752277
2290.46	0.258599
2291.88	0.0209112
2293.3	-0.00422096
2294.72	0.0360432
2296.14	0.207184
2297.56	0.0672674
2298.98	-0.0235586
2300.4	-0.130608
2301.82	-0.155421
2303.23	0.115408
2304.65	0.550868
2306.07	0.034132
2307.49	0.0258045
2308.9	0.230471
2310.32	-0.239664
2311.73	-0.315833
2313.15	0.430612
2314.57	0.141108
2315.98	0.675663
2317.4	0.190297
2318.81	0.479763
2320.23	0.455856
2321.64	-0.0645418
2323.06	0.485111
2324.47	-0.22246
2325.88	0.766708
2327.3	0.252238
2328.71	0.693187
2330.12	-0.579103
2331.54	0.159518
2332.95	-0.187239
2334.36	-0.00619698
2335.77	0.207976
2337.18	0.322782
2338.6	0.534877
2340.01	-0.0434713
2341.42	0.198703
2342.83	-0.0688257
2344.24	-0.286839
2345.65	-0.209219
2347.06	-0.327891
2348.47	0.306591
2349.88	-0.107166
2351.29	0.345016
2352.7	0.190882
2354.1	0.296872
2355.51	0.157242
2356.92	0.0337467
2358.33	0.138178
2359.74	-0.0661497
2361.14	0.0222111
2362.55	0.580535
2363.96	0.360135
2365.36	-0.167241
2366.77	0.0178194
2368.18	-0.264938
2369.58	-0.497489
2370.99	0.400312
2372.39	0.203218
2373.8	0.216971
2375.2	0.45656
2376.61	0.212773
2378.01	-0.16081
2379.42	0.3318
2380.82	-0.318341
2382.22	0.00918579
2383.63	0.110599
2385.03	0.0514851
2386.43	0.296592
2387.84	0.398681
2389.24	-0.071846
2390.64	0.288481
2392.04	0.204041
2393.44	0.0573702
2394.84	0.325425
2396.25	0.260326
2397.65	0.641107
2399.05	0.227998
2400.45	0.308187
2401.85	-0.00833035
2403.25	0.358191
2404.65	0.20012
2406.05	-0.0859909
2407.45	0.118796
2408.84	0.147925
2410.24	0.319248
2411.64	0.157985
2413.04	-0.0495911
2414.44	0.0612431
2415.83	0.0314474
2417.23	0.0508537
2418.63	0.134772
2420.02	0.250865
2421.42	0.0817204
2422.82	-0.293888
2424.21	0.391631
2425.61	-0.332933
2427	0.543696
2428.4	-0.0683632
2429.8	0.145094
2431.19	0.121614
2432.58	0.225303
2433.98	-0.227445
2435.37	0.0806122
2436.77	0.291561
2438.16	0.262214
2439.55	-0.515409
2440.95	-0.420364
2442.34	0.46765
2443.73	0.259723
2445.12	0.17862
2446.51	-0.124579
2447.91	0.0318804
2449.3	-0.0177402
2450.69	-0.336197
2452.08	0.0743227
2453.47	0.169113
2454.86	0.12259
2456.25	0.140253
2457.64	-0.252942
2459.03	0.192
2460.42	0.0667801
2461.81	-0.328216
2463.2	0.398207
2464.59	0.0489845
2465.98	-0.142418
2467.36	-0.191708
2468.75	0.184981
2470.14	0.624142
2471.53	-0.246035
2472.92	-0.0921507
2474.3	-0.144088
2475.69	-0.275424
2477.08	-0.171266
2478.46	-0.0830507
2479.85	0.287682
2481.23	0.375816
2482.62	-0.115973
2484	0.23776
2485.39	0.167444
2486.77	0.173905
2488.16	0.522207
2489.54	0.292036
2490.93	0.264585
2492.31	0.129072
2493.69	0.476601
2495.08	0.220222
2496.46	0.725424
2497.84	-0.209432
2499.23	-0.152045
2500.61	-0.280775
2501.99	-0.425736
2503.37	-0.216531
2504.75	0.700671
2506.13	0.212972
2507.52	-0.135459
2508.9	0.39333
2510.28	0.322606
2511.66	0.145474
2513.04	-0.428854
2514.42	0.254781
2515.8	0.173266
2517.18	-0.0754118
2518.55	-0.185519
2519.93	0.331218
2521.31	0.190336
2522.69	0.445603
2524.07	0.257092
2525.45	0.0679293
2526.82	-0.0908213
2528.2	0.101153
2529.58	0.415914
2530.95	0.291666
2532.33	0.428028
2533.71	-0.102338
2535.08	0.188678
2536.46	0.130197
2537.84	0.405056
2539.21	0.283688
2540.59	-0.0360861
2541.96	0.417933
2543.34	0.0678692
2544.71	0.386527
2546.08	0.130341
2547.46	0.330808
2548.83	0.168333
2550.2	-0.0396423
2551.58	0.69263
2552.95	-0.382221
2554.32	0.559982
2555.7	-0.244051
2557.07	0.0436649
2558.44	0.0126257
2559.81	-0.245448
2561.18	0.33086
2562.55	0.301644
2563.93	0.106512
2565.3	0.472638
2566.67	0.505713
2568.04	0.387358
2569.41	0.0719776
2570.78	0.31736
2572.15	0.123254
2573.51	0.0050211
2574.88	0.629723
2576.25	0.314582
2577.62	0.257049
2578.99	0.168887
2580.36	0.368366
2581.73	0.112414
2583.09	-0.18947
2584.46	0.236072
2585.83	-0.0206652
2587.19	-0.0650053
2588.56	0.0576162
2589.93	0.45314
2591.29	-0.0910692
2592.66	-0.196366
2594.02	-0.0602694
2595.39	0.195595
2596.75	0.17746
2598.12	0.0675411
2599.48	0.138682
2600.85	0.406308
2602.21	0.22124
2603.58	0.293843
2604.94	0.21623
2606.3	-0.117509
2607.67	0.302512
2609.03	0.540205
2610.39	0.324151
2611.76	0.497949
2613.12	0.459393
2614.48	0.0443506
2615.84	0.635178
2617.2	0.310699
2618.56	0.496844
2619.92	-0.0195904
2621.28	0.0638313
2622.65	-0.151034
2624.01	0.306633
2625.37	0.763621
2626.72	0.280192
2628.08	0.214241
2629.44	0.296885
2630.8	0.393995
2632.16	0.0596972
2633.52	0.320032
2634.88	0.0752783
2636.24	0.112649
2637.59	0.387026
2638.95	0.0391769
2640.31	0.239466
2641.67	0.410226
2643.02	0.152696
2644.38	0.235288
2645.74	0.243899
2647.09	0.487832
2648.45	0.0823689
2649.8	0.0738783
2651.16	0.314433
2652.51	0.186942
2653.87	0.104014
2655.22	0.124813
2656.58	-0.0726891
2657.93	0.156019
2659.29	-0.0239782
2660.64	0.133025
2661.99	0.216616
2663.35	0.0802507
2664.7	0.249522
2666.05	-0.0929174
2667.41	0.322381
2668.76	-0.22417
2670.11	0.00164318
2671.46	0.358649
2672.81	-0.0540857
2674.16	0.187957
2675.51	0.314382
2676.87	0.180289
2678.22	0.105173
2679.57	0.118181
2680.92	-0.360395
2682.27	0.191944
2683.62	0.499427
2684.97	0.257138
2686.31	0.320024
2687.66	0.252104
2689.01	0.298753
2690.36	-0.0923138
2691.71	0.0369034
2693.06	-0.0970545
2694.4	-0.174116
2695.75	0.2704
2697.1	0.0344553
2698.45	0.567843
2699.79	0.321374
2701.14	-0.0965691
2702.49	0.530145
2703.83	0.202302
2705.18	-0.125145
2706.52	0.025816
2707.87	-0.3168
2709.21	0.443082
2710.56	0.346238
2711.9	0.379711
2713.25	0.572869
2714.59	-0.0043354
2715.94	0.348598
2717.28	0.599746
2718.62	0.574273
2719.97	0.21363
2721.31	-0.147735
2722.65	0.43626
2723.99	0.248273
2725.34	0.336267
2726.68	-0.012887
2728.02	0.714581
2729.36	0.219199
2730.7	0.524018
2732.04	0.13039
2733.39	0.260657
2734.73	0.551131
2736.07	0.565484
2737.41	0.216422
2738.75	-0.0599146
2740.08	0.288778
2741.43	0.302356
2742.76	0.533145
2744.1	0.167042
2745.44	0.468636
2746.78	0.261176
2748.12	-0.0044136
2749.46	0.383189
2750.79	0.35014
2752.13	0.230473
2753.47	0.386559
2754.81	0.195058
2756.14	0.221114
2757.48	-0.520048
2758.81	0.27395
2760.15	0.19972
2761.49	0.270862
2762.82	0.270269
2764.16	-0.453361
2765.49	-0.0194626
2766.83	0.109983
2768.16	0.0646353
2769.5	0.234545
2770.83	0.243431
2772.16	0.42382
2773.5	-0.234328
2774.83	-0.041481
2776.17	-0.309945
2777.5	0.329176
2778.83	0.0620413
2780.16	0.270186
2781.5	0.0620155
2782.83	0.256074
2784.16	0.249022
2785.49	-0.231001
2786.82	0.0489483
2788.15	0.0572338
2789.49	-0.520086
2790.82	-0.0374413
2792.15	-0.168932
2793.48	-0.128227
2794.81	-0.116069
2796.14	0.181427
2797.46	-0.0218849
2798.79	0.045517
2800.12	0.155122
2801.45	0.0645752
2802.78	0.00238514
2804.11	0.438691
2805.44	0.0621223
2806.76	0.396886
2808.09	-0.108793
2809.42	-0.131046
2810.75	-0.0112152
2812.07	-0.0894518
2813.4	0.65648
2814.73	0.184421
2816.05	-0.327991
2817.38	-0.0451345
2818.7	-0.0308428
2820.03	0.181897
2821.36	0.167284
2822.68	0.307693
2824.01	0.348063
2825.33	0.274649
2826.65	0.58368
2827.98	0.100412
2829.3	0.651462
2830.63	0.42448
2831.95	1.14622
2833.27	1.13179
2834.6	0.43753
2835.92	0.478685
2837.24	0.816269
2838.56	1.29458
2839.88	1.37639
2841.21	1.45832
2842.53	1.8659
2843.85	2.06227
2845.17	2.03352
2846.49	2.27419
2847.81	1.7098
2849.13	2.16303
2850.45	2.19186
2851.77	2.12108
2853.09	2.30401
2854.41	2.67006
2855.73	2.2163
2857.05	2.83628
2858.37	3.41378
2859.69	3.04491
2861	3.17011
2862.32	3.13952
2863.64	3.43306
2864.96	3.52853
2866.28	3.69446
2867.59	4.02992
2868.91	4.05568
2870.23	4.15254
2871.54	4.53152
2872.86	4.36034
2874.17	4.23045
2875.49	4.76111
2876.81	4.61397
2878.12	4.14216
2879.44	4.68302
2880.75	4.81616
2882.07	4.19168
2883.38	4.80513
2884.69	4.53505
2886.01	4.61691
2887.32	4.24972
2888.63	4.85028
2889.95	4.52358
2891.26	4.56049
2892.57	4.69461
2893.89	4.95447
2895.2	4.93458
2896.51	4.74793
2897.82	4.63286
2899.13	4.71517
2900.44	4.77061
2901.76	5.05051
2903.07	5.41462
2904.38	5.59707
2905.69	5.0526
2907	5.58596
2908.31	5.39312
2909.62	5.80306
2910.93	5.73817
2912.24	5.75723
2913.55	5.29924
2914.85	5.69331
2916.16	6.74294
2917.47	6.27843
2918.78	6.28848
2920.09	6.87174
2921.4	6.58873
2922.7	6.75495
2924.01	7.00698
2925.32	6.58968
2926.62	7.19369
2927.93	7.42039
2929.24	6.69592
2930.54	6.97726
2931.85	7.10414
2933.15	7.03498
2934.46	6.54651
2935.76	6.57538
2937.07	7.09361
2938.37	6.60593
2939.68	6.49597
2940.98	6.2889
2942.29	6.53019
2943.59	5.10996
2944.89	5.69008
2946.2	5.58684
2947.5	4.85473
2948.8	4.56965
2950.11	4.43697
2951.41	5.28224
2952.71	4.87889
2954.01	4.40379
2955.32	4.92224
2956.62	4.44797
2957.92	4.64821
2959.22	4.67006
2960.52	3.75698
2961.82	4.55562
2963.12	4.34635
2964.42	3.81314
2965.72	4.23273
2967.02	3.73709
2968.32	4.0267
2969.62	3.35928
2970.92	3.32434
2972.22	3.62743
2973.51	3.93114
2974.81	2.79921
2976.11	3.18657
2977.41	3.10777
2978.71	2.51993
2980	2.67619
2981.3	2.52114
2982.6	2.30928
2983.9	2.73067
2985.19	1.74774
2986.49	1.98967
2987.78	2.14908
2989.08	2.02874
2990.38	2.04928
2991.67	1.70381
2992.97	1.38518
2994.26	1.54281
2995.56	1.8113
2996.85	1.53111
2998.14	1.23687
2999.44	1.2939
3000.73	1.3095
3002.03	1.1016
3003.32	0.978459
3004.61	0.757489
3005.91	0.620369
3007.2	0.510607
3008.49	1.05751
3009.78	0.623891
3011.07	0.888535
3012.37	0.677565
3013.66	0.132128
3014.95	0.243235
3016.24	0.438657
3017.53	0.593038
3018.82	0.427897
3020.11	-0.112428
3021.4	0.236865
3022.69	0.18189
3023.98	0.306196
3025.27	0.26297
3026.56	-0.334424
3027.85	-0.182878
3029.14	-0.126988
3030.43	0.538624
3031.71	0.432082
3033	-0.294202
3034.29	0.263882
3035.58	-0.337864
3036.87	-0.223636
3038.15	-0.0565996
3039.44	0.176632
3040.73	0.159966
3042.01	0.142215
3043.3	-0.0262957
3044.59	0.080514
3045.87	-0.207331
3047.16	0.600959
3048.44	0.141513
3049.73	0.0400696
3051.01	-0.182106
3052.3	-0.062068
3053.58	0.262684
3054.87	0.23189
3056.15	0.131624
3057.43	0.316372
3058.72	0.295595
3060	0.138375
3061.29	0.417289
3062.57	0.316365
3063.85	0.298894
3065.13	0.106699
3066.42	0.310584
3067.7	0.461438
3068.98	-0.135076
3070.26	0.288011
3071.54	-0.105939
3072.82	0.437026
3074.11	0.244085
3075.39	-0.208009
3076.67	0.0597343
3077.95	0.137731
3079.23	0.325606
3080.51	-0.000144005
3081.79	0.150957
3083.07	-0.333941
3084.35	-0.275342
3085.63	0.014123
3086.9	-0.049737
3088.18	0.428495
3089.46	0.213658
3090.74	-0.558001
3092.02	0.447739
3093.29	-0.106523
3094.57	0.126398
3095.85	0.00710773
3097.13	-0.044198
3098.4	0.229771
3099.68	-0.160448
3100.95	0.140335
3102.23	-0.141232
3103.51	-0.435785
3104.78	-0.0662861
3106.06	0.249906
3107.33	0.188332
3108.61	0.547659
3109.88	0.36707
3111.16	0.0658407
3112.43	0.415588
3113.71	0.332578
3114.98	0.249528
3116.25	0.30149
3117.53	0.325319
3118.8	0.361376
3120.07	0.260491
3121.35	0.497479
3122.62	0.367702
3123.89	0.725493
3125.16	0.771844
3126.44	0.521029
3127.71	0.217093
3128.98	0.590318
3130.25	0.517649
3131.52	0.48575
3132.79	0.56188
3134.06	0.434949
3135.33	0.429049
3136.6	0.206636
3137.87	0.509765
3139.14	0.838978
3140.41	0.723347
3141.68	0.863545
3142.95	0.869609
3144.22	0.836083
3145.49	0.521738
3146.76	0.73161
3148.02	0.888537
3149.29	0.430182
