200.398	0.116207
202.213	0.172291
204.027	0.230213
205.843	-0.196749
207.657	-0.0882626
209.47	-0.248302
211.283	0.366844
213.097	0.541794
214.909	-0.0862846
216.721	-0.0846233
218.533	0.231695
220.344	0.766226
222.157	0.527546
223.967	0.242126
225.777	0.0302734
227.587	0.615688
229.396	0.137239
231.205	0.768192
233.016	0.0950661
234.824	1.44832
236.632	0.898298
238.439	1.31617
240.247	0.967144
242.053	1.68289
243.86	2.25685
245.666	1.96224
247.474	2.19546
249.279	3.19599
251.085	3.9002
252.889	3.82569
254.694	3.72311
256.498	3.73998
258.301	5.92718
260.105	2.31009
261.908	3.3232
263.71	4.29133
265.513	2.68365
267.315	3.22081
269.116	2.21464
270.918	2.05013
272.718	1.97959
274.519	1.88201
276.319	3.20333
278.119	2.37536
279.918	2.53144
281.718	2.46644
283.516	1.62807
285.315	1.70121
287.113	0.644384
288.911	0.308729
290.708	1.72349
292.505	1.67796
294.302	0.582733
296.098	0.638823
297.894	1.10292
299.69	0.516211
301.485	1.26692
303.278	0.439545
305.073	1.63901
306.867	1.04638
308.661	0.787457
310.454	0.481873
312.247	0.654766
314.04	0.949327
315.833	1.27078
317.623	0.571308
319.415	0.707893
321.206	1.27551
322.997	0.461838
324.788	0.482969
326.579	0.504126
328.367	0.668005
330.156	0.950298
331.946	0.608746
333.735	1.05324
335.523	0.512806
337.31	0.0398178
339.098	0.256929
340.885	0.0883121
342.673	0.874325
344.458	0.464592
346.244	0.175278
348.03	0.340843
349.816	0.0773315
351.6	-0.448748
353.385	-0.140478
355.17	-0.454544
356.953	0.302183
358.737	0.269262
360.521	0.615198
362.304	1.43473
364.085	0.372965
365.868	0.0479965
367.65	-0.0880432
369.431	-0.46261
371.212	0.985832
372.994	0.0399799
374.773	0.017107
376.554	0.725965
378.332	0.91522
380.112	0.186781
381.892	1.03855
383.669	1.27961
385.448	0.88788
387.225	0.992046
389.003	0.604721
390.781	2.05115
392.557	1.43196
394.334	1.98809
396.109	2.12208
397.885	2.39711
399.66	2.95356
401.436	2.75749
403.211	2.67751
404.984	3.11263
406.759	3.21729
408.532	3.5788
410.306	3.23519
412.078	3.10285
413.851	3.32326
415.623	3.5684
417.395	4.07322
419.166	3.4295
420.938	3.60757
422.708	3.55038
424.477	3.58561
426.248	2.23378
428.017	2.71133
429.788	1.38032
431.556	1.41065
433.326	1.04245
435.093	1.30845
436.86	1.33963
438.629	0.735823
440.395	0.0356483
442.163	0.458227
443.929	0.85305
445.694	0.705084
447.461	0.531603
449.226	0.661423
450.99	0.697573
452.756	0.7341
454.52	0.490992
456.285	1.06387
458.048	0.610788
459.811	-0.0510464
461.573	0.0332317
463.337	0.00367737
465.099	1.16313
466.86	0.886776
468.623	0.963829
470.384	0.556015
472.144	-0.0140209
473.906	0.834246
475.666	0.562098
477.425	0.728458
479.184	0.332306
480.944	1.26192
482.703	0.654335
484.461	0.794031
486.218	0.145046
487.975	0.687946
489.734	0.908607
491.491	0.431164
493.247	0.771791
495.003	0.902914
496.759	0.0275326
498.516	0.110607
500.271	0.849588
502.025	0.509005
503.779	0.964848
505.533	0.526096
507.287	0.719267
509.042	1.0039
510.795	1.12101
512.547	2.27056
514.299	0.499466
516.051	1.2435
517.803	1.70263
519.554	1.17212
521.305	1.88591
523.055	1.44727
524.805	0.96166
526.555	1.03947
528.307	1.53922
530.056	0.67901
531.805	1.62243
533.553	1.5333
535.301	0.342693
537.049	1.48846
538.797	1.74221
540.544	1.75987
542.291	1.93891
544.037	1.11629
545.783	1.15528
547.529	1.86751
549.275	1.58164
551.02	1.18102
552.765	0.850962
554.509	0.660559
556.253	0.86339
557.997	0.651382
559.738	0.901447
561.482	0.369343
563.224	0.874197
564.967	0.551859
566.709	0.0702839
568.451	0.853354
570.192	0.742571
571.933	1.20789
573.674	0.620888
575.415	0.817118
577.153	0.236324
578.893	-0.181774
580.632	0.457617
582.371	-0.119993
584.11	0.128551
585.849	-0.199446
587.587	0.597345
589.323	0.609974
591.06	0.298731
592.797	0.101507
594.534	-0.280083
596.271	0.0745983
598.005	1.14244
599.741	1.31233
601.476	1.34263
603.211	1.76149
604.944	1.67149
606.679	1.0275
608.413	0.818928
610.147	0.954527
611.878	0.999077
613.611	0.288399
615.344	0.0837688
617.077	0.796076
618.807	0.636698
620.539	0.269463
622.27	0.106255
623.999	0.124559
625.73	-0.337015
627.461	0.139809
629.189	0.1404
630.919	0.21365
632.648	0.359095
634.376	0.0273399
636.105	-0.145205
637.833	0.272789
639.559	0.503298
641.287	0.933409
643.013	0.674597
644.74	0.686962
646.467	1.1547
648.192	0.579491
649.918	0.851334
651.642	0.539474
653.368	0.598392
655.091	1.18683
656.816	1.3026
658.538	0.39488
660.263	0.351679
661.987	1.21913
663.708	0.872425
665.432	0.3379
667.153	0.691343
668.875	0.677467
670.596	0.367334
672.318	-0.00812912
674.037	-0.104799
675.759	-0.0831223
677.478	0.0327129
679.196	0.539625
680.917	0.126289
682.635	-0.659002
684.355	0.0242348
686.072	0.4512
687.791	-0.483419
689.508	-0.0151196
691.224	0.567104
692.942	0.802649
694.658	0.599201
696.376	0.255831
698.091	0.62414
699.805	0.253531
701.522	-0.141861
703.236	0.886518
704.95	0.189617
706.665	0.54845
708.379	-0.538742
710.093	0.0936089
711.806	-0.237259
713.518	-0.293633
715.23	0.038229
716.943	1.30546
718.655	0.26664
720.366	-0.54212
722.078	-0.210621
723.788	0.347988
725.498	-0.0266266
727.208	0.552876
728.919	0.0866776
730.628	-0.130033
732.337	-0.664076
734.045	0.11487
735.755	0.0333748
737.463	-0.498915
739.17	0.640409
740.877	-0.181614
742.584	0.0584393
744.292	0.458157
745.998	0.882576
747.704	0.499388
749.409	0.726135
751.114	0.887737
752.819	0.19702
754.526	0.138506
756.23	-0.187439
757.934	-0.038105
759.637	0.429398
761.34	0.741791
763.043	1.14596
764.746	0.760071
766.448	0.371721
768.152	0.0928001
769.853	0.216946
771.554	1.35518
773.255	1.11144
774.956	0.527651
776.656	1.36928
778.356	0.313923
780.056	1.61308
781.755	1.89705
783.454	1.43479
785.153	0.585535
786.851	1.63355
788.549	0.887676
790.247	0.634129
791.944	0.624668
793.641	1.08646
795.338	0.915138
797.034	1.17393
798.73	0.556942
800.426	1.51959
802.121	1.51653
803.817	0.435333
805.511	0.613716
807.206	0.588331
808.9	-0.000480652
810.592	0.666185
812.286	0.00716782
813.979	0.423683
815.672	1.04054
817.364	0.13526
819.057	0.818428
820.748	1.61243
822.44	1.134
824.129	1.30438
825.82	1.45478
827.511	0.562052
829.201	1.679
830.891	0.952972
832.581	0.989332
834.269	1.47548
835.958	0.826674
837.646	1.44898
839.335	0.529245
841.023	0.655796
842.709	0.578976
844.396	0.836384
846.084	0.580975
847.77	1.24528
849.455	0.438103
851.141	0.731468
852.827	0.715153
854.513	0.566011
856.196	0.865604
857.881	1.09646
859.566	0.874697
861.248	0.334106
862.932	0.510889
864.616	0.122118
866.297	0.204865
867.98	0.241425
869.663	0.0291252
871.343	-0.206335
873.026	0.0541306
874.707	0.49507
876.387	0.43972
878.068	0.294134
879.747	0.577265
881.428	0.65667
883.108	-0.10047
884.786	0.314411
886.465	0.139881
888.143	0.549301
889.822	0.481905
891.498	-0.1966
893.177	0.654827
894.855	0.490171
896.53	0.346373
898.208	0.448021
899.883	1.04128
901.56	0.78021
903.234	0.943941
904.91	-0.345854
906.584	0.15373
908.26	1.14367
909.933	0.306921
911.608	0.407965
913.28	0.221245
914.955	0.479635
916.627	0.338415
918.298	0.950899
919.972	0.366743
921.643	0.935061
923.315	-0.131235
924.986	0.640457
926.656	-0.39579
928.328	1.066
929.997	0.896473
931.668	0.949003
933.337	0.759451
935.006	0.680607
936.676	1.15396
938.344	1.16577
940.012	1.00349
941.681	0.622915
943.348	0.883558
945.014	0.283392
946.683	0.563972
948.349	0.245255
950.015	0.629318
951.682	0.150393
953.347	0.223196
955.012	-0.120209
956.676	0.555792
958.343	0.135195
960.006	-0.390882
961.67	-0.207888
963.333	0.262684
964.998	0.266436
966.661	0.663538
968.323	-0.139301
969.985	0.735374
971.649	0.502064
973.31	-0.238998
974.971	0.791821
976.632	0.919441
978.293	0.828867
979.953	0.739639
981.615	0.649729
983.274	0.424484
984.933	0.903994
986.592	1.00314
988.251	0.85536
989.909	0.926386
991.567	1.08444
993.225	0.733955
994.884	0.935905
996.541	2.43956
998.198	3.76507
999.855	3.43585
1001.51	4.0972
1003.17	2.68807
1004.82	2.07191
1006.48	2.44528
1008.13	2.20349
1009.79	0.953262
1011.44	1.5258
1013.1	1.6383
1014.75	0.502993
1016.4	1.44947
1018.06	1.01752
1019.71	0.50009
1021.36	0.990803
1023.01	0.259399
1024.66	0.907013
1026.32	0.484924
1027.97	1.59252
1029.62	0.907249
1031.27	1.85794
1032.92	1.90967
1034.57	1.4125
1036.22	1.8289
1037.87	0.783325
1039.52	1.50238
1041.16	1.1558
1042.81	2.42086
1044.46	2.99292
1046.11	3.61221
1047.76	3.77938
1049.4	4.4715
1051.05	5.14495
1052.7	5.23404
1054.34	4.52011
1055.99	3.80589
1057.63	3.69947
1059.28	2.72227
1060.92	1.43905
1062.57	2.63304
1064.21	1.32457
1065.85	0.949123
1067.5	0.397825
1069.14	1.06162
1070.78	0.312017
1072.43	1.01715
1074.07	0.550913
1075.71	0.78113
1077.35	0.254835
1078.99	0.20821
1080.63	1.0522
1082.27	0.530146
1083.91	1.45922
1085.55	0.260447
1087.19	0.358627
1088.83	0.712549
1090.47	0.413374
1092.11	1.34451
1093.75	0.264423
1095.39	0.696974
1097.03	1.19501
1098.66	0.0363827
1100.3	-0.213181
1101.94	-0.781601
1103.57	0.955551
1105.21	0.844881
1106.84	0.391354
1108.48	-0.492678
1110.11	-0.0668335
1111.75	1.15102
1113.38	0.194908
1115.02	0.50404
1116.65	-0.303995
1118.29	0.0897751
1119.92	0.698566
1121.55	0.880388
1123.19	0.807339
1124.82	0.586609
1126.45	0.153875
1128.08	0.813515
1129.71	1.21778
1131.34	-0.258204
1132.97	0.105156
1134.6	-0.643278
1136.23	-0.302654
1137.86	-0.263252
1139.49	0.436014
1141.12	0.0652142
1142.75	0.397936
1144.38	0.538601
1146.01	-0.72657
1147.64	0.376616
1149.26	-0.0744267
1150.89	0.625965
1152.52	0.878906
1154.15	0.215614
1155.77	0.38196
1157.4	0.633043
1159.02	0.0338821
1160.65	-0.520798
1162.27	0.627808
1163.9	0.204924
1165.52	-0.344456
1167.15	-0.213871
1168.77	0.552526
1170.39	-0.0449142
1172.02	0.310343
1173.64	0.279552
1175.26	-0.390158
1176.89	-0.339128
1178.51	0.262926
1180.13	-0.425783
1181.75	0.220854
1183.37	0.318377
1184.99	1.07097
1186.61	-0.206314
1188.23	-0.0289726
1189.85	0.165331
1191.47	0.376516
1193.09	-0.19381
1194.71	0.432566
1196.33	0.281425
1197.94	0.781565
1199.56	0.112732
1201.18	0.703541
1202.8	1.13169
1204.41	2.23254
1206.03	1.27164
1207.65	1.16928
1209.26	1.04675
1210.88	1.13129
1212.49	1.69193
1214.11	1.7057
1215.72	1.6523
1217.34	1.59519
1218.95	1.01647
1220.57	2.18243
1222.18	1.39797
1223.79	1.5085
1225.41	2.45019
1227.02	2.13162
1228.63	3.34695
1230.24	2.41379
1231.85	2.06256
1233.47	2.06536
1235.08	2.48414
1236.69	3.44293
1238.3	2.72974
1239.91	2.22454
1241.52	2.58823
1243.13	3.07559
1244.74	2.75452
1246.34	2.90717
1247.95	3.11972
1249.56	2.4409
1251.17	2.38217
1252.78	3.15128
1254.38	3.09443
1255.99	2.08842
1257.6	2.65703
1259.2	2.87656
1260.81	3.34657
1262.42	3.50739
1264.02	3.70988
1265.63	3.12419
1267.23	2.4744
1268.84	2.3614
1270.44	2.12182
1272.04	2.21179
1273.65	2.77645
1275.25	2.40609
1276.85	2.75923
1278.46	3.00682
1280.06	3.39783
1281.66	2.75297
1283.26	2.85364
1284.86	2.50039
1286.46	3.78241
1288.07	2.50315
1289.67	2.69355
1291.27	2.36843
1292.87	3.65485
1294.47	2.89424
1296.06	2.87478
1297.66	3.80155
1299.26	3.83657
1300.86	3.47651
1302.46	3.87645
1304.06	3.71788
1305.65	3.16742
1307.25	3.56168
1308.85	4.3853
1310.44	3.38317
1312.04	3.91938
1313.64	3.65851
1315.23	4.87151
1316.83	3.45078
1318.42	3.23726
1320.02	4.14516
1321.61	4.76448
1323.2	3.93442
1324.8	4.68775
1326.39	3.38569
1327.99	3.62651
1329.58	4.69798
1331.17	4.53663
1332.76	4.38061
1334.36	4.57314
1335.95	3.35663
1337.54	4.96636
1339.13	3.95254
1340.72	3.72202
1342.31	3.95009
1343.9	3.6708
1345.49	3.87147
1347.08	3.02904
1348.67	3.67431
1350.26	2.80264
1351.85	3.31775
1353.43	2.99713
1355.02	2.75954
1356.61	3.50207
1358.2	3.04474
1359.78	3.56419
1361.37	2.52403
1362.96	2.95931
1364.54	3.37335
1366.13	3.0701
1367.71	3.96371
1369.3	3.06762
1370.88	1.69752
1372.47	2.42009
1374.05	2.74697
1375.64	2.31918
1377.22	2.2697
1378.8	3.25396
1380.39	2.32586
1381.97	3.88194
1383.55	2.15308
1385.13	1.89437
1386.72	2.56868
1388.3	2.36887
1389.88	2.80577
1391.46	2.94662
1393.04	2.57331
1394.62	2.32005
1396.2	2.38382
1397.78	2.70381
1399.36	1.69386
1400.94	2.42573
1402.52	2.44295
1404.1	2.04459
1405.68	2.26066
1407.25	3.22938
1408.83	2.65806
1410.41	2.42403
1411.98	2.4468
1413.56	2.36967
1415.14	3.13914
1416.71	3.13691
1418.29	2.93669
1419.87	2.77671
1421.44	2.52063
1423.02	3.17349
1424.59	1.95983
1426.16	2.83525
1427.74	3.23951
1429.31	4.17471
1430.89	4.34031
1432.46	4.38521
1434.03	4.38853
1435.6	4.76445
1437.18	4.66868
1438.75	5.24291
1440.32	6.01575
1441.89	5.17923
1443.46	5.11083
1445.03	6.69429
1446.6	5.76248
1448.17	5.67612
1449.74	6.31779
1451.31	5.54503
1452.88	6.46455
1454.45	4.94618
1456.02	5.92586
1457.59	4.99562
1459.16	5.26287
1460.72	4.60128
1462.29	4.64401
1463.86	5.50893
1465.43	3.89391
1466.99	4.26382
1468.56	3.78981
1470.13	3.20043
1471.69	3.20242
1473.26	3.71662
1474.82	2.78124
1476.38	2.65091
1477.95	2.06995
1479.51	3.31203
1481.08	1.90761
1482.64	2.30629
1484.2	1.84248
1485.77	2.08337
1487.33	2.36178
1488.89	2.50029
1490.46	1.5978
1492.02	1.63061
1493.58	1.89332
1495.14	2.54196
1496.7	1.68629
1498.26	1.61065
1499.82	1.4391
1501.38	1.58067
1502.94	1.12316
1504.5	1.9471
1506.06	1.53123
1507.62	1.75311
1509.18	1.16107
1510.73	1.66794
1512.29	1.18888
1513.85	2.13452
1515.41	1.27113
1516.96	1.79339
1518.52	1.12702
1520.08	1.21047
1521.63	1.71514
1523.19	1.07125
1524.75	1.70643
1526.3	1.36557
1527.85	1.76635
1529.41	0.833788
1530.96	1.06204
1532.52	0.532133
1534.07	1.23626
1535.62	2.01638
1537.18	2.64553
1538.73	2.14235
1540.28	1.58441
1541.84	1.36687
1543.39	1.50716
1544.94	2.54923
1546.49	2.49937
1548.04	2.07398
1549.59	1.31198
1551.14	1.75028
1552.69	2.50674
1554.25	1.61895
1555.79	2.4536
1557.34	2.50681
1558.89	2.41475
1560.44	1.58049
1561.99	2.6524
1563.54	2.21557
1565.08	2.45159
1566.63	2.09074
1568.18	2.58787
1569.73	2.31902
1571.27	2.404
1572.82	3.02973
1574.37	3.3565
1575.91	2.84325
1577.46	2.1437
1579	2.4157
1580.55	2.63298
1582.09	2.77722
1583.64	2.99799
1585.18	2.82799
1586.73	2.62149
1588.27	2.92015
1589.81	2.61985
1591.35	3.0859
1592.9	3.55127
1594.44	3.71659
1595.98	3.58229
1597.52	3.57994
1599.06	3.89771
1600.61	3.57949
1602.15	4.08775
1603.69	3.71396
1605.23	3.16933
1606.77	3.78665
1608.31	3.15962
1609.85	3.29836
1611.39	3.39462
1612.93	3.31759
1614.46	3.23786
1616	3.30729
1617.54	2.90891
1619.08	2.73812
1620.61	2.57052
1622.15	2.33091
1623.69	2.39262
1625.23	2.73522
1626.76	2.98263
1628.3	2.75955
1629.83	2.1037
1631.37	3.61438
1632.9	2.45141
1634.44	3.81043
1635.97	2.57621
1637.51	3.26594
1639.04	3.13616
1640.57	3.34205
1642.11	3.5093
1643.64	3.89757
1645.17	3.87342
1646.71	3.73576
1648.24	3.11445
1649.77	3.94309
1651.3	4.27162
1652.83	3.99038
1654.36	4.78716
1655.89	4.9361
1657.42	4.17696
1658.96	4.39839
1660.48	4.19107
1662.01	3.70337
1663.54	3.58362
1665.07	4.09079
1666.6	3.98878
1668.13	3.77851
1669.66	3.47945
1671.19	3.75497
1672.71	3.09324
1674.24	3.24314
1675.77	3.28208
1677.29	2.87768
1678.82	2.39782
1680.35	3.03784
1681.87	2.48118
1683.4	2.54882
1684.92	2.85503
1686.45	2.31794
1687.97	2.44221
1689.5	2.47555
1691.02	1.88683
1692.54	1.48186
1694.07	1.80883
1695.59	1.69637
1697.11	0.578547
1698.64	1.10487
1700.16	1.24647
1701.68	0.566168
1703.2	1.0521
1704.72	0.826008
1706.25	1.43637
1707.77	0.736176
1709.29	0.908871
1710.81	0.972504
1712.33	0.76437
1713.85	0.864885
1715.37	0.404169
1716.89	0.884672
1718.41	0.442375
1719.92	0.452126
1721.44	0.823013
1722.96	0.725592
1724.48	0.395983
1725.99	0.087204
1727.51	0.987202
1729.03	0.268953
1730.55	0.360167
1732.06	0.376957
1733.58	-0.0645237
1735.09	0.615868
1736.61	0.528082
1738.13	0.674969
1739.64	0.169823
1741.15	-0.126701
1742.67	0.284111
1744.18	0.264839
1745.7	-0.447453
1747.21	0.349997
1748.72	0.179787
1750.24	0.280075
1751.75	0.103739
1753.26	-0.255743
1754.77	0.0812836
1756.29	0.327417
1757.8	-0.0176067
1759.31	-0.00446892
1760.82	0.134714
1762.33	-0.0105495
1763.84	-0.619476
1765.35	-0.0198021
1766.86	0.582666
1768.37	0.690374
1769.88	0.23061
1771.39	0.167742
1772.9	0.366283
1774.4	0.493397
1775.91	-0.186401
1777.42	0.214722
1778.93	0.0552139
1780.44	-0.217424
1781.94	-0.229115
1783.45	-0.164209
1784.96	0.120102
1786.46	0.457869
1787.97	-0.657761
1789.47	0.290365
1790.98	-0.086134
1792.48	0.181784
1793.99	0.0591679
1795.49	-0.0562115
1797	0.218645
1798.5	-0.0678539
1800.01	-0.356823
1801.51	0.107447
1803.01	0.0494022
1804.51	0.294525
1806.02	0.0717812
1807.52	0.0170174
1809.02	-0.262684
1810.52	-0.286791
1812.02	-0.472712
1813.52	0.242302
1815.02	0.0953693
1816.53	0.0352974
1818.03	-0.0582047
1819.52	0.0446949
1821.02	0.411894
1822.52	-0.0842152
1824.02	0.213634
1825.52	0.0157833
1827.02	0.137609
1828.52	0.350908
1830.02	0.147846
1831.51	0.0439701
1833.01	0.267628
1834.51	0.242172
1836.01	0.194466
1837.5	-0.107115
1839	-0.205462
1840.49	0.281778
1841.99	0.0806694
1843.49	-0.0584259
1844.98	0.0312519
1846.48	0.158991
1847.97	0.683598
1849.47	-0.527103
1850.96	-0.00773239
1852.45	-0.151089
1853.95	0.13372
1855.44	0.173536
1856.93	0.154547
1858.42	0.00896263
1859.92	0.334185
1861.41	0.316689
1862.9	0.0443153
1864.39	-0.233311
1865.88	0.246096
1867.38	-0.155718
1868.87	0.024601
1870.36	0.152905
1871.85	0.0469933
1873.34	-0.0324688
1874.83	-0.297674
1876.32	0.102638
1877.81	0.607092
1879.29	0.237982
1880.78	0.10881
1882.27	-0.0377617
1882.53	-0.0682812
1884.03	0.803137
1885.52	0.417747
1887.01	-0.386972
1888.51	0.68824
1890	-0.0293465
1891.5	-0.448759
1892.99	-0.169516
1894.48	0.217329
1895.97	0.433247
1897.47	-0.149183
1898.96	-0.0536556
1900.45	-0.203541
1901.94	0.287226
1903.43	-0.268972
1904.92	-0.479752
1906.41	0.229074
1907.9	-0.087429
1909.39	0.239727
1910.88	-0.177711
1912.37	0.0485954
1913.86	0.449299
1915.35	-0.0516758
1916.84	0.331106
1918.33	-0.153912
1919.81	0.22686
1921.3	0.191519
1922.79	0.00113297
1924.28	0.314539
1925.76	0.127989
1927.25	0.0819359
1928.73	0.764294
1930.22	0.286533
1931.71	-0.158178
1933.19	0.797009
1934.68	0.865559
1936.16	0.0311489
1937.65	0.0599766
1939.13	-0.102144
1940.62	0.427179
1942.1	0.353489
1943.58	0.402611
1945.07	-0.0122471
1946.55	-0.236517
1948.03	0.417839
1949.51	-0.204443
1951	0.48056
1952.48	-0.110277
1953.96	0.794582
1955.44	0.117197
1956.92	0.248533
1958.4	0.398172
1959.88	-0.0170403
1961.36	0.375046
1962.84	0.150148
1964.32	0.216354
1965.8	-0.197924
1967.28	0.15715
1968.76	0.322437
1970.24	0.691507
1971.72	0.000581741
1973.2	-0.0579319
1974.67	0.497826
1976.15	-0.259237
1977.63	0.33062
1979.1	0.222025
1980.58	-0.311728
1982.06	0.0898323
1983.54	0.286448
1985.01	0.634918
1986.49	-0.153944
1987.96	0.0582542
1989.44	-0.000213623
1990.91	0.433405
1992.39	0.394703
1993.86	-0.216837
1995.33	0.390366
1996.81	0.0350323
1998.28	0.135851
1999.75	0.303333
2001.23	-0.104195
2002.7	0.685272
2004.17	0.782524
2005.65	0.475935
2007.12	0.238405
2008.59	0.188025
2010.06	0.560163
2011.53	-0.0431309
2013	0.0439014
2014.47	0.4667
2015.94	0.0298443
2017.41	0.146587
2018.88	0.110418
2020.35	0.190901
2021.82	0.388592
2023.29	0.31815
2024.76	-0.0695381
2026.23	0.501312
2027.69	0.53796
2029.16	0.359385
2030.63	-0.336809
2032.1	0.445158
2033.56	0.254869
2035.03	0.249159
2036.5	-0.227642
2037.96	-0.335995
2039.43	-0.377869
2040.89	0.252546
2042.36	0.497234
2043.83	0.25569
2045.29	-0.186279
2046.75	0.163971
2048.22	0.245644
2049.68	0.00658989
2051.15	-0.25139
2052.61	0.583902
2054.07	0.269171
2055.54	0.440268
2057	0.305304
2058.46	0.253218
2059.92	0.167206
2061.39	0.351423
2062.85	0.048893
2064.31	0.741299
2065.77	-0.499859
2067.23	-0.292173
2068.69	0.135391
2070.15	0.193312
2071.61	0.6049
2073.07	0.477533
2074.53	0.383337
2075.99	-0.0988102
2077.45	0.34458
2078.91	0.669352
2080.37	0.841702
2081.82	0.289009
2083.28	0.711588
2084.74	0.728706
2086.2	0.307083
2087.65	-0.182573
2089.11	0.638342
2090.57	0.248671
2092.02	0.581163
2093.48	0.275534
2094.94	0.623804
2096.39	0.317131
2097.85	0.445108
2099.3	0.186842
2100.76	0.296305
2102.21	-0.0117283
2103.66	0.149715
2105.12	0.0629463
2106.57	0.178942
2108.03	0.496902
2109.48	0.114983
2110.93	0.199072
2112.38	0.514019
2113.84	0.54245
2115.29	0.351627
2116.74	0.375629
2118.19	0.267292
2119.64	0.609678
2121.09	0.225218
2122.54	-0.172058
2123.99	0.328817
2125.45	-0.479164
2126.89	0.619204
2128.34	-0.074789
2129.79	0.107441
2131.24	0.0553894
2132.69	0.117878
2134.14	0.180252
2135.59	0.17782
2137.04	-0.0864944
2138.48	0.19787
2139.93	0.0558014
2141.38	0.528168
2142.83	-0.00581741
2144.27	-0.158592
2145.72	0.052845
2147.17	0.412966
2148.61	-0.00619125
2150.06	-0.112303
2151.5	-0.518365
2152.95	0.184023
2154.39	0.603333
2155.84	0.077467
2157.28	0.313845
2158.73	0.567989
2160.17	0.377182
2161.61	-0.00954437
2163.06	0.319448
2164.5	0.518694
2165.94	0.686483
2167.38	0.306076
2168.83	-0.0101261
2170.27	0.352274
2171.71	0.095787
2173.15	-0.014286
2174.59	-0.143272
2176.03	-0.489363
2177.47	0.412043
2178.91	0.499861
2180.36	-0.00915718
2181.8	0.248091
2183.23	0.190432
2184.67	0.199768
2186.11	0.375601
2187.55	0.518261
2188.99	0.178429
2190.43	-0.278079
2191.87	0.0139923
2193.3	0.155041
2194.74	0.39377
2196.18	0.878998
2197.62	0.461954
2199.05	0.491329
2200.49	0.402576
2201.93	0.396715
2203.36	0.0104179
2204.8	0.223385
2206.23	0.355036
2207.67	-0.142037
2209.1	0.27178
2210.54	0.485262
2211.97	0.481739
2213.41	-0.134655
2214.84	0.323242
2216.27	0.0882864
2217.71	0.300991
2219.14	0.334248
2220.57	0.913013
2222.01	0.222633
2223.44	0.503511
2224.87	0.156005
2226.3	0.266707
2227.73	0.407248
2229.16	0.0525703
2230.6	0.107452
2232.03	0.145462
2233.46	-0.454484
2234.89	0.0927153
2236.32	0.297824
2237.75	0.227858
2239.18	-0.0508451
2240.61	-0.048583
2242.03	0.0383101
2243.46	0.371994
2244.89	0.999938
2246.32	0.191345
2247.75	-0.000121117
2249.17	-0.374473
2250.6	-0.0190582
2252.03	0.0886698
2253.46	-0.0654259
2254.88	0.07372
2256.31	-0.450469
2257.73	0.847291
2259.16	0.0402927
2260.59	0.276805
2262.01	0.257991
2263.44	0.209469
2264.86	0.762693
2266.29	0.454114
2267.71	0.469173
2269.14	-0.0218811
2270.56	-0.482085
2271.98	0.00103664
2273.4	-0.297667
2274.83	0.0389614
2276.25	0.408672
2277.67	0.404035
2279.09	0.0897646
2280.52	0.231829
2281.94	0.194317
2283.36	0.368724
2284.78	0.526974
2286.2	0.39188
2287.62	0.175714
2289.04	-0.203152
2290.46	0.333425
2291.88	0.217049
2293.3	-0.160892
2294.72	-0.0810728
2296.14	-0.0831728
2297.56	0.258519
2298.98	-0.202155
2300.4	0.222154
2301.82	0.0570154
2303.23	0.400793
2304.65	-0.0427055
2306.07	0.170131
2307.49	0.152544
2308.9	0.380563
2310.32	-0.0171385
2311.73	0.439555
2313.15	0.156038
2314.57	-0.373862
2315.98	-0.0137405
2317.4	0.166829
2318.81	0.0846081
2320.23	0.793582
2321.64	0.412213
2323.06	0.538918
2324.47	0.760537
2325.88	0.730557
2327.3	0.0874786
2328.71	0.218359
2330.12	0.300016
2331.54	-0.555283
2332.95	-0.10787
2334.36	0.30783
2335.77	0.312518
2337.18	-0.44011
2338.6	-0.223909
2340.01	0.515978
2341.42	0.136694
2342.83	-0.702477
2344.24	0.164989
2345.65	0.163176
2347.06	0.342034
2348.47	0.291569
2349.88	-0.348401
2351.29	-0.0243473
2352.7	0.166849
2354.1	0.307124
2355.51	0.282924
2356.92	0.111651
2358.33	0.526225
2359.74	0.0140495
2361.14	0.184793
2362.55	0.468643
2363.96	-0.511545
2365.36	0.225171
2366.77	0.0879545
2368.18	-0.386989
2369.58	-0.181815
2370.99	-0.0875597
2372.39	0.621031
2373.8	0.445033
2375.2	0.398628
2376.61	-0.179316
2378.01	-0.131378
2379.42	0.315576
2380.82	-0.172167
2382.22	0.0602531
2383.63	0.114452
2385.03	-0.151809
2386.43	-0.177079
2387.84	-0.200777
2389.24	0.160238
2390.64	-0.0507135
2392.04	-0.052392
2393.44	-0.00462246
2394.84	0.0286207
2396.25	-0.0800381
2397.65	0.162094
2399.05	-0.071578
2400.45	0.172267
2401.85	0.0830212
2403.25	0.502066
2404.65	0.443978
2406.05	0.543139
2407.45	0.434331
2408.84	0.514551
2410.24	0.324644
2411.64	0.262064
2413.04	0.501837
2414.44	0.0153942
2415.83	-0.151767
2417.23	0.189928
2418.63	0.454077
2420.02	0.180491
2421.42	0.381795
2422.82	0.170651
2424.21	-0.0410366
2425.61	-0.141747
2427	-0.368414
2428.4	0.262319
2429.8	-0.104053
2431.19	-0.0887842
2432.58	0.371243
2433.98	0.17965
2435.37	0.224274
2436.77	0.520601
2438.16	-0.409064
2439.55	-0.276357
2440.95	-0.192867
2442.34	0.0801554
2443.73	-0.15529
2445.12	0.275336
2446.51	-0.21423
2447.91	0.2314
2449.3	-0.448041
2450.69	-0.160688
2452.08	0.301425
2453.47	0.511406
2454.86	-0.353008
2456.25	0.2551
2457.64	-0.0854197
2459.03	0.127425
2460.42	-0.040288
2461.81	0.32826
2463.2	-0.0634184
2464.59	0.0971775
2465.98	0.14658
2467.36	0.35363
2468.75	-0.00761509
2470.14	-0.400409
2471.53	-0.0842447
2472.92	-0.352432
2474.3	-0.0233307
2475.69	-0.151964
2477.08	0.111918
2478.46	0.139716
2479.85	0.214826
2481.23	0.101947
2482.62	-0.292883
2484	0.767996
2485.39	-0.192049
2486.77	-0.120934
2488.16	-0.00498009
2489.54	0.312037
2490.93	-0.0568218
2492.31	-0.12853
2493.69	0.267511
2495.08	-0.265725
2496.46	0.16502
2497.84	0.178355
2499.23	-0.148398
2500.61	-0.0885744
2501.99	-0.277408
2503.37	-0.143265
2504.75	0.297633
2506.13	0.0586004
2507.52	0.466084
2508.9	0.334805
2510.28	0.388826
2511.66	-0.154516
2513.04	0.22415
2514.42	0.603634
2515.8	-0.347543
2517.18	-0.286668
2518.55	0.11137
2519.93	-0.0866718
2521.31	0.295406
2522.69	-0.0566988
2524.07	0.246119
2525.45	0.211995
2526.82	0.0861092
2528.2	0.219763
2529.58	0.263827
2530.95	-0.0390692
2532.33	-0.23261
2533.71	0.153461
2535.08	-0.41646
2536.46	-0.0901031
2537.84	0.34146
2539.21	0.49789
2540.59	0.288431
2541.96	0.746294
2543.34	0.111903
2544.71	-0.0656614
2546.08	0.183525
2547.46	0.101029
2548.83	0.444724
2550.2	0.136136
2551.58	-0.127811
2552.95	0.0316467
2554.32	0.204549
2555.7	0.209008
2557.07	0.273205
2558.44	0.0035429
2559.81	0.0224876
2561.18	0.436352
2562.55	0.290442
2563.93	0.478914
2565.3	-0.0441484
2566.67	0.0545073
2568.04	0.213926
2569.41	0.100564
2570.78	0.290303
2572.15	0.131505
2573.51	0.215341
2574.88	0.526741
2576.25	0.383393
2577.62	0.103433
2578.99	0.0808182
2580.36	0.527682
2581.73	0.155043
2583.09	0.342797
2584.46	-0.0762844
2585.83	-0.0103092
2587.19	-0.0351095
2588.56	-0.180846
2589.93	0.431325
2591.29	0.618898
2592.66	0.487453
2594.02	-0.448178
2595.39	0.189981
2596.75	0.265881
2598.12	0.0226927
2599.48	0.414147
2600.85	0.382232
2602.21	0.139749
2603.58	0.728837
2604.94	0.216845
2606.3	0.23349
2607.67	0.279734
2609.03	0.0381794
2610.39	0.156394
2611.76	0.39266
2613.12	0.506289
2614.48	0.107677
2615.84	0.38468
2617.2	-0.103005
2618.56	-0.229343
2619.92	0.154537
2621.28	-0.567471
2622.65	0.475528
2624.01	0.248265
2625.37	0.364418
2626.72	0.644014
2628.08	0.132884
2629.44	0.187818
2630.8	0.391085
2632.16	0.638438
2633.52	0.513957
2634.88	0.419299
2636.24	0.487863
2637.59	0.319194
2638.95	0.254519
2640.31	0.293747
2641.67	0.155938
2643.02	0.491508
2644.38	0.590677
2645.74	0.306007
2647.09	0.758139
2648.45	0.206785
2649.8	0.302534
2651.16	0.308756
2652.51	0.608151
2653.87	0.027051
2655.22	0.576882
2656.58	0.497837
2657.93	0.0256405
2659.29	0.360008
2660.64	0.0513515
2661.99	0.312705
2663.35	0.32449
2664.7	0.115968
2666.05	0.504491
2667.41	0.206655
2668.76	0.564398
2670.11	0.39822
2671.46	0.305851
2672.81	0.418057
2674.16	0.0228872
2675.51	0.00643063
2676.87	-0.110667
2678.22	-0.154125
2679.57	0.427246
2680.92	0.169229
2682.27	0.232125
2683.62	0.354959
2684.97	0.508409
2686.31	0.474084
2687.66	0.279791
2689.01	0.635122
2690.36	0.116662
2691.71	0.0743284
2693.06	0.406776
2694.4	0.215293
2695.75	0.58891
2697.1	0.514106
2698.45	0.238744
2699.79	0.111002
2701.14	0.159814
2702.49	0.254491
2703.83	-0.0693111
2705.18	0.317796
2706.52	0.53128
2707.87	0.75901
2709.21	0.231377
2710.56	0.341678
2711.9	0.524225
2713.25	0.0818005
2714.59	0.394833
2715.94	0.504375
2717.28	0.177409
2718.62	0.7518
2719.97	0.234513
2721.31	0.880554
2722.65	0.987394
2723.99	0.700434
2725.34	0.791161
2726.68	0.211708
2728.02	0.766993
2729.36	0.856088
2730.7	0.391987
2732.04	0.7572
2733.39	0.686049
2734.73	0.717008
2736.07	0.631926
2737.41	0.31436
2738.75	0.840279
2740.08	0.0423746
2741.43	-0.043663
2742.76	0.39263
2744.1	0.449703
2745.44	0.389486
2746.78	0.0381765
2748.12	0.0932741
2749.46	0.0903473
2750.79	0.0152025
2752.13	0.0419931
2753.47	0.156074
2754.81	0.444198
2756.14	0.587515
2757.48	0.296616
2758.81	-0.0371552
2760.15	0.295581
2761.49	0.860512
2762.82	0.471101
2764.16	0.357153
2765.49	0.0550938
2766.83	0.475689
2768.16	0.142506
2769.5	0.356875
2770.83	-0.110524
2772.16	0.532457
2773.5	0.393577
2774.83	0.484683
2776.17	0.330684
2777.5	0.278275
2778.83	-0.103918
2780.16	0.262506
2781.5	0.341717
2782.83	0.320505
2784.16	0.0123863
2785.49	-0.00872898
2786.82	-0.0581818
2788.15	0.1795
2789.49	-0.025363
2790.82	0.314844
2792.15	0.21284
2793.48	0.326042
2794.81	-0.118135
2796.14	0.0946198
2797.46	-0.00786972
2798.79	0.559885
2800.12	0.241595
2801.45	0.0087471
2802.78	0.160769
2804.11	0.212451
2805.44	-0.178154
2806.76	0.498241
2808.09	0.0206137
2809.42	0.253616
2810.75	-0.0107346
2812.07	-0.0183144
2813.4	-0.0382833
2814.73	-0.240263
2816.05	0.0136948
2817.38	-0.240908
2818.7	-0.140253
2820.03	0.258053
2821.36	0.499709
2822.68	0.442634
2824.01	0.682082
2825.33	0.340099
2826.65	0.366536
2827.98	0.450419
2829.3	0.393612
2830.63	0.705622
2831.95	0.848077
2833.27	0.579929
2834.6	0.962366
2835.92	0.947654
2837.24	0.875461
2838.56	1.29768
2839.88	1.52135
2841.21	1.8299
2842.53	1.74323
2843.85	2.25127
2845.17	2.44954
2846.49	2.09771
2847.81	2.21285
2849.13	2.24323
2850.45	3.03637
2851.77	2.92408
2853.09	2.88159
2854.41	3.00801
2855.73	3.1482
2857.05	3.37309
2858.37	3.66862
2859.69	3.93579
2861	4.79561
2862.32	4.55338
2863.64	5.0304
2864.96	5.47847
2866.28	5.77108
2867.59	5.72556
2868.91	6.56919
2870.23	7.06087
2871.54	6.3546
2872.86	6.43724
2874.17	6.37756
2875.49	6.61172
2876.81	6.95627
2878.12	6.90493
2879.44	7.44376
2880.75	6.85816
2882.07	6.54161
2883.38	6.66266
2884.69	7.05221
2886.01	5.96874
2887.32	6.4297
2888.63	7.00191
2889.95	7.20763
2891.26	6.90683
2892.57	7.51614
2893.89	6.65369
2895.2	7.51499
2896.51	7.00542
2897.82	7.51964
2899.13	7.6858
2900.44	8.1472
2901.76	7.93798
2903.07	7.63128
2904.38	7.71651
2905.69	8.64149
2907	8.47653
2908.31	8.28512
2909.62	9.34048
2910.93	9.30579
2912.24	9.52302
2913.55	9.93488
2914.85	10.4421
2916.16	10.176
2917.47	10.3827
2918.78	10.6014
2920.09	10.568
2921.4	11.5425
2922.7	11.3029
2924.01	11.7091
2925.32	12.2294
2926.62	11.7026
2927.93	12.1125
2929.24	11.4731
2930.54	11.8113
2931.85	12.5819
2933.15	12.1777
2934.46	11.9832
2935.76	11.7331
2937.07	12.1122
2938.37	10.9964
2939.68	11.5022
2940.98	10.8073
2942.29	10.3795
2943.59	10.2614
2944.89	9.71235
2946.2	9.20713
2947.5	8.46479
2948.8	9.14912
2950.11	8.55779
2951.41	8.28512
2952.71	8.49917
2954.01	8.01066
2955.32	8.22155
2956.62	7.45424
2957.92	7.74032
2959.22	7.37326
2960.52	7.78125
2961.82	7.15605
2963.12	7.12055
2964.42	6.94366
2965.72	6.98886
2967.02	7.07341
2968.32	6.66366
2969.62	6.66016
2970.92	5.8829
2972.22	5.99213
2973.51	5.87688
2974.81	5.71937
2976.11	5.36361
2977.41	5.23091
2978.71	5.0531
2980	5.02728
2981.3	4.76006
2982.6	4.39368
2983.9	4.47809
2985.19	4.33945
2986.49	3.78192
2987.78	3.81712
2989.08	3.99457
2990.38	3.98986
2991.67	2.94433
2992.97	2.85284
2994.26	2.81556
2995.56	2.55177
2996.85	2.53975
2998.14	2.65373
2999.44	2.23504
3000.73	1.70544
3002.03	1.79394
3003.32	1.72896
3004.61	1.34207
3005.91	1.37517
3007.2	1.12737
3008.49	1.1304
3009.78	1.25792
3011.07	1.454
3012.37	0.937126
3013.66	0.407166
3014.95	0.394495
3016.24	0.912333
3017.53	0.30308
3018.82	0.571994
3020.11	0.298444
3021.4	0.53885
3022.69	0.499929
3023.98	-0.261973
3025.27	0.279641
3026.56	-0.0664463
3027.85	0.0317087
3029.14	0.4218
3030.43	0.205807
3031.71	-0.269983
3033	0.1122
3034.29	-0.830157
3035.58	0.117439
3036.87	-0.206192
3038.15	0.101767
3039.44	0.227488
3040.73	0.419313
3042.01	0.0740299
3043.3	-0.283982
3044.59	-0.160574
3045.87	-0.116927
3047.16	-0.0153408
3048.44	-0.142348
3049.73	0.184437
3051.01	0.418095
3052.3	0.12091
3053.58	0.0695047
3054.87	0.140046
3056.15	0.127246
3057.43	0.562778
3058.72	0.492654
3060	0.0819168
3061.29	0.352728
3062.57	0.543269
3063.85	0.0696697
3065.13	0.428017
3066.42	-0.271811
3067.7	0.294373
3068.98	0.154285
3070.26	0.353893
3071.54	0.19873
3072.82	-0.0668936
3074.11	-0.0621986
3075.39	0.172216
3076.67	0.243075
3077.95	0.124602
3079.23	-0.0327024
3080.51	-0.0790224
3081.79	-0.190667
3083.07	-0.191833
3084.35	0.540899
3085.63	-0.137301
3086.9	-0.0289698
3088.18	0.37709
3089.46	0.0764599
3090.74	-0.306029
3092.02	0.003479
3093.29	0.19117
3094.57	0.0675011
3095.85	-0.0284319
3097.13	0.0657587
3098.4	0.0244608
3099.68	0.159306
3100.95	0.063839
3102.23	0.15829
3103.51	0.4022
3104.78	0.525125
3106.06	0.216249
3107.33	0.355557
3108.61	0.374813
3109.88	0.206354
3111.16	0.0800714
3112.43	0.225917
3113.71	0.413341
3114.98	0.343498
3116.25	0.0154419
3117.53	0.405022
3118.8	0.223556
3120.07	0.596748
3121.35	0.128024
3122.62	0.702483
3123.89	0.246894
3125.16	0.739978
3126.44	0.259046
3127.71	0.55073
3128.98	0.383369
3130.25	0.852345
3131.52	1.02402
3132.79	0.682172
3134.06	0.799485
3135.33	0.497668
3136.6	0.586818
3137.87	1.09331
3139.14	0.83089
3140.41	0.501618
3141.68	1.03388
3142.95	1.28381
3144.22	0.95704
3145.49	1.22218
3146.76	0.750968
3148.02	0.804112
3149.29	0.88505
