200.398	0.0783653
202.213	0.0948601
204.027	0.113392
205.843	-0.231071
207.657	0.276293
209.47	1.00123
211.283	0.242109
213.097	1.10801
214.909	0.467018
216.721	0.868206
218.533	0.324408
220.344	-0.580538
222.157	-0.0555363
223.967	-0.0613575
225.777	0.344772
227.587	0.630051
229.396	0.359179
231.205	0.715199
233.016	1.0463
234.824	0.461458
236.632	1.6149
238.439	1.01231
240.247	1.30626
242.053	0.88129
243.86	1.32705
245.666	2.5698
247.474	2.86924
249.279	4.1054
251.085	2.87255
252.889	3.42084
254.694	3.98923
256.498	3.7364
258.301	4.20851
260.105	4.97294
261.908	3.6456
263.71	3.23741
265.513	2.61462
267.315	2.71547
269.116	2.64716
270.918	2.40858
272.718	2.14369
274.519	1.85206
276.319	1.82263
278.119	1.4042
279.918	1.8495
281.718	2.21818
283.516	1.45238
285.315	1.35797
287.113	1.19025
288.911	1.04681
290.708	1.26435
292.505	1.17281
294.302	0.486349
296.098	0.401125
297.894	0.413612
299.69	0.116499
301.485	0.225386
303.278	0.0223713
305.073	-0.134857
306.867	0.660473
308.661	-0.524084
310.454	0.557007
312.247	0.472286
314.04	0.938303
315.833	0.907663
317.623	0.332659
319.415	-0.406509
321.206	0.142881
322.997	0.384302
324.788	0.722324
326.579	0.679029
328.367	0.539732
330.156	0.51869
331.946	0.902153
333.735	0.565054
335.523	0.295723
337.31	-0.00169373
339.098	-0.637695
340.885	0.206652
342.673	-0.194225
344.458	0.169697
346.244	-0.110683
348.03	-0.0792217
349.816	0.502245
351.6	0.558475
353.385	0.0649052
355.17	-0.0485649
356.953	-0.593483
358.737	-0.496763
360.521	0.407482
362.304	-0.0714931
364.085	0.281122
365.868	0.536781
367.65	0.481962
369.431	0.401932
371.212	-0.224356
372.994	0.285116
374.773	-0.105335
376.554	-0.306007
378.332	0.202084
380.112	0.687199
381.892	0.655783
383.669	0.5798
385.448	0.694407
387.225	0.811235
389.003	0.436821
390.781	0.933456
392.557	0.680046
394.334	1.24982
396.109	1.67946
397.885	2.01547
399.66	2.91491
401.436	2.78012
403.211	2.50313
404.984	2.20118
406.759	2.50836
408.532	2.41506
410.306	2.93143
412.078	2.74362
413.851	2.27518
415.623	2.51222
417.395	2.42247
419.166	3.76558
420.938	3.98314
422.708	3.49609
424.477	3.31269
426.248	2.54045
428.017	2.09518
429.788	0.944805
431.556	0.87422
433.326	1.0624
435.093	0.75841
436.86	0.172773
438.629	0.642021
440.395	0.381077
442.163	-0.0711212
443.929	0.50461
445.694	-0.47006
447.461	0.0524921
449.226	0.269199
450.99	0.322096
452.756	0.8657
454.52	-0.247227
456.285	0.576057
458.048	0.326494
459.811	0.33338
461.573	-0.774748
463.337	0.16646
465.099	0.762821
466.86	0.481592
468.623	-0.00369644
470.384	0.142134
472.144	0.35923
473.906	-0.286137
475.666	0.252544
477.425	0.461288
479.184	-0.335209
480.944	-0.0620975
482.703	0.374187
484.461	0.416676
486.218	-0.0962772
487.975	0.559811
489.734	0.287737
491.491	0.670897
493.247	1.05608
495.003	0.881182
496.759	0.0738182
498.516	0.34222
500.271	0.305405
502.025	0.103043
503.779	0.321499
505.533	0.373598
507.287	0.446684
509.042	0.375753
510.795	0.560547
512.547	1.00118
514.299	-0.0199852
516.051	1.21492
517.803	0.753504
519.554	0.549026
521.305	0.0847778
523.055	0.911673
524.805	0.962679
526.555	0.89628
528.307	0.501717
530.056	0.529211
531.805	0.977503
533.553	1.0726
535.301	0.627258
537.049	1.58209
538.797	0.711206
540.544	1.58885
542.291	0.832247
544.037	0.0766315
545.783	1.34434
547.529	0.682976
549.275	0.464094
551.02	0.709257
552.765	-0.15608
554.509	0.806231
556.253	1.25922
557.997	-0.455622
559.738	0.57542
561.482	0.247524
563.224	0.404327
564.967	0.171286
566.709	0.537041
568.451	-0.289898
570.192	0.859505
571.933	0.060791
573.674	0.733669
575.415	0.125402
577.153	0.461039
578.893	-0.48597
580.632	-0.674393
582.371	-0.311241
584.11	0.32719
585.849	0.113272
587.587	0.356886
589.323	0.184088
591.06	0.170458
592.797	0.247789
594.534	-0.250385
596.271	0.125788
598.005	-0.0732384
599.741	-0.595011
601.476	0.446003
603.211	-0.263666
604.944	-0.102076
606.679	0.148705
608.413	0.213837
610.147	0.0031414
611.878	-0.16054
613.611	0.067194
615.344	0.0898151
617.077	0.158636
618.807	0.821932
620.539	0.33794
622.27	-0.0564785
623.999	-0.0863171
625.73	0.386312
627.461	0.221092
629.189	0.128342
630.919	-0.598667
632.648	0.275675
634.376	-0.55929
636.105	0.111561
637.833	0.642303
639.559	-0.110418
641.287	-0.366533
643.013	0.466885
644.74	0.36265
646.467	0.327311
648.192	0.250196
649.918	-0.00252724
651.642	-0.383984
653.368	0.173878
655.091	0.466072
656.816	0.285324
658.538	-0.25844
660.263	0.222761
661.987	0.450676
663.708	1.17717
665.432	0.619143
667.153	0.971556
668.875	0.682028
670.596	0.828266
672.318	0.681015
674.037	0.401167
675.759	0.285692
677.478	0.0808334
679.196	-0.307753
680.917	0.496519
682.635	0.677471
684.355	0.094738
686.072	0.428608
687.791	0.229717
689.508	-0.478159
691.224	0.0102825
692.942	0.059824
694.658	0.660692
696.376	0.061945
698.091	-0.35465
699.805	0.74534
701.522	0.783939
703.236	0.245968
704.95	-0.0171204
706.665	-0.120264
708.379	0.532709
710.093	-0.213913
711.806	0.436541
713.518	0.376135
715.23	-0.461592
716.943	0.368765
718.655	-0.125259
720.366	0.270782
722.078	0.689171
723.788	-0.32645
725.498	0.250776
727.208	0.780994
728.919	0.492418
730.628	-0.00053215
732.337	0.367352
734.045	0.66618
735.755	0.987024
737.463	0.336987
739.17	-0.536146
740.877	0.104328
742.584	0.948883
744.292	0.0615025
745.998	0.392977
747.704	0.974415
749.409	0.0062542
751.114	0.390308
752.819	-0.28026
754.526	0.67141
756.23	0.658821
757.934	0.176458
759.637	0.417355
761.34	-0.0606308
763.043	0.431963
764.746	1.19584
766.448	-0.413794
768.152	-0.129766
769.853	1.66538
771.554	0.924278
773.255	1.53703
774.956	0.746786
776.656	0.952454
778.356	0.708397
780.056	0.87435
781.755	-0.0206509
783.454	1.0757
785.153	1.71786
786.851	1.11049
788.549	2.42076
790.247	1.2576
791.944	1.44655
793.641	1.0673
795.338	1.16181
797.034	0.716915
798.73	1.26684
800.426	0.761759
802.121	0.574993
803.817	1.24436
805.511	1.03623
807.206	1.77042
808.9	0.839659
810.592	0.513693
812.286	1.03844
813.979	0.933819
815.672	1.63476
817.364	1.37257
819.057	1.20033
820.748	0.783039
822.44	1.59435
824.129	1.46957
825.82	1.54823
827.511	0.784649
829.201	1.3185
830.891	1.23477
832.581	1.31267
834.269	0.703974
835.958	0.810417
837.646	0.782822
839.335	0.373417
841.023	1.41252
842.709	1.3771
844.396	1.56403
846.084	1.88641
847.77	0.848608
849.455	1.42549
851.141	1.00066
852.827	0.82556
854.513	0.831589
856.196	0.747557
857.881	0.908573
859.566	0.729065
861.248	0.478153
862.932	0.674274
864.616	0.529943
866.297	0.2484
867.98	0.50659
869.663	1.12483
871.343	0.411777
873.026	0.848667
874.707	0.247589
876.387	-0.0151215
878.068	1.09888
879.747	0.587765
881.428	0.640184
883.108	-0.00864792
884.786	0.220842
886.465	-0.116745
888.143	0.873962
889.822	0.95853
891.498	0.138472
893.177	0.0825062
894.855	0.136766
896.53	0.233767
898.208	-0.390133
899.883	0.60059
901.56	0.623869
903.234	0.936853
904.91	0.421623
906.584	-0.471312
908.26	-0.112455
909.933	-0.443039
911.608	0.185396
913.28	-0.186111
914.955	0.553976
916.627	0.0949287
918.298	-0.163939
919.972	0.0206528
921.643	-0.435532
923.315	-0.247786
924.986	0.252165
926.656	0.733192
928.328	0.797945
929.997	0.953573
931.668	0.0957012
933.337	1.06969
935.006	0.72035
936.676	0.636587
938.344	0.775152
940.012	0.828018
941.681	0.618721
943.348	0.565392
945.014	0.313181
946.683	0.809147
948.349	-0.641069
950.015	0.752184
951.682	0.752125
953.347	0.99469
955.012	-0.0827541
956.676	0.212669
958.343	0.669258
960.006	0.690779
961.67	0.406488
963.333	0.276436
964.998	-0.0340595
966.661	-0.217474
968.323	-0.0526447
969.985	0.129919
971.649	0.222002
973.31	1.1995
974.971	-0.0536652
976.632	0.156492
978.293	0.657471
979.953	0.46319
981.615	0.268068
983.274	0.568239
984.933	1.01933
986.592	0.469866
988.251	1.57618
989.909	0.577948
991.567	0.50754
993.225	1.14359
994.884	0.366272
996.541	1.88456
998.198	2.36474
999.855	3.4388
1001.51	2.63871
1003.17	2.14676
1004.82	1.56675
1006.48	1.73442
1008.13	2.45108
1009.79	1.19244
1011.44	1.33998
1013.1	1.48833
1014.75	2.11926
1016.4	0.845802
1018.06	0.953274
1019.71	0.624962
1021.36	0.583368
1023.01	0.50049
1024.66	0.507164
1026.32	1.27998
1027.97	1.50648
1029.62	0.420803
1031.27	1.32045
1032.92	1.7793
1034.57	0.924816
1036.22	1.39831
1037.87	0.997738
1039.52	1.33762
1041.16	1.93939
1042.81	2.34763
1044.46	3.45473
1046.11	2.91495
1047.76	3.46583
1049.4	5.25862
1051.05	3.08015
1052.7	4.531
1054.34	4.72315
1055.99	4.11123
1057.63	4.95487
1059.28	3.57985
1060.92	3.3771
1062.57	3.0637
1064.21	2.8568
1065.85	2.53876
1067.5	0.718618
1069.14	0.700672
1070.78	0.702967
1072.43	0.900282
1074.07	0.968239
1075.71	0.409378
1077.35	1.41515
1078.99	0.341776
1080.63	0.419521
1082.27	-0.08815
1083.91	0.182999
1085.55	0.68902
1087.19	-0.153183
1088.83	0.473499
1090.47	0.792423
1092.11	1.15129
1093.75	1.27073
1095.39	0.74296
1097.03	0.239492
1098.66	0.278336
1100.3	1.13897
1101.94	0.260107
1103.57	-0.377579
1105.21	0.450539
1106.84	0.182934
1108.48	0.40942
1110.11	0.590492
1111.75	1.00437
1113.38	0.87714
1115.02	1.15503
1116.65	0.744627
1118.29	-0.458265
1119.92	0.569988
1121.55	-0.0709152
1123.19	1.30301
1124.82	1.69398
1126.45	1.08145
1128.08	1.26225
1129.71	0.739061
1131.34	0.644907
1132.97	0.123945
1134.6	-0.0765572
1136.23	-0.214224
1137.86	-0.119072
1139.49	-0.304272
1141.12	0.255682
1142.75	0.579145
1144.38	-0.718403
1146.01	-0.0519905
1147.64	-0.0446205
1149.26	0.4121
1150.89	-0.110085
1152.52	-0.248638
1154.15	0.314682
1155.77	0.217005
1157.4	0.69352
1159.02	0.255913
1160.65	0.309517
1162.27	0.152988
1163.9	0.827976
1165.52	0.52614
1167.15	-0.0526028
1168.77	0.0892487
1170.39	0.121035
1172.02	0.0634727
1173.64	0.766294
1175.26	0.192265
1176.89	-0.0429916
1178.51	0.25209
1180.13	0.37892
1181.75	-0.275089
1183.37	-0.207977
1184.99	-0.204184
1186.61	0.135468
1188.23	0.68198
1189.85	0.337673
1191.47	-0.115549
1193.09	0.143726
1194.71	-0.859375
1196.33	0.0482388
1197.94	1.08101
1199.56	0.776714
1201.18	1.04263
1202.8	1.04291
1204.41	1.44585
1206.03	0.998205
1207.65	0.553938
1209.26	1.92533
1210.88	1.70942
1212.49	1.11433
1214.11	1.24391
1215.72	0.868267
1217.34	1.57072
1218.95	1.14707
1220.57	1.40897
1222.18	1.0912
1223.79	1.64717
1225.41	1.66749
1227.02	1.93975
1228.63	1.44983
1230.24	2.20389
1231.85	1.72016
1233.47	1.83889
1235.08	2.08459
1236.69	2.16788
1238.3	1.88158
1239.91	2.09311
1241.52	1.95363
1243.13	2.64089
1244.74	1.94023
1246.34	2.35444
1247.95	1.73158
1249.56	1.25181
1251.17	1.99195
1252.78	2.29799
1254.38	1.77834
1255.99	2.37819
1257.6	1.69854
1259.2	1.518
1260.81	1.64998
1262.42	2.28023
1264.02	1.17098
1265.63	2.13229
1267.23	2.8852
1268.84	2.39224
1270.44	2.04179
1272.04	2.16567
1273.65	1.81023
1275.25	1.20382
1276.85	2.02535
1278.46	2.45081
1280.06	2.54312
1281.66	1.66183
1283.26	1.23665
1284.86	2.63286
1286.46	2.37639
1288.07	2.4946
1289.67	2.34636
1291.27	3.17064
1292.87	3.70536
1294.47	4.34142
1296.06	3.19785
1297.66	3.43421
1299.26	3.83119
1300.86	2.71881
1302.46	3.43838
1304.06	2.73423
1305.65	2.7698
1307.25	3.39957
1308.85	2.6322
1310.44	3.44441
1312.04	3.60071
1313.64	2.59279
1315.23	3.24427
1316.83	3.7133
1318.42	2.99972
1320.02	4.12185
1321.61	3.77327
1323.2	2.68892
1324.8	2.76119
1326.39	2.74863
1327.99	2.83596
1329.58	2.1549
1331.17	3.4814
1332.76	3.43674
1334.36	3.72084
1335.95	3.46397
1337.54	2.82569
1339.13	2.69056
1340.72	3.41774
1342.31	3.01145
1343.9	2.86238
1345.49	2.69069
1347.08	3.70257
1348.67	3.81501
1350.26	2.27233
1351.85	2.5983
1353.43	2.96903
1355.02	1.72391
1356.61	3.91738
1358.2	3.03226
1359.78	2.86427
1361.37	2.23468
1362.96	2.5013
1364.54	2.82651
1366.13	3.86917
1367.71	2.86155
1369.3	2.55457
1370.88	3.10705
1372.47	1.91178
1374.05	1.91334
1375.64	2.65283
1377.22	2.03956
1378.8	2.10166
1380.39	2.12156
1381.97	1.95924
1383.55	1.7143
1385.13	1.94415
1386.72	2.43088
1388.3	2.79833
1389.88	2.11505
1391.46	2.18854
1393.04	2.85911
1394.62	1.1702
1396.2	2.29739
1397.78	0.746189
1399.36	1.29414
1400.94	1.18573
1402.52	2.61997
1404.1	2.21263
1405.68	2.26175
1407.25	2.056
1408.83	2.14891
1410.41	1.47274
1411.98	2.65312
1413.56	2.58769
1415.14	2.87522
1416.71	2.4109
1418.29	2.79357
1419.87	2.82199
1421.44	2.36075
1423.02	2.57301
1424.59	2.74996
1426.16	3.00886
1427.74	3.22987
1429.31	3.11569
1430.89	4.19986
1432.46	4.53296
1434.03	4.98133
1435.6	5.68384
1437.18	4.93151
1438.75	5.93095
1440.32	5.18362
1441.89	6.14886
1443.46	5.1311
1445.03	5.37223
1446.6	5.53529
1448.17	5.50221
1449.74	6.29561
1451.31	5.61583
1452.88	6.53026
1454.45	5.1447
1456.02	5.48991
1457.59	6.77823
1459.16	5.74104
1460.72	4.42369
1462.29	4.91187
1463.86	4.2547
1465.43	4.14555
1466.99	4.31052
1468.56	4.84921
1470.13	4.13377
1471.69	3.24532
1473.26	3.18388
1474.82	2.98725
1476.38	2.36043
1477.95	3.47889
1479.51	2.30348
1481.08	2.91169
1482.64	2.69645
1484.2	1.83438
1485.77	1.97087
1487.33	1.41999
1488.89	1.39492
1490.46	1.6198
1492.02	1.93682
1493.58	1.83764
1495.14	0.87575
1496.7	1.37483
1498.26	2.04712
1499.82	1.04758
1501.38	1.48956
1502.94	1.58444
1504.5	0.945116
1506.06	2.06926
1507.62	1.46858
1509.18	1.60073
1510.73	1.65253
1512.29	0.796185
1513.85	1.6348
1515.41	1.52971
1516.96	1.38798
1518.52	1.49775
1520.08	1.01503
1521.63	1.5289
1523.19	1.54396
1524.75	1.99615
1526.3	0.938381
1527.85	1.40445
1529.41	2.3051
1530.96	1.6841
1532.52	2.6019
1534.07	1.81523
1535.62	1.24115
1537.18	2.33342
1538.73	2.06622
1540.28	1.36682
1541.84	1.42263
1543.39	1.60984
1544.94	1.47655
1546.49	1.79379
1548.04	1.64089
1549.59	2.44411
1551.14	2.25374
1552.69	2.00891
1554.25	1.95373
1555.79	0.96826
1557.34	2.37754
1558.89	1.5887
1560.44	0.898296
1561.99	2.69302
1563.54	1.74829
1565.08	2.44682
1566.63	1.55964
1568.18	2.03414
1569.73	2.05984
1571.27	1.87928
1572.82	1.922
1574.37	2.61773
1575.91	2.08147
1577.46	2.38577
1579	2.2804
1580.55	2.12052
1582.09	2.6909
1583.64	1.69446
1585.18	2.19426
1586.73	2.07875
1588.27	1.96354
1589.81	2.25943
1591.35	2.57321
1592.9	1.96853
1594.44	1.8872
1595.98	3.58581
1597.52	3.11245
1599.06	2.99668
1600.61	3.50168
1602.15	2.91984
1603.69	2.63787
1605.23	2.89883
1606.77	2.78079
1608.31	3.40969
1609.85	2.82993
1611.39	1.92514
1612.93	3.28856
1614.46	2.4512
1616	1.98886
1617.54	1.97802
1619.08	1.95126
1620.61	2.22783
1622.15	2.95703
1623.69	2.153
1625.23	2.41633
1626.76	2.32218
1628.3	1.66368
1629.83	1.20804
1631.37	1.23627
1632.9	1.82381
1634.44	2.22465
1635.97	2.36578
1637.51	2.47179
1639.04	2.44883
1640.57	2.57514
1642.11	3.14703
1643.64	2.71015
1645.17	2.54988
1646.71	2.81523
1648.24	2.81921
1649.77	2.50841
1651.3	2.83132
1652.83	2.95297
1654.36	3.22572
1655.89	2.59175
1657.42	3.71834
1658.96	3.76797
1660.48	3.72169
1662.01	2.74673
1663.54	3.11969
1665.07	3.10269
1666.6	3.75093
1668.13	2.66732
1669.66	2.39981
1671.19	2.85483
1672.71	2.63083
1674.24	2.42661
1675.77	2.16678
1677.29	2.80701
1678.82	1.97236
1680.35	1.79784
1681.87	2.24638
1683.4	1.84878
1684.92	1.61701
1686.45	2.02823
1687.97	1.65195
1689.5	0.599285
1691.02	0.829983
1692.54	1.811
1694.07	1.08978
1695.59	0.679701
1697.11	1.25614
1698.64	0.790216
1700.16	1.19982
1701.68	1.07873
1703.2	1.63072
1704.72	0.596184
1706.25	0.599339
1707.77	1.60164
1709.29	0.277029
1710.81	0.497473
1712.33	0.989969
1713.85	0.666737
1715.37	0.126984
1716.89	0.655184
1718.41	0.18815
1719.92	0.823277
1721.44	-0.256344
1722.96	0.578119
1724.48	0.134613
1725.99	0.306992
1727.51	0.0684166
1729.03	0.750166
1730.55	-0.00544167
1732.06	-0.129168
1733.58	0.25738
1735.09	0.813524
1736.61	0.0793419
1738.13	0.743517
1739.64	0.487074
1741.15	0.504229
1742.67	-0.0480938
1744.18	0.550482
1745.7	-0.0405903
1747.21	0.042202
1748.72	0.330883
1750.24	0.0772743
1751.75	0.529966
1753.26	0.89908
1754.77	0.263906
1756.29	0.660662
1757.8	-0.598629
1759.31	0.28776
1760.82	-0.349167
1762.33	0.228697
1763.84	0.459024
1765.35	0.0897007
1766.86	-0.242601
1768.37	0.361404
1769.88	0.24885
1771.39	-0.367264
1772.9	0.215513
1774.4	-0.30265
1775.91	-0.00906754
1777.42	-0.30142
1778.93	0.257652
1780.44	0.34621
1781.94	0.00337982
1783.45	-0.157421
1784.96	0.309233
1786.46	-0.0116062
1787.97	0.224043
1789.47	0.198124
1790.98	-0.234968
1792.48	0.482359
1793.99	-0.203241
1795.49	0.225025
1797	-0.00765038
1798.5	0.324207
1800.01	-0.515093
1801.51	0.383364
1803.01	0.30895
1804.51	0.0248833
1806.02	0.236475
1807.52	0.126139
1809.02	0.155468
1810.52	0.683184
1812.02	0.418497
1813.52	-0.000711441
1815.02	-0.103376
1816.53	0.176916
1818.03	0.197718
1819.52	0.105274
1821.02	-0.174753
1822.52	0.00528908
1824.02	0.0640087
1825.52	0.373987
1827.02	0.331041
1828.52	0.232134
1830.02	0.142443
1831.51	0.396076
1833.01	0.494682
1834.51	0.611933
1836.01	0.375143
1837.5	0.22278
1839	0.316492
1840.49	0.0702934
1841.99	0.248093
1843.49	-0.134695
1844.98	0.373657
1846.48	0.638651
1847.97	0.653706
1849.47	0.384897
1850.96	0.0139809
1852.45	-0.0624313
1853.95	0.133204
1855.44	-0.0615673
1856.93	-0.409426
1858.42	0.133921
1859.92	0.357475
1861.41	0.296425
1862.9	0.120708
1864.39	0.318901
1865.88	0.188559
1867.38	0.484896
1868.87	0.691319
1870.36	0.855438
1871.85	0.615194
1873.34	0.527065
1874.83	0.467005
1876.32	0.0604343
1877.81	0.386028
1879.29	-0.294575
1880.78	0.336525
1882.27	0.251532
1882.53	0.20001
1884.03	0.0749893
1885.52	0.244431
1887.01	-0.772722
1888.51	0.333744
1890	-0.126329
1891.5	0.0424671
1892.99	0.388868
1894.48	-0.33831
1895.97	0.190035
1897.47	0.0597057
1898.96	0.033432
1900.45	-0.0996399
1901.94	0.615841
1903.43	0.613729
1904.92	0.260431
1906.41	0.548426
1907.9	0.21093
1909.39	0.604244
1910.88	0.288155
1912.37	0.963217
1913.86	0.355986
1915.35	-0.389513
1916.84	0.251459
1918.33	-0.461056
1919.81	0.645102
1921.3	-0.0683422
1922.79	-0.728407
1924.28	-0.0184288
1925.76	-0.379217
1927.25	-0.200804
1928.73	0.619816
1930.22	0.31498
1931.71	0.874029
1933.19	0.529083
1934.68	0.0761356
1936.16	0.0174942
1937.65	-0.424273
1939.13	0.256565
1940.62	0.626423
1942.1	-0.39992
1943.58	-0.00827408
1945.07	-0.321871
1946.55	-0.27235
1948.03	-0.344027
1949.51	0.443941
1951	0.695034
1952.48	0.28973
1953.96	0.141516
1955.44	0.251085
1956.92	1.18573
1958.4	-0.178818
1959.88	0.741343
1961.36	0.187384
1962.84	0.662783
1964.32	0.297838
1965.8	0.0347786
1967.28	0.0955505
1968.76	0.206009
1970.24	-0.146585
1971.72	1.07209
1973.2	0.838123
1974.67	0.945856
1976.15	1.1391
1977.63	1.9457
1979.1	1.71322
1980.58	1.49799
1982.06	0.279732
1983.54	0.268475
1985.01	0.0527744
1986.49	0.12513
1987.96	-0.277163
1989.44	0.067028
1990.91	0.530802
1992.39	0.252123
1993.86	0.229742
1995.33	0.107969
1996.81	0.358992
1998.28	0.255127
1999.75	0.116547
2001.23	0.854122
2002.7	-0.0968227
2004.17	0.840942
2005.65	0.464342
2007.12	0.780468
2008.59	0.00419998
2010.06	0.610868
2011.53	0.0571499
2013	0.345266
2014.47	0.497663
2015.94	0.378954
2017.41	0.123604
2018.88	-0.28479
2020.35	0.246859
2021.82	-0.29714
2023.29	0.905846
2024.76	1.05269
2026.23	0.31336
2027.69	0.466694
2029.16	-0.198236
2030.63	0.2638
2032.1	0.459902
2033.56	-0.366749
2035.03	-0.0856285
2036.5	-0.460375
2037.96	-0.21483
2039.43	0.500517
2040.89	0.0561237
2042.36	0.0664387
2043.83	0.852249
2045.29	0.496647
2046.75	-0.143698
2048.22	0.260412
2049.68	0.933861
2051.15	-0.0637646
2052.61	0.114897
2054.07	0.525429
2055.54	0.898001
2057	0.373611
2058.46	0.235262
2059.92	0.315634
2061.39	0.0770283
2062.85	-0.647636
2064.31	0.397455
2065.77	0.300358
2067.23	0.373566
2068.69	0.465027
2070.15	-0.0992203
2071.61	0.211975
2073.07	0.320875
2074.53	0.513382
2075.99	0.368322
2077.45	0.693928
2078.91	0.91754
2080.37	0.651712
2081.82	-0.0699558
2083.28	0.402206
2084.74	0.216105
2086.2	0.465765
2087.65	-0.194183
2089.11	-0.165434
2090.57	0.0979881
2092.02	0.71352
2093.48	0.304655
2094.94	0.599981
2096.39	0.944078
2097.85	0.130505
2099.3	0.304056
2100.76	0.643837
2102.21	0.348661
2103.66	-0.0944271
2105.12	0.166952
2106.57	0.43132
2108.03	0.347748
2109.48	1.03205
2110.93	0.797863
2112.38	-0.255747
2113.84	0.519665
2115.29	0.641315
2116.74	0.162184
2118.19	0.315809
2119.64	-0.307804
2121.09	0.384256
2122.54	0.582726
2123.99	0.137796
2125.45	0.307957
2126.89	-0.135948
2128.34	-0.0183716
2129.79	0.245163
2131.24	0.190849
2132.69	0.0189304
2134.14	0.5254
2135.59	0.652863
2137.04	0.370411
2138.48	0.241056
2139.93	0.248207
2141.38	0.606215
2142.83	-0.256548
2144.27	0.00641251
2145.72	-0.127306
2147.17	-0.212118
2148.61	-0.066494
2150.06	0.0938663
2151.5	-0.01301
2152.95	0.259016
2154.39	0.39666
2155.84	-0.195675
2157.28	0.852228
2158.73	0.112658
2160.17	-0.226456
2161.61	0.200367
2163.06	-0.0150108
2164.5	1.01695
2165.94	0.441847
2167.38	0.92902
2168.83	0.367117
2170.27	0.266388
2171.71	0.14431
2173.15	0.849751
2174.59	0.786861
2176.03	0.589651
2177.47	-0.0725899
2178.91	0.713421
2180.36	0.304522
2181.8	0.911777
2183.23	0.555983
2184.67	0.79949
2186.11	0.327913
2187.55	0.322104
2188.99	0.382967
2190.43	0.144196
2191.87	0.33762
2193.3	0.645994
2194.74	0.635098
2196.18	0.486975
2197.62	1.01666
2199.05	0.294817
2200.49	0.402411
2201.93	-0.0715637
2203.36	0.0372601
2204.8	0.297596
2206.23	0.427376
2207.67	0.988966
2209.1	0.638903
2210.54	0.999098
2211.97	0.248362
2213.41	-0.0402393
2214.84	0.447609
2216.27	0.0117912
2217.71	0.618355
2219.14	-0.0756035
2220.57	0.304415
2222.01	0.964676
2223.44	0.238972
2224.87	0.334135
2226.3	0.293678
2227.73	0.0358372
2229.16	-0.207964
2230.6	-0.0428276
2232.03	-0.0423946
2233.46	0.989857
2234.89	0.33749
2236.32	0.881634
2237.75	-0.105946
2239.18	1.03306
2240.61	0.560997
2242.03	0.876146
2243.46	0.492828
2244.89	0.909548
2246.32	0.3461
2247.75	0.137943
2249.17	0.0880833
2250.6	0.63604
2252.03	0.625713
2253.46	0.353279
2254.88	0.894367
2256.31	-0.136791
2257.73	0.899345
2259.16	-0.0215759
2260.59	0.702879
2262.01	0.475681
2263.44	0.479313
2264.86	0.711143
2266.29	0.519634
2267.71	0.716537
2269.14	-0.178905
2270.56	0.030241
2271.98	0.0592556
2273.4	0.609051
2274.83	0.621729
2276.25	0.292698
2277.67	1.00699
2279.09	0.336113
2280.52	0.10504
2281.94	0.477057
2283.36	0.0659428
2284.78	-0.11681
2286.2	0.484339
2287.62	0.237621
2289.04	0.596111
2290.46	0.0897541
2291.88	0.49906
2293.3	0.320242
2294.72	0.615704
2296.14	0.452906
2297.56	0.53548
2298.98	0.683769
2300.4	0.390118
2301.82	-0.41151
2303.23	-0.097681
2304.65	-0.0293999
2306.07	-0.256838
2307.49	0.17198
2308.9	0.30406
2310.32	0.648676
2311.73	0.532017
2313.15	-0.440397
2314.57	0.54615
2315.98	0.514215
2317.4	0.335766
2318.81	-0.253977
2320.23	-0.0861912
2321.64	0.277298
2323.06	0.224133
2324.47	0.908321
2325.88	0.811569
2327.3	0.991316
2328.71	1.03724
2330.12	0.111784
2331.54	0.374641
2332.95	0.0802746
2334.36	0.0841827
2335.77	0.351862
2337.18	0.371689
2338.6	0.17556
2340.01	0.305637
2341.42	0.384144
2342.83	-0.178623
2344.24	0.325272
2345.65	0.730804
2347.06	0.677891
2348.47	0.084938
2349.88	-0.0828114
2351.29	-0.595331
2352.7	0.148401
2354.1	0.0891514
2355.51	0.191456
2356.92	0.015995
2358.33	0.751659
2359.74	-0.414869
2361.14	-0.199158
2362.55	-0.032568
2363.96	-0.141893
2365.36	0.250437
2366.77	0.222176
2368.18	0.437523
2369.58	0.606462
2370.99	0.375225
2372.39	0.533985
2373.8	0.0507946
2375.2	0.132261
2376.61	0.486334
2378.01	-0.143297
2379.42	0.381334
2380.82	-0.286606
2382.22	0.438696
2383.63	0.231401
2385.03	0.0720501
2386.43	0.00188255
2387.84	-0.066103
2389.24	0.514446
2390.64	0.252554
2392.04	-0.706774
2393.44	-0.182976
2394.84	0.898792
2396.25	-0.0695286
2397.65	0.0767517
2399.05	0.319592
2400.45	-0.103756
2401.85	-0.0973892
2403.25	0.0996418
2404.65	-0.0694141
2406.05	0.45812
2407.45	0.0628815
2408.84	0.395758
2410.24	0.315418
2411.64	0.330732
2413.04	0.268705
2414.44	0.367929
2415.83	0.787079
2417.23	-0.0888805
2418.63	-0.1238
2420.02	-0.26877
2421.42	0.583874
2422.82	-0.354214
2424.21	-0.0889835
2425.61	-0.172171
2427	-0.143284
2428.4	0.505806
2429.8	0.0314693
2431.19	-0.171999
2432.58	0.43429
2433.98	0.166479
2435.37	0.165998
2436.77	0.257536
2438.16	-0.416952
2439.55	0.0654831
2440.95	0.0374908
2442.34	0.00831413
2443.73	0.0261307
2445.12	0.106991
2446.51	0.139872
2447.91	-0.0335827
2449.3	-0.0960312
2450.69	0.633749
2452.08	-0.503468
2453.47	-0.0875969
2454.86	-0.334475
2456.25	0.116261
2457.64	0.314554
2459.03	0.449209
2460.42	-0.144918
2461.81	0.160606
2463.2	0.274529
2464.59	-0.0395145
2465.98	-0.0697021
2467.36	0.152498
2468.75	-0.114737
2470.14	0.0594139
2471.53	-0.240484
2472.92	0.324879
2474.3	0.258114
2475.69	0.111345
2477.08	0.16831
2478.46	-0.465916
2479.85	-0.0317097
2481.23	0.261078
2482.62	-0.371105
2484	-0.533648
2485.39	0.0372734
2486.77	0.0108852
2488.16	-0.173897
2489.54	0.80896
2490.93	-0.000879288
2492.31	0.342789
2493.69	-0.352257
2495.08	0.244574
2496.46	0.440178
2497.84	-0.0905495
2499.23	-0.743765
2500.61	0.443819
2501.99	-0.226717
2503.37	-0.357801
2504.75	-0.444284
2506.13	0.0227699
2507.52	0.672943
2508.9	0.153585
2510.28	0.358101
2511.66	0.594328
2513.04	0.218758
2514.42	-0.0470333
2515.8	0.362953
2517.18	0.284657
2518.55	-0.159256
2519.93	0.00891495
2521.31	0.39015
2522.69	0.143696
2524.07	-0.287308
2525.45	-0.0486259
2526.82	-0.237274
2528.2	0.183893
2529.58	0.0594845
2530.95	-0.228483
2532.33	-0.315056
2533.71	-0.0340252
2535.08	-0.00972939
2536.46	0.819651
2537.84	-0.296982
2539.21	-0.306625
2540.59	0.319632
2541.96	0.868782
2543.34	-0.144556
2544.71	-0.230181
2546.08	-0.267624
2547.46	1.07795
2548.83	0.04389
2550.2	-0.277205
2551.58	0.432566
2552.95	0.0932426
2554.32	0.00964928
2555.7	0.713068
2557.07	0.429014
2558.44	0.235809
2559.81	0.012991
2561.18	0.00362206
2562.55	0.586689
2563.93	-0.344408
2565.3	-0.244087
2566.67	0.963072
2568.04	-0.102751
2569.41	0.195398
2570.78	0.463257
2572.15	0.231045
2573.51	0.135414
2574.88	-0.520926
2576.25	0.0810642
2577.62	0.410078
2578.99	-0.00435638
2580.36	0.490234
2581.73	0.544176
2583.09	0.445692
2584.46	-0.123259
2585.83	0.217304
2587.19	0.103352
2588.56	0.0504742
2589.93	0.376701
2591.29	0.475317
2592.66	0.0728912
2594.02	-0.270546
2595.39	0.428923
2596.75	0.53525
2598.12	0.443056
2599.48	0.531567
2600.85	0.272694
2602.21	-0.0603008
2603.58	0.136818
2604.94	0.0181141
2606.3	-0.205662
2607.67	0.143032
2609.03	0.534817
2610.39	0.0348454
2611.76	0.390587
2613.12	0.111664
2614.48	-0.4688
2615.84	0.526947
2617.2	-0.0677814
2618.56	0.687824
2619.92	-0.202164
2621.28	0.450937
2622.65	0.596237
2624.01	-0.0196743
2625.37	0.409687
2626.72	0.107235
2628.08	0.489958
2629.44	0.246086
2630.8	0.121168
2632.16	-0.494347
2633.52	-0.35141
2634.88	0.191978
2636.24	0.408176
2637.59	0.401739
2638.95	0.602728
2640.31	0.00484467
2641.67	0.354589
2643.02	-0.181929
2644.38	0.16844
2645.74	0.518167
2647.09	-0.106419
2648.45	0.211189
2649.8	0.541206
2651.16	0.266357
2652.51	0.270435
2653.87	0.260332
2655.22	0.398453
2656.58	-0.471821
2657.93	0.256933
2659.29	-0.505341
2660.64	-0.0231552
2661.99	-0.00939178
2663.35	0.2514
2664.7	0.116032
2666.05	0.620991
2667.41	0.118568
2668.76	-0.310417
2670.11	0.23671
2671.46	-0.393526
2672.81	0.0827122
2674.16	-0.311594
2675.51	-0.00756264
2676.87	0.0942898
2678.22	0.255489
2679.57	0.157404
2680.92	0.148586
2682.27	0.519287
2683.62	-0.281918
2684.97	0.369001
2686.31	0.0491791
2687.66	-0.314743
2689.01	0.102652
2690.36	-0.00605965
2691.71	0.694187
2693.06	0.578228
2694.4	0.69228
2695.75	0.443512
2697.1	0.601931
2698.45	0.0534649
2699.79	0.0300522
2701.14	0.227526
2702.49	0.775892
2703.83	0.153194
2705.18	0.4879
2706.52	0.721506
2707.87	0.345274
2709.21	0.054985
2710.56	0.271944
2711.9	0.502993
2713.25	0.850153
2714.59	1.25552
2715.94	0.468714
2717.28	0.16111
2718.62	0.303776
2719.97	0.40209
2721.31	0.39761
2722.65	0.59585
2723.99	0.909557
2725.34	0.669216
2726.68	1.0976
2728.02	1.32148
2729.36	0.977257
2730.7	0.952908
2732.04	0.608425
2733.39	0.0314789
2734.73	0.473204
2736.07	0.47896
2737.41	0.819515
2738.75	0.854595
2740.08	0.336536
2741.43	0.0647755
2742.76	-0.0773964
2744.1	0.491171
2745.44	0.607695
2746.78	0.389221
2748.12	0.0979671
2749.46	0.0972443
2750.79	0.41601
2752.13	0.575603
2753.47	0.416752
2754.81	0.0120869
2756.14	0.114891
2757.48	0.232462
2758.81	0.582136
2760.15	0.339098
2761.49	0.184002
2762.82	0.594265
2764.16	0.180418
2765.49	-0.132132
2766.83	0.292253
2768.16	-0.0664845
2769.5	0.121769
2770.83	0.509144
2772.16	-0.132156
2773.5	0.206579
2774.83	-0.0186405
2776.17	0.318199
2777.5	-0.150679
2778.83	0.259544
2780.16	0.253529
2781.5	-0.326212
2782.83	-0.35965
2784.16	0.510372
2785.49	0.0176601
2786.82	0.54291
2788.15	-0.0765572
2789.49	0.20763
2790.82	-0.636404
2792.15	-0.234388
2793.48	-0.432014
2794.81	0.513882
2796.14	0.272707
2797.46	-0.612226
2798.79	0.601233
2800.12	0.242887
2801.45	-0.0871563
2802.78	0.438208
2804.11	0.449474
2805.44	0.231932
2806.76	0.184195
2808.09	0.377001
2809.42	0.540226
2810.75	-0.304985
2812.07	0.356514
2813.4	-0.568922
2814.73	-0.0444794
2816.05	-0.0418453
2817.38	0.189859
2818.7	0.422771
2820.03	-0.109667
2821.36	0.0514908
2822.68	-0.0154781
2824.01	0.893896
2825.33	0.314861
2826.65	0.189358
2827.98	0.0649776
2829.3	0.57884
2830.63	0.952047
2831.95	1.1275
2833.27	2.0955
2834.6	1.59068
2835.92	2.78313
2837.24	2.23361
2838.56	4.20129
2839.88	4.61185
2841.21	5.30523
2842.53	6.46581
2843.85	6.34159
2845.17	6.71393
2846.49	5.58985
2847.81	6.55831
2849.13	6.39621
2850.45	6.40297
2851.77	6.54983
2853.09	6.0877
2854.41	6.18996
2855.73	6.57432
2857.05	6.74663
2858.37	6.58004
2859.69	6.49821
2861	6.7831
2862.32	7.02477
2863.64	7.0255
2864.96	7.463
2866.28	7.85791
2867.59	8.39427
2868.91	8.32522
2870.23	9.0749
2871.54	9.43008
2872.86	9.51669
2874.17	9.88317
2875.49	10.9651
2876.81	11.6912
2878.12	12.2456
2879.44	12.1095
2880.75	12.354
2882.07	11.1393
2883.38	10.3357
2884.69	9.16994
2886.01	10.1821
2887.32	10.0572
2888.63	9.10338
2889.95	9.41067
2891.26	8.60798
2892.57	10.0329
2893.89	8.85062
2895.2	8.69243
2896.51	9.43209
2897.82	8.77447
2899.13	9.14088
2900.44	9.7329
2901.76	8.87114
2903.07	8.09388
2904.38	9.07941
2905.69	8.8067
2907	9.75217
2908.31	9.31473
2909.62	9.50871
2910.93	9.41015
2912.24	9.98343
2913.55	10.1492
2914.85	10.3818
2916.16	9.93862
2917.47	10.1918
2918.78	10.1209
2920.09	10.1337
2921.4	10.6652
2922.7	10.696
2924.01	10.618
2925.32	10.7663
2926.62	11.1535
2927.93	11.6807
2929.24	11.564
2930.54	11.4321
2931.85	11.6905
2933.15	11.5011
2934.46	11.1859
2935.76	10.9688
2937.07	10.8499
2938.37	9.89305
2939.68	10.8093
2940.98	9.74239
2942.29	9.61351
2943.59	8.956
2944.89	8.76235
2946.2	8.72483
2947.5	7.41533
2948.8	8.00788
2950.11	7.42248
2951.41	6.83333
2952.71	6.77255
2954.01	7.17111
2955.32	7.54078
2956.62	7.18433
2957.92	6.62201
2959.22	7.04494
2960.52	7.06752
2961.82	6.09894
2963.12	6.42116
2964.42	6.56025
2965.72	5.95216
2967.02	5.88831
2968.32	6.10301
2969.62	5.40228
2970.92	5.348
2972.22	5.8289
2973.51	4.97383
2974.81	5.4415
2976.11	4.58466
2977.41	4.04897
2978.71	4.5942
2980	3.72821
2981.3	4.37994
2982.6	2.86407
2983.9	3.52926
2985.19	3.26849
2986.49	3.23557
2987.78	3.07902
2989.08	2.93846
2990.38	2.98113
2991.67	2.44664
2992.97	2.54262
2994.26	2.38322
2995.56	1.6178
2996.85	1.63783
2998.14	2.02231
2999.44	1.39699
3000.73	1.24995
3002.03	1.38447
3003.32	1.36557
3004.61	0.954688
3005.91	0.893675
3007.2	0.915557
3008.49	1.22967
3009.78	0.297304
3011.07	0.734093
3012.37	0.499302
3013.66	0.571795
3014.95	0.394077
3016.24	0.73339
3017.53	0.850994
3018.82	0.565969
3020.11	0.615205
3021.4	0.0381126
3022.69	-0.359209
3023.98	0.46349
3025.27	0.617819
3026.56	-0.184199
3027.85	-0.0013361
3029.14	0.00360203
3030.43	-0.375468
3031.71	0.27058
3033	0.117462
3034.29	0.544701
3035.58	0.460215
3036.87	0.786907
3038.15	0.159127
3039.44	0.189499
3040.73	0.0106812
3042.01	0.160045
3043.3	0.240396
3044.59	-0.0884104
3045.87	-0.167175
3047.16	-0.432903
3048.44	-0.161446
3049.73	0.373094
3051.01	-0.167545
3052.3	0.262291
3053.58	-0.140142
3054.87	-0.352628
3056.15	0.278662
3057.43	0.593921
3058.72	0.498645
3060	0.402999
3061.29	-0.168055
3062.57	0.147429
3063.85	0.560467
3065.13	0.364567
3066.42	0.239388
3067.7	-0.0742025
3068.98	0.197639
3070.26	0.686707
3071.54	-0.14505
3072.82	0.3538
3074.11	0.265552
3075.39	0.0805302
3076.67	0.125987
3077.95	0.172221
3079.23	0.152669
3080.51	0.217391
3081.79	0.0274115
3083.07	0.28747
3084.35	0.548984
3085.63	-0.478538
3086.9	0.230251
3088.18	-0.43305
3089.46	0.313991
3090.74	0.164425
3092.02	0.00114346
3093.29	-0.310923
3094.57	0.340582
3095.85	0.0704498
3097.13	-0.429805
3098.4	0.357659
3099.68	-0.115568
3100.95	-0.141612
3102.23	0.0356817
3103.51	0.294686
3104.78	0.162079
3106.06	0.612904
3107.33	0.064044
3108.61	0.599856
3109.88	0.379888
3111.16	0.080493
3112.43	0.446099
3113.71	0.514742
3114.98	0.610582
3116.25	0.85483
3117.53	0.215998
3118.8	0.280362
3120.07	0.274982
3121.35	0.362874
3122.62	0.680076
3123.89	0.942535
3125.16	0.650064
3126.44	0.859498
3127.71	1.11055
3128.98	0.564567
3130.25	1.1419
3131.52	0.462089
3132.79	0.539271
3134.06	1.10204
3135.33	0.232431
3136.6	0.631021
3137.87	0.906935
3139.14	0.696888
3140.41	0.958065
3141.68	1.07106
3142.95	1.30548
3144.22	0.855864
3145.49	1.32038
3146.76	0.914306
3148.02	1.43451
3149.29	1.20549
