200.398	0.214534
202.213	0.233978
204.027	0.255191
205.843	-0.354438
207.657	0.349863
209.47	0.299804
211.283	-0.0428905
213.097	0.31724
214.909	-0.197621
216.721	-0.251829
218.533	0.0817747
220.344	-0.334439
222.157	-0.144037
223.967	-0.145941
225.777	0.457252
227.587	0.528779
229.396	0.57577
231.205	-0.295016
233.016	0.0650854
234.824	-0.27389
236.632	-0.20111
238.439	0.211852
240.247	0.266675
242.053	0.758713
243.86	0.288244
245.666	0.97593
247.474	1.46914
249.279	1.52425
251.085	1.71988
252.889	2.03215
254.694	2.29337
256.498	2.21618
258.301	2.42954
260.105	1.77804
261.908	0.816566
263.71	2.21849
265.513	0.682895
267.315	1.17175
269.116	1.2025
270.918	1.73853
272.718	1.38099
274.519	1.62427
276.319	1.35902
278.119	0.657612
279.918	0.724848
281.718	0.452291
283.516	0.22577
285.315	0.934793
287.113	0.681284
288.911	0.260451
290.708	0.512184
292.505	0.501983
294.302	0.13515
296.098	-0.324894
297.894	-0.257294
299.69	0.456072
301.485	-0.0970688
303.278	-0.00623035
305.073	0.703469
306.867	0.242445
308.661	0.0915098
310.454	-0.296823
312.247	-0.230775
314.04	0.12309
315.833	0.336459
317.623	0.0997677
319.415	0.436801
321.206	0.418198
322.997	0.448363
324.788	0.0974035
326.579	-0.0150557
328.367	0.254289
330.156	0.355803
331.946	0.192794
333.735	0.051342
335.523	0.194212
337.31	0.405849
339.098	-0.198769
340.885	-0.470268
342.673	-0.0255117
344.458	0.25146
346.244	0.48108
348.03	-0.172018
349.816	-0.0363312
351.6	-0.306426
353.385	0.138784
355.17	0.773199
356.953	0.21312
358.737	-0.705618
360.521	-0.243464
362.304	0.0978289
364.085	0.176004
365.868	0.253079
367.65	-0.0508165
369.431	-0.426425
371.212	-0.0917873
372.994	-0.255695
374.773	0.785504
376.554	-0.0641222
378.332	-0.0623541
380.112	0.341016
381.892	0.627478
383.669	0.727036
385.448	0.0994587
387.225	0.273005
389.003	0.964696
390.781	1.1172
392.557	0.918517
394.334	0.814648
396.109	1.20444
397.885	1.07771
399.66	1.81974
401.436	2.16189
403.211	1.61056
404.984	1.31651
406.759	1.32671
408.532	1.92294
410.306	1.7438
412.078	1.21269
413.851	1.99635
415.623	2.14734
417.395	2.8392
419.166	2.57001
420.938	2.20728
422.708	2.19618
424.477	2.3014
426.248	1.74791
428.017	1.12274
429.788	1.34194
431.556	0.645645
433.326	0.935526
435.093	0.333969
436.86	0.225207
438.629	0.561436
440.395	0.966024
442.163	0.757736
443.929	-0.0159998
445.694	0.239526
447.461	0.23548
449.226	0.791949
450.99	0.366193
452.756	0.151621
454.52	0.217561
456.285	0.749457
458.048	0.46516
459.811	0.623456
461.573	0.735825
463.337	0.0133457
465.099	0.456225
466.86	0.0894766
468.623	0.609336
470.384	0.597306
472.144	-0.088686
473.906	0.341146
475.666	0.0236855
477.425	0.262253
479.184	0.428427
480.944	-0.0590487
482.703	-0.336756
484.461	0.178792
486.218	0.137802
487.975	0.472451
489.734	0.53033
491.491	1.00983
493.247	0.626584
495.003	0.757373
496.759	-0.00126362
498.516	0.597199
500.271	0.797408
502.025	-0.293823
503.779	0.655478
505.533	1.74554
507.287	0.436274
509.042	0.770429
510.795	0.961352
512.547	0.820645
514.299	0.418995
516.051	1.42705
517.803	0.833604
519.554	1.95519
521.305	1.0774
523.055	1.63227
524.805	0.590101
526.555	0.839186
528.307	0.900393
530.056	1.78157
531.805	1.02164
533.553	1.54884
535.301	1.37189
537.049	1.54372
538.797	1.12947
540.544	0.737662
542.291	0.508609
544.037	0.465609
545.783	1.39852
547.529	0.356603
549.275	0.661956
551.02	0.480566
552.765	0.9243
554.509	0.44301
556.253	0.655506
557.997	1.85965
559.738	0.0209856
561.482	0.833511
563.224	-0.0106888
564.967	0.434264
566.709	0.534854
568.451	0.957761
570.192	0.739111
571.933	0.109498
573.674	0.0786495
575.415	1.22006
577.153	0.276065
578.893	0.274384
580.632	0.687122
582.371	0.64084
584.11	0.66273
585.849	0.453234
587.587	0.93198
589.323	0.672935
591.06	0.435489
592.797	0.634381
594.534	0.53389
596.271	1.03157
598.005	-0.403395
599.741	-0.0673428
601.476	-0.0314951
603.211	-0.204334
604.944	-0.241058
606.679	0.0881186
608.413	-0.158347
610.147	0.903382
611.878	0.244135
613.611	0.480701
615.344	1.17634
617.077	0.840716
618.807	1.03138
620.539	0.464915
622.27	1.29278
623.999	0.518026
625.73	0.361007
627.461	0.59362
629.189	-0.175506
630.919	0.268126
632.648	0.212431
634.376	0.820071
636.105	0.0122232
637.833	0.252059
639.559	0.830535
641.287	0.993754
643.013	0.651827
644.74	1.17379
646.467	0.898897
648.192	0.308737
649.918	1.15486
651.642	1.05175
653.368	1.45421
655.091	0.292472
656.816	0.202059
658.538	0.910569
660.263	1.55159
661.987	0.867
663.708	2.18913
665.432	0.948366
667.153	1.16753
668.875	0.722293
670.596	1.19273
672.318	0.453273
674.037	0.357539
675.759	0.402102
677.478	0.861475
679.196	0.265564
680.917	0.172937
682.635	-0.382363
684.355	0.60111
686.072	0.799738
687.791	0.881027
689.508	0.546139
691.224	0.647818
692.942	0.333954
694.658	0.134261
696.376	0.946475
698.091	0.168161
699.805	0.60826
701.522	0.356303
703.236	0.333148
704.95	0.584607
706.665	1.36275
708.379	0.831923
710.093	0.759597
711.806	1.46524
713.518	0.522262
715.23	1.27174
716.943	0.558431
718.655	1.10116
720.366	0.82261
722.078	1.02291
723.788	0.904395
725.498	1.14962
727.208	1.03054
728.919	0.252921
730.628	1.15378
732.337	1.05576
734.045	0.663457
735.755	1.31164
737.463	0.423534
739.17	0.214754
740.877	1.24738
742.584	0.860953
744.292	1.19726
745.998	1.04014
747.704	1.17754
749.409	1.27174
751.114	0.985378
752.819	0.183458
754.526	0.417996
756.23	0.879684
757.934	1.14122
759.637	0.594032
761.34	1.37784
763.043	0.945214
764.746	1.27931
766.448	0.550404
768.152	1.15193
769.853	1.1856
771.554	0.651052
773.255	1.9009
774.956	1.72534
776.656	2.36445
778.356	2.16883
780.056	1.88493
781.755	2.19075
783.454	1.68233
785.153	1.51164
786.851	1.24709
788.549	0.97824
790.247	1.02174
791.944	1.28737
793.641	0.82761
795.338	1.72173
797.034	1.39832
798.73	1.39299
800.426	1.25516
802.121	1.47943
803.817	1.38965
805.511	1.32224
807.206	1.29868
808.9	1.61033
810.592	1.78525
812.286	1.91365
813.979	1.68245
815.672	1.89897
817.364	1.17555
819.057	1.61557
820.748	1.85408
822.44	1.71339
824.129	1.77471
825.82	1.48135
827.511	1.50309
829.201	1.10555
830.891	1.71449
832.581	1.14699
834.269	1.31763
835.958	1.44534
837.646	1.88546
839.335	1.94482
841.023	1.13079
842.709	1.69958
844.396	1.73149
846.084	1.29494
847.77	1.91148
849.455	2.44272
851.141	1.36633
852.827	0.918394
854.513	0.919685
856.196	0.808514
857.881	1.77483
859.566	0.782805
861.248	1.58811
862.932	2.09908
864.616	0.873214
866.297	0.9527
867.98	0.490114
869.663	0.567963
871.343	0.758185
873.026	0.226225
874.707	0.00988388
876.387	1.30548
878.068	0.863563
879.747	0.331108
881.428	0.904202
883.108	0.889391
884.786	0.805329
886.465	0.719283
888.143	0.428023
889.822	1.14953
891.498	1.28211
893.177	1.0972
894.855	0.775818
896.53	1.26276
898.208	0.916268
899.883	1.04024
901.56	0.871392
903.234	0.590252
904.91	1.42689
906.584	0.610008
908.26	1.1336
909.933	0.27655
911.608	0.401403
913.28	1.41604
914.955	1.31902
916.627	0.867353
918.298	0.527237
919.972	0.763535
921.643	0.845348
923.315	1.03912
924.986	0.461845
926.656	0.329444
928.328	0.81756
929.997	0.821793
931.668	0.804985
933.337	0.987164
935.006	1.34601
936.676	0.6688
938.344	1.51468
940.012	1.21554
941.681	0.454885
943.348	0.974835
945.014	1.1859
946.683	1.4616
948.349	1.24895
950.015	0.569985
951.682	0.48518
953.347	1.08415
955.012	0.494328
956.676	0.305481
958.343	0.628589
960.006	1.55215
961.67	0.646111
963.333	1.33022
964.998	0.951105
966.661	0.457061
968.323	0.445465
969.985	0.961685
971.649	0.503081
973.31	0.310644
974.971	0.739504
976.632	1.30381
978.293	0.786736
979.953	0.701963
981.615	0.616623
983.274	0.717474
984.933	0.483385
986.592	0.0913391
988.251	1.84291
989.909	0.627733
991.567	0.650446
993.225	0.319443
994.884	1.2251
996.541	1.71073
998.198	2.15168
999.855	2.34933
1001.51	2.83237
1003.17	2.49977
1004.82	1.74921
1006.48	1.26322
1008.13	1.04161
1009.79	0.864689
1011.44	1.47816
1013.1	1.60941
1014.75	0.974522
1016.4	1.63258
1018.06	0.671597
1019.71	0.500105
1021.36	1.20487
1023.01	1.6924
1024.66	1.0449
1026.32	1.49115
1027.97	1.69703
1029.62	1.2028
1031.27	1.40576
1032.92	1.99897
1034.57	1.54155
1036.22	2.06356
1037.87	0.971237
1039.52	1.18651
1041.16	1.40246
1042.81	2.12014
1044.46	2.34023
1046.11	2.56347
1047.76	2.85506
1049.4	2.65004
1051.05	3.27259
1052.7	3.4189
1054.34	2.63163
1055.99	3.06116
1057.63	2.53388
1059.28	2.74483
1060.92	1.911
1062.57	1.72811
1064.21	1.15234
1065.85	0.488087
1067.5	0.822165
1069.14	0.828577
1070.78	0.204153
1072.43	0.708803
1074.07	0.909966
1075.71	0.635406
1077.35	0.688389
1078.99	1.09033
1080.63	0.712866
1082.27	0.725788
1083.91	0.737392
1085.55	0.312927
1087.19	0.752298
1088.83	0.494991
1090.47	-0.457132
1092.11	-0.134062
1093.75	0.576349
1095.39	0.206827
1097.03	0.679939
1098.66	0.4867
1100.3	-0.0695171
1101.94	-0.299433
1103.57	0.656715
1105.21	0.195004
1106.84	0.336584
1108.48	0.0906315
1110.11	0.423658
1111.75	0.582077
1113.38	0.737774
1115.02	0.805346
1116.65	0.50713
1118.29	0.380941
1119.92	0.148853
1121.55	0.282631
1123.19	0.674786
1124.82	0.875706
1126.45	0.414873
1128.08	0.575672
1129.71	0.844494
1131.34	0.451454
1132.97	-0.00512505
1134.6	0.350473
1136.23	-0.812407
1137.86	0.224459
1139.49	0.0626793
1141.12	0.0915794
1142.75	0.0982609
1144.38	0.105125
1146.01	-0.0788364
1147.64	-0.218506
1149.26	-0.186268
1150.89	0.18755
1152.52	0.0288792
1154.15	-0.0876598
1155.77	0.412455
1157.4	0.741825
1159.02	0.709969
1160.65	0.0841141
1162.27	1.1187
1163.9	0.326368
1165.52	0.938206
1167.15	0.635441
1168.77	-0.00912666
1170.39	0.72542
1172.02	0.585224
1173.64	0.973036
1175.26	-0.233004
1176.89	0.173046
1178.51	0.239836
1180.13	-0.00988579
1181.75	0.546011
1183.37	0.806377
1184.99	-0.433655
1186.61	0.142429
1188.23	0.567398
1189.85	0.608952
1191.47	0.0998497
1193.09	0.830006
1194.71	0.108047
1196.33	0.0799847
1197.94	0.32563
1199.56	0.510719
1201.18	1.05447
1202.8	1.20514
1204.41	0.23313
1206.03	0.600679
1207.65	1.2833
1209.26	0.860752
1210.88	0.145079
1212.49	0.761435
1214.11	1.06101
1215.72	1.10653
1217.34	1.10724
1218.95	0.960684
1220.57	1.39543
1222.18	1.72672
1223.79	1.04425
1225.41	1.62847
1227.02	1.24199
1228.63	1.87183
1230.24	2.37934
1231.85	1.60714
1233.47	1.6434
1235.08	2.15718
1236.69	1.41234
1238.3	1.64072
1239.91	1.43618
1241.52	1.43875
1243.13	1.64769
1244.74	1.85542
1246.34	1.15098
1247.95	1.39665
1249.56	1.47548
1251.17	2.42259
1252.78	1.44615
1254.38	2.20852
1255.99	2.4143
1257.6	1.4018
1259.2	1.48761
1260.81	2.05112
1262.42	1.53915
1264.02	1.15117
1265.63	1.81914
1267.23	2.36191
1268.84	1.16179
1270.44	1.95008
1272.04	2.15606
1273.65	1.59312
1275.25	1.69195
1276.85	1.14674
1278.46	1.5741
1280.06	0.736982
1281.66	1.03842
1283.26	1.71211
1284.86	1.86918
1286.46	1.44884
1288.07	1.77457
1289.67	1.77115
1291.27	1.29341
1292.87	2.42726
1294.47	2.09283
1296.06	1.50853
1297.66	2.20181
1299.26	1.92177
1300.86	2.73213
1302.46	2.1794
1304.06	1.44071
1305.65	2.20306
1307.25	2.12085
1308.85	2.44862
1310.44	1.91491
1312.04	2.2428
1313.64	3.00087
1315.23	2.83978
1316.83	2.08862
1318.42	2.70661
1320.02	1.95761
1321.61	2.43044
1323.2	2.59449
1324.8	2.53144
1326.39	3.31862
1327.99	2.27798
1329.58	3.24549
1331.17	2.73713
1332.76	2.19345
1334.36	1.91714
1335.95	2.53202
1337.54	2.94562
1339.13	2.45059
1340.72	2.41658
1342.31	2.7209
1343.9	2.07623
1345.49	2.05338
1347.08	2.09082
1348.67	2.6519
1350.26	2.77608
1351.85	2.06476
1353.43	2.09763
1355.02	2.4327
1356.61	2.38868
1358.2	0.82576
1359.78	1.55875
1361.37	1.79028
1362.96	1.32187
1364.54	1.39165
1366.13	2.11923
1367.71	2.3695
1369.3	1.8653
1370.88	1.88137
1372.47	0.98461
1374.05	1.40319
1375.64	1.52451
1377.22	1.42719
1378.8	1.38873
1380.39	2.08476
1381.97	1.44544
1383.55	1.10249
1385.13	1.57303
1386.72	2.51911
1388.3	1.18088
1389.88	1.35353
1391.46	0.912495
1393.04	1.84192
1394.62	1.08579
1396.2	1.85657
1397.78	1.07952
1399.36	1.09391
1400.94	0.888765
1402.52	1.92987
1404.1	1.28814
1405.68	2.03212
1407.25	1.15621
1408.83	1.48774
1410.41	2.0768
1411.98	2.40878
1413.56	1.37745
1415.14	2.18036
1416.71	1.46243
1418.29	1.92713
1419.87	2.11608
1421.44	1.93262
1423.02	1.85054
1424.59	2.854
1426.16	2.56073
1427.74	2.01266
1429.31	2.17273
1430.89	2.27215
1432.46	2.66464
1434.03	3.78304
1435.6	3.50354
1437.18	3.89303
1438.75	3.59575
1440.32	4.34218
1441.89	3.34131
1443.46	4.36612
1445.03	4.36979
1446.6	4.2166
1448.17	4.10301
1449.74	4.83532
1451.31	3.62218
1452.88	4.21898
1454.45	4.18734
1456.02	4.76561
1457.59	4.08344
1459.16	3.83164
1460.72	3.53719
1462.29	3.53437
1463.86	3.09574
1465.43	2.87163
1466.99	3.47208
1468.56	2.38405
1470.13	2.53504
1471.69	2.23678
1473.26	2.5879
1474.82	1.74417
1476.38	1.60734
1477.95	2.25494
1479.51	2.1574
1481.08	1.02094
1482.64	1.33481
1484.2	2.05985
1485.77	1.60863
1487.33	2.09635
1488.89	0.838997
1490.46	0.499302
1492.02	1.29038
1493.58	1.70506
1495.14	1.53028
1496.7	1.3344
1498.26	1.35259
1499.82	0.41935
1501.38	1.02377
1502.94	1.72597
1504.5	0.219643
1506.06	0.826609
1507.62	1.02527
1509.18	1.41492
1510.73	0.682451
1512.29	1.5883
1513.85	1.87523
1515.41	1.77722
1516.96	1.45018
1518.52	1.04859
1520.08	1.53019
1521.63	0.633408
1523.19	0.751108
1524.75	1.47812
1526.3	1.85833
1527.85	1.11235
1529.41	0.234276
1530.96	1.02956
1532.52	0.837456
1534.07	0.382307
1535.62	1.2541
1537.18	1.55879
1538.73	0.977011
1540.28	1.67934
1541.84	1.55163
1543.39	1.38636
1544.94	1.14583
1546.49	0.999332
1548.04	1.20934
1549.59	1.7937
1551.14	1.42224
1552.69	1.55751
1554.25	1.28298
1555.79	1.36622
1557.34	2.06846
1558.89	1.91534
1560.44	1.48601
1561.99	1.02236
1563.54	1.49351
1565.08	1.74194
1566.63	1.52413
1568.18	1.56716
1569.73	1.31088
1571.27	1.42723
1572.82	1.44975
1574.37	2.27471
1575.91	2.55837
1577.46	2.24505
1579	1.89511
1580.55	2.19974
1582.09	1.85225
1583.64	2.17865
1585.18	2.31976
1586.73	2.29365
1588.27	1.81892
1589.81	1.82996
1591.35	1.93384
1592.9	2.31782
1594.44	1.7837
1595.98	2.57957
1597.52	2.73947
1599.06	2.84448
1600.61	2.27563
1602.15	2.30766
1603.69	2.60264
1605.23	2.85914
1606.77	1.57233
1608.31	2.46181
1609.85	3.06524
1611.39	2.96885
1612.93	4.01433
1614.46	2.5223
1616	2.92565
1617.54	3.1231
1619.08	2.46071
1620.61	2.77553
1622.15	2.66212
1623.69	1.87639
1625.23	2.289
1626.76	2.79372
1628.3	2.17324
1629.83	2.78492
1631.37	2.59032
1632.9	2.45119
1634.44	2.51806
1635.97	2.8662
1637.51	2.86141
1639.04	2.24261
1640.57	3.24579
1642.11	2.75673
1643.64	3.68123
1645.17	3.15085
1646.71	3.34463
1648.24	3.12869
1649.77	4.2878
1651.3	3.79572
1652.83	4.01145
1654.36	3.89552
1655.89	4.05899
1657.42	4.01848
1658.96	3.34679
1660.48	4.1172
1662.01	3.57034
1663.54	3.41018
1665.07	3.93254
1666.6	3.5319
1668.13	3.22612
1669.66	3.69773
1671.19	4.09813
1672.71	3.22951
1674.24	2.98844
1675.77	3.44672
1677.29	3.11183
1678.82	2.5912
1680.35	3.08032
1681.87	2.88754
1683.4	2.47397
1684.92	2.50146
1686.45	2.71294
1687.97	2.30185
1689.5	2.55145
1691.02	2.87451
1692.54	2.42879
1694.07	1.52612
1695.59	2.37914
1697.11	2.00654
1698.64	0.73892
1700.16	1.95409
1701.68	1.52531
1703.2	1.33299
1704.72	1.28564
1706.25	2.1291
1707.77	0.970797
1709.29	1.48541
1710.81	1.27334
1712.33	1.8054
1713.85	1.39474
1715.37	1.6728
1716.89	1.38957
1718.41	1.43186
1719.92	1.16697
1721.44	1.29976
1722.96	1.64968
1724.48	1.5145
1725.99	1.03975
1727.51	1.08986
1729.03	0.943825
1730.55	1.70651
1732.06	1.08239
1733.58	1.02882
1735.09	0.55411
1736.61	0.720472
1738.13	1.28386
1739.64	0.688871
1741.15	0.505774
1742.67	1.00193
1744.18	1.18548
1745.7	1.29839
1747.21	1.19535
1748.72	0.776211
1750.24	1.03746
1751.75	0.923895
1753.26	1.32857
1754.77	1.52399
1756.29	0.606129
1757.8	1.26877
1759.31	0.943895
1760.82	0.624548
1762.33	1.11553
1763.84	0.622639
1765.35	1.31436
1766.86	0.803783
1768.37	0.364725
1769.88	0.960644
1771.39	0.844162
1772.9	0.781624
1774.4	0.404036
1775.91	0.82954
1777.42	0.349676
1778.93	0.696091
1780.44	1.16442
1781.94	1.12182
1783.45	1.10591
1784.96	0.684757
1786.46	0.659496
1787.97	0.889921
1789.47	0.481897
1790.98	0.491085
1792.48	0.66111
1793.99	0.444296
1795.49	0.357433
1797	0.660337
1798.5	-0.0451832
1800.01	0.59432
1801.51	0.814457
1803.01	0.400368
1804.51	0.607479
1806.02	0.379026
1807.52	0.782764
1809.02	0.740467
1810.52	0.211645
1812.02	0.706064
1813.52	0.555639
1815.02	0.613129
1816.53	0.317003
1818.03	0.780931
1819.52	0.0352993
1821.02	0.45125
1822.52	0.58243
1824.02	0.476425
1825.52	1.04932
1827.02	0.391821
1828.52	0.353991
1830.02	-0.0921383
1831.51	0.41128
1833.01	0.0448532
1834.51	0.2113
1836.01	0.56587
1837.5	0.436848
1839	0.772848
1840.49	0.168911
1841.99	0.398754
1843.49	0.557549
1844.98	0.241699
1846.48	-0.0597973
1847.97	0.628393
1849.47	0.570755
1850.96	0.69628
1852.45	0.578854
1853.95	0.0433788
1855.44	0.286642
1856.93	0.224072
1858.42	0.447981
1859.92	0.386005
1861.41	0.532953
1862.9	-0.110945
1864.39	0.0751019
1865.88	0.362307
1867.38	0.48448
1868.87	0.555449
1870.36	-0.123352
1871.85	0.256586
1873.34	0.00840569
1874.83	0.303675
1876.32	0.171246
1877.81	0.287006
1879.29	-0.162979
1880.78	0.170589
1882.27	-0.148439
1882.53	-0.242687
1884.03	0.0162277
1885.52	0.0644588
1887.01	0.128525
1888.51	0.330885
1890	0.4464
1891.5	0.111446
1892.99	-0.324737
1894.48	0.0595188
1895.97	0.0466347
1897.47	0.122202
1898.96	0.371553
1900.45	-0.337683
1901.94	0.272329
1903.43	0.513744
1904.92	0.630676
1906.41	-0.105282
1907.9	-0.0764503
1909.39	0.52622
1910.88	0.401379
1912.37	0.399679
1913.86	0.676516
1915.35	0.623955
1916.84	0.518801
1918.33	0.222075
1919.81	0.271257
1921.3	0.372213
1922.79	-0.0109825
1924.28	0.0403824
1925.76	0.561167
1927.25	0.754972
1928.73	0.430584
1930.22	0.0021534
1931.71	-0.168001
1933.19	-0.18483
1934.68	-0.187427
1936.16	0.0838737
1937.65	0.370049
1939.13	0.551355
1940.62	-0.130384
1942.1	0.0703373
1943.58	-0.0377674
1945.07	-0.264964
1946.55	0.00857353
1948.03	-0.0975933
1949.51	0.397934
1951	-0.486189
1952.48	-0.3901
1953.96	0.117563
1955.44	-0.0113754
1956.92	0.0666122
1958.4	0.0599174
1959.88	0.208933
1961.36	0.135883
1962.84	0.38892
1964.32	-0.00962448
1965.8	0.0707951
1967.28	0.372412
1968.76	0.279087
1970.24	-0.0715599
1971.72	0.0902328
1973.2	0.302914
1974.67	-0.303216
1976.15	-0.141205
1977.63	-0.302719
1979.1	-0.310637
1980.58	0.667971
1982.06	0.353083
1983.54	-0.267644
1985.01	0.469826
1986.49	-0.185007
1987.96	0.177954
1989.44	0.185335
1990.91	0.938503
1992.39	-0.0157166
1993.86	0.283825
1995.33	-0.0237713
1996.81	0.818394
1998.28	-0.197754
1999.75	0.339203
2001.23	0.233397
2002.7	0.0930824
2004.17	0.896704
2005.65	0.23423
2007.12	0.0789776
2008.59	0.834791
2010.06	0.11034
2011.53	-0.208935
2013	0.0947189
2014.47	-0.140967
2015.94	0.81661
2017.41	0.611483
2018.88	0.186474
2020.35	0.920246
2021.82	0.443886
2023.29	0.908577
2024.76	-0.0350542
2026.23	0.399494
2027.69	0.048193
2029.16	0.471113
2030.63	0.863007
2032.1	0.0486412
2033.56	0.527214
2035.03	0.687044
2036.5	0.0567322
2037.96	0.517334
2039.43	0.170725
2040.89	0.412226
2042.36	-0.0348549
2043.83	0.79744
2045.29	-0.117988
2046.75	0.566442
2048.22	0.662589
2049.68	0.353763
2051.15	0.413772
2052.61	0.8758
2054.07	0.47447
2055.54	0.255535
2057	0.253407
2058.46	0.738532
2059.92	0.481866
2061.39	0.209314
2062.85	0.0898867
2064.31	0.123762
2065.77	0.277203
2067.23	0.0955591
2068.69	0.23472
2070.15	0.357646
2071.61	0.144005
2073.07	0.553055
2074.53	-0.183337
2075.99	0.847794
2077.45	0.110103
2078.91	0.0284805
2080.37	-0.0370846
2081.82	0.452
2083.28	0.619905
2084.74	0.281567
2086.2	-0.0746689
2087.65	0.812553
2089.11	0.353745
2090.57	0.214182
2092.02	0.561491
2093.48	0.555907
2094.94	0.801427
2096.39	0.459172
2097.85	-0.00105095
2099.3	-0.0767698
2100.76	0.0812025
2102.21	0.48997
2103.66	0.0479984
2105.12	0.743687
2106.57	0.490304
2108.03	-0.144647
2109.48	0.271805
2110.93	0.887141
2112.38	0.0833292
2113.84	0.842749
2115.29	0.400206
2116.74	0.738173
2118.19	0.428333
2119.64	0.669068
2121.09	0.282529
2122.54	0.795242
2123.99	0.199311
2125.45	0.184967
2126.89	0.0209665
2128.34	1.11511
2129.79	0.184572
2131.24	-0.0683374
2132.69	-0.0905743
2134.14	-0.112831
2135.59	-0.133736
2137.04	-0.168697
2138.48	0.26216
2139.93	0.249969
2141.38	0.141376
2142.83	0.00164604
2144.27	-0.219817
2145.72	-0.308841
2147.17	0.280421
2148.61	0.670299
2150.06	0.16431
2151.5	-0.0784283
2152.95	0.422787
2154.39	-0.369729
2155.84	0.427541
2157.28	0.479359
2158.73	0.0520096
2160.17	0.637367
2161.61	1.01052
2163.06	0.375834
2164.5	-0.0413542
2165.94	0.123353
2167.38	0.138617
2168.83	0.634297
2170.27	0.528736
2171.71	0.120112
2173.15	0.0742016
2174.59	0.525043
2176.03	0.326191
2177.47	0.310649
2178.91	-0.551526
2180.36	0.316985
2181.8	0.222666
2183.23	0.0295143
2184.67	-0.695489
2186.11	0.226319
2187.55	0.100251
2188.99	0.556694
2190.43	-0.0187387
2191.87	0.137715
2193.3	0.359584
2194.74	0.712451
2196.18	0.529471
2197.62	0.426447
2199.05	0.786193
2200.49	0.911058
2201.93	0.78644
2203.36	0.513824
2204.8	-0.0218725
2206.23	0.173913
2207.67	-0.242545
2209.1	-0.0959263
2210.54	0.496148
2211.97	0.688874
2213.41	0.119712
2214.84	0.410046
2216.27	0.469913
2217.71	0.201707
2219.14	0.133731
2220.57	0.133195
2222.01	0.594344
2223.44	-0.0663242
2224.87	0.094614
2226.3	0.25248
2227.73	0.275756
2229.16	0.559559
2230.6	0.857814
2232.03	0.417638
2233.46	0.273552
2234.89	0.507152
2236.32	0.105205
2237.75	0.4249
2239.18	-0.0846777
2240.61	0.535026
2242.03	0.195334
2243.46	0.428647
2244.89	0.417931
2246.32	0.797553
2247.75	0.146886
2249.17	0.161313
2250.6	0.54662
2252.03	0.114446
2253.46	-0.139509
2254.88	0.566058
2256.31	0.266456
2257.73	-0.207213
2259.16	0.638286
2260.59	0.482898
2262.01	0.753708
2263.44	0.26427
2264.86	0.278549
2266.29	-0.114287
2267.71	0.597372
2269.14	0.168823
2270.56	0.0967541
2271.98	0.137768
2273.4	0.618234
2274.83	0.33344
2276.25	0.162913
2277.67	0.139294
2279.09	-0.128761
2280.52	-0.0219927
2281.94	-0.323161
2283.36	-0.053607
2284.78	0.57516
2286.2	-0.133854
2287.62	0.137023
2289.04	0.425176
2290.46	0.0606308
2291.88	-0.0585289
2293.3	0.62378
2294.72	0.979422
2296.14	0.00935936
2297.56	0.28292
2298.98	-0.262326
2300.4	0.192059
2301.82	0.745728
2303.23	0.0535841
2304.65	0.21456
2306.07	0.145647
2307.49	-0.121103
2308.9	0.202759
2310.32	-0.197667
2311.73	0.190517
2313.15	-0.161545
2314.57	-0.00290871
2315.98	0.0253611
2317.4	-0.0768213
2318.81	0.398604
2320.23	0.0989447
2321.64	0.605639
2323.06	0.317139
2324.47	0.338126
2325.88	1.03161
2327.3	0.336363
2328.71	0.431597
2330.12	0.148224
2331.54	-0.0839539
2332.95	0.130308
2334.36	0.197826
2335.77	0.0683327
2337.18	0.02036
2338.6	0.348884
2340.01	0.231464
2341.42	0.81867
2342.83	0.403162
2344.24	-0.175838
2345.65	0.60668
2347.06	0.340466
2348.47	-0.00721455
2349.88	0.00477505
2351.29	0.571193
2352.7	0.351019
2354.1	-0.147775
2355.51	0.0541449
2356.92	0.49929
2358.33	0.390433
2359.74	-0.0754061
2361.14	0.0766439
2362.55	0.0986443
2363.96	0.26617
2365.36	-0.0520868
2366.77	0.147801
2368.18	0.0899973
2369.58	-0.0788422
2370.99	0.0449858
2372.39	-0.054616
2373.8	0.00862408
2375.2	0.217332
2376.61	0.360858
2378.01	0.18076
2379.42	0.608812
2380.82	0.310823
2382.22	0.123218
2383.63	0.0786572
2385.03	-0.0301981
2386.43	-0.0582104
2387.84	-0.0846395
2389.24	0.385265
2390.64	0.330833
2392.04	-0.294609
2393.44	0.355314
2394.84	-0.0595427
2396.25	-0.186686
2397.65	0.688584
2399.05	-0.215179
2400.45	0.455001
2401.85	0.251908
2403.25	-0.109863
2404.65	0.131235
2406.05	0.545342
2407.45	0.211777
2408.84	0.162616
2410.24	-0.0297222
2411.64	-0.237328
2413.04	0.015873
2414.44	0.350232
2415.83	-0.00953197
2417.23	-0.351191
2418.63	-0.137218
2420.02	-0.286812
2421.42	0.307831
2422.82	-0.286132
2424.21	0.14917
2425.61	0.758993
2427	-0.183304
2428.4	0.270527
2429.8	0.472553
2431.19	1.0885
2432.58	0.133686
2433.98	0.209437
2435.37	-0.0344324
2436.77	0.0368662
2438.16	0.312131
2439.55	0.124431
2440.95	0.268743
2442.34	0.0627918
2443.73	0.634033
2445.12	0.427299
2446.51	0.0936308
2447.91	-0.00226307
2449.3	-0.00305557
2450.69	0.20237
2452.08	0.155305
2453.47	0.157071
2454.86	-0.26685
2456.25	0.275447
2457.64	0.12222
2459.03	-0.315948
2460.42	-0.486126
2461.81	0.227831
2463.2	-0.0241022
2464.59	0.0707378
2465.98	-0.419328
2467.36	-0.356635
2468.75	0.431704
2470.14	0.1781
2471.53	-0.280942
2472.92	0.141568
2474.3	-0.0832014
2475.69	-0.104246
2477.08	0.377068
2478.46	0.370673
2479.85	-0.20033
2481.23	0.280382
2482.62	-0.0388031
2484	-0.483501
2485.39	0.369234
2486.77	0.234062
2488.16	0.253357
2489.54	-0.585792
2490.93	0.304559
2492.31	0.369693
2493.69	-0.153506
2495.08	-0.502748
2496.46	0.0496607
2497.84	0.261928
2499.23	0.31958
2500.61	-0.164781
2501.99	-0.0624208
2503.37	0.177082
2504.75	0.198641
2506.13	0.527251
2507.52	0.0697861
2508.9	0.289989
2510.28	0.0497341
2511.66	-0.234974
2513.04	-0.0120173
2514.42	-0.017724
2515.8	0.0239677
2517.18	0.326951
2518.55	-0.0268793
2519.93	0.277027
2521.31	-0.0307465
2522.69	-0.0797901
2524.07	0.57143
2525.45	0.0164537
2526.82	0.436486
2528.2	-0.0868216
2529.58	-0.637963
2530.95	-0.851579
2532.33	0.137997
2533.71	0.187549
2535.08	-0.202271
2536.46	0.668805
2537.84	-0.0867977
2539.21	0.188991
2540.59	-0.371821
2541.96	-0.158813
2543.34	0.0241604
2544.71	0.587691
2546.08	-0.181578
2547.46	-0.205538
2548.83	0.0601664
2550.2	0.38676
2551.58	0.196648
2552.95	-0.0860987
2554.32	0.06952
2555.7	-0.0495043
2557.07	-0.0783939
2558.44	0.0744715
2559.81	0.455091
2561.18	0.548488
2562.55	0.339872
2563.93	0.101987
2565.3	0.395219
2566.67	-0.0233688
2568.04	-0.184205
2569.41	-0.405661
2570.78	-0.202762
2572.15	0.288226
2573.51	0.400444
2574.88	0.376405
2576.25	-0.0266161
2577.62	0.752828
2578.99	0.986105
2580.36	0.33931
2581.73	0.177029
2583.09	0.180918
2584.46	0.199559
2585.83	0.4758
2587.19	0.115602
2588.56	0.104367
2589.93	0.0933084
2591.29	0.203273
2592.66	0.312428
2594.02	-0.170612
2595.39	0.344382
2596.75	0.433391
2598.12	0.505817
2599.48	0.0483494
2600.85	-0.0306501
2602.21	0.102695
2603.58	0.357798
2604.94	0.326946
2606.3	0.100351
2607.67	-0.247252
2609.03	-0.038291
2610.39	0.183488
2611.76	-0.229383
2613.12	0.0782881
2614.48	0.489219
2615.84	0.103566
2617.2	0.243748
2618.56	-0.139477
2619.92	0.421966
2621.28	0.595011
2622.65	0.126212
2624.01	0.24079
2625.37	-0.301452
2626.72	0.0215187
2628.08	0.328574
2629.44	0.709099
2630.8	-0.235466
2632.16	-0.0637608
2633.52	0.137298
2634.88	-0.0775948
2636.24	0.078558
2637.59	0.264071
2638.95	0.197669
2640.31	0.264779
2641.67	0.716602
2643.02	0.326197
2644.38	0.113781
2645.74	0.344099
2647.09	0.381762
2648.45	0.182515
2649.8	0.099968
2651.16	0.369256
2652.51	-0.140875
2653.87	0.318678
2655.22	0.221631
2656.58	0.0240765
2657.93	0.106816
2659.29	0.13244
2660.64	0.421907
2661.99	0.447786
2663.35	0.501831
2664.7	0.204109
2666.05	0.459769
2667.41	0.291588
2668.76	-0.255074
2670.11	-0.0438204
2671.46	0.735022
2672.81	-0.302349
2674.16	0.477775
2675.51	0.474268
2676.87	-0.166635
2678.22	0.339802
2679.57	0.412357
2680.92	0.0517216
2682.27	0.389025
2683.62	0.177377
2684.97	0.315345
2686.31	-0.155233
2687.66	0.520268
2689.01	-0.156017
2690.36	0.210077
2691.71	0.166646
2693.06	0.00464058
2694.4	0.131193
2695.75	0.039917
2697.1	0.0366688
2698.45	-0.398891
2699.79	0.399174
2701.14	-0.00174332
2702.49	0.338376
2703.83	0.361698
2705.18	0.777353
2706.52	0.671328
2707.87	0.245495
2709.21	0.254143
2710.56	0.0733681
2711.9	0.487612
2713.25	0.277039
2714.59	0.356931
2715.94	0.189587
2717.28	0.181893
2718.62	0.130119
2719.97	0.848919
2721.31	0.708553
2722.65	0.261654
2723.99	0.381564
2725.34	0.704524
2726.68	0.895823
2728.02	0.35885
2729.36	0.694707
2730.7	0.229963
2732.04	0.507256
2733.39	-0.0590916
2734.73	0.771332
2736.07	0.0893335
2737.41	0.396616
2738.75	0.0348463
2740.08	0.385272
2741.43	0.705746
2742.76	0.181855
2744.1	0.093051
2745.44	0.16308
2746.78	0.319473
2748.12	0.475414
2749.46	0.0364332
2750.79	0.134748
2752.13	-0.0275488
2753.47	0.158473
2754.81	0.764811
2756.14	0.299213
2757.48	0.297506
2758.81	-0.167003
2760.15	0.0785046
2761.49	0.643086
2762.82	-0.00710297
2764.16	-0.106869
2765.49	0.155065
2766.83	-0.234813
2768.16	-0.0619574
2769.5	-0.325058
2770.83	0.464668
2772.16	0.139168
2773.5	-0.10098
2774.83	-0.154201
2776.17	0.498373
2777.5	-0.116003
2778.83	0.306892
2780.16	-0.304619
2781.5	0.176622
2782.83	0.456464
2784.16	0.0474482
2785.49	-0.246406
2786.82	0.477342
2788.15	-0.17313
2789.49	-0.335189
2790.82	-0.366946
2792.15	-0.0685806
2793.48	0.158913
2794.81	-0.22818
2796.14	0.556008
2797.46	0.138986
2798.79	-0.26439
2800.12	0.0454617
2801.45	0.069293
2802.78	0.520524
2804.11	0.172815
2805.44	-0.0897837
2806.76	0.045476
2808.09	-0.247174
2809.42	0.255799
2810.75	-0.00880051
2812.07	-0.115919
2813.4	0.28953
2814.73	-0.22452
2816.05	-0.211479
2817.38	0.157701
2818.7	0.00340176
2820.03	0.0333767
2821.36	-0.0507631
2822.68	0.331672
2824.01	0.387073
2825.33	-0.252184
2826.65	0.425915
2827.98	0.0993481
2829.3	0.382538
2830.63	0.128536
2831.95	0.18633
2833.27	0.244024
2834.6	1.22119
2835.92	0.527381
2837.24	1.14879
2838.56	1.37309
2839.88	1.05954
2841.21	1.45324
2842.53	2.17258
2843.85	1.98831
2845.17	2.25758
2846.49	2.42901
2847.81	2.07816
2849.13	2.90043
2850.45	2.93071
2851.77	2.63505
2853.09	2.96038
2854.41	3.55344
2855.73	2.81792
2857.05	3.53762
2858.37	3.90409
2859.69	3.63493
2861	4.4528
2862.32	4.33803
2863.64	4.73075
2864.96	4.79824
2866.28	5.26064
2867.59	5.7515
2868.91	6.14429
2870.23	6.66463
2871.54	6.15615
2872.86	6.28151
2874.17	6.46176
2875.49	6.44269
2876.81	6.92838
2878.12	6.18783
2879.44	6.54447
2880.75	6.62023
2882.07	6.59913
2883.38	6.2149
2884.69	6.42243
2886.01	5.95718
2887.32	6.69926
2888.63	6.41588
2889.95	6.55202
2891.26	6.6865
2892.57	6.86176
2893.89	6.40618
2895.2	7.22591
2896.51	7.12273
2897.82	7.4974
2899.13	7.46814
2900.44	6.97876
2901.76	7.44157
2903.07	7.28926
2904.38	7.19318
2905.69	7.41933
2907	7.96825
2908.31	8.50479
2909.62	8.95916
2910.93	8.84104
2912.24	9.26877
2913.55	9.41518
2914.85	9.64292
2916.16	10.1613
2917.47	10.1865
2918.78	9.86004
2920.09	10.9041
2921.4	10.7324
2922.7	10.3676
2924.01	11.1657
2925.32	10.778
2926.62	10.6989
2927.93	10.7737
2929.24	11.5748
2930.54	11.7317
2931.85	11.9715
2933.15	11.456
2934.46	12.1286
2935.76	11.7671
2937.07	11.35
2938.37	11.6321
2939.68	11.1323
2940.98	10.0465
2942.29	10.0663
2943.59	9.27775
2944.89	9.91734
2946.2	9.53863
2947.5	8.72704
2948.8	8.82417
2950.11	8.66728
2951.41	8.21302
2952.71	7.6713
2954.01	7.25321
2955.32	7.82846
2956.62	7.69132
2957.92	7.45988
2959.22	7.28919
2960.52	7.10929
2961.82	6.91879
2963.12	6.95387
2964.42	7.03014
2965.72	5.85374
2967.02	6.16308
2968.32	6.80779
2969.62	6.35468
2970.92	6.01367
2972.22	6.03882
2973.51	6.09276
2974.81	5.4992
2976.11	5.5801
2977.41	4.99701
2978.71	5.76265
2980	5.20176
2981.3	4.4982
2982.6	4.2584
2983.9	4.06157
2985.19	3.82459
2986.49	3.70271
2987.78	3.69575
2989.08	3.17056
2990.38	3.48902
2991.67	3.07588
2992.97	3.29345
2994.26	3.14348
2995.56	2.54223
2996.85	2.4597
2998.14	2.46111
2999.44	2.11227
3000.73	1.63844
3002.03	1.41823
3003.32	1.56319
3004.61	1.21798
3005.91	1.11065
3007.2	1.00245
3008.49	1.25682
3009.78	0.810373
3011.07	0.684724
3012.37	1.32649
3013.66	0.962857
3014.95	0.684132
3016.24	0.504474
3017.53	0.562952
3018.82	0.455255
3020.11	0.403472
3021.4	0.114808
3022.69	0.616905
3023.98	0.381199
3025.27	0.32497
3026.56	0.282393
3027.85	0.240693
3029.14	0.159409
3030.43	0.080657
3031.71	-0.188975
3033	0.0402861
3034.29	0.0215282
3035.58	-0.122143
3036.87	0.352771
3038.15	-0.153858
3039.44	0.0944729
3040.73	0.271089
3042.01	0.28113
3043.3	0.249989
3044.59	-0.217643
3045.87	0.685706
3047.16	0.293163
3048.44	0.0961437
3049.73	0.421353
3051.01	0.366952
3052.3	0.245703
3053.58	0.00177097
3054.87	0.125306
3056.15	0.0562725
3057.43	0.421879
3058.72	0.595173
3060	0.250493
3061.29	0.274281
3062.57	0.163647
3063.85	0.109714
3065.13	0.357374
3066.42	-0.126826
3067.7	0.34231
3068.98	0.200312
3070.26	-0.227693
3071.54	0.0774775
3072.82	-0.231139
3074.11	-0.106399
3075.39	0.0712233
3076.67	-0.145586
3077.95	0.330771
3079.23	0.238654
3080.51	-0.162958
3081.79	-0.548407
3083.07	-0.0230103
3084.35	-0.229018
3085.63	-0.190629
3086.9	0.200079
3088.18	0.141889
3089.46	0.367708
3090.74	-0.0856504
3092.02	0.247895
3093.29	0.0662155
3094.57	-0.223314
3095.85	0.125031
3097.13	0.0261402
3098.4	-0.0591516
3099.68	0.140038
3100.95	-0.094388
3102.23	0.280919
3103.51	0.155626
3104.78	-0.131121
3106.06	-0.15939
3107.33	-0.0372982
3108.61	0.2895
3109.88	-0.0857191
3111.16	-0.148094
3112.43	0.454479
3113.71	-0.310343
3114.98	0.090147
3116.25	0.205544
3117.53	0.157024
3118.8	0.771514
3120.07	0.584158
3121.35	-0.0789757
3122.62	0.206227
3123.89	0.504565
3125.16	0.0854473
3126.44	0.452447
3127.71	0.590203
3128.98	0.566519
3130.25	0.543542
3131.52	0.601947
3132.79	0.390019
3134.06	0.36692
3135.33	0.869668
3136.6	0.575078
3137.87	0.401593
3139.14	1.03619
3140.41	0.875538
3141.68	0.943983
3142.95	1.14731
3144.22	0.827651
3145.49	1.04617
3146.76	0.863462
3148.02	0.829572
3149.29	0.823528
