200.398	-0.219976
202.213	-0.204721
204.027	-0.161913
205.843	0.417921
207.657	0.26845
209.47	0.458208
211.283	-0.0104008
213.097	-1.18521
214.909	0.695381
216.721	-0.167004
218.533	-0.495319
220.344	0.678558
222.157	-0.130646
223.967	0.10244
225.777	-0.485222
227.587	0.787785
229.396	0.441023
231.205	1.49314
233.016	0.468813
234.824	0.844572
236.632	0.933353
238.439	1.82188
240.247	2.54724
242.053	1.92787
243.86	3.07211
245.666	1.46601
247.474	2.99383
249.279	3.59847
251.085	3.22977
252.889	4.76119
254.694	4.91169
256.498	4.36158
258.301	3.33191
260.105	4.45107
261.908	4.346
263.71	4.72694
265.513	3.15903
267.315	3.47118
269.116	3.32473
270.918	2.45297
272.718	2.44629
274.519	2.84614
276.319	2.3501
278.119	2.11505
279.918	2.45355
281.718	2.18506
283.516	1.7923
285.315	0.988401
287.113	1.16827
288.911	1.53941
290.708	1.26459
292.505	2.28558
294.302	3.33258
296.098	3.16261
297.894	1.15514
299.69	0.727047
301.485	0.94371
303.278	0.394318
305.073	0.22451
306.867	0.386652
308.661	0.834024
310.454	-0.0284538
312.247	0.636515
314.04	0.685461
315.833	0.357391
317.623	0.509394
319.415	0.76008
321.206	2.01453
322.997	1.60276
324.788	1.21538
326.579	0.0398045
328.367	0.510721
330.156	0.478743
331.946	0.683336
333.735	0.836493
335.523	1.24823
337.31	-0.450884
339.098	0.692856
340.885	0.756207
342.673	-0.0429878
344.458	-0.339972
346.244	-0.205879
348.03	0.239922
349.816	0.471691
351.6	0.369265
353.385	1.22015
355.17	0.040556
356.953	0.551914
358.737	-0.536869
360.521	0.325954
362.304	-0.64691
364.085	-0.264585
365.868	-0.312166
367.65	0.0421009
369.431	0.512344
371.212	0.69536
372.994	0.474108
374.773	-0.0547619
376.554	-0.81852
378.332	0.212538
380.112	0.112541
381.892	0.933136
383.669	0.696854
385.448	1.33345
387.225	1.31426
389.003	0.827753
390.781	1.87029
392.557	1.6228
394.334	1.51766
396.109	1.81262
397.885	2.67151
399.66	2.35572
401.436	3.73003
403.211	3.85793
404.984	4.28927
406.759	2.65212
408.532	2.18795
410.306	3.31927
412.078	3.69921
413.851	4.08001
415.623	3.61788
417.395	3.90861
419.166	4.08375
420.938	4.77599
422.708	3.8247
424.477	3.12972
426.248	3.58276
428.017	2.88342
429.788	1.85432
431.556	1.57638
433.326	1.06443
435.093	1.65635
436.86	1.47375
438.629	1.8763
440.395	0.585985
442.163	0.230141
443.929	0.26841
445.694	0.0213757
447.461	0.333662
449.226	0.457224
450.99	0.65077
452.756	0.144279
454.52	1.31858
456.285	0.41658
458.048	1.19248
459.811	0.12886
461.573	0.16114
463.337	-0.128767
465.099	0.144337
466.86	-0.0643635
468.623	0.406792
470.384	0.719872
472.144	0.360018
473.906	0.184465
475.666	0.657068
477.425	0.682428
479.184	1.30919
480.944	-0.512259
482.703	0.624708
484.461	0.646185
486.218	0.532185
487.975	0.119915
489.734	1.08781
491.491	0.98587
493.247	1.14234
495.003	-0.24387
496.759	0.333429
498.516	1.30948
500.271	0.832348
502.025	1.1744
503.779	0.528494
505.533	0.466709
507.287	1.08375
509.042	0.756836
510.795	1.76729
512.547	1.24476
514.299	0.554045
516.051	0.754343
517.803	2.05709
519.554	1.92247
521.305	0.963762
523.055	1.08514
524.805	1.37013
526.555	1.46708
528.307	1.16532
530.056	1.0746
531.805	1.19384
533.553	1.47497
535.301	1.21499
537.049	1.13913
538.797	1.38698
540.544	1.53819
542.291	0.918407
544.037	1.25301
545.783	1.05222
547.529	1.29327
549.275	0.954731
551.02	0.918497
552.765	1.69234
554.509	0.547098
556.253	0.235813
557.997	1.33269
559.738	0.792906
561.482	0.80776
563.224	0.386883
564.967	1.14022
566.709	0.837372
568.451	0.8811
570.192	-0.289043
571.933	0.242342
573.674	0.410192
575.415	-0.197901
577.153	0.597326
578.893	0.454952
580.632	0.383188
582.371	0.403599
584.11	-0.0599098
585.849	-0.411039
587.587	-0.0980263
589.323	-0.109669
591.06	0.382702
592.797	-0.299559
594.534	0.490284
596.271	0.474936
598.005	0.919718
599.741	0.811499
601.476	0.218344
603.211	0.0595112
604.944	0.610209
606.679	-0.405186
608.413	0.255043
610.147	0.455078
611.878	-0.376245
613.611	-0.356749
615.344	0.810209
617.077	-0.77253
618.807	-0.385521
620.539	0.273407
622.27	-0.260815
623.999	-0.247625
625.73	0.63343
627.461	0.237183
629.189	-0.428061
630.919	-0.517342
632.648	0.538933
634.376	0.18305
636.105	0.671036
637.833	0.401937
639.559	0.925581
641.287	0.460987
643.013	0.447157
644.74	0.88559
646.467	0.504831
648.192	0.742701
649.918	1.4419
651.642	0.900343
653.368	0.299549
655.091	0.638519
656.816	0.391506
658.538	0.374319
660.263	1.29177
661.987	1.134
663.708	1.5648
665.432	1.44148
667.153	0.215813
668.875	0.977537
670.596	0.299818
672.318	-0.373953
674.037	0.674557
675.759	0.446178
677.478	-0.19257
679.196	0.224344
680.917	0.479002
682.635	0.200928
684.355	0.216848
686.072	-0.117197
687.791	0.304981
689.508	-0.311743
691.224	0.705284
692.942	0.338732
694.658	-0.14459
696.376	-0.00828552
698.091	-0.519258
699.805	0.0948792
701.522	-0.0762482
703.236	-0.0654259
704.95	0.081543
706.665	0.800758
708.379	0.119068
710.093	0.331118
711.806	0.381765
713.518	0.545937
715.23	0.000871658
716.943	0.506832
718.655	0.555899
720.366	0.468494
722.078	-0.165026
723.788	0.24935
725.498	0.503609
727.208	0.802177
728.919	-0.103569
730.628	-0.215103
732.337	1.00896
734.045	0.691507
735.755	0.510298
737.463	-0.211653
739.17	0.941708
740.877	0.246834
742.584	0.636942
744.292	0.601799
745.998	0.885015
747.704	-0.156094
749.409	0.200802
751.114	0.380564
752.819	0.878155
754.526	0.839033
756.23	0.353224
757.934	1.13137
759.637	-0.789791
761.34	1.25697
763.043	-0.234278
764.746	0.416794
766.448	0.863007
768.152	1.55426
769.853	0.703453
771.554	0.887936
773.255	1.15958
774.956	0.163811
776.656	1.13631
778.356	0.393227
780.056	0.874588
781.755	0.951569
783.454	1.45904
785.153	0.832554
786.851	1.46844
788.549	0.716515
790.247	0.885204
791.944	1.16048
793.641	0.121807
795.338	0.573193
797.034	0.822769
798.73	1.09808
800.426	1.66973
802.121	1.1642
803.817	1.83016
805.511	1.05657
807.206	0.46159
808.9	0.358685
810.592	1.10613
812.286	0.796314
813.979	0.956165
815.672	0.219643
817.364	1.27366
819.057	0.426338
820.748	1.25557
822.44	2.32971
824.129	1.12983
825.82	1.27158
827.511	0.838848
829.201	1.08056
830.891	1.55183
832.581	2.11899
834.269	1.75556
835.958	1.0596
837.646	0.563343
839.335	1.67171
841.023	1.41482
842.709	0.797218
844.396	1.36243
846.084	1.1023
847.77	0.577633
849.455	2.18338
851.141	1.33426
852.827	2.03471
854.513	1.37026
856.196	1.15337
857.881	0.214092
859.566	1.40712
861.248	1.7646
862.932	0.85701
864.616	0.0132217
866.297	0.654655
867.98	0.460583
869.663	0.513447
871.343	0.249828
873.026	0.504501
874.707	-0.414268
876.387	0.0433388
878.068	0.207645
879.747	1.20701
881.428	0.106243
883.108	0.538872
884.786	0.291824
886.465	-0.116375
888.143	0.103893
889.822	0.410496
891.498	-0.436028
893.177	0.382019
894.855	0.790977
896.53	0.90448
898.208	0.40892
899.883	0.159039
901.56	0.221405
903.234	-0.0980644
904.91	0.387215
906.584	0.894146
908.26	-0.0702782
909.933	-0.406906
911.608	-0.273716
913.28	0.327599
914.955	0.462212
916.627	-0.88953
918.298	0.0216866
919.972	0.00133896
921.643	0.601742
923.315	0.0984001
924.986	-0.0470085
926.656	-0.0335007
928.328	0.86673
929.997	0.622009
931.668	0.00392532
933.337	1.30597
935.006	0.380291
936.676	-0.213448
938.344	1.17978
940.012	0.0395126
941.681	0.291527
943.348	0.589607
945.014	0.578579
946.683	0.18964
948.349	-1.06441
950.015	-0.181763
951.682	0.741547
953.347	-0.916126
955.012	0.804165
956.676	0.325546
958.343	0.207287
960.006	-0.434093
961.67	-0.387863
963.333	0.14463
964.998	0.895107
966.661	1.06465
968.323	-1.27285
969.985	-0.562065
971.649	0.190502
973.31	-0.139847
974.971	-0.223576
976.632	0.33831
978.293	0.572208
979.953	0.354313
981.615	0.135414
983.274	1.2748
984.933	0.882057
986.592	2.09995
988.251	0.369938
989.909	1.55723
991.567	1.21658
993.225	1.67097
994.884	2.16909
996.541	2.20368
998.198	3.20831
999.855	4.45353
1001.51	4.00039
1003.17	3.7887
1004.82	2.98259
1006.48	3.80341
1008.13	2.625
1009.79	2.28293
1011.44	2.60033
1013.1	1.51586
1014.75	2.03265
1016.4	1.78365
1018.06	2.43331
1019.71	1.94714
1021.36	1.22351
1023.01	0.809139
1024.66	1.31525
1026.32	0.773853
1027.97	2.41764
1029.62	2.11507
1031.27	1.85315
1032.92	2.52595
1034.57	1.25184
1036.22	2.35229
1037.87	3.42696
1039.52	2.60575
1041.16	2.89679
1042.81	3.77779
1044.46	3.22863
1046.11	3.05445
1047.76	4.81837
1049.4	5.91364
1051.05	6.23089
1052.7	5.07347
1054.34	6.06791
1055.99	4.99804
1057.63	5.33992
1059.28	4.35425
1060.92	5.19297
1062.57	2.44162
1064.21	1.47087
1065.85	2.34551
1067.5	1.49982
1069.14	1.67318
1070.78	1.08454
1072.43	2.05893
1074.07	0.885525
1075.71	0.409668
1077.35	0.609665
1078.99	1.46339
1080.63	0.280685
1082.27	0.442509
1083.91	1.07922
1085.55	1.29968
1087.19	0.496334
1088.83	1.22599
1090.47	1.79845
1092.11	0.615692
1093.75	0.880745
1095.39	0.972969
1097.03	0.312584
1098.66	-0.321724
1100.3	0.814304
1101.94	0.404835
1103.57	1.76418
1105.21	-0.8312
1106.84	-0.327354
1108.48	0.691799
1110.11	0.525398
1111.75	1.27921
1113.38	1.19032
1115.02	-0.147038
1116.65	0.532421
1118.29	0.139153
1119.92	0.883564
1121.55	0.880276
1123.19	1.30777
1124.82	1.13854
1126.45	0.757824
1128.08	0.785595
1129.71	0.451775
1131.34	1.16707
1132.97	0.536331
1134.6	-0.116024
1136.23	-0.449158
1137.86	0.0698967
1139.49	0.649685
1141.12	-0.24683
1142.75	0.115105
1144.38	-0.269512
1146.01	0.00875092
1147.64	0.672871
1149.26	0.614506
1150.89	-0.188068
1152.52	0.756046
1154.15	1.10264
1155.77	-0.0630836
1157.4	0.4949
1159.02	-0.0739059
1160.65	0.252888
1162.27	-0.28931
1163.9	-0.190975
1165.52	0.929256
1167.15	0.53936
1168.77	1.06096
1170.39	-0.101219
1172.02	0.538258
1173.64	-0.0378609
1175.26	0.826176
1176.89	-0.496166
1178.51	-0.290813
1180.13	-0.0840378
1181.75	0.463219
1183.37	-0.151199
1184.99	-0.638012
1186.61	0.161617
1188.23	0.512783
1189.85	0.773781
1191.47	-1.16048
1193.09	0.417397
1194.71	0.162113
1196.33	0.599388
1197.94	0.598103
1199.56	1.2497
1201.18	0.443642
1202.8	0.376743
1204.41	1.23508
1206.03	0.241695
1207.65	1.23421
1209.26	0.516861
1210.88	1.48705
1212.49	0.242168
1214.11	0.0761681
1215.72	1.6119
1217.34	1.78785
1218.95	1.8358
1220.57	1.32269
1222.18	1.37234
1223.79	1.92255
1225.41	1.66851
1227.02	1.75009
1228.63	1.69067
1230.24	2.79263
1231.85	2.78113
1233.47	2.19436
1235.08	2.47919
1236.69	2.62276
1238.3	2.95535
1239.91	2.35953
1241.52	3.35666
1243.13	2.47075
1244.74	1.95487
1246.34	2.4501
1247.95	2.03203
1249.56	2.41883
1251.17	3.01149
1252.78	2.01184
1254.38	2.54489
1255.99	2.39834
1257.6	2.06903
1259.2	1.8463
1260.81	2.28828
1262.42	1.69661
1264.02	2.57542
1265.63	2.47986
1267.23	1.05567
1268.84	2.17839
1270.44	1.05931
1272.04	1.61682
1273.65	2.15076
1275.25	1.99783
1276.85	2.19465
1278.46	1.5605
1280.06	1.48421
1281.66	1.77975
1283.26	1.86834
1284.86	0.221226
1286.46	2.19538
1288.07	2.33182
1289.67	2.53279
1291.27	1.53676
1292.87	1.96638
1294.47	2.27002
1296.06	2.30162
1297.66	3.05128
1299.26	2.55759
1300.86	2.90565
1302.46	3.08478
1304.06	2.62288
1305.65	1.97485
1307.25	3.35991
1308.85	2.64861
1310.44	3.76268
1312.04	3.62663
1313.64	3.61576
1315.23	3.95508
1316.83	3.35747
1318.42	1.92591
1320.02	3.30972
1321.61	3.77214
1323.2	2.98808
1324.8	3.01376
1326.39	4.27377
1327.99	4.738
1329.58	3.54226
1331.17	4.03246
1332.76	3.67952
1334.36	3.81823
1335.95	2.91235
1337.54	2.69487
1339.13	2.69772
1340.72	2.5349
1342.31	3.93599
1343.9	2.89626
1345.49	2.81929
1347.08	3.14371
1348.67	2.1301
1350.26	3.52679
1351.85	3.24887
1353.43	3.29713
1355.02	3.00951
1356.61	3.32271
1358.2	2.65573
1359.78	2.42591
1361.37	1.85399
1362.96	2.05823
1364.54	2.341
1366.13	1.78726
1367.71	2.13245
1369.3	2.75937
1370.88	2.23573
1372.47	2.2137
1374.05	2.29438
1375.64	2.0786
1377.22	1.42543
1378.8	0.93013
1380.39	1.90462
1381.97	2.09936
1383.55	2.62843
1385.13	1.66343
1386.72	1.11522
1388.3	0.687077
1389.88	1.47187
1391.46	2.61582
1393.04	1.97602
1394.62	0.762539
1396.2	1.17519
1397.78	1.50646
1399.36	1.39885
1400.94	1.20943
1402.52	2.36463
1404.1	1.42139
1405.68	1.07376
1407.25	2.38912
1408.83	1.51278
1410.41	1.96195
1411.98	1.64072
1413.56	2.00903
1415.14	1.90098
1416.71	2.65837
1418.29	1.83699
1419.87	2.06144
1421.44	2.11144
1423.02	3.28788
1424.59	1.91005
1426.16	2.66174
1427.74	2.70655
1429.31	4.38443
1430.89	4.48504
1432.46	4.95607
1434.03	4.28286
1435.6	4.9657
1437.18	4.70497
1438.75	5.60634
1440.32	5.31165
1441.89	4.92179
1443.46	5.59544
1445.03	6.52596
1446.6	5.39337
1448.17	5.61746
1449.74	4.19111
1451.31	4.8697
1452.88	4.01622
1454.45	4.24548
1456.02	5.61606
1457.59	3.91539
1459.16	4.59206
1460.72	4.8307
1462.29	4.65048
1463.86	4.26882
1465.43	4.17901
1466.99	3.0274
1468.56	3.42909
1470.13	3.0284
1471.69	1.45431
1473.26	2.88488
1474.82	1.63072
1476.38	1.43699
1477.95	2.14548
1479.51	2.18721
1481.08	2.58149
1482.64	1.68211
1484.2	1.68397
1485.77	1.72411
1487.33	1.48802
1488.89	1.99242
1490.46	1.51283
1492.02	0.67593
1493.58	0.908764
1495.14	1.64341
1496.7	0.833763
1498.26	1.11523
1499.82	0.853359
1501.38	0.769756
1502.94	0.476414
1504.5	1.15491
1506.06	1.27171
1507.62	0.941792
1509.18	1.90411
1510.73	1.02792
1512.29	0.845119
1513.85	1.27768
1515.41	0.460094
1516.96	0.817406
1518.52	0.370594
1520.08	0.692841
1521.63	1.68475
1523.19	0.552063
1524.75	1.34809
1526.3	1.45298
1527.85	1.26938
1529.41	1.38886
1530.96	0.995327
1532.52	-0.173176
1534.07	0.671261
1535.62	0.589722
1537.18	1.28569
1538.73	1.18955
1540.28	1.50957
1541.84	1.6787
1543.39	0.736885
1544.94	1.35693
1546.49	1.76862
1548.04	1.99141
1549.59	1.33266
1551.14	1.63084
1552.69	1.42484
1554.25	1.29658
1555.79	1.99426
1557.34	1.24016
1558.89	1.51854
1560.44	1.76486
1561.99	1.43752
1563.54	1.39326
1565.08	2.13441
1566.63	1.94308
1568.18	1.73248
1569.73	1.35286
1571.27	1.45752
1572.82	1.87878
1574.37	1.98235
1575.91	1.93672
1577.46	1.79838
1579	2.55738
1580.55	1.63786
1582.09	1.67274
1583.64	2.45729
1585.18	1.82426
1586.73	1.80919
1588.27	1.96295
1589.81	1.46144
1591.35	0.584057
1592.9	1.35265
1594.44	1.87748
1595.98	2.74001
1597.52	1.9175
1599.06	1.86502
1600.61	2.82748
1602.15	2.42225
1603.69	3.53769
1605.23	2.41679
1606.77	3.28336
1608.31	2.19009
1609.85	2.19928
1611.39	2.97239
1612.93	2.312
1614.46	2.17422
1616	1.94156
1617.54	2.96634
1619.08	1.72639
1620.61	1.76522
1622.15	1.45216
1623.69	3.0512
1625.23	2.42253
1626.76	1.66108
1628.3	2.41202
1629.83	2.37311
1631.37	1.50899
1632.9	2.71808
1634.44	2.60118
1635.97	2.9345
1637.51	3.1024
1639.04	3.7009
1640.57	1.9137
1642.11	2.36187
1643.64	2.60185
1645.17	3.06154
1646.71	3.27632
1648.24	3.30409
1649.77	2.9801
1651.3	3.53151
1652.83	3.19567
1654.36	3.64221
1655.89	3.92358
1657.42	3.18566
1658.96	3.13153
1660.48	3.48118
1662.01	2.64232
1663.54	4.00125
1665.07	3.06606
1666.6	1.83807
1668.13	2.75423
1669.66	3.13897
1671.19	2.8828
1672.71	2.55636
1674.24	2.2316
1675.77	2.55087
1677.29	2.6286
1678.82	2.77694
1680.35	3.2715
1681.87	1.06232
1683.4	1.44416
1684.92	1.93588
1686.45	1.3643
1687.97	1.41788
1689.5	0.758167
1691.02	1.30832
1692.54	0.88834
1694.07	1.21862
1695.59	1.29227
1697.11	0.415058
1698.64	0.505894
1700.16	0.121025
1701.68	0.154861
1703.2	1.3171
1704.72	1.65669
1706.25	1.2485
1707.77	0.676632
1709.29	-0.185001
1710.81	0.279922
1712.33	-0.234528
1713.85	-0.475861
1715.37	-0.553566
1716.89	0.0923233
1718.41	0.104282
1719.92	-0.317238
1721.44	0.760021
1722.96	-0.741032
1724.48	0.429295
1725.99	0.269268
1727.51	-0.408958
1729.03	0.319649
1730.55	0.223362
1732.06	0.447937
1733.58	0.277882
1735.09	0.3866
1736.61	0.620995
1738.13	0.271881
1739.64	0.420052
1741.15	0.780674
1742.67	0.391903
1744.18	0.065094
1745.7	0.126949
1747.21	-0.232986
1748.72	0.504253
1750.24	-0.443687
1751.75	0.164036
1753.26	0.00388718
1754.77	0.494228
1756.29	0.479
1757.8	0.0934715
1759.31	-0.58992
1760.82	-0.186939
1762.33	0.0599136
1763.84	-0.225502
1765.35	0.0840034
1766.86	0.727177
1768.37	0.353878
1769.88	0.790707
1771.39	0.537827
1772.9	0.201565
1774.4	0.0513268
1775.91	0.0231514
1777.42	0.264881
1778.93	0.477203
1780.44	0.706524
1781.94	0.475166
1783.45	0.641354
1784.96	0.208286
1786.46	0.609116
1787.97	0.639568
1789.47	0.577641
1790.98	0.284496
1792.48	0.0249481
1793.99	0.139816
1795.49	0.718891
1797	0.129654
1798.5	-0.343838
1800.01	0.742153
1801.51	0.542667
1803.01	1.23132
1804.51	0.795197
1806.02	1.10943
1807.52	0.743534
1809.02	1.28558
1810.52	0.421177
1812.02	0.191143
1813.52	1.25388
1815.02	0.768913
1816.53	0.605354
1818.03	0.511543
1819.52	0.704338
1821.02	0.666084
1822.52	0.41317
1824.02	0.565575
1825.52	0.669682
1827.02	1.12141
1828.52	1.22657
1830.02	0.5779
1831.51	1.61051
1833.01	-0.193279
1834.51	0.315331
1836.01	0.736141
1837.5	0.222866
1839	0.620945
1840.49	0.176868
1841.99	1.07099
1843.49	0.867989
1844.98	0.699066
1846.48	0.551449
1847.97	0.630203
1849.47	0.426624
1850.96	1.34815
1852.45	-0.160542
1853.95	1.36576
1855.44	0.804691
1856.93	0.268719
1858.42	1.22581
1859.92	0.551044
1861.41	0.213772
1862.9	0.160225
1864.39	0.588078
1865.88	1.38618
1867.38	1.6625
1868.87	1.44566
1870.36	1.40479
1871.85	0.434879
1873.34	-0.731373
1874.83	0.272625
1876.32	-0.0496902
1877.81	0.227974
1879.29	-0.235901
1880.78	0.495785
1882.27	0.448784
1882.53	0.411385
1884.03	0.19043
1885.52	0.104221
1887.01	0.604908
1888.51	0.0575142
1890	-0.609722
1891.5	0.155952
1892.99	0.00978088
1894.48	0.761841
1895.97	0.741405
1897.47	0.117649
1898.96	1.30214
1900.45	1.33239
1901.94	0.0999298
1903.43	0.265587
1904.92	2.76888
1906.41	-0.242878
1907.9	-0.282139
1909.39	1.12317
1910.88	0.503334
1912.37	1.05188
1913.86	-0.269199
1915.35	1.06396
1916.84	0.366196
1918.33	0.0641174
1919.81	0.799103
1921.3	0.338017
1922.79	-0.379829
1924.28	0.172028
1925.76	-1.15597
1927.25	0.0502892
1928.73	0.48175
1930.22	0.947803
1931.71	-0.530602
1933.19	-0.338169
1934.68	1.10689
1936.16	0.256493
1937.65	0.246895
1939.13	-0.35294
1940.62	-0.000350952
1942.1	-0.367561
1943.58	0.87645
1945.07	-0.237377
1946.55	0.686142
1948.03	0.315197
1949.51	0.0433159
1951	0.230408
1952.48	-0.500362
1953.96	0.932938
1955.44	0.0441513
1956.92	-1.11572
1958.4	-0.193226
1959.88	0.132568
1961.36	-0.241451
1962.84	-0.356735
1964.32	0.554981
1965.8	0.606594
1967.28	0.807919
1968.76	0.269428
1970.24	-0.220699
1971.72	-0.199276
1973.2	-0.00744247
1974.67	-0.258682
1976.15	0.76992
1977.63	-0.381847
1979.1	-0.578156
1980.58	0.382336
1982.06	0.745583
1983.54	-0.235371
1985.01	0.0221939
1986.49	0.34568
1987.96	0.482212
1989.44	-0.12442
1990.91	-1.60595
1992.39	0.742493
1993.86	-0.150848
1995.33	0.296753
1996.81	0.797535
1998.28	1.21341
1999.75	0.410816
2001.23	-0.496113
2002.7	0.703133
2004.17	-0.122562
2005.65	0.672306
2007.12	0.511227
2008.59	-1.00769
2010.06	-0.281406
2011.53	1.15499
2013	0.36969
2014.47	0.743217
2015.94	0.775303
2017.41	-1.2837
2018.88	0.638081
2020.35	0.471256
2021.82	1.16021
2023.29	0.373558
2024.76	-0.407402
2026.23	0.798851
2027.69	1.61124
2029.16	0.0346489
2030.63	0.781105
2032.1	1.23204
2033.56	-0.0931206
2035.03	0.226528
2036.5	0.392857
2037.96	0.0351563
2039.43	-0.762077
2040.89	0.18832
2042.36	0.199986
2043.83	-0.422802
2045.29	1.75288
2046.75	0.669273
2048.22	0.900433
2049.68	0.354595
2051.15	1.06655
2052.61	0.13345
2054.07	-0.642429
2055.54	0.763332
2057	-0.823818
2058.46	-0.0218468
2059.92	-0.0467644
2061.39	0.924335
2062.85	-0.523922
2064.31	1.3838
2065.77	0.318752
2067.23	-0.0846519
2068.69	0.272949
2070.15	1.87828
2071.61	-0.387691
2073.07	0.611412
2074.53	-0.782001
2075.99	-0.257835
2077.45	0.297886
2078.91	0.177597
2080.37	-0.400066
2081.82	0.0629234
2083.28	0.185066
2084.74	-0.0170593
2086.2	0.617569
2087.65	0.810768
2089.11	-0.662491
2090.57	0.854416
2092.02	-0.786873
2093.48	-0.0610542
2094.94	-0.293411
2096.39	-0.427883
2097.85	0.522522
2099.3	0.564049
2100.76	0.185562
2102.21	0.527576
2103.66	1.05787
2105.12	-0.657566
2106.57	0.122669
2108.03	1.60931
2109.48	-0.320995
2110.93	0.0303154
2112.38	-0.109741
2113.84	1.10569
2115.29	-0.968235
2116.74	0.497059
2118.19	0.915298
2119.64	1.62325
2121.09	0.68322
2122.54	0.584942
2123.99	0.893456
2125.45	0.824486
2126.89	0.42239
2128.34	0.0973587
2129.79	0.112335
2131.24	0.864944
2132.69	0.585773
2134.14	-0.0571594
2135.59	0.0824089
2137.04	-0.0834999
2138.48	-0.420265
2139.93	-0.59724
2141.38	0.127876
2142.83	0.56271
2144.27	0.538502
2145.72	-0.461391
2147.17	0.68861
2148.61	-1.02957
2150.06	0.476818
2151.5	-0.987816
2152.95	0.34193
2154.39	0.639664
2155.84	0.487381
2157.28	0.434998
2158.73	-0.325512
2160.17	0.197102
2161.61	-0.0654488
2163.06	0.196293
2164.5	0.616364
2165.94	-0.037262
2167.38	-0.576073
2168.83	0.507725
2170.27	0.268543
2171.71	0.449661
2173.15	0.153927
2174.59	0.216331
2176.03	0.857475
2177.47	0.169388
2178.91	-0.364552
2180.36	0.287514
2181.8	0.661999
2183.23	-0.340336
2184.67	0.504841
2186.11	0.469063
2187.55	-0.897739
2188.99	0.131702
2190.43	0.345798
2191.87	0.275436
2193.3	-0.0822601
2194.74	0.734638
2196.18	0.259155
2197.62	-0.410374
2199.05	-0.240932
2200.49	0.83622
2201.93	-0.380219
2203.36	0.648579
2204.8	0.52179
2206.23	0.0862122
2207.67	1.16163
2209.1	0.628807
2210.54	0.522289
2211.97	0.19508
2213.41	1.46726
2214.84	-0.285709
2216.27	0.0799599
2217.71	0.369301
2219.14	1.55608
2220.57	0.257774
2222.01	-0.165504
2223.44	0.280594
2224.87	0.0266495
2226.3	1.606
2227.73	0.493198
2229.16	-0.690716
2230.6	1.15833
2232.03	-0.0458946
2233.46	0.161858
2234.89	-0.0351791
2236.32	0.640842
2237.75	-0.601192
2239.18	0.420887
2240.61	0.181633
2242.03	1.01317
2243.46	0.547173
2244.89	0.572571
2246.32	0.920338
2247.75	0.573692
2249.17	2.05662
2250.6	1.4718
2252.03	1.15407
2253.46	-0.225136
2254.88	0.901924
2256.31	0.558395
2257.73	0.748459
2259.16	0.939072
2260.59	0.579144
2262.01	-0.269768
2263.44	1.19603
2264.86	1.43022
2266.29	0.394165
2267.71	1.1581
2269.14	-0.182232
2270.56	0.262543
2271.98	-0.630638
2273.4	1.06426
2274.83	-0.236923
2276.25	-0.511074
2277.67	1.30183
2279.09	-0.0629311
2280.52	0.283459
2281.94	0.319328
2283.36	0.990948
2284.78	0.1618
2286.2	-0.486961
2287.62	-0.0889969
2289.04	-0.0638542
2290.46	0.862316
2291.88	-0.00730515
2293.3	0.562195
2294.72	0.62484
2296.14	0.621521
2297.56	0.126587
2298.98	-0.466805
2300.4	0.759678
2301.82	-0.405182
2303.23	-0.749252
2304.65	0.00698853
2306.07	0.336533
2307.49	-0.22295
2308.9	0.528896
2310.32	1.62316
2311.73	0.281223
2313.15	0.303928
2314.57	0.724018
2315.98	0.0125389
2317.4	0.853611
2318.81	1.05529
2320.23	0.23315
2321.64	0.509247
2323.06	1.02192
2324.47	0.745148
2325.88	0.290089
2327.3	0.60054
2328.71	0.0656586
2330.12	-0.368687
2331.54	0.338512
2332.95	-0.544731
2334.36	0.387417
2335.77	1.23832
2337.18	-0.232841
2338.6	-0.377113
2340.01	0.359356
2341.42	0.0384064
2342.83	-0.0389786
2344.24	-0.116478
2345.65	-0.192265
2347.06	-0.544758
2348.47	0.0854683
2349.88	-0.530609
2351.29	1.35061
2352.7	0.136078
2354.1	-0.0212059
2355.51	-0.231159
2356.92	0.0295219
2358.33	0.598473
2359.74	-0.0353546
2361.14	0.176651
2362.55	0.161114
2363.96	-0.681023
2365.36	-0.324455
2366.77	-0.258503
2368.18	-0.964161
2369.58	0.41832
2370.99	0.0655289
2372.39	1.13865
2373.8	-1.16493
2375.2	0.495338
2376.61	0.720024
2378.01	1.00235
2379.42	-0.861889
2380.82	-0.244484
2382.22	0.732166
2383.63	1.06065
2385.03	0.587048
2386.43	0.228848
2387.84	-0.12331
2389.24	0.53664
2390.64	0.247032
2392.04	-0.417381
2393.44	0.961517
2394.84	0.960281
2396.25	0.883732
2397.65	0.127586
2399.05	0.439789
2400.45	0.278168
2401.85	-0.0245399
2403.25	-0.501625
2404.65	1.33749
2406.05	0.821236
2407.45	-0.319004
2408.84	0.646465
2410.24	0.657906
2411.64	0.0685921
2413.04	0.371372
2414.44	0.33308
2415.83	0.113415
2417.23	-0.462627
2418.63	0.787342
2420.02	0.598698
2421.42	1.47054
2422.82	-0.0992317
2424.21	-0.799625
2425.61	1.03556
2427	0.211658
2428.4	-0.0210495
2429.8	0.132233
2431.19	0.162678
2432.58	0.479725
2433.98	-0.222401
2435.37	0.720577
2436.77	1.2739
2438.16	-0.151913
2439.55	1.48085
2440.95	-0.386272
2442.34	-0.0964203
2443.73	0.112164
2445.12	-0.695583
2446.51	-0.187653
2447.91	-0.552593
2449.3	-0.0777855
2450.69	0.144558
2452.08	0.448936
2453.47	0.615215
2454.86	-0.589951
2456.25	0.882542
2457.64	0.0630722
2459.03	0.14431
2460.42	0.506836
2461.81	1.32297
2463.2	-0.426556
2464.59	-0.234917
2465.98	-1.04011
2467.36	0.0648422
2468.75	0.158653
2470.14	0.33004
2471.53	0.167572
2472.92	0.269093
2474.3	2.14485
2475.69	0.726368
2477.08	0.125198
2478.46	0.137157
2479.85	-0.352108
2481.23	0.477428
2482.62	0.192879
2484	0.18779
2485.39	-0.0413513
2486.77	0.473293
2488.16	0.403004
2489.54	-0.170151
2490.93	0.206684
2492.31	0.336857
2493.69	0.721359
2495.08	0.306263
2496.46	1.15466
2497.84	0.457935
2499.23	-0.096981
2500.61	-0.0498619
2501.99	1.04361
2503.37	-0.155804
2504.75	0.276947
2506.13	0.643536
2507.52	0.299881
2508.9	-0.149899
2510.28	0.386593
2511.66	0.204613
2513.04	0.548641
2514.42	-0.450726
2515.8	0.683884
2517.18	0.643654
2518.55	1.49338
2519.93	-0.0405807
2521.31	-0.138851
2522.69	0.125519
2524.07	-0.408443
2525.45	0.639309
2526.82	-0.219669
2528.2	0.766121
2529.58	0.0234337
2530.95	-0.207771
2532.33	-0.733101
2533.71	0.147221
2535.08	0.119991
2536.46	1.26228
2537.84	-0.212296
2539.21	-0.780628
2540.59	0.407814
2541.96	0.697906
2543.34	0.549374
2544.71	1.04295
2546.08	0.906498
2547.46	0.413128
2548.83	-0.62162
2550.2	1.60607
2551.58	1.05437
2552.95	0.482067
2554.32	1.05709
2555.7	0.959118
2557.07	1.07029
2558.44	0.467957
2559.81	0.731552
2561.18	0.694981
2562.55	0.55603
2563.93	0.465946
2565.3	0.802635
2566.67	0.625515
2568.04	2.00989
2569.41	0.817928
2570.78	1.52042
2572.15	0.464928
2573.51	1.31976
2574.88	0.826031
2576.25	-0.258884
2577.62	0.778305
2578.99	-0.0204277
2580.36	1.87785
2581.73	0.589466
2583.09	1.30039
2584.46	1.40339
2585.83	0.460144
2587.19	-0.876305
2588.56	0.228573
2589.93	0.288242
2591.29	0.665417
2592.66	0.918602
2594.02	0.318714
2595.39	0.213013
2596.75	0.373947
2598.12	0.363754
2599.48	0.835178
2600.85	0.0525627
2602.21	0.391197
2603.58	0.718254
2604.94	1.18411
2606.3	0.685349
2607.67	0.471561
2609.03	1.33827
2610.39	0.26902
2611.76	0.277283
2613.12	0.820206
2614.48	-0.715282
2615.84	1.54726
2617.2	0.538635
2618.56	0.598812
2619.92	0.94767
2621.28	1.25539
2622.65	0.474957
2624.01	0.936295
2625.37	0.396935
2626.72	0.4086
2628.08	0.284241
2629.44	1.52817
2630.8	1.35552
2632.16	0.305447
2633.52	1.54431
2634.88	0.732815
2636.24	0.73811
2637.59	0.713688
2638.95	1.82969
2640.31	0.636879
2641.67	1.11795
2643.02	-0.0546074
2644.38	0.709366
2645.74	1.11778
2647.09	0.963104
2648.45	0.598461
2649.8	0.229782
2651.16	0.181332
2652.51	0.204643
2653.87	0.625309
2655.22	0.946865
2656.58	1.20101
2657.93	1.50543
2659.29	0.190968
2660.64	1.23425
2661.99	0.580437
2663.35	-0.207527
2664.7	1.00058
2666.05	0.335732
2667.41	1.21398
2668.76	1.23114
2670.11	0.755199
2671.46	0.748291
2672.81	1.28267
2674.16	1.18108
2675.51	0.821716
2676.87	0.465969
2678.22	1.02799
2679.57	0.420033
2680.92	0.891129
2682.27	1.03561
2683.62	1.09998
2684.97	0.792789
2686.31	1.17006
2687.66	0.675774
2689.01	1.14719
2690.36	0.723476
2691.71	0.724884
2693.06	0.833675
2694.4	0.748314
2695.75	1.44462
2697.1	0.420044
2698.45	0.851696
2699.79	1.30728
2701.14	0.686867
2702.49	1.37841
2703.83	0.699902
2705.18	0.458702
2706.52	1.01535
2707.87	0.308529
2709.21	0.774738
2710.56	0.542099
2711.9	0.816208
2713.25	1.49659
2714.59	1.24675
2715.94	2.01421
2717.28	1.05057
2718.62	1.72886
2719.97	1.41591
2721.31	0.881962
2722.65	2.23726
2723.99	1.40667
2725.34	1.60701
2726.68	0.538902
2728.02	1.46302
2729.36	1.39606
2730.7	1.02274
2732.04	0.998539
2733.39	1.28035
2734.73	0.995846
2736.07	0.799839
2737.41	1.04096
2738.75	1.55829
2740.08	1.12892
2741.43	-0.379002
2742.76	1.55534
2744.1	1.62453
2745.44	-0.212997
2746.78	0.547905
2748.12	0.0588188
2749.46	-0.255436
2750.79	0.33086
2752.13	0.947201
2753.47	0.318077
2754.81	0.704536
2756.14	1.46815
2757.48	0.726406
2758.81	0.609016
2760.15	0.913647
2761.49	1.32225
2762.82	0.69173
2764.16	0.786564
2765.49	1.24307
2766.83	-0.0391197
2768.16	0.351814
2769.5	1.08235
2770.83	-0.493763
2772.16	0.523968
2773.5	0.423313
2774.83	0.608105
2776.17	-0.604794
2777.5	0.517891
2778.83	0.764744
2780.16	0.381927
2781.5	-0.170845
2782.83	0.368362
2784.16	0.734493
2785.49	0.741753
2786.82	-0.553261
2788.15	0.17448
2789.49	0.37648
2790.82	0.368908
2792.15	-0.0202827
2793.48	-0.0206833
2794.81	0.422222
2796.14	1.27745
2797.46	0.457912
2798.79	-0.364155
2800.12	0.182205
2801.45	0.583977
2802.78	-0.0992966
2804.11	0.969524
2805.44	0.695942
2806.76	-0.420441
2808.09	-0.400925
2809.42	0.483223
2810.75	-1.07632
2812.07	0.676254
2813.4	-0.204941
2814.73	0.694988
2816.05	0.270164
2817.38	0.163605
2818.7	0.400517
2820.03	0.325722
2821.36	0.376034
2822.68	-0.711002
2824.01	0.848381
2825.33	0.903736
2826.65	-0.0460663
2827.98	0.11179
2829.3	1.0089
2830.63	0.676987
2831.95	0.615284
2833.27	1.61494
2834.6	1.28228
2835.92	1.64045
2837.24	2.53325
2838.56	2.17841
2839.88	2.47318
2841.21	2.92396
2842.53	4.02713
2843.85	4.5542
2845.17	4.27978
2846.49	4.24917
2847.81	4.75766
2849.13	3.99433
2850.45	4.44493
2851.77	3.8046
2853.09	4.17923
2854.41	4.32568
2855.73	4.66897
2857.05	4.50357
2858.37	6.08998
2859.69	5.84002
2861	6.12582
2862.32	6.42396
2863.64	7.29874
2864.96	7.12757
2866.28	7.92976
2867.59	7.61886
2868.91	8.8474
2870.23	8.8654
2871.54	9.19444
2872.86	9.47969
2874.17	8.80281
2875.49	9.37442
2876.81	9.81318
2878.12	8.74164
2879.44	9.59652
2880.75	10.1008
2882.07	9.11978
2883.38	9.98489
2884.69	8.98718
2886.01	9.78994
2887.32	9.10511
2888.63	9.91977
2889.95	7.93859
2891.26	9.404
2892.57	9.42151
2893.89	10.2508
2895.2	9.65303
2896.51	9.68986
2897.82	8.80851
2899.13	10.7029
2900.44	10.3767
2901.76	10.8363
2903.07	10.8214
2904.38	10.8492
2905.69	10.5288
2907	12.7011
2908.31	11.6184
2909.62	12.5125
2910.93	12.85
2912.24	11.942
2913.55	12.0239
2914.85	13.5552
2916.16	12.6561
2917.47	14.6049
2918.78	13.7355
2920.09	14.3346
2921.4	14.7409
2922.7	15.1532
2924.01	14.3842
2925.32	15.0606
2926.62	15.4466
2927.93	15.4693
2929.24	15.6721
2930.54	15.2013
2931.85	14.7563
2933.15	16.6306
2934.46	15.3458
2935.76	14.7327
2937.07	15.518
2938.37	14.1662
2939.68	14.1294
2940.98	14.5143
2942.29	13.7436
2943.59	13.1461
2944.89	11.6601
2946.2	11.8848
2947.5	12.2526
2948.8	11.8498
2950.11	11.6654
2951.41	12.0189
2952.71	10.7393
2954.01	9.53736
2955.32	9.18807
2956.62	8.84301
2957.92	9.29121
2959.22	9.09409
2960.52	9.97438
2961.82	9.14119
2963.12	9.27852
2964.42	10.1435
2965.72	8.64295
2967.02	7.3861
2968.32	7.89369
2969.62	8.00433
2970.92	9.4226
2972.22	7.59319
2973.51	7.57991
2974.81	6.77837
2976.11	6.86056
2977.41	5.62727
2978.71	6.68106
2980	6.34672
2981.3	6.20329
2982.6	6.24016
2983.9	4.61977
2985.19	4.67835
2986.49	4.91288
2987.78	4.33957
2989.08	5.06406
2990.38	4.4128
2991.67	3.29536
2992.97	2.97402
2994.26	3.72853
2995.56	4.08379
2996.85	3.31193
2998.14	1.86616
2999.44	3.01792
3000.73	3.23206
3002.03	2.5941
3003.32	1.93072
3004.61	2.10886
3005.91	1.5854
3007.2	1.66121
3008.49	1.06119
3009.78	1.53402
3011.07	1.12219
3012.37	1.11373
3013.66	0.728645
3014.95	0.0815201
3016.24	-0.198875
3017.53	-0.126987
3018.82	0.531929
3020.11	0.912479
3021.4	0.331337
3022.69	-0.739426
3023.98	0.504047
3025.27	0.507534
3026.56	-0.418011
3027.85	0.14127
3029.14	-0.248528
3030.43	0.17141
3031.71	-0.257599
3033	-0.335587
3034.29	0.0022049
3035.58	0.212925
3036.87	0.154762
3038.15	0.58342
3039.44	0.106983
3040.73	0.681828
3042.01	1.04454
3043.3	0.419186
3044.59	-0.199863
3045.87	0.572117
3047.16	0.152008
3048.44	0.700489
3049.73	1.4372
3051.01	0.858482
3052.3	1.43046
3053.58	0.760918
3054.87	1.01592
3056.15	0.897114
3057.43	1.0863
3058.72	1.47555
3060	0.351635
3061.29	1.08169
3062.57	0.524071
3063.85	0.735531
3065.13	1.13175
3066.42	1.33146
3067.7	0.6936
3068.98	0.316032
3070.26	0.929897
3071.54	0.410583
3072.82	1.23141
3074.11	0.65876
3075.39	1.2095
3076.67	1.29628
3077.95	1.73811
3079.23	0.530102
3080.51	1.1484
3081.79	0.242126
3083.07	0.441135
3084.35	1.68872
3085.63	1.45785
3086.9	0.260902
3088.18	1.04192
3089.46	0.624943
3090.74	1.46771
3092.02	1.73965
3093.29	0.615303
3094.57	0.483006
3095.85	0.8946
3097.13	1.11681
3098.4	1.81305
3099.68	0.516479
3100.95	2.29517
3102.23	0.647091
3103.51	1.11344
3104.78	1.09506
3106.06	1.2295
3107.33	1.51766
3108.61	1.68957
3109.88	2.1515
3111.16	1.60345
3112.43	1.93959
3113.71	1.41104
3114.98	1.9123
3116.25	1.7877
3117.53	1.44155
3118.8	2.56804
3120.07	1.76288
3121.35	1.46846
3122.62	2.43157
3123.89	3.31161
3125.16	2.66193
3126.44	3.21972
3127.71	2.58968
3128.98	2.6527
3130.25	3.19087
3131.52	2.41816
3132.79	2.84795
3134.06	3.12695
3135.33	3.20049
3136.6	3.48675
3137.87	2.93416
3139.14	3.67369
3140.41	3.07873
3141.68	3.68196
3142.95	4.72926
3144.22	3.71005
3145.49	3.95672
3146.76	4.1398
3148.02	4.21912
3149.29	4.44875
