200.43	0.148827
202.246	0.163747
204.061	0.179949
205.875	0.367521
207.688	0.458191
209.501	0.694325
211.316	0.370782
213.129	-0.0262661
214.941	0.304047
216.753	0.124529
218.566	0.696319
220.377	0.106337
222.188	0.147049
223.999	0.116218
225.809	0.5453
227.618	0.346207
229.43	0.750782
231.239	-0.100431
233.047	0.134584
234.855	0.176955
236.663	-0.647181
238.471	0.0735388
240.278	0.338723
242.087	0.509918
243.894	-0.330503
245.7	0.590245
247.506	0.0618057
249.311	0.110282
251.116	-0.27861
252.921	-0.235265
254.725	0.264883
256.529	-0.200194
258.333	0.444569
260.136	0.536435
261.939	-0.429695
263.744	-0.16553
265.546	-0.0207262
267.348	-0.164639
269.15	-0.0918512
270.951	0.317849
272.752	0.220307
274.552	0.338515
276.353	-0.725924
278.152	-0.0804129
279.952	-0.0634098
281.751	-0.16857
283.55	-0.154947
285.348	0.770381
287.146	0.589125
288.942	0.0486221
290.739	0.0608807
292.536	0.00257683
294.333	0.0176144
296.129	-0.109388
297.925	-0.330828
299.721	-0.0976524
301.516	0.374129
303.311	0.36734
305.106	0.0492067
306.9	0.422259
308.694	-0.134959
310.486	-0.000134468
312.279	0.421508
314.072	0.558768
315.864	0.864509
317.656	0.124245
319.448	0.218889
321.24	0.0287199
323.029	-0.0893812
324.819	0.126893
326.61	0.00928783
328.4	-0.013092
330.19	-0.299047
331.977	-0.15584
333.766	0.65594
335.555	-0.137198
337.343	0.000761032
339.131	-0.00675106
340.917	-0.135259
342.704	0.500541
344.491	0.179991
346.277	0.290077
348.062	0.711142
349.848	0.511833
351.633	0.5036
353.416	0.494847
355.201	0.50899
356.986	-0.43185
358.77	0.19988
360.552	-0.313318
362.335	0.315628
364.118	0.562457
365.899	0.142986
367.682	0.150784
369.464	0.039217
371.243	0.400809
373.025	0.0748243
374.806	-0.203506
376.585	-0.339541
378.365	-0.0268173
380.143	0.615864
381.923	-0.177309
383.702	0.254956
385.479	0.147153
387.258	-0.241415
389.034	0.240405
390.812	-0.0756607
392.59	-0.390935
394.365	-0.00117397
396.142	0.248012
397.916	0.23893
399.693	0.323632
401.467	0.619301
403.242	0.186257
405.015	-0.176999
406.79	0.633282
408.565	-0.247718
410.337	-0.142837
412.111	-0.108401
413.882	0.301773
415.656	-0.179132
417.426	0.138402
419.197	0.315726
420.969	0.46985
422.739	0.318588
424.51	0.190129
426.279	0.952896
428.05	0.423675
429.819	-0.199853
431.589	0.232849
433.356	-0.108773
435.124	-0.00420666
436.893	-0.0170298
438.66	0.0399141
440.428	-0.350263
442.194	0.102471
443.96	0.201201
445.727	0.438656
447.492	0.0894403
449.259	0.137903
451.023	-0.11741
452.787	0.538365
454.553	0.166943
456.316	-0.157328
458.079	0.939343
459.844	0.498472
461.606	-0.0574551
463.368	0.36473
465.132	0.579564
466.893	0.541347
468.654	0.621788
470.415	0.727283
472.177	0.251729
473.937	0.426841
475.696	0.460739
477.456	0.00344849
479.217	0.47622
480.975	0.0162735
482.733	-0.0941782
484.491	-0.296867
486.251	0.643473
488.008	0.793953
489.765	0.456686
491.522	0.469966
493.278	0.553925
495.036	0.427721
496.791	0.441593
498.546	0.267742
500.301	0.515242
502.056	0.715594
503.81	0.844938
505.566	0.714827
507.319	0.583241
509.073	0.967633
510.825	0.385982
512.578	0.81455
514.33	0.229911
516.082	0.749849
517.833	0.257121
519.587	0.798149
521.337	0.868025
523.088	0.960816
524.838	0.771609
526.588	0.113362
528.337	0.159181
530.087	0.228251
531.835	0.390546
533.584	0.458277
535.332	0.19738
537.08	0.59
538.827	0.957232
540.574	1.29921
542.321	0.568115
544.068	0.00122547
545.814	-0.0066967
547.56	0.194385
549.305	0.371984
551.05	0.317776
552.795	0.148157
554.54	0.0945587
556.284	0.0643435
558.027	-0.0808287
559.771	0.834452
561.514	0.275347
563.257	0.177653
564.999	0.333414
566.742	0.650283
568.481	0.140987
570.223	0.252648
571.964	0.411265
573.705	0.571239
575.445	0.45748
577.185	0.391038
578.925	0.853686
580.665	0.306879
582.402	-0.240413
584.141	0.36079
585.879	0.202623
587.617	-0.163795
589.355	0.066783
591.092	0.273551
592.828	0.594859
594.564	0.731912
596.301	0.155748
598.037	0.0626745
599.773	-0.582867
601.506	0.266221
603.242	0.147975
604.976	-0.178386
606.711	0.321616
608.443	0.429929
610.177	-0.403036
611.91	-0.133699
613.644	-0.139147
615.374	-0.189891
617.107	0.286468
618.839	0.189463
620.569	0.412067
622.3	0.152893
624.032	0.327616
625.761	0.273607
627.491	0.334671
629.221	0.511449
630.949	0.872746
632.679	0.209019
634.408	-0.157255
636.135	0.480482
637.863	0.614604
639.592	0.906002
641.318	0.122413
643.045	-0.0013361
644.77	0.602617
646.497	0.363995
648.224	0.309187
649.948	0.825172
651.674	0.0719824
653.398	0.43559
655.123	0.415813
656.846	0.193077
658.57	1.06483
660.293	0.705873
662.017	0.504683
663.738	0.506813
665.462	0.918306
667.185	0.482161
668.905	0.456808
670.628	0.477737
672.348	0.27149
674.067	1.18922
675.789	1.07895
677.508	0.877869
679.228	0.722466
680.947	-0.100804
682.667	0.384429
684.385	-0.213468
686.104	0.429929
687.821	0.220094
689.538	0.907591
691.256	0.534858
692.972	1.31328
694.69	1.03138
696.406	1.16315
698.121	0.672167
699.837	1.30791
701.552	0.815023
703.268	0.919387
704.982	0.747343
706.695	0.896358
708.41	1.77855
710.123	1.53619
711.836	0.904683
713.55	1.166
715.262	1.65519
716.973	1.38997
718.685	1.28498
720.398	1.04355
722.108	0.779917
723.818	0.721535
725.53	1.45879
727.24	0.76355
728.949	1.2038
730.658	0.962667
732.369	1.83138
734.077	1.4764
735.785	1.73243
737.493	2.01086
739.2	1.1163
740.909	1.3963
742.616	1.4968
744.322	1.10315
746.028	1.70131
747.734	1.06305
749.441	0.966105
751.146	0.892829
752.851	1.24806
754.555	2.0321
756.26	0.882554
757.963	1.01684
759.667	0.949791
761.372	1.46985
763.075	1.72042
764.777	2.03888
766.479	1.99519
768.181	1.92708
769.883	1.29154
771.584	1.89765
773.285	1.41701
774.986	1.77257
776.686	1.35982
778.386	2.37275
780.085	1.94002
781.785	1.938
783.484	1.66457
785.182	2.06908
786.881	1.99609
788.579	1.12803
790.276	1.90895
791.974	1.60139
793.671	1.65412
795.367	2.06737
797.064	1.62426
798.76	2.21934
800.456	1.82505
802.151	2.01745
803.846	1.73809
805.541	1.07667
807.236	2.10033
808.93	2.20108
810.624	2.00881
812.317	2.10744
814.01	2.09332
815.703	1.83272
817.394	2.13172
819.086	1.49161
820.778	2.37118
822.47	2.13406
824.161	2.18791
825.852	1.86423
827.543	2.72338
829.231	2.33767
830.921	2.37814
832.611	1.55252
834.3	2.33311
835.989	1.37585
837.676	2.47053
839.364	1.75665
841.053	1.33107
842.74	1.619
844.426	1.54903
846.113	2.32898
847.8	1.88133
849.486	1.50265
851.171	1.23768
852.857	1.75846
854.542	1.2042
856.227	0.738495
857.911	1.1253
859.595	1.71387
861.279	1.17577
862.961	1.31144
864.645	1.08549
866.329	1.48977
868.01	1.84859
869.692	1.28244
871.375	1.95644
873.055	0.577458
874.737	0.957986
876.418	1.54174
878.097	0.929472
879.778	1.08444
881.457	1.2617
883.137	1.37062
884.817	0.981931
886.495	1.42719
888.174	0.742682
889.851	0.891759
891.53	0.859062
893.206	1.00542
894.884	1.308
896.562	1.27185
898.237	1.18996
899.914	1.10738
901.589	0.845055
903.265	0.672359
904.94	0.969267
906.615	1.37722
908.289	1.47267
909.964	0.588855
911.637	1.26498
913.31	0.984739
914.984	0.727556
916.656	1.40263
918.33	0.946093
920.001	0.778374
921.674	0.854776
923.345	0.865755
925.015	0.944425
926.687	0.80386
928.357	0.797357
930.028	0.571299
931.698	0.544523
933.366	0.716553
935.037	0.866643
936.705	0.39955
938.373	0.550778
940.043	0.416335
941.71	1.1212
943.379	0.414857
945.046	0.767492
946.712	0.721966
948.378	0.652783
950.046	1.3323
951.711	0.708675
953.376	0.570687
955.043	0.544348
956.708	0.299871
958.372	0.940415
960.036	0.370113
961.701	0.440999
963.364	1.06455
965.027	0.426733
966.69	0.737441
968.354	0.0280151
970.016	1.17524
971.678	0.94992
973.339	1.12314
975	0.147742
976.661	0.76618
978.324	0.567701
979.984	0.701661
981.644	0.835391
983.303	0.658075
984.962	0.833246
986.621	1.05079
988.282	0.934689
989.94	0.950237
991.598	1.03148
993.256	0.383596
994.913	1.1714
996.57	0.811201
998.227	0.605763
999.884	1.43606
1001.54	1.03177
1003.2	0.539593
1004.85	0.575619
1006.51	0.633472
1008.16	-0.0332975
1009.82	0.486141
1011.47	1.59739
1013.12	0.998208
1014.78	1.03533
1016.43	0.65686
1018.08	0.804406
1019.74	1.01816
1021.39	0.839176
1023.04	0.617614
1024.69	0.943382
1026.34	0.220732
1028	0.415976
1029.65	0.435881
1031.3	0.563943
1032.95	0.450394
1034.6	0.248259
1036.25	0.590266
1037.9	0.517127
1039.55	0.835839
1041.19	0.937152
1042.84	0.713476
1044.49	1.31725
1046.14	0.684359
1047.79	0.791859
1049.43	1.05289
1051.08	1.24999
1052.73	0.383449
1054.37	0.342612
1056.02	0.258316
1057.66	0.717239
1059.31	0.0453043
1060.95	0.916531
1062.6	0.87388
1064.24	0.395548
1065.88	0.481661
1067.53	0.284262
1069.17	0.803102
1070.81	0.691175
1072.46	0.796296
1074.1	0.294234
1075.74	0.0537271
1077.38	0.0964031
1079.02	0.985857
1080.66	0.423098
1082.3	0.142279
1083.94	-0.0958519
1085.58	0.770299
1087.22	0.355675
1088.86	0.0696268
1090.5	0.583058
1092.14	0.42444
1093.78	0.308869
1095.42	0.301565
1097.05	0.898567
1098.69	0.612715
1100.33	-0.0371332
1101.97	0.13299
1103.6	0.283024
1105.24	0.756812
1106.87	0.370739
1108.51	0.715693
1110.15	-0.0799398
1111.78	1.18689
1113.41	0.152571
1115.05	-0.0229034
1116.68	0.251855
1118.31	0.654965
1119.95	0.608248
1121.58	0.690973
1123.21	0.132512
1124.85	0.62373
1126.48	-0.0395775
1128.11	0.452881
1129.74	0.646469
1131.37	0.306068
1133	1.27004
1134.63	1.72073
1136.26	2.36306
1137.89	0.269059
1139.52	0.268529
1141.15	0.0536356
1142.78	-0.161472
1144.41	-0.461562
1146.04	0.177209
1147.66	-0.0574408
1149.29	0.156214
1150.92	0.306304
1152.55	-0.352857
1154.17	0.0738087
1155.8	-0.117295
1157.43	-0.329647
1159.05	-0.0949097
1160.68	0.586985
1162.3	0.461698
1163.93	-0.0241117
1165.55	0.000824928
1167.17	0.238194
1168.8	0.134501
1170.42	-0.183112
1172.05	0.708852
1173.67	-0.015316
1175.29	0.448526
1176.91	0.190441
1178.54	0.314219
1180.16	0.184416
1181.78	-0.388658
1183.4	-0.0936728
1185.02	0.243299
1186.64	-0.181083
1188.26	0.427676
1189.88	-0.104574
1191.5	0.289083
1193.12	0.154829
1194.74	0.0202398
1196.36	-0.0510492
1197.97	0.23458
1199.59	0.500083
1201.21	0.328349
1202.83	-0.0704517
1204.44	0.514276
1206.06	-0.151381
1207.68	0.45692
1209.29	0.147523
1210.91	0.108695
1212.52	0.256125
1214.14	0.422386
1215.75	0.773882
1217.37	1.10235
1218.98	0.203156
1220.6	0.136074
1222.21	0.297833
1223.82	0.460369
1225.44	0.416918
1227.05	0.333464
1228.66	0.478826
1230.27	0.893966
1231.88	0.503788
1233.49	0.879537
1235.1	0.594987
1236.72	0.828218
1238.33	0.545602
1239.94	1.04924
1241.55	1.09829
1243.16	0.485036
1244.76	1.00895
1246.37	0.642277
1247.98	1.01965
1249.59	1.72732
1251.2	1.62772
1252.8	1.01122
1254.41	0.974618
1256.02	0.938985
1257.63	1.09064
1259.23	1.28479
1260.84	1.25219
1262.44	1.4478
1264.05	1.70574
1265.66	1.61122
1267.26	1.55741
1268.87	1.75148
1270.47	1.6958
1272.07	0.97564
1273.68	1.29124
1275.28	1.77167
1276.88	1.44281
1278.48	1.32056
1280.09	1.65337
1281.69	2.06839
1283.29	1.80045
1284.89	1.74004
1286.49	1.61851
1288.09	1.78737
1289.69	1.68841
1291.3	1.56931
1292.9	1.45016
1294.49	1.20643
1296.09	1.6432
1297.69	1.87173
1299.29	2.26348
1300.89	1.66366
1302.49	1.57858
1304.09	1.76029
1305.68	2.04376
1307.28	1.56628
1308.88	1.62293
1310.47	2.04835
1312.07	1.55199
1313.66	0.87326
1315.26	1.66788
1316.86	1.42077
1318.45	1.25618
1320.05	1.94799
1321.64	1.96566
1323.23	1.31031
1324.83	1.56948
1326.42	1.64403
1328.01	1.81922
1329.61	1.83247
1331.2	1.98875
1332.79	1.92456
1334.38	1.86262
1335.98	1.70144
1337.57	1.92417
1339.16	1.62198
1340.75	1.54025
1342.34	1.67807
1343.93	1.95446
1345.52	1.68709
1347.11	1.03947
1348.7	1.25607
1350.29	1.43443
1351.87	1.21483
1353.46	1.29719
1355.05	1.84038
1356.64	1.26466
1358.23	0.888643
1359.81	1.11113
1361.4	1.69175
1362.99	1.43316
1364.57	0.875499
1366.16	1.05589
1367.74	1.07746
1369.33	1.53801
1370.91	0.686089
1372.5	0.930082
1374.08	0.995921
1375.67	1.06235
1377.25	0.810499
1378.83	0.896504
1380.42	0.902041
1382	0.806993
1383.58	1.26768
1385.16	1.44882
1386.75	0.79495
1388.33	0.9957
1389.91	1.01819
1391.49	1.59705
1393.07	0.966192
1394.65	0.375642
1396.23	0.558549
1397.81	0.364137
1399.39	0.763496
1400.97	0.805194
1402.55	0.529624
1404.13	1.08522
1405.7	1.38362
1407.28	1.36627
1408.86	0.737193
1410.44	0.839796
1412.01	0.942313
1413.59	1.10347
1415.17	1.3229
1416.74	1.36386
1418.32	1.22703
1419.89	0.736032
1421.47	1.28998
1423.05	0.840981
1424.62	1.06276
1426.19	0.970682
1427.77	0.859394
1429.34	1.57456
1430.92	1.69842
1432.49	1.21117
1434.06	1.09705
1435.63	1.82828
1437.2	1.43855
1438.78	1.54107
1440.35	1.56582
1441.92	1.63073
1443.49	1.14598
1445.06	1.7425
1446.63	1.53337
1448.2	1.42262
1449.77	2.15744
1451.34	1.63448
1452.91	2.07546
1454.48	1.78914
1456.05	2.0339
1457.62	2.27817
1459.18	1.65535
1460.75	2.01495
1462.32	1.88083
1463.89	1.78461
1465.45	1.56955
1467.02	1.21686
1468.59	1.70907
1470.15	1.41662
1471.72	1.61581
1473.28	1.03133
1474.85	1.23213
1476.41	0.629339
1477.98	0.654125
1479.54	0.914073
1481.11	1.03666
1482.67	0.45365
1484.23	1.12469
1485.8	0.894045
1487.36	0.721612
1488.92	0.626507
1490.48	0.647383
1492.05	0.490467
1493.61	1.42584
1495.17	0.69929
1496.73	0.168427
1498.29	0.43654
1499.85	1.28745
1501.41	0.661891
1502.97	0.077435
1504.53	0.327938
1506.09	0.345898
1507.65	0.324658
1509.2	0.534456
1510.76	0.395514
1512.32	0.236913
1513.88	0.463332
1515.44	0.593174
1516.99	0.627179
1518.55	0.239862
1520.1	1.04151
1521.66	0.808331
1523.22	0.938543
1524.77	0.265942
1526.33	0.909818
1527.88	0.713378
1529.44	0.97335
1530.99	0.852794
1532.55	0.448572
1534.1	0.803597
1535.65	0.780313
1537.21	0.984601
1538.76	0.849297
1540.31	0.884289
1541.86	0.862776
1543.42	0.935309
1544.97	0.763103
1546.52	1.53017
1548.07	1.50745
1549.62	0.959918
1551.17	1.72437
1552.72	0.878991
1554.27	1.36294
1555.82	0.894803
1557.37	1.43669
1558.92	1.42001
1560.47	1.18113
1562.02	2.04431
1563.57	1.73324
1565.11	1.38528
1566.66	1.74645
1568.21	1.67823
1569.75	1.53497
1571.3	1.89533
1572.85	2.21811
1574.39	1.42069
1575.94	2.13534
1577.49	2.27147
1579.03	1.90392
1580.58	2.32105
1582.12	2.3095
1583.67	1.64487
1585.21	1.61585
1586.75	1.62461
1588.3	1.53998
1589.84	2.16612
1591.38	1.68793
1592.93	1.97669
1594.47	2.02184
1596.01	2.06702
1597.55	1.73774
1599.09	2.32753
1600.63	2.29943
1602.18	1.87759
1603.72	1.73695
1605.26	1.50165
1606.8	1.26498
1608.34	1.98514
1609.87	2.00788
1611.41	2.0097
1612.95	2.00971
1614.49	1.46423
1616.03	1.20037
1617.57	1.46204
1619.11	1.79932
1620.64	1.81924
1622.18	1.70929
1623.72	1.9558
1625.25	1.37865
1626.79	1.79293
1628.32	1.64458
1629.86	2.59841
1631.4	1.30751
1632.93	1.45595
1634.47	1.73511
1636	1.88404
1637.53	2.29475
1639.07	2.33284
1640.6	2.03547
1642.14	1.71913
1643.67	1.849
1645.2	2.3312
1646.73	1.9565
1648.27	2.3067
1649.8	2.11825
1651.33	1.98657
1652.86	2.11579
1654.39	1.52282
1655.92	1.8946
1657.45	2.04373
1658.98	2.41432
1660.51	2.46865
1662.04	2.33655
1663.57	2.09263
1665.1	2.19949
1666.63	2.21418
1668.16	2.04539
1669.69	2.06244
1671.21	1.45434
1672.74	1.2344
1674.27	1.69632
1675.79	1.47662
1677.32	1.58763
1678.85	1.10895
1680.37	1.03435
1681.9	1.03269
1683.42	0.902205
1684.95	1.02882
1686.47	1.90744
1688	1.31911
1689.52	1.51946
1691.05	1.02403
1692.57	1.05987
1694.1	0.766354
1695.62	0.820336
1697.14	0.76441
1698.66	1.00043
1700.19	0.724796
1701.71	1.01445
1703.23	0.68357
1704.75	0.68051
1706.27	0.404139
1707.79	0.364326
1709.32	0.415306
1710.83	0.57513
1712.35	0.372149
1713.88	0.423256
1715.39	0.456213
1716.91	0.688013
1718.43	0.539773
1719.95	0.175014
1721.47	0.153777
1722.99	0.421435
1724.5	0.257063
1726.02	0.147885
1727.54	0.183795
1729.06	-0.229467
1730.57	0.0786753
1732.09	0.436204
1733.61	0.55754
1735.12	0.520326
1736.64	0.400221
1738.15	-0.0238843
1739.67	0.508491
1741.18	-0.0293121
1742.7	0.294245
1744.21	0.38428
1745.72	-0.0787253
1747.24	0.0719104
1748.75	0.16339
1750.26	0.606047
1751.78	0.10272
1753.29	0.623509
1754.8	0.427324
1756.31	-0.0213976
1757.82	0.0200591
1759.34	0.57017
1760.85	0.211246
1762.36	0.423647
1763.87	0.142539
1765.38	0.207379
1766.89	0.325925
1768.4	0.152574
1769.91	-0.0910082
1771.41	0.336927
1772.92	0.270566
1774.43	0.133574
1775.94	0.229297
1777.45	0.432329
1778.96	0.383317
1780.46	0.0432477
1781.97	0.456903
1783.48	-0.00344801
1784.98	0.0101762
1786.49	0.128097
1788	0.280602
1789.5	0.0183606
1791.01	0.00263119
1792.51	0.078445
1794.01	0.380832
1795.52	0.110443
1797.02	0.0164156
1798.53	0.234745
1800.03	0.349358
1801.54	-0.173326
1803.04	0.0365
1804.54	-0.00808859
1806.04	0.147757
1807.54	0.140146
1809.05	0.146638
1810.55	0.12972
1812.05	0.0205522
1813.55	0.00651789
1815.05	0.245432
1816.55	0.293547
1818.05	0.159916
1819.55	0.248126
1821.05	0.257565
1822.55	0.22734
1824.05	0.223763
1825.55	0.0648017
1827.05	0.164865
1828.55	0.0123067
1830.04	-0.263103
1831.54	0.208611
1833.04	0.166317
1834.54	0.142429
1836.03	0.202917
1837.53	0.180815
1839.03	-0.112717
1840.52	0.436403
1842.02	-0.0878863
1843.51	0.177129
1845.01	0.0574236
1846.5	-0.0600019
1848	0.117203
1849.49	-0.217273
1850.99	-0.0188951
1852.48	-0.0114722
1853.97	-0.0763216
1855.47	0.258091
1856.96	0.331237
1858.45	0.127355
1859.94	0.113421
1861.44	0.442805
1862.93	0.23169
1864.42	0.189219
1865.91	-0.0132446
1867.4	0.0654998
1868.89	-0.0431538
1870.38	-0.129601
1871.87	0.0681057
1873.36	0.190897
1874.85	-0.222369
1876.34	-0.212255
1877.83	0.125621
1879.32	0.42785
1880.81	0.015512
1882.3	-0.109221
1882.56	-0.116629
1884.06	0.213054
1885.55	-0.120288
1887.04	0.225281
1888.54	0.308993
1890.03	-0.0247874
1891.52	-0.0792651
1893.02	0.0239525
1894.51	0.180652
1896	-0.0613956
1897.49	0.357957
1898.99	-0.092391
1900.48	-0.143507
1901.97	0.0129242
1903.46	0.359266
1904.95	0.13059
1906.44	-0.237458
1907.93	0.0720916
1909.42	0.138797
1910.91	0.0846977
1912.4	0.0833402
1913.89	0.047708
1915.38	0.0641637
1916.86	0.305728
1918.35	-0.181194
1919.84	0.198161
1921.33	-0.0983038
1922.82	0.107872
1924.3	-0.0835714
1925.79	0.089407
1927.28	0.176618
1928.76	-0.0819683
1930.25	-0.0116472
1931.74	0.0927024
1933.22	-0.150362
1934.71	-0.10036
1936.19	0.225179
1937.67	0.0480313
1939.16	0.164499
1940.64	0.0220394
1942.13	0.19102
1943.61	-0.156859
1945.09	-0.279677
1946.58	0.0632873
1948.06	-0.249015
1949.54	0.368578
1951.03	-0.134316
1952.51	-0.121114
1953.99	0.338713
1955.47	0.419823
1956.95	-0.391817
1958.43	-0.000625134
1959.91	0.270621
1961.39	0.370566
1962.87	0.162061
1964.35	-0.33768
1965.83	0.224372
1967.31	0.100711
1968.79	0.0451097
1970.27	-0.0792294
1971.75	0.0355229
1973.22	-0.0888848
1974.7	-0.0765991
1976.18	-0.319858
1977.66	-0.153888
1979.13	-0.260411
1980.61	-0.3328
1982.09	0.240697
1983.56	-0.121054
1985.04	0.315194
1986.52	-0.0295706
1987.99	-0.119608
1989.47	0.230999
1990.94	0.0908852
1992.41	-0.065249
1993.89	0.11762
1995.36	0.368555
1996.84	0.315574
1998.31	0.245697
1999.78	0.0404696
2001.26	0.172439
2002.73	0.101505
2004.2	0.148547
2005.67	0.263209
2007.15	-0.21116
2008.62	0.106886
2010.09	-0.113288
2011.56	0.323483
2013.03	0.272076
2014.5	0.0520597
2015.97	0.454038
2017.44	0.283226
2018.91	-0.241111
2020.38	0.175567
2021.85	0.0375371
2023.32	-0.133667
2024.79	-0.23702
2026.25	0.28119
2027.72	0.0623679
2029.19	-0.0714478
2030.66	0.0976653
2032.13	0.0158749
2033.59	0.320502
2035.06	-0.29832
2036.53	0.241291
2037.99	0.0750608
2039.46	0.261401
2040.92	-0.258253
2042.39	0.163754
2043.85	-0.0525737
2045.32	-0.184254
2046.78	0.0717258
2048.25	0.159752
2049.71	0.567844
2051.18	-0.0698967
2052.64	-0.0177398
2054.1	0.117397
2055.56	0.200609
2057.03	0.350159
2058.49	0.229381
2059.95	0.0243778
2061.42	0.0218973
2062.88	-0.114622
2064.34	0.338708
2065.8	0.321516
2067.26	0.624744
2068.72	0.490885
2070.18	0.559247
2071.64	0.240458
2073.1	0.746521
2074.56	0.545231
2076.02	0.427847
2077.48	0.276487
2078.94	0.276382
2080.39	0.309599
2081.85	0.46023
2083.31	0.458787
2084.77	0.338967
2086.22	0.134552
2087.68	0.585575
2089.14	0.666121
2090.6	0.511272
2092.05	0.759439
2093.51	0.42
2094.96	0.55028
2096.42	0.395094
2097.87	0.725289
2099.33	0.769999
2100.78	0.279276
2102.24	0.658395
2103.69	0.853974
2105.15	0.783366
2106.6	0.413671
2108.05	0.778899
2109.51	0.443875
2110.96	0.725375
2112.41	1.0889
2113.86	0.851118
2115.32	0.812022
2116.77	0.872016
2118.22	0.732874
2119.67	0.844021
2121.12	1.25525
2122.57	1.25321
2124.02	1.08661
2125.47	1.41803
2126.92	1.43413
2128.37	1.36646
2129.82	1.46332
2131.27	0.830246
2132.72	1.12414
2134.17	1.30188
2135.62	1.48013
2137.06	1.41162
2138.51	1.57613
2139.96	1.80843
2141.41	1.10004
2142.85	1.88051
2144.3	1.8681
2145.75	1.97165
2147.19	1.81009
2148.64	1.83004
2150.09	1.89891
2151.53	2.13259
2152.97	1.93458
2154.42	2.24945
2155.86	2.14969
2157.31	1.98378
2158.75	2.08359
2160.2	2.23436
2161.64	2.20457
2163.08	2.06043
2164.53	2.19958
2165.97	2.25668
2167.41	1.91502
2168.86	2.35332
2170.3	2.25814
2171.74	2.21084
2173.18	2.02864
2174.62	2.56045
2176.06	2.2933
2177.5	2.1761
2178.94	2.50855
2180.38	2.01064
2181.82	2.27833
2183.26	2.24732
2184.7	2.1833
2186.14	2.03614
2187.58	2.22175
2189.02	2.35754
2190.46	2.44344
2191.89	1.77993
2193.33	1.91479
2194.77	2.01514
2196.21	1.89741
2197.64	1.42858
2199.08	1.72361
2200.52	1.66843
2201.95	1.48041
2203.39	1.52552
2204.83	1.82025
2206.26	1.43612
2207.7	1.40068
2209.13	1.64661
2210.57	1.36199
2212	1.42418
2213.43	1.48565
2214.87	0.952324
2216.3	1.54266
2217.73	1.19298
2219.17	1.35589
2220.6	0.975409
2222.03	0.710623
2223.47	0.906736
2224.9	1.28266
2226.33	0.702284
2227.76	0.729782
2229.19	1.10108
2230.62	1.22487
2232.05	0.660005
2233.49	0.636777
2234.91	0.614219
2236.34	0.347612
2237.77	0.915228
2239.2	0.504751
2240.63	0.748657
2242.06	0.455716
2243.49	0.979283
2244.92	0.75287
2246.35	0.509591
2247.78	0.444499
2249.2	0.296256
2250.63	0.732934
2252.06	0.711789
2253.48	0.234707
2254.91	0.554842
2256.34	0.810679
2257.76	0.370443
2259.19	0.711452
2260.61	0.600523
2262.04	0.394095
2263.46	0.351117
2264.89	0.633346
2266.31	0.167618
2267.74	0.319008
2269.16	0.209427
2270.59	0.555001
2272.01	0.28161
2273.43	0.154556
2274.85	0.15784
2276.28	0.259058
2277.7	0.213787
2279.12	0.576114
2280.54	0.139556
2281.97	0.159395
2283.39	0.358655
2284.81	-0.143655
2286.23	-0.123711
2287.65	0.468005
2289.07	0.227441
2290.49	0.248464
2291.91	0.269729
2293.33	0.356526
2294.75	0.42703
2296.17	0.366585
2297.59	0.273304
2299.01	0.245526
2300.42	0.152318
2301.84	-0.0555367
2303.26	0.62256
2304.68	-0.192266
2306.1	0.15808
2307.51	0.294902
2308.93	0.299927
2310.35	0.10718
2311.76	0.062057
2313.18	-0.0982828
2314.59	0.21892
2316.01	-0.0723338
2317.43	-0.215006
2318.84	0.137039
2320.26	-0.0879922
2321.67	0.296475
2323.08	-0.112474
2324.5	0.351487
2325.91	0.219605
2327.33	0.432848
2328.74	0.0684834
2330.15	0.396475
2331.56	-0.164174
2332.98	-0.0487876
2334.39	0.132984
2335.8	0.0187511
2337.21	0.233154
2338.62	0.117876
2340.04	0.149722
2341.45	0.246507
2342.86	-0.182337
2344.27	0.0617571
2345.68	0.109083
2347.09	-0.00721264
2348.5	0.187669
2349.91	-0.14145
2351.31	-0.209131
2352.72	0.179882
2354.13	0.143253
2355.54	-0.268697
2356.95	0.215491
2358.36	-0.114577
2359.76	0.076055
2361.17	0.136528
2362.58	0.0509553
2363.98	-0.0183101
2365.39	0.203736
2366.8	-0.366405
2368.21	0.211333
2369.61	0.0467963
2371.02	0.157548
2372.42	0.156411
2373.83	0.188251
2375.23	-0.0693769
2376.64	0.139514
2378.04	-0.167174
2379.44	0.0395808
2380.85	0.164482
2382.25	0.0635815
2383.66	0.0423236
2385.06	0.00496292
2386.46	0.0958223
2387.86	0.0754547
2389.26	-0.119341
2390.67	0.149124
2392.07	0.402172
2393.47	0.00334978
2394.87	0.257616
2396.27	0.0670795
2397.67	0.0519791
2399.07	0.148546
2400.47	0.213682
2401.87	-0.21335
2403.27	-0.0526147
2404.67	0.234815
2406.07	0.06111
2407.47	-0.255964
2408.87	-0.319561
2410.27	0.0763593
2411.67	0.23441
2413.07	-0.0187898
2414.46	0.0616112
2415.86	-0.205191
2417.26	0.0514207
2418.66	0.245426
2420.05	0.376427
2421.45	0.206421
2422.84	0.194513
2424.24	0.182403
2425.64	0.13865
2427.03	0.174528
2428.43	0.147678
2429.82	0.0105052
2431.22	0.0482755
2432.61	0.0703034
2434.01	-0.00333452
2435.4	0.14456
2436.79	-0.0263786
2438.19	0.214636
2439.58	0.168693
2440.97	0.0109282
2442.37	0.37672
2443.76	0.139044
2445.15	0.266239
2446.54	-0.0190034
2447.93	0.171325
2449.33	0.250596
2450.72	0.599142
2452.11	0.156481
2453.5	0.0786242
2454.89	0.175467
2456.28	0.019712
2457.67	0.228019
2459.06	0.278008
2460.45	-0.0678158
2461.84	0.581965
2463.23	0.25082
2464.62	-0.00153303
2466	-0.048595
2467.39	-0.411382
2468.78	0.0307965
2470.17	0.0623851
2471.55	0.330034
2472.94	-0.11202
2474.33	-0.034575
2475.72	-0.209388
2477.1	0.26021
2478.49	0.681898
2479.87	-0.43473
2481.26	-0.0756211
2482.65	0.0478702
2484.03	0.0925379
2485.42	0.308499
2486.8	0.19508
2488.19	0.096694
2489.57	0.153842
2490.95	0.132926
2492.34	0.0813737
2493.72	0.186014
2495.1	-0.329028
2496.49	-0.0518146
2497.87	0.0552201
2499.25	-0.100831
2500.63	0.129761
2502.02	0.143046
2503.4	0.0938144
2504.78	0.275379
2506.16	-0.0677657
2507.54	0.343796
2508.92	0.0473809
2510.3	0.151202
2511.68	-0.158934
2513.06	0.359793
2514.44	0.112506
2515.82	0.0345936
2517.2	-0.333289
2518.58	-0.0276942
2519.96	0.140175
2521.34	0.200756
2522.72	-0.319229
2524.1	0.106522
2525.47	0.272018
2526.85	0.0106859
2528.23	0.145676
2529.6	-0.12925
2530.98	-0.0379772
2532.36	-0.20386
2533.74	-0.0648713
2535.11	0.241718
2536.49	0.0165215
2537.86	0.140239
2539.24	0.399884
2540.61	0.0969934
2541.99	-0.00865793
2543.36	0.174244
2544.74	0.145315
2546.11	0.132481
2547.49	0.196393
2548.86	-0.179034
2550.23	0.219325
2551.61	0.116617
2552.98	-0.123377
2554.35	-0.136466
2555.72	0.153244
2557.09	-0.437309
2558.47	-0.0116949
2559.84	-0.056056
2561.21	0.384983
2562.58	0.0837984
2563.95	0.101311
2565.32	-0.0627151
2566.69	0.121971
2568.06	0.0187845
2569.43	0.173236
2570.8	0.373168
2572.17	0.0729446
2573.54	0.182017
2574.91	0.18505
2576.28	0.0364847
2577.65	0.388187
2579.02	0.360673
2580.39	0.0296211
2581.75	-0.0439687
2583.12	0.306697
2584.49	0.126522
2585.85	0.0524459
2587.22	-0.127631
2588.59	-0.0499115
2589.95	0.0581765
2591.32	0.0297608
2592.68	0.39494
2594.05	0.410954
2595.42	0.335302
2596.78	-0.104342
2598.15	0.0912519
2599.51	0.301464
2600.88	-0.0475597
2602.24	0.419656
2603.6	-0.0338807
2604.97	0.328178
2606.33	0.056561
2607.69	0.0563045
2609.06	0.130773
2610.42	-0.112036
2611.78	0.141196
2613.14	-0.0278683
2614.51	0.103244
2615.87	0.0538359
2617.23	0.229542
2618.59	0.0309477
2619.95	0.386907
2621.31	0.0550494
2622.67	0.067699
2624.03	-0.173363
2625.39	0.212567
2626.75	-0.162724
2628.11	-0.00129843
2629.47	-0.376359
2630.83	-0.0219889
2632.19	-0.0696459
2633.55	0.328336
2634.91	-0.179701
2636.26	0.232489
2637.62	0.155005
2638.98	0.00364399
2640.34	-0.132584
2641.69	0.0715795
2643.05	0.349498
2644.41	0.361409
2645.76	0.343724
2647.12	-0.160716
2648.48	0.263058
2649.83	0.0379925
2651.19	0.297972
2652.54	0.204732
2653.9	-0.0642061
2655.25	0.0782952
2656.6	0.265275
2657.96	0.145476
2659.31	-0.13446
2660.67	-0.00444794
2662.02	-0.123132
2663.37	-0.0668559
2664.73	-0.288566
2666.08	0.20417
2667.43	0.22943
2668.78	0.283691
2670.14	-0.0402293
2671.49	0.131033
2672.84	0.157208
2674.19	0.111186
2675.54	0.0801277
2676.89	0.00597429
2678.24	0.30942
2679.59	0.468307
2680.94	0.337964
2682.29	0.150527
2683.64	0.253926
2684.99	0.111479
2686.34	0.375536
2687.69	0.378341
2689.04	0.22054
2690.39	0.496962
2691.74	0.133291
2693.08	0.305519
2694.43	0.128849
2695.78	0.372508
2697.13	0.0659251
2698.47	0.513515
2699.82	0.0499921
2701.17	0.109018
2702.51	-0.0771127
2703.86	-0.146732
2705.21	0.00139284
2706.55	0.49778
2707.9	-0.0213728
2709.24	-0.192863
2710.58	-0.0017128
2711.93	0.450844
2713.27	0.235124
2714.62	0.179096
2715.96	0.370149
2717.3	0.706628
2718.65	0.0974545
2719.99	0.229809
2721.33	0.274542
2722.68	0.39168
2724.02	0.202792
2725.36	0.319222
2726.71	0.551785
2728.05	0.405654
2729.39	0.0556226
2730.73	0.374867
2732.07	0.286631
2733.41	0.183916
2734.75	0.212241
2736.09	0.211601
2737.43	0.385566
2738.77	0.384957
2740.11	0.253262
2741.45	0.237538
2742.79	0.352155
2744.13	0.117384
2745.47	0.289062
2746.81	-0.0334544
2748.14	0.297329
2749.48	0.0329766
2750.82	0.175054
2752.16	0.288189
2753.49	0.0680704
2754.83	0.297331
2756.17	0.222371
2757.5	0.205478
2758.84	0.116389
2760.18	0.0565472
2761.51	0.156241
2762.85	-0.192319
2764.18	-0.0486908
2765.52	0.572348
2766.85	0.353827
2768.19	0.0767927
2769.52	0.247177
2770.86	-0.320688
2772.19	0.150927
2773.52	-0.0571032
2774.86	0.181715
2776.19	-0.0408382
2777.52	0.0970035
2778.86	0.0193124
2780.19	-0.0435414
2781.52	0.339067
2782.85	0.204581
2784.19	0.127571
2785.52	0.0506339
2786.85	0.14579
2788.18	-0.317074
2789.51	0.108132
2790.84	0.033042
2792.17	-0.155842
2793.5	0.0988154
2794.83	-0.375517
2796.16	-0.149754
2797.49	0.503976
2798.82	0.0288272
2800.15	0.138883
2801.48	-0.0509443
2802.81	-0.155198
2804.13	0.224957
2805.46	0.0204144
2806.79	0.0718441
2808.12	0.222284
2809.45	0.116362
2810.77	0.252022
2812.1	-0.094553
2813.43	-0.0427761
2814.75	0.236823
2816.08	0.00704098
2817.41	0.288364
2818.73	0.0173182
2820.06	0.0864239
2821.38	-0.170795
2822.71	-0.0600119
2824.03	0.0361056
2825.36	0.174411
2826.68	-0.0413551
2828	0.0264969
2829.33	-0.0609994
2830.65	0.134956
2831.98	-0.263497
2833.3	0.399639
2834.62	0.199058
2835.94	0.366088
2837.27	0.546795
2838.59	0.246124
2839.91	0.482832
2841.23	0.578106
2842.55	0.899808
2843.87	0.812037
2845.2	0.922685
2846.52	0.737016
2847.84	1.04626
2849.16	1.18592
2850.48	1.21227
2851.8	1.23822
2853.12	1.22136
2854.44	1.37376
2855.76	1.18687
2857.08	1.49445
2858.39	1.60423
2859.71	1.12082
2861.03	1.95056
2862.35	1.63625
2863.67	1.8722
2864.98	1.85383
2866.3	2.23042
2867.62	2.33908
2868.94	2.12375
2870.25	2.34586
2871.57	3.00499
2872.88	2.59257
2874.2	2.64463
2875.52	2.7521
2876.83	2.60514
2878.15	2.78128
2879.46	2.42258
2880.78	2.68298
2882.09	2.52233
2883.41	2.72782
2884.72	3.18672
2886.03	2.9721
2887.35	2.5892
2888.66	2.62704
2889.97	3.15516
2891.29	3.42977
2892.6	2.83467
2893.91	3.05248
2895.22	2.94836
2896.54	2.76102
2897.85	2.82655
2899.16	3.04679
2900.47	3.01584
2901.78	3.37694
2903.09	3.64027
2904.4	3.52604
2905.71	3.28617
2907.02	3.42445
2908.33	3.77327
2909.64	3.87108
2910.95	3.85746
2912.26	4.47371
2913.57	4.31951
2914.88	4.23402
2916.19	4.59499
2917.5	4.7025
2918.81	4.58521
2920.11	4.92941
2921.42	5.0643
2922.73	5.10243
2924.04	5.3515
2925.34	5.64356
2926.65	5.57278
2927.96	5.66978
2929.26	5.5707
2930.57	5.72275
2931.87	5.86037
2933.18	5.7741
2934.49	5.71577
2935.79	5.46192
2937.1	5.87906
2938.4	5.82122
2939.7	5.6379
2941.01	5.52495
2942.31	5.46872
2943.62	5.19
2944.92	5.22
2946.22	4.9714
2947.53	4.54129
2948.83	4.2086
2950.13	4.57475
2951.43	4.0713
2952.74	3.66419
2954.04	4.39004
2955.34	4.17749
2956.64	3.85385
2957.94	3.90994
2959.24	3.98243
2960.54	3.77727
2961.84	3.95215
2963.15	3.55275
2964.45	3.12421
2965.75	3.32613
2967.05	3.33013
2968.34	3.43145
2969.64	3.08222
2970.94	3.07033
2972.24	2.59443
2973.54	2.66742
2974.84	2.71232
2976.14	2.48922
2977.43	2.6593
2978.73	2.26479
2980.03	2.16465
2981.33	2.04947
2982.62	1.96211
2983.92	1.91731
2985.22	1.8313
2986.51	1.71846
2987.81	1.53658
2989.11	1.66466
2990.4	1.38543
2991.7	1.40098
2992.99	1.50005
2994.29	1.30306
2995.58	1.28792
2996.88	1.01954
2998.17	1.06
2999.46	0.820132
3000.76	0.608955
3002.05	0.622677
3003.34	0.678789
3004.64	0.636932
3005.93	0.538926
3007.22	0.692534
3008.52	0.229801
3009.81	0.298307
3011.1	0.226499
3012.39	0.224343
3013.68	0.44545
3014.97	0.220526
3016.27	0.0940166
3017.56	0.135341
3018.85	0.0796595
3020.14	0.163215
3021.43	-0.0732641
3022.72	0.106664
3024.01	0.160746
3025.3	-0.00758934
3026.59	0.0182085
3027.88	0.127405
3029.16	-0.32951
3030.45	-0.0523524
3031.74	-0.0505433
3033.03	0.048748
3034.32	0.0516658
3035.6	0.426702
3036.89	0.111052
3038.18	-0.109014
3039.47	0.0690956
3040.75	-0.0429249
3042.04	-0.196417
3043.33	0.116561
3044.61	0.265189
3045.9	0.141401
3047.18	0.251846
3048.47	0.131962
3049.75	0.0957842
3051.04	0.0882006
3052.32	0.436108
3053.61	0.497526
3054.89	0.0673785
3056.18	0.318641
3057.46	0.105476
3058.74	0.232628
3060.03	0.0463791
3061.31	0.296178
3062.59	0.328954
3063.88	-0.126581
3065.16	0.330165
3066.44	0.0539193
3067.72	0.0912051
3069	0.142502
3070.29	0.166523
3071.57	0.189986
3072.85	-0.0457416
3074.13	-0.0646462
3075.41	0.0925369
3076.69	0.140811
3077.97	-0.0412726
3079.25	-0.0594521
3080.53	0.181344
3081.81	0.206367
3083.09	0.123938
3084.37	-0.161413
3085.65	0.0826111
3086.93	0.000719547
3088.21	0.0948749
3089.49	-0.109941
3090.76	-0.328463
3092.04	-0.207692
3093.32	0.0896101
3094.6	0.197308
3095.87	-0.0878825
3097.15	0.264369
3098.43	0.115114
3099.7	-0.372773
3100.98	0.020184
3102.26	0.0339456
3103.53	0.169911
3104.81	0.143928
3106.08	-0.0301986
3107.36	-0.122263
3108.63	0.0843129
3109.91	-0.141268
3111.18	0.121349
3112.46	0.0733223
3113.73	0.10703
3115	-0.265804
3116.28	0.242408
3117.55	0.289246
3118.83	0.159118
3120.1	0.0148091
3121.37	0.290368
3122.64	0.172474
3123.92	0.32563
3125.19	0.181125
3126.46	0.79517
3127.73	0.259413
3129	0.387313
3130.27	0.502047
3131.55	0.170962
3132.82	0.259066
3134.09	0.211975
3135.36	0.0297523
3136.63	0.346751
3137.9	0.420506
3139.17	0.898215
3140.44	0.459981
3141.71	0.547248
3142.98	0.325792
3144.24	0.709386
3145.51	0.502857
3146.78	0.632494
3148.05	0.601908
3149.32	0.652389
