200.43	0.76259
202.246	0.786157
204.061	0.810887
205.875	0.544779
207.688	-0.012495
209.501	0.0134706
211.316	0.621318
213.129	0.474689
214.941	0.54547
216.753	0.179301
218.566	-0.11358
220.377	-0.0424328
222.188	0.247223
223.999	-0.0185966
225.809	0.00639915
227.618	-0.30673
229.43	0.176923
231.239	0.466505
233.047	-0.330059
234.855	-0.11283
236.663	0.225936
238.471	-0.252897
240.278	0.403535
242.087	-0.432438
243.894	0.155433
245.7	0.140436
247.506	0.244663
249.311	0.177311
251.116	0.179355
252.921	0.251103
254.725	0.321052
256.529	0.125265
258.333	-0.141869
260.136	0.0263786
261.939	0.196384
263.744	-0.0174322
265.546	0.0347271
267.348	0.545146
269.15	0.838518
270.951	-0.243065
272.752	0.000119209
274.552	-0.336681
276.353	0.289291
278.152	-0.0507584
279.952	0.522801
281.751	-0.157941
283.55	0.170623
285.348	-0.36773
287.146	0.390291
288.942	-0.243936
290.739	0.728698
292.536	-0.0224123
294.333	-0.268669
296.129	0.132221
297.925	0.127494
299.721	0.577196
301.516	0.214356
303.311	0.256836
305.106	-0.15535
306.9	0.314475
308.694	0.21141
310.486	0.251873
312.279	0.24579
314.072	0.503191
315.864	0.428966
317.656	-0.40564
319.448	0.0471478
321.24	0.453686
323.029	0.289007
324.819	-0.0424728
326.61	0.174872
328.4	0.416127
330.19	0.0593529
331.977	0.107632
333.766	0.106492
335.555	-0.207765
337.343	0.0501137
339.131	0.473382
340.917	0.249128
342.704	0.0959539
344.491	0.157851
346.277	0.148463
348.062	-0.170735
349.848	0.489454
351.633	-0.115624
353.416	0.209633
355.201	0.533699
356.986	0.522397
358.77	-0.395762
360.552	0.138787
362.335	0.29094
364.118	1.15543
365.899	-0.334251
367.682	0.290422
369.464	-0.272533
371.243	0.0649242
373.025	0.0697241
374.806	0.783091
376.585	0.597838
378.365	-0.199619
380.143	-0.217291
381.923	-0.634065
383.702	0.0563555
385.479	-0.146256
387.258	0.357347
389.034	0.603204
390.812	-0.253991
392.59	-0.0064888
394.365	-0.369091
396.142	-0.0738258
397.916	0.550315
399.693	-0.46979
401.467	0.412128
403.242	-0.209775
405.015	0.78818
406.79	0.16487
408.565	0.175067
410.337	0.39615
412.111	0.171246
413.882	-0.00632668
415.656	0.426795
417.426	0.25054
419.197	0.426827
420.969	-0.0303221
422.739	-0.135765
424.51	0.438935
426.279	0.378918
428.05	-0.0575104
429.819	0.256757
431.589	-0.579153
433.356	0.251579
435.124	0.613161
436.893	0.740014
438.66	-0.0960598
440.428	-0.0415955
442.194	0.386305
443.96	0.225675
445.727	0.110351
447.492	0.204699
449.259	0.0645571
451.023	0.298516
452.787	-0.261353
454.553	0.532722
456.316	-0.212763
458.079	0.672953
459.844	0.20762
461.606	0.25513
463.368	0.396922
465.132	0.169025
466.893	-0.125957
468.654	-0.163013
470.415	0.150369
472.177	0.255236
473.937	0.0568457
475.696	-0.236502
477.456	-0.0194454
479.217	0.615248
480.975	0.526796
482.733	0.275413
484.491	0.327838
486.251	-0.0606203
488.008	0.228415
489.765	0.379684
491.522	0.322035
493.278	0.194778
495.036	0.605348
496.791	0.876109
498.546	0.795613
500.301	0.550345
502.056	0.703011
503.81	0.596676
505.566	0.324567
507.319	0.215448
509.073	0.387103
510.825	0.722057
512.578	0.796722
514.33	0.822855
516.082	0.565332
517.833	0.847675
519.587	0.306045
521.337	0.351575
523.088	0.772323
524.838	0.417837
526.588	0.439015
528.337	0.78842
530.087	0.317128
531.835	0.45491
533.584	0.685398
535.332	0.212748
537.08	0.253699
538.827	0.0831594
540.574	0.168416
542.321	0.788452
544.068	0.103792
545.814	0.582537
547.56	0.410434
549.305	0.424388
551.05	0.739521
552.795	0.498972
554.54	0.397734
556.284	-0.0723953
558.027	0.104411
559.771	0.511691
561.514	0.320244
563.257	0.0606079
564.999	0.215593
566.742	0.485779
568.481	0.113546
570.223	0.408084
571.964	0.336586
573.705	-0.0545502
575.445	0.244079
577.185	-0.0752592
578.925	0.249106
580.665	0.298841
582.402	-0.0419359
584.141	0.191228
585.879	0.308664
587.617	-0.0350685
589.355	-0.241978
591.092	-0.0816259
592.828	0.423354
594.564	0.260936
596.301	0.259583
598.037	0.0281191
599.773	0.325474
601.506	0.184957
603.242	-0.0256538
604.976	-0.0535164
606.711	0.331074
608.443	0.140372
610.177	-0.233875
611.91	0.172565
613.644	-0.200252
615.374	0.184139
617.107	0.0185366
618.839	-0.216099
620.569	-0.039423
622.3	-0.0470629
624.032	0.401718
625.761	0.461491
627.491	-0.322603
629.221	0.105219
630.949	0.215432
632.679	0.418744
634.408	0.714392
636.135	0.621798
637.863	0.162369
639.592	0.248376
641.318	0.422871
643.045	0.572056
644.77	0.697012
646.497	0.276019
648.224	0.471093
649.948	0.146187
651.674	0.165614
653.398	0.188498
655.123	0.39636
656.846	0.834364
658.57	0.362442
660.293	0.847499
662.017	0.624042
663.738	0.146716
665.462	-0.0360622
667.185	0.0080328
668.905	0.806192
670.628	0.941841
672.348	0.942099
674.067	0.211854
675.789	0.651354
677.508	0.220991
679.228	0.524863
680.947	0.0468216
682.667	0.785767
684.385	0.64894
686.104	0.71736
687.821	0.0933609
689.538	0.0901384
691.256	1.16891
692.972	0.0587864
694.69	1.04407
696.406	0.945817
698.121	1.07668
699.837	0.722997
701.552	0.506565
703.268	0.978997
704.982	1.08264
706.695	1.36922
708.41	1.24215
710.123	1.13782
711.836	0.964625
713.55	1.31749
715.262	1.25818
716.973	0.582467
718.685	1.50483
720.398	1.14939
722.108	0.954136
723.818	0.918523
725.53	0.814642
727.24	0.915101
728.949	0.878829
730.658	1.4543
732.369	0.850557
734.077	1.28859
735.785	1.43195
737.493	0.604411
739.2	1.74174
740.909	0.623883
742.616	0.725208
744.322	0.760081
746.028	1.31378
747.734	1.03602
749.441	1.00706
751.146	0.776871
752.851	1.13268
754.555	0.949921
756.26	1.03848
757.963	1.42125
759.667	2.05366
761.372	1.49313
763.075	1.40612
764.777	2.08646
766.479	1.38837
768.181	1.6146
769.883	2.38158
771.584	1.92559
773.285	2.12392
774.986	1.41729
776.686	1.52519
778.386	1.34035
780.085	2.10677
781.785	2.01503
783.484	1.96868
785.182	1.58168
786.881	2.2337
788.579	1.93191
790.276	1.5819
791.974	1.7496
793.671	1.64445
795.367	2.12571
797.064	2.02097
798.76	1.8054
800.456	1.77192
802.151	1.73987
803.846	2.04585
805.541	1.78946
807.236	2.9481
808.93	1.90354
810.624	1.91387
812.317	2.01297
814.01	1.77526
815.703	1.98543
817.394	1.9939
819.086	1.68952
820.778	1.92173
822.47	1.70768
824.161	2.0967
825.852	2.37518
827.543	2.29912
829.231	1.53549
830.921	1.95518
832.611	2.15502
834.3	2.04508
835.989	1.51226
837.676	1.6705
839.364	1.91715
841.053	1.71575
842.74	1.66934
844.426	1.64476
846.113	1.59843
847.8	2.17981
849.486	1.48889
851.171	1.33674
852.857	1.45509
854.542	1.43997
856.227	1.89638
857.911	1.07109
859.595	0.782895
861.279	0.785396
862.961	1.37218
864.645	0.944139
866.329	1.4167
868.01	1.0095
869.692	1.16554
871.375	1.00555
873.055	1.49958
874.737	0.910619
876.418	1.24675
878.097	1.04131
879.778	0.993743
881.457	1.10387
883.137	1.43911
884.817	1.11867
886.495	1.45154
888.174	0.767478
889.851	1.0748
891.53	0.77191
893.206	0.828572
894.884	1.01908
896.562	0.893536
898.237	1.41859
899.914	1.24622
901.589	1.05111
903.265	1.03494
904.94	1.0857
906.615	1.00259
908.289	0.80881
909.964	0.861214
911.637	0.86985
913.31	0.945786
914.984	1.06631
916.656	1.0314
918.33	0.929998
920.001	1.86956
921.674	1.06031
923.345	1.18186
925.015	0.818776
926.687	0.568165
928.357	0.71657
930.028	0.888085
931.698	1.28082
933.366	0.614819
935.037	0.478536
936.705	0.585273
938.373	1.17796
940.043	0.602839
941.71	0.734591
943.379	0.712621
945.046	1.46303
946.712	0.976494
948.378	0.929708
950.046	0.550142
951.711	0.50061
953.376	0.627578
955.043	0.667643
956.708	1.28352
958.372	0.0717926
960.036	0.627127
961.701	0.521973
963.364	1.14605
965.027	0.77411
966.69	0.93041
968.354	0.929302
970.016	0.174042
971.678	1.49741
973.339	0.719788
975	1.20413
976.661	0.805579
978.324	0.673751
979.984	0.708447
981.644	0.742838
983.303	0.300078
984.962	1.2945
986.621	1.15794
988.282	0.754246
989.94	0.792017
991.598	0.762839
993.256	0.578926
994.913	0.814725
996.57	0.189964
998.227	0.954997
999.884	0.66121
1001.54	0.851919
1003.2	0.24974
1004.85	0.417809
1006.51	0.387754
1008.16	0.00650501
1009.82	1.24995
1011.47	0.364952
1013.12	0.138986
1014.78	0.570745
1016.43	1.2432
1018.08	1.01836
1019.74	0.46643
1021.39	0.768538
1023.04	0.831072
1024.69	0.719656
1026.34	0.0843849
1028	0.694718
1029.65	0.561567
1031.3	0.296353
1032.95	1.2306
1034.6	0.984149
1036.25	0.823919
1037.9	0.793867
1039.55	0.611402
1041.19	0.756083
1042.84	0.445293
1044.49	0.614409
1046.14	0.415932
1047.79	0.957644
1049.43	0.4367
1051.08	0.742211
1052.73	0.24478
1054.37	0.508022
1056.02	0.771402
1057.66	0.0998678
1059.31	0.449574
1060.95	0.102983
1062.6	0.734197
1064.24	0.864442
1065.88	0.580633
1067.53	-0.160438
1069.17	0.293047
1070.81	0.484998
1072.46	0.0254593
1074.1	0.803503
1075.74	0.128656
1077.38	0.301099
1079.02	0.409565
1080.66	0.605469
1082.3	0.150859
1083.94	0.627886
1085.58	-0.0672445
1087.22	0.428061
1088.86	0.141451
1090.5	-0.319366
1092.14	0.667903
1093.78	0.400299
1095.42	0.478575
1097.05	0.104762
1098.69	0.271255
1100.33	0.309926
1101.97	0.156605
1103.6	0.0695105
1105.24	0.37079
1106.87	0.844606
1108.51	0.629903
1110.15	0.521794
1111.78	0.713226
1113.41	0.237063
1115.05	0.14676
1116.68	0.485089
1118.31	0.0727301
1119.95	0.3685
1121.58	0.514943
1123.21	0.555206
1124.85	0.553573
1126.48	-0.0247555
1128.11	-0.324112
1129.74	0.296641
1131.37	-0.322221
1133	0.1923
1134.63	0.172247
1136.26	0.301266
1137.89	-0.489474
1139.52	0.23581
1141.15	-0.0865316
1142.78	0.124468
1144.41	-0.00588417
1146.04	-0.114195
1147.66	0.460361
1149.29	0.0553274
1150.92	-0.221253
1152.55	0.162467
1154.17	-0.135556
1155.8	-0.0932226
1157.43	0.0766344
1159.05	-0.0298033
1160.68	0.098465
1162.3	-0.0912571
1163.93	0.251468
1165.55	-0.0431967
1167.17	-0.0616598
1168.8	-0.144789
1170.42	-0.165552
1172.05	-0.081727
1173.67	0.170333
1175.29	0.251214
1176.91	0.119513
1178.54	0.581295
1180.16	-0.354004
1181.78	0.130013
1183.4	-0.358463
1185.02	-0.233564
1186.64	0.291611
1188.26	0.0972252
1189.88	-0.182845
1191.5	0.272919
1193.12	-0.219926
1194.74	0.0646906
1196.36	0.43239
1197.97	0.0670891
1199.59	-0.0866575
1201.21	-0.029108
1202.83	-0.0528603
1204.44	-0.0117245
1206.06	0.0938454
1207.68	0.137971
1209.29	0.0571985
1210.91	-0.0659323
1212.52	0.247398
1214.14	0.537664
1215.75	0.117579
1217.37	0.403899
1218.98	0.0445271
1220.6	0.433103
1222.21	-0.33985
1223.82	0.19505
1225.44	0.295611
1227.05	0.604316
1228.66	0.355534
1230.27	0.480248
1231.88	0.605969
1233.49	0.629407
1235.1	0.509295
1236.72	-0.105809
1238.33	1.05769
1239.94	0.340604
1241.55	0.86436
1243.16	0.601916
1244.76	0.89737
1246.37	0.757409
1247.98	1.07175
1249.59	1.77845
1251.2	0.850371
1252.8	1.08107
1254.41	1.27102
1256.02	1.13104
1257.63	1.38527
1259.23	1.08201
1260.84	1.02781
1262.44	0.911888
1264.05	1.23095
1265.66	0.803858
1267.26	1.08061
1268.87	0.651727
1270.47	0.512078
1272.07	1.11793
1273.68	0.893476
1275.28	0.93765
1276.88	1.47828
1278.48	1.12704
1280.09	1.64515
1281.69	1.23117
1283.29	1.7072
1284.89	1.56299
1286.49	1.46108
1288.09	1.48423
1289.69	1.73559
1291.3	1.67744
1292.9	1.59857
1294.49	1.00257
1296.09	1.64482
1297.69	1.64512
1299.29	1.10739
1300.89	1.18747
1302.49	1.82242
1304.09	1.42633
1305.68	0.701375
1307.28	1.10701
1308.88	0.793469
1310.47	1.60774
1312.07	1.41752
1313.66	1.24884
1315.26	1.04053
1316.86	1.20096
1318.45	1.21886
1320.05	1.23664
1321.64	1.27394
1323.23	0.841733
1324.83	0.957707
1326.42	1.66084
1328.01	1.51011
1329.61	1.21854
1331.2	1.39429
1332.79	1.0464
1334.38	1.54916
1335.98	1.14477
1337.57	1.81029
1339.16	1.48678
1340.75	1.30314
1342.34	1.74164
1343.93	1.0316
1345.52	1.28584
1347.11	0.998144
1348.7	1.11321
1350.29	0.429774
1351.87	1.1496
1353.46	1.33079
1355.05	0.173952
1356.64	1.01629
1358.23	0.659206
1359.81	0.960514
1361.4	0.562025
1362.99	0.801544
1364.57	1.0604
1366.16	0.801126
1367.74	1.00086
1369.33	0.246018
1370.91	0.706814
1372.5	0.551805
1374.08	1.03452
1375.67	0.861213
1377.25	0.588502
1378.83	0.852626
1380.42	0.797469
1382	0.681496
1383.58	0.445123
1385.16	0.90376
1386.75	1.20261
1388.33	0.349554
1389.91	0.827725
1391.49	0.671368
1393.07	0.734019
1394.65	0.836657
1396.23	0.582177
1397.81	0.664211
1399.39	0.646235
1400.97	1.06315
1402.55	0.469562
1404.13	0.707496
1405.7	0.92585
1407.28	0.63088
1408.86	0.791325
1410.44	0.912624
1412.01	0.658644
1413.59	0.483274
1415.17	0.879458
1416.74	0.209589
1418.32	0.229937
1419.89	0.447509
1421.47	0.311337
1423.05	0.0190926
1424.62	0.712415
1426.19	1.1312
1427.77	1.05843
1429.34	1.06416
1430.92	1.48239
1432.49	0.895847
1434.06	1.31201
1435.63	1.35385
1437.2	1.59243
1438.78	1.06497
1440.35	1.61955
1441.92	1.19228
1443.49	1.90555
1445.06	1.38103
1446.63	1.32834
1448.2	1.29543
1449.77	1.71493
1451.34	1.93835
1452.91	2.18203
1454.48	1.46229
1456.05	1.56857
1457.62	1.89078
1459.18	1.70016
1460.75	1.50794
1462.32	2.08131
1463.89	1.51209
1465.45	1.43375
1467.02	1.04084
1468.59	0.786094
1470.15	1.06221
1471.72	1.00561
1473.28	1.49913
1474.85	0.679362
1476.41	1.17386
1477.98	0.805724
1479.54	0.339613
1481.11	0.559517
1482.67	0.642103
1484.23	0.35226
1485.8	0.258126
1487.36	0.535512
1488.92	0.243856
1490.48	0.244448
1492.05	0.262778
1493.61	0.650362
1495.17	0.372219
1496.73	0.230212
1498.29	0.652664
1499.85	0.821855
1501.41	0.350959
1502.97	-0.350646
1504.53	0.577332
1506.09	-0.238353
1507.65	0.455455
1509.2	0.451507
1510.76	-0.402435
1512.32	0.248181
1513.88	0.165443
1515.44	-0.0130663
1516.99	-0.113857
1518.55	0.649128
1520.1	0.683054
1521.66	0.353524
1523.22	0.559626
1524.77	0.53548
1526.33	0.300785
1527.88	0.827563
1529.44	-0.054677
1530.99	0.546545
1532.55	0.634574
1534.1	0.685259
1535.65	0.812375
1537.21	0.807793
1538.76	0.44521
1540.31	0.800224
1541.86	0.853225
1543.42	0.736646
1544.97	0.714128
1546.52	0.635115
1548.07	0.574867
1549.62	1.15199
1551.17	1.18508
1552.72	0.470297
1554.27	0.673428
1555.82	0.840055
1557.37	0.448024
1558.92	0.823002
1560.47	0.80766
1562.02	0.625821
1563.57	1.19118
1565.11	1.42132
1566.66	1.6143
1568.21	1.48981
1569.75	1.25294
1571.3	1.55702
1572.85	1.26349
1574.39	1.7165
1575.94	1.42283
1577.49	1.74538
1579.03	1.26554
1580.58	1.70108
1582.12	1.5025
1583.67	1.43535
1585.21	1.66785
1586.75	1.45227
1588.3	1.49849
1589.84	1.41357
1591.38	1.49665
1592.93	2.17855
1594.47	1.54943
1596.01	0.938693
1597.55	1.33999
1599.09	1.53591
1600.63	1.63884
1602.18	1.19801
1603.72	1.1886
1605.26	1.25374
1606.8	1.43048
1608.34	1.28603
1609.87	1.38385
1611.41	1.78017
1612.95	1.61094
1614.49	1.17792
1616.03	1.12015
1617.57	1.36275
1619.11	1.38128
1620.64	1.40112
1622.18	0.897901
1623.72	1.40652
1625.25	0.829346
1626.79	1.13133
1628.32	1.50686
1629.86	1.67512
1631.4	1.1881
1632.93	1.31764
1634.47	1.70861
1636	1.61478
1637.53	1.42862
1639.07	1.57875
1640.6	1.65426
1642.14	1.44971
1643.67	1.2816
1645.2	1.57783
1646.73	1.91
1648.27	1.85117
1649.8	1.90416
1651.33	1.84664
1652.86	1.25243
1654.39	1.36427
1655.92	1.84728
1657.45	1.737
1658.98	1.95949
1660.51	1.42157
1662.04	1.60448
1663.57	1.65668
1665.1	1.32037
1666.63	1.87076
1668.16	1.53606
1669.69	1.60861
1671.21	1.59032
1672.74	0.965173
1674.27	1.53775
1675.79	1.48388
1677.32	1.24529
1678.85	1.5762
1680.37	1.06007
1681.9	1.07672
1683.42	1.11141
1684.95	1.67824
1686.47	1.01596
1688	0.831381
1689.52	1.27017
1691.05	0.958025
1692.57	0.90246
1694.1	0.920049
1695.62	0.718082
1697.14	0.406475
1698.66	0.533195
1700.19	0.787145
1701.71	0.23785
1703.23	0.4725
1704.75	0.396751
1706.27	-0.0795579
1707.79	-0.100813
1709.32	0.259318
1710.83	0.419255
1712.35	0.433992
1713.88	0.575649
1715.39	0.174038
1716.91	0.424186
1718.43	0.691873
1719.95	0.543711
1721.47	-0.34383
1722.99	0.266844
1724.5	0.0847039
1726.02	-0.240252
1727.54	0.156112
1729.06	-0.0228519
1730.57	0.0868521
1732.09	0.212636
1733.61	0.753789
1735.12	0.412333
1736.64	0.0925169
1738.15	0.130985
1739.67	0.0469112
1741.18	0.00789356
1742.7	0.210138
1744.21	0.311828
1745.72	0.127306
1747.24	0.302783
1748.75	0.176857
1750.26	-0.292223
1751.78	0.2236
1753.29	-0.0247684
1754.8	0.214741
1756.31	0.250794
1757.82	0.547683
1759.34	0.176255
1760.85	0.148953
1762.36	-0.260755
1763.87	-0.221273
1765.38	0.508881
1766.89	0.251807
1768.4	-0.0466256
1769.91	0.00289297
1771.41	0.0615077
1772.92	0.0574751
1774.43	0.359624
1775.94	0.0772371
1777.45	0.0304761
1778.96	-0.0676904
1780.46	0.160166
1781.97	-0.136791
1783.48	0.179426
1784.98	-0.268825
1786.49	-0.11065
1788	0.308142
1789.5	-0.157799
1791.01	0.113819
1792.51	0.105428
1794.01	-0.18347
1795.52	0.269888
1797.02	-0.209656
1798.53	0.0711246
1800.03	0.0744724
1801.54	-0.0760512
1803.04	0.0725226
1804.54	-0.112473
1806.04	-0.156973
1807.54	0.151606
1809.05	0.0857153
1810.55	0.0484252
1812.05	-0.112258
1813.55	0.0948105
1815.05	-0.0375767
1816.55	-0.0613155
1818.05	-0.000337124
1819.55	0.0268064
1821.05	-0.00229502
1822.55	-0.211545
1824.05	-0.0137329
1825.55	0.0515585
1827.05	0.175518
1828.55	0.161304
1830.04	0.151551
1831.54	-0.206202
1833.04	-0.0866799
1834.54	0.0548005
1836.03	0.224588
1837.53	-0.043932
1839.03	0.184201
1840.52	0.123914
1842.02	0.200504
1843.51	-0.116131
1845.01	-0.093132
1846.5	-0.168485
1848	0.309621
1849.49	0.161755
1850.99	-0.104275
1852.48	-0.020051
1853.97	-0.0579858
1855.47	-0.0833769
1856.96	-0.0135484
1858.45	0.140894
1859.94	-0.167839
1861.44	0.00498056
1862.93	0.0461812
1864.42	0.164948
1865.91	0.117148
1867.4	0.196108
1868.89	0.15137
1870.38	0.0108171
1871.87	-0.0543518
1873.36	-0.137442
1874.85	0.0487442
1876.34	0.240422
1877.83	-0.371499
1879.32	0.0984306
1880.81	-0.03087
1882.3	-0.0725355
1882.56	-0.0700679
1884.06	0.347692
1885.55	0.0326176
1887.04	-0.0564475
1888.54	0.184927
1890.03	0.234827
1891.52	0.250708
1893.02	-0.184162
1894.51	0.00837564
1896	0.115196
1897.49	0.240091
1898.99	0.451902
1900.48	0.280179
1901.97	0.228879
1903.46	-0.241216
1904.95	0.226609
1906.44	0.363245
1907.93	-0.0559554
1909.42	0.0811572
1910.91	-0.11077
1912.4	0.0103502
1913.89	0.339972
1915.38	0.305387
1916.86	0.0798292
1918.35	0.217917
1919.84	0.0263581
1921.33	0.0427027
1922.82	-0.183055
1924.3	0.405658
1925.79	-0.0781422
1927.28	-0.0763712
1928.76	0.064405
1930.25	-0.262382
1931.74	-0.330087
1933.22	0.536125
1934.71	0.309953
1936.19	0.307503
1937.67	-0.0417094
1939.16	-0.235318
1940.64	-0.065834
1942.13	0.207658
1943.61	-0.035769
1945.09	0.118273
1946.58	0.117351
1948.06	0.11623
1949.54	-0.0749831
1951.03	-0.197932
1952.51	-0.0461416
1953.99	-0.170114
1955.47	0.0153198
1956.95	0.217989
1958.43	0.112045
1959.91	0.281261
1961.39	-0.0979385
1962.87	-0.425258
1964.35	0.292635
1965.83	-0.137876
1967.31	-0.277525
1968.79	0.129821
1970.27	0.365241
1971.75	0.343903
1973.22	0.459086
1974.7	-0.00570059
1976.18	0.143874
1977.66	0.259319
1979.13	-0.016799
1980.61	0.14967
1982.09	0.0947957
1983.56	-0.215026
1985.04	-0.11731
1986.52	0.081821
1987.99	0.38231
1989.47	0.0899158
1990.94	0.103082
1992.41	0.269198
1993.89	-0.206436
1995.36	0.197688
1996.84	-0.37795
1998.31	-0.10885
1999.78	0.227247
2001.26	0.208213
2002.73	0.289989
2004.2	0.253573
2005.67	0.234324
2007.15	0.333597
2008.62	0.231519
2010.09	0.180694
2011.56	-0.425196
2013.03	0.416574
2014.5	0.0629263
2015.97	-0.0724769
2017.44	-0.0235095
2018.91	-0.0424705
2020.38	0.324607
2021.85	0.069849
2023.32	-0.36902
2024.79	0.14945
2026.25	-0.103066
2027.72	0.0481529
2029.19	0.334723
2030.66	0.370812
2032.13	-0.179646
2033.59	0.243567
2035.06	0.482331
2036.53	-0.018219
2037.99	0.119046
2039.46	0.239256
2040.92	0.29223
2042.39	0.194216
2043.85	-0.0378098
2045.32	0.37013
2046.78	0.375013
2048.25	0.00954342
2049.71	0.216457
2051.18	0.321563
2052.64	0.391732
2054.1	0.342365
2055.56	0.257857
2057.03	0.222857
2058.49	0.355757
2059.95	0.235779
2061.42	0.570838
2062.88	0.249899
2064.34	-0.120574
2065.8	0.435387
2067.26	0.503973
2068.72	0.219601
2070.18	0.608743
2071.64	0.442462
2073.1	0.292856
2074.56	0.0756459
2076.02	0.481225
2077.48	0.0108299
2078.94	0.129527
2080.39	0.61829
2081.85	0.365688
2083.31	0.516612
2084.77	-0.107223
2086.22	0.294894
2087.68	0.712998
2089.14	0.676609
2090.6	0.287352
2092.05	0.418866
2093.51	0.332035
2094.96	0.379245
2096.42	0.677383
2097.87	0.874087
2099.33	0.618114
2100.78	0.562943
2102.24	0.574893
2103.69	0.721106
2105.15	0.434311
2106.6	0.832908
2108.05	0.698425
2109.51	0.731025
2110.96	0.963175
2112.41	0.527505
2113.86	0.906848
2115.32	1.1179
2116.77	0.995331
2118.22	1.12242
2119.67	1.3169
2121.12	1.24745
2122.57	0.947592
2124.02	1.29582
2125.47	1.29634
2126.92	1.29661
2128.37	1.77668
2129.82	1.11183
2131.27	1.42357
2132.72	1.35357
2134.17	1.4656
2135.62	1.4129
2137.06	1.54339
2138.51	1.69203
2139.96	1.66062
2141.41	1.8952
2142.85	1.55224
2144.3	1.87134
2145.75	1.4957
2147.19	1.88111
2148.64	1.91839
2150.09	1.7892
2151.53	1.75845
2152.97	1.56108
2154.42	2.15828
2155.86	1.72781
2157.31	1.89384
2158.75	1.6133
2160.2	1.79779
2161.64	1.88454
2163.08	1.9565
2164.53	1.81429
2165.97	2.1043
2167.41	2.02911
2168.86	2.26869
2170.3	1.92467
2171.74	1.76147
2173.18	1.84599
2174.62	2.07895
2176.06	2.12838
2177.5	2.21124
2178.94	1.99556
2180.38	1.71431
2181.82	2.08229
2183.26	2.11831
2184.7	2.07144
2186.14	2.10781
2187.58	2.0111
2189.02	2.14738
2190.46	1.55129
2191.89	2.10349
2193.33	1.98911
2194.77	1.72364
2196.21	1.80613
2197.64	1.70371
2199.08	1.83261
2200.52	1.41212
2201.95	2.10446
2203.39	1.46922
2204.83	1.3166
2206.26	1.5628
2207.7	1.17973
2209.13	1.11144
2210.57	1.62182
2212	1.38637
2213.43	1.54727
2214.87	1.34447
2216.3	1.68719
2217.73	1.65113
2219.17	1.23695
2220.6	1.31839
2222.03	1.00433
2223.47	1.18411
2224.9	1.19785
2226.33	1.45688
2227.76	1.18793
2229.19	0.819828
2230.62	1.25569
2232.05	1.11688
2233.49	0.700389
2234.91	1.00486
2236.34	0.770669
2237.77	0.995278
2239.2	0.976506
2240.63	0.959476
2242.06	0.715662
2243.49	0.619685
2244.92	0.882829
2246.35	0.672389
2247.78	0.362822
2249.2	0.866789
2250.63	0.781864
2252.06	0.663042
2253.48	0.381144
2254.91	0.619914
2256.34	0.421171
2257.76	0.516663
2259.19	0.614419
2260.61	0.390078
2262.04	0.605824
2263.46	0.335838
2264.89	0.748319
2266.31	0.152807
2267.74	0.580962
2269.16	0.406568
2270.59	0.703521
2272.01	0.202348
2273.43	0.25456
2274.85	0.583794
2276.28	0.734125
2277.7	0.575015
2279.12	0.366965
2280.54	0.403362
2281.97	0.407056
2283.39	0.165967
2284.81	0.13694
2286.23	0.0754271
2287.65	0.177449
2289.07	0.296216
2290.49	0.284675
2291.91	0.0117927
2293.33	0.262108
2294.75	0.561714
2296.17	0.386817
2297.59	0.113476
2299.01	0.233132
2300.42	0.566115
2301.84	0.0469546
2303.26	0.347815
2304.68	0.435719
2306.1	0.359425
2307.51	0.118454
2308.93	0.304238
2310.35	0.308815
2311.76	0.0827947
2313.18	0.333787
2314.59	0.2067
2316.01	0.261233
2317.43	-0.144878
2318.84	-0.0565515
2320.26	0.295584
2321.67	0.531664
2323.08	0.0731621
2324.5	0.22341
2325.91	0.00887918
2327.33	0.766146
2328.74	0.912209
2330.15	0.350035
2331.56	-0.128528
2332.98	0.200567
2334.39	-0.0786514
2335.8	0.152399
2337.21	-0.0939579
2338.62	0.250939
2340.04	-0.0626388
2341.45	0.181748
2342.86	0.0644093
2344.27	0.193198
2345.68	0.354817
2347.09	0.23803
2348.5	0.301464
2349.91	-0.289819
2351.31	-0.357775
2352.72	-0.116033
2354.13	0.222458
2355.54	0.152252
2356.95	0.309882
2358.36	0.223197
2359.76	-0.171896
2361.17	0.0506539
2362.58	0.0295339
2363.98	-0.234546
2365.39	-0.223079
2366.8	0.289494
2368.21	-0.0380154
2369.61	-0.138286
2371.02	-0.124567
2372.42	0.0995736
2373.83	0.0344172
2375.23	-0.0464907
2376.64	0.0493541
2378.04	-0.129091
2379.44	-0.0835228
2380.85	-0.151657
2382.25	0.276358
2383.66	0.302297
2385.06	0.088069
2386.46	0.298056
2387.86	0.332747
2389.26	-0.102
2390.67	0.0384746
2392.07	0.291093
2393.47	0.019136
2394.87	0.0661726
2396.27	0.272698
2397.67	0.0822659
2399.07	0.289611
2400.47	-0.0587411
2401.87	0.752758
2403.27	0.150627
2404.67	0.0565057
2406.07	0.279223
2407.47	0.120242
2408.87	0.00837088
2410.27	0.134132
2411.67	0.244104
2413.07	0.338797
2414.46	-0.325488
2415.86	-0.149434
2417.26	0.265084
2418.66	0.142045
2420.05	0.240962
2421.45	0.0546961
2422.84	0.327531
2424.24	0.568532
2425.64	0.207483
2427.03	0.449011
2428.43	0.104778
2429.82	0.332005
2431.22	0.274373
2432.61	0.185038
2434.01	0.460489
2435.4	0.0362124
2436.79	0.357374
2438.19	0.200705
2439.58	0.328988
2440.97	0.138886
2442.37	-0.130875
2443.76	0.15473
2445.15	0.0117173
2446.54	0.201646
2447.93	0.0743613
2449.33	0.327341
2450.72	0.0894575
2452.11	0.0104542
2453.5	0.264385
2454.89	-0.00318766
2456.28	0.315135
2457.67	0.206576
2459.06	0.350968
2460.45	0.210205
2461.84	0.337638
2463.23	0.337924
2464.62	0.385142
2466	0.289955
2467.39	0.336844
2468.78	0.430983
2470.17	0.0359821
2471.55	0.318802
2472.94	-0.0923672
2474.33	0.157578
2475.72	-0.0966964
2477.1	0.230684
2478.49	0.274822
2479.87	0.319025
2481.26	0.253538
2482.65	0.21943
2484.03	0.263274
2485.42	0.0404701
2486.8	0.0359578
2488.19	0.0306182
2489.57	0.258483
2490.95	0.221077
2492.34	0.448435
2493.72	-0.208892
2495.1	0.221971
2496.49	-0.0754142
2497.87	0.216854
2499.25	0.029099
2500.63	-0.127723
2502.02	0.0241919
2503.4	0.422142
2504.78	0.263315
2506.16	0.227598
2507.54	-0.162198
2508.92	0.171508
2510.3	-0.216941
2511.68	0.301039
2513.06	0.404819
2514.44	0.417222
2515.82	0.277256
2517.2	0.168672
2518.58	-0.0158114
2519.96	-0.0166106
2521.34	-0.0634322
2522.72	0.0724587
2524.1	-0.234789
2525.47	0.448499
2526.85	0.33865
2528.23	-0.19672
2529.6	0.0753846
2530.98	0.242012
2532.36	0.0299821
2533.74	0.092535
2535.11	0.353121
2536.49	0.492113
2537.86	0.129242
2539.24	0.054307
2540.61	0.191335
2541.99	0.29764
2543.36	0.25238
2544.74	-0.0652251
2546.11	0.0428901
2547.49	0.167104
2548.86	0.0947671
2550.23	0.234879
2551.61	-0.0199304
2552.98	0.316409
2554.35	0.0297356
2555.72	-0.0906363
2557.09	0.152656
2558.47	0.0318041
2559.84	0.0779738
2561.21	0.0184355
2562.58	-0.252767
2563.95	0.143263
2565.32	0.206219
2566.69	-0.170118
2568.06	0.02948
2569.43	-0.104335
2570.8	0.140758
2572.17	0.113069
2573.54	0.100593
2574.91	0.558143
2576.28	0.288054
2577.65	-0.270226
2579.02	0.0810404
2580.39	0.265262
2581.75	0.418827
2583.12	-0.276962
2584.49	0.118712
2585.85	0.468785
2587.22	0.349026
2588.59	-0.301011
2589.95	0.155402
2591.32	0.0661201
2592.68	0.0371017
2594.05	0.371034
2595.42	-0.189478
2596.78	-0.235666
2598.15	0.201701
2599.51	-0.102532
2600.88	0.016747
2602.24	-0.0600529
2603.6	0.0146704
2604.97	0.451899
2606.33	0.0593162
2607.69	0.0437293
2609.06	0.0124354
2610.42	0.145939
2611.78	-0.143158
2613.14	-0.312328
2614.51	0.359432
2615.87	0.579467
2617.23	0.229627
2618.59	-0.358681
2619.95	0.10204
2621.31	0.00935411
2622.67	0.201086
2624.03	-0.055232
2625.39	-0.147117
2626.75	-0.104861
2628.11	0.0711889
2629.47	0.246744
2630.83	0.0201654
2632.19	0.0317087
2633.55	-0.120199
2634.91	-0.0641017
2636.26	0.0660248
2637.62	0.344104
2638.98	0.207211
2640.34	-0.0624967
2641.69	0.0823264
2643.05	0.404417
2644.41	0.416166
2645.76	0.0147705
2647.12	0.439147
2648.48	0.258404
2649.83	0.19506
2651.19	0.26361
2652.54	0.00870323
2653.9	-0.0547962
2655.25	0.0582685
2656.6	0.289134
2657.96	0.140025
2659.31	0.328219
2660.67	0.50191
2662.02	0.178418
2663.37	0.132315
2664.73	-0.016531
2666.08	-0.0490532
2667.43	0.238724
2668.78	0.380351
2670.14	0.143676
2671.49	0.242162
2672.84	0.268347
2674.19	0.280459
2675.54	0.162372
2676.89	0.0158095
2678.24	0.0873971
2679.59	-0.115921
2680.94	0.507985
2682.29	0.40787
2683.64	0.207167
2684.99	0.137646
2686.34	0.1845
2687.69	-0.0445495
2689.04	0.0593023
2690.39	0.132861
2691.74	0.451746
2693.08	0.304962
2694.43	0.0125628
2695.78	0.140621
2697.13	0.0951924
2698.47	0.0507727
2699.82	-0.44124
2701.17	0.0816126
2702.51	-0.118471
2703.86	-0.317944
2705.21	0.222149
2706.55	0.240607
2707.9	0.21534
2709.24	0.160701
2710.58	-0.141157
2711.93	0.0504942
2713.27	0.140434
2714.62	0.288513
2715.96	0.131281
2717.3	0.526519
2718.65	0.223459
2719.99	0.371045
2721.33	0.300021
2722.68	0.243147
2724.02	0.25867
2725.36	0.579518
2726.71	0.2014
2728.05	0.332458
2729.39	0.201358
2730.73	0.0992737
2732.07	-0.235595
2733.41	0.404311
2734.75	-0.0467
2736.09	0.389718
2737.43	-0.00281954
2738.77	0.14275
2740.11	0.142682
2741.45	-0.0322394
2742.79	0.359353
2744.13	0.0816922
2745.47	0.108811
2746.81	0.338881
2748.14	0.249271
2749.48	0.0582023
2750.82	0.259015
2752.16	-0.062057
2753.49	0.298417
2754.83	0.296578
2756.17	0.178967
2757.5	0.336652
2758.84	0.320738
2760.18	0.334072
2761.51	-0.0429416
2762.85	0.303958
2764.18	0.173566
2765.52	0.462744
2766.85	0.245155
2768.19	0.374039
2769.52	0.154814
2770.86	0.252587
2772.19	0.349169
2773.52	0.228359
2774.86	0.00641441
2776.19	0.116107
2777.52	0.47052
2778.86	-0.0667644
2780.19	0.0437622
2781.52	0.269249
2782.85	0.193125
2784.19	0.145725
2785.52	0.184359
2786.85	0.194437
2788.18	-0.181605
2789.51	0.0728416
2790.84	-0.0441165
2792.17	-0.317713
2793.5	-0.0905361
2794.83	0.408098
2796.16	0.0489278
2797.49	0.103765
2798.82	-0.0845976
2800.15	0.12648
2801.48	0.123175
2802.81	0.119715
2804.13	-0.0122085
2805.46	0.0835462
2806.79	-0.0205564
2808.12	0.458132
2809.45	0.154128
2810.77	-0.092587
2812.1	0.0872273
2813.43	-0.214544
2814.75	0.193884
2816.08	0.0645385
2817.41	-0.219851
2818.73	0.162344
2820.06	0.0909734
2821.38	0.0192566
2822.71	0.258802
2824.03	0.143576
2825.36	0.155616
2826.68	0.365929
2828	0.0102205
2829.33	0.419493
2830.65	0.206195
2831.98	0.177087
2833.3	0.515952
2834.62	0.684665
2835.94	0.017972
2837.27	0.242491
2838.59	0.579737
2839.91	0.57724
2841.23	0.758616
2842.55	1.02505
2843.87	1.02339
2845.2	1.48867
2846.52	1.67181
2847.84	1.51607
2849.16	1.24724
2850.48	1.35977
2851.8	1.59908
2853.12	1.42808
2854.44	1.86442
2855.76	1.89074
2857.08	1.05533
2858.39	1.51963
2859.71	1.46126
2861.03	1.44511
2862.35	1.86634
2863.67	1.83542
2864.98	2.22759
2866.3	2.26689
2867.62	2.08072
2868.94	2.2616
2870.25	2.189
2871.57	1.9333
2872.88	2.43848
2874.2	2.42148
2875.52	2.84023
2876.83	2.73679
2878.15	2.77345
2879.46	2.79577
2880.78	3.12756
2882.09	3.01018
2883.41	2.28989
2884.72	2.93278
2886.03	2.67744
2887.35	2.19769
2888.66	2.54565
2889.97	2.66833
2891.29	2.57988
2892.6	2.77131
2893.91	2.64022
2895.22	2.95764
2896.54	2.98155
2897.85	3.06232
2899.16	2.59827
2900.47	2.97435
2901.78	3.2948
2903.09	2.70617
2904.4	3.18073
2905.71	3.09602
2907.02	3.40342
2908.33	3.68358
2909.64	4.02051
2910.95	3.37844
2912.26	3.68791
2913.57	3.95484
2914.88	4.24858
2916.19	4.48477
2917.5	3.92173
2918.81	4.39348
2920.11	4.5571
2921.42	4.63733
2922.73	4.69067
2924.04	4.13021
2925.34	4.91265
2926.65	5.24835
2927.96	5.15074
2929.26	4.96889
2930.57	5.47154
2931.87	5.5823
2933.18	5.25949
2934.49	5.25817
2935.79	5.52249
2937.1	4.96242
2938.4	4.73795
2939.7	5.25434
2941.01	4.56946
2942.31	4.23464
2943.62	4.61359
2944.92	4.16904
2946.22	4.2147
2947.53	4.24691
2948.83	4.48888
2950.13	4.14194
2951.43	3.68128
2952.74	3.8071
2954.04	3.6937
2955.34	3.69201
2956.64	3.32719
2957.94	3.71992
2959.24	4.03112
2960.54	3.44846
2961.84	3.23129
2963.15	3.23889
2964.45	3.26006
2965.75	3.29411
2967.05	2.82086
2968.34	2.62736
2969.64	2.82689
2970.94	2.68887
2972.24	2.67763
2973.54	2.89184
2974.84	2.50086
2976.14	2.47523
2977.43	2.30775
2978.73	2.0544
2980.03	2.32059
2981.33	2.06492
2982.62	1.87933
2983.92	2.10189
2985.22	1.80518
2986.51	1.76276
2987.81	2.10092
2989.11	1.45623
2990.4	1.09273
2991.7	1.24884
2992.99	1.62899
2994.29	1.17902
2995.58	0.798648
2996.88	1.1902
2998.17	1.14622
2999.46	0.864033
3000.76	0.722707
3002.05	0.918334
3003.34	0.287442
3004.64	0.609565
3005.93	0.735236
3007.22	0.62237
3008.52	0.550932
3009.81	0.548804
3011.1	0.392411
3012.39	0.598923
3013.68	0.107621
3014.97	0.50953
3016.27	0.270637
3017.56	0.408523
3018.85	0.0179138
3020.14	0.184067
3021.43	0.266306
3022.72	0.139465
3024.01	0.0675917
3025.3	-0.00470543
3026.59	0.227688
3027.88	0.0725965
3029.16	0.36106
3030.45	0.0838294
3031.74	0.388068
3033.03	0.0716782
3034.32	-0.271845
3035.6	0.22599
3036.89	0.18464
3038.18	0.376156
3039.47	0.0153813
3040.75	-0.112082
3042.04	0.295389
3043.33	0.194621
3044.61	0.081131
3045.9	-0.0717974
3047.18	-0.045177
3048.47	0.242601
3049.75	0.640996
3051.04	0.344588
3052.32	0.430984
3053.61	0.148997
3054.89	0.180362
3056.18	0.0472779
3057.46	0.458753
3058.74	0.283368
3060.03	0.32586
3061.31	0.531919
3062.59	0.466562
3063.88	0.29364
3065.16	0.190018
3066.44	0.345836
3067.72	0.162571
3069	0.319566
3070.29	-0.16281
3071.57	0.170191
3072.85	0.475022
3074.13	0.561209
3075.41	0.320494
3076.69	-0.218949
3077.97	0.0161715
3079.25	-0.182217
3080.53	-0.297948
3081.81	0.0487251
3083.09	0.0844002
3084.37	0.0528083
3085.65	0.157014
3086.93	-0.14627
3088.21	-0.0157323
3089.49	-0.143551
3090.76	0.216866
3092.04	-0.20978
3093.32	0.313366
3094.6	-0.031311
3095.87	-0.0366488
3097.15	0.0123544
3098.43	0.264633
3099.7	-0.0252604
3100.98	0.104908
3102.26	0.153851
3103.53	-0.148962
3104.81	0.00901556
3106.08	0.181086
3107.36	0.137377
3108.63	0.0133243
3109.91	-0.0422087
3111.18	0.0384297
3112.46	-0.11051
3113.73	0.228637
3115	0.0258222
3116.28	-0.190991
3117.55	0.14761
3118.83	0.0243373
3120.1	-0.194627
3121.37	-0.0480514
3122.64	0.0709419
3123.92	-0.0269814
3125.19	0.173268
3126.46	0.0895472
3127.73	0.209324
3129	0.451215
3130.27	0.220057
3131.55	0.57042
3132.82	0.312454
3134.09	0.621719
3135.36	0.444339
3136.63	0.428674
3137.9	0.331799
3139.17	0.288736
3140.44	0.286052
3141.71	0.498671
3142.98	0.429081
3144.24	0.494303
3145.51	0.224636
3146.78	0.304495
3148.05	0.759935
3149.32	0.144286
