200.43	0.683553
202.246	0.697812
204.061	0.713197
205.875	0.389216
207.688	0.62509
209.501	0.71453
211.316	-0.144385
213.129	0.719787
214.941	0.126395
216.753	0.430104
218.566	0.0795832
220.377	-0.245556
222.188	0.301506
223.999	0.824827
225.809	0.115883
227.618	-0.0850143
229.43	0.221051
231.239	0.767667
233.047	-0.351031
234.855	0.0990391
236.663	-0.0284224
238.471	0.97915
240.278	0.83251
242.087	-0.0590906
243.894	0.0391054
245.7	0.499447
247.506	0.33089
249.311	0.280253
251.116	0.322984
252.921	-0.144001
254.725	-0.00926399
256.529	0.317788
258.333	-0.0293684
260.136	0.107292
261.939	0.173663
263.744	-0.191791
265.546	-0.0261259
267.348	0.0918188
269.15	-0.0797215
270.951	0.905145
272.752	0.635234
274.552	0.146858
276.353	0.524732
278.152	0.6354
279.952	0.262141
281.751	0.320438
283.55	0.304553
285.348	0.383294
287.146	0.437059
288.942	-0.420413
290.739	-0.293338
292.536	-0.476327
294.333	-0.0355721
296.129	0.382323
297.925	0.203563
299.721	0.0255003
301.516	-0.0331774
303.311	0.146115
305.106	-0.272612
306.9	0.0952396
308.694	-0.205016
310.486	0.972792
312.279	0.150308
314.072	0.973063
315.864	0.178552
317.656	0.814763
319.448	0.238041
321.24	0.782335
323.029	0.636484
324.819	0.0137663
326.61	0.297738
328.4	0.271249
330.19	1.08076
331.977	0.598277
333.766	0.520328
335.555	0.607575
337.343	1.05129
339.131	0.463829
340.917	0.0185118
342.704	0.0507793
344.491	0.465249
346.277	0.593296
348.062	-0.0182028
349.848	0.326064
351.633	0.455422
353.416	0.822759
355.201	0.139174
356.986	-0.0206938
358.77	0.151836
360.552	-0.629629
362.335	-0.0545158
364.118	0.994473
365.899	0.187858
367.682	0.426197
369.464	0.30747
371.243	-0.0487995
373.025	0.328417
374.806	0.468037
376.585	0.536576
378.365	0.157492
380.143	0.157043
381.923	0.557952
383.702	0.301054
385.479	0.704082
387.258	1.03758
389.034	0.690883
390.812	-0.147764
392.59	-0.0459604
394.365	0.36175
396.142	-0.12254
397.916	0.473591
399.693	0.318014
401.467	0.843117
403.242	0.00525379
405.015	0.270525
406.79	0.675841
408.565	0.399493
410.337	-0.299625
412.111	-0.153579
413.882	0.485588
415.656	0.609194
417.426	-0.157979
419.197	0.0140724
420.969	0.256859
422.739	-0.134344
424.51	0.154475
426.279	0.207591
428.05	-0.491377
429.819	-0.416142
431.589	0.339678
433.356	-0.0777559
435.124	0.537829
436.893	0.00339317
438.66	0.383544
440.428	0.0112123
442.194	-0.245719
443.96	0.597203
445.727	0.9216
447.492	0.354697
449.259	0.466387
451.023	0.391059
452.787	0.876456
454.553	0.358331
456.316	0.144
458.079	0.558632
459.844	0.32109
461.606	0.735717
463.368	0.059165
465.132	-0.265839
466.893	-0.0534487
468.654	0.0688381
470.415	0.1002
472.177	0.504597
473.937	-0.022624
475.696	0.426078
477.456	0.919268
479.217	0.105924
480.975	0.782287
482.733	0.387313
484.491	0.552568
486.251	0.417115
488.008	0.703417
489.765	0.129344
491.522	0.395871
493.278	0.850505
495.036	0.300616
496.791	-0.063139
498.546	0.767063
500.301	0.425724
502.056	1.04539
503.81	0.138311
505.566	-0.348174
507.319	0.691904
509.073	0.625566
510.825	0.957433
512.578	0.0639791
514.33	0.11014
516.082	0.13132
517.833	1.25652
519.587	0.757698
521.337	0.540433
523.088	0.792523
524.838	0.598145
526.588	0.521234
528.337	-0.282421
530.087	0.226972
531.835	0.337226
533.584	0.306052
535.332	0.437402
537.08	0.333326
538.827	0.39136
540.574	0.144814
542.321	0.387112
544.068	0.302693
545.814	0.543732
547.56	0.645127
549.305	0.468367
551.05	0.80168
552.795	0.394271
554.54	0.611814
556.284	0.344458
558.027	0.792915
559.771	0.319513
561.514	-0.152455
563.257	-0.00201797
564.999	-0.0120945
566.742	0.139302
568.481	-0.00707817
570.223	0.169045
571.964	0.484143
573.705	0.502714
575.445	-0.142055
577.185	0.362037
578.925	0.225143
580.665	0.709093
582.402	0.550252
584.141	1.0574
585.879	0.206906
587.617	0.1827
589.355	0.502294
591.092	-0.0994043
592.828	0.770812
594.564	0.214368
596.301	0.210149
598.037	-0.116192
599.773	0.155274
601.506	-0.0572357
603.242	-0.224989
604.976	-0.141254
606.711	0.745257
608.443	0.642426
610.177	0.0575695
611.91	-0.182071
613.644	0.450586
615.374	0.60218
617.107	-0.483312
618.839	-0.194386
620.569	0.436544
622.3	-0.0555182
624.032	-0.433551
625.761	0.42249
627.491	-0.410897
629.221	0.19623
630.949	-0.12998
632.679	0.321827
634.408	0.158701
636.135	0.383287
637.863	-0.44396
639.592	0.0271311
641.318	0.22103
643.045	0.275276
644.77	0.00930309
646.497	-0.0284472
648.224	0.254023
649.948	0.721304
651.674	0.192893
653.398	0.304915
655.123	0.124962
656.846	1.19949
658.57	0.362684
660.293	0.459227
662.017	0.21172
663.738	0.509866
665.462	0.439891
667.185	0.322041
668.905	0.660725
670.628	0.176709
672.348	0.060605
674.067	0.359138
675.789	0.706308
677.508	-0.0916328
679.228	0.785623
680.947	0.996861
682.667	0.102145
684.385	0.378
686.104	0.99736
687.821	0.486688
689.538	0.596609
691.256	0.152886
692.972	0.72203
694.69	0.53021
696.406	0.936107
698.121	0.810995
699.837	1.23682
701.552	0.602991
703.268	0.980117
704.982	0.460229
706.695	1.06507
708.41	0.751221
710.123	1.53729
711.836	1.10826
713.55	0.999819
715.262	-0.114143
716.973	0.646055
718.685	0.834702
720.398	0.407816
722.108	1.05215
723.818	0.785334
725.53	0.0187044
727.24	1.41088
728.949	0.871231
730.658	0.785505
732.369	1.19777
734.077	1.17911
735.785	0.663298
737.493	1.30049
739.2	0.177567
740.909	1.62731
742.616	0.958844
744.322	0.788008
746.028	1.15897
747.734	2.20613
749.441	0.690215
751.146	0.390609
752.851	0.677185
754.555	0.830326
756.26	1.05268
757.963	1.07427
759.667	1.07497
761.372	0.919108
763.075	0.989255
764.777	1.33021
766.479	1.21853
768.181	1.71508
769.883	1.21462
771.584	0.960482
773.285	1.45101
774.986	1.80528
776.686	1.41396
778.386	1.31801
780.085	1.40464
781.785	1.35685
783.484	1.62608
785.182	1.37361
786.881	1.93348
788.579	1.85595
790.276	1.4807
791.974	1.05772
793.671	1.0853
795.367	1.42831
797.064	3.61976
798.76	3.53513
800.456	2.19251
802.151	1.66289
803.846	1.67424
805.541	1.43817
807.236	1.53847
808.93	1.43526
810.624	1.19624
812.317	1.69655
814.01	1.07514
815.703	1.61859
817.394	1.31113
819.086	1.13833
820.778	1.43495
822.47	2.02156
824.161	1.09203
825.852	1.76963
827.543	1.31295
829.231	1.14904
830.921	1.01068
832.611	1.65507
834.3	2.36928
835.989	1.79188
837.676	1.23593
839.364	1.08008
841.053	1.05643
842.74	1.34413
844.426	1.31855
846.113	1.24896
847.8	0.979988
849.486	1.78729
851.171	0.896777
852.857	0.634335
854.542	0.731377
856.227	1.5922
857.911	1.08204
859.595	1.33428
861.279	0.751779
862.961	0.820199
864.645	1.22537
866.329	1.1113
868.01	0.342542
869.692	0.610447
871.375	0.74278
873.055	0.604223
874.737	1.32297
876.418	1.02643
878.097	0.84268
879.778	0.13961
881.457	1.30976
883.137	0.470037
884.817	1.00624
886.495	0.931425
888.174	0.629339
889.851	0.88961
891.53	1.39588
893.206	0.526244
894.884	0.961801
896.562	0.765974
898.237	0.838954
899.914	1.3818
901.589	1.29518
903.265	1.54376
904.94	0.539998
906.615	0.275553
908.289	0.770422
909.964	0.686077
911.637	1.2258
913.31	1.05405
914.984	0.860804
916.656	0.845482
918.33	0.386862
920.001	0.63777
921.674	0.512721
923.345	0.27857
925.015	1.21722
926.687	1.05289
928.357	0.228428
930.028	1.08283
931.698	0.900707
933.366	0.763082
935.037	1.02272
936.705	0.84168
938.373	0.57338
940.043	0.4387
941.71	0.614131
943.379	0.50359
945.046	0.966726
946.712	0.545856
948.378	0.432045
950.046	0.603139
951.711	1.08169
953.376	0.0822983
955.043	0.363919
956.708	0.7366
958.372	-0.431215
960.036	0.609909
961.701	0.43926
963.364	0.53354
965.027	-0.170032
966.69	0.339943
968.354	-0.303376
970.016	0.798957
971.678	0.639181
973.339	0.988575
975	0.432825
976.661	0.675171
978.324	0.543192
979.984	0.16848
981.644	-0.206819
983.303	0.855353
984.962	0.720119
986.621	0.649045
988.282	0.487552
989.94	0.369077
991.598	0.117423
993.256	0.749366
994.913	0.762595
996.57	0.18028
998.227	-0.224984
999.884	0.273476
1001.54	1.25539
1003.2	0.651043
1004.85	0.0251875
1006.51	0.0373869
1008.16	-0.0600948
1009.82	-0.157102
1011.47	0.426305
1013.12	0.308152
1014.78	-0.247503
1016.43	0.358147
1018.08	0.000987053
1019.74	-0.442487
1021.39	0.951962
1023.04	0.860504
1024.69	0.333088
1026.34	0.374624
1028	1.07168
1029.65	0.282335
1031.3	1.4358
1032.95	1.0148
1034.6	0.548717
1036.25	0.125328
1037.9	0.551311
1039.55	0.693531
1041.19	0.270725
1042.84	0.132485
1044.49	0.778411
1046.14	0.492031
1047.79	0.316442
1049.43	0.902782
1051.08	0.122257
1052.73	0.971716
1054.37	0.518195
1056.02	0.738263
1057.66	-0.194048
1059.31	-0.23574
1060.95	0.591682
1062.6	0.200648
1064.24	0.156552
1065.88	0.459199
1067.53	-0.0653419
1069.17	-0.0474243
1070.81	0.295541
1072.46	-0.230208
1074.1	-0.55974
1075.74	0.196548
1077.38	0.21652
1079.02	0.216153
1080.66	0.628633
1082.3	0.260488
1083.94	0.281749
1085.58	-0.132237
1087.22	-0.0713634
1088.86	-0.402478
1090.5	-0.496895
1092.14	0.0993624
1093.78	-0.126679
1095.42	0.575636
1097.05	0.242858
1098.69	0.364427
1100.33	0.337053
1101.97	-0.118583
1103.6	0.0303221
1105.24	0.0730286
1106.87	1.49286
1108.51	3.1271
1110.15	2.48032
1111.78	0.112524
1113.41	0.00063324
1115.05	0.273969
1116.68	-0.0544033
1118.31	0.325238
1119.95	0.448015
1121.58	0.357625
1123.21	0.0758629
1124.85	0.287487
1126.48	0.1577
1128.11	0.178516
1129.74	0.24286
1131.37	0.564368
1133	0.565506
1134.63	0.160373
1136.26	-0.672771
1137.89	0.138659
1139.52	0.179376
1141.15	0.411113
1142.78	-0.254166
1144.41	-0.0442019
1146.04	0.251566
1147.66	0.0366726
1149.29	0.547227
1150.92	-0.731125
1152.55	0.461371
1154.17	0.120066
1155.8	0.310598
1157.43	-0.0735798
1159.05	-0.0530243
1160.68	-0.286758
1162.3	0.0122976
1163.93	0.291128
1165.55	-0.152381
1167.17	-0.000804901
1168.8	-0.296801
1170.42	0.638316
1172.05	0.359661
1173.67	0.164279
1175.29	0.179958
1176.91	0.0466518
1178.54	-0.19216
1180.16	-0.197052
1181.78	0.327839
1183.4	0.260877
1185.02	0.130669
1186.64	0.379723
1188.26	0.394557
1189.88	0.175344
1191.5	0.375607
1193.12	0.0480776
1194.74	0.245428
1196.36	0.0229244
1197.97	-0.156129
1199.59	-0.14471
1201.21	0.30793
1202.83	0.0528288
1204.44	-0.0113716
1206.06	0.4901
1207.68	0.137524
1209.29	0.160833
1210.91	0.621279
1212.52	0.34991
1214.14	-0.111154
1215.75	-0.428202
1217.37	-0.122488
1218.98	-0.00548172
1220.6	-0.241776
1222.21	0.331912
1223.82	0.242826
1225.44	0.321145
1227.05	0.338919
1228.66	0.15136
1230.27	0.192732
1231.88	0.380051
1233.49	0.713282
1235.1	1.10984
1236.72	0.536327
1238.33	1.1835
1239.94	1.35614
1241.55	0.908574
1243.16	1.20522
1244.76	0.963125
1246.37	1.19579
1247.98	0.847922
1249.59	0.685465
1251.2	0.336509
1252.8	0.132657
1254.41	1.31538
1256.02	0.803188
1257.63	1.05769
1259.23	1.624
1260.84	0.473603
1262.44	1.58002
1264.05	0.864368
1265.66	1.45329
1267.26	0.98459
1268.87	0.950005
1270.47	1.03867
1272.07	0.815158
1273.68	1.2747
1275.28	1.15259
1276.88	1.83764
1278.48	1.09198
1280.09	1.15373
1281.69	0.863226
1283.29	0.986844
1284.89	1.19366
1286.49	1.23594
1288.09	0.783323
1289.69	1.17915
1291.3	1.32751
1292.9	1.35178
1294.49	1.54049
1296.09	0.984178
1297.69	1.70638
1299.29	1.43561
1300.89	0.977935
1302.49	1.32296
1304.09	1.43989
1305.68	1.43242
1307.28	1.42438
1308.88	1.64168
1310.47	1.34617
1312.07	1.09264
1313.66	1.02452
1315.26	0.651096
1316.86	1.34102
1318.45	0.439161
1320.05	1.1287
1321.64	1.30693
1323.23	1.50346
1324.83	1.535
1326.42	1.28064
1328.01	1.18848
1329.61	1.36034
1331.2	1.41221
1332.79	1.64831
1334.38	1.50299
1335.98	1.279
1337.57	0.874396
1339.16	1.6588
1340.75	1.19148
1342.34	1.04456
1343.93	1.15706
1345.52	1.34835
1347.11	0.897615
1348.7	0.830276
1350.29	0.705669
1351.87	1.10401
1353.46	1.22433
1355.05	0.986273
1356.64	2.02763
1358.23	0.830577
1359.81	0.871367
1361.4	0.19243
1362.99	0.889716
1364.57	0.708618
1366.16	0.96631
1367.74	0.866127
1369.33	0.886782
1370.91	1.36668
1372.5	1.78826
1374.08	1.11671
1375.67	1.42094
1377.25	1.06864
1378.83	0.496897
1380.42	0.918992
1382	0.842212
1383.58	0.465763
1385.16	0.505957
1386.75	1.61843
1388.33	0.803799
1389.91	0.923517
1391.49	0.587735
1393.07	0.788618
1394.65	0.474156
1396.23	1.13127
1397.81	0.280702
1399.39	1.1734
1400.97	0.85611
1402.55	0.914577
1404.13	0.35964
1405.7	1.46678
1407.28	1.11125
1408.86	1.29042
1410.44	1.68733
1412.01	1.41259
1413.59	1.41371
1415.17	0.979706
1416.74	0.880424
1418.32	1.03702
1419.89	0.799806
1421.47	0.898683
1423.05	1.19603
1424.62	0.766845
1426.19	1.57904
1427.77	1.48649
1429.34	1.61015
1430.92	1.53595
1432.49	1.75563
1434.06	1.58061
1435.63	1.70016
1437.2	1.32831
1438.78	1.44887
1440.35	1.29535
1441.92	2.04694
1443.49	2.01321
1445.06	1.94061
1446.63	2.16304
1448.2	1.44213
1449.77	1.88128
1451.34	1.55423
1452.91	1.38499
1454.48	2.25867
1456.05	1.63735
1457.62	2.45165
1459.18	1.61146
1460.75	1.20229
1462.32	1.02731
1463.89	1.46029
1465.45	1.22334
1467.02	1.53626
1468.59	1.20131
1470.15	2.00585
1471.72	1.18281
1473.28	1.20477
1474.85	0.658909
1476.41	1.07439
1477.98	1.1566
1479.54	0.944682
1481.11	0.771897
1482.67	1.38293
1484.23	0.426116
1485.8	0.723027
1487.36	0.176827
1488.92	0.706393
1490.48	0.58779
1492.05	0.799383
1493.61	0.617592
1495.17	0.00503635
1496.73	-0.00313377
1498.29	0.0273542
1499.85	0.330393
1501.41	0.536754
1502.97	0.724525
1504.53	0.641646
1506.09	0.520487
1507.65	1.03709
1509.2	1.16512
1510.76	0.712675
1512.32	0.761409
1513.88	0.809585
1515.44	0.704016
1516.99	0.484159
1518.55	0.725863
1520.1	1.14009
1521.66	0.596909
1523.22	1.02936
1524.77	0.906296
1526.33	0.934948
1527.88	0.524522
1529.44	0.628012
1530.99	0.864055
1532.55	1.42233
1534.1	0.635608
1535.65	0.68416
1537.21	0.828102
1538.76	0.859243
1540.31	0.871885
1541.86	0.526678
1543.42	0.821898
1544.97	0.965906
1546.52	1.44745
1548.07	1.28986
1549.62	1.18878
1551.17	0.619972
1552.72	1.4558
1554.27	1.22582
1555.82	1.10979
1557.37	1.05184
1558.92	1.27597
1560.47	1.39017
1562.02	1.17036
1563.57	1.73536
1565.11	1.46149
1566.66	2.10207
1568.21	1.79069
1569.75	1.66543
1571.3	1.95038
1572.85	1.4323
1574.39	1.75406
1575.94	1.55314
1577.49	1.22175
1579.03	2.14164
1580.58	2.03545
1582.12	1.83675
1583.67	1.45209
1585.21	1.42308
1586.75	1.18893
1588.3	2.11439
1589.84	1.97379
1591.38	2.03848
1592.93	1.74688
1594.47	1.56712
1596.01	1.64958
1597.55	1.48888
1599.09	1.64754
1600.63	1.50696
1602.18	1.7609
1603.72	1.32028
1605.26	1.46089
1606.8	1.28062
1608.34	1.64323
1609.87	1.00717
1611.41	1.10163
1612.95	1.19387
1614.49	1.6224
1616.03	1.31839
1617.57	1.52133
1619.11	1.95013
1620.64	1.87461
1622.18	1.22027
1623.72	1.18486
1625.25	1.0559
1626.79	1.69349
1628.32	1.9551
1629.86	1.39208
1631.4	1.09012
1632.93	1.36706
1634.47	1.41996
1636	1.45501
1637.53	1.47239
1639.07	1.69551
1640.6	1.21032
1642.14	2.23382
1643.67	1.00207
1645.2	1.63127
1646.73	1.32882
1648.27	1.6582
1649.8	1.5233
1651.33	1.92778
1652.86	1.48001
1654.39	1.49738
1655.92	2.0344
1657.45	2.16338
1658.98	1.532
1660.51	2.21409
1662.04	2.0982
1663.57	1.27868
1665.1	1.18014
1666.63	1.54349
1668.16	1.77837
1669.69	0.834928
1671.21	1.44164
1672.74	1.0913
1674.27	2.0123
1675.79	0.704913
1677.32	1.16429
1678.85	1.58533
1680.37	0.736143
1681.9	1.17333
1683.42	0.728186
1684.95	1.07272
1686.47	1.12377
1688	1.06525
1689.52	0.714104
1691.05	0.491739
1692.57	0.946789
1694.1	0.32211
1695.62	1.52606
1697.14	0.937788
1698.66	0.82458
1700.19	0.473777
1701.71	0.195818
1703.23	0.919985
1704.75	0.240257
1706.27	0.907555
1707.79	0.282667
1709.32	0.530589
1710.83	0.378903
1712.35	0.354568
1713.88	0.294188
1715.39	0.451199
1716.91	-0.00712585
1718.43	-0.0310917
1719.95	0.631083
1721.47	0.155619
1722.99	-0.0120392
1724.5	0.470142
1726.02	0.538944
1727.54	0.447096
1729.06	0.446322
1730.57	0.498401
1732.09	0.512149
1733.61	0.0160341
1735.12	0.584333
1736.64	0.000181198
1738.15	0.257091
1739.67	0.352949
1741.18	0.075367
1742.7	0.258039
1744.21	0.0618029
1745.72	0.123903
1747.24	0.0779762
1748.75	0.32382
1750.26	-0.132937
1751.78	0.00329685
1753.29	0.199539
1754.8	0.380126
1756.31	0.154058
1757.82	-0.167254
1759.34	0.279157
1760.85	-0.201761
1762.36	0.101774
1763.87	0.300895
1765.38	0.0898886
1766.89	-0.0296402
1768.4	-0.233467
1769.91	0.545792
1771.41	0.289035
1772.92	-0.125745
1774.43	0.172091
1775.94	0.30936
1777.45	0.440247
1778.96	0.107536
1780.46	0.300044
1781.97	0.139769
1783.48	-0.072648
1784.98	0.603158
1786.49	0.0586414
1788	0.45372
1789.5	0.26239
1791.01	0.142827
1792.51	0.475245
1794.01	0.371678
1795.52	-0.0665684
1797.02	0.0644808
1798.53	0.226347
1800.03	-0.321063
1801.54	-0.0122595
1803.04	0.276174
1804.54	0.111206
1806.04	0.121387
1807.54	0.219566
1809.05	-0.0737448
1810.55	0.427117
1812.05	-0.00998211
1813.55	-0.157797
1815.05	0.244338
1816.55	-0.0875959
1818.05	0.399001
1819.55	0.251944
1821.05	0.148829
1822.55	-0.0374651
1824.05	0.369361
1825.55	-0.340996
1827.05	0.27153
1828.55	0.170824
1830.04	0.277291
1831.54	0.355518
1833.04	0.137765
1834.54	0.483114
1836.03	-0.0535412
1837.53	0.0512171
1839.03	0.203748
1840.52	0.161789
1842.02	0.0510807
1843.51	0.0970879
1845.01	-0.0577488
1846.5	0.0928068
1848	0.204283
1849.49	-0.202697
1850.99	0.0260582
1852.48	0.171176
1853.97	0.261125
1855.47	0.249561
1856.96	0.153308
1858.45	0.105549
1859.94	-0.0350885
1861.44	-0.144149
1862.93	0.0539808
1864.42	-0.273334
1865.91	0.0296736
1867.4	0.441525
1868.89	0.194079
1870.38	0.463124
1871.87	0.430103
1873.36	0.328247
1874.85	0.196707
1876.34	-0.185357
1877.83	0.262471
1879.32	0.266121
1880.81	-0.0246019
1882.3	0.171635
1882.56	0.228258
1884.06	0.504564
1885.55	0.570721
1887.04	0.235295
1888.54	0.404519
1890.03	0.0692301
1891.52	-0.0560465
1893.02	0.0116205
1894.51	0.341887
1896	0.0999699
1897.49	0.0501051
1898.99	-0.243451
1900.48	0.00119877
1901.97	0.365972
1903.46	0.293993
1904.95	0.0815096
1906.44	0.268037
1907.93	0.506444
1909.42	0.589057
1910.91	0.186772
1912.4	-0.0755825
1913.89	-0.267898
1915.38	0.389614
1916.86	0.00630379
1918.35	-0.169382
1919.84	0.0530958
1921.33	0.119461
1922.82	-0.0215797
1924.3	-0.144352
1925.79	0.0110149
1927.28	-0.334612
1928.76	-0.10831
1930.25	-0.159073
1931.74	0.101048
1933.22	-0.0732155
1934.71	0.425887
1936.19	0.386494
1937.67	-0.25924
1939.16	-0.109782
1940.64	0.177917
1942.13	0.345349
1943.61	0.254968
1945.09	0.148296
1946.58	-0.0441303
1948.06	0.107976
1949.54	-0.119776
1951.03	-0.158929
1952.51	-0.0957079
1953.99	0.104415
1955.47	-0.537788
1956.95	0.0232868
1958.43	-0.136443
1959.91	-0.00365925
1961.39	0.283868
1962.87	0.142859
1964.35	-0.255226
1965.83	-0.276722
1967.31	-0.127727
1968.79	-0.0137749
1970.27	0.116529
1971.75	0.28053
1973.22	0.222353
1974.7	-0.29614
1976.18	0.0725393
1977.66	0.16838
1979.13	0.162056
1980.61	0.121685
1982.09	0.0301914
1983.56	-0.0784636
1985.04	0.457662
1986.52	0.36519
1987.99	-0.0660791
1989.47	0.0116405
1990.94	0.326855
1992.41	-0.0845814
1993.89	-0.139585
1995.36	0.262544
1996.84	0.462124
1998.31	0.340645
1999.78	0.235667
2001.26	-0.224222
2002.73	0.47959
2004.2	0.238529
2005.67	0.200267
2007.15	0.415458
2008.62	0.059
2010.09	-0.21223
2011.56	0.224134
2013.03	0.660436
2014.5	-0.0818472
2015.97	0.100726
2017.44	0.130887
2018.91	-0.293708
2020.38	0.205677
2021.85	0.334955
2023.32	0.531603
2024.79	-0.00931549
2026.25	0.139063
2027.72	0.339188
2029.19	0.3396
2030.66	0.12332
2032.13	0.277112
2033.59	0.230052
2035.06	0.770707
2036.53	0.404165
2037.99	0.456927
2039.46	-0.0453253
2040.92	0.191813
2042.39	0.210877
2043.85	0.583966
2045.32	0.167428
2046.78	0.273198
2048.25	0.0593338
2049.71	0.148271
2051.18	0.0844803
2052.64	0.524998
2054.1	0.103559
2055.56	0.338032
2057.03	0.638391
2058.49	0.0109148
2059.95	0.0743876
2061.42	0.0203781
2062.88	0.320726
2064.34	-0.0343657
2065.8	0.385759
2067.26	0.217731
2068.72	0.100783
2070.18	-0.100038
2071.64	0.204211
2073.1	0.744121
2074.56	0.290345
2076.02	0.644484
2077.48	0.32464
2078.94	0.391703
2080.39	0.542466
2081.85	0.305373
2083.31	0.168666
2084.77	0.771679
2086.22	0.431502
2087.68	0.696251
2089.14	0.355302
2090.6	0.736754
2092.05	0.580508
2093.51	0.525007
2094.96	0.553134
2096.42	0.781805
2097.87	0.791739
2099.33	0.499742
2100.78	0.559038
2102.24	0.819007
2103.69	0.812348
2105.15	1.12421
2106.6	0.970206
2108.05	0.600643
2109.51	0.748525
2110.96	0.895727
2112.41	0.908071
2113.86	1.01845
2115.32	0.910607
2116.77	0.635745
2118.22	1.40814
2119.67	0.919428
2121.12	1.1136
2122.57	1.37611
2124.02	1.01003
2125.47	1.24164
2126.92	1.04184
2128.37	1.17251
2129.82	1.03644
2131.27	0.998449
2132.72	1.47276
2134.17	1.49986
2135.62	1.87506
2137.06	1.30958
2138.51	1.06045
2139.96	1.01174
2141.41	1.2954
2142.85	1.53093
2144.3	1.58539
2145.75	1.57385
2147.19	1.79376
2148.64	1.76465
2150.09	2.03272
2151.53	1.50441
2152.97	1.45542
2154.42	1.6209
2155.86	1.53736
2157.31	2.06683
2158.75	1.95109
2160.2	2.11853
2161.64	1.87383
2163.08	1.31605
2164.53	1.63861
2165.97	1.87954
2167.41	1.38965
2168.86	1.67931
2170.3	2.01713
2171.74	2.31945
2173.18	2.07055
2174.62	1.60384
2176.06	1.86839
2177.5	1.61765
2178.94	1.4676
2180.38	1.83405
2181.82	1.46994
2183.26	1.35584
2184.7	1.59131
2186.14	1.72713
2187.58	1.64672
2189.02	2.06562
2190.46	2.00193
2191.89	1.17207
2193.33	1.58994
2194.77	1.50685
2196.21	1.738
2197.64	1.33449
2199.08	1.32856
2200.52	0.823095
2201.95	1.36416
2203.39	1.29135
2204.83	1.53489
2206.26	1.41473
2207.7	1.16274
2209.13	1.58967
2210.57	1.45259
2212	1.66186
2213.43	1.47333
2214.87	1.56571
2216.3	1.18
2217.73	0.77952
2219.17	1.46913
2220.6	1.31846
2222.03	1.03616
2223.47	1.16513
2224.9	0.633793
2226.33	0.858206
2227.76	0.735234
2229.19	1.03813
2230.62	0.814576
2232.05	0.771556
2233.49	0.958093
2234.91	1.03062
2236.34	0.940956
2237.77	0.412415
2239.2	0.327053
2240.63	0.814737
2242.06	0.17881
2243.49	0.849009
2244.92	0.508342
2246.35	0.183263
2247.78	0.345874
2249.2	0.310534
2250.63	-0.0202875
2252.06	0.819564
2253.48	0.339859
2254.91	0.316283
2256.34	0.472839
2257.76	0.437003
2259.19	0.193295
2260.61	0.325786
2262.04	0.801751
2263.46	0.532799
2264.89	0.296339
2266.31	0.628332
2267.74	0.422967
2269.16	0.558223
2270.59	0.888084
2272.01	0.403424
2273.43	0.586122
2274.85	0.508358
2276.28	0.170084
2277.7	0.434863
2279.12	0.194473
2280.54	0.47572
2281.97	0.349213
2283.39	0.483602
2284.81	0.764973
2286.23	0.410138
2287.65	0.447372
2289.07	0.3871
2290.49	0.310877
2291.91	0.95418
2293.33	0.126261
2294.75	0.590177
2296.17	0.448767
2297.59	0.0451756
2299.01	-0.0474243
2300.42	-0.123517
2301.84	-0.0518055
2303.26	0.331989
2304.68	0.14183
2306.1	0.411265
2307.51	0.15479
2308.93	0.242732
2310.35	0.0670328
2311.76	0.384295
2313.18	0.323288
2314.59	0.591878
2316.01	0.202804
2317.43	0.0448313
2318.84	-0.129342
2320.26	0.586713
2321.67	0.295713
2323.08	0.250112
2324.5	0.103064
2325.91	1.02613
2327.33	0.792309
2328.74	0.62385
2330.15	0.60405
2331.56	-0.204994
2332.98	0.452473
2334.39	0.287777
2335.8	-0.0739956
2337.21	0.188893
2338.62	0.351959
2340.04	0.365788
2341.45	0.0994434
2342.86	0.276021
2344.27	0.337541
2345.68	0.0715075
2347.09	0.084548
2348.5	0.244925
2349.91	0.371977
2351.31	0.122073
2352.72	0.475829
2354.13	0.0773878
2355.54	0.102827
2356.95	-0.132627
2358.36	0.234184
2359.76	0.259155
2361.17	-0.186476
2362.58	0.228082
2363.98	0.593074
2365.39	-0.159042
2366.8	0.189573
2368.21	0.166792
2369.61	-0.129074
2371.02	-0.278059
2372.42	0.283319
2373.83	0.249382
2375.23	-0.379683
2376.64	0.214169
2378.04	0.388206
2379.44	-0.0501957
2380.85	0.441477
2382.25	-0.191761
2383.66	0.328646
2385.06	-0.000188828
2386.46	-0.191992
2387.86	-0.38245
2389.26	0.0584364
2390.67	0.388337
2392.07	0.0981236
2393.47	0.302567
2394.87	0.125988
2396.27	-0.176884
2397.67	0.0614529
2399.07	0.252591
2400.47	0.237658
2401.87	0.381895
2403.27	0.033824
2404.67	0.209467
2406.07	0.13014
2407.47	0.0975161
2408.87	0.159274
2410.27	0.18894
2411.67	0.234667
2413.07	-0.0355015
2414.46	0.0916281
2415.86	0.473531
2417.26	0.160258
2418.66	-0.120471
2420.05	0.185045
2421.45	0.221272
2422.84	0.558154
2424.24	0.324434
2425.64	0.360126
2427.03	0.142801
2428.43	0.0372677
2429.82	-0.00392246
2431.22	0.00317001
2432.61	-0.116594
2434.01	0.271222
2435.4	0.499277
2436.79	0.13795
2438.19	0.156332
2439.58	0.665805
2440.97	0.284763
2442.37	0.189153
2443.76	0.44242
2445.15	0.298767
2446.54	0.250204
2447.93	-0.210472
2449.33	0.311333
2450.72	-0.0378904
2452.11	0.325949
2453.5	0.18405
2454.89	-0.304932
2456.28	0.06112
2457.67	0.427439
2459.06	0.12924
2460.45	-0.0271597
2461.84	-0.0420198
2463.23	0.27424
2464.62	-0.0264921
2466	0.588673
2467.39	0.161388
2468.78	-0.312901
2470.17	-0.361143
2471.55	0.220712
2472.94	0.123825
2474.33	-0.194105
2475.72	0.447301
2477.1	0.285743
2478.49	0.0458851
2479.87	0.104734
2481.26	0.242068
2482.65	-0.325903
2484.03	-0.142025
2485.42	0.056282
2486.8	0.253027
2488.19	-0.566056
2489.57	-0.0124435
2490.95	0.321722
2492.34	0.500166
2493.72	0.0738125
2495.1	-0.288226
2496.49	0.312586
2497.87	0.200913
2499.25	0.167058
2500.63	0.0091629
2502.02	0.00525093
2503.4	0.432678
2504.78	0.626959
2506.16	0.0960112
2507.54	0.0430956
2508.92	0.0519333
2510.3	0.0765553
2511.68	0.178504
2513.06	0.250432
2514.44	-0.274187
2515.82	0.136476
2517.2	-0.370378
2518.58	0.0258904
2519.96	-0.510203
2521.34	0.175805
2522.72	0.478762
2524.1	0.0178137
2525.47	-0.27552
2526.85	0.29933
2528.23	0.0977173
2529.6	-0.224107
2530.98	-0.103244
2532.36	0.21676
2533.74	0.173429
2535.11	0.191607
2536.49	-0.261229
2537.86	0.485392
2539.24	-0.060174
2540.61	-0.0597067
2541.99	-0.256894
2543.36	0.0470314
2544.74	0.169641
2546.11	0.065979
2547.49	0.115263
2548.86	0.392996
2550.23	0.337047
2551.61	0.523389
2552.98	0.147248
2554.35	0.225328
2555.72	-0.243712
2557.09	0.15148
2558.47	0.288558
2559.84	0.00139332
2561.21	0.0331841
2562.58	-0.0101566
2563.95	0.356255
2565.32	-0.125517
2566.69	0.120352
2568.06	0.0783911
2569.43	-0.206063
2570.8	-0.308656
2572.17	-0.0929079
2573.54	0.33517
2574.91	-0.085536
2576.28	-0.324347
2577.65	0.0280581
2579.02	-0.165587
2580.39	-0.298937
2581.75	-0.205243
2583.12	0.267113
2584.49	-0.079484
2585.85	-0.153209
2587.22	-0.0297575
2588.59	0.563683
2589.95	0.369127
2591.32	0.477527
2592.68	0.34298
2594.05	-0.458884
2595.42	0.131886
2596.78	0.251915
2598.15	-0.113073
2599.51	-0.0546827
2600.88	0.245508
2602.24	-0.239404
2603.6	-0.164664
2604.97	-0.0139904
2606.33	0.664712
2607.69	0.0156498
2609.06	0.255494
2610.42	0.433568
2611.78	0.0983057
2613.14	-0.0871992
2614.51	0.132445
2615.87	0.231352
2617.23	0.285337
2618.59	0.190091
2619.95	-0.203447
2621.31	-0.206884
2622.67	-0.224745
2624.03	0.310122
2625.39	-0.155559
2626.75	-0.0989447
2628.11	0.091363
2629.47	0.206637
2630.83	-0.0504208
2632.19	0.391508
2633.55	0.431625
2634.91	-0.0478067
2636.26	0.126011
2637.62	0.329172
2638.98	0.102694
2640.34	0.364949
2641.69	0.0505295
2643.05	0.0175323
2644.41	0.191418
2645.76	-0.0628319
2647.12	0.46416
2648.48	-0.0561695
2649.83	-0.164371
2651.19	0.153285
2652.54	0.264392
2653.9	-0.167299
2655.25	0.150099
2656.6	0.131228
2657.96	-0.00353146
2659.31	0.594179
2660.67	-0.00724602
2662.02	-0.228269
2663.37	-0.303584
2664.73	0.408586
2666.08	0.214694
2667.43	-0.110537
2668.78	0.205363
2670.14	-0.206436
2671.49	0.0662441
2672.84	0.339189
2674.19	0.133237
2675.54	0.232889
2676.89	-0.203768
2678.24	-0.117331
2679.59	0.143882
2680.94	-0.246355
2682.29	0.133019
2683.64	0.0206375
2684.99	0.344306
2686.34	0.233342
2687.69	0.209196
2689.04	0.140273
2690.39	0.243835
2691.74	-0.0318451
2693.08	0.0828609
2694.43	0.356
2695.78	0.672153
2697.13	0.0760689
2698.47	0.0899515
2699.82	0.366145
2701.17	0.238662
2702.51	0.373385
2703.86	-0.0993462
2705.21	0.23988
2706.55	0.245856
2707.9	0.933589
2709.24	-0.0770197
2710.58	0.0149012
2711.93	0.644116
2713.27	0.54701
2714.62	0.362555
2715.96	0.279698
2717.3	-0.0360708
2718.65	0.476975
2719.99	0.145904
2721.33	0.265405
2722.68	0.544541
2724.02	0.41566
2725.36	0.490099
2726.71	0.564135
2728.05	0.710588
2729.39	0.172804
2730.73	-0.0448942
2732.07	0.261173
2733.41	0.189033
2734.75	0.233447
2736.09	0.525307
2737.43	-0.157168
2738.77	0.0911522
2740.11	-0.184324
2741.45	0.746606
2742.79	0.397268
2744.13	0.265372
2745.47	-0.302896
2746.81	0.203451
2748.14	0.331786
2749.48	0.329473
2750.82	0.124322
2752.16	-0.109417
2753.49	0.25143
2754.83	0.278984
2756.17	-0.214757
2757.5	0.464787
2758.84	0.2033
2760.18	-0.187936
2761.51	0.0581474
2762.85	0.521689
2764.18	0.247567
2765.52	0.103657
2766.85	0.393306
2768.19	0.132269
2769.52	0.0291252
2770.86	-0.147625
2772.19	-0.0944376
2773.52	-0.330913
2774.86	0.167717
2776.19	-0.0259295
2777.52	0.112103
2778.86	0.250467
2780.19	0.0873775
2781.52	0.125872
2782.85	0.408357
2784.19	0.0450401
2785.52	0.169466
2786.85	0.365534
2788.18	0.318537
2789.51	0.100703
2790.84	0.184295
2792.17	0.0684347
2793.5	-0.347113
2794.83	0.0235949
2796.16	-0.106299
2797.49	0.148991
2798.82	-0.595923
2800.15	0.143633
2801.48	0.140464
2802.81	-0.0767727
2804.13	0.090703
2805.46	0.129364
2806.79	-0.216935
2808.12	0.204649
2809.45	-0.071188
2810.77	0.33506
2812.1	-0.0249567
2813.43	0.0846319
2814.75	0.365694
2816.08	0.0810862
2817.41	-0.315731
2818.73	-0.145037
2820.06	-0.0735683
2821.38	0.224216
2822.71	-0.088089
2824.03	0.463345
2825.36	0.277622
2826.68	0.573503
2828	-0.107126
2829.33	0.288897
2830.65	0.345575
2831.98	0.501542
2833.3	0.544185
2834.62	0.260945
2835.94	0.755622
2837.27	0.82509
2838.59	0.950646
2839.91	0.877935
2841.23	1.11641
2842.55	1.39762
2843.87	1.49571
2845.2	1.55216
2846.52	2.16044
2847.84	1.83637
2849.16	2.24724
2850.48	1.93695
2851.8	2.17733
2853.12	1.83767
2854.44	1.76615
2855.76	2.10418
2857.08	1.56625
2858.39	1.79125
2859.71	2.22799
2861.03	2.28315
2862.35	2.15442
2863.67	2.50521
2864.98	2.27703
2866.3	2.50034
2867.62	2.93535
2868.94	3.25785
2870.25	3.42563
2871.57	3.28342
2872.88	2.49264
2874.2	2.87086
2875.52	2.83926
2876.83	3.18665
2878.15	2.8574
2879.46	3.32982
2880.78	3.80207
2882.09	3.53018
2883.41	3.21753
2884.72	3.06056
2886.03	3.50791
2887.35	3.23936
2888.66	3.34929
2889.97	3.07957
2891.29	2.87925
2892.6	3.14097
2893.91	2.85596
2895.22	3.13168
2896.54	3.04411
2897.85	3.30751
2899.16	3.23609
2900.47	3.27742
2901.78	3.64096
2903.09	3.24933
2904.4	3.51527
2905.71	3.51574
2907.02	3.93642
2908.33	4.35802
2909.64	3.92717
2910.95	4.07052
2912.26	4.1999
2913.57	4.07652
2914.88	4.48364
2916.19	4.46894
2917.5	4.73247
2918.81	4.71499
2920.11	4.31975
2921.42	5.30966
2922.73	4.81868
2924.04	5.29379
2925.34	5.18302
2926.65	5.36645
2927.96	5.10258
2929.26	5.60718
2930.57	5.55198
2931.87	5.69198
2933.18	4.93708
2934.49	5.51008
2935.79	5.41229
2937.1	5.00723
2938.4	4.6723
2939.7	4.81277
2941.01	4.77212
2942.31	4.41094
2943.62	4.19068
2944.92	4.51692
2946.22	4.63479
2947.53	4.02582
2948.83	4.42387
2950.13	3.92494
2951.43	4.18016
2952.74	3.99937
2954.04	3.56518
2955.34	3.66269
2956.64	3.62113
2957.94	3.98755
2959.24	3.53085
2960.54	3.39876
2961.84	3.42276
2963.15	3.25112
2964.45	3.02248
2965.75	3.03098
2967.05	2.9957
2968.34	3.07157
2969.64	2.69674
2970.94	2.11065
2972.24	2.83296
2973.54	2.3176
2974.84	2.23831
2976.14	2.70747
2977.43	2.1335
2978.73	2.48714
2980.03	2.31811
2981.33	2.10566
2982.62	2.13195
2983.92	1.84927
2985.22	1.94735
2986.51	1.56911
2987.81	1.62796
2989.11	1.72994
2990.4	1.48085
2991.7	1.18909
2992.99	1.43038
2994.29	1.72654
2995.58	1.41742
2996.88	0.686627
2998.17	1.12103
2999.46	0.334973
3000.76	0.65774
3002.05	1.14904
3003.34	0.841743
3004.64	0.590768
3005.93	0.885833
3007.22	0.718136
3008.52	0.409858
3009.81	0.828142
3011.1	0.532542
3012.39	0.264898
3013.68	0.248786
3014.97	0.497966
3016.27	0.343524
3017.56	0.0925655
3018.85	0.231998
3020.14	-0.00413036
3021.43	-0.0458202
3022.72	0.272845
3024.01	0.00723743
3025.3	0.0186682
3026.59	0.625422
3027.88	-0.0552878
3029.16	-0.0286164
3030.45	0.054739
3031.74	0.249929
3033.03	-0.0785747
3034.32	-0.144338
3035.6	-0.017426
3036.89	0.287334
3038.18	0.273056
3039.47	0.256931
3040.75	-0.255471
3042.04	0.0972934
3043.33	0.0379052
3044.61	0.554415
3045.9	0.1007
3047.18	0.333075
3048.47	0.226204
3049.75	0.230755
3051.04	0.53711
3052.32	0.0937839
3053.61	0.223598
3054.89	0.502814
3056.18	0.453548
3057.46	0.335068
3058.74	0.14782
3060.03	0.300958
3061.31	0.127737
3062.59	0.744545
3063.88	0.0842686
3065.16	0.391055
3066.44	0.359375
3067.72	0.247131
3069	-0.0551143
3070.29	0.431179
3071.57	0.223028
3072.85	-0.203836
3074.13	0.306344
3075.41	0.298895
3076.69	0.223272
3077.97	0.161749
3079.25	0.209941
3080.53	0.00190163
3081.81	-0.394445
3083.09	0.0650544
3084.37	0.145471
3085.65	-0.0589767
3086.93	0.224734
3088.21	-0.184428
3089.49	0.288007
3090.76	-0.162827
3092.04	-0.0709138
3093.32	-0.236548
3094.6	0.262703
3095.87	-0.227683
3097.15	-0.202634
3098.43	0.188332
3099.7	0.104786
3100.98	0.129614
3102.26	0.0191212
3103.53	0.0579405
3104.81	-0.308762
3106.08	-0.160313
3107.36	-0.0380244
3108.63	0.152992
3109.91	0.236877
3111.18	0.375996
3112.46	0.258669
3113.73	0.507596
3115	0.404261
3116.28	0.205507
3117.55	0.0601125
3118.83	0.0900187
3120.1	0.132462
3121.37	0.146937
3122.64	0.0931277
3123.92	0.770701
3125.19	0.0939732
3126.46	0.622856
3127.73	0.570222
3129	0.531746
3130.27	0.169193
3131.55	0.685634
3132.82	0.55307
3134.09	0.339251
3135.36	0.584147
3136.63	0.396562
3137.9	0.6267
3139.17	0.627185
3140.44	0.38529
3141.71	0.30534
3142.98	0.534921
3144.24	0.684118
3145.51	0.256972
3146.78	0.702528
3148.05	0.598962
3149.32	0.469435
