200.43	-0.00462151
202.246	0.0246553
204.061	0.0551558
205.875	0.47581
207.688	0.312932
209.501	-0.749515
211.316	0.0580835
213.129	0.86324
214.941	0.623022
216.753	0.358194
218.566	0.457085
220.377	0.459644
222.188	-0.310843
223.999	-0.0158014
225.809	0.352057
227.618	0.212358
229.43	0.0240574
231.239	0.148993
233.047	-0.160822
234.855	0.156893
236.663	-0.584962
238.471	-0.191597
240.278	0.0115242
242.087	0.482417
243.894	0.906867
245.7	-0.116477
247.506	0.0889454
249.311	0.436373
251.116	0.587098
252.921	-0.110173
254.725	-0.808815
256.529	0.108088
258.333	0.133234
260.136	-0.00856018
261.939	0.116695
263.744	0.267828
265.546	0.0104713
267.348	-0.318974
269.15	0.0742111
270.951	0.00851822
272.752	0.544264
274.552	-0.247663
276.353	0.405124
278.152	0.212055
279.952	0.0650597
281.751	0.276989
283.55	0.197889
285.348	0.117286
287.146	0.875956
288.942	0.0505075
290.739	-0.389331
292.536	0.0584745
294.333	-0.138598
296.129	0.741936
297.925	0.308414
299.721	0.162405
301.516	0.5417
303.311	0.298976
305.106	0.508467
306.9	-0.595188
308.694	0.185236
310.486	-0.273626
312.279	0.221755
314.072	0.170881
315.864	0.0743189
317.656	0.00341415
319.448	0.386679
321.24	0.985972
323.029	0.871267
324.819	0.375116
326.61	-0.24098
328.4	0.0258226
330.19	0.0531149
331.977	0.103001
333.766	0.342477
335.555	0.771134
337.343	0.479326
339.131	0.185211
340.917	0.678666
342.704	0.310195
344.491	-0.177574
346.277	0.505828
348.062	0.329855
349.848	0.130608
351.633	-0.164055
353.416	0.232757
355.201	-0.56453
356.986	-0.00351715
358.77	-0.350085
360.552	0.112186
362.335	0.644142
364.118	0.627483
365.899	0.277379
367.682	0.354223
369.464	-0.0917416
371.243	-0.419334
373.025	0.743555
374.806	0.0599852
376.585	0.534633
378.365	-0.476819
380.143	0.422772
381.923	0.05091
383.702	-0.201483
385.479	0.46451
387.258	0.61418
389.034	0.882371
390.812	-0.210718
392.59	0.529062
394.365	-0.327543
396.142	-0.0565653
397.916	-0.396173
399.693	-0.00793362
401.467	0.708645
403.242	-0.078722
405.015	1.012
406.79	0.152549
408.565	0.302223
410.337	0.427933
412.111	0.107673
413.882	0.0459986
415.656	0.0788717
417.426	0.229835
419.197	-0.0878906
420.969	-0.405478
422.739	-0.253993
424.51	0.225449
426.279	0.328279
428.05	-0.0158634
429.819	-0.102334
431.589	0.444825
433.356	-0.040473
435.124	-0.220351
436.893	0.491552
438.66	0.381235
440.428	0.269361
442.194	0.155364
443.96	0.0157013
445.727	0.319301
447.492	0.0125103
449.259	0.781357
451.023	0.47417
452.787	0.167812
454.553	-0.417757
456.316	0.419254
458.079	0.532797
459.844	0.553089
461.606	-0.332886
463.368	0.247943
465.132	0.226662
466.893	0.371026
468.654	0.355612
470.415	0.0166159
472.177	-0.0196209
473.937	0.408952
475.696	-0.0257797
477.456	0.189223
479.217	0.728365
480.975	-0.0380859
482.733	0.430058
484.491	0.410267
486.251	0.299314
488.008	0.866453
489.765	0.550219
491.522	1.37845
493.278	0.783648
495.036	0.725858
496.791	1.32326
498.546	0.726485
500.301	1.18338
502.056	0.88925
503.81	0.734555
505.566	0.601864
507.319	0.349903
509.073	0.848825
510.825	0.899163
512.578	0.171179
514.33	0.547471
516.082	0.098774
517.833	1.29521
519.587	0.750025
521.337	0.932829
523.088	0.504292
524.838	0.263708
526.588	0.0936956
528.337	0.814825
530.087	-0.128784
531.835	0.45058
533.584	0.79431
535.332	0.224046
537.08	0.658082
538.827	0.552773
540.574	0.493
542.321	0.688671
544.068	0.255269
545.814	0.612875
547.56	0.157484
549.305	0.306116
551.05	0.500935
552.795	0.556712
554.54	1.02847
556.284	0.229982
558.027	0.471184
559.771	0.343819
561.514	-0.058979
563.257	0.804549
564.999	-0.309307
566.742	0.508495
568.481	0.384919
570.223	0.308467
571.964	0.348228
573.705	0.114459
575.445	-0.0256882
577.185	0.0653143
578.925	0.593936
580.665	0.02145
582.402	0.206816
584.141	0.207883
585.879	0.0468769
587.617	-0.000534058
589.355	0.456911
591.092	0.177144
592.828	0.0118265
594.564	-0.314729
596.301	-0.250133
598.037	-0.185579
599.773	0.200684
601.506	0.540008
603.242	-0.0420961
604.976	-0.234554
606.711	0.766635
608.443	-0.300967
610.177	-0.105221
611.91	0.182517
613.644	-0.194108
615.374	0.0949345
617.107	-0.188825
618.839	0.0538502
620.569	0.180742
622.3	-0.0827398
624.032	0.316139
625.761	0.668742
627.491	-0.119493
629.221	0.0307188
630.949	0.274589
632.679	-0.0270281
634.408	0.128893
636.135	0.0562963
637.863	0.392807
639.592	0.475296
641.318	-0.198174
643.045	-0.235156
644.77	0.068141
646.497	0.257395
648.224	0.425574
649.948	0.233393
651.674	0.068078
653.398	0.361423
655.123	0.090023
656.846	0.0938396
658.57	-0.243193
660.293	0.103203
662.017	0.517163
663.738	0.220834
665.462	0.881831
667.185	-0.0596466
668.905	0.164126
670.628	0.914812
672.348	0.706964
674.067	0.845106
675.789	0.619158
677.508	0.485976
679.228	0.4446
680.947	0.218206
682.667	0.104596
684.385	0.0346489
686.104	0.354016
687.821	0.142128
689.538	0.182409
691.256	0.659579
692.972	0.790556
694.69	0.989776
696.406	0.404909
698.121	1.24633
699.837	0.0377369
701.552	0.829951
703.268	0.493974
704.982	0.249556
706.695	-0.0180111
708.41	0.792179
710.123	0.225879
711.836	0.5072
713.55	0.90204
715.262	0.884624
716.973	1.36948
718.685	0.416453
720.398	0.809977
722.108	0.610947
723.818	0.844621
725.53	0.804959
727.24	1.58275
728.949	1.08789
730.658	0.434763
732.369	0.937535
734.077	1.75585
735.785	1.30684
737.493	0.746231
739.2	0.886763
740.909	1.77198
742.616	1.26069
744.322	1.17933
746.028	1.25718
747.734	0.999097
749.441	0.900064
751.146	1.22983
752.851	0.32394
754.555	0.836603
756.26	1.46368
757.963	0.336789
759.667	0.99004
761.372	0.878859
763.075	1.55783
764.777	1.67307
766.479	1.22236
768.181	1.53775
769.883	2.03183
771.584	1.55132
773.285	1.72495
774.986	1.53623
776.686	1.91338
778.386	1.86241
780.085	1.33824
781.785	1.60689
783.484	2.07962
785.182	2.57401
786.881	1.91126
788.579	1.65246
790.276	1.50328
791.974	1.39647
793.671	1.58158
795.367	1.94646
797.064	1.63555
798.76	1.50716
800.456	1.56104
802.151	1.05403
803.846	1.92005
805.541	1.63876
807.236	1.46919
808.93	2.17431
810.624	1.62048
812.317	1.73914
814.01	1.43126
815.703	1.25793
817.394	1.57698
819.086	1.8732
820.778	2.48176
822.47	1.99646
824.161	1.80268
825.852	1.74445
827.543	1.91142
829.231	2.59364
830.921	1.80949
832.611	2.25363
834.3	1.40779
835.989	1.63278
837.676	1.83556
839.364	1.05483
841.053	1.20991
842.74	2.27966
844.426	1.98616
846.113	1.11215
847.8	1.73761
849.486	1.53864
851.171	1.52132
852.857	1.59582
854.542	0.145772
856.227	1.34304
857.911	1.66467
859.595	2.23256
861.279	1.42564
862.961	0.683568
864.645	1.62974
866.329	1.06511
868.01	1.31126
869.692	0.925516
871.375	1.03557
873.055	1.32594
874.737	0.194798
876.418	0.191722
878.097	1.47517
879.778	1.56251
881.457	1.7172
883.137	0.968084
884.817	1.59485
886.495	1.06885
888.174	1.28596
889.851	1.27565
891.53	1.71441
893.206	1.00255
894.884	1.25807
896.562	0.770108
898.237	1.35998
899.914	1.70077
901.589	0.874834
903.265	0.922977
904.94	1.01552
906.615	0.683972
908.289	1.00047
909.964	0.604571
911.637	0.944649
913.31	0.440289
914.984	0.51458
916.656	0.65538
918.33	0.818014
920.001	0.249822
921.674	0.169915
923.345	0.24606
925.015	1.27366
926.687	0.712456
928.357	0.572936
930.028	1.22925
931.698	1.13597
933.366	0.601852
935.037	0.862144
936.705	0.681761
938.373	0.171518
940.043	0.50065
941.71	0.941485
943.379	0.522784
945.046	0.412766
946.712	-0.139921
948.378	0.740313
950.046	0.62518
951.711	1.28097
953.376	0.833636
955.043	0.961526
956.708	0.78371
958.372	0.631422
960.036	0.724831
961.701	0.753847
963.364	0.163907
965.027	-0.118842
966.69	0.369849
968.354	1.07705
970.016	0.808443
971.678	1.18039
973.339	0.933469
975	1.68333
976.661	1.21898
978.324	0.756217
979.984	0.847177
981.644	0.937805
983.303	1.2484
984.962	1.06983
986.621	1.19884
988.282	1.59122
989.94	0.655025
991.598	0.448427
993.256	0.396503
994.913	0.58757
996.57	0.337332
998.227	0.837046
999.884	0.785048
1001.54	0.864834
1003.2	0.657969
1004.85	0.736936
1006.51	0.771718
1008.16	0.521125
1009.82	0.293196
1011.47	0.8336
1013.12	0.650607
1014.78	0.490185
1016.43	1.09661
1018.08	0.630857
1019.74	1.45681
1021.39	0.424972
1023.04	0.618999
1024.69	0.748462
1026.34	1.40302
1028	1.29275
1029.65	1.13813
1031.3	1.11326
1032.95	0.95564
1034.6	0.599973
1036.25	0.766518
1037.9	1.14976
1039.55	1.37991
1041.19	1.34945
1042.84	1.51621
1044.49	0.989564
1046.14	1.66016
1047.79	1.13828
1049.43	1.46535
1051.08	1.44645
1052.73	0.668156
1054.37	0.628772
1056.02	0.458995
1057.66	0.767118
1059.31	0.922631
1060.95	1.44713
1062.6	1.05752
1064.24	1.08002
1065.88	1.40569
1067.53	0.773695
1069.17	0.0758476
1070.81	-0.209514
1072.46	0.28668
1074.1	0.631088
1075.74	0.716096
1077.38	0.629043
1079.02	0.565091
1080.66	0.523699
1082.3	-0.0814514
1083.94	0.656883
1085.58	0.56951
1087.22	-0.126677
1088.86	0.301732
1090.5	0.706038
1092.14	0.524686
1093.78	0.753437
1095.42	0.938809
1097.05	0.499634
1098.69	0.385762
1100.33	0.101728
1101.97	0.809848
1103.6	0.37932
1105.24	0.552686
1106.87	0.683659
1108.51	0.427216
1110.15	0.384725
1111.78	0.491035
1113.41	0.874759
1115.05	0.312067
1116.68	-0.0574522
1118.31	0.774174
1119.95	0.191463
1121.58	0.488422
1123.21	0.764855
1124.85	1.08498
1126.48	0.614513
1128.11	1.27853
1129.74	0.916849
1131.37	0.149719
1133	0.0671463
1134.63	0.540233
1136.26	0.520979
1137.89	0.051899
1139.52	0.329445
1141.15	0.114638
1142.78	0.219587
1144.41	0.623158
1146.04	-0.0601387
1147.66	0.387599
1149.29	-0.357069
1150.92	0.326264
1152.55	0.349163
1154.17	0.456854
1155.8	0.478925
1157.43	-0.222528
1159.05	0.182838
1160.68	0.354988
1162.3	0.655866
1163.93	-0.232829
1165.55	-0.185441
1167.17	0.28695
1168.8	-0.0709343
1170.42	-0.0690966
1172.05	0.313143
1173.67	0.0773668
1175.29	0.222482
1176.91	0.0488319
1178.54	-0.378525
1180.16	-0.487032
1181.78	-0.234876
1183.4	0.525081
1185.02	0.0587263
1186.64	0.288816
1188.26	0.474659
1189.88	0.00463104
1191.5	-0.192663
1193.12	-0.0335875
1194.74	-0.0857544
1196.36	0.071907
1197.97	0.251043
1199.59	0.933508
1201.21	0.488915
1202.83	0.131469
1204.44	0.278054
1206.06	0.447696
1207.68	0.618726
1209.29	0.289423
1210.91	0.91877
1212.52	0.711967
1214.14	0.961355
1215.75	-0.0622015
1217.37	0.536694
1218.98	0.405975
1220.6	0.358418
1222.21	0.270206
1223.82	0.515
1225.44	0.636795
1227.05	0.67731
1228.66	0.864095
1230.27	0.886719
1231.88	0.331867
1233.49	0.935916
1235.1	0.611194
1236.72	1.01118
1238.33	1.55712
1239.94	0.987453
1241.55	1.90695
1243.16	1.33695
1244.76	0.848645
1246.37	1.43518
1247.98	1.1722
1249.59	1.17739
1251.2	1.63734
1252.8	1.1459
1254.41	1.42064
1256.02	1.36563
1257.63	1.68438
1259.23	1.23895
1260.84	2.05694
1262.44	1.48867
1264.05	2.28724
1265.66	1.22088
1267.26	1.74914
1268.87	1.23995
1270.47	1.68325
1272.07	1.89732
1273.68	2.0065
1275.28	1.2232
1276.88	1.70327
1278.48	1.10496
1280.09	1.72808
1281.69	1.93637
1283.29	1.91704
1284.89	1.85698
1286.49	2.0047
1288.09	2.46359
1289.69	2.24146
1291.3	2.35061
1292.9	2.52164
1294.49	1.57622
1296.09	1.5798
1297.69	2.24217
1299.29	1.87035
1300.89	2.30131
1302.49	2.44175
1304.09	2.16919
1305.68	2.22525
1307.28	1.74663
1308.88	2.17135
1310.47	2.24678
1312.07	1.99492
1313.66	2.17394
1315.26	1.82249
1316.86	1.55438
1318.45	1.79739
1320.05	2.42726
1321.64	1.93476
1323.23	2.58098
1324.83	1.84158
1326.42	2.32037
1328.01	1.70249
1329.61	1.83595
1331.2	2.51693
1332.79	1.9666
1334.38	1.66204
1335.98	2.10634
1337.57	1.80459
1339.16	1.94591
1340.75	1.94418
1342.34	1.49734
1343.93	1.71255
1345.52	1.70516
1347.11	1.57757
1348.7	1.3119
1350.29	0.929317
1351.87	2.35008
1353.46	1.39268
1355.05	1.77653
1356.64	1.60113
1358.23	1.30549
1359.81	1.668
1361.4	0.851409
1362.99	1.53086
1364.57	1.23227
1366.16	1.23314
1367.74	0.637436
1369.33	1.17815
1370.91	1.08319
1372.5	0.930053
1374.08	0.877603
1375.67	0.945251
1377.25	1.3911
1378.83	1.15986
1380.42	1.3454
1382	1.33053
1383.58	1.55287
1385.16	0.879459
1386.75	1.23926
1388.33	0.844277
1389.91	0.926703
1391.49	1.30765
1393.07	1.51069
1394.65	1.51573
1396.23	0.767089
1397.81	1.08854
1399.39	1.28982
1400.97	1.01454
1402.55	1.80781
1404.13	1.05704
1405.7	1.25672
1407.28	0.389816
1408.86	1.20388
1410.44	1.85996
1412.01	1.07412
1413.59	1.43306
1415.17	1.41583
1416.74	0.983544
1418.32	1.5959
1419.89	1.20328
1421.47	1.61945
1423.05	1.64336
1424.62	1.13764
1426.19	1.57808
1427.77	1.96008
1429.34	1.96782
1430.92	1.87614
1432.49	1.64544
1434.06	1.6695
1435.63	2.20438
1437.2	2.34591
1438.78	2.27198
1440.35	2.25817
1441.92	2.42232
1443.49	2.92139
1445.06	2.43824
1446.63	2.48593
1448.2	2.69105
1449.77	2.68026
1451.34	3.04359
1452.91	2.32603
1454.48	2.78884
1456.05	2.36641
1457.62	1.96277
1459.18	2.67942
1460.75	1.89846
1462.32	1.76494
1463.89	1.94434
1465.45	1.76856
1467.02	1.96578
1468.59	2.26131
1470.15	1.65483
1471.72	1.48162
1473.28	1.36849
1474.85	1.39349
1476.41	1.36012
1477.98	1.01318
1479.54	0.627044
1481.11	1.61287
1482.67	0.932588
1484.23	1.17326
1485.8	1.21757
1487.36	1.31981
1488.92	0.852826
1490.48	1.03008
1492.05	0.618279
1493.61	0.0878067
1495.17	0.649244
1496.73	0.623663
1498.29	0.73409
1499.85	0.767035
1501.41	0.276834
1502.97	0.564567
1504.53	0.174503
1506.09	0.908157
1507.65	0.440785
1509.2	0.166513
1510.76	0.123281
1512.32	0.445443
1513.88	0.53543
1515.44	0.54844
1516.99	0.427621
1518.55	0.403729
1520.1	0.495427
1521.66	0.376645
1523.22	1.19438
1524.77	0.940295
1526.33	1.14339
1527.88	0.316716
1529.44	0.309393
1530.99	1.13747
1532.55	0.901944
1534.1	1.02775
1535.65	0.832757
1537.21	0.884809
1538.76	1.10734
1540.31	1.23554
1541.86	1.00566
1543.42	0.832576
1544.97	1.11085
1546.52	1.12538
1548.07	1.04586
1549.62	1.09767
1551.17	1.35552
1552.72	0.771582
1554.27	1.29237
1555.82	1.14141
1557.37	1.40311
1558.92	1.2748
1560.47	1.35375
1562.02	1.47168
1563.57	1.14306
1565.11	1.43069
1566.66	1.58787
1568.21	2.09945
1569.75	1.75207
1571.3	2.37488
1572.85	2.56804
1574.39	2.21967
1575.94	2.26331
1577.49	1.69112
1579.03	2.0341
1580.58	2.06038
1582.12	1.34046
1583.67	1.49907
1585.21	2.03232
1586.75	2.15519
1588.3	1.75459
1589.84	1.89606
1591.38	2.31794
1592.93	1.52245
1594.47	2.07471
1596.01	2.47744
1597.55	2.14991
1599.09	2.23534
1600.63	2.54671
1602.18	2.07062
1603.72	1.80057
1605.26	2.03678
1606.8	2.02738
1608.34	1.37681
1609.87	1.83269
1611.41	1.9665
1612.95	1.4032
1614.49	2.13416
1616.03	1.94464
1617.57	1.90577
1619.11	1.79323
1620.64	2.05692
1622.18	2.28449
1623.72	1.96998
1625.25	1.54327
1626.79	1.50893
1628.32	2.09065
1629.86	2.14678
1631.4	1.75312
1632.93	2.10659
1634.47	1.97458
1636	2.58986
1637.53	1.84416
1639.07	2.06915
1640.6	2.51766
1642.14	1.97778
1643.67	2.38683
1645.2	2.6452
1646.73	2.51165
1648.27	2.58231
1649.8	2.70897
1651.33	2.53963
1652.86	3.11376
1654.39	2.79874
1655.92	2.89244
1657.45	2.74512
1658.98	2.67112
1660.51	2.0959
1662.04	2.29677
1663.57	1.77513
1665.1	2.26954
1666.63	2.3944
1668.16	2.1145
1669.69	2.44479
1671.21	2.29737
1672.74	1.81969
1674.27	1.82155
1675.79	1.78635
1677.32	2.00798
1678.85	1.80515
1680.37	1.39914
1681.9	1.91152
1683.42	1.94544
1684.95	1.4839
1686.47	0.784875
1688	1.53505
1689.52	1.36885
1691.05	0.855186
1692.57	1.14732
1694.1	0.981791
1695.62	1.03563
1697.14	0.979502
1698.66	0.70394
1700.19	0.775018
1701.71	0.480718
1703.23	1.17037
1704.75	0.21949
1706.27	0.197629
1707.79	0.0482626
1709.32	0.807222
1710.83	0.421619
1712.35	0.45387
1713.88	0.413729
1715.39	1.0254
1716.91	1.11144
1718.43	0.22125
1719.95	0.650667
1721.47	1.29602
1722.99	0.354374
1724.5	0.0816355
1726.02	0.29661
1727.54	0.530637
1729.06	0.549513
1730.57	0.210174
1732.09	0.266654
1733.61	0.109027
1735.12	0.228647
1736.64	0.627472
1738.15	0.237279
1739.67	0.177214
1741.18	-0.147525
1742.7	0.484266
1744.21	0.473649
1745.72	0.26959
1747.24	0.281263
1748.75	0.147286
1750.26	0.0159597
1751.78	0.384548
1753.29	-0.0407629
1754.8	0.170411
1756.31	0.434901
1757.82	0.490378
1759.34	0.190199
1760.85	0.261977
1762.36	0.202502
1763.87	0.238485
1765.38	0.112753
1766.89	0.206965
1768.4	0.00490761
1769.91	-0.172511
1771.41	-0.0186596
1772.92	-0.120386
1774.43	0.336522
1775.94	0.138347
1777.45	0.189535
1778.96	0.225865
1780.46	0.410469
1781.97	-0.0851479
1783.48	-0.347478
1784.98	0.210294
1786.49	-0.111598
1788	0.5091
1789.5	0.140069
1791.01	0.168148
1792.51	0.124166
1794.01	0.188426
1795.52	0.297887
1797.02	0.044076
1798.53	0.213602
1800.03	-0.088028
1801.54	0.0684557
1803.04	0.053524
1804.54	-0.217495
1806.04	0.253719
1807.54	0.13441
1809.05	0.325485
1810.55	-0.143311
1812.05	0.00401878
1813.55	0.266894
1815.05	0.138456
1816.55	0.124587
1818.05	0.153541
1819.55	-0.0995684
1821.05	0.178395
1822.55	0.418297
1824.05	-0.213799
1825.55	0.186414
1827.05	-0.384723
1828.55	0.0990906
1830.04	0.0269642
1831.54	0.275555
1833.04	0.0868158
1834.54	-0.0873795
1836.03	-0.0800076
1837.53	0.00131702
1839.03	-0.0184298
1840.52	-0.0197172
1842.02	0.212268
1843.51	-0.0697098
1845.01	0.171926
1846.5	0.0173855
1848	0.123741
1849.49	0.176534
1850.99	0.324685
1852.48	-0.123728
1853.97	-0.37641
1855.47	0.0103941
1856.96	-0.0863314
1858.45	0.191077
1859.94	0.341863
1861.44	-0.0445299
1862.93	-0.157648
1864.42	0.36976
1865.91	-0.0126963
1867.4	-0.0368271
1868.89	0.13768
1870.38	-0.112469
1871.87	0.00600147
1873.36	0.0543156
1874.85	-0.0497093
1876.34	0.143743
1877.83	-0.183861
1879.32	-0.252836
1880.81	-0.101037
1882.3	0.0135069
1882.56	0.0295076
1884.06	0.132663
1885.55	-0.0612574
1887.04	0.10993
1888.54	0.106386
1890.03	-0.227528
1891.52	0.483228
1893.02	0.377942
1894.51	0.0136747
1896	-0.105751
1897.49	-0.0157661
1898.99	0.161098
1900.48	0.197846
1901.97	0.25041
1903.46	0.162109
1904.95	-0.0839596
1906.44	-0.226282
1907.93	0.29139
1909.42	-0.145491
1910.91	0.00877285
1912.4	0.0770454
1913.89	0.24987
1915.38	0.283977
1916.86	0.265721
1918.35	0.47226
1919.84	-0.0148277
1921.33	0.0179377
1922.82	0.830277
1924.3	-0.174665
1925.79	0.0507927
1927.28	0.277246
1928.76	0.123428
1930.25	0.506329
1931.74	-0.0293465
1933.22	-0.220042
1934.71	0.332016
1936.19	0.293757
1937.67	0.202519
1939.16	-0.200042
1940.64	0.0198116
1942.13	-0.0359097
1943.61	-0.0905972
1945.09	-0.161696
1946.58	-0.0427942
1948.06	0.127498
1949.54	0.383067
1951.03	0.189762
1952.51	0.150648
1953.99	-0.0781126
1955.47	0.071393
1956.95	0.186728
1958.43	0.199604
1959.91	0.0587826
1961.39	0.312968
1962.87	0.172912
1964.35	0.204102
1965.83	0.474506
1967.31	0.179145
1968.79	-0.390169
1970.27	0.0149994
1971.75	0.436416
1973.22	0.208591
1974.7	0.083518
1976.18	0.0269604
1977.66	0.106898
1979.13	0.254895
1980.61	0.283591
1982.09	0.176085
1983.56	-0.152372
1985.04	-0.633432
1986.52	-0.045516
1987.99	0.270328
1989.47	-0.209899
1990.94	0.394216
1992.41	0.0852194
1993.89	-0.408469
1995.36	-0.15747
1996.84	-0.193437
1998.31	0.226549
1999.78	-0.16452
2001.26	-0.235223
2002.73	-0.00272846
2004.2	-0.0571728
2005.67	-0.195489
2007.15	0.0880785
2008.62	-0.0149279
2010.09	0.169128
2011.56	0.185288
2013.03	0.150989
2014.5	0.402358
2015.97	-0.154699
2017.44	-0.0563631
2018.91	0.0243053
2020.38	0.289205
2021.85	-0.16841
2023.32	0.163642
2024.79	0.210933
2026.25	0.125151
2027.72	0.325902
2029.19	-0.243455
2030.66	-0.140688
2032.13	0.265087
2033.59	0.167964
2035.06	0.121123
2036.53	0.00668621
2037.99	0.412575
2039.46	-0.0724936
2040.92	0.450801
2042.39	0.117181
2043.85	0.221414
2045.32	-0.00995159
2046.78	-0.122972
2048.25	0.336903
2049.71	-0.56824
2051.18	0.177237
2052.64	0.449476
2054.1	0.618793
2055.56	0.398499
2057.03	0.345537
2058.49	0.123341
2059.95	0.541243
2061.42	0.28574
2062.88	0.250025
2064.34	0.703362
2065.8	0.837866
2067.26	0.535666
2068.72	0.671613
2070.18	0.35341
2071.64	0.624417
2073.1	0.322872
2074.56	0.728249
2076.02	0.257662
2077.48	0.342417
2078.94	0.527822
2080.39	0.375979
2081.85	0.711872
2083.31	0.323171
2084.77	0.47243
2086.22	0.85636
2087.68	0.650865
2089.14	0.898886
2090.6	0.860907
2092.05	0.906825
2093.51	0.902265
2094.96	0.662657
2096.42	0.975886
2097.87	1.15404
2099.33	0.779012
2100.78	1.4243
2102.24	1.33363
2103.69	1.02691
2105.15	1.68989
2106.6	1.35281
2108.05	0.833611
2109.51	1.33215
2110.96	1.26306
2112.41	1.64249
2113.86	1.32027
2115.32	1.61243
2116.77	1.77014
2118.22	1.59577
2119.67	1.24056
2121.12	1.63436
2122.57	2.01337
2124.02	1.48183
2125.47	1.96253
2126.92	1.99519
2128.37	1.84436
2129.82	2.15604
2131.27	2.25067
2132.72	2.39395
2134.17	2.33854
2135.62	2.5652
2137.06	2.28103
2138.51	2.46187
2139.96	2.56227
2141.41	2.51584
2142.85	2.28885
2144.3	2.79034
2145.75	2.92829
2147.19	2.96665
2148.64	3.05395
2150.09	3.17337
2151.53	3.12592
2152.97	3.19324
2154.42	3.14358
2155.86	3.40815
2157.31	3.45742
2158.75	3.39165
2160.2	3.46007
2161.64	3.39814
2163.08	3.43792
2164.53	3.31375
2165.97	3.30664
2167.41	3.33261
2168.86	3.15781
2170.3	3.3133
2171.74	3.59938
2173.18	3.25093
2174.62	3.46639
2176.06	3.56467
2177.5	2.9981
2178.94	2.98125
2180.38	3.01545
2181.82	3.51626
2183.26	3.25295
2184.7	3.12296
2186.14	2.94311
2187.58	3.59517
2189.02	2.59994
2190.46	2.80279
2191.89	3.22182
2193.33	3.00734
2194.77	2.89114
2196.21	2.8061
2197.64	2.45256
2199.08	2.67937
2200.52	2.57239
2201.95	2.63142
2203.39	2.54185
2204.83	2.2547
2206.26	2.26733
2207.7	1.98236
2209.13	2.09482
2210.57	2.43801
2212	2.48191
2213.43	2.17779
2214.87	1.7088
2216.3	1.88486
2217.73	2.19396
2219.17	2.20735
2220.6	1.67768
2222.03	1.72529
2223.47	1.29431
2224.9	1.71849
2226.33	1.74536
2227.76	1.91831
2229.19	1.2191
2230.62	1.09473
2232.05	1.26538
2233.49	0.781237
2234.91	1.29631
2236.34	1.27255
2237.77	1.23418
2239.2	0.920484
2240.63	1.03319
2242.06	1.00093
2243.49	0.806835
2244.92	1.11872
2246.35	1.20156
2247.78	1.20118
2249.2	1.0029
2250.63	0.884005
2252.06	0.64957
2253.48	0.821274
2254.91	0.911761
2256.34	0.971125
2257.76	0.578539
2259.19	0.821754
2260.61	0.662294
2262.04	0.65126
2263.46	0.349444
2264.89	0.827616
2266.31	0.720582
2267.74	0.775323
2269.16	0.698983
2270.59	0.849712
2272.01	0.544091
2273.43	0.563902
2274.85	1.05622
2276.28	0.766882
2277.7	0.705756
2279.12	0.48164
2280.54	0.925931
2281.97	0.717887
2283.39	0.362831
2284.81	0.529849
2286.23	0.680856
2287.65	0.309826
2289.07	0.298326
2290.49	0.53232
2291.91	0.456194
2293.33	0.510954
2294.75	0.353042
2296.17	0.784191
2297.59	0.445999
2299.01	0.189494
2300.42	0.29353
2301.84	0.397944
2303.26	0.338683
2304.68	0.29593
2306.1	0.45015
2307.51	0.0290785
2308.93	0.248213
2310.35	0.35185
2311.76	0.257784
2313.18	0.130732
2314.59	-0.0453844
2316.01	0.174261
2317.43	0.164206
2318.84	0.418324
2320.26	0.227148
2321.67	-0.806811
2323.08	0.30251
2324.5	1.12919
2325.91	0.154913
2327.33	0.812322
2328.74	0.545385
2330.15	0.493083
2331.56	-0.18388
2332.98	0.506727
2334.39	-0.134984
2335.8	0.490502
2337.21	0.375157
2338.62	-0.201388
2340.04	0.125264
2341.45	0.105803
2342.86	0.085906
2344.27	0.230005
2345.68	0.0791922
2347.09	-0.202187
2348.5	0.106084
2349.91	-0.240728
2351.31	-0.0810385
2352.72	0.387781
2354.13	0.300075
2355.54	-0.309697
2356.95	0.237531
2358.36	0.24685
2359.76	0.207523
2361.17	-0.107523
2362.58	0.34007
2363.98	0.203589
2365.39	-0.240032
2366.8	0.0285473
2368.21	0.474752
2369.61	0.0501156
2371.02	0.0626278
2372.42	0.350266
2373.83	0.0749979
2375.23	-0.151384
2376.64	-0.20095
2378.04	0.0701284
2379.44	0.242969
2380.85	0.205224
2382.25	0.390684
2383.66	0.222507
2385.06	0.230473
2386.46	0.406581
2387.86	0.359764
2389.26	0.49758
2390.67	-0.0167494
2392.07	0.155351
2393.47	0.169102
2394.87	0.0564051
2396.27	0.071661
2397.67	-0.134988
2399.07	0.0880184
2400.47	-0.0698586
2401.87	-0.179737
2403.27	0.345704
2404.67	0.044939
2406.07	0.267318
2407.47	0.536247
2408.87	0.201506
2410.27	-0.0222445
2411.67	0.530757
2413.07	0.181414
2414.46	0.150187
2415.86	0.0412273
2417.26	0.123513
2418.66	0.175011
2420.05	0.211032
2421.45	0.231114
2422.84	0.13996
2424.24	0.349573
2425.64	0.274071
2427.03	0.214905
2428.43	0.172415
2429.82	0.559025
2431.22	0.438911
2432.61	0.445815
2434.01	0.436319
2435.4	0.0762024
2436.79	0.270622
2438.19	0.479472
2439.58	0.178688
2440.97	-0.0116539
2442.37	0.162734
2443.76	0.08284
2445.15	-0.108181
2446.54	0.00204945
2447.93	0.191295
2449.33	0.522919
2450.72	-0.143002
2452.11	0.125922
2453.5	0.268837
2454.89	0.127759
2456.28	0.129751
2457.67	-0.121045
2459.06	0.339788
2460.45	0.37297
2461.84	0.104945
2463.23	0.152431
2464.62	-0.116652
2466	0.0406075
2467.39	0.30814
2468.78	0.102043
2470.17	0.416372
2471.55	0.335881
2472.94	0.0185156
2474.33	0.236067
2475.72	-0.12932
2477.1	0.228512
2478.49	0.0988932
2479.87	0.142254
2481.26	-0.0494804
2482.65	0.260365
2484.03	0.209208
2485.42	0.235485
2486.8	-0.00496674
2488.19	0.191001
2489.57	0.0741062
2490.95	-0.260499
2492.34	-0.298433
2493.72	0.00629044
2495.1	-0.0141048
2496.49	0.0132132
2497.87	0.0412874
2499.25	0.0695658
2500.63	0.159348
2502.02	-0.0917597
2503.4	0.212509
2504.78	-0.00910378
2506.16	0.123549
2507.54	-0.0675082
2508.92	0.110939
2510.3	-0.00236797
2511.68	-0.0994968
2513.06	-0.0730858
2514.44	0.183821
2515.82	0.0738497
2517.2	0.0871239
2518.58	0.223206
2519.96	-0.0227127
2521.34	0.128457
2522.72	0.355139
2524.1	-0.273422
2525.47	-0.398758
2526.85	-0.112983
2528.23	0.294444
2529.6	-0.0427017
2530.98	-0.271609
2532.36	0.139346
2533.74	0.00449467
2535.11	-0.205647
2536.49	0.5109
2537.86	0.178521
2539.24	0.16427
2540.61	0.149237
2541.99	0.17941
2543.36	0.0732918
2544.74	0.347261
2546.11	0.167323
2547.49	-0.0114493
2548.86	-0.00742435
2550.23	-0.0792241
2551.61	0.243079
2552.98	0.0333719
2554.35	0.0503407
2555.72	0.20301
2557.09	0.30958
2558.47	0.203689
2559.84	0.355822
2561.21	-0.0978446
2562.58	0.373643
2563.95	0.194004
2565.32	0.120859
2566.69	0.0176291
2568.06	0.232738
2569.43	0.0992813
2570.8	0.193166
2572.17	-0.182788
2573.54	-0.225226
2574.91	-0.115988
2576.28	0.341999
2577.65	0.0115438
2579.02	0.181211
2580.39	0.0321293
2581.75	0.0039649
2583.12	-0.358092
2584.49	-0.265497
2585.85	0.0695591
2587.22	0.328876
2588.59	-0.0330486
2589.95	-0.0462689
2591.32	0.21315
2592.68	-0.0733948
2594.05	-0.133363
2595.42	-0.179093
2596.78	-0.255995
2598.15	0.18081
2599.51	0.0724936
2600.88	0.191052
2602.24	0.143839
2603.6	0.278448
2604.97	0.187132
2606.33	-0.0246181
2607.69	0.321378
2609.06	0.0181861
2610.42	0.0154343
2611.78	0.312448
2613.14	0.23194
2614.51	0.316072
2615.87	0.399794
2617.23	0.078846
2618.59	0.313196
2619.95	0.12891
2621.31	-0.0992522
2622.67	-0.177193
2624.03	-0.359354
2625.39	0.174926
2626.75	0.126682
2628.11	-0.175127
2629.47	-0.0747466
2630.83	0.441854
2632.19	0.214236
2633.55	0.224592
2634.91	0.160694
2636.26	0.00788641
2637.62	0.314659
2638.98	0.162004
2640.34	-0.582034
2641.69	0.124038
2643.05	0.0168386
2644.41	-0.149116
2645.76	0.422692
2647.12	0.0940576
2648.48	-0.102159
2649.83	-0.298783
2651.19	-0.216331
2652.54	-0.0608978
2653.9	0.16778
2655.25	0.235502
2656.6	0.333447
2657.96	0.373816
2659.31	0.239454
2660.67	0.237195
2662.02	0.0886431
2663.37	-0.162557
2664.73	0.0674739
2666.08	0.0776978
2667.43	0.349771
2668.78	-0.194109
2670.14	0.121562
2671.49	-0.304245
2672.84	0.244583
2674.19	0.154385
2675.54	0.137392
2676.89	0.425623
2678.24	0.206653
2679.59	-0.170892
2680.94	0.047061
2682.29	0.251603
2683.64	0.181793
2684.99	0.0693297
2686.34	-0.0427909
2687.69	0.26576
2689.04	0.471708
2690.39	0.167933
2691.74	0.210847
2693.08	-0.139416
2694.43	0.321785
2695.78	0.304084
2697.13	0.0986814
2698.47	-0.177763
2699.82	-0.0616398
2701.17	0.186391
2702.51	0.117247
2703.86	0.0924907
2705.21	0.198663
2706.55	-0.130172
2707.9	0.236977
2709.24	0.284676
2710.58	0.273949
2711.93	0.611602
2713.27	0.193693
2714.62	0.240599
2715.96	-0.0905781
2717.3	0.305123
2718.65	0.0461311
2719.99	0.150441
2721.33	0.225251
2722.68	-0.0351467
2724.02	0.533642
2725.36	0.243245
2726.71	0.214483
2728.05	-0.0474434
2729.39	0.272542
2730.73	0.155797
2732.07	0.388209
2733.41	0.0824084
2734.75	0.329554
2736.09	0.24232
2737.43	0.0534072
2738.77	0.0389962
2740.11	0.315186
2741.45	0.736249
2742.79	0.240682
2744.13	0.0208182
2745.47	-0.17043
2746.81	0.102767
2748.14	0.215886
2749.48	0.299922
2750.82	0.268049
2752.16	0.00447035
2753.49	0.277513
2754.83	0.246283
2756.17	0.128288
2757.5	0.358017
2758.84	-0.251734
2760.18	0.18118
2761.51	-0.022325
2762.85	0.281084
2764.18	0.338765
2765.52	-0.167853
2766.85	0.251057
2768.19	0.0469947
2769.52	0.333437
2770.86	0.517059
2772.19	0.193673
2773.52	-0.0291948
2774.86	-0.0359468
2776.19	-0.114741
2777.52	-0.12113
2778.86	-0.0119681
2780.19	0.0112796
2781.52	-0.338586
2782.85	0.0726709
2784.19	0.139125
2785.52	0.062151
2786.85	-0.114809
2788.18	0.252845
2789.51	-0.00867558
2790.84	0.102703
2792.17	-0.171323
2793.5	-0.058845
2794.83	-0.246525
2796.16	0.465724
2797.49	-0.279905
2798.82	0.016778
2800.15	0.21291
2801.48	0.109035
2802.81	0.104874
2804.13	0.0149541
2805.46	-0.0183182
2806.79	-0.109062
2808.12	0.126857
2809.45	0.120429
2810.77	0.156641
2812.1	0.0656567
2813.43	0.0609441
2814.75	0.341136
2816.08	0.0980878
2817.41	0.0829182
2818.73	0.124973
2820.06	-0.130624
2821.38	0.435397
2822.71	0.263763
2824.03	-0.120927
2825.36	0.30161
2826.68	0.143383
2828	0.382135
2829.33	0.564731
2830.65	0.492943
2831.98	0.223179
2833.3	0.576183
2834.62	0.546671
2835.94	0.191187
2837.27	0.783305
2838.59	0.978646
2839.91	0.989835
2841.23	1.56664
2842.55	1.54996
2843.87	2.21234
2845.2	1.9144
2846.52	2.35202
2847.84	2.25299
2849.16	2.47904
2850.48	2.5493
2851.8	2.4918
2853.12	2.02389
2854.44	2.62962
2855.76	2.54267
2857.08	2.41334
2858.39	2.80672
2859.71	2.87513
2861.03	2.32205
2862.35	2.99703
2863.67	3.38901
2864.98	3.51241
2866.3	3.41002
2867.62	3.74516
2868.94	3.48844
2870.25	3.82439
2871.57	4.10401
2872.88	4.22819
2874.2	4.61915
2875.52	4.23394
2876.83	4.66434
2878.15	4.60086
2879.46	4.6637
2880.78	4.82524
2882.09	4.41157
2883.41	4.47695
2884.72	4.51533
2886.03	4.32975
2887.35	4.56537
2888.66	4.77229
2889.97	4.54333
2891.29	4.83235
2892.6	4.57384
2893.91	4.72162
2895.22	5.19175
2896.54	4.94863
2897.85	5.05673
2899.16	4.9701
2900.47	5.29011
2901.78	5.61061
2903.09	5.38579
2904.4	5.81854
2905.71	5.5103
2907.02	6.12591
2908.33	6.09908
2909.64	5.70949
2910.95	6.60791
2912.26	6.77881
2913.57	6.87881
2914.88	6.55707
2916.19	6.87721
2917.5	7.04137
2918.81	7.59597
2920.11	7.71645
2921.42	7.40429
2922.73	7.90461
2924.04	7.95927
2925.34	7.91753
2926.65	8.00236
2927.96	8.255
2929.26	8.46522
2930.57	8.63279
2931.87	8.2825
2933.18	8.1416
2934.49	8.72749
2935.79	8.40503
2937.1	8.40424
2938.4	7.74692
2939.7	8.3476
2941.01	8.26423
2942.31	7.83259
2943.62	7.51419
2944.92	7.30917
2946.22	7.09147
2947.53	6.81836
2948.83	6.6707
2950.13	6.39555
2951.43	6.6783
2952.74	6.11865
2954.04	6.57951
2955.34	6.08793
2956.64	5.62554
2957.94	5.85139
2959.24	5.70246
2960.54	5.68269
2961.84	5.2447
2963.15	5.10154
2964.45	4.53632
2965.75	4.88196
2967.05	4.87478
2968.34	4.65525
2969.64	4.81444
2970.94	4.72042
2972.24	4.38752
2973.54	4.32221
2974.84	4.24278
2976.14	3.85285
2977.43	3.88385
2978.73	3.53285
2980.03	3.53203
2981.33	3.13582
2982.62	3.28789
2983.92	3.01845
2985.22	2.73632
2986.51	2.75099
2987.81	2.97798
2989.11	2.40503
2990.4	2.81605
2991.7	2.45361
2992.99	2.01984
2994.29	1.99239
2995.58	1.711
2996.88	1.80819
2998.17	1.5683
2999.46	1.5393
3000.76	1.37066
3002.05	0.992486
3003.34	1.34362
3004.64	1.12032
3005.93	1.03694
3007.22	0.953052
3008.52	0.994354
3009.81	0.769095
3011.1	0.445638
3012.39	0.70866
3013.68	0.538846
3014.97	0.174563
3016.27	0.619424
3017.56	0.173463
3018.85	0.410317
3020.14	0.341054
3021.43	0.201987
3022.72	0.173447
3024.01	-0.00857019
3025.3	0.114083
3026.59	0.0978427
3027.88	0.0129337
3029.16	-0.0154529
3030.45	0.496456
3031.74	0.0701904
3033.03	0.142272
3034.32	0.0628161
3035.6	0.14849
3036.89	0.191523
3038.18	0.343051
3039.47	0.231061
3040.75	0.0766573
3042.04	0.223794
3043.33	0.23348
3044.61	0.23032
3045.9	0.556932
3047.18	0.50262
3048.47	0.464399
3049.75	0.373744
3051.04	0.202825
3052.32	0.496705
3053.61	0.544993
3054.89	0.538103
3056.18	0.489329
3057.46	0.534993
3058.74	0.443646
3060.03	0.338597
3061.31	0.587883
3062.59	0.661108
3063.88	0.3958
3065.16	0.390451
3066.44	0.345725
3067.72	0.329188
3069	0.299477
3070.29	0.487178
3071.57	0.334082
3072.85	0.00312948
3074.13	0.201422
3075.41	0.16776
3076.69	0.106749
3077.97	0.317713
3079.25	0.12257
3080.53	0.200318
3081.81	-0.127355
3083.09	0.0752349
3084.37	-0.277741
3085.65	-0.0878396
3086.93	0.196772
3088.21	-0.0892582
3089.49	-0.0093689
3090.76	0.0158787
3092.04	-0.216698
3093.32	-0.0556064
3094.6	0.349874
3095.87	0.0640593
3097.15	-0.275714
3098.43	0.130103
3099.7	0.102097
3100.98	-0.142628
3102.26	-0.0349674
3103.53	0.438519
3104.81	0.208518
3106.08	-0.0612121
3107.36	0.00836086
3108.63	0.0654435
3109.91	0.394341
3111.18	0.00679874
3112.46	0.0532336
3113.73	0.208589
3115	0.106547
3116.28	0.0583487
3117.55	0.0772548
3118.83	0.407227
3120.1	0.53277
3121.37	0.155846
3122.64	0.144645
3123.92	0.119833
3125.19	0.420289
3126.46	0.382676
3127.73	0.1428
3129	0.41762
3130.27	0.232984
3131.55	0.170345
3132.82	0.486068
3134.09	0.652736
3135.36	0.319366
3136.63	0.0534487
3137.9	0.515545
3139.17	0.330142
3140.44	0.441096
3141.71	0.578973
3142.98	0.582663
3144.24	0.519795
3145.51	0.498
3146.78	0.57084
3148.05	0.778288
3149.32	0.651478
