200.43	1.22882
202.246	1.25161
204.061	1.27578
205.875	1.64187
207.688	0.525216
209.501	1.28019
211.316	1.64456
213.129	1.64279
214.941	0.936257
216.753	0.302826
218.566	0.0822601
220.377	1.46024
222.188	0.00774002
223.999	0.588884
225.809	0.421176
227.618	0.495385
229.43	0.376035
231.239	0.0389528
233.047	0.25673
234.855	0.306026
236.663	1.03186
238.471	0.651451
240.278	0.394831
242.087	0.382183
243.894	0.660748
245.7	0.143155
247.506	0.395932
249.311	0.0177717
251.116	-0.533114
252.921	0.361173
254.725	-0.508416
256.529	0.382427
258.333	0.405876
260.136	0.0700197
261.939	-0.335585
263.744	0.344973
265.546	-0.105434
267.348	0.0710659
269.15	-0.524072
270.951	0.0851288
272.752	0.283202
274.552	0.817108
276.353	0.0712624
278.152	0.335674
279.952	0.597406
281.751	0.374896
283.55	0.198517
285.348	0.597311
287.146	0.466313
288.942	0.239645
290.739	0.229934
292.536	0.365458
294.333	0.670177
296.129	0.498278
297.925	-0.508582
299.721	0.827287
301.516	0.275231
303.311	-0.205832
305.106	0.147306
306.9	0.308115
308.694	1.11206
310.486	-0.180844
312.279	0.529406
314.072	0.384055
315.864	0.169584
317.656	0.647909
319.448	0.913997
321.24	0.585946
323.029	-0.0276594
324.819	0.766412
326.61	1.25121
328.4	0.541713
330.19	0.02176
331.977	0.360823
333.766	-0.139319
335.555	0.219226
337.343	0.0964308
339.131	0.30603
340.917	0.322218
342.704	-0.164626
344.491	1.06918
346.277	0.00964832
348.062	0.264881
349.848	-0.314947
351.633	0.0601854
353.416	-0.0189266
355.201	0.186995
356.986	0.248072
358.77	0.545727
360.552	0.722461
362.335	-0.101712
364.118	0.0730963
365.899	0.294212
367.682	-0.411723
369.464	0.329051
371.243	0.167117
373.025	-0.113657
374.806	0.361945
376.585	-0.131349
378.365	-0.0570736
380.143	-0.42953
381.923	-0.376351
383.702	0.242683
385.479	0.462809
387.258	0.355222
389.034	-0.0328693
390.812	0.167523
392.59	0.157439
394.365	0.382875
396.142	0.538287
397.916	0.458925
399.693	0.661163
401.467	0.580964
403.242	0.312058
405.015	-0.00475979
406.79	-0.0641241
408.565	0.204452
410.337	0.425501
412.111	0.0362778
413.882	0.421947
415.656	0.714503
417.426	-0.564127
419.197	0.082016
420.969	0.00101376
422.739	-0.362053
424.51	0.0956354
426.279	-0.0816412
428.05	0.256513
429.819	0.241862
431.589	0.109774
433.356	-0.115877
435.124	0.17515
436.893	0.348766
438.66	0.427621
440.428	0.0823183
442.194	0.15699
443.96	0.393065
445.727	0.0408773
447.492	-0.17182
449.259	-0.0106287
451.023	0.197043
452.787	0.381348
454.553	0.378975
456.316	0.096858
458.079	0.0245495
459.844	0.138521
461.606	-0.398067
463.368	0.0903139
465.132	-0.394836
466.893	0.494242
468.654	0.224719
470.415	-0.0893116
472.177	0.248563
473.937	0.469493
475.696	0.87477
477.456	-0.0736113
479.217	0.210245
480.975	0.073535
482.733	0.565765
484.491	-0.0586376
486.251	0.763362
488.008	0.88934
489.765	0.714801
491.522	0.91476
493.278	0.952321
495.036	0.382147
496.791	0.349135
498.546	1.18258
500.301	1.03198
502.056	1.49049
503.81	0.233893
505.566	0.619378
507.319	0.768421
509.073	0.374586
510.825	0.637371
512.578	0.686461
514.33	0.592476
516.082	0.167449
517.833	0.634818
519.587	0.747938
521.337	0.765986
523.088	0.736399
524.838	0.424868
526.588	0.770435
528.337	0.881165
530.087	0.921304
531.835	0.422162
533.584	0.320521
535.332	0.661986
537.08	-0.260818
538.827	0.660807
540.574	-0.403256
542.321	0.281107
544.068	0.544552
545.814	0.528424
547.56	-0.323008
549.305	0.751884
551.05	0.597299
552.795	-0.0425081
554.54	0.821158
556.284	0.713846
558.027	-0.0385027
559.771	-0.189874
561.514	0.143038
563.257	-0.00697708
564.999	-0.0871668
566.742	0.15505
568.481	-0.153085
570.223	0.458175
571.964	0.244739
573.705	-0.448396
575.445	0.213967
577.185	0.190132
578.925	0.00715637
580.665	0.19239
582.402	0.860491
584.141	0.103196
585.879	0.51696
587.617	0.0552645
589.355	-0.0859728
591.092	0.116753
592.828	-0.302382
594.564	-0.284598
596.301	-0.105754
598.037	0.326104
599.773	-0.277771
601.506	0.175632
603.242	-0.0165939
604.976	0.617168
606.711	0.260678
608.443	0.454704
610.177	-0.0402479
611.91	0.0852022
613.644	-0.0178413
615.374	-0.326276
617.107	0.557056
618.839	0.156602
620.569	-0.198996
622.3	0.588125
624.032	0.275821
625.761	0.283727
627.491	-0.300756
629.221	0.0760355
630.949	0.455407
632.679	0.563414
634.408	0.467381
636.135	1.14708
637.863	0.409423
639.592	0.147929
641.318	0.339273
643.045	-0.270303
644.77	0.32641
646.497	-0.0785885
648.224	-0.389875
649.948	0.0525541
651.674	0.0675821
653.398	0.428193
655.123	-0.0483713
656.846	0.0689764
658.57	0.415679
660.293	0.169381
662.017	1.03981
663.738	-0.193789
665.462	0.511766
667.185	0.552244
668.905	0.0885983
670.628	0.1288
672.348	0.560369
674.067	0.0106525
675.789	0.516982
677.508	0.52107
679.228	0.709129
680.947	0.413603
682.667	1.21974
684.385	0.504918
686.104	0.961381
687.821	0.725121
689.538	0.717773
691.256	0.525211
692.972	0.147612
694.69	0.20677
696.406	0.932549
698.121	0.183159
699.837	1.22762
701.552	0.82071
703.268	0.803775
704.982	1.22236
706.695	0.698701
708.41	0.771528
710.123	1.27912
711.836	0.984112
713.55	1.26102
715.262	1.21725
716.973	1.35614
718.685	1.49489
720.398	1.47405
722.108	0.770316
723.818	1.45576
725.53	1.16233
727.24	1.20977
728.949	1.2112
730.658	1.2574
732.369	1.03121
734.077	0.69212
735.785	0.851014
737.493	1.59712
739.2	0.763497
740.909	1.10463
742.616	1.76214
744.322	1.29493
746.028	1.37007
747.734	1.67191
749.441	1.79539
751.146	1.11086
752.851	1.84502
754.555	1.79376
756.26	1.24931
757.963	1.67455
759.667	1.58397
761.372	1.33692
763.075	1.36096
764.777	2.12989
766.479	1.67834
768.181	1.96996
769.883	1.96504
771.584	1.21122
773.285	1.60886
774.986	2.05105
776.686	2.26778
778.386	1.62696
780.085	1.98302
781.785	2.65749
783.484	2.45004
785.182	2.01469
786.881	1.53098
788.579	1.26981
790.276	2.00008
791.974	2.25124
793.671	1.55146
795.367	1.16844
797.064	1.77887
798.76	1.96249
800.456	1.40544
802.151	1.45821
803.846	1.48932
805.541	1.74506
807.236	1.30303
808.93	1.62356
810.624	1.24655
812.317	2.10227
814.01	1.52194
815.703	1.8825
817.394	1.45956
819.086	2.60183
820.778	2.31328
822.47	1.35632
824.161	1.85108
825.852	1.99043
827.543	1.86509
829.231	2.45597
830.921	2.33811
832.611	1.80066
834.3	2.11254
835.989	1.98006
837.676	1.57943
839.364	1.46723
841.053	1.01796
842.74	1.84033
844.426	1.43336
846.113	2.54695
847.8	1.24868
849.486	1.20505
851.171	2.03772
852.857	1.52962
854.542	1.33583
856.227	1.23134
857.911	1.30519
859.595	0.94962
861.279	1.58209
862.961	1.40224
864.645	1.1981
866.329	0.67708
868.01	1.21483
869.692	1.09822
871.375	1.27444
873.055	1.67609
874.737	1.49112
876.418	0.854799
878.097	1.73054
879.778	0.281405
881.457	1.69858
883.137	1.15096
884.817	1.70816
886.495	1.51865
888.174	1.598
889.851	1.33701
891.53	1.81815
893.206	1.50872
894.884	0.815759
896.562	1.11185
898.237	1.00192
899.914	1.11538
901.589	0.824328
903.265	0.53328
904.94	0.779134
906.615	1.31481
908.289	1.62708
909.964	-0.287173
911.637	0.584538
913.31	0.833085
914.984	0.637531
916.656	0.730844
918.33	0.735263
920.001	0.518431
921.674	0.546001
923.345	0.287564
925.015	1.35684
926.687	0.484291
928.357	0.938857
930.028	0.357594
931.698	0.571715
933.366	0.852321
935.037	1.35366
936.705	1.08354
938.373	0.461679
940.043	0.194165
941.71	0.192777
943.379	0.41296
945.046	0.699348
946.712	0.432667
948.378	0.936376
950.046	0.444499
951.711	0.855958
953.376	0.671735
955.043	0.621793
956.708	0.729598
958.372	0.66498
960.036	0.692077
961.701	1.2955
963.364	0.66188
965.027	0.489896
966.69	0.66856
968.354	0.755365
970.016	1.2599
971.678	1.21017
973.339	1.64756
975	1.95407
976.661	0.89188
978.324	1.18067
979.984	1.07221
981.644	0.96326
983.303	0.941171
984.962	1.4701
986.621	1.55355
988.282	1.32486
989.94	1.07265
991.598	0.841977
993.256	0.0591993
994.913	0.844743
996.57	0.725031
998.227	1.28898
999.884	1.23501
1001.54	1.70914
1003.2	0.993741
1004.85	0.630798
1006.51	0.949483
1008.16	1.18005
1009.82	1.03768
1011.47	1.07153
1013.12	0.448463
1014.78	0.943737
1016.43	0.629018
1018.08	1.32181
1019.74	1.14018
1021.39	0.960062
1023.04	0.934507
1024.69	0.538706
1026.34	1.28009
1028	0.928905
1029.65	1.42906
1031.3	1.14119
1032.95	1.15713
1034.6	1.3891
1036.25	1.48816
1037.9	1.45528
1039.55	1.59648
1041.19	0.781311
1042.84	0.838425
1044.49	2.13614
1046.14	1.69793
1047.79	1.28422
1049.43	1.85005
1051.08	1.04933
1052.73	0.83601
1054.37	1.25327
1056.02	0.453625
1057.66	0.631577
1059.31	1.02643
1060.95	1.05094
1062.6	1.13971
1064.24	0.509794
1065.88	0.5092
1067.53	0.550753
1069.17	0.721439
1070.81	0.782604
1072.46	0.908677
1074.1	0.709806
1075.74	0.317175
1077.38	0.490248
1079.02	0.968446
1080.66	0.471818
1082.3	0.430618
1083.94	0.0848475
1085.58	0.0841284
1087.22	0.969346
1088.86	0.833271
1090.5	0.587005
1092.14	0.577451
1093.78	0.0921831
1095.42	0.64369
1097.05	1.00123
1098.69	0.606051
1100.33	0.450429
1101.97	0.577097
1103.6	0.55535
1105.24	0.771911
1106.87	0.96769
1108.51	0.689982
1110.15	0.733553
1111.78	0.732162
1113.41	0.320601
1115.05	0.187077
1116.68	0.396241
1118.31	0.669582
1119.95	0.279281
1121.58	0.811419
1123.21	0.381289
1124.85	0.808563
1126.48	1.17253
1128.11	0.831683
1129.74	1.43267
1131.37	1.0081
1133	0.498517
1134.63	0.245394
1136.26	1.01748
1137.89	-0.0282745
1139.52	0.48444
1141.15	0.846045
1142.78	0.0116911
1144.41	0.756617
1146.04	-0.139804
1147.66	0.457417
1149.29	0.288398
1150.92	-0.327204
1152.55	0.0158091
1154.17	0.124082
1155.8	0.508498
1157.43	0.828702
1159.05	1.19172
1160.68	0.726338
1162.3	0.241291
1163.93	0.055233
1165.55	0.23128
1167.17	0.173182
1168.8	0.13511
1170.42	0.116295
1172.05	-0.0960245
1173.67	0.432881
1175.29	-0.228542
1176.91	0.14918
1178.54	0.42065
1180.16	-0.0905991
1181.78	-0.367383
1183.4	-0.431602
1185.02	0.58195
1186.64	-0.349508
1188.26	0.153254
1189.88	0.568432
1191.5	0.306664
1193.12	0.842651
1194.74	0.473334
1196.36	0.0212288
1197.97	0.220548
1199.59	0.00321293
1201.21	-0.0018959
1202.83	0.726981
1204.44	0.414818
1206.06	0.835799
1207.68	0.736789
1209.29	0.408744
1210.91	0.705536
1212.52	0.583118
1214.14	0.187209
1215.75	0.559545
1217.37	0.180154
1218.98	0.506827
1220.6	0.853423
1222.21	0.806151
1223.82	0.988464
1225.44	1.42088
1227.05	1.06839
1228.66	1.04901
1230.27	0.803823
1231.88	1.1184
1233.49	1.53776
1235.1	1.91734
1236.72	1.28577
1238.33	1.19286
1239.94	1.28689
1241.55	1.19507
1243.16	1.90967
1244.76	1.25789
1246.37	1.14272
1247.98	1.89536
1249.59	2.46069
1251.2	1.99109
1252.8	1.79078
1254.41	2.1706
1256.02	1.49695
1257.63	2.23152
1259.23	2.69894
1260.84	1.82241
1262.44	2.72673
1264.05	2.07813
1265.66	2.23674
1267.26	2.16647
1268.87	2.17784
1270.47	3.03794
1272.07	2.23793
1273.68	2.18298
1275.28	1.62926
1276.88	2.7531
1278.48	1.72078
1280.09	2.8833
1281.69	3.07165
1283.29	2.74278
1284.89	2.76648
1286.49	2.85341
1288.09	2.30101
1289.69	3.7546
1291.3	2.79098
1292.9	2.90185
1294.49	3.17694
1296.09	3.05775
1297.69	2.89514
1299.29	2.75104
1300.89	3.32663
1302.49	2.91083
1304.09	1.91821
1305.68	2.40683
1307.28	2.50356
1308.88	2.70227
1310.47	2.06033
1312.07	2.93517
1313.66	2.09131
1315.26	2.74198
1316.86	2.84159
1318.45	2.73781
1320.05	2.36903
1321.64	2.54965
1323.23	2.25989
1324.83	2.65958
1326.42	2.7722
1328.01	2.31612
1329.61	2.6718
1331.2	2.82651
1332.79	3.14553
1334.38	2.55857
1335.98	2.25709
1337.57	1.89619
1339.16	2.44195
1340.75	2.3
1342.34	2.13542
1343.93	2.22991
1345.52	2.2625
1347.11	2.33522
1348.7	2.53014
1350.29	1.52716
1351.87	1.72888
1353.46	1.55313
1355.05	1.55904
1356.64	2.00505
1358.23	1.79106
1359.81	1.73578
1361.4	1.83887
1362.99	1.20271
1364.57	1.62345
1366.16	1.32671
1367.74	1.32997
1369.33	0.91666
1370.91	2.05757
1372.5	2.18501
1374.08	1.15982
1375.67	1.62782
1377.25	1.69801
1378.83	1.5686
1380.42	1.55733
1382	1.22617
1383.58	1.49017
1385.16	1.19618
1386.75	1.41843
1388.33	1.06476
1389.91	1.06948
1391.49	1.31337
1393.07	1.24069
1394.65	1.44619
1396.23	1.63156
1397.81	1.57807
1399.39	1.04781
1400.97	0.65552
1402.55	1.27245
1404.13	1.33471
1405.7	1.47661
1407.28	1.22413
1408.86	0.874083
1410.44	1.17669
1412.01	1.36061
1413.59	1.54369
1415.17	1.50847
1416.74	1.45251
1418.32	1.06104
1419.89	1.65532
1421.47	2.01403
1423.05	1.64612
1424.62	1.75277
1426.19	1.64448
1427.77	1.96988
1429.34	1.99972
1430.92	1.9497
1432.49	2.42955
1434.06	2.0423
1435.63	2.2447
1437.2	2.68314
1438.78	2.72915
1440.35	2.5013
1441.92	2.5302
1443.49	3.89643
1445.06	3.17994
1446.63	3.44638
1448.2	2.29773
1449.77	2.99717
1451.34	4.03166
1452.91	2.94329
1454.48	3.17289
1456.05	2.93033
1457.62	2.431
1459.18	2.77621
1460.75	2.62721
1462.32	2.88899
1463.89	2.89275
1465.45	2.48231
1467.02	2.77898
1468.59	2.3886
1470.15	1.70535
1471.72	1.55367
1473.28	1.63869
1474.85	1.72463
1476.41	1.49733
1477.98	1.15257
1479.54	1.5331
1481.11	2.0506
1482.67	1.11766
1484.23	1.30167
1485.8	0.368566
1487.36	0.688463
1488.92	1.24159
1490.48	1.96811
1492.05	1.08771
1493.61	0.928969
1495.17	0.86601
1496.73	0.996768
1498.29	1.20471
1499.85	0.75197
1501.41	0.573295
1502.97	1.13328
1504.53	0.220699
1506.09	0.529624
1507.65	0.373149
1509.2	0.737441
1510.76	1.19607
1512.32	0.284241
1513.88	0.490603
1515.44	0.29294
1516.99	1.40189
1518.55	0.859992
1520.1	0.683962
1521.66	1.38874
1523.22	1.23148
1524.77	0.978189
1526.33	1.46795
1527.88	1.23171
1529.44	0.995453
1530.99	2.03195
1532.55	1.03733
1534.1	1.23939
1535.65	1.40434
1537.21	0.927651
1538.76	1.20776
1540.31	1.86489
1541.86	2.03106
1543.42	1.33105
1544.97	1.34662
1546.52	1.54971
1548.07	1.84598
1549.62	1.57927
1551.17	1.538
1552.72	2.47015
1554.27	1.75703
1555.82	1.83112
1557.37	1.88859
1558.92	1.7991
1560.47	2.29027
1562.02	2.4289
1563.57	1.84137
1565.11	2.89637
1566.66	2.81343
1568.21	3.10343
1569.75	3.24363
1571.3	3.14066
1572.85	2.88793
1574.39	3.195
1575.94	2.97938
1577.49	3.15603
1579.03	3.0345
1580.58	2.31621
1582.12	3.03668
1583.67	2.89923
1585.21	3.21115
1586.75	2.77609
1588.3	2.04156
1589.84	2.99021
1591.38	3.19026
1592.93	3.22129
1594.47	3.04588
1596.01	2.98279
1597.55	2.33914
1599.09	2.7083
1600.63	3.60387
1602.18	2.66163
1603.72	3.37085
1605.26	2.63329
1606.8	2.17532
1608.34	2.61698
1609.87	2.64232
1611.41	2.90898
1612.95	1.95221
1614.49	2.85295
1616.03	1.72633
1617.57	1.61382
1619.11	1.98985
1620.64	2.42348
1622.18	2.46532
1623.72	2.20862
1625.25	2.34511
1626.79	2.0502
1628.32	2.27772
1629.86	2.72776
1631.4	3.49369
1632.93	2.27829
1634.47	2.9687
1636	3.02498
1637.53	3.13832
1639.07	2.67443
1640.6	2.50909
1642.14	2.77159
1643.67	2.6973
1645.2	3.29149
1646.73	3.21424
1648.27	3.50827
1649.8	3.46812
1651.33	3.46638
1652.86	3.35495
1654.39	3.15235
1655.92	3.63649
1657.45	3.5273
1658.98	2.78745
1660.51	3.15736
1662.04	3.09948
1663.57	3.31746
1665.1	3.20186
1666.63	2.404
1668.16	3.1762
1669.69	3.06456
1671.21	2.2916
1672.74	2.01781
1674.27	2.40765
1675.79	1.71079
1677.32	1.56556
1678.85	2.37578
1680.37	2.22783
1681.9	1.87698
1683.42	1.94849
1684.95	1.50614
1686.47	1.68825
1688	1.68735
1689.52	0.990762
1691.05	1.48527
1692.57	1.06433
1694.1	1.55827
1695.62	0.698641
1697.14	1.04557
1698.66	0.588198
1700.19	1.13464
1701.71	0.621985
1703.23	0.328094
1704.75	0.270772
1706.27	0.504152
1707.79	0.845882
1709.32	0.623826
1710.83	0.928502
1712.35	1.12403
1713.88	0.504103
1715.39	0.754173
1716.91	0.225956
1718.43	0.511728
1719.95	-0.0156755
1721.47	0.450288
1722.99	0.212951
1724.5	0.679627
1726.02	0.0126734
1727.54	0.0316839
1729.06	0.645511
1730.57	0.648537
1732.09	0.421445
1733.61	0.596815
1735.12	0.109157
1736.64	0.246265
1738.15	0.564248
1739.67	0.307498
1741.18	0.445177
1742.7	0.771886
1744.21	0.601975
1745.72	0.0874701
1747.24	0.345146
1748.75	0.939581
1750.26	0.493625
1751.78	0.0510082
1753.29	0.180327
1754.8	0.549902
1756.31	-0.122057
1757.82	0.141682
1759.34	-0.0156412
1760.85	-0.274691
1762.36	0.0832577
1763.87	0.134074
1765.38	0.304028
1766.89	0.328117
1768.4	0.314442
1769.91	-0.0367746
1771.41	0.110103
1772.92	-0.0290623
1774.43	0.155699
1775.94	-0.255146
1777.45	0.347712
1778.96	-0.543329
1780.46	0.0911903
1781.97	0.295729
1783.48	0.134535
1784.98	0.217716
1786.49	0.120652
1788	-0.119394
1789.5	-0.0112419
1791.01	0.242764
1792.51	0.18684
1794.01	0.0229025
1795.52	0.0573025
1797.02	-0.20776
1798.53	-0.0667009
1800.03	0.0372934
1801.54	-0.0639009
1803.04	-0.0362396
1804.54	-0.221782
1806.04	0.218726
1807.54	-0.117338
1809.05	-0.0145054
1810.55	0.0610218
1812.05	0.0759287
1813.55	0.510484
1815.05	0.163113
1816.55	0.0867729
1818.05	0.334942
1819.55	0.182279
1821.05	0.203175
1822.55	-0.0547848
1824.05	0.064559
1825.55	0.027935
1827.05	-0.110456
1828.55	-0.0232782
1830.04	0.112171
1831.54	0.196398
1833.04	0.241785
1834.54	0.18835
1836.03	0.0593214
1837.53	-0.171868
1839.03	0.182732
1840.52	0.209074
1842.02	-0.222282
1843.51	0.0620012
1845.01	0.134501
1846.5	0.00127888
1848	0.145279
1849.49	0.254678
1850.99	0.281698
1852.48	-0.00882816
1853.97	0.153262
1855.47	0.0972366
1856.96	0.0795412
1858.45	-0.0366964
1859.94	-0.123661
1861.44	0.151199
1862.93	-0.0855293
1864.42	-0.0661879
1865.91	0.0254431
1867.4	0.252413
1868.89	0.437523
1870.38	0.404981
1871.87	-0.105197
1873.36	0.0851269
1874.85	0.0909967
1876.34	0.15563
1877.83	-0.323323
1879.32	0.0127525
1880.81	0.0592661
1882.3	-0.115097
1882.56	-0.1557
1884.06	-0.0171347
1885.55	-0.419649
1887.04	-0.0911207
1888.54	-0.00713062
1890.03	-0.131819
1891.52	0.283679
1893.02	0.109376
1894.51	0.24986
1896	0.183228
1897.49	-0.00436687
1898.99	0.225306
1900.48	0.280028
1901.97	0.00257874
1903.46	-0.259127
1904.95	0.155915
1906.44	-0.125185
1907.93	0.236484
1909.42	0.129766
1910.91	0.214912
1912.4	0.110081
1913.89	0.300673
1915.38	0.109775
1916.86	0.0226231
1918.35	0.298944
1919.84	0.193458
1921.33	-0.275785
1922.82	-0.294145
1924.3	0.623207
1925.79	0.0181065
1927.28	-0.0146523
1928.76	-0.0468111
1930.25	0.457774
1931.74	0.320845
1933.22	0.372909
1934.71	0.440437
1936.19	0.0563717
1937.67	0.103812
1939.16	0.461743
1940.64	0.266966
1942.13	0.228593
1943.61	-0.222692
1945.09	-0.0347939
1946.58	0.291239
1948.06	0.427245
1949.54	0.459012
1951.03	-0.181762
1952.51	-0.220465
1953.99	-0.208086
1955.47	-0.0583382
1956.95	0.0229006
1958.43	0.139031
1959.91	0.169991
1961.39	0.4758
1962.87	0.35305
1964.35	-0.403713
1965.83	0.346667
1967.31	0.102896
1968.79	0.33767
1970.27	-0.402725
1971.75	0.309464
1973.22	0.269585
1974.7	0.298076
1976.18	0.207395
1977.66	-0.0703468
1979.13	0.0949068
1980.61	0.055788
1982.09	-0.238432
1983.56	0.0959454
1985.04	-0.0457611
1986.52	0.355209
1987.99	0.00989628
1989.47	-0.0975132
1990.94	0.286636
1992.41	-0.0221682
1993.89	-0.00848579
1995.36	0.191867
1996.84	-0.266343
1998.31	0.120096
1999.78	-0.101925
2001.26	-0.290612
2002.73	0.329978
2004.2	0.376652
2005.67	0.204584
2007.15	0.0502491
2008.62	0.115849
2010.09	0.502144
2011.56	0.602684
2013.03	-0.155151
2014.5	0.466733
2015.97	0.0949354
2017.44	0.00836277
2018.91	0.0555296
2020.38	0.186127
2021.85	0.434
2023.32	0.295914
2024.79	-0.277482
2026.25	-0.17842
2027.72	0.106479
2029.19	0.0406036
2030.66	-0.124642
2032.13	0.0130186
2033.59	0.235168
2035.06	0.0879889
2036.53	0.326705
2037.99	0.56501
2039.46	0.416463
2040.92	-0.0011673
2042.39	-0.200021
2043.85	0.00541592
2045.32	0.346512
2046.78	0.351974
2048.25	-0.0128546
2049.71	0.21149
2051.18	0.586751
2052.64	0.454691
2054.1	0.539976
2055.56	0.100718
2057.03	0.520037
2058.49	0.348484
2059.95	0.480107
2061.42	0.140615
2062.88	0.475456
2064.34	1.01314
2065.8	0.794494
2067.26	0.055028
2068.72	0.999139
2070.18	1.06847
2071.64	0.632822
2073.1	0.483147
2074.56	0.939377
2076.02	1.008
2077.48	0.672055
2078.94	0.251505
2080.39	1.2113
2081.85	0.301456
2083.31	1.17551
2084.77	0.819905
2086.22	0.934754
2087.68	1.16655
2089.14	0.927113
2090.6	1.14122
2092.05	1.01926
2093.51	1.41749
2094.96	0.84234
2096.42	0.820394
2097.87	1.06575
2099.33	1.39376
2100.78	0.985148
2102.24	1.02858
2103.69	1.25652
2105.15	1.3521
2106.6	1.43244
2108.05	1.04689
2109.51	1.79576
2110.96	1.62676
2112.41	1.15645
2113.86	2.01696
2115.32	1.62649
2116.77	1.81751
2118.22	1.69301
2119.67	1.80261
2121.12	1.86453
2122.57	1.76278
2124.02	2.6245
2125.47	2.22665
2126.92	2.07724
2128.37	1.62832
2129.82	2.35458
2131.27	2.73088
2132.72	2.60924
2134.17	2.65316
2135.62	2.51614
2137.06	2.86035
2138.51	2.54566
2139.96	2.7952
2141.41	2.86499
2142.85	3.31662
2144.3	3.27311
2145.75	3.39524
2147.19	3.25217
2148.64	3.68788
2150.09	3.2281
2151.53	3.26395
2152.97	3.89505
2154.42	3.21615
2155.86	3.67989
2157.31	3.49762
2158.75	3.53165
2160.2	3.71651
2161.64	3.4066
2163.08	2.96616
2164.53	3.67183
2165.97	3.84826
2167.41	3.39345
2168.86	3.91756
2170.3	3.35876
2171.74	3.61209
2173.18	3.41383
2174.62	3.67959
2176.06	3.54542
2177.5	3.2453
2178.94	3.41175
2180.38	4.06158
2181.82	3.4656
2183.26	4.21724
2184.7	3.33948
2186.14	3.32658
2187.58	3.28041
2189.02	3.05123
2190.46	3.15485
2191.89	2.90855
2193.33	2.97763
2194.77	3.19491
2196.21	2.89386
2197.64	2.79024
2199.08	2.83429
2200.52	3.19272
2201.95	2.86977
2203.39	2.16653
2204.83	2.65929
2206.26	2.35726
2207.7	2.43715
2209.13	2.8976
2210.57	2.13189
2212	1.84557
2213.43	2.25301
2214.87	2.23029
2216.3	2.3899
2217.73	2.43522
2219.17	2.46548
2220.6	2.24947
2222.03	1.62171
2223.47	1.80083
2224.9	2.04407
2226.33	1.2155
2227.76	1.42218
2229.19	1.65991
2230.62	1.81426
2232.05	2.1155
2233.49	1.28703
2234.91	1.13155
2236.34	1.092
2237.77	1.49499
2239.2	1.03482
2240.63	1.4743
2242.06	1.2469
2243.49	1.06979
2244.92	0.958275
2246.35	1.07441
2247.78	0.634349
2249.2	0.420577
2250.63	1.10081
2252.06	1.01315
2253.48	0.9573
2254.91	0.788182
2256.34	0.78321
2257.76	0.959215
2259.19	0.716323
2260.61	1.01191
2262.04	0.936909
2263.46	0.61988
2264.89	0.72531
2266.31	0.976822
2267.74	0.479413
2269.16	0.810653
2270.59	0.652926
2272.01	0.168952
2273.43	0.678077
2274.85	0.438182
2276.28	0.491686
2277.7	0.675791
2279.12	0.745946
2280.54	0.783472
2281.97	1.00031
2283.39	1.26613
2284.81	0.667229
2286.23	0.68854
2287.65	0.595959
2289.07	0.503775
2290.49	0.640706
2291.91	0.679968
2293.33	-0.00021553
2294.75	0.447953
2296.17	0.372632
2297.59	0.248075
2299.01	0.0907087
2300.42	0.228419
2301.84	0.25176
2303.26	0.390259
2304.68	0.266426
2306.1	0.65153
2307.51	0.658735
2308.93	0.254432
2310.35	0.622119
2311.76	0.216539
2313.18	0.090415
2314.59	0.310275
2316.01	0.152309
2317.43	0.225618
2318.84	0.447814
2320.26	0.0597382
2321.67	0.462251
2323.08	-0.407702
2324.5	0.452912
2325.91	0.750025
2327.33	0.270157
2328.74	0.218568
2330.15	-0.0468721
2331.56	0.067482
2332.98	-0.014658
2334.39	-0.342737
2335.8	0.300135
2337.21	-0.0609665
2338.62	-0.0282078
2340.04	0.299198
2341.45	0.0998201
2342.86	0.474593
2344.27	0.488056
2345.68	-0.334034
2347.09	0.0408344
2348.5	0.235222
2349.91	0.478058
2351.31	0.164008
2352.72	-0.248495
2354.13	-0.00847244
2355.54	-0.242255
2356.95	0.175426
2358.36	0.00668812
2359.76	0.260851
2361.17	-0.702641
2362.58	0.0868454
2363.98	-0.145735
2365.39	0.285425
2366.8	0.117927
2368.21	0.290413
2369.61	0.399108
2371.02	0.460615
2372.42	0.0239935
2373.83	-0.0408478
2375.23	0.00740528
2376.64	0.232225
2378.04	0.262792
2379.44	0.24358
2380.85	0.38328
2382.25	0.312842
2383.66	0.481905
2385.06	-0.00546265
2386.46	-0.0758591
2387.86	-0.145225
2389.26	0.0736809
2390.67	0.134122
2392.07	0.100107
2393.47	-0.0124331
2394.87	-0.155867
2396.27	-0.0282421
2397.67	-0.027235
2399.07	-0.343451
2400.47	0.151121
2401.87	0.137557
2403.27	0.139927
2404.67	-0.0644827
2406.07	0.301822
2407.47	-0.253326
2408.87	-0.25363
2410.27	-0.301777
2411.67	-0.032795
2413.07	0.505956
2414.46	-0.125931
2415.86	-0.12297
2417.26	0.197883
2418.66	0.456356
2420.05	0.160973
2421.45	0.039607
2422.84	0.377296
2424.24	0.0651846
2425.64	0.180923
2427.03	0.376456
2428.43	0.287594
2429.82	0.643686
2431.22	0.1757
2432.61	0.0566463
2434.01	0.349905
2435.4	0.165663
2436.79	-0.115437
2438.19	0.2693
2439.58	0.20791
2440.97	-0.283087
2442.37	0.178196
2443.76	0.35324
2445.15	0.36936
2446.54	0.290189
2447.93	0.00494766
2449.33	0.0684366
2450.72	-0.08957
2452.11	0.291194
2453.5	-0.197779
2454.89	0.168564
2456.28	0.503847
2457.67	0.317406
2459.06	-0.280402
2460.45	0.370718
2461.84	-0.00689411
2463.23	-0.337624
2464.62	-0.0208826
2466	-0.0679016
2467.39	-0.0991764
2468.78	-0.304029
2470.17	0.484665
2471.55	0.531285
2472.94	0.120331
2474.33	0.21291
2475.72	0.241808
2477.1	0.39604
2478.49	0.0474472
2479.87	0.342937
2481.26	0.120711
2482.65	0.0241013
2484.03	-0.229343
2485.42	0.236251
2486.8	0.0905247
2488.19	0.115721
2489.57	-0.32736
2490.95	-0.115754
2492.34	0.515505
2493.72	0.137132
2495.1	-0.130581
2496.49	-0.427647
2497.87	0.0819025
2499.25	0.0647411
2500.63	0.341146
2502.02	0.30726
2503.4	-0.237057
2504.78	-0.117887
2506.16	0.000458717
2507.54	0.056757
2508.92	-0.086792
2510.3	0.215722
2511.68	-0.156792
2513.06	0.238533
2514.44	0.358341
2515.82	-0.408895
2517.2	0.0339708
2518.58	0.0487747
2519.96	0.185964
2521.34	-0.227062
2522.72	0.0618792
2524.1	0.380136
2525.47	-0.0647888
2526.85	0.20645
2528.23	-0.19182
2529.6	0.141364
2530.98	-0.16264
2532.36	0.218886
2533.74	0.145791
2535.11	0.103761
2536.49	0.350328
2537.86	0.337953
2539.24	-0.0246706
2540.61	0.128326
2541.99	0.523716
2543.36	0.494302
2544.74	0.010685
2546.11	-0.107601
2547.49	0.154469
2548.86	0.174652
2550.23	0.0734901
2551.61	-0.134404
2552.98	0.051405
2554.35	0.0996485
2555.72	0.526314
2557.09	-0.0184927
2558.47	0.543791
2559.84	-0.258291
2561.21	0.365155
2562.58	0.261613
2563.95	-0.0232058
2565.32	-0.368234
2566.69	0.105274
2568.06	0.215178
2569.43	-0.144745
2570.8	0.465326
2572.17	0.272142
2573.54	0.291224
2574.91	0.143637
2576.28	0.329589
2577.65	-0.0303545
2579.02	-0.102466
2580.39	0.295147
2581.75	0.146487
2583.12	0.164259
2584.49	0.181802
2585.85	0.290231
2587.22	0.156242
2588.59	0.522578
2589.95	0.0554619
2591.32	0.421715
2592.68	-0.0307646
2594.05	0.24327
2595.42	0.122439
2596.78	-0.377677
2598.15	0.332217
2599.51	-0.0627255
2600.88	0.192611
2602.24	-0.0351214
2603.6	-0.095973
2604.97	0.100246
2606.33	0.130559
2607.69	0.100211
2609.06	0.129359
2610.42	0.24769
2611.78	0.0635786
2613.14	0.254588
2614.51	-0.126309
2615.87	0.108548
2617.23	-0.151526
2618.59	-0.0511332
2619.95	-0.0399842
2621.31	0.390471
2622.67	-0.344659
2624.03	0.160742
2625.39	-0.0508509
2626.75	-0.0536385
2628.11	-0.35476
2629.47	0.148318
2630.83	-0.197618
2632.19	0.229897
2633.55	0.315033
2634.91	0.19221
2636.26	0.12886
2637.62	0.243402
2638.98	0.150517
2640.34	0.38339
2641.69	0.438749
2643.05	0.051105
2644.41	0.18083
2645.76	-0.132281
2647.12	0.188545
2648.48	-0.0956979
2649.83	-0.100611
2651.19	0.246661
2652.54	-0.170714
2653.9	0.263852
2655.25	0.273237
2656.6	0.503334
2657.96	-0.143954
2659.31	-0.263064
2660.67	0.539434
2662.02	0.595654
2663.37	0.286061
2664.73	0.0636282
2666.08	0.336683
2667.43	0.157074
2668.78	0.0504665
2670.14	0.380767
2671.49	0.0422688
2672.84	0.213347
2674.19	0.0653181
2675.54	0.51306
2676.89	-0.0111198
2678.24	0.118346
2679.59	-0.157486
2680.94	0.0461464
2682.29	0.323348
2683.64	0.1812
2684.99	-0.64187
2686.34	0.0729723
2687.69	0.0188136
2689.04	0.399037
2690.39	0.705086
2691.74	0.181936
2693.08	0.325036
2694.43	0.452569
2695.78	0.14502
2697.13	0.0556321
2698.47	0.228158
2699.82	0.329789
2701.17	-0.0448089
2702.51	-0.0271058
2703.86	0.12196
2705.21	0.0686469
2706.55	0.174855
2707.9	-0.226995
2709.24	0.0382166
2710.58	0.187079
2711.93	0.161456
2713.27	0.135666
2714.62	0.211527
2715.96	0.287356
2717.3	0.479424
2718.65	0.322182
2719.99	0.0917349
2721.33	0.399237
2722.68	0.517121
2724.02	0.226983
2725.36	0.256626
2726.71	0.518767
2728.05	0.373042
2729.39	0.765524
2730.73	0.255633
2732.07	0.167727
2733.41	0.618139
2734.75	0.399518
2736.09	0.137473
2737.43	0.297333
2738.77	0.282613
2740.11	0.456685
2741.45	0.732012
2742.79	0.177971
2744.13	0.393769
2745.47	0.289201
2746.81	-0.0480471
2748.14	0.587308
2749.48	0.409646
2750.82	0.174296
2752.16	-0.00266743
2753.49	-0.106845
2754.83	0.0499654
2756.17	0.0619445
2757.5	0.0161328
2758.84	0.303513
2760.18	0.460857
2761.51	0.112122
2762.85	0.0532827
2764.18	0.038125
2765.52	0.399108
2766.85	0.151956
2768.19	0.251121
2769.52	-0.05586
2770.86	-0.103799
2772.19	-0.00853825
2773.52	0.345335
2774.86	0.0925889
2776.19	0.0562911
2777.52	0.279407
2778.86	0.0137544
2780.19	-0.164826
2781.52	-0.371614
2782.85	0.153819
2784.19	-0.182002
2785.52	0.0558619
2786.85	-0.0071969
2788.18	-0.126987
2789.51	-0.0456491
2790.84	0.179447
2792.17	0.019063
2793.5	-0.283785
2794.83	-0.0148187
2796.16	0.0393672
2797.49	-0.178395
2798.82	0.30309
2800.15	0.0844364
2801.48	-0.276936
2802.81	0.374154
2804.13	-0.400736
2805.46	0.177823
2806.79	-0.0277433
2808.12	0.17883
2809.45	0.157298
2810.77	0.121617
2812.1	0.0155988
2813.43	-0.245253
2814.75	0.105065
2816.08	0.47069
2817.41	0.0719185
2818.73	0.226468
2820.06	0.111704
2821.38	-0.244429
2822.71	-0.00593567
2824.03	0.288557
2825.36	0.483425
2826.68	0.111793
2828	0.420392
2829.33	-0.0633392
2830.65	0.118753
2831.98	0.470873
2833.3	0.14346
2834.62	0.52346
2835.94	0.718913
2837.27	0.772262
2838.59	0.910017
2839.91	0.934353
2841.23	1.72223
2842.55	1.8741
2843.87	1.57437
2845.2	2.20817
2846.52	2.27731
2847.84	2.48818
2849.16	1.96411
2850.48	2.55628
2851.8	2.39879
2853.12	2.36795
2854.44	2.59104
2855.76	2.57367
2857.08	2.41502
2858.39	2.94856
2859.71	2.80404
2861.03	3.35124
2862.35	3.17789
2863.67	3.37115
2864.98	3.53578
2866.3	3.88369
2867.62	3.6676
2868.94	3.69179
2870.25	3.4345
2871.57	4.2769
2872.88	4.31539
2874.2	5.02928
2875.52	4.58647
2876.83	4.98742
2878.15	4.16281
2879.46	4.91385
2880.78	5.07411
2882.09	4.75755
2883.41	5.01831
2884.72	4.91502
2886.03	4.92477
2887.35	4.66793
2888.66	5.02806
2889.97	4.34904
2891.29	4.86136
2892.6	4.62974
2893.91	4.98649
2895.22	5.11934
2896.54	5.14107
2897.85	5.23403
2899.16	5.30018
2900.47	5.21338
2901.78	5.25304
2903.09	5.22299
2904.4	5.85052
2905.71	5.90489
2907.02	5.80609
2908.33	6.12793
2909.64	6.81467
2910.95	6.53677
2912.26	6.79064
2913.57	7.11364
2914.88	7.0569
2916.19	7.57195
2917.5	7.63695
2918.81	7.12703
2920.11	7.6942
2921.42	8.24791
2922.73	8.34169
2924.04	8.54912
2925.34	8.53439
2926.65	8.88392
2927.96	8.81416
2929.26	8.9396
2930.57	8.74277
2931.87	8.6991
2933.18	9.368
2934.49	9.12828
2935.79	8.76299
2937.1	8.92901
2938.4	8.67606
2939.7	7.92046
2941.01	8.12972
2942.31	7.306
2943.62	7.43401
2944.92	7.49387
2946.22	7.35944
2947.53	7.14172
2948.83	7.0215
2950.13	6.9838
2951.43	6.31377
2952.74	6.24354
2954.04	6.01769
2955.34	6.32343
2956.64	5.69243
2957.94	5.55376
2959.24	5.71223
2960.54	6.0282
2961.84	6.09469
2963.15	5.7834
2964.45	5.49905
2965.75	5.40937
2967.05	5.06473
2968.34	5.30879
2969.64	4.55373
2970.94	4.44523
2972.24	4.3511
2973.54	4.69359
2974.84	4.13537
2976.14	3.77332
2977.43	3.59284
2978.73	3.91743
2980.03	3.49398
2981.33	3.88551
2982.62	3.39006
2983.92	3.2188
2985.22	3.06295
2986.51	2.66996
2987.81	2.84068
2989.11	2.33798
2990.4	2.13065
2991.7	2.44285
2992.99	2.10751
2994.29	2.30493
2995.58	1.65834
2996.88	1.58719
2998.17	1.29142
2999.46	1.0944
3000.76	0.940178
3002.05	1.12308
3003.34	0.970028
3004.64	1.2935
3005.93	0.94438
3007.22	0.748946
3008.52	0.790778
3009.81	0.398315
3011.1	0.494758
3012.39	0.911824
3013.68	0.61685
3014.97	0.239166
3016.27	0.197073
3017.56	-0.0947943
3018.85	0.309932
3020.14	0.422307
3021.43	0.31182
3022.72	0.256286
3024.01	0.158351
3025.3	0.115415
3026.59	-0.59234
3027.88	0.182298
3029.16	0.141037
3030.45	0.115161
3031.74	0.0769858
3033.03	0.136555
3034.32	0.141253
3035.6	0.697306
3036.89	0.300271
3038.18	0.1501
3039.47	-0.0702896
3040.75	0.134531
3042.04	0.0361061
3043.33	0.225838
3044.61	0.114873
3045.9	-0.212889
3047.18	0.0221744
3048.47	0.190958
3049.75	0.580094
3051.04	0.561348
3052.32	0.0659523
3053.61	0.457603
3054.89	0.575786
3056.18	0.529336
3057.46	0.454682
3058.74	0.665546
3060.03	0.236098
3061.31	0.283905
3062.59	0.332723
3063.88	0.600528
3065.16	0.026979
3066.44	0.311421
3067.72	-0.0964603
3069	0.121586
3070.29	0.0131645
3071.57	-0.299959
3072.85	0.106749
3074.13	0.185972
3075.41	0.0062418
3076.69	0.301851
3077.97	0.0412002
3079.25	-0.218059
3080.53	0.216156
3081.81	0.434868
3083.09	-0.104758
3084.37	0.143229
3085.65	0.160818
3086.93	0.150967
3088.21	-0.483764
3089.49	-0.494548
3090.76	0.11864
3092.04	0.175397
3093.32	0.0696869
3094.6	-0.157577
3095.87	0.117325
3097.15	-0.054966
3098.43	-0.240616
3099.7	0.210721
3100.98	0.214899
3102.26	0.124529
3103.53	-0.168416
3104.81	-0.0815744
3106.08	0.222626
3107.36	0.0541787
3108.63	0.0898695
3109.91	0.0184498
3111.18	0.191799
3112.46	0.176525
3113.73	0.148261
3115	0.323467
3116.28	0.756222
3117.55	0.401867
3118.83	0.0330625
3120.1	0.111058
3121.37	0.0121746
3122.64	0.0485826
3123.92	0.437194
3125.19	0.48739
3126.46	0.335193
3127.73	0.278568
3129	0.276795
3130.27	0.505398
3131.55	0.409832
3132.82	0.463071
3134.09	0.610716
3135.36	0.757953
3136.63	0.810327
3137.9	0.943277
3139.17	0.604466
3140.44	0.602769
3141.71	0.735922
3142.98	0.896269
3144.24	0.640884
3145.51	0.628245
3146.78	0.710362
3148.05	0.927202
3149.32	0.876864
