200.43	0.641752
202.246	0.670835
204.061	0.701203
205.875	0.683991
207.688	0.740045
209.501	0.552444
211.316	1.06813
213.129	0.295183
214.941	0.492207
216.753	0.518572
218.566	1.00511
220.377	0.886536
222.188	1.34969
223.999	0.628729
225.809	0.730725
227.618	0.397871
229.43	0.475366
231.239	0.64863
233.047	0.194112
234.855	1.01832
236.663	-0.229736
238.471	-0.0530653
240.278	0.0539169
242.087	0.525081
243.894	0.0572338
245.7	-0.845572
247.506	0.422177
249.311	-0.195911
251.116	0.220798
252.921	0.658343
254.725	0.39389
256.529	0.153263
258.333	0.0341759
260.136	0.181895
261.939	1.2711
263.744	-0.649158
265.546	-0.0629673
267.348	-0.0787363
269.15	0.0738344
270.951	0.22553
272.752	0.11072
274.552	-0.246769
276.353	0.0207939
278.152	0.141602
279.952	0.404593
281.751	0.761236
283.55	0.513944
285.348	-0.311182
287.146	0.616518
288.942	0.774988
290.739	0.454855
292.536	0.376012
294.333	0.346784
296.129	-0.182921
297.925	0.675092
299.721	0.00395298
301.516	0.168962
303.311	-0.407238
305.106	-0.10129
306.9	-0.321438
308.694	0.292661
310.486	0.54922
312.279	-0.0267687
314.072	0.566031
315.864	0.303478
317.656	0.661979
319.448	0.426739
321.24	0.359381
323.029	0.316562
324.819	0.321869
326.61	0.0645962
328.4	0.403986
330.19	-0.237139
331.977	0.530887
333.766	0.0535078
335.555	0.65043
337.343	-0.0712538
339.131	0.114084
340.917	0.321484
342.704	0.00188255
344.491	0.327549
346.277	0.151834
348.062	0.788742
349.848	-0.531693
351.633	0.582919
353.416	-0.451207
355.201	0.303216
356.986	0.0541687
358.77	0.32817
360.552	-0.399672
362.335	0.205119
364.118	0.308783
365.899	0.553979
367.682	-0.317719
369.464	-0.0505295
371.243	-0.0927753
373.025	0.621391
374.806	0.837182
376.585	-0.127791
378.365	-0.0290565
380.143	0.305923
381.923	0.359037
383.702	-0.198154
385.479	-0.236221
387.258	0.196901
389.034	0.114024
390.812	0.00868893
392.59	0.0920534
394.365	-0.246731
396.142	0.119359
397.916	0.0157986
399.693	0.099906
401.467	0.535824
403.242	-0.250327
405.015	0.606781
406.79	0.617479
408.565	0.463113
410.337	0.730895
412.111	-0.221791
413.882	-0.282144
415.656	-0.0368032
417.426	0.115421
419.197	0.033618
420.969	-0.188804
422.739	-0.341177
424.51	0.350832
426.279	0.0793486
428.05	0.206046
429.819	0.332143
431.589	0.598961
433.356	0.232344
435.124	-0.368644
436.893	-0.0543804
438.66	-0.163315
440.428	0.40677
442.194	-0.245344
443.96	0.437181
445.727	0.156335
447.492	0.249095
449.259	0.504819
451.023	-0.104312
452.787	0.29167
454.553	-0.152508
456.316	0.569304
458.079	-0.410283
459.844	0.00788689
461.606	0.0540018
463.368	0.21779
465.132	0.314173
466.893	0.390257
468.654	0.167035
470.415	0.154861
472.177	0.329469
473.937	1.06224
475.696	0.489388
477.456	0.496242
479.217	0.128351
480.975	0.17866
482.733	0.951033
484.491	0.56006
486.251	0.683529
488.008	0.646214
489.765	0.331152
491.522	0.997108
493.278	0.333152
495.036	0.720565
496.791	0.874483
498.546	0.723748
500.301	0.712918
502.056	0.560514
503.81	0.265961
505.566	0.604375
507.319	0.565423
509.073	0.99525
510.825	0.858814
512.578	0.485257
514.33	0.651258
516.082	0.815703
517.833	0.484851
519.587	1.21097
521.337	0.784235
523.088	0.756595
524.838	0.893013
526.588	0.818097
528.337	0.649471
530.087	0.879265
531.835	0.616493
533.584	0.797884
535.332	0.697054
537.08	0.57148
538.827	0.351227
540.574	0.619892
542.321	1.05008
544.068	0.478409
545.814	1.04662
547.56	1.07984
549.305	0.695956
551.05	0.0584393
552.795	0.301459
554.54	-0.287703
556.284	1.10972
558.027	-0.101064
559.771	0.511011
561.514	0.639164
563.257	0.399685
564.999	0.712806
566.742	-0.0534401
568.481	0.123291
570.223	0.255
571.964	-0.6673
573.705	0.0180244
575.445	0.223345
577.185	-0.32679
578.925	0.317716
580.665	0.687993
582.402	-0.0442467
584.141	0.256801
585.879	0.534027
587.617	0.0509405
589.355	0.371655
591.092	-0.320935
592.828	0.0442581
594.564	-0.0508995
596.301	0.0840321
598.037	-0.195209
599.773	-0.0146847
601.506	0.0499496
603.242	0.389234
604.976	-0.307759
606.711	0.373206
608.443	0.662155
610.177	-0.219907
611.91	-0.183012
613.644	-0.466377
615.374	0.351251
617.107	0.183291
618.839	0.106539
620.569	0.349218
622.3	0.0641499
624.032	0.30432
625.761	0.292836
627.491	0.784678
629.221	0.821724
630.949	0.861322
632.679	-0.100884
634.408	0.649525
636.135	0.441134
637.863	0.0711327
639.592	0.588511
641.318	0.144343
643.045	1.31628
644.77	0.230662
646.497	0.44389
648.224	0.499581
649.948	-0.145887
651.674	0.167023
653.398	0.211279
655.123	0.441013
656.846	-0.487681
658.57	0.748108
660.293	1.00492
662.017	0.278492
663.738	0.531233
665.462	0.324426
667.185	0.184069
668.905	0.202938
670.628	0.268215
672.348	0.655915
674.067	0.176398
675.789	0.500574
677.508	0.344883
679.228	0.441704
680.947	0.46874
682.667	0.447949
684.385	0.378856
686.104	0.445763
687.821	0.603168
689.538	0.644279
691.256	0.569419
692.972	0.632101
694.69	0.924288
696.406	0.938989
698.121	0.584054
699.837	1.37856
701.552	1.18206
703.268	0.984709
704.982	1.68256
706.695	0.634591
708.41	0.688486
710.123	0.535676
711.836	1.5274
713.55	1.16749
715.262	1.01368
716.973	0.723097
718.685	1.04902
720.398	1.23779
722.108	1.17593
723.818	1.11423
725.53	1.46167
727.24	1.58108
728.949	0.860173
730.658	1.29633
732.369	1.21028
734.077	1.46356
735.785	1.24173
737.493	1.99169
739.2	1.70325
740.909	0.897921
742.616	1.17635
744.322	0.915572
746.028	1.10662
747.734	1.50151
749.441	1.17792
751.146	1.75548
752.851	1.29983
754.555	0.890561
756.26	1.06777
757.963	1.83218
759.667	1.99078
761.372	1.74508
763.075	0.958117
764.777	2.33739
766.479	2.0001
768.181	1.23088
769.883	1.72501
771.584	2.33012
773.285	1.96123
774.986	1.52401
776.686	1.69786
778.386	2.91327
780.085	2.61557
781.785	1.79872
783.484	1.72837
785.182	2.76598
786.881	2.21653
788.579	1.88994
790.276	2.10281
791.974	1.40827
793.671	1.05186
795.367	1.73347
797.064	2.43731
798.76	1.92576
800.456	1.50694
802.151	1.65255
803.846	2.18112
805.541	2.01225
807.236	1.57299
808.93	2.05364
810.624	2.26307
812.317	1.95538
814.01	1.51309
815.703	2.1682
817.394	2.28535
819.086	1.66484
820.778	2.36305
822.47	1.96723
824.161	1.84045
825.852	1.98278
827.543	1.45911
829.231	1.5845
830.921	2.71539
832.611	1.80042
834.3	1.91241
835.989	2.02569
837.676	1.93807
839.364	1.8491
841.053	1.06589
842.74	2.02349
844.426	1.46139
846.113	1.65969
847.8	0.965614
849.486	1.83952
851.171	1.46349
852.857	1.2682
854.542	1.65695
856.227	1.59713
857.911	2.05313
859.595	1.11297
861.279	1.34039
862.961	0.913012
864.645	1.90373
866.329	1.83454
868.01	0.952828
869.692	0.972392
871.375	1.01419
873.055	1.03324
874.737	1.07477
876.418	1.25174
878.097	1.45135
879.778	0.748008
881.457	1.75984
883.137	1.01011
884.817	1.38797
886.495	0.974294
888.174	1.57446
889.851	1.74393
891.53	1.28049
893.206	1.17658
894.884	0.824032
896.562	1.50506
898.237	1.39768
899.914	1.78296
901.589	1.00142
903.265	1.45188
904.94	1.14117
906.615	0.94306
908.289	0.969059
909.964	1.24088
911.637	1.20167
913.31	2.03008
914.984	1.28084
916.656	1.1764
918.33	0.806134
920.001	0.61383
921.674	1.52853
923.345	1.55879
925.015	1.03857
926.687	0.498835
928.357	1.08698
930.028	1.05827
931.698	0.897963
933.366	1.0248
935.037	0.975339
936.705	0.992524
938.373	0.723923
940.043	1.29472
941.71	0.565466
943.379	1.07237
945.046	0.82898
946.712	0.783007
948.378	1.15452
950.046	1.32524
951.711	0.78853
953.376	1.02412
955.043	0.798172
956.708	0.95005
958.372	0.752522
960.036	0.337072
961.701	0.78417
963.364	0.568707
965.027	0.616663
966.69	0.794642
968.354	1.08034
970.016	1.07612
971.678	0.982448
973.339	0.712363
975	1.37264
976.661	0.66379
978.324	0.398737
979.984	0.831314
981.644	1.26376
983.303	0.931173
984.962	1.70332
986.621	1.45481
988.282	1.42564
989.94	0.974937
991.598	0.789205
993.256	0.228021
994.913	0.705084
996.57	0.541947
998.227	1.12866
999.884	1.0754
1001.54	1.52829
1003.2	1.9801
1004.85	1.39732
1006.51	0.507592
1008.16	0.60745
1009.82	0.926968
1011.47	0.478996
1013.12	0.930659
1014.78	1.44793
1016.43	0.498363
1018.08	1.43208
1019.74	1.46912
1021.39	0.720255
1023.04	0.781784
1024.69	1.19403
1026.34	1.30091
1028	1.08008
1029.65	1.49217
1031.3	1.35671
1032.95	1.52518
1034.6	1.18977
1036.25	1.74713
1037.9	0.973823
1039.55	1.1594
1041.19	1.0409
1042.84	0.858815
1044.49	1.96072
1046.14	1.00067
1047.79	1.34618
1049.43	1.75871
1051.08	1.13022
1052.73	1.21938
1054.37	0.874426
1056.02	0.48587
1057.66	0.466429
1059.31	1.18572
1060.95	0.860756
1062.6	1.14377
1064.24	1.14309
1065.88	1.05429
1067.53	0.725263
1069.17	0.482295
1070.81	0.912036
1072.46	0.798585
1074.1	0.512177
1075.74	0.292151
1077.38	0.789295
1079.02	0.463661
1080.66	0.117215
1082.3	0.811646
1083.94	0.767883
1085.58	0.592353
1087.22	0.566442
1088.86	0.321814
1090.5	0.356974
1092.14	0.974454
1093.78	0.791167
1095.42	0.716311
1097.05	0.319131
1098.69	0.311758
1100.33	1.03819
1101.97	1.05591
1103.6	0.903545
1105.24	0.946306
1106.87	1.22632
1108.51	0.237164
1110.15	-0.150747
1111.78	0.0188122
1113.41	0.444342
1115.05	0.202562
1116.68	0.754209
1118.31	0.361959
1119.95	0.249457
1121.58	1.01606
1123.21	0.349115
1124.85	0.860512
1126.48	0.859218
1128.11	0.644961
1129.74	0.859196
1131.37	0.881618
1133	-0.121727
1134.63	0.157516
1136.26	0.115475
1137.89	0.221959
1139.52	-0.100053
1141.15	0.388459
1142.78	0.150446
1144.41	-0.0871973
1146.04	0.464883
1147.66	0.207744
1149.29	0.313885
1150.92	1.01692
1152.55	-0.175608
1154.17	0.207549
1155.8	-0.0696898
1157.43	0.440328
1159.05	0.652643
1160.68	-0.0911312
1162.3	0.293395
1163.93	-0.00142479
1165.55	0.193336
1167.17	0.153982
1168.8	-0.354152
1170.42	-0.098609
1172.05	-0.0789022
1173.67	0.15129
1175.29	0.125278
1176.91	-0.0920267
1178.54	0.49614
1180.16	-0.503354
1181.78	-0.189078
1183.4	0.35808
1185.02	0.482097
1186.64	-0.134059
1188.26	0.641568
1189.88	0.212235
1191.5	0.476587
1193.12	-0.228482
1194.74	0.264265
1196.36	0.357306
1197.97	1.10015
1199.59	0.7556
1201.21	0.247215
1202.83	0.368859
1204.44	0.43053
1206.06	0.515328
1207.68	0.622411
1209.29	-0.0211439
1210.91	0.81548
1212.52	0.419752
1214.14	0.626334
1215.75	1.0801
1217.37	0.574166
1218.98	0.566862
1220.6	0.642464
1222.21	0.946774
1223.82	1.0447
1225.44	1.04063
1227.05	0.520949
1228.66	0.872015
1230.27	0.68661
1231.88	1.16409
1233.49	0.940024
1235.1	1.58541
1236.72	1.19876
1238.33	1.43335
1239.94	0.77966
1241.55	1.30484
1243.16	1.31271
1244.76	1.60943
1246.37	1.61537
1247.98	2.0547
1249.59	1.64477
1251.2	2.12414
1252.8	1.25912
1254.41	2.21521
1256.02	1.06277
1257.63	1.62852
1259.23	1.6992
1260.84	1.99865
1262.44	1.7812
1264.05	1.56363
1265.66	1.42837
1267.26	1.81043
1268.87	1.52816
1270.47	1.65933
1272.07	1.66494
1273.68	0.964491
1275.28	2.39817
1276.88	1.88218
1278.48	1.94559
1280.09	1.94612
1281.69	2.04978
1283.29	2.33966
1284.89	2.17499
1286.49	2.13553
1288.09	1.80795
1289.69	1.60555
1291.3	2.56094
1292.9	2.09043
1294.49	3.06526
1296.09	2.15873
1297.69	2.40701
1299.29	2.48802
1300.89	2.38157
1302.49	2.27381
1304.09	2.32976
1305.68	2.69313
1307.28	1.76128
1308.88	2.41076
1310.47	1.50136
1312.07	2.04781
1313.66	2.7781
1315.26	2.0983
1316.86	1.91077
1318.45	2.21386
1320.05	1.92517
1321.64	2.36924
1323.23	3.19735
1324.83	1.72469
1326.42	1.41112
1328.01	1.30048
1329.61	1.25144
1331.2	2.39746
1332.79	1.90708
1334.38	1.92485
1335.98	1.88393
1337.57	1.94457
1339.16	1.98427
1340.75	1.6998
1342.34	2.0775
1343.93	1.84913
1345.52	1.43937
1347.11	1.17105
1348.7	1.36582
1350.29	1.24268
1351.87	2.84259
1353.46	1.6244
1355.05	0.968199
1356.64	0.852295
1358.23	1.45517
1359.81	1.19797
1361.4	1.39889
1362.99	0.900521
1364.57	1.1001
1366.16	1.08054
1367.74	0.603816
1369.33	1.44257
1370.91	1.10817
1372.5	1.31265
1374.08	1.23975
1375.67	1.38647
1377.25	1.19505
1378.83	1.26179
1380.42	0.98919
1382	1.19273
1383.58	1.35498
1385.16	1.07873
1386.75	0.921437
1388.33	1.39989
1389.91	1.12436
1391.49	1.14765
1393.07	0.616316
1394.65	0.700485
1396.23	1.28017
1397.81	1.22445
1399.39	1.56401
1400.97	1.5259
1402.55	0.616217
1404.13	1.44844
1405.7	0.915972
1407.28	0.87903
1408.86	0.645432
1410.44	1.06435
1412.01	0.712883
1413.59	0.499228
1415.17	1.21218
1416.74	1.72634
1418.32	0.721857
1419.89	0.959833
1421.47	1.19868
1423.05	1.69493
1424.62	1.24806
1426.19	1.19625
1427.77	0.928535
1429.34	1.50691
1430.92	1.94651
1432.49	1.59758
1434.06	1.91661
1435.63	2.25462
1437.2	2.2584
1438.78	1.88954
1440.35	2.09189
1441.92	3.08139
1443.49	2.53879
1445.06	2.01625
1446.63	2.86975
1448.2	3.03555
1449.77	2.435
1451.34	2.2674
1452.91	3.28033
1454.48	2.28772
1456.05	3.20316
1457.62	2.7013
1459.18	2.6505
1460.75	2.49932
1462.32	2.24765
1463.89	2.48593
1465.45	1.97581
1467.02	1.91764
1468.59	1.66358
1470.15	1.68546
1471.72	1.66932
1473.28	1.55627
1474.85	1.18921
1476.41	0.959957
1477.98	0.985726
1479.54	0.874216
1481.11	1.21342
1482.67	1.53284
1484.23	1.02907
1485.8	0.760207
1487.36	0.94114
1488.92	0.122162
1490.48	0.965344
1492.05	1.37501
1493.61	1.01985
1495.17	1.30737
1496.73	0.618786
1498.29	1.17709
1499.85	0.840543
1501.41	0.622375
1502.97	0.619203
1504.53	0.771952
1506.09	0.402044
1507.65	0.921829
1509.2	0.744028
1510.76	0.584743
1512.32	0.444219
1513.88	0.57312
1515.44	0.432744
1516.99	-0.321025
1518.55	0.576848
1520.1	0.726291
1521.66	0.9713
1523.22	0.431789
1524.77	0.580018
1526.33	0.345534
1527.88	0.605819
1529.44	0.389462
1530.99	0.0977278
1532.55	0.660548
1534.1	1.0334
1535.65	1.23619
1537.21	0.702675
1538.76	1.32236
1540.31	0.922972
1541.86	0.656338
1543.42	1.65106
1544.97	1.47793
1546.52	0.966826
1548.07	1.03824
1549.62	1.12821
1551.17	1.79865
1552.72	1.17757
1554.27	1.66132
1555.82	1.52948
1557.37	1.45569
1558.92	1.75723
1560.47	1.46371
1562.02	1.54506
1563.57	2.09404
1565.11	1.78548
1566.66	2.11142
1568.21	1.67198
1569.75	2.14664
1571.3	1.9676
1572.85	1.99355
1574.39	1.86999
1575.94	2.21313
1577.49	2.29515
1579.03	1.55617
1580.58	1.93801
1582.12	2.4142
1583.67	1.88275
1585.21	2.11799
1586.75	1.83045
1588.3	2.3284
1589.84	1.70381
1591.38	1.90189
1592.93	2.81114
1594.47	1.885
1596.01	2.23239
1597.55	2.26181
1599.09	2.68573
1600.63	2.45425
1602.18	2.09168
1603.72	1.74749
1605.26	2.17251
1606.8	2.22052
1608.34	1.87171
1609.87	1.50162
1611.41	1.76808
1612.95	1.73177
1614.49	1.7504
1616.03	1.89981
1617.57	1.48717
1619.11	1.90051
1620.64	1.56594
1622.18	1.45769
1623.72	1.23798
1625.25	2.08535
1626.79	1.80872
1628.32	1.60571
1629.86	2.61689
1631.4	1.81297
1632.93	2.18624
1634.47	2.11136
1636	2.09339
1637.53	2.24427
1639.07	1.7805
1640.6	1.82029
1642.14	2.1761
1643.67	1.93457
1645.2	2.30609
1646.73	2.08106
1648.27	2.87796
1649.8	1.98442
1651.33	2.87453
1652.86	2.63365
1654.39	3.0617
1655.92	2.582
1657.45	2.49164
1658.98	2.08564
1660.51	2.40058
1662.04	2.30656
1663.57	2.54415
1665.1	2.37435
1666.63	1.79917
1668.16	2.70135
1669.69	2.18477
1671.21	1.6887
1672.74	3.53342
1674.27	3.20472
1675.79	3.29936
1677.32	2.10471
1678.85	2.19754
1680.37	1.64562
1681.9	1.90201
1683.42	1.40483
1684.95	1.58732
1686.47	1.43982
1688	1.64118
1689.52	1.2382
1691.05	0.726021
1692.57	1.12944
1694.1	0.489788
1695.62	0.691575
1697.14	0.198562
1698.66	0.746667
1700.19	0.636687
1701.71	0.599288
1703.23	0.616049
1704.75	1.01465
1706.27	0.102091
1707.79	0.299737
1709.32	0.315308
1710.83	0.0405493
1712.35	0.763695
1713.88	0.181314
1715.39	0.124919
1716.91	0.538832
1718.43	0.265151
1719.95	0.100193
1721.47	-0.118482
1722.99	-0.0658922
1724.5	-0.372834
1726.02	0.0960236
1727.54	0.133649
1729.06	0.154151
1730.57	0.175479
1732.09	0.35602
1733.61	0.460968
1735.12	0.0585709
1736.64	-0.144708
1738.15	0.07055
1739.67	-0.0732832
1741.18	-0.0446901
1742.7	0.299178
1744.21	0.42636
1745.72	0.533882
1747.24	0.283194
1748.75	0.14015
1750.26	0.462523
1751.78	0.112667
1753.29	0.154753
1754.8	-0.00487709
1756.31	0.213931
1757.82	-0.0267057
1759.34	0.30446
1760.85	0.0201578
1762.36	0.126034
1763.87	0.193812
1765.38	-0.262742
1766.89	-0.0136852
1768.4	0.116697
1769.91	0.0492945
1771.41	0.138017
1772.92	-0.263776
1774.43	-0.149988
1775.94	0.079812
1777.45	0.139038
1778.96	0.330628
1780.46	-0.0991459
1781.97	-0.0556421
1783.48	0.00898457
1784.98	-0.32063
1786.49	0.134202
1788	-0.00873184
1789.5	-0.00885773
1791.01	-0.0126209
1792.51	0.243113
1794.01	0.210077
1795.52	0.0551472
1797.02	0.11902
1798.53	-0.028285
1800.03	0.132103
1801.54	-0.182585
1803.04	0.206504
1804.54	0.0907879
1806.04	0.16153
1807.54	-0.0206118
1809.05	0.0575666
1810.55	-0.372375
1812.05	-0.239022
1813.55	0.0737085
1815.05	0.0392675
1816.55	0.236254
1818.05	0.00627041
1819.55	0.268954
1821.05	-0.0178337
1822.55	0.0627394
1824.05	0.218734
1825.55	0.0685253
1827.05	-0.170127
1828.55	-0.0146799
1830.04	0.0177412
1831.54	-0.2001
1833.04	0.247551
1834.54	0.086812
1836.03	-0.102845
1837.53	-0.25247
1839.03	-0.00984383
1840.52	0.15337
1842.02	0.00448036
1843.51	0.117107
1845.01	-0.349429
1846.5	0.0748806
1848	0.00218296
1849.49	-0.084837
1850.99	0.0692577
1852.48	0.0288906
1853.97	0.0797443
1855.47	0.0166216
1856.96	0.00684452
1858.45	0.255362
1859.94	0.0345631
1861.44	0.168143
1862.93	-0.33322
1864.42	-0.0172701
1865.91	-0.0302334
1867.4	0.238457
1868.89	0.150855
1870.38	0.113421
1871.87	0.34693
1873.36	0.330237
1874.85	-0.131946
1876.34	-0.0127468
1877.83	-0.0903854
1879.32	-0.0234432
1880.81	0.0454693
1882.3	0.125556
1882.56	0.142256
1884.06	0.14228
1885.55	0.176413
1887.04	-0.121223
1888.54	-0.00122547
1890.03	0.0318279
1891.52	-0.0212059
1893.02	-0.0553761
1894.51	0.0685606
1896	-0.119094
1897.49	-0.184357
1898.99	0.219896
1900.48	0.257965
1901.97	0.172729
1903.46	0.12066
1904.95	0.154214
1906.44	-0.0388546
1907.93	0.0634565
1909.42	-0.0594244
1910.91	0.217693
1912.4	0.096488
1913.89	-0.0935459
1915.38	0.0633574
1916.86	0.167866
1918.35	0.497128
1919.84	0.184683
1921.33	-0.0930071
1922.82	0.166621
1924.3	-0.196317
1925.79	0.186213
1927.28	0.31002
1928.76	0.0881357
1930.25	0.1432
1931.74	0.110922
1933.22	0.233135
1934.71	-0.182953
1936.19	0.126447
1937.67	0.123191
1939.16	0.0849581
1940.64	-0.263758
1942.13	0.130746
1943.61	-0.284934
1945.09	0.0419312
1946.58	0.0586042
1948.06	0.230129
1949.54	0.349141
1951.03	0.00222301
1952.51	-0.173072
1953.99	0.15
1955.47	0.0429707
1956.95	0.228358
1958.43	0.156709
1959.91	-0.0857449
1961.39	0.341212
1962.87	0.0309687
1964.35	-0.227809
1965.83	-0.144323
1967.31	0.178057
1968.79	0.311296
1970.27	0.443801
1971.75	0.165936
1973.22	0.144418
1974.7	-0.132822
1976.18	-0.0686531
1977.66	-0.0214596
1979.13	0.247011
1980.61	-0.199317
1982.09	0.544641
1983.56	0.200175
1985.04	-0.0592518
1986.52	-0.0810795
1987.99	-0.0690012
1989.47	0.214269
1990.94	0.108541
1992.41	0.0883541
1993.89	0.170519
1995.36	0.135058
1996.84	-0.0520401
1998.31	0.115577
1999.78	0.198253
2001.26	0.465909
2002.73	0.00758648
2004.2	0.00474834
2005.67	-0.28423
2007.15	0.202462
2008.62	-0.169074
2010.09	0.571446
2011.56	0.453726
2013.03	0.16775
2014.5	0.0160742
2015.97	0.317999
2017.44	-0.154749
2018.91	0.0781813
2020.38	0.142371
2021.85	0.542217
2023.32	0.287362
2024.79	0.721369
2026.25	0.216905
2027.72	0.300963
2029.19	0.151571
2030.66	0.00334263
2032.13	0.225078
2033.59	0.0948458
2035.06	-0.102692
2036.53	0.304048
2037.99	0.10559
2039.46	0.326847
2040.92	-0.107468
2042.39	0.248634
2043.85	0.31969
2045.32	0.273834
2046.78	0.279133
2048.25	0.655296
2049.71	0.374217
2051.18	0.260509
2052.64	0.280202
2054.1	0.247612
2055.56	0.500077
2057.03	0.700549
2058.49	0.344044
2059.95	0.425615
2061.42	0.0192232
2062.88	0.455446
2064.34	0.673625
2065.8	0.371015
2067.26	0.691868
2068.72	0.525215
2070.18	0.712307
2071.64	0.848985
2073.1	0.699306
2074.56	0.919787
2076.02	0.904202
2077.48	0.719837
2078.94	0.51824
2080.39	0.855049
2081.85	0.433602
2083.31	0.415649
2084.77	0.750381
2086.22	0.781388
2087.68	0.963083
2089.14	1.06016
2090.6	0.653015
2092.05	1.08562
2093.51	1.03106
2094.96	0.775051
2096.42	0.837275
2097.87	0.91551
2099.33	1.11016
2100.78	1.25402
2102.24	1.26422
2103.69	0.924572
2105.15	1.57127
2106.6	1.46807
2108.05	1.38269
2109.51	1.68119
2110.96	1.49551
2112.41	1.50852
2113.86	1.986
2115.32	1.74559
2116.77	1.55451
2118.22	1.44715
2119.67	1.82268
2121.12	2.00073
2122.57	2.23049
2124.02	2.01401
2125.47	1.71535
2126.92	2.06303
2128.37	2.04483
2129.82	2.5885
2131.27	2.43462
2132.72	2.54486
2134.17	2.67148
2135.62	2.43512
2137.06	2.84522
2138.51	2.84411
2139.96	2.10147
2141.41	2.60018
2142.85	2.95167
2144.3	3.0891
2145.75	3.16059
2147.19	2.95029
2148.64	3.03721
2150.09	3.18943
2151.53	3.43992
2152.97	3.20873
2154.42	3.09256
2155.86	2.97587
2157.31	3.22372
2158.75	3.4227
2160.2	2.72869
2161.64	2.93123
2163.08	3.21894
2164.53	3.0774
2165.97	2.8702
2167.41	2.96163
2168.86	3.30133
2170.3	3.78894
2171.74	3.5922
2173.18	2.86072
2174.62	3.34201
2176.06	3.34019
2177.5	3.72104
2178.94	3.53746
2180.38	3.03917
2181.82	3.33995
2183.26	3.07606
2184.7	3.39455
2186.14	3.0478
2187.58	2.9006
2189.02	3.08623
2190.46	3.03887
2191.89	2.64154
2193.33	2.97587
2194.77	2.49285
2196.21	2.49066
2197.64	2.71917
2199.08	3.0785
2200.52	2.45589
2201.95	2.69734
2203.39	2.37512
2204.83	1.93844
2206.26	2.09993
2207.7	2.60973
2209.13	2.35713
2210.57	2.30251
2212	1.96564
2213.43	2.17387
2214.87	1.98525
2216.3	1.86357
2217.73	1.66076
2219.17	2.11905
2220.6	1.73716
2222.03	1.32264
2223.47	1.87968
2224.9	1.79254
2226.33	1.34169
2227.76	1.49814
2229.19	1.78434
2230.62	1.29809
2232.05	1.30429
2233.49	1.29438
2234.91	1.30162
2236.34	1.58776
2237.77	1.51594
2239.2	1.07091
2240.63	1.54166
2242.06	1.14968
2243.49	0.987288
2244.92	0.694725
2246.35	1.16812
2247.78	1.08534
2249.2	0.609221
2250.63	0.750551
2252.06	0.922528
2253.48	1.07713
2254.91	0.711868
2256.34	0.640822
2257.76	0.474769
2259.19	0.668401
2260.61	0.556527
2262.04	0.755288
2263.46	0.93952
2264.89	0.929229
2266.31	0.723421
2267.74	0.679311
2269.16	0.504078
2270.59	0.686127
2272.01	0.39558
2273.43	0.511908
2274.85	0.758683
2276.28	0.582131
2277.7	0.894605
2279.12	0.229144
2280.54	0.867826
2281.97	-0.0917645
2283.39	0.595901
2284.81	0.353766
2286.23	0.438175
2287.65	0.131104
2289.07	0.461246
2290.49	0.105723
2291.91	0.224234
2293.33	0.261178
2294.75	0.412665
2296.17	0.187722
2297.59	0.502935
2299.01	0.736556
2300.42	0.364133
2301.84	-0.0247679
2303.26	0.242452
2304.68	0.116133
2306.1	0.252392
2307.51	0.585633
2308.93	0.409063
2310.35	0.231806
2311.76	0.383048
2313.18	0.0900974
2314.59	0.175908
2316.01	0.21306
2317.43	0.0697336
2318.84	-0.0898356
2320.26	0.343973
2321.67	0.562643
2323.08	0.400038
2324.5	0.64779
2325.91	0.480825
2327.33	1.12041
2328.74	0.52254
2330.15	0.502025
2331.56	0.301291
2332.98	0.118214
2334.39	0.0841017
2335.8	0.214722
2337.21	0.279065
2338.62	0.30957
2340.04	0.19109
2341.45	0.301766
2342.86	-0.228164
2344.27	-0.0194397
2345.68	-0.122128
2347.09	-0.126158
2348.5	0.0498953
2349.91	-0.167228
2351.31	0.0892963
2352.72	0.344499
2354.13	0.239387
2355.54	0.264241
2356.95	0.0770702
2358.36	0.313154
2359.76	-0.23101
2361.17	0.297223
2362.58	-0.245704
2363.98	0.216534
2365.39	0.305632
2366.8	-0.397149
2368.21	-0.080853
2369.61	0.00996971
2371.02	0.0212517
2372.42	-0.0951462
2373.83	-0.387656
2375.23	0.1896
2376.64	0.106353
2378.04	0.215145
2379.44	0.0331278
2380.85	0.0425243
2382.25	0.114753
2383.66	-0.0382247
2385.06	-0.223021
2386.46	-0.167355
2387.86	-0.111011
2389.26	-0.0537019
2390.67	0.0365047
2392.07	0.446055
2393.47	0.299183
2394.87	-0.0376072
2396.27	0.437321
2397.67	-0.215864
2399.07	0.228167
2400.47	-0.0423951
2401.87	-0.169628
2403.27	0.274936
2404.67	-0.0272722
2406.07	0.209567
2407.47	0.286711
2408.87	0.172737
2410.27	0.201241
2411.67	0.198249
2413.07	0.3544
2414.46	0.195024
2415.86	0.0687447
2417.26	0.16534
2418.66	-0.117221
2420.05	0.0438843
2421.45	0.0148602
2422.84	0.175618
2424.24	0.177723
2425.64	0.148206
2427.03	0.16672
2428.43	-0.0200377
2429.82	0.396625
2431.22	0.195489
2432.61	0.422916
2434.01	0.491229
2435.4	0.47907
2436.79	0.322474
2438.19	0.132649
2439.58	0.24349
2440.97	0.178749
2442.37	-0.076931
2443.76	-0.0470481
2445.15	0.0143752
2446.54	0.202444
2447.93	-0.0534925
2449.33	-0.0399284
2450.72	0.11634
2452.11	0.0988894
2453.5	0.161295
2454.89	-0.0444651
2456.28	0.193389
2457.67	0.304962
2459.06	0.0842214
2460.45	0.068584
2461.84	-0.216569
2463.23	0.2722
2464.62	-0.266861
2466	-0.0792947
2467.39	0.250096
2468.78	0.56337
2470.17	0.150713
2471.55	0.337011
2472.94	0.223143
2474.33	0.218898
2475.72	0.229786
2477.1	0.350334
2478.49	0.376424
2479.87	0.167264
2481.26	0.397623
2482.65	0.17321
2484.03	-0.25478
2485.42	0.255559
2486.8	0.12328
2488.19	-0.0409255
2489.57	-0.080719
2490.95	0.0506673
2492.34	0.0112329
2493.72	0.0815773
2495.1	0.277125
2496.49	0.396032
2497.87	0.00445986
2499.25	0.232795
2500.63	0.197555
2502.02	-0.0392804
2503.4	0.0322099
2504.78	0.118165
2506.16	0.157148
2507.54	0.0880985
2508.92	-0.180519
2510.3	0.227541
2511.68	0.343892
2513.06	0.32284
2514.44	0.0882225
2515.82	0.145575
2517.2	0.0812144
2518.58	-0.0895834
2519.96	0.0150061
2521.34	0.0276089
2522.72	0.299066
2524.1	0.233818
2525.47	0.0156026
2526.85	0.0259218
2528.23	-0.0546732
2529.6	-0.103718
2530.98	0.137509
2532.36	-0.197243
2533.74	-0.150824
2535.11	-0.01261
2536.49	-0.147905
2537.86	0.278268
2539.24	0.24778
2540.61	-0.163027
2541.99	0.245695
2543.36	0.0930529
2544.74	0.290188
2546.11	-0.0727582
2547.49	-0.11603
2548.86	0.0993752
2550.23	0.0417728
2551.61	0.347938
2552.98	-0.166248
2554.35	0.25953
2555.72	-0.301812
2557.09	0.213529
2558.47	-0.196471
2559.84	0.121646
2561.21	0.334039
2562.58	0.0620403
2563.95	0.47256
2565.32	0.398566
2566.69	0.339965
2568.06	0.296615
2569.43	0.404837
2570.8	0.0735373
2572.17	0.106034
2573.54	-0.0281239
2574.91	0.0651932
2576.28	0.0524354
2577.65	0.28221
2579.02	0.102407
2580.39	-0.0322332
2581.75	0.0298791
2583.12	0.273589
2584.49	0.244169
2585.85	-0.0429678
2587.22	0.0641475
2588.59	0.0653405
2589.95	-0.024282
2591.32	0.264833
2592.68	0.341331
2594.05	0.0231838
2595.42	-0.0534286
2596.78	0.0204544
2598.15	-0.0577278
2599.51	-0.0756688
2600.88	0.133168
2602.24	-0.095695
2603.6	0.098948
2604.97	0.21851
2606.33	0.0968218
2607.69	-0.115547
2609.06	0.319564
2610.42	0.165642
2611.78	0.146156
2613.14	-0.0547972
2614.51	0.0143156
2615.87	-0.277049
2617.23	-0.0279565
2618.59	0.0864315
2619.95	-0.0380569
2621.31	0.122422
2622.67	-0.150146
2624.03	-0.168291
2625.39	0.291049
2626.75	0.00395155
2628.11	0.119287
2629.47	0.159734
2630.83	-0.0976176
2632.19	0.121051
2633.55	0.0274057
2634.91	0.0823145
2636.26	0.033309
2637.62	0.221466
2638.98	0.00962257
2640.34	0.153336
2641.69	0.0162005
2643.05	-0.105694
2644.41	0.0532246
2645.76	0.167604
2647.12	-0.205013
2648.48	0.158791
2649.83	-0.111553
2651.19	0.147238
2652.54	0.15558
2653.9	0.149464
2655.25	0.18805
2656.6	-0.00671673
2657.96	0.107223
2659.31	0.221865
2660.67	0.249048
2662.02	-0.0746708
2663.37	-0.07725
2664.73	0.0799994
2666.08	0.163417
2667.43	0.144261
2668.78	-0.238959
2670.14	-0.0538683
2671.49	-0.246579
2672.84	0.0555573
2674.19	0.0384378
2675.54	0.225077
2676.89	-0.139218
2678.24	0.295052
2679.59	0.323882
2680.94	0.12174
2682.29	0.036725
2683.64	-0.119711
2684.99	0.0437593
2686.34	0.0626559
2687.69	-0.208896
2689.04	0.302312
2690.39	-0.407423
2691.74	0.129646
2693.08	-0.0459032
2694.43	0.372363
2695.78	0.23933
2697.13	0.193943
2698.47	-0.0239601
2699.82	0.0493522
2701.17	-0.121915
2702.51	0.345443
2703.86	0.42286
2705.21	-0.151552
2706.55	0.390395
2707.9	-0.184755
2709.24	0.0957565
2710.58	-0.0304823
2711.93	0.0608673
2713.27	0.44278
2714.62	0.156227
2715.96	0.363814
2717.3	0.222329
2718.65	0.196925
2719.99	0.171171
2721.33	-0.131518
2722.68	-0.0853939
2724.02	-0.0833454
2725.36	0.165768
2726.71	0.021544
2728.05	0.371885
2729.39	0.358138
2730.73	0.256966
2732.07	0.403123
2733.41	0.0838375
2734.75	0.433882
2736.09	0.231375
2737.43	0.479885
2738.77	0.321142
2740.11	-0.0268517
2741.45	0.264562
2742.79	0.0900984
2744.13	0.0604196
2745.47	0.277167
2746.81	-0.174624
2748.14	0.201169
2749.48	0.112406
2750.82	0.0384121
2752.16	0.066195
2753.49	-0.0652413
2754.83	0.10782
2756.17	0.222968
2757.5	-0.0816956
2758.84	0.250982
2760.18	-0.298973
2761.51	0.0488887
2762.85	0.397111
2764.18	0.340455
2765.52	0.110168
2766.85	0.1399
2768.19	0.0530615
2769.52	-0.0204372
2770.86	-0.0518203
2772.19	0.348835
2773.52	0.257342
2774.86	-0.194896
2776.19	0.0450058
2777.52	-0.161301
2778.86	-0.251735
2780.19	0.13263
2781.52	-0.158168
2782.85	0.0250773
2784.19	-0.00708818
2785.52	-0.110878
2786.85	0.372874
2788.18	-0.088223
2789.51	0.00986862
2790.84	-0.0200253
2792.17	-0.0491939
2793.5	0.0364223
2794.83	0.179201
2796.16	-0.0641756
2797.49	0.034904
2798.82	-0.223538
2800.15	0.0887322
2801.48	0.257827
2802.81	0.398065
2804.13	-0.089107
2805.46	-0.234322
2806.79	0.260587
2808.12	-0.0991197
2809.45	0.152445
2810.77	0.10545
2812.1	-0.0686255
2813.43	0.595335
2814.75	0.253488
2816.08	-0.356134
2817.41	-0.426033
2818.73	0.0148101
2820.06	-0.153812
2821.38	-0.166916
2822.71	0.4004
2824.03	0.683578
2825.36	0.201427
2826.68	0.229349
2828	0.186949
2829.33	0.399904
2830.65	0.556635
2831.98	0.274733
2833.3	0.261737
2834.62	0.630599
2835.94	0.347929
2837.27	0.786464
2838.59	0.771729
2839.91	0.855804
2841.23	1.27925
2842.55	1.95736
2843.87	2.12713
2845.2	2.17046
2846.52	2.07313
2847.84	2.89482
2849.16	2.69896
2850.48	2.46036
2851.8	2.46151
2853.12	2.91434
2854.44	2.88622
2855.76	2.98505
2857.08	2.75893
2858.39	3.05554
2859.71	2.26462
2861.03	3.13993
2862.35	2.94165
2863.67	3.29351
2864.98	2.89707
2866.3	3.17792
2867.62	3.81146
2868.94	3.82482
2870.25	4.51533
2871.57	4.51512
2872.88	5.00783
2874.2	4.75268
2875.52	5.15841
2876.83	4.92897
2878.15	4.96614
2879.46	5.36859
2880.78	5.23687
2882.09	4.58644
2883.41	5.27194
2884.72	5.21402
2886.03	4.79184
2887.35	4.87515
2888.66	5.09821
2889.97	5.33424
2891.29	4.86802
2892.6	4.87801
2893.91	5.3641
2895.22	5.55613
2896.54	4.85317
2897.85	5.10338
2899.16	5.24273
2900.47	5.36894
2901.78	5.64953
2903.09	5.51069
2904.4	5.60979
2905.71	5.75117
2907.02	6.24288
2908.33	5.96623
2909.64	6.18019
2910.95	5.91905
2912.26	7.04354
2913.57	7.41149
2914.88	6.69968
2916.19	7.55374
2917.5	7.01999
2918.81	7.54864
2920.11	7.69914
2921.42	8.03213
2922.73	7.73747
2924.04	8.5768
2925.34	8.56486
2926.65	8.44185
2927.96	8.17905
2929.26	8.85239
2930.57	8.60234
2931.87	8.78503
2933.18	8.93941
2934.49	8.78623
2935.79	8.84284
2937.1	8.41051
2938.4	8.92868
2939.7	8.18954
2941.01	7.89819
2942.31	8.1249
2943.62	7.93386
2944.92	8.1638
2946.22	7.45831
2947.53	6.89287
2948.83	6.6346
2950.13	6.75281
2951.43	6.77095
2952.74	6.38075
2954.04	6.56302
2955.34	6.29685
2956.64	6.22772
2957.94	6.06297
2959.24	5.84525
2960.54	5.49037
2961.84	5.89431
2963.15	5.64028
2964.45	5.80638
2965.75	5.63388
2967.05	5.36092
2968.34	4.9316
2969.64	4.76837
2970.94	4.70338
2972.24	4.72306
2973.54	4.50387
2974.84	4.53789
2976.14	4.26144
2977.43	4.19471
2978.73	3.81635
2980.03	3.46443
2981.33	3.33648
2982.62	3.46122
2983.92	3.10818
2985.22	3.07975
2986.51	3.37605
2987.81	3.25225
2989.11	2.8203
2990.4	3.02096
2991.7	2.26539
2992.99	2.56279
2994.29	2.21248
2995.58	2.00166
2996.88	1.88854
2998.17	1.92966
2999.46	1.66237
3000.76	1.57806
3002.05	1.66255
3003.34	1.07476
3004.64	1.10375
3005.93	1.06243
3007.22	0.880556
3008.52	1.24369
3009.81	0.752622
3011.1	0.848325
3012.39	0.440869
3013.68	0.801281
3014.97	0.478461
3016.27	0.811425
3017.56	0.740902
3018.85	0.601336
3020.14	0.503675
3021.43	0.516877
3022.72	0.473697
3024.01	0.457413
3025.3	0.634528
3026.59	0.229389
3027.88	0.254368
3029.16	0.501493
3030.45	0.238403
3031.74	0.40501
3033.03	0.379137
3034.32	0.601937
3035.6	0.603307
3036.89	0.562047
3038.18	0.408933
3039.47	0.199297
3040.75	0.401028
3042.04	0.107269
3043.33	0.60918
3044.61	0.467208
3045.9	0.682577
3047.18	0.571726
3048.47	0.88645
3049.75	0.547831
3051.04	0.920413
3052.32	0.734234
3053.61	0.725423
3054.89	0.811447
3056.18	0.650907
3057.46	0.339476
3058.74	0.899537
3060.03	0.818722
3061.31	0.629474
3062.59	0.577325
3063.88	0.75764
3065.16	0.735397
3066.44	0.551327
3067.72	0.640061
3069	0.348383
3070.29	0.26036
3071.57	0.307516
3072.85	0.353524
3074.13	0.34396
3075.41	0.455804
3076.69	0.173392
3077.97	0.380245
3079.25	-0.0226617
3080.53	-0.0442214
3081.81	0.0440784
3083.09	0.0927649
3084.37	0.237033
3085.65	-0.134336
3086.93	0.335292
3088.21	0.139197
3089.49	0.0239034
3090.76	0.0439014
3092.04	-0.0176611
3093.32	0.124367
3094.6	0.0496044
3095.87	0.137784
3097.15	-0.167147
3098.43	0.0836406
3099.7	-0.0181336
3100.98	-0.187691
3102.26	-0.181074
3103.53	0.110064
3104.81	0.306743
3106.08	-0.0508652
3107.36	0.0118947
3108.63	0.0620165
3109.91	-0.0764294
3111.18	0.0837784
3112.46	0.0822043
3113.73	0.189383
3115	-0.0423265
3116.28	0.0372601
3117.55	-0.317929
3118.83	-0.118028
3120.1	0.0537329
3121.37	0.0212078
3122.64	0.367599
3123.92	0.117471
3125.19	0.273893
3126.46	-0.124332
3127.73	0.0329022
3129	-0.269379
3130.27	0.118344
3131.55	-0.0888224
3132.82	0.0553002
3134.09	0.185442
3135.36	0.301449
3136.63	0.443753
3137.9	-0.129159
3139.17	0.052793
3140.44	0.463058
3141.71	0.119599
3142.98	0.139723
3144.24	0.281027
3145.51	-0.0468731
3146.78	0.269712
3148.05	0.452463
3149.32	0.501615
