200.43	-0.311886
202.244	-0.29368
204.059	-0.274439
205.873	0.718514
207.688	0.471084
209.501	0.70947
211.314	0.315207
213.127	0.721289
214.941	1.51397
216.753	0.559879
218.564	0.7456
220.375	0.955877
222.186	0.900734
223.999	0.21797
225.809	-0.173631
227.618	0.44979
229.428	0.372156
231.236	0.00452042
233.045	0.481318
234.855	0.162313
236.663	-0.155356
238.471	0.227859
240.278	0.275822
242.085	0.277615
243.891	0.208275
245.698	0.597433
247.503	0.333697
249.309	0.0916567
251.116	0.0642586
252.921	0.565446
254.725	0.365066
256.529	-0.221244
258.333	-0.107426
260.136	0.0799875
261.939	0.14856
263.742	0.00178051
265.544	0.289625
267.346	-0.0486937
269.148	0.35987
270.949	0.165154
272.75	-0.440471
274.55	0.0859089
276.351	-0.30522
278.15	0.386717
279.95	0.23333
281.749	-0.258614
283.548	0.475121
285.346	0.10108
287.144	0.231129
288.942	-0.550222
290.739	0.203629
292.536	0.646152
294.333	0.347946
296.129	0.888201
297.925	-0.0766516
299.721	0.201996
301.514	0.193697
303.309	-0.268928
305.104	0.938334
306.898	-0.193932
308.692	0.176633
310.486	0.213703
312.279	0.561384
314.072	-0.304068
315.862	0.475158
317.654	0.208243
319.446	-0.0336485
321.238	0.297276
323.029	0.557677
324.819	0.532438
326.608	-0.0419216
328.398	0.434059
330.188	0.0494213
331.977	0.333063
333.766	0.328341
335.553	0.154234
337.341	-0.117551
339.129	0.302754
340.917	0.793174
342.704	0.44579
344.489	-0.25978
346.275	0.13431
348.062	0.600355
349.845	0.493661
351.631	0.363192
353.416	0.256165
355.201	-0.114105
356.984	0.325476
358.768	-0.0467587
360.552	-0.157563
362.333	-0.316601
364.116	0.165977
365.899	0.0769558
367.68	0.0586157
369.462	-0.102694
371.243	-0.14597
373.023	0.401731
374.804	0.191612
376.585	0.0764275
378.363	-0.0616703
380.143	0.719991
381.923	0.0184088
383.7	0.353895
385.479	0.454994
387.256	0.110588
389.034	-0.0447016
390.812	0.411536
392.588	0.210773
394.365	0.0575237
396.14	0.16289
397.916	0.0804634
399.691	0.185751
401.467	0.0557966
403.24	0.0897017
405.015	-0.111883
406.788	0.0146847
408.563	0.0702629
410.335	0.148979
412.109	0.673572
413.88	-0.233032
415.654	-0.36461
417.424	0.0675583
419.197	-0.109828
420.967	-0.028904
422.739	0.169209
424.508	0.343285
426.279	0.493114
428.048	-0.320297
429.819	0.274374
431.587	0.516813
433.356	-0.484403
435.124	0.110578
436.891	0.353484
438.66	0.290703
440.426	-0.312993
442.194	-0.542656
443.96	0.117033
445.725	0.0480976
447.492	0.305908
449.257	0.0717669
451.021	0.0249968
452.787	0.865621
454.551	0.118954
456.314	0.095953
458.079	0.375598
459.842	-0.625041
461.604	-0.228491
463.368	-0.179867
465.13	0.544417
466.891	-0.0767055
468.654	0.303613
470.415	-0.19788
472.175	0.301144
473.935	-0.131179
475.696	-0.0296245
477.456	0.233256
479.215	0.424703
480.973	0.149392
482.733	0.433174
484.491	-0.400071
486.249	0.0492134
488.006	0.197543
489.765	0.441045
491.522	0.732477
493.278	0.1605
495.034	0.593238
496.789	0.0435424
498.544	0.148602
500.301	0.534876
502.056	0.616109
503.81	0.320873
505.564	0.353289
507.317	0.619724
509.071	0.132262
510.825	0.372601
512.578	0.0939579
514.33	0.308189
516.082	0.0271749
517.833	0.615443
519.585	1.13186
521.335	0.143357
523.086	0.141739
524.836	0.398104
526.586	0.231894
528.335	-0.0982685
530.085	-0.0532436
531.835	0.436402
533.584	-0.175346
535.332	0.896872
537.08	1.00796
538.827	0.673977
540.574	0.0831223
542.321	0.308187
544.068	0.602158
545.814	0.0588579
547.56	-0.0420547
549.305	-0.0266485
551.05	0.382536
552.795	0.443991
554.54	0.112651
556.282	0.613191
558.025	0.0983829
559.769	-0.184675
561.512	0.154716
563.255	0.49401
564.997	0.0977545
566.739	0.161951
568.481	0.272623
570.223	0.177512
571.964	0.427698
573.705	-0.215463
575.443	-0.214898
577.183	0.177053
578.923	-0.462683
580.663	0.137819
582.402	0.164527
584.141	-0.0160909
585.879	-0.19769
587.615	0.286716
589.353	0.126084
591.09	0.539834
592.828	-0.289294
594.564	0.261882
596.299	0.145855
598.035	-0.0392318
599.771	-0.270617
601.506	0.0264544
603.242	0.207406
604.974	0.226117
606.709	0.128815
608.443	-0.336498
610.177	-0.135839
611.908	0.363134
613.642	0.426622
615.374	0.28435
617.105	0.00486422
618.837	0.183209
620.569	-0.0515199
622.3	0.51367
624.03	0.0715289
625.761	0.269582
627.491	-0.05688
629.219	-0.564061
630.949	0.0260029
632.677	0.0243521
634.406	0.320266
636.135	0.182315
637.861	0.54516
639.59	0.79151
641.318	0.145534
643.043	0.318868
644.77	0.399732
646.495	0.480665
648.222	0.199289
649.948	0.170684
651.672	0.258795
653.398	0.122807
655.121	0.512547
656.846	0.199036
658.569	0.751845
660.293	0.141787
662.015	0.579827
663.738	0.628099
665.46	0.491446
667.183	0.810419
668.903	0.374069
670.626	0.487096
672.346	0.647565
674.067	0.169049
675.787	0.195773
677.508	0.108855
679.226	0.940582
680.947	0.623651
682.665	0.626755
684.385	0.674088
686.102	0.719738
687.821	0.902229
689.538	0.369741
691.254	0.573689
692.972	0.408542
694.688	1.21014
696.406	0.582894
698.121	0.668593
699.835	0.56907
701.552	1.0206
703.266	0.436498
704.98	0.0363159
706.695	1.03622
708.409	0.910557
710.121	1.08261
711.836	1.13957
713.548	0.715811
715.26	1.66377
716.973	1.30853
718.685	1.04526
720.396	0.144424
722.108	1.11255
723.818	1.25999
725.528	1.38433
727.238	1.53089
728.949	1.20024
730.658	1.39125
732.367	0.970026
734.075	1.27346
735.785	1.77973
737.493	1.49501
739.2	0.647417
740.907	1.17711
742.614	1.27905
744.322	1.20193
746.028	0.788561
747.734	0.804093
749.439	1.5405
751.144	1.1758
752.849	1.62197
754.555	1.34957
756.26	1.23586
757.963	1.01081
759.667	1.2148
761.37	1.26223
763.073	1.2425
764.775	0.793507
766.477	1.17898
768.179	1.40509
769.883	1.71992
771.584	1.58075
773.285	1.80209
774.986	1.66118
776.686	1.88249
778.386	1.74318
780.085	1.44687
781.785	1.85271
783.484	1.6253
785.182	2.25699
786.881	1.55109
788.579	1.92892
790.276	1.73799
791.974	1.81608
793.671	1.77966
795.367	1.90093
797.064	1.50438
798.76	1.71796
800.456	1.57272
802.151	2.01383
803.846	1.96044
805.541	1.92945
807.234	1.89777
808.928	1.75277
810.622	1.0683
812.315	1.50525
814.008	1.9858
815.701	1.61461
817.394	1.55715
819.086	2.05857
820.778	1.71073
822.468	2.34555
824.159	1.48625
825.85	1.98857
827.541	1.64587
829.231	2.59741
830.921	2.17091
832.609	2.21472
834.298	1.56951
835.987	2.21815
837.676	1.70689
839.364	1.8416
841.051	2.01969
842.738	2.01791
844.426	2.14974
846.113	1.65637
847.798	1.11948
849.484	1.38954
851.171	1.59495
852.857	1.53346
854.54	1.65219
856.226	1.2095
857.911	1.68682
859.593	1.33094
861.278	1.62597
862.961	1.33417
864.645	1.4241
866.327	1.22022
868.01	1.5343
869.692	1.32938
871.373	1.05643
873.055	1.03138
874.735	1.25446
876.416	1.61301
878.097	0.865737
879.776	1.06625
881.457	1.96631
883.135	1.03722
884.815	1.55197
886.495	1.56882
888.172	1.29096
889.851	1.59827
891.528	1.13766
893.206	1.5548
894.882	0.89018
896.56	1.79942
898.237	1.06661
899.912	1.52345
901.589	1.1047
903.263	1.20117
904.94	1.40895
906.614	1.66105
908.289	0.95443
909.962	1.02962
911.635	1.4391
913.31	0.959371
914.982	1.32463
916.656	0.868464
918.328	1.54339
920.001	0.556509
921.672	0.877073
923.345	0.800146
925.015	1.29903
926.685	0.827461
928.357	0.931563
930.026	1.05874
931.698	1.45122
933.366	0.895253
935.035	0.648391
936.705	0.909193
938.373	0.817818
940.041	0.352491
941.71	0.770428
943.377	0.858185
945.044	0.636888
946.712	1.0989
948.378	0.720598
950.044	0.539425
951.709	0.644138
953.376	1.05757
955.041	0.634175
956.706	1.24953
958.372	1.07383
960.036	0.723826
961.699	0.794365
963.362	0.179708
965.027	0.867876
966.69	0.713689
968.352	0.933241
970.014	1.01823
971.676	0.792741
973.339	1.07633
975	1.02941
976.661	1.18309
978.322	0.67452
979.982	0.730523
981.642	0.786255
983.303	0.696999
984.962	1.04886
986.621	0.911912
988.28	1.19385
989.938	1.29752
991.596	0.64907
993.254	0.752184
994.911	0.457914
996.57	0.87005
998.227	1.30376
999.884	1.36214
1001.54	1.02371
1003.2	1.19151
1004.85	1.20485
1006.51	0.6467
1008.16	0.836075
1009.82	0.630466
1011.47	0.51322
1013.12	1.054
1014.78	0.718338
1016.43	1.25906
1018.08	1.14327
1019.74	0.70023
1021.39	0.783144
1023.04	0.670244
1024.69	0.864179
1026.34	0.665246
1028	0.684887
1029.65	0.485549
1031.3	0.874976
1032.95	0.913469
1034.6	2.10682
1036.25	1.46589
1037.9	1.84904
1039.54	1.55669
1041.19	1.98318
1042.84	1.1713
1044.49	0.535707
1046.14	1.05341
1047.78	0.7256
1049.43	0.572987
1051.08	1.24681
1052.72	0.922255
1054.37	0.98904
1056.02	0.96893
1057.66	0.622483
1059.31	0.536422
1060.95	0.841205
1062.6	1.03663
1064.24	0.296281
1065.88	0.359621
1067.53	0.161238
1069.17	0.613961
1070.81	-0.0851927
1072.45	0.540263
1074.1	0.883513
1075.74	0.858665
1077.38	0.097641
1079.02	0.357034
1080.66	0.573682
1082.3	0.0313931
1083.94	0.290729
1085.58	0.52699
1087.22	0.436381
1088.86	0.712255
1090.5	0.358769
1092.14	0.458838
1093.78	0.450316
1095.42	0.139889
1097.05	0.477391
1098.69	0.406216
1100.33	0.702562
1101.96	0.634457
1103.6	0.137672
1105.24	0.201426
1106.87	0.158118
1108.51	0.265137
1110.14	0.45725
1111.78	0.325555
1113.41	0.385974
1115.05	0.810218
1116.68	-0.0537863
1118.31	-0.144755
1119.95	0.214841
1121.58	-0.0461302
1123.21	0.400312
1124.85	0.633278
1126.48	0.866852
1128.11	-0.0323715
1129.74	0.459091
1131.37	0.202659
1133	0.267192
1134.63	0.117867
1136.26	0.16043
1137.89	0.287607
1139.52	-0.120264
1141.15	0.00514126
1142.78	0.599462
1144.41	0.276184
1146.04	-0.0462208
1147.66	-0.0479288
1149.29	-0.240673
1150.92	0.65338
1152.55	0.0350904
1154.17	-0.178658
1155.8	-0.0307846
1157.43	0.436028
1159.05	-0.0330009
1160.68	-0.0120163
1162.3	0.0736504
1163.93	0.0750856
1165.55	0.183269
1167.17	0.652711
1168.8	0.525936
1170.42	-0.133562
1172.05	0.4593
1173.67	0.0946188
1175.29	0.174941
1176.91	-0.466055
1178.54	0.419226
1180.16	-0.368432
1181.78	-0.0754862
1183.4	-0.268601
1185.02	0.0667906
1186.64	0.675545
1188.26	0.248178
1189.88	-0.0114174
1191.5	0.23328
1193.12	0.328938
1194.74	-0.290214
1196.36	-0.530218
1197.97	0.0895891
1199.59	-0.0436239
1201.21	0.431254
1202.83	-0.157245
1204.44	0.61355
1206.06	0.446746
1207.68	0.489771
1209.29	0.658206
1210.91	0.76336
1212.52	0.116444
1214.14	0.551864
1215.75	0.547559
1217.37	0.72894
1218.98	0.451891
1220.59	0.403655
1222.21	1.35153
1223.82	0.413234
1225.43	0.285214
1227.05	0.42763
1228.66	0.322875
1230.27	0.612097
1231.88	0.695467
1233.49	1.0692
1235.1	1.2373
1236.72	0.662409
1238.33	0.791129
1239.94	1.31339
1241.55	1.02943
1243.16	1.80017
1244.76	1.88766
1246.37	1.16719
1247.98	1.29418
1249.59	0.634255
1251.2	1.11202
1252.8	1.46575
1254.41	1.28229
1256.02	0.748164
1257.62	1.31142
1259.23	1.06894
1260.84	1.2204
1262.44	1.51737
1264.05	1.421
1265.66	1.09626
1267.26	0.770684
1268.86	0.755163
1270.47	0.966847
1272.07	1.15691
1273.67	0.371657
1275.28	0.891696
1276.88	1.59719
1278.48	1.57648
1280.09	1.5138
1281.69	1.36811
1283.29	1.18127
1284.89	1.45
1286.49	1.61599
1288.09	1.01811
1289.69	1.95049
1291.29	1.35405
1292.89	1.04693
1294.49	1.37967
1296.09	1.07092
1297.69	1.64867
1299.29	1.4816
1300.89	1.21031
1302.49	1.63871
1304.08	1.73621
1305.68	0.928253
1307.28	1.35376
1308.88	1.77811
1310.47	1.44329
1312.07	1.96935
1313.66	2.0042
1315.26	1.44733
1316.85	1.70897
1318.45	1.92993
1320.04	1.66119
1321.64	1.39207
1323.23	1.5291
1324.83	1.80655
1326.42	2.06174
1328.01	1.93052
1329.61	1.47619
1331.2	1.50973
1332.79	1.62602
1334.38	1.94607
1335.97	1.92421
1337.56	1.76174
1339.16	2.58655
1340.75	1.41461
1342.34	1.93307
1343.93	1.122
1345.52	0.95427
1347.11	1.00759
1348.7	1.40274
1350.29	1.09884
1351.87	1.33763
1353.46	0.998221
1355.05	1.03995
1356.64	1.5216
1358.22	1.30345
1359.81	0.944846
1361.4	0.885026
1362.98	1.08388
1364.57	0.843596
1366.16	1.77933
1367.74	0.842854
1369.33	1.10262
1370.91	1.10473
1372.5	0.789669
1374.08	1.09244
1375.67	0.719271
1377.25	0.624755
1378.83	1.00741
1380.41	0.5535
1382	0.854596
1383.58	0.498196
1385.16	0.916458
1386.74	0.380313
1388.33	1.11569
1389.91	0.501223
1391.49	0.820566
1393.07	0.961853
1394.65	0.409245
1396.23	0.986998
1397.81	0.671818
1399.39	1.12882
1400.97	0.990426
1402.55	0.772486
1404.13	0.713019
1405.7	0.752911
1407.28	0.674891
1408.86	0.241996
1410.44	0.698651
1412.01	0.799579
1413.59	0.524906
1415.17	0.387838
1416.74	0.743237
1418.32	1.01908
1419.89	0.428132
1421.47	0.842813
1423.04	0.451431
1424.62	0.612639
1426.19	0.952003
1427.77	0.701371
1429.34	1.08037
1430.91	0.946874
1432.49	1.40279
1434.06	0.224788
1435.63	1.70213
1437.2	1.09469
1438.78	1.05822
1440.35	1.33707
1441.92	1.02712
1443.49	1.46459
1445.06	1.78452
1446.63	1.77051
1448.2	1.4028
1449.77	1.66437
1451.34	2.10338
1452.91	2.42506
1454.48	1.37024
1456.05	1.84963
1457.62	1.50212
1459.18	1.54704
1460.75	1.19689
1462.32	1.73057
1463.89	1.57413
1465.45	1.35789
1467.02	0.768339
1468.59	1.25953
1470.15	1.04453
1471.72	0.73255
1473.28	0.794273
1474.85	0.307555
1476.41	0.44873
1477.98	0.90364
1479.54	0.711517
1481.1	0.695753
1482.67	0.405572
1484.23	0.820749
1485.79	0.667379
1487.36	0.513463
1488.92	0.710992
1490.48	0.769856
1492.04	0.631321
1493.61	0.295922
1495.17	0.330501
1496.73	0.344632
1498.29	0.14448
1499.85	0.5283
1501.41	0.38792
1502.97	0.403946
1504.53	-0.10247
1506.09	0.166564
1507.65	0.357267
1509.2	0.121767
1510.76	0.175332
1512.32	0.112455
1513.88	0.646069
1515.43	0.524908
1516.99	0.11656
1518.55	0.189183
1520.1	0.626078
1521.66	0.411632
1523.22	0.178279
1524.77	0.765789
1526.33	0.340455
1527.88	0.56291
1529.44	1.14555
1530.99	1.08094
1532.54	0.637729
1534.1	0.404715
1535.65	0.267684
1537.21	1.03863
1538.76	0.411815
1540.31	0.880243
1541.86	0.971079
1543.42	0.647621
1544.97	0.907474
1546.52	0.903676
1548.07	1.36882
1549.62	0.952017
1551.17	1.11668
1552.72	1.15051
1554.27	1.22246
1555.82	1.05269
1557.37	0.903296
1558.92	1.05421
1560.47	0.982797
1562.02	1.21122
1563.56	0.675712
1565.11	1.31607
1566.66	1.26622
1568.21	1.30948
1569.75	1.35241
1571.3	1.91768
1572.85	1.56804
1574.39	1.66626
1575.94	1.6525
1577.49	0.910852
1579.03	1.60702
1580.57	2.11715
1582.12	1.19011
1583.66	1.30948
1585.21	1.2053
1586.75	1.53147
1588.3	1.7458
1589.84	1.39878
1591.38	1.31317
1592.92	1.30199
1594.47	1.27181
1596.01	1.39153
1597.55	1.90526
1599.09	1.59496
1600.63	1.32251
1602.17	2.10122
1603.71	1.28457
1605.25	1.89436
1606.79	1.60136
1608.33	1.4381
1609.87	1.44202
1611.41	1.48153
1612.95	1.35028
1614.49	1.42452
1616.03	1.46075
1617.57	1.32862
1619.1	1.55356
1620.64	1.74215
1622.18	1.68842
1623.72	1.11125
1625.25	1.751
1626.79	1.62256
1628.32	1.39952
1629.86	1.56817
1631.39	1.58621
1632.93	1.77197
1634.46	1.58441
1636	1.71491
1637.53	1.52906
1639.07	1.71675
1640.6	1.64344
1642.13	1.96087
1643.67	1.99774
1645.2	1.71714
1646.73	1.82659
1648.26	2.10283
1649.8	2.00763
1651.33	1.85775
1652.86	2.06153
1654.39	2.22906
1655.92	2.30439
1657.45	2.1017
1658.98	2.00959
1660.51	1.71278
1662.04	1.98854
1663.57	1.78226
1665.1	1.79743
1666.63	1.81286
1668.16	1.58944
1669.68	1.92055
1671.21	1.88415
1672.74	2.21716
1674.27	1.66648
1675.79	1.39206
1677.32	1.8717
1678.85	2.01888
1680.37	1.09857
1681.9	1.53841
1683.42	1.46324
1684.95	1.03955
1686.47	1.20353
1688	1.07442
1689.52	1.20224
1691.05	1.03717
1692.57	1.09194
1694.09	0.616147
1695.62	0.634309
1697.14	0.926325
1698.66	0.469012
1700.18	0.541157
1701.71	0.685745
1703.23	0.46518
1704.75	0.426606
1706.27	0.751631
1707.79	0.0760012
1709.31	0.400462
1710.83	0.597377
1712.35	0.377043
1713.87	0.537665
1715.39	0.498937
1716.91	0.460219
1718.43	0.475671
1719.95	0.310454
1721.47	-0.269348
1722.99	0.287975
1724.5	0.575006
1726.02	0.142427
1727.54	0.143249
1729.06	0.360749
1730.57	0.00441885
1732.09	0.06247
1733.61	-0.0575271
1735.12	0.0472026
1736.64	0.237411
1738.15	0.375822
1739.67	0.419152
1741.18	0.115133
1742.7	0.0805225
1744.21	-0.125342
1745.72	0.215181
1747.24	0.387204
1748.75	0.235882
1750.26	0.462463
1751.77	-0.0521574
1753.29	-0.175496
1754.8	0.03368
1756.31	0.352249
1757.82	0.26676
1759.33	0.0149465
1760.84	-0.168669
1762.36	-0.161154
1763.87	-0.0414209
1765.38	0.498816
1766.89	0.475046
1768.4	0.181957
1769.91	-0.12289
1771.41	0.206888
1772.92	0.0214696
1774.43	0.16009
1775.94	0.27263
1777.45	0.0599856
1778.95	-0.124351
1780.46	0.0760088
1781.97	-0.15062
1783.48	-0.00735331
1784.98	-0.0475454
1786.49	0.049087
1787.99	-0.107736
1789.5	-0.0863667
1791.01	0.0727739
1792.51	-0.122082
1794.01	0.103339
1795.52	-0.338664
1797.02	-0.044004
1798.53	0.0913334
1800.03	0.307308
1801.53	0.0302906
1803.04	-0.063334
1804.54	-0.134452
1806.04	0.0276976
1807.54	0.0972242
1809.05	0.117576
1810.55	0.117136
1812.05	0.437394
1813.55	0.147219
1815.05	0.0620093
1816.55	-0.0317035
1818.05	0.230793
1819.55	0.149242
1821.05	-0.108088
1822.55	-0.309429
1824.05	0.239913
1825.55	-0.00300789
1827.05	-0.0689321
1828.55	-0.166567
1830.04	0.187155
1831.54	-0.161684
1833.04	0.128899
1834.54	0.22411
1836.03	0.164146
1837.53	0.351298
1839.03	-0.205187
1840.52	0.0643106
1842.02	0.115197
1843.51	-0.0919456
1845.01	0.165352
1846.5	-0.347244
1848	0.0769901
1849.49	0.117834
1850.99	-0.0674038
1852.48	0.300514
1853.97	0.122496
1855.47	-0.00475121
1856.96	-0.180919
1858.45	-0.0555358
1859.94	0.0857153
1861.44	0.124656
1862.93	-0.0298615
1864.42	0.00150347
1865.91	-0.180628
1867.4	-0.182932
1868.89	-0.0309639
1870.38	-0.0686822
1871.87	0.0374632
1873.36	-0.000744343
1874.85	-0.111807
1876.34	0.129344
1877.83	0.132972
1879.32	0.16886
1880.81	-0.0674348
1882.3	0.0575008
1882.57	0.09973
1884.07	0.134676
1885.56	0.0295825
1887.06	0.237434
1888.55	0.0617313
1890.04	-0.131025
1891.54	0.251025
1893.03	0.182012
1894.52	0.201329
1896.02	0.169646
1897.51	-0.0527506
1899	0.298695
1900.49	0.0405407
1901.98	0.146465
1903.47	-0.0620251
1904.96	-0.0106792
1906.45	-0.0815744
1907.94	0.629012
1909.43	-0.309515
1910.92	0.332311
1912.41	-0.257176
1913.9	-0.100249
1915.39	0.403476
1916.88	0.230599
1918.37	-0.098598
1919.85	0.00522947
1921.34	0.126247
1922.83	-0.0295463
1924.32	0.109694
1925.8	0.145883
1927.29	0.113615
1928.78	0.0818057
1930.26	0.205787
1931.75	0.398418
1933.23	-0.0161424
1934.72	0.156689
1936.2	-0.190908
1937.69	0.152628
1939.17	0.270765
1940.66	0.0263791
1942.14	0.128063
1943.63	0.230434
1945.11	0.143688
1946.59	0.108977
1948.07	0.573855
1949.56	-0.288631
1951.04	0.0886083
1952.52	0.0861807
1954	-0.105814
1955.48	0.0976119
1956.96	0.472783
1958.45	0.281682
1959.93	0.297189
1961.41	0.124475
1962.89	0.0720167
1964.37	0.310702
1965.85	-0.187575
1967.32	0.358163
1968.8	0.115958
1970.28	0.352209
1971.76	-0.12944
1973.24	-0.149615
1974.72	0.307856
1976.19	0.014904
1977.67	0.574073
1979.15	0.196423
1980.63	-0.0106611
1982.1	-0.200603
1983.58	0.0511236
1985.05	-0.342746
1986.53	0.0439501
1988	0.20973
1989.48	0.12149
1990.95	-0.118418
1992.43	0.133121
1993.9	0.165383
1995.38	-0.190448
1996.85	-0.00514412
1998.32	0.298213
1999.8	0.314021
2001.27	0.228094
2002.74	-0.111126
2004.22	0.544493
2005.69	0.306714
2007.16	0.440261
2008.63	0.33872
2010.1	0.1032
2011.57	0.137466
2013.04	-0.434177
2014.51	0.0710506
2015.98	-0.0806575
2017.45	0.288416
2018.92	-0.133529
2020.39	0.217416
2021.86	0.349586
2023.33	0.280466
2024.8	0.430129
2026.27	0.329013
2027.74	-0.00576782
2029.2	0.314699
2030.67	0.351064
2032.14	0.270706
2033.61	0.224222
2035.07	-0.208585
2036.54	0.214785
2038.01	0.0330658
2039.47	0.170298
2040.94	0.425221
2042.4	0.445155
2043.87	0.364769
2045.33	0.234528
2046.8	0.626651
2048.26	0.311907
2049.72	0.401049
2051.19	0.135396
2052.65	0.155105
2054.12	0.122862
2055.58	0.426577
2057.04	0.307662
2058.5	0.00288057
2059.97	0.270917
2061.43	0.454875
2062.89	0.336361
2064.35	0.471111
2065.81	0.000761986
2067.27	0.372499
2068.73	0.323948
2070.19	-0.178885
2071.65	0.193631
2073.11	0.12835
2074.57	0.534348
2076.03	0.468616
2077.49	0.335231
2078.95	0.504653
2080.41	0.387438
2081.87	0.623374
2083.32	0.37055
2084.78	0.319213
2086.24	0.351459
2087.7	0.248696
2089.15	0.56585
2090.61	0.4794
2092.07	0.544068
2093.52	0.826719
2094.98	0.572208
2096.43	0.334358
2097.89	0.799719
2099.34	0.527559
2100.8	0.305743
2102.25	0.351796
2103.71	0.231434
2105.16	0.629538
2106.61	0.477817
2108.07	0.326982
2109.52	0.660015
2110.97	0.959083
2112.43	0.423724
2113.88	0.68693
2115.33	0.865319
2116.78	0.311255
2118.23	0.289919
2119.68	0.999921
2121.13	1.09683
2122.59	0.631371
2124.04	0.797354
2125.49	0.880883
2126.94	0.682312
2128.39	1.29523
2129.83	1.02841
2131.28	0.942953
2132.73	1.15489
2134.18	1.20115
2135.63	1.26456
2137.08	0.866352
2138.53	1.23
2139.97	1.21505
2141.42	1.2345
2142.87	1.68487
2144.31	1.29241
2145.76	1.31349
2147.21	1.45022
2148.65	1.78526
2150.1	1.30795
2151.54	1.69121
2152.99	1.69258
2154.43	1.70981
2155.88	1.69351
2157.32	1.56134
2158.77	1.62857
2160.21	1.53129
2161.65	1.56801
2163.1	1.52341
2164.54	2.09388
2165.98	2.01837
2167.43	1.80971
2168.87	2.53083
2170.31	2.0535
2171.75	2.10632
2173.19	2.22394
2174.64	2.10745
2176.07	1.52485
2177.52	1.79062
2178.96	1.82424
2180.4	1.89194
2181.84	1.79414
2183.28	1.66356
2184.72	1.68285
2186.15	2.36765
2187.59	1.87134
2189.03	1.95736
2190.47	1.94351
2191.91	1.79622
2193.35	1.89798
2194.78	1.59898
2196.22	1.68135
2197.66	1.89504
2199.09	1.89085
2200.53	1.23779
2201.97	1.81413
2203.4	1.6105
2204.84	1.55728
2206.27	1.22325
2207.71	1.37034
2209.14	1.58338
2210.58	0.918343
2212.01	1.54341
2213.45	1.04306
2214.88	1.13793
2216.31	1.36524
2217.75	0.916833
2219.18	1.12945
2220.61	1.27667
2222.05	1.09427
2223.48	0.81254
2224.91	1.1392
2226.34	1.13496
2227.78	0.61973
2229.21	0.761412
2230.64	0.229609
2232.07	0.813084
2233.5	0.708043
2234.93	0.718261
2236.36	0.941767
2237.79	0.904994
2239.22	0.461885
2240.65	0.705723
2242.08	0.608361
2243.5	0.887079
2244.93	0.529947
2246.36	0.580047
2247.79	0.319048
2249.22	0.692348
2250.64	0.705116
2252.07	0.830426
2253.5	0.759729
2254.92	0.689425
2256.35	0.604148
2257.78	0.699311
2259.2	0.666866
2260.63	0.441995
2262.05	0.494778
2263.48	0.646254
2264.9	0.635597
2266.33	0.510811
2267.75	0.271393
2269.18	0.779711
2270.6	0.831924
2272.02	0.297574
2273.45	0.805192
2274.87	0.38457
2276.29	0.420141
2277.71	0.618842
2279.14	0.60576
2280.56	0.348017
2281.98	0.66093
2283.4	0.043983
2284.82	0.601723
2286.24	0.343762
2287.66	0.314523
2289.08	-0.00841618
2290.5	0.56741
2291.92	0.310206
2293.34	0.461736
2294.76	0.0897975
2296.18	0.143064
2297.6	0.196333
2299.02	0.167775
2300.44	0.336011
2301.86	0.0782704
2303.27	0.411108
2304.69	0.727993
2306.11	0.453895
2307.53	0.376429
2308.94	0.446425
2310.36	0.351581
2311.78	0.0425372
2313.19	0.49018
2314.61	0.131898
2316.02	0.25142
2317.44	0.157452
2318.85	0.113153
2320.27	0.20057
2321.68	0.452243
2323.1	0.15798
2324.51	-0.0555196
2325.92	0.438875
2327.34	0.189567
2328.75	0.17071
2330.16	0.432036
2331.58	0.249279
2332.99	-0.0147924
2334.4	0.380049
2335.81	0.100417
2337.23	0.363294
2338.64	0.164937
2340.05	0.376694
2341.46	-0.233568
2342.87	-0.137746
2344.28	-0.00926924
2345.69	-0.0938125
2347.1	0.395207
2348.51	0.343478
2349.92	-0.101076
2351.33	-0.169615
2352.74	0.512523
2354.15	0.115826
2355.55	0.0943007
2356.96	0.00746155
2358.37	0.132217
2359.78	0.0455918
2361.19	0.137745
2362.59	0.326968
2364	-0.0187383
2365.41	-0.0887218
2366.81	-0.126094
2368.22	0.176085
2369.62	0.236513
2371.03	-0.185731
2372.44	0.327879
2373.84	-0.0278225
2375.24	0.180407
2376.65	-0.0301461
2378.05	0.0642433
2379.46	-0.0997066
2380.86	-0.120093
2382.26	0.0830436
2383.67	-0.147337
2385.07	-0.249343
2386.47	-0.127156
2387.88	-0.00459719
2389.28	-0.630764
2390.68	0.146885
2392.08	0.0645776
2393.48	0.205855
2394.89	0.188569
2396.29	-0.177927
2397.69	0.250915
2399.09	0.060286
2400.49	-0.0504718
2401.89	0.0772839
2403.29	0.570293
2404.69	0.237177
2406.09	0.284525
2407.48	0.362875
2408.88	0.155096
2410.28	0.311864
2411.68	-0.0224762
2413.08	0.230031
2414.48	0.0241966
2415.87	0.104459
2417.27	0.438997
2418.67	0.0934291
2420.06	-0.0144472
2421.46	-0.0590916
2422.86	-0.104008
2424.25	0.167765
2425.65	-0.035737
2427.04	0.20486
2428.44	-0.203781
2429.83	0.117524
2431.23	0.217465
2432.62	0.206483
2434.02	0.131556
2435.41	0.0716267
2436.81	0.248923
2438.2	-0.226309
2439.59	-0.162236
2440.99	0.187008
2442.38	0.23402
2443.77	0.185583
2445.16	0.105333
2446.56	0.151873
2447.95	0.166581
2449.34	-0.183046
2450.73	0.275282
2452.12	0.33798
2453.51	-0.152571
2454.9	0.148716
2456.29	0.102422
2457.68	0.167086
2459.07	0.0101848
2460.46	0.169183
2461.85	-0.051929
2463.24	-0.194453
2464.63	0.263083
2466.02	0.198882
2467.4	0.0715327
2468.79	0.338709
2470.18	0.242762
2471.57	0.193852
2472.95	0.443787
2474.34	0.204809
2475.73	0.138731
2477.12	-0.320429
2478.5	-0.0564866
2479.89	0.364068
2481.27	0.141243
2482.66	0.153717
2484.04	-0.225529
2485.43	-0.0417099
2486.81	-0.249634
2488.2	0.244314
2489.58	0.01965
2490.97	0.137864
2492.35	-0.0391569
2493.73	-0.0131364
2495.12	-0.09478
2496.5	0.0416064
2497.88	0.317796
2499.27	-0.0407996
2500.65	-0.0743413
2502.03	0.0306931
2503.41	-0.173963
2504.79	-0.00866604
2506.17	0.248285
2507.56	-0.249616
2508.94	0.206811
2510.32	0.0329537
2511.7	-0.0173392
2513.08	0.00966311
2514.46	0.0985126
2515.84	0.157263
2517.22	-0.318865
2518.59	0.321965
2519.97	0.0454192
2521.35	-0.0630379
2522.73	0.102889
2524.11	0.389994
2525.49	0.203688
2526.86	0.124091
2528.24	0.181878
2529.62	0.240409
2530.99	0.208881
2532.37	-0.277196
2533.75	0.28615
2535.12	0.257442
2536.5	-0.0599594
2537.88	0.275393
2539.25	0.215045
2540.63	-0.27099
2542	0.153689
2543.38	0.0321064
2544.75	0.0932431
2546.12	0.0035944
2547.5	0.218205
2548.87	0.00868845
2550.24	0.132967
2551.62	0.135514
2552.99	-0.0447283
2554.36	0.0322866
2555.74	0.275523
2557.11	0.336229
2558.48	0.0935559
2559.85	0.0937638
2561.22	0.154994
2562.59	0.398533
2563.96	0.278788
2565.34	0.00783157
2566.71	-0.202342
2568.08	0.102813
2569.45	0.0291047
2570.82	0.152434
2572.18	0.0939159
2573.55	0.217362
2574.92	0.128657
2576.29	-0.111643
2577.66	0.315101
2579.03	0.0139065
2580.4	0.0611949
2581.77	0.0323787
2583.13	0.306527
2584.5	0.307579
2585.87	0.29344
2587.23	0.294558
2588.6	-0.0376024
2589.97	0.100154
2591.33	0.0104952
2592.7	0.162939
2594.06	0.314734
2595.43	0.571676
2596.79	0.479481
2598.16	0.190118
2599.52	0.127603
2600.89	-0.221835
2602.25	0.0637455
2603.62	-0.103315
2604.98	-0.300026
2606.34	-0.240037
2607.71	-0.0295391
2609.07	-0.136326
2610.43	0.17788
2611.79	0.0241313
2613.16	0.185569
2614.52	-0.0444012
2615.88	0.236097
2617.24	0.246394
2618.6	0.0774217
2619.96	-0.165504
2621.32	0.235411
2622.68	0.277536
2624.04	0.125661
2625.4	0.182853
2626.76	-0.0584531
2628.12	-0.031435
2629.48	-0.36201
2630.84	0.0962992
2632.2	0.152434
2633.56	0.371834
2634.92	-0.0770082
2636.28	0.112529
2637.63	0.0943074
2638.99	0.327855
2640.35	0.294863
2641.71	0.0255895
2643.06	0.170545
2644.42	0.0496984
2645.77	0.00271893
2647.13	-0.0592284
2648.49	0.217196
2649.84	-0.0666447
2651.2	0.0758967
2652.55	0.071084
2653.91	0.183821
2655.26	0.355534
2656.62	0.161654
2657.97	-0.309189
2659.33	-0.0474572
2660.68	-0.297457
2662.03	0.0810828
2663.39	0.312725
2664.74	0.0764046
2666.09	0.0440664
2667.44	0.0405908
2668.8	-0.108541
2670.15	0.150152
2671.5	0.0744476
2672.85	0.217257
2674.2	0.11349
2675.55	0.140883
2676.91	0.342772
2678.26	0.269445
2679.61	0.254792
2680.96	0.327915
2682.31	0.0539713
2683.66	-0.103166
2685	-0.0131202
2686.35	0.338483
2687.7	0.312783
2689.05	0.18456
2690.4	0.0841184
2691.75	-0.00309134
2693.1	0.0682697
2694.44	0.269385
2695.79	0.0498991
2697.14	-0.0240569
2698.49	0.149146
2699.83	0.10631
2701.18	0.0357666
2702.52	-0.106166
2703.87	0.245219
2705.22	-0.127607
2706.56	-0.0946183
2707.91	0.155882
2709.25	0.101441
2710.6	0.279047
2711.94	-0.00828266
2713.29	0.401609
2714.63	0.43378
2715.97	0.0297132
2717.32	-0.127441
2718.66	0.166133
2720.01	-0.0642638
2721.35	0.257965
2722.69	0.201495
2724.03	0.0864472
2725.38	0.393197
2726.72	0.292109
2728.06	0.365447
2729.4	0.0602374
2730.74	0.598917
2732.08	0.293627
2733.42	0.221227
2734.76	0.0326066
2736.1	0.324129
2737.44	0.1794
2738.78	0.10738
2740.12	0.166065
2741.46	0.122609
2742.8	0.442124
2744.14	0.0779176
2745.48	0.41082
2746.82	-0.142655
2748.16	-0.0571265
2749.49	0.478132
2750.83	0.0994182
2752.17	0.431557
2753.51	0.28538
2754.84	0.240843
2756.18	0.0950475
2757.52	-0.224298
2758.85	0.180499
2760.19	0.324883
2761.53	0.0933356
2762.86	-0.268048
2764.2	0.094275
2765.53	0.181645
2766.87	0.008255
2768.2	-0.107888
2769.54	-0.00798368
2770.87	-0.169308
2772.2	0.246257
2773.54	0.140996
2774.87	0.222939
2776.2	-0.0409598
2777.54	0.0556307
2778.87	-0.163906
2780.2	-0.210323
2781.53	0.0307436
2782.87	0.156741
2784.2	0.153459
2785.53	0.0498409
2786.86	0.147018
2788.19	0.0297308
2789.52	0.184968
2790.85	-0.0025239
2792.18	0.0823159
2793.51	0.0530729
2794.84	0.0524459
2796.17	-0.234189
2797.5	-0.121095
2798.83	-0.236917
2800.16	0.0894866
2801.49	0.0587759
2802.82	-0.100368
2804.15	0.139471
2805.47	-0.148237
2806.8	-0.0801959
2808.13	0.0584216
2809.46	0.139689
2810.78	-0.0915494
2812.11	0.174654
2813.44	-0.0550404
2814.76	-0.170086
2816.09	0.367951
2817.42	0.297203
2818.74	0.15601
2820.07	0.199068
2821.39	0.199271
2822.72	0.0856166
2824.04	0.226578
2825.37	0.622184
2826.69	0.422876
2828.02	0.0683012
2829.34	0.0681458
2830.66	0.0258474
2831.99	0.380045
2833.31	0.465223
2834.63	0.323681
2835.96	0.252566
2837.28	0.435769
2838.6	0.321512
2839.92	0.391009
2841.24	0.17779
2842.57	0.827195
2843.89	0.628882
2845.21	0.869235
2846.53	0.940444
2847.85	1.28045
2849.17	0.885527
2850.49	1.01332
2851.81	1.19727
2853.13	1.11229
2854.45	1.35204
2855.77	0.91341
2857.09	1.28011
2858.41	1.68911
2859.72	1.46246
2861.04	1.27811
2862.36	1.79943
2863.68	1.3605
2865	1.38722
2866.31	1.47033
2867.63	2.1036
2868.95	2.39853
2870.26	2.18618
2871.58	2.73516
2872.9	2.57907
2874.21	2.46469
2875.53	2.49036
2876.84	2.06463
2878.16	2.76437
2879.47	2.09902
2880.79	2.33418
2882.1	2.48546
2883.42	2.58127
2884.73	2.69182
2886.05	2.5501
2887.36	2.40848
2888.67	2.85588
2889.99	2.83949
2891.3	2.52797
2892.61	2.56661
2893.92	2.88526
2895.24	2.78386
2896.55	2.79516
2897.86	2.75132
2899.17	2.66632
2900.48	3.26743
2901.79	3.32326
2903.11	3.32329
2904.42	3.32343
2905.73	3.05803
2907.04	2.94694
2908.35	3.34005
2909.66	3.83189
2910.97	4.0445
2912.27	3.87921
2913.58	3.79721
2914.89	4.05003
2916.2	4.39938
2917.51	4.81722
2918.82	4.56239
2920.13	4.76914
2921.43	4.69672
2922.74	4.65337
2924.05	5.15635
2925.35	5.18503
2926.66	5.38199
2927.97	5.31336
2929.27	5.84552
2930.58	5.5104
2931.89	5.56627
2933.19	5.6918
2934.5	5.37002
2935.8	5.69125
2937.11	5.88682
2938.41	5.62138
2939.72	5.27236
2941.02	4.88187
2942.32	5.17684
2943.63	4.55047
2944.93	4.8337
2946.24	4.76846
2947.54	4.3259
2948.84	4.35865
2950.14	4.43242
2951.45	3.93057
2952.75	4.32326
2954.05	4.12667
2955.35	4.22379
2956.65	4.08371
2957.95	4.16932
2959.26	4.06126
2960.56	3.91343
2961.86	3.69701
2963.16	3.18624
2964.46	3.60085
2965.76	3.34049
2967.06	3.6126
2968.36	3.39173
2969.66	2.93106
2970.96	3.07488
2972.25	3.2612
2973.55	2.95534
2974.85	2.8745
2976.15	2.44108
2977.45	2.66834
2978.74	2.4859
2980.04	2.14731
2981.34	2.45517
2982.64	2.31227
2983.93	2.47905
2985.23	2.12657
2986.52	2.16889
2987.82	1.84699
2989.12	1.7085
2990.41	1.66854
2991.71	1.57196
2993	1.39025
2994.3	1.54484
2995.59	1.61417
2996.89	1.50036
2998.18	1.41454
2999.48	1.27286
3000.77	1.35603
3002.06	1.0331
3003.36	1.08899
3004.65	1.13089
3005.94	0.892468
3007.23	0.681732
3008.53	0.750368
3009.82	0.720375
3011.11	0.536157
3012.4	0.351892
3013.69	0.725905
3014.99	0.737213
3016.28	0.595788
3017.57	0.288013
3018.86	0.356623
3020.15	0.828481
3021.44	0.354332
3022.73	0.213495
3024.02	0.488453
3025.31	0.360307
3026.6	0.287633
3027.89	0.409153
3029.18	0.157993
3030.46	0.0740485
3031.75	0.419327
3033.04	0.295703
3034.33	0.255169
3035.62	-0.00647306
3036.9	0.517047
3038.19	0.28081
3039.48	0.167459
3040.76	0.2319
3042.05	0.391562
3043.34	0.221814
3044.62	0.217393
3045.91	0.473944
3047.19	0.390127
3048.48	0.58122
3049.77	0.473504
3051.05	0.339717
3052.34	0.765995
3053.62	0.291674
3054.9	0.321716
3056.19	0.350959
3057.47	0.365725
3058.76	0.447991
3060.04	0.366566
3061.32	0.598481
3062.61	0.599668
3063.89	0.411557
3065.17	0.0615368
3066.45	0.514645
3067.74	0.737406
3069.02	0.511743
3070.3	0.476199
3071.58	0.249559
3072.86	0.171632
3074.14	0.255949
3075.42	0.380264
3076.7	0.232606
3077.99	-0.0231848
3079.26	0.251148
3080.54	0.241554
3081.82	0.287358
3083.1	0.0898795
3084.38	-0.0393391
3085.66	0.360713
3086.94	0.122588
3088.22	0.0196314
3089.5	0.187617
3090.78	-0.296121
3092.05	0.0070858
3093.33	-0.137333
3094.61	0.111771
3095.89	-0.00511074
3097.16	0.0272136
3098.44	-0.0354056
3099.72	-0.152303
3100.99	0.191355
3102.27	0.087965
3103.54	-0.164096
3104.82	0.112197
3106.1	-0.0576801
3107.37	0.111434
3108.65	-0.219442
3109.92	0.276031
3111.2	-0.107647
3112.47	0.28102
3113.74	0.114707
3115.02	0.083796
3116.29	0.0253816
3117.56	0.0341215
3118.84	0.164143
3120.11	0.211952
3121.38	-0.066329
3122.66	0.427601
3123.93	-0.1085
3125.2	0.14129
3126.47	0.215244
3127.74	0.194842
3129.01	0.120715
3130.29	-0.0748
3131.56	0.0677829
3132.83	0.0750346
3134.1	0.163029
3135.37	0.075067
3136.64	0.229618
3137.91	0.42401
3139.18	-0.00183487
3140.45	0.151634
3141.72	0.0762739
3142.99	0.605847
3144.26	0.128042
3145.52	0.295323
3146.79	0.449432
3148.06	0.0411768
3149.33	0.423763
