200.43	0.259418
202.244	0.267082
204.059	0.275743
205.873	0.528449
207.688	0.562484
209.501	0.353191
211.314	0.38625
213.127	0.394095
214.941	0.0858631
216.753	0.7472
218.564	0.777985
220.375	0.228436
222.186	0.430223
223.999	0.439178
225.809	0.593663
227.618	0.36167
229.428	0.443581
231.236	0.500942
233.045	0.413345
234.855	0.229736
236.663	0.312441
238.471	0.10756
240.278	-0.119461
242.085	0.16153
243.891	-0.279841
245.698	0.123155
247.503	-0.198874
249.309	0.00831223
251.116	0.35813
252.921	0.367801
254.725	0.472649
256.529	0.577105
258.333	0.826762
260.136	0.0417004
261.939	0.920646
263.742	0.283289
265.544	0.152699
267.346	0.14291
269.148	0.157066
270.949	0.508218
272.75	0.521055
274.55	0.339972
276.351	0.68805
278.15	0.528484
279.95	0.295265
281.749	0.518102
283.548	-0.0544376
285.346	0.526255
287.144	-0.0708323
288.942	0.316381
290.739	0.655562
292.536	0.301139
294.333	-0.0754194
296.129	0.362503
297.925	-0.155016
299.721	0.905142
301.514	0.555363
303.309	-0.0574007
305.104	0.23634
306.898	0.863013
308.692	0.34463
310.486	0.518221
312.279	-0.307649
314.072	0.654098
315.862	0.212302
317.654	0.033875
319.446	0.2854
321.238	0.347427
323.029	0.696364
324.819	0.234834
326.608	0.39366
328.398	0.265877
330.188	0.328729
331.977	0.342949
333.766	0.236269
335.553	-0.0874419
337.341	0.711815
339.129	0.384784
340.917	0.367634
342.704	0.517211
344.489	1.07283
346.275	-0.0912242
348.062	-0.0600595
349.845	0.28185
351.631	0.194079
353.416	0.463901
355.201	0.613508
356.984	0.54738
358.768	0.480291
360.552	0.483837
362.333	0.558053
364.116	0.417583
365.899	0.276811
367.68	-0.0304379
369.462	0.207649
371.243	0.184057
373.023	0.562212
374.804	0.655646
376.585	0.111597
378.363	0.583125
380.143	0.394854
381.923	0.184347
383.7	0.233926
385.479	0.590094
387.256	0.171508
389.034	-0.0814295
390.812	0.136259
392.588	-0.0446911
394.365	0.244565
396.14	0.181874
397.916	-0.186018
399.691	-0.342672
401.467	0.0641031
403.24	0.212061
405.015	0.476897
406.788	-0.198195
408.563	0.206506
410.335	0.423023
412.109	0.334421
413.88	0.0115471
415.654	0.0177913
417.424	0.400092
419.197	0.102456
420.967	0.321317
422.739	0.399252
424.508	-0.086741
426.279	0.318674
428.048	0.160032
429.819	0.141906
431.587	-0.0639911
433.356	-0.0114398
435.124	0.393425
436.891	0.188097
438.66	0.0996313
440.426	0.174369
442.194	-0.315385
443.96	0.15493
445.725	0.0610108
447.492	-0.384744
449.257	0.0117764
451.021	0.0104966
452.787	-0.0138607
454.551	0.218596
456.314	0.240935
458.079	0.076839
459.842	0.192307
461.604	-0.110445
463.368	-0.0398083
465.13	0.566979
466.891	0.0141377
468.654	-0.257901
470.415	0.33168
472.175	0.24763
473.935	0.349209
475.696	0.0302992
477.456	0.198788
479.215	0.295999
480.973	0.299255
482.733	0.605394
484.491	0.726137
486.249	0.499056
488.006	0.576541
489.765	0.235967
491.522	0.152472
493.278	0.209548
495.034	0.360453
496.789	0.207284
498.544	0.381641
500.301	0.298028
502.056	0.54236
503.81	0.598486
505.564	0.183725
507.317	0.214247
509.071	0.361259
510.825	0.483605
512.578	0.416493
514.33	-0.00472021
516.082	0.0671983
517.833	0.514461
519.585	-0.21476
521.335	0.136955
523.086	0.440991
524.836	0.486362
526.586	0.179798
528.335	0.108052
530.085	0.458135
531.835	0.667015
533.584	0.196224
535.332	0.263169
537.08	0.352323
538.827	0.113391
540.574	-0.00931549
542.321	-0.132329
544.068	0.326285
545.814	0.179627
547.56	0.311969
549.305	0.0501099
551.05	0.483705
552.795	0.130051
554.54	0.193229
556.282	0.0487518
558.025	-0.16433
559.769	0.19934
561.512	0.608844
563.255	0.374112
564.997	-0.0666695
566.739	-0.115876
568.481	-0.233311
570.223	-0.326924
571.964	0.199921
573.705	0.223152
575.443	0.0412664
577.183	0.135933
578.923	-0.0897145
580.663	-0.0164123
582.402	0.263871
584.141	-0.444525
585.879	0.248688
587.615	-0.277831
589.353	0.02285
591.09	0.368906
592.828	0.0473418
594.564	0.231824
596.299	0.140253
598.035	0.508802
599.771	-0.0201612
601.506	0.163464
603.242	-0.343847
604.974	-0.0702233
606.709	0.317093
608.443	0.381863
610.177	0.216937
611.908	0.258995
613.642	0.0952621
615.374	-0.526201
617.105	0.227571
618.837	0.362065
620.569	0.0378227
622.3	-0.447092
624.03	0.0281553
625.761	0.000146389
627.491	0.0870805
629.219	0.175368
630.949	0.333812
632.677	0.470997
634.406	0.312362
636.135	0.678487
637.861	0.267219
639.59	0.242014
641.318	0.60235
643.043	0.527268
644.77	0.337471
646.495	0.375712
648.222	0.142507
649.948	0.298132
651.672	0.433852
653.398	0.345292
655.121	0.0771809
656.846	0.265698
658.569	0.341358
660.293	0.325624
662.015	0.468554
663.738	0.0614972
665.46	0.475286
667.183	0.476252
668.903	0.179288
670.626	0.157194
672.346	0.182258
674.067	0.369436
675.787	0.673111
677.508	0.703037
679.226	0.73315
680.947	0.624646
682.665	0.514577
684.385	0.448783
686.102	0.795899
687.821	0.842536
689.538	0.519767
691.254	1.14083
692.972	0.747863
694.688	0.745911
696.406	0.950437
698.121	0.969751
699.835	0.366765
701.552	1.18937
703.266	0.585258
704.98	0.55559
706.695	1.03045
708.409	1.68771
710.121	0.831324
711.836	0.914706
713.548	0.654605
715.26	1.10324
716.973	1.00304
718.685	0.674993
720.396	0.940231
722.108	1.02295
723.818	0.58227
725.528	1.05158
727.238	0.770315
728.949	1.16999
730.658	0.843112
732.367	0.901589
734.075	1.07291
735.785	0.543244
737.493	0.850366
739.2	0.976945
740.907	1.14914
742.614	0.848965
744.322	1.24811
746.028	1.44545
747.734	1.01387
749.439	1.01089
751.144	0.873951
752.849	0.535553
754.555	1.27795
756.26	0.829123
757.963	0.898954
759.667	1.21778
761.37	1.53791
763.073	1.02412
764.775	0.983541
766.477	1.61989
768.179	1.08001
769.883	1.05813
771.584	1.35128
773.285	1.14582
774.986	1.43745
776.686	1.52595
778.386	1.50241
780.085	1.77407
781.785	1.75268
783.484	1.45985
785.182	1.89036
786.881	2.27381
788.579	1.93029
790.276	1.44863
791.974	1.32709
793.671	1.6335
795.367	1.7135
797.064	1.83912
798.76	1.74065
800.456	1.41869
802.151	1.90809
803.846	1.2282
805.541	1.83012
807.234	1.80172
808.928	1.45801
810.622	1.89924
812.315	2.1821
814.008	1.47817
815.701	1.87215
817.394	1.57202
819.086	1.56298
820.778	2.02302
822.468	1.88018
824.159	1.62669
825.85	1.6866
827.541	2.03768
829.231	1.78949
830.921	1.14285
832.609	1.79024
834.298	1.7043
835.987	1.55216
837.676	2.06923
839.364	0.911259
841.051	2.00717
842.738	1.4493
844.426	1.67291
846.113	1.69594
847.798	1.60856
849.484	1.81384
851.171	1.88707
852.857	1.42405
854.54	1.29738
856.226	1.64203
857.911	1.4469
859.593	1.76766
861.278	1.34439
862.961	1.34739
864.645	1.30431
866.327	0.989956
868.01	1.73474
869.692	0.787964
871.373	1.57751
873.055	0.968374
874.735	1.39693
876.416	1.32912
878.097	0.877619
879.776	1.37397
881.457	1.2832
883.135	0.875803
884.815	1.28028
886.495	1.02907
888.172	0.776812
889.851	1.06482
891.528	0.923191
893.206	1.14107
894.882	1.0652
896.56	1.30336
898.237	0.866561
899.912	1.32727
901.589	0.710846
903.263	0.587808
904.94	1.04598
906.614	1.36925
908.289	0.978783
909.962	1.32477
911.635	1.13679
913.31	1.06082
914.982	0.918668
916.656	1.50885
918.328	0.878961
920.001	1.11383
921.672	0.906255
923.345	0.788256
925.015	0.914598
926.685	1.08631
928.357	1.01636
930.026	0.881192
931.698	1.01134
933.366	1.07548
935.035	0.985319
936.705	1.07193
938.373	0.74013
940.041	1.24732
941.71	0.476077
943.377	0.830376
945.044	0.964039
946.712	0.876174
948.378	0.919391
950.044	0.939101
951.709	0.472501
953.376	0.491414
955.041	0.334981
956.706	0.753801
958.372	0.910425
960.036	0.782335
961.699	0.96447
963.362	1.21312
965.027	0.598238
966.69	0.910114
968.352	0.799623
970.014	0.422088
971.676	0.663352
973.339	0.418296
975	0.771366
976.661	0.373827
978.322	0.95056
979.982	0.83107
981.642	0.6891
983.303	0.734272
984.962	0.445967
986.621	1.17434
988.28	0.706191
989.938	1.18836
991.596	0.409787
993.254	0.250414
994.911	0.753513
996.57	0.638378
998.227	0.611557
999.884	0.893099
1001.54	0.645473
1003.2	1.2121
1004.85	0.370252
1006.51	0.188769
1008.16	0.0515413
1009.82	-0.107224
1011.47	0.962578
1013.12	0.584887
1014.78	0.14222
1016.43	0.400852
1018.08	0.703331
1019.74	0.481206
1021.39	0.325583
1023.04	0.542412
1024.69	0.62872
1026.34	0.234694
1028	0.387012
1029.65	0.407773
1031.3	0.667902
1032.95	0.773861
1034.6	0.660304
1036.25	0.851094
1037.9	0.605267
1039.54	0.316215
1041.19	0.963353
1042.84	1.02367
1044.49	0.802794
1046.14	0.909342
1047.78	0.691512
1049.43	0.626944
1051.08	0.671894
1052.72	0.869532
1054.37	0.806781
1056.02	0.635326
1057.66	0.333152
1059.31	0.530601
1060.95	0.444955
1062.6	0.445719
1064.24	0.0979295
1065.88	0.814735
1067.53	0.530663
1069.17	0.332957
1070.81	0.417247
1072.45	0.219172
1074.1	0.216864
1075.74	0.41048
1077.38	0.366385
1079.02	0.583405
1080.66	0.58412
1082.3	0.129472
1083.94	0.238017
1085.58	0.23702
1087.22	0.104603
1088.86	0.33901
1090.5	0.355465
1092.14	0.587197
1093.78	0.213434
1095.42	1.02713
1097.05	0.611248
1098.69	0.175488
1100.33	0.23665
1101.96	-0.281906
1103.6	0.0615597
1105.24	0.104659
1106.87	0.728858
1108.51	0.277461
1110.14	0.298468
1111.78	0.0174603
1113.41	0.186704
1115.05	0.0543199
1116.68	0.393646
1118.31	0.196617
1119.95	0.407373
1121.58	0.575762
1123.21	-0.00433493
1124.85	-0.0698094
1126.48	0.207568
1128.11	0.292891
1129.74	-0.262753
1131.37	0.464866
1133	0.444363
1134.63	0.402396
1136.26	0.55234
1137.89	0.466422
1139.52	0.272888
1141.15	0.505781
1142.78	0.289948
1144.41	0.245038
1146.04	-0.183093
1147.66	0.370058
1149.29	0.135194
1150.92	-0.099206
1152.55	0.411839
1154.17	0.368855
1155.8	0.389452
1157.43	-0.0368567
1159.05	-0.143624
1160.68	0.324373
1162.3	0.601637
1163.93	0.199233
1165.55	0.264962
1167.17	-0.201029
1168.8	0.714211
1170.42	0.161331
1172.05	-0.0101123
1173.67	-0.0764341
1175.29	0.195931
1176.91	0.319105
1178.54	0.145657
1180.16	-0.154058
1181.78	-0.622005
1183.4	0.581227
1185.02	0.0927505
1186.64	0.279942
1188.26	-0.146148
1189.88	0.628634
1191.5	0.0529337
1193.12	0.00324297
1194.74	0.247033
1196.36	-0.34848
1197.97	0.0841832
1199.59	0.0777736
1201.21	-0.261316
1202.83	0.153561
1204.44	0.214977
1206.06	0.131804
1207.68	0.696314
1209.29	0.4891
1210.91	0.323089
1212.52	0.489554
1214.14	0.154172
1215.75	0.504785
1217.37	0.0630016
1218.98	0.681188
1220.59	0.384587
1222.21	0.441615
1223.82	0.375098
1225.43	0.84809
1227.05	0.473187
1228.66	0.141053
1230.27	0.802497
1231.88	0.678948
1233.49	0.887016
1235.1	0.806633
1236.72	0.727136
1238.33	0.772407
1239.94	1.02498
1241.55	1.13304
1243.16	0.785763
1244.76	0.892999
1246.37	1.06159
1247.98	0.877638
1249.59	0.734522
1251.2	1.27388
1252.8	0.820393
1254.41	0.698437
1256.02	0.763417
1257.62	1.05686
1259.23	0.544287
1260.84	0.818631
1262.44	0.658667
1264.05	1.14078
1265.66	0.275972
1267.26	0.861109
1268.86	0.906792
1270.47	0.661444
1272.07	1.05807
1273.67	1.05997
1275.28	0.750196
1276.88	0.667837
1278.48	1.1028
1280.09	0.6466
1281.69	0.728683
1283.29	1.39001
1284.89	1.53421
1286.49	1.16219
1288.09	0.708473
1289.69	1.14419
1291.29	0.918969
1292.89	0.982994
1294.49	0.98449
1296.09	0.923086
1297.69	0.77798
1299.29	0.322354
1300.89	0.711557
1302.49	1.47003
1304.08	1.15627
1305.68	0.678087
1307.28	0.672871
1308.88	1.20086
1310.47	1.07191
1312.07	0.759266
1313.66	0.754559
1315.26	0.607527
1316.85	1.13519
1318.45	0.846377
1320.04	1.39378
1321.64	1.57295
1323.23	0.997686
1324.83	0.828873
1326.42	1.18726
1328.01	0.956344
1329.61	1.29334
1331.2	0.841958
1332.79	1.76708
1334.38	0.73397
1335.97	1.53968
1337.56	0.892819
1339.16	1.11296
1340.75	0.989169
1342.34	0.964636
1343.93	1.17991
1345.52	1.21313
1347.11	0.765097
1348.7	0.980271
1350.29	0.996699
1351.87	0.554966
1353.46	0.994823
1355.05	1.1955
1356.64	0.756942
1358.22	0.777776
1359.81	0.857824
1361.4	0.817263
1362.98	1.05539
1364.57	0.714836
1366.16	0.773326
1367.74	0.573434
1369.33	1.01157
1370.91	0.873336
1372.5	0.895355
1374.08	0.699323
1375.67	0.463987
1377.25	0.308302
1378.83	0.808939
1380.41	0.691993
1382	0.415012
1383.58	0.73385
1385.16	-0.240281
1386.74	0.852374
1388.33	0.0178809
1389.91	0.335824
1391.49	0.753357
1393.07	0.516571
1394.65	0.478508
1396.23	0.777431
1397.81	0.619759
1399.39	0.818157
1400.97	0.282884
1402.55	0.123846
1404.13	0.69694
1405.7	0.775455
1407.28	0.696393
1408.86	0.538973
1410.44	0.342513
1412.01	1.015
1413.59	0.62067
1415.17	0.798207
1416.74	0.501659
1418.32	0.77672
1419.89	0.598627
1421.47	0.815252
1423.04	0.284831
1424.62	0.720169
1426.19	0.506851
1427.77	0.608836
1429.34	0.690963
1430.91	0.575634
1432.49	0.89245
1434.06	0.913321
1435.63	0.481508
1437.2	0.777537
1438.78	1.19186
1440.35	1.27267
1441.92	1.05939
1443.49	1.16108
1445.06	1.10585
1446.63	0.991764
1448.2	1.54612
1449.77	1.01953
1451.34	1.20098
1452.91	1.28456
1454.48	1.23076
1456.05	1.57043
1457.62	1.57521
1459.18	1.10668
1460.75	1.14855
1462.32	1.11033
1463.89	1.20857
1465.45	1.03073
1467.02	0.558147
1468.59	0.734209
1470.15	0.930341
1471.72	0.499367
1473.28	0.657763
1474.85	0.855864
1476.41	0.740498
1477.98	0.74287
1479.54	0.372754
1481.1	0.512247
1482.67	0.436078
1484.23	0.261871
1485.79	0.420515
1487.36	0.696076
1488.92	0.148276
1490.48	0.89115
1492.04	0.771174
1493.61	0.317775
1495.17	0.507919
1496.73	0.560425
1498.29	0.670997
1499.85	0.626183
1501.41	0.388101
1502.97	0.791338
1504.53	0.264431
1506.09	0.377485
1507.65	-0.206305
1509.2	0.292277
1510.76	0.75035
1512.32	0.108192
1513.88	0.583696
1515.43	0.250781
1516.99	0.360653
1518.55	0.72009
1520.1	0.274651
1521.66	0.232151
1523.22	0.724706
1524.77	0.681024
1526.33	0.3507
1527.88	0.439514
1529.44	0.0523162
1530.99	0.520623
1532.54	0.191602
1534.1	0.470022
1535.65	0.824148
1537.21	0.460192
1538.76	0.323993
1540.31	0.395753
1541.86	0.523954
1543.42	0.670662
1544.97	0.760526
1546.52	0.624667
1548.07	0.714119
1549.62	1.14074
1551.17	0.911259
1552.72	0.869671
1554.27	0.884909
1555.82	1.25598
1557.37	0.806617
1558.92	0.1725
1560.47	0.472768
1562.02	0.568874
1563.56	0.703082
1565.11	1.00566
1566.66	0.897854
1568.21	0.920501
1569.75	0.0842452
1571.3	0.330285
1572.85	1.08016
1574.39	0.72858
1575.94	1.08637
1577.49	1.29499
1579.03	1.16787
1580.57	0.779769
1582.12	0.728255
1583.66	0.845436
1585.21	0.907164
1586.75	1.10016
1588.3	0.788412
1589.84	0.906629
1591.38	0.78128
1592.92	1.31088
1594.47	1.39104
1596.01	0.534483
1597.55	0.83967
1599.09	1.61429
1600.63	1.20834
1602.17	1.06509
1603.71	1.16579
1605.25	1.26611
1606.79	1.51584
1608.33	1.50106
1609.87	1.35296
1611.41	1.22196
1612.95	1.20227
1614.49	1.29422
1616.03	1.02936
1617.57	1.12129
1619.1	0.558244
1620.64	0.895638
1622.18	0.878056
1623.72	0.917236
1625.25	0.750533
1626.79	1.3881
1628.32	0.845713
1629.86	0.86377
1631.39	1.06795
1632.93	0.841986
1634.46	0.747161
1636	0.970166
1637.53	0.895225
1639.07	0.708928
1640.6	1.28691
1642.13	1.82675
1643.67	1.06183
1645.2	1.11567
1646.73	1.11299
1648.26	0.794181
1649.8	0.940294
1651.33	1.19823
1652.86	1.49389
1654.39	1.40078
1655.92	1.3453
1657.45	1.32687
1658.98	0.881898
1660.51	0.584527
1662.04	1.10051
1663.57	1.39309
1665.1	1.44466
1666.63	1.5333
1668.16	1.30909
1669.68	1.32589
1671.21	0.772591
1672.74	0.975657
1674.27	1.06846
1675.79	0.443055
1677.32	0.940156
1678.85	0.755447
1680.37	1.08498
1681.9	1.30333
1683.42	0.896815
1684.95	0.41747
1686.47	0.635839
1688	0.964227
1689.52	0.724653
1691.05	0.558739
1692.57	0.539448
1694.09	-0.0468993
1695.62	0.354458
1697.14	0.535953
1698.66	0.552651
1700.18	0.423029
1701.71	0.603254
1703.23	0.746374
1704.75	0.342565
1706.27	0.175629
1707.79	0.390541
1709.31	-0.2305
1710.83	0.202148
1712.35	0.253393
1713.87	0.322776
1715.39	0.283465
1716.91	0.153738
1718.43	0.620535
1719.95	0.49059
1721.47	0.324889
1722.99	-0.218783
1724.5	0.175825
1726.02	0.390754
1727.54	0.192394
1729.06	0.354733
1730.57	-0.094583
1732.09	0.561161
1733.61	0.523048
1735.12	0.552543
1736.64	0.162779
1738.15	0.245778
1739.67	0.379969
1741.18	-0.085916
1742.7	0.333469
1744.21	0.0525746
1745.72	0.502585
1747.24	0.0701447
1748.75	0.189956
1750.26	-0.104146
1751.77	0.211224
1753.29	-0.00355101
1754.8	0.0598402
1756.31	0.0828094
1757.82	0.18331
1759.33	0.160457
1760.84	0.303071
1762.36	-0.048254
1763.87	0.328203
1765.38	-0.0419335
1766.89	-0.00367308
1768.4	0.143111
1769.91	-0.0461693
1771.41	0.235036
1772.92	0.236365
1774.43	0.334116
1775.94	-0.157601
1777.45	-0.0447903
1778.95	0.156647
1780.46	-0.0705285
1781.97	-0.107527
1783.48	0.0141296
1784.98	-0.226157
1786.49	0.0149732
1787.99	0.036798
1789.5	0.271802
1791.01	-0.00939703
1792.51	0.234559
1794.01	0.108911
1795.52	0.156606
1797.02	0.272892
1798.53	0.0772099
1800.03	0.108401
1801.53	0.134859
1803.04	-0.178514
1804.54	0.260349
1806.04	0.0517955
1807.54	0.0461907
1809.05	0.123924
1810.55	0.0704288
1812.05	-0.00888968
1813.55	0.0433216
1815.05	0.12066
1816.55	0.220861
1818.05	-0.0841894
1819.55	0.143865
1821.05	0.0800867
1822.55	0.222047
1824.05	-0.214954
1825.55	-0.0328937
1827.05	0.0874543
1828.55	0.0140686
1830.04	0.193427
1831.54	0.204339
1833.04	0.337532
1834.54	0.246252
1836.03	0.0279908
1837.53	0.132954
1839.03	0.346085
1840.52	0.217833
1842.02	-0.0849576
1843.51	0.0935388
1845.01	-0.126321
1846.5	-0.042522
1848	-0.170796
1849.49	0.0553641
1850.99	0.135656
1852.48	0.231389
1853.97	0.147902
1855.47	0.127079
1856.96	-0.0201788
1858.45	0.137297
1859.94	-0.0660834
1861.44	0.0973268
1862.93	0.280613
1864.42	0.317889
1865.91	0.164947
1867.4	0.0601754
1868.89	0.127597
1870.38	0.111662
1871.87	0.125121
1873.36	-0.118729
1874.85	0.26517
1876.34	-0.22035
1877.83	0.0192599
1879.32	0.0633359
1880.81	-0.096983
1882.3	0.0961413
1882.57	0.149139
1884.07	0.0615425
1885.56	-0.00910044
1887.06	0.163582
1888.55	0.266123
1890.04	-0.135839
1891.54	0.0197363
1893.03	0.332768
1894.52	-0.187539
1896.02	0.145112
1897.51	-0.0433321
1899	0.220331
1900.49	0.0484347
1901.98	-0.00278473
1903.47	0.0144033
1904.96	0.187076
1906.45	0.01158
1907.94	-0.129009
1909.43	-0.0781312
1910.92	-0.0266805
1912.41	0.181451
1913.9	0.0603428
1915.39	-0.286097
1916.88	-0.285882
1918.37	0.00863314
1919.85	0.0601125
1921.34	0.19811
1922.83	-0.37363
1924.32	-0.148176
1925.8	0.0433373
1927.29	-0.0241323
1928.78	0.13389
1930.26	0.257277
1931.75	0.224257
1933.23	0.20755
1934.72	0.39735
1936.2	0.0668015
1937.69	0.219954
1939.17	0.268938
1940.66	-0.0963297
1942.14	0.0571203
1943.63	0.0386243
1945.11	0.262125
1946.59	0.072
1948.07	-0.238807
1949.56	0.22531
1951.04	-0.0175924
1952.52	0.117718
1954	-0.00544786
1955.48	-0.0597582
1956.96	0.0923324
1958.45	0.0215917
1959.93	0.0714903
1961.41	0.516078
1962.89	0.309119
1964.37	-0.137661
1965.85	0.28897
1967.32	0.218353
1968.8	0.386827
1970.28	-0.334124
1971.76	0.0388904
1973.24	0.223587
1974.72	-0.0182967
1976.19	-0.00406551
1977.67	-0.143031
1979.15	0.16079
1980.63	0.209045
1982.1	-0.184828
1983.58	0.287923
1985.05	0.182665
1986.53	-0.00739527
1988	-0.0107532
1989.48	-0.0985632
1990.95	0.237255
1992.43	0.302705
1993.9	0.351878
1995.38	-0.257479
1996.85	-0.122834
1998.32	-0.140303
1999.8	0.162709
2001.27	0.076951
2002.74	0.0246749
2004.22	0.140944
2005.69	0.206789
2007.16	0.188874
2008.63	0.15478
2010.1	-0.0639081
2011.57	-0.046524
2013.04	-0.096446
2014.51	0.223584
2015.98	0.105522
2017.45	0.0710125
2018.92	-0.11531
2020.39	0.051034
2021.86	-0.0347743
2023.33	0.23221
2024.8	0.365282
2026.27	0.264266
2027.74	-0.0705299
2029.2	0.182713
2030.67	-0.133477
2032.14	0.15492
2033.61	-0.328406
2035.07	-0.190737
2036.54	0.551541
2038.01	0.252055
2039.47	0.237876
2040.94	0.257282
2042.4	0.192891
2043.87	0.145797
2045.33	-0.0353479
2046.8	-0.0309753
2048.26	0.243115
2049.72	0.230736
2051.19	0.26823
2052.65	0.152895
2054.12	-0.0648751
2055.58	0.120956
2057.04	0.272083
2058.5	0.136116
2059.97	0.387566
2061.43	0.319207
2062.89	0.0662975
2064.35	0.352717
2065.81	0.101237
2067.27	0.237396
2068.73	0.458118
2070.19	0.258275
2071.65	0.327785
2073.11	-0.0237298
2074.57	0.129682
2076.03	0.383934
2077.49	0.48639
2078.95	0.201246
2080.41	0.319948
2081.87	0.471913
2083.32	0.488697
2084.78	0.336678
2086.24	0.184262
2087.7	0.367833
2089.15	-0.0204349
2090.61	0.297024
2092.07	0.328706
2093.52	0.0750442
2094.98	0.324579
2096.43	0.204772
2097.89	0.134918
2099.34	0.048027
2100.8	0.512904
2102.25	0.425819
2103.71	0.356137
2105.16	0.470998
2106.61	0.336465
2108.07	0.269432
2109.52	0.336038
2110.97	0.252199
2112.43	0.25085
2113.88	0.16511
2115.33	0.294758
2116.78	0.639713
2118.23	0.668733
2119.68	0.499491
2121.13	0.56404
2122.59	0.546952
2124.04	0.646944
2125.49	0.448887
2126.94	0.333567
2128.39	0.582275
2129.83	0.697325
2131.28	0.596067
2132.73	0.726107
2134.18	0.690569
2135.63	0.589499
2137.08	0.506065
2138.53	0.192561
2139.97	0.359588
2141.42	1.05672
2142.87	0.48179
2144.31	0.816739
2145.76	0.390726
2147.21	0.676116
2148.65	0.745957
2150.1	0.898062
2151.54	0.651862
2152.99	1.20027
2154.43	1.08533
2155.88	0.953517
2157.32	1.07027
2158.77	0.806551
2160.21	0.974469
2161.65	0.447696
2163.1	0.684383
2164.54	1.23759
2165.98	0.962031
2167.43	1.16781
2168.87	0.957443
2170.31	0.895288
2171.75	0.881523
2173.19	0.849766
2174.64	1.21627
2176.07	1.05008
2177.52	1.11689
2178.96	1.03462
2180.4	0.919793
2181.84	0.938583
2183.28	1.04094
2184.72	0.94392
2186.15	0.913463
2187.59	0.666698
2189.03	1.11885
2190.47	1.0385
2191.91	0.824731
2193.35	1.02663
2194.78	0.977847
2196.22	0.811262
2197.66	0.793148
2199.09	0.557724
2200.53	1.06959
2201.97	1.24855
2203.4	0.94665
2204.84	0.994106
2206.27	0.594776
2207.71	0.742829
2209.14	0.57599
2210.58	0.52463
2212.01	0.720753
2213.45	0.73429
2214.88	0.433912
2216.31	0.679059
2217.75	0.545267
2219.18	0.577344
2220.61	0.824289
2222.05	1.1206
2223.48	0.724237
2224.91	0.475445
2226.34	0.291622
2227.78	0.583755
2229.21	0.102591
2230.64	0.064888
2232.07	0.256545
2233.5	0.21882
2234.93	0.492331
2236.36	0.308711
2237.79	0.306005
2239.22	0.402456
2240.65	0.663283
2242.08	0.387037
2243.5	0.0790052
2244.93	0.260496
2246.36	0.376301
2247.79	0.393164
2249.22	0.587879
2250.64	0.585362
2252.07	0.174729
2253.5	0.252145
2254.92	0.280899
2256.35	0.083293
2257.78	0.0821667
2259.2	0.326215
2260.63	0.182781
2262.05	0.365479
2263.48	0.354504
2264.9	0.0511622
2266.33	0.186266
2267.75	-0.036921
2269.18	0.227355
2270.6	0.0354757
2272.02	0.250253
2273.45	0.513875
2274.87	0.256392
2276.29	0.178162
2277.71	0.328179
2279.14	0.0707488
2280.56	0.220815
2281.98	0.273008
2283.4	0.210969
2284.82	-0.0305796
2286.24	-0.092557
2287.66	0.270191
2289.08	0.22512
2290.5	0.0822368
2291.92	0.250013
2293.34	0.450724
2294.76	0.324355
2296.18	0.525195
2297.6	-0.141749
2299.02	0.00991154
2300.44	-0.0348554
2301.86	-0.177874
2303.27	-0.0255461
2304.69	0.225527
2306.11	0.0169463
2307.53	-0.159204
2308.94	0.173742
2310.36	-0.0854321
2311.78	0.0662069
2313.19	0.20147
2314.61	0.0243549
2316.02	0.0451732
2317.44	0.165361
2318.85	0.203537
2320.27	0.637437
2321.68	-0.100591
2323.1	0.0344567
2324.51	0.300065
2325.92	0.25062
2327.34	0.496936
2328.75	0.610642
2330.16	0.444367
2331.58	0.229486
2332.99	0.0484247
2334.4	0.164177
2335.81	0.47743
2337.23	0.0336909
2338.64	0.312961
2340.05	0.114701
2341.46	0.0966916
2342.87	-0.00366545
2344.28	-0.185895
2345.69	-0.171049
2347.1	0.0896358
2348.51	0.0881162
2349.92	0.00455475
2351.33	-0.046699
2352.74	-0.131159
2354.15	0.126591
2355.55	-0.0240965
2356.96	0.216091
2358.37	-0.0972352
2359.78	0.0775886
2361.19	0.268334
2362.59	0.037148
2364	-0.0316725
2365.41	0.0775747
2366.81	0.0574331
2368.22	-0.0591388
2369.62	-0.0780592
2371.03	0.0811939
2372.44	-0.242199
2373.84	0.0955524
2375.24	0.0469418
2376.65	-0.211035
2378.05	-0.0352688
2379.46	0.235681
2380.86	0.103768
2382.26	0.0994916
2383.67	-0.0654964
2385.07	0.16966
2386.47	0.0770102
2387.88	-0.0148406
2389.28	-0.241264
2390.68	-0.0363998
2392.08	0.184825
2393.48	-0.15046
2394.89	-0.325853
2396.29	0.182926
2397.69	-0.230018
2399.09	0.183841
2400.49	0.184811
2401.89	0.122447
2403.29	0.0601258
2404.69	-0.319978
2406.09	0.331342
2407.48	0.0137043
2408.88	0.0764737
2410.28	-0.273142
2411.68	0.0431409
2413.08	-0.0204058
2414.48	-0.146428
2415.87	-0.0340385
2417.27	0.0950103
2418.67	-0.0286841
2420.06	0.275404
2421.46	0.341923
2422.86	-0.0987487
2424.25	0.284214
2425.65	0.207766
2427.04	-0.0744014
2428.44	0.246293
2429.83	0.203043
2431.23	0.128469
2432.62	-0.136588
2434.02	-0.0369406
2435.41	0.141498
2436.81	0.557381
2438.2	0.47971
2439.59	0.13114
2440.99	0.385593
2442.38	0.258542
2443.77	0.321815
2445.16	0.162863
2446.56	0.352737
2447.95	0.0827889
2449.34	0.272433
2450.73	-0.202926
2452.12	-0.0128317
2453.51	0.145989
2454.9	-0.0111127
2456.29	0.243551
2457.68	0.166203
2459.07	-0.0694137
2460.46	0.0742021
2461.85	0.138191
2463.24	0.391294
2464.63	-0.00393248
2466.02	0.216874
2467.4	0.405859
2468.79	0.0739646
2470.18	0.19959
2471.57	-0.0850315
2472.95	-0.00744629
2474.34	0.0695529
2475.73	-0.0741849
2477.12	0.473617
2478.5	0.0625567
2479.89	-0.128052
2481.27	-0.00467157
2482.66	0.134136
2484.04	0.11587
2485.43	0.0188665
2486.81	-0.156771
2488.2	0.182235
2489.58	0.0991707
2490.97	-0.154957
2492.35	-0.0661454
2493.73	0.0697122
2495.12	0.407804
2496.5	0.0486765
2497.88	0.232723
2499.27	0.0916414
2500.65	-0.0649347
2502.03	0.071867
2503.41	0.115167
2504.79	0.0189896
2506.17	-0.0465555
2507.56	0.334208
2508.94	-0.100551
2510.32	-0.0887585
2511.7	0.122857
2513.08	-0.293874
2514.46	0.102355
2515.84	0.00878429
2517.22	0.0534859
2518.59	-0.023829
2519.97	0.0365639
2521.35	-0.0254617
2522.73	-0.0725679
2524.11	0.245913
2525.49	0.13673
2526.86	-0.0942531
2528.24	-0.00508118
2529.62	-0.00657225
2530.99	0.14492
2532.37	0.0390844
2533.75	0.0708776
2535.12	-0.0184336
2536.5	-0.0318174
2537.88	0.197424
2539.25	0.0766587
2540.63	0.259083
2542	-0.196281
2543.38	-0.180817
2544.75	0.305397
2546.12	0.0490661
2547.5	0.187896
2548.87	0.281785
2550.24	0.208817
2551.62	0.302444
2552.99	0.228534
2554.36	-0.0888329
2555.74	0.230557
2557.11	0.246092
2558.48	0.216052
2559.85	0.307479
2561.22	0.277971
2562.59	0.0973458
2563.96	0.189887
2565.34	-0.0961499
2566.71	-0.063807
2568.08	0.271701
2569.45	0.107095
2570.82	0.154671
2572.18	0.278064
2573.55	0.0074048
2574.92	0.434113
2576.29	-0.124558
2577.66	0.241527
2579.03	0.319414
2580.4	-0.148804
2581.77	0.0802245
2583.13	-0.524885
2584.5	0.219207
2585.87	0.326466
2587.23	-0.0815396
2588.6	0.101701
2589.97	0.0425124
2591.33	-0.137982
2592.7	0.120665
2594.06	0.0605922
2595.43	-0.0758066
2596.79	0.0294499
2598.16	0.149235
2599.52	0.132585
2600.89	0.161358
2602.25	0.0545082
2603.62	-0.202769
2604.98	0.370418
2606.34	0.0382538
2607.71	-0.112937
2609.07	0.0821166
2610.43	-0.130476
2611.79	0.153069
2613.16	0.029429
2614.52	-0.169555
2615.88	0.126886
2617.24	0.0781121
2618.6	-0.0450606
2619.96	0.0419464
2621.32	-0.0800519
2622.68	0.00762558
2624.04	-0.0539956
2625.4	-0.0111194
2626.76	0.180653
2628.12	-0.0154781
2629.48	0.0267243
2630.84	0.157998
2632.2	-0.06778
2633.56	-0.0407157
2634.92	0.342485
2636.28	0.220842
2637.63	0.173474
2638.99	0.540779
2640.35	0.212285
2641.71	-0.0268402
2643.06	0.0300064
2644.42	-0.0164618
2645.77	-0.328458
2647.13	0.214735
2648.49	0.270572
2649.84	0.149196
2651.2	-0.0605817
2652.55	0.111701
2653.91	0.0197153
2655.26	0.265491
2656.62	0.174719
2657.97	0.128722
2659.33	0.214994
2660.68	0.301431
2662.03	0.13924
2663.39	0.00605011
2664.74	0.193627
2666.09	-0.0570879
2667.44	0.144063
2668.8	-0.0483098
2670.15	0.0362372
2671.5	-0.169795
2672.85	-0.18628
2674.2	-0.492807
2675.55	0.144747
2676.91	0.18724
2678.26	0.186615
2679.61	0.462023
2680.96	0.216106
2682.31	-0.0145192
2683.66	-0.0124483
2685	0.294816
2686.35	0.0656867
2687.7	0.155603
2689.05	0.433533
2690.4	0.0425963
2691.75	-0.0736089
2693.1	-0.00205517
2694.44	0.0543466
2695.79	0.139575
2697.14	-0.0790792
2698.49	0.0797296
2699.83	-0.238303
2701.18	0.183214
2702.52	0.185769
2703.87	-0.115329
2705.22	0.0765328
2706.56	0.384644
2707.91	0.272036
2709.25	0.217135
2710.6	0.35074
2711.94	0.0775099
2713.29	-0.050673
2714.63	-0.0045433
2715.97	0.157892
2717.32	0.291237
2718.66	0.249913
2720.01	-0.140897
2721.35	0.0791163
2722.69	0.429881
2724.03	0.343713
2725.38	0.271812
2726.72	-0.222423
2728.06	0.0691199
2729.4	0.345905
2730.74	0.0841684
2732.08	-0.017489
2733.42	-0.177258
2734.76	-0.0750713
2736.1	0.216295
2737.44	0.216834
2738.78	-0.131683
2740.12	-0.014966
2741.46	0.304991
2742.8	-0.0152063
2744.14	-0.132214
2745.48	0.375162
2746.82	0.446222
2748.16	0.0961676
2749.49	0.181704
2750.83	0.0352488
2752.17	0.00504112
2753.51	0.0474577
2754.84	0.249317
2756.18	0.335268
2757.52	0.0882468
2758.85	0.275794
2760.19	-0.0575209
2761.53	0.260764
2762.86	-0.144207
2764.2	-0.114873
2765.53	0.102528
2766.87	0.189399
2768.2	-0.0136294
2769.54	0.129673
2770.87	0.25748
2772.2	0.196526
2773.54	0.0484338
2774.87	0.203
2776.2	0.170033
2777.54	0.209309
2778.87	-0.067492
2780.2	0.38929
2781.53	0.343043
2782.87	-0.162315
2784.2	0.351186
2785.53	0.13307
2786.86	0.015624
2788.19	0.256489
2789.52	0.0111537
2790.85	0.00971174
2792.18	-0.062746
2793.51	0.0652289
2794.84	0.107413
2796.17	0.135074
2797.5	0.148085
2798.83	0.189288
2800.16	0.215914
2801.49	-0.114279
2802.82	-0.159118
2804.15	-0.0188193
2805.47	0.277711
2806.8	-0.0385294
2808.13	-0.198275
2809.46	-0.130641
2810.78	-0.119892
2812.11	-0.0236425
2813.44	-0.0970097
2814.76	0.000693321
2816.09	0.184266
2817.42	0.354314
2818.74	0.12786
2820.07	0.199046
2821.39	0.114036
2822.72	0.17033
2824.04	0.0561976
2825.37	0.0835524
2826.69	0.295014
2828.02	0.266028
2829.34	0.0958447
2830.66	0.0392203
2831.99	0.265833
2833.31	0.0960493
2834.63	0.209157
2835.96	0.194564
2837.28	0.391877
2838.6	0.263474
2839.92	0.290572
2841.24	0.261173
2842.57	0.330989
2843.89	0.443579
2845.21	0.25982
2846.53	0.542804
2847.85	0.430291
2849.17	0.656987
2850.49	0.728031
2851.81	0.403015
2853.13	0.614768
2854.45	0.79798
2855.77	0.754968
2857.09	0.711962
2858.41	0.71137
2859.72	0.739009
2861.04	1.06305
2862.36	0.610321
2863.68	0.990281
2865	0.932477
2866.31	0.973438
2867.63	0.929917
2868.95	0.99948
2870.26	0.730921
2871.58	1.23779
2872.9	0.926908
2874.21	1.26384
2875.53	1.03654
2876.84	1.0481
2878.16	1.21396
2879.47	1.28103
2880.79	1.32012
2882.1	1.06464
2883.42	1.20321
2884.73	1.0053
2886.05	0.892038
2887.36	1.46657
2888.67	1.07238
2889.99	1.35126
2891.3	1.349
2892.61	1.5566
2893.92	1.31564
2895.24	1.38319
2896.55	1.22721
2897.86	1.21188
2899.17	1.35104
2900.48	1.54659
2901.79	1.44861
2903.11	1.46267
2904.42	1.51877
2905.73	1.7149
2907.04	1.79948
2908.35	1.67472
2909.66	1.62038
2910.97	1.94421
2912.27	1.89021
2913.58	1.89173
2914.89	1.93441
2916.2	2.01806
2917.51	2.47862
2918.82	2.12685
2920.13	2.16683
2921.43	2.1373
2922.74	2.40208
2924.05	2.36012
2925.35	2.6683
2926.66	2.44567
2927.97	2.36283
2929.27	2.83895
2930.58	2.69961
2931.89	2.79764
2933.19	2.8256
2934.5	2.71378
2935.8	2.85361
2937.11	2.93763
2938.41	2.65843
2939.72	2.61698
2941.02	2.7575
2942.32	2.29766
2943.63	2.11798
2944.93	2.62406
2946.24	2.334
2947.54	2.156
2948.84	2.08968
2950.14	2.14864
2951.45	1.94049
2952.75	2.13728
2954.05	1.82918
2955.35	2.19288
2956.65	1.96918
2957.95	1.99869
2959.26	1.95984
2960.56	2.25886
2961.86	2.06886
2963.16	1.75276
2964.46	1.91319
2965.76	1.4127
2967.06	1.51509
2968.36	1.88391
2969.66	1.57749
2970.96	1.42558
2972.25	1.51294
2973.55	1.23466
2974.85	1.64596
2976.15	1.60651
2977.45	1.08751
2978.74	1.11662
2980.04	1.20101
2981.34	1.04537
2982.64	1.01613
2983.93	1.09958
2985.23	1.1977
2986.52	0.889181
2987.82	0.567528
2989.12	0.780421
2990.41	0.515658
2991.71	0.517615
2993	0.814095
2994.3	0.983261
2995.59	0.856662
2996.89	0.378729
2998.18	0.686942
2999.48	0.36383
3000.77	0.181509
3002.06	0.532279
3003.36	-0.0697613
3004.65	0.253151
3005.94	0.645716
3007.23	0.421687
3008.53	0.2673
3009.82	0.238391
3011.11	0.264959
3012.4	0.24935
3013.69	0.247718
3014.99	0.302103
3016.28	0.078239
3017.57	0.230991
3018.86	0.189081
3020.15	-0.047442
3021.44	0.271973
3022.73	0.257111
3024.02	0.144521
3025.31	0.170309
3026.6	-0.0533757
3027.89	0.249454
3029.18	0.16535
3030.46	0.123748
3031.75	0.0140476
3033.04	0.0707221
3034.33	-0.0380607
3035.62	0.280538
3036.9	0.267101
3038.19	0.0734668
3039.48	0.19554
3040.76	-0.178405
3042.05	0.120608
3043.34	0.185787
3044.62	0.128154
3045.91	-0.147058
3047.19	0.0986552
3048.48	-0.0231495
3049.77	0.1021
3051.05	0.119089
3052.34	0.368547
3053.62	0.0312681
3054.9	0.02108
3056.19	0.228478
3057.47	0.325983
3058.76	0.300271
3060.04	0.0565853
3061.32	0.452981
3062.61	0.495974
3063.89	0.02318
3065.17	-0.176561
3066.45	0.127557
3067.74	0.323557
3069.02	0.356673
3070.3	0.00880337
3071.58	0.231602
3072.86	0.0320473
3074.14	0.321213
3075.42	0.188354
3076.7	0.13692
3077.99	0.140101
3079.26	-0.100257
3080.54	-0.000443459
3081.82	-0.143867
3083.1	-0.0559316
3084.38	0.127432
3085.66	0.175185
3086.94	0.195532
3088.22	0.229002
3089.5	0.139889
3090.78	0.023387
3092.05	-0.079576
3093.33	-0.0467553
3094.61	-0.135803
3095.89	-0.224644
3097.16	-0.123607
3098.44	0.0315785
3099.72	0.0917702
3100.99	0.395714
3102.27	-0.140072
3103.54	0.109848
3104.82	0.048666
3106.1	-0.296223
3107.37	0.198524
3108.65	0.0308056
3109.92	-0.0415382
3111.2	0.0762515
3112.47	0.0591359
3113.74	0.0558357
3115.02	0.147425
3116.29	0.23879
3117.56	0.0177026
3118.84	0.284208
3120.11	-0.0331554
3121.38	0.0964737
3122.66	0.0630379
3123.93	0.286911
3125.2	0.185766
3126.47	0.125607
3127.74	0.336438
3129.01	0.0605736
3130.29	0.339468
3131.56	0.253325
3132.83	0.248227
3134.1	0.0943327
3135.37	-0.00570822
3136.64	0.50113
3137.91	0.00936079
3139.18	0.00306034
3140.45	0.104377
3141.72	0.326607
3142.99	0.400858
3144.26	0.314223
3145.52	0.187889
3146.79	0.249835
3148.06	0.446108
3149.33	0.187319
