200.43	0.149114
202.244	0.155427
204.059	0.162857
205.873	0.584695
207.688	-0.330503
209.501	0.674654
211.314	0.439478
213.127	0.664908
214.941	0.234447
216.753	0.822279
218.564	0.682885
220.375	0.229731
222.186	-0.101015
223.999	-0.0678816
225.809	0.207493
227.618	-0.0968857
229.428	-0.183798
231.236	-0.174338
233.045	0.196891
234.855	0.302976
236.663	0.0967436
238.471	0.0369816
240.278	-0.237641
242.085	0.622758
243.891	0.713165
245.698	0.0314894
247.503	0.19326
249.309	0.232453
251.116	0.462505
252.921	0.280047
254.725	0.410078
256.529	-0.328203
258.333	0.139911
260.136	0.175442
261.939	0.0680695
263.742	0.347596
265.544	0.314958
267.346	0.0899296
269.148	0.563766
270.949	0.169316
272.75	-0.0331039
274.55	0.293928
276.351	-0.151652
278.15	-0.23682
279.95	-0.130627
281.749	-0.00193024
283.548	0.365724
285.346	0.155051
287.144	0.520308
288.942	-0.0262079
290.739	0.195553
292.536	-0.419684
294.333	-0.0759811
296.129	0.0773039
297.925	0.0880175
299.721	0.242588
301.514	-0.0806723
303.309	0.192661
305.104	0.488758
306.898	-0.0986176
308.692	0.268074
310.486	0.515765
312.279	-0.021656
314.072	-0.176419
315.862	-0.0201321
317.654	-0.0528574
319.446	0.34449
321.238	0.481008
323.029	0.689941
324.819	0.207589
326.608	0.321717
328.398	0.388126
330.188	-4.29153e-005
331.977	-0.0306911
333.766	0.00918484
335.553	-0.359301
337.341	-0.322634
339.129	0.454155
340.917	0.0335522
342.704	0.1625
344.489	0.0285053
346.275	0.420537
348.062	0.693549
349.845	-0.107358
351.631	0.309439
353.416	0.17686
355.201	0.234434
356.984	0.0525455
358.768	0.4418
360.552	0.067647
362.333	0.240663
364.116	0.103769
365.899	0.014112
367.68	0.469968
369.462	0.663484
371.243	-0.044136
373.023	0.0773864
374.804	-0.0143008
376.585	0.177578
378.363	0.275161
380.143	0.0670638
381.923	-0.139712
383.7	0.148776
385.479	0.508485
387.256	0.140435
389.034	-0.226425
390.812	0.488046
392.588	0.404544
394.365	0.321602
396.14	-0.348135
397.916	0.0390658
399.691	0.379228
401.467	0.0614581
403.24	0.400884
405.015	0.105618
406.788	0.162099
408.563	0.38248
410.335	0.0861225
412.109	-0.327396
413.88	0.104273
415.654	-0.00323439
417.424	-0.0397267
419.197	0.393636
420.967	0.49875
422.739	0.157739
424.508	0.0508986
426.279	0.248584
428.048	0.210873
429.819	0.125875
431.587	0.416403
433.356	-0.419366
435.124	0.364539
436.891	-0.470951
438.66	0.195135
440.426	0.0152631
442.194	0.162408
443.96	0.00302458
445.725	-0.134099
447.492	-0.482529
449.257	0.291754
451.021	0.153572
452.787	0.412741
454.551	0.368457
456.314	0.0212646
458.079	0.326606
459.842	0.305738
461.604	0.262169
463.368	0.429021
465.13	0.342021
466.891	0.350206
468.654	0.66269
470.415	0.814183
472.175	0.384644
473.935	0.885353
475.696	0.779529
477.456	0.0895047
479.215	0.166704
480.973	0.615801
482.733	0.529249
484.491	0.23398
486.249	0.242933
488.006	0.603131
489.765	0.825455
491.522	0.231943
493.278	0.128565
495.034	0.469488
496.789	0.178953
498.544	0.613981
500.301	-0.0761929
502.056	0.827941
503.81	0.558385
505.564	0.663606
507.317	0.6738
509.071	0.447538
510.825	0.5258
512.578	0.343997
514.33	0.490468
516.082	0.941655
517.833	0.545004
519.585	0.782556
521.335	0.878312
523.086	0.198609
524.836	0.528719
526.586	0.0843129
528.335	-0.101703
530.085	0.438861
531.835	0.416424
533.584	0.604068
535.332	0.580042
537.08	0.508234
538.827	0.412135
540.574	0.268695
542.321	0.753881
544.068	0.795568
545.814	0.0935612
547.56	0.437749
549.305	0.387221
551.05	0.545377
552.795	0.888373
554.54	0.514485
556.282	0.280077
558.025	0.438437
559.769	0.343436
561.512	0.387132
563.255	0.36218
564.997	0.245756
566.739	-0.0538144
568.481	-0.122899
570.223	-0.0994043
571.964	0.29208
573.705	0.317585
575.443	0.0461488
577.183	-0.201252
578.923	0.56215
580.663	0.0865774
582.402	0.185072
584.141	0.0993476
585.879	0.771749
587.615	0.592414
589.353	0.135987
591.09	0.530077
592.828	-0.0195622
594.564	0.327955
596.299	0.606449
598.035	0.17169
599.771	-0.0332589
601.506	0.290306
603.242	-0.261097
604.974	0.336298
606.709	0.265829
608.443	0.217782
610.177	0.490967
611.908	0.374225
613.642	0.487435
615.374	0.280181
617.105	0.600147
618.837	0.415648
620.569	0.75698
622.3	0.273423
624.03	0.361354
625.761	0.197836
627.491	0.606001
629.219	0.0567241
630.949	1.06098
632.677	0.286868
634.406	0.51757
636.135	0.588328
637.861	0.794779
639.59	0.154723
641.318	0.151714
643.043	0.57996
644.77	0.573875
646.495	0.158531
648.222	0.404334
649.948	0.561214
651.672	0.539072
653.398	0.656168
655.121	0.593898
656.846	0.738153
658.569	0.450332
660.293	0.617956
662.015	0.876065
663.738	0.195836
665.46	0.496222
667.183	1.18412
668.903	0.796682
670.626	1.21023
672.346	1.25937
674.067	0.554779
675.787	0.698714
677.508	0.637361
679.226	0.966422
680.947	1.31836
682.665	1.04827
684.385	0.638025
686.102	1.00883
687.821	0.779751
689.538	0.964378
691.254	1.01022
692.972	0.825217
694.688	0.985133
696.406	0.660645
698.121	1.50947
699.835	1.2291
701.552	0.304123
703.266	0.804515
704.98	0.982142
706.695	1.36563
708.409	1.10608
710.121	1.02994
711.836	1.59463
713.548	1.31176
715.26	1.8519
716.973	1.34072
718.685	1.33238
720.396	1.2102
722.108	1.08833
723.818	1.60377
725.528	1.25435
727.238	1.54127
728.949	0.942305
730.658	1.38696
732.367	1.40011
734.075	1.23206
735.785	1.47119
737.493	1.59721
739.2	1.67838
740.907	1.15155
742.614	1.3247
744.322	1.34105
746.028	1.56098
747.734	1.84933
749.439	1.64376
751.144	1.91156
752.849	1.28068
754.555	1.91052
756.26	1.50663
757.963	1.59894
759.667	1.55729
761.37	1.26844
763.073	1.49849
764.775	1.45773
766.477	1.30306
768.179	1.96063
769.883	1.30545
771.584	2.05052
773.285	1.39245
774.986	1.34456
776.686	2.11099
778.386	2.42624
780.085	1.95124
781.785	1.58999
783.484	2.33755
785.182	1.81697
786.881	1.79244
788.579	2.05967
790.276	2.05261
791.974	2.13375
793.671	1.85212
795.367	2.11215
797.064	2.12445
798.76	2.11552
800.456	2.26558
802.151	2.23666
803.846	2.61312
805.541	2.40466
807.234	2.44287
808.928	1.6716
810.622	2
812.315	2.12534
814.008	1.89151
815.701	2.12795
817.394	2.60999
819.086	2.42077
820.778	2.47762
822.468	2.66855
824.159	2.54767
825.85	2.2944
827.541	2.5331
829.231	2.30625
830.921	2.17095
832.609	1.92645
834.298	2.419
835.987	1.86462
837.676	2.17982
839.364	2.18183
841.051	1.93684
842.738	1.80234
844.426	2.49417
846.113	1.73396
847.798	1.86898
849.484	2.36399
851.171	2.07801
852.857	2.24132
854.54	1.48575
856.226	1.89649
857.911	1.90247
859.593	1.97464
861.278	1.2799
862.961	1.48426
864.645	1.50751
866.327	1.46241
868.01	1.91287
869.692	2.25036
871.373	1.75308
873.055	1.88716
874.735	1.29915
876.416	1.20743
878.097	1.38652
879.776	1.58813
881.457	1.49603
883.135	1.83228
884.815	1.53558
886.495	1.23788
888.172	1.02942
889.851	1.45138
891.528	1.84921
893.206	1.32207
894.882	1.73993
896.56	1.50425
898.237	1.1335
899.912	1.92929
901.589	1.55752
903.263	1.0967
904.94	1.70958
906.614	1.69611
908.289	1.52707
909.962	1.98263
911.635	1.30335
913.31	0.937071
914.982	0.616158
916.656	1.05009
918.328	1.01774
920.001	1.18478
921.672	1.13069
923.345	1.03327
925.015	1.33478
926.685	0.864544
928.357	1.34497
930.026	0.899249
931.698	1.51322
933.366	1.17862
935.035	1.26332
936.705	1.43651
938.373	1.12513
940.041	1.29984
941.71	1.0784
943.377	1.056
945.044	1.69562
946.712	0.811475
948.378	1.62559
950.044	0.849039
951.709	1.35158
953.376	1.01572
955.041	1.47495
956.706	1.47311
958.372	1.29728
960.036	1.38827
961.699	0.862095
963.362	0.71087
965.027	0.580396
966.69	1.15593
968.352	0.955182
970.014	1.5272
971.676	1.41262
973.339	1.78492
975	1.11893
976.661	1.69275
978.322	0.962782
979.982	1.44997
981.642	0.85256
983.303	1.62647
984.962	0.384453
986.621	0.779106
988.28	1.21646
989.938	0.524708
991.596	1.02662
993.254	1.32903
994.911	0.96891
996.57	0.874012
998.227	0.845351
999.884	1.21319
1001.54	1.58027
1003.2	1.04423
1004.85	1.03647
1006.51	0.698985
1008.16	0.691448
1009.82	0.574421
1011.47	0.633287
1013.12	0.626645
1014.78	0.576478
1016.43	0.285834
1018.08	0.49909
1019.74	0.887663
1021.39	1.10178
1023.04	1.01059
1024.69	0.526774
1026.34	0.742769
1028	0.368795
1029.65	0.912024
1031.3	0.667877
1032.95	0.66289
1034.6	1.02762
1036.25	1.12919
1037.9	0.489276
1039.54	0.829831
1041.19	0.604794
1042.84	0.967887
1044.49	0.680063
1046.14	0.784823
1047.78	0.890919
1049.43	0.172946
1051.08	0.541753
1052.72	0.82436
1054.37	0.281637
1056.02	0.673258
1057.66	0.41267
1059.31	0.586495
1060.95	0.194551
1062.6	0.389139
1064.24	0.30041
1065.88	0.363158
1067.53	0.229512
1069.17	0.703589
1070.81	0.807628
1072.45	0.477335
1074.1	0.516508
1075.74	-0.0943575
1077.38	0.553789
1079.02	0.487043
1080.66	0.594328
1082.3	0.289617
1083.94	1.04676
1085.58	0.566861
1087.22	0.519169
1088.86	0.881462
1090.5	0.592823
1092.14	0.692896
1093.78	0.619637
1095.42	0.568195
1097.05	0.689888
1098.69	0.920059
1100.33	0.677625
1101.96	0.565948
1103.6	0.434116
1105.24	0.453849
1106.87	0.473996
1108.51	0.558453
1110.14	0.276605
1111.78	0.574126
1113.41	0.633916
1115.05	0.563902
1116.68	0.51499
1118.31	0.230389
1119.95	0.24657
1121.58	0.284828
1123.21	0.366602
1124.85	-0.171448
1126.48	0.403653
1128.11	0.722409
1129.74	0.485667
1131.37	0.698359
1133	0.462314
1134.63	0.311722
1136.26	-0.117113
1137.89	0.585991
1139.52	0.0275879
1141.15	0.237538
1142.78	0.553608
1144.41	0.101637
1146.04	-0.0509858
1147.66	0.138137
1149.29	-0.354017
1150.92	0.0703058
1152.55	-0.101817
1154.17	0.130418
1155.8	-0.0208488
1157.43	-0.172108
1159.05	0.442661
1160.68	-0.154374
1162.3	0.163812
1163.93	0.461396
1165.55	0.206543
1167.17	-0.431189
1168.8	-0.0277939
1170.42	0.353067
1172.05	0.0736933
1173.67	0.00570822
1175.29	0.615857
1176.91	0.270728
1178.54	0.0321732
1180.16	0.323631
1181.78	0.0653343
1183.4	-0.213325
1185.02	0.438072
1186.64	0.412309
1188.26	-0.0787463
1189.88	-0.00114822
1191.5	0.474976
1193.12	0.0657578
1194.74	-0.174975
1196.36	0.255889
1197.97	0.183707
1199.59	0.175654
1201.21	0.294621
1202.83	0.269127
1204.44	-0.151026
1206.06	0.348611
1207.68	0.160571
1209.29	0.619443
1210.91	0.368509
1212.52	-0.196222
1214.14	0.134101
1215.75	0.31669
1217.37	-0.0223708
1218.98	0.137268
1220.59	0.0681305
1222.21	0.269192
1223.82	0.574355
1225.43	0.528143
1227.05	0.793492
1228.66	0.749366
1230.27	0.478786
1231.88	0.870702
1233.49	1.13938
1235.1	0.210249
1236.72	0.439393
1238.33	0.441926
1239.94	0.0107074
1241.55	0.634282
1243.16	0.864852
1244.76	0.681111
1246.37	0.848385
1247.98	0.621758
1249.59	0.477375
1251.2	0.746549
1252.8	0.643482
1254.41	0.0238614
1256.02	1.14247
1257.62	0.565853
1259.23	0.900331
1260.84	0.593987
1262.44	0.991842
1264.05	1.30717
1265.66	0.669178
1267.26	0.859404
1268.86	1.19416
1270.47	0.947662
1272.07	0.741827
1273.67	0.908441
1275.28	0.659713
1276.88	0.907763
1278.48	1.13433
1280.09	0.863311
1281.69	0.654387
1283.29	0.776724
1284.89	0.961391
1286.49	1.22929
1288.09	1.14648
1289.69	0.816431
1291.29	0.982767
1292.89	1.14902
1294.49	1.17008
1296.09	1.02495
1297.69	1.08516
1299.29	1.18531
1300.89	0.871866
1302.49	1.46433
1304.08	0.861383
1305.68	0.67024
1307.28	1.09524
1308.88	0.944696
1310.47	0.81496
1312.07	0.870029
1313.66	1.51864
1315.26	0.736459
1316.85	1.14051
1318.45	0.993515
1320.04	1.05054
1321.64	0.862377
1323.23	1.20254
1324.83	0.991838
1326.42	0.719709
1328.01	0.630323
1329.61	0.845267
1331.2	1.26308
1332.79	0.792692
1334.38	1.45541
1335.97	0.746387
1337.56	0.683965
1339.16	0.721948
1340.75	0.798995
1342.34	0.411542
1343.93	0.827535
1345.52	0.820135
1347.11	0.772717
1348.7	0.766685
1350.29	0.842499
1351.87	0.860092
1353.46	0.759243
1355.05	0.559504
1356.64	0.819746
1358.22	0.660049
1359.81	0.539727
1361.4	0.578424
1362.98	0.736168
1364.57	0.813721
1366.16	1.03083
1367.74	0.850026
1369.33	1.0684
1370.91	0.770297
1372.5	0.294246
1374.08	0.236912
1375.67	0.597918
1377.25	0.600852
1378.83	0.643238
1380.41	0.0879984
1382	0.566481
1383.58	0.566505
1385.16	0.466432
1386.74	0.763467
1388.33	0.841889
1389.91	0.702388
1391.49	0.623182
1393.07	0.286713
1394.65	0.466355
1396.23	1.37947
1397.81	0.190323
1399.39	0.348752
1400.97	0.862869
1402.55	-0.425277
1404.13	0.523501
1405.7	0.285238
1407.28	-0.0115008
1408.86	0.482894
1410.44	0.286016
1412.01	0.266961
1413.59	0.741013
1415.17	0.464259
1416.74	0.384379
1418.32	0.461983
1419.89	0.559428
1421.47	0.618153
1423.04	0.382694
1424.62	0.168173
1426.19	0.230099
1427.77	0.784482
1429.34	0.767908
1430.91	0.514513
1432.49	0.693294
1434.06	1.0877
1435.63	0.694866
1437.2	1.08885
1438.78	0.814855
1440.35	0.698925
1441.92	0.937461
1443.49	0.940676
1445.06	1.10143
1446.63	0.967501
1448.2	0.892646
1449.77	0.857306
1451.34	0.900946
1452.91	0.846665
1454.48	1.38277
1456.05	1.05339
1457.62	0.821806
1459.18	0.884485
1460.75	1.63468
1462.32	0.94695
1463.89	1.00577
1465.45	0.592002
1467.02	0.532013
1468.59	0.511599
1470.15	0.275958
1471.72	0.217829
1473.28	0.415426
1474.85	0.123258
1476.41	0.0471406
1477.98	0.382823
1479.54	0.836
1481.1	0.622602
1482.67	0.644371
1484.23	0.176201
1485.79	0.354432
1487.36	0.218703
1488.92	0.101754
1490.48	0.238048
1492.04	0.353115
1493.61	0.3102
1495.17	-0.00700045
1496.73	0.104488
1498.29	0.4685
1499.85	-0.120352
1501.41	0.205313
1502.97	0.123846
1504.53	0.256281
1506.09	0.00151968
1507.65	0.15295
1509.2	-0.256853
1510.76	0.684219
1512.32	0.388982
1513.88	0.209699
1515.43	0.242439
1516.99	0.160321
1518.55	0.922683
1520.1	0.381261
1521.66	0.549155
1523.22	0.372407
1524.77	0.214612
1526.33	0.247174
1527.88	0.164769
1529.44	0.0441704
1530.99	0.702378
1532.54	0.297295
1534.1	0.291576
1535.65	0.551412
1537.21	0.225631
1538.76	0.750403
1540.31	0.199601
1541.86	0.252768
1543.42	0.757456
1544.97	0.52775
1546.52	0.4674
1548.07	0.838606
1549.62	0.571739
1551.17	0.548968
1552.72	0.900743
1554.27	0.93484
1555.82	0.689771
1557.37	0.203648
1558.92	0.335053
1560.47	0.971403
1562.02	0.526845
1563.56	0.717382
1565.11	1.02034
1566.66	1.00623
1568.21	0.432025
1569.75	1.08937
1571.3	0.99985
1572.85	1.05945
1574.39	1.11895
1575.94	1.06646
1577.49	1.12613
1579.03	1.29814
1580.57	1.48933
1582.12	0.878125
1583.66	0.51009
1585.21	0.871191
1586.75	0.29812
1588.3	1.37063
1589.84	0.759829
1591.38	0.915708
1592.92	1.01517
1594.47	0.927185
1596.01	0.914111
1597.55	1.07
1599.09	0.814005
1600.63	0.877185
1602.17	0.753081
1603.71	1.07952
1605.25	1.10521
1606.79	0.791642
1608.33	0.833672
1609.87	0.780098
1611.41	1.32614
1612.95	1.10028
1614.49	1.06138
1616.03	1.34104
1617.57	0.627238
1619.1	0.945455
1620.64	1.32067
1622.18	1.07883
1623.72	0.987466
1625.25	0.952325
1626.79	1.12252
1628.32	1.04846
1629.86	1.02954
1631.39	1.17807
1632.93	0.784445
1634.46	0.820839
1636	1.17494
1637.53	1.10046
1639.07	0.951933
1640.6	0.989917
1642.13	0.785255
1643.67	0.598635
1645.2	1.00687
1646.73	1.39529
1648.26	1.1883
1649.8	1.37182
1651.33	1.11046
1652.86	0.850298
1654.39	0.906356
1655.92	0.814563
1657.45	0.926609
1658.98	1.40846
1660.51	1.29652
1662.04	1.29463
1663.57	1.36581
1665.1	0.956219
1666.63	1.10119
1668.16	1.22828
1669.68	1.24573
1671.21	0.951046
1672.74	0.675785
1674.27	0.548325
1675.79	0.862635
1677.32	1.01056
1678.85	0.918435
1680.37	0.844027
1681.9	0.787534
1683.42	0.381983
1684.95	1.09637
1686.47	0.581398
1688	0.488903
1689.52	0.4151
1691.05	0.616188
1692.57	0.194915
1694.09	0.46909
1695.62	0.523486
1697.14	0.52283
1698.66	0.467152
1700.18	0.228742
1701.71	0.209141
1703.23	0.407875
1704.75	-0.195325
1706.27	0.34844
1707.79	0.200269
1709.31	0.324749
1710.83	0.031662
1712.35	-0.115749
1713.87	0.172012
1715.39	0.0791841
1716.91	0.239699
1718.43	-0.0881109
1719.95	0.216594
1721.47	0.232221
1722.99	0.374397
1724.5	-0.00542593
1726.02	-0.221877
1727.54	0.192728
1729.06	-0.148076
1730.57	-0.126049
1732.09	0.0397229
1733.61	0.14641
1735.12	-0.0698133
1736.64	0.238361
1738.15	-0.00209284
1739.67	0.0961733
1741.18	0.0654674
1742.7	0.0936828
1744.21	-0.177577
1745.72	-0.108132
1747.24	0.0702786
1748.75	0.16361
1750.26	0.0776801
1751.77	-0.212157
1753.29	0.277151
1754.8	0.321621
1756.31	0.113627
1757.82	-0.0635543
1759.33	-0.0238385
1760.84	-0.172666
1762.36	0.100785
1763.87	-0.116969
1765.38	0.0326486
1766.89	-0.14731
1768.4	-0.0279403
1769.91	0.337964
1771.41	-0.0318666
1772.92	-0.0450807
1774.43	-0.0684576
1775.94	0.125514
1777.45	0.112802
1778.95	-0.112219
1780.46	-0.146423
1781.97	0.00257444
1783.48	-0.116004
1784.98	0.0335441
1786.49	0.0731492
1787.99	0.34432
1789.5	0.146151
1791.01	-0.152998
1792.51	0.0713019
1794.01	-0.243847
1795.52	0.15311
1797.02	0.0041275
1798.53	0.180295
1800.03	0.167737
1801.53	-0.0737462
1803.04	0.215058
1804.54	0.0608935
1806.04	0.0906672
1807.54	0.127589
1809.05	-0.128425
1810.55	0.100886
1812.05	-0.0303431
1813.55	-0.00425005
1815.05	-0.0167174
1816.55	0.165859
1818.05	0.137374
1819.55	0.196131
1821.05	-0.10323
1822.55	0.0745244
1824.05	0.0385971
1825.55	0.0292435
1827.05	0.0668511
1828.55	-0.222376
1830.04	0.180184
1831.54	0.0215616
1833.04	0.317243
1834.54	0.170166
1836.03	-0.0733085
1837.53	-0.0352402
1839.03	0.10513
1840.52	0.155457
1842.02	-0.143144
1843.51	0.126928
1845.01	-0.135864
1846.5	-0.151362
1848	0.104058
1849.49	-0.0473595
1850.99	-0.0194426
1852.48	0.202454
1853.97	0.22279
1855.47	-0.0205455
1856.96	-0.204415
1858.45	0.10722
1859.94	0.145014
1861.44	0.202931
1862.93	-0.117994
1864.42	-0.00544071
1865.91	-0.0859213
1867.4	0.0429382
1868.89	0.0172515
1870.38	-0.046566
1871.87	-0.364929
1873.36	0.430127
1874.85	0.636292
1876.34	0.167077
1877.83	0.291129
1879.32	-0.0919604
1880.81	0.00648403
1882.3	0.160626
1882.57	0.187522
1884.07	-0.143493
1885.56	0.187379
1887.06	-0.057395
1888.55	-0.0759401
1890.04	0.253633
1891.54	-0.303338
1893.03	0.0625625
1894.52	0.220945
1896.02	0.18912
1897.51	0.123048
1899	0.317779
1900.49	0.0769181
1901.98	0.28724
1903.47	0.061492
1904.96	0.0435414
1906.45	0.216208
1907.94	0.145577
1909.43	0.0754337
1910.92	-0.184889
1912.41	-0.236328
1913.9	-0.0966172
1915.39	-0.00893307
1916.88	0.199843
1918.37	-0.181137
1919.85	-0.232977
1921.34	0.113539
1922.83	0.183074
1924.32	-0.0757594
1925.8	0.0470624
1927.29	0.101334
1928.78	-0.0171137
1930.26	0.193382
1931.75	0.0569992
1933.23	0.0928025
1934.72	-0.13224
1936.2	0.0397401
1937.69	0.297192
1939.17	-0.102561
1940.66	-0.346183
1942.14	-0.0367494
1943.63	0.04882
1945.11	-0.0547986
1946.59	0.117699
1948.07	0.152052
1949.56	-0.279238
1951.04	0.132882
1952.52	0.130956
1954	0.249015
1955.48	-0.0111618
1956.96	-0.0474973
1958.45	-0.100504
1959.93	0.430252
1961.41	0.223591
1962.89	0.308602
1964.37	0.067884
1965.85	0.238023
1967.32	-0.123048
1968.8	-0.0223069
1970.28	0.26593
1971.76	0.0582581
1973.24	0.0215225
1974.72	-0.0150971
1976.19	-0.239028
1977.67	0.218733
1979.15	0.420631
1980.63	0.367094
1982.1	0.0755339
1983.58	0.259774
1985.05	0.222857
1986.53	0.202788
1988	-0.122293
1989.48	-0.00639868
1990.95	0.160544
1992.43	0.124961
1993.9	-0.0451584
1995.38	0.157163
1996.85	-0.164074
1998.32	0.0552783
1999.8	-0.147866
2001.27	-0.0474992
2002.74	0.153646
2004.22	-0.0500793
2005.69	0.20156
2007.16	0.268214
2008.63	-0.220201
2010.1	0.100246
2011.57	0.505099
2013.04	-0.015842
2014.51	0.119383
2015.98	-0.183397
2017.45	0.068419
2018.92	0.201812
2020.39	0.0322766
2021.86	-0.0364156
2023.33	0.51622
2024.8	0.0119047
2026.27	0.17965
2027.74	0.331527
2029.2	0.484417
2030.67	0.0678811
2032.14	0.255891
2033.61	0.00786257
2035.07	0.0115309
2036.54	-0.0354524
2038.01	0.102021
2039.47	-0.0128093
2040.94	0.309349
2042.4	-0.0238523
2043.87	0.265587
2045.33	0.3371
2046.8	0.0219588
2048.26	0.228873
2049.72	0.166098
2051.19	0.0688548
2052.65	0.0717068
2054.12	0.292612
2055.58	0.00643063
2057.04	0.124074
2058.5	0.325367
2059.97	0.42534
2061.43	-0.0132685
2062.89	0.323229
2064.35	-0.0129328
2065.81	0.594031
2067.27	0.19181
2068.73	0.479988
2070.19	0.448609
2071.65	0.434091
2073.11	0.402624
2074.57	0.370962
2076.03	0.1875
2077.49	0.138504
2078.95	0.190276
2080.41	0.208056
2081.87	0.0907679
2083.32	0.360227
2084.78	0.15787
2086.24	0.241125
2087.7	0.542472
2089.15	0.523944
2090.61	0.0349779
2092.07	0.217986
2093.52	0.467852
2094.98	0.0296965
2096.43	0.53026
2097.89	0.460271
2099.34	0.590783
2100.8	0.620543
2102.25	0.566875
2103.71	0.313488
2105.16	0.561945
2106.61	0.52752
2108.07	0.126898
2109.52	0.143541
2110.97	0.34317
2112.43	0.541758
2113.88	0.589088
2115.33	0.735079
2116.78	0.713963
2118.23	0.477202
2119.68	0.341316
2121.13	0.704563
2122.59	0.704011
2124.04	0.837123
2125.49	0.539536
2126.94	0.87182
2128.39	0.407618
2129.83	0.655262
2131.28	0.785867
2132.73	0.518526
2134.18	0.797388
2135.63	0.729298
2137.08	0.811052
2138.53	0.596598
2139.97	0.697459
2141.42	0.91518
2142.87	0.588146
2144.31	1.02229
2145.76	0.960361
2147.21	1.03061
2148.65	0.802324
2150.1	1.05372
2151.54	1.12223
2152.99	1.19003
2154.43	0.693909
2155.88	1.15842
2157.32	1.32473
2158.77	0.928357
2160.21	0.847651
2161.65	0.900693
2163.1	1.0048
2164.54	1.19304
2165.98	1.13309
2167.43	0.95666
2168.87	1.14498
2170.31	0.866503
2171.75	1.152
2173.19	1.25316
2174.64	1.32004
2176.07	1.23682
2177.52	1.41982
2178.96	1.75298
2180.4	1.22233
2181.84	1.12457
2183.28	1.39304
2184.72	1.22936
2186.15	1.3651
2187.59	1.00174
2189.03	1.07096
2190.47	1.14019
2191.91	1.02611
2193.35	0.911459
2194.78	1.0456
2196.22	0.745627
2197.66	0.743975
2199.09	1.02381
2200.53	0.820714
2201.97	0.700842
2203.4	0.764095
2204.84	0.977248
2206.27	0.909164
2207.71	0.940895
2209.14	0.856534
2210.58	0.904101
2212.01	0.57047
2213.45	0.831814
2214.88	0.44855
2216.31	1.02357
2217.75	0.872854
2219.18	0.624202
2220.61	0.623585
2222.05	0.705439
2223.48	0.935001
2224.91	0.47178
2226.34	0.715512
2227.78	0.579589
2229.21	0.804353
2230.64	0.683601
2232.07	0.792379
2233.5	0.753811
2234.93	0.503284
2236.36	0.48275
2237.79	0.251095
2239.22	0.200437
2240.65	0.542579
2242.08	0.266033
2243.5	0.283882
2244.93	0.465061
2246.36	0.466361
2247.79	0.580737
2249.22	0.253421
2250.64	0.397436
2252.07	0.653999
2253.5	0.503009
2254.92	0.531232
2256.35	0.251958
2257.78	0.412688
2259.2	0.283205
2260.63	0.431472
2262.05	0.289264
2263.48	0.570221
2264.9	0.689176
2266.33	0.352705
2267.75	0.37325
2269.18	0.409465
2270.6	0.282385
2272.02	0.203757
2273.45	0.369281
2274.87	0.209133
2276.29	0.374926
2277.71	0.345336
2279.14	0.332073
2280.56	0.188303
2281.98	0.321662
2283.4	0.634494
2284.82	0.31107
2286.24	0.558938
2287.66	-0.00920677
2289.08	0.255578
2290.5	0.030611
2291.92	0.32875
2293.34	0.709
2294.76	-0.153936
2296.18	0.34094
2297.6	0.164793
2299.02	0.05406
2300.44	0.320323
2301.86	-0.150887
2303.27	0.230739
2304.69	0.0383348
2306.11	0.157722
2307.53	0.0633912
2308.94	0.0508199
2310.36	0.350297
2311.78	0.106887
2313.19	0.225306
2314.61	0.327611
2316.02	0.150549
2317.44	0.369235
2318.85	-0.0874357
2320.27	0.0655003
2321.68	0.250865
2323.1	0.303059
2324.51	0.386719
2325.92	0.43584
2327.34	0.318901
2328.75	0.679522
2330.16	0.496346
2331.58	0.248121
2332.99	0.297068
2334.4	0.231369
2335.81	0.313904
2337.23	0.165839
2338.64	0.0994272
2340.05	-0.0169601
2341.46	0.506624
2342.87	0.323548
2344.28	0.222703
2345.69	0.0566192
2347.1	0.169364
2348.51	-0.0290208
2349.92	0.0997577
2351.33	0.0970802
2352.74	0.240754
2354.15	-0.30173
2355.55	0.607084
2356.96	0.308916
2358.37	0.450495
2359.78	0.0719643
2361.19	0.0675774
2362.59	0.144253
2364	-0.167992
2365.41	-0.0589814
2366.81	0.211526
2368.22	0.207433
2369.62	0.0265908
2371.03	0.282099
2372.44	0.119308
2373.84	-0.090982
2375.24	0.101541
2376.65	0.0523095
2378.05	0.0667477
2379.46	0.0640993
2380.86	-0.148288
2382.26	0.023715
2383.67	0.210767
2385.07	0.157301
2386.47	0.224051
2387.88	0.0837946
2389.28	-0.0314884
2390.68	-0.0820551
2392.08	-0.0999684
2393.48	0.200983
2394.89	0.51808
2396.29	0.0723057
2397.69	-0.118468
2399.09	0.072557
2400.49	0.0573015
2401.89	-0.27542
2403.29	0.138395
2404.69	0.31365
2406.09	0.107272
2407.48	0.0432439
2408.88	0.169086
2410.28	0.0251336
2411.68	0.293393
2413.08	0.0393653
2414.48	0.308792
2415.87	0.088356
2417.27	0.122087
2418.67	0.172242
2420.06	-0.0149183
2421.46	0.288825
2422.86	0.402315
2424.25	0.230455
2425.65	0.07445
2427.04	0.172326
2428.44	-0.157229
2429.83	0.116255
2431.23	0.120671
2432.62	-0.00181484
2434.02	0.145234
2435.41	0.49818
2436.81	0.294156
2438.2	0.16854
2439.59	0.185083
2440.99	0.455109
2442.38	0.216625
2443.77	-0.244006
2445.16	-0.133368
2446.56	0.405144
2447.95	0.293365
2449.34	0.35592
2450.73	-0.198912
2452.12	0.0858779
2453.51	0.196939
2454.9	0.166132
2456.29	0.199061
2457.68	0.279643
2459.07	0.0279541
2460.46	-0.303116
2461.85	-0.0653639
2463.24	-0.254979
2464.63	-0.128822
2466.02	-0.0187397
2467.4	0.138548
2468.79	0.216775
2470.18	0.105551
2471.57	0.246338
2472.95	0.0557089
2474.34	0.05374
2475.73	-0.090199
2477.12	0.0330524
2478.5	0.171784
2479.89	0.294715
2481.27	0.166702
2482.66	0.0388427
2484.04	0.177004
2485.43	0.251785
2486.81	-0.111757
2488.2	0.133389
2489.58	0.0346222
2490.97	0.0605373
2492.35	0.211085
2493.73	-0.119331
2495.12	-0.0138969
2496.5	-0.0628486
2497.88	0.198573
2499.27	-0.0664496
2500.65	0.117222
2502.03	-0.148072
2503.41	-0.0120602
2504.79	-0.108236
2506.17	0.0573416
2507.56	0.0838976
2508.94	-0.0124974
2510.32	0.152658
2511.7	0.241199
2513.08	0.0695143
2514.46	-0.040062
2515.84	-0.0723987
2517.22	-0.165395
2518.59	0.0783906
2519.97	-0.0294223
2521.35	0.12234
2522.73	0.151398
2524.11	-0.186172
2525.49	-0.0207453
2526.86	0.0528975
2528.24	0.0354071
2529.62	0.185911
2530.99	-0.0426717
2532.37	0.125028
2533.75	0.0656486
2535.12	0.113072
2536.5	-0.0522318
2537.88	0.237784
2539.25	-0.20191
2540.63	0.147626
2542	-0.322855
2543.38	-0.0190501
2544.75	0.0272617
2546.12	0.104688
2547.5	0.258743
2548.87	0.0947857
2550.24	-0.0236731
2551.62	0.130699
2552.99	0.208623
2554.36	0.240353
2555.74	0.165294
2557.11	-0.0465798
2558.48	-0.000631332
2559.85	-0.0606451
2561.22	0.0767393
2562.59	0.184184
2563.96	-0.071701
2565.34	-0.0242267
2566.71	-0.00690508
2568.08	0.449984
2569.45	0.13397
2570.82	0.0452852
2572.18	-0.285903
2573.55	-0.0258861
2574.92	-0.266047
2576.29	-0.187837
2577.66	-0.0186877
2579.03	0.135186
2580.4	0.364661
2581.77	0.275451
2583.13	-0.0565696
2584.5	0.202566
2585.87	0.249406
2587.23	0.0235057
2588.6	0.206963
2589.97	-0.139938
2591.33	-0.108034
2592.7	0.484184
2594.06	0.121314
2595.43	0.076004
2596.79	0.332804
2598.16	0.361917
2599.52	-0.334927
2600.89	0.132573
2602.25	-0.0645933
2603.62	0.221896
2604.98	0.0105619
2606.34	0.236943
2607.71	0.493098
2609.07	-0.0201697
2610.43	0.29477
2611.79	0.0214663
2613.16	0.0486307
2614.52	-0.0298758
2615.88	0.161724
2617.24	0.113259
2618.6	-0.144376
2619.96	0.332119
2621.32	0.0757027
2622.68	0.148705
2624.04	0.0276442
2625.4	0.0708532
2626.76	-0.109827
2628.12	0.305581
2629.48	0.0799379
2630.84	0.0776854
2632.2	-0.325996
2633.56	0.0136271
2634.92	0.0261765
2636.28	0.127672
2637.63	-0.171075
2638.99	-0.128769
2640.35	0.15028
2641.71	-0.132683
2643.06	-0.0161991
2644.42	0.174041
2645.77	0.304959
2647.13	0.0816364
2648.49	-0.259597
2649.84	-0.0709591
2651.2	0.205109
2652.55	0.0251894
2653.91	0.0951891
2655.26	0.37074
2656.62	-0.04178
2657.97	0.439808
2659.33	0.380179
2660.68	0.0138307
2662.03	0.144624
2663.39	-0.0464239
2664.74	-0.0625782
2666.09	-0.0354075
2667.44	0.108022
2668.8	0.207493
2670.15	0.467035
2671.5	0.333996
2672.85	-0.103565
2674.2	0.171343
2675.55	0.185072
2676.91	0.0685859
2678.26	0.619758
2679.61	0.0982132
2680.96	0.113946
2682.31	0.231928
2683.66	0.3797
2685	0.281585
2686.35	0.299782
2687.7	0.18723
2689.05	0.407766
2690.4	-0.0405569
2691.75	0.279357
2693.1	0.133849
2694.44	0.0748854
2695.79	-0.0420771
2697.14	0.189121
2698.49	-0.201715
2699.83	0.436654
2701.18	0.134907
2702.52	-0.0791073
2703.87	0.431907
2705.22	0.233311
2706.56	0.17961
2707.91	0.401404
2709.25	0.5215
2710.6	0.307431
2711.94	0.0639935
2713.29	0.372506
2714.63	0.172419
2715.97	0.219355
2717.32	0.440756
2718.66	0.443892
2720.01	0.0102553
2721.35	0.0418892
2722.69	0.146014
2724.03	0.30808
2725.38	0.309768
2726.72	0.0637813
2728.06	0.254246
2729.4	0.386317
2730.74	0.038105
2732.08	0.53378
2733.42	0.403882
2734.76	0.332312
2736.1	0.188161
2737.44	-0.0140629
2738.78	-0.332628
2740.12	0.0903454
2741.46	0.0912743
2742.8	0.411618
2744.14	0.106442
2745.48	0.425764
2746.82	0.120145
2748.16	-0.0982342
2749.49	0.104359
2750.83	0.0313544
2752.17	0.0600462
2753.51	0.219294
2754.84	0.146739
2756.18	0.0308642
2757.52	0.0889134
2758.85	0.335281
2760.19	0.422589
2761.53	0.105001
2762.86	0.0482326
2764.2	0.0929432
2765.53	0.181038
2766.87	0.182024
2768.2	0.45724
2769.54	0.283229
2770.87	-0.209466
2772.2	-0.0669508
2773.54	-0.242696
2774.87	0.158193
2776.2	0.0830512
2777.54	-0.00612497
2778.87	-0.0516858
2780.2	0.219268
2781.53	0.0592437
2782.87	0.143445
2784.2	0.198816
2785.53	0.110785
2786.86	0.252154
2788.19	0.121704
2789.52	0.163568
2790.85	-0.237411
2792.18	-0.0228648
2793.51	0.120366
2794.84	-0.0651603
2796.17	0.306431
2797.5	0.0346985
2798.83	0.219711
2800.16	0.104599
2801.49	0.146338
2802.82	-0.0116949
2804.15	-0.0272264
2805.47	-0.000284672
2806.8	-0.0733747
2808.13	-0.0471835
2809.46	0.0213571
2810.78	-0.0521884
2812.11	0.144365
2813.44	0.000993729
2814.76	0.18471
2816.09	0.26999
2817.42	0.157514
2818.74	0.059567
2820.07	0.18839
2821.39	0.061811
2822.72	-0.0509834
2824.04	-0.192444
2825.37	0.133385
2826.69	0.331635
2828.02	0.275277
2829.34	-0.0496902
2830.66	0.319306
2831.99	0.589305
2833.31	0.20811
2834.63	0.208908
2835.96	-0.158549
2837.28	0.124664
2838.6	0.0821409
2839.92	0.294067
2841.24	0.520084
2842.57	0.435286
2843.89	0.379178
2845.21	0.606157
2846.53	0.76284
2847.85	0.736015
2849.17	0.751592
2850.49	0.766974
2851.81	0.725507
2853.13	0.853313
2854.45	0.952587
2855.77	0.924556
2857.09	1.05191
2858.41	0.967386
2859.72	1.00997
2861.04	0.995943
2862.36	1.2217
2863.68	1.05194
2865	1.00908
2866.31	1.23424
2867.63	1.47355
2868.95	1.13493
2870.26	1.64253
2871.58	1.29024
2872.9	1.47341
2874.21	1.72648
2875.53	1.48573
2876.84	1.51198
2878.16	1.56585
2879.47	1.77418
2880.79	1.84192
2882.1	1.78368
2883.42	1.75423
2884.73	1.55692
2886.05	1.4583
2887.36	1.64045
2888.67	1.51354
2889.99	1.76494
2891.3	1.42671
2892.61	1.74711
2893.92	1.73091
2895.24	1.78496
2896.55	1.55953
2897.86	1.69868
2899.17	1.89435
2900.48	2.1464
2901.79	2.16088
2903.11	2.09154
2904.42	2.13419
2905.73	1.93922
2907.04	2.0523
2908.35	2.19386
2909.66	2.39194
2910.97	1.70877
2912.27	2.24308
2913.58	2.20309
2914.89	2.30223
2916.2	2.51229
2917.51	2.80525
2918.82	2.66369
2920.13	2.70394
2921.43	2.6607
2922.74	3.12149
2924.05	2.73039
2925.35	3.30449
2926.66	3.0962
2927.97	3.32125
2929.27	3.30838
2930.58	3.01554
2931.89	3.28156
2933.19	3.19792
2934.5	3.46369
2935.8	3.24032
2937.11	3.35247
2938.41	3.01754
2939.72	3.14392
2941.02	3.13087
2942.32	2.8808
2943.63	2.89696
2944.93	2.95592
2946.24	2.5681
2947.54	2.76795
2948.84	2.82781
2950.14	2.78893
2951.45	2.49683
2952.75	2.34352
2954.05	2.42738
2955.35	2.24501
2956.65	2.38515
2957.95	2.38657
2959.26	1.8156
2960.56	2.40849
2961.86	2.20429
2963.16	2.09842
2964.46	1.72525
2965.76	1.88457
2967.06	1.91657
2968.36	2.07429
2969.66	1.82382
2970.96	1.98103
2972.25	1.87118
2973.55	1.84588
2974.85	1.82052
2976.15	1.56946
2977.45	1.73994
2978.74	1.66997
2980.04	1.45816
2981.34	1.25974
2982.64	0.990814
2983.93	1.25653
2985.23	1.49458
2986.52	1.01677
2987.82	0.919284
2989.12	1.35634
2990.41	1.07684
2991.71	1.12023
2993	0.727279
2994.3	0.797339
2995.59	0.782385
2996.89	0.626588
2998.18	0.7795
2999.48	1.18487
3000.77	0.903187
3002.06	0.28564
3003.36	0.677575
3004.65	0.60703
3005.94	0.326275
3007.23	0.661236
3008.53	0.519644
3009.82	0.545416
3011.11	0.361076
3012.4	0.12088
3013.69	0.35533
3014.99	0.380544
3016.28	0.308605
3017.57	0.390309
3018.86	0.249567
3020.15	0.122886
3021.44	0.440789
3022.73	0.243827
3024.02	0.393447
3025.31	-0.10928
3026.6	0.51062
3027.89	0.299412
3029.18	0.0615783
3030.46	0.253249
3031.75	0.224618
3033.04	0.307045
3034.33	0.375761
3035.62	0.292288
3036.9	0.180459
3038.19	0.343158
3039.48	0.407988
3040.76	0.15553
3042.05	0.150177
3043.34	0.418881
3044.62	0.399943
3045.91	0.39574
3047.19	0.297283
3048.48	0.323272
3049.77	0.295946
3051.05	0.174053
3052.34	0.284606
3053.62	0.340526
3054.9	0.300474
3056.19	0.273378
3057.47	0.341
3058.76	0.0946593
3060.04	0.420256
3061.32	0.174154
3062.61	0.3913
3063.89	0.337186
3065.17	0.202463
3066.45	0.204527
3067.74	0.261545
3069.02	0.223581
3070.3	0.266992
3071.58	0.214609
3072.86	0.107033
3074.14	-0.069263
3075.42	-0.0965452
3076.7	-0.0968714
3077.99	-0.0698438
3079.26	-0.0558052
3080.54	-0.0816169
3081.82	0.17832
3083.1	-0.0222464
3084.38	0.0488715
3085.66	-0.0700016
3086.94	0.163676
3088.22	-0.0238891
3089.5	0.466686
3090.78	0.0476198
3092.05	0.144107
3093.33	0.104964
3094.61	0.201581
3095.89	0.0542302
3097.16	0.205163
3098.44	-0.159078
3099.72	-0.00839376
3100.99	-0.210087
3102.27	0.143547
3103.54	0.199262
3104.82	-0.123761
3106.1	-0.135003
3107.37	-0.037478
3108.65	0.250107
3109.92	-0.0301156
3111.2	-0.0661974
3112.47	0.0200143
3113.74	0.0387516
3115.02	0.342124
3116.29	-0.0462661
3117.56	-0.13704
3118.84	-0.0250864
3120.11	0.0183067
3121.38	0.061048
3122.66	0.211742
3123.93	0.050581
3125.2	0.0656323
3126.47	0.107962
3127.74	-0.174142
3129.01	0.0987086
3130.29	-0.169274
3131.56	0.0630255
3132.83	0.0788226
3134.1	-0.256858
3135.37	-0.0256181
3136.64	0.177958
3137.91	0.111238
3139.18	0.00389814
3140.45	0.017694
3141.72	0.0179906
3142.99	0.206501
3144.26	-0.0480814
3145.52	-0.167806
3146.79	0.141948
3148.06	-0.151205
3149.33	0.225724
