200.43	0.0600967
202.244	0.0831985
204.059	0.107393
205.873	0.229763
207.688	0.400967
209.501	0.498633
211.314	0.182279
213.127	0.908793
214.941	0.396261
216.753	0.610998
218.564	-0.215961
220.375	0.023716
222.186	-0.147271
223.999	0.456432
225.809	0.262612
227.618	0.165658
229.428	0.382345
231.236	0.284556
233.045	0.0418148
234.855	-0.200376
236.663	0.474689
238.471	0.211435
240.278	0.384383
242.085	0.197852
243.891	-0.301176
245.698	0.18881
247.503	0.146625
249.309	-0.211951
251.116	0.0544348
252.921	0.100899
254.725	-0.457385
256.529	0.0453272
258.333	0.259066
260.136	-0.0317774
261.939	-0.12807
263.742	0.331212
265.544	0.695215
267.346	0.0474768
269.148	-0.191043
270.949	-0.189296
272.75	0.19718
274.55	-0.140944
276.351	0.0498571
278.15	0.118385
279.95	0.0645819
281.749	0.418137
283.548	0.817478
285.346	0.0374289
287.144	-0.021781
288.942	-0.0329571
290.739	0.148161
292.536	0.114711
294.333	-0.0608158
296.129	0.434598
297.925	0.118008
299.721	-0.197915
301.514	0.441556
303.309	-0.495981
305.104	-0.455353
306.898	0.228379
308.692	0.267481
310.486	0.40231
312.279	0.538096
314.072	0.341961
315.862	0.742819
317.654	0.835869
319.446	0.120445
321.238	-0.213161
323.029	-0.141053
324.819	0.217833
326.608	0.386197
328.398	0.530668
330.188	0.531238
331.977	0.219755
333.766	0.289258
335.553	0.189303
337.341	0.1112
339.129	0.820676
340.917	0.499868
342.704	0.298036
344.489	0.239633
346.275	0.0622749
348.062	-0.138259
349.845	0.807591
351.631	0.153935
353.416	0.788603
355.201	0.300751
356.984	0.0743227
358.768	0.252037
360.552	0.190317
362.333	0.698924
364.116	0.0646944
365.899	0.404892
367.68	0.245294
369.462	-0.460161
371.243	0.0193939
373.023	-0.212544
374.804	-0.0425587
376.585	0.292295
378.363	0.225979
380.143	-0.263451
381.923	0.284617
383.7	-0.178447
385.479	0.159427
387.256	-0.136433
389.034	0.250105
390.812	0.0501423
392.588	0.297113
394.365	-0.44173
396.14	0.440125
397.916	0.406185
399.691	0.254604
401.467	0.337494
403.24	-0.1909
405.015	-0.038805
406.788	0.15953
408.563	0.028554
410.335	-0.149654
412.109	0.0477009
413.88	0.409556
415.654	-0.448153
417.424	-0.0850878
419.197	0.255092
420.967	-0.343275
422.739	0.489878
424.508	0.12528
426.279	0.22936
428.048	-0.136847
429.819	-0.362599
431.587	-0.0250969
433.356	0.406477
435.124	0.650542
436.891	0.354768
438.66	-0.176305
440.426	0.0423698
442.194	-0.421039
443.96	0.591081
445.725	0.428876
447.492	0.570067
449.257	0.00902271
451.021	0.0331001
452.787	0.0807333
454.551	-0.501325
456.314	0.152764
458.079	0.17688
459.842	-0.264434
461.604	-0.00696278
463.368	0.204981
465.13	-0.2318
466.891	0.170353
468.654	-0.0293446
470.415	0.656078
472.175	-0.192962
473.935	0.213643
475.696	0.0833864
477.456	0.300583
479.215	-0.0895166
480.973	0.334766
482.733	0.269958
484.491	0.811683
486.249	0.726307
488.006	0.619504
489.765	0.910944
491.522	0.176665
493.278	0.586537
495.034	0.693302
496.789	0.30859
498.544	0.344618
500.301	0.286495
502.056	0.509313
503.81	0.520275
505.564	0.53021
507.317	1.15031
509.071	0.428595
510.825	0.763849
512.578	0.580033
514.33	0.794851
516.082	0.443739
517.833	0.303375
519.585	1.079
521.335	0.678391
523.086	0.723909
524.836	0.675274
526.586	1.00199
528.335	0.929769
530.085	0.248214
531.835	0.0822964
533.584	0.196766
535.332	0.169725
537.08	1.0763
538.827	0.275574
540.574	0.898029
542.321	0.563282
544.068	0.415084
545.814	0.360132
547.56	0.444698
549.305	0.575625
551.05	0.359096
552.795	0.860245
554.54	0.644179
556.282	0.659624
558.025	0.398634
559.769	0.322868
561.512	0.454879
563.255	-0.378904
564.997	0.237075
566.739	0.508197
568.481	0.274609
570.223	0.661737
571.964	0.590974
573.705	0.154665
575.443	0.385136
577.183	0.433558
578.923	0.184735
580.663	0.00524235
582.402	0.37715
584.141	0.450079
585.879	0.016202
587.615	0.133085
589.353	0.0879211
591.09	-0.234158
592.828	0.0644999
594.564	0.339981
596.299	0.454421
598.035	0.637835
599.771	-0.28337
601.506	-0.100955
603.242	0.126344
604.974	0.0993814
606.709	0.324067
608.443	0.501846
610.177	0.495658
611.908	0.673375
613.642	0.163773
615.374	-0.482357
617.105	0.292589
618.837	-0.170177
620.569	-0.152719
622.3	-0.250685
624.03	0.153678
625.761	0.831545
627.491	0.733235
629.219	1.09319
630.949	0.724966
632.677	-0.554164
634.406	0.335452
636.135	0.129407
637.861	0.675205
639.59	-0.013876
641.318	0.161867
643.043	0.49482
644.77	0.165762
646.495	0.133245
648.222	0.556919
649.948	0.460222
651.672	0.0942078
653.398	0.390477
655.121	-0.174466
656.846	0.308886
658.569	-0.00374317
660.293	0.960428
662.015	0.531921
663.738	0.16931
665.46	0.30724
667.183	-0.0137453
668.903	0.213392
670.626	0.34963
672.346	0.716434
674.067	0.856773
675.787	0.517914
677.508	0.638396
679.226	0.552555
680.947	0.465711
682.665	0.699269
684.385	0.562943
686.102	0.839226
687.821	0.469325
689.538	0.512982
691.254	0.809381
692.972	0.851826
694.688	0.916625
696.406	0.589037
698.121	0.628905
699.835	0.897743
701.552	1.09626
703.266	0.650142
704.98	0.870029
706.695	1.0891
708.409	1.16987
710.121	0.952262
711.836	1.58173
713.548	0.974647
715.26	0.93977
716.973	1.0647
718.685	0.938569
720.396	0.67605
722.108	0.732907
723.818	1.19927
725.528	1.25552
727.238	0.675434
728.949	0.640624
730.658	1.35362
732.367	0.841874
734.075	0.579835
735.785	1.13203
737.493	0.938292
739.2	0.790621
740.907	0.644022
742.614	1.19696
744.322	0.917409
746.028	1.472
747.734	0.902621
749.439	1.30186
751.144	1.49975
752.849	1.36142
754.555	1.44928
756.26	1.04341
757.963	1.58423
759.667	1.49614
761.37	1.07078
763.073	1.38984
764.775	1.25757
766.477	1.48563
768.179	1.32802
769.883	1.62059
771.584	1.88877
773.285	2.26868
774.986	1.56273
776.686	2.25915
778.386	1.80361
780.085	1.57551
781.785	1.89128
783.484	2.45636
785.182	1.61723
786.881	1.34173
788.579	1.81037
790.276	1.59705
791.974	2.39859
793.671	1.93267
795.367	1.33199
797.064	1.52201
798.76	1.48796
800.456	1.45556
802.151	1.69443
803.846	1.95622
805.541	1.58824
807.234	2.11864
808.928	2.0635
810.622	1.55849
812.315	1.9279
814.008	1.69123
815.701	1.00699
817.394	1.86722
819.086	1.76505
820.778	2.33312
822.468	1.8073
824.159	2.13025
825.85	1.80787
827.541	1.73274
829.231	1.88282
830.921	2.30294
832.609	1.70109
834.298	1.76938
835.987	1.63795
837.676	2.42124
839.364	1.21702
841.051	2.22176
842.738	2.04168
844.426	1.65992
846.113	1.34562
847.798	1.83762
849.484	2.10858
851.171	1.26268
852.857	1.448
854.54	2.24037
856.226	1.93366
857.911	1.85016
859.593	1.24742
861.278	1.43031
862.961	1.8147
864.645	1.52214
866.327	0.867828
868.01	1.24987
869.692	1.33847
871.373	0.975676
873.055	1.44733
874.735	1.44521
876.416	0.991753
878.097	1.68925
879.776	1.77738
881.457	1.59429
883.135	1.1622
884.815	0.90977
886.495	0.70136
888.172	1.37167
889.851	1.22816
891.528	1.2638
893.206	0.780222
894.882	1.03896
896.56	1.54357
898.237	0.968333
899.912	1.35809
901.589	0.827607
903.263	1.17064
904.94	0.819813
906.614	1.60843
908.289	1.1472
909.962	0.999588
911.635	1.32025
913.31	1.24083
914.982	1.53938
916.656	1.7043
918.328	0.960209
920.001	0.881841
921.672	0.93683
923.345	0.815846
925.015	0.784787
926.685	0.821568
928.357	1.03634
930.026	0.766622
931.698	1.44632
933.366	0.82453
935.035	1.21769
936.705	0.773047
938.373	0.792334
940.041	1.34201
941.71	0.282515
943.377	0.900184
945.044	0.259994
946.712	1.16386
948.378	0.63144
950.044	1.20098
951.709	0.908704
953.376	0.572517
955.041	0.722898
956.706	0.655066
958.372	0.722302
960.036	0.990655
961.699	0.26677
963.362	0.425959
965.027	0.672462
966.69	0.939058
968.352	0.782917
970.014	1.02317
971.676	0.0239096
973.339	0.661856
975	0.991294
976.661	0.725214
978.322	0.836413
979.982	1.14743
981.642	1.45831
983.303	1.56885
984.962	0.880665
986.621	1.4745
988.28	1.13711
989.938	0.843109
991.596	1.34444
993.254	1.07198
994.911	1.28555
996.57	-0.0012188
998.227	0.719946
999.884	0.977322
1001.54	1.65245
1003.2	0.587748
1004.85	0.975661
1006.51	1.12118
1008.16	0.761532
1009.82	0.644058
1011.47	0.395544
1013.12	1.22163
1014.78	0.798599
1016.43	0.135591
1018.08	0.852177
1019.74	0.190928
1021.39	0.86472
1023.04	0.555492
1024.69	0.749876
1026.34	1.1414
1028	1.16144
1029.65	0.9843
1031.3	0.69697
1032.95	0.888738
1034.6	0.926132
1036.25	1.07125
1037.9	1.23718
1039.54	0.771505
1041.19	0.52463
1042.84	1.04001
1044.49	0.665585
1046.14	0.814433
1047.78	0.791154
1049.43	0.877925
1051.08	0.661757
1052.72	0.511418
1054.37	0.861132
1056.02	0.428572
1057.66	0.386896
1059.31	0.497005
1060.95	0.497881
1062.6	0.715546
1064.24	0.432312
1065.88	0.583057
1067.53	0.0807981
1069.17	0.0994759
1070.81	0.334769
1072.45	0.830222
1074.1	0.240785
1075.74	0.346737
1077.38	0.605567
1079.02	0.12813
1080.66	0.0850801
1082.3	0.627522
1083.94	0.388615
1085.58	0.473592
1087.22	0.773454
1088.86	0.183392
1090.5	0.890877
1092.14	0.796276
1093.78	0.399063
1095.42	0.326372
1097.05	0.297626
1098.69	0.57163
1100.33	0.523868
1101.96	0.262633
1103.6	1.33686
1105.24	0.390009
1106.87	0.519272
1108.51	0.519245
1110.14	0.561305
1111.78	0.494531
1113.41	0.361988
1115.05	0.378803
1116.68	0.202012
1118.31	0.668677
1119.95	-0.214394
1121.58	0.167705
1123.21	0.807155
1124.85	0.655361
1126.48	0.311938
1128.11	0.354276
1129.74	0.953125
1131.37	0.226851
1133	0.27056
1134.63	-0.177468
1136.26	0.122154
1137.89	-0.0920019
1139.52	-0.0933943
1141.15	0.0538483
1142.78	0.733991
1144.41	0.176534
1146.04	0.558193
1147.66	0.151886
1149.29	0.193978
1150.92	-0.232124
1152.55	-0.253396
1154.17	-0.0833149
1155.8	0.192764
1157.43	-0.254812
1159.05	0.148957
1160.68	0.255521
1162.3	0.426781
1163.93	0.386276
1165.55	-0.504248
1167.17	-0.544483
1168.8	0.00976181
1170.42	0.179868
1172.05	0.220772
1173.67	0.196451
1175.29	0.171117
1176.91	0.145379
1178.54	0.162204
1180.16	0.0949211
1181.78	-0.140751
1183.4	0.343234
1185.02	0.256222
1186.64	0.231903
1188.26	0.0585814
1189.88	0.0104256
1191.5	-0.102345
1193.12	0.645959
1194.74	0.36271
1196.36	0.4996
1197.97	0.197213
1199.59	-0.207538
1201.21	0.0172672
1202.83	-0.131936
1204.44	-0.132771
1206.06	-0.0484047
1207.68	0.183068
1209.29	0.477323
1210.91	-0.0216942
1212.52	-0.271615
1214.14	0.49799
1215.75	0.348518
1217.37	0.301785
1218.98	0.275058
1220.59	0.788013
1222.21	0.51246
1223.82	0.777221
1225.43	1.10501
1227.05	1.18544
1228.66	0.977516
1230.27	0.729552
1231.88	1.37164
1233.49	0.939876
1235.1	1.19132
1236.72	0.885808
1238.33	1.51143
1239.94	1.26947
1241.55	0.634582
1243.16	1.69557
1244.76	1.80444
1246.37	1.25019
1247.98	1.06748
1249.59	1.3393
1251.2	1.40389
1252.8	1.26182
1254.41	1.63751
1256.02	1.41436
1257.62	0.819924
1259.23	1.98515
1260.84	1.18547
1262.44	1.69024
1264.05	0.931779
1265.66	1.3329
1267.26	1.67143
1268.86	1.38728
1270.47	1.43387
1272.07	1.7283
1273.67	1.62784
1275.28	1.79594
1276.88	1.09277
1278.48	1.23862
1280.09	1.65299
1281.69	1.94253
1283.29	2.06642
1284.89	0.970641
1286.49	1.17881
1288.09	1.38779
1289.69	1.96952
1291.29	1.78706
1292.89	1.17069
1294.49	0.946353
1296.09	1.69168
1297.69	1.40284
1299.29	1.46352
1300.89	1.58461
1302.49	1.66316
1304.08	1.86418
1305.68	1.09785
1307.28	1.70866
1308.88	1.49729
1310.47	1.28637
1312.07	1.58804
1313.66	1.86934
1315.26	1.47673
1316.85	1.26942
1318.45	1.40977
1320.04	1.67216
1321.64	1.83147
1323.23	1.78558
1324.83	1.73818
1326.42	1.77079
1328.01	1.86361
1329.61	1.491
1331.2	1.48474
1332.79	2.08667
1334.38	1.98308
1335.97	1.73994
1337.56	1.33627
1339.16	1.8597
1340.75	1.35368
1342.34	2.29548
1343.93	1.22338
1345.52	2.2206
1347.11	1.3507
1348.7	1.06514
1350.29	1.6028
1351.87	1.34199
1353.46	1.44318
1355.05	1.14575
1356.64	1.46828
1358.22	1.07113
1359.81	0.952992
1361.4	1.09351
1362.98	0.993776
1364.57	1.09321
1366.16	0.774322
1367.74	1.17336
1369.33	1.39395
1370.91	0.958936
1372.5	0.843667
1374.08	1.58498
1375.67	1.07334
1377.25	0.502065
1378.83	1.3233
1380.41	1.06912
1382	1.01283
1383.58	0.915671
1385.16	0.83761
1386.74	1.11683
1388.33	1.01862
1389.91	0.722573
1391.49	0.308449
1393.07	0.490342
1394.65	0.67248
1396.23	0.775081
1397.81	0.797753
1399.39	0.423277
1400.97	0.919789
1402.55	0.940213
1404.13	0.742965
1405.7	0.744092
1407.28	0.647113
1408.86	0.86706
1410.44	0.395979
1412.01	1.30742
1413.59	1.52687
1415.17	0.679858
1416.74	0.937309
1418.32	1.15472
1419.89	0.8797
1421.47	0.566455
1423.04	0.471249
1424.62	0.554556
1426.19	0.914441
1427.77	0.802426
1429.34	1.12322
1430.91	1.22674
1432.49	1.13245
1434.06	1.31278
1435.63	1.19762
1437.2	1.63319
1438.78	1.38121
1440.35	1.95567
1441.92	1.98063
1443.49	2.45827
1445.06	1.81605
1446.63	1.46875
1448.2	1.59331
1449.77	1.89507
1451.34	2.00072
1452.91	1.91023
1454.48	1.97742
1456.05	2.2217
1457.62	2.26871
1459.18	1.7438
1460.75	1.27641
1462.32	1.45681
1463.89	1.45866
1465.45	1.34161
1467.02	1.75474
1468.59	1.53947
1470.15	0.775717
1471.72	0.798193
1473.28	0.703862
1474.85	1.25733
1476.41	0.967893
1477.98	1.07073
1479.54	0.977465
1481.1	0.923333
1482.67	0.614395
1484.23	0.383819
1485.79	0.172633
1487.36	0.117645
1488.92	0.551127
1490.48	0.708786
1492.04	0.84489
1493.61	0.275774
1495.17	0.291743
1496.73	0.73546
1498.29	0.282712
1499.85	0.667244
1501.41	0.64407
1502.97	0.466785
1504.53	0.271201
1506.09	0.966653
1507.65	0.519286
1509.2	0.0526829
1510.76	0.49314
1512.32	0.450029
1513.88	0.0987701
1515.43	0.132983
1516.99	0.839508
1518.55	0.451976
1520.1	0.985265
1521.66	0.178161
1523.22	0.290019
1524.77	0.649208
1526.33	-0.0801401
1527.88	0.829285
1529.44	0.899079
1530.99	0.512961
1532.54	0.488591
1534.1	0.389247
1535.65	0.480128
1537.21	0.949455
1538.76	0.833275
1540.31	0.472521
1541.86	0.884923
1543.42	0.430729
1544.97	1.31217
1546.52	1.13984
1548.07	1.11783
1549.62	0.927137
1551.17	1.46725
1552.72	1.14624
1554.27	1.27519
1555.82	1.21836
1557.37	1.10713
1558.92	1.2962
1560.47	0.796566
1562.02	1.28706
1563.56	1.06961
1565.11	1.24444
1566.66	1.62469
1568.21	2.19149
1569.75	1.67543
1571.3	1.70028
1572.85	0.959511
1574.39	1.30131
1575.94	1.28844
1577.49	1.70511
1579.03	1.84214
1580.57	1.83038
1582.12	1.76327
1583.66	1.02434
1585.21	1.51897
1586.75	1.24787
1588.3	1.76223
1589.84	1.13541
1591.38	1.68702
1592.92	1.58322
1594.47	1.8537
1596.01	1.65597
1597.55	1.40222
1599.09	2.03009
1600.63	2.09638
1602.17	2.10685
1603.71	1.64786
1605.25	2.25869
1606.79	1.23376
1608.33	0.996154
1609.87	1.58363
1611.41	1.24825
1612.95	1.51242
1614.49	1.56873
1616.03	0.949361
1617.57	1.66198
1619.1	1.13829
1620.64	1.57142
1622.18	1.35013
1623.72	2.45883
1625.25	1.37718
1626.79	1.38073
1628.32	1.49545
1629.86	1.36579
1631.39	1.55309
1632.93	1.75849
1634.46	1.72122
1636	1.57273
1637.53	1.35056
1639.07	1.35281
1640.6	1.89556
1642.13	2.49327
1643.67	2.12116
1645.2	1.87864
1646.73	2.1377
1648.26	2.32176
1649.8	2.09738
1651.33	1.70715
1652.86	1.78211
1654.39	2.21024
1655.92	1.73046
1657.45	2.1959
1658.98	2.25285
1660.51	2.77136
1662.04	2.52939
1663.57	2.1388
1665.1	2.22853
1666.63	2.42913
1668.16	2.42756
1669.68	2.24303
1671.21	2.2627
1672.74	2.3018
1674.27	1.65993
1675.79	1.36801
1677.32	2.01421
1678.85	1.99669
1680.37	1.94146
1681.9	1.33439
1683.42	1.46228
1684.95	0.782641
1686.47	0.947719
1688	1.18626
1689.52	0.80203
1691.05	1.05922
1692.57	0.62079
1694.09	0.713193
1695.62	0.567702
1697.14	0.623151
1698.66	0.568699
1700.18	0.586974
1701.71	0.331249
1703.23	0.786197
1704.75	0.930431
1706.27	0.619181
1707.79	0.417295
1709.31	0.197523
1710.83	0.649652
1712.35	0.357708
1713.87	0.156955
1715.39	0.553968
1716.91	0.226759
1718.43	0.134931
1719.95	0.566867
1721.47	0.384754
1722.99	0.221373
1724.5	0.221115
1726.02	0.149791
1727.54	0.277514
1729.06	-0.0259981
1730.57	0.193203
1732.09	0.409272
1733.61	0.128643
1735.12	0.129773
1736.64	0.43925
1738.15	0.1415
1739.67	0.1227
1741.18	0.256398
1742.7	0.34374
1744.21	0.268751
1745.72	0.325516
1747.24	0.481179
1748.75	0.218356
1750.26	0.112875
1751.77	0.256393
1753.29	0.459449
1754.8	0.42256
1756.31	0.4017
1757.82	0.0331178
1759.33	-0.151423
1760.84	0.181932
1762.36	-0.0074954
1763.87	-0.0202799
1765.38	-0.157154
1766.89	0.0359964
1768.4	-0.0194235
1769.91	0.103177
1771.41	0.1667
1772.92	0.333989
1774.43	-0.0753441
1775.94	-0.0908508
1777.45	-0.0151725
1778.95	0.222559
1780.46	0.148295
1781.97	0.356171
1783.48	0.227181
1784.98	0.232116
1786.49	0.159081
1787.99	0.108
1789.5	0.0233712
1791.01	0.128506
1792.51	0.108927
1794.01	0.0884318
1795.52	0.0264626
1797.02	-0.00528002
1798.53	-0.0387173
1800.03	0.290035
1801.53	0.313576
1803.04	-0.14969
1804.54	0.325915
1806.04	0.325172
1807.54	0.0215816
1809.05	0.337845
1810.55	-0.0932345
1812.05	0.27216
1813.55	0.534959
1815.05	0.0371985
1816.55	0.10376
1818.05	0.134985
1819.55	-0.0182223
1821.05	-0.264612
1822.55	0.164831
1824.05	0.197381
1825.55	-0.144908
1827.05	-0.0287204
1828.55	0.0974536
1830.04	0.0771542
1831.54	0.0495572
1833.04	0.0635681
1834.54	-0.0627809
1836.03	-0.0143976
1837.53	-0.0494518
1839.03	0.355745
1840.52	0.0970445
1842.02	0.0841208
1843.51	0.207595
1845.01	0.193066
1846.5	-0.0480723
1848	0.352899
1849.49	0.326152
1850.99	0.19225
1852.48	0.192518
1853.97	-0.206671
1855.47	0.0515451
1856.96	0.105553
1858.45	-0.131341
1859.94	-0.094687
1861.44	-0.139716
1862.93	0.0245199
1864.42	-0.229643
1865.91	0.303489
1867.4	0.091289
1868.89	0.478017
1870.38	0.376538
1871.87	-0.0159802
1873.36	-0.0554256
1874.85	0.160595
1876.34	0.351275
1877.83	0.163599
1879.32	-0.222394
1880.81	-0.0829067
1882.3	-0.0223274
1882.57	-0.018734
1884.07	0.313325
1885.56	0.121771
1887.06	-0.314088
1888.55	0.207564
1890.04	0.119875
1891.54	0.24169
1893.03	-0.0700421
1894.52	0.262876
1896.02	0.197031
1897.51	0.201317
1899	-0.211998
1900.49	-0.104258
1901.98	-0.119444
1903.47	0.420612
1904.96	0.263866
1906.45	0.436793
1907.94	-0.0677042
1909.43	0.123003
1910.92	-0.0154352
1912.41	0.0376525
1913.9	0.0217328
1915.39	0.144586
1916.88	0.388489
1918.37	0.354545
1919.85	0.0430589
1921.34	-0.562738
1922.83	-0.302112
1924.32	-0.11026
1925.8	0.307386
1927.29	-0.070559
1928.78	-0.119161
1930.26	0.0572882
1931.75	-0.390258
1933.23	-0.215416
1934.72	0.460086
1936.2	0.147614
1937.69	0.301455
1939.17	0.247423
1940.66	0.0382876
1942.14	-0.0319314
1943.63	0.157405
1945.11	0.123037
1946.59	0.485434
1948.07	0.382108
1949.56	0.243827
1951.04	0.587009
1952.52	-0.0689006
1954	0.221354
1955.48	-0.00433636
1956.96	-0.023385
1958.45	0.146855
1959.93	0.111594
1961.41	0.111037
1962.89	0.282006
1964.37	-0.0612979
1965.85	0.00632286
1967.32	0.00491333
1968.8	0.0714493
1970.28	0.479313
1971.76	-0.0530024
1973.24	0.507726
1974.72	0.402558
1976.19	-0.0602455
1977.67	0.295232
1979.15	0.156695
1980.63	-0.0157099
1982.1	-0.137021
1983.58	0.217216
1985.05	0.0445156
1986.53	0.601158
1988	0.428226
1989.48	0.357394
1990.95	-0.085124
1992.43	0.200807
1993.9	0.081449
1995.38	0.0472579
1996.85	0.587767
1998.32	-0.0205126
1999.8	-0.0715909
2001.27	-0.22431
2002.74	-0.276035
2004.22	-0.159227
2005.69	0.143048
2007.16	0.344543
2008.63	0.125639
2010.1	0.345168
2011.57	0.379838
2013.04	0.145219
2014.51	0.129111
2015.98	0.129263
2017.45	0.280112
2018.92	0.19488
2020.39	0.310949
2021.86	0.225278
2023.33	0.0895805
2024.8	0.508248
2026.27	-0.229853
2027.74	0.475685
2029.2	0.125608
2030.67	0.145465
2032.14	-0.0521531
2033.61	0.304409
2035.07	0.224554
2036.54	0.513932
2038.01	0.332566
2039.47	0.28527
2040.94	0.0866213
2042.4	0.644804
2043.87	-0.0912623
2045.33	0.249681
2046.8	0.423126
2048.26	-0.279002
2049.72	-0.139418
2051.19	0.218771
2052.65	0.00264406
2054.12	0.324866
2055.58	0.308511
2057.04	0.729446
2058.5	0.256399
2059.97	0.171027
2061.43	0.422761
2062.89	-0.08253
2064.35	0.321896
2065.81	0.47452
2067.27	0.711908
2068.73	0.36068
2070.19	0.177921
2071.65	0.180336
2073.11	0.620413
2074.57	0.285772
2076.03	0.16975
2077.49	0.238697
2078.95	0.492581
2080.41	0.47667
2081.87	0.595025
2083.32	0.763321
2084.78	0.426123
2086.24	0.290458
2087.7	0.3394
2089.15	0.0350742
2090.61	0.503559
2092.07	0.216033
2093.52	0.532782
2094.98	0.630972
2096.43	1.04709
2097.89	0.691714
2099.34	0.63761
2100.8	0.600073
2102.25	0.278708
2103.71	0.409252
2105.16	0.707467
2106.61	0.622746
2108.07	0.989169
2109.52	1.0555
2110.97	0.854629
2112.43	0.852811
2113.88	0.94958
2115.33	0.928491
2116.78	0.723887
2118.23	0.885309
2119.68	1.2467
2121.13	0.846096
2122.59	1.06092
2124.04	1.32653
2125.49	0.962499
2126.94	0.89673
2128.39	0.631277
2129.83	1.04431
2131.28	0.760383
2132.73	1.6017
2134.18	1.05247
2135.63	1.39731
2137.08	1.44554
2138.53	1.44569
2139.97	1.49697
2141.42	1.51653
2142.87	1.40477
2144.31	1.77319
2145.76	1.28139
2147.21	1.43465
2148.65	1.47156
2150.1	1.73971
2151.54	1.79171
2152.99	1.47835
2154.43	1.72765
2155.88	1.71147
2157.32	1.9107
2158.77	1.77924
2160.21	1.89738
2161.65	1.71876
2163.1	2.3042
2164.54	2.19486
2165.98	2.00305
2167.43	2.10992
2168.87	2.09961
2170.31	1.80499
2171.75	1.69139
2173.19	1.8756
2174.64	2.6408
2176.07	2.20786
2177.52	1.69214
2178.96	1.7757
2180.4	2.32559
2181.84	2.01168
2183.28	2.46316
2184.72	2.23308
2186.15	2.05287
2187.59	1.67294
2189.03	2.22487
2190.47	1.9447
2191.91	1.83068
2193.35	1.74928
2194.78	1.7167
2196.22	1.96556
2197.66	1.68014
2199.09	1.52662
2200.53	1.80444
2201.97	1.35126
2203.4	1.46334
2204.84	1.74197
2206.27	1.19252
2207.71	1.43912
2209.14	0.758035
2210.58	1.11969
2212.01	1.08317
2213.45	1.04612
2214.88	0.926447
2216.31	1.17054
2217.75	1.38225
2219.18	0.968111
2220.61	1.34622
2222.05	1.18032
2223.48	0.86567
2224.91	1.06068
2226.34	1.106
2227.78	1.1335
2229.21	0.404496
2230.64	0.857607
2232.07	0.457486
2233.5	0.451292
2234.93	1.05063
2236.36	0.587894
2237.79	0.992275
2239.22	0.581826
2240.65	0.613587
2242.08	0.434636
2243.5	0.794813
2244.93	0.519129
2246.36	0.830125
2247.79	0.487505
2249.22	0.420631
2250.64	0.710612
2252.07	0.836065
2253.5	0.570402
2254.92	0.175502
2256.35	0.28553
2257.78	0.640502
2259.2	0.754022
2260.63	0.691272
2262.05	0.273198
2263.48	0.846553
2264.9	0.705722
2266.33	0.694525
2267.75	0.617629
2269.18	0.21448
2270.6	0.526794
2272.02	0.757483
2273.45	0.222684
2274.87	0.420762
2276.29	0.488732
2277.71	0.63835
2279.14	0.380524
2280.56	0.448652
2281.98	0.304677
2283.4	0.388978
2284.82	0.440709
2286.24	0.508951
2287.66	0.593829
2289.08	0.581088
2290.5	0.192803
2291.92	0.474635
2293.34	-0.109997
2294.76	0.0902004
2296.18	0.061348
2297.6	0.343569
2299.02	0.478623
2300.44	0.335302
2301.86	0.257643
2303.27	0.360578
2304.69	0.0369372
2306.11	0.451959
2307.53	0.522073
2308.94	0.411025
2310.36	0.398118
2311.78	0.187526
2313.19	0.421049
2314.61	-0.184429
2316.02	0.296934
2317.44	0.400375
2318.85	0.438303
2320.27	0.278155
2321.68	0.199551
2323.1	0.598166
2324.51	0.285453
2325.92	0.515673
2327.34	0.596068
2328.75	0.675826
2330.16	0.294469
2331.58	0.325731
2332.99	-0.119504
2334.4	0.324595
2335.81	0.308045
2337.23	0.307607
2338.64	0.142056
2340.05	0.0744305
2341.46	0.482445
2342.87	-0.0622349
2344.28	0.558151
2345.69	-0.0512233
2347.1	-0.348444
2348.51	-0.0069108
2349.92	0.0558343
2351.33	0.248706
2352.74	0.260906
2354.15	-0.0212841
2355.55	-0.00999546
2356.96	-0.0315142
2358.37	-0.0530114
2359.78	0.201816
2361.19	0.326335
2362.59	-0.0195775
2364	-0.0571327
2365.41	-0.19171
2366.81	-0.0834618
2368.22	0.154145
2369.62	0.00491095
2371.03	0.0502615
2372.44	0.434792
2373.84	0.433205
2375.24	0.303118
2376.65	-0.132831
2378.05	-0.134923
2379.46	-0.282671
2380.86	0.162653
2382.26	0.557961
2383.67	0.150944
2385.07	0.208625
2386.47	0.098712
2387.88	-0.0103078
2389.28	-0.0624738
2390.68	-0.113688
2392.08	-0.148107
2393.48	0.025034
2394.89	0.0236344
2396.29	0.213499
2397.69	0.00636482
2399.09	-0.00958586
2400.49	0.0224695
2401.89	0.292981
2403.29	0.182292
2404.69	-0.103288
2406.09	0.245605
2407.48	0.101717
2408.88	-0.391494
2410.28	0.0824909
2411.68	0.112556
2413.08	0.301545
2414.48	-0.141946
2415.87	-0.0776992
2417.27	0.129936
2418.67	-0.184279
2420.06	0.293499
2421.46	-0.0998487
2422.86	-0.00244856
2424.25	0.237395
2425.65	0.223805
2427.04	0.178893
2428.44	0.340688
2429.83	0.138503
2431.23	-0.0951056
2432.62	0.0204148
2434.02	0.453302
2435.41	0.456719
2436.81	0.188933
2438.2	0.142469
2439.59	0.174533
2440.99	-0.206933
2442.38	0.0623364
2443.77	-0.144823
2445.16	0.187345
2446.56	-0.115045
2447.95	0.343402
2449.34	-0.133121
2450.73	0.0400887
2452.12	0.213544
2453.51	0.0709944
2454.9	0.324617
2456.29	-0.101528
2457.68	0.484944
2459.07	-0.0833988
2460.46	0.170331
2461.85	0.360146
2463.24	-0.0355172
2464.63	-0.146906
2466.02	0.10482
2467.4	0.103705
2468.79	-0.0394459
2470.18	0.0854945
2471.57	-0.452024
2472.95	0.129066
2474.34	-0.0467453
2475.73	0.0761256
2477.12	0.544319
2478.5	-0.0718508
2479.89	0.207504
2481.27	0.251355
2482.66	0.263753
2484.04	0.307094
2485.43	0.255877
2486.81	0.25081
2488.2	0.0265174
2489.58	-0.0730567
2490.97	-0.203586
2492.35	0.132897
2493.73	-0.0585442
2495.12	-0.279687
2496.5	0.166864
2497.88	-0.0836353
2499.27	-0.209789
2500.65	0.26721
2502.03	0.109281
2503.41	-0.0336223
2504.79	0.0545039
2506.17	0.0341678
2507.56	0.0906668
2508.94	-0.237184
2510.32	-0.041904
2511.7	0.199458
2513.08	0.011745
2514.46	0.0546904
2515.84	0.0981884
2517.22	0.0656953
2518.59	0.125351
2519.97	-0.16639
2521.35	0.137616
2522.73	0.120279
2524.11	0.102376
2525.49	-0.251273
2526.86	-0.360874
2528.24	-0.241786
2529.62	-0.122124
2530.99	-0.031908
2532.37	0.150578
2533.75	-0.106632
2535.12	0.138024
2536.5	0.0484009
2537.88	-0.0112996
2539.25	-0.314636
2540.63	0.0496845
2542	0.125158
2543.38	0.261489
2544.75	-0.0566955
2546.12	0.232784
2547.5	0.174256
2548.87	0.101142
2550.24	-0.0630069
2551.62	0.000103951
2552.99	0.320591
2554.36	0.109191
2555.74	0.185496
2557.11	0.0793762
2558.48	-0.239043
2559.85	0.00378609
2561.22	-0.192648
2562.59	0.384294
2563.96	0.294805
2565.34	0.357174
2566.71	0.146947
2568.08	-0.123848
2569.45	-0.000603676
2570.82	0.259074
2572.18	0.39755
2573.55	0.38453
2574.92	0.0683804
2576.29	0.00995016
2577.66	0.0879178
2579.03	-0.10719
2580.4	0.0310445
2581.77	-0.0281129
2583.13	0.109585
2584.5	0.0955048
2585.87	-0.3885
2587.23	-0.220584
2588.6	0.129297
2589.97	0.100351
2591.33	0.0561662
2592.7	0.390452
2594.06	0.224142
2595.43	0.223773
2596.79	-0.0800428
2598.16	-0.217673
2599.52	-0.173956
2600.89	0.187098
2602.25	0.472612
2603.62	0.0186954
2604.98	0.0333104
2606.34	-0.0877113
2607.71	0.0776215
2609.07	0.0613661
2610.43	0.0141664
2611.79	0.0413775
2613.16	-0.0525346
2614.52	-0.0716796
2615.88	-0.225987
2617.24	0.0399051
2618.6	0.0660987
2619.96	0.197535
2621.32	0.254532
2622.68	0.0876999
2624.04	0.145233
2625.4	0.068356
2626.76	-0.112972
2628.12	0.122962
2629.48	-0.0883412
2630.84	0.131999
2632.2	-0.18324
2633.56	-0.200929
2634.92	0.0633893
2636.28	0.149312
2637.63	0.220275
2638.99	0.0690846
2640.35	-0.170514
2641.71	0.196542
2643.06	0.0314522
2644.42	0.39816
2645.77	0.115211
2647.13	0.00927782
2648.49	0.0356007
2649.84	0.355623
2651.2	-0.148683
2652.55	0.038053
2653.91	0.136557
2655.26	0.0888429
2656.62	0.305606
2657.97	0.156993
2659.33	0.287125
2660.68	0.124986
2662.03	-0.0370979
2663.39	-0.0241466
2664.74	0.469901
2666.09	0.291797
2667.44	0.0262036
2668.8	0.22695
2670.15	0.38393
2671.5	-0.0550346
2672.85	-0.17331
2674.2	0.0865393
2675.55	0.201375
2676.91	0.316516
2678.26	0.200001
2679.61	0.127656
2680.96	-0.0889058
2682.31	-0.145153
2683.66	0.147406
2685	0.223193
2686.35	-0.0198741
2687.7	0.041574
2689.05	0.116757
2690.4	0.118204
2691.75	-0.0702858
2693.1	0.0595078
2694.44	0.116034
2695.79	0.070951
2697.14	0.0698118
2698.49	0.214386
2699.83	0.0560226
2701.18	0.159513
2702.52	-0.257376
2703.87	0.239057
2705.22	0.0983777
2706.56	0.146167
2707.91	0.0922389
2709.25	0.488013
2710.6	0.0415335
2711.94	0.0739594
2713.29	0.00458908
2714.63	0.458432
2715.97	-0.0326085
2717.32	0.0868282
2718.66	0.162516
2720.01	0.0924735
2721.35	0.21129
2722.69	0.184254
2724.03	0.200553
2725.38	0.0273318
2726.72	-0.262573
2728.06	-0.261567
2729.4	0.190407
2730.74	0.365723
2732.08	0.482785
2733.42	0.0325618
2734.76	0.338921
2736.1	0.165408
2737.44	0.0210981
2738.78	0.22582
2740.12	0.284923
2741.46	0.111036
2742.8	0.111212
2744.14	0.38703
2745.48	0.284519
2746.82	0.341524
2748.16	0.180632
2749.49	0.106966
2750.83	0.425083
2752.17	-0.0977144
2753.51	0.452467
2754.84	0.162114
2756.18	-0.127963
2757.52	-0.0268111
2758.85	-0.128197
2760.19	0.306222
2761.53	0.162006
2762.86	-0.0107865
2764.2	0.0626273
2765.53	0.208358
2766.87	0.107805
2768.2	0.266994
2769.54	0.266135
2770.87	0.105299
2772.2	0.102577
2773.54	0.128014
2774.87	0.239542
2776.2	0.27884
2777.54	0.145641
2778.87	0.0561767
2780.2	0.21149
2781.53	0.194489
2782.87	0.206274
2784.2	0.0028863
2785.53	0.301366
2786.86	0.141282
2788.19	0.0819468
2789.52	0.166289
2790.85	0.0938611
2792.18	-0.249652
2793.51	0.093451
2794.84	-0.120954
2796.17	0.464649
2797.5	0.349624
2798.83	-0.322555
2800.16	-0.223778
2801.49	-0.0111446
2802.82	-0.198066
2804.15	0.0425382
2805.47	-0.00226593
2806.8	-0.0901237
2808.13	-0.00760746
2809.46	-0.0960274
2810.78	0.0145268
2812.11	0.111148
2813.44	0.208437
2814.76	-0.161209
2816.09	-0.0194168
2817.42	0.264812
2818.74	0.209253
2820.07	0.139515
2821.39	0.211198
2822.72	-0.00101614
2824.04	0.0839534
2825.37	-0.029644
2826.69	-0.157313
2828.02	0.0127325
2829.34	-0.00093174
2830.66	0.0989594
2831.99	0.241444
2833.31	0.114929
2834.63	0.568511
2835.96	0.328198
2837.28	0.384723
2838.6	0.299465
2839.92	0.214115
2841.24	0.595437
2842.57	0.439748
2843.89	0.906409
2845.21	0.779951
2846.53	0.752855
2847.85	0.937997
2849.17	1.02423
2850.49	1.30812
2851.81	1.43617
2853.13	1.22464
2854.45	1.15417
2855.77	1.36617
2857.09	1.22493
2858.41	1.25326
2859.72	1.50752
2861.04	1.39445
2862.36	1.67647
2863.68	1.68991
2865	1.59028
2866.31	1.73049
2867.63	1.94133
2868.95	2.2088
2870.26	2.16634
2871.58	2.84288
2872.9	2.08146
2874.21	2.2638
2875.53	2.52974
2876.84	2.38635
2878.16	2.21434
2879.47	2.50639
2880.79	2.4751
2882.1	2.26182
2883.42	2.45677
2884.73	2.66636
2886.05	2.18845
2887.36	2.46865
2888.67	2.15906
2889.99	2.49431
2891.3	2.46412
2892.61	2.98008
2893.92	2.68296
2895.24	3.1145
2896.55	2.45458
2897.86	3.11121
2899.17	3.05482
2900.48	2.85916
2901.79	3.16745
2903.11	2.8604
2904.42	3.22485
2905.73	3.09996
2907.04	3.78676
2908.35	3.80284
2909.66	3.56775
2910.97	3.85081
2912.27	4.16194
2913.58	3.67454
2914.89	3.99796
2916.2	4.34795
2917.51	4.7385
2918.82	4.3445
2920.13	4.53805
2921.43	4.6901
2922.74	4.74525
2924.05	5.48646
2925.35	5.18025
2926.66	5.71326
2927.97	5.1699
2929.27	5.31117
2930.58	5.42399
2931.89	5.08905
2933.19	5.53669
2934.5	6.05411
2935.8	5.66312
2937.11	5.45399
2938.41	5.51053
2939.72	5.30181
2941.02	5.23325
2942.32	5.47285
2943.63	5.25232
2944.93	4.44568
2946.24	5.10795
2947.54	4.484
2948.84	4.69914
2950.14	4.24138
2951.45	4.37008
2952.75	4.04913
2954.05	4.44113
2955.35	4.42675
2956.65	4.1472
2957.95	3.39341
2959.26	3.97156
2960.56	3.38966
2961.86	3.74784
2963.16	3.61608
2964.46	3.39938
2965.76	3.47629
2967.06	3.67844
2968.36	3.50008
2969.66	3.19444
2970.96	3.0292
2972.25	3.15954
2973.55	3.2339
2974.85	3.25194
2976.15	2.9597
2977.45	2.63818
2978.74	2.49837
2980.04	2.48397
2981.34	2.46856
2982.64	2.4246
2983.93	2.29656
2985.23	2.07106
2986.52	2.14186
2987.82	2.08725
2989.12	1.7804
2990.41	1.78285
2991.71	1.89735
2993	1.91265
2994.3	1.6319
2995.59	1.67348
2996.89	1.25117
2998.18	1.5307
2999.48	1.31921
3000.77	1.47281
3002.06	1.20621
3003.36	0.982097
3004.65	0.730135
3005.94	0.730182
3007.23	0.799765
3008.53	0.700777
3009.82	0.629221
3011.11	0.836656
3012.4	0.708387
3013.69	0.482648
3014.99	0.759339
3016.28	0.855023
3017.57	0.575206
3018.86	0.532582
3020.15	0.601275
3021.44	0.780719
3022.73	0.639839
3024.02	0.664958
3025.31	0.800368
3026.6	0.422892
3027.89	0.40621
3029.18	0.321185
3030.46	0.209654
3031.75	0.237315
3033.04	0.348459
3034.33	0.459705
3035.62	0.584236
3036.9	0.638725
3038.19	0.581594
3039.48	0.413082
3040.76	0.724854
3042.05	0.856671
3043.34	0.57691
3044.62	0.462755
3045.91	0.0765829
3047.19	0.402944
3048.48	0.443758
3049.77	0.267646
3051.05	0.488401
3052.34	0.573205
3053.62	0.671607
3054.9	0.251071
3056.19	0.51188
3057.47	0.635362
3058.76	0.444761
3060.04	0.55371
3061.32	0.85328
3062.61	0.731606
3063.89	0.597431
3065.17	0.491599
3066.45	0.577075
3067.74	0.581665
3069.02	0.450509
3070.3	0.536699
3071.58	0.717436
3072.86	0.434852
3074.14	0.450549
3075.42	0.384018
3076.7	0.0457044
3077.99	0.250913
3079.26	0.0224943
3080.54	0.527698
3081.82	0.152175
3083.1	0.415059
3084.38	0.230696
3085.66	0.48056
3086.94	0.214354
3088.22	0.17833
3089.5	0.0060854
3090.78	0.145651
3092.05	0.000142097
3093.33	0.166729
3094.61	0.414787
3095.89	0.0527821
3097.16	0.260281
3098.44	0.115237
3099.72	0.0649796
3100.99	0.380398
3102.27	-0.0220804
3103.54	-0.0586405
3104.82	-0.0948682
3106.1	-0.103555
3107.37	0.0777946
3108.65	-0.0514469
3109.92	-0.11236
3111.2	-0.0237436
3112.47	0.25504
3113.74	-0.238101
3115.02	0.230824
3116.29	0.130159
3117.56	0.218697
3118.84	0.33358
3120.11	0.162831
3121.38	0.601552
3122.66	0.402546
3123.93	0.338996
3125.2	0.00480461
3126.47	0.239593
3127.74	0.163389
3129.01	0.249847
3130.29	0.268862
3131.56	0.112183
3132.83	0.212191
3134.1	0.217268
3135.37	0.302937
3136.64	0.455513
3137.91	0.243472
3139.18	-0.332253
3140.45	0.250304
3141.72	0.159504
3142.99	0.337734
3144.26	0.193772
3145.52	0.117495
3146.79	0.269629
3148.06	0.395194
3149.33	0.467423
