200.43	0.486456
202.244	0.484447
204.059	0.483751
205.873	0.55715
207.688	0.849858
209.501	0.486089
211.314	0.0977869
213.127	0.51017
214.941	0.484769
216.753	0.5319
218.564	0.0706749
220.375	0.530577
222.186	0.192727
223.999	1.06511
225.809	0.463334
227.618	0.200599
229.428	0.276095
231.236	0.665087
233.045	0.715963
234.855	0.309205
236.663	0.0968857
238.471	0.368659
240.278	0.0642786
242.085	0.0753517
243.891	0.184308
245.698	0.583212
247.503	-0.0326347
249.309	-0.167776
251.116	0.105248
252.921	0.0381651
254.725	0.162872
256.529	0.118513
258.333	-0.286419
260.136	0.0332222
261.939	0.788154
263.742	0.316129
265.544	0.592087
267.346	0.290275
269.148	0.615029
270.949	0.0473537
272.75	0.057456
274.55	-0.126303
276.351	0.436099
278.15	0.804015
279.95	0.0379934
281.749	0.450705
283.548	0.596787
285.346	-0.0513573
287.144	0.981354
288.942	0.741335
290.739	0.909833
292.536	0.600683
294.333	-0.280557
296.129	-0.131377
297.925	-0.124671
299.721	0.0737505
301.514	0.00931835
303.309	0.0398922
305.104	-0.26455
306.898	0.527835
308.692	-0.254033
310.486	-0.0338211
312.279	0.616022
314.072	0.600368
315.862	0.0626526
317.654	0.407705
319.446	0.897366
321.238	0.196937
323.029	-0.00258923
324.819	-0.0109491
326.608	-0.616034
328.398	0.0204496
330.188	0.442119
331.977	0.217552
333.766	0.0871544
335.553	0.720737
337.341	0.586721
339.129	0.618425
340.917	0.0987606
342.704	0.702384
344.489	0.254196
346.275	-0.408072
348.062	-0.0425034
349.845	0.156286
351.631	0.235791
353.416	0.458055
355.201	0.249987
356.984	0.0410213
358.768	0.450802
360.552	-0.474462
362.333	0.0524797
364.116	0.958483
365.899	-0.228232
367.68	0.224311
369.462	0.509329
371.243	0.437763
373.023	-0.273013
374.804	0.199193
376.585	0.103901
378.363	-0.36796
380.143	0.41048
381.923	0.411869
383.7	-0.455817
385.479	0.347759
387.256	-0.0702114
389.034	0.241352
390.812	0.107442
392.588	0.162204
394.365	0.522856
396.14	0.296789
397.916	0.164809
399.691	0.197126
401.467	-0.217135
403.24	-0.0446825
405.015	-0.107674
406.788	-0.171235
408.563	0.187377
410.335	0.05266
412.109	0.52825
413.88	0.8633
415.654	0.00235558
417.424	0.315364
419.197	0.253566
420.967	-0.206985
422.739	-0.174867
424.508	0.420151
426.279	-0.065443
428.048	0.105612
429.819	0.205846
431.587	0.094821
433.356	0.476973
435.124	0.178829
436.891	0.0919285
438.66	0.0514336
440.426	-0.177954
442.194	0.763978
443.96	0.507499
445.725	0.577674
447.492	0.459421
449.257	0.294206
451.021	0.269565
452.787	0.33865
454.551	0.734409
456.314	0.337127
458.079	0.615734
459.842	0.0795174
461.604	0.358565
463.368	0.290006
465.13	0.502415
466.891	-0.212111
468.654	0.00510883
470.415	0.154352
472.175	0.490491
473.935	0.244342
475.696	0.415721
477.456	0.375639
479.215	0.590171
480.973	0.384524
482.733	-0.170312
484.491	0.184166
486.249	0.21424
488.006	0.595802
489.765	0.769766
491.522	0.174626
493.278	0.770638
495.034	-0.222327
496.789	0.421371
498.544	0.691142
500.301	0.492002
502.056	0.315414
503.81	0.161277
505.564	0.54654
507.317	0.319643
509.071	0.138275
510.825	0.261345
512.578	0.830186
514.33	0.715307
516.082	0.458086
517.833	0.693809
519.585	0.246742
521.335	0.504314
523.086	0.784683
524.836	0.99415
526.586	0.523071
528.335	1.10761
530.085	0.261956
531.835	0.353729
533.584	0.538342
535.332	0.791857
537.08	0.272508
538.827	0.0564365
540.574	0.259596
542.321	0.205379
544.068	0.197487
545.814	0.514885
547.56	0.692428
549.305	-0.0343208
551.05	0.352253
552.795	0.483693
554.54	0.407063
556.282	0.307751
558.025	0.370379
559.769	0.433317
561.512	0.473611
563.255	0.629355
564.997	0.164785
566.739	0
568.481	0.616638
570.223	-0.280971
571.964	0.383172
573.705	-0.144364
575.443	-0.142822
577.183	0.364903
578.923	0.0936012
580.663	0.00644112
582.402	0.126099
584.141	0.337388
585.879	-0.187965
587.615	0.113483
589.353	0.137943
591.09	0.437702
592.828	0.460906
594.564	0.230876
596.299	-0.32122
598.035	0.0929413
599.771	-0.0913649
601.506	-0.207309
603.242	-0.370223
604.974	0.155494
606.709	0.243059
608.443	0.536498
610.177	0.0720806
611.908	0.617839
613.642	0.131992
615.374	0.449273
617.105	0.124979
618.837	-0.0162773
620.569	0.597086
622.3	0.545263
624.03	0.0584078
625.761	0.554474
627.491	-0.0678902
629.219	0.201952
630.949	0.359507
632.677	0.838266
634.406	0.656237
636.135	0.291268
637.861	0.655288
639.59	0.514791
641.318	0.303413
643.043	-0.0464854
644.77	0.445584
646.495	0.391035
648.222	0.42904
649.948	0.265141
651.672	-0.0545588
653.398	0.537979
655.121	0.542618
656.846	0.845259
658.569	0.306005
660.293	0.541085
662.015	0.661079
663.738	0.962079
665.46	1.19262
667.183	0.918431
668.903	0.437575
670.626	0.894987
672.346	0.0727978
674.067	0.534124
675.787	0.700008
677.508	0.523159
679.226	0.667621
680.947	0.0299129
682.665	0.540001
684.385	0.611571
686.102	0.497242
687.821	0.657873
689.538	1.09401
691.254	1.09185
692.972	0.605387
694.688	0.394727
696.406	0.9432
698.121	0.684622
699.835	0.609225
701.552	0.693875
703.266	0.823564
704.98	0.516066
706.695	0.0708456
708.409	1.02481
710.121	0.670847
711.836	0.706326
713.548	1.3133
715.26	0.867774
716.973	1.19926
718.685	0.891514
720.396	0.789572
722.108	1.37108
723.818	0.927772
725.528	0.25778
727.238	0.724365
728.949	1.03088
730.658	1.06439
732.367	1.02953
734.075	0.926675
735.785	1.00486
737.493	0.654172
739.2	1.29733
740.907	0.85823
742.614	1.25427
744.322	0.570344
746.028	1.19347
747.734	1.45742
749.439	1.40752
751.144	0.863976
752.849	1.3337
754.555	0.994843
756.26	1.42224
757.963	1.06329
759.667	1.22337
761.37	0.978817
763.073	1.29843
764.775	1.48283
766.477	1.48573
768.179	1.55483
769.883	1.39592
771.584	1.77787
773.285	1.66103
774.986	1.81509
776.686	1.13301
778.386	1.22078
780.085	1.49079
781.785	1.64881
783.484	1.85234
785.182	1.67018
786.881	1.25954
788.579	1.38946
790.276	1.51643
791.974	1.55043
793.671	1.83128
795.367	1.2541
797.064	1.3774
798.76	1.9298
800.456	1.3352
802.151	1.59735
803.846	1.85988
805.541	1.71744
807.234	1.68675
808.928	2.30628
810.622	1.6672
812.315	2.12698
814.008	1.71166
815.701	1.81169
817.394	2.24701
819.086	1.74298
820.778	1.68655
822.468	2.34454
824.159	1.95431
825.85	1.76641
827.541	1.60283
829.231	1.82032
830.921	1.88459
832.609	1.43901
834.298	1.37383
835.987	2.33547
837.676	1.46804
839.364	1.84909
841.051	1.89399
842.738	1.17806
844.426	1.57869
846.113	1.91299
847.798	1.82422
849.484	1.44667
851.171	1.89925
852.857	1.99577
854.54	2.1831
856.226	1.69685
857.911	1.56836
859.593	1.34818
861.278	1.1261
862.961	0.969961
864.645	0.902745
866.327	1.60118
868.01	1.3749
869.692	0.990238
871.373	1.37211
873.055	1.55086
874.735	0.669086
876.416	1.00568
878.097	1.0941
879.776	1.76935
881.457	0.683565
883.135	1.71917
884.815	1.309
886.495	1.01058
888.172	1.41041
889.851	0.951566
891.528	1.28076
893.206	0.594933
894.882	1.59681
896.56	1.20216
898.237	1.61585
899.912	0.951095
901.589	0.39919
903.263	1.23555
904.94	0.81809
906.614	1.16078
908.289	0.990375
909.962	1.51146
911.635	1.78752
913.31	1.01908
914.982	1.07397
916.656	1.1066
918.328	1.40507
920.001	1.54806
921.672	0.695803
923.345	1.26056
925.015	0.986493
926.685	1.22212
928.357	0.929286
930.026	0.770082
931.698	0.942461
933.366	0.960603
935.035	1.19946
936.705	0.446137
938.373	0.663992
940.041	0.860791
941.71	0.970419
943.377	1.38965
945.044	1.27926
946.712	1.27823
948.378	1.03278
950.044	0.65333
951.709	0.626039
953.376	0.554665
955.041	0.418416
956.706	0.460791
958.372	1.60877
960.036	1.52431
961.699	0.800601
963.362	0.78312
965.027	0.454593
966.69	0.743095
968.352	0.962982
970.014	0.650077
971.676	0.690413
973.339	1.10703
975	0.596019
976.661	1.01535
978.322	0.52915
979.982	0.718163
981.642	0.906976
983.303	1.1058
984.962	1.23654
986.621	0.94489
988.28	0.98371
989.938	1.33097
991.596	0.395449
993.254	0.763993
994.911	1.06596
996.57	1.1691
998.227	0.0373755
999.884	0.647624
1001.54	1.10264
1003.2	0.764424
1004.85	1.08613
1006.51	0.835903
1008.16	0.190861
1009.82	0.424749
1011.47	0.439381
1013.12	0.476281
1014.78	0.29443
1016.43	0.747959
1018.08	0.785716
1019.74	0.714761
1021.39	0.819648
1023.04	0.42269
1024.69	0.245236
1026.34	0.308684
1028	0.306598
1029.65	0.850157
1031.3	0.191245
1032.95	0.863173
1034.6	0.158485
1036.25	0.827119
1037.9	0.186934
1039.54	0.440143
1041.19	0.562981
1042.84	1.05626
1044.49	0.507639
1046.14	1.11224
1047.78	0.241474
1049.43	0.0671177
1051.08	1.13181
1052.72	0.416158
1054.37	0.439323
1056.02	0.571179
1057.66	0.507201
1059.31	0.225376
1060.95	0.377849
1062.6	0.268763
1064.24	0.637277
1065.88	0.309159
1067.53	0.762695
1069.17	0.432975
1070.81	0.233261
1072.45	0.663097
1074.1	0.854284
1075.74	0.65578
1077.38	0.458505
1079.02	0.84782
1080.66	0.630604
1082.3	0.478456
1083.94	0.499065
1085.58	0.518325
1087.22	0.297526
1088.86	0.0752649
1090.5	0.154805
1092.14	0.233232
1093.78	0.138327
1095.42	0.712556
1097.05	0.618196
1098.69	0.223565
1100.33	0.412129
1101.96	0.752728
1103.6	-0.282178
1105.24	-0.0250616
1106.87	0.253973
1108.51	0.661751
1110.14	0.573963
1111.78	-0.0954008
1113.41	0.351577
1115.05	0.260294
1116.68	0.125723
1118.31	0.848913
1119.95	0.0506248
1121.58	-0.12497
1123.21	0.406744
1124.85	0.510955
1126.48	0.295003
1128.11	0.913796
1129.74	-0.0492163
1131.37	0.677422
1133	0.442208
1134.63	0.164179
1136.26	0.334528
1137.89	0.482575
1139.52	0.757675
1141.15	0.305771
1142.78	-0.27417
1144.41	0.490234
1146.04	0.550972
1147.66	0.505926
1149.29	0.227296
1150.92	0.439116
1152.55	-0.137063
1154.17	-0.074542
1155.8	-0.182643
1157.43	-0.0567474
1159.05	-0.0795383
1160.68	0.132266
1162.3	0.196069
1163.93	0.43079
1165.55	0.517116
1167.17	0.518188
1168.8	-0.0981607
1170.42	-0.184264
1172.05	0.662912
1173.67	0.127607
1175.29	0.101169
1176.91	0.0955257
1178.54	0.25949
1180.16	0.0216084
1181.78	0.567456
1183.4	0.246418
1185.02	0.327248
1186.64	-0.31072
1188.26	0.464596
1189.88	0.646664
1191.5	0.195086
1193.12	0.0377235
1194.74	0.174024
1196.36	0.561547
1197.97	0.00657558
1199.59	0.500062
1201.21	0.221425
1202.83	-0.0963144
1204.44	0.381447
1206.06	0.526843
1207.68	0.276954
1209.29	0.423708
1210.91	0.0692167
1212.52	0.109681
1214.14	0.460871
1215.75	0.39327
1217.37	1.21875
1218.98	0.233721
1220.59	0.45464
1222.21	0.696408
1223.82	0.482945
1225.43	0.685198
1227.05	0.598791
1228.66	0.0379562
1230.27	0.739823
1231.88	0.594799
1233.49	1.11224
1235.1	0.204627
1236.72	0.827482
1238.33	1.30668
1239.94	0.277179
1241.55	0.426295
1243.16	0.140759
1244.76	0.764935
1246.37	0.602053
1247.98	0.64523
1249.59	0.522234
1251.2	0.936866
1252.8	1.49636
1254.41	0.629233
1256.02	0.300817
1257.62	0.759459
1259.23	1.28136
1260.84	0.665877
1262.44	1.68627
1264.05	0.884501
1265.66	1.0765
1267.26	0.646114
1268.86	1.2099
1270.47	0.943546
1272.07	0.717726
1273.67	1.52765
1275.28	1.17565
1276.88	0.80227
1278.48	1.52629
1280.09	0.88259
1281.69	0.880764
1283.29	0.672146
1284.89	0.960448
1286.49	1.47671
1288.09	1.12557
1289.69	1.25066
1291.29	0.632297
1292.89	1.00574
1294.49	1.2545
1296.09	1.79115
1297.69	1.43825
1299.29	1.35241
1300.89	1.40963
1302.49	0.971253
1304.08	1.00616
1305.68	1.36929
1307.28	1.6696
1308.88	1.43559
1310.47	1.28404
1312.07	1.27645
1313.66	1.00365
1315.26	1.34521
1316.85	1.36037
1318.45	1.17198
1320.04	0.820704
1321.64	1.08031
1323.23	1.70441
1324.83	0.923059
1326.42	0.954402
1328.01	1.16761
1329.61	1.60344
1331.2	1.06887
1332.79	1.34554
1334.38	1.0786
1335.97	0.59147
1337.56	0.549055
1339.16	1.51399
1340.75	1.0461
1342.34	1.06009
1343.93	1.01204
1345.52	1.30438
1347.11	1.37552
1348.7	1.00733
1350.29	0.822059
1351.87	0.599227
1353.46	0.698225
1355.05	1.47783
1356.64	0.419003
1358.22	0.399182
1359.81	0.837884
1361.4	0.79627
1362.98	0.714077
1364.57	1.30947
1366.16	0.768696
1367.74	0.229167
1369.33	1.12433
1370.91	0.86589
1372.5	0.668433
1374.08	1.02909
1375.67	1.05207
1377.25	0.617462
1378.83	1.13757
1380.41	1.00014
1382	0.801932
1383.58	0.642483
1385.16	0.442554
1386.74	0.838428
1388.33	0.757449
1389.91	0.498446
1391.49	0.53802
1393.07	1.07417
1394.65	0.460075
1396.23	0.599604
1397.81	0.20325
1399.39	0.519705
1400.97	1.11235
1402.55	0.436991
1404.13	1.28566
1405.7	0.532236
1407.28	0.985887
1408.86	0.945975
1410.44	0.0769358
1412.01	0.175965
1413.59	0.827166
1415.17	0.608909
1416.74	0.547901
1418.32	0.466904
1419.89	0.48474
1421.47	0.0899181
1423.04	0.759585
1424.62	0.367531
1426.19	0.212748
1427.77	0.57015
1429.34	1.32102
1430.91	0.476819
1432.49	0.59611
1434.06	0.911263
1435.63	1.57983
1437.2	1.24545
1438.78	0.931533
1440.35	0.795462
1441.92	1.07293
1443.49	0.997231
1445.06	1.37391
1446.63	1.77045
1448.2	1.99027
1449.77	1.8172
1451.34	1.84114
1452.91	1.17724
1454.48	1.22154
1456.05	1.26583
1457.62	1.21119
1459.18	1.66713
1460.75	1.41305
1462.32	1.11804
1463.89	0.998773
1465.45	0.544535
1467.02	1.38695
1468.59	0.991855
1470.15	0.696018
1471.72	1.04873
1473.28	0.421515
1474.85	0.834496
1476.41	1.13007
1477.98	0.876734
1479.54	0.701809
1481.1	0.703228
1482.67	0.332232
1484.23	0.686199
1485.79	0.354089
1487.36	1.00075
1488.92	0.47119
1490.48	0.70369
1492.04	0.503876
1493.61	0.263509
1495.17	0.665982
1496.73	0.676823
1498.29	0.726335
1499.85	0.951076
1501.41	0.516171
1502.97	0.412888
1504.53	0.794923
1506.09	0.750626
1507.65	0.396442
1509.2	0.273944
1510.76	0.440183
1512.32	0.277657
1513.88	-0.442943
1515.43	0.280062
1516.99	0.176206
1518.55	0.322511
1520.1	0.239125
1521.66	0.328305
1523.22	0.455239
1524.77	-0.144245
1526.33	0.706027
1527.88	0.315576
1529.44	1.33277
1530.99	0.0305958
1532.54	0.495836
1534.1	0.184156
1535.65	0.252381
1537.21	0.793571
1538.76	0.314989
1540.31	0.610791
1541.86	-0.0358286
1543.42	0.335009
1544.97	0.197298
1546.52	0.416547
1548.07	0.428805
1549.62	0.590943
1551.17	0.734161
1552.72	0.877529
1554.27	0.703703
1555.82	1.09162
1557.37	0.341971
1558.92	0.415616
1560.47	0.695997
1562.02	0.641896
1563.56	0.495461
1565.11	0.554722
1566.66	0.726053
1568.21	0.747923
1569.75	0.582805
1571.3	1.07067
1572.85	0.699614
1574.39	0.515091
1575.94	0.610587
1577.49	0.519567
1579.03	0.858268
1580.57	1.12287
1582.12	1.23883
1583.66	0.72042
1585.21	0.725572
1586.75	0.805918
1588.3	0.736816
1589.84	1.06043
1591.38	0.447969
1592.92	0.227915
1594.47	0.906538
1596.01	0.817412
1597.55	1.02844
1599.09	1.22144
1600.63	1.02129
1602.17	1.12164
1603.71	0.865287
1605.25	1.19051
1606.79	1.42084
1608.33	1.04806
1609.87	0.861205
1611.41	0.409402
1612.95	0.820209
1614.49	0.872846
1616.03	1.11258
1617.57	0.752566
1619.1	0.937224
1620.64	0.916986
1622.18	1.16007
1623.72	0.673661
1625.25	0.861297
1626.79	1.49738
1628.32	1.06556
1629.86	0.932056
1631.39	0.797772
1632.93	0.962129
1634.46	0.230506
1636	0.843647
1637.53	1.06535
1639.07	1.6603
1640.6	0.540271
1642.13	1.3953
1643.67	0.889312
1645.2	1.70406
1646.73	0.917663
1648.26	1.26559
1649.8	1.13055
1651.33	1.18209
1652.86	1.80963
1654.39	1.73312
1655.92	1.2495
1657.45	1.24788
1658.98	1.24559
1660.51	0.908957
1662.04	0.904469
1663.57	0.862024
1665.1	1.13314
1666.63	0.887337
1668.16	1.47272
1669.68	0.547238
1671.21	1.70589
1672.74	0.635971
1674.27	0.432536
1675.79	1.16795
1677.32	1.16606
1678.85	0.979249
1680.37	1.10426
1681.9	0.805828
1683.42	0.764542
1684.95	0.539854
1686.47	0.682502
1688	0.422129
1689.52	0.693602
1691.05	0.415717
1692.57	0.760381
1694.09	0.501031
1695.62	0.589145
1697.14	0.366323
1698.66	0.472157
1700.18	0.0847483
1701.71	0.481627
1703.23	0.130259
1704.75	0.215992
1706.27	0.301205
1707.79	0.186042
1709.31	0.416107
1710.83	0.228423
1712.35	0.0230665
1713.87	0.488527
1715.39	0.138639
1716.91	0.277644
1718.43	0.0548396
1719.95	-0.0954366
1721.47	-0.0649076
1722.99	-0.178227
1724.5	0.303962
1726.02	0.030355
1727.54	-0.097919
1729.06	-0.315289
1730.57	0.134392
1732.09	0.560042
1733.61	-0.460782
1735.12	-0.089293
1736.64	0.0555677
1738.15	-0.28687
1739.67	-0.163316
1741.18	0.201312
1742.7	0.314525
1744.21	0.347712
1745.72	-0.161736
1747.24	-0.0110579
1748.75	-0.286084
1750.26	-0.13677
1751.77	0.147573
1753.29	-0.172434
1754.8	0.0897255
1756.31	0.102739
1757.82	0.212994
1759.33	0.245688
1760.84	0.0676885
1762.36	-0.177954
1763.87	0.0792918
1765.38	0.0787206
1766.89	0.11607
1768.4	0.0326514
1769.91	-0.132681
1771.41	0.330465
1772.92	0.0650539
1774.43	-0.0853009
1775.94	0.104221
1777.45	-0.0985932
1778.95	-0.14409
1780.46	0.291732
1781.97	0.0157619
1783.48	0.121991
1784.98	0.177376
1786.49	0.0807915
1787.99	0.1492
1789.5	-0.150256
1791.01	-0.241173
1792.51	-0.20692
1794.01	0.0987668
1795.52	-0.00548124
1797.02	0.0685544
1798.53	0.0241117
1800.03	0.23561
1801.53	-0.0436325
1803.04	-0.132144
1804.54	0.241257
1806.04	0.197465
1807.54	-0.0350909
1809.05	0.233083
1810.55	0.468432
1812.05	0.202088
1813.55	0.026196
1815.05	0.0971808
1816.55	0.216763
1818.05	0.257386
1819.55	0.0288839
1821.05	0.0349598
1822.55	0.186035
1824.05	-0.138285
1825.55	0.189655
1827.05	0.0900335
1828.55	0.0340548
1830.04	0.25759
1831.54	-0.160966
1833.04	0.149581
1834.54	0.292246
1836.03	-0.0250015
1837.53	0.326579
1839.03	0.324979
1840.52	0.310026
1842.02	0.0931597
1843.51	0.164471
1845.01	0.326343
1846.5	0.135015
1848	0.397326
1849.49	-0.0636029
1850.99	0.035358
1852.48	0.156635
1853.97	-0.117196
1855.47	0.24816
1856.96	-0.141495
1858.45	-0.038919
1859.94	0.0380173
1861.44	-0.135471
1862.93	0.0416894
1864.42	0.382824
1865.91	-0.0371618
1867.4	0.489534
1868.89	0.191261
1870.38	0.0845656
1871.87	0.207758
1873.36	0.19837
1874.85	0.129733
1876.34	0.236697
1877.83	-0.0275106
1879.32	0.41712
1880.81	0.132984
1882.3	0.0318966
1882.57	0.0295529
1884.07	0.184022
1885.56	0.0414548
1887.06	0.0898614
1888.55	0.0855789
1890.04	-0.0402966
1891.54	0.304354
1893.03	0.00691652
1894.52	0.302243
1896.02	0.0599265
1897.51	-0.0600305
1899	-0.0931759
1900.49	0.30772
1901.98	0.0113554
1903.47	0.235307
1904.96	-0.446069
1906.45	0.0713873
1907.94	0.0673566
1909.43	-0.300629
1910.92	0.0611992
1912.41	0.649093
1913.9	0.422105
1915.39	0.264633
1916.88	-0.170459
1918.37	0.208812
1919.85	-0.0189462
1921.34	-0.142694
1922.83	0.270782
1924.32	0.0269833
1925.8	0.217016
1927.29	-0.111388
1928.78	-0.196912
1930.26	0.0984659
1931.75	0.254639
1933.23	0.357561
1934.72	0.0607419
1936.2	-0.116164
1937.69	-0.259275
1939.17	-0.039722
1940.66	-0.113723
1942.14	0.296302
1943.63	0.223872
1945.11	0.0143032
1946.59	-0.31549
1948.07	0.26808
1949.56	0.0753789
1951.04	0.0369544
1952.52	0.135433
1954	-0.00742865
1955.48	0.210696
1956.96	0.325858
1958.45	0.0296078
1959.93	0.231772
1961.41	0.228477
1962.89	0.0710921
1964.37	-0.0520606
1965.85	-0.0556645
1967.32	0.385133
1968.8	-0.0132718
1970.28	0.391688
1971.76	0.232204
1973.24	-0.0806994
1974.72	0.425595
1976.19	-0.22761
1977.67	-0.488041
1979.15	0.102998
1980.63	0.216964
1982.1	0.194646
1983.58	0.0531955
1985.05	0.234144
1986.53	-0.0941839
1988	-0.0322318
1989.48	0.233108
1990.95	0.0925517
1992.43	-0.36834
1993.9	0.000416279
1995.38	0.268186
1996.85	-0.105796
1998.32	0.229724
1999.8	0.176339
2001.27	0.0887227
2002.74	-0.0667033
2004.22	-0.18836
2005.69	0.229598
2007.16	0.294165
2008.63	-0.0277376
2010.1	-0.0625439
2011.57	0.0209436
2013.04	0.00346375
2014.51	0.1539
2015.98	-0.251595
2017.45	-0.00169706
2018.92	0.0791969
2020.39	0.293962
2021.86	0.0885701
2023.33	-0.351294
2024.8	-0.0854192
2026.27	-0.0870728
2027.74	-0.020401
2029.2	0.416564
2030.67	0.0999203
2032.14	-0.299954
2033.61	-0.179281
2035.07	0.142982
2036.54	-0.00524092
2038.01	0.0812449
2039.47	0.234666
2040.94	0.203207
2042.4	0.306605
2043.87	-0.278875
2045.33	0.196088
2046.8	0.0155635
2048.26	0.49208
2049.72	0.36204
2051.19	-0.241136
2052.65	0.0815706
2054.12	-0.0525661
2055.58	-0.508542
2057.04	0.0797577
2058.5	-0.0407419
2059.97	0.0240254
2061.43	0.223815
2062.89	-0.030273
2064.35	-0.182398
2065.81	0.0365872
2067.27	0.0375185
2068.73	0.123113
2070.19	0.444667
2071.65	-0.0585752
2073.11	0.262979
2074.57	0.533857
2076.03	0.316116
2077.49	0.165405
2078.95	0.317473
2080.41	0.384932
2081.87	0.519226
2083.32	0.366721
2084.78	0.129503
2086.24	-0.10818
2087.7	0.175046
2089.15	0.188769
2090.61	0.2695
2092.07	0.064693
2093.52	0.363403
2094.98	0.47709
2096.43	0.355569
2097.89	0.300611
2099.34	0.178259
2100.8	0.306673
2102.25	0.334852
2103.71	0.246858
2105.16	0.160104
2106.61	0.358243
2108.07	0.557174
2109.52	0.506178
2110.97	0.671417
2112.43	0.718687
2113.88	0.59783
2115.33	0.675382
2116.78	0.452785
2118.23	0.695967
2119.68	0.375691
2121.13	0.638148
2122.59	0.885569
2124.04	0.520684
2125.49	0.322251
2126.94	0.438623
2128.39	0.736404
2129.83	0.817353
2131.28	0.532701
2132.73	0.346983
2134.18	1.15403
2135.63	0.919336
2137.08	1.01679
2138.53	1.04984
2139.97	0.803697
2141.42	1.02184
2142.87	1.37349
2144.31	1.57715
2145.76	1.15219
2147.21	1.05773
2148.65	0.979182
2150.1	0.66786
2151.54	1.29997
2152.99	0.887389
2154.43	1.31908
2155.88	1.12075
2157.32	1.50233
2158.77	1.30481
2160.21	1.10856
2161.65	1.179
2163.1	1.31753
2164.54	1.32495
2165.98	1.13391
2167.43	1.64031
2168.87	1.46473
2170.31	1.30389
2171.75	0.941346
2173.19	1.04278
2174.64	1.32595
2176.07	1.24264
2177.52	1.35911
2178.96	1.21027
2180.4	1.01249
2181.84	0.765607
2183.28	0.83515
2184.72	1.00476
2186.15	1.15788
2187.59	1.14469
2189.03	0.898542
2190.47	1.00185
2191.91	1.1549
2193.35	0.874397
2194.78	1.02556
2196.22	1.14173
2197.66	1.02306
2199.09	0.952842
2200.53	0.599358
2201.97	0.960177
2203.4	0.856578
2204.84	0.671208
2206.27	0.785263
2207.71	0.734022
2209.14	0.914478
2210.58	1.02785
2212.01	0.825892
2213.45	0.408678
2214.88	0.355337
2216.31	0.69876
2217.75	0.877836
2219.18	0.315802
2220.61	0.678097
2222.05	0.496408
2223.48	0.709599
2224.91	0.888412
2226.34	0.654076
2227.78	0.747428
2229.21	0.675225
2230.64	0.569687
2232.07	0.447832
2233.5	0.686609
2234.93	0.36963
2236.36	0.234008
2237.79	0.589714
2239.22	-0.0975513
2240.65	0.391817
2242.08	0.70316
2243.5	0.754631
2244.93	0.33339
2246.36	0.498738
2247.79	0.108166
2249.22	0.514771
2250.64	0.381386
2252.07	0.328068
2253.5	0.550589
2254.92	0.464324
2256.35	0.363276
2257.78	0.296896
2259.2	0.314164
2260.63	0.285301
2262.05	-0.0336604
2263.48	0.769041
2264.9	0.45159
2266.33	0.393615
2267.75	0.0745783
2269.18	0.161357
2270.6	0.312649
2272.02	0.105365
2273.45	0.0607204
2274.87	0.309357
2276.29	0.362774
2277.71	0.188199
2279.14	0.0787992
2280.56	-0.0143971
2281.98	0.23479
2283.4	-0.201189
2284.82	-0.0824971
2286.24	0.134385
2287.66	0.286399
2289.08	0.226562
2290.5	0.330437
2291.92	0.27117
2293.34	-0.098774
2294.76	0.169047
2296.18	-0.234089
2297.6	0.0501742
2299.02	0.433027
2300.44	0.406637
2301.86	0.298491
2303.27	0.190487
2304.69	0.377982
2306.11	0.13859
2307.53	0.227291
2308.94	0.134789
2310.36	0.00882292
2311.78	0.145637
2313.19	-0.326284
2314.61	0.0248213
2316.02	-0.00191545
2317.44	-0.0774474
2318.85	0.144032
2320.27	-0.0962877
2321.68	0.140757
2323.1	-0.0362725
2324.51	0.329335
2325.92	0.428884
2327.34	0.790726
2328.75	0.871348
2330.16	0.227367
2331.58	0.440918
2332.99	0.128644
2334.4	0.0476294
2335.81	0.213605
2337.23	-0.328082
2338.64	0.0668659
2340.05	0.000414848
2341.46	-0.116009
2342.87	-0.0685835
2344.28	0.126363
2345.69	0.00991201
2347.1	0.0740185
2348.51	0.416338
2349.92	-0.0763783
2351.33	0.117469
2352.74	0.228508
2354.15	-0.216213
2355.55	-0.139019
2356.96	0.00287819
2358.37	-0.148301
2359.78	0.172105
2361.19	0.0212665
2362.59	0.000438213
2364	-0.0852199
2365.41	0.15282
2366.81	-0.175091
2368.22	-0.130497
2369.62	-0.0206008
2371.03	-0.199905
2372.44	0.282621
2373.84	0.0248013
2375.24	-0.152005
2376.65	0.218037
2378.05	-0.217214
2379.46	0.246614
2380.86	-0.158591
2382.26	0.173457
2383.67	-0.0565367
2385.07	0.209703
2386.47	0.220044
2387.88	0.231154
2389.28	0.163566
2390.68	0.160898
2392.08	-0.461637
2393.48	0.269824
2394.89	0.110651
2396.29	0.190677
2397.69	0.302978
2399.09	-0.156281
2400.49	0.195248
2401.89	0.340435
2403.29	-0.29256
2404.69	-0.179377
2406.09	0.234629
2407.48	-0.098197
2408.88	-0.0348868
2410.28	-0.019455
2411.68	0.0436888
2413.08	0.139146
2414.48	0.504782
2415.87	0.285862
2417.27	0.321404
2418.67	0.452736
2420.06	0.140975
2421.46	0.0507541
2422.86	-0.150702
2424.25	-0.0672274
2425.65	0.30156
2427.04	-0.280044
2428.44	0.264406
2429.83	-0.15743
2431.23	0.246035
2432.62	0.427754
2434.02	0.196221
2435.41	-0.0364475
2436.81	0.285664
2438.2	0.0980682
2439.59	0.0841703
2440.99	-0.295712
2442.38	0.00681591
2443.77	0.435823
2445.16	0.229883
2446.56	0.309358
2447.95	0.0083189
2449.34	0.261937
2450.73	0.2147
2452.12	0.0255194
2453.51	-0.0995984
2454.9	0.076623
2456.29	0.348287
2457.68	0.0665483
2459.07	0.3541
2460.46	0.13502
2461.85	0.263169
2463.24	0.295733
2464.63	0.280379
2466.02	-0.13002
2467.4	0.328044
2468.79	0.0125303
2470.18	-0.0505366
2471.57	0.20132
2472.95	0.294778
2474.34	0.21429
2475.73	0.463693
2477.12	0.288024
2478.5	0.301051
2479.89	0.0945206
2481.27	0.390193
2482.66	-0.22335
2484.04	0.0872917
2485.43	-0.0256205
2486.81	0.1732
2488.2	-0.0194468
2489.58	0.0682812
2490.97	0.171237
2492.35	0.134489
2493.73	-0.00995064
2495.12	-0.090939
2496.5	0.232218
2497.88	0.276808
2499.27	0.166769
2500.65	-0.0826201
2502.03	0.193169
2503.41	0.328689
2504.79	0.139261
2506.17	-0.00406075
2507.56	0.0374198
2508.94	0.570851
2510.32	-0.125024
2511.7	0.270298
2513.08	-0.131514
2514.46	0.172575
2515.84	0.293283
2517.22	0.215638
2518.59	0.138531
2519.97	0.107476
2521.35	0.305303
2522.73	0.120752
2524.11	0.057754
2525.49	-0.0971808
2526.86	0.280877
2528.24	-0.0868611
2529.62	-0.103455
2530.99	-0.361927
2532.37	0.00407124
2533.75	0.219108
2535.12	-0.036273
2536.5	0.057724
2537.88	-0.122295
2539.25	0.122209
2540.63	-0.119952
2542	0.0323691
2543.38	-0.0275841
2544.75	-0.117151
2546.12	0.188668
2547.5	0.434824
2548.87	-0.000966549
2550.24	0.458403
2551.62	0.0827832
2552.99	0.116106
2554.36	0.345837
2555.74	0.165094
2557.11	0.135652
2558.48	0.394217
2559.85	0.182937
2561.22	0.396571
2562.59	0.398518
2563.96	-0.0233545
2565.34	0.13098
2566.71	-0.15397
2568.08	0.258263
2569.45	-0.0569577
2570.82	0.279527
2572.18	-0.0963383
2573.55	0.0280471
2574.92	-0.150684
2576.29	0.292181
2577.66	0.355979
2579.03	0.328606
2580.4	-0.0175085
2581.77	0.0302763
2583.13	0.0777407
2584.5	0.0946808
2585.87	-0.00969791
2587.23	0.416517
2588.6	0.236592
2589.97	0.0870805
2591.33	0.149616
2592.7	-0.10645
2594.06	0.167102
2595.43	0.136777
2596.79	-0.1971
2598.16	0.40664
2599.52	0.298795
2600.89	-0.0808072
2602.25	-0.248168
2603.62	0.32481
2604.98	0.233841
2606.34	0.354259
2607.71	0.368738
2609.07	0.472889
2610.43	0.470429
2611.79	0.0905786
2613.16	0.116385
2614.52	0.261664
2615.88	0.136343
2617.24	0.206338
2618.6	-0.0677452
2619.96	0.0782375
2621.32	-0.238931
2622.68	0.371138
2624.04	0.204106
2625.4	-0.231361
2626.76	0.19842
2628.12	0.0163751
2629.48	-0.299657
2630.84	0.3963
2632.2	0.303172
2633.56	0.195286
2634.92	0.191431
2636.28	0.0392489
2637.63	0.213278
2638.99	-0.101527
2640.35	0.32399
2641.71	0.024693
2643.06	0.538539
2644.42	0.417014
2645.77	0.605363
2647.13	0.203419
2648.49	0.0224514
2649.84	0.0765681
2651.2	0.0712118
2652.55	0.300574
2653.91	-0.0131474
2655.26	0.14336
2656.62	0.315145
2657.97	0.194925
2659.33	0.33888
2660.68	0.366038
2662.03	0.276108
2663.39	0.171148
2664.74	0.31376
2666.09	0.265919
2667.44	0.567497
2668.8	-0.209006
2670.15	0.238101
2671.5	0.147021
2672.85	0.318113
2674.2	0.213603
2675.55	0.312871
2676.91	-0.196828
2678.26	0.193573
2679.61	0.12044
2680.96	-0.00980997
2682.31	0.339354
2683.66	-0.122477
2685	0.184992
2686.35	-0.0873933
2687.7	0.438177
2689.05	0.483903
2690.4	-0.168648
2691.75	0.164457
2693.1	0.263967
2694.44	0.145077
2695.79	0.113126
2697.14	0.270022
2698.49	0.0948086
2699.83	0.0223842
2701.18	0.0527143
2702.52	0.287039
2703.87	0.218069
2705.22	0.627869
2706.56	0.544928
2707.91	0.447153
2709.25	0.261832
2710.6	0.410056
2711.94	0.34024
2713.29	0.357434
2714.63	0.142001
2715.97	-0.0445504
2717.32	0.219531
2718.66	0.20712
2720.01	0.267138
2721.35	0.34134
2722.69	0.109488
2724.03	0.47398
2725.38	0.430549
2726.72	-0.00619888
2728.06	0.44462
2729.4	0.64775
2730.74	0.297783
2732.08	0.529806
2733.42	0.310887
2734.76	0.470331
2736.1	0.353563
2737.44	0.236905
2738.78	0.265656
2740.12	0.0905881
2741.46	0.176877
2742.8	0.0881457
2744.14	0.129673
2745.48	0.156129
2746.82	0.370976
2748.16	0.17906
2749.49	0.00184059
2750.83	0.289013
2752.17	0.0397539
2753.51	0.124177
2754.84	0.368042
2756.18	0.0614786
2757.52	-0.273738
2758.85	0.10073
2760.19	0.113512
2761.53	0.170091
2762.86	0.169158
2764.2	0.240812
2765.53	-0.0782185
2766.87	0.383625
2768.2	0.150251
2769.54	0.248481
2770.87	0.258689
2772.2	0.513224
2773.54	-0.0415459
2774.87	-0.278655
2776.2	0.204783
2777.54	-0.11822
2778.87	0.235577
2780.2	-0.157954
2781.53	-0.091177
2782.87	0.00426722
2784.2	0.2286
2785.53	0.137303
2786.86	-0.297454
2788.19	0.0989289
2789.52	0.0376954
2790.85	0.0344443
2792.18	0.23199
2793.51	0.158199
2794.84	0.0844564
2796.17	0.310511
2797.5	0.0503197
2798.83	-0.238707
2800.16	-0.0426006
2801.49	-0.160724
2802.82	-0.0792909
2804.15	0.343843
2805.47	0.324616
2806.8	-0.179031
2808.13	-0.056706
2809.46	-0.275978
2810.78	-0.111472
2812.11	-0.0176711
2813.44	-0.0223417
2814.76	0.158471
2816.09	0.0568762
2817.42	-0.128831
2818.74	-0.0589509
2820.07	0.308563
2821.39	0.236311
2822.72	0.149334
2824.04	0.302722
2825.37	-0.0399985
2826.69	-0.198423
2828.02	-0.0448923
2829.34	0.0665751
2830.66	-0.0197849
2831.99	-0.134285
2833.31	0.147504
2834.63	0.0468373
2835.96	0.342044
2837.28	0.424467
2838.6	0.407466
2839.92	0.446873
2841.24	0.514632
2842.57	0.4979
2843.89	0.396913
2845.21	0.197603
2846.53	0.507552
2847.85	0.238342
2849.17	0.718212
2850.49	0.547696
2851.81	0.758399
2853.13	0.799074
2854.45	0.669862
2855.77	1.19046
2857.09	0.722044
2858.41	0.97415
2859.72	0.901358
2861.04	0.814331
2862.36	0.628264
2863.68	0.865408
2865	1.14456
2866.31	0.943954
2867.63	1.13853
2868.95	1.33337
2870.26	1.79634
2871.58	1.52633
2872.9	1.0025
2874.21	1.26735
2875.53	1.40445
2876.84	1.90663
2878.16	1.50711
2879.47	1.4172
2880.79	1.77744
2882.1	1.64629
2883.42	1.29138
2884.73	1.76585
2886.05	1.34215
2887.36	1.81691
2888.67	1.72984
2889.99	1.5861
2891.3	1.75027
2892.61	1.59148
2893.92	1.92303
2895.24	1.6105
2896.55	1.42484
2897.86	1.19814
2899.17	1.61589
2900.48	1.88026
2901.79	1.94912
2903.11	2.01815
2904.42	1.91945
2905.73	2.22662
2907.04	2.43636
2908.35	2.08724
2909.66	2.50824
2910.97	2.20215
2912.27	2.31585
2913.58	2.667
2914.89	2.31708
2916.2	2.91778
2917.51	2.88723
2918.82	2.77197
2920.13	2.81056
2921.43	2.90562
2922.74	3.1694
2924.05	2.86118
2925.35	3.12699
2926.66	2.93202
2927.97	3.45005
2929.27	3.35269
2930.58	3.6743
2931.89	3.29657
2933.19	3.35203
2934.5	3.14193
2935.8	3.22548
2937.11	3.16944
2938.41	2.98781
2939.72	3.1977
2941.02	3.12856
2942.32	3.04615
2943.63	2.81098
2944.93	2.78652
2946.24	2.63711
2947.54	2.55803
2948.84	2.05881
2950.14	2.80451
2951.45	2.20485
2952.75	2.61192
2954.05	2.12182
2955.35	2.41553
2956.65	2.03808
2957.95	2.36213
2959.26	2.15641
2960.56	2.28892
2961.86	2.255
2963.16	2.1094
2964.46	2.35628
2965.76	1.78758
2967.06	2.18683
2968.36	2.10739
2969.66	1.67579
2970.96	2.03161
2972.25	1.99396
2973.55	1.56256
2974.85	1.66586
2976.15	1.44491
2977.45	1.57498
2978.74	1.56295
2980.04	1.42291
2981.34	1.00057
2982.64	1.21113
2983.93	1.40778
2985.23	1.2117
2986.52	1.42447
2987.82	1.06231
2989.12	1.09444
2990.41	0.550602
2991.71	1.01831
2993	0.290667
2994.3	0.391341
2995.59	0.673759
2996.89	0.562346
2998.18	0.74562
2999.48	0.522217
3000.77	0.327519
3002.06	0.441834
3003.36	0.58449
3004.65	0.30695
3005.94	-0.0125823
3007.23	0.0736585
3008.53	0.63492
3009.82	0.0343637
3011.11	0.174613
3012.4	0.146859
3013.69	0.244772
3014.99	-0.117061
3016.28	0.26053
3017.57	-0.0577784
3018.86	0.000433922
3020.15	0.183863
3021.44	-0.07796
3022.73	-0.0067091
3024.02	0.119236
3025.31	0.0226154
3026.6	-0.170848
3027.89	0.189988
3029.18	-0.084764
3030.46	-0.261134
3031.75	0.0886798
3033.04	0.135416
3034.33	0.0858493
3035.62	0.573934
3036.9	0.17813
3038.19	-0.259831
3039.48	0.292451
3040.76	-0.215998
3042.05	0.0311413
3043.34	0.222845
3044.62	0.236922
3045.91	-0.034667
3047.19	0.256195
3048.48	0.0435524
3049.77	0.133156
3051.05	0.265028
3052.34	0.0974474
3053.62	0.216509
3054.9	0.41695
3056.19	0.425599
3057.47	0.474314
3058.76	0.386178
3060.04	0.175511
3061.32	0.169628
3062.61	0.368666
3063.89	0.215303
3065.17	0.32169
3066.45	0.293364
3067.74	0.184369
3069.02	0.320547
3070.3	0.36145
3071.58	0.279333
3072.86	0.155554
3074.14	0.438764
3075.42	0.13685
3076.7	0.459798
3077.99	0.525004
3079.26	0.08919
3080.54	0.116171
3081.82	0.0495634
3083.1	0.0518913
3084.38	-0.189362
3085.66	-0.0369568
3086.94	-0.169746
3088.22	0.239958
3089.5	0.0520391
3090.78	0.162484
3092.05	0.53068
3093.33	0.329322
3094.61	0.114873
3095.89	0.402527
3097.16	0.62251
3098.44	0.232605
3099.72	-0.10288
3100.99	-0.0317163
3102.27	0.459421
3103.54	-0.0647039
3104.82	0.589559
3106.1	0.472961
3107.37	0.655018
3108.65	0.567441
3109.92	0.575638
3111.2	0.490025
3112.47	0.364463
3113.74	0.469685
3115.02	0.37178
3116.29	0.761765
3117.56	0.635959
3118.84	0.699279
3120.11	0.517734
3121.38	0.457713
3122.66	0.953043
3123.93	0.824904
3125.2	0.11502
3126.47	0.746143
3127.74	0.930976
3129.01	0.642917
3130.29	0.693557
3131.56	0.676858
3132.83	0.471079
3134.1	0.738059
3135.37	0.653617
3136.64	0.892804
3137.91	0.942719
3139.18	0.992435
3140.45	0.92105
3141.72	0.755934
3142.99	1.04835
3144.26	1.17985
3145.52	1.28504
3146.79	1.13616
3148.06	0.626579
3149.33	1.16263
