200.43	1.00763
202.244	1.01583
204.059	1.02531
205.873	0.160293
207.688	0.560685
209.501	0.52308
211.314	0.509053
213.127	0.833921
214.941	0.720973
216.753	0.680546
218.564	0.858369
220.375	0.455795
222.186	0.804552
223.999	0.114321
225.809	0.247035
227.618	-0.103259
229.428	1.01953
231.236	-0.151856
233.045	0.00455284
234.855	0.233604
236.663	0.174407
238.471	-0.14799
240.278	0.568307
242.085	0.370783
243.891	0.00557327
245.698	0.557271
247.503	0.528805
249.309	0.449857
251.116	0.102781
252.921	0.308763
254.725	0.0307255
256.529	0.0902596
258.333	0.439714
260.136	-0.317772
261.939	0.323898
263.742	0.388919
265.544	-0.291933
267.346	-0.105026
269.148	-0.352076
270.949	-0.214001
272.75	0.309053
274.55	0.469374
276.351	0.628352
278.15	0.400168
279.95	0.146457
281.749	0.132104
283.548	0.45297
285.346	0.0272999
287.144	0.441941
288.942	0.0885534
290.739	-0.0957623
292.536	0.200107
294.333	-0.101039
296.129	-0.448354
297.925	0.113764
299.721	0.0309334
301.514	0.87959
303.309	-0.159168
305.104	-0.267255
306.898	-0.0181532
308.692	0.135187
310.486	0.646276
312.279	0.348277
314.072	0.218627
315.862	0.590679
317.654	0.297643
319.446	0.0773277
321.238	0.501417
323.029	0.306668
324.819	0.112144
326.608	0.75321
328.398	0.224269
330.188	-0.544873
331.977	0.358536
333.766	0.208554
335.553	-0.1347
337.341	0.573081
339.129	0.0348644
340.917	0.452285
342.704	0.0798645
344.489	0.352873
346.275	0.578373
348.062	0.0164146
349.845	0.457854
351.631	-0.389654
353.416	0.170682
355.201	-0.00961113
356.984	0.14299
358.768	-0.372867
360.552	0.301735
362.333	0.379709
364.116	-0.0661497
365.899	0.248403
367.68	0.348144
369.462	0.138744
371.243	0.0712023
373.023	-0.375304
374.804	-0.25389
376.585	0.126978
378.363	0.0594378
380.143	0.063488
381.923	-0.261004
383.7	0.427458
385.479	0.0113287
387.256	0.278077
389.034	0.146273
390.812	-0.149024
392.588	0.167027
394.365	-0.0330544
396.14	0.0724783
397.916	0.295573
399.691	0.847381
401.467	0.48285
403.24	-0.281505
405.015	0.409776
406.788	-0.0973358
408.563	0.522196
410.335	0.296166
412.109	0.258023
413.88	0.267172
415.654	0.276932
417.424	0.216972
419.197	0.0871658
420.967	-0.347582
422.739	0.0154905
424.508	0.0494204
426.279	0.575633
428.048	-0.495203
429.819	-0.0170403
431.587	0.437525
433.356	0.868838
435.124	0.314725
436.891	0.44122
438.66	-0.418534
440.426	-0.270223
442.194	0.181392
443.96	0.161947
445.725	0.117572
447.492	0.0254588
449.257	0.587865
451.021	-0.252456
452.787	0.192833
454.551	0.194408
456.314	0.126054
458.079	0.197421
459.842	0.222178
461.604	0.131171
463.368	-0.0979304
465.13	-0.139093
466.891	-0.0618281
468.654	0.110601
470.415	0.610283
472.175	0.762034
473.935	-0.0179591
475.696	0.248032
477.456	0.791904
479.215	0.518905
480.973	0.105315
482.733	0.576918
484.491	0.327444
486.249	0.289146
488.006	0.299188
489.765	0.287617
491.522	0.160151
493.278	0.0563583
495.034	0.279938
496.789	0.0825009
498.544	0.610777
500.301	0.834766
502.056	0.941199
503.81	0.295388
505.564	0.352823
507.317	0.573793
509.071	0.229065
510.825	0.0240068
512.578	0.264708
514.33	0.433586
516.082	0.224874
517.833	0.673759
519.585	0.43973
521.335	0.604703
523.086	0.628182
524.836	0.768795
526.586	0.580802
528.335	0.51025
530.085	0.767755
531.835	0.509359
533.584	0.414443
535.332	0.505806
537.08	0.245306
538.827	0.661193
540.574	0.422216
542.321	0.509205
544.068	0.66544
545.814	0.0544548
547.56	0.443031
549.305	0.436798
551.05	0.592844
552.795	0.818084
554.54	0.257379
556.282	0.321285
558.025	0.131692
559.769	0.334503
561.512	0.491359
563.255	0.349405
564.997	-0.0447116
566.739	0.251304
568.481	0.616468
570.223	0.729717
571.964	0.0410814
573.705	0.477996
575.443	0.205171
577.183	0.163044
578.923	0.0530581
580.663	0.379946
582.402	-0.00511169
584.141	0.275734
585.879	0.440989
587.615	0.559289
589.353	-0.197654
591.09	0.171925
592.828	-0.0341239
594.564	-0.194304
596.299	0.128671
598.035	-0.00853729
599.771	-0.00799322
601.506	0.198927
603.242	-0.308174
604.974	-0.264317
606.709	0.352934
608.443	-0.133451
610.177	0.505168
611.908	0.15709
613.642	0.199724
615.374	0.563705
617.105	0.354795
618.837	0.0769205
620.569	0.00445938
622.3	0.365749
624.03	0.382945
625.761	0.217316
627.491	0.48647
629.219	0.711287
630.949	0.801022
632.677	0.321992
634.406	-0.0650091
636.135	-0.0186625
637.861	0.0263915
639.59	0.708351
641.318	0.862664
643.043	0.923507
644.77	0.186229
646.495	0.292163
648.222	0.0583787
649.948	0.0317149
651.672	0.553297
653.398	0.168988
655.121	0.355516
656.846	0.976807
658.569	0.209751
660.293	0.809817
662.015	0.770257
663.738	0.865834
665.46	0.547931
667.183	0.639852
668.903	0.731139
670.626	0.296818
672.346	1.05375
674.067	0.714339
675.787	0.949167
677.508	0.910182
679.226	0.733432
680.947	0.762436
682.665	1.36516
684.385	0.953939
686.102	0.287316
687.821	0.793703
689.538	1.25325
691.254	0.583472
692.972	1.06489
694.688	1.08495
696.406	0.206069
698.121	1.3525
699.835	0.840216
701.552	0.718407
703.266	1.05562
704.98	1.02428
706.695	1.40561
708.409	1.37321
710.121	1.45507
711.836	1.65091
713.548	1.4344
715.26	1.37804
716.973	1.36738
718.685	1.24274
720.396	1.278
722.108	0.812322
723.818	1.03006
725.528	1.36097
727.238	1.19136
728.949	1.2032
730.658	1.84942
732.367	0.908649
734.075	1.48546
735.785	1.04401
737.493	1.48436
739.2	0.999483
740.907	1.215
742.614	1.00319
744.322	1.13043
746.028	1.12367
747.734	1.23054
749.439	1.49591
751.144	1.55988
752.849	1.57997
754.555	1.06129
756.26	1.48874
757.963	1.85029
759.667	1.17714
761.37	1.74403
763.073	1.79326
764.775	1.84235
766.477	1.93571
768.179	1.39461
769.883	1.71052
771.584	1.14285
773.285	1.88551
774.986	2.1528
776.686	2.26223
778.386	1.94318
780.085	2.21338
781.785	2.03225
783.484	2.21325
785.182	1.69164
786.881	2.36768
788.579	1.66022
790.276	2.48864
791.974	1.88956
793.671	2.14812
795.367	1.77427
797.064	1.69483
798.76	1.9547
800.456	1.22543
802.151	1.87043
803.846	2.38053
805.541	1.69865
807.234	1.78065
808.928	1.97383
810.622	1.76179
812.315	1.77348
814.008	2.25517
815.701	2.28808
817.394	1.96299
819.086	1.99607
820.778	2.40885
822.468	1.7949
824.159	1.91832
825.85	2.2433
827.541	1.85704
829.231	2.25278
830.921	2.20571
832.609	2.47303
834.298	2.43043
835.987	1.65266
837.676	2.07897
839.364	2.63871
841.051	2.95175
842.738	2.6828
844.426	2.65904
846.113	1.71944
847.798	2.14468
849.484	2.16973
851.171	1.61482
852.857	1.64329
854.54	1.40335
856.226	1.83664
857.911	1.50542
859.593	1.32974
861.278	2.03047
862.961	1.82944
864.645	1.76232
866.327	1.98742
868.01	1.37774
869.692	0.857613
871.373	1.32956
873.055	1.71123
874.735	0.8068
876.416	0.714521
878.097	1.57016
879.776	1.207
881.457	0.549991
883.135	1.35976
884.815	0.633572
886.495	1.73462
888.172	1.05136
889.851	1.3596
891.528	1.12539
893.206	1.38583
894.882	1.19485
896.56	1.0258
898.237	1.41767
899.912	1.15741
901.589	1.77084
903.263	1.5096
904.94	2.00866
906.614	1.4576
908.289	0.819197
909.962	1.78636
911.635	1.86236
913.31	0.583085
914.982	0.860818
916.656	1.11587
918.328	1.48122
920.001	1.40311
921.672	1.25924
923.345	1.44809
925.015	1.35085
926.685	1.45398
928.357	1.35979
930.026	1.31083
931.698	0.821201
933.366	1.45701
935.035	0.614961
936.705	0.479178
938.373	1.0057
940.041	1.22443
941.71	0.870646
943.377	0.980688
945.044	1.20104
946.712	0.581725
948.378	1.21914
950.044	0.839643
951.709	0.944713
953.376	0.873284
955.041	1.04567
956.706	1.02177
958.372	0.581364
960.036	0.826965
961.699	0.963707
963.362	0.614285
965.027	0.970877
966.69	1.63537
968.352	1.14714
970.014	1.47572
971.676	1.29469
973.339	0.760234
975	1.37695
976.661	0.955769
978.322	0.469304
979.982	0.846114
981.642	1.22285
983.303	1.0009
984.962	1.24223
986.621	1.37108
988.28	1.18858
989.938	1.35898
991.596	0.600415
993.254	0.969025
994.911	1.07238
996.57	0.955086
998.227	1.49938
999.884	1.00716
1001.54	1.5062
1003.2	0.551762
1004.85	0.697943
1006.51	0.821835
1008.16	0.748006
1009.82	0.652593
1011.47	0.316424
1013.12	0.594688
1014.78	0.434864
1016.43	0.976059
1018.08	0.970095
1019.74	1.73028
1021.39	1.1134
1023.04	0.803823
1024.69	0.538875
1026.34	0.49299
1028	0.971534
1029.65	1.18729
1031.3	0.484653
1032.95	1.0256
1034.6	0.691927
1036.25	0.815407
1037.9	0.589461
1039.54	0.690303
1041.19	1.05252
1042.84	1.39357
1044.49	1.25776
1046.14	0.81964
1047.78	0.730736
1049.43	0.643178
1051.08	0.752113
1052.72	0.448986
1054.37	0.428517
1056.02	0.777538
1057.66	0.669962
1059.31	0.518479
1060.95	0.627389
1062.6	0.735691
1064.24	0.560583
1065.88	0.776002
1067.53	0.490567
1069.17	0.63905
1070.81	0.287416
1072.45	0.760829
1074.1	0.735172
1075.74	0.146397
1077.38	0.556523
1079.02	0.360357
1080.66	0.685248
1082.3	0.533092
1083.94	0.532049
1085.58	0.919916
1087.22	0.547486
1088.86	-0.0427227
1090.5	0.253675
1092.14	0.0730801
1093.78	0.669885
1095.42	0.769444
1097.05	0.891055
1098.69	0.130436
1100.33	0.706871
1101.96	0.57418
1103.6	0.658138
1105.24	0.377483
1106.87	0.721085
1108.51	1.19342
1110.14	0.353158
1111.78	0.95216
1113.41	0.410771
1115.05	0.985323
1116.68	0.636133
1118.31	0.180314
1119.95	0.989644
1121.58	0.706823
1123.21	1.02444
1124.85	0.551023
1126.48	0.870013
1128.11	-0.0721836
1129.74	0.50457
1131.37	-0.051446
1133	0.376237
1134.63	0.0769873
1136.26	-0.0303068
1137.89	0.118073
1139.52	0.69264
1141.15	0.283823
1142.78	0.0670433
1144.41	-0.384029
1146.04	-0.258583
1147.66	-0.217772
1149.29	0.121936
1150.92	0.781358
1152.55	0.205376
1154.17	0.0765028
1155.8	0.373055
1157.43	-0.096611
1159.05	0.263791
1160.68	0.0505228
1162.3	0.497306
1163.93	0.179426
1165.55	0.053319
1167.17	0.245961
1168.8	0.182657
1170.42	-0.00943756
1172.05	0.731894
1173.67	0.239554
1175.29	-0.0197239
1176.91	0.272159
1178.54	-0.071743
1180.16	0.00873947
1181.78	0.38595
1183.4	-0.145844
1185.02	-0.486817
1186.64	-0.131197
1188.26	0.032814
1189.88	0.17396
1191.5	0.187002
1193.12	0.240883
1194.74	0.188973
1196.36	-0.198219
1197.97	0.609792
1199.59	0.6434
1201.21	0.219189
1202.83	0.110944
1204.44	0.297009
1206.06	0.484637
1207.68	-0.182062
1209.29	-0.0765619
1210.91	0.466307
1212.52	0.423791
1214.14	0.879664
1215.75	0.146239
1217.37	0.535982
1218.98	0.71632
1220.59	0.190369
1222.21	0.41259
1223.82	0.987627
1225.43	0.81763
1227.05	0.752584
1228.66	0.999007
1230.27	0.853456
1231.88	0.605634
1233.49	1.14427
1235.1	0.774499
1236.72	1.08779
1238.33	1.05059
1239.94	0.703772
1241.55	1.16361
1243.16	0.837252
1244.76	1.02744
1246.37	1.21684
1247.98	0.90877
1249.59	0.682883
1251.2	1.22223
1252.8	0.892853
1254.41	1.06053
1256.02	0.753352
1257.62	0.840174
1259.23	1.09352
1260.84	1.20288
1262.44	0.981405
1264.05	1.50555
1265.66	1.3459
1267.26	1.51718
1268.86	1.31455
1270.47	1.09026
1272.07	1.77737
1273.67	1.84153
1275.28	1.80115
1276.88	1.63563
1278.48	0.76519
1280.09	1.24082
1281.69	1.73648
1283.29	0.535416
1284.89	2.29292
1286.49	1.42456
1288.09	1.1156
1289.69	1.79946
1291.29	1.26447
1292.89	1.70063
1294.49	1.12379
1296.09	1.7853
1297.69	1.16504
1299.29	1.38991
1300.89	1.4689
1302.49	1.38191
1304.08	2.34381
1305.68	1.26784
1307.28	1.40534
1308.88	1.19355
1310.47	1.33059
1312.07	1.30389
1313.66	1.40058
1315.26	2.02921
1316.85	1.45302
1318.45	0.776205
1320.04	1.05851
1321.64	1.40074
1323.23	1.80213
1324.83	1.73363
1326.42	1.70466
1328.01	1.53334
1329.61	0.836501
1331.2	1.63919
1332.79	1.37125
1334.38	1.48928
1335.97	1.16462
1337.56	1.56688
1339.16	1.42391
1340.75	1.07834
1342.34	1.71764
1343.93	1.81118
1345.52	1.72283
1347.11	0.852753
1348.7	1.72862
1350.29	1.28408
1351.87	1.32238
1353.46	1.00251
1355.05	0.783883
1356.64	0.865425
1358.22	1.60581
1359.81	1.54614
1361.4	0.467689
1362.98	1.12517
1364.57	0.964219
1366.16	1.34161
1367.74	0.862947
1369.33	0.724099
1370.91	1.50191
1372.5	0.668844
1374.08	1.05056
1375.67	0.955299
1377.25	0.760623
1378.83	0.864036
1380.41	0.489112
1382	0.63052
1383.58	0.631623
1385.16	0.572312
1386.74	0.532559
1388.33	0.671675
1389.91	0.513442
1391.49	0.7132
1393.07	0.437364
1394.65	0.51897
1396.23	0.897842
1397.81	0.502861
1399.39	0.582947
1400.97	0.543386
1402.55	0.305457
1404.13	0.918449
1405.7	0.700723
1407.28	1.01753
1408.86	0.801335
1410.44	0.605447
1412.01	0.607123
1413.59	0.529389
1415.17	0.766714
1416.74	0.667886
1418.32	0.627976
1419.89	0.568658
1421.47	0.490521
1423.04	0.138052
1424.62	0.75137
1426.19	0.0862808
1427.77	0.504132
1429.34	1.21706
1430.91	0.807355
1432.49	0.810088
1434.06	1.24485
1435.63	1.10866
1437.2	1.20862
1438.78	1.44673
1440.35	1.37113
1441.92	0.903296
1443.49	1.53661
1445.06	1.16794
1446.63	1.19248
1448.2	1.62996
1449.77	1.36002
1451.34	1.6606
1452.91	1.72575
1454.48	1.81093
1456.05	1.85677
1457.62	1.66594
1459.18	1.92665
1460.75	1.59549
1462.32	1.71535
1463.89	0.850457
1465.45	1.45962
1467.02	0.987411
1468.59	1.16388
1470.15	1.10541
1471.72	1.34215
1473.28	1.03049
1474.85	1.15101
1476.41	0.27188
1477.98	0.706567
1479.54	0.553035
1481.1	0.948248
1482.67	0.872966
1484.23	0.464509
1485.79	0.486904
1487.36	0.371621
1488.92	0.0792336
1490.48	-0.0185432
1492.04	0.195065
1493.61	0.289489
1495.17	0.206781
1496.73	0.201385
1498.29	0.585005
1499.85	0.423882
1501.41	-0.163131
1502.97	0.415565
1504.53	0.296309
1506.09	0.796933
1507.65	0.290502
1509.2	0.692301
1510.76	0.146785
1512.32	0.218635
1513.88	0.00130558
1515.43	0.149872
1516.99	0.375296
1518.55	0.447368
1520.1	0.270738
1521.66	0.553888
1523.22	0.434786
1524.77	0.200816
1526.33	0.958151
1527.88	0.398898
1529.44	0.240053
1530.99	0.936066
1532.54	0.284297
1534.1	0.468137
1535.65	0.217295
1537.21	0.610124
1538.76	0.455311
1540.31	0.319961
1541.86	0.448685
1543.42	1.08523
1544.97	0.310256
1546.52	0.907784
1548.07	0.790961
1549.62	0.580631
1551.17	0.501937
1552.72	0.704387
1554.27	0.888503
1555.82	0.8493
1557.37	0.643553
1558.92	0.850001
1560.47	0.908602
1562.02	0.781922
1563.56	0.861335
1565.11	0.959888
1566.66	0.797288
1568.21	0.63447
1569.75	0.97529
1571.3	1.55852
1572.85	1.54419
1574.39	1.30573
1575.94	1.04861
1577.49	1.65037
1579.03	1.1137
1580.57	1.36163
1582.12	1.38618
1583.66	0.664164
1585.21	1.32519
1586.75	1.42624
1588.3	0.966367
1589.84	1.14215
1591.38	1.39259
1592.92	1.53046
1594.47	1.27483
1596.01	1.35631
1597.55	1.41943
1599.09	1.48313
1600.63	1.28485
1602.17	1.81871
1603.71	1.69588
1605.25	1.57236
1606.79	1.65435
1608.33	2.03546
1609.87	0.798282
1611.41	1.15684
1612.95	1.43841
1614.49	0.742647
1616.03	0.92894
1617.57	0.627986
1619.1	0.852797
1620.64	1.49057
1622.18	1.62357
1623.72	1.06453
1625.25	1.51649
1626.79	0.938365
1628.32	0.939519
1629.86	1.20139
1631.39	1.46214
1632.93	1.08719
1634.46	1.55292
1636	1.1792
1637.53	1.49661
1639.07	1.47871
1640.6	1.68451
1642.13	1.90827
1643.67	1.38609
1645.2	1.45898
1646.73	1.624
1648.26	1.65843
1649.8	1.86023
1651.33	1.5801
1652.86	1.41259
1654.39	1.98775
1655.92	1.96996
1657.45	2.32271
1658.98	1.71141
1660.51	1.37727
1662.04	1.33835
1663.57	1.8531
1665.1	2.08949
1666.63	1.84593
1668.16	1.82496
1669.68	1.95272
1671.21	1.14196
1672.74	1.16152
1674.27	1.53133
1675.79	1.4221
1677.32	1.91962
1678.85	1.58801
1680.37	1.27422
1681.9	0.831565
1683.42	1.3624
1684.95	1.56228
1686.47	1.06531
1688	0.734231
1689.52	1.00833
1691.05	0.934463
1692.57	0.531315
1694.09	0.366305
1695.62	0.566971
1697.14	1.09612
1698.66	1.13134
1700.18	0.381412
1701.71	0.781038
1703.23	0.25021
1704.75	0.466384
1706.27	0.172403
1707.79	0.333181
1709.31	0.348305
1710.83	-0.21728
1712.35	-0.328474
1713.87	0.158503
1715.39	0.19215
1716.91	0.207605
1718.43	0.222929
1719.95	0.310396
1721.47	0.307621
1722.99	-0.145472
1724.5	0.357665
1726.02	-0.345332
1727.54	0.285231
1729.06	0.304255
1730.57	-0.231668
1732.09	-0.154713
1733.61	-0.0457754
1735.12	0.196697
1736.64	0.114172
1738.15	0.00587416
1739.67	-0.217092
1741.18	-0.0626278
1742.7	0.108869
1744.21	0.00124645
1745.72	0.299913
1747.24	0.0228453
1748.75	0.141158
1750.26	0.173452
1751.77	-0.00819778
1753.29	0.122005
1754.8	0.125237
1756.31	0.0148234
1757.82	0.311216
1759.33	0.15275
1760.84	0.404479
1762.36	0.266984
1763.87	0.0954299
1765.38	0.0497017
1766.89	0.113067
1768.4	0.0100203
1769.91	0.0611725
1771.41	0.315784
1772.92	-0.0724974
1774.43	-0.167272
1775.94	0.0236864
1777.45	-0.0584755
1778.95	0.00209713
1780.46	0.037251
1781.97	-0.00946093
1783.48	-0.00867605
1784.98	-0.130056
1786.49	-0.401691
1787.99	-0.132306
1789.5	0.0113349
1791.01	-0.0370016
1792.51	0.164083
1794.01	-0.023035
1795.52	0.0478816
1797.02	-0.111483
1798.53	0.0306077
1800.03	-0.168578
1801.53	-0.00495434
1803.04	-0.00429583
1804.54	0.220622
1806.04	0.186816
1807.54	-0.100467
1809.05	-0.0665364
1810.55	0.204117
1812.05	-0.0558295
1813.55	0.164345
1815.05	-0.0291705
1816.55	-0.304379
1818.05	0.0248785
1819.55	0.0755086
1821.05	0.0108981
1822.55	0.0048933
1824.05	0.111731
1825.55	-0.126058
1827.05	0.297885
1828.55	0.112496
1830.04	-0.161495
1831.54	-0.0392866
1833.04	0.0595732
1834.54	0.107103
1836.03	-0.0983815
1837.53	0.0494242
1839.03	0.00780392
1840.52	0.255759
1842.02	0.0465922
1843.51	-0.0795989
1845.01	0.10113
1846.5	0.344596
1848	0.191621
1849.49	0.0965605
1850.99	0.133346
1852.48	0.0619655
1853.97	0.212818
1855.47	0.0604467
1856.96	0.356381
1858.45	0.177387
1859.94	0.0761876
1861.44	-0.122023
1862.93	0.310639
1864.42	0.123919
1865.91	0.193923
1867.4	0.0315065
1868.89	0.187602
1870.38	-0.105246
1871.87	0.0139513
1873.36	0.185889
1874.85	0.185946
1876.34	-0.036242
1877.83	0.0755711
1879.32	0.321387
1880.81	0.207326
1882.3	-0.177769
1882.57	-0.257328
1884.07	-0.117985
1885.56	0.299498
1887.06	0.402448
1888.55	-0.121742
1890.04	0.120292
1891.54	-0.0197654
1893.03	-0.297671
1894.52	-0.0874529
1896.02	0.106473
1897.51	-0.0120044
1899	0.0259209
1900.49	0.219677
1901.98	0.0991044
1903.47	0.0642381
1904.96	-0.00640869
1906.45	0.37418
1907.94	0.3897
1909.43	0.561889
1910.92	0.266186
1912.41	0.300908
1913.9	0.318683
1915.39	-0.114348
1916.88	0.371389
1918.37	0.163202
1919.85	0.00678968
1921.34	0.266113
1922.83	-0.028511
1924.32	0.058506
1925.8	0.319435
1927.29	0.182966
1928.78	0.42785
1930.26	0.187878
1931.75	0.276283
1933.23	-0.0173416
1934.72	0.276415
1936.2	0.257273
1937.69	0.15083
1939.17	0.0960345
1940.66	-0.131131
1942.14	-0.0122809
1943.63	0.0209517
1945.11	0.278935
1946.59	0.226719
1948.07	0.312211
1949.56	-0.0335822
1951.04	0.0850959
1952.52	-0.0895419
1954	0.457831
1955.48	0.110884
1956.96	0.434394
1958.45	0.105867
1959.93	0.275679
1961.41	-0.0172286
1962.89	0.101591
1964.37	-0.122487
1965.85	0.235503
1967.32	-0.194674
1968.8	0.281715
1970.28	0.278458
1971.76	-0.0495157
1973.24	-0.0186391
1974.72	0.233981
1976.19	0.0602899
1977.67	0.227594
1979.15	0.207512
1980.63	0.425563
1982.1	0.0312614
1983.58	0.0619302
1985.05	-0.281098
1986.53	0.292045
1988	0.28811
1989.48	0.199748
1990.95	0.0950885
1992.43	0.464799
1993.9	0.0741644
1995.38	-0.0113869
1996.85	0.00478172
1998.32	0.156003
1999.8	0.256147
2001.27	0.0857635
2002.74	0.151304
2004.22	-0.0698957
2005.69	0.181158
2007.16	0.112522
2008.63	0.162487
2010.1	0.0446978
2011.57	0.398643
2013.04	0.11294
2014.51	0.0289402
2015.98	0.213597
2017.45	-0.0229788
2018.92	-0.159088
2020.39	0.309417
2021.86	0.659789
2023.33	0.204401
2024.8	0.337235
2026.27	-0.20008
2027.74	0.286886
2029.2	0.204649
2030.67	0.375008
2032.14	-0.108318
2033.61	0.432405
2035.07	0.0162458
2036.54	0.338682
2038.01	0.660899
2039.47	-0.0758748
2040.94	0.178818
2042.4	0.080802
2043.87	-0.18493
2045.33	0.508919
2046.8	0.244337
2048.26	0.131291
2049.72	0.304384
2051.19	0.460011
2052.65	0.159201
2054.12	0.565331
2055.58	0.346162
2057.04	0.0755148
2058.5	0.22576
2059.97	0.156818
2061.43	0.138744
2062.89	-0.0807214
2064.35	-0.0132847
2065.81	0.0716629
2067.27	0.275009
2068.73	0.344155
2070.19	0.447209
2071.65	-0.00524473
2073.11	0.468146
2074.57	0.436258
2076.03	0.707234
2077.49	0.0180435
2078.95	0.254767
2080.41	0.0701661
2081.87	0.474468
2083.32	0.204823
2084.78	0.557391
2086.24	0.539101
2087.7	0.621237
2089.15	0.215621
2090.61	0.230182
2092.07	0.362188
2093.52	0.594656
2094.98	0.508041
2096.43	0.437908
2097.89	0.384111
2099.34	0.798526
2100.8	0.760564
2102.25	0.772974
2103.71	0.852813
2105.16	0.566402
2106.61	0.965295
2108.07	0.547504
2109.52	0.930534
2110.97	0.562778
2112.43	0.610847
2113.88	0.957306
2115.33	0.619833
2116.78	0.830851
2118.23	0.991943
2119.68	0.92149
2121.13	0.90241
2122.59	0.851683
2124.04	1.20007
2125.49	0.985127
2126.94	1.11816
2128.39	1.10115
2129.83	1.11618
2131.28	1.17984
2132.73	1.11039
2134.18	1.15682
2135.63	1.10463
2137.08	0.904909
2138.53	1.31818
2139.97	1.40242
2141.42	1.28964
2142.87	1.93843
2144.31	1.66183
2145.76	1.36855
2147.21	1.55493
2148.65	1.42622
2150.1	1.90969
2151.54	1.64686
2152.99	1.78082
2154.43	1.88095
2155.88	1.84814
2157.32	2.14671
2158.77	1.91583
2160.21	1.90145
2161.65	1.63999
2163.1	1.86066
2164.54	1.48562
2165.98	2.22311
2167.43	1.94807
2168.87	1.72159
2170.31	1.69297
2171.75	1.6792
2173.19	1.73036
2174.64	2.06313
2176.07	1.91304
2177.52	1.99597
2178.96	1.99642
2180.4	2.11409
2181.84	1.85011
2183.28	1.98566
2184.72	1.90527
2186.15	2.07445
2187.59	1.66134
2189.03	2.03029
2190.47	1.91664
2191.91	1.78607
2193.35	1.72142
2194.78	1.20611
2196.22	1.4219
2197.66	1.53609
2199.09	1.78177
2200.53	1.37827
2201.97	1.75556
2203.4	1.66836
2204.84	1.23399
2206.27	1.31465
2207.71	1.37909
2209.14	1.11211
2210.58	1.4737
2212.01	1.48668
2213.45	1.26764
2214.88	1.14792
2216.31	1.40849
2217.75	1.17478
2219.18	1.51945
2220.61	0.974349
2222.05	1.3361
2223.48	1.07098
2224.91	1.01905
2226.34	1.22909
2227.78	0.763431
2229.21	0.938177
2230.64	0.947906
2232.07	0.941071
2233.5	0.541656
2234.93	0.830383
2236.36	0.841761
2237.79	0.984943
2239.22	0.395216
2240.65	0.75348
2242.08	0.721538
2243.5	0.690526
2244.93	0.627139
2246.36	0.807899
2247.79	0.6123
2249.22	0.659714
2250.64	0.72169
2252.07	0.896173
2253.5	1.05345
2254.92	0.512104
2256.35	0.264959
2257.78	0.75
2259.2	0.750214
2260.63	0.866247
2262.05	0.675817
2263.48	0.583838
2264.9	0.475693
2266.33	0.513492
2267.75	0.501923
2269.18	0.375735
2270.6	0.769825
2272.02	0.235607
2273.45	0.48278
2274.87	0.339166
2276.29	0.423754
2277.71	0.443317
2279.14	0.577055
2280.56	0.352065
2281.98	0.208422
2283.4	0.342004
2284.82	0.394087
2286.24	0.348421
2287.66	0.0090909
2289.08	0.437536
2290.5	0.0168972
2291.92	0.331737
2293.34	0.467038
2294.76	0.19339
2296.18	0.230453
2297.6	0.251132
2299.02	-0.0230222
2300.44	-0.0514331
2301.86	-0.145267
2303.27	0.482879
2304.69	0.356701
2306.11	0.32887
2307.53	0.0871468
2308.94	0.140716
2310.36	0.522789
2311.78	0.279751
2313.19	-0.111539
2314.61	0.155596
2316.02	0.27526
2317.44	0.296746
2318.85	0.38451
2320.27	0.406206
2321.68	0.179584
2323.1	0.0174842
2324.51	0.365341
2325.92	0.414463
2327.34	0.528284
2328.75	0.773274
2330.16	0.540499
2331.58	0.572052
2332.99	0.571509
2334.4	-0.20173
2335.81	-0.0367908
2337.23	0.029067
2338.64	-0.201719
2340.05	0.404932
2341.46	0.271247
2342.87	-0.0103164
2344.28	0.184064
2345.69	0.181726
2347.1	0.097702
2348.51	0.21022
2349.92	-0.0212035
2351.33	-0.138429
2352.74	-0.0274949
2354.15	-0.178469
2355.55	0.0778761
2356.96	-0.285243
2358.37	0.0354862
2359.78	0.0794234
2361.19	0.188255
2362.59	-0.0436115
2364	0.275564
2365.41	0.108688
2366.81	0.168557
2368.22	0.00272226
2369.62	0.0314837
2371.03	-0.116179
2372.44	0.123896
2373.84	-0.0864401
2375.24	0.0577688
2376.65	-0.1202
2378.05	0.0710969
2379.46	-0.365578
2380.86	-0.304988
2382.26	-0.0530415
2383.67	0.165679
2385.07	-0.160112
2386.47	-0.029521
2387.88	-0.0262604
2389.28	0.161177
2390.68	0.189878
2392.08	-0.0990191
2393.48	-0.0686569
2394.89	0.00995922
2396.29	0.104897
2397.69	0.104862
2399.09	0.121123
2400.49	0.233044
2401.89	0.265731
2403.29	-0.146233
2404.69	0.12444
2406.09	-0.0183487
2407.48	0.219126
2408.88	0.186224
2410.28	0.35919
2411.68	-0.0223465
2413.08	0.0404587
2414.48	-0.085865
2415.87	0.295449
2417.27	-0.00304794
2418.67	-0.142646
2420.06	0.0980406
2421.46	0.0377665
2422.86	-0.0544672
2424.25	-0.00430632
2425.65	0.204381
2427.04	0.286716
2428.44	0.116067
2429.83	0.00941133
2431.23	-0.0492582
2432.62	0.20962
2434.02	0.309519
2435.41	0.138591
2436.81	0.188983
2438.2	0.254174
2439.59	0.254883
2440.99	0.191423
2442.38	0.222869
2443.77	-0.0949974
2445.16	0.11069
2446.56	-0.191239
2447.95	0.0775013
2449.34	-0.113362
2450.73	0.218592
2452.12	-0.319826
2453.51	0.313517
2454.9	0.0454469
2456.29	0.521415
2457.68	0.127562
2459.07	0.271405
2460.46	0.541308
2461.85	0.0990243
2463.24	0.162203
2464.63	0.082736
2466.02	-0.107415
2467.4	0.428652
2468.79	0.285751
2470.18	0.190143
2471.57	-0.0475602
2472.95	0.328887
2474.34	-0.14577
2475.73	-0.0853601
2477.12	0.336193
2478.5	0.348726
2479.89	-0.0309215
2481.27	0.232996
2482.66	0.167441
2484.04	0.289497
2485.43	0.097909
2486.81	0.171482
2488.2	-0.0991688
2489.58	0.00435638
2490.97	0.216467
2492.35	-0.0378904
2493.73	0.0662098
2495.12	0.0779691
2496.5	-0.203901
2497.88	0.134759
2499.27	0.117136
2500.65	0.161156
2502.03	0.0963655
2503.41	-0.0153227
2504.79	0.0885291
2506.17	0.160915
2507.56	0.479215
2508.94	-0.110095
2510.32	-0.298561
2511.7	-0.0106215
2513.08	0.0320706
2514.46	0.151875
2515.84	0.272123
2517.22	-0.295566
2518.59	0.299656
2519.97	-0.221106
2521.35	0.20538
2522.73	0.203536
2524.11	0.140081
2525.49	-0.335253
2526.86	0.0731964
2528.24	0.055263
2529.62	-0.144334
2530.99	0.128516
2532.37	0.204835
2533.75	0.0390077
2535.12	0.0104184
2536.5	0.0729418
2537.88	0.347647
2539.25	0.0292578
2540.63	-0.107343
2542	-0.153025
2543.38	0.150489
2544.75	0.317929
2546.12	0.000853062
2547.5	-0.133356
2548.87	-0.191177
2550.24	0.206241
2551.62	-0.00362158
2552.99	0.150086
2554.36	-0.0611386
2555.74	0.2581
2557.11	-0.120904
2558.48	0.0915828
2559.85	0.0767593
2561.22	0.0774751
2562.59	0.139255
2563.96	0.0650496
2565.34	0.142685
2566.71	0.129565
2568.08	-0.0350428
2569.45	0.497514
2570.82	0.226819
2572.18	0.228959
2573.55	-0.011375
2574.92	0.36987
2576.29	0.326693
2577.66	0.146986
2579.03	0.0580769
2580.4	0.150874
2581.77	0.0614309
2583.13	0.365935
2584.5	0.169944
2585.87	-0.177619
2587.23	-0.252208
2588.6	0.0370688
2589.97	-0.00701904
2591.33	0.191262
2592.7	0.404315
2594.06	0.101661
2595.43	0.055892
2596.79	0.130536
2598.16	0.0835309
2599.52	-0.00902557
2600.89	-0.0258455
2602.25	-0.283928
2603.62	0.0322933
2604.98	0.0619354
2606.34	0.197273
2607.71	0.0457783
2609.07	0.119889
2610.43	0.403924
2611.79	0.22005
2613.16	-0.0244737
2614.52	0.00131989
2615.88	-0.0781407
2617.24	0.0375957
2618.6	-0.13101
2619.96	0.194989
2621.32	-0.0621371
2622.68	0.144652
2624.04	0.142272
2625.4	0.139853
2626.76	-0.160979
2628.12	0.164227
2629.48	0.0718312
2630.84	-0.199092
2632.2	0.0655017
2633.56	0.121685
2634.92	-0.312014
2636.28	-0.0777016
2637.63	0.185857
2638.99	0.345391
2640.35	-0.072186
2641.71	-0.119371
2643.06	-0.0924387
2644.42	0.5103
2645.77	0.271266
2647.13	0.0765009
2648.49	0.0141191
2649.84	-0.0487156
2651.2	0.25562
2652.55	0.00108433
2653.91	0.113991
2655.26	0.285841
2656.62	0.209218
2657.97	0.0457015
2659.33	0.146298
2660.68	0.305552
2662.03	-0.339236
2663.39	0.257751
2664.74	0.0360503
2666.09	0.193348
2667.44	0.102329
2668.8	0.200697
2670.15	0.139057
2671.5	-0.0529714
2672.85	0.249704
2674.2	0.160375
2675.55	0.274746
2676.91	0.0412216
2678.26	0.1129
2679.61	-0.27887
2680.96	-0.20588
2682.31	-0.0306206
2683.66	0.0439706
2685	0.0757318
2686.35	-0.254935
2687.7	-0.0489087
2689.05	-0.0177951
2690.4	0.171865
2691.75	-0.00264168
2693.1	0.242657
2694.44	0.342052
2695.79	0.223843
2697.14	-0.0821137
2698.49	0.119874
2699.83	0.105753
2701.18	0.150756
2702.52	-0.00597811
2703.87	0.200155
2705.22	0.0878673
2706.56	0.149561
2707.91	-0.0210562
2709.25	-0.0178938
2710.6	-0.116639
2711.94	-0.215631
2713.29	-0.00962639
2714.63	0.196463
2715.97	0.0827432
2717.32	0.0561166
2718.66	-0.0434399
2720.01	0.191378
2721.35	0.236766
2722.69	0.340043
2724.03	0.253768
2725.38	0.050734
2726.72	-0.0361114
2728.06	0.284341
2729.4	0.357175
2730.74	0.0224771
2732.08	-0.137578
2733.42	0.080678
2734.76	0.284461
2736.1	0.139283
2737.44	0.299629
2738.78	0.139988
2740.12	0.285568
2741.46	0.343532
2742.8	-0.0641723
2744.14	-0.152424
2745.48	0.0204639
2746.82	0.367179
2748.16	0.0602927
2749.49	0.029366
2750.83	0.100119
2752.17	0.0115161
2753.51	0.256459
2754.84	0.0377445
2756.18	0.123409
2757.52	0.252574
2758.85	0.396328
2760.19	0.120582
2761.53	0.351746
2762.86	-0.11135
2764.2	-0.154583
2765.53	0.149407
2766.87	0.250484
2768.2	0.206223
2769.54	-0.0847192
2770.87	0.042695
2772.2	-0.0909138
2773.54	-0.297157
2774.87	0.0876617
2776.2	0.198116
2777.54	0.38059
2778.87	-0.299638
2780.2	0.0417295
2781.53	0.0238338
2782.87	-0.0513887
2784.2	0.231976
2785.53	0.199646
2786.86	-0.0330181
2788.19	-0.479772
2789.52	0.0473371
2790.85	-0.0832877
2792.18	-0.0703316
2793.51	-0.0570855
2794.84	-0.0867047
2796.17	0.0120492
2797.5	0.21035
2798.83	0.165386
2800.16	0.0488
2801.49	0.0605149
2802.82	0.015048
2804.15	-0.144563
2805.47	-0.119153
2806.8	0.0766072
2808.13	0.0298743
2809.46	0.125041
2810.78	-0.177527
2812.11	-0.238007
2813.44	0.340562
2814.76	0.16823
2816.09	-0.25814
2817.42	0.081697
2818.74	0.0250363
2820.07	0.0534096
2821.39	-0.0177441
2822.72	0.222417
2824.04	0.15036
2825.37	0.290564
2826.69	-0.0507383
2828.02	0.146464
2829.34	0.358155
2830.66	0.0463705
2831.99	0.385899
2833.31	0.130846
2834.63	0.512515
2835.96	0.299361
2837.28	0.425476
2838.6	0.551221
2839.92	0.64847
2841.24	0.774024
2842.57	0.390968
2843.89	0.474877
2845.21	0.856047
2846.53	0.870199
2847.85	0.955266
2849.17	1.04035
2850.49	1.18175
2851.81	1.49238
2853.13	1.42099
2854.45	1.43411
2855.77	1.23516
2857.09	1.09277
2858.41	1.06344
2859.72	1.23182
2861.04	1.51297
2862.36	1.46908
2863.68	1.76366
2865	1.69104
2866.31	1.68897
2867.63	1.72939
2868.95	1.93932
2870.26	2.14949
2871.58	2.35969
2872.9	2.54142
2874.21	2.37022
2875.53	2.49408
2876.84	2.50435
2878.16	2.58433
2879.47	2.36869
2880.79	2.53302
2882.1	2.64165
2883.42	2.47012
2884.73	2.55217
2886.05	2.46617
2887.36	2.61884
2888.67	2.8693
2889.99	2.72624
2891.3	2.66673
2892.61	2.48066
2893.92	2.44874
2895.24	2.7952
2896.55	2.68011
2897.86	2.84577
2899.17	2.92821
2900.48	2.77342
2901.79	2.9827
2903.11	3.20609
2904.42	2.81414
2905.73	3.3036
2907.04	3.22002
2908.35	3.3609
2909.66	3.48848
2910.97	3.68653
2912.27	4.45854
2913.58	3.78817
2914.89	4.22257
2916.2	3.89955
2917.51	4.62503
2918.82	4.34192
2920.13	4.80014
2921.43	4.90912
2922.74	4.75352
2924.05	5.06041
2925.35	5.20052
2926.66	4.97771
2927.97	5.35602
2929.27	5.60819
2930.58	5.18883
2931.89	5.80353
2933.19	5.45344
2934.5	5.64847
2935.8	5.56406
2937.11	5.35403
2938.41	5.5075
2939.72	5.67517
2941.02	4.82324
2942.32	5.08992
2943.63	4.51911
2944.93	4.66217
2946.24	4.69441
2947.54	4.3494
2948.84	4.4098
2950.14	3.81122
2951.45	4.23318
2952.75	4.13551
2954.05	3.77071
2955.35	4.00765
2956.65	3.62942
2957.95	3.88273
2959.26	3.60629
2960.56	3.56999
2961.86	3.84367
2963.16	3.78164
2964.46	3.57861
2965.76	3.73941
2967.06	3.09793
2968.36	3.28438
2969.66	2.73912
2970.96	2.93897
2972.25	2.54826
2973.55	2.59384
2974.85	2.69573
2976.15	2.64229
2977.45	2.46111
2978.74	2.33493
2980.04	2.27786
2981.34	2.5716
2982.64	2.25989
2983.93	2.11741
2985.23	2.1867
2986.52	2.1728
2987.82	1.71037
2989.12	1.68428
2990.41	1.61621
2991.71	1.58992
2993	1.35204
2994.3	1.05711
2995.59	0.972234
2996.89	1.35022
2998.18	1.08219
2999.48	0.996933
3000.77	0.771915
3002.06	1.01001
3003.36	0.715785
3004.65	0.856053
3005.94	0.701957
3007.23	0.855484
3008.53	0.616512
3009.82	0.754689
3011.11	0.445035
3012.4	0.289122
3013.69	0.621708
3014.99	0.438323
3016.28	0.408927
3017.57	0.268716
3018.86	0.365562
3020.15	0.253746
3021.44	0.378013
3022.73	0.209855
3024.02	0.318811
3025.31	0.413182
3026.6	0.341023
3027.89	0.269358
3029.18	0.433644
3030.46	0.253369
3031.75	0.115767
3033.04	0.227488
3034.33	-0.0194626
3035.62	-0.114861
3036.9	0.299075
3038.19	-0.198016
3039.48	0.625631
3040.76	0.360468
3042.05	0.630601
3043.34	0.420281
3044.62	0.320672
3045.91	0.222503
3047.19	0.31733
3048.48	0.127014
3049.77	0.429683
3051.05	0.310333
3052.34	0.273467
3053.62	0.0319462
3054.9	0.458498
3056.19	0.47496
3057.47	0.381563
3058.76	0.573798
3060.04	0.425238
3061.32	0.386006
3062.61	0.265924
3063.89	0.486852
3065.17	0.192227
3066.45	0.360857
3067.74	0.081533
3069.02	0.155983
3070.3	0.339081
3071.58	0.127163
3072.86	0.104825
3074.14	0.217585
3075.42	0.383963
3076.7	0.0882478
3077.99	0.105327
3079.26	0.191003
3080.54	0.0335374
3081.82	0.0128446
3083.1	0.155817
3084.38	-0.0399017
3085.66	0.171509
3086.94	-0.160242
3088.22	-0.0174279
3089.5	0.0977778
3090.78	0.185515
3092.05	0.300271
3093.33	-0.08674
3094.61	-0.107226
3095.89	-0.385108
3097.16	0.0285459
3098.44	0.143847
3099.72	-0.174573
3100.99	0.116713
3102.27	0.218313
3103.54	0.0357747
3104.82	-0.0109377
3106.1	0.186502
3107.37	0.168058
3108.65	0.150372
3109.92	0.0387039
3111.2	0.130788
3112.47	0.10157
3113.74	-0.239022
3115.02	0.13862
3116.29	0.367049
3117.56	0.43222
3118.84	-0.0865998
3120.11	-0.0500431
3121.38	0.216379
3122.66	0.278944
3123.93	0.178817
3125.2	0.309111
3126.47	0.16897
3127.74	0.340529
3129.01	0.147195
3130.29	0.238204
3131.56	0.248162
3132.83	0.312087
3134.1	0.0380588
3135.37	0.371449
3136.64	0.123976
3137.91	0.11918
3139.18	0.32969
3140.45	0.36482
3141.72	0.386524
3142.99	0.327815
3144.26	0.242744
3145.52	0.265594
3146.79	0.195075
3148.06	0.232333
3149.33	0.0959406
