200.43	1.10614
202.244	1.10991
204.059	1.11496
205.873	-0.094986
207.688	0.106661
209.501	0.453784
211.314	0.0955849
213.127	0.489459
214.941	0.42129
216.753	0.110583
218.564	0.0669966
220.375	0.21778
222.186	-0.235409
223.999	-0.300379
225.809	-0.0746565
227.618	0.126987
229.428	0.449106
231.236	-0.629148
233.045	0.223458
234.855	0.545268
236.663	0.241306
238.471	-0.374
240.278	-0.239995
242.085	0.233555
243.891	0.22629
245.698	1.16044
247.503	0.307621
249.309	-0.0887957
251.116	0.574865
252.921	0.101717
254.725	0.544393
256.529	0.118443
258.333	-0.234002
260.136	0.186165
261.939	0.101989
263.742	0.380671
265.544	0.347228
267.346	0.169624
269.148	0.281122
270.949	0.223393
272.75	0.526536
274.55	-0.304499
276.351	0.358087
278.15	0.175555
279.95	0.136208
281.749	0.167603
283.548	0.101377
285.346	-0.230048
287.144	0.278729
288.942	0.378967
290.739	-0.119131
292.536	0.00707912
294.333	0.469339
296.129	0.047821
297.925	-0.372349
299.721	-0.098855
301.514	0.269975
303.309	-0.102149
305.104	0.0024786
306.898	0.106353
308.692	0.329202
310.486	0.385573
312.279	-0.0333652
314.072	0.501808
315.862	-0.00921154
317.654	0.195692
319.446	0.211454
321.238	-0.129235
323.029	-0.0403128
324.819	-0.0224352
326.608	0.40153
328.398	0.013628
330.188	0.437621
331.977	-0.0237694
333.766	0.278828
335.553	-0.401206
337.341	-0.149725
339.129	0.00443649
340.917	-0.0100698
342.704	0.189982
344.489	0.318182
346.275	0.446758
348.062	0.289363
349.845	0.251888
351.631	0.381618
353.416	0.200706
355.201	0.209954
356.984	-0.210992
358.768	0.0347672
360.552	0.255551
362.333	0.451521
364.116	0.337513
365.899	-0.180708
367.68	0.179634
369.462	-0.0541415
371.243	-0.0275154
373.023	0.329777
374.804	0.236983
376.585	0.168098
378.363	0.429948
380.143	0.621391
381.923	-0.0809069
383.7	0.0186357
385.479	-0.0689459
387.256	-0.202451
389.034	0.252321
390.812	0.00311184
392.588	-0.456716
394.365	0.211239
396.14	0.12802
397.916	0.0449266
399.691	-0.108753
401.467	-0.145292
403.24	0.522336
405.015	0.226409
406.788	0.0473828
408.563	0.501881
410.335	0.298697
412.109	-0.185965
413.88	0.338858
415.654	-0.097827
417.424	0.522026
419.197	0.109993
420.967	-0.254989
422.739	-0.0803232
424.508	-0.0469918
426.279	-0.366475
428.048	0.0411658
429.819	0.471858
431.587	0.315687
433.356	0.371038
435.124	-0.0661836
436.891	-0.0340161
438.66	-0.330907
440.426	0.380196
442.194	0.878222
443.96	-0.220163
445.725	0.344703
447.492	0.182132
449.257	-0.0039072
451.021	0.371182
452.787	-0.0944724
454.551	0.0939279
456.314	-0.0442648
458.079	-0.252204
459.842	0.401231
461.604	0.00780964
463.368	-0.17477
465.13	0.086051
466.891	0.232841
468.654	0.056437
470.415	0.579015
472.175	0.33482
473.935	0.0664949
475.696	0.704934
477.456	-0.0557861
479.215	0.579632
480.973	0.00295496
482.733	0.521115
484.491	0.13183
486.249	0.209847
488.006	-0.386343
489.765	-0.142079
491.522	-0.456924
493.278	0.373017
495.034	0.362733
496.789	0.0714579
498.544	0.669748
500.301	0.565233
502.056	0.577346
503.81	0.189454
505.564	0.0586643
507.317	0.632141
509.071	0.169799
510.825	0.388309
512.578	0.464428
514.33	-0.166541
516.082	0.330834
517.833	0.356652
519.585	0.287622
521.335	0.171064
523.086	0.24211
524.836	0.524144
526.586	0.524346
528.335	0.876264
530.085	0.524692
531.835	0.782135
533.584	0.476851
535.332	0.21783
537.08	0.402168
538.827	0.56171
540.574	0.743278
542.321	0.271563
544.068	-0.315652
545.814	0.0744367
547.56	-0.0700831
549.305	0.0640883
551.05	-0.195539
552.795	0.054409
554.54	0.0959983
556.282	0.253114
558.025	0.271834
559.769	0.475209
561.512	0.264305
563.255	0.353206
564.997	0.879143
566.739	0.463103
568.481	0.117052
570.223	0.345824
571.964	0.0937099
573.705	0.186999
575.443	0.625726
577.183	-0.563284
578.923	0.267944
580.663	0.250708
582.402	0.210551
584.141	-0.289855
585.879	0.0135241
587.615	-0.143938
589.353	0.295827
591.09	-0.185388
592.828	0.253279
594.564	0.0936017
596.299	0.325056
598.035	0.326401
599.771	0.0513921
601.506	0.350882
603.242	0.166328
604.974	0.371598
606.709	0.345876
608.443	-0.116788
610.177	0.384881
611.908	0.266994
613.642	-0.171181
615.374	-0.104304
617.105	0.787433
618.837	0.601707
620.569	-0.156965
622.3	0.296734
624.03	0.0862188
625.761	0.241456
627.491	0.305931
629.219	0.96516
630.949	0.758876
632.677	1.01064
634.406	0.898187
636.135	0.328902
637.861	0.420222
639.59	0.32688
641.318	0.276968
643.043	0.544314
644.77	0.787395
646.495	0.689024
648.222	0.410393
649.948	0.475262
651.672	0.338534
653.398	0.181947
655.121	0.823807
656.846	0.603355
658.569	0.519962
660.293	0.869616
662.015	1.01313
663.738	0.309427
665.46	0.42617
667.183	0.655841
668.903	0.907831
670.626	0.153863
672.346	-0.0499477
674.067	0.526354
675.787	0.898875
677.508	0.447134
679.226	0.821404
680.947	0.207115
682.665	1.06287
684.385	0.882134
686.102	0.768688
687.821	1.13758
689.538	0.929808
691.254	0.905676
692.972	0.627645
694.688	0.809701
696.406	1.05999
698.121	0.963872
699.835	0.843791
701.552	0.906871
703.266	1.10701
704.98	1.03067
706.695	1.18349
708.409	0.785361
710.121	1.23533
711.836	0.516661
713.548	1.35437
715.26	0.659273
716.973	0.399168
718.685	1.39422
720.396	1.08852
722.108	0.988396
723.818	1.5028
725.528	1.1069
727.238	1.14298
728.949	1.24672
730.658	1.10051
732.367	1.58841
734.075	1.46427
735.785	1.09176
737.493	1.35251
739.2	0.846259
740.907	1.04039
742.614	1.34779
744.322	1.5433
746.028	1.64976
747.734	0.902404
749.439	1.1686
751.144	0.895926
752.849	1.34401
754.555	1.34334
756.26	1.99649
757.963	1.14292
759.667	1.21324
761.37	1.48745
763.073	1.67224
764.775	1.74418
766.477	1.34081
768.179	1.90757
769.883	1.90763
771.584	1.4763
773.285	1.33775
774.986	1.49275
776.686	1.87422
778.386	1.26183
780.085	1.73601
781.785	1.872
783.484	1.71401
785.182	1.66822
786.881	2.07328
788.579	2.13613
790.276	2.12829
791.974	1.71131
793.671	2.10658
795.367	1.7564
797.064	1.79071
798.76	2.32175
800.456	1.63818
802.151	1.81138
803.846	2.20988
805.541	1.79865
807.234	1.38712
808.928	2.14284
810.622	1.95406
812.315	1.92174
814.008	1.95619
815.701	1.83364
817.394	1.64415
819.086	2.52776
820.778	1.55659
822.468	1.79218
824.159	2.02802
825.85	1.95272
827.541	1.76785
829.231	2.40926
830.921	2.14006
832.609	2.38553
834.298	1.4962
835.987	2.25719
837.676	2.63956
839.364	1.45829
841.051	1.36929
842.738	2.44097
844.426	2.26124
846.113	1.99257
847.798	1.79222
849.484	2.44382
851.171	1.68781
852.857	1.62681
854.54	2.10495
856.226	2.15721
857.911	1.48916
859.593	1.56118
861.278	1.81197
862.961	1.56609
864.645	1.16119
866.327	1.34142
868.01	1.16043
869.692	1.67816
871.373	1.22585
873.055	1.31467
874.735	1.47114
876.416	1.08603
878.097	1.4005
879.776	1.19577
881.457	1.23904
883.135	1.37206
884.815	1.4139
886.495	1.36435
888.172	1.08797
889.851	1.55475
891.528	0.892986
893.206	1.44718
894.882	1.18952
896.56	1.74073
898.237	1.48157
899.912	1.02033
901.589	1.59013
903.263	1.41965
904.94	1.00357
906.614	1.88331
908.289	1.28999
909.962	1.83446
911.635	1.0882
913.31	1.16627
914.982	1.11126
916.656	1.52222
918.328	1.3783
920.001	1.19042
921.672	1.18029
923.345	1.0163
925.015	1.2293
926.685	1.04606
928.357	1.41606
930.026	1.10277
931.698	0.503306
933.366	1.20578
935.035	1.35675
936.705	1.17719
938.373	1.32912
940.041	0.97472
941.71	0.929986
943.377	0.775463
945.044	1.30497
946.712	1.06119
948.378	1.21331
950.044	0.944568
951.709	1.31481
953.376	0.890838
955.041	1.0195
956.706	0.576881
958.372	1.21736
960.036	0.999806
961.699	1.11451
963.362	0.919848
965.027	0.568859
966.69	0.569593
968.352	0.656774
970.014	0.9636
971.676	0.982079
973.339	1.31047
975	1.21977
976.661	0.842975
978.322	0.754774
979.982	0.667036
981.642	0.578971
983.303	1.39754
984.962	0.95281
986.621	1.45827
988.28	1.09912
989.938	0.849843
991.596	0.799217
993.254	0.483457
994.911	0.410941
996.57	0.448891
998.227	1.14825
999.884	1.1635
1001.54	1.5748
1003.2	0.994886
1004.85	0.855338
1006.51	0.60601
1008.16	0.884147
1009.82	0.811025
1011.47	0.78219
1013.12	0.972896
1014.78	1.01035
1016.43	0.566464
1018.08	0.736071
1019.74	0.534316
1021.39	0.311619
1023.04	0.308434
1024.69	0.874161
1026.34	0.828337
1028	0.935492
1029.65	0.867367
1031.3	0.885696
1032.95	0.531659
1034.6	0.72219
1036.25	0.475366
1037.9	0.838265
1039.54	0.525711
1041.19	0.670887
1042.84	0.686412
1044.49	0.507695
1046.14	0.743243
1047.78	0.914984
1049.43	0.566763
1051.08	0.50181
1052.72	1.02401
1054.37	0.851392
1056.02	0.65696
1057.66	1.09266
1059.31	0.484491
1060.95	0.462795
1062.6	0.505753
1064.24	0.613249
1065.88	0.698192
1067.53	0.304124
1069.17	0.58308
1070.81	0.318407
1072.45	0.791885
1074.1	0.440798
1075.74	0.459463
1077.38	0.69597
1079.02	0.803254
1080.66	0.477438
1082.3	0.715426
1083.94	0.6275
1085.58	0.278268
1087.22	0.252805
1088.86	0.160905
1090.5	0.58713
1092.14	0.536149
1093.78	0.873597
1095.42	0.649558
1097.05	0.361881
1098.69	0.0110397
1100.33	0.609105
1101.96	0.110586
1103.6	0.237547
1105.24	0.343917
1106.87	0.472203
1108.51	0.0841331
1110.14	-0.132566
1111.78	0.423502
1113.41	0.397877
1115.05	0.50014
1116.68	0.83778
1118.31	0.381821
1119.95	0.226904
1121.58	-0.184061
1123.21	0.30504
1124.85	0.259595
1126.48	0.578435
1128.11	0.384483
1129.74	0.362184
1131.37	0.169284
1133	0.25455
1134.63	-0.130552
1136.26	0.531253
1137.89	0.0168142
1139.52	0.612524
1141.15	0.481075
1142.78	0.0932879
1144.41	0.580426
1146.04	0.00169039
1147.66	0.361783
1149.29	0.0405369
1150.92	0.0606127
1152.55	0.357526
1154.17	0.462433
1155.8	0.269014
1157.43	0.0756178
1159.05	-0.0535984
1160.68	0.0730243
1162.3	0.221668
1163.93	0.0308466
1165.55	0.414477
1167.17	0.0750284
1168.8	-0.0312786
1170.42	0.392612
1172.05	0.559807
1173.67	-0.102562
1175.29	-0.276964
1176.91	-0.154688
1178.54	0.115793
1180.16	0.64038
1181.78	-0.0408154
1183.4	-0.107599
1185.02	0.0581541
1186.64	-0.220383
1188.26	0.0911274
1189.88	-0.0419803
1191.5	-0.0287962
1193.12	0.151466
1194.74	0.0786629
1196.36	-0.077785
1197.97	0.415916
1199.59	0.219539
1201.21	0.0879788
1202.83	0.104716
1204.44	0.269411
1206.06	0.0808811
1207.68	0.206326
1209.29	0.394541
1210.91	0.227566
1212.52	0.559819
1214.14	0.577527
1215.75	0.385274
1217.37	0.545622
1218.98	0.164559
1220.59	0.199364
1222.21	0.338274
1223.82	0.146316
1225.43	0.431974
1227.05	0.490771
1228.66	0.426459
1230.27	0.466526
1231.88	0.404114
1233.49	1.06601
1235.1	0.612733
1236.72	0.821773
1238.33	1.2384
1239.94	0.787267
1241.55	0.915207
1243.16	0.194732
1244.76	0.632167
1246.37	0.862008
1247.98	0.366837
1249.59	0.80223
1251.2	1.17521
1252.8	0.265796
1254.41	1.0738
1256.02	0.910463
1257.62	0.975617
1259.23	0.58647
1260.84	1.08785
1262.44	1.15512
1264.05	0.476709
1265.66	0.274137
1267.26	1.10733
1268.86	0.385255
1270.47	0.906272
1272.07	0.431284
1273.67	0.660476
1275.28	0.971763
1276.88	0.826288
1278.48	0.742417
1280.09	1.34143
1281.69	1.09111
1283.29	1.11002
1284.89	0.736434
1286.49	1.58348
1288.09	0.777462
1289.69	0.799056
1291.29	0.697058
1292.89	1.07024
1294.49	0.9263
1296.09	0.884707
1297.69	0.903845
1299.29	1.25178
1300.89	1.10326
1302.49	1.20116
1304.08	1.33929
1305.68	1.08593
1307.28	0.627305
1308.88	0.928503
1310.47	1.352
1312.07	1.32452
1313.66	1.21588
1315.26	1.43516
1316.85	0.858571
1318.45	0.609744
1320.04	1.19707
1321.64	1.13092
1323.23	1.53174
1324.83	1.44243
1326.42	1.1086
1328.01	1.03871
1329.61	0.84793
1331.2	0.982383
1332.79	0.835395
1334.38	1.19512
1335.97	1.17228
1337.56	1.21043
1339.16	0.80459
1340.75	1.18357
1342.34	0.775437
1343.93	0.969656
1345.52	0.761019
1347.11	1.43522
1348.7	0.767216
1350.29	1.00293
1351.87	1.28031
1353.46	1.03925
1355.05	0.899335
1356.64	0.819745
1358.22	0.460215
1359.81	0.439705
1361.4	0.957318
1362.98	0.556134
1364.57	0.553853
1366.16	1.02993
1367.74	1.3667
1369.33	0.450063
1370.91	1.08734
1372.5	0.750441
1374.08	0.474151
1375.67	0.297858
1377.25	0.818094
1378.83	0.800699
1380.41	0.384601
1382	0.80317
1383.58	0.42507
1385.16	0.603079
1386.74	0.244154
1388.33	1.01756
1389.91	1.05636
1391.49	0.50055
1393.07	0.421766
1394.65	0.521809
1396.23	0.482876
1397.81	-0.0124784
1399.39	0.00700855
1400.97	0.421911
1402.55	0.222311
1404.13	0.814235
1405.7	0.0613284
1407.28	0.732803
1408.86	0.436257
1410.44	0.673598
1412.01	0.693564
1413.59	0.377501
1415.17	0.613489
1416.74	0.611959
1418.32	0.491864
1419.89	0.549417
1421.47	0.725836
1423.04	0.745835
1424.62	0.648984
1426.19	0.612153
1427.77	0.851292
1429.34	0.755635
1430.91	0.895485
1432.49	0.778594
1434.06	1.27087
1435.63	0.857818
1437.2	0.838373
1438.78	1.01605
1440.35	1.27305
1441.92	0.941184
1443.49	1.12085
1445.06	1.20256
1446.63	0.675101
1448.2	1.36642
1449.77	1.38968
1451.34	1.15769
1452.91	1.53571
1454.48	1.50109
1456.05	0.935194
1457.62	1.56903
1459.18	0.942424
1460.75	0.786821
1462.32	1.25942
1463.89	1.12076
1465.45	1.02067
1467.02	0.84181
1468.59	0.977536
1470.15	0.878314
1471.72	0.603469
1473.28	0.604154
1474.85	0.919173
1476.41	0.371717
1477.98	0.569453
1479.54	0.453457
1481.1	0.827399
1482.67	0.789637
1484.23	0.653815
1485.79	0.654899
1487.36	0.772917
1488.92	0.282952
1490.48	0.418243
1492.04	0.10206
1493.61	0.253642
1495.17	0.345062
1496.73	0.708214
1498.29	0.35025
1499.85	0.343403
1501.41	0.609131
1502.97	0.177037
1504.53	0.172679
1506.09	-0.0444059
1507.65	0.221956
1509.2	0.351805
1510.76	0.133172
1512.32	0.511848
1513.88	0.831505
1515.43	0.304708
1516.99	0.278809
1518.55	0.406944
1520.1	0.0180559
1521.66	-0.0062809
1523.22	0.447044
1524.77	0.0778284
1526.33	0.357063
1527.88	0.177885
1529.44	0.283989
1530.99	0.788502
1532.54	0.268084
1534.1	0.260974
1535.65	0.481618
1537.21	0.683576
1538.76	-0.15247
1540.31	0.76707
1541.86	0.290857
1543.42	0.474198
1544.97	0.262188
1546.52	0.632697
1548.07	0.270557
1549.62	0.37772
1551.17	0.728205
1552.72	0.648135
1554.27	0.681056
1555.82	0.397466
1557.37	0.936837
1558.92	0.824171
1560.47	0.545146
1562.02	0.901644
1563.56	0.568756
1565.11	0.684042
1566.66	0.91141
1568.21	0.690727
1569.75	0.861679
1571.3	0.640352
1572.85	0.941468
1574.39	0.962465
1575.94	0.778131
1577.49	0.743282
1579.03	0.634054
1580.57	1.17879
1582.12	0.529045
1583.66	0.608173
1585.21	0.501024
1586.75	0.693283
1588.3	1.14767
1589.84	0.797661
1591.38	0.484485
1592.92	1.25678
1594.47	0.886764
1596.01	1.32219
1597.55	0.839844
1599.09	1.22013
1600.63	1.15109
1602.17	0.96974
1603.71	0.825747
1605.25	1.07563
1606.79	1.17432
1608.33	1.12115
1609.87	0.803068
1611.41	0.445771
1612.95	0.969963
1614.49	0.779369
1616.03	1.02005
1617.57	0.548486
1619.1	0.509182
1620.64	0.86428
1622.18	0.714668
1623.72	0.490847
1625.25	0.922274
1626.79	1.01611
1628.32	1.23986
1629.86	0.377719
1631.39	1.01085
1632.93	0.914464
1634.46	1.35975
1636	0.237946
1637.53	0.609805
1639.07	1.00049
1640.6	1.46548
1642.13	0.644188
1643.67	1.05176
1645.2	1.17881
1646.73	1.32355
1648.26	1.43066
1649.8	0.962278
1651.33	1.33031
1652.86	0.994096
1654.39	1.04839
1655.92	1.14022
1657.45	1.19488
1658.98	0.897005
1660.51	1.06121
1662.04	1.2426
1663.57	1.3119
1665.1	1.45449
1666.63	1.08037
1668.16	0.781387
1669.68	0.944695
1671.21	0.99843
1672.74	1.32928
1674.27	0.776389
1675.79	0.794341
1677.32	1.06934
1678.85	0.883383
1680.37	1.04612
1681.9	0.45472
1683.42	0.745199
1684.95	0.484834
1686.47	0.848564
1688	0.497393
1689.52	0.531586
1691.05	0.309592
1692.57	0.215974
1694.09	0.415062
1695.62	0.193332
1697.14	0.538078
1698.66	0.261288
1700.18	0.386012
1701.71	0.327803
1703.23	0.287474
1704.75	0.283204
1706.27	0.169429
1707.79	0.564644
1709.31	0.704817
1710.83	0.354804
1712.35	0.168706
1713.87	-0.10756
1715.39	-0.129897
1716.91	0.245691
1718.43	0.36753
1719.95	0.200176
1721.47	-0.0569949
1722.99	-0.0249152
1724.5	-0.226396
1726.02	0.275543
1727.54	-0.158018
1729.06	-0.0507398
1730.57	-0.514075
1732.09	0.115211
1733.61	0.167461
1735.12	0.367893
1736.64	0.128834
1738.15	0.00574493
1739.67	0.550946
1741.18	-0.126044
1742.7	0.425455
1744.21	0.111691
1745.72	0.0288892
1747.24	-0.454363
1748.75	-0.059762
1750.26	-0.0275755
1751.77	-0.112872
1753.29	0.0993543
1754.8	-0.0258207
1756.31	0.0858397
1757.82	0.140465
1759.33	0.000815868
1760.84	0.114283
1762.36	-0.0599957
1763.87	0.151551
1765.38	0.0394654
1766.89	0.124588
1768.4	-0.0652404
1769.91	-0.0885711
1771.41	0.0654378
1772.92	0.240856
1774.43	0.0181074
1775.94	0.152718
1777.45	0.0224433
1778.95	0.0544395
1780.46	-0.00239038
1781.97	-0.206769
1783.48	-0.0614052
1784.98	0.0527258
1786.49	0.0919709
1787.99	0.104458
1789.5	0.0809712
1791.01	0.027348
1792.51	0.0560102
1794.01	0.288832
1795.52	-0.0450864
1797.02	0.0731888
1798.53	0.162097
1800.03	-0.0246944
1801.53	0.0908523
1803.04	0.444505
1804.54	-0.0560646
1806.04	0.397066
1807.54	0.0508361
1809.05	0.225132
1810.55	0.153656
1812.05	-0.14202
1813.55	-0.0444183
1815.05	0.131823
1816.55	0.164522
1818.05	0.101674
1819.55	0.215708
1821.05	0.307136
1822.55	0.217844
1824.05	0.0811548
1825.55	0.158511
1827.05	0.237068
1828.55	0.122345
1830.04	-0.0288954
1831.54	0.127188
1833.04	0.284695
1834.54	0.237203
1836.03	0.125738
1837.53	0.230099
1839.03	0.107979
1840.52	0.141265
1842.02	0.0797887
1843.51	0.308565
1845.01	0.0406008
1846.5	0.0232162
1848	0.132522
1849.49	0.0440764
1850.99	0.219222
1852.48	0.166479
1853.97	-0.309222
1855.47	0.157867
1856.96	0.218429
1858.45	0.442944
1859.94	0.0229788
1861.44	0.00848484
1862.93	0.324689
1864.42	0.246439
1865.91	0.0567818
1867.4	-0.0493217
1868.89	-0.114391
1870.38	0.0293145
1871.87	0.197675
1873.36	-0.0960813
1874.85	0.102191
1876.34	0.333513
1877.83	0.312254
1879.32	0.118796
1880.81	0.260421
1882.3	0.0536032
1882.57	-0.00461626
1884.07	-0.215496
1885.56	0.0436926
1887.06	0.319417
1888.55	0.263738
1890.04	0.312674
1891.54	0.0319219
1893.03	0.569737
1894.52	0.291731
1896.02	0.258324
1897.51	0.277706
1899	0.349174
1900.49	-0.0150685
1901.98	-0.189174
1903.47	0.261564
1904.96	0.0329432
1906.45	0.0472016
1907.94	0.269817
1909.43	0.19763
1910.92	0.12622
1912.41	0.246345
1913.9	0.332158
1915.39	0.43534
1916.88	0.226153
1918.37	0.397958
1919.85	0.101502
1921.34	-0.108213
1922.83	0.305877
1924.32	0.183781
1925.8	0.235703
1927.29	-0.00586796
1928.78	0.289739
1930.26	0.360256
1931.75	-0.037425
1933.23	-0.0898509
1934.72	-0.455122
1936.2	0.164885
1937.69	0.143576
1939.17	0.0528502
1940.66	0.169684
1942.14	0.373324
1943.63	0.146348
1945.11	0.00642061
1946.59	0.487447
1948.07	-0.0487838
1949.56	0.121093
1951.04	0.479446
1952.52	0.0451565
1954	-0.337406
1955.48	0.0193796
1956.96	0.118414
1958.45	0.286503
1959.93	0.369217
1961.41	0.16079
1962.89	0.449732
1964.37	0.052979
1965.85	0.0671835
1967.32	-0.0902934
1968.8	-0.00860882
1970.28	0.0383525
1971.76	0.272927
1973.24	-0.0561051
1974.72	-0.0264254
1976.19	-0.269344
1977.67	-0.307426
1979.15	-0.0219922
1980.63	0.126965
1982.1	0.36058
1983.58	-0.170724
1985.05	0.0622807
1986.53	0.192988
1988	0.0692949
1989.48	0.149236
1990.95	0.077291
1992.43	-0.382839
1993.9	-0.114871
1995.38	0.0351853
1996.85	0.371294
1998.32	0.0822868
1999.8	0.181427
2001.27	0.0100341
2002.74	-0.448293
2004.22	0.122065
2005.69	0.254047
2007.16	0.234915
2008.63	0.115504
2010.1	0.316677
2011.57	0.248864
2013.04	0.366243
2014.51	0.113024
2015.98	0.162152
2017.45	-0.310798
2018.92	0.157429
2020.39	0.0871377
2021.86	-0.1679
2023.33	0.0475512
2024.8	0.464756
2026.27	-0.0566864
2027.74	-0.0904746
2029.2	0.0948915
2030.67	0.0967774
2032.14	0.166518
2033.61	0.0352159
2035.07	-0.26414
2036.54	0.175184
2038.01	0.563941
2039.47	0.19626
2040.94	0.231842
2042.4	0.234118
2043.87	0.0856056
2045.33	0.240561
2046.8	-0.243524
2048.26	0.114361
2049.72	-0.151241
2051.19	0.222881
2052.65	-0.0785484
2054.12	0.428136
2055.58	-0.112085
2057.04	0.223529
2058.5	0.54146
2059.97	0.101074
2061.43	-0.0524116
2062.89	0.198793
2064.35	0.181386
2065.81	0.198406
2067.27	0.28339
2068.73	0.166864
2070.19	0.0673842
2071.65	0.153114
2073.11	0.255596
2074.57	0.122151
2076.03	0.527319
2077.49	0.645943
2078.95	0.124332
2080.41	0.309649
2081.87	0.241955
2083.32	0.274771
2084.78	0.576241
2086.24	0.389116
2087.7	0.218478
2089.15	0.467824
2090.61	0.330439
2092.07	0.411387
2093.52	0.408283
2094.98	0.304359
2096.43	0.099618
2097.89	0.229605
2099.34	0.358942
2100.8	0.237016
2102.25	0.516492
2103.71	0.345387
2105.16	0.65948
2106.61	0.373814
2108.07	0.439386
2109.52	0.0716352
2110.97	0.370451
2112.43	0.901296
2113.88	0.114671
2115.33	0.409501
2116.78	0.437182
2118.23	0.332215
2119.68	0.726387
2121.13	0.541014
2122.59	0.373891
2124.04	0.423518
2125.49	0.423874
2126.94	0.739024
2128.39	0.63886
2129.83	0.637085
2131.28	0.617737
2132.73	0.713663
2134.18	0.89219
2135.63	0.922381
2137.08	0.970293
2138.53	0.78834
2139.97	1.00457
2141.42	1.12301
2142.87	0.796015
2144.31	1.03176
2145.76	1.25125
2147.21	1.12297
2148.65	0.894692
2150.1	0.814688
2151.54	0.899554
2152.99	0.917369
2154.43	1.23277
2155.88	0.984479
2157.32	1.34923
2158.77	1.20105
2160.21	1.65037
2161.65	1.18998
2163.1	1.02918
2164.54	1.25102
2165.98	1.12518
2167.43	1.18183
2168.87	1.22104
2170.31	0.759861
2171.75	1.57769
2173.19	1.29608
2174.64	1.52901
2176.07	0.963148
2177.52	1.22903
2178.96	1.54537
2180.4	1.1975
2181.84	1.5154
2183.28	1.45139
2184.72	1.12147
2186.15	0.957851
2187.59	1.19353
2189.03	1.14642
2190.47	1.04934
2191.91	1.43482
2193.35	1.08715
2194.78	1.25451
2196.22	1.12069
2197.66	0.902145
2199.09	1.29768
2200.53	1.34291
2201.97	0.574482
2203.4	1.21787
2204.84	0.982589
2206.27	0.682096
2207.71	0.647329
2209.14	0.960179
2210.58	0.692823
2212.01	0.821952
2213.45	0.851154
2214.88	1.11146
2216.31	0.662184
2217.75	0.610268
2219.18	0.740767
2220.61	0.393766
2222.05	0.607406
2223.48	0.606165
2224.91	0.373312
2226.34	0.435626
2227.78	0.595211
2229.21	0.654959
2230.64	0.189041
2232.07	0.379455
2233.5	0.291423
2234.93	0.482114
2236.36	0.23229
2237.79	0.277904
2239.22	0.488062
2240.65	0.536494
2242.08	0.553697
2243.5	0.604479
2244.93	0.704466
2246.36	0.3472
2247.79	0.478033
2249.22	0.232179
2250.64	0.196708
2252.07	0.339032
2253.5	0.626837
2254.92	-0.125383
2256.35	0.228613
2257.78	0.129634
2259.2	0.0490675
2260.63	0.197805
2262.05	0.36467
2263.48	0.175588
2264.9	0.0189834
2266.33	0.0895772
2267.75	0.0132351
2269.18	0.196548
2270.6	0.232887
2272.02	0.138608
2273.45	-0.0209756
2274.87	0.177819
2276.29	0.262812
2277.71	0.103508
2279.14	0.612577
2280.56	0.420673
2281.98	0.2612
2283.4	0.23211
2284.82	-0.17229
2286.24	0.255746
2287.66	0.521031
2289.08	0.0844841
2290.5	0.366889
2291.92	0.437226
2293.34	0.409596
2294.76	0.431008
2296.18	-0.0714273
2297.6	0.195334
2299.02	0.18386
2300.44	0.172523
2301.86	0.144997
2303.27	0.33094
2304.69	0.287388
2306.11	0.161613
2307.53	-0.243884
2308.94	0.28686
2310.36	0.0611358
2311.78	0.0488138
2313.19	0.0693808
2314.61	-0.0414076
2316.02	0.210533
2317.44	0.0678897
2318.85	0.17269
2320.27	0.145465
2321.68	0.216379
2323.1	0.170373
2324.51	0.584701
2325.92	0.139201
2327.34	0.500822
2328.75	0.46596
2330.16	0.0195389
2331.58	-0.0306425
2332.99	-0.211629
2334.4	-0.145102
2335.81	-0.17714
2337.23	0.070087
2338.64	0.00407171
2340.05	-0.177745
2341.46	-0.146547
2342.87	0.0975938
2344.28	-0.0521846
2345.69	0.355657
2347.1	-0.137615
2348.51	-0.122836
2349.92	0.137013
2351.33	-0.0290799
2352.74	0.245331
2354.15	0.208524
2355.55	0.0245857
2356.96	-0.0126619
2358.37	-0.228751
2359.78	0.140595
2361.19	0.152186
2362.59	0.309658
2364	-0.0191445
2365.41	-0.0884342
2366.81	0.0849786
2368.22	0.193923
2369.62	-0.0998116
2371.03	-0.101973
2372.44	0.170705
2373.84	0.250627
2375.24	0.0571256
2376.65	0.120921
2378.05	0.167756
2379.46	0.100886
2380.86	0.161305
2382.26	-0.00392914
2383.67	-0.121386
2385.07	-0.174724
2386.47	-0.0199499
2387.88	0.135147
2389.28	0.0197926
2390.68	-0.110364
2392.08	-0.0643559
2393.48	-0.0495014
2394.89	0.0295615
2396.29	-0.0657983
2397.69	-0.208309
2399.09	0.158116
2400.49	0.238809
2401.89	0.256176
2403.29	-0.044054
2404.69	0.576467
2406.09	-0.296106
2407.48	0.0213013
2408.88	-0.264791
2410.28	0.067368
2411.68	-0.0283933
2413.08	0.00323009
2414.48	0.0199437
2415.87	0.132718
2417.27	0.0406642
2418.67	0.0284228
2420.06	0.158968
2421.46	-0.185738
2422.86	0.403903
2424.25	0.280487
2425.65	0.188789
2427.04	0.0499134
2428.44	0.418942
2429.83	-0.0992064
2431.23	0.00152111
2432.62	0.292952
2434.02	0.091888
2435.41	0.509418
2436.81	0.163306
2438.2	0.213219
2439.59	0.230384
2440.99	-0.197772
2442.38	0.247051
2443.77	-0.038589
2445.16	0.199293
2446.56	0.0087924
2447.95	0.404703
2449.34	0.103297
2450.73	0.0714898
2452.12	0.214211
2453.51	0.230847
2454.9	0.295584
2456.29	0.471563
2457.68	0.0624948
2459.07	-0.125211
2460.46	0.0188084
2461.85	-0.280513
2463.24	0.241658
2464.63	0.273245
2466.02	0.0677032
2467.4	0.0990505
2468.79	0.398556
2470.18	0.429527
2471.57	-0.280715
2472.95	0.175064
2474.34	0.0787129
2475.73	0.249435
2477.12	0.0581241
2478.5	0.0869498
2479.89	-0.00967741
2481.27	0.0821228
2482.66	-0.0299468
2484.04	0.0143557
2485.43	0.401989
2486.81	-0.211864
2488.2	-0.0605187
2489.58	0.0431728
2490.97	-0.0713825
2492.35	0.358777
2493.73	-0.158367
2495.12	0.288246
2496.5	-0.0554428
2497.88	-0.0882373
2499.27	-0.0898514
2500.65	-0.0143809
2502.03	0.214942
2503.41	-0.128151
2504.79	-0.13188
2506.17	0.202925
2507.56	0.413691
2508.94	0.0860395
2510.32	-0.0409484
2511.7	0.124284
2513.08	-0.00145054
2514.46	0.317816
2515.84	-0.00555563
2517.22	-0.450331
2518.59	0.0842123
2519.97	0.205741
2521.35	-0.299234
2522.73	-0.31567
2524.11	0.292664
2525.49	0.274705
2526.86	0.149995
2528.24	-0.141568
2529.62	0.404368
2530.99	0.0998111
2532.37	0.19177
2533.75	0.223929
2535.12	-0.153598
2536.5	0.228458
2537.88	0.260566
2539.25	0.231187
2540.63	0.110109
2542	0.110271
2543.38	0.125825
2544.75	0.187507
2546.12	0.0225759
2547.5	0.298422
2548.87	0.0439568
2550.24	0.0322208
2551.62	0.0201197
2552.99	0.371579
2554.36	0.160755
2555.74	0.17691
2557.11	0.0713129
2558.48	0.420578
2559.85	-0.0335751
2561.22	0.331297
2562.59	0.46922
2563.96	0.334797
2565.34	0.185546
2566.71	-0.296937
2568.08	0.281467
2569.45	0.450716
2570.82	0.301689
2572.18	0.0920405
2573.55	0.291711
2574.92	0.0669966
2576.29	0.00904036
2577.66	0.22393
2579.03	0.0747633
2580.4	0.33473
2581.77	0.700516
2583.13	0.0956306
2584.5	0.385112
2585.87	0.35617
2587.23	0.266698
2588.6	0.298621
2589.97	0.148761
2591.33	0.423115
2592.7	7.15256e-005
2594.06	-0.105296
2595.43	-0.196189
2596.79	0.226897
2598.16	-0.137667
2599.52	0.0421963
2600.89	0.221929
2602.25	0.0846977
2603.62	0.0537481
2604.98	0.143934
2606.34	0.29452
2607.71	0.248715
2609.07	0.24752
2610.43	0.0044322
2611.79	0.332624
2613.16	0.268451
2614.52	0.158762
2615.88	0.0491147
2617.24	0.0897646
2618.6	0.100823
2619.96	0.15731
2621.32	0.483379
2622.68	0.107113
2624.04	0.343718
2625.4	0.102456
2626.76	0.413056
2628.12	0.410042
2629.48	0.109011
2630.84	0.299251
2632.2	0.399907
2633.56	0.158726
2634.92	0.12569
2636.28	0.151999
2637.63	0.0597081
2638.99	0.026824
2640.35	0.17163
2641.71	0.0650883
2643.06	0.0475311
2644.42	0.118686
2645.77	-0.03161
2647.13	0.289723
2648.49	-0.0822315
2649.84	0.311075
2651.2	0.14449
2652.55	-0.0513487
2653.91	0.149477
2655.26	0.335811
2656.62	0.215098
2657.97	0.0954013
2659.33	0.356818
2660.68	-0.185913
2662.03	0.163226
2663.39	-0.0288677
2664.74	0.0706067
2666.09	0.315239
2667.44	0.398828
2668.8	0.118191
2670.15	0.332884
2671.5	0.0823965
2672.85	-0.123709
2674.2	0.425985
2675.55	0.409468
2676.91	0.349869
2678.26	0.290809
2679.61	-0.217086
2680.96	0.044312
2682.31	-0.0704217
2683.66	0.236176
2685	0.0939503
2686.35	0.430784
2687.7	0.129028
2689.05	0.189184
2690.4	0.175522
2691.75	-0.0136371
2693.1	0.245989
2694.44	0.200161
2695.79	0.284691
2697.14	0.0509157
2698.49	0.310602
2699.83	0.28184
2701.18	0.283321
2702.52	0.141049
2703.87	0.115351
2705.22	0.118979
2706.56	-0.0804262
2707.91	0.0825667
2709.25	0.0711927
2710.6	0.43711
2711.94	-0.242867
2713.29	0.631474
2714.63	-0.136249
2715.97	0.171481
2717.32	0.421097
2718.66	0.132371
2720.01	0.0323968
2721.35	0.0921412
2722.69	0.398978
2724.03	0.356161
2725.38	-0.00721407
2726.72	0.342343
2728.06	0.240446
2729.4	0.0365186
2730.74	-0.0801692
2732.08	0.254148
2733.42	0.108395
2734.76	-0.00811863
2736.1	0.282766
2737.44	0.210109
2738.78	0.0356288
2740.12	0.0936518
2741.46	0.0640702
2742.8	0.0194893
2744.14	0.10522
2745.48	-0.100102
2746.82	0.435012
2748.16	0.185722
2749.49	0.110774
2750.83	0.384097
2752.17	-0.0239954
2753.51	0.13357
2754.84	0.189732
2756.18	0.216979
2757.52	0.0705714
2758.85	-0.0900555
2760.19	0.212787
2761.53	0.255401
2762.86	0.269407
2764.2	0.0376558
2765.53	-0.107291
2766.87	0.109121
2768.2	0.122285
2769.54	0.134497
2770.87	0.232337
2772.2	-0.234139
2773.54	0.136245
2774.87	-0.215193
2776.2	-0.0187163
2777.54	-0.095758
2778.87	0.330995
2780.2	-0.0759487
2781.53	0.00612831
2782.87	-0.19887
2784.2	0.327757
2785.53	-0.0779028
2786.86	0.333485
2788.19	0.243749
2789.52	0.269144
2790.85	0.209363
2792.18	-0.00709343
2793.51	0.16283
2794.84	-0.238979
2796.17	-0.112179
2797.5	-0.028698
2798.83	0.139987
2800.16	-0.148477
2801.49	-0.0802526
2802.82	-0.0122409
2804.15	0.0270014
2805.47	0.279501
2806.8	0.3462
2808.13	-0.000130653
2809.46	-0.20413
2810.78	-0.0669789
2812.11	0.212308
2813.44	-0.0610418
2814.76	0.0638509
2816.09	-0.164663
2817.42	0.13207
2818.74	-0.180274
2820.07	-0.0815964
2821.39	0.215168
2822.72	-0.112142
2824.04	0.027761
2825.37	-0.0592761
2826.69	0.0520101
2828.02	0.262725
2829.34	-0.0500073
2830.66	0.0623097
2831.99	0.330466
2833.31	0.159748
2834.63	0.441727
2835.96	0.213802
2837.28	0.339285
2838.6	0.280495
2839.92	0.50442
2841.24	0.459685
2842.57	0.387005
2843.89	0.526809
2845.21	0.525787
2846.53	0.327348
2847.85	0.892329
2849.17	0.778942
2850.49	1.00454
2851.81	0.805746
2853.13	0.422876
2854.45	0.689835
2855.77	0.801173
2857.09	0.870089
2858.41	0.981387
2859.72	0.767822
2861.04	0.780115
2862.36	1.01805
2863.68	1.01567
2865	0.815566
2866.31	0.925892
2867.63	1.19147
2868.95	1.33034
2870.26	1.53995
2871.58	1.34082
2872.9	1.70528
2874.21	1.56179
2875.53	1.47395
2876.84	1.5825
2878.16	1.71849
2879.47	1.72757
2880.79	1.55416
2882.1	1.5782
2883.42	1.6451
2884.73	2.04963
2886.05	1.7104
2887.36	1.4696
2888.67	1.84597
2889.99	1.63242
2891.3	1.76895
2892.61	1.66667
2893.92	1.46632
2895.24	1.7845
2896.55	1.45914
2897.86	1.72244
2899.17	1.5806
2900.48	1.70515
2901.79	1.56422
2903.11	1.78712
2904.42	1.45061
2905.73	1.81367
2907.04	2.34497
2908.35	2.28941
2909.66	2.24844
2910.97	2.37579
2912.27	2.48917
2913.58	2.44804
2914.89	2.72789
2916.2	2.78248
2917.51	3.50767
2918.82	3.05645
2920.13	2.92712
2921.43	2.82634
2922.74	2.89427
2924.05	3.04707
2925.35	2.96305
2926.66	3.04722
2927.97	3.11744
2929.27	3.13147
2930.58	3.32683
2931.89	3.43796
2933.19	3.5489
2934.5	3.25448
2935.8	3.46332
2937.11	3.3788
2938.41	3.37827
2939.72	3.12644
2941.02	3.2383
2942.32	3.32288
2943.63	3.2826
2944.93	3.13149
2946.24	2.98115
2947.54	2.69122
2948.84	2.65282
2950.14	2.44556
2951.45	2.67106
2952.75	2.51714
2954.05	2.09627
2955.35	2.38918
2956.65	2.58471
2957.95	2.40382
2959.26	2.57488
2960.56	1.94961
2961.86	1.98386
2963.16	2.06077
2964.46	2.12335
2965.76	1.8338
2967.06	1.89419
2968.36	2.09431
2969.66	1.78777
2970.96	1.74827
2972.25	1.94814
2973.55	1.71212
2974.85	1.82788
2976.15	1.57717
2977.45	1.11428
2978.74	1.52319
2980.04	1.46624
2981.34	0.873722
2982.64	1.36432
2983.93	1.23618
2985.23	1.19326
2986.52	0.954712
2987.82	1.08258
2989.12	1.00037
2990.41	0.904289
2991.71	1.32788
2993	0.795038
2994.3	0.739194
2995.59	0.794968
2996.89	0.79404
2998.18	0.624586
2999.48	0.385347
3000.77	0.314947
3002.06	0.413215
3003.36	0.217469
3004.65	0.190024
3005.94	0.232444
3007.23	0.414399
3008.53	0.301796
3009.82	0.496308
3011.11	0.298818
3012.4	0.40848
3013.69	0.071599
3014.99	0.111918
3016.28	-0.306998
3017.57	0.0408392
3018.86	0.166034
3020.15	-0.0982308
3021.44	0.0544686
3022.73	-0.293592
3024.02	-0.142186
3025.31	0.0223231
3026.6	0.0201964
3027.89	0.129147
3029.18	0.141975
3030.46	0.0868244
3031.75	-0.00860214
3033.04	0.241941
3034.33	-0.0318484
3035.62	0.0114727
3036.9	0.108983
3038.19	-0.11175
3039.48	0.272111
3040.76	0.0904689
3042.05	-0.0638723
3043.34	-0.0944223
3044.62	0.0947642
3045.91	0.216382
3047.19	0.0525594
3048.48	-0.041028
3049.77	-0.160279
3051.05	0.212915
3052.34	0.109088
3053.62	0.0462394
3054.9	0.296733
3056.19	0.0144973
3057.47	0.11342
3058.76	0.170838
3060.04	0.0782785
3061.32	0.176656
3062.61	-0.0915399
3063.89	0.0358052
3065.17	0.0826817
3066.45	0.252956
3067.74	0.111301
3069.02	0.0379233
3070.3	0.249992
3071.58	0.135062
3072.86	0.0601025
3074.14	0.106672
3075.42	0.125412
3076.7	-0.141216
3077.99	0.0542636
3079.26	0.0197582
3080.54	0.108496
3081.82	-0.0728927
3083.1	0.0993633
3084.38	0.150099
3085.66	-0.0433483
3086.94	-0.23711
3088.22	0.206606
3089.5	0.134091
3090.78	-0.00652409
3092.05	0.0563736
3093.33	-0.124724
3094.61	0.0606685
3095.89	0.259809
3097.16	0.0523205
3098.44	-0.00598478
3099.72	0.00345135
3100.99	0.053525
3102.27	0.225563
3103.54	0.0457821
3104.82	0.286127
3106.1	-0.190259
3107.37	-0.219267
3108.65	-0.0850849
3109.92	-0.261381
3111.2	-0.0172744
3112.47	0.0379534
3113.74	-0.00124979
3115.02	-0.0539875
3116.29	0.0285816
3117.56	0.219152
3118.84	0.00213432
3120.11	0.123478
3121.38	-0.0811892
3122.66	-0.16408
3123.93	0.118811
3125.2	0.320428
3126.47	0.359884
3127.74	-0.24958
3129.01	0.169668
3130.29	0.0752306
3131.56	0.413543
3132.83	0.265176
3134.1	-0.0993743
3135.37	0.143644
3136.64	0.669382
3137.91	0.115618
3139.18	0.397677
3140.45	0.302416
3141.72	0.28815
3142.99	0.314517
3144.26	0.623228
3145.52	0.690553
3146.79	0.476869
3148.06	0.357856
3149.33	0.145794
