200.43	0.586617
202.244	0.623897
204.059	0.662202
205.873	0.579688
207.688	-0.402138
209.501	0.195635
211.314	0.74288
213.127	-0.484039
214.941	0.229812
216.753	0.0449657
218.564	-0.575732
220.375	0.329596
222.186	-0.120041
223.999	0.398619
225.809	0.119658
227.618	0.0823641
229.428	0.575727
231.236	0.488605
233.045	-0.563928
234.855	-0.120343
236.663	0.0828352
238.471	0.336022
240.278	-0.276194
242.085	0.391303
243.891	-0.411013
245.698	0.571643
247.503	-0.160883
249.309	0.35901
251.116	-0.331661
252.921	0.302472
254.725	-0.223846
256.529	0.0453615
258.333	-0.0465746
260.136	-0.112915
261.939	0.111549
263.742	0.289314
265.544	0.323463
267.346	-0.0519028
269.148	-0.693086
270.949	0.400415
272.75	0.190807
274.55	-0.116843
276.351	0.369279
278.15	-0.279473
279.95	0.250382
281.749	0.657036
283.548	0.195207
285.346	0.525439
287.144	0.494029
288.942	0.00694561
290.739	0.000463486
292.536	-0.124566
294.333	0.51739
296.129	0.347111
297.925	0.0584402
299.721	0.0570335
301.514	0.389676
303.309	-0.28165
305.104	-0.142332
306.898	0.663613
308.692	0.15719
310.486	-0.157705
312.279	0.409883
314.072	-0.0928755
315.862	0.00137901
317.654	0.78793
319.446	0.00400829
321.238	0.555187
323.029	0.416021
324.819	0.205422
326.608	0.543678
328.398	0.28473
330.188	0.38327
331.977	0.648038
333.766	0.647976
335.553	0.837033
337.341	0.640779
339.129	0.346619
340.917	0.600973
342.704	0.519502
344.489	0.0794926
346.275	0.500061
348.062	0.658281
349.845	-0.0187178
351.631	0.497906
353.416	-0.131724
355.201	0.00123501
356.984	0.275772
358.768	0.572459
360.552	0.105454
362.333	0.161607
364.116	0.454616
365.899	0.294935
367.68	0.253336
369.462	0.329436
371.243	0.807093
373.023	0.644068
374.804	0.38641
376.585	0.223726
378.363	0.32119
380.143	-0.0990038
381.923	0.659454
383.7	0.0537376
385.479	0.484299
387.256	0.422115
389.034	-0.32022
390.812	0.347826
392.588	-0.392663
394.365	0.605238
396.14	0.523149
397.916	0.182751
399.691	0.852022
401.467	0.440395
403.24	-0.230305
405.015	0.0612268
406.788	0.44582
408.563	0.031373
410.335	-0.265946
412.109	0.657165
413.88	0.360127
415.654	0.0403185
417.424	0.0262384
419.197	0.106582
420.967	0.656537
422.739	-0.202072
424.508	0.346978
426.279	0.0030365
428.048	0.339022
429.819	0.13455
431.587	0.540245
433.356	0.101248
435.124	-0.33747
436.891	0.18599
438.66	-0.183075
440.426	0.150497
442.194	-0.339036
443.96	-0.220628
445.725	0.247224
447.492	0.479029
449.257	0.616358
451.021	0.029212
452.787	0.213679
454.551	-0.161783
456.314	0.0925751
458.079	0.2299
459.842	-0.0518475
461.604	0.365013
463.368	-0.332793
465.13	-0.214682
466.891	0.347471
468.654	-0.482157
470.415	0.596137
472.175	0.652395
473.935	0.102629
475.696	-0.0301008
477.456	0.627042
479.215	0.350591
480.973	-0.229655
482.733	0.704134
484.491	0.544337
486.249	0.223296
488.006	0.30029
489.765	-0.0171547
491.522	0.692984
493.278	0.657342
495.034	0.598441
496.789	0.375468
498.544	0.667234
500.301	0.560402
502.056	0.100655
503.81	0.907673
505.564	0.30443
507.317	0.89843
509.071	0.644487
510.825	0.553481
512.578	0.531443
514.33	-0.00975037
516.082	0.647655
517.833	0.292249
519.585	0.171176
521.335	0.754348
523.086	0.467518
524.836	0.626709
526.586	0.644935
528.335	0.358344
530.085	0.915576
531.835	0.347547
533.584	0.879531
535.332	0.0763645
537.08	0.862279
538.827	0.151114
540.574	0.116584
542.321	0.384148
544.068	0.0225286
545.814	0.521469
547.56	0.369534
549.305	0.473181
551.05	0.322083
552.795	0.21775
554.54	0.830114
556.282	-0.382058
558.025	-0.346234
559.769	0.127706
561.512	-0.135297
563.255	0.0626955
564.997	-0.267721
566.739	0.52845
568.481	-0.236678
570.223	-0.334598
571.964	0.509395
573.705	-0.159286
575.443	0.183097
577.183	-0.27593
578.923	0.207162
580.663	0.645513
582.402	0.142288
584.141	-0.109038
585.879	0.213438
587.615	0.373876
589.353	0.579195
591.09	-0.734915
592.828	-0.0938911
594.564	0.224855
596.299	0.957758
598.035	0.195182
599.771	0.237513
601.506	-0.319041
603.242	-0.393593
604.974	0.450158
606.709	-0.0408487
608.443	0.0190372
610.177	0.216406
611.908	-0.044755
613.642	-0.190284
615.374	-0.105867
617.105	0.345247
618.837	0.452014
620.569	-0.129074
622.3	0.272999
624.03	-0.377851
625.761	0.18289
627.491	-0.0323219
629.219	0.188128
630.949	0.593264
632.677	0.840722
634.406	0.564433
636.135	0.219296
637.861	-0.104677
639.59	0.98384
641.318	0.51742
643.043	0.32268
644.77	0.60514
646.495	0.38692
648.222	0.0799227
649.948	0.367011
651.672	0.385079
653.398	0.634298
655.121	0.432226
656.846	0.163803
658.569	0.328876
660.293	0.197315
662.015	0.863343
663.738	-0.0944729
665.46	0.842003
667.183	0.816683
668.903	0.721945
670.626	0.261807
672.346	0.970411
674.067	0.949486
675.787	0.930758
677.508	0.454462
679.226	1.03388
680.947	0.785861
682.665	0.489623
684.385	0.60526
686.102	0.53479
687.821	0.762136
689.538	0.52777
691.254	1.49048
692.972	0.425489
694.688	0.212116
696.406	0.688697
698.121	0.496277
699.835	0.141705
701.552	0.93627
703.266	1.01646
704.98	1.18769
706.695	0.233558
708.409	1.27559
710.121	1.58233
711.836	1.22424
713.548	1.11808
715.26	0.532002
716.973	1.40815
718.685	1.53008
720.396	0.922646
722.108	0.840178
723.818	0.50765
725.528	0.584786
727.238	0.502523
728.949	1.28231
730.658	1.31205
732.367	0.503375
734.075	1.48351
735.785	1.53501
737.493	1.47391
739.2	1.34596
740.907	0.790946
742.614	0.778583
744.322	1.28537
746.028	0.915477
747.734	1.6721
749.439	1.30514
751.144	1.16453
752.849	1.11521
754.555	1.22475
756.26	1.51591
757.963	1.31357
759.667	1.38286
761.37	1.70143
763.073	1.70518
764.775	1.70869
766.477	1.86922
768.179	1.84718
769.883	1.57412
771.584	1.75114
773.285	1.4518
774.986	1.85295
776.686	1.5763
778.386	2.34109
780.085	1.72817
781.785	1.54596
783.484	1.90697
785.182	2.06334
786.881	1.7193
788.579	1.98318
790.276	2.19816
791.974	1.41549
793.671	1.897
795.367	1.40728
797.064	2.31671
798.76	1.87515
800.456	1.45859
802.151	1.69634
803.846	1.14751
805.541	1.58811
807.234	2.25223
808.928	2.66738
810.622	2.16061
812.315	2.2142
814.008	1.5725
815.701	1.58084
817.394	1.65622
819.086	1.77624
820.778	2.11955
822.468	1.97184
824.159	2.02584
825.85	1.74699
827.541	1.73787
829.231	2.11015
830.921	2.68605
832.609	2.08453
834.298	2.6439
835.987	1.66603
837.676	1.78041
839.364	1.55882
841.051	2.29594
842.738	1.95964
844.426	1.71205
846.113	1.53207
847.798	1.64442
849.484	2.11734
851.171	1.83226
852.857	1.92973
854.54	1.37769
856.226	1.31852
857.911	1.12325
859.593	2.14113
861.278	1.8301
862.961	1.31425
864.645	1.47276
866.327	1.47263
868.01	1.11106
869.692	1.5157
871.373	0.747193
873.055	1.17397
874.735	0.743367
876.416	1.71181
878.097	1.41662
879.776	0.602085
881.457	1.93166
883.135	1.68035
884.815	1.38279
886.495	1.42244
888.172	1.84404
889.851	1.7224
891.528	1.10353
893.206	1.43001
894.882	1.10226
896.56	0.122106
898.237	0.849674
899.912	1.23831
901.589	1.08751
903.263	1.29457
904.94	1.25505
906.614	1.52837
908.289	1.66788
909.962	1.18447
911.635	0.658504
913.31	1.24549
914.982	0.654943
916.656	1.41872
918.328	1.00642
920.001	0.882824
921.672	0.715764
923.345	0.793203
925.015	0.938386
926.685	1.6372
928.357	1.25569
930.026	1.1846
931.698	0.937748
933.366	1.39718
935.035	0.709695
936.705	0.530041
938.373	1.47601
940.041	1.49691
941.71	0.879335
943.377	0.880075
945.044	0.439272
946.712	0.990603
948.378	1.01043
950.044	0.520777
951.709	1.19948
953.376	0.995574
955.041	0.859442
956.706	1.05679
958.372	1.43392
960.036	1.15215
961.699	0.915774
963.362	1.01055
965.027	1.70098
966.69	0.265274
968.352	0.242442
970.014	0.74859
971.676	0.501657
973.339	0.675401
975	0.73993
976.661	1.93417
978.322	1.22801
979.982	0.84303
981.642	0.457471
983.303	1.74189
984.962	1.91754
986.621	1.09494
988.28	0.934721
989.938	0.817602
991.596	0.633649
993.254	0.582256
994.911	0.64138
996.57	0.921163
998.227	1.59749
999.884	2.07447
1001.54	1.38327
1003.2	1.72685
1004.85	1.10199
1006.51	0.939377
1008.16	1.01867
1009.82	0.878728
1011.47	0.980641
1013.12	0.95139
1014.78	1.0759
1016.43	1.44149
1018.08	1.15081
1019.74	0.948711
1021.39	0.725953
1023.04	0.46071
1024.69	1.28923
1026.34	0.413696
1028	1.24265
1029.65	1.19691
1031.3	1.21546
1032.95	1.05772
1034.6	1.2039
1036.25	1.17403
1037.9	1.18691
1039.54	0.894921
1041.19	1.25656
1042.84	1.48862
1044.49	1.20081
1046.14	1.58857
1047.78	1.02261
1049.43	0.892758
1051.08	1.04653
1052.72	0.983952
1054.37	1.16076
1056.02	1.25071
1057.66	0.644763
1059.31	0.690395
1060.95	1.3225
1062.6	0.127315
1064.24	0.822975
1065.88	0.126107
1067.53	0.276128
1069.17	0.0340586
1070.81	0.877378
1072.45	0.547662
1074.1	0.283772
1075.74	0.975449
1077.38	1.12595
1079.02	0.648831
1080.66	0.64959
1082.3	1.25751
1083.94	0.715327
1085.58	0.301801
1087.22	0.168291
1088.86	0.530996
1090.5	0.869819
1092.14	0.839364
1093.78	0.830043
1095.42	1.12294
1097.05	0.618569
1098.69	1.12873
1100.33	0.542104
1101.96	1.37816
1103.6	0.408463
1105.24	0.515925
1106.87	1.09711
1108.51	0.344565
1110.14	0.601764
1111.78	1.3086
1113.41	0.573868
1115.05	0.225146
1116.68	0.519884
1118.31	0.878606
1119.95	0.594811
1121.58	1.04035
1123.21	0.180968
1124.85	1.07762
1126.48	0.263474
1128.11	0.583854
1129.74	0.669628
1131.37	0.178719
1133	0.265376
1134.63	0.416031
1136.26	0.672902
1137.89	0.0312157
1139.52	0.26453
1141.15	-0.0157146
1142.78	0.685397
1144.41	0.660763
1146.04	0.274407
1147.66	0.294187
1149.29	0.314795
1150.92	-0.30313
1152.55	-0.00506401
1154.17	0.398978
1155.8	-0.134048
1157.43	0.609684
1159.05	0.608866
1160.68	0.65141
1162.3	0.142225
1163.93	-0.153307
1165.55	0.146983
1167.17	0.213163
1168.8	-0.0405607
1170.42	0.363121
1172.05	-0.0214176
1173.67	0.909123
1175.29	-0.114724
1176.91	0.431204
1178.54	-0.040309
1180.16	-0.531642
1181.78	-0.323445
1183.4	0.202238
1185.02	0.452682
1186.64	-0.142706
1188.26	-0.0424604
1189.88	0.0979185
1191.5	0.341438
1193.12	-0.426321
1194.74	0.528852
1196.36	0.265346
1197.97	0.589694
1199.59	0.454843
1201.21	0.552398
1202.83	0.318346
1204.44	0.880133
1206.06	0.838632
1207.68	1.27833
1209.29	0.800404
1210.91	0.113267
1212.52	0.592441
1214.14	0.443884
1215.75	0.501551
1217.37	0.578141
1218.98	1.0276
1220.59	0.479555
1222.21	0.410246
1223.82	1.12963
1225.43	1.14544
1227.05	0.521308
1228.66	1.34702
1230.27	0.974179
1231.88	0.644109
1233.49	1.10073
1235.1	1.00051
1236.72	0.777487
1238.33	1.27897
1239.94	1.09899
1241.55	0.981157
1243.16	1.81461
1244.76	1.61297
1246.37	0.975668
1247.98	2.05479
1249.59	1.53977
1251.2	1.43828
1252.8	1.68867
1254.41	1.46403
1256.02	1.84035
1257.62	1.32849
1259.23	1.19009
1260.84	1.2388
1262.44	1.39158
1264.05	1.50307
1265.66	1.24123
1267.26	2.03561
1268.86	1.39882
1270.47	1.56941
1272.07	1.98772
1273.67	2.11461
1275.28	1.45271
1276.88	1.10099
1278.48	1.39082
1280.09	1.51412
1281.69	2.09232
1283.29	1.86329
1284.89	1.75909
1286.49	1.77992
1288.09	1.90518
1289.69	1.51473
1291.29	1.43486
1292.89	2.14006
1294.49	1.48085
1296.09	2.43149
1297.69	1.76949
1299.29	2.0348
1300.89	1.88582
1302.49	2.29188
1304.08	1.60546
1305.68	2.33815
1307.28	1.95975
1308.88	1.76646
1310.47	2.02442
1312.07	1.58619
1313.66	2.254
1315.26	2.24733
1316.85	1.67002
1318.45	2.1755
1320.04	1.78309
1321.64	2.42921
1323.23	1.74976
1324.83	1.61872
1326.42	2.21736
1328.01	1.29328
1329.61	2.63986
1331.2	2.36697
1332.79	2.07687
1334.38	2.31463
1335.97	1.82743
1337.56	2.04727
1339.16	2.34681
1340.75	1.81833
1342.34	1.93243
1343.93	1.62207
1345.52	1.69269
1347.11	1.70307
1348.7	1.73518
1350.29	1.38953
1351.87	0.966979
1353.46	0.786796
1355.05	1.7273
1356.64	1.46876
1358.22	1.05013
1359.81	1.42959
1361.4	1.20884
1362.98	1.10716
1364.57	0.6065
1366.16	0.684451
1367.74	1.28083
1369.33	1.06173
1370.91	1.68001
1372.5	1.40407
1374.08	1.32831
1375.67	1.49201
1377.25	0.899673
1378.83	1.06298
1380.41	1.1258
1382	0.610401
1383.58	0.730383
1385.16	1.28658
1386.74	1.2855
1388.33	1.10584
1389.91	1.20487
1391.49	1.28488
1393.07	1.16728
1394.65	1.18896
1396.23	0.298321
1397.81	1.0528
1399.39	1.01317
1400.97	0.972602
1402.55	1.44613
1404.13	0.830998
1405.7	0.829981
1407.28	1.08674
1408.86	0.553816
1410.44	0.732811
1412.01	1.64229
1413.59	1.44514
1415.17	0.832867
1416.74	0.93028
1418.32	0.810376
1419.89	0.848491
1421.47	1.04511
1423.04	1.1447
1424.62	1.02938
1426.19	1.87976
1427.77	1.11676
1429.34	1.51475
1430.91	1.14422
1432.49	0.379071
1434.06	1.38391
1435.63	1.69937
1437.2	1.50363
1438.78	1.34804
1440.35	1.90104
1441.92	1.86536
1443.49	2.16451
1445.06	2.40515
1446.63	2.01702
1448.2	1.98282
1449.77	1.6147
1451.34	2.6823
1452.91	2.27589
1454.48	2.55818
1456.05	2.0142
1457.62	2.09907
1459.18	1.98581
1460.75	2.57918
1462.32	2.04887
1463.89	1.73349
1465.45	1.4369
1467.02	2.16172
1468.59	1.57068
1470.15	1.19698
1471.72	1.21704
1473.28	1.17931
1474.85	0.867837
1476.41	1.08625
1477.98	0.873409
1479.54	0.974192
1481.1	1.23163
1482.67	0.940208
1484.23	0.903452
1485.79	1.12103
1487.36	0.965632
1488.92	0.730735
1490.48	-0.0927048
1492.04	0.78396
1493.61	0.621758
1495.17	0.614244
1496.73	0.508244
1498.29	0.460652
1499.85	0.374799
1501.41	0.173662
1502.97	0.517064
1504.53	0.434388
1506.09	0.371481
1507.65	0.346787
1509.2	0.301866
1510.76	0.333128
1512.32	-0.00267124
1513.88	0.374129
1515.43	0.500229
1516.99	0.2618
1518.55	0.945106
1520.1	-0.153943
1521.66	0.376022
1523.22	0.235548
1524.77	0.323767
1526.33	0.79215
1527.88	1.02989
1529.44	0.581869
1530.99	0.875588
1532.54	0.562213
1534.1	0.648175
1535.65	0.167493
1537.21	0.671258
1538.76	1.17465
1540.31	1.43229
1541.86	0.728775
1543.42	0.647589
1544.97	0.585155
1546.52	0.259686
1548.07	0.553899
1549.62	1.05364
1551.17	1.17803
1552.72	0.0119362
1554.27	1.24116
1555.82	1.46126
1557.37	0.712263
1558.92	1.38392
1560.47	0.863199
1562.02	0.698595
1563.56	0.852214
1565.11	1.36095
1566.66	1.19812
1568.21	0.904363
1569.75	1.48745
1571.3	1.54755
1572.85	1.51402
1574.39	1.10699
1575.94	1.68934
1577.49	1.84256
1579.03	1.38011
1580.57	1.94516
1582.12	1.67079
1583.66	1.47187
1585.21	0.899817
1586.75	1.99174
1588.3	1.6071
1589.84	1.91426
1591.38	1.47245
1592.92	1.79757
1594.47	1.91654
1596.01	1.71709
1597.55	1.5929
1599.09	1.33803
1600.63	1.40253
1602.17	1.97431
1603.71	1.70165
1605.25	1.89771
1606.79	1.5663
1608.33	1.94701
1609.87	1.40441
1611.41	1.66761
1612.95	1.59054
1614.49	1.24945
1616.03	1.20843
1617.57	1.37408
1619.1	1.03484
1620.64	1.03444
1622.18	1.57835
1623.72	1.33662
1625.25	1.0014
1626.79	1.58261
1628.32	1.7506
1629.86	2.02921
1631.39	2.02607
1632.93	1.98513
1634.46	1.72052
1636	1.56895
1637.53	1.99661
1639.07	1.34328
1640.6	1.84594
1642.13	2.45938
1643.67	2.10282
1645.2	2.19198
1646.73	2.05688
1648.26	1.84731
1649.8	2.19546
1651.33	1.95035
1652.86	2.35597
1654.39	2.13207
1655.92	2.3353
1657.45	2.48276
1658.98	2.68485
1660.51	2.40401
1662.04	2.39942
1663.57	2.63388
1665.1	2.40557
1666.63	2.21488
1668.16	1.69365
1669.68	2.16992
1671.21	1.72607
1672.74	1.76257
1674.27	1.91003
1675.79	1.76262
1677.32	1.90896
1678.85	1.72292
1680.37	1.88529
1681.9	1.75268
1683.42	1.34443
1684.95	1.63408
1686.47	1.48358
1688	1.38869
1689.52	1.31262
1691.05	0.998852
1692.57	1.41749
1694.09	1.19545
1695.62	0.607818
1697.14	0.806255
1698.66	0.602383
1700.18	0.398342
1701.71	0.267021
1703.23	0.536289
1704.75	0.859236
1706.27	0.471602
1707.79	0.120697
1709.31	0.732978
1710.83	0.00132275
1712.35	0.631011
1713.87	0.444508
1715.39	-0.0131817
1716.91	-0.162683
1718.43	-0.00482655
1719.95	0.297149
1721.47	0.418345
1722.99	0.305486
1724.5	-0.148602
1726.02	-0.114796
1727.54	0.190167
1729.06	-0.4759
1730.57	0.102283
1732.09	0.407608
1733.61	-0.0141449
1735.12	0.124593
1736.64	0.482901
1738.15	0.556846
1739.67	0.257845
1741.18	0.0639362
1742.7	0.577619
1744.21	0.0221786
1745.72	0.625816
1747.24	-0.175428
1748.75	0.184878
1750.26	7.43866e-005
1751.77	-0.023632
1753.29	0.516889
1754.8	0.0215988
1756.31	0.0891581
1757.82	-0.164895
1759.33	0.230938
1760.84	0.359138
1762.36	-0.263099
1763.87	0.29727
1765.38	0.307884
1766.89	0.135114
1768.4	0.134958
1769.91	0.0274649
1771.41	0.101663
1772.92	0.0469942
1774.43	-0.292004
1775.94	-0.0489407
1777.45	-0.0144548
1778.95	0.110661
1780.46	0.296914
1781.97	0.260567
1783.48	-0.0952864
1784.98	-0.346412
1786.49	0.0453854
1787.99	-0.14522
1789.5	-0.0201483
1791.01	-0.121023
1792.51	0.173932
1794.01	-0.00961304
1795.52	-0.167991
1797.02	-0.104382
1798.53	0.2291
1800.03	0.135801
1801.53	-0.118843
1803.04	0.294245
1804.54	-0.0177546
1806.04	0.227863
1807.54	-0.0692539
1809.05	-0.0397444
1810.55	-0.154467
1812.05	0.16293
1813.55	-0.165312
1815.05	-0.16184
1816.55	0.0238504
1818.05	-0.141493
1819.55	0.328634
1821.05	0.125732
1822.55	0.0586662
1824.05	-0.0406504
1825.55	0.0558281
1827.05	-0.0502377
1828.55	0.205565
1830.04	-0.0988913
1831.54	0.203972
1833.04	-0.0473461
1834.54	-0.0478888
1836.03	0.0736341
1837.53	-0.0448265
1839.03	-0.148767
1840.52	0.103033
1842.02	-0.000812531
1843.51	0.0115271
1845.01	0.050909
1846.5	-0.218606
1848	0.0413723
1849.49	0.251607
1850.99	0.203398
1852.48	0.27562
1853.97	0.251632
1855.47	-0.113092
1856.96	0.0588655
1858.45	0.13123
1859.94	-0.178689
1861.44	0.108753
1862.93	0.0484533
1864.42	-0.107924
1865.91	0.128811
1867.4	0.240456
1868.89	0.475502
1870.38	-0.227297
1871.87	0.0585899
1873.36	0.139745
1874.85	-0.029397
1876.34	0.296746
1877.83	0.0607901
1879.32	0.175861
1880.81	0.248878
1882.3	0.197725
1882.57	0.187108
1884.07	-0.337235
1885.56	0.218466
1887.06	-0.150251
1888.55	0.159851
1890.04	0.191458
1891.54	0.397905
1893.03	-0.263527
1894.52	0.0157146
1896.02	0.192085
1897.51	0.0562353
1899	0.494245
1900.49	0.0267172
1901.98	0.0273361
1903.47	0.600183
1904.96	0.319429
1906.45	0.00345325
1907.94	-0.0170002
1909.43	-0.123638
1910.92	0.135046
1912.41	-0.178017
1913.9	-0.247625
1915.39	0.20307
1916.88	0.150499
1918.37	-0.0412111
1919.85	0.147961
1921.34	0.267657
1922.83	0.0413761
1924.32	0.387349
1925.8	-0.0100393
1927.29	0.493809
1928.78	0.496246
1930.26	0.22156
1931.75	-0.053956
1933.23	0.119386
1934.72	-0.159071
1936.2	0.0974941
1937.69	0.266213
1939.17	0.0541744
1940.66	0.0844498
1942.14	-0.281416
1943.63	-0.0249748
1945.11	-0.0783291
1946.59	0.420325
1948.07	0.229096
1949.56	0.416258
1951.04	0.292363
1952.52	-0.124794
1954	0.266234
1955.48	0.364553
1956.96	0.0681772
1958.45	-0.107055
1959.93	0.113119
1961.41	-0.317972
1962.89	0.228431
1964.37	0.225953
1965.85	-0.170874
1967.32	0.168015
1968.8	-0.195384
1970.28	0.107762
1971.76	-0.119247
1973.24	-0.00462723
1974.72	-0.0435734
1976.19	0.173361
1977.67	0.219838
1979.15	-0.125133
1980.63	0.550895
1982.1	0.0529881
1983.58	-0.308622
1985.05	-0.0250425
1986.53	0.0543613
1988	-0.15445
1989.48	0.263897
1990.95	-0.197647
1992.43	0.221713
1993.9	-0.136028
1995.38	-0.00265884
1996.85	-0.308211
1998.32	0.0450211
1999.8	-0.0919819
2001.27	0.124929
2002.74	-0.181679
2004.22	-0.117228
2005.69	0.0822849
2007.16	0.0296907
2008.63	0.112733
2010.1	0.314398
2011.57	0.146172
2013.04	0.34831
2014.51	-0.274621
2015.98	0.313334
2017.45	-0.125843
2018.92	-0.0274897
2020.39	-0.148156
2021.86	0.117423
2023.33	0.198429
2024.8	-0.0051012
2026.27	0.295834
2027.74	-0.0728292
2029.2	0.0966406
2030.67	0.133198
2032.14	-0.0642653
2033.61	0.309356
2035.07	-0.307614
2036.54	0.048996
2038.01	0.62375
2039.47	-0.112551
2040.94	-0.0254936
2042.4	0.381445
2043.87	0.301579
2045.33	0.205696
2046.8	-0.0242481
2048.26	0.183814
2049.72	0.408616
2051.19	0.430294
2052.65	0.197491
2054.12	-0.0708227
2055.58	-0.0877619
2057.04	-0.190222
2058.5	0.347004
2059.97	0.395204
2061.43	0.258571
2062.89	0.307968
2064.35	0.105865
2065.81	0.409608
2067.27	0.0241556
2068.73	0.312432
2070.19	0.466403
2071.65	0.670979
2073.11	0.639736
2074.57	0.103047
2076.03	0.323772
2077.49	0.409444
2078.95	0.20845
2080.41	-0.127662
2081.87	0.596465
2083.32	0.0740767
2084.78	0.409468
2086.24	0.27294
2087.7	0.875739
2089.15	0.788538
2090.61	0.751614
2092.07	0.580349
2093.52	0.64408
2094.98	0.891948
2096.43	0.183727
2097.89	1.05011
2099.34	0.743143
2100.8	0.837679
2102.25	0.69838
2103.71	0.62691
2105.16	0.773753
2106.61	0.755007
2108.07	0.804015
2109.52	0.553168
2110.97	1.0187
2112.43	1.09931
2113.88	0.72848
2115.33	1.37157
2116.78	1.06511
2118.23	0.875805
2119.68	1.0699
2121.13	0.967126
2122.59	1.08197
2124.04	1.19824
2125.49	0.884006
2126.94	1.38194
2128.39	1.31507
2129.83	1.26337
2131.28	1.37601
2132.73	1.12357
2134.18	1.73162
2135.63	1.57932
2137.08	1.75929
2138.53	1.39581
2139.97	1.66234
2141.42	1.81497
2142.87	1.95241
2144.31	1.62743
2145.76	1.86502
2147.21	1.67199
2148.65	2.2069
2150.1	1.84654
2151.54	1.94891
2152.99	1.86797
2154.43	2.34948
2155.88	1.98551
2157.32	2.11867
2158.77	2.51765
2160.21	2.07329
2161.65	2.40952
2163.1	2.20094
2164.54	2.57446
2165.98	2.50115
2167.43	1.87931
2168.87	2.41923
2170.31	2.70824
2171.75	2.44604
2173.19	2.71396
2174.64	2.91375
2176.07	2.34784
2177.52	2.51398
2178.96	2.49807
2180.4	2.7659
2181.84	2.53593
2183.28	2.58928
2184.72	2.80927
2186.15	1.86491
2187.59	2.18479
2189.03	2.37171
2190.47	2.00935
2191.91	2.21263
2193.35	1.88232
2194.78	2.29978
2196.22	2.39884
2197.66	2.24603
2199.09	1.65922
2200.53	1.63703
2201.97	2.02978
2203.4	1.70933
2204.84	1.24121
2206.27	1.91815
2207.71	2.01524
2209.14	1.7974
2210.58	0.966542
2212.01	1.70697
2213.45	1.6192
2214.88	1.4984
2216.31	2.00565
2217.75	1.35875
2219.18	1.093
2220.61	1.20747
2222.05	1.17364
2223.48	0.957873
2224.91	1.00437
2226.34	1.06555
2227.78	1.68391
2229.21	1.13371
2230.64	0.665939
2232.07	0.919995
2233.5	0.846426
2234.93	0.986313
2236.36	0.767732
2237.79	1.12242
2239.22	0.972802
2240.65	0.596951
2242.08	1.00584
2243.5	0.453629
2244.93	0.994537
2246.36	0.833403
2247.79	0.752261
2249.22	0.636444
2250.64	0.681514
2252.07	0.887581
2253.5	0.409508
2254.92	0.809935
2256.35	0.659188
2257.78	0.608305
2259.2	0.495325
2260.63	0.450039
2262.05	0.520649
2263.48	0.64155
2264.9	0.454072
2266.33	0.428626
2267.75	0.597607
2269.18	0.391521
2270.6	0.379912
2272.02	0.693482
2273.45	0.648731
2274.87	0.604047
2276.29	0.478078
2277.71	-0.267125
2279.14	0.536082
2280.56	0.165559
2281.98	0.512413
2283.4	0.402541
2284.82	0.455848
2286.24	0.623654
2287.66	0.318402
2289.08	0.340041
2290.5	0.16599
2291.92	0.302653
2293.34	0.357777
2294.76	0.00387478
2296.18	0.402557
2297.6	0.555891
2299.02	0.234307
2300.44	0.273202
2301.86	0.41079
2303.27	0.614408
2304.69	0.391601
2306.11	-0.159994
2307.53	0.536338
2308.94	0.0163364
2310.36	0.268268
2311.78	0.240362
2313.19	0.245329
2314.61	0.135466
2316.02	0.125001
2317.44	0.0493412
2318.85	0.138845
2320.27	0.294186
2321.68	-0.17841
2323.1	0.271243
2324.51	0.0916624
2325.92	0.45452
2327.34	0.436242
2328.75	0.516166
2330.16	0.645619
2331.58	0.281928
2332.99	0.331017
2334.4	-0.0962849
2335.81	-0.0790272
2337.23	0.13515
2338.64	-0.0955958
2340.05	0.215069
2341.46	0.16324
2342.87	0.521276
2344.28	0.0752516
2345.69	0.41673
2347.1	-0.126393
2348.51	-0.406936
2349.92	-0.0167856
2351.33	0.045188
2352.74	-0.0898275
2354.15	0.296673
2355.55	0.0949879
2356.96	-0.0577188
2358.37	-0.19386
2359.78	-0.297102
2361.19	0.151764
2362.59	0.30785
2364	0.123397
2365.41	-0.222484
2366.81	-0.0341549
2368.22	0.202789
2369.62	-0.0759182
2371.03	0.162829
2372.44	0.241409
2373.84	0.497975
2375.24	0.0464439
2376.65	-0.0671935
2378.05	0.172045
2379.46	0.104236
2380.86	0.372096
2382.26	-0.115535
2383.67	0.245944
2385.07	0.0145326
2386.47	0.103575
2387.88	0.113468
2389.28	0.252
2390.68	0.104719
2392.08	0.277142
2393.48	0.132068
2394.89	-0.0757017
2396.29	-0.457538
2397.69	0.0355392
2399.09	0.417648
2400.49	0.0375404
2401.89	0.118465
2403.29	-0.0546961
2404.69	0.216441
2406.09	0.37551
2407.48	-0.0534892
2408.88	0.0722604
2410.28	0.308548
2411.68	0.132903
2413.08	0.0690417
2414.48	0.101396
2415.87	0.562523
2417.27	0.154181
2418.67	0.110766
2420.06	0.194355
2421.46	0.467946
2422.86	0.408581
2424.25	0.317256
2425.65	-0.217722
2427.04	0.0559187
2428.44	0.235367
2429.83	0.479258
2431.23	-0.243899
2432.62	0.127766
2434.02	0.531026
2435.41	0.377447
2436.81	0.460726
2438.2	-0.220068
2439.59	-0.361745
2440.99	0.305737
2442.38	-0.138904
2443.77	-0.012218
2445.16	-0.139572
2446.56	-0.187683
2447.95	0.413857
2449.34	0.270372
2450.73	0.285561
2452.12	-0.331842
2453.51	0.0328546
2454.9	0.42981
2456.29	-0.185081
2457.68	0.070375
2459.07	0.278189
2460.46	0.501222
2461.85	-0.0671344
2463.24	-0.240745
2464.63	-0.161952
2466.02	0.169187
2467.4	0.152684
2468.79	0.215036
2470.18	0.529467
2471.57	0.51213
2472.95	0.336623
2474.34	-0.0755091
2475.73	-0.0629134
2477.12	0.0122023
2478.5	0.0400472
2479.89	0.0680017
2481.27	-0.201837
2482.66	0.09269
2484.04	0.104531
2485.43	-0.119051
2486.81	0.0317359
2488.2	0.0563574
2489.58	0.158168
2490.97	0.135092
2492.35	0.236922
2493.73	0.292944
2495.12	-0.00665522
2496.5	-0.103102
2497.88	-0.09023
2499.27	0.155019
2500.65	0.384135
2502.03	-0.0369339
2503.41	0.0359282
2504.79	0.0152907
2506.17	0.163623
2507.56	0.219072
2508.94	-0.171291
2510.32	-0.176507
2511.7	-0.119766
2513.08	-0.139078
2514.46	-0.280119
2515.84	-0.175302
2517.22	0.159512
2518.59	-0.254685
2519.97	0.294369
2521.35	0.0178819
2522.73	0.153211
2524.11	0.241827
2525.49	-0.203743
2526.86	0.249593
2528.24	0.0635581
2529.62	-0.121201
2530.99	0.0908213
2532.37	0.137094
2533.75	0.108625
2535.12	-0.0559363
2536.5	-0.174967
2537.88	0.343421
2539.25	0.0254374
2540.63	0.2079
2542	0.0408454
2543.38	-0.0347872
2544.75	0.148263
2546.12	0.332405
2547.5	0.32049
2548.87	-0.0699339
2550.24	0.040297
2551.62	-0.244465
2552.99	-0.120306
2554.36	-0.148815
2555.74	0.201191
2557.11	0.353351
2558.48	0.293035
2559.85	-0.0701756
2561.22	0.249289
2562.59	0.17523
2563.96	-0.0498228
2565.34	0.422599
2566.71	0.0466137
2568.08	-0.359629
2569.45	-0.00810623
2570.82	0.176732
2572.18	0.149419
2573.55	0.304087
2574.92	-0.0110955
2576.29	0.0830545
2577.66	0.0103574
2579.03	0.543971
2580.4	0.121995
2581.77	-0.0274096
2583.13	0.186743
2584.5	0.20357
2585.87	-0.052496
2587.23	0.267552
2588.6	0.330077
2589.97	0.347232
2591.33	0.015727
2592.7	0.16871
2594.06	0.0936756
2595.43	-0.194245
2596.79	-0.0287514
2598.16	0.226639
2599.52	0.0429673
2600.89	0.26758
2602.25	0.0997701
2603.62	0.24973
2604.98	0.279362
2606.34	0.0677924
2607.71	0.398896
2609.07	0.306913
2610.43	0.138597
2611.79	0.0445652
2613.16	-0.095448
2614.52	0.0645428
2615.88	-0.106121
2617.24	-0.081347
2618.6	0.183533
2619.96	0.20924
2621.32	0.250538
2622.68	0.531323
2624.04	0.184804
2625.4	0.15205
2626.76	0.119105
2628.12	0.011405
2629.48	0.0375981
2630.84	0.152833
2632.2	-0.0146608
2633.56	-0.107661
2634.92	0.497019
2636.28	-0.115331
2637.63	0.19199
2638.99	0.0695
2640.35	0.287615
2641.71	0.254326
2643.06	-0.133201
2644.42	0.0852199
2645.77	0.318009
2647.13	0.166807
2648.49	-0.0731611
2649.84	0.260462
2651.2	0.0341992
2652.55	0.366171
2653.91	-0.211878
2655.26	0.340434
2656.62	0.277724
2657.97	-0.00337505
2659.33	0.0384679
2660.68	0.241454
2662.03	-0.125852
2663.39	-0.142759
2664.74	-0.160357
2666.09	-0.280677
2667.44	0.225423
2668.8	0.337484
2670.15	-0.103259
2671.5	0.271316
2672.85	0.151956
2674.2	0.222086
2675.55	0.0894666
2676.91	0.00100899
2678.26	0.377311
2679.61	0.130691
2680.96	0.508526
2682.31	0.177038
2683.66	0.165582
2685	0.213003
2686.35	0.464001
2687.7	0.337587
2689.05	0.239041
2690.4	-0.0788164
2691.75	0.240415
2693.1	0.0212746
2694.44	0.0334992
2695.79	0.147017
2697.14	0.376874
2698.49	0.245738
2699.83	0.275468
2701.18	0.176458
2702.52	0.151182
2703.87	0.387658
2705.22	0.305851
2706.56	0.0499573
2707.91	0.301476
2709.25	0.712517
2710.6	-0.168964
2711.94	0.386884
2713.29	0.172785
2714.63	0.234679
2715.97	0.0639043
2717.32	-0.0198402
2718.66	0.201654
2720.01	0.26285
2721.35	0.425525
2722.69	0.427689
2724.03	0.443962
2725.38	0.314274
2726.72	0.358902
2728.06	0.315909
2729.4	0.316361
2730.74	0.243927
2732.08	0.273322
2733.42	-0.191804
2734.76	0.390592
2736.1	0.216761
2737.44	0.377574
2738.78	0.145679
2740.12	0.218963
2741.46	0.538974
2742.8	0.204102
2744.14	-0.000442028
2745.48	0.390225
2746.82	0.228381
2748.16	0.690653
2749.49	0.630252
2750.83	0.628106
2752.17	0.147781
2753.51	0.0303183
2754.84	0.20284
2756.18	-0.261903
2757.52	0.591396
2758.85	0.373274
2760.19	-0.104906
2761.53	0.300226
2762.86	0.474179
2764.2	0.0406961
2765.53	-0.161282
2766.87	-0.0887656
2768.2	0.0986209
2769.54	0.299199
2770.87	0.0647392
2772.2	0.493626
2773.54	0.185022
2774.87	0.135951
2776.2	0.130149
2777.54	0.0239453
2778.87	-0.124749
2780.2	-0.0284877
2781.53	-0.0756884
2782.87	-0.036653
2784.2	0.0596414
2785.53	0.227441
2786.86	0.0657849
2788.19	-0.152481
2789.52	0.00215244
2790.85	0.0859313
2792.18	-0.530264
2793.51	-0.102263
2794.84	0.325571
2796.17	-0.0043869
2797.5	0.00816059
2798.83	0.205813
2800.16	0.131753
2801.49	0.285752
2802.82	0.22555
2804.15	0.350415
2805.47	0.0759468
2806.8	0.299413
2808.13	0.393984
2809.46	0.0758967
2810.78	0.368957
2812.11	-0.0615673
2813.44	0.488061
2814.76	0.159534
2816.09	0.0167584
2817.42	0.243507
2818.74	0.0313706
2820.07	-0.124082
2821.39	0.499578
2822.72	0.201381
2824.04	0.412765
2825.37	0.184642
2826.69	0.423981
2828.02	0.0973625
2829.34	0.125255
2830.66	0.082768
2831.99	0.139547
2833.31	0.238723
2834.63	0.280973
2835.96	0.50674
2837.28	0.519697
2838.6	0.348355
2839.92	0.643591
2841.24	1.17912
2842.57	1.20594
2843.89	1.09204
2845.21	1.23323
2846.53	1.47392
2847.85	1.55949
2849.17	1.60268
2850.49	1.29221
2851.81	1.64556
2853.13	1.68746
2854.45	1.53114
2855.77	1.60074
2857.09	1.54317
2858.41	1.99413
2859.72	1.75295
2861.04	2.18942
2862.36	2.06072
2863.68	2.18576
2865	2.42336
2866.31	2.49153
2867.63	2.63043
2868.95	3.1927
2870.26	3.03621
2871.58	2.83762
2872.9	3.31528
2874.21	2.98884
2875.53	3.56295
2876.84	3.45969
2878.16	3.42604
2879.47	3.57498
2880.79	3.37269
2882.1	3.08713
2883.42	3.53314
2884.73	3.26378
2886.05	3.27587
2887.36	3.27398
2888.67	3.5803
2889.99	3.49289
2891.3	3.71315
2892.61	3.69433
2893.92	3.82945
2895.24	3.64279
2896.55	3.33113
2897.86	3.93025
2899.17	3.8446
2900.48	3.88567
2901.79	4.34685
2903.11	4.26264
2904.42	4.41636
2905.73	4.1927
2907.04	4.15145
2908.35	4.55865
2909.66	4.96683
2910.97	4.94192
2912.27	4.39902
2913.58	5.28314
2914.89	5.49386
2916.2	5.6047
2917.51	5.46188
2918.82	5.70983
2920.13	6.26514
2921.43	6.16372
2922.74	5.95188
2924.05	6.38457
2925.35	6.6787
2926.66	6.81973
2927.97	6.70917
2929.27	6.72396
2930.58	6.73811
2931.89	6.97538
2933.19	6.98867
2934.5	6.90409
2935.8	6.93144
2937.11	7.3782
2938.41	6.74911
2939.72	6.23216
2941.02	6.88953
2942.32	6.97497
2943.63	6.93602
2944.93	6.35335
2946.24	5.8555
2947.54	4.96612
2948.84	5.54542
2950.14	5.53581
2951.45	5.30023
2952.75	5.17462
2954.05	4.89355
2955.35	4.48621
2956.65	4.79371
2957.95	4.40344
2959.26	5.12187
2960.56	4.541
2961.86	4.55025
2963.16	4.47608
2964.46	4.38712
2965.76	4.25441
2967.06	4.47124
2968.36	4.06825
2969.66	3.7627
2970.96	3.83664
2972.25	3.88275
2973.55	3.46481
2974.85	3.22959
2976.15	3.62719
2977.45	3.31953
2978.74	2.86934
2980.04	3.31848
2981.34	2.78104
2982.64	2.74982
2983.93	2.62054
2985.23	2.46429
2986.52	2.04255
2987.82	2.35292
2989.12	2.39723
2990.41	2.13258
2991.71	1.99389
2993	1.91038
2994.3	1.86782
2995.59	1.75395
2996.89	1.61137
2998.18	1.77742
2999.48	1.36845
3000.77	1.38093
3002.06	1.39392
3003.36	1.23912
3004.65	1.22456
3005.94	1.16772
3007.23	0.928323
3008.53	1.16403
3009.82	0.979124
3011.11	0.793738
3012.4	0.789705
3013.69	0.311363
3014.99	0.405619
3016.28	0.66751
3017.57	0.289321
3018.86	0.454649
3020.15	0.550297
3021.44	0.575892
3022.73	0.433975
3024.02	0.624387
3025.31	0.453283
3026.6	0.503879
3027.89	0.291917
3029.18	0.4546
3030.46	0.0657535
3031.75	0.286252
3033.04	0.134749
3034.33	0.232
3035.62	0.576953
3036.9	0.134447
3038.19	0.186849
3039.48	0.0860558
3040.76	0.410134
3042.05	0.361921
3043.34	0.47825
3044.62	0.37606
3045.91	0.248286
3047.19	0.300323
3048.48	0.463639
3049.77	0.0282583
3051.05	0.604258
3052.34	0.471329
3053.62	0.624918
3054.9	0.15028
3056.19	0.561361
3057.47	0.643911
3058.76	0.466741
3060.04	0.452898
3061.32	0.439406
3062.61	0.53562
3063.89	0.565064
3065.17	0.54156
3066.45	0.41059
3067.74	0.11733
3069.02	0.0826883
3070.3	0.306183
3071.58	-0.0559535
3072.86	0.532759
3074.14	0.100433
3075.42	0.0888081
3076.7	-0.140386
3077.99	-0.314699
3079.26	0.285417
3080.54	-0.103695
3081.82	0.186874
3083.1	0.0444589
3084.38	0.0789871
3085.66	0.222124
3086.94	-0.0287595
3088.22	0.0589929
3089.5	-0.342493
3090.78	-0.187929
3092.05	0.278461
3093.33	0.0665956
3094.61	-0.104254
3095.89	0.186168
3097.16	0.0969667
3098.44	-0.304004
3099.72	-0.0409932
3100.99	0.0321364
3102.27	0.0646324
3103.54	0.0567284
3104.82	0.306446
3106.1	-0.0387211
3107.37	-0.0311661
3108.65	0.22091
3109.92	0.000254154
3111.2	-0.341507
3112.47	0.0756712
3113.74	0.317386
3115.02	-0.0372405
3116.29	-0.0806746
3117.56	-0.0571113
3118.84	-0.00741291
3120.11	0.32604
3121.38	-0.0736451
3122.66	0.0684609
3123.93	0.142534
3125.2	0.0948281
3126.47	-0.182526
3127.74	-0.161552
3129.01	-0.153693
3130.29	0.138395
3131.56	0.0113597
3132.83	0.0463886
3134.1	-0.121579
3135.37	0.0611162
3136.64	0.229566
3137.91	-0.0745559
3139.18	0.443106
3140.45	0.380997
3141.72	-0.0709496
3142.99	0.217077
3144.26	0.0754504
3145.52	0.176039
3146.79	0.424515
3148.06	0.311554
3149.33	-0.0149736
