200.43	0.058857
202.244	0.088953
204.059	0.120118
205.873	-0.0424423
207.688	0.816443
209.501	0.847701
211.314	0.416198
213.127	0.614822
214.941	0.714928
216.753	0.644461
218.564	0.40451
220.375	0.576872
222.186	-0.290246
223.999	0.391703
225.809	0.420983
227.618	0.281123
229.428	0.672121
231.236	-0.0722647
233.045	0.293311
234.855	0.851725
236.663	0.68774
238.471	0.333084
240.278	-0.308395
242.085	0.0405264
243.891	0.366833
245.698	0.017518
247.503	-0.357841
249.309	0.712752
251.116	0.307266
252.921	0.236919
254.725	0.0200109
256.529	0.405519
258.333	0.381676
260.136	0.35941
261.939	0.772615
263.742	0.416549
265.544	0.230062
267.346	0.308866
269.148	0.00160408
270.949	0.127302
272.75	-0.0134344
274.55	0.398873
276.351	0.399554
278.15	0.37418
279.95	-0.0386524
281.749	0.12457
283.548	-0.0270271
285.346	-0.107774
287.144	-0.0212116
288.942	0.256875
290.739	-0.159624
292.536	-0.0955467
294.333	-0.00623322
296.129	0.227777
297.925	0.582078
299.721	0.841016
301.514	0.669594
303.309	-0.362148
305.104	0.180798
306.898	0.125887
308.692	0.452107
310.486	0.182789
312.279	0.414929
314.072	0.172254
315.862	0.812359
317.654	0.120707
319.446	0.859524
321.238	0.432192
323.029	-0.161794
324.819	0.723289
326.608	0.439513
328.398	0.035634
330.188	0.706311
331.977	-0.0586309
333.766	0.657495
335.553	0.653829
337.341	1.0785
339.129	0.256756
340.917	0.270881
342.704	0.092864
344.489	0.46439
346.275	0.0239582
348.062	0.0142012
349.845	0.506172
351.631	0.305754
353.416	0.0570974
355.201	0.236881
356.984	0.105196
358.768	0.23443
360.552	-0.113979
362.333	0.346214
364.116	0.0915632
365.899	0.573041
367.68	0.388214
369.462	0.297671
371.243	0.230084
373.023	-0.0747128
374.804	-0.00112724
376.585	0.426354
378.363	0.617534
380.143	0.055335
381.923	0.0365639
383.7	0.489399
385.479	1.06044
387.256	0.574734
389.034	0.442825
390.812	-0.11086
392.588	0.393104
394.365	0.498346
396.14	0.0637474
397.916	0.779987
399.691	0.227741
401.467	0.0273142
403.24	-0.103318
405.015	0.37595
406.788	-0.178914
408.563	0.251864
410.335	0.353456
412.109	0.337644
413.88	0.0640583
415.654	0.236955
417.424	0.10552
419.197	0.0685062
420.967	0.266374
422.739	0.464032
424.508	0.168007
426.279	0.598806
428.048	-0.708457
429.819	0.331273
431.587	0.220657
433.356	0.368474
435.124	0.516564
436.891	0.0543842
438.66	-0.783961
440.426	0.0191135
442.194	-0.306055
443.96	0.257888
445.725	0.350738
447.492	0.254951
449.257	0.182206
451.021	0.0628948
452.787	0.270864
454.551	0.455352
456.314	0.0801296
458.079	0.683432
459.842	-0.389661
461.604	0.0276346
463.368	0.654988
465.13	-0.551414
466.891	-0.198231
468.654	0.157539
470.415	0.0502691
472.175	0.269225
473.935	0.208321
475.696	0.914262
477.456	0.872882
479.215	0.899433
480.973	0.0398092
482.733	0.624408
484.491	0.697693
486.249	-0.112382
488.006	0.826995
489.765	0.370107
491.522	0.17029
493.278	0.554856
495.034	0.191949
496.789	0.413467
498.544	0.166487
500.301	-0.104836
502.056	0.420731
503.81	0.852292
505.564	0.531172
507.317	0.443458
509.071	0.165947
510.825	0.122028
512.578	0.194224
514.33	0.829672
516.082	0.522545
517.833	0.214364
519.585	0.399073
521.335	0.629847
523.086	0.554586
524.836	0.432224
526.586	0.239565
528.335	0.328468
530.085	0.276548
531.835	0.669286
533.584	0.335136
535.332	1.1464
537.08	0.178796
538.827	0.14549
540.574	0.134423
542.321	0.332223
544.068	0.552406
545.814	0.632576
547.56	0.550252
549.305	0.259703
551.05	0.479442
552.795	0.0511923
554.54	0.478963
556.282	0.190536
558.025	0.179743
559.769	0.515016
561.512	0.159646
563.255	0.40344
564.997	0.486531
566.739	0.110723
568.481	-0.0572758
570.223	0.510199
571.964	0.229773
573.705	-0.347181
575.443	0.270396
577.183	-0.0280781
578.923	-0.532115
580.663	0.158384
582.402	0.183291
584.141	-0.504965
585.879	0.691155
587.615	0.299471
589.353	-0.231586
591.09	0.133697
592.828	0.268392
594.564	0.0347986
596.299	-0.244769
598.035	-0.432346
599.771	0.484049
601.506	-0.164733
603.242	0.42743
604.974	0.0752459
606.709	-0.231938
608.443	0.195296
610.177	0.0251541
611.908	-0.098484
613.642	-0.198358
615.374	-0.343364
617.105	0.40543
618.837	0.122595
620.569	0.731705
622.3	0.44671
624.03	0.412693
625.761	-0.215261
627.491	0.505518
629.219	0.0179968
630.949	0.263108
632.677	0.213546
634.406	-0.0403929
636.135	0.0477257
637.861	0.202758
639.59	0.263895
641.318	0.687042
643.043	-0.283022
644.77	-0.159718
646.495	0.145594
648.222	0.224829
649.948	0.216068
651.672	0.483657
653.398	0.41422
655.121	-0.357184
656.846	0.0789862
658.569	-0.166836
660.293	-0.0028019
662.015	1.07361
663.738	0.32109
665.46	0.228428
667.183	-0.0262165
668.903	0.450181
670.626	0.561364
672.346	0.582987
674.067	0.538347
675.787	0.243638
677.508	0.683816
679.226	0.527917
680.947	0.715619
682.665	0.0736361
684.385	0.418642
686.102	0.0251322
687.821	0.182687
689.538	0.938155
691.254	0.840667
692.972	0.69647
694.688	0.73582
696.406	1.09655
698.121	0.258829
699.835	0.317938
701.552	0.674836
703.266	0.708611
704.98	1.17801
706.695	0.728161
708.409	0.209808
710.121	0.608442
711.836	1.21207
713.548	0.236101
715.26	0.518561
716.973	1.07442
718.685	0.739752
720.396	0.656549
722.108	1.12016
723.818	1.15076
725.528	0.658326
727.238	1.55197
728.949	0.605477
730.658	0.816538
732.367	1.1174
734.075	0.535069
735.785	1.4457
737.493	1.0001
739.2	1.25537
740.907	0.789852
742.614	0.596536
744.322	1.89064
746.028	1.47472
747.734	1.01558
749.439	1.25528
751.144	1.18136
752.849	1.13126
754.555	0.745063
756.26	2.11552
757.963	1.61995
759.667	1.46333
761.37	1.33023
763.073	1.08468
764.775	0.793376
766.477	1.26882
768.179	1.72039
769.883	1.67259
771.584	1.14777
773.285	1.39034
774.986	1.15757
776.686	1.55842
778.386	2.14149
780.085	1.93478
781.785	1.57081
783.484	1.59153
785.182	1.79225
786.881	0.858799
788.579	1.98204
790.276	1.20094
791.974	1.59347
793.671	1.803
795.367	1.92159
797.064	1.65773
798.76	1.959
800.456	1.67658
802.151	1.6209
803.846	1.18368
805.541	1.93813
807.234	1.59009
808.928	1.42089
810.622	1.63222
812.315	1.90958
814.008	2.00664
815.701	2.12567
817.394	2.19971
819.086	1.67028
820.778	2.19144
822.468	2.08742
824.159	2.20735
825.85	2.17262
827.541	1.71698
829.231	2.40017
830.921	1.81709
832.609	2.06105
834.298	2.06227
835.987	1.59621
837.676	1.53115
839.364	1.35325
841.051	1.53103
842.738	1.48414
844.426	1.39203
846.113	1.30053
847.798	2.12747
849.484	1.95101
851.171	1.35147
852.857	1.94075
854.54	1.45523
856.226	1.66487
857.911	1.71644
859.593	1.33886
861.278	0.621187
862.961	1.09513
864.645	1.34287
866.327	1.34188
868.01	1.74611
869.692	1.63132
871.373	1.11014
873.055	0.881886
874.735	0.924262
876.416	1.23747
878.097	1.52822
879.776	1.18691
881.457	1.11608
883.135	0.976817
884.815	0.813931
886.495	1.10114
888.172	0.642124
889.851	1.53501
891.528	1.47885
893.206	1.15114
894.882	1.02529
896.56	0.6738
898.237	1.15293
899.912	1.60768
901.589	1.29876
903.263	0.676764
904.94	1.19589
906.614	1.44612
908.289	0.938367
909.962	1.61295
911.635	1.04123
913.31	0.693593
914.982	0.502425
916.656	1.17681
918.328	0.852586
920.001	0.861189
921.672	1.42339
923.345	0.703727
925.015	0.60521
926.685	0.641058
928.357	1.03166
930.026	0.761308
931.698	0.668252
933.366	0.818174
935.035	1.2991
936.705	1.1628
938.373	1.20384
940.041	0.981433
941.71	0.694009
943.377	0.583726
945.044	-0.343353
946.712	0.803231
948.378	1.35218
950.044	0.508692
951.709	0.789621
953.376	0.695464
955.041	0.713104
956.706	1.24061
958.372	0.359829
960.036	0.430017
961.699	0.545996
963.362	0.949437
965.027	0.6219
966.69	0.402122
968.352	0.887622
970.014	0.3312
971.676	1.10123
973.339	1.47333
975	1.13922
976.661	0.674244
978.322	1.16183
979.982	1.17464
981.642	1.18709
983.303	0.943611
984.962	0.565343
986.621	1.4467
988.28	1.63979
989.938	0.814175
991.596	0.651788
993.254	0.754462
994.911	0.570145
996.57	0.739144
998.227	1.04024
999.884	0.922077
1001.54	1.99285
1003.2	1.12515
1004.85	0.588182
1006.51	0.908905
1008.16	0.81206
1009.82	0.693737
1011.47	0.751452
1013.12	1.44513
1014.78	0.868001
1016.43	0.226262
1018.08	0.723481
1019.74	0.783617
1021.39	0.713573
1023.04	1.21299
1024.69	1.12316
1026.34	1.3399
1028	1.0104
1029.65	1.00805
1031.3	0.545853
1032.95	0.453546
1034.6	0.665181
1036.25	1.33301
1037.9	1.01864
1039.54	1.16178
1041.19	0.47884
1042.84	1.25451
1044.49	1.48797
1046.14	0.87624
1047.78	0.896511
1049.43	0.679572
1051.08	0.52904
1052.72	0.705149
1054.37	0.968644
1056.02	0.645437
1057.66	0.821816
1059.31	1.25869
1060.95	0.303369
1062.6	0.0430346
1064.24	0.303693
1065.88	0.454597
1067.53	1.03905
1069.17	0.731367
1070.81	0.51014
1072.45	0.332389
1074.1	0.632598
1075.74	0.282881
1077.38	0.650291
1079.02	0.888742
1080.66	0.585857
1082.3	0.391422
1083.94	0.413004
1085.58	0.584763
1087.22	0.38606
1088.86	0.488709
1090.5	1.41165
1092.14	0.386256
1093.78	0.701218
1095.42	0.58423
1097.05	0.640733
1098.69	0.590791
1100.33	0.478073
1101.96	0.647104
1103.6	0.624193
1105.24	0.581118
1106.87	0.108498
1108.51	0.689466
1110.14	0.344658
1111.78	0.944203
1113.41	0.20972
1115.05	0.0545015
1116.68	0.757017
1118.31	0.536832
1119.95	0.231917
1121.58	0.570696
1123.21	0.760389
1124.85	0.287692
1126.48	0.329491
1128.11	0.799726
1129.74	-0.268928
1131.37	0.630105
1133	0.588682
1134.63	0.076889
1136.26	0.996585
1137.89	-0.285969
1139.52	-0.180471
1141.15	0.543141
1142.78	-0.206837
1144.41	0.195772
1146.04	0.364157
1147.66	-0.319088
1149.29	0.383737
1150.92	0.149497
1152.55	-0.340152
1154.17	0.255898
1155.8	0.106323
1157.43	-0.128382
1159.05	-0.0861044
1160.68	0.233388
1162.3	0.192395
1163.93	0.917809
1165.55	-0.0997219
1167.17	0.370845
1168.8	0.0537357
1170.42	0.117731
1172.05	0.222318
1173.67	-0.142013
1175.29	-0.0614901
1176.91	0.272795
1178.54	-0.00755501
1180.16	0.200019
1181.78	-0.480279
1183.4	-0.313469
1185.02	-0.167925
1186.64	0.610068
1188.26	0.625757
1189.88	0.42867
1191.5	0.0406532
1193.12	0.177787
1194.74	0.334723
1196.36	-0.242557
1197.97	-0.461472
1199.59	-0.197262
1201.21	0.298405
1202.83	0.628817
1204.44	-0.249002
1206.06	0.398913
1207.68	0.317734
1209.29	0.820942
1210.91	0.217851
1212.52	0.405725
1214.14	0.257883
1215.75	0.774369
1217.37	0.33125
1218.98	0.552979
1220.59	1.00246
1222.21	0.456273
1223.82	0.678967
1225.43	1.2548
1227.05	1.85216
1228.66	1.06466
1230.27	1.1475
1231.88	1.45891
1233.49	0.758752
1235.1	1.03132
1236.72	1.20179
1238.33	1.41472
1239.94	1.35964
1241.55	1.24269
1243.16	1.37362
1244.76	2.18662
1246.37	1.30186
1247.98	1.82309
1249.59	1.72273
1251.2	1.41517
1252.8	1.19065
1254.41	1.64945
1256.02	1.84048
1257.62	1.92944
1259.23	1.60585
1260.84	1.20022
1262.44	1.54026
1264.05	1.96346
1265.66	1.80631
1267.26	2.00066
1268.86	1.73797
1270.47	2.28275
1272.07	1.16767
1273.67	1.77241
1275.28	2.52102
1276.88	1.69333
1278.48	1.65245
1280.09	1.98366
1281.69	1.77613
1283.29	1.52752
1284.89	1.58985
1286.49	2.79008
1288.09	2.29606
1289.69	1.22461
1291.29	2.30294
1292.89	2.30658
1294.49	2.20613
1296.09	2.35216
1297.69	2.31052
1299.29	1.37995
1300.89	1.99526
1302.49	2.11389
1304.08	2.14895
1305.68	2.32706
1307.28	1.53897
1308.88	1.51132
1310.47	2.119
1312.07	2.54157
1313.66	2.04377
1315.26	1.691
1316.85	1.87068
1318.45	2.27511
1320.04	2.08761
1321.64	2.36795
1323.23	1.97457
1324.83	2.25093
1326.42	1.83488
1328.01	2.1694
1329.61	2.03794
1331.2	2.45452
1332.79	1.41791
1334.38	1.83904
1335.97	2.40261
1337.56	2.34098
1339.16	1.55309
1340.75	1.79179
1342.34	1.60528
1343.93	2.26132
1345.52	1.87063
1347.11	1.38073
1348.7	1.71488
1350.29	1.6907
1351.87	1.90925
1353.46	1.72993
1355.05	1.83195
1356.64	1.23495
1358.22	1.31706
1359.81	0.978823
1361.4	1.15876
1362.98	1.15812
1364.57	1.43622
1366.16	1.2759
1367.74	1.41526
1369.33	0.540505
1370.91	1.73736
1372.5	0.845877
1374.08	0.572466
1375.67	0.379299
1377.25	0.922481
1378.83	1.3657
1380.41	1.23085
1382	0.856017
1383.58	0.997149
1385.16	0.918531
1386.74	0.740187
1388.33	1.07845
1389.91	1.4766
1391.49	0.34748
1393.07	0.410028
1394.65	0.790251
1396.23	1.05116
1397.81	0.894956
1399.39	0.99548
1400.97	1.27321
1402.55	0.500941
1404.13	0.679084
1405.7	0.976162
1407.28	0.522731
1408.86	0.959577
1410.44	0.488042
1412.01	1.16206
1413.59	0.788857
1415.17	0.849156
1416.74	0.69164
1418.32	0.731
1419.89	0.82971
1421.47	1.12624
1423.04	1.22725
1424.62	1.11337
1426.19	1.00076
1427.77	0.770601
1429.34	0.933839
1430.91	1.0962
1432.49	1.25739
1434.06	1.24048
1435.63	1.49846
1437.2	1.14697
1438.78	1.79885
1440.35	1.94053
1441.92	2.37798
1443.49	1.89248
1445.06	2.15422
1446.63	2.43583
1448.2	1.87239
1449.77	2.27244
1451.34	1.88658
1452.91	2.09112
1454.48	2.27648
1456.05	2.40287
1457.62	2.62703
1459.18	2.49561
1460.75	1.94907
1462.32	2.04999
1463.89	1.63782
1465.45	1.04801
1467.02	1.61745
1468.59	1.73505
1470.15	1.55907
1471.72	1.4236
1473.28	1.07354
1474.85	0.802831
1476.41	1.00316
1477.98	0.752645
1479.54	1.22741
1481.1	0.976752
1482.67	0.647696
1484.23	0.886829
1485.79	0.929633
1487.36	1.65715
1488.92	0.93412
1490.48	0.48391
1492.04	0.599251
1493.61	0.38028
1495.17	1.01852
1496.73	0.446065
1498.29	0.653215
1499.85	0.491071
1501.41	1.28155
1502.97	0.772176
1504.53	0.671539
1506.09	0.900433
1507.65	0.625483
1509.2	0.639896
1510.76	0.4795
1512.32	0.472837
1513.88	0.0808859
1515.43	0.439737
1516.99	0.587056
1518.55	0.101948
1520.1	-0.075038
1521.66	0.226917
1523.22	0.81463
1524.77	0.48387
1526.33	0.267363
1527.88	0.58373
1529.44	1.22191
1530.99	0.301292
1532.54	0.729944
1534.1	0.703811
1535.65	1.11378
1537.21	1.24034
1538.76	0.933229
1540.31	0.58939
1541.86	1.35777
1543.42	1.12711
1544.97	0.934287
1546.52	0.62895
1548.07	0.830673
1549.62	1.10691
1551.17	1.25168
1552.72	1.17219
1554.27	1.28067
1555.82	1.31563
1557.37	0.978991
1558.92	1.40956
1560.47	1.24484
1562.02	1.04444
1563.56	0.975702
1565.11	2.17631
1566.66	1.64185
1568.21	1.3683
1569.75	1.41161
1571.3	1.88387
1572.85	1.96385
1574.39	2.45435
1575.94	1.47014
1577.49	2.24089
1579.03	2.02266
1580.57	2.04777
1582.12	1.92428
1583.66	2.04445
1585.21	1.53008
1586.75	1.85712
1588.3	2.01624
1589.84	1.29581
1591.38	1.80983
1592.92	1.74324
1594.47	1.78868
1596.01	1.57187
1597.55	1.80513
1599.09	2.18923
1600.63	1.56141
1602.17	1.44019
1603.71	1.80705
1605.25	2.19238
1606.79	1.7497
1608.33	1.75594
1609.87	2.19214
1611.41	1.83661
1612.95	1.74224
1614.49	1.94693
1616.03	2.50725
1617.57	2.01765
1619.1	1.45484
1620.64	1.69928
1622.18	1.64537
1623.72	1.16172
1625.25	1.59547
1626.79	1.27972
1628.32	1.59899
1629.86	1.61742
1631.39	2.02725
1632.93	1.81978
1634.46	2.65819
1636	1.85468
1637.53	1.91073
1639.07	1.98603
1640.6	2.19178
1642.13	2.39673
1643.67	2.04174
1645.2	2.39302
1646.73	2.59408
1648.26	2.92456
1649.8	2.27084
1651.33	2.84374
1652.86	3.13915
1654.39	2.2675
1655.92	3.34329
1657.45	2.89896
1658.98	2.34299
1660.51	2.76728
1662.04	2.89349
1663.57	3.24006
1665.1	2.08933
1666.63	2.04812
1668.16	2.56133
1669.68	2.08014
1671.21	2.11683
1672.74	2.15463
1674.27	2.08242
1675.79	2.10206
1677.32	1.84481
1678.85	1.64185
1680.37	1.89768
1681.9	1.7298
1683.42	1.61687
1684.95	1.55919
1686.47	1.50192
1688	1.94002
1689.52	1.73687
1691.05	0.948284
1692.57	0.80107
1694.09	1.86116
1695.62	1.03696
1697.14	1.09043
1698.66	0.796532
1700.18	0.958826
1701.71	0.336181
1703.23	0.369967
1704.75	0.421394
1706.27	0.363147
1707.79	0.286543
1709.31	0.300802
1710.83	0.315094
1712.35	0.130054
1713.87	0.162866
1715.39	0.141364
1716.91	0.644385
1718.43	0.351233
1719.95	0.726624
1721.47	-0.305794
1722.99	0.520858
1724.5	0.392344
1726.02	0.337189
1727.54	0.76929
1729.06	0.53621
1730.57	0.519497
1732.09	0.112741
1733.61	-0.00840378
1735.12	0.510364
1736.64	0.436001
1738.15	0.433797
1739.67	0.0515728
1741.18	0.518158
1742.7	0.343678
1744.21	0.189095
1745.72	0.296613
1747.24	0.111347
1748.75	0.188787
1750.26	-0.0752907
1751.77	0.140302
1753.29	0.51285
1754.8	0.656513
1756.31	0.0153122
1757.82	-0.27419
1759.33	0.183868
1760.84	0.384269
1762.36	-0.221016
1763.87	0.456323
1765.38	-0.273909
1766.89	-0.182221
1768.4	0.0966806
1769.91	0.050416
1771.41	0.184075
1772.92	0.396676
1774.43	-0.108368
1775.94	-0.220345
1777.45	-0.0516882
1778.95	-0.292961
1780.46	0.148445
1781.97	-0.0258207
1783.48	-0.14686
1784.98	0.101217
1786.49	-0.143447
1787.99	-0.0323114
1789.5	0.0966854
1791.01	-0.147532
1792.51	0.166626
1794.01	0.274175
1795.52	-0.0416365
1797.02	-0.224688
1798.53	0.311041
1800.03	0.151426
1801.53	0.0718317
1803.04	0.122649
1804.54	0.105196
1806.04	0.166617
1807.54	0.292706
1809.05	0.329874
1810.55	0.0956316
1812.05	-0.0133104
1813.55	0.00511646
1815.05	-0.15745
1816.55	0.171745
1818.05	0.0386782
1819.55	-0.216887
1821.05	0.0527706
1822.55	0.0737877
1824.05	0.162345
1825.55	0.193689
1827.05	-0.132368
1828.55	-0.113522
1830.04	0.290556
1831.54	0.244941
1833.04	0.322327
1834.54	0.107787
1836.03	-0.133958
1837.53	-0.11166
1839.03	0.213334
1840.52	0.318909
1842.02	0.0186434
1843.51	0.0234194
1845.01	0.0510798
1846.5	0.269126
1848	0.118711
1849.49	0.204471
1850.99	0.240163
1852.48	0.0990534
1853.97	0.103416
1855.47	0.049139
1856.96	-0.110001
1858.45	-0.0123968
1859.94	-0.21576
1861.44	0.118413
1862.93	0.293919
1864.42	-0.0119572
1865.91	0.526789
1867.4	-0.105151
1868.89	0.0882807
1870.38	0.386539
1871.87	0.0610456
1873.36	0.297279
1874.85	0.268676
1876.34	-0.0992975
1877.83	0.16543
1879.32	-0.206257
1880.81	0.219987
1882.3	0.244231
1882.57	0.224163
1884.07	-0.229713
1885.56	0.100193
1887.06	0.220018
1888.55	0.252236
1890.04	0.232416
1891.54	-0.0473318
1893.03	-0.290702
1894.52	0.197756
1896.02	-0.0948248
1897.51	0.256695
1899	-0.418098
1900.49	0.123816
1901.98	-0.0837412
1903.47	-0.0319204
1904.96	0.140276
1906.45	-0.00111866
1907.94	0.27438
1909.43	0.133604
1910.92	-0.0929737
1912.41	-0.04109
1913.9	0.167343
1915.39	0.445126
1916.88	0.011672
1918.37	-0.370056
1919.85	0.270317
1921.34	0.511825
1922.83	0.0782681
1924.32	-0.11192
1925.8	-0.301071
1927.29	0.116609
1928.78	0.0501146
1930.26	-0.0164528
1931.75	0.124041
1933.23	0.141996
1934.72	-0.135913
1936.2	0.294278
1937.69	-0.158873
1939.17	0.252084
1940.66	0.282908
1942.14	0.625112
1943.63	0.640234
1945.11	0.000880241
1946.59	0.327621
1948.07	0.102461
1949.56	0.272985
1951.04	0.201396
1952.52	0.111842
1954	0.0734806
1955.48	-0.497566
1956.96	0.323409
1958.45	0.0971222
1959.93	-0.0939684
1961.41	-0.198686
1962.89	-0.0803423
1964.37	0.260448
1965.85	-0.187258
1967.32	-0.190118
1968.8	0.0972252
1970.28	0.178558
1971.76	0.208292
1973.24	-0.0863523
1974.72	0.028841
1976.19	0.399683
1977.67	-0.047369
1979.15	-0.289495
1980.63	0.234095
1982.1	0.127896
1983.58	-0.0293884
1985.05	-4.76837e-005
1986.53	0.164704
1988	-0.0436287
1989.48	-0.03123
1990.95	-0.238238
1992.43	0.53676
1993.9	-0.158837
1995.38	0.279066
1996.85	0.311611
1998.32	-0.162561
1999.8	0.342353
2001.27	0.576304
2002.74	0.151786
2004.22	0.18273
2005.69	-0.0387855
2007.16	-0.0910244
2008.63	0.244884
2010.1	0.00900841
2011.57	0.00932693
2013.04	-0.242794
2014.51	0.093771
2015.98	0.0930099
2017.45	0.0578003
2018.92	0.27404
2020.39	0.523179
2021.86	0.469661
2023.33	0.248665
2024.8	0.0453663
2026.27	0.447113
2027.74	-0.105954
2029.2	0.0635347
2030.67	0.150361
2032.14	0.137395
2033.61	0.343075
2035.07	0.0114684
2036.54	0.183264
2038.01	0.472295
2039.47	0.072011
2040.94	0.411172
2042.4	0.280037
2043.87	0.132695
2045.33	0.692799
2046.8	0.126125
2048.26	0.317147
2049.72	0.103547
2051.19	0.394661
2052.65	0.144845
2054.12	0.28124
2055.58	0.449761
2057.04	0.380947
2058.5	0.513669
2059.97	0.376659
2061.43	0.374839
2062.89	0.828246
2064.35	0.440935
2065.81	0.206085
2067.27	0.426385
2068.73	0.411607
2070.19	0.245606
2071.65	0.0290995
2073.11	0.603773
2074.57	0.639462
2076.03	0.304357
2077.49	0.507785
2078.95	0.104604
2080.41	0.458787
2081.87	0.475653
2083.32	0.811709
2084.78	0.608401
2086.24	0.925999
2087.7	0.620631
2089.15	0.365574
2090.61	0.83285
2092.07	0.695198
2093.52	0.675052
2094.98	0.285739
2096.43	0.415975
2097.89	0.629168
2099.34	0.925154
2100.8	0.91939
2102.25	0.663223
2103.71	0.875757
2105.16	0.471761
2106.61	0.753394
2108.07	0.869028
2109.52	0.834826
2110.97	0.800104
2112.43	0.880785
2113.88	1.20953
2115.33	0.720952
2116.78	1.17993
2118.23	1.17339
2119.68	0.985604
2121.13	1.18146
2122.59	0.931261
2124.04	1.36241
2125.49	0.965032
2126.94	1.413
2128.39	1.77692
2129.83	1.44325
2131.28	1.39013
2132.73	1.79975
2134.18	1.38176
2135.63	1.60985
2137.08	1.88884
2138.53	2.12004
2139.97	1.46077
2141.42	1.81131
2142.87	2.13017
2144.31	2.11908
2145.76	2.09155
2147.21	2.32859
2148.65	2.00198
2150.1	2.07186
2151.54	2.09102
2152.99	1.89374
2154.43	2.34179
2155.88	2.32542
2157.32	2.65701
2158.77	2.21084
2160.21	2.21333
2161.65	2.15137
2163.1	2.30683
2164.54	2.51385
2165.98	2.67222
2167.43	2.78084
2168.87	2.40629
2170.31	2.39533
2171.75	2.68156
2173.19	2.73281
2174.64	2.86573
2176.07	2.7319
2177.52	3.24682
2178.96	2.83145
2180.4	2.71648
2181.84	2.53593
2183.28	2.52226
2184.72	2.40908
2186.15	2.24603
2187.59	2.68194
2189.03	2.56886
2190.47	2.62217
2191.91	2.5753
2193.35	2.1946
2194.78	2.62827
2196.22	1.86137
2197.66	2.49051
2199.09	2.43542
2200.53	2.19653
2201.97	1.99107
2203.4	2.26773
2204.84	2.06437
2206.27	1.82914
2207.71	1.67748
2209.14	1.92314
2210.58	1.20782
2212.01	1.48476
2213.45	1.66142
2214.88	1.68907
2216.31	1.58526
2217.75	1.58171
2219.18	1.5629
2220.61	1.512
2222.05	1.23049
2223.48	1.3768
2224.91	1.20873
2226.34	1.00629
2227.78	0.868353
2229.21	1.14005
2230.64	1.16435
2232.07	1.0737
2233.5	1.36
2234.93	0.91063
2236.36	0.871664
2237.79	0.96485
2239.22	0.798675
2240.65	1.10754
2242.08	1.0592
2243.5	0.946798
2244.93	0.948881
2246.36	0.966617
2247.79	0.950202
2249.22	1.04584
2250.64	0.813413
2252.07	0.758738
2253.5	0.63836
2254.92	0.794697
2256.35	0.62747
2257.78	0.543776
2259.2	0.722319
2260.63	0.0273962
2262.05	0.535346
2263.48	0.81784
2264.9	0.662126
2266.33	0.766051
2267.75	0.609028
2269.18	0.516113
2270.6	0.4387
2272.02	0.474773
2273.45	0.217557
2274.87	0.579326
2276.29	0.680752
2277.71	0.440126
2279.14	0.460269
2280.56	0.415136
2281.98	0.565597
2283.4	0.291869
2284.82	0.262827
2286.24	0.266615
2287.66	0.711591
2289.08	-0.0514369
2290.5	0.296452
2291.92	0.170799
2293.34	0.601202
2294.76	0.148415
2296.18	0.235333
2297.6	0.289523
2299.02	0.507636
2300.44	0.480261
2301.86	0.387529
2303.27	0.262147
2304.69	0.268093
2306.11	0.306816
2307.53	0.115221
2308.94	0.153113
2310.36	0.190513
2311.78	0.22759
2313.19	0.231761
2314.61	-0.109357
2316.02	0.422641
2317.44	0.148546
2318.85	0.38557
2320.27	0.210272
2321.68	0.099813
2323.1	0.367215
2324.51	0.252979
2325.92	0.681214
2327.34	0.728286
2328.75	0.626296
2330.16	0.623446
2331.58	0.0287609
2332.99	0.274861
2334.4	0.225407
2335.81	0.0939236
2337.23	0.258118
2338.64	-0.154071
2340.05	0.0903883
2341.46	0.383014
2342.87	0.215322
2344.28	0.0806346
2345.69	-0.135573
2347.1	-0.0564504
2348.51	0.0880666
2349.92	-0.111464
2351.33	0.39148
2352.74	0.0434575
2354.15	0.152097
2355.55	0.341409
2356.96	-0.28405
2358.37	-0.0461955
2359.78	0.434953
2361.19	0.0225472
2362.59	0.0487332
2364	-0.0709977
2365.41	0.116855
2366.81	-0.0510507
2368.22	-0.0404902
2369.62	-0.222622
2371.03	0.289777
2372.44	0.15832
2373.84	0.0600848
2375.24	-0.295286
2376.65	-0.0393085
2378.05	-0.0900512
2379.46	-0.559813
2380.86	-0.11516
2382.26	0.295308
2383.67	0.239592
2385.07	0.231807
2386.47	0.12855
2387.88	-0.149209
2389.28	0.0529256
2390.68	0.112428
2392.08	0.0136814
2393.48	0.186411
2394.89	0.152954
2396.29	0.374515
2397.69	-0.182253
2399.09	0.167448
2400.49	0.0249701
2401.89	0.136946
2403.29	0.12187
2404.69	0.217607
2406.09	0.0585356
2407.48	0.358903
2408.88	0.0397863
2410.28	0.19624
2411.68	0.495327
2413.08	0.208966
2414.48	0.256421
2415.87	0.210195
2417.27	0.149321
2418.67	0.437581
2420.06	0.298652
2421.46	-0.0622091
2422.86	0.115149
2424.25	0.260626
2425.65	0.089273
2427.04	0.17192
2428.44	-0.0141301
2429.83	0.197013
2431.23	0.440682
2432.62	-0.0455451
2434.02	0.420227
2435.41	0.0909615
2436.81	0.316356
2438.2	0.111414
2439.59	0.143662
2440.99	-0.0631022
2442.38	0.110787
2443.77	0.363637
2445.16	0.108564
2446.56	0.408467
2447.95	-0.100217
2449.34	0.18354
2450.73	0.182257
2452.12	-0.103433
2453.51	0.624403
2454.9	0.118739
2456.29	-0.101441
2457.68	0.184844
2459.07	0.281137
2460.46	-0.398015
2461.85	0.313743
2463.24	-0.113595
2464.63	0.343622
2466.02	0.373804
2467.4	-0.0538878
2468.79	-0.00790787
2470.18	0.195556
2471.57	0.225016
2472.95	0.064795
2474.34	0.203195
2475.73	0.372278
2477.12	-0.0879126
2478.5	-0.0448647
2479.89	0.202249
2481.27	0.0571418
2482.66	0.272534
2484.04	-0.123357
2485.43	0.0906181
2486.81	0.115689
2488.2	0.248957
2489.58	-0.0862694
2490.97	-0.0316634
2492.35	0.0232692
2493.73	0.0479641
2495.12	0.554656
2496.5	-0.00783062
2497.88	0.0508022
2499.27	0.00122738
2500.65	-0.218721
2502.03	-0.176283
2503.41	-0.150191
2504.79	-0.217461
2506.17	0.238742
2507.56	0.0935111
2508.94	0.179317
2510.32	0.0963988
2511.7	-0.0778246
2513.08	-0.266384
2514.46	-0.147583
2515.84	-0.120045
2517.22	-0.122477
2518.59	0.166034
2519.97	0.179338
2521.35	0.161835
2522.73	0.0521822
2524.11	-0.18008
2525.49	0.0903163
2526.86	0.0402803
2528.24	-0.0245156
2529.62	0.139823
2530.99	-0.0593724
2532.37	0.320424
2533.75	-0.225461
2535.12	0.201635
2536.5	0.218467
2537.88	0.386589
2539.25	0.53859
2540.63	0.31018
2542	0.172668
2543.38	-0.176894
2544.75	-0.0856395
2546.12	0.234174
2547.5	-0.00617504
2548.87	-0.00311184
2550.24	0.166906
2551.62	-0.0125155
2552.99	0.459823
2554.36	0.248307
2555.74	-0.0701404
2557.11	-0.0703859
2558.48	-0.192038
2559.85	0.111064
2561.22	0.293257
2562.59	0.218341
2563.96	-0.219738
2565.34	0.282106
2566.71	0.208316
2568.08	0.377086
2569.45	0.106353
2570.82	0.108418
2572.18	-0.0107431
2573.55	0.0217428
2574.92	0.190749
2576.29	0.193041
2577.66	0.483341
2579.03	0.151785
2580.4	0.123159
2581.77	0.382264
2583.13	0.0800276
2584.5	-0.0555959
2585.87	0.0816121
2587.23	-0.0236049
2588.6	0.0532227
2589.97	0.0846696
2591.33	0.191761
2592.7	-0.125838
2594.06	0.161908
2595.43	0.17601
2596.79	0.098371
2598.16	0.110885
2599.52	-0.149067
2600.89	0.36198
2602.25	0.299058
2603.62	0.251896
2604.98	0.144909
2606.34	0.490688
2607.71	0.00658369
2609.07	0.0496445
2610.43	-0.0740824
2611.79	0.162422
2613.16	-0.0836434
2614.52	-0.239771
2615.88	0.0843735
2617.24	0.108276
2618.6	-0.106944
2619.96	0.277407
2621.32	0.183347
2622.68	0.0151725
2624.04	0.116191
2625.4	0.0976448
2626.76	0.168363
2628.12	-0.193432
2629.48	-0.0487094
2630.84	0.140244
2632.2	0.224739
2633.56	0.249637
2634.92	0.378362
2636.28	-0.0863338
2637.63	0.0720482
2638.99	-0.0214744
2640.35	0.0628171
2641.71	0.147207
2643.06	0.0396743
2644.42	0.198158
2645.77	0.179317
2647.13	-0.282102
2648.49	-0.124762
2649.84	0.237615
2651.2	0.17237
2652.55	0.224476
2653.91	0.320698
2655.26	0.285511
2656.62	0.0170488
2657.97	0.320781
2659.33	0.40553
2660.68	0.227368
2662.03	0.078464
2663.39	0.206695
2664.74	0.407016
2666.09	0.343839
2667.44	-0.069417
2668.8	0.0712504
2670.15	0.110086
2671.5	0.00394011
2672.85	0.276264
2674.2	0.18578
2675.55	-0.223416
2676.91	0.224232
2678.26	0.0194783
2679.61	0.221572
2680.96	-0.358366
2682.31	0.208115
2683.66	0.471244
2685	0.213184
2686.35	0.187521
2687.7	0.00199604
2689.05	-0.184653
2690.4	0.0337243
2691.75	-0.0543218
2693.1	-0.0130401
2694.44	-0.262618
2695.79	0.0241504
2697.14	-0.210303
2698.49	0.106799
2699.83	0.338369
2701.18	-0.0222158
2702.52	-0.526509
2703.87	0.360814
2705.22	0.45199
2706.56	0.296716
2707.91	0.213613
2709.25	-0.0296121
2710.6	0.0606666
2711.94	-0.00902176
2713.29	0.182685
2714.63	0.11281
2715.97	0.246394
2717.32	0.292657
2718.66	0.338715
2720.01	0.471764
2721.35	0.415249
2722.69	0.241837
2724.03	0.271753
2725.38	0.359502
2726.72	0.374129
2728.06	0.155606
2729.4	0.25706
2730.74	0.0382547
2732.08	0.226833
2733.42	0.197243
2734.76	0.516904
2736.1	0.138559
2737.44	0.327581
2738.78	0.356582
2740.12	0.341721
2741.46	0.02109
2742.8	0.150649
2744.14	-0.0256586
2745.48	0.000999928
2746.82	0.0272665
2748.16	0.329137
2749.49	0.137488
2750.83	0.0331922
2752.17	0.233642
2753.51	0.173287
2754.84	0.185561
2756.18	0.34278
2757.52	-0.0646434
2758.85	0.339021
2760.19	0.236299
2761.53	0.235344
2762.86	0.321628
2764.2	0.176672
2765.53	0.335538
2766.87	0.262484
2768.2	0.203073
2769.54	0.200378
2770.87	0.0663319
2772.2	0.292274
2773.54	-0.031352
2774.87	-0.268391
2776.2	0.24393
2777.54	0.0649219
2778.87	0.0304742
2780.2	0.168968
2781.53	0.0347052
2782.87	-0.142363
2784.2	-0.0180831
2785.53	0.106007
2786.86	0.101209
2788.19	-0.132164
2789.52	-0.107087
2790.85	-0.138474
2792.18	0.10248
2793.51	-0.170913
2794.84	0.284719
2796.17	0.0968595
2797.5	-0.119946
2798.83	-0.0229635
2800.16	-0.368852
2801.49	-0.129792
2802.82	0.379764
2804.15	0.147536
2805.47	0.0575852
2806.8	0.123765
2808.13	-0.0524902
2809.46	-0.00145578
2810.78	-0.149273
2812.11	0.0300374
2813.44	-0.116079
2814.76	0.15033
2816.09	0.290287
2817.42	0.17608
2818.74	-0.221087
2820.07	0.118767
2821.39	0.132224
2822.72	0.0175457
2824.04	0.129052
2825.37	-0.184721
2826.69	-0.0451512
2828.02	-0.188362
2829.34	0.121961
2830.66	0.0645809
2831.99	0.318802
2833.31	0.233227
2834.63	0.37383
2835.96	0.329983
2837.28	0.681844
2838.6	0.665362
2839.92	0.592137
2841.24	0.731123
2842.57	0.686673
2843.89	0.95375
2845.21	1.13665
2846.53	1.23532
2847.85	1.33432
2849.17	1.63122
2850.49	1.84303
2851.81	1.77168
2853.13	1.71397
2854.45	1.31677
2855.77	1.80962
2857.09	1.63836
2858.41	2.00392
2859.72	1.7621
2861.04	2.04262
2862.36	2.15332
2863.68	2.17893
2865	2.1055
2866.31	2.62455
2867.63	2.38205
2868.95	3.19757
2870.26	2.89951
2871.58	3.33466
2872.9	3.52979
2874.21	3.9213
2875.53	3.5931
2876.84	3.78492
2878.16	3.77871
2879.47	3.87067
2880.79	4.18775
2882.1	3.84512
2883.42	3.53194
2884.73	3.61308
2886.05	3.72285
2887.36	3.93087
2888.67	3.33853
2889.99	3.67151
2891.3	3.33036
2892.61	3.91389
2893.92	3.9644
2895.24	4.09927
2896.55	4.13691
2897.86	3.92376
2899.17	4.21542
2900.48	4.59176
2901.79	4.52088
2903.11	4.29636
2904.42	4.82731
2905.73	4.88298
2907.04	4.57557
2908.35	4.98241
2909.66	5.06846
2910.97	5.47702
2912.27	5.57775
2913.58	5.88767
2914.89	6.18206
2916.2	6.0965
2917.51	6.58301
2918.82	6.11674
2920.13	6.75553
2921.43	6.76552
2922.74	6.63714
2924.05	7.1254
2925.35	7.33539
2926.66	7.74179
2927.97	7.64499
2929.27	7.78537
2930.58	8.02293
2931.89	7.14157
2933.19	7.89546
2934.5	7.39129
2935.8	7.62804
2937.11	7.54352
2938.41	7.40333
2939.72	7.48704
2941.02	7.30586
2942.32	7.6008
2943.63	6.87694
2944.93	6.72752
2946.24	6.42548
2947.54	6.72549
2948.84	6.6755
2950.14	6.02209
2951.45	5.92653
2952.75	5.87087
2954.05	5.88367
2955.35	5.63011
2956.65	5.4476
2957.95	5.25333
2959.26	5.13192
2960.56	5.15344
2961.86	5.38745
2963.16	5.342
2964.46	4.81845
2965.76	4.15223
2967.06	4.69233
2968.36	4.30356
2969.66	4.70127
2970.96	4.50831
2972.25	4.1186
2973.55	3.78531
2974.85	4.0571
2976.15	3.99043
2977.45	3.45771
2978.74	3.45828
2980.04	3.54154
2981.34	3.03242
2982.64	3.0295
2983.93	2.94258
2985.23	3.05358
2986.52	2.89906
2987.82	2.57741
2989.12	2.56586
2990.41	2.5405
2991.71	1.96651
2993	2.61418
2994.3	2.43138
2995.59	2.27563
2996.89	1.81039
2998.18	1.73828
2999.48	1.5823
3000.77	1.32881
3002.06	1.44047
3003.36	1.03399
3004.65	1.39829
3005.94	1.14592
3007.23	0.76717
3008.53	1.01758
3009.82	1.29484
3011.11	0.928278
3012.4	0.631671
3013.69	0.516882
3014.99	0.611734
3016.28	0.470276
3017.57	0.62202
3018.86	0.871454
3020.15	0.411427
3021.44	0.563038
3022.73	0.324787
3024.02	0.682713
3025.31	0.415442
3026.6	0.356236
3027.89	0.394446
3029.18	0.336834
3030.46	0.653707
3031.75	0.253497
3033.04	0.434357
3034.33	0.228957
3035.62	0.395662
3036.9	0.933228
3038.19	0.29737
3039.48	0.610482
3040.76	0.550323
3042.05	0.324775
3043.34	0.42875
3044.62	0.492193
3045.91	0.734769
3047.19	0.623805
3048.48	0.351398
3049.77	0.695343
3051.05	0.535721
3052.34	0.608858
3053.62	0.84571
3054.9	0.304269
3056.19	0.675873
3057.47	0.378214
3058.76	0.62509
3060.04	0.735281
3061.32	0.600778
3062.61	0.589746
3063.89	0.294503
3065.17	0.272701
3066.45	0.714398
3067.74	0.436469
3069.02	0.648385
3070.3	0.533683
3071.58	0.59496
3072.86	0.315117
3074.14	0.292565
3075.42	0.201267
3076.7	0.272746
3077.99	0.0323682
3079.26	0.363021
3080.54	0.328622
3081.82	0.173587
3083.1	-0.0210352
3084.38	0.110548
3085.66	0.391523
3086.94	0.210686
3088.22	0.110622
3089.5	0.0506773
3090.78	-0.104625
3092.05	0.0656247
3093.33	-0.238767
3094.61	0.108159
3095.89	-0.0871243
3097.16	-0.255137
3098.44	0.173219
3099.72	0.0863748
3100.99	0.08079
3102.27	0.102366
3103.54	-0.0653377
3104.82	-0.0294566
3106.1	0.0882835
3107.37	0.00385094
3108.65	-0.174382
3109.92	0.000218868
3111.2	-0.000234127
3112.47	0.270895
3113.74	-0.0536008
3115.02	0.00121927
3116.29	0.191281
3117.56	0.122968
3118.84	0.216447
3120.11	0.0241442
3121.38	0.373421
3122.66	0.179849
3123.93	0.324949
3125.2	0.131619
3126.47	0.20956
3127.74	0.287968
3129.01	0.515572
3130.29	0.432418
3131.56	-0.0695891
3132.83	0.0366654
3134.1	-0.0195518
3135.37	0.32885
3136.64	0.0962534
3137.91	0.510633
3139.18	0.344821
3140.45	0.313757
3141.72	0.202147
3142.99	0.2388
3144.26	0.342987
3145.52	0.313447
3146.79	0.31138
3148.06	0.497506
3149.33	0.389414
