200.43	0.805642
202.244	0.841122
204.059	0.877847
205.873	0.964199
207.688	0.710383
209.501	0.456018
211.314	0.321941
213.127	0.501927
214.941	0.850079
216.753	1.24531
218.564	0.283597
220.375	0.41292
222.186	0.349479
223.999	0.311212
225.809	0.587622
227.618	0.501401
229.428	-0.406291
231.236	0.44795
233.045	0.528919
234.855	-0.0168438
236.663	0.499612
238.471	-0.0665426
240.278	0.0207148
242.085	-0.0343304
243.891	0.0325298
245.698	0.509543
247.503	-0.80154
249.309	0.757282
251.116	0.574062
252.921	0.31517
254.725	-0.186857
256.529	0.516492
258.333	0.593338
260.136	-0.00271988
261.939	-1.00612
263.742	0.449317
265.544	-0.0937376
267.346	-0.612669
269.148	0.338146
270.949	0.540873
272.75	0.0670958
274.55	0.146158
276.351	0.536647
278.15	0.68375
279.95	0.129839
281.749	-0.185096
283.548	0.70075
285.346	0.934541
287.144	0.542793
288.942	-0.0161467
290.739	0.624384
292.536	0.37954
294.333	0.615058
296.129	0.254153
297.925	0.611622
299.721	0.133086
301.514	-0.226061
303.309	0.321342
305.104	-0.421868
306.898	0.599562
308.692	0.189192
310.486	0.041791
312.279	-0.00907707
314.072	0.203635
315.862	0.275281
317.654	0.658407
319.446	0.0904055
321.238	0.452625
323.029	0.243623
324.819	0.535832
326.608	0.303091
328.398	0.428092
330.188	0.146
331.977	0.292743
333.766	0.389791
335.553	0.819445
337.341	0.456823
339.129	0.929192
340.917	0.203642
342.704	0.553343
344.489	0.400766
346.275	0.368173
348.062	0.192978
349.845	0.424131
351.631	0.607409
353.416	-0.164576
355.201	0.446221
356.984	0.244317
358.768	0.75599
360.552	0.646464
362.333	0.678719
364.116	-0.193561
365.899	0.669024
367.68	0.22366
369.462	0.536898
371.243	0.63526
373.023	0.0227327
374.804	-0.187151
376.585	0.429593
378.363	-0.0864153
380.143	-0.294281
381.923	-0.17116
383.7	0.352856
385.479	0.454382
387.256	0.463058
389.034	0.707788
390.812	-0.150456
392.588	-0.115308
394.365	0.437047
396.14	0.449573
397.916	0.0159092
399.691	0.380491
401.467	0.110389
403.24	0.497182
405.015	0.624714
406.788	0.727818
408.563	0.266674
410.335	0.368613
412.109	0.329659
413.88	-0.107834
415.654	0.182781
417.424	0.450686
419.197	0.461132
420.967	0.823845
422.739	0.0361156
424.508	0.749879
426.279	0.828776
428.048	0.366731
429.819	0.0215292
431.587	0.309976
433.356	-0.0350266
435.124	0.488631
436.891	-0.0204554
438.66	0.431931
440.426	-0.0794458
442.194	0.111016
443.96	0.111421
445.725	0.695425
447.492	0.294049
449.257	0.617701
451.021	0.333355
452.787	-0.0202522
454.551	-0.163176
456.314	-0.375871
458.079	-0.285697
459.842	0.0835695
461.604	0.0343428
463.368	0.288852
465.13	0.801229
466.891	0.480127
468.654	0.464001
470.415	0.240576
472.175	0.250234
473.935	0.980844
475.696	0.918207
477.456	0.5502
479.215	1.2283
480.973	0.391106
482.733	0.881689
484.491	0.418567
486.249	0.469865
488.006	0.476866
489.765	0.206191
491.522	0.239637
493.278	0.624288
495.034	0.799366
496.789	0.810792
498.544	0.282994
500.301	0.105495
502.056	0.349436
503.81	-0.182327
505.564	0.435632
507.317	0.558973
509.071	0.751292
510.825	0.941918
512.578	0.613088
514.33	0.964932
516.082	0.750506
517.833	0.769987
519.585	0.29464
521.335	0.970181
523.086	0.799039
524.836	0.510445
526.586	0.832026
528.335	0.285743
530.085	-0.166379
531.835	0.646302
533.584	0.450631
535.332	0.745126
537.08	1.03757
538.827	0.674136
540.574	0.869815
542.321	0.13239
544.068	0.0476885
545.814	0.6602
547.56	0.227023
549.305	0.328272
551.05	0.684221
552.795	0.114328
554.54	0.239028
556.282	-0.120996
558.025	0.165742
559.769	0.129891
561.512	0.509026
563.255	0.152107
564.997	0.439913
566.739	0.24563
568.481	-0.0164585
570.223	0.0670156
571.964	0.289505
573.705	0.330151
575.443	0.257999
577.183	-0.0189056
578.923	0.233383
580.663	0.325964
582.402	0.211953
584.141	0.350156
585.879	0.0504045
587.615	0.0251913
589.353	-0.30041
591.09	-0.18989
592.828	0.0581131
594.564	0.351935
596.299	0.622785
598.035	-0.187731
599.771	-0.0783405
601.506	-0.54491
603.242	-0.253648
604.974	0.150891
606.709	-0.365454
608.443	0.633544
610.177	-0.0671539
611.908	0.449144
613.642	0.277949
615.374	0.588928
617.105	0.0751133
618.837	-0.347243
620.569	0.076623
622.3	-0.0274553
624.03	0.164869
625.761	0.0598993
627.491	-0.0438461
629.219	-0.0769768
630.949	-0.0848274
632.677	-0.0448761
634.406	0.726586
636.135	0.379468
637.861	0.738114
639.59	0.933903
641.318	0.464696
643.043	0.107389
644.77	0.318515
646.495	-0.471338
648.222	0.765004
649.948	-0.109696
651.672	0.110622
653.398	0.0169353
655.121	-0.255293
656.846	0.453503
658.569	-0.499116
660.293	0.736374
662.015	0.556575
663.738	0.236868
665.46	-0.222947
667.183	0.183924
668.903	0.292795
670.626	0.859922
672.346	0.468415
674.067	0.811987
675.787	-0.0791874
677.508	0.153562
679.226	0.662595
680.947	0.780775
682.665	0.713126
684.385	0.389813
686.102	0.846967
687.821	0.104911
689.538	0.421076
691.254	0.390959
692.972	0.728713
694.688	0.420713
696.406	0.733481
698.121	0.354176
699.835	0.664117
701.552	0.0985384
703.266	0.543906
704.98	0.321854
706.695	0.351995
708.409	0.0376816
710.121	0.960774
711.836	0.531187
713.548	0.422251
715.26	0.221884
716.973	-0.206513
718.685	0.780285
720.396	0.352468
722.108	0.380989
723.818	1.52443
725.528	1.25634
727.238	1.23825
728.949	1.06084
730.658	0.633914
732.367	1.00009
734.075	0.912808
735.785	0.825744
737.493	1.3941
739.2	1.39819
740.907	1.38085
742.614	0.621569
744.322	1.21551
746.028	1.11288
747.734	1.84429
749.439	1.31736
751.144	1.06195
752.849	1.1454
754.555	0.825468
756.26	1.60976
757.963	1.42832
759.667	0.414776
761.37	1.65568
763.073	1.59042
764.775	1.27643
766.477	1.07376
768.179	1.7957
769.883	1.11377
771.584	1.40173
773.285	1.46198
774.986	1.74779
776.686	1.49154
778.386	0.965396
780.085	1.18711
781.785	1.1161
783.484	1.18106
785.182	1.29015
786.881	2.05322
788.579	2.08827
790.276	2.23255
791.974	1.62756
793.671	1.83463
795.367	1.63493
797.064	2.11273
798.76	1.55573
800.456	1.15907
802.151	1.41685
803.846	1.51779
805.541	1.12396
807.234	2.01039
808.928	1.7268
810.622	2.27255
812.315	2.054
814.008	2.17121
815.701	1.81782
817.394	1.7334
819.086	1.51512
820.778	2.14596
822.468	2.17381
824.159	1.82349
825.85	2.3443
827.541	2.28799
829.231	1.83411
830.921	2.43055
832.609	2.18406
834.298	1.20429
835.987	2.34352
837.676	1.63156
839.364	1.78839
841.051	2.27862
842.738	2.3654
844.426	1.73653
846.113	1.71165
847.798	1.82291
849.484	1.55674
851.171	1.98718
852.857	1.52414
854.54	1.66707
856.226	1.58556
857.911	2.24463
859.593	1.89032
861.278	1.10559
862.961	1.17424
864.645	1.48944
866.327	1.42057
868.01	1.3735
869.692	1.43867
871.373	1.70655
873.055	0.936492
874.735	1.13639
876.416	1.69744
878.097	1.33332
879.776	0.698132
881.457	1.39436
883.135	0.712782
884.815	1.33937
886.495	0.564929
888.172	0.939916
889.851	1.0648
891.528	1.00762
893.206	1.03913
894.882	0.754297
896.56	1.50287
898.237	1.39548
899.912	1.33213
901.589	0.685481
903.263	0.823016
904.94	1.02703
906.614	0.806714
908.289	1.25644
909.962	1.14942
911.635	0.331775
913.31	0.805543
914.982	1.38986
916.656	1.17456
918.328	1.33638
920.001	0.92234
921.672	1.28396
923.345	0.850485
925.015	0.971695
926.685	0.697401
928.357	1.286
930.026	0.772365
931.698	1.14225
933.366	0.894674
935.035	1.1547
936.705	0.510896
938.373	1.01495
940.041	0.74842
941.71	0.946444
943.377	0.240702
945.044	0.152499
946.712	0.283869
948.378	0.61202
950.044	1.35735
951.709	0.755095
953.376	0.79285
955.041	0.854338
956.706	0.896802
958.372	0.810541
960.036	0.992194
961.699	0.402783
963.362	0.740841
965.027	0.414032
966.69	0.946945
968.352	1.29994
970.014	1.05315
971.676	0.517889
973.339	1.31019
975	1.41846
976.661	1.13077
978.322	0.911083
979.982	0.946546
981.642	0.981634
983.303	1.38053
984.962	1.26808
986.621	1.50739
988.28	1.94356
989.938	1.11739
991.596	1.39635
993.254	0.725044
994.911	1.09213
996.57	0.995629
998.227	1.00949
999.884	0.736626
1001.54	1.63083
1003.2	1.51105
1004.85	1.36907
1006.51	0.941482
1008.16	1.59066
1009.82	0.637397
1011.47	1.15521
1013.12	1.19075
1014.78	1.38004
1016.43	1.48204
1018.08	1.12506
1019.74	1.22865
1021.39	1.33336
1023.04	0.7836
1024.69	1.30603
1026.34	1.41384
1028	0.975444
1029.65	1.32293
1031.3	0.860798
1032.95	1.9035
1034.6	1.35045
1036.25	1.05811
1037.9	1.33167
1039.54	1.53938
1041.19	0.877507
1042.84	1.30488
1044.49	0.538858
1046.14	0.687841
1047.78	1.44698
1049.43	1.23069
1051.08	1.49372
1052.72	0.736768
1054.37	0.501444
1056.02	1.48318
1057.66	0.551969
1059.31	1.01142
1060.95	1.01364
1062.6	1.03672
1064.24	1.27618
1065.88	1.29697
1067.53	0.490621
1069.17	1.33485
1070.81	1.52616
1072.45	0.827163
1074.1	0.411371
1075.74	1.58045
1077.38	1.03727
1079.02	0.929404
1080.66	0.128539
1082.3	0.108355
1083.94	0.846139
1085.58	1.17001
1087.22	0.342955
1088.86	1.05193
1090.5	0.546235
1092.14	0.385942
1093.78	0.182207
1095.42	1.35985
1097.05	1.4154
1098.69	0.675479
1100.33	1.31627
1101.96	0.904285
1103.6	1.01093
1105.24	1.24813
1106.87	1.05582
1108.51	0.497662
1110.14	0.583524
1111.78	0.689097
1113.41	0.449066
1115.05	0.594343
1116.68	0.760204
1118.31	0.883066
1119.95	0.792303
1121.58	0.574303
1123.21	0.764374
1124.85	0.613097
1126.48	-0.242933
1128.11	0.441965
1129.74	0.828072
1131.37	-0.303168
1133	1.00315
1134.63	0.641825
1136.26	0.450873
1137.89	-0.253949
1139.52	0.386063
1141.15	1.02444
1142.78	0.0825319
1144.41	0.037487
1146.04	0.483541
1147.66	-0.156553
1149.29	0.0568857
1150.92	0.696759
1152.55	-0.324656
1154.17	0.0804844
1155.8	-0.11095
1157.43	0.527355
1159.05	0.123456
1160.68	0.209765
1162.3	0.105894
1163.93	0.0456543
1165.55	-0.16285
1167.17	-0.0101547
1168.8	-0.028656
1170.42	0.652464
1172.05	-0.113698
1173.67	0.13819
1175.29	-0.120788
1176.91	0.531621
1178.54	0.611284
1180.16	-0.21858
1181.78	0.222838
1183.4	-0.0543528
1185.02	0.197077
1186.64	-0.46076
1188.26	-0.317521
1189.88	0.118521
1191.5	0.27788
1193.12	-0.195556
1194.74	0.192221
1196.36	0.18059
1197.97	0.442168
1199.59	0.516784
1201.21	0.552055
1202.83	0.318795
1204.44	0.506041
1206.06	1.23802
1207.68	0.886476
1209.29	0.159882
1210.91	0.120913
1212.52	0.62225
1214.14	0.141334
1215.75	0.949597
1217.37	0.818325
1218.98	0.249743
1220.59	0.533315
1222.21	1.02443
1223.82	0.873718
1225.43	1.09764
1227.05	1.52995
1228.66	1.40501
1230.27	1.52977
1231.88	0.911722
1233.49	1.59736
1235.1	1.51965
1236.72	1.89808
1238.33	2.0091
1239.94	1.542
1241.55	0.764645
1243.16	1.49681
1244.76	1.60761
1246.37	1.84141
1247.98	2.15678
1249.59	1.64356
1251.2	2.01963
1252.8	1.75463
1254.41	2.27648
1256.02	2.07568
1257.62	1.5867
1259.23	1.67828
1260.84	2.04006
1262.44	1.94711
1264.05	2.01984
1265.66	2.07143
1267.26	2.12217
1268.86	2.35839
1270.47	2.09578
1272.07	2.10141
1273.67	1.81555
1275.28	1.79806
1276.88	2.42185
1278.48	1.36635
1280.09	1.67755
1281.69	2.27787
1283.29	2.00889
1284.89	2.13367
1286.49	2.40414
1288.09	2.57238
1289.69	2.30773
1291.29	2.27106
1292.89	2.95746
1294.49	2.63051
1296.09	2.0956
1297.69	2.40554
1299.29	2.87817
1300.89	1.96699
1302.49	1.9003
1304.08	2.38825
1305.68	2.33983
1307.28	2.98914
1308.88	2.0365
1310.47	2.35648
1312.07	2.38962
1313.66	2.30088
1315.26	2.43825
1316.85	2.49489
1318.45	2.65415
1320.04	1.89564
1321.64	1.95208
1323.23	2.08804
1324.83	2.62816
1326.42	2.86074
1328.01	1.81475
1329.61	2.39189
1331.2	2.6257
1332.79	2.63949
1334.38	2.19163
1335.97	2.049
1337.56	2.71394
1339.16	1.86561
1340.75	3.01053
1342.34	2.21904
1343.93	1.82881
1345.52	1.96014
1347.11	1.46965
1348.7	1.98365
1350.29	1.41883
1351.87	1.45773
1353.46	1.91878
1355.05	1.64152
1356.64	2.14416
1358.22	1.68717
1359.81	1.58883
1361.4	0.950448
1362.98	1.16956
1364.57	0.829805
1366.16	1.22789
1367.74	1.58657
1369.33	1.03063
1370.91	1.49153
1372.5	1.85432
1374.08	1.06429
1375.67	1.17044
1377.25	1.57519
1378.83	1.22322
1380.41	0.870174
1382	1.31153
1383.58	1.57219
1385.16	0.797892
1386.74	1.61316
1388.33	1.13705
1389.91	1.15831
1391.49	0.783689
1393.07	0.648179
1394.65	1.30648
1396.23	1.13148
1397.81	1.27295
1399.39	0.977279
1400.97	1.31458
1402.55	1.19557
1404.13	0.997501
1405.7	1.65045
1407.28	1.19691
1408.86	0.981773
1410.44	1.93272
1412.01	1.85624
1413.59	0.969801
1415.17	1.03015
1416.74	0.852859
1418.32	0.714731
1419.89	1.69991
1421.47	1.36609
1423.04	0.975179
1424.62	1.21604
1426.19	0.985889
1427.77	1.46491
1429.34	1.29411
1430.91	2.008
1432.49	1.48064
1434.06	1.81802
1435.63	2.19399
1437.2	1.86215
1438.78	1.98339
1440.35	2.02713
1441.92	2.30779
1443.49	2.1962
1445.06	2.55677
1446.63	2.17066
1448.2	3.06239
1449.77	2.28357
1451.34	2.68482
1452.91	3.08686
1454.48	2.9584
1456.05	3.00692
1457.62	2.77917
1459.18	2.76631
1460.75	2.45617
1462.32	2.49803
1463.89	2.32156
1465.45	1.86878
1467.02	2.31964
1468.59	1.86728
1470.15	1.67148
1471.72	1.08473
1473.28	0.87211
1474.85	1.26829
1476.41	1.0962
1477.98	1.08111
1479.54	1.10514
1481.1	0.776244
1482.67	1.23121
1484.23	0.74539
1485.79	1.3368
1487.36	0.712828
1488.92	0.557728
1490.48	0.733479
1492.04	0.574304
1493.61	0.31545
1495.17	1.14781
1496.73	0.846813
1498.29	0.68252
1499.85	0.558058
1501.41	0.454407
1502.97	0.623715
1504.53	0.0379934
1506.09	0.557003
1507.65	0.397525
1509.2	0.565718
1510.76	0.327085
1512.32	0.319374
1513.88	-0.169903
1515.43	0.803083
1516.99	0.795145
1518.55	0.28947
1520.1	0.551755
1521.66	0.258784
1523.22	0.596861
1524.77	0.723339
1526.33	0.714939
1527.88	1.06735
1529.44	0.315303
1530.99	0.685595
1532.54	0.467573
1534.1	0.0995302
1535.65	0.281954
1537.21	0.257085
1538.76	0.799228
1540.31	0.850425
1541.86	0.694393
1543.42	1.02788
1544.97	0.740022
1546.52	0.621547
1548.07	0.709517
1549.62	1.09715
1551.17	0.34196
1552.72	0.729873
1554.27	1.28625
1555.82	0.872065
1557.37	1.09492
1558.92	0.946484
1560.47	0.259155
1562.02	0.935371
1563.56	1.10909
1565.11	1.43274
1566.66	1.32736
1568.21	1.81895
1569.75	1.93687
1571.3	2.01702
1572.85	1.64881
1574.39	1.57909
1575.94	1.4347
1577.49	1.90657
1579.03	1.81884
1580.57	2.42266
1582.12	1.83231
1583.66	2.19537
1585.21	1.96151
1586.75	1.61583
1588.3	2.01817
1589.84	2.06508
1591.38	1.45635
1592.92	1.91399
1594.47	2.14678
1596.01	2.06123
1597.55	2.1635
1599.09	1.47908
1600.63	2.25801
1602.17	2.19365
1603.71	2.01653
1605.25	2.04513
1606.79	2.09099
1608.33	2.3226
1609.87	2.53275
1611.41	2.72126
1612.95	1.79922
1614.49	1.40221
1616.03	2.35562
1617.57	2.10868
1619.1	1.43243
1620.64	1.69476
1622.18	1.97718
1623.72	2.07323
1625.25	1.8885
1626.79	1.44098
1628.32	2.3019
1629.86	2.2442
1631.39	2.3909
1632.93	2.14468
1634.46	2.19774
1636	2.47553
1637.53	2.0268
1639.07	2.3435
1640.6	2.43637
1642.13	2.54709
1643.67	2.22815
1645.2	2.83858
1646.73	3.07516
1648.26	2.80929
1649.8	2.95272
1651.33	3.43116
1652.86	3.5582
1654.39	3.5197
1655.92	2.75917
1657.45	2.64758
1658.98	3.59086
1660.51	3.60604
1662.04	3.41584
1663.57	3.0211
1665.1	3.34659
1666.63	3.08138
1668.16	3.53713
1669.68	3.07256
1671.21	2.97875
1672.74	2.16799
1674.27	2.11322
1675.79	2.51848
1677.32	2.6833
1678.85	2.22122
1680.37	2.40186
1681.9	1.97502
1683.42	1.71357
1684.95	1.39747
1686.47	2.2008
1688	1.95896
1689.52	2.08421
1691.05	1.42229
1692.57	1.31012
1694.09	1.21628
1695.62	1.06748
1697.14	1.4119
1698.66	0.988558
1700.18	1.33175
1701.71	0.88968
1703.23	0.830323
1704.75	0.734019
1706.27	0.582792
1707.79	0.55875
1709.31	1.17037
1710.83	0.819159
1712.35	0.795108
1713.87	1.0249
1715.39	0.331124
1716.91	0.7056
1718.43	0.338311
1719.95	0.116002
1721.47	0.561798
1722.99	0.196142
1724.5	0.102256
1726.02	0.315889
1727.54	0.620673
1729.06	0.0625143
1730.57	0.0826645
1732.09	0.422928
1733.61	0.390888
1735.12	0.472961
1736.64	0.0426903
1738.15	0.512868
1739.67	0.289517
1741.18	0.431068
1742.7	0.900445
1744.21	0.0769024
1745.72	0.17724
1747.24	0.850621
1748.75	-0.00056839
1750.26	0.435979
1751.77	0.161924
1753.29	-0.0153255
1754.8	-0.0930481
1756.31	0.306376
1757.82	0.624145
1759.33	-0.00279617
1760.84	0.328247
1762.36	0.305148
1763.87	0.586393
1765.38	0.449869
1766.89	0.377821
1768.4	0.16466
1769.91	0.152634
1771.41	0.233906
1772.92	0.0167627
1774.43	0.0851908
1775.94	0.322026
1777.45	0.0711164
1778.95	-0.114522
1780.46	0.219731
1781.97	0.216568
1783.48	0.178209
1784.98	-0.115496
1786.49	0.154178
1787.99	0.0826006
1789.5	-0.00613594
1791.01	0.247728
1792.51	0.222775
1794.01	0.487649
1795.52	-0.0221434
1797.02	0.0794487
1798.53	-0.113184
1800.03	-0.0988178
1801.53	0.00914478
1803.04	-0.290081
1804.54	-0.0661116
1806.04	-0.0558186
1807.54	0.0488491
1809.05	0.210618
1810.55	0.0906
1812.05	0.0267134
1813.55	-0.0789595
1815.05	-0.165255
1816.55	-0.143417
1818.05	-0.157024
1819.55	0.155215
1821.05	0.124912
1822.55	-0.12356
1824.05	0.124599
1825.55	0.17919
1827.05	0.237917
1828.55	0.228181
1830.04	0.317236
1831.54	-0.273711
1833.04	0.105185
1834.54	0.050806
1836.03	0.234414
1837.53	0.255132
1839.03	-0.0944929
1840.52	-0.252524
1842.02	-0.0893917
1843.51	0.256813
1845.01	0.235286
1846.5	0.243754
1848	0.141318
1849.49	0.0923729
1850.99	0.186364
1852.48	0.262817
1853.97	0.201118
1855.47	0.13679
1856.96	-0.0944061
1858.45	-0.249112
1859.94	-0.0583
1861.44	-0.0996351
1862.93	-0.137178
1864.42	0.275872
1865.91	0.31461
1867.4	-0.152759
1868.89	-0.108726
1870.38	0.215143
1871.87	0.204364
1873.36	0.171806
1874.85	0.025281
1876.34	-0.0039444
1877.83	-0.0380945
1879.32	0.00794888
1880.81	-0.160066
1882.3	-0.199691
1882.57	-0.199137
1884.07	0.461365
1885.56	0.44094
1887.06	0.367354
1888.55	0.32814
1890.04	0.184806
1891.54	-0.218208
1893.03	0.2326
1894.52	0.389627
1896.02	-0.0081234
1897.51	0.429621
1899	0.206371
1900.49	-0.122409
1901.98	0.208182
1903.47	0.293337
1904.96	0.0118771
1906.45	0.285862
1907.94	0.177525
1909.43	0.243508
1910.92	0.11956
1912.41	0.222117
1913.9	0.342552
1915.39	0.168233
1916.88	0.0456352
1918.37	0.338508
1919.85	0.388167
1921.34	0.558956
1922.83	0.24526
1924.32	-0.015419
1925.8	-0.309493
1927.29	0.488163
1928.78	0.0919342
1930.26	0.336261
1931.75	0.423892
1933.23	0.0424471
1934.72	-0.0636997
1936.2	-0.119554
1937.69	-0.0900822
1939.17	0.198073
1940.66	0.520707
1942.14	0.153595
1943.63	0.012188
1945.11	-0.042017
1946.59	-0.233732
1948.07	0.384379
1949.56	0.484446
1951.04	-0.174212
1952.52	-0.0243416
1954	0.107564
1955.48	-0.224723
1956.96	-0.178383
1958.45	0.417789
1959.93	0.276498
1961.41	0.427401
1962.89	0.201298
1964.37	0.197901
1965.85	-0.182766
1967.32	0.480268
1968.8	0.149777
1970.28	0.0925913
1971.76	0.308487
1973.24	0.0802574
1974.72	-0.113427
1976.19	0.37509
1977.67	-0.141775
1979.15	-0.0110636
1980.63	0.357574
1982.1	0.402571
1983.58	0.396219
1985.05	0.406483
1986.53	0.331671
1988	0.460325
1989.48	0.0133829
1990.95	-0.0091629
1992.43	0.121511
1993.9	0.185472
1995.38	0.131942
1996.85	-0.00557137
1998.32	-0.379485
1999.8	-0.348413
2001.27	0.00265121
2002.74	0.403477
2004.22	0.298041
2005.69	-0.143908
2007.16	0.257442
2008.63	-0.0981998
2010.1	0.287953
2011.57	0.691369
2013.04	0.152184
2014.51	0.0838938
2015.98	0.25036
2017.45	0.0794086
2018.92	0.092659
2020.39	-0.0626822
2021.86	0.269004
2023.33	0.332165
2024.8	0.480013
2026.27	0.109071
2027.74	-0.025425
2029.2	0.445444
2030.67	0.0790462
2032.14	-0.236202
2033.61	0.372131
2035.07	0.0236273
2036.54	0.212063
2038.01	0.181604
2039.47	0.11711
2040.94	0.153411
2042.4	0.0892496
2043.87	-0.0582581
2045.33	0.0138044
2046.8	0.137221
2048.26	0.328458
2049.72	0.53638
2051.19	0.355583
2052.65	0.291068
2054.12	0.325814
2055.58	0.42617
2057.04	0.457604
2058.5	0.066925
2059.97	0.249102
2061.43	0.397911
2062.89	0.126687
2064.35	0.210056
2065.81	0.563714
2067.27	0.548027
2068.73	0.650786
2070.19	0.383577
2071.65	0.655096
2073.11	0.185675
2074.57	0.389447
2076.03	0.390818
2077.49	0.694929
2078.95	0.35869
2080.41	0.712382
2081.87	0.324601
2083.32	0.761046
2084.78	0.304604
2086.24	0.352341
2087.7	0.399391
2089.15	0.529991
2090.61	0.962592
2092.07	0.57205
2093.52	1.05434
2094.98	1.16687
2096.43	0.926747
2097.89	1.15514
2099.34	0.52901
2100.8	1.35835
2102.25	1.30109
2103.71	0.91092
2105.16	1.09009
2106.61	1.13719
2108.07	1.55236
2109.52	0.700421
2110.97	1.23191
2112.43	1.31162
2113.88	1.55581
2115.33	1.18217
2116.78	1.53964
2118.23	0.96675
2119.68	1.27594
2121.13	1.33813
2122.59	1.55173
2124.04	1.5016
2125.49	1.91648
2126.94	1.86671
2128.39	1.79918
2129.83	1.73005
2131.28	2.18944
2132.73	1.77013
2134.18	2.26113
2135.63	2.22351
2137.08	2.00593
2138.53	2.0551
2139.97	2.78414
2141.42	2.78812
2142.87	2.36364
2144.31	2.91569
2145.76	2.40913
2147.21	3.25946
2148.65	3.23175
2150.1	3.13661
2151.54	2.87445
2152.99	3.4229
2154.43	3.05899
2155.88	3.19156
2157.32	3.22485
2158.77	3.14314
2160.21	3.59328
2161.65	3.59854
2163.1	3.55653
2164.54	3.45013
2165.98	3.61031
2167.43	3.35519
2168.87	3.04845
2170.31	3.18818
2171.75	3.29202
2173.19	3.17709
2174.64	3.32656
2176.07	3.12604
2177.52	3.69072
2178.96	3.34189
2180.4	3.89216
2181.84	3.39616
2183.28	3.5161
2184.72	2.67173
2186.15	3.7902
2187.59	3.46151
2189.03	3.04955
2190.47	2.58745
2191.91	2.67426
2193.35	3.29296
2194.78	2.81108
2196.22	2.8597
2197.66	2.62294
2199.09	2.61709
2200.53	2.54354
2201.97	2.46993
2203.4	2.8784
2204.84	2.25975
2206.27	2.43849
2207.71	2.28639
2209.14	2.21696
2210.58	2.5273
2212.01	2.62102
2213.45	2.59799
2214.88	2.04632
2216.31	2.25543
2217.75	1.72332
2219.18	2.06715
2220.61	2.01611
2222.05	1.78394
2223.48	1.51812
2224.91	1.20154
2226.34	1.40997
2227.78	1.81346
2229.21	1.6563
2230.64	1.48217
2232.07	1.3246
2233.5	1.60965
2234.93	1.27364
2236.36	1.23368
2237.79	1.2119
2239.22	1.04545
2240.65	1.10971
2242.08	1.06179
2243.5	1.19464
2244.93	0.822239
2246.36	1.06889
2247.79	0.612475
2249.22	0.838688
2250.64	0.638696
2252.07	0.827781
2253.5	0.820519
2254.92	0.748653
2256.35	0.662263
2257.78	0.838154
2259.2	0.36812
2260.63	0.517717
2262.05	0.751114
2263.48	0.482946
2264.9	0.881051
2266.33	0.775138
2267.75	0.782118
2269.18	0.560257
2270.6	1.11882
2272.02	0.765272
2273.45	0.541683
2274.87	0.269225
2276.29	0.550858
2277.71	0.669838
2279.14	0.707438
2280.56	0.940678
2281.98	0.684572
2283.4	0.526146
2284.82	0.286101
2286.24	0.486893
2287.66	0.410616
2289.08	0.26942
2290.5	0.439005
2291.92	0.625373
2293.34	0.28869
2294.76	0.867946
2296.18	0.416377
2297.6	0.341011
2299.02	0.183727
2300.44	0.157627
2301.86	0.361371
2303.27	0.385145
2304.69	0.244961
2306.11	0.0716991
2307.53	-0.43072
2308.94	0.0521927
2310.36	0.222443
2311.78	-0.0517254
2313.19	0.216908
2314.61	0.239251
2316.02	0.295312
2317.44	0.0886288
2318.85	0.442655
2320.27	0.170035
2321.68	0.374525
2323.1	0.263571
2324.51	0.117185
2325.92	0.661475
2327.34	0.230653
2328.75	0.854268
2330.16	0.307983
2331.58	0.47112
2332.99	0.240326
2334.4	-0.00591278
2335.81	-0.235356
2337.23	0.390042
2338.64	0.0276146
2340.05	0.0915642
2341.46	0.0888023
2342.87	0.0527191
2344.28	-0.294916
2345.69	-0.0518227
2347.1	-0.0216646
2348.51	0.0412169
2349.92	0.201769
2351.33	0.0670595
2352.74	-0.199098
2354.15	0.301159
2355.55	0.392225
2356.96	0.0594435
2358.37	-0.0124264
2359.78	0.0134659
2361.19	-0.268953
2362.59	-0.145478
2364	0.0585928
2365.41	-0.206974
2366.81	0.0130405
2368.22	0.120221
2369.62	-0.255649
2371.03	0.0796261
2372.44	0.141965
2373.84	0.0603399
2375.24	0.124024
2376.65	0.0907145
2378.05	0.0241652
2379.46	-0.0438776
2380.86	-0.0974264
2382.26	-0.0720978
2383.67	-0.0156908
2385.07	0.184322
2386.47	0.0407963
2387.88	-0.101474
2389.28	0.25997
2390.68	0.0167246
2392.08	0.316313
2393.48	-0.0676041
2394.89	-0.338966
2396.29	-0.164279
2397.69	0.201631
2399.09	0.250154
2400.49	-0.145635
2401.89	-0.143894
2403.29	0.0325747
2404.69	-0.331255
2406.09	0.177269
2407.48	-0.362733
2408.88	-0.30036
2410.28	0.300567
2411.68	0.15651
2413.08	-0.0340691
2414.48	0.283402
2415.87	0.190695
2417.27	-0.106457
2418.67	0.404764
2420.06	0.346389
2421.46	0.63635
2422.86	0.197247
2424.25	0.280623
2425.65	0.110549
2427.04	-0.043189
2428.44	0.644133
2429.83	0.000696182
2431.23	0.0714283
2432.62	0.412251
2434.02	-0.0730591
2435.41	0.282137
2436.81	0.334059
2438.2	0.0348549
2439.59	0.163311
2440.99	0.386056
2442.38	-0.106237
2443.77	-0.185874
2445.16	0.146764
2446.56	0.241147
2447.95	0.160989
2449.34	-0.188386
2450.73	-0.204734
2452.12	0.17515
2453.51	0.0492573
2454.9	0.462175
2456.29	-0.0892296
2457.68	0.00828171
2459.07	0.200505
2460.46	0.249753
2461.85	0.0135517
2463.24	0.140206
2464.63	0.060791
2466.02	0.0443087
2467.4	-0.193242
2468.79	-0.193967
2470.18	0.199366
2471.57	-0.10171
2472.95	0.33724
2474.34	-0.0122719
2475.73	0.282992
2477.12	0.200206
2478.5	-0.0395327
2479.89	0.0821867
2481.27	-0.125381
2482.66	0.0903063
2484.04	-0.0548868
2485.43	0.237179
2486.81	-0.097414
2488.2	-0.135873
2489.58	0.105537
2490.97	-0.291901
2492.35	0.0116653
2493.73	0.0516529
2495.12	-0.372439
2496.5	-0.205607
2497.88	0.256077
2499.27	0.253038
2500.65	-0.229836
2502.03	0.121781
2503.41	0.363706
2504.79	-0.105296
2506.17	0.0423765
2507.56	-0.302998
2508.94	0.198038
2510.32	0.0688066
2511.7	-0.0288191
2513.08	0.34968
2514.46	-0.267097
2515.84	-0.0862331
2517.22	-0.241363
2518.59	0.0628557
2519.97	-0.0762215
2521.35	0.105288
2522.73	0.179064
2524.11	0.0230904
2525.49	0.0190325
2526.86	0.395401
2528.24	-0.0500164
2529.62	0.0841103
2530.99	0.128505
2532.37	0.0530243
2533.75	0.328367
2535.12	0.376505
2536.5	-0.350232
2537.88	0.183286
2539.25	0.457455
2540.63	-0.210711
2542	0.0925589
2543.38	0.274547
2544.75	0.199446
2546.12	-0.13222
2547.5	0.295756
2548.87	0.178516
2550.24	-0.0297737
2551.62	0.125603
2552.99	-0.0993471
2554.36	0.16029
2555.74	0.0699892
2557.11	0.130852
2558.48	0.0399237
2559.85	0.0705862
2561.22	0.329118
2562.59	0.224515
2563.96	-0.0764847
2565.34	0.36549
2566.71	0.00453568
2568.08	-0.0684137
2569.45	0.298152
2570.82	0.39193
2572.18	0.106809
2573.55	0.291653
2574.92	0.27953
2576.29	0.221951
2577.66	0.149106
2579.03	-0.196918
2580.4	0.290656
2581.77	0.383562
2583.13	0.324448
2584.5	-0.0380955
2585.87	-0.203562
2587.23	0.146444
2588.6	-0.215737
2589.97	0.149647
2591.33	0.075386
2592.7	0.0309544
2594.06	0.000865936
2595.43	0.272622
2596.79	-0.153158
2598.16	0.146836
2599.52	0.0983868
2600.89	0.246529
2602.25	0.0174751
2603.62	0.0912075
2604.98	0.346501
2606.34	0.390611
2607.71	0.132757
2609.07	-0.216176
2610.43	0.187166
2611.79	-0.224097
2613.16	-0.214787
2614.52	-0.0860863
2615.88	0.147136
2617.24	0.110307
2618.6	0.298795
2619.96	-0.0659037
2621.32	0.168778
2622.68	-0.0744953
2624.04	0.25018
2625.4	0.00731945
2626.76	-0.0118093
2628.12	0.0432558
2629.48	-0.199862
2630.84	0.449839
2632.2	-0.194922
2633.56	0.349576
2634.92	0.462754
2636.28	0.338434
2637.63	0.214291
2638.99	0.223644
2640.35	0.0999889
2641.71	-0.0232258
2643.06	-0.0278158
2644.42	0.115378
2645.77	0.0959997
2647.13	-0.0269699
2648.49	0.01157
2649.84	0.019784
2651.2	0.3213
2652.55	-0.112377
2653.91	0.320609
2655.26	0.181919
2656.62	0.586463
2657.97	0.391566
2659.33	0.124668
2660.68	0.238582
2662.03	0.0160856
2663.39	0.129141
2664.74	0.0660696
2666.09	0.0752459
2667.44	0.389955
2668.8	0.427403
2670.15	0.130429
2671.5	-0.151032
2672.85	-0.126377
2674.2	0.319977
2675.55	0.229408
2676.91	0.415154
2678.26	-0.138227
2679.61	-0.0379801
2680.96	0.106755
2682.31	0.209183
2683.66	-0.0931988
2685	0.475516
2686.35	0.232479
2687.7	0.235813
2689.05	0.237923
2690.4	0.281847
2691.75	0.280338
2693.1	0.045146
2694.44	0.0122147
2695.79	0.312473
2697.14	0.120561
2698.49	0.132835
2699.83	-0.0704002
2701.18	-0.0547209
2702.52	0.527344
2703.87	0.168973
2705.22	0.260221
2706.56	0.6707
2707.91	0.312164
2709.25	0.54809
2710.6	0.333602
2711.94	0.234899
2713.29	0.0197229
2714.63	0.29856
2715.97	-0.0622826
2717.32	0.580065
2718.66	0.000444412
2720.01	0.220481
2721.35	0.00352478
2722.69	0.178999
2724.03	0.208452
2725.38	0.586786
2726.72	0.178726
2728.06	0.134226
2729.4	0.205899
2730.74	0.495656
2732.08	0.683456
2733.42	-0.0597
2734.76	0.390188
2736.1	0.360233
2737.44	0.330404
2738.78	0.21328
2740.12	-0.0495214
2741.46	0.210688
2742.8	0.600965
2744.14	0.0166044
2745.48	0.274588
2746.82	0.0962782
2748.16	0.411438
2749.49	0.276587
2750.83	-0.00298214
2752.17	0.573257
2753.51	0.134842
2754.84	0.0735655
2756.18	0.200734
2757.52	-0.236711
2758.85	0.252775
2760.19	0.2214
2761.53	0.103702
2762.86	-0.0135031
2764.2	-0.405312
2765.53	0.591844
2766.87	0.112715
2768.2	0.167937
2769.54	0.20734
2770.87	0.0139923
2772.2	0.0361185
2773.54	-0.0294142
2774.87	-0.0377111
2776.2	-0.276484
2777.54	-0.313027
2778.87	0.1543
2780.2	0.319692
2781.53	0.0400066
2782.87	0.205636
2784.2	-0.0162363
2785.53	0.163435
2786.86	-0.086606
2788.19	-0.106818
2789.52	0.0025301
2790.85	0.184186
2792.18	-0.0338373
2793.51	0.163236
2794.84	-0.139967
2796.17	-0.0433073
2797.5	-0.132951
2798.83	0.162408
2800.16	0.200188
2801.49	-0.0191202
2802.82	-0.0958481
2804.15	-0.244026
2805.47	-0.378249
2806.8	-0.128621
2808.13	0.475587
2809.46	0.0410061
2810.78	0.104147
2812.11	-0.257902
2813.44	0.175854
2814.76	-0.0272942
2816.09	0.479845
2817.42	0.0525608
2818.74	0.292035
2820.07	0.27637
2821.39	0.118501
2822.72	0.059165
2824.04	0.112557
2825.37	0.236399
2826.69	0.0203629
2828.02	0.0173111
2829.34	0.142235
2830.66	0.1402
2831.99	0.421477
2833.31	0.178929
2834.63	0.48807
2835.96	0.909833
2837.28	0.566815
2838.6	0.591273
2839.92	1.15289
2841.24	1.31847
2842.57	0.890759
2843.89	1.39667
2845.21	1.76196
2846.53	1.91593
2847.85	2.04206
2849.17	2.40848
2850.49	2.54841
2851.81	2.44748
2853.13	2.50142
2854.45	2.72446
2855.77	2.66465
2857.09	2.56247
2858.41	2.57337
2859.72	2.76782
2861.04	2.62313
2862.36	2.81693
2863.68	3.19369
2865	3.69693
2866.31	3.14193
2867.63	3.74393
2868.95	4.27571
2870.26	4.21571
2871.58	4.69154
2872.9	4.92728
2874.21	5.03512
2875.53	5.04293
2876.84	4.73957
2878.16	4.92798
2879.47	5.20023
2880.79	4.86821
2882.1	4.56566
2883.42	4.74216
2884.73	4.87764
2886.05	5.14012
2887.36	4.92539
2888.67	5.29949
2889.99	4.6484
2891.3	5.0904
2892.61	5.18089
2893.92	5.27109
2895.24	5.47373
2896.55	5.53729
2897.86	5.40627
2899.17	5.27662
2900.48	5.77751
2901.79	5.97117
2903.11	6.03918
2904.42	6.38711
2905.73	6.21788
2907.04	6.23123
2908.35	7.22487
2909.66	6.93274
2910.97	7.01909
2912.27	7.3154
2913.58	7.69479
2914.89	7.94628
2916.2	8.13937
2917.51	7.84037
2918.82	8.40764
2920.13	8.66665
2921.43	9.01038
2922.74	9.32777
2924.05	9.08799
2925.35	9.17134
2926.66	9.8287
2927.97	9.60544
2929.27	10.2064
2930.58	9.50646
2931.89	9.98013
2933.19	10.5093
2934.5	9.76641
2935.8	10.3096
2937.11	9.80488
2938.41	9.30049
2939.72	9.91441
2941.02	9.45312
2942.32	9.57998
2943.63	9.05172
2944.93	9.40596
2946.24	8.46146
2947.54	8.60838
2948.84	8.26516
2950.14	7.73809
2951.45	7.53044
2952.75	7.65629
2954.05	7.27622
2955.35	6.93781
2956.65	6.83864
2957.95	6.32228
2959.26	6.6213
2960.56	6.68603
2961.86	6.64138
2963.16	5.76987
2964.46	5.92124
2965.76	6.04292
2967.06	5.75506
2968.36	5.81679
2969.66	5.77917
2970.96	5.08035
2972.25	5.26791
2973.55	4.92124
2974.85	4.57436
2976.15	4.84604
2977.45	4.28545
2978.74	4.18744
2980.04	4.18592
2981.34	4.02805
2982.64	3.75716
2983.93	3.40259
2985.23	3.31662
2986.52	3.31679
2987.82	3.19222
2989.12	3.04072
2990.41	2.91761
2991.71	2.47067
2993	2.41609
2994.3	1.95265
2995.59	2.24671
2996.89	2.11856
2998.18	2.04645
2999.48	1.55392
3000.77	1.83356
3002.06	1.59508
3003.36	1.31519
3004.65	1.5539
3005.94	1.23204
3007.23	1.10574
3008.53	0.964681
3009.82	0.627116
3011.11	0.945937
3012.4	1.22197
3013.69	0.325826
3014.99	0.407285
3016.28	0.907299
3017.57	0.613978
3018.86	0.335485
3020.15	0.585858
3021.44	0.488033
3022.73	0.222816
3024.02	0.331708
3025.31	0.370348
3026.6	0.325639
3027.89	0.253907
3029.18	0.0176172
3030.46	0.156287
3031.75	0.213513
3033.04	0.175184
3034.33	0.35805
3035.62	0.636793
3036.9	0.00394535
3038.19	0.320712
3039.48	0.442291
3040.76	0.287104
3042.05	0.405912
3043.34	0.113257
3044.62	0.68466
3045.91	0.463595
3047.19	0.614212
3048.48	0.344019
3049.77	0.622302
3051.05	0.233568
3052.34	0.500795
3053.62	0.167695
3054.9	0.557072
3056.19	0.276955
3057.47	0.554863
3058.76	0.245878
3060.04	1.1216
3061.32	0.581608
3062.61	0.464935
3063.89	0.649042
3065.17	0.372603
3066.45	0.559969
3067.74	0.598927
3069.02	0.515988
3070.3	0.106385
3071.58	0.239939
3072.86	0.1547
3074.14	0.272196
3075.42	0.347949
3076.7	-0.051908
3077.99	0.322819
3079.26	0.522068
3080.54	0.207438
3081.82	-0.173236
3083.1	0.0307374
3084.38	0.154138
3085.66	0.291293
3086.94	0.10235
3088.22	0.116323
3089.5	0.197531
3090.78	-0.318715
3092.05	-0.346399
3093.33	0.304358
3094.61	0.0331211
3095.89	0.00641346
3097.16	0.14257
3098.44	0.11607
3099.72	0.374084
3100.99	-0.234972
3102.27	0.226315
3103.54	-0.00271559
3104.82	0.0532441
3106.1	0.0694509
3107.37	-0.197484
3108.65	-0.179081
3109.92	0.111218
3111.2	-0.0440593
3112.47	0.0994024
3113.74	0.0131655
3115.02	-0.0323873
3116.29	0.0437078
3117.56	-0.179309
3118.84	0.234172
3120.11	0.253301
3121.38	0.393606
3122.66	0.560404
3123.93	0.469646
3125.2	0.325129
3126.47	0.668556
3127.74	0.308939
3129.01	0.464145
3130.29	0.295281
3131.56	0.451155
3132.83	0.350178
3134.1	0.316538
3135.37	0.485054
3136.64	0.760853
3137.91	0.159601
3139.18	0.23254
3140.45	0.507263
3141.72	0.405217
3142.99	0.841213
3144.26	0.283738
3145.52	0.707181
3146.79	0.688473
3148.06	0.509908
3149.33	0.800921
