200.43	0.478237
202.244	0.491454
204.059	0.505898
205.873	1.10508
207.688	0.0996351
209.501	0.0181437
211.314	0.4945
213.127	0.143956
214.941	0.738967
216.753	0.581294
218.564	0.448229
220.375	0.340227
222.186	0.112371
223.999	0.248355
225.809	0.118999
227.618	0.134871
229.428	0.27123
231.236	0.0209017
233.045	0.446079
234.855	-0.0449991
236.663	0.47789
238.471	0.134892
240.278	-0.13344
242.085	0.275349
243.891	-0.134399
245.698	-0.134178
247.503	0.154514
249.309	-0.114343
251.116	-0.192701
252.921	0.0403547
254.725	0.054594
256.529	0.40602
258.333	0.251837
260.136	0.219798
261.939	-0.557177
263.742	0.450093
265.544	0.326209
267.346	0.443688
269.148	0.344059
270.949	0.0508451
272.75	-0.0505123
274.55	0.763108
276.351	0.225153
278.15	0.0955095
279.95	0.0364809
281.749	0.216433
283.548	0.129921
285.346	-0.173922
287.144	-0.0457916
288.942	-0.157663
290.739	0.138599
292.536	0.33983
294.333	-0.103581
296.129	0.100396
297.925	-0.0532608
299.721	0.390998
301.514	-0.216064
303.309	-0.130978
305.104	0.382558
306.898	0.322304
308.692	0.118904
310.486	0.106846
312.279	0.119715
314.072	-0.508832
315.862	0.793068
317.654	0.286983
319.446	0.187097
321.238	0.0167332
323.029	0.0615587
324.819	0.226177
326.608	0.343361
328.398	-0.327896
330.188	0.123071
331.977	0.310404
333.766	0.376738
335.553	0.800107
337.341	-0.166487
339.129	0.324691
340.917	-0.357655
342.704	0.178955
344.489	-0.192916
346.275	0.176391
348.062	-0.050849
349.845	0.223812
351.631	-0.289208
353.416	0.00885868
355.201	0.0911598
356.984	0.410666
358.768	0.490349
360.552	0.16403
362.333	0.218079
364.116	-0.0139523
365.899	0.181403
367.68	0.13836
369.462	0.284333
371.243	-0.0681829
373.023	-0.420542
374.804	-0.0870771
376.585	0.363709
378.363	0.554602
380.143	-0.361235
381.923	-0.19169
383.7	-0.256511
385.479	0.267572
387.256	-0.0301781
389.034	0.19009
390.812	0.0118752
392.588	-0.142088
394.365	0.150714
396.14	-0.0258446
397.916	-0.202311
399.691	0.0907936
401.467	0.33658
403.24	0.534817
405.015	0.145219
406.788	0.412538
408.563	0.139234
410.335	0.382133
412.109	0.155603
413.88	0.656921
415.654	-0.0847578
417.424	0.300555
419.197	0.38145
420.967	-0.100701
422.739	-0.11371
424.508	0.0370054
426.279	0.280849
428.048	-0.15686
429.819	0.0857878
431.587	0.164047
433.356	0.85278
435.124	0.485679
436.891	0.259376
438.66	0.572262
440.426	-0.148696
442.194	0.137642
443.96	-0.117389
445.725	0.422763
447.492	0.25877
449.257	0.0478573
451.021	0.958829
452.787	0.257826
454.551	0.0480022
456.314	-0.138199
458.079	-0.114643
459.842	0.0252628
461.604	-0.253052
463.368	0.283717
465.13	0.287756
466.891	0.642882
468.654	-0.0220423
470.415	0.895486
472.175	-0.27961
473.935	0.336072
475.696	0.0656872
477.456	0.398913
479.215	0.194715
480.973	0.455471
482.733	0.180609
484.491	0.605479
486.249	0.00717163
488.006	0.692198
489.765	0.773524
491.522	0.855944
493.278	0.798951
495.034	0.297701
496.789	0.731762
498.544	0.463449
500.301	-0.0402679
502.056	0.651558
503.81	0.38064
505.564	0.296337
507.317	0.0696144
509.071	0.382411
510.825	0.670426
512.578	0.462893
514.33	0.748114
516.082	0.537953
517.833	0.538448
519.585	0.185402
521.335	0.513381
523.086	0.206511
524.836	0.463071
526.586	0.179766
528.335	0.412593
530.085	0.270121
531.835	0.31481
533.584	0.499177
535.332	0.167657
537.08	0.58327
538.827	0.553244
540.574	0.52219
542.321	0.583632
544.068	0.411914
545.814	1.17001
547.56	0.696398
549.305	0.386377
551.05	0.00777721
552.795	0.162167
554.54	0.131527
556.282	0.655167
558.025	-0.182467
559.769	0.272078
561.512	0.496102
563.255	-0.15379
564.997	0.186131
566.739	0.480199
568.481	-0.0977821
570.223	0.312444
571.964	0.402387
573.705	-0.309122
575.443	0.150807
577.183	-0.328489
578.923	0.478509
580.663	0.138553
582.402	0.0281382
584.141	-0.266764
585.879	-0.240784
587.615	0.681314
589.353	0.26823
591.09	-0.39885
592.828	-0.215123
594.564	0.198512
596.299	0.0139742
598.035	0.588619
599.771	0.564757
601.506	0.2181
603.242	0.00844479
604.974	0.165501
606.709	0.114464
608.443	-0.166885
610.177	0.0339079
611.908	0.0513487
613.642	0.917744
615.374	0.22556
617.105	0.817043
618.837	0.033514
620.569	0.279825
622.3	0.410383
624.03	0.379967
625.761	0.440917
627.491	0.434201
629.219	0.45203
630.949	0.289374
632.677	0.42517
634.406	0.767367
636.135	0.493073
637.861	0.399848
639.59	0.190175
641.318	0.411467
643.043	0.220066
644.77	0.483226
646.495	0.336679
648.222	-0.01264
649.948	0.277243
651.672	0.433977
653.398	0.503263
655.121	0.143383
656.846	0.103626
658.569	0.178578
660.293	0.45871
662.015	0.50962
663.738	0.0786695
665.46	0.285342
667.183	0.993555
668.903	0.763576
670.626	0.717084
672.346	0.23746
674.067	0.858623
675.787	0.611704
677.508	0.571951
679.226	0.807861
680.947	0.859451
682.665	0.610407
684.385	0.520266
686.102	0.773669
687.821	0.380859
689.538	0.839248
691.254	0.790234
692.972	0.602428
694.688	0.851589
696.406	0.777378
698.121	0.12662
699.835	0.326666
701.552	1.28443
703.266	0.907121
704.98	1.0579
706.695	1.18499
708.409	0.898722
710.121	1.11663
711.836	0.669903
713.548	0.635387
715.26	1.69766
716.973	0.908554
718.685	0.577176
720.396	1.1126
722.108	1.14623
723.818	1.49839
725.528	1.44063
727.238	0.92843
728.949	1.12021
730.658	0.540413
732.367	0.912625
734.075	1.14814
735.785	1.47361
737.493	1.61812
739.2	1.46972
740.907	1.09704
742.614	1.04137
744.322	1.34717
746.028	1.45145
747.734	1.69192
749.439	1.86606
751.144	0.984301
752.849	1.25083
754.555	1.27118
756.26	1.24788
757.963	1.33854
759.667	1.29543
761.37	2.17767
763.073	1.95616
764.775	1.48569
766.477	1.44283
768.179	1.75995
769.883	2.48225
771.584	2.72787
773.285	2.47453
774.986	2.28854
776.686	1.74132
778.386	1.91882
780.085	2.07519
781.785	1.78026
783.484	1.96055
785.182	2.09463
786.881	1.90961
788.579	2.15166
790.276	2.2094
791.974	2.44522
793.671	2.04674
795.367	1.82918
797.064	2.01852
798.76	1.98387
800.456	1.88345
802.151	1.80697
803.846	1.68622
805.541	2.44215
807.234	1.87094
808.928	1.79326
810.622	2.23071
812.315	1.92663
814.008	2.27223
815.701	1.7663
817.394	1.57432
819.086	1.80734
820.778	2.04011
822.468	2.09436
824.159	1.74792
825.85	2.13855
827.541	2.10759
829.231	1.54475
830.921	1.63058
832.609	1.80814
834.298	1.67575
835.987	1.76721
837.676	2.12643
839.364	1.41316
841.051	2.01575
842.738	2.0812
844.426	2.12383
846.113	2.01062
847.798	2.32382
849.484	1.31964
851.171	1.57019
852.857	1.75572
854.54	1.98739
856.226	1.94988
857.911	2.00119
859.593	1.84849
861.278	1.69386
862.961	1.94303
864.645	1.44747
866.327	1.58193
868.01	1.78351
869.692	1.39834
871.373	1.32853
873.055	1.25851
874.735	1.30121
876.416	1.54703
878.097	1.34152
879.776	0.977849
881.457	1.06528
883.135	0.881186
884.815	1.32822
886.495	0.983948
888.172	1.47327
889.851	1.14888
891.528	1.13905
893.206	1.03793
894.882	1.02594
896.56	1.3502
898.237	1.26867
899.912	1.52295
901.589	1.19333
903.263	1.11016
904.94	1.7198
906.614	0.877282
908.289	1.84316
909.962	0.892489
911.635	1.10145
913.31	0.888329
914.982	1.45308
916.656	0.952012
918.328	0.895084
920.001	1.30331
921.672	1.33522
923.345	1.10283
925.015	0.739692
926.685	0.643497
928.357	0.791613
930.026	0.940737
931.698	1.02422
933.366	0.799093
935.035	0.838865
936.705	1.12159
938.373	0.456711
940.041	1.1603
941.71	1.00481
943.377	1.15884
945.044	1.13626
946.712	1.06853
948.378	1.57306
950.044	0.950161
951.709	1.05452
953.376	1.11471
955.041	0.691127
956.706	0.777154
958.372	0.932219
960.036	0.162878
961.699	0.674961
963.362	0.944571
965.027	1.14671
966.69	1.059
968.352	0.725334
970.014	0.987154
971.676	0.982645
973.339	0.823708
975	1.3516
976.661	0.819621
978.322	0.421525
979.982	0.621265
981.642	0.820807
983.303	0.77574
984.962	0.883924
986.621	1.01236
988.28	1.1612
989.938	1.10973
991.596	1.0577
993.254	0.387115
994.911	1.06392
996.57	0.769333
998.227	0.739657
999.884	1.32682
1001.54	0.94393
1003.2	1.08932
1004.85	1.01429
1006.51	1.15899
1008.16	0.842451
1009.82	0.768027
1011.47	1.04497
1013.12	0.861728
1014.78	0.2629
1016.43	0.343725
1018.08	0.687469
1019.74	0.791017
1021.39	1.24523
1023.04	0.694739
1024.69	1.15064
1026.34	0.732894
1028	0.752263
1029.65	0.312318
1031.3	0.483057
1032.95	0.499484
1034.6	0.579912
1036.25	0.5282
1037.9	0.867959
1039.54	0.619364
1041.19	0.610983
1042.84	0.908074
1044.49	1.09778
1046.14	0.35517
1047.78	0.461495
1049.43	0.569246
1051.08	0.98222
1052.72	0.722618
1054.37	0.658819
1056.02	1.05143
1057.66	-0.0125675
1059.31	0.575086
1060.95	1.37976
1062.6	0.596425
1064.24	0.855989
1065.88	0.853674
1067.53	0.893836
1069.17	1.17206
1070.81	0.320192
1072.45	0.358922
1074.1	0.0508566
1075.74	0.980255
1077.38	-0.0630884
1079.02	-0.281076
1080.66	0.282233
1082.3	0.628697
1083.94	0.107084
1085.58	0.473046
1087.22	-0.203033
1088.86	0.549047
1090.5	0.757588
1092.14	0.74852
1093.78	0.242303
1095.42	1.05328
1097.05	0.591708
1098.69	0.692132
1100.33	0.384972
1101.96	0.316499
1103.6	0.120543
1105.24	-0.310806
1106.87	0.140244
1108.51	0.160866
1110.14	0.309577
1111.78	0.306401
1113.41	0.344793
1115.05	0.124429
1116.68	0.161273
1118.31	0.305331
1119.95	0.40694
1121.58	0.1667
1123.21	0.612508
1124.85	0.0104866
1126.48	0.243768
1128.11	0.434839
1129.74	0.498189
1131.37	-0.335881
1133	0.34825
1134.63	-0.207616
1136.26	0.539863
1137.89	0.00409317
1139.52	-0.382837
1141.15	0.233165
1142.78	-0.0481081
1144.41	0.0762386
1146.04	0.435552
1147.66	-0.291429
1149.29	0.0906343
1150.92	-0.293871
1152.55	-0.0180292
1154.17	0.193523
1155.8	-0.14874
1157.43	-0.490892
1159.05	0.294735
1160.68	0.485281
1162.3	0.464134
1163.93	0.103708
1165.55	-0.213736
1167.17	0.191528
1168.8	0.51081
1170.42	-0.106691
1172.05	-0.300482
1173.67	0.0140324
1175.29	0.199762
1176.91	0.0243664
1178.54	0.421322
1180.16	-0.0918875
1181.78	0.454038
1183.4	-0.289731
1185.02	0.00274849
1186.64	0.294103
1188.26	0.246043
1189.88	0.343904
1191.5	-0.170658
1193.12	0.345019
1194.74	0.165695
1196.36	0.238485
1197.97	0.395624
1199.59	0.0937977
1201.21	-0.100914
1202.83	-0.209557
1204.44	-0.023736
1206.06	0.455881
1207.68	0.456686
1209.29	0.290885
1210.91	0.166171
1212.52	0.519609
1214.14	0.662397
1215.75	0.532292
1217.37	0.234371
1218.98	0.559561
1220.59	0.406498
1222.21	0.171379
1223.82	0.310728
1225.43	0.720334
1227.05	0.696225
1228.66	0.652728
1230.27	0.341618
1231.88	1.06528
1233.49	0.549715
1235.1	0.92404
1236.72	1.21682
1238.33	1.03516
1239.94	1.06085
1241.55	0.362808
1243.16	0.450315
1244.76	0.164749
1246.37	0.043828
1247.98	1.24637
1249.59	0.37903
1251.2	0.897673
1252.8	0.919937
1254.41	0.529171
1256.02	1.38042
1257.62	1.19861
1259.23	1.0799
1260.84	1.04475
1262.44	0.678696
1264.05	1.28603
1265.66	0.940197
1267.26	0.759323
1268.86	1.30317
1270.47	1.28639
1272.07	1.24789
1273.67	0.399891
1275.28	0.815702
1276.88	1.16832
1278.48	1.06424
1280.09	0.856147
1281.69	1.10328
1283.29	0.853793
1284.89	0.977219
1286.49	1.49415
1288.09	1.18505
1289.69	1.1869
1291.29	0.445341
1292.89	1.54274
1294.49	1.46166
1296.09	1.66854
1297.69	1.52281
1299.29	1.25187
1300.89	1.4953
1302.49	1.24279
1304.08	1.11333
1305.68	1.53855
1307.28	0.81231
1308.88	1.46189
1310.47	1.41328
1312.07	1.13995
1313.66	1.11327
1315.26	1.27144
1316.85	1.87941
1318.45	1.12006
1320.04	0.769507
1321.64	1.1113
1323.23	1.3697
1324.83	1.28039
1326.42	1.43361
1328.01	0.916865
1329.61	1.45481
1331.2	1.30528
1332.79	1.33996
1334.38	0.750754
1335.97	1.25343
1337.56	1.15104
1339.16	1.10866
1340.75	1.14543
1342.34	0.958849
1343.93	0.730698
1345.52	0.983909
1347.11	1.01602
1348.7	0.548801
1350.29	0.424794
1351.87	0.783172
1353.46	0.74315
1355.05	1.02412
1356.64	0.78576
1358.22	1.22636
1359.81	0.807155
1361.4	0.427284
1362.98	0.545785
1364.57	0.464478
1366.16	0.961271
1367.74	0.840899
1369.33	0.801335
1370.91	0.723249
1372.5	0.168856
1374.08	0.212421
1375.67	0.674425
1377.25	0.857974
1378.83	0.623218
1380.41	0.507002
1382	0.548853
1383.58	0.708864
1385.16	0.629349
1386.74	0.370693
1388.33	0.191839
1389.91	0.291582
1391.49	0.967453
1393.07	0.512895
1394.65	0.277063
1396.23	0.199832
1397.81	0.280646
1399.39	0.261497
1400.97	0.281175
1402.55	0.458682
1404.13	0.695313
1405.7	0.675086
1407.28	0.695161
1408.86	-0.430006
1410.44	0.184169
1412.01	0.343789
1413.59	0.79891
1415.17	0.364983
1416.74	-0.246731
1418.32	0.403308
1419.89	0.777116
1421.47	0.797064
1423.04	0.385313
1424.62	0.723051
1426.19	0.274581
1427.77	0.338317
1429.34	0.657723
1430.91	0.543349
1432.49	0.624805
1434.06	1.21689
1435.63	0.431533
1437.2	1.20003
1438.78	1.16286
1440.35	0.77285
1441.92	1.1502
1443.49	1.74436
1445.06	1.199
1446.63	1.45961
1448.2	0.698228
1449.77	1.64731
1451.34	1.45666
1452.91	1.65975
1454.48	1.27316
1456.05	0.906038
1457.62	0.872776
1459.18	1.03523
1460.75	1.3536
1462.32	1.72916
1463.89	1.17865
1465.45	1.06007
1467.02	1.33415
1468.59	0.979985
1470.15	0.803566
1471.72	0.608648
1473.28	0.767789
1474.85	0.751065
1476.41	0.577859
1477.98	0.365588
1479.54	0.643373
1481.1	0.685799
1482.67	0.199032
1484.23	0.182552
1485.79	0.342099
1487.36	0.422603
1488.92	-0.104946
1490.48	0.129628
1492.04	0.127485
1493.61	0.357931
1495.17	0.33274
1496.73	-0.414257
1498.29	0.22208
1499.85	-0.0950766
1501.41	0.404726
1502.97	-0.433664
1504.53	0.0865393
1506.09	0.122079
1507.65	-0.307089
1509.2	0.326332
1510.76	-0.0846214
1512.32	0.256303
1513.88	0.21109
1515.43	0.146913
1516.99	0.121782
1518.55	0.0973558
1520.1	0.360824
1521.66	0.528237
1523.22	0.312736
1524.77	0.192528
1526.33	0.0717649
1527.88	0.38851
1529.44	0.361626
1530.99	0.220874
1532.54	0.156775
1534.1	0.264006
1535.65	0.523169
1537.21	0.518048
1538.76	0.909927
1540.31	0.396262
1541.86	0.0343857
1543.42	0.557679
1544.97	0.42172
1546.52	0.0604649
1548.07	0.788063
1549.62	0.239563
1551.17	0.778357
1552.72	0.923697
1554.27	0.789248
1555.82	0.432107
1557.37	0.00224972
1558.92	0.619258
1560.47	0.379412
1562.02	0.0849943
1563.56	0.295191
1565.11	0.431279
1566.66	0.380878
1568.21	0.852873
1569.75	0.913983
1571.3	0.284093
1572.85	1.38996
1574.39	1.26369
1575.94	1.41745
1577.49	1.32871
1579.03	0.997617
1580.57	1.09646
1582.12	0.448979
1583.66	1.07222
1585.21	1.07981
1586.75	0.283901
1588.3	0.796731
1589.84	0.86073
1591.38	1.13031
1592.92	1.60562
1594.47	1.42539
1596.01	1.13266
1597.55	0.990031
1599.09	1.12912
1600.63	0.85625
1602.17	1.01518
1603.71	0.723597
1605.25	1.46444
1606.79	1.07705
1608.33	1.36443
1609.87	0.879196
1611.41	1.38795
1612.95	1.68795
1614.49	0.916592
1616.03	0.91481
1617.57	1.04462
1619.1	1.02541
1620.64	0.801498
1622.18	0.747404
1623.72	0.825083
1625.25	0.921498
1626.79	0.455794
1628.32	0.737637
1629.86	0.887182
1631.39	1.01697
1632.93	1.14624
1634.46	1.05161
1636	0.939101
1637.53	1.68539
1639.07	1.33173
1640.6	1.16473
1642.13	1.05322
1643.67	1.76014
1645.2	1.08812
1646.73	1.94099
1648.26	1.34296
1649.8	1.37744
1651.33	1.37562
1652.86	1.37491
1654.39	1.76455
1655.92	1.37607
1657.45	1.67335
1658.98	1.46963
1660.51	1.74626
1662.04	1.44772
1663.57	0.982203
1665.1	1.27419
1666.63	1.32608
1668.16	0.751791
1669.68	0.972037
1671.21	1.93036
1672.74	1.89439
1674.27	1.17753
1675.79	1.52865
1677.32	1.89723
1678.85	0.645671
1680.37	0.810174
1681.9	1.26782
1683.42	1.13697
1684.95	1.0614
1686.47	1.11459
1688	0.618258
1689.52	0.928825
1691.05	0.799856
1692.57	0.725983
1694.09	0.963079
1695.62	0.431944
1697.14	0.321413
1698.66	1.01422
1700.18	0.866306
1701.71	0.626935
1703.23	0.897693
1704.75	0.238823
1706.27	0.235658
1707.79	0.777632
1709.31	0.337762
1710.83	0.0620389
1712.35	0.584757
1713.87	0.218976
1715.39	0.360722
1716.91	0.0138073
1718.43	0.607143
1719.95	0.946606
1721.47	0.56394
1722.99	-0.196257
1724.5	-0.161848
1726.02	0.467777
1727.54	0.125931
1729.06	0.684875
1730.57	0.843477
1732.09	0.569295
1733.61	0.0205388
1735.12	0.00913
1736.64	0.0403752
1738.15	0.279097
1739.67	0.498374
1741.18	0.234867
1742.7	0.358056
1744.21	0.133633
1745.72	-0.0737109
1747.24	0.0971947
1748.75	0.586384
1750.26	0.381966
1751.77	0.215276
1753.29	0.026
1754.8	0.0443878
1756.31	0.337391
1757.82	-0.0296011
1759.33	-0.0180058
1760.84	-0.0753317
1762.36	-0.117358
1763.87	0.196589
1765.38	0.15934
1766.89	0.169071
1768.4	0.0115786
1769.91	-0.0918908
1771.41	-0.115342
1772.92	0.254508
1774.43	0.18238
1775.94	0.0375113
1777.45	0.0174985
1778.95	0.27415
1780.46	0.0938654
1781.97	0.0778646
1783.48	0.227948
1784.98	0.0521007
1786.49	0.0262532
1787.99	-0.459365
1789.5	0.0888495
1791.01	-0.0777988
1792.51	0.164849
1794.01	0.0861197
1795.52	-0.0086422
1797.02	-0.0318913
1798.53	-0.14912
1800.03	0.0203795
1801.53	0.226221
1803.04	-0.114124
1804.54	0.278028
1806.04	0.00888729
1807.54	0.260998
1809.05	-0.00135899
1810.55	0.219279
1812.05	-0.187337
1813.55	0.0849552
1815.05	0.0794182
1816.55	0.305891
1818.05	-0.0419207
1819.55	0.177468
1821.05	-0.0627656
1822.55	0.196776
1824.05	-0.0847807
1825.55	-0.125835
1827.05	0.134405
1828.55	-0.236508
1830.04	0.00921726
1831.54	0.298877
1833.04	0.278054
1834.54	0.140307
1836.03	-0.0458884
1837.53	-0.122921
1839.03	0.070374
1840.52	-0.015182
1842.02	-0.00877237
1843.51	-0.18617
1845.01	0.0794907
1846.5	-0.0564322
1848	0.0688171
1849.49	0.2593
1850.99	0.218919
1852.48	-0.0425425
1853.97	0.275628
1855.47	0.158743
1856.96	-0.106166
1858.45	0.095592
1859.94	-0.106071
1861.44	-0.199717
1862.93	-0.161367
1864.42	-0.0616851
1865.91	0.243912
1867.4	0.17067
1868.89	-0.0386744
1870.38	-0.120715
1871.87	-0.463767
1873.36	0.016696
1874.85	-0.0102491
1876.34	0.0828557
1877.83	0.0557599
1879.32	0.204627
1880.81	0.0751467
1882.3	-0.205659
1882.57	-0.26332
1884.07	0.242279
1885.56	0.276355
1887.06	0.0658379
1888.55	0.0466204
1890.04	0.131986
1891.54	0.478964
1893.03	0.0794854
1894.52	-0.00544739
1896.02	0.258612
1897.51	0.227774
1899	0.0576396
1900.49	-0.13079
1901.98	-0.0421939
1903.47	0.201458
1904.96	-0.0429764
1906.45	0.250793
1907.94	-0.0461569
1909.43	0.0395355
1910.92	0.403538
1912.41	-0.203333
1913.9	-0.254515
1915.39	0.127887
1916.88	0.371162
1918.37	-0.0967469
1919.85	0.422867
1921.34	0.0240841
1922.83	0.474357
1924.32	0.232683
1925.8	0.182443
1927.29	-0.282423
1928.78	-0.0543046
1930.26	0.173819
1931.75	0.141535
1933.23	0.0041585
1934.72	-0.238444
1936.2	0.469384
1937.69	-0.121325
1939.17	-0.19327
1940.66	0.477598
1942.14	0.371824
1943.63	0.111798
1945.11	-0.147332
1946.59	-0.130194
1948.07	-0.1305
1949.56	0.437055
1951.04	0.280109
1952.52	0.0365367
1954	0.239891
1955.48	0.0477014
1956.96	0.0793271
1958.45	0.0943131
1959.93	0.264266
1961.41	-0.217064
1962.89	-0.012259
1964.37	-0.0476389
1965.85	-0.151896
1967.32	0.137048
1968.8	0.288281
1970.28	0.165351
1971.76	-0.0942645
1973.24	-0.319415
1974.72	0.308604
1976.19	0.100759
1977.67	-0.140731
1979.15	-0.0584283
1980.63	-0.36748
1982.1	0.105649
1983.58	0.153226
1985.05	0.404125
1986.53	0.162601
1988	0.192589
1989.48	-0.200547
1990.95	-0.101843
1992.43	-0.0870767
1993.9	0.249667
1995.38	0.536111
1996.85	0.113196
1998.32	-0.275716
1999.8	0.128743
2001.27	-0.108853
2002.74	0.125633
2004.22	0.0900583
2005.69	0.526595
2007.16	0.00334215
2008.63	-0.165194
2010.1	0.00372791
2011.57	-0.0626545
2013.04	0.0224857
2014.51	0.494298
2015.98	0.140867
2017.45	0.140084
2018.92	0.373973
2020.39	-0.0312843
2021.86	0.453799
2023.33	0.233721
2024.8	0.1655
2026.27	-0.0358896
2027.74	0.132926
2029.2	0.50422
2030.67	-0.045959
2032.14	0.646173
2033.61	0.214401
2035.07	0.134953
2036.54	-0.129652
2038.01	0.59656
2039.47	0.21352
2040.94	-0.371442
2042.4	-0.0483947
2043.87	0.0399613
2045.33	0.0281391
2046.8	0.269452
2048.26	0.0732732
2049.72	0.483346
2051.19	-0.0344229
2052.65	0.103964
2054.12	0.257787
2055.58	0.376435
2057.04	0.561323
2058.5	0.0039978
2059.97	0.137594
2061.43	0.288265
2062.89	0.203858
2064.35	0.137137
2065.81	-0.130714
2067.27	0.0901456
2068.73	0.109522
2070.19	0.145981
2071.65	0.199328
2073.11	0.202055
2074.57	0.204564
2076.03	0.290999
2077.49	0.0234962
2078.95	0.29455
2080.41	0.262105
2081.87	0.380732
2083.32	0.313606
2084.78	0.14494
2086.24	0.379508
2087.7	0.680628
2089.15	-0.0272121
2090.61	0.40768
2092.07	0.136962
2093.52	0.0342417
2094.98	0.753144
2096.43	0.616035
2097.89	0.294307
2099.34	0.474604
2100.8	0.604203
2102.25	0.399616
2103.71	0.479885
2105.16	0.661263
2106.61	0.326474
2108.07	0.309633
2109.52	0.476472
2110.97	0.3427
2112.43	0.557854
2113.88	0.554884
2115.33	0.766901
2116.78	0.562219
2118.23	0.557501
2119.68	0.603709
2121.13	0.435812
2122.59	0.86667
2124.04	0.751358
2125.49	0.520528
2126.94	1.00242
2128.39	1.05229
2129.83	0.752953
2131.28	0.999321
2132.73	0.698528
2134.18	0.728927
2135.63	0.875711
2137.08	1.02363
2138.53	0.826043
2139.97	0.960603
2141.42	1.21231
2142.87	0.969086
2144.31	1.32179
2145.76	1.31078
2147.21	1.20014
2148.65	0.608535
2150.1	0.844218
2151.54	1.24484
2152.99	1.29671
2154.43	1.2153
2155.88	1.16666
2157.32	1.39971
2158.77	1.53399
2160.21	1.45412
2161.65	1.35921
2163.1	1.26584
2164.54	1.62164
2165.98	1.59679
2167.43	1.53857
2168.87	1.41279
2170.31	1.83417
2171.75	1.40545
2173.19	1.44072
2174.64	1.29182
2176.07	1.50834
2177.52	1.39244
2178.96	1.37701
2180.4	1.57856
2181.84	1.56476
2183.28	1.58474
2184.72	1.5717
2186.15	1.50881
2187.59	1.62894
2189.03	1.31645
2190.47	0.920585
2191.91	1.17364
2193.35	1.19301
2194.78	1.44431
2196.22	1.16127
2197.66	1.19283
2199.09	1.30602
2200.53	1.15232
2201.97	1.06515
2203.4	1.06163
2204.84	1.32436
2206.27	1.00766
2207.71	0.592268
2209.14	1.12093
2210.58	0.688479
2212.01	0.685738
2213.45	0.930325
2214.88	0.695483
2216.31	0.758585
2217.75	0.674085
2219.18	0.244372
2220.61	0.771791
2222.05	0.837513
2223.48	0.540134
2224.91	0.538274
2226.34	0.748928
2227.78	0.431795
2229.21	0.360587
2230.64	0.617012
2232.07	0.331967
2233.5	0.866179
2234.93	0.631398
2236.36	0.773794
2237.79	0.607127
2239.22	0.458549
2240.65	0.556381
2242.08	0.720883
2243.5	0.804841
2244.93	0.318192
2246.36	0.516038
2247.79	0.549458
2249.22	0.483274
2250.64	0.366488
2252.07	0.411245
2253.5	0.341444
2254.92	0.515733
2256.35	0.0415688
2257.78	0.267542
2259.2	0.349615
2260.63	0.141959
2262.05	0.390567
2263.48	0.364568
2264.9	0.501263
2266.33	0.621551
2267.75	0.33458
2269.18	0.420936
2270.6	0.685785
2272.02	0.250185
2273.45	0.433143
2274.87	0.371901
2276.29	0.245624
2277.71	0.249804
2279.14	0.205125
2280.56	0.144065
2281.98	0.392785
2283.4	0.168427
2284.82	0.0582247
2286.24	0.209308
2287.66	0.279127
2289.08	-0.124341
2290.5	-0.233687
2291.92	0.163853
2293.34	0.349222
2294.76	0.567452
2296.18	0.343842
2297.6	0.316504
2299.02	0.0434446
2300.44	-0.0330272
2301.86	0.480974
2303.27	0.20821
2304.69	0.099432
2306.11	0.236828
2307.53	0.193334
2308.94	0.0343056
2310.36	-0.0430837
2311.78	0.273958
2313.19	0.17982
2314.61	0.151785
2316.02	-0.369708
2317.44	0.196258
2318.85	0.00486851
2320.27	0.0274901
2321.68	-0.000235558
2323.1	0.416174
2324.51	0.0716124
2325.92	0.649323
2327.34	0.433678
2328.75	0.563753
2330.16	0.512679
2331.58	0.627032
2332.99	0.166203
2334.4	-0.129162
2335.81	-0.128115
2337.23	0.23439
2338.64	-0.226111
2340.05	-0.0462298
2341.46	0.362633
2342.87	0.229031
2344.28	0.128391
2345.69	-0.0210624
2347.1	0.0591922
2348.51	0.204841
2349.92	0.202771
2351.33	0.298156
2352.74	0.245607
2354.15	0.110826
2355.55	0.399561
2356.96	0.0687251
2358.37	0.193971
2359.78	0.0103602
2361.19	-0.270162
2362.59	0.357791
2364	-0.116947
2365.41	0.412304
2366.81	0.407293
2368.22	0.483518
2369.62	0.141058
2371.03	0.106446
2372.44	0.0406961
2373.84	0.136808
2375.24	-0.459008
2376.65	0.152063
2378.05	-0.0262475
2379.46	0.1801
2380.86	0.272421
2382.26	0.058784
2383.67	0.533584
2385.07	-0.0965967
2386.47	-0.0379786
2387.88	0.0212064
2389.28	0.00147867
2390.68	0.110194
2392.08	-0.0987334
2393.48	-0.147542
2394.89	0.058785
2396.29	0.281378
2397.69	0.0911088
2399.09	-0.0986094
2400.49	-0.287871
2401.89	-0.127407
2403.29	-0.141656
2404.69	0.0819831
2406.09	0.193717
2407.48	0.0825062
2408.88	0.113523
2410.28	0.239367
2411.68	-0.0624866
2413.08	0.0958171
2414.48	-0.235787
2415.87	0.0512099
2417.27	0.0225821
2418.67	0.0896387
2420.06	0.0619631
2421.46	0.145063
2422.86	0.13285
2424.25	-0.0221767
2425.65	0.0922027
2427.04	0.254572
2428.44	0.227467
2429.83	0.0107651
2431.23	0.206953
2432.62	0.49869
2434.02	0.0437889
2435.41	0.191381
2436.81	0.321983
2438.2	0.117731
2439.59	0.119032
2440.99	0.0719957
2442.38	0.00870514
2443.77	0.0404558
2445.16	0.183072
2446.56	0.166903
2447.95	0.309114
2449.34	-0.356644
2450.73	0.102498
2452.12	0.0710502
2453.51	0.435802
2454.9	0.405578
2456.29	0.391739
2457.68	0.330695
2459.07	0.0797224
2460.46	-0.0451303
2461.85	0.00336552
2463.24	0.177674
2464.63	-0.359546
2466.02	0.414207
2467.4	-0.044023
2468.79	0.176566
2470.18	0.207544
2471.57	0.364224
2472.95	-0.204446
2474.34	-0.0330858
2475.73	-0.129867
2477.12	0.0404201
2478.5	0.257509
2479.89	0.0350213
2481.27	0.173635
2482.66	0.0769701
2484.04	-0.00425434
2485.43	-0.00781584
2486.81	0.0346317
2488.2	0.122956
2489.58	0.116992
2490.97	0.219887
2492.35	-0.00347853
2493.73	0.240303
2495.12	-0.166858
2496.5	-0.277887
2497.88	0.0145626
2499.27	-0.0491948
2500.65	-0.097661
2502.03	0.193347
2503.41	-0.119077
2504.79	-0.339013
2506.17	0.226848
2507.56	-0.0243988
2508.94	-0.351848
2510.32	0.166341
2511.7	0.315785
2513.08	0.143678
2514.46	-0.149999
2515.84	-0.0140438
2517.22	0.107024
2518.59	0.0754857
2519.97	0.349717
2521.35	0.333262
2522.73	-0.14159
2524.11	0.191919
2525.49	0.250052
2526.86	0.109941
2528.24	0.42684
2529.62	0.196789
2530.99	0.0442233
2532.37	0.136167
2533.75	0.18354
2535.12	0.00355721
2536.5	0.157764
2537.88	0.205086
2539.25	-0.264724
2540.63	0.176066
2542	0.00920677
2543.38	-0.00559092
2544.75	-0.0652404
2546.12	-0.169448
2547.5	0.303658
2548.87	0.201015
2550.24	0.204589
2551.62	0.0863686
2552.99	0.0129566
2554.36	0.378842
2555.74	-0.0146756
2557.11	0.183115
2558.48	0.168422
2559.85	0.138786
2561.22	0.215672
2562.59	0.020247
2563.96	0.0525975
2565.34	0.221655
2566.71	0.0423508
2568.08	0.196516
2569.45	0.183981
2570.82	0.247233
2572.18	-0.219999
2573.55	-0.126355
2574.92	0.240241
2576.29	0.531119
2577.66	-0.118089
2579.03	0.172562
2580.4	0.220344
2581.77	-0.293209
2583.13	0.133035
2584.5	-0.153486
2585.87	0.166341
2587.23	0.167906
2588.6	0.139301
2589.97	0.216864
2591.33	0.173082
2592.7	-0.401366
2594.06	0.175077
2595.43	-0.0824599
2596.79	-0.401095
2598.16	0.187693
2599.52	0.306849
2600.89	-0.148213
2602.25	0.197993
2603.62	-0.0443273
2604.98	0.211914
2606.34	0.241843
2607.71	0.0754657
2609.07	0.179861
2610.43	0.2832
2611.79	0.189713
2613.16	-0.00975275
2614.52	0.151084
2615.88	0.401432
2617.24	-0.0380654
2618.6	0.167703
2619.96	-0.00038147
2621.32	0.0416794
2622.68	0.353019
2624.04	-0.216867
2625.4	0.228647
2626.76	-0.131872
2628.12	0.089004
2629.48	-0.182027
2630.84	-0.0362167
2632.2	0.228201
2633.56	0.239645
2634.92	0.176837
2636.28	0.158596
2637.63	0.288547
2638.99	-0.0850635
2640.35	0.355712
2641.71	-0.238801
2643.06	0.0541067
2644.42	0.228626
2645.77	0.0635352
2647.13	0.148964
2648.49	0.0864367
2649.84	0.317702
2651.2	-0.0841317
2652.55	0.0286155
2653.91	-0.298804
2655.26	0.0638242
2656.62	0.338795
2657.97	0.424007
2659.33	0.246511
2660.68	0.318058
2662.03	0.0825148
2663.39	-0.0217857
2664.74	-0.126564
2666.09	0.205798
2667.44	0.187526
2668.8	0.329393
2670.15	-0.0234361
2671.5	-0.4335
2672.85	0.145457
2674.2	-0.00189114
2675.55	0.199687
2676.91	0.125862
2678.26	0.0670958
2679.61	0.153994
2680.96	0.0531816
2682.31	0.170753
2683.66	0.129737
2685	0.118432
2686.35	-0.13922
2687.7	0.0092206
2689.05	0.374605
2690.4	-0.161337
2691.75	0.506175
2693.1	-0.0611115
2694.44	0.0674391
2695.79	0.31167
2697.14	0.0491519
2698.49	0.2512
2699.83	0.164867
2701.18	0.253622
2702.52	-0.134454
2703.87	0.274953
2705.22	0.438639
2706.56	0.15287
2707.91	0.127831
2709.25	0.0153556
2710.6	0.294613
2711.94	0.25426
2713.29	0.330018
2714.63	-0.0593743
2715.97	0.408813
2717.32	0.32447
2718.66	0.268976
2720.01	0.329576
2721.35	-0.134084
2722.69	0.245967
2724.03	0.101705
2725.38	0.146329
2726.72	0.190661
2728.06	0.118314
2729.4	0.39505
2730.74	0.220543
2732.08	0.206088
2733.42	-0.0846891
2734.76	-0.346192
2736.1	0.134252
2737.44	0.280226
2738.78	0.353443
2740.12	0.150153
2741.46	0.251878
2742.8	0.353068
2744.14	0.0612779
2745.48	0.0742917
2746.82	0.246706
2748.16	0.012413
2749.49	0.25714
2750.83	-0.0492945
2752.17	0.108609
2753.51	0.252077
2754.84	0.0768423
2756.18	0.00319767
2757.52	-0.0413265
2758.85	0.363113
2760.19	-0.11518
2761.53	0.087172
2762.86	0.289829
2764.2	0.000743866
2765.53	-0.0134392
2766.87	-0.0858383
2768.2	0.361797
2769.54	-0.0015192
2770.87	-0.0332179
2772.2	0.0785251
2773.54	0.31918
2774.87	-0.205036
2776.2	0.0638261
2777.54	0.00149965
2778.87	0.112231
2780.2	0.151338
2781.53	-0.0678568
2782.87	0.258623
2784.2	0.226092
2785.53	0.250908
2786.86	0.0753288
2788.19	0.0291686
2789.52	0.284096
2790.85	0.153339
2792.18	0.137635
2793.51	-0.0349731
2794.84	0.307018
2796.17	0.0341883
2797.5	0.24674
2798.83	-0.026742
2800.16	-0.314585
2801.49	-0.00323582
2802.82	0.0795369
2804.15	-0.179987
2805.47	0.215582
2806.8	-0.201075
2808.13	0.00817108
2809.46	-0.209548
2810.78	0.0417118
2812.11	0.136966
2813.44	0.133686
2814.76	-0.307999
2816.09	0.130406
2817.42	0.144312
2818.74	0.10195
2820.07	-0.0679822
2821.39	0.116078
2822.72	0.101202
2824.04	0.340886
2825.37	0.0986075
2826.69	0.0122523
2828.02	0.167004
2829.34	0.208881
2830.66	-0.0603318
2831.99	0.0528207
2833.31	0.038518
2834.63	0.222126
2835.96	-0.00508308
2837.28	0.206013
2838.6	0.232798
2839.92	0.429116
2841.24	0.498173
2842.57	0.539245
2843.89	0.495997
2845.21	0.509824
2846.53	0.368646
2847.85	0.736503
2849.17	1.07614
2850.49	0.694705
2851.81	0.849991
2853.13	1.019
2854.45	1.01811
2855.77	0.946436
2857.09	1.11492
2858.41	1.2269
2859.72	1.05637
2861.04	1.13993
2862.36	1.19497
2863.68	1.40495
2865	1.21954
2866.31	1.27403
2867.63	1.4415
2868.95	1.34133
2870.26	1.2697
2871.58	2.10031
2872.9	1.73251
2874.21	1.87151
2875.53	2.0096
2876.84	1.66805
2878.16	1.80465
2879.47	1.56119
2880.79	1.93668
2882.1	1.63808
2883.42	2.09888
2884.73	1.85812
2886.05	1.61791
2887.36	1.98133
2888.67	1.93733
2889.99	2.10316
2891.3	1.87562
2892.61	2.08228
2893.92	1.72829
2895.24	1.62695
2896.55	2.3801
2897.86	1.94418
2899.17	1.94292
2900.48	1.81633
2901.79	2.08178
2903.11	1.82979
2904.42	2.05349
2905.73	2.44523
2907.04	2.55766
2908.35	2.34898
2909.66	2.21082
2910.97	2.71677
2912.27	2.57902
2913.58	2.73463
2914.89	2.7352
2916.2	2.86047
2917.51	3.11046
2918.82	3.09373
2920.13	2.83916
2921.43	3.75972
2922.74	3.28295
2924.05	3.60413
2925.35	3.17135
2926.66	2.97664
2927.97	3.78847
2929.27	3.36981
2930.58	3.55185
2931.89	3.55179
2933.19	3.87303
2934.5	3.63513
2935.8	3.35544
2937.11	3.7467
2938.41	3.77473
2939.72	3.66325
2941.02	3.39847
2942.32	3.49767
2943.63	3.1366
2944.93	3.23775
2946.24	3.07413
2947.54	3.1207
2948.84	3.16711
2950.14	2.68062
2951.45	2.61269
2952.75	2.54337
2954.05	2.72507
2955.35	2.93443
2956.65	2.43062
2957.95	2.27829
2959.26	2.5339
2960.56	2.41356
2961.86	2.43476
2963.16	2.45653
2964.46	2.36557
2965.76	2.21724
2967.06	2.26431
2968.36	2.00114
2969.66	1.6248
2970.96	2.00773
2972.25	1.9268
2973.55	2.00088
2974.85	1.56822
2976.15	1.66992
2977.45	1.74256
2978.74	1.54642
2980.04	1.03941
2981.34	1.74193
2982.64	1.40268
2983.93	1.64039
2985.23	1.24633
2986.52	1.26106
2987.82	1.16445
2989.12	1.20908
2990.41	1.32418
2991.71	1.24216
2993	1.07502
2994.3	0.794592
2995.59	0.72419
2996.89	1.03239
2998.18	0.568352
2999.48	0.960545
3000.77	0.693824
3002.06	0.750113
3003.36	0.540444
3004.65	0.709194
3005.94	0.373504
3007.23	0.499547
3008.53	0.526917
3009.82	0.371826
3011.11	0.216398
3012.4	0.228436
3013.69	0.142818
3014.99	0.0715818
3016.28	0.335282
3017.57	0.0980206
3018.86	0.306665
3020.15	0.473414
3021.44	0.222673
3022.73	0.0271883
3024.02	-0.113185
3025.31	0.134345
3026.6	0.0765581
3027.89	-0.0360899
3029.18	-0.244495
3030.46	0.239285
3031.75	-0.118755
3033.04	-0.158232
3034.33	0.230357
3035.62	0.0940418
3036.9	0.0396147
3038.19	0.0803852
3039.48	-0.196804
3040.76	0.130274
3042.05	-0.0794311
3043.34	0.108892
3044.62	0.0236292
3045.91	0.363646
3047.19	0.103652
3048.48	-0.044981
3049.77	0.081039
3051.05	0.0307784
3052.34	0.172174
3053.62	-0.000256062
3054.9	0.00423384
3056.19	0.280736
3057.47	0.310843
3058.76	-0.0411348
3060.04	0.138141
3061.32	0.0589666
3062.61	-0.0329881
3063.89	0.229676
3065.17	0.289489
3066.45	-0.0438843
3067.74	0.248883
3069.02	0.161269
3070.3	-0.116965
3071.58	0.161793
3072.86	0.303621
3074.14	0.0910039
3075.42	0.203989
3076.7	-0.212962
3077.99	-0.0862365
3079.26	0.0818944
3080.54	0.0204678
3081.82	-0.134726
3083.1	0.0230131
3084.38	0.0863433
3085.66	0.0276132
3086.94	-0.0721569
3088.22	0.234758
3089.5	-0.096736
3090.78	-0.0213552
3092.05	0.0810571
3093.33	-0.141953
3094.61	-0.13409
3095.89	0.104489
3097.16	-0.158496
3098.44	0.378242
3099.72	-0.0473814
3100.99	-0.215437
3102.27	0.104198
3103.54	-0.117636
3104.82	0.175391
3106.1	-0.0318274
3107.37	0.15415
3108.65	-0.0109258
3109.92	-0.215836
3111.2	-0.13577
3112.47	-0.0550847
3113.74	-0.00108528
3115.02	-0.150373
3116.29	0.323723
3117.56	0.376953
3118.84	-0.140282
3120.11	-0.00724745
3121.38	-0.051147
3122.66	-0.108956
3123.93	0.226034
3125.2	-0.0754523
3126.47	0.340988
3127.74	0.202889
3129.01	0.0247254
3130.29	0.0497966
3131.56	0.331789
3132.83	0.343284
3134.1	0.286978
3135.37	0.230388
3136.64	0.0925379
3137.91	0.183725
3139.18	0.314949
3140.45	0.270928
3141.72	0.253977
3142.99	0.385108
3144.26	0.15398
3145.52	-0.0628629
3146.79	0.391386
3148.06	0.443698
3149.33	0.362555
