200.554	0.0740356
202.369	0.122627
204.183	0.172373
205.999	0.904284
207.813	0.517345
209.626	0.251148
211.439	-0.259613
213.253	-0.820465
215.065	0.121323
216.877	0.672874
218.688	0.569624
220.5	0.273651
222.312	-0.431921
224.123	-0.26539
225.933	0.892365
227.742	-0.076746
229.552	0.596035
231.361	0.0362663
233.171	0.561934
234.98	-0.0217209
236.787	0.481483
238.595	-0.434551
240.402	-1.05794
242.209	-0.424875
244.015	1.12702
245.822	-0.0232868
247.627	0.77849
249.435	0.948427
251.24	0.413034
253.045	1.12853
254.849	-0.595793
256.653	0.308823
258.457	0.779881
260.26	0.192957
262.063	-0.0779285
263.866	0.0147533
265.668	0.0846634
267.47	0.492252
269.271	0.0314713
271.073	-0.0451622
272.873	0.430801
274.674	-0.927904
276.474	0.435085
278.274	0.276262
280.073	-0.0542183
281.872	0.142
283.671	-0.218102
285.47	-0.219427
287.268	0.113974
289.065	0.902098
290.863	0.228585
292.66	0.874405
294.456	-0.463742
296.253	0.59228
298.049	0.477784
299.844	-0.0422392
301.637	0.679513
303.432	0.850183
305.227	-0.126821
307.021	0.0882158
308.815	0.779286
310.609	0.374407
312.402	-0.338086
314.195	0.380715
315.987	1.10197
317.777	-0.103138
319.569	0.575283
321.36	0.278582
323.151	0.316421
324.942	-0.098628
326.733	1.01397
328.521	1.50617
330.31	0.252573
332.1	0.86136
333.889	-0.111293
335.677	0.419946
337.464	0.899802
339.252	0.873848
341.039	1.25196
342.826	1.24596
344.611	0.738024
346.398	0.470007
348.184	0.346334
349.97	0.629146
351.754	0.840092
353.539	0.859063
355.324	0.757
357.106	0.533659
358.89	0.594404
360.674	0.0817242
362.455	-0.0271816
364.239	0.267076
366.021	0.0370398
367.804	0.328293
369.584	0.475321
371.366	0.146964
373.145	0.409626
374.926	0.694679
376.707	0.318192
378.485	-0.00962734
380.265	0.347556
382.045	0.0937786
383.822	0.547745
385.601	1.05
387.378	0.54314
389.156	0.296617
390.934	0.685673
392.71	-0.168938
394.487	1.11436
396.262	0.284498
398.038	-0.334015
399.813	-0.177889
401.588	0.470791
403.362	-0.149922
405.137	-0.231533
406.912	-0.361233
408.685	0.517703
410.459	-0.0830355
412.23	0.231695
414.004	0.0541191
415.775	0.487567
417.548	0.100879
419.318	-0.0503836
421.089	0.221045
422.86	0.304311
424.63	0.1517
426.401	-0.143181
428.17	0.405786
429.94	-0.243181
431.708	0.0232201
433.478	-0.179395
435.245	0.345951
437.012	0.636488
438.781	0.104475
440.547	0.743594
442.315	0.886684
444.081	1.21383
445.846	0.788058
447.613	0.244123
449.378	-0.509991
451.142	0.139045
452.908	-0.286385
454.672	0.315383
456.435	1.07924
458.2	1.77176
459.963	1.1137
461.725	0.132099
463.489	0.106817
465.251	0.0385094
467.012	0.671345
468.775	0.0996685
470.536	0.390553
472.296	0.2404
474.056	0.112185
475.817	0.493672
477.576	0.476117
479.335	-0.0799255
481.094	0.410848
482.854	0.762034
484.612	0.998528
486.37	0.259525
488.127	0.991467
489.886	0.561096
491.642	0.248288
493.398	0.987312
495.154	0.979552
496.91	0.901381
498.667	0.658589
500.422	1.79831
502.176	0.685631
503.93	1.23758
505.684	0.519242
507.438	0.856254
509.191	0.885387
510.946	1.35916
512.698	1.1717
514.45	1.45251
516.202	1.14298
517.954	0.408447
519.705	1.22442
521.456	0.111885
523.206	1.51244
524.956	0.329435
526.706	0.226708
528.456	0.241329
530.207	0.466636
531.956	0.644226
533.704	1.49914
535.452	-0.0814123
537.2	0.745495
538.947	1.26525
540.694	-0.106739
542.441	0.526307
544.188	0.529182
545.934	0.439068
547.68	0.674321
549.425	0.0980711
551.17	0.79692
552.915	0.0373516
554.659	-0.0502834
556.403	0.901301
558.145	0.606425
559.889	0.451059
561.632	-0.439793
563.375	0.603636
565.117	0.244358
566.859	-0.159431
568.601	0.471482
570.342	0.0707445
572.083	-0.212996
573.824	0.262711
575.565	0.328086
577.303	0.143525
579.043	1.1545
580.782	-0.152217
582.521	0.2174
584.26	0.103764
585.998	0.0115328
587.734	0.791603
589.472	0.672853
591.21	0.0925474
592.947	-0.511512
594.684	0.862863
596.418	0.166667
598.154	-0.368527
599.89	-0.12202
601.626	-0.267817
603.361	0.0445833
605.094	-0.0820971
606.828	-0.25648
608.562	-0.0184507
610.296	0.540435
612.027	0.273727
613.761	-0.106181
615.493	-0.00352478
617.224	-0.404728
618.956	0.247053
620.688	0.919527
622.419	0.422719
624.149	0.359667
625.879	0.776444
627.61	0.463851
629.338	-0.324666
631.068	0.122709
632.797	0.344843
634.525	-0.070509
636.254	0.472217
637.98	-0.311563
639.708	-0.0263891
641.436	0.322694
643.162	-0.266554
644.889	0.213562
646.614	0.124724
648.34	-0.0520754
650.067	0.639338
651.791	-0.0269938
653.516	0.584984
655.239	0.292696
656.964	0.276479
658.687	0.261563
660.411	0.131861
662.133	0.547715
663.857	0.8922
665.58	0.593209
667.301	0.199761
669.024	0.399817
670.744	0.0292778
672.464	0.325019
674.186	-0.0852985
675.905	-0.447401
677.626	0.568249
679.345	0.11612
681.065	0.397364
682.783	0.331339
684.503	0.768582
686.22	0.167001
687.939	0.852666
689.656	0.0627384
691.372	0.515592
693.09	0.207384
694.806	0.38182
696.523	0.531718
698.239	0.702834
699.953	0.59586
701.67	1.1082
703.384	-0.105136
705.098	-0.0317154
706.813	0.0867567
708.526	0.663098
710.239	0.504782
711.954	0.437761
713.666	1.19383
715.378	0.4401
717.091	0.28125
718.802	0.715927
720.513	0.58036
722.226	0.354168
723.936	0.606251
725.646	0.766812
727.355	0.585999
729.067	0.404888
730.776	0.246185
732.484	0.404333
734.192	0.0868168
735.902	-0.162171
737.61	0.357581
739.317	0.110376
741.024	0.789163
742.731	1.31106
744.439	1.42915
746.145	1.23426
747.851	1.62655
749.556	0.626176
751.262	0.527579
752.966	0.813257
754.673	1.01106
756.377	1.30122
758.081	1.27872
759.784	0.897877
761.487	2.00626
763.19	0.725286
764.892	0.9549
766.594	0.912041
768.296	1.2734
770	1.69968
771.701	1.21854
773.402	1.07459
775.102	0.884844
776.803	1.08034
778.503	0.938589
780.202	1.18347
781.901	1.20385
783.6	1.45073
785.299	1.33386
786.997	1.12297
788.695	1.15656
790.393	1.5247
792.09	1.36863
793.787	1.32348
795.484	1.97736
797.18	1.97792
798.877	0.719901
800.572	0.996565
802.268	1.45494
803.963	1.66652
805.658	1.67537
807.35	1.88523
809.044	1.39699
810.738	0.683293
812.432	1.33716
814.125	1.04823
815.818	1.87873
817.51	1.29871
819.202	1.56901
820.894	1.68282
822.584	1.50704
824.275	1.60027
825.966	1.29445
827.657	1.23709
829.347	0.938789
831.037	2.09252
832.725	1.35726
834.414	0.891892
836.103	1.20806
837.792	1.4127
839.481	1.57119
841.167	2.17426
842.854	0.496789
844.542	1.52195
846.229	1.49811
847.914	2.21483
849.6	1.90684
851.287	1.15428
852.973	1.5463
854.656	1.31213
856.341	1.36921
858.026	0.795191
859.711	0.8929
861.393	2.06903
863.077	1.48682
864.761	1.35298
866.442	1.62353
868.125	1.12662
869.808	0.583751
871.489	0.987684
873.171	0.714664
874.85	1.36661
876.532	0.664746
878.213	1.31695
879.892	0.705091
881.572	0.724687
883.251	1.4431
884.931	0.986012
886.61	1.74576
888.287	1.03626
889.966	0.708413
891.643	0.807033
893.321	1.15133
894.997	1.2684
896.675	0.889142
898.352	1.09304
900.028	0.711998
901.704	1.13719
903.379	0.486605
905.055	1.0888
906.729	0.239186
908.404	0.306518
910.077	0.50859
911.75	0.66703
913.425	0.915027
915.097	0.563623
916.771	0.656576
918.443	1.259
920.116	1.17414
921.787	1.68759
923.46	1.29572
925.13	0.906893
926.8	1.05109
928.472	1.2418
930.141	1.21357
931.813	1.23047
933.481	0.453629
935.15	1.0448
936.82	0.577882
938.488	1.45762
940.156	1.01591
941.825	1.03914
943.492	1.35029
945.158	0.844692
946.827	0.977367
948.493	1.26188
950.158	1.21246
951.824	1.31577
953.491	0.537024
955.156	0.400471
956.82	0.819222
958.486	0.845819
960.15	0.280497
961.814	0.268769
963.477	1.6052
965.142	0.529842
966.804	1.06479
968.467	0.600141
970.129	0.818389
971.79	0.48243
973.454	1.45211
975.115	0.544196
976.776	0.103289
978.436	0.81466
980.096	0.763907
981.756	0.712506
983.417	1.0465
985.077	1.48831
986.736	2.01537
988.394	1.80925
990.052	0.871729
991.71	0.685692
993.368	1.78067
995.025	-0.0612288
996.682	0.900904
998.341	1.53117
999.998	1.74169
1001.65	1.33476
1003.31	1.5659
1004.97	1.97216
1006.62	0.993314
1008.28	0.872462
1009.93	1.27892
1011.58	0.611017
1013.24	1.25956
1014.89	1.42608
1016.54	0.520418
1018.2	0.776097
1019.85	0.398523
1021.5	0.285119
1023.16	0.829106
1024.81	1.09019
1026.46	1.04614
1028.11	0.958406
1029.76	1.13188
1031.41	0.582726
1033.06	1.45058
1034.71	0.962401
1036.36	1.49749
1038.01	1.48599
1039.66	1.53973
1041.31	1.11598
1042.95	1.89031
1044.6	1.44992
1046.25	1.42554
1047.9	1.96871
1049.54	1.42853
1051.19	1.30287
1052.84	1.26529
1054.48	0.945743
1056.13	1.23462
1057.77	1.21883
1059.42	1.41972
1061.06	1.61968
1062.71	1.31832
1064.35	1.64612
1066	1.14613
1067.64	0.905538
1069.28	2.18442
1070.93	1.44172
1072.57	0.764647
1074.21	0.501154
1075.85	0.499666
1077.49	1.0206
1079.13	0.545756
1080.78	1.30805
1082.42	0.42226
1084.06	0.554313
1085.7	0.662275
1087.34	0.507184
1088.97	0.803982
1090.61	0.708374
1092.25	0.395087
1093.89	0.902309
1095.53	0.351769
1097.17	0.945891
1098.8	0.0549202
1100.44	1.42793
1102.08	1.27477
1103.71	1.08138
1105.35	0.201704
1106.99	1.47376
1108.62	0.637546
1110.26	0.6385
1111.89	0.680131
1113.52	1.51414
1115.16	1.18609
1116.79	0.986349
1118.43	0.937156
1120.06	0.632012
1121.69	0.435762
1123.32	0.412474
1124.96	0.454815
1126.59	0.690891
1128.22	1.54815
1129.85	1.42268
1131.48	0.229168
1133.11	0.81059
1134.75	0.686314
1136.37	0.625222
1138	0.69081
1139.63	0.840035
1141.26	0.71013
1142.89	0.878377
1144.52	0.129635
1146.15	0.214007
1147.78	1.00295
1149.4	0.450497
1151.03	0.261106
1152.66	0.0291967
1154.28	0.776197
1155.91	0.16012
1157.54	0.310194
1159.16	-0.283676
1160.79	0.0170765
1162.41	0.127954
1164.04	-0.610229
1165.66	-0.00824356
1167.29	0.210619
1168.91	-0.252401
1170.53	0.536357
1172.16	0.280771
1173.78	0.574934
1175.4	-0.596866
1177.02	0.119077
1178.65	-0.118924
1180.27	0.279419
1181.89	0.361232
1183.51	0.211342
1185.13	-0.360963
1186.75	0.459673
1188.37	0.0108738
1189.99	0.0870333
1191.61	0.37087
1193.23	0.357549
1194.85	0.154186
1196.47	0.538512
1198.08	1.06976
1199.7	0.347649
1201.32	1.05115
1202.94	0.00371361
1204.55	0.881066
1206.17	0.863764
1207.79	0.681454
1209.4	0.79157
1211.02	1.17152
1212.63	0.58966
1214.25	0.588541
1215.86	0.0637093
1217.48	0.889363
1219.09	1.21325
1220.71	1.53635
1222.32	1.05115
1223.93	0.734471
1225.54	1.04163
1227.16	1.35061
1228.77	2.09571
1230.38	2.36664
1231.99	1.68847
1233.6	1.52909
1235.22	1.61962
1236.83	2.04269
1238.44	1.37173
1240.05	1.79742
1241.66	2.01673
1243.26	1.61492
1244.87	2.205
1246.48	1.80036
1248.09	1.93218
1249.7	1.9594
1251.31	1.73792
1252.92	2.0133
1254.52	1.68994
1256.13	2.44381
1257.74	2.47568
1259.34	1.95065
1260.95	2.19254
1262.55	2.16609
1264.16	1.93246
1265.76	2.38187
1267.37	2.10491
1268.97	2.73859
1270.58	2.8939
1272.18	2.94387
1273.78	2.45315
1275.39	2.64505
1276.99	3.29127
1278.59	1.30505
1280.2	3.04647
1281.8	2.30239
1283.4	2.38664
1285	2.84391
1286.6	1.85521
1288.2	3.08007
1289.8	2.69404
1291.4	2.6808
1293	3.26655
1294.6	2.54946
1296.2	2.92521
1297.8	2.43115
1299.4	3.00782
1301	3.41642
1302.6	3.16326
1304.19	3.36176
1305.79	2.88031
1307.39	3.15888
1308.99	2.94408
1310.58	2.81173
1312.18	2.47559
1313.77	2.91841
1315.37	2.70815
1316.96	2.39761
1318.56	2.33319
1320.15	2.85981
1321.75	2.73232
1323.34	2.62301
1324.94	3.03968
1326.53	2.53976
1328.12	3.19582
1329.72	2.71738
1331.31	2.88973
1332.9	2.8228
1334.49	2.37583
1336.08	2.61791
1337.67	3.30417
1339.27	3.40401
1340.86	2.7155
1342.45	2.52787
1344.04	1.7146
1345.63	2.82882
1347.22	2.5773
1348.8	2.68951
1350.39	1.9848
1351.98	2.40488
1353.57	2.3278
1355.16	2.71238
1356.75	2.15813
1358.33	2.72213
1359.92	2.1461
1361.51	1.5091
1363.09	1.94871
1364.68	2.06838
1366.27	2.04883
1367.85	2.26948
1369.44	0.998856
1371.02	2.03949
1372.61	1.64909
1374.19	2.09605
1375.77	1.96693
1377.36	1.34041
1378.94	1.78765
1380.52	1.43747
1382.11	2.10001
1383.69	2.34264
1385.27	2.16619
1386.85	2.42631
1388.43	1.99145
1390.02	2.09389
1391.6	2.03885
1393.18	1.96515
1394.76	1.87217
1396.34	1.81858
1397.92	2.45773
1399.5	2.36175
1401.08	2.12579
1402.65	1.61212
1404.23	1.83096
1405.81	2.6633
1407.39	2.52774
1408.97	2.07744
1410.54	2.39846
1412.12	2.38351
1413.7	2.2492
1415.27	2.21227
1416.85	2.21357
1418.43	3.21947
1420	2.60958
1421.58	2.35636
1423.15	2.42064
1424.73	3.33368
1426.3	3.08732
1427.87	2.82205
1429.45	3.2452
1431.02	3.27322
1432.6	3.49619
1434.17	3.12737
1435.74	3.0531
1437.31	3.80496
1438.89	4.08589
1440.46	4.54523
1442.03	4.02343
1443.6	4.01374
1445.17	4.14223
1446.74	4.29068
1448.31	4.0659
1449.88	4.49032
1451.45	4.24709
1453.02	4.08329
1454.59	3.97899
1456.16	4.15
1457.72	3.86734
1459.29	3.46446
1460.86	4.00343
1462.43	3.1424
1463.99	4.44256
1465.56	3.34191
1467.13	2.81158
1468.69	2.87138
1470.26	2.65775
1471.83	2.42637
1473.39	2.72621
1474.95	2.65449
1476.52	2.38734
1478.08	2.1596
1479.65	2.34345
1481.21	2.0567
1482.78	1.69151
1484.34	2.71735
1485.9	2.19465
1487.47	1.67101
1489.03	1.41984
1490.59	1.92931
1492.15	1.77018
1493.71	1.8816
1495.27	1.11235
1496.84	1.62936
1498.39	1.2108
1499.96	0.949561
1501.52	1.44747
1503.07	1.63573
1504.64	1.30175
1506.19	1.20098
1507.75	1.75697
1509.31	0.996726
1510.87	0.91188
1512.43	1.44269
1513.98	0.778444
1515.54	0.673568
1517.1	0.780935
1518.65	1.15755
1520.21	0.978703
1521.77	1.16402
1523.32	1.17641
1524.88	1.11129
1526.44	1.12116
1527.99	1.18683
1529.54	1.36563
1531.1	0.746546
1532.65	1.55186
1534.21	1.37169
1535.76	1.79867
1537.31	0.998013
1538.87	1.31352
1540.42	0.874688
1541.97	1.47286
1543.52	1.33578
1545.07	1.34907
1546.63	1.34325
1548.18	1.52482
1549.73	2.19326
1551.28	1.56871
1552.83	1.56341
1554.38	1.65293
1555.93	2.06178
1557.48	0.960814
1559.03	1.03898
1560.57	1.51143
1562.12	0.904015
1563.67	1.97708
1565.22	0.942705
1566.77	2.20352
1568.31	1.46725
1569.86	1.90621
1571.41	1.84067
1572.95	1.96138
1574.5	2.67924
1576.05	1.82908
1577.59	2.47263
1579.14	1.30587
1580.68	2.06297
1582.23	2.13042
1583.77	2.53536
1585.31	2.53048
1586.86	1.90931
1588.4	2.18558
1589.95	2.76113
1591.49	2.49408
1593.03	2.58193
1594.57	2.31353
1596.11	2.36355
1597.66	2.30174
1599.2	3.08461
1600.74	3.30642
1602.28	3.09743
1603.82	2.77545
1605.36	2.92179
1606.9	3.64875
1608.44	2.88807
1609.98	2.8005
1611.52	2.16469
1613.06	2.65335
1614.6	2.72671
1616.13	1.95543
1617.67	2.31042
1619.21	1.99228
1620.75	2.05106
1622.28	2.52362
1623.82	3.5775
1625.36	2.92768
1626.89	2.4266
1628.43	3.15864
1629.96	2.63512
1631.5	2.70868
1633.04	2.63217
1634.57	3.47088
1636.11	3.09723
1637.64	2.74394
1639.17	2.93243
1640.71	2.59897
1642.24	3.40117
1643.77	2.89757
1645.31	3.06263
1646.84	3.09596
1648.37	3.63047
1649.9	3.5707
1651.43	3.30841
1652.96	3.43776
1654.5	4.06927
1656.03	3.83017
1657.56	3.01667
1659.09	3.42494
1660.62	3.6087
1662.15	3.01306
1663.67	3.65505
1665.2	2.9654
1666.73	3.51387
1668.26	2.79074
1669.79	2.62362
1671.32	2.53249
1672.84	2.20351
1674.37	1.59908
1675.9	2.48579
1677.43	2.21134
1678.95	2.68975
1680.48	1.78725
1682	2.06069
1683.53	0.901134
1685.05	1.413
1686.58	2.25477
1688.1	1.22675
1689.63	0.951403
1691.15	1.61039
1692.68	1.28062
1694.2	1.39004
1695.72	1.79159
1697.25	1.27878
1698.77	1.56953
1700.29	1.01984
1701.81	0.433677
1703.33	1.12323
1704.86	0.73663
1706.38	1.22336
1707.9	1.52709
1709.42	1.30346
1710.94	0.735544
1712.46	0.51331
1713.98	0.255408
1715.5	0.72206
1717.02	0.771845
1718.54	0.568342
1720.06	0.780379
1721.57	0.829917
1723.09	0.555634
1724.61	0.931626
1726.13	0.426615
1727.64	0.499762
1729.16	0.17821
1730.68	0.700059
1732.19	0.271302
1733.71	0.72354
1735.23	0.617727
1736.74	0.987995
1738.26	0.836036
1739.77	0.268279
1741.29	-0.111772
1742.8	0.630763
1744.31	0.451299
1745.83	0.251657
1747.34	0.525237
1748.85	0.104021
1750.37	0.75009
1751.88	0.287732
1753.39	0.615933
1754.91	0.495253
1756.42	0.0330181
1757.93	0.799011
1759.44	0.0293837
1760.95	-0.0557976
1762.46	0.333426
1763.97	0.309779
1765.48	0.559705
1766.99	-0.0330048
1768.5	0.767631
1770.01	-0.0760422
1771.52	0.33848
1773.03	0.125766
1774.54	0.329444
1776.04	0.064105
1777.55	0.158134
1779.06	0.307265
1780.57	0.190349
1782.07	-0.150212
1783.58	0.333141
1785.09	0.0490122
1786.59	0.249625
1788.1	-0.0761633
1789.6	-0.136286
1791.11	-0.22171
1792.61	-0.216583
1794.12	0.209842
1795.62	0.286431
1797.13	0.447584
1798.63	0.113062
1800.13	0.404984
1801.64	0.467161
1803.14	0.101537
1804.64	-0.104492
1806.15	0.320225
1807.65	0.48684
1809.15	0.239744
1810.65	0.428254
1812.15	0.0672636
1813.65	0.0359764
1815.16	0.470835
1816.66	-0.132026
1818.15	0.273731
1819.66	0.410032
1821.16	0.143172
1822.65	-0.302883
1824.15	0.0144005
1825.65	0.152153
1827.15	0.336103
1828.65	0.578636
1830.15	0.100703
1831.64	-0.301353
1833.14	0.442779
1834.64	-0.0116453
1836.14	0.160783
1837.63	0.219543
1839.13	0.282653
1840.62	0.201405
1842.12	0.238564
1843.62	0.38842
1845.11	0.346521
1846.61	0.269676
1848.1	0.0402689
1849.6	-0.0272217
1851.09	-0.205838
1852.58	0.209904
1854.08	0.347836
1855.57	0.282929
1857.06	0.108774
1858.55	0.150805
1860.05	0.488485
1861.54	0.408008
1863.03	-0.245728
1864.52	-0.177767
1866.01	0.194595
1867.5	0.219529
1869	-0.291086
1870.49	0.00509357
1871.98	0.211587
1873.47	0.203491
1874.96	0.0221062
1876.44	0.155253
1877.93	-0.648894
1879.42	-0.223983
1880.91	-0.133441
1882.4	-0.0556364
1882.47	-0.051754
1883.96	0.297302
1885.46	0.0526638
1886.95	0.608392
1888.44	0.431737
1889.94	-0.0403128
1891.43	-0.232525
1892.93	0.481337
1894.42	-0.193632
1895.91	-0.136536
1897.4	0.217246
1898.89	0.0666294
1900.39	0.0713501
1901.88	0.143734
1903.37	0.613952
1904.86	0.12591
1906.35	0.210698
1907.84	-0.0693531
1909.33	0.276429
1910.82	0.46689
1912.31	-0.139608
1913.8	0.0179615
1915.29	0.0368729
1916.77	0.0900621
1918.26	-0.0654039
1919.75	0.281153
1921.24	0.0730686
1922.73	0.402367
1924.21	0.36899
1925.7	0.492802
1927.19	0.392876
1928.67	0.293744
1930.16	0.0214119
1931.64	0.0944567
1933.13	0.47747
1934.61	0.460021
1936.1	0.146386
1937.58	0.523263
1939.07	0.0523825
1940.55	0.44581
1942.04	-0.816976
1943.52	0.044425
1945	0.0784559
1946.49	0.199128
1947.97	0.00926781
1949.45	0.0770855
1950.93	-0.0973902
1952.42	0.55319
1953.9	0.170457
1955.38	0.0974255
1956.86	-0.0952806
1958.34	-0.25264
1959.82	-0.168826
1961.3	-0.0330067
1962.78	0.0686665
1964.26	0.341382
1965.74	0.236503
1967.22	-0.0231333
1968.7	0.366738
1970.18	-0.201842
1971.65	0.0157804
1973.13	0.181796
1974.61	0.21123
1976.09	-0.0148382
1977.57	-0.478851
1979.04	0.215329
1980.52	-0.31618
1982	-0.0822325
1983.47	0.303927
1984.95	0.315688
1986.42	-0.0799313
1987.9	0.236814
1989.37	0.688915
1990.85	0.0411825
1992.32	0.122622
1993.8	-0.335816
1995.27	0.271721
1996.75	-0.286304
1998.22	0.186204
1999.69	0.067009
2001.17	0.115945
2002.64	0.349777
2004.11	0.11116
2005.58	-0.110005
2007.05	0.0572596
2008.53	-0.313331
2010	0.680916
2011.47	0.564509
2012.94	0.717516
2014.41	0.365121
2015.88	0.26432
2017.35	0.196134
2018.82	-0.226012
2020.29	0.443756
2021.76	-0.062912
2023.23	0.253772
2024.7	0.084507
2026.16	0.151559
2027.63	0.404757
2029.1	0.458453
2030.57	0.295697
2032.03	0.671023
2033.5	0.241436
2034.97	0.466472
2036.44	0.708014
2037.9	0.394536
2039.37	0.38295
2040.83	0.00143814
2042.3	0.191861
2043.76	0.686003
2045.23	0.474899
2046.69	0.83691
2048.16	0.323781
2049.62	0.551307
2051.08	0.491207
2052.55	0.564147
2054.01	0.483119
2055.47	0.450573
2056.94	0.264652
2058.4	0.313796
2059.86	0.362676
2061.32	0.462489
2062.79	0.849359
2064.25	0.665074
2065.71	1.03742
2067.17	0.468376
2068.63	0.657378
2070.09	0.00516891
2071.55	-0.0915737
2073.01	0.417654
2074.47	0.84248
2075.93	0.744917
2077.39	1.23631
2078.85	0.632592
2080.31	0.752448
2081.76	1.1073
2083.22	0.85522
2084.68	1.32594
2086.13	1.07207
2087.59	1.20433
2089.05	0.848563
2090.51	1.29916
2091.96	0.288573
2093.42	0.436759
2094.87	1.32238
2096.33	0.480047
2097.78	0.994663
2099.24	0.871772
2100.69	1.43429
2102.15	0.826477
2103.6	1.02207
2105.06	1.13556
2106.51	0.983775
2107.96	1.50057
2109.42	1.26722
2110.87	1.55012
2112.32	1.3979
2113.77	1.42685
2115.23	1.33719
2116.68	1.08026
2118.13	1.33904
2119.58	2.01401
2121.03	1.74506
2122.48	1.51206
2123.93	1.87802
2125.38	1.58155
2126.83	1.45064
2128.28	2.04788
2129.73	1.6156
2131.18	1.77826
2132.63	2.02243
2134.08	1.90228
2135.53	1.99821
2136.97	1.7819
2138.42	1.83248
2139.87	2.2491
2141.32	2.08947
2142.76	2.1959
2144.21	2.98157
2145.66	3.33781
2147.1	2.31973
2148.55	2.49256
2150	2.91282
2151.44	2.53656
2152.89	3.07021
2154.33	2.98964
2155.78	3.70363
2157.22	3.4402
2158.66	3.19435
2160.11	3.03314
2161.55	3.37142
2163	2.56861
2164.44	3.3264
2165.88	3.83744
2167.32	3.41877
2168.77	3.44695
2170.21	3.48929
2171.65	3.72827
2173.09	3.19922
2174.53	3.76608
2175.97	3.28414
2177.41	3.60073
2178.85	3.15351
2180.29	2.9737
2181.73	3.17752
2183.17	2.81681
2184.61	2.97199
2186.05	3.42678
2187.49	3.18293
2188.93	2.72269
2190.37	3.19441
2191.81	3.09988
2193.24	3.35399
2194.68	2.72385
2196.12	2.87378
2197.56	2.60493
2198.99	2.26752
2200.43	2.37778
2201.87	2.4046
2203.3	1.90129
2204.74	2.82601
2206.17	2.17669
2207.61	2.32388
2209.04	2.02363
2210.48	2.07026
2211.91	2.03283
2213.35	2.01097
2214.78	2.58359
2216.21	2.29783
2217.65	2.03039
2219.08	1.6329
2220.51	1.71489
2221.95	1.87944
2223.38	1.94416
2224.81	1.80946
2226.24	1.62337
2227.67	1.5341
2229.1	1.34481
2230.54	1.3682
2231.97	1.39124
2233.4	0.890738
2234.83	1.53684
2236.26	1.13755
2237.69	0.838788
2239.11	1.60323
2240.54	1.0157
2241.97	1.31135
2243.4	1.41282
2244.83	1.59635
2246.26	1.09403
2247.69	0.214839
2249.11	0.915028
2250.54	0.829825
2251.97	1.14957
2253.4	0.979789
2254.82	0.989345
2256.25	0.708348
2257.67	0.284403
2259.1	0.723815
2260.53	0.907038
2261.95	0.606356
2263.38	0.469707
2264.8	1.06458
2266.23	0.537815
2267.65	0.790436
2269.07	1.17238
2270.5	0.837299
2271.92	0.371161
2273.34	0.784046
2274.77	0.627066
2276.19	0.551704
2277.61	0.900263
2279.03	0.906742
2280.46	0.89685
2281.88	0.0875864
2283.3	0.256692
2284.72	0.899151
2286.14	0.383269
2287.56	0.389996
2288.98	0.364561
2290.4	0.502979
2291.82	0.363936
2293.24	0.159502
2294.66	0.462068
2296.08	0.126431
2297.5	0.232577
2298.92	0.289714
2300.34	0.674895
2301.76	0.273698
2303.17	0.413807
2304.59	0.34086
2306.01	-0.0935469
2307.43	0.391373
2308.84	0.382973
2310.26	0.324559
2311.68	0.479469
2313.09	0.404057
2314.51	-0.395183
2315.92	-0.486215
2317.34	0.148386
2318.75	0.520443
2320.17	-0.0969257
2321.58	-0.0890512
2323	0.57695
2324.41	0.283177
2325.82	0.960327
2327.24	0.678443
2328.65	0.527756
2330.06	0.311529
2331.48	0.261143
2332.89	0.0639324
2334.3	-0.049921
2335.71	0.132689
2337.12	0.364077
2338.54	0.265413
2339.95	0.247695
2341.36	0.327434
2342.77	0.537753
2344.18	0.28853
2345.59	0.0890999
2347	-0.0114813
2348.41	-0.0300436
2349.82	-0.245297
2351.23	0.0293245
2352.64	0.416754
2354.04	0.2476
2355.45	0.387688
2356.86	-0.254502
2358.27	0.145615
2359.68	0.155061
2361.08	0.03475
2362.49	0.28759
2363.9	0.0214939
2365.3	0.338346
2366.71	0.283001
2368.12	0.422183
2369.52	-0.0184546
2370.93	0.0911388
2372.33	0.00875759
2373.74	-0.0724077
2375.14	-0.120853
2376.55	0.216504
2377.95	0.198565
2379.36	0.339601
2380.76	0.574806
2382.16	0.13437
2383.57	-0.161954
2384.97	0.565913
2386.37	0.541535
2387.78	0.422477
2389.18	0.0817995
2390.58	0.651237
2391.98	-0.0206051
2393.38	-0.117664
2394.79	0.27933
2396.19	0.358829
2397.59	0.0416756
2398.99	0.0431261
2400.39	0.108675
2401.79	-0.0478106
2403.19	0.0975485
2404.59	0.448883
2405.99	0.656215
2407.39	-0.311885
2408.78	0.337697
2410.18	0.257052
2411.58	0.113338
2412.98	0.129004
2414.38	-0.281412
2415.77	0.0539446
2417.17	-0.131675
2418.57	-0.268817
2419.97	0.132873
2421.36	0.281156
2422.76	0.175618
2424.15	0.434143
2425.55	0.106468
2426.95	-0.125659
2428.34	0.134484
2429.74	0.475156
2431.13	0.483735
2432.52	0.905253
2433.92	0.913642
2435.31	0.126399
2436.71	0.512906
2438.1	0.0556202
2439.49	0.264153
2440.89	0.0109987
2442.28	0.297123
2443.67	-0.0361652
2445.06	0.53472
2446.46	0.106092
2447.85	0.10557
2449.24	0.374307
2450.63	0.548052
2452.02	0.453187
2453.41	-0.0521412
2454.8	0.0290546
2456.19	0.395738
2457.58	0.0193033
2458.97	0.212166
2460.36	0.135509
2461.75	0.200288
2463.14	-0.210038
2464.53	-0.130934
2465.92	-0.257545
2467.31	0.0104809
2468.69	0.0257483
2470.08	0.119637
2471.47	-0.338764
2472.86	0.0375566
2474.24	-0.45329
2475.63	-0.189056
2477.02	-0.145704
2478.4	0.133076
2479.79	-0.0121193
2481.17	0.188063
2482.56	-0.00383186
2483.94	0.727715
2485.33	-0.107077
2486.72	-0.222739
2488.1	0.0507917
2489.48	-0.0824032
2490.87	-0.277706
2492.25	0.00990963
2493.64	0.220356
2495.02	0.137112
2496.4	-0.130584
2497.79	0.346555
2499.17	-0.182755
2500.55	0.355601
2501.93	0.227689
2503.31	0.206987
2504.69	-0.308299
2506.08	0.101333
2507.46	0.494371
2508.84	0.702166
2510.22	0.218892
2511.6	-0.20132
2512.98	-0.083396
2514.36	0.479446
2515.74	-0.151434
2517.12	-0.306456
2518.5	-0.292539
2519.88	0.118869
2521.25	0.361563
2522.63	0.252184
2524.01	-0.559618
2525.39	0.0769091
2526.77	0.285702
2528.14	-0.0532026
2529.52	0.248194
2530.9	-0.117754
2532.27	0.0957861
2533.65	-0.342542
2535.03	0.00999069
2536.4	0.104216
2537.78	0.243288
2539.15	0.0319414
2540.53	0.427096
2541.9	0.36622
2543.28	0.0932455
2544.65	0.018527
2546.03	-0.161023
2547.4	0.161314
2548.77	0.439161
2550.15	0.201315
2551.52	0.600278
2552.89	-0.170338
2554.27	0.287154
2555.64	-0.197175
2557.01	0.137164
2558.38	0.516634
2559.75	0.395922
2561.12	0.442576
2562.5	0.565717
2563.87	0.401589
2565.24	0.328886
2566.61	0.635324
2567.98	0.578165
2569.35	0.339139
2570.72	0.206173
2572.09	0.0277596
2573.46	-0.044486
2574.83	0.24719
2576.19	-0.0978155
2577.56	0.330314
2578.93	0.151722
2580.3	-0.0727568
2581.67	-0.297683
2583.04	-0.00749588
2584.4	-0.157273
2585.77	0.344711
2587.14	0.2556
2588.5	0.363732
2589.87	0.0779591
2591.23	0.655847
2592.6	0.202773
2593.97	-0.084403
2595.33	0.611794
2596.7	0.0347643
2598.06	0.168448
2599.43	0.225935
2600.79	-0.184978
2602.15	0.145096
2603.52	0.20386
2604.88	0.142487
2606.25	-0.0543718
2607.61	-0.0403175
2608.97	0.28933
2610.33	0.0298357
2611.7	-0.0802441
2613.06	0.199534
2614.42	0.117375
2615.78	-0.145014
2617.15	0.0580664
2618.51	0.575913
2619.87	0.375449
2621.23	0.0266094
2622.59	-0.0671253
2623.95	0.0933743
2625.31	0.432682
2626.67	-0.0042038
2628.03	0.125419
2629.39	0.433182
2630.75	0.115321
2632.1	0.288425
2633.46	0.149248
2634.82	-0.242068
2636.18	0.182879
2637.54	0.370021
2638.89	-0.0205488
2640.25	0.344194
2641.61	0.0433893
2642.97	0.0831079
2644.32	0.196775
2645.68	0.088912
2647.03	0.481994
2648.39	0.402318
2649.75	0.0863867
2651.1	0.152526
2652.46	-0.325239
2653.81	0.0784578
2655.17	-0.0162058
2656.52	0.241979
2657.88	0.501074
2659.23	-0.175349
2660.58	0.260632
2661.94	0.242988
2663.29	0.0494328
2664.64	-0.378322
2666	0.141785
2667.35	0.369051
2668.7	0.290016
2670.05	0.0513363
2671.4	-0.0410242
2672.76	0.332389
2674.11	0.459167
2675.46	0.165535
2676.81	0.554698
2678.16	0.306146
2679.51	0.0151596
2680.86	0.435807
2682.21	-0.244123
2683.56	0.121128
2684.91	0.168491
2686.26	0.535638
2687.61	-0.0115185
2688.96	0.194683
2690.3	0.253893
2691.65	-0.0663214
2693	0.25036
2694.35	-0.0869093
2695.7	-0.00376892
2697.04	-0.0504599
2698.39	0.106979
2699.74	0.0634565
2701.08	0.354896
2702.43	0.155647
2703.77	-0.172976
2705.12	-0.0953951
2706.47	0.22889
2707.81	0.321016
2709.16	0.412762
2710.5	0.489613
2711.85	0.101343
2713.19	-0.0112495
2714.53	-0.138528
2715.88	0.373799
2717.22	0.260872
2718.57	0.103951
2719.91	-0.0243444
2721.25	0.0069046
2722.59	0.0958462
2723.94	-0.266947
2725.28	0.257668
2726.62	-0.00414276
2727.96	-0.295382
2729.3	0.664665
2730.65	0.169259
2731.99	0.0230961
2733.33	0.284364
2734.67	-0.094244
2736.01	0.501904
2737.35	0.138239
2738.69	-0.0799818
2740.03	0.210538
2741.37	0.456851
2742.71	-0.0245094
2744.05	-0.0122719
2745.38	0.0283222
2746.72	0.12649
2748.06	-0.0224171
2749.4	0.235093
2750.74	0.347562
2752.07	0.373239
2753.41	0.268714
2754.75	-0.37162
2756.09	-0.0120354
2757.42	0.333023
2758.76	0.866361
2760.09	0.227577
2761.43	-0.00526428
2762.77	0.06633
2764.1	-0.223462
2765.44	0.297002
2766.77	0.325018
2768.11	-0.284418
2769.44	0.0015974
2770.77	0.256868
2772.11	-0.226224
2773.44	0.430229
2774.77	0.248729
2776.11	0.00985241
2777.44	-0.400932
2778.77	0.0092144
2780.11	0.333094
2781.44	-0.247849
2782.77	0.0618677
2784.1	0.0412436
2785.43	-0.0653887
2786.77	-0.615722
2788.1	-0.406206
2789.43	0.404808
2790.76	0.0147429
2792.09	-0.202624
2793.42	-0.433676
2794.75	0.235825
2796.08	-0.0241013
2797.41	0.244025
2798.74	0.125812
2800.07	-0.192609
2801.4	0.259296
2802.72	-0.144956
2804.05	-0.135803
2805.38	0.171967
2806.71	-0.218758
2808.04	-0.168714
2809.36	0.179235
2810.69	-0.0130024
2812.02	-0.133373
2813.34	-0.138931
2814.67	0.239863
2816	0.308208
2817.32	0.363641
2818.65	0.207152
2819.97	0.532598
2821.3	0.262263
2822.62	0.161283
2823.95	0.413832
2825.27	0.0992718
2826.6	0.153084
2827.92	0.0375233
2829.25	0.0217056
2830.57	0.586791
2831.89	0.444304
2833.22	0.0752954
2834.54	0.640149
2835.86	0.609949
2837.18	0.862137
2838.51	1.01468
2839.83	0.869903
2841.15	1.19187
2842.47	1.38694
2843.79	1.8371
2845.11	1.62382
2846.43	2.23099
2847.76	2.2592
2849.08	2.37226
2850.4	2.01854
2851.72	2.07413
2853.04	2.51068
2854.36	2.39555
2855.67	2.46389
2856.99	2.94185
2858.31	3.33498
2859.63	2.93713
2860.95	2.92044
2862.27	3.35512
2863.58	3.49276
2864.9	3.65819
2866.22	3.8376
2867.54	4.41212
2868.85	3.99995
2870.17	4.1383
2871.49	4.34731
2872.8	4.24587
2874.12	3.74902
2875.43	4.57517
2876.75	4.85017
2878.07	4.85644
2879.38	4.5107
2880.7	4.34844
2882.01	4.7072
2883.32	5.13726
2884.64	5.04884
2885.95	5.08764
2887.27	5.16864
2888.58	5.85242
2889.89	5.52478
2891.21	5.37852
2892.52	5.55388
2893.83	5.8269
2895.14	5.69407
2896.46	5.59044
2897.77	6.06202
2899.08	6.43688
2900.39	7.1905
2901.7	6.60179
2903.01	6.82476
2904.32	6.82412
2905.63	7.14558
2906.94	7.24403
2908.25	7.38561
2909.56	7.48648
2910.87	7.70019
2912.18	8.79586
2913.49	8.26685
2914.8	9.27577
2916.11	9.42805
2917.42	9.75977
2918.72	9.30621
2920.03	9.49602
2921.34	10.19
2922.65	10.3404
2923.95	10.4371
2925.26	10.6474
2926.57	10.4254
2927.88	10.6508
2929.18	10.8897
2930.49	11.0857
2931.79	11.1692
2933.1	11.2522
2934.4	10.8599
2935.71	10.6775
2937.01	11.1662
2938.32	10.5651
2939.62	10.4816
2940.93	10.6503
2942.23	9.50683
2943.54	10.1678
2944.84	9.82467
2946.14	8.97963
2947.45	8.68054
2948.75	8.18497
2950.05	8.86355
2951.35	7.77549
2952.66	7.80483
2953.96	7.58014
2955.26	7.88686
2956.56	7.52285
2957.86	7.94553
2959.16	6.7061
2960.46	7.38864
2961.77	7.03763
2963.07	6.28047
2964.37	6.5885
2965.66	6.7686
2966.96	5.65364
2968.26	5.40769
2969.56	5.09028
2970.86	5.47581
2972.16	5.42579
2973.46	5.77026
2974.76	4.94662
2976.06	4.60051
2977.35	5.04124
2978.65	4.50824
2979.95	4.26878
2981.25	4.52025
2982.54	3.9831
2983.84	4.22006
2985.14	4.20525
2986.43	3.60225
2987.73	3.47901
2989.02	2.94955
2990.32	2.89823
2991.62	2.81828
2992.91	2.45602
2994.21	2.7668
2995.5	2.40182
2996.8	2.44337
2998.09	2.35832
2999.38	1.71256
3000.68	2.04948
3001.97	1.54589
3003.26	1.2113
3004.56	1.35336
3005.85	1.52308
3007.14	1.45403
3008.43	0.964352
3009.73	1.20134
3011.02	1.03195
3012.31	0.932133
3013.6	1.09754
3014.89	0.621947
3016.19	0.621487
3017.48	0.733291
3018.77	0.455993
3020.06	0.0122604
3021.35	0.333076
3022.64	0.485922
3023.93	0.235024
3025.22	0.094677
3026.5	-0.0179243
3027.79	0.119284
3029.08	0.395741
3030.37	0.217545
3031.66	0.19315
3032.95	0.128599
3034.24	-0.252892
3035.52	0.262124
3036.81	0.0859098
3038.1	0.0733824
3039.39	0.127691
3040.67	-0.575772
3041.96	0.341355
3043.25	0.0771179
3044.53	0.211514
3045.82	0.0602922
3047.1	0.0893784
3048.39	-0.247591
3049.67	-0.158839
3050.96	0.231864
3052.24	0.118602
3053.53	-0.1719
3054.81	0.137339
3056.1	0.213518
3057.38	0.343034
3058.67	0.485208
3059.95	0.69501
3061.23	0.374308
3062.52	0.639931
3063.8	0.0775537
3065.08	0.115348
3066.36	0.644162
3067.65	0.372092
3068.93	0.0596714
3070.21	-0.103415
3071.49	0.303912
3072.77	0.0435839
3074.05	0.203536
3075.33	0.321615
3076.61	0.194805
3077.89	0.136483
3079.17	0.337232
3080.45	0.173336
3081.73	0.0791149
3083.01	0.230524
3084.29	0.0164871
3085.57	-0.197451
3086.85	0.321127
3088.13	0.03825
3089.41	0.0668802
3090.68	-0.0948887
3091.96	-0.0260372
3093.24	-0.0383549
3094.52	-0.0231333
3095.79	-0.183784
3097.07	-0.22217
3098.35	0.105434
3099.62	0.0263433
3100.9	0.0014801
3102.18	0.16638
3103.45	0.0878792
3104.73	-0.314789
3106	0.257947
3107.28	0.141499
3108.55	0.039794
3109.83	0.0611248
3111.1	-0.349659
3112.38	-0.231565
3113.65	-0.0450625
3114.93	0.331488
3116.2	0.111258
3117.47	-0.231938
3118.75	0.318975
3120.02	0.177121
3121.29	0.251362
3122.57	0.284365
3123.84	0.276591
3125.11	0.390987
3126.38	0.492322
3127.65	0.810806
3128.92	0.0748343
3130.2	0.462074
3131.47	0.308633
3132.74	0.344481
3134.01	0.461086
3135.28	0.752657
3136.55	0.544181
3137.82	0.510844
3139.09	0.531175
3140.36	0.605252
3141.63	0.437321
3142.9	0.88823
3144.17	0.0904827
3145.43	0.421631
3146.7	0.525291
3147.97	0.549288
3149.24	1.00246
