200.554	-0.31498
202.369	-0.290249
204.183	-0.263853
205.999	0.858387
207.813	0.181049
209.626	0.305408
211.439	0.355127
213.253	0.718393
215.065	0.739941
216.877	0.833336
218.688	0.393955
220.5	0.706448
222.312	0.560476
224.123	0.778683
225.933	-0.0415573
227.742	-0.329586
229.552	0.154728
231.361	0.444723
233.171	0.4687
234.98	0.372696
236.787	0.688555
238.595	1.0799
240.402	0.583389
242.209	0.451826
244.015	0.587528
245.822	1.10934
247.627	0.856453
249.435	0.599247
251.24	0.457905
253.045	0.626209
254.849	0.743509
256.653	0.136875
258.457	-0.250963
260.26	0.0867176
262.063	1.02943
263.866	0.842484
265.668	0.777622
267.47	0.255331
269.271	0.865297
271.073	0.220501
272.873	0.490028
274.674	0.974358
276.474	1.0462
278.274	1.5729
280.073	1.277
281.872	0.713421
283.671	0.436365
285.47	0.806288
287.268	1.2463
289.065	0.990204
290.863	1.0712
292.66	0.651581
294.456	0.593821
296.253	-0.0114441
298.049	0.460867
299.844	1.14865
301.637	-0.218377
303.432	0.610792
305.227	0.983898
307.021	0.973581
308.815	0.629261
310.609	0.000329971
312.402	0.77895
314.195	1.55979
315.987	1.29588
317.777	0.606151
319.569	0.871464
321.36	0.399966
323.151	0.382313
324.942	0.938021
326.733	0.372341
328.521	-0.576743
330.31	0.623682
332.1	0.65152
333.889	0.00673199
335.677	-0.139058
337.464	0.405627
339.252	0.468502
341.039	0.52896
342.826	0.970602
344.611	0.0260391
346.398	0.014514
348.184	0.577122
349.97	-0.0533733
351.754	0.724573
353.539	0.689989
355.324	0.295948
357.106	0.210126
358.89	0.384486
360.674	1.00931
362.455	0.632372
364.239	0.231064
366.021	0.637015
367.804	1.13593
369.584	0.470704
371.366	0.302878
373.145	0.228971
374.926	0.201937
376.707	0.458343
378.485	-0.0394783
380.265	0.17179
382.045	0.384496
383.822	0.152018
385.601	0.227418
387.378	0.328122
389.156	0.407022
390.934	-0.475516
392.71	0.122882
394.487	0.252496
396.262	0.570556
398.038	0.935792
399.813	1.20683
401.588	0.279305
403.362	0.33727
405.137	0.253181
406.912	0.825481
408.685	-0.0120163
410.459	0.065794
412.23	0.847697
414.004	-0.0124636
415.775	0.325274
417.548	-0.0865726
419.318	0.652367
421.089	1.22761
422.86	0.816714
424.63	0.404591
426.401	0.437076
428.17	0.538689
429.94	0.12319
431.708	0.505755
433.478	1.07657
435.245	0.310184
437.012	-0.315439
438.781	0.231331
440.547	0.587981
442.315	0.495598
444.081	0.0482988
445.846	1.05109
447.613	0.131253
449.378	0.217834
451.142	0.678243
452.908	0.974998
454.672	0.688557
456.435	0.588992
458.2	0.419509
459.963	0.180646
461.725	-0.359042
463.489	0.0339432
465.251	-0.197032
467.012	0.412848
468.775	0.0741386
470.536	-0.610925
472.296	0.216642
474.056	-0.143461
475.817	0.425113
477.576	0.221901
479.335	-0.403415
481.094	1.08952
482.854	0.626155
484.612	0.816882
486.37	0.405052
488.127	0.392487
489.886	0.243148
491.642	0.0485039
493.398	0.602228
495.154	1.04036
496.91	-0.112679
498.667	0.62967
500.422	0.457994
502.176	1.57597
503.93	0.0164557
505.684	0.968003
507.438	0.366364
509.191	-0.23817
510.946	0.448718
512.698	0.850964
514.45	0.450843
516.202	1.22494
517.954	1.26768
519.705	0.885647
521.456	0.737744
523.206	1.24678
524.956	0.417167
526.706	0.948983
528.456	0.870712
530.207	0.628309
531.956	1.08815
533.704	0.188592
535.452	0.73856
537.2	0.654488
538.947	1.59554
540.694	0.247443
542.441	0.694647
544.188	0.907585
545.934	0.817952
547.68	1.05374
549.425	0.848984
551.17	0.992378
552.915	0.557545
554.659	0.79401
556.403	0.407254
558.145	0.344747
559.889	0.121874
561.632	0.268568
563.375	0.323945
565.117	0.334208
566.859	0.0698547
568.601	0.312138
570.342	0.78535
572.083	0.572258
573.824	0.293077
575.565	-0.166842
577.303	0.936019
579.043	0.480719
580.782	0.118072
582.521	0.398639
584.26	0.885539
585.998	1.3482
587.734	0.198762
589.472	0.565546
591.21	0.171695
592.947	0.145195
594.684	0.0264616
596.418	-0.0461559
598.154	0.45635
599.89	0.245083
601.626	0.0555573
603.361	0.278117
605.094	0.0155344
606.828	-0.156868
608.562	0.496422
610.296	0.116052
612.027	0.0809717
613.761	-0.0904055
615.493	0.151921
617.224	0.325596
618.956	1.02503
620.688	0.0282621
622.419	0.197371
624.149	0.639292
625.879	0.486745
627.61	0.40464
629.338	0.257306
631.068	0.0680704
632.797	0.361179
634.525	0.0397215
636.254	0.311107
637.98	0.214578
639.708	-0.000206947
641.436	-0.196481
643.162	-0.0314417
644.889	0.313622
646.614	-0.728853
648.34	-0.289397
650.067	0.267942
651.791	0.376613
653.516	0.468647
655.239	-0.275753
656.964	0.325401
658.687	0.70123
660.411	0.255642
662.133	-0.307464
663.857	-0.234931
665.58	0.0855904
667.301	0.12905
669.024	0.262961
670.744	0.878617
672.464	0.23903
674.186	0.0604868
675.905	0.18283
677.626	-0.220485
679.345	-0.0502424
681.065	-0.180034
682.783	0.584584
684.503	-0.333543
686.22	0.0111561
687.939	0.0542984
689.656	0.0498047
691.372	0.113337
693.09	0.198957
694.806	-0.0850725
696.523	-0.0711422
698.239	0.608613
699.953	0.0894299
701.67	-0.407969
703.384	-0.055769
705.098	-0.00362778
706.813	0.277149
708.526	-0.108097
710.239	0.743952
711.954	-0.122908
713.666	-0.256783
715.378	1.23174
717.091	0.480104
718.802	0.847693
720.513	-0.448768
722.226	0.648143
723.936	0.264448
725.646	-0.00510693
727.355	-0.092927
729.067	-0.135835
730.776	0.478122
732.484	0.25241
734.192	0.660338
735.902	0.0504942
737.61	0.300437
739.317	0.753974
741.024	0.396786
742.731	0.650117
744.439	0.2298
746.145	0.532089
747.851	0.678776
749.556	0.535005
751.262	0.730579
752.966	0.230826
754.673	0.205418
756.377	0.22718
758.081	0.251204
759.784	0.637851
761.487	0.959022
763.19	0.830147
764.892	0.76838
766.594	0.930772
768.296	1.33925
770	0.862845
771.701	1.01647
773.402	1.95949
775.102	1.02504
776.803	2.14908
778.503	1.17236
780.202	1.44155
781.901	1.8483
783.6	1.46337
785.299	0.850082
786.997	1.11601
788.695	0.585109
790.393	1.54274
792.09	1.7492
793.787	1.43361
795.484	1.07317
797.18	1.3233
798.877	0.832366
800.572	1.15498
802.268	1.02939
803.963	1.71445
805.658	1.02746
807.35	0.699351
809.044	1.04356
810.738	1.69976
812.432	1.7482
814.125	1.88533
815.818	1.59655
817.51	1.26347
819.202	0.998109
820.894	0.845093
822.584	1.67464
824.275	1.27792
825.966	0.861589
827.657	1.51795
829.347	1.26505
831.037	0.682605
832.725	0.972865
834.414	1.97976
836.103	1.31638
837.792	1.41068
839.481	1.30235
841.167	1.05754
842.854	1.14581
844.542	0.875912
846.229	1.0093
847.914	1.36903
849.6	1.97896
851.287	1.87703
852.973	2.31584
854.656	1.81447
856.341	1.91823
858.026	2.33522
859.711	1.82763
861.393	1.13636
863.077	1.02765
864.761	1.34516
866.442	1.72915
868.125	1.79666
869.808	1.61542
871.489	1.0276
873.171	1.63502
874.85	0.21175
876.532	1.42846
878.213	1.53959
879.892	0.95081
881.572	1.69327
883.251	0.967264
884.931	1.72951
886.61	0.909522
888.287	1.509
889.966	1.45158
891.643	1.30181
893.321	0.249466
894.997	1.6946
896.675	0.662836
898.352	1.33821
900.028	1.20326
901.704	1.31381
903.379	0.57304
905.055	0.638318
906.729	0.681522
908.404	0.747844
910.077	0.882159
911.75	0.416914
913.425	0.9314
915.097	0.646151
916.771	0.849481
918.443	0.719939
920.116	0.989333
921.787	1.2149
923.46	1.55235
925.13	0.986249
926.8	1.17424
928.472	1.23219
930.141	1.04925
931.813	1.63958
933.481	1.32569
935.15	0.968049
936.82	0.567041
938.488	1.15984
940.156	0.387053
941.825	0.740907
943.492	-0.161816
945.158	1.05363
946.827	1.20815
948.493	0.54314
950.158	1.59686
951.824	0.684683
953.491	-0.0723486
955.156	0.319931
956.82	0.936762
958.486	0.742544
960.15	1.50142
961.814	1.26959
963.477	1.61186
965.142	0.801696
966.804	0.495624
968.467	0.273824
970.129	0.712721
971.79	0.619412
973.454	0.018261
975.115	0.326036
976.776	0.857677
978.436	0.639597
980.096	0.267426
981.756	-0.105599
983.417	0.825392
985.077	0.668787
986.736	0.553378
988.394	0.922101
990.052	0.78005
991.71	1.21178
993.368	0.273437
995.025	0.704885
996.682	1.13601
998.341	1.01538
999.998	2.48104
1001.65	1.65406
1003.31	0.739455
1004.97	1.49688
1006.62	0.341308
1008.28	0.878377
1009.93	-0.07693
1011.58	-0.109312
1013.24	-0.0533276
1014.89	-0.106356
1016.54	0.0820694
1018.2	0.949329
1019.85	0.373592
1021.5	0.0622129
1023.16	0.233494
1024.81	-0.0746889
1026.46	0.688765
1028.11	1.0369
1029.76	0.772239
1031.41	0.898923
1033.06	1.7216
1034.71	1.53723
1036.36	1.52533
1038.01	1.51219
1039.66	1.60782
1041.31	1.85665
1042.95	1.75951
1044.6	2.29537
1046.25	2.72545
1047.9	2.05097
1049.54	2.0959
1051.19	2.36009
1052.84	1.58287
1054.48	1.56643
1056.13	1.28914
1057.77	1.48952
1059.42	1.10213
1061.06	1.21376
1062.71	1.62859
1064.35	1.80273
1066	1.6273
1067.64	0.385278
1069.28	1.81479
1070.93	1.07056
1072.57	0.32683
1074.21	0.452365
1075.85	0.622766
1077.49	0.426424
1079.13	0.947578
1080.78	0.363901
1082.42	0.690897
1084.06	1.29832
1085.7	0.884161
1087.34	1.03047
1088.97	0.112461
1090.61	1.01056
1092.25	1.51623
1093.89	1.17803
1095.53	0.646633
1097.17	0.527041
1098.8	0.000466347
1100.44	0.0583887
1102.08	1.68986
1103.71	0.827658
1105.35	0.699087
1106.99	0.829449
1108.62	0.572167
1110.26	0.657288
1111.89	0.976348
1113.52	0.497847
1115.16	0.68351
1116.79	0.546295
1118.43	0.666709
1120.06	0.723769
1121.69	1.31758
1123.32	1.46306
1124.96	1.24627
1126.59	1.45875
1128.22	1.80068
1129.85	0.390383
1131.48	1.67503
1133.11	0.629771
1134.75	1.44411
1136.37	0.333703
1138	0.183661
1139.63	0.480463
1141.26	0.519325
1142.89	0.173326
1144.52	-0.236059
1146.15	-0.260316
1147.78	0.27091
1149.4	0.547425
1151.03	0.0577183
1152.66	0.52647
1154.28	0.462223
1155.91	0.163298
1157.54	-0.114325
1159.16	0.587164
1160.79	-0.071312
1162.41	0.590317
1164.04	-0.0435934
1165.66	-0.102724
1167.29	0.475558
1168.91	-0.308494
1170.53	0.0104809
1172.16	0.390087
1173.78	-0.337351
1175.4	-0.386672
1177.02	-0.245841
1178.65	0.403447
1180.27	0.142702
1181.89	1.1105
1183.51	0.386892
1185.13	0.128923
1186.75	0.482137
1188.37	0.00953388
1189.99	0.0196428
1191.61	0.637412
1193.23	-0.157177
1194.85	0.665721
1196.47	0.165716
1198.08	0.212843
1199.7	0.325229
1201.32	0.211107
1202.94	0.456066
1204.55	0.996817
1206.17	0.47638
1207.79	1.04287
1209.4	0.253714
1211.02	0.527155
1212.63	0.88123
1214.25	-0.0186386
1215.86	0.911641
1217.48	0.54795
1219.09	0.183493
1220.71	1.31421
1222.32	0.370048
1223.93	1.37711
1225.54	0.252427
1227.16	0.35227
1228.77	0.350652
1230.38	0.9298
1231.99	0.270203
1233.6	0.170649
1235.22	0.589599
1236.83	1.50644
1238.44	0.895273
1240.05	0.925857
1241.66	1.59791
1243.26	1.04907
1244.87	1.18167
1246.48	0.754024
1248.09	1.95954
1249.7	1.40505
1251.31	0.726129
1252.92	1.41292
1254.52	1.06655
1256.13	1.07346
1257.74	1.51668
1259.34	1.96187
1260.95	1.08389
1262.55	1.46916
1264.16	1.35753
1265.76	1.59745
1267.37	1.35961
1268.97	0.747018
1270.58	1.54265
1272.18	1.3
1273.78	1.40824
1275.39	1.53565
1276.99	2.01383
1278.59	2.20039
1280.2	1.03999
1281.8	1.41166
1283.4	1.45221
1285	1.41086
1286.6	2.05311
1288.2	1.99395
1289.8	2.0189
1291.4	2.27189
1293	2.9172
1294.6	3.10659
1296.2	2.57088
1297.8	3.16827
1299.4	2.33876
1301	3.23961
1302.6	2.09779
1304.19	3.17896
1305.79	2.05717
1307.39	2.23063
1308.99	2.09557
1310.58	1.67392
1312.18	2.15448
1313.77	2.41033
1315.37	2.07476
1316.96	2.23121
1318.56	2.34746
1320.15	3.2991
1321.75	1.98674
1323.34	1.7935
1324.94	1.8622
1326.53	2.19248
1328.12	1.79129
1329.72	2.2829
1331.31	1.72431
1332.9	2.16032
1334.49	1.93288
1336.08	1.78891
1337.67	1.58536
1339.27	2.04607
1340.86	2.26183
1342.45	1.66894
1344.04	1.45616
1345.63	2.50696
1347.22	1.35007
1348.8	2.76209
1350.39	2.01414
1351.98	1.77123
1353.57	1.89156
1355.16	2.27361
1356.75	1.89667
1358.33	1.5392
1359.92	2.53833
1361.51	1.77854
1363.09	1.05816
1364.68	2.01267
1366.27	1.8906
1367.85	1.71021
1369.44	2.22856
1371.02	1.8533
1372.61	1.7788
1374.19	1.7458
1375.77	1.31585
1377.36	1.9804
1378.94	1.68899
1380.52	1.99292
1382.11	1.89684
1383.69	1.97774
1385.27	1.69928
1386.85	2.29451
1388.43	2.55188
1390.02	0.984009
1391.6	2.31562
1393.18	1.08867
1394.76	1.90563
1396.34	2.22617
1397.92	1.73266
1399.5	2.48623
1401.08	2.60385
1402.65	2.02763
1404.23	2.91595
1405.81	2.24217
1407.39	1.6692
1408.97	3.8443
1410.54	2.38449
1412.12	2.5841
1413.7	1.97329
1415.27	3.27535
1416.85	3.01686
1418.43	3.03398
1420	2.6577
1421.58	3.20899
1423.15	3.97908
1424.73	3.57079
1426.3	3.32211
1427.87	3.94031
1429.45	4.12497
1431.02	4.05214
1432.6	3.95763
1434.17	5.14023
1435.74	3.86307
1437.31	5.00531
1438.89	5.42104
1440.46	4.52169
1442.03	4.9016
1443.6	4.83072
1445.17	4.99635
1446.74	5.28026
1448.31	5.01408
1449.88	4.84669
1451.45	4.85703
1453.02	4.14066
1454.59	4.25077
1456.16	4.43952
1457.72	4.31229
1459.29	4.55671
1460.86	4.62093
1462.43	3.54078
1463.99	3.36324
1465.56	3.53786
1467.13	3.27958
1468.69	2.78663
1470.26	3.13943
1471.83	2.84645
1473.39	2.55535
1474.95	2.65776
1476.52	2.19221
1478.08	2.41307
1479.65	1.94769
1481.21	2.26624
1482.78	1.60473
1484.34	1.88368
1485.9	1.6526
1487.47	2.14503
1489.03	1.79317
1490.59	1.51701
1492.15	1.7657
1493.71	1.50276
1495.27	1.86191
1496.84	0.991109
1498.39	0.842171
1499.96	1.18028
1501.52	1.73274
1503.07	0.637553
1504.64	0.805037
1506.19	0.740282
1507.75	0.868055
1509.31	1.16786
1510.87	0.924983
1512.43	0.48873
1513.98	0.861331
1515.54	0.771992
1517.1	0.606983
1518.65	0.711946
1520.21	0.951619
1521.77	1.57372
1523.32	0.989827
1524.88	1.20783
1526.44	0.317937
1527.99	0.571446
1529.54	1.2227
1531.1	0.638079
1532.65	0.39712
1534.21	0.745072
1535.76	1.52872
1537.31	1.34852
1538.87	1.2641
1540.42	0.935288
1541.97	1.28536
1543.52	1.4464
1545.07	1.02401
1546.63	0.865053
1548.18	0.762475
1549.73	0.56634
1551.28	1.1947
1552.83	1.99098
1554.38	0.638055
1555.93	1.30627
1557.48	1.43501
1559.03	1.38002
1560.57	1.02944
1562.12	1.53938
1563.67	1.67787
1565.22	1.16416
1566.77	1.88209
1568.31	0.789425
1569.86	1.59985
1571.41	2.12981
1572.95	1.42732
1574.5	1.95664
1576.05	1.60864
1577.59	1.27961
1579.14	1.11917
1580.68	0.884927
1582.23	1.66025
1583.77	1.5218
1585.31	2.20667
1586.86	1.93929
1588.4	2.2517
1589.95	1.6471
1591.49	2.18323
1593.03	2.30702
1594.57	2.59904
1596.11	2.92878
1597.66	2.45347
1599.2	1.90386
1600.74	2.0489
1602.28	2.04461
1603.82	2.32192
1605.36	3.0305
1606.9	2.36543
1608.44	2.27966
1609.98	1.79562
1611.52	2.15376
1613.06	2.28326
1614.6	2.12913
1616.13	2.64976
1617.67	1.63356
1619.21	1.98785
1620.75	2.00703
1622.28	1.24187
1623.82	1.91964
1625.36	1.88591
1626.89	1.85097
1628.43	1.92631
1629.96	2.09297
1631.5	2.76247
1633.04	1.9364
1634.57	2.15713
1636.11	2.17365
1637.64	2.35941
1639.17	2.4341
1640.71	2.19192
1642.24	1.72538
1643.77	2.46785
1645.31	2.03532
1646.84	2.32717
1648.37	2.22795
1649.9	2.42661
1651.43	1.56883
1652.96	1.9194
1654.5	2.27132
1656.03	2.08642
1657.56	2.4388
1659.09	1.58582
1660.62	1.76831
1662.15	1.43046
1663.67	1.7569
1665.2	1.9527
1666.73	1.37369
1668.26	2.03274
1669.79	1.99284
1671.32	1.73412
1672.84	1.71664
1674.37	1.92079
1675.9	0.927769
1677.43	1.38807
1678.95	0.816266
1680.48	1.34665
1682	1.89368
1683.53	0.456481
1685.05	0.801182
1686.58	1.65941
1688.1	0.28132
1689.63	1.01185
1691.15	0.71666
1692.68	0.842756
1694.2	0.986905
1695.72	1.14892
1697.25	0.451632
1698.77	0.375487
1700.29	1.01053
1701.81	1.22451
1703.33	1.25508
1704.86	1.08446
1706.38	1.11357
1707.9	0.106047
1709.42	0.553146
1710.94	0.146695
1712.46	0.774667
1713.98	0.532229
1715.5	0.127342
1717.02	0.28371
1718.54	0.0239592
1720.06	0.45069
1721.57	0.660465
1723.09	0.834691
1724.61	1.20833
1726.13	-0.0730877
1727.64	0.718475
1729.16	0.467216
1730.68	0.772857
1732.19	0.486817
1733.71	0.886552
1735.23	0.110234
1736.74	0.877448
1738.26	0.153885
1739.77	0.308853
1741.29	0.654875
1742.8	0.473036
1744.31	0.539009
1745.83	0.514989
1747.34	0.301187
1748.85	0.414183
1750.37	0.361243
1751.88	0.386488
1753.39	0.330386
1754.91	0.5236
1756.42	0.04459
1757.93	0.483897
1759.44	0.286967
1760.95	0.184361
1762.46	0.192854
1763.97	-0.23538
1765.48	-0.0395927
1766.99	0.0993834
1768.5	0.331589
1770.01	0.0764532
1771.52	-0.11164
1773.03	0.231223
1774.54	0.0472755
1776.04	-0.109472
1777.55	-0.165792
1779.06	0.240129
1780.57	0.269363
1782.07	0.106744
1783.58	-0.0891142
1785.09	-0.0918512
1786.59	0.0452671
1788.1	0.217867
1789.6	-0.157752
1791.11	0.291835
1792.61	-0.126678
1794.12	0.418496
1795.62	0.218055
1797.13	-0.0734434
1798.63	0.342772
1800.13	0.0457306
1801.64	0.534487
1803.14	0.04284
1804.64	0.0929337
1806.15	-0.141953
1807.65	-0.189193
1809.15	0.299087
1810.65	0.34292
1812.15	-0.0971994
1813.65	-0.0804777
1815.16	0.0257273
1816.66	0.238658
1818.15	0.164449
1819.66	0.0658417
1821.16	-0.0945101
1822.65	-0.445135
1824.15	-0.186347
1825.65	0.0353117
1827.15	-0.0505552
1828.65	0.0513535
1830.15	0.235269
1831.64	0.184793
1833.14	-0.044425
1834.64	0.249889
1836.14	-0.279979
1837.63	-0.101613
1839.13	0.12604
1840.62	-0.311583
1842.12	-0.0586452
1843.62	0.175801
1845.11	0.179502
1846.61	-0.235288
1848.1	0.0870686
1849.6	0.501414
1851.09	0.0412464
1852.58	0.169189
1854.08	-0.121822
1855.57	0.00483036
1857.06	0.722129
1858.55	-0.0253181
1860.05	-0.0544701
1861.54	0.101301
1863.03	-0.313994
1864.52	0.0467644
1866.01	0.0561581
1867.5	-0.0258713
1869	0.164199
1870.49	0.109109
1871.98	0.0917206
1873.47	0.587498
1874.96	0.00836849
1876.44	-0.490849
1877.93	0.240207
1879.42	-0.0367594
1880.91	0.588874
1882.4	0.143679
1882.47	0.119864
1883.96	0.328071
1885.46	0.360753
1886.95	-0.182632
1888.44	0.126803
1889.94	0.349132
1891.43	0.0508862
1892.93	-0.349257
1894.42	0.139873
1895.91	-0.203376
1897.4	0.0457697
1898.89	0.399298
1900.39	0.386177
1901.88	0.457731
1903.37	-0.0471992
1904.86	0.0719919
1906.35	0.398417
1907.84	-0.0917597
1909.33	0.217807
1910.82	-0.0441589
1912.31	0.337138
1913.8	0.354883
1915.29	0.927679
1916.77	0.234175
1918.26	-0.0611095
1919.75	-0.374183
1921.24	0.109561
1922.73	0.0394402
1924.21	-0.289132
1925.7	0.509159
1927.19	0.633817
1928.67	0.0322704
1930.16	-0.101887
1931.64	0.00531006
1933.13	0.0932026
1934.61	-0.219535
1936.1	0.0366182
1937.58	-0.227921
1939.07	-0.233603
1940.55	0.244574
1942.04	-0.070508
1943.52	0.0129366
1945	-0.161125
1946.49	0.389518
1947.97	0.112308
1949.45	-0.131264
1950.93	0.502133
1952.42	-0.0710382
1953.9	0.353065
1955.38	0.398396
1956.86	0.272471
1958.34	-0.229921
1959.82	0.69305
1961.3	-0.0301418
1962.78	0.464529
1964.26	0.581622
1965.74	0.749269
1967.22	0.0257349
1968.7	0.431046
1970.18	0.458922
1971.65	0.31557
1973.13	0.343004
1974.61	-0.124099
1976.09	-0.0960188
1977.57	0.886112
1979.04	0.522369
1980.52	-0.0280323
1982	-0.135965
1983.47	-0.0912609
1984.95	-0.0301161
1986.42	0.200192
1987.9	0.0403109
1989.37	-0.372916
1990.85	0.0107117
1992.32	-0.0784273
1993.8	0.256548
1995.27	0.609313
1996.75	-0.236982
1998.22	0.521657
1999.69	0.435058
2001.17	0.36454
2002.64	-0.280087
2004.11	0.0534916
2005.58	0.218683
2007.05	0.182628
2008.53	0.21527
2010	0.636336
2011.47	0.250051
2012.94	-0.0687103
2014.41	-0.169159
2015.88	-0.0855322
2017.35	0.400449
2018.82	-0.291898
2020.29	-0.110612
2021.76	0.00309086
2023.23	0.0331812
2024.7	-0.187371
2026.16	0.382192
2027.63	0.416848
2029.1	0.202028
2030.57	0.00580788
2032.03	0.347841
2033.5	0.00253868
2034.97	0.0768223
2036.44	0.436227
2037.9	-0.0114574
2039.37	0.229174
2040.83	0.75557
2042.3	0.509289
2043.76	0.516199
2045.23	0.726333
2046.69	0.466359
2048.16	0.577162
2049.62	0.48542
2051.08	0.0549793
2052.55	0.583441
2054.01	-0.0205021
2055.47	0.216362
2056.94	0.0971804
2058.4	0.39822
2059.86	0.446093
2061.32	0.090373
2062.79	0.173647
2064.25	0.140457
2065.71	0.34427
2067.17	-0.17439
2068.63	-0.120052
2070.09	0.170405
2071.55	0.275845
2073.01	0.768391
2074.47	0.553423
2075.93	0.489512
2077.39	0.105114
2078.85	0.309574
2080.31	0.142936
2081.76	1.00259
2083.22	0.598511
2084.68	0.563795
2086.13	0.410306
2087.59	0.424207
2089.05	0.185409
2090.51	0.0809374
2091.96	0.580865
2093.42	0.694217
2094.87	0.38782
2096.33	1.13701
2097.78	0.561091
2099.24	0.470453
2100.69	0.262419
2102.15	0.673257
2103.6	0.0994081
2105.06	0.145526
2106.51	0.760734
2107.96	0.326312
2109.42	1.15992
2110.87	0.808778
2112.32	0.905935
2113.77	0.867329
2115.23	1.309
2116.68	0.867429
2118.13	0.759244
2119.58	0.254691
2121.03	0.748755
2122.48	0.432501
2123.93	1.06363
2125.38	1.26449
2126.83	1.0505
2128.28	1.19985
2129.73	0.767174
2131.18	1.06177
2132.63	0.874841
2134.08	1.15125
2135.53	1.04814
2136.97	1.72403
2138.42	1.1959
2139.87	1.00108
2141.32	1.25486
2142.76	1.31209
2144.21	1.35377
2145.66	1.26332
2147.1	1.40418
2148.55	1.13019
2150	1.66658
2151.44	1.48927
2152.89	1.65845
2154.33	1.57788
2155.78	1.43037
2157.22	1.46517
2158.66	1.73286
2160.11	1.43921
2161.55	1.9102
2163	1.04135
2164.44	1.68333
2165.88	1.43096
2167.32	1.49381
2168.77	2.10391
2170.21	1.93036
2171.65	1.45416
2173.09	2.07302
2174.53	1.94122
2175.97	1.59235
2177.41	1.82582
2178.85	1.64465
2180.29	1.86392
2181.73	1.38617
2183.17	1.72399
2184.61	1.79623
2186.05	1.65235
2187.49	1.29213
2188.93	1.84716
2190.37	1.52018
2191.81	1.09281
2193.24	1.53013
2194.68	1.33294
2196.12	1.56605
2197.56	1.23044
2198.99	0.992517
2200.43	0.902972
2201.87	1.24496
2203.3	1.53756
2204.74	1.15152
2206.17	0.999368
2207.61	1.17946
2209.04	1.02799
2210.48	1.17353
2211.91	1.2017
2213.35	0.765927
2214.78	0.793048
2216.21	0.523788
2217.65	0.586318
2219.08	0.798888
2220.51	0.765231
2221.95	0.616447
2223.38	1.45535
2224.81	1.1224
2226.24	1.13299
2227.67	0.598649
2229.1	1.19677
2230.54	1.26749
2231.97	0.993577
2233.4	0.720632
2234.83	0.809044
2236.26	1.04593
2237.69	1.17038
2239.11	0.661017
2240.54	0.888881
2241.97	1.10289
2243.4	0.503175
2244.83	0.458532
2246.26	0.52723
2247.69	0.267636
2249.11	-0.271799
2250.54	0.636389
2251.97	0.726889
2253.4	0.637109
2254.82	-0.0858107
2256.25	0.314523
2257.67	0.392941
2259.1	0.45893
2260.53	0.431554
2261.95	0.310124
2263.38	0.596807
2264.8	0.494292
2266.23	0.0497389
2267.65	0.189324
2269.07	-0.160422
2270.5	0.13969
2271.92	-0.0654993
2273.34	0.331558
2274.77	0.0447226
2276.19	-0.225695
2277.61	0.856713
2279.03	0.945354
2280.46	0.430612
2281.88	0.48632
2283.3	0.62349
2284.72	0.0427589
2286.14	0.50667
2287.56	-0.0899658
2288.98	0.130256
2290.4	-0.0899906
2291.82	0.311135
2293.24	-0.186703
2294.66	0.149426
2296.08	0.0928946
2297.5	0.461991
2298.92	0.372756
2300.34	0.463972
2301.76	0.572062
2303.17	0.0900335
2304.59	-0.146062
2306.01	0.02808
2307.43	0.826322
2308.84	0.375246
2310.26	-0.17565
2311.68	0.53911
2313.09	0.382176
2314.51	-0.679609
2315.92	0.102932
2317.34	0.343574
2318.75	-0.420441
2320.17	0.100906
2321.58	-0.00567532
2323	0.165786
2324.41	-0.0288944
2325.82	0.103467
2327.24	0.54676
2328.65	0.378681
2330.06	0.771029
2331.48	0.0775719
2332.89	0.192602
2334.3	0.242917
2335.71	-0.0518885
2337.12	0.327188
2338.54	-0.183053
2339.95	0.538055
2341.36	0.435926
2342.77	-0.208371
2344.18	-0.0318689
2345.59	0.456141
2347	0.321514
2348.41	-0.0420647
2349.82	-0.111217
2351.23	0.358162
2352.64	-0.219841
2354.04	-0.373799
2355.45	0.417061
2356.86	0.0985327
2358.27	0.170991
2359.68	-0.000261307
2361.08	-0.0574131
2362.49	0.371945
2363.9	0.0876074
2365.3	0.175923
2366.71	-0.252899
2368.12	0.0626154
2369.52	0.00787449
2370.93	0.277355
2372.33	0.113316
2373.74	0.14405
2375.14	0.0143452
2376.55	0.125628
2377.95	0.315784
2379.36	0.375059
2380.76	-0.338598
2382.16	-0.0103521
2383.57	0.171756
2384.97	0.0331287
2386.37	-0.160575
2387.78	-0.352693
2389.18	0.16663
2390.58	-0.141708
2391.98	-0.0977869
2393.38	0.138357
2394.79	0.168627
2396.19	0.231625
2397.59	0.215973
2398.99	0.0581045
2400.39	0.0598326
2401.79	0.189055
2403.19	0.032443
2404.59	-0.0451965
2405.99	0.241184
2407.39	-0.505278
2408.78	0.286291
2410.18	0.204743
2411.58	-0.00320244
2412.98	0.20184
2414.38	-0.383189
2415.77	0.490314
2417.17	0.605699
2418.57	0.548228
2419.97	-0.0630283
2421.36	0.180707
2422.76	-0.368065
2424.15	-0.283586
2425.55	0.228821
2426.95	0.472613
2428.34	0.305488
2429.74	0.218837
2431.13	-0.104931
2432.52	0.333191
2433.92	-0.213613
2435.31	-0.190334
2436.71	-0.200748
2438.1	0.358809
2439.49	0.217517
2440.89	0.233833
2442.28	-0.0522356
2443.67	-0.0528564
2445.06	0.0255861
2446.46	0.484259
2447.85	0.1975
2449.24	0.0535297
2450.63	-0.359201
2452.02	0.0679264
2453.41	0.559086
2454.8	0.0545158
2456.19	0.167952
2457.58	0.250181
2458.97	-0.0632086
2460.36	0.318565
2461.75	0.129923
2463.14	0.0193386
2464.53	0.334623
2465.92	0.191227
2467.31	0.221455
2468.69	-0.0482149
2470.08	-0.333673
2471.47	0.042614
2472.86	0.0867605
2474.24	-0.232253
2475.63	0.219128
2477.02	0.103436
2478.4	0.0977726
2479.79	-0.143064
2481.17	-0.932111
2482.56	0.238482
2483.94	0.0759125
2485.33	-0.0718975
2486.72	-0.252134
2488.1	-0.168117
2489.48	0.60043
2490.87	0.16827
2492.25	-0.0289583
2493.64	0.303602
2495.02	0.14086
2496.4	0.104096
2497.79	-0.0863438
2499.17	-0.0284777
2500.55	0.291845
2501.93	-0.069396
2503.31	-0.014389
2504.69	-0.0840893
2506.08	0.0612364
2507.46	-0.0865469
2508.84	0.181237
2510.22	0.0343313
2511.6	0.0419846
2512.98	0.142623
2514.36	0.412721
2515.74	0.178507
2517.12	-0.299127
2518.5	0.172408
2519.88	-0.242612
2521.25	-0.352063
2522.63	0.178859
2524.01	-0.130945
2525.39	-0.0907011
2526.77	-0.0661316
2528.14	0.339293
2529.52	0.152534
2530.9	-0.107916
2532.27	0.120252
2533.65	-0.136015
2535.03	0.155658
2536.4	-0.145205
2537.78	0.0999947
2539.15	0.450171
2540.53	-0.278968
2541.9	0.342671
2543.28	0.0235186
2544.65	-0.00615501
2546.03	-0.474097
2547.4	0.182012
2548.77	0.444962
2550.15	0.268112
2551.52	0.166468
2552.89	0.0180645
2554.27	0.247669
2555.64	0.278738
2557.01	0.415187
2558.38	-0.0551834
2559.75	0.0662451
2561.12	0.0822153
2562.5	0.35665
2563.87	-0.00462437
2565.24	0.634851
2566.61	-0.392295
2567.98	-0.0857544
2569.35	0.342077
2570.72	0.43649
2572.09	-0.13597
2573.46	-0.0111074
2574.83	0.356445
2576.19	0.223794
2577.56	0.348775
2578.93	-0.163376
2580.3	0.355083
2581.67	0.16032
2583.04	0.0257168
2584.4	-0.24563
2585.77	-0.0622568
2587.14	-3.33786e-005
2588.5	0.0927324
2589.87	-0.0568342
2591.23	-0.0701523
2592.6	-0.508312
2593.97	0.0524712
2595.33	0.127005
2596.7	-0.102641
2598.06	0.529188
2599.43	0.222348
2600.79	-0.12935
2602.15	-0.464925
2603.52	-0.120032
2604.88	-0.121752
2606.25	-0.183536
2607.61	0.508271
2608.97	0.32419
2610.33	0.394737
2611.7	0.10216
2613.06	0.0641193
2614.42	-0.275328
2615.78	-0.569441
2617.15	-0.128149
2618.51	0.298084
2619.87	0.380424
2621.23	0.299157
2622.59	0.457806
2623.95	0.108859
2625.31	-0.344144
2626.67	0.0531464
2628.03	-0.131732
2629.39	0.100181
2630.75	0.167773
2632.1	0.235105
2633.46	0.198274
2634.82	-0.120549
2636.18	-0.171959
2637.54	0.517611
2638.89	-0.378173
2640.25	0.0739851
2641.61	-0.228191
2642.97	0.017046
2644.32	0.18835
2645.68	0.256052
2647.03	0.249421
2648.39	0.359707
2649.75	0.350956
2651.1	0.0178299
2652.46	0.316448
2653.81	0.423983
2655.17	0.0632467
2656.52	0.378299
2657.88	-0.0520077
2659.23	0.00214577
2660.58	0.0568066
2661.94	0.228161
2663.29	0.500791
2664.64	0.071332
2666	0.166538
2667.35	-0.147136
2668.7	0.0783367
2670.05	0.289236
2671.4	-0.299176
2672.76	-0.508188
2674.11	0.634394
2675.46	0.121862
2676.81	0.205411
2678.16	-0.246867
2679.51	0.302679
2680.86	0.273489
2682.21	0.0429258
2683.56	0.219916
2684.91	-0.152904
2686.26	0.316252
2687.61	0.248532
2688.96	0.571188
2690.3	0.325413
2691.65	0.454579
2693	0.450971
2694.35	0.503992
2695.7	0.440708
2697.04	0.450722
2698.39	0.0569811
2699.74	0.0276051
2701.08	0.333591
2702.43	0.294094
2703.77	0.169074
2705.12	0.204133
2706.47	0.0797596
2707.81	0.491831
2709.16	0.526267
2710.5	0.19715
2711.85	0.564709
2713.19	0.743397
2714.53	0.151713
2715.88	0.911799
2717.22	0.610422
2718.57	0.468552
2719.91	0.50073
2721.25	0.663277
2722.59	0.344879
2723.94	0.506124
2725.28	0.259214
2726.62	0.375674
2727.96	0.85553
2729.3	0.0688963
2730.65	0.606337
2731.99	0.517998
2733.33	0.706182
2734.67	0.458198
2736.01	-0.0803661
2737.35	0.588459
2738.69	0.530033
2740.03	0.863929
2741.37	0.135658
2742.71	0.293547
2744.05	-0.116373
2745.38	0.431977
2746.72	0.253219
2748.06	0.204974
2749.4	0.447005
2750.74	0.268498
2752.07	0.0904751
2753.41	0.202743
2754.75	0.199261
2756.09	-0.166134
2757.42	0.337673
2758.76	0.39279
2760.09	0.0720987
2761.43	-0.189957
2762.77	0.141933
2764.1	0.0546112
2765.44	0.271139
2766.77	-0.163972
2768.11	-0.151738
2769.44	0.16247
2770.77	0.21432
2772.11	0.163173
2773.44	0.125115
2774.77	0.360279
2776.11	-0.370139
2777.44	0.167653
2778.77	0.0725546
2780.11	-0.222889
2781.44	0.071291
2782.77	0.0925388
2784.1	0.386179
2785.43	0.33541
2786.77	-0.0874643
2788.1	-0.351712
2789.43	-0.0280704
2790.76	-0.204098
2792.09	0.23585
2793.42	-0.438797
2794.75	0.244665
2796.08	0.241529
2797.41	0.266226
2798.74	0.204471
2800.07	0.0993557
2801.4	-0.0773506
2802.72	0.629874
2804.05	-0.0605583
2805.38	0.345883
2806.71	0.267066
2808.04	-0.0827503
2809.36	-0.0062542
2810.69	0.240545
2812.02	0.672256
2813.34	0.253995
2814.67	0.405208
2816	0.189785
2817.32	-0.038209
2818.65	0.485822
2819.97	0.542171
2821.3	0.413672
2822.62	0.213434
2823.95	0.508295
2825.27	0.717542
2826.6	0.558541
2827.92	0.796751
2829.25	0.879958
2830.57	0.73733
2831.89	1.34528
2833.22	1.03304
2834.54	1.51303
2835.86	1.62426
2837.18	2.25819
2838.51	2.60825
2839.83	3.07092
2841.15	3.4204
2842.47	4.40647
2843.79	4.38986
2845.11	5.44856
2846.43	5.09511
2847.76	5.57618
2849.08	5.76055
2850.4	6.08576
2851.72	5.16632
2853.04	6.15399
2854.36	5.85485
2855.67	5.85215
2856.99	5.468
2858.31	6.0869
2859.63	6.63499
2860.95	5.31876
2862.27	6.10596
2863.58	6.2006
2864.9	6.2524
2866.22	6.0502
2867.54	6.38444
2868.85	6.52188
2870.17	6.97017
2871.49	6.15002
2872.8	7.14776
2874.12	7.41114
2875.43	8.19367
2876.75	8.19925
2878.07	9.0898
2879.38	9.65534
2880.7	9.34937
2882.01	9.12952
2883.32	9.38939
2884.64	9.24378
2885.95	8.86079
2887.27	7.65006
2888.58	8.44568
2889.89	7.69647
2891.21	8.23633
2892.52	8.28408
2893.83	7.99526
2895.14	7.95935
2896.46	7.84091
2897.77	8.67592
2899.08	8.589
2900.39	8.0699
2901.7	8.27913
2903.01	8.61462
2904.32	8.54472
2905.63	9.03479
2906.94	8.49076
2908.25	8.94126
2909.56	9.19749
2910.87	9.3429
2912.18	9.06848
2913.49	9.33871
2914.8	9.28463
2916.11	10.0116
2917.42	9.92378
2918.72	9.4705
2920.03	9.4228
2921.34	10.1312
2922.65	10.4221
2923.95	9.98842
2925.26	10.7169
2926.57	9.21003
2927.88	11.0862
2929.18	10.7949
2930.49	10.8383
2931.79	11.5098
2933.1	11.2863
2934.4	10.6713
2935.71	10.6297
2937.01	11.4408
2938.32	10.0863
2939.62	10.3113
2940.93	9.93629
2942.23	9.74437
2943.54	9.48452
2944.84	8.5977
2946.14	8.99888
2947.45	7.89039
2948.75	7.57852
2950.05	7.7688
2951.35	7.1163
2952.66	6.83894
2953.96	6.90953
2955.26	6.54554
2956.56	6.5888
2957.86	6.3551
2959.16	5.53726
2960.46	5.94148
2961.77	5.56423
2963.07	5.7769
2964.37	5.58205
2965.66	5.16017
2966.96	5.63499
2968.26	4.95543
2969.56	5.06184
2970.86	4.92903
2972.16	5.1061
2973.46	3.77805
2974.76	3.80066
2976.06	4.25896
2977.35	4.23691
2978.65	3.66337
2979.95	3.90405
2981.25	3.43915
2982.54	3.57862
2983.84	3.64812
2985.14	2.87584
2986.43	3.38477
2987.73	2.96831
2989.02	3.26999
2990.32	3.0803
2991.62	2.3559
2992.91	2.85282
2994.21	2.56098
2995.5	2.14132
2996.8	2.18429
2998.09	1.77786
2999.38	1.87711
3000.68	1.90694
3001.97	1.25077
3003.26	1.17015
3004.56	1.22988
3005.85	0.939168
3007.14	0.773909
3008.43	0.327938
3009.73	1.04194
3011.02	0.803868
3012.31	0.649372
3013.6	0.704394
3014.89	0.648387
3016.19	0.70488
3017.48	0.163692
3018.77	0.667475
3020.06	-0.0946703
3021.35	0.380589
3022.64	0.74306
3023.93	0.451441
3025.22	0.256403
3026.5	0.172274
3027.79	-0.187808
3029.08	0.0625296
3030.37	0.1625
3031.66	0.222931
3032.95	0.091527
3034.24	0.319547
3035.52	0.174336
3036.81	-0.358388
3038.1	0.00294495
3039.39	0.0860023
3040.67	0.139374
3041.96	-0.261521
3043.25	0.161039
3044.53	-0.278773
3045.82	-0.236849
3047.1	0.149332
3048.39	0.278683
3049.67	0.110561
3050.96	0.0265884
3052.24	-0.0425577
3053.53	0.174984
3054.81	0.17347
3056.1	0.0752087
3057.38	0.275592
3058.67	0.393044
3059.95	0.169631
3061.23	0.178344
3062.52	0.0795574
3063.8	0.363398
3065.08	0.404505
3066.36	0.51554
3067.65	0.233749
3068.93	0.11568
3070.21	0.242165
3071.49	0.0684509
3072.77	0.17887
3074.05	0.274113
3075.33	0.205048
3076.61	-0.108772
3077.89	0.0126534
3079.17	-0.0274076
3080.45	-0.214664
3081.73	-0.0335445
3083.01	0.108585
3084.29	0.373905
3085.57	0.0423832
3086.85	0.185358
3088.13	-0.174677
3089.41	0.183848
3090.68	-0.177419
3091.96	0.153258
3093.24	-0.451813
3094.52	-0.174694
3095.79	0.306164
3097.07	-0.134736
3098.35	0.31909
3099.62	-0.081008
3100.9	0.128683
3102.18	-0.216801
3103.45	0.101749
3104.73	-0.0799122
3106	0.159055
3107.28	-0.114983
3108.55	0.27552
3109.83	0.153245
3111.1	-0.0218763
3112.38	0.0748777
3113.65	-0.0715332
3114.93	0.120962
3116.2	-0.0801105
3117.47	-0.0651913
3118.75	0.314709
3120.02	0.286452
3121.29	0.270695
3122.57	0.0645828
3123.84	0.386811
3125.11	0.465387
3126.38	0.449825
3127.65	0.381046
3128.92	0.502471
3130.2	-0.146259
3131.47	0.584387
3132.74	0.665977
3134.01	0.43652
3135.28	0.0987797
3136.55	1.06952
3137.82	0.784639
3139.09	0.769271
3140.36	0.78076
3141.63	0.711745
3142.9	1.05993
3144.17	0.763901
3145.43	0.764389
3146.7	0.672104
3147.97	0.74172
3149.24	1.28076
