200.554	0.149343
202.369	0.189086
204.183	0.229637
205.999	0.173811
207.813	0.215268
209.626	0.450173
211.439	0.416056
213.253	1.20538
215.065	0.342696
216.877	0.304362
218.688	0.265961
220.5	0.954221
222.312	-0.171469
224.123	0.252102
225.933	0.506566
227.742	0.229215
229.552	-0.579813
231.361	0.445229
233.171	-0.485181
234.98	-0.329505
236.787	0.381759
238.595	0.155109
240.402	-0.454432
242.209	0.577783
244.015	1.20207
245.822	0.885258
247.627	0.203786
249.435	0.218809
251.24	0.495378
253.045	0.0442362
254.849	0.339052
256.653	0.295406
258.457	0.324952
260.26	0.645418
262.063	-0.236518
263.866	0.352839
265.668	0.00366974
267.47	0.522161
269.271	0.244779
271.073	1.07515
272.873	-0.0489569
274.674	0.464534
276.474	0.493627
278.274	1.0504
280.073	0.447925
281.872	0.204548
283.671	0.5363
285.47	0.433134
287.268	0.089119
289.065	0.608794
290.863	0.265949
292.66	0.37988
294.456	0.447551
296.253	0.205975
298.049	-0.0820856
299.844	0.39499
301.637	-0.107914
303.432	-0.157969
305.227	-0.376608
307.021	0.310112
308.815	0.924178
310.609	0.132519
312.402	0.271671
314.195	0.126849
315.987	0.341276
317.777	0.319552
319.569	0.513947
321.36	0.113884
323.151	0.405774
324.942	0.340442
326.733	-0.0831547
328.521	0.901939
330.31	0.715858
332.1	0.575823
333.889	0.265971
335.677	1.24554
337.464	0.953932
339.252	0.276972
341.039	0.961589
342.826	0.138659
344.611	0.606518
346.398	0.381898
348.184	0.205909
349.97	1.00925
351.754	0.594906
353.539	0.442444
355.324	-0.140666
357.106	0.324124
358.89	0.453181
360.674	0.104349
362.455	0.23074
364.239	0.617503
366.021	0.266232
367.804	0.555376
369.584	0.416046
371.366	1.15221
373.145	0.30073
374.926	0.821242
376.707	0.37284
378.485	0.963444
380.265	0.258357
382.045	0.379617
383.822	0.807912
385.601	0.743551
387.378	0.304712
389.156	0.431214
390.934	1.09894
392.71	-0.0643368
394.487	0.722313
396.262	0.288133
398.038	1.31012
399.813	0.852198
401.588	0.652017
403.362	0.427499
405.137	1.11801
406.912	1.05594
408.685	0.241806
410.459	0.155228
412.23	0.397232
414.004	0.780416
415.775	0.530841
417.548	0.30566
419.318	0.174997
421.089	-0.237128
422.86	0.782213
424.63	0.979187
426.401	0.987193
428.17	0.219443
429.94	0.225836
431.708	0.912803
433.478	0.825569
435.245	0.245863
437.012	-0.0523033
438.781	-0.0227613
440.547	0.028491
442.315	0.616821
444.081	0.639334
445.846	0.58928
447.613	0.210198
449.378	1.32773
451.142	0.10718
452.908	0.0795317
454.672	0.541956
456.435	-0.697725
458.2	-0.00281143
459.963	0.225706
461.725	0.780247
463.489	0.755021
465.251	0.268037
467.012	0.202734
468.775	-0.0919418
470.536	0.452398
472.296	0.230069
474.056	0.821458
475.817	0.619278
477.576	0.414371
479.335	0.743033
481.094	1.16365
482.854	0.466506
484.612	0.888771
486.37	1.03399
488.127	0.156347
489.886	0.46961
491.642	0.994684
493.398	0.984042
495.154	1.95591
496.91	0.330981
498.667	0.506907
500.422	-0.208611
502.176	0.857742
503.93	0.632765
505.684	0.382567
507.438	0.365605
509.191	1.05255
510.946	1.14964
512.698	0.93886
514.45	0.467415
516.202	0.794302
517.954	0.343501
519.705	0.57355
521.456	0.215112
523.206	0.701862
524.956	0.530683
526.706	0.617693
528.456	1.29079
530.207	0.557012
531.956	0.268514
533.704	1.36034
535.452	0.765186
537.2	0.473061
538.947	0.88015
540.694	0.632016
542.441	0.709571
544.188	0.833015
545.934	0.793498
547.68	0.174133
549.425	0.483705
551.17	1.04754
552.915	0.823976
554.659	-0.276846
556.403	0.933051
558.145	0.665287
559.889	0.652046
561.632	0.639527
563.375	0.857746
565.117	0.225964
566.859	0.491623
568.601	0.115152
570.342	-0.213801
572.083	0.0325871
573.824	0.189061
575.565	-0.547075
577.303	-0.203116
579.043	0.624665
580.782	-0.268495
582.521	0.05548
584.26	0.0112877
585.998	-0.195119
587.734	0.241053
589.472	-0.037241
591.21	0.166538
592.947	0.829889
594.684	0.319697
596.418	0.637845
598.154	-0.125367
599.89	0.537402
601.626	-0.0661163
603.361	0.0880461
605.094	-0.288309
606.828	0.551985
608.562	0.701519
610.296	0.43766
612.027	0.0141678
613.761	-0.201634
615.493	0.271062
617.224	0.10213
618.956	0.0930099
620.688	0.197078
622.419	-0.066411
624.149	-0.193336
625.879	0.205338
627.61	0.148232
629.338	0.937916
631.068	0.634912
632.797	0.357238
634.525	0.423081
636.254	0.716784
637.98	0.41488
639.708	0.0641851
641.436	0.827911
643.162	-0.00755405
644.889	0.796275
646.614	0.0523777
648.34	-0.119825
650.067	0.098073
651.791	0.683961
653.516	0.274669
655.239	0.346536
656.964	0.375663
658.687	-0.346322
660.411	0.0934477
662.133	0.00689697
663.857	0.3975
665.58	0.0540457
667.301	0.211313
669.024	-0.112462
670.744	0.090764
672.464	-0.0240278
674.186	0.596704
675.905	0.028985
677.626	0.218804
679.345	0.317263
681.065	0.529701
682.783	0.211189
684.503	0.672498
686.22	0.348898
687.939	0.414858
689.656	0.640844
691.372	0.704758
693.09	0.860057
694.806	1.08352
696.523	0.868179
698.239	0.881719
699.953	0.617625
701.67	0.329425
703.384	0.017519
705.098	0.600927
706.813	0.746845
708.526	1.28189
710.239	1.08243
711.954	1.27201
713.666	1.02636
715.378	1.00944
717.091	1.12947
718.802	1.13539
720.513	0.845257
722.226	0.555816
723.936	0.1987
725.646	0.592218
727.355	1.12099
729.067	0.80873
730.776	1.1993
732.484	0.75074
734.192	0.483865
735.902	1.09903
737.61	1.51027
739.317	1.01928
741.024	1.04876
742.731	0.809374
744.439	0.436818
746.145	0.921392
747.851	-0.0774813
749.556	0.387613
751.262	1.16898
752.966	0.35492
754.673	1.13958
756.377	0.936219
758.081	0.757039
759.784	1.79602
761.487	0.695827
763.19	0.858191
764.892	1.06563
766.594	0.955673
768.296	0.662611
770	1.31658
771.701	1.81008
773.402	1.35218
775.102	1.68523
776.803	1.22761
778.503	1.38206
780.202	1.87762
781.901	2.0807
783.6	0.994044
785.299	1.42211
786.997	1.28155
788.695	1.68046
790.393	1.69059
792.09	1.58449
793.787	1.22836
795.484	1.30124
797.18	1.48779
798.877	0.707674
800.572	1.28105
802.268	1.29307
803.963	1.53073
805.658	1.52072
807.35	0.880633
809.044	0.980927
810.738	1.50613
812.432	1.58103
814.125	1.8344
815.818	1.39312
817.51	1.66829
819.202	1.87605
820.894	1.03421
822.584	1.91222
824.275	1.45216
825.966	1.6629
827.657	1.7424
829.347	0.97895
831.037	1.31035
832.725	1.6452
834.414	1.89368
836.103	0.983743
837.792	1.72403
839.481	1.95011
841.167	1.75005
842.854	2.59839
844.542	1.50238
846.229	1.90435
847.914	1.88394
849.6	1.57565
851.287	1.89691
852.973	1.05547
854.656	1.2231
856.341	1.84013
858.026	2.07477
859.711	1.63264
861.393	2.02084
863.077	1.75416
864.761	1.32794
866.442	1.57668
868.125	1.19341
869.808	0.899682
871.489	1.39501
873.171	1.19088
874.85	1.00917
876.532	1.23366
878.213	0.961685
879.892	0.915253
881.572	1.65851
883.251	1.20446
884.931	0.70399
886.61	1.4208
888.287	0.917031
889.966	1.6972
891.643	1.21269
893.321	0.862396
894.997	0.803823
896.675	1.05881
898.352	1.60404
900.028	1.13764
901.704	1.38826
903.379	1.10064
905.055	0.791173
906.729	1.24165
908.404	1.00073
910.077	0.961844
911.75	0.946341
913.425	1.64281
915.097	2.24958
916.771	1.12509
918.443	1.57608
920.116	0.321572
921.787	1.90146
923.46	1.38035
925.13	1.34795
926.8	1.16327
928.472	1.06902
930.141	1.79273
931.813	0.994648
933.481	0.991283
935.15	1.62779
936.82	0.72086
938.488	1.55737
940.156	0.939721
941.825	0.896895
943.492	0.590089
945.158	1.36443
946.827	0.791093
948.493	1.23095
950.158	1.13878
951.824	1.48649
953.491	0.621129
955.156	0.573934
956.82	1.01509
958.486	1.21762
960.15	0.651091
961.814	0.902831
963.477	0.845232
965.142	0.697061
966.804	0.147392
968.467	0.479474
970.129	0.69858
971.79	0.71761
973.454	1.55547
975.115	1.09029
976.776	0.759952
978.436	0.917902
980.096	0.777938
981.756	0.637391
983.417	1.05971
985.077	1.67897
986.736	1.25527
988.394	1.5155
990.052	0.845291
991.71	0.329771
993.368	1.13985
995.025	1.04411
996.682	0.595654
998.341	1.11779
999.998	1.57292
1001.65	1.6967
1003.31	1.44568
1004.97	1.4365
1006.62	1.51511
1008.28	1.35223
1009.93	0.685296
1011.58	0.875005
1013.24	0.955446
1014.89	1.10197
1016.54	0.898582
1018.2	1.46182
1019.85	1.41318
1021.5	1.0598
1023.16	1.45111
1024.81	1.40636
1026.46	1.71195
1028.11	0.728354
1029.76	0.88024
1031.41	0.746687
1033.06	1.11343
1034.71	1.30329
1036.36	1.38223
1038.01	1.30761
1039.66	2.21251
1041.31	2.24693
1042.95	1.65269
1044.6	2.14762
1046.25	2.25375
1047.9	2.21028
1049.54	3.03766
1051.19	1.82514
1052.84	1.46049
1054.48	1.59592
1056.13	1.7314
1057.77	0.931764
1059.42	1.30536
1061.06	1.48256
1062.71	1.0282
1064.35	1.61643
1066	0.920575
1067.64	0.441084
1069.28	1.19912
1070.93	0.696276
1072.57	0.888347
1074.21	0.56013
1075.85	1.36128
1077.49	1.53476
1079.13	1.44952
1080.78	0.562869
1082.42	0.435136
1084.06	0.935142
1085.7	0.609325
1087.34	0.909688
1088.97	0.730924
1090.61	0.939808
1092.25	0.714651
1093.89	0.856477
1095.53	0.825689
1097.17	0.989971
1098.8	0.767939
1100.44	0.720497
1102.08	0.632324
1103.71	1.06257
1105.35	1.15005
1106.99	0.377854
1108.62	0.895736
1110.26	0.939108
1111.89	1.21697
1113.52	0.354156
1115.16	0.650152
1116.79	0.709124
1118.43	0.875364
1120.06	0.678032
1121.69	0.824695
1123.32	0.351818
1124.96	1.31388
1126.59	1.05724
1128.22	0.865833
1129.85	0.9319
1131.48	0.186234
1133.11	0.167844
1134.75	0.491298
1136.37	0.151374
1138	1.28471
1139.63	0.215895
1141.26	0.534531
1142.89	0.361524
1144.52	-0.195008
1146.15	0.315658
1147.78	-0.00408459
1149.4	0.082119
1151.03	0.339202
1152.66	0.361905
1154.28	0.490636
1155.91	-0.104763
1157.54	0.0234556
1159.16	0.27965
1160.79	0.345323
1162.41	0.135848
1164.04	-0.00869179
1165.66	-0.067646
1167.29	0.298304
1168.91	0.00392246
1170.53	-0.249733
1172.16	-0.27163
1173.78	0.61749
1175.4	0.570538
1177.02	-0.134034
1178.65	-0.0959044
1180.27	0.958941
1181.89	-0.524896
1183.51	-0.526402
1185.13	0.148209
1186.75	0.166325
1188.37	-0.0706015
1189.99	-0.351411
1191.61	0.271544
1193.23	0.239548
1194.85	-0.00319195
1196.47	0.299905
1198.08	0.310176
1199.7	0.573393
1201.32	0.629888
1202.94	0.313585
1204.55	0.355351
1206.17	0.0865173
1207.79	0.424191
1209.4	0.928932
1211.02	0.285449
1212.63	0.0781813
1214.25	0.806288
1215.86	0.927021
1217.48	0.338227
1219.09	0.726117
1220.71	0.594174
1222.32	0.214475
1223.93	0.541347
1225.54	1.11788
1227.16	1.44716
1228.77	1.24005
1230.38	1.03462
1231.99	0.665358
1233.6	0.814316
1235.22	1.33671
1236.83	0.579058
1238.44	1.84835
1240.05	1.48537
1241.66	1.45336
1243.26	0.820918
1244.87	1.51163
1246.48	1.60115
1248.09	0.778984
1249.7	1.48716
1251.31	1.5742
1252.92	1.45466
1254.52	0.963723
1256.13	1.32211
1257.74	1.3717
1259.34	1.83655
1260.95	1.61964
1262.55	1.73445
1264.16	1.47646
1265.76	1.23849
1267.37	1.33117
1268.97	1.92036
1270.58	1.76198
1272.18	1.33277
1273.78	1.60727
1275.39	2.12922
1276.99	1.86235
1278.59	1.71892
1280.2	1.94758
1281.8	2.54821
1283.4	2.03137
1285	1.66041
1286.6	2.20038
1288.2	2.03865
1289.8	1.44412
1291.4	2.23474
1293	2.30191
1294.6	2.59533
1296.2	1.29677
1297.8	2.24732
1299.4	1.99826
1301	1.89201
1302.6	2.8555
1304.19	1.67592
1305.79	2.20404
1307.39	2.0733
1308.99	2.10661
1310.58	2.32429
1312.18	2.2759
1313.77	0.960615
1315.37	1.81475
1316.96	2.50524
1318.56	2.0529
1320.15	2.25339
1321.75	1.16919
1323.34	1.36714
1324.94	1.58298
1326.53	1.37042
1328.12	2.00921
1329.72	1.55383
1331.31	1.54634
1332.9	2.06682
1334.49	2.20556
1336.08	1.88198
1337.67	1.98287
1339.27	1.59904
1340.86	2.03951
1342.45	1.87297
1344.04	1.82503
1345.63	1.49491
1347.22	2.16836
1348.8	1.60062
1350.39	1.81732
1351.98	1.59674
1353.57	1.17884
1355.16	1.60212
1356.75	1.12638
1358.33	1.80898
1359.92	1.55148
1361.51	1.71207
1363.09	1.13348
1364.68	1.71142
1366.27	1.31276
1367.85	1.07477
1369.44	1.83368
1371.02	1.43955
1372.61	1.06707
1374.19	1.59129
1375.77	1.36014
1377.36	1.48723
1378.94	0.976946
1380.52	1.4206
1382.11	1.54431
1383.69	1.34827
1385.27	1.90654
1386.85	1.45058
1388.43	1.5314
1390.02	1.09687
1391.6	1.81454
1393.18	1.64004
1394.76	1.5652
1396.34	1.33152
1397.92	1.19625
1399.5	1.37695
1401.08	1.39796
1402.65	1.29953
1404.23	1.37924
1405.81	1.5979
1407.39	2.27196
1408.97	1.89938
1410.54	1.15233
1412.12	1.33372
1413.7	1.53402
1415.27	1.10173
1416.85	2.02959
1418.43	2.02969
1420	2.26661
1421.58	1.69736
1423.15	1.50438
1424.73	2.1597
1426.3	2.02916
1427.87	2.35193
1429.45	2.39877
1431.02	2.14924
1432.6	2.09516
1434.17	2.37439
1435.74	2.29896
1437.31	2.51875
1438.89	2.8966
1440.46	3.03974
1442.03	3.20372
1443.6	3.27032
1445.17	3.18018
1446.74	2.77576
1448.31	3.45263
1449.88	3.42227
1451.45	3.03858
1453.02	3.10776
1454.59	3.11839
1456.16	3.46345
1457.72	2.94186
1459.29	3.61903
1460.86	2.87702
1462.43	2.23131
1463.99	2.41002
1465.56	2.5283
1467.13	2.60676
1468.69	2.48927
1470.26	2.37302
1471.83	2.06205
1473.39	1.8702
1474.95	1.42439
1476.52	1.19486
1478.08	2.08294
1479.65	2.08863
1481.21	1.03583
1482.78	2.25642
1484.34	1.20362
1485.9	1.67876
1487.47	1.83939
1489.03	1.64592
1490.59	0.746099
1492.15	1.54595
1493.71	0.974721
1495.27	0.968478
1496.84	0.532454
1498.39	0.914557
1499.96	0.246918
1501.52	0.630216
1503.07	0.490392
1504.64	1.02985
1506.19	0.813673
1507.75	0.249106
1509.31	0.72771
1510.87	0.528667
1512.43	0.502623
1513.98	0.110605
1515.54	0.430953
1517.1	1.0391
1518.65	0.783836
1520.21	0.376569
1521.77	-0.0678968
1523.32	0.386516
1524.88	-0.439976
1526.44	-0.17871
1527.99	-0.261761
1529.54	0.548459
1531.1	0.350169
1532.65	0.342588
1534.21	0.335973
1535.76	0.765484
1537.31	0.817202
1538.87	0.190111
1540.42	0.639396
1541.97	0.447435
1543.52	0.462743
1545.07	0.665806
1546.63	0.26723
1548.18	0.375868
1549.73	0.484251
1551.28	0.704954
1552.83	0.701335
1554.38	0.567931
1555.93	1.18325
1557.48	0.810513
1559.03	1.37316
1560.57	0.146741
1562.12	0.619762
1563.67	0.683517
1565.22	1.27032
1566.77	1.24152
1568.31	0.801847
1569.86	1.22027
1571.41	1.48899
1572.95	1.08538
1574.5	1.55898
1576.05	1.39792
1577.59	1.25574
1579.14	1.09534
1580.68	1.25302
1582.23	1.72911
1583.77	1.12283
1585.31	1.48877
1586.86	1.68726
1588.4	1.53064
1589.95	1.24265
1591.49	2.00221
1593.03	1.67567
1594.57	1.79816
1596.11	1.22752
1597.66	1.6316
1599.2	1.92422
1600.74	2.01155
1602.28	1.70532
1603.82	2.13108
1605.36	1.80492
1606.9	1.75882
1608.44	1.74806
1609.98	1.64071
1611.52	1.13627
1613.06	1.53152
1614.6	1.75602
1616.13	1.60469
1617.67	1.58531
1619.21	1.49234
1620.75	1.04528
1622.28	0.880757
1623.82	1.44724
1625.36	1.69534
1626.89	1.26872
1628.43	1.19638
1629.96	1.23479
1631.5	1.85139
1633.04	1.73844
1634.57	1.92464
1636.11	1.6265
1637.64	1.94508
1639.17	2.22682
1640.71	2.04245
1642.24	2.08101
1643.77	2.43479
1645.31	1.7447
1646.84	1.89128
1648.37	2.53899
1649.9	2.09078
1651.43	2.64634
1652.96	2.60928
1654.5	2.07298
1656.03	2.57567
1657.56	2.29972
1659.09	2.449
1660.62	1.91169
1662.15	2.22432
1663.67	2.2949
1665.2	2.47554
1666.73	1.73363
1668.26	2.28497
1669.79	1.74989
1671.32	2.06451
1672.84	2.28804
1674.37	1.73853
1675.9	1.70448
1677.43	2.01919
1678.95	1.65177
1680.48	1.26516
1682	1.28242
1683.53	1.44619
1685.05	1.5915
1686.58	1.09518
1688.1	1.14975
1689.63	0.929913
1691.15	1.47952
1692.68	0.78426
1694.2	0.857818
1695.72	0.400959
1697.25	0.711702
1698.77	0.674779
1700.29	0.801676
1701.81	0.964319
1703.33	0.670519
1704.86	0.831801
1706.38	0.519295
1707.9	0.679654
1709.42	0.367432
1710.94	0.273594
1712.46	0.107562
1713.98	0.467345
1715.5	0.247332
1717.02	1.11282
1718.54	0.458677
1720.06	0.672273
1721.57	-0.178761
1723.09	0.234068
1724.61	0.088829
1726.13	0.539302
1727.64	0.594754
1729.16	0.435238
1730.68	0.0960207
1732.19	0.629522
1733.71	0.10039
1735.23	0.310376
1736.74	0.425531
1738.26	0.659938
1739.77	0.244945
1741.29	0.277765
1742.8	-0.108677
1744.31	0.177781
1745.83	0.470682
1747.34	0.16269
1748.85	0.247034
1750.37	0.321839
1751.88	0.210807
1753.39	0.042181
1754.91	0.310623
1756.42	0.287561
1757.93	0.00678825
1759.44	0.430184
1760.95	0.657605
1762.46	0.809443
1763.97	0.419162
1765.48	0.412879
1766.99	0.242758
1768.5	0.154886
1770.01	0.209638
1771.52	0.146474
1773.03	0.316237
1774.54	-0.0242891
1776.04	0.141195
1777.55	-0.357855
1779.06	0.542543
1780.57	0.167439
1782.07	0.19589
1783.58	0.254317
1785.09	0.0389166
1786.59	0.538157
1788.1	0.247786
1789.6	0.0743799
1791.11	-0.090313
1792.61	0.0152016
1794.12	-0.0900631
1795.62	-0.152695
1797.13	-0.24976
1798.63	0.166681
1800.13	0.355977
1801.64	0.381591
1803.14	0.0982599
1804.64	-0.077281
1806.15	0.261372
1807.65	0.107283
1809.15	-0.125769
1810.65	0.103127
1812.15	0.22471
1813.65	-0.0176439
1815.16	0.00677681
1816.66	-0.102863
1818.15	-0.15813
1819.66	-0.345615
1821.16	0.105586
1822.65	-0.216113
1824.15	-0.233457
1825.65	0.0784063
1827.15	0.0565891
1828.65	0.259649
1830.15	0.367793
1831.64	0.230147
1833.14	-0.039916
1834.64	0.113634
1836.14	0.238318
1837.63	0.575185
1839.13	-0.156271
1840.62	-0.00259113
1842.12	0.21448
1843.62	0.0113993
1845.11	-0.126803
1846.61	0.214953
1848.1	0.391352
1849.6	0.0139999
1851.09	-0.18611
1852.58	-0.0963736
1854.08	0.0930891
1855.57	0.2894
1857.06	-0.120056
1858.55	0.310542
1860.05	0.0646372
1861.54	0.026927
1863.03	0.134735
1864.52	0.315585
1866.01	0.0397997
1867.5	-0.018527
1869	-0.0766048
1870.49	0.0444078
1871.98	-0.044158
1873.47	0.0378075
1874.96	-0.0587559
1876.44	0.267828
1877.93	0.0574923
1879.42	0.0745802
1880.91	-0.347703
1882.4	0.196057
1882.47	0.221641
1883.96	-0.0561781
1885.46	0.205685
1886.95	-0.212808
1888.44	-0.161335
1889.94	0.342583
1891.43	0.116505
1892.93	-0.107936
1894.42	0.0344543
1895.91	-0.152067
1897.4	0.305618
1898.89	0.119806
1900.39	0.106969
1901.88	-0.0291462
1903.37	0.233138
1904.86	-0.236263
1906.35	0.232261
1907.84	0.109813
1909.33	0.526112
1910.82	-0.167512
1912.31	0.163578
1913.8	0.286938
1915.29	0.150242
1916.77	0.325357
1918.26	0.118558
1919.75	-0.0192461
1921.24	0.639695
1922.73	0.0172243
1924.21	-0.41372
1925.7	0.00469208
1927.19	-0.251101
1928.67	-0.402462
1930.16	-0.224858
1931.64	0.229149
1933.13	0.214262
1934.61	-0.16579
1936.1	0.196898
1937.58	-0.0125532
1939.07	0.0024395
1940.55	0.380266
1942.04	0.0163431
1943.52	0.0159988
1945	-0.018033
1946.49	-0.0516834
1947.97	0.448733
1949.45	0.0867481
1950.93	0.102962
1952.42	0.135497
1953.9	-0.0733042
1955.38	-0.00697994
1956.86	0.437394
1958.34	0.109539
1959.82	-0.148673
1961.3	0.091114
1962.78	0.519439
1964.26	-0.354876
1965.74	0.0555286
1967.22	0.31084
1968.7	0.0178623
1970.18	0.0494862
1971.65	0.371188
1973.13	-0.229343
1974.61	0.0238771
1976.09	-0.0469465
1977.57	-0.219717
1979.04	-0.153872
1980.52	0.0819654
1982	0.368317
1983.47	0.365217
1984.95	0.259953
1986.42	0.392053
1987.9	0.151074
1989.37	-0.106194
1990.85	0.229798
1992.32	0.481664
1993.8	0.294678
1995.27	0.362111
1996.75	0.42992
1998.22	0.176781
1999.69	0.429894
2001.17	0.142223
2002.64	0.259152
2004.11	0.139803
2005.58	0.357858
2007.05	0.340592
2008.53	0.45893
2010	0.089797
2011.47	0.0411072
2012.94	0.278619
2014.41	-0.140631
2015.88	0.196705
2017.35	-0.0051899
2018.82	-0.0227575
2020.29	0.177613
2021.76	-0.00862694
2023.23	0.477008
2024.7	-0.0102243
2026.16	0.34262
2027.63	0.377986
2029.1	0.448289
2030.57	-0.0672922
2032.03	0.256796
2033.5	-0.039566
2034.97	0.352374
2036.44	0.559444
2037.9	0.00998497
2039.37	0.24981
2040.83	0.708189
2042.3	0.0405712
2043.76	0.180563
2045.23	0.422446
2046.69	0.345376
2048.16	0.133762
2049.62	-0.0783491
2051.08	0.382872
2052.55	0.438219
2054.01	0.593062
2055.47	0.122293
2056.94	0.375346
2058.4	-0.215096
2059.86	0.32331
2061.32	0.33968
2062.79	0.592434
2064.25	0.290633
2065.71	0.696636
2067.17	0.665876
2068.63	0.703009
2070.09	0.184968
2071.55	0.373928
2073.01	0.865879
2074.47	0.498881
2075.93	0.24939
2077.39	0.959435
2078.85	0.877602
2080.31	0.610103
2081.76	0.779869
2083.22	0.645942
2084.68	0.477709
2086.13	0.796718
2087.59	0.829014
2089.05	1.11295
2090.51	0.690891
2091.96	0.63854
2093.42	0.686837
2094.87	0.650983
2096.33	0.882869
2097.78	0.661583
2099.24	0.590631
2100.69	0.736862
2102.15	0.615684
2103.6	1.0298
2105.06	0.660237
2106.51	1.05977
2107.96	0.62616
2109.42	0.476584
2110.87	1.34349
2112.32	0.725452
2113.77	0.989036
2115.23	0.934505
2116.68	0.945651
2118.13	1.00687
2119.58	0.903268
2121.03	0.834798
2122.48	1.34871
2123.93	1.30006
2125.38	1.28527
2126.83	1.13761
2128.28	1.40344
2129.73	1.65116
2131.18	1.53295
2132.63	1.54644
2134.08	1.51021
2135.53	0.879543
2136.97	1.44084
2138.42	1.22695
2139.87	1.84128
2141.32	1.7136
2142.76	1.7359
2144.21	1.59348
2145.66	1.83173
2147.1	1.90432
2148.55	1.31381
2150	1.99773
2151.44	1.73645
2152.89	2.1203
2154.33	2.05592
2155.78	2.33894
2157.22	1.92621
2158.66	2.74002
2160.11	1.71647
2161.55	2.38451
2163	2.09344
2164.44	2.56678
2165.88	2.77609
2167.32	2.08849
2168.77	2.46285
2170.21	2.28687
2171.65	2.15844
2173.09	1.97802
2174.53	1.92923
2175.97	2.22906
2177.41	2.12989
2178.85	2.33078
2180.29	1.93415
2181.73	2.22009
2183.17	1.77502
2184.61	2.19499
2186.05	1.65031
2187.49	2.43657
2188.93	2.20798
2190.37	1.89606
2191.81	1.61705
2193.24	2.10314
2194.68	2.28821
2196.12	1.95531
2197.56	1.12144
2198.99	1.63364
2200.43	2.19391
2201.87	1.59095
2203.3	2.13426
2204.74	2.18058
2206.17	1.89646
2207.61	1.67943
2209.04	1.7605
2210.48	1.65865
2211.91	1.52283
2213.35	1.88228
2214.78	1.56384
2216.21	1.54353
2217.65	1.52434
2219.08	0.995186
2220.51	1.70368
2221.95	1.14286
2223.38	1.05954
2224.81	1.40311
2226.24	0.757272
2227.67	1.45903
2229.1	1.17272
2230.54	1.05028
2231.97	1.32117
2233.4	1.01879
2234.83	1.1102
2236.26	0.843121
2237.69	0.953433
2239.11	1.19592
2240.54	0.869241
2241.97	1.11525
2243.4	0.74267
2244.83	0.827135
2246.26	1.13938
2247.69	0.520488
2249.11	0.666201
2250.54	0.581625
2251.97	0.902483
2253.4	0.880419
2254.82	0.679903
2256.25	0.318663
2257.67	0.625223
2259.1	0.0905428
2260.53	0.888901
2261.95	0.992026
2263.38	0.593344
2264.8	0.812039
2266.23	0.981894
2267.65	0.484187
2269.07	0.457163
2270.5	0.347986
2271.92	0.694199
2273.34	0.942668
2274.77	0.539725
2276.19	0.299705
2277.61	0.956107
2279.03	0.50436
2280.46	0.247997
2281.88	0.35023
2283.3	0.41979
2284.72	0.375181
2286.14	0.3797
2287.56	0.449852
2288.98	0.422438
2290.4	0.313671
2291.82	0.515651
2293.24	0.554375
2294.66	0.331331
2296.08	0.484488
2297.5	0.0482073
2298.92	0.201352
2300.34	-0.0713472
2301.76	0.902146
2303.17	0.285501
2304.59	0.292105
2306.01	0.0523076
2307.43	0.239182
2308.84	0.310676
2310.26	0.348814
2311.68	0.616889
2313.09	0.0623817
2314.51	0.133304
2315.92	0.353101
2317.34	0.112499
2318.75	0.23469
2320.17	0.571244
2321.58	0.296629
2323	0.135716
2324.41	0.319324
2325.82	0.632836
2327.24	1.20836
2328.65	0.645309
2330.06	0.725418
2331.48	0.328796
2332.89	0.344936
2334.3	0.164392
2335.71	0.247376
2337.12	0.362837
2338.54	-0.24601
2339.95	0.34426
2341.36	0.111907
2342.77	0.273252
2344.18	0.286734
2345.59	0.628211
2347	0.232453
2348.41	0.0827527
2349.82	0.0801473
2351.23	0.371121
2352.64	0.317761
2354.04	0.149422
2355.45	0.290505
2356.86	0.268143
2358.27	0.310844
2359.68	0.353561
2361.08	0.0716538
2362.49	0.130813
2363.9	-0.00460291
2365.3	0.151443
2366.71	0.37195
2368.12	0.285759
2369.52	-0.15426
2370.93	0.358598
2372.33	0.227564
2373.74	-0.0795689
2375.14	0.289972
2376.55	0.0153098
2377.95	0.222423
2379.36	0.283299
2380.76	0.149947
2382.16	0.368388
2383.57	0.313214
2384.97	0.449884
2386.37	0.394845
2387.78	0.340718
2389.18	0.208034
2390.58	0.283812
2391.98	0.217235
2393.38	0.215286
2394.79	0.341315
2396.19	0.0386214
2397.59	0.0863395
2398.99	0.213979
2400.39	0.627951
2401.79	-0.0221281
2403.19	0.439722
2404.59	0.424747
2405.99	0.424892
2407.39	0.106841
2408.78	0.200723
2410.18	0.183235
2411.58	0.387742
2412.98	0.386894
2414.38	0.118027
2415.77	0.578755
2417.17	0.0907993
2418.57	0.236914
2419.97	0.240889
2421.36	0.18141
2422.76	0.105769
2424.15	0.0298519
2425.55	0.255037
2426.95	0.147896
2428.34	0.152421
2429.74	-0.111835
2431.13	-0.169441
2432.52	0.0111556
2433.92	-0.237305
2435.31	-0.21679
2436.71	-0.118052
2438.1	-0.0682569
2439.49	-0.00369835
2440.89	0.202949
2442.28	0.440717
2443.67	0.201991
2445.06	-0.0367031
2446.46	0.247873
2447.85	0.516227
2449.24	0.00814342
2450.63	-0.15097
2452.02	0.101997
2453.41	-0.103408
2454.8	-0.0232286
2456.19	0.247354
2457.58	-0.130342
2458.97	0.219463
2460.36	0.189153
2461.75	0.158154
2463.14	-0.347693
2464.53	-0.000500679
2465.92	0.235588
2467.31	0.439807
2468.69	0.0442123
2470.08	0.200796
2471.47	0.0888667
2472.86	0.212779
2474.24	0.00526285
2475.63	0.0491705
2477.02	-0.253113
2478.4	0.293103
2479.79	0.33642
2481.17	0.175981
2482.56	-0.281948
2483.94	0.278051
2485.33	0.273241
2486.72	0.361186
2488.1	-0.0514121
2489.48	-0.198698
2490.87	-0.252362
2492.25	0.471781
2493.64	0.0771627
2495.02	0.149906
2496.4	0.192625
2497.79	0.17409
2499.17	0.310626
2500.55	-0.0637345
2501.93	0.21094
2503.31	-0.31865
2504.69	0.262672
2506.08	0.241271
2507.46	-0.165093
2508.84	0.367362
2510.22	-0.0685081
2511.6	0.0340462
2512.98	-0.261479
2514.36	-0.249458
2515.74	0.161234
2517.12	0.327323
2518.5	-0.102549
2519.88	-0.317874
2521.25	-0.349901
2522.63	-0.245039
2524.01	-0.0952444
2525.39	0.236602
2526.77	-0.0262332
2528.14	-0.577431
2529.52	-0.214626
2530.9	-0.0485177
2532.27	0.118896
2533.65	0.515337
2535.03	-0.211848
2536.4	0.124453
2537.78	0.0500064
2539.15	0.217776
2540.53	-0.328871
2541.9	0.0200038
2543.28	-0.116665
2544.65	0.308696
2546.03	0.113124
2547.4	0.328181
2548.77	0.2558
2550.15	-0.150328
2551.52	0.247372
2552.89	0.416689
2554.27	0.0539389
2555.64	0.176014
2557.01	0.145857
2558.38	0.327877
2559.75	0.176515
2561.12	0.237874
2562.5	0.0421519
2563.87	-0.07726
2565.24	0.182556
2566.61	-0.0271816
2567.98	0.0662475
2569.35	0.144547
2570.72	0.268318
2572.09	-0.00195408
2573.46	-0.166079
2574.83	-0.14823
2576.19	-0.0848613
2577.56	0.357518
2578.93	0.162912
2580.3	0.513872
2581.67	0.151806
2583.04	-0.210543
2584.4	0.275926
2585.77	0.246862
2587.14	0.248218
2588.5	-0.023056
2589.87	0.0392137
2591.23	0.0710745
2592.6	-0.0641236
2593.97	0.0575795
2595.33	0.0269113
2596.7	-0.0651631
2598.06	-0.036799
2599.43	0.11215
2600.79	0.170339
2602.15	-0.178871
2603.52	0.348363
2604.88	-0.150437
2606.25	-0.135815
2607.61	0.0142584
2608.97	-0.0474992
2610.33	0.29648
2611.7	0.247495
2613.06	-0.148293
2614.42	0.0568929
2615.78	0.156374
2617.15	0.0309715
2618.51	-0.183529
2619.87	0.00703096
2621.23	0.138107
2622.59	0.105099
2623.95	0.176875
2625.31	-0.0648518
2626.67	-0.00820923
2628.03	-0.0413361
2629.39	-0.000219345
2630.75	-0.0039835
2632.1	-0.290295
2633.46	0.24081
2634.82	0.296081
2636.18	-0.138168
2637.54	-0.127172
2638.89	0.061532
2640.25	0.309246
2641.61	0.157648
2642.97	-0.170758
2644.32	-0.0704236
2645.68	0.369037
2647.03	-0.0917315
2648.39	-0.125188
2649.75	0.238075
2651.1	-0.0468345
2652.46	0.226637
2653.81	0.118268
2655.17	0.0253987
2656.52	-0.198197
2657.88	-0.0545878
2659.23	0.133509
2660.58	0.160953
2661.94	-0.220941
2663.29	0.0397739
2664.64	0.226499
2666	-0.0982013
2667.35	0.130999
2668.7	0.155869
2670.05	-0.0664277
2671.4	0.177326
2672.76	-0.0727329
2674.11	0.0556154
2675.46	0.111753
2676.81	0.29891
2678.16	-0.0791397
2679.51	-0.209766
2680.86	-0.165515
2682.21	0.126194
2683.56	0.0129662
2684.91	0.176102
2686.26	0.165658
2687.61	0.300261
2688.96	0.0709867
2690.3	-0.0145822
2691.65	0.0289559
2693	0.201736
2694.35	0.170479
2695.7	-0.0638256
2697.04	0.035778
2698.39	-0.0229115
2699.74	0.252863
2701.08	0.139181
2702.43	-0.031178
2703.77	-0.273201
2705.12	-0.036581
2706.47	0.113293
2707.81	0.0744514
2709.16	-0.00831175
2710.5	0.315151
2711.85	0.101112
2713.19	0.235564
2714.53	0.399112
2715.88	0.184675
2717.22	0.15907
2718.57	0.191428
2719.91	0.383553
2721.25	0.211523
2722.59	0.446563
2723.94	0.448332
2725.28	0.260491
2726.62	-0.0441108
2727.96	0.0294595
2729.3	0.0300527
2730.65	-0.245938
2731.99	0.292837
2733.33	0.409696
2734.67	-0.244231
2736.01	-0.185198
2737.35	0.426612
2738.69	0.296652
2740.03	0.122879
2741.37	0.23955
2742.71	0.00673819
2744.05	-0.0521464
2745.38	0.643926
2746.72	0.337064
2748.06	-0.216473
2749.4	-0.0730586
2750.74	0.0123878
2752.07	0.387944
2753.41	-0.135119
2754.75	-0.0202045
2756.09	0.036819
2757.42	-0.297008
2758.76	0.107832
2760.09	0.411504
2761.43	0.122188
2762.77	0.426618
2764.1	0.0223145
2765.44	0.153388
2766.77	0.0670662
2768.11	-0.0489211
2769.44	-0.2382
2770.77	0.149565
2772.11	-0.157506
2773.44	-0.291821
2774.77	0.0493927
2776.11	0.260313
2777.44	0.14017
2778.77	0.164502
2780.11	0.0886612
2781.44	0.070652
2782.77	0.0240507
2784.1	-0.0225329
2785.43	0.274899
2786.77	-0.0438008
2788.1	-0.51916
2789.43	-0.235092
2790.76	-0.351001
2792.09	-0.0515461
2793.42	0.176682
2794.75	-0.209698
2796.08	0.289725
2797.41	0.174181
2798.74	0.629368
2800.07	-0.414784
2801.4	-0.0887299
2802.72	0.151302
2804.05	0.319621
2805.38	-0.139302
2806.71	0.170448
2808.04	0.123648
2809.36	0.30394
2810.69	-0.353914
2812.02	0.380413
2813.34	-0.246795
2814.67	-0.24841
2816	0.0913463
2817.32	-0.0215831
2818.65	0.305388
2819.97	-0.062119
2821.3	0.349541
2822.62	0.236218
2823.95	0.391579
2825.27	0.149943
2826.6	0.290805
2827.92	0.19135
2829.25	0.559582
2830.57	0.545961
2831.89	0.560853
2833.22	0.405845
2834.54	0.604434
2835.86	0.406297
2837.18	0.943526
2838.51	0.914282
2839.83	0.602016
2841.15	1.03933
2842.47	1.25063
2843.79	1.095
2845.11	1.59013
2846.43	1.71839
2847.76	2.05901
2849.08	1.79195
2850.4	2.24544
2851.72	2.03416
2853.04	2.10506
2854.36	2.23209
2855.67	2.3589
2856.99	2.20311
2858.31	2.79602
2859.63	2.51315
2860.95	2.82325
2862.27	2.66705
2863.58	2.82106
2864.9	2.73485
2866.22	3.07184
2867.54	3.26788
2868.85	3.01306
2870.17	3.29447
2871.49	3.70282
2872.8	3.53295
2874.12	3.84148
2875.43	4.21917
2876.75	4.13079
2878.07	4.25269
2879.38	4.10691
2880.7	3.98971
2882.01	4.11229
2883.32	4.10946
2884.64	3.91106
2885.95	4.35913
2887.27	3.86676
2888.58	4.42656
2889.89	4.73274
2891.21	4.46289
2892.52	4.10851
2893.83	4.63682
2895.14	4.81494
2896.46	4.64385
2897.77	4.62789
2899.08	5.04675
2900.39	4.94875
2901.7	5.29891
2903.01	5.62129
2904.32	4.68493
2905.63	5.24552
2906.94	5.49898
2908.25	5.73934
2909.56	6.27452
2910.87	5.98488
2912.18	6.22704
2913.49	6.14646
2914.8	6.00834
2916.11	6.48432
2917.42	6.93036
2918.72	7.03919
2920.03	6.88197
2921.34	7.17299
2922.65	7.35342
2923.95	7.53541
2925.26	7.73269
2926.57	7.34361
2927.88	7.56966
2929.18	8.14481
2930.49	8.45368
2931.79	7.86726
2933.1	8.1752
2934.4	7.95191
2935.71	7.98033
2937.01	7.79931
2938.32	7.14341
2939.62	7.70354
2940.93	7.17429
2942.23	6.8835
2943.54	6.83154
2944.84	6.58532
2946.14	6.42414
2947.45	6.45939
2948.75	6.25649
2950.05	6.19225
2951.35	5.79001
2952.66	5.53973
2953.96	5.34399
2955.26	5.17585
2956.56	5.3725
2957.86	4.99731
2959.16	5.22674
2960.46	5.03897
2961.77	4.8531
2963.07	4.48542
2964.37	4.87481
2965.66	4.58897
2966.96	4.63845
2968.26	4.25077
2969.56	4.11518
2970.86	4.13409
2972.16	3.84376
2973.46	4.06023
2974.76	3.67153
2976.06	3.94377
2977.35	3.53895
2978.65	3.25917
2979.95	3.69568
2981.25	3.21593
2982.54	3.10165
2983.84	3.10021
2985.14	3.43709
2986.43	2.86192
2987.73	2.42879
2989.02	2.3198
2990.32	2.12673
2991.62	2.53756
2992.91	2.27279
2994.21	2.3441
2995.5	2.03501
2996.8	1.9641
2998.09	1.40186
2999.38	1.85025
3000.68	1.63972
3001.97	1.07945
3003.26	1.31861
3004.56	0.857298
3005.85	1.08223
3007.14	0.774525
3008.43	1.36181
3009.73	0.856943
3011.02	0.645493
3012.31	1.04827
3013.6	0.724945
3014.89	1.05763
3016.19	0.763572
3017.48	0.470529
3018.77	0.386981
3020.06	0.47048
3021.35	0.150438
3022.64	0.107899
3023.93	0.342157
3025.22	0.0900707
3026.5	0.170665
3027.79	0.320638
3029.08	0.0149956
3030.37	0.028789
3031.66	0.140439
3032.95	-0.00942135
3034.24	0.420724
3035.52	0.422459
3036.81	0.105964
3038.1	0.229266
3039.39	0.226875
3040.67	0.223127
3041.96	0.328375
3043.25	0.392103
3044.53	0.428971
3045.82	0.549172
3047.1	0.0835972
3048.39	0.139445
3049.67	0.169717
3050.96	0.283191
3052.24	0.629318
3053.53	0.470588
3054.81	0.488681
3056.1	0.0694232
3057.38	0.508379
3058.67	0.155951
3059.95	0.525314
3061.23	0.146075
3062.52	-0.0959759
3063.8	0.302307
3065.08	0.1443
3066.36	0.368138
3067.65	0.40252
3068.93	0.219669
3070.21	0.553377
3071.49	-0.0384789
3072.77	0.347861
3074.05	-0.354599
3075.33	-0.323521
3076.61	0.0603213
3077.89	0.226884
3079.17	0.231353
3080.45	-0.0613675
3081.73	0.149149
3083.01	0.292898
3084.29	0.0709281
3085.57	-0.0696373
3086.85	-0.0748816
3088.13	-0.135005
3089.41	-0.0871286
3090.68	0.0010457
3091.96	-0.00592661
3093.24	-0.0263586
3094.52	0.15686
3095.79	0.326673
3097.07	-0.11354
3098.35	0.069809
3099.62	-0.194204
3100.9	0.327514
3102.18	-0.0719171
3103.45	-0.145995
3104.73	0.132279
3106	-0.170899
3107.28	-0.148513
3108.55	0.14536
3109.83	-0.0200357
3111.1	-0.0763965
3112.38	-0.0779943
3113.65	-0.0250463
3114.93	0.231276
3116.2	0.243289
3117.47	-0.15232
3118.75	0.237772
3120.02	0.220022
3121.29	0.0794425
3122.57	-0.0480118
3123.84	-0.283915
3125.11	0.0627284
3126.38	-0.091363
3127.65	0.0933456
3128.92	0.237769
3130.2	-0.131405
3131.47	0.040391
3132.74	0.26601
3134.01	-0.130178
3135.28	0.081068
3136.55	0.00825739
3137.82	0.164305
3139.09	0.131186
3140.36	0.232544
3141.63	0.279952
3142.9	0.246877
3144.17	-0.175106
3145.43	0.222364
3146.7	0.0701647
3147.97	0.17324
3149.24	0.423927
