200.554	0.101255
202.369	0.149452
204.183	0.199408
205.999	-0.0654869
207.813	0.302031
209.626	0.66814
211.439	0.861818
213.253	0.71314
215.065	1.24173
216.877	0.847439
218.688	0.986479
220.5	0.0613155
222.312	-0.0147781
224.123	-0.113806
225.933	0.827061
227.742	0.631687
229.552	0.170029
231.361	0.64893
233.171	-0.658327
234.98	0.254284
236.787	-1.07364
238.595	-0.132471
240.402	0.71603
242.209	0.0492516
244.015	0.975967
245.822	-0.365633
247.627	-0.527988
249.435	0.585018
251.24	0.533775
253.045	-0.101282
254.849	0.419214
256.653	-0.363482
258.457	0.783592
260.26	-0.139462
262.063	0.241468
263.866	-0.218378
265.668	0.359175
267.47	-0.581097
269.271	0.430084
271.073	0.0417519
272.873	-0.0111408
274.674	0.560402
276.474	0.670979
278.274	0.754208
280.073	-0.177629
281.872	0.13983
283.671	-0.339855
285.47	-0.340527
287.268	0.281471
289.065	0.374645
290.863	0.612438
292.66	-0.0576954
294.456	0.0408134
296.253	0.523876
298.049	0.362797
299.844	0.704165
301.637	0.782055
303.432	0.309238
305.227	0.311975
307.021	0.813969
308.815	-0.0914402
310.609	0.410526
312.402	-0.157888
314.195	0.157454
315.987	0.356422
317.777	0.581881
319.569	0.0236015
321.36	0.157715
323.151	0.0068264
324.942	0.261927
326.733	-0.485529
328.521	-0.0637627
330.31	0.333445
332.1	-0.275542
333.889	0.236738
335.677	-0.0199871
337.464	0.820284
339.252	0.771692
341.039	-0.331681
342.826	0.85923
344.611	0.806492
346.398	-0.272497
348.184	0.369313
349.97	-0.182158
351.754	0.579163
353.539	0.122175
355.324	0.212298
357.106	-0.0336533
358.89	0.67166
360.674	0.20731
362.455	1.21736
364.239	-0.319546
366.021	0.567977
367.804	-0.13761
369.584	0.318493
371.366	0.559031
373.145	-0.00655079
374.926	0.137407
376.707	-0.568683
378.485	-0.211508
380.265	0.240458
382.045	-0.153964
383.822	0.112618
385.601	0.404279
387.378	0.532976
389.156	0.522326
390.934	1.00635
392.71	-0.0350294
394.487	-0.67623
396.262	-0.236736
398.038	0.696059
399.813	-0.133014
401.588	-0.281753
403.362	-0.0322809
405.137	0.309885
406.912	0.321974
408.685	0.379978
410.459	-0.313735
412.23	0.541693
414.004	-0.0573587
415.775	0.3067
417.548	0.296509
419.318	-0.534148
421.089	0.231248
422.86	0.761652
424.63	0.281466
426.401	0.245791
428.17	-0.0494823
429.94	0.241331
431.708	0.719753
433.478	0.658784
435.245	0.340123
437.012	-0.448071
438.781	-0.0874147
440.547	-0.503489
442.315	0.0158243
444.081	0.718801
445.846	0.808811
447.613	0.124397
449.378	-0.232189
451.142	-0.0740805
452.908	0.52769
454.672	-0.037426
456.435	0.213946
458.2	-0.18741
459.963	0.365976
461.725	0.617327
463.489	-0.477155
465.251	0.0591879
467.012	0.553246
468.775	0.261352
470.536	0.181274
472.296	0.497511
474.056	0.533438
475.817	0.706306
477.576	0.805901
479.335	-0.378634
481.094	0.834587
482.854	0.394258
484.612	0.165387
486.37	0.265539
488.127	0.97503
489.886	0.265781
491.642	0.420761
493.398	0.319948
495.154	0.45309
496.91	0.445841
498.667	0.883294
500.422	0.406107
502.176	0.912855
503.93	1.32497
505.684	0.842565
507.438	1.20395
509.191	1.23374
510.946	0.907949
512.698	0.414779
514.45	0.672194
516.202	0.268664
517.954	1.39204
519.705	0.561853
521.456	-0.0573292
523.206	0.779307
524.956	0.910594
526.706	0.384865
528.456	1.14921
530.207	1.16266
531.956	1.24566
533.704	0.273921
535.452	0.377524
537.2	0.408645
538.947	1.06779
540.694	0.884144
542.441	1.14215
544.188	-0.13641
545.934	0.818563
547.68	0.170256
549.425	0.659641
551.17	-0.26417
552.915	0.0864086
554.659	1.3607
556.403	0.232351
558.145	0.605678
559.889	0.587424
561.632	0.178772
563.375	0.0476694
565.117	1.57252
566.859	0.0873909
568.601	0.0515547
570.342	0.499291
572.083	0.237737
573.824	0.25413
575.565	-0.0937653
577.303	0.708118
579.043	0.571424
580.782	0.389856
582.521	0.943584
584.26	0.508351
585.998	0.416096
587.734	0.0227432
589.472	0.0415192
591.21	-0.240227
592.947	0.627625
594.684	0.0687771
596.418	-0.144868
598.154	0.46966
599.89	0.00228977
601.626	-0.305296
603.361	-0.154751
605.094	-0.167442
606.828	-0.434855
608.562	0.605744
610.296	0.199113
612.027	0.229541
613.761	0.0548344
615.493	0.614692
617.224	0.487093
618.956	0.12971
620.688	0.388961
622.419	0.279954
624.149	0.535535
625.879	-0.191438
627.61	-0.208085
629.338	0.394499
631.068	0.156245
632.797	0.126554
634.525	0.029973
636.254	1.1198
637.98	-0.555189
639.708	-0.0429583
641.436	0.236198
643.162	0.85304
644.889	-0.195142
646.614	1.14756
648.34	0.695607
650.067	0.431045
651.791	0.172705
653.516	0.0112381
655.239	0.855635
656.964	4.18721
658.687	4.9287
660.411	4.59833
662.133	2.96313
663.857	0.29117
665.58	0.837127
667.301	0.51141
669.024	0.710509
670.744	0.453501
672.464	0.245168
674.186	0.109094
675.905	-0.299009
677.626	-0.45365
679.345	0.195468
681.065	-0.0293236
682.783	0.571045
684.503	0.202005
686.22	-0.193442
687.939	0.836562
689.656	0.413999
691.372	0.289716
693.09	0.394798
694.806	-0.0310326
696.523	0.554942
698.239	0.609304
699.953	0.845738
701.67	0.505158
703.384	0.577219
705.098	0.992576
706.813	-0.337626
708.526	0.855998
710.239	0.489094
711.954	1.08368
713.666	0.784781
715.378	-0.130869
717.091	-0.0632458
718.802	-0.132423
720.513	0.619234
722.226	0.823324
723.936	0.367387
725.646	0.798589
727.355	0.229264
729.067	0.908296
730.776	0.0665588
732.484	0.471469
734.192	0.762168
735.902	0.170932
737.61	0.213678
739.317	0.370198
741.024	0.911157
742.731	0.37202
744.439	0.398433
746.145	1.32713
747.851	0.30022
749.556	0.31048
751.262	1.51478
752.966	0.404406
754.673	0.803205
756.377	0.0792656
758.081	0.730552
759.784	0.0780163
761.487	0.711435
763.19	0.714788
764.892	0.875772
766.594	1.01263
768.296	1.23722
770	1.63948
771.701	1.36027
773.402	0.694483
775.102	1.40742
776.803	1.42029
778.503	0.869938
780.202	1.09072
781.901	1.44905
783.6	0.902531
785.299	1.48579
786.997	1.658
788.695	1.12364
790.393	1.44421
792.09	2.12177
793.787	0.899073
795.484	1.64078
797.18	1.41356
798.877	1.03168
800.572	1.73342
802.268	1.58176
803.963	2.33081
805.658	1.48295
807.35	1.48837
809.044	0.795824
810.738	1.47126
812.432	1.83037
814.125	1.87439
815.818	1.78365
817.51	1.64829
819.202	2.11667
820.894	2.07099
822.584	1.53521
824.275	1.84875
825.966	1.78539
827.657	2.23783
829.347	1.87054
831.037	1.35222
832.725	1.95205
834.414	0.683224
836.103	2.18029
837.792	1.42459
839.481	2.38564
841.167	1.46857
842.854	1.7778
844.542	1.17025
846.229	0.854145
847.914	1.21142
849.6	1.75186
851.287	1.49089
852.973	2.62222
854.656	1.4012
856.341	2.33378
858.026	1.08532
859.711	1.92489
861.393	2.1773
863.077	2.38232
864.761	1.3008
866.442	0.893459
868.125	1.58986
869.808	0.977745
871.489	1.15446
873.171	1.30838
874.85	1.5525
876.532	1.20999
878.213	0.754572
879.892	0.479471
881.572	0.587532
883.251	1.1686
884.931	1.20614
886.61	1.53486
888.287	1.25176
889.966	1.57525
891.643	0.656549
893.321	2.28172
894.997	1.22491
896.675	0.865114
898.352	0.729048
900.028	1.37691
901.704	0.296963
903.379	1.18787
905.055	0.579016
906.729	1.44517
908.404	2.02044
910.077	0.903561
911.75	0.368841
913.425	1.54741
915.097	0.570677
916.771	0.416555
918.443	1.57016
920.116	0.707033
921.787	1.26214
923.46	1.11085
925.13	1.66928
926.8	0.419647
928.472	1.16002
930.141	1.19581
931.813	1.40916
933.481	1.42435
935.15	0.976635
936.82	0.992887
938.488	1.09877
940.156	0.65522
941.825	1.55913
943.492	1.49369
945.158	0.346422
946.827	0.499353
948.493	0.848133
950.158	1.12766
951.824	1.05218
953.491	0.844625
955.156	0.573587
956.82	0.747965
958.486	0.530422
960.15	0.603901
961.814	0.392633
963.477	0.00393295
965.142	0.806499
966.804	0.742662
968.467	0.386806
970.129	1.44369
971.79	0.685192
973.454	1.09987
975.115	0.234266
976.776	0.101231
978.436	0.213745
980.096	0.548582
981.756	0.88295
983.417	1.10458
985.077	1.01317
986.736	1.38324
988.394	1.63957
990.052	0.832285
991.71	1.08565
993.368	1.09554
995.025	0.97316
996.682	0.476084
998.341	1.23627
999.998	1.84095
1001.65	2.06988
1003.31	1.10947
1004.97	1.09546
1006.62	0.861574
1008.28	0.123203
1009.93	1.22962
1011.58	0.712557
1013.24	0.306461
1014.89	0.974703
1016.54	0.964258
1018.2	1.04219
1019.85	0.618376
1021.5	-0.000213623
1023.16	1.02258
1024.81	0.12335
1026.46	1.7819
1028.11	1.45179
1029.76	1.90713
1031.41	1.0935
1033.06	1.54399
1034.71	1.22771
1036.36	1.28024
1038.01	2.55128
1039.66	1.55655
1041.31	2.32626
1042.95	1.7713
1044.6	2.34971
1046.25	1.99711
1047.9	1.93021
1049.54	2.75653
1051.19	1.69549
1052.84	1.30892
1054.48	1.83543
1056.13	1.60145
1057.77	1.12774
1059.42	1.71846
1061.06	2.15602
1062.71	1.74425
1064.35	1.33093
1066	1.17688
1067.64	1.71657
1069.28	0.798717
1070.93	0.466917
1072.57	1.19885
1074.21	1.43198
1075.85	0.777378
1077.49	0.558977
1079.13	1.23168
1080.78	1.14657
1082.42	0.931293
1084.06	0.714571
1085.7	0.603706
1087.34	1.183
1088.97	1.15203
1090.61	0.66394
1092.25	0.693605
1093.89	1.52147
1095.53	2.04608
1097.17	1.75212
1098.8	1.26712
1100.44	1.32386
1102.08	1.01792
1103.71	1.14532
1105.35	0.887617
1106.99	0.781399
1108.62	1.44884
1110.26	1.2757
1111.89	1.01408
1113.52	1.17969
1115.16	0.65616
1116.79	0.775988
1118.43	0.853006
1120.06	0.952497
1121.69	0.77516
1123.32	0.663931
1124.96	1.70967
1126.59	1.8793
1128.22	1.08789
1129.85	0.319317
1131.48	1.51869
1133.11	0.559227
1134.75	0.540205
1136.37	0.840731
1138	-0.548542
1139.63	0.859274
1141.26	0.684496
1142.89	0.317072
1144.52	0.504801
1146.15	0.480307
1147.78	0.947515
1149.4	0.798004
1151.03	0.585432
1152.66	-0.223314
1154.28	0.713507
1155.91	0.755293
1157.54	-0.0966816
1159.16	0.0308514
1160.79	0.436111
1162.41	-0.283863
1164.04	-0.36438
1165.66	0.555157
1167.29	0.645021
1168.91	0.222897
1170.53	0.584648
1172.16	0.135771
1173.78	0.555086
1175.4	0.314255
1177.02	-0.562901
1178.65	-0.0827351
1180.27	-0.44882
1181.89	0.22344
1183.51	0.113708
1185.13	-0.186068
1186.75	0.99106
1188.37	-0.494513
1189.99	0.338051
1191.61	-0.118298
1193.23	0.538445
1194.85	-0.0674686
1196.47	0.565323
1198.08	0.38143
1199.7	0.368099
1201.32	0.567469
1202.94	0.582867
1204.55	0.268457
1206.17	0.917322
1207.79	0.691826
1209.4	0.529337
1211.02	1.09549
1212.63	0.782898
1214.25	0.571205
1215.86	0.543657
1217.48	0.762974
1219.09	1.49978
1220.71	1.30083
1222.32	0.667988
1223.93	1.38508
1225.54	0.405785
1227.16	0.775127
1228.77	0.898109
1230.38	0.898958
1231.99	2.0386
1233.6	1.25777
1235.22	1.38845
1236.83	1.43842
1238.44	1.77949
1240.05	0.839703
1241.66	1.0787
1243.26	1.3793
1244.87	1.8236
1246.48	1.99729
1248.09	1.56922
1249.7	2.17451
1251.31	2.32405
1252.92	1.68795
1254.52	2.23213
1256.13	3.08842
1257.74	1.23695
1259.34	1.80767
1260.95	1.96615
1262.55	1.50426
1264.16	2.51286
1265.76	2.23662
1267.37	2.00044
1268.97	2.50894
1270.58	3.07801
1272.18	1.96581
1273.78	1.72278
1275.39	2.99131
1276.99	2.64132
1278.59	2.00017
1280.2	2.00038
1281.8	2.91075
1283.4	2.269
1285	2.55929
1286.6	3.28502
1288.2	3.39217
1289.8	2.92226
1291.4	2.34997
1293	4.44289
1294.6	3.20792
1296.2	3.02446
1297.8	3.08606
1299.4	3.39226
1301	3.44804
1302.6	3.21317
1304.19	2.68899
1305.79	3.48028
1307.39	3.24225
1308.99	3.16836
1310.58	3.15611
1312.18	2.91943
1313.77	3.17533
1315.37	3.35078
1316.96	2.81301
1318.56	2.82782
1320.15	2.78119
1321.75	2.30529
1323.34	3.04858
1324.94	2.52716
1326.53	2.32949
1328.12	2.90178
1329.72	2.42086
1331.31	3.29874
1332.9	2.05728
1334.49	3.20391
1336.08	2.41469
1337.67	2.2927
1339.27	2.45186
1340.86	2.02389
1342.45	2.84069
1344.04	2.38625
1345.63	1.91106
1347.22	2.01884
1348.8	2.66998
1350.39	2.62362
1351.98	2.14159
1353.57	2.26314
1355.16	2.46665
1356.75	2.03119
1358.33	1.8749
1359.92	1.71716
1361.51	1.9171
1363.09	2.3748
1364.68	2.27325
1366.27	1.99296
1367.85	2.15239
1369.44	2.01512
1371.02	1.46234
1372.61	2.04613
1374.19	2.21379
1375.77	1.60649
1377.36	1.9146
1378.94	1.90348
1380.52	2.01007
1382.11	2.11447
1383.69	1.77921
1385.27	2.4762
1386.85	2.69502
1388.43	2.53664
1390.02	1.80392
1391.6	1.45018
1393.18	1.75252
1394.76	2.01562
1396.34	2.29808
1397.92	1.94486
1399.5	2.32339
1401.08	2.00684
1402.65	2.75855
1404.23	2.08507
1405.81	2.52044
1407.39	2.16628
1408.97	2.11014
1410.54	3.31896
1412.12	2.51285
1413.7	3.24587
1415.27	2.12207
1416.85	2.91082
1418.43	2.65353
1420	2.6926
1421.58	3.00914
1423.15	3.5447
1424.73	3.47279
1426.3	3.16686
1427.87	3.35386
1429.45	3.85526
1431.02	4.19753
1432.6	3.86857
1434.17	5.05285
1435.74	4.623
1437.31	5.33413
1438.89	4.2183
1440.46	4.99142
1442.03	4.94074
1443.6	4.71447
1445.17	5.45194
1446.74	5.26601
1448.31	5.25726
1449.88	5.30804
1451.45	5.39904
1453.02	4.27172
1454.59	4.89529
1456.16	5.44033
1457.72	5.512
1459.29	4.4004
1460.86	4.89934
1462.43	4.41099
1463.99	4.49031
1465.56	4.31212
1467.13	3.30852
1468.69	3.52388
1470.26	3.52474
1471.83	3.42947
1473.39	3.45375
1474.95	3.00872
1476.52	2.44686
1478.08	2.84593
1479.65	2.32347
1481.21	2.31056
1482.78	2.31711
1484.34	2.10788
1485.9	1.89811
1487.47	1.8634
1489.03	1.61119
1490.59	2.27582
1492.15	1.46967
1493.71	1.6771
1495.27	1.15948
1496.84	1.18698
1498.39	1.25303
1499.96	1.12546
1501.52	0.863987
1503.07	1.0509
1504.64	1.0644
1506.19	1.02017
1507.75	0.588263
1509.31	0.715842
1510.87	0.687013
1512.43	1.38921
1513.98	0.915096
1515.54	0.76926
1517.1	1.06624
1518.65	1.47877
1520.21	0.493109
1521.77	0.791775
1523.32	0.993678
1524.88	1.28933
1526.44	0.877217
1527.99	0.559988
1529.54	0.927265
1531.1	0.685984
1532.65	0.351376
1534.21	0.814257
1535.76	0.842606
1537.31	0.532247
1538.87	0.865263
1540.42	1.19817
1541.97	0.739401
1543.52	0.90238
1545.07	0.669922
1546.63	0.869555
1548.18	1.59386
1549.73	1.82933
1551.28	1.54036
1552.83	1.53338
1554.38	1.34104
1555.93	1.50602
1557.48	0.908303
1559.03	0.94847
1560.57	1.10341
1562.12	1.27938
1563.67	2.70701
1565.22	1.37433
1566.77	1.77693
1568.31	1.20872
1569.86	1.38641
1571.41	0.872863
1572.95	1.47888
1574.5	1.89802
1576.05	1.4025
1577.59	2.15805
1579.14	2.26091
1580.68	1.65524
1582.23	2.43263
1583.77	2.05347
1585.31	2.049
1586.86	1.89571
1588.4	2.06043
1589.95	2.11265
1591.49	2.23906
1593.03	3.13253
1594.57	2.52763
1596.11	2.29717
1597.66	2.79819
1599.2	2.75693
1600.74	3.57969
1602.28	2.80864
1603.82	2.80664
1605.36	3.47981
1606.9	3.0799
1608.44	3.10882
1609.98	3.22786
1611.52	2.3284
1613.06	3.15421
1614.6	2.6445
1616.13	2.62243
1617.67	2.0014
1619.21	2.01987
1620.75	2.86469
1622.28	3.29934
1623.82	2.78039
1625.36	2.14924
1626.89	2.39663
1628.43	2.66049
1629.96	2.604
1631.5	2.73277
1633.04	3.40242
1634.57	2.65319
1636.11	3.10014
1637.64	3.54821
1639.17	2.97159
1640.71	2.99175
1642.24	3.71872
1643.77	3.1025
1645.31	3.69449
1646.84	2.88957
1648.37	3.44172
1649.9	3.12112
1651.43	3.48914
1652.96	3.52502
1654.5	2.93236
1656.03	4.06479
1657.56	3.15819
1659.09	3.36217
1660.62	3.04545
1662.15	2.24576
1663.67	3.14601
1665.2	2.93578
1666.73	3.22478
1668.26	2.55623
1669.79	2.97836
1671.32	2.44444
1672.84	2.26256
1674.37	2.56024
1675.9	2.28662
1677.43	1.95665
1678.95	2.14031
1680.48	2.46921
1682	1.98809
1683.53	1.94775
1685.05	1.9443
1686.58	2.17979
1688.1	1.4077
1689.63	1.77275
1691.15	0.984329
1692.68	1.27648
1694.2	1.51335
1695.72	1.00017
1697.25	0.742937
1698.77	1.58111
1700.29	1.32263
1701.81	1.11838
1703.33	1.15044
1704.86	1.30906
1706.38	0.920897
1707.9	0.56932
1709.42	1.14452
1710.94	0.466722
1712.46	0.533717
1713.98	0.98128
1715.5	0.595498
1717.02	1.34972
1718.54	0.367567
1720.06	0.668967
1721.57	0.356715
1723.09	0.262126
1724.61	0.331266
1726.13	0.600318
1727.64	0.38509
1729.16	0.297362
1730.68	0.584989
1732.19	0.68721
1733.71	1.01958
1735.23	0.290004
1736.74	0.172419
1738.26	0.863477
1739.77	0.171348
1741.29	0.217447
1742.8	0.291303
1744.31	0.478569
1745.83	0.257704
1747.34	0.740125
1748.85	-0.0328321
1750.37	-0.0886316
1751.88	0.600204
1753.39	0.108869
1754.91	0.795269
1756.42	0.133034
1757.93	0.497904
1759.44	0.111484
1760.95	0.210604
1762.46	0.385405
1763.97	0.312863
1765.48	-0.480686
1766.99	0.335801
1768.5	0.745844
1770.01	0.46327
1771.52	0.118189
1773.03	0.575053
1774.54	-0.273237
1776.04	0.219504
1777.55	0.125002
1779.06	0.240352
1780.57	-0.259756
1782.07	-0.157695
1783.58	0.375257
1785.09	0.0233355
1786.59	0.266453
1788.1	0.176695
1789.6	0.057457
1791.11	-0.0828514
1792.61	0.222762
1794.12	0.142696
1795.62	-0.269579
1797.13	-0.0354967
1798.63	0.415577
1800.13	0.271396
1801.64	0.119277
1803.14	0.523322
1804.64	0.197367
1806.15	-0.291254
1807.65	-0.0693827
1809.15	-0.0372181
1810.65	0.15162
1812.15	-0.131511
1813.65	0.182523
1815.16	0.128072
1816.66	-0.19591
1818.15	-0.108422
1819.66	-0.0372381
1821.16	-0.0391979
1822.65	0.167599
1824.15	-0.216292
1825.65	0.0554314
1827.15	0.407928
1828.65	-0.228029
1830.15	0.0501709
1831.64	0.107384
1833.14	-0.0259676
1834.64	0.301233
1836.14	0.0229979
1837.63	-0.278834
1839.13	0.0946293
1840.62	0.0135202
1842.12	0.398544
1843.62	-0.00557804
1845.11	-0.314784
1846.61	-0.0350103
1848.1	0.0946198
1849.6	0.308985
1851.09	0.0723629
1852.58	0.372393
1854.08	0.28743
1855.57	-0.0213327
1857.06	0.00255394
1858.55	0.319584
1860.05	-0.274734
1861.54	0.0840273
1863.03	0.157819
1864.52	0.00755787
1866.01	-0.332817
1867.5	-0.0662909
1869	0.161281
1870.49	0.00278473
1871.98	-0.184073
1873.47	0.443347
1874.96	0.186937
1876.44	0.374863
1877.93	0.209647
1879.42	0.290866
1880.91	-0.349906
1882.4	0.31487
1882.47	0.349336
1883.96	0.105312
1885.46	-0.157104
1886.95	-0.333462
1888.44	0.0640745
1889.94	0.0438423
1891.43	0.198928
1892.93	0.078042
1894.42	0.272787
1895.91	0.330749
1897.4	0.337837
1898.89	0.518781
1900.39	0.158986
1901.88	0.527455
1903.37	0.214887
1904.86	0.248055
1906.35	0.679598
1907.84	0.138137
1909.33	0.118789
1910.82	0.204913
1912.31	0.517829
1913.8	0.397882
1915.29	-0.380799
1916.77	0.105967
1918.26	0.366397
1919.75	0.210155
1921.24	0.209736
1922.73	-0.361543
1924.21	0.107412
1925.7	-0.114572
1927.19	0.426723
1928.67	0.241897
1930.16	0.230179
1931.64	0.390497
1933.13	0.0119228
1934.61	0.340678
1936.1	0.286053
1937.58	0.00492859
1939.07	0.328222
1940.55	0.530602
1942.04	0.147213
1943.52	0.455745
1945	-0.0451441
1946.49	0.0065136
1947.97	0.385276
1949.45	-0.150323
1950.93	0.242925
1952.42	0.204185
1953.9	0.147436
1955.38	0.0734282
1956.86	0.0515766
1958.34	-0.0722542
1959.82	-0.0748234
1961.3	-0.11089
1962.78	0.213322
1964.26	-0.251101
1965.74	0.174696
1967.22	-0.171137
1968.7	-0.158299
1970.18	-0.0608587
1971.65	-0.134744
1973.13	0.25222
1974.61	0.195301
1976.09	-0.0658197
1977.57	0.116527
1979.04	0.0774879
1980.52	0.0214596
1982	-0.119734
1983.47	-0.363056
1984.95	-0.18215
1986.42	0.201648
1987.9	-0.228668
1989.37	0.375116
1990.85	0.132845
1992.32	-0.0739613
1993.8	0.261849
1995.27	-0.128089
1996.75	0.158639
1998.22	0.00605392
1999.69	-0.163901
2001.17	0.239178
2002.64	0.168894
2004.11	-0.1207
2005.58	0.11279
2007.05	0.0102463
2008.53	0.313242
2010	0.263806
2011.47	-0.104664
2012.94	-0.287797
2014.41	-0.0843792
2015.88	0.0169334
2017.35	0.402808
2018.82	-0.10381
2020.29	0.229382
2021.76	-0.00898266
2023.23	-0.548808
2024.7	0.288742
2026.16	0.339036
2027.63	0.257205
2029.1	0.278164
2030.57	0.233963
2032.03	0.34218
2033.5	-0.0356245
2034.97	-0.212185
2036.44	0.332964
2037.9	0.27275
2039.37	0.53126
2040.83	-0.0675526
2042.3	0.376357
2043.76	0.552463
2045.23	0.0401258
2046.69	0.454325
2048.16	0.364092
2049.62	0.172212
2051.08	0.551993
2052.55	0.20462
2054.01	0.394245
2055.47	0.412687
2056.94	0.395388
2058.4	0.494867
2059.86	0.206576
2061.32	-0.0977726
2062.79	0.087347
2064.25	0.341112
2065.71	0.613094
2067.17	0.028019
2068.63	0.369416
2070.09	0.357868
2071.55	0.565271
2073.01	0.301081
2074.47	0.777373
2075.93	0.495448
2077.39	0.953939
2078.85	0.41828
2080.31	0.521889
2081.76	0.826704
2083.22	0.827444
2084.68	0.33907
2086.13	0.842439
2087.59	0.486947
2089.05	0.769797
2090.51	1.52238
2091.96	0.813447
2093.42	0.944128
2094.87	0.604714
2096.33	1.28737
2097.78	0.795713
2099.24	0.872856
2100.69	0.497854
2102.15	1.00936
2103.6	1.08715
2105.06	1.25021
2106.51	0.948109
2107.96	1.21488
2109.42	1.2653
2110.87	1.16491
2112.32	1.56253
2113.77	1.30765
2115.23	1.11723
2116.68	1.27486
2118.13	0.85126
2119.58	1.29334
2121.03	1.37276
2122.48	1.57115
2123.93	1.67222
2125.38	1.22714
2126.83	1.56104
2128.28	1.64472
2129.73	1.87538
2131.18	1.72288
2132.63	1.6686
2134.08	1.86243
2135.53	2.27216
2136.97	2.00615
2138.42	1.89185
2139.87	2.55725
2141.32	2.23363
2142.76	2.04401
2144.21	2.59972
2145.66	1.94799
2147.1	2.05689
2148.55	2.86053
2150	2.91774
2151.44	3.05621
2152.89	2.56343
2154.33	2.58296
2155.78	2.60173
2157.22	2.48805
2158.66	2.80614
2160.11	3.07663
2161.55	2.95235
2163	2.73146
2164.44	3.24271
2165.88	2.87621
2167.32	2.94105
2168.77	2.9046
2170.21	2.99836
2171.65	2.98897
2173.09	3.25923
2174.53	3.32755
2175.97	3.01235
2177.41	2.84717
2178.85	3.0656
2180.29	3.90073
2181.73	3.34076
2183.17	3.08096
2184.61	3.45359
2186.05	3.01133
2187.49	3.0681
2188.93	2.40935
2190.37	2.63252
2191.81	2.32262
2193.24	2.87732
2194.68	2.51426
2196.12	2.34823
2197.56	2.49534
2198.99	2.40679
2200.43	2.31669
2201.87	2.35924
2203.3	1.92155
2204.74	2.13274
2206.17	2.11326
2207.61	2.02839
2209.04	2.04271
2210.48	1.60897
2211.91	1.55468
2213.35	2.01173
2214.78	1.65852
2216.21	1.35617
2217.65	1.61675
2219.08	1.33471
2220.51	0.922279
2221.95	1.28494
2223.38	1.59694
2224.81	1.75844
2226.24	1.86778
2227.67	1.64558
2229.1	1.52037
2230.54	1.18095
2231.97	0.874713
2233.4	1.40433
2234.83	0.985504
2236.26	1.25531
2237.69	1.0209
2239.11	1.24636
2240.54	0.952611
2241.97	0.792075
2243.4	0.992181
2244.83	1.07869
2246.26	0.903333
2247.69	0.595321
2249.11	0.985465
2250.54	0.785487
2251.97	0.729765
2253.4	0.78672
2254.82	0.632703
2256.25	0.870555
2257.67	0.868034
2259.1	0.57756
2260.53	0.307437
2261.95	0.787216
2263.38	0.83128
2264.8	0.632133
2266.23	0.627397
2267.65	0.946902
2269.07	0.858501
2270.5	0.801423
2271.92	0.385346
2273.34	0.669118
2274.77	0.594749
2276.19	0.748725
2277.61	0.625969
2279.03	0.55215
2280.46	0.00531578
2281.88	0.355128
2283.3	0.215532
2284.72	0.206462
2286.14	0.409865
2287.56	0.319982
2288.98	0.132639
2290.4	0.501271
2291.82	0.15133
2293.24	0.684376
2294.66	0.596133
2296.08	0.556795
2297.5	0.435461
2298.92	0.428755
2300.34	0.160056
2301.76	0.121062
2303.17	0.443326
2304.59	0.815392
2306.01	0.317328
2307.43	0.0811939
2308.84	0.534493
2310.26	-0.114412
2311.68	0.354213
2313.09	0.263618
2314.51	0.502679
2315.92	0.0842648
2317.34	-0.0534134
2318.75	0.0401583
2320.17	0.44692
2321.58	0.407072
2323	0.414127
2324.41	0.219921
2325.82	0.600109
2327.24	0.350956
2328.65	0.677775
2330.06	-0.0826836
2331.48	0.68992
2332.89	0.492441
2334.3	0.427929
2335.71	-0.146149
2337.12	0.184031
2338.54	0.397604
2339.95	0.527232
2341.36	0.179115
2342.77	0.0604696
2344.18	0.00751019
2345.59	0.495816
2347	0.230458
2348.41	0.22739
2349.82	-0.13608
2351.23	0.30092
2352.64	-0.0807705
2354.04	0.205952
2355.45	0.262927
2356.86	-0.380873
2358.27	0.229072
2359.68	0.0254765
2361.08	0.000977516
2362.49	-0.00727844
2363.9	0.243475
2365.3	0.218575
2366.71	-0.161596
2368.12	-0.0397015
2369.52	0.00267601
2370.93	-0.0822096
2372.33	0.221461
2373.74	-0.0051918
2375.14	-0.182801
2376.55	0.0736856
2377.95	-0.298644
2379.36	0.195177
2380.76	0.236386
2382.16	0.195365
2383.57	-0.535538
2384.97	0.286632
2386.37	0.19663
2387.78	0.108028
2389.18	0.324155
2390.58	-0.0159531
2391.98	0.171407
2393.38	0.184896
2394.79	0.279037
2396.19	0.167402
2397.59	0.326895
2398.99	0.35998
2400.39	0.0283594
2401.79	-0.112111
2403.19	0.22396
2404.59	0.210107
2405.99	0.353842
2407.39	0.0677567
2408.78	0.129748
2410.18	0.28629
2411.58	0.189443
2412.98	0.172945
2414.38	-0.110984
2415.77	-0.0604086
2417.17	-0.0238771
2418.57	0.108911
2419.97	-0.0428019
2421.36	0.0745649
2422.76	-0.394675
2424.15	0.102082
2425.55	0.139474
2426.95	-0.250381
2428.34	0.375317
2429.74	0.257338
2431.13	0.330642
2432.52	-0.310123
2433.92	-0.158056
2435.31	0.469255
2436.71	-0.160413
2438.1	0.0181036
2439.49	0.0200796
2440.89	0.147831
2442.28	0.258857
2443.67	0.0520201
2445.06	0.0512972
2446.46	0.319883
2447.85	-0.045867
2449.24	0.475739
2450.63	0.0471659
2452.02	-0.269582
2453.41	-0.300304
2454.8	0.207998
2456.19	0.100172
2457.58	-0.165365
2458.97	0.423043
2460.36	-0.191357
2461.75	0.252728
2463.14	-0.268678
2464.53	0.0784645
2465.92	0.14062
2467.31	-0.223636
2468.69	0.23283
2470.08	0.0104446
2471.47	-0.149274
2472.86	-0.104921
2474.24	0.111513
2475.63	0.232348
2477.02	0.0695381
2478.4	-0.203038
2479.79	-0.0669794
2481.17	0.225887
2482.56	-0.186844
2483.94	0.120609
2485.33	-0.105439
2486.72	0.354898
2488.1	0.157257
2489.48	0.0993271
2490.87	-0.161043
2492.25	-0.249113
2493.64	-0.1648
2495.02	-0.0323677
2496.4	0.272014
2497.79	0.484187
2499.17	0.139235
2500.55	0.0572844
2501.93	0.345339
2503.31	0.0911074
2504.69	0.190922
2506.08	-0.0955648
2507.46	-0.212472
2508.84	-0.159867
2510.22	0.123529
2511.6	0.299796
2512.98	-0.366303
2514.36	-0.0652094
2515.74	0.114146
2517.12	-0.134007
2518.5	0.260986
2519.88	0.289067
2521.25	-0.569061
2522.63	-0.0838318
2524.01	0.0793352
2525.39	0.195543
2526.77	-0.297957
2528.14	-0.318483
2529.52	-0.17033
2530.9	0.162101
2532.27	-0.111236
2533.65	0.133917
2535.03	-0.0605488
2536.4	-0.118301
2537.78	0.0965319
2539.15	0.188512
2540.53	-0.100273
2541.9	-0.0706606
2543.28	0.0806341
2544.65	-0.14628
2546.03	-0.250184
2547.4	0.436293
2548.77	0.274512
2550.15	0.0217886
2551.52	0.238825
2552.89	0.333239
2554.27	0.18341
2555.64	0.184094
2557.01	0.426674
2558.38	0.198838
2559.75	0.486881
2561.12	0.457232
2562.5	0.0496054
2563.87	0.0822964
2565.24	-0.202665
2566.61	0.0582504
2567.98	0.0161982
2569.35	-0.0864725
2570.72	-0.052762
2572.09	0.314463
2573.46	-0.0306187
2574.83	-0.0875978
2576.19	0.0373869
2577.56	0.31391
2578.93	0.16559
2580.3	0.03195
2581.67	0.24649
2583.04	-0.494688
2584.4	0.416371
2585.77	0.129643
2587.14	0.237191
2588.5	0.0418587
2589.87	0.0588694
2591.23	0.166639
2592.6	0.364676
2593.97	0.0767927
2595.33	0.287417
2596.7	0.0726185
2598.06	0.220015
2599.43	0.351565
2600.79	0.331968
2602.15	-0.321244
2603.52	0.113923
2604.88	0.172251
2606.25	0.0799694
2607.61	0.138125
2608.97	0.0896091
2610.33	0.295575
2611.7	-0.358455
2613.06	0.0847588
2614.42	0.315747
2615.78	-0.399525
2617.15	0.0712023
2618.51	0.36209
2619.87	0.0100641
2621.23	0.766088
2622.59	0.311439
2623.95	0.365434
2625.31	-0.192538
2626.67	-0.377282
2628.03	0.242474
2629.39	0.205709
2630.75	-0.113997
2632.1	0.0572395
2633.46	0.0053091
2634.82	-0.0317478
2636.18	-0.0243053
2637.54	0.27946
2638.89	0.153404
2640.25	0.116504
2641.61	0.0208654
2642.97	0.191653
2644.32	0.0966978
2645.68	0.193562
2647.03	-0.167251
2648.39	0.281722
2649.75	-0.0658932
2651.1	0.306592
2652.46	0.237259
2653.81	0.271026
2655.17	0.144479
2656.52	0.28325
2657.88	0.350219
2659.23	0.315957
2660.58	0.618621
2661.94	0.423907
2663.29	0.228588
2664.64	0.324323
2666	-0.412521
2667.35	0.614559
2668.7	0.372928
2670.05	0.13203
2671.4	-0.0787277
2672.76	0.525337
2674.11	0.229164
2675.46	0.413086
2676.81	0.0898094
2678.16	-0.0292912
2679.51	-0.0312281
2680.86	0.0841932
2682.21	0.0417204
2683.56	-0.173177
2684.91	0.135276
2686.26	0.125367
2687.61	0.115299
2688.96	0.335932
2690.3	0.0897436
2691.65	0.392671
2693	-0.075675
2694.35	0.354108
2695.7	0.246894
2697.04	-0.0332432
2698.39	0.296733
2699.74	0.179985
2701.08	0.456594
2702.43	0.156013
2703.77	0.450788
2705.12	0.195666
2706.47	0.012908
2707.81	0.453596
2709.16	0.792476
2710.5	0.797054
2711.85	0.394492
2713.19	0.558179
2714.53	0.329409
2715.88	0.12949
2717.22	0.394671
2718.57	0.426879
2719.91	0.633205
2721.25	0.606116
2722.59	0.985862
2723.94	1.11753
2725.28	0.855558
2726.62	0.753143
2727.96	0.621173
2729.3	0.154173
2730.65	0.123585
2731.99	0.369371
2733.33	0.862504
2734.67	0.352128
2736.01	0.772966
2737.35	0.234054
2738.69	-0.028513
2740.03	0.828374
2741.37	0.564816
2742.71	0.402202
2744.05	0.354955
2745.38	0.321388
2746.72	0.417938
2748.06	0.151231
2749.4	0.145967
2750.74	0.213478
2752.07	-0.00867462
2753.41	0.508777
2754.75	0.142337
2756.09	0.167373
2757.42	0.163643
2758.76	0.536633
2760.09	0.0850172
2761.43	0.401173
2762.77	0.312768
2764.1	-0.00668049
2765.44	0.296046
2766.77	-0.240967
2768.11	-0.0702677
2769.44	-0.176092
2770.77	0.193134
2772.11	0.242317
2773.44	-0.0130529
2774.77	-0.239929
2776.11	-0.279246
2777.44	-0.389986
2778.77	0.161674
2780.11	0.35397
2781.44	0.388477
2782.77	-0.0361662
2784.1	0.185056
2785.43	-0.067029
2786.77	0.139782
2788.1	0.1466
2789.43	-0.0887709
2790.76	0.0920458
2792.09	0.159432
2793.42	0.0701923
2794.75	0.181156
2796.08	-0.0370102
2797.41	-0.0558138
2798.74	-0.36093
2800.07	-0.00986385
2801.4	0.297724
2802.72	0.148479
2804.05	0.284052
2805.38	-0.0938625
2806.71	0.296479
2808.04	0.500496
2809.36	0.433556
2810.69	0.338318
2812.02	0.329177
2813.34	0.0521259
2814.67	0.145926
2816	0.128267
2817.32	0.32478
2818.65	0.352047
2819.97	0.535269
2821.3	0.363549
2822.62	0.346817
2823.95	0.796758
2825.27	0.466923
2826.6	0.760385
2827.92	0.643852
2829.25	0.882078
2830.57	1.0077
2831.89	1.0204
2833.22	0.877332
2834.54	1.41323
2835.86	1.5662
2837.18	1.81736
2838.51	2.47797
2839.83	2.67121
2841.15	3.50073
2842.47	4.09023
2843.79	4.60999
2845.11	5.24399
2846.43	5.07356
2847.76	5.59634
2849.08	5.83656
2850.4	4.9738
2851.72	5.04305
2853.04	5.35165
2854.36	5.75841
2855.67	5.82562
2856.99	5.68089
2858.31	5.70579
2859.63	5.91426
2860.95	6.72954
2862.27	6.24516
2863.58	6.66362
2864.9	6.74275
2866.22	6.34215
2867.54	6.76018
2868.85	7.2493
2870.17	7.58395
2871.49	7.34091
2872.8	8.05584
2874.12	7.69829
2875.43	8.62079
2876.75	8.59721
2878.07	9.37415
2879.38	9.26363
2880.7	10.0956
2882.01	9.86054
2883.32	9.58567
2884.64	9.70604
2885.95	9.50471
2887.27	8.88259
2888.58	9.11591
2889.89	9.29153
2891.21	8.79237
2892.52	9.87621
2893.83	9.76796
2895.14	9.14238
2896.46	9.7366
2897.77	10.3045
2899.08	9.95074
2900.39	10.1443
2901.7	10.2967
2903.01	10.6175
2904.32	11.1623
2905.63	10.7705
2906.94	10.8274
2908.25	10.9558
2909.56	11.3237
2910.87	11.567
2912.18	11.7404
2913.49	12.3745
2914.8	12.1799
2916.11	12.808
2917.42	13.0267
2918.72	13.0054
2920.03	12.9139
2921.34	12.9215
2922.65	13.5746
2923.95	13.3777
2925.26	13.5745
2926.57	13.8565
2927.88	13.8311
2929.18	14.4621
2930.49	14.0854
2931.79	14.0712
2933.1	14.3641
2934.4	14.8245
2935.71	14.2649
2937.01	14.2787
2938.32	14.0972
2939.62	13.5111
2940.93	13.8482
2942.23	12.6779
2943.54	12.3062
2944.84	12.3984
2946.14	11.6118
2947.45	11.0077
2948.75	11.2425
2950.05	10.1875
2951.35	10.4311
2952.66	9.95719
2953.96	9.91486
2955.26	9.53585
2956.56	8.73851
2957.86	8.86846
2959.16	9.33913
2960.46	8.59636
2961.77	8.52918
2963.07	8.61771
2964.37	7.98953
2965.66	7.17556
2966.96	7.35591
2968.26	7.60449
2969.56	7.65504
2970.86	7.22718
2972.16	7.02472
2973.46	6.86499
2974.76	6.88822
2976.06	6.22059
2977.35	6.01542
2978.65	5.58223
2979.95	5.14643
2981.25	5.27165
2982.54	5.19894
2983.84	4.90184
2985.14	4.78939
2986.43	5.11502
2987.73	4.96526
2989.02	4.57829
2990.32	4.17774
2991.62	4.09972
2992.91	3.87957
2994.21	3.58729
2995.5	3.15296
2996.8	3.25137
2998.09	3.13886
2999.38	2.57798
3000.68	2.59326
3001.97	2.56742
3003.26	2.10788
3004.56	1.59281
3005.85	1.56789
3007.14	1.75216
3008.43	1.65527
3009.73	1.65512
3011.02	1.36048
3012.31	0.953988
3013.6	0.785318
3014.89	1.55152
3016.19	0.673852
3017.48	0.759058
3018.77	0.928454
3020.06	0.569388
3021.35	0.627183
3022.64	0.822694
3023.93	0.0590353
3025.22	0.668329
3026.5	0.555931
3027.79	0.126167
3029.08	0.293215
3030.37	0.310125
3031.66	0.260068
3032.95	-0.188753
3034.24	0.425925
3035.52	0.391172
3036.81	0.0652361
3038.1	-0.042119
3039.39	-0.0966501
3040.67	0.369226
3041.96	0.201262
3043.25	0.115954
3044.53	0.387966
3045.82	-0.00835228
3047.1	0.418756
3048.39	0.247832
3049.67	0.380332
3050.96	0.405913
3052.24	0.460028
3053.53	0.0640316
3054.81	0.840625
3056.1	0.0334396
3057.38	0.479649
3058.67	0.365788
3059.95	0.37428
3061.23	0.247243
3062.52	0.339341
3063.8	0.555682
3065.08	-0.095932
3066.36	0.178954
3067.65	0.16983
3068.93	0.229343
3070.21	0.111845
3071.49	0.401355
3072.77	0.240519
3074.05	0.268511
3075.33	-0.288981
3076.61	0.403123
3077.89	-0.140048
3079.17	-0.111393
3080.45	-0.107827
3081.73	0.237035
3083.01	-0.0267553
3084.29	-0.208157
3085.57	-0.185822
3086.85	0.0261002
3088.13	-0.0206499
3089.41	-0.000343323
3090.68	0.0601721
3091.96	0.364775
3093.24	-0.0221863
3094.52	-0.0423269
3095.79	0.154976
3097.07	0.23046
3098.35	-0.0464258
3099.62	0.0968237
3100.9	-0.112191
3102.18	0.166641
3103.45	0.10734
3104.73	0.224831
3106	0.208038
3107.28	-0.240449
3108.55	-0.0784864
3109.83	0.0308847
3111.1	0.344824
3112.38	0.32152
3113.65	0.122756
3114.93	0.344212
3116.2	0.158551
3117.47	0.256667
3118.75	-0.446734
3120.02	0.666024
3121.29	0.462091
3122.57	0.162786
3123.84	0.527372
3125.11	0.445202
3126.38	0.620963
3127.65	0.513415
3128.92	0.731401
3130.2	0.449636
3131.47	0.73604
3132.74	0.225058
3134.01	0.430035
3135.28	0.688333
3136.55	0.797321
3137.82	0.433819
3139.09	0.542057
3140.36	0.407798
3141.63	0.650558
3142.9	0.732254
3144.17	0.586404
3145.43	0.602722
3146.7	1.15636
3147.97	0.973506
3149.24	0.858767
