200.554	0.378798
202.369	0.391124
204.183	0.40522
205.999	-0.260386
207.813	-0.292942
209.626	0.208636
211.439	0.417079
213.253	-0.249924
215.065	0.0529861
216.877	0.282209
218.688	0.123827
220.5	-0.0334539
222.312	0.754025
224.123	-0.513098
225.933	0.396618
227.742	-0.554268
229.552	0.378664
231.361	0.537896
233.171	-0.437015
234.98	0.494372
236.787	-0.0436163
238.595	-0.241333
240.402	0.214826
242.209	0.191737
244.015	-0.360439
245.822	0.0522413
247.627	-0.333312
249.435	0.436952
251.24	-0.341738
253.045	0.324934
254.849	-0.120569
256.653	0.0126657
258.457	0.411974
260.26	0.596333
262.063	-0.276815
263.866	-0.521559
265.668	-0.500044
267.47	0.630556
269.271	0.483698
271.073	-0.0257998
272.873	0.0901556
274.674	-0.0125122
276.474	0.461463
278.274	-0.0550089
280.073	0.100969
281.872	0.254343
283.671	0.212884
285.47	0.506162
287.268	0.149996
289.065	0.418004
290.863	0.30327
292.66	0.501575
294.456	-0.0398645
296.253	0.688244
298.049	0.986968
299.844	0.091608
301.637	-0.564569
303.432	-0.290107
305.227	-0.255943
307.021	-0.0797443
308.815	0.215251
310.609	0.725129
312.402	0.235906
314.195	0.296736
315.987	-0.544928
317.777	0.163403
319.569	0.15933
321.36	-0.200801
323.151	0.488992
324.942	0.583614
326.733	-0.13331
328.521	0.653835
330.31	0.771753
332.1	0.409935
333.889	1.00276
335.677	0.492341
337.464	0.00294876
339.252	0.181059
341.039	0.261546
342.826	-0.137036
344.611	0.205407
346.398	0.500498
348.184	0.676935
349.97	0.0661783
351.754	0.100131
353.539	0.753797
355.324	0.523161
357.106	-0.138117
358.89	-0.419029
360.674	0.704046
362.455	0.420453
364.239	-0.386699
366.021	-0.409406
367.804	0.136615
369.584	0.230041
371.366	0.60643
373.145	0.366015
374.926	-0.0396996
376.707	0.263738
378.485	0.0956411
380.265	-0.118067
382.045	-0.259336
383.822	0.306784
385.601	-0.160464
387.378	0.666591
389.156	0.0146303
390.934	-0.0486345
392.71	0.311838
394.487	0.461721
396.262	0.142393
398.038	0.0815277
399.813	0.255315
401.588	0.217201
403.362	-0.408894
405.137	0.51427
406.912	0.73183
408.685	0.338143
410.459	-0.149649
412.23	0.489298
414.004	0.166565
415.775	0.126366
417.548	0.251447
419.318	0.776301
421.089	0.644454
422.86	0.277514
424.63	0.566942
426.401	0.0335712
428.17	1.07203
429.94	0.349298
431.708	-0.0916491
433.478	1.11074
435.245	0.154375
437.012	-0.00406361
438.781	0.470287
440.547	0.895722
442.315	-0.0421543
444.081	0.377856
445.846	0.513898
447.613	0.484388
449.378	0.150418
451.142	0.868486
452.908	0.441984
454.672	-0.100143
456.435	0.384015
458.2	0.145331
459.963	0.884458
461.725	-0.329802
463.489	0.597515
465.251	0.435195
467.012	0.299797
468.775	0.00502396
470.536	0.456457
472.296	0.909125
474.056	0.406704
475.817	0.693498
477.576	0.325397
479.335	-0.48762
481.094	0.235616
482.854	0.213689
484.612	0.00694656
486.37	0.408265
488.127	0.882522
489.886	0.800244
491.642	0.135594
493.398	0.755735
495.154	0.5821
496.91	0.852825
498.667	0.748795
500.422	0.432903
502.176	1.1484
503.93	0.806834
505.684	0.627822
507.438	0.258702
509.191	0.94596
510.946	0.455016
512.698	0.667872
514.45	0.808216
516.202	0.264544
517.954	0.401648
519.705	0.678436
521.456	0.695574
523.206	0.970404
524.956	0.165051
526.706	0.463062
528.456	0.315329
530.207	0.42537
531.956	0.675294
533.704	0.479158
535.452	-0.185989
537.2	0.573699
538.947	0.629822
540.694	0.427818
542.441	0.597933
544.188	0.488021
545.934	0.912747
547.68	1.08144
549.425	0.716927
551.17	0.353539
552.915	0.199352
554.659	0.577155
556.403	0.0543728
558.145	0.501611
559.889	0.533963
561.632	-0.44581
563.375	0.692745
565.117	-0.00834656
566.859	-0.294235
568.601	-0.441055
570.342	0.469136
572.083	0.0269642
573.824	0.41283
575.565	0.204517
577.303	0.916134
579.043	0.321454
580.782	0.57702
582.521	0.258459
584.26	-0.0611086
585.998	0.0087719
587.734	-0.129895
589.472	0.512156
591.21	0.32485
592.947	0.459006
594.684	0.293892
596.418	-0.607366
598.154	-0.358316
599.89	0.350391
601.626	0.0917778
603.361	-0.0533409
605.094	-0.361081
606.828	0.501703
608.562	0.191406
610.296	0.0649357
612.027	0.558556
613.761	0.387843
615.493	-0.0339661
617.224	0.140402
618.956	0.291053
620.688	0.875079
622.419	0.427428
624.149	0.16219
625.879	0.719695
627.61	0.456094
629.338	0.309438
631.068	0.12022
632.797	0.458415
634.525	0.524132
636.254	1.34269
637.98	0.766504
639.708	0.00434971
641.436	-0.190628
643.162	0.204241
644.889	1.12053
646.614	0.0339947
648.34	0.156296
650.067	-0.103814
651.791	0.777033
653.516	0.23127
655.239	0.507999
656.964	0.0821915
658.687	0.0441532
660.411	-0.108629
662.133	0.0103903
663.857	0.812348
665.58	1.10899
667.301	0.717257
669.024	0.598932
670.744	0.687527
672.464	0.68716
674.186	-0.271941
675.905	0.0307093
677.626	0.381324
679.345	0.36528
681.065	-0.111867
682.783	0.213261
684.503	0.421075
686.22	-0.0642662
687.939	0.185271
689.656	-0.0731964
691.372	0.727045
693.09	0.46688
694.806	0.297926
696.523	0.887667
698.239	0.669871
699.953	0.542674
701.67	0.460123
703.384	-0.106125
705.098	-0.0753403
706.813	0.138345
708.526	0.580512
710.239	0.0591879
711.954	1.23228
713.666	0.29875
715.378	0.829115
717.091	0.901837
718.802	0.700853
720.513	0.614401
722.226	0.232256
723.936	0.214859
725.646	-0.0299768
727.355	0.928981
729.067	0.909938
730.776	0.913045
732.484	0.485392
734.192	0.985923
735.902	0.423271
737.61	1.01374
739.317	0.679104
741.024	0.48151
742.731	0.826315
744.439	0.294406
746.145	0.372333
747.851	0.114461
749.556	-0.00673962
751.262	0.750799
752.966	0.767706
754.673	1.30381
756.377	0.356763
758.081	0.536636
759.784	0.0425606
761.487	0.676473
763.19	0.92836
764.892	1.27058
766.594	0.956532
768.296	0.436383
770	1.13429
771.701	1.37763
773.402	0.692101
775.102	0.571414
776.803	1.19758
778.503	1.62191
780.202	1.36984
781.901	1.18689
783.6	0.800263
785.299	1.38538
786.997	1.56015
788.695	1.95714
790.393	1.55787
792.09	1.42691
793.787	1.04586
795.484	1.45472
797.18	1.88657
798.877	1.53171
800.572	1.42719
802.268	1.21207
803.963	1.29028
805.658	1.27829
807.35	0.658618
809.044	1.00377
810.738	1.23485
812.432	1.15053
814.125	0.796808
815.818	0.891089
817.51	1.72326
819.202	1.14622
820.894	1.46353
822.584	1.15612
824.275	0.627218
825.966	1.28171
827.657	1.35914
829.347	0.88326
831.037	1.48017
832.725	0.944638
834.414	1.19139
836.103	1.08274
837.792	1.28612
839.481	1.1533
841.167	1.15243
842.854	1.30634
844.542	0.811703
846.229	1.21182
847.914	1.50265
849.6	1.23754
851.287	0.81841
852.973	0.961219
854.656	1.26249
856.341	1.42936
858.026	1.21287
859.711	1.19643
861.393	1.26775
863.077	1.22448
864.761	1.35987
866.442	1.17857
868.125	1.22187
869.808	1.17441
871.489	0.855842
873.171	0.807667
874.85	0.917345
876.532	0.169518
878.213	1.02399
879.892	1.13365
881.572	1.33314
883.251	0.741584
884.931	1.09678
886.61	0.885882
888.287	0.537784
889.966	0.481187
891.643	0.715838
893.321	0.926004
894.997	0.639387
896.675	0.73408
898.352	0.827345
900.028	1.21084
901.704	0.696293
903.379	0.495597
905.055	0.742092
906.729	0.251792
908.404	1.05639
910.077	0.724647
911.75	0.483696
913.425	0.866297
915.097	0.715758
916.771	0.654261
918.443	1.39061
920.116	0.730889
921.787	0.227958
923.46	0.633476
925.13	1.23928
926.8	0.56622
928.472	0.403407
930.141	0.661443
931.813	0.368625
933.481	0.296821
935.15	0.754624
936.82	0.507122
938.488	0.525399
940.156	0.633416
941.825	0.809147
943.492	0.610722
945.158	0.588542
946.827	0.763563
948.493	0.958355
950.158	1.3493
951.824	0.0838737
953.491	0.826359
955.156	0.225452
956.82	0.576236
958.486	0.203226
960.15	0.583699
961.814	0.149212
963.477	0.399132
965.142	0.580878
966.804	-0.214075
968.467	0.160075
970.129	0.354719
971.79	1.30032
973.454	0.6761
975.115	0.429813
976.776	0.163651
978.436	0.208899
980.096	0.398775
981.756	0.588223
983.417	0.100804
985.077	0.05371
986.736	0.114784
988.394	0.284282
990.052	0.45212
991.71	1.03888
993.368	0.387939
995.025	1.23888
996.682	-0.0729704
998.341	0.821452
999.998	1.14162
1001.65	1.54895
1003.31	0.568798
1004.97	0.205333
1006.62	-0.0478706
1008.28	0.687573
1009.93	0.105821
1011.58	-0.496538
1013.24	0.39265
1014.89	-0.251916
1016.54	0.155492
1018.2	0.541234
1019.85	0.621469
1021.5	0.615526
1023.16	0.0864096
1024.81	-0.069809
1026.46	0.386553
1028.11	0.471366
1029.76	0.249493
1031.41	0.899758
1033.06	0.674286
1034.71	-0.185726
1036.36	0.588818
1038.01	1.18692
1039.66	1.67517
1041.31	0.836867
1042.95	1.39256
1044.6	1.36339
1046.25	1.83643
1047.9	1.42147
1049.54	1.42138
1051.19	1.11888
1052.84	1.4908
1054.48	0.798587
1056.13	0.931972
1057.77	0.86937
1059.42	1.17573
1061.06	0.41583
1062.71	0.32895
1064.35	0.175686
1066	0.608121
1067.64	0.147914
1069.28	0.794783
1070.93	-0.210065
1072.57	0.435496
1074.21	0.842485
1075.85	0.40462
1077.49	0.424074
1079.13	0.184861
1080.78	0.141746
1082.42	0.553937
1084.06	0.704728
1085.7	0.809997
1087.34	0.522543
1088.97	0.10287
1090.61	0.135988
1092.25	0.059536
1093.89	0.198599
1095.53	0.553391
1097.17	0.973303
1098.8	0.618937
1100.44	0.0305204
1102.08	0.585493
1103.71	0.367918
1105.35	-0.0415277
1106.99	0.367061
1108.62	0.302026
1110.26	-0.0653839
1111.89	-0.456002
1113.52	-0.354128
1115.16	0.540413
1116.79	0.253203
1118.43	0.481038
1120.06	0.409553
1121.69	0.57495
1123.32	0.613149
1124.96	0.460024
1126.59	0.607547
1128.22	0.178632
1129.85	0.135612
1131.48	0.136072
1133.11	0.179638
1134.75	0.458136
1136.37	0.265538
1138	0.648586
1139.63	0.132763
1141.26	-0.341172
1142.89	-0.0897388
1144.52	-0.0303001
1146.15	0.605542
1147.78	0.858542
1149.4	-0.20837
1151.03	0.174205
1152.66	0.301043
1154.28	-0.104856
1155.91	0.170022
1157.54	0.763717
1159.16	-0.0462046
1160.79	-0.0465937
1162.41	-0.0881166
1164.04	0.381871
1165.66	-0.359465
1167.29	-0.0593386
1168.91	0.239395
1170.53	-0.484311
1172.16	0.128537
1173.78	-0.0682392
1175.4	0.264118
1177.02	0.107798
1178.65	-0.111541
1180.27	0.220652
1181.89	-0.292581
1183.51	0.485181
1185.13	-0.195844
1186.75	0.621909
1188.37	0.486925
1189.99	0.138886
1191.61	0.694416
1193.23	0.0272799
1194.85	-0.366119
1196.47	-0.255183
1198.08	-0.331794
1199.7	0.3886
1201.32	0.713562
1202.94	0.644793
1204.55	0.182934
1206.17	0.120457
1207.79	-0.169881
1209.4	0.56225
1211.02	1.12622
1212.63	0.353271
1214.25	0.224144
1215.86	-0.0949879
1217.48	0.353881
1219.09	0.613611
1220.71	0.623603
1222.32	-0.13278
1223.93	0.211889
1225.54	0.0402946
1227.16	-0.191289
1228.77	1.04751
1230.38	0.157402
1231.99	0.0341015
1233.6	0.491031
1235.22	0.742786
1236.83	1.07878
1238.44	1.31282
1240.05	1.05154
1241.66	1.24539
1243.26	1.21128
1244.87	0.389831
1246.48	1.45001
1248.09	1.37079
1249.7	0.628512
1251.31	0.816971
1252.92	0.798845
1254.52	1.09192
1256.13	0.931343
1257.74	1.08263
1259.34	1.02855
1260.95	0.913462
1262.55	1.00595
1264.16	1.05708
1265.76	0.941906
1267.37	1.73778
1268.97	1.30951
1270.58	1.33591
1272.18	1.42312
1273.78	1.81992
1275.39	0.805779
1276.99	1.55228
1278.59	1.42723
1280.2	1.67415
1281.8	1.07194
1283.4	2.27019
1285	0.986755
1286.6	1.62792
1288.2	2.00144
1289.8	1.34281
1291.4	1.73878
1293	2.48576
1294.6	1.78541
1296.2	2.63248
1297.8	2.54773
1299.4	1.92432
1301	1.62954
1302.6	2.07509
1304.19	1.79832
1305.79	2.01449
1307.39	1.85987
1308.99	2.0129
1310.58	2.1861
1312.18	2.09338
1313.77	1.63377
1315.37	1.97321
1316.96	1.90501
1318.56	1.93966
1320.15	1.54594
1321.75	2.06817
1323.34	2.26176
1324.94	1.63953
1326.53	1.38237
1328.12	1.20628
1329.72	2.18543
1331.31	2.51733
1332.9	1.72026
1334.49	1.51297
1336.08	1.4291
1337.67	1.2653
1339.27	1.68527
1340.86	1.47806
1342.45	1.79153
1344.04	1.69977
1345.63	0.623176
1347.22	1.67477
1348.8	1.66476
1350.39	1.31782
1351.98	1.51468
1353.57	1.79399
1355.16	1.775
1356.75	1.47672
1358.33	1.9171
1359.92	1.41739
1361.51	1.81483
1363.09	1.69212
1364.68	1.01093
1366.27	1.50636
1367.85	0.66814
1369.44	0.986716
1371.02	1.96362
1372.61	1.54914
1374.19	1.17598
1375.77	1.75877
1377.36	0.928858
1378.94	1.65035
1380.52	1.27606
1382.11	1.19857
1383.69	1.41771
1385.27	1.41675
1386.85	0.918548
1388.43	1.5529
1390.02	1.15544
1391.6	1.77139
1393.18	1.49535
1394.76	1.5769
1396.34	1.26155
1397.92	1.69868
1399.5	1.63878
1401.08	1.24099
1402.65	1.63461
1404.23	1.23647
1405.81	1.55127
1407.39	1.60998
1408.97	1.1363
1410.54	1.39437
1412.12	2.42229
1413.7	1.90902
1415.27	1.73033
1416.85	1.98452
1418.43	1.74521
1420	1.80213
1421.58	1.7817
1423.15	2.51142
1424.73	1.767
1426.3	2.42174
1427.87	1.85688
1429.45	2.43318
1431.02	1.98471
1432.6	2.65643
1434.17	2.95273
1435.74	3.24823
1437.31	3.07203
1438.89	3.50634
1440.46	2.99861
1442.03	3.416
1443.6	3.16618
1445.17	3.29032
1446.74	3.04127
1448.31	3.00863
1449.88	2.6815
1451.45	3.43639
1453.02	3.83832
1454.59	3.51311
1456.16	3.08926
1457.72	2.38876
1459.29	3.20173
1460.86	3.42178
1462.43	3.04881
1463.99	2.79175
1465.56	2.53341
1467.13	2.21597
1468.69	1.87976
1470.26	1.87868
1471.83	2.03605
1473.39	1.72404
1474.95	1.72692
1476.52	1.65191
1478.08	1.98874
1479.65	1.87454
1481.21	1.85821
1482.78	1.1559
1484.34	1.59002
1485.9	2.14101
1487.47	2.02477
1489.03	1.67181
1490.59	1.17972
1492.15	0.822284
1493.71	1.65406
1495.27	1.15514
1496.84	0.909309
1498.39	1.16975
1499.96	1.48857
1501.52	1.14809
1503.07	1.15893
1504.64	0.977127
1506.19	1.33794
1507.75	1.40712
1509.31	0.373689
1510.87	0.711014
1512.43	0.718839
1513.98	0.475985
1515.54	0.92593
1517.1	0.511683
1518.65	0.94307
1520.21	0.742182
1521.77	1.55603
1523.32	0.8004
1524.88	0.541796
1526.44	0.492242
1527.99	0.860538
1529.54	1.26512
1531.1	0.510448
1532.65	1.18049
1534.21	0.713824
1535.76	0.552238
1537.31	0.543323
1538.87	1.19586
1540.42	0.810536
1541.97	0.275352
1543.52	1.39713
1545.07	1.40721
1546.63	0.966221
1548.18	0.71354
1549.73	1.21102
1551.28	1.03369
1552.83	1.2128
1554.38	1.37414
1555.93	1.85455
1557.48	1.77683
1559.03	0.545004
1560.57	0.845908
1562.12	1.11144
1563.67	1.1172
1565.22	0.993054
1566.77	0.88762
1568.31	1.41643
1569.86	0.955543
1571.41	1.37144
1572.95	1.78699
1574.5	1.51166
1576.05	2.13242
1577.59	1.76408
1579.14	2.06835
1580.68	1.57063
1582.23	1.85818
1583.77	2.40853
1585.31	2.15665
1586.86	2.07349
1588.4	1.9343
1589.95	2.24378
1591.49	1.87898
1593.03	2.1874
1594.57	2.17721
1596.11	1.79235
1597.66	2.28872
1599.2	1.96135
1600.74	2.57258
1602.28	2.35921
1603.82	2.29576
1605.36	1.94947
1606.9	2.12726
1608.44	2.86632
1609.98	2.73759
1611.52	1.92926
1613.06	2.26448
1614.6	2.20348
1616.13	1.87944
1617.67	1.83763
1619.21	1.85364
1620.75	2.17128
1622.28	1.42332
1623.82	2.08072
1625.36	1.40891
1626.89	2.17731
1628.43	1.46557
1629.96	1.51926
1631.5	2.11352
1633.04	2.25832
1634.57	2.10474
1636.11	1.46733
1637.64	1.80146
1639.17	1.70733
1640.71	2.41464
1642.24	2.26359
1643.77	1.83186
1645.31	1.93864
1646.84	2.0069
1648.37	1.77737
1649.9	1.47445
1651.43	1.89689
1652.96	2.28342
1654.5	1.72556
1656.03	2.35508
1657.56	2.13174
1659.09	1.62967
1660.62	1.66317
1662.15	1.80573
1663.67	1.15178
1665.2	1.29235
1666.73	1.93145
1668.26	1.46457
1669.79	1.35038
1671.32	1.05393
1672.84	1.14584
1674.37	1.3119
1675.9	1.40389
1677.43	1.40273
1678.95	1.16102
1680.48	1.3043
1682	0.968735
1683.53	0.816805
1685.05	0.610133
1686.58	0.367471
1688.1	0.712125
1689.63	0.763779
1691.15	0.431188
1692.68	0.538198
1694.2	1.10227
1695.72	0.385852
1697.25	1.16811
1698.77	0.76208
1700.29	1.0312
1701.81	0.423906
1703.33	0.873713
1704.86	0.739411
1706.38	0.859466
1707.9	0.397239
1709.42	0.698533
1710.94	0.38242
1712.46	1.10055
1713.98	0.803157
1715.5	0.270988
1717.02	0.282207
1718.54	0.239013
1720.06	0.719428
1721.57	0.405441
1723.09	0.561395
1724.61	0.267988
1726.13	0.30069
1727.64	0.533006
1729.16	0.424476
1730.68	-0.112909
1732.19	0.458345
1733.71	0.489614
1735.23	1.00056
1736.74	-0.0180035
1738.26	-0.0907574
1739.77	0.525646
1741.29	0.314268
1742.8	0.157265
1744.31	0.551751
1745.83	0.232665
1747.34	1.34926
1748.85	0.429214
1750.37	0.285083
1751.88	0.679344
1753.39	-0.0113115
1754.91	0.651131
1756.42	0.770571
1757.93	0.411637
1759.44	0.131566
1760.95	-0.0249147
1762.46	0.368107
1763.97	0.0725317
1765.48	0.0449085
1766.99	0.265747
1768.5	0.291503
1770.01	-0.0947905
1771.52	-0.377504
1773.03	-0.2335
1774.54	0.226175
1776.04	0.158004
1777.55	0.0623751
1779.06	0.341623
1780.57	0.265766
1782.07	-0.266858
1783.58	0.226009
1785.09	0.337441
1786.59	0.227935
1788.1	0.244658
1789.6	0.437451
1791.11	0.125229
1792.61	0.146169
1794.12	0.0748043
1795.62	0.399124
1797.13	0.331715
1798.63	0.237212
1800.13	0.145258
1801.64	0.058959
1803.14	0.174644
1804.64	0.0540352
1806.15	-0.0256701
1807.65	0.0318089
1809.15	-0.0310545
1810.65	-0.0662184
1812.15	0.351228
1813.65	-0.122645
1815.16	-0.0897522
1816.66	0.0249605
1818.15	0.398728
1819.66	0.370359
1821.16	0.355542
1822.65	0.286675
1824.15	0.172953
1825.65	0.0985374
1827.15	0.412235
1828.65	0.147204
1830.15	0.327318
1831.64	0.325346
1833.14	0.148948
1834.64	0.0839596
1836.14	-0.0187359
1837.63	0.0533657
1839.13	0.0251465
1840.62	0.255082
1842.12	-0.0956926
1843.62	-0.184122
1845.11	0.164213
1846.61	0.391085
1848.1	-0.0533066
1849.6	0.0775948
1851.09	0.186013
1852.58	0.27282
1854.08	0.0100374
1855.57	-0.179258
1857.06	-0.0161095
1858.55	0.110201
1860.05	0.242744
1861.54	0.166664
1863.03	-0.0434036
1864.52	0.0651941
1866.01	0.183845
1867.5	0.293192
1869	0.067317
1870.49	0.213259
1871.98	0.215957
1873.47	-0.517326
1874.96	0.0189915
1876.44	-0.612809
1877.93	0.363896
1879.42	0.217721
1880.91	0.229103
1882.4	0.196083
1882.47	0.195102
1883.96	-0.120953
1885.46	0.224421
1886.95	-0.0935202
1888.44	0.423775
1889.94	0.26217
1891.43	0.46719
1892.93	-0.0560665
1894.42	0.118589
1895.91	0.0692387
1897.4	-0.205099
1898.89	0.111799
1900.39	-0.0421925
1901.88	0.149687
1903.37	0.0261717
1904.86	0.0225515
1906.35	-0.068985
1907.84	0.169444
1909.33	0.408401
1910.82	-0.0283089
1912.31	-0.168691
1913.8	0.437504
1915.29	-0.465013
1916.77	0.0887365
1918.26	-0.0170937
1919.75	0.0844736
1921.24	-0.212546
1922.73	-0.0586805
1924.21	-0.00766754
1925.7	-0.0937119
1927.19	0.202483
1928.67	0.049427
1930.16	0.0868092
1931.64	-0.101916
1933.13	-0.53484
1934.61	-0.0349913
1936.1	0.237396
1937.58	0.23125
1939.07	-0.10382
1940.55	-0.161831
1942.04	0.281759
1943.52	0.398531
1945	-0.138911
1946.49	0.134741
1947.97	0.046051
1949.45	0.232123
1950.93	-0.0653658
1952.42	0.221348
1953.9	0.386559
1955.38	0.207725
1956.86	0.0811367
1958.34	-0.147403
1959.82	-0.0488329
1961.3	0.0846539
1962.78	-0.00451565
1964.26	-0.0766888
1965.74	0.175952
1967.22	0.11937
1968.7	0.198839
1970.18	0.0723104
1971.65	0.0822716
1973.13	-0.471135
1974.61	0.306753
1976.09	0.0952053
1977.57	0.139674
1979.04	0.218251
1980.52	-0.026495
1982	0.0858431
1983.47	0.282591
1984.95	-0.31916
1986.42	0.114289
1987.9	-0.198652
1989.37	0.335999
1990.85	-0.127711
1992.32	0.171435
1993.8	0.2349
1995.27	0.299388
1996.75	0.279959
1998.22	-0.161687
1999.69	0.00421238
2001.17	0.084837
2002.64	-0.105115
2004.11	-0.025342
2005.58	-0.130592
2007.05	0.135725
2008.53	0.588305
2010	0.115877
2011.47	-0.103196
2012.94	0.0313406
2014.41	-0.0871029
2015.88	-0.0550346
2017.35	-0.0745792
2018.82	-0.0111017
2020.29	0.169227
2021.76	0.231607
2023.23	-0.42744
2024.7	0.00565815
2026.16	-0.147137
2027.63	0.171544
2029.1	-0.0110607
2030.57	0.260958
2032.03	-0.237544
2033.5	0.120409
2034.97	-0.00837994
2036.44	-0.137714
2037.9	0.286713
2039.37	0.40831
2040.83	-0.226589
2042.3	-0.23919
2043.76	0.0518675
2045.23	0.125554
2046.69	0.166612
2048.16	0.224984
2049.62	-0.323686
2051.08	-0.300822
2052.55	0.293575
2054.01	-0.193572
2055.47	0.0759773
2056.94	0.529067
2058.4	-0.181951
2059.86	0.336975
2061.32	0.367712
2062.79	0.231153
2064.25	0.146441
2065.71	0.298645
2067.17	0.132197
2068.63	0.252628
2070.09	0.491349
2071.55	0.20833
2073.01	-0.00757885
2074.47	0.0960779
2075.93	0.721378
2077.39	0.3695
2078.85	-0.151282
2080.31	0.304067
2081.76	0.623919
2083.22	0.218979
2084.68	0.722
2086.13	0.433087
2087.59	0.816163
2089.05	0.358015
2090.51	-0.0159597
2091.96	0.298697
2093.42	0.780719
2094.87	0.289193
2096.33	0.635639
2097.78	0.545292
2099.24	0.370563
2100.69	0.797696
2102.15	0.37221
2103.6	0.749923
2105.06	0.394535
2106.51	0.525105
2107.96	0.623641
2109.42	0.455828
2110.87	0.870908
2112.32	0.850719
2113.77	0.495231
2115.23	1.02004
2116.68	0.944208
2118.13	0.719394
2119.58	0.745622
2121.03	0.940229
2122.48	0.921685
2123.93	1.07095
2125.38	0.806587
2126.83	0.956463
2128.28	1.105
2129.73	0.472804
2131.18	0.899466
2132.63	1.02663
2134.08	0.74
2135.53	1.56249
2136.97	1.26232
2138.42	1.01435
2139.87	1.06642
2141.32	0.922327
2142.76	1.19314
2144.21	1.18382
2145.66	1.40642
2147.1	1.4467
2148.55	1.05555
2150	1.34227
2151.44	1.6112
2152.89	1.77941
2154.33	1.44942
2155.78	1.83121
2157.22	1.36817
2158.66	1.28711
2160.11	2.06921
2161.55	1.61123
2163	1.40409
2164.44	1.54716
2165.88	1.09395
2167.32	1.53716
2168.77	1.69701
2170.21	1.55528
2171.65	1.94296
2173.09	1.64597
2174.53	1.99582
2175.97	1.89569
2177.41	1.49654
2178.85	1.68038
2180.29	1.56628
2181.73	1.46999
2183.17	1.42436
2184.61	1.27932
2186.05	1.46705
2187.49	1.28882
2188.93	1.11059
2190.37	1.58145
2191.81	1.28631
2193.24	1.20661
2194.68	1.45817
2196.12	0.974879
2197.56	0.971846
2198.99	1.06633
2200.43	0.47808
2201.87	1.25188
2203.3	0.797647
2204.74	0.627275
2206.17	0.590981
2207.61	1.00273
2209.04	0.768109
2210.48	0.681702
2211.91	1.53697
2213.35	0.423049
2214.78	0.780584
2216.21	1.00631
2217.65	1.01877
2219.08	1.03285
2220.51	0.784304
2221.95	0.585567
2223.38	0.781512
2224.81	0.959059
2226.24	0.870869
2227.67	0.780633
2229.1	0.442516
2230.54	0.727512
2231.97	0.667441
2233.4	0.493249
2234.83	0.483897
2236.26	0.68842
2237.69	0.323262
2239.11	0.417799
2240.54	0.759479
2241.97	0.369442
2243.4	0.649768
2244.83	0.522851
2246.26	0.493011
2247.69	0.330741
2249.11	0.27999
2250.54	0.340533
2251.97	0.382464
2253.4	0.0329075
2254.82	0.334198
2256.25	0.036068
2257.67	0.503833
2259.1	0.0826139
2260.53	0.184267
2261.95	0.0942698
2263.38	0.395998
2264.8	0.0322504
2266.23	0.13921
2267.65	0.115166
2269.07	0.285254
2270.5	0.373035
2271.92	0.264812
2273.34	0.319165
2274.77	0.389938
2276.19	-0.0929937
2277.61	0.173761
2279.03	-0.06462
2280.46	0.0555506
2281.88	0.4203
2283.3	0.148836
2284.72	-0.0574379
2286.14	0.209808
2287.56	0.134779
2288.98	-0.250089
2290.4	0.263957
2291.82	-0.0385637
2293.24	0.24756
2294.66	-0.153257
2296.08	0.231159
2297.5	-0.0555525
2298.92	-0.031189
2300.34	-0.219645
2301.76	0.215179
2303.17	0.0765829
2304.59	0.135022
2306.01	0.127748
2307.43	-0.0278254
2308.84	0.111673
2310.26	0.398546
2311.68	-0.2525
2313.09	-0.147133
2314.51	0.271506
2315.92	0.279716
2317.34	0.173605
2318.75	0.0514784
2320.17	0.093894
2321.58	-0.0134792
2323	0.0748358
2324.41	0.0282621
2325.82	0.374859
2327.24	0.455158
2328.65	0.699149
2330.06	0.844233
2331.48	0.381152
2332.89	0.0186186
2334.3	0.496545
2335.71	0.217873
2337.12	-0.242107
2338.54	-0.127546
2339.95	0.149836
2341.36	0.409279
2342.77	-0.120021
2344.18	0.236932
2345.59	0.249564
2347	0.21341
2348.41	-0.395574
2349.82	-0.104499
2351.23	-0.158044
2352.64	0.424281
2354.04	0.253736
2355.45	0.180439
2356.86	0.39994
2358.27	-0.194351
2359.68	0.0414257
2361.08	-0.161409
2362.49	-0.0881987
2363.9	-0.0314684
2365.3	0.186865
2366.71	0.356465
2368.12	-0.119362
2369.52	0.278062
2370.93	0.14456
2372.33	0.254576
2373.74	-0.246145
2375.14	0.0910969
2376.55	0.218452
2377.95	0.601624
2379.36	0.259231
2380.76	-0.63051
2382.16	-0.109005
2383.57	0.185932
2384.97	-0.112054
2386.37	0.0864506
2387.78	-0.033597
2389.18	-0.0562716
2390.58	0.161633
2391.98	0.189647
2393.38	0.378032
2394.79	0.23331
2396.19	0.121413
2397.59	0.121649
2398.99	-0.131616
2400.39	-0.701878
2401.79	-0.0644064
2403.19	0.175899
2404.59	-0.0130329
2405.99	-0.0917969
2407.39	-0.0129843
2408.78	0.699157
2410.18	-0.143326
2411.58	0.4412
2412.98	0.440248
2414.38	0.330091
2415.77	0.570127
2417.17	0.241961
2418.57	0.342428
2419.97	0.158359
2421.36	0.0691271
2422.76	0.248761
2424.15	0.142874
2425.55	0.147944
2426.95	-0.0207014
2428.34	0.25552
2429.74	0.311091
2431.13	0.0661497
2432.52	0.487916
2433.92	0.210645
2435.31	0.185968
2436.71	0.238863
2438.1	0.273938
2439.49	0.100845
2440.89	0.403069
2442.28	-0.184591
2443.67	0.0371027
2445.06	-0.0271187
2446.46	0.542703
2447.85	0.145144
2449.24	0.0805588
2450.63	0.396306
2452.02	-0.0472651
2453.41	-0.125671
2454.8	0.176694
2456.19	0.290032
2457.58	0.277232
2458.97	0.137726
2460.36	-0.350372
2461.75	0.425614
2463.14	0.0621357
2464.53	-0.0332375
2465.92	-0.0973387
2467.31	0.0752687
2468.69	0.705225
2470.08	-0.384701
2471.47	-0.370683
2472.86	0.0520973
2474.24	0.0798159
2475.63	-0.0820971
2477.02	0.258735
2478.4	-0.0135641
2479.79	0.0286131
2481.17	-0.618997
2482.56	0.536139
2483.94	0.170301
2485.33	0.460896
2486.72	0.218267
2488.1	0.11523
2489.48	0.447865
2490.87	0.390299
2492.25	0.178052
2493.64	0.371345
2495.02	-0.0235548
2496.4	-0.0596905
2497.79	-0.125677
2499.17	0.010006
2500.55	-0.257045
2501.93	0.510878
2503.31	0.241666
2504.69	0.249485
2506.08	-0.19037
2507.46	-0.152445
2508.84	0.146884
2510.22	0.138922
2511.6	-0.343862
2512.98	-0.0277061
2514.36	0.0285873
2515.74	0.039959
2517.12	0.22054
2518.5	0.126413
2519.88	0.261832
2521.25	0.030241
2522.63	0.0118084
2524.01	-0.0686436
2525.39	0.109221
2526.77	-0.0942669
2528.14	0.296458
2529.52	-0.209193
2530.9	0.290747
2532.27	0.108673
2533.65	-0.117194
2535.03	0.144039
2536.4	0.268506
2537.78	0.331381
2539.15	0.33228
2540.53	-0.153741
2541.9	0.149315
2543.28	0.528334
2544.65	0.346951
2546.03	0.12166
2547.4	0.0344191
2548.77	0.145443
2550.15	-0.168226
2551.52	0.291431
2552.89	0.249186
2554.27	0.311852
2555.64	0.0850725
2557.01	0.373384
2558.38	0.342911
2559.75	0.130852
2561.12	0.131732
2562.5	0.194022
2563.87	-0.409736
2565.24	0.305441
2566.61	0.0965395
2567.98	0.29692
2569.35	0.497331
2570.72	0.379458
2572.09	0.352562
2573.46	0.371233
2574.83	-0.186048
2576.19	0.727239
2577.56	0.473085
2578.93	0.112468
2580.3	0.08498
2581.67	0.375393
2583.04	-0.259563
2584.4	0.257444
2585.77	0.562042
2587.14	0.321074
2588.5	0.277403
2589.87	0.233882
2591.23	0.281141
2592.6	0.100537
2593.97	0.509792
2595.33	-0.0516768
2596.7	0.173115
2598.06	0.487431
2599.43	0.150739
2600.79	0.131863
2602.15	0.143812
2603.52	0.0660028
2604.88	0.0644112
2606.25	-0.117936
2607.61	0.543888
2608.97	0.0134125
2610.33	-0.0660982
2611.7	0.394692
2613.06	0.537409
2614.42	0.378393
2615.78	0.114283
2617.15	0.34566
2618.51	0.457531
2619.87	0.285872
2621.23	-0.0191584
2622.59	-0.173671
2623.95	-0.49195
2625.31	0.383949
2626.67	0.0951729
2628.03	0.149118
2629.39	-0.095212
2630.75	-0.41383
2632.1	-0.0184965
2633.46	0.0493364
2634.82	0.369335
2636.18	0.006567
2637.54	0.251913
2638.89	0.21559
2640.25	0.1795
2641.61	0.188132
2642.97	0.108455
2644.32	0.324364
2645.68	0.303836
2647.03	-0.100452
2648.39	0.246264
2649.75	0.208716
2651.1	0.302667
2652.46	0.601602
2653.81	0.28397
2655.17	0.275679
2656.52	0.371294
2657.88	0.116958
2659.23	0.0249701
2660.58	0.343011
2661.94	0.0467644
2663.29	0.261324
2664.64	0.299429
2666	0.0885458
2667.35	0.38745
2668.7	0.787648
2670.05	0.198114
2671.4	-0.404427
2672.76	0.258742
2674.11	0.428131
2675.46	0.293264
2676.81	0.0866852
2678.16	-0.0609169
2679.51	0.459566
2680.86	0.31426
2682.21	0.373449
2683.56	0.347157
2684.91	0.322077
2686.26	0.486227
2687.61	-0.0899029
2688.96	0.624294
2690.3	-0.0572233
2691.65	0.391267
2693	0.387742
2694.35	-0.139094
2695.7	0.0445032
2697.04	0.214145
2698.39	0.530041
2699.74	0.297728
2701.08	0.168992
2702.43	-0.0158539
2703.77	0.394596
2705.12	0.574126
2706.47	0.289766
2707.81	0.222475
2709.16	0.735276
2710.5	0.594473
2711.85	0.336991
2713.19	0.311652
2714.53	0.271667
2715.88	0.391513
2717.22	0.700318
2718.57	0.528876
2719.91	0.851608
2721.25	0.286109
2722.59	0.622231
2723.94	0.317335
2725.28	0.725087
2726.62	0.448225
2727.96	0.73858
2729.3	0.693846
2730.65	0.0232468
2731.99	0.0801888
2733.33	0.61726
2734.67	0.0635147
2736.01	0.310052
2737.35	0.527642
2738.69	0.468862
2740.03	0.33707
2741.37	0.829928
2742.71	0.754813
2744.05	0.548009
2745.38	0.296926
2746.72	0.176175
2748.06	0.345568
2749.4	0.384272
2750.74	0.365164
2752.07	0.49137
2753.41	0.18299
2754.75	0.0923443
2756.09	0.523336
2757.42	-0.0737915
2758.76	0.067976
2760.09	-0.00694942
2761.43	0.063446
2762.77	0.0765352
2764.1	-0.344051
2765.44	0.262656
2766.77	0.246634
2768.11	0.0125055
2769.44	0.239613
2770.77	0.276793
2772.11	0.110003
2773.44	0.375024
2774.77	0.624434
2776.11	-0.207002
2777.44	0.388227
2778.77	0.350436
2780.11	-0.10338
2781.44	0.0756969
2782.77	-0.00366974
2784.1	0.246852
2785.43	0.61165
2786.77	0.231383
2788.1	-0.276638
2789.43	0.0609665
2790.76	-0.129788
2792.09	0.495549
2793.42	0.0347548
2794.75	-0.0684738
2796.08	-0.200635
2797.41	0.00941753
2798.74	-0.0383959
2800.07	-0.172358
2801.4	-0.163882
2802.72	0.371899
2804.05	0.279758
2805.38	0.18716
2806.71	0.236235
2808.04	0.0141811
2809.36	-0.0233364
2810.69	0.564054
2812.02	0.172132
2813.34	0.420361
2814.67	0.244882
2816	0.539118
2817.32	-0.0581846
2818.65	-0.13027
2819.97	0.265406
2821.3	0.334529
2822.62	-0.0081768
2823.95	0.200995
2825.27	0.537093
2826.6	0.122519
2827.92	0.728159
2829.25	0.697297
2830.57	0.723681
2831.89	0.552176
2833.22	0.52217
2834.54	1.19946
2835.86	1.02683
2837.18	0.641305
2838.51	1.21729
2839.83	1.48155
2841.15	1.49131
2842.47	1.58641
2843.79	2.10635
2845.11	2.38693
2846.43	2.54119
2847.76	2.85146
2849.08	2.66712
2850.4	2.80745
2851.72	2.63614
2853.04	3.1001
2854.36	2.71556
2855.67	2.64167
2856.99	2.99157
2858.31	3.46856
2859.63	3.32401
2860.95	3.19337
2862.27	3.66939
2863.58	3.02967
2864.9	3.46227
2866.22	3.45729
2867.54	3.91805
2868.85	3.63191
2870.17	3.76939
2871.49	3.55469
2872.8	3.86115
2874.12	3.92697
2875.43	3.9913
2876.75	4.22302
2878.07	4.42521
2879.38	4.92208
2880.7	5.41884
2882.01	4.59561
2883.32	4.49082
2884.64	5.14567
2885.95	4.60789
2887.27	4.96871
2888.58	4.68331
2889.89	4.45309
2891.21	4.90894
2892.52	4.56462
2893.83	4.71069
2895.14	5.20716
2896.46	4.87853
2897.77	4.91542
2899.08	5.51338
2900.39	5.72064
2901.7	5.62081
2903.01	5.60525
2904.32	5.42205
2905.63	6.09245
2906.94	5.58872
2908.25	5.81348
2909.56	5.82962
2910.87	5.93057
2912.18	6.10158
2913.49	6.50962
2914.8	6.78978
2916.11	6.63348
2917.42	6.39102
2918.72	6.88879
2920.03	7.31602
2921.34	6.65331
2922.65	7.06904
2923.95	7.30493
2925.26	7.05322
2926.57	7.43147
2927.88	7.62812
2929.18	7.19517
2930.49	7.25075
2931.79	7.83687
2933.1	7.56988
2934.4	7.7781
2935.71	7.4973
2937.01	7.35654
2938.32	7.21607
2939.62	6.99216
2940.93	7.50956
2942.23	6.71462
2943.54	6.1867
2944.84	5.80019
2946.14	5.65277
2947.45	6.09371
2948.75	6.18483
2950.05	5.18246
2951.35	5.2136
2952.66	5.55034
2953.96	4.91909
2955.26	4.56746
2956.56	4.73487
2957.86	4.54092
2959.16	4.56039
2960.46	4.76557
2961.77	4.7775
2963.07	4.25748
2964.37	4.08706
2965.66	4.04107
2966.96	3.57134
2968.26	3.39482
2969.56	3.66723
2970.86	3.6583
2972.16	3.15735
2973.46	3.2758
2974.76	3.40843
2976.06	3.46998
2977.35	3.16385
2978.65	3.02453
2979.95	2.98158
2981.25	2.5711
2982.54	2.82128
2983.84	2.49521
2985.14	2.22698
2986.43	2.4807
2987.73	2.34285
2989.02	2.34686
2990.32	2.11237
2991.62	1.93352
2992.91	1.59881
2994.21	1.47339
2995.5	1.36069
2996.8	1.00848
2998.09	1.02119
2999.38	1.31473
3000.68	1.18808
3001.97	1.23048
3003.26	1.03522
3004.56	1.13445
3005.85	0.93923
3007.14	0.77142
3008.43	0.840595
3009.73	0.922565
3011.02	0.570325
3012.31	0.692771
3013.6	0.536011
3014.89	0.658835
3016.19	0.615231
3017.48	0.447381
3018.77	0.433495
3020.06	0.252896
3021.35	-0.0391741
3022.64	-0.0123959
3023.93	0.346231
3025.22	-0.114733
3026.5	-0.0348997
3027.79	0.086874
3029.08	-0.0390301
3030.37	-0.0661497
3031.66	-0.132786
3032.95	0.0505056
3034.24	-0.317874
3035.52	0.237747
3036.81	0.0191603
3038.1	0.349764
3039.39	-0.03825
3040.67	0.177459
3041.96	-0.336025
3043.25	-0.0531712
3044.53	0.0246592
3045.82	0.118048
3047.1	-0.059185
3048.39	0.176401
3049.67	-0.240571
3050.96	0.0952339
3052.24	0.227413
3053.53	0.0731688
3054.81	0.122877
3056.1	-0.0605326
3057.38	0.0820761
3058.67	-0.307759
3059.95	0.0514421
3061.23	-0.0111446
3062.52	-0.0588226
3063.8	0.303194
3065.08	0.0688906
3066.36	0.189925
3067.65	0.108396
3068.93	0.163419
3070.21	-0.148993
3071.49	-0.35358
3072.77	0.338002
3074.05	-0.0462189
3075.33	0.0850773
3076.61	0.215859
3077.89	-0.0058527
3079.17	-0.00889206
3080.45	-0.172777
3081.73	-0.226089
3083.01	0.0749359
3084.29	-0.0300303
3085.57	0.0144386
3086.85	0.19419
3088.13	-0.129062
3089.41	0.211957
3090.68	-0.112543
3091.96	0.0242367
3093.24	0.188352
3094.52	-0.162458
3095.79	-0.173736
3097.07	0.276113
3098.35	-0.0060854
3099.62	0.0369711
3100.9	-0.394135
3102.18	-0.256056
3103.45	0.247909
3104.73	0.0891161
3106	0.188522
3107.28	-0.0356274
3108.55	0.0934629
3109.83	0.07512
3111.1	0.0987158
3112.38	-0.0120516
3113.65	0.108098
3114.93	-0.137566
3116.2	-0.0990763
3117.47	-0.183549
3118.75	0.368229
3120.02	0.0100431
3121.29	0.179718
3122.57	0.375738
3123.84	0.354694
3125.11	0.523556
3126.38	0.733523
3127.65	0.38949
3128.92	0.452222
3130.2	0.393811
3131.47	0.430299
3132.74	0.642402
3134.01	0.232692
3135.28	0.295349
3136.55	0.694621
3137.82	0.755798
3139.09	0.883876
3140.36	0.500156
3141.63	0.574512
3142.9	0.676128
3144.17	0.55008
3145.43	0.505603
3146.7	0.515828
3147.97	0.500217
3149.24	1.00766
