200.554	-0.108496
202.369	-0.0567856
204.183	-0.00379372
205.999	0.585829
207.813	0.737556
209.626	0.839314
211.439	-0.470013
213.253	0.816685
215.065	0.207506
216.877	-0.0627193
218.688	0.490843
220.5	0.512224
222.312	1.16412
224.123	0.269558
225.933	-0.164175
227.742	0.755093
229.552	0.32049
231.361	-0.356304
233.171	-0.21294
234.98	-0.647928
236.787	0.558697
238.595	0.129715
240.402	0.235542
242.209	0.441868
244.015	0.0957375
245.822	-0.0580826
247.627	-0.408356
249.435	-0.691425
251.24	0.516516
253.045	-0.0674362
254.849	0.286568
256.653	0.277725
258.457	0.559521
260.26	-0.0472565
262.063	0.120432
263.866	0.555998
265.668	-0.0426483
267.47	-0.255529
269.271	0.277977
271.073	0.231321
272.873	0.664518
274.674	0.516222
276.474	0.195961
278.274	-0.34461
280.073	-0.334597
281.872	0.128817
283.671	1.06886
285.47	0.707033
287.268	-0.20764
289.065	0.246038
290.863	0.604326
292.66	-0.136608
294.456	0.106915
296.253	0.543999
298.049	0.815281
299.844	0.418196
301.637	-0.00310707
303.432	-0.0199394
305.227	0.103994
307.021	1.37079
308.815	-0.320103
310.609	0.469494
312.402	0.0935612
314.195	0.43512
315.987	0.708517
317.777	0.103992
319.569	0.311878
321.36	0.0452309
323.151	0.566572
324.942	0.134672
326.733	0.800663
328.521	0.104939
330.31	0.698004
332.1	0.547829
333.889	-0.0125923
335.677	0.379881
337.464	0.576553
339.252	0.93663
341.039	0.839075
342.826	0.739992
344.611	-0.12376
346.398	-0.221693
348.184	-0.0318947
349.97	-0.00852013
351.754	0.563665
353.539	0.633327
355.324	0.0567818
357.106	0.0742035
358.89	0.708641
360.674	0.339878
362.455	0.0411968
364.239	-0.329823
366.021	-0.369047
367.804	-0.385988
369.584	0.377857
371.366	0.475256
373.145	0.500053
374.926	0.145939
376.707	0.193949
378.485	0.7379
380.265	-0.178059
382.045	-0.101826
383.822	0.117643
385.601	0.0805492
387.378	0.163092
389.156	0.0596256
390.934	-0.136038
392.71	-0.00152206
394.487	0.556732
396.262	0.270124
398.038	0.28891
399.813	-0.7262
401.588	-0.238998
403.362	-0.0114193
405.137	0.33215
406.912	-0.241613
408.685	0.334049
410.459	-0.0300732
412.23	-0.394043
414.004	0.556841
415.775	0.593727
417.548	0.233185
419.318	0.342999
421.089	-0.0866146
422.86	0.140388
424.63	0.765154
426.401	-0.48992
428.17	0.319315
429.94	0.118195
431.708	0.198664
433.478	-1.33971
435.245	0.572466
437.012	-0.120592
438.781	0.217638
440.547	0.482616
442.315	0.837444
444.081	0.0391331
445.846	0.362846
447.613	0.707195
449.378	-1.19465
451.142	0.154314
452.908	-0.225836
454.672	0.164667
456.435	-0.0748005
458.2	0.337835
459.963	-0.460052
461.725	1.04651
463.489	-0.350889
465.251	0.232035
467.012	-0.109442
468.775	-0.00464058
470.536	-0.0128002
472.296	-0.113083
474.056	0.995785
475.817	1.10071
477.576	0.269718
479.335	0.716434
481.094	-0.143057
482.854	0.325449
484.612	0.190538
486.37	0.431849
488.127	-0.161898
489.886	0.693447
491.642	0.221365
493.398	0.96464
495.154	1.008
496.91	0.489397
498.667	0.156734
500.422	0.854473
502.176	0.871468
503.93	1.07469
505.684	0.617844
507.438	0.722261
509.191	0.894432
510.946	0.357756
512.698	1.13575
514.45	0.0755577
516.202	0.871601
517.954	0.418552
519.705	1.25685
521.456	0.565742
523.206	0.109261
524.956	0.286572
526.706	0.885885
528.456	0.992233
530.207	1.5669
531.956	0.406984
533.704	1.04917
535.452	0.963146
537.2	0.500687
538.947	0.176542
540.694	-0.0557957
542.441	0.572718
544.188	0.594193
545.934	1.01055
547.68	0.521177
549.425	0.288372
551.17	0.426952
552.915	1.0744
554.659	1.18942
556.403	0.635366
558.145	0.0370598
559.889	0.316191
561.632	1.05624
563.375	0.00216293
565.117	0.651548
566.859	-0.283617
568.601	0.964701
570.342	0.0568142
572.083	0.849754
573.824	0.498621
575.565	0.678476
577.303	0.586187
579.043	0.542221
580.782	-0.0975494
582.521	0.204357
584.26	0.0687122
585.998	0.023056
587.734	1.1713
589.472	-0.558252
591.21	-0.126961
592.947	0.533495
594.684	-0.186762
596.418	0.0823956
598.154	0.0753956
599.89	0.412798
601.626	-0.194557
603.361	-0.321054
605.094	-0.151228
606.828	0.843252
608.562	0.158819
610.296	0.53067
612.027	0.214956
613.761	0.0844345
615.493	0.00109291
617.224	-0.0131645
618.956	0.429613
620.688	0.938612
622.419	-0.225214
624.149	-0.451765
625.879	0.646917
627.61	0.376539
629.338	0.132996
631.068	-0.311445
632.797	0.845175
634.525	-0.164209
636.254	0.491787
637.98	0.163017
639.708	-0.239126
641.436	0.881807
643.162	0.105173
644.889	0.374956
646.614	0.28104
648.34	-0.559254
650.067	0.197517
651.791	-0.174955
653.516	0.186857
655.239	-0.0135326
656.964	0.97393
658.687	0.460646
660.411	-0.0317459
662.133	0.773819
663.857	1.00489
665.58	-0.0258808
667.301	0.883066
669.024	0.304398
670.744	0.115953
672.464	-0.29792
674.186	-0.43309
675.905	0.971054
677.626	-0.0749683
679.345	0.645683
681.065	0.216356
682.783	-0.0789223
684.503	-0.677647
686.22	-0.382244
687.939	0.0487614
689.656	-0.443394
691.372	0.445234
693.09	0.687727
694.806	0.399057
696.523	0.776426
698.239	0.299665
699.953	-0.0409489
701.67	0.513575
703.384	1.1117
705.098	0.352707
706.813	0.649494
708.526	0.922159
710.239	0.575052
711.954	0.227837
713.666	0.79558
715.378	0.1737
717.091	-0.173191
718.802	0.484392
720.513	-0.317429
722.226	1.13669
723.936	1.24613
725.646	1.01418
727.355	0.486843
729.067	1.20766
730.776	0.520844
732.484	0.989672
734.192	-0.149054
735.902	0.703485
737.61	0.877707
739.317	0.827311
741.024	0.350546
742.731	0.169504
744.439	0.373808
746.145	0.535467
747.851	0.519571
749.556	0.573574
751.262	0.719885
752.966	1.161
754.673	0.727377
756.377	0.206223
758.081	1.35361
759.784	0.477201
761.487	1.24753
763.19	0.711231
764.892	1.50588
766.594	0.785606
768.296	1.46282
770	1.72951
771.701	0.907101
773.402	1.57464
775.102	1.49517
776.803	1.869
778.503	1.88352
780.202	1.65211
781.901	1.82985
783.6	1.05737
785.299	1.93487
786.997	1.3594
788.695	2.29462
790.393	1.70748
792.09	2.35922
793.787	1.04257
795.484	1.55512
797.18	0.986704
798.877	1.14283
800.572	2.11227
802.268	1.21607
803.963	1.87351
805.658	1.13638
807.35	0.937695
809.044	1.65781
810.738	1.09579
812.432	2.43891
814.125	1.76246
815.818	2.49699
817.51	2.13427
819.202	1.45943
820.894	0.98702
822.584	2.50185
824.275	1.65261
825.966	2.16637
827.657	1.65911
829.347	1.64714
831.037	2.06392
832.725	1.50583
834.414	1.15167
836.103	1.49031
837.792	1.6727
839.481	1.38422
841.167	2.16484
842.854	1.20078
844.542	1.93387
846.229	1.77456
847.914	1.66322
849.6	0.840305
851.287	1.47617
852.973	1.91494
854.656	1.61576
856.341	1.67499
858.026	1.48493
859.711	1.56151
861.393	1.09446
863.077	0.781691
864.761	0.917154
866.442	1.0511
868.125	0.733002
869.808	1.31614
871.489	1.44777
873.171	0.879719
874.85	1.14627
876.532	1.88683
878.213	1.43142
879.892	0.772545
881.572	1.67054
883.251	1.39336
884.931	1.70107
886.61	1.41927
888.287	1.4506
889.966	1.276
891.643	1.68484
893.321	1.03223
894.997	1.05355
896.675	1.20773
898.352	1.0454
900.028	1.59951
901.704	0.985859
903.379	1.42438
905.055	0.811152
906.729	1.13737
908.404	1.08499
910.077	1.63563
911.75	1.36374
913.425	1.58255
915.097	1.29098
916.771	1.88729
918.443	1.44083
920.116	1.23897
921.787	1.34829
923.46	1.6143
925.13	1.24249
926.8	1.49273
928.472	2.16528
930.141	1.47172
931.813	0.559038
933.481	0.794247
935.15	1.22824
936.82	1.00133
938.488	1.94498
940.156	0.86187
941.825	0.552799
943.492	1.613
945.158	1.52564
946.827	1.19323
948.493	0.813219
950.158	0.606401
951.824	1.50064
953.491	0.938953
955.156	0.446695
956.82	0.797514
958.486	0.779411
960.15	0.369032
961.814	0.667645
963.477	0.45792
965.142	0.598692
966.804	1.17717
968.467	1.26388
970.129	0.129965
971.79	1.20683
973.454	1.7314
975.115	0.9319
976.776	1.37425
978.436	0.558619
980.096	0.606703
981.756	0.654034
983.417	1.47369
985.077	1.11643
986.736	1.90625
988.394	1.58597
990.052	1.02041
991.71	0.918379
993.368	0.440725
995.025	1.1558
996.682	1.05403
998.341	2.14292
999.998	3.34023
1001.65	1.49638
1003.31	2.16281
1004.97	1.83812
1006.62	1.42581
1008.28	0.86064
1009.93	0.73576
1011.58	1.09431
1013.24	0.48901
1014.89	0.783169
1016.54	0.88076
1018.2	1.6575
1019.85	1.10103
1021.5	0.197168
1023.16	1.5909
1024.81	2.04619
1026.46	1.93433
1028.11	1.73509
1029.76	1.4691
1031.41	1.50661
1033.06	0.995272
1034.71	1.52858
1036.36	1.79696
1038.01	1.6713
1039.66	2.26402
1041.31	2.83547
1042.95	2.69156
1044.6	3.39874
1046.25	2.39358
1047.9	2.36992
1049.54	2.74046
1051.19	2.44026
1052.84	1.5767
1054.48	2.40842
1056.13	1.50169
1057.77	1.9201
1059.42	1.22882
1061.06	1.5364
1062.71	1.47284
1064.35	0.907402
1066	1.25319
1067.64	1.40115
1069.28	1.74268
1070.93	1.47468
1072.57	1.83618
1074.21	1.3739
1075.85	0.870584
1077.49	1.02063
1079.13	1.25971
1080.78	0.979753
1082.42	1.6755
1084.06	1.71893
1085.7	0.87042
1087.34	1.297
1088.97	1.69751
1090.61	1.38009
1092.25	1.90398
1093.89	1.5622
1095.53	1.39407
1097.17	1.40034
1098.8	1.21541
1100.44	0.948008
1102.08	1.22244
1103.71	2.46815
1105.35	1.84466
1106.99	0.964283
1108.62	1.26623
1110.26	0.66293
1111.89	1.02418
1113.52	0.780596
1115.16	1.84446
1116.79	1.0824
1118.43	1.88655
1120.06	1.21284
1121.69	1.05572
1123.32	0.922199
1124.96	1.60364
1126.59	0.767754
1128.22	1.06711
1129.85	1.28219
1131.48	0.899702
1133.11	1.69357
1134.75	0.712852
1136.37	0.24408
1138	0.286366
1139.63	1.52251
1141.26	0.89834
1142.89	1.57548
1144.52	0.610054
1146.15	0.286406
1147.78	0.689348
1149.4	0.816696
1151.03	1.69036
1152.66	0.81741
1154.28	7.45921
1155.91	6.17912
1157.54	7.53771
1159.16	7.4076
1160.79	6.59924
1162.41	6.09153
1164.04	6.45798
1165.66	6.91061
1167.29	6.23564
1168.91	6.3447
1170.53	6.47086
1172.16	2.51342
1173.78	1.88984
1175.4	1.37078
1177.02	0.70319
1178.65	1.07495
1180.27	0.135239
1181.89	-0.78042
1183.51	-0.467672
1185.13	0.0348644
1186.75	0.0704727
1188.37	0.609371
1189.99	0.279484
1191.61	0.241545
1193.23	0.600422
1194.85	0.327028
1196.47	1.06083
1198.08	0.873287
1199.7	0.354984
1201.32	1.01213
1202.94	0.2118
1204.55	0.731873
1206.17	1.2764
1207.79	0.842684
1209.4	0.910137
1211.02	0.35029
1212.63	0.788298
1214.25	1.57596
1215.86	0.734251
1217.48	0.826717
1219.09	1.60288
1220.71	1.40167
1222.32	1.03636
1223.93	1.68935
1225.54	1.76453
1227.16	1.36666
1228.77	2.31623
1230.38	2.37849
1231.99	1.43026
1233.6	1.86944
1235.22	2.33164
1236.83	2.98229
1238.44	2.06397
1240.05	2.69744
1241.66	1.63545
1243.26	1.73083
1244.87	2.48689
1246.48	3.03416
1248.09	3.18624
1249.7	2.44711
1251.31	2.26615
1252.92	2.95446
1254.52	1.88604
1256.13	2.41243
1257.74	2.83789
1259.34	2.91407
1260.95	2.20543
1262.55	2.49115
1264.16	2.19704
1265.76	2.83442
1267.37	2.66231
1268.97	2.92362
1270.58	3.09997
1272.18	2.9632
1273.78	3.36339
1275.39	3.4298
1276.99	3.63932
1278.59	3.10132
1280.2	4.11541
1281.8	3.92764
1283.4	3.67825
1285	3.49225
1286.6	3.61831
1288.2	4.13913
1289.8	3.83506
1291.4	4.15195
1293	3.95199
1294.6	3.58523
1296.2	4.20724
1297.8	4.35063
1299.4	4.09839
1301	4.48242
1302.6	3.93634
1304.19	4.27415
1305.79	4.09584
1307.39	3.85522
1308.99	3.42993
1310.58	2.98507
1312.18	3.74971
1313.77	4.26897
1315.37	3.89033
1316.96	3.59591
1318.56	3.54786
1320.15	3.96843
1321.75	3.22539
1323.34	3.82358
1324.94	4.05107
1326.53	3.52413
1328.12	4.25434
1329.72	4.27533
1331.31	3.77385
1332.9	3.07595
1334.49	3.95842
1336.08	4.17713
1337.67	3.40842
1339.27	4.87642
1340.86	3.2573
1342.45	3.20611
1344.04	2.82956
1345.63	3.39532
1347.22	2.31607
1348.8	2.56446
1350.39	2.77712
1351.98	2.41442
1353.57	2.73573
1355.16	2.91938
1356.75	2.1045
1358.33	1.88848
1359.92	2.24988
1361.51	2.84843
1363.09	2.20802
1364.68	1.90663
1366.27	2.38311
1367.85	2.20351
1369.44	2.44443
1371.02	2.46902
1372.61	1.40184
1374.19	2.20724
1375.77	1.42202
1377.36	2.24868
1378.94	2.1192
1380.52	2.74385
1382.11	2.41089
1383.69	2.45344
1385.27	1.93753
1386.85	2.23581
1388.43	2.83199
1390.02	2.41667
1391.6	2.3804
1393.18	2.28613
1394.76	2.27191
1396.34	2.13832
1397.92	1.78538
1399.5	2.87723
1401.08	2.73837
1402.65	1.78699
1404.23	2.18187
1405.81	2.85418
1407.39	2.24286
1408.97	2.28562
1410.54	2.44779
1412.12	3.37983
1413.7	2.96776
1415.27	2.92909
1416.85	3.28321
1418.43	2.82815
1420	2.65008
1421.58	3.22251
1423.15	2.93157
1424.73	2.30936
1426.3	2.92954
1427.87	3.19643
1429.45	3.6005
1431.02	4.14046
1432.6	3.69399
1434.17	4.48519
1435.74	4.29172
1437.31	5.04254
1438.89	4.85106
1440.46	4.87796
1442.03	4.43517
1443.6	4.95682
1445.17	4.87002
1446.74	5.58946
1448.31	5.16922
1449.88	5.24101
1451.45	5.35314
1453.02	5.05342
1454.59	4.55759
1456.16	4.82876
1457.72	4.21305
1459.29	4.83444
1460.86	5.53087
1462.43	4.35406
1463.99	3.66636
1465.56	4.15643
1467.13	3.48635
1468.69	2.99445
1470.26	3.50559
1471.83	2.66498
1473.39	3.14091
1474.95	2.38275
1476.52	2.07654
1478.08	2.67238
1479.65	2.46427
1481.21	2.45198
1482.78	2.00841
1484.34	2.60315
1485.9	2.11951
1487.47	2.59421
1489.03	1.51942
1490.59	2.16398
1492.15	1.96283
1493.71	2.34385
1495.27	1.56969
1496.84	1.76959
1498.39	1.67674
1499.96	1.60462
1501.52	1.43761
1503.07	1.54464
1504.64	1.84678
1506.19	1.64553
1507.75	1.07602
1509.31	0.892101
1510.87	1.0345
1512.43	1.00158
1513.98	0.698641
1515.54	1.18487
1517.1	1.13349
1518.65	1.02612
1520.21	1.55215
1521.77	0.910246
1523.32	1.20558
1524.88	1.19334
1526.44	1.19831
1527.99	1.03024
1529.54	0.690533
1531.1	0.826441
1532.65	0.356209
1534.21	1.32786
1535.76	0.502312
1537.31	1.70178
1538.87	1.71099
1540.42	0.834656
1541.97	0.63829
1543.52	1.17605
1545.07	1.31758
1546.63	0.463017
1548.18	1.80503
1549.73	0.988853
1551.28	0.998507
1552.83	1.55155
1554.38	2.14272
1555.93	1.9699
1557.48	1.35266
1559.03	1.44856
1560.57	1.54784
1562.12	1.57537
1563.67	2.10861
1565.22	1.67271
1566.77	1.6847
1568.31	2.42415
1569.86	2.26704
1571.41	2.76252
1572.95	2.47345
1574.5	1.92276
1576.05	2.3055
1577.59	2.01658
1579.14	2.06445
1580.68	3.25249
1582.23	2.70558
1583.77	2.57096
1585.31	3.017
1586.86	2.13684
1588.4	3.36977
1589.95	2.90044
1591.49	2.56092
1593.03	3.23143
1594.57	3.00273
1596.11	3.11124
1597.66	3.1644
1599.2	2.99388
1600.74	3.55614
1602.28	3.38783
1603.82	3.33191
1605.36	3.78181
1606.9	3.66548
1608.44	3.67677
1609.98	3.0069
1611.52	3.68564
1613.06	2.59476
1614.6	3.07916
1616.13	2.86826
1617.67	2.43364
1619.21	2.32019
1620.75	2.34069
1622.28	2.66325
1623.82	2.96845
1625.36	2.67454
1626.89	2.95938
1628.43	2.66161
1629.96	2.79154
1631.5	3.10628
1633.04	2.59813
1634.57	2.93118
1636.11	4.01171
1637.64	3.63842
1639.17	3.15474
1640.71	3.77095
1642.24	3.58437
1643.77	4.14054
1645.31	3.91214
1646.84	4.1843
1648.37	4.21393
1649.9	4.65285
1651.43	4.14685
1652.96	3.90355
1654.5	4.20031
1656.03	3.33041
1657.56	4.10987
1659.09	3.99816
1660.62	3.6433
1662.15	3.45251
1663.67	4.31343
1665.2	3.39884
1666.73	3.57527
1668.26	3.90114
1669.79	3.65817
1671.32	3.36305
1672.84	3.3465
1674.37	3.53335
1675.9	3.27773
1677.43	2.79982
1678.95	2.59616
1680.48	3.16291
1682	2.09229
1683.53	2.10579
1685.05	2.08272
1686.58	2.20703
1688.1	2.75356
1689.63	1.68822
1691.15	1.72293
1692.68	1.06234
1694.2	1.0973
1695.72	0.985662
1697.25	1.40354
1698.77	1.32727
1700.29	1.3233
1701.81	0.77126
1703.33	0.966146
1704.86	0.722723
1706.38	0.87916
1707.9	1.10754
1709.42	0.409093
1710.94	0.782656
1712.46	0.865774
1713.98	0.170015
1715.5	0.452973
1717.02	0.138473
1718.54	0.149531
1720.06	0.720196
1721.57	-0.00878143
1723.09	0.400119
1724.61	0.557941
1726.13	0.59183
1727.64	0.0700045
1729.16	-0.0539694
1730.68	1.13624
1732.19	1.10263
1733.71	0.0586691
1735.23	-0.0325947
1736.74	-0.287987
1738.26	0.406522
1739.77	-0.0137234
1741.29	-0.402367
1742.8	0.311019
1744.31	-0.411711
1745.83	-0.070797
1747.34	0.373405
1748.85	0.324223
1750.37	-0.01583
1751.88	0.210503
1753.39	0.114965
1754.91	0.18448
1756.42	0.0653343
1757.93	0.0593786
1759.44	0.310184
1760.95	-0.0675411
1762.46	0.111429
1763.97	-0.253233
1765.48	0.0835218
1766.99	-0.277486
1768.5	0.441828
1770.01	0.242585
1771.52	0.0395641
1773.03	0.19667
1774.54	0.155546
1776.04	0.264956
1777.55	0.441289
1779.06	-0.168941
1780.57	-0.39064
1782.07	0.316485
1783.58	0.160933
1785.09	-0.0326672
1786.59	-0.0820847
1788.1	-0.0915298
1789.6	0.131421
1791.11	0.391638
1792.61	0.0886021
1794.12	0.075983
1795.62	-0.10232
1797.13	-0.148317
1798.63	0.0352488
1800.13	-0.0169306
1801.64	0.356647
1803.14	0.173291
1804.64	-0.138911
1806.15	-0.15109
1807.65	0.152215
1809.15	-0.106088
1810.65	0.135633
1812.15	0.224944
1813.65	0.0837154
1815.16	0.157106
1816.66	0.184213
1818.15	0.564485
1819.66	0.172845
1821.16	0.364319
1822.65	0.00361729
1824.15	0.0651226
1825.65	-0.182364
1827.15	0.231577
1828.65	0.00682449
1830.15	0.122229
1831.64	-0.38901
1833.14	0.00615978
1834.64	0.0149498
1836.14	-0.289029
1837.63	0.346702
1839.13	-0.0698442
1840.62	0.251595
1842.12	0.28911
1843.62	0.320851
1845.11	-0.152391
1846.61	0.131238
1848.1	-0.137528
1849.6	0.154024
1851.09	0.114235
1852.58	-0.426816
1854.08	0.280236
1855.57	-0.182816
1857.06	-0.0224066
1858.55	-0.188925
1860.05	-0.0994883
1861.54	-0.113762
1863.03	0.111362
1864.52	-0.170846
1866.01	-0.074769
1867.5	0.347083
1869	-0.00554085
1870.49	0.236831
1871.98	-0.422621
1873.47	0.301223
1874.96	0.184744
1876.44	0.749641
1877.93	0.425014
1879.42	0.273479
1880.91	0.251074
1882.4	0.00580215
1882.47	-0.00606632
1883.96	0.0984468
1885.46	0.306192
1886.95	0.599409
1888.44	-0.0834026
1889.94	0.0699005
1891.43	0.0854454
1892.93	0.225209
1894.42	-0.118939
1895.91	-0.217232
1897.4	-0.0533276
1898.89	-0.0634174
1900.39	0.0988874
1901.88	-0.0022974
1903.37	0.450252
1904.86	0.274283
1906.35	0.28827
1907.84	0.16322
1909.33	0.195449
1910.82	0.402646
1912.31	0.0214005
1913.8	0.196236
1915.29	-0.201061
1916.77	-0.47735
1918.26	-0.182365
1919.75	-0.269464
1921.24	0.26687
1922.73	0.197433
1924.21	-0.112974
1925.7	-0.0579939
1927.19	0.292983
1928.67	0.194918
1930.16	-0.110986
1931.64	0.118679
1933.13	0.415317
1934.61	0.29353
1936.1	0.203725
1937.58	0.0774918
1939.07	-0.0493546
1940.55	0.325134
1942.04	0.165515
1943.52	-0.0785208
1945	-0.338237
1946.49	0.592325
1947.97	0.470715
1949.45	0.15851
1950.93	0.619816
1952.42	-0.349147
1953.9	-0.165658
1955.38	0.326724
1956.86	0.217999
1958.34	0.00750542
1959.82	-0.407465
1961.3	0.104743
1962.78	0.171215
1964.26	0.168825
1965.74	0.114275
1967.22	0.948698
1968.7	0.0534382
1970.18	0.166897
1971.65	0.0406351
1973.13	0.153394
1974.61	-0.501395
1976.09	0.378991
1977.57	-0.257469
1979.04	-0.654631
1980.52	0.496634
1982	0.422162
1983.47	0.109512
1984.95	0.594547
1986.42	0.060791
1987.9	0.409072
1989.37	0.537164
1990.85	-0.0784836
1992.32	-0.0830364
1993.8	-0.0691195
1995.27	-0.155325
1996.75	0.266046
1998.22	0.18046
1999.69	0.246208
2001.17	-0.0434341
2002.64	-0.164925
2004.11	0.640667
2005.58	0.249612
2007.05	0.601168
2008.53	0.162587
2010	0.112803
2011.47	0.114386
2012.94	-0.0185785
2014.41	-0.253103
2015.88	0.38616
2017.35	0.0481262
2018.82	0.869008
2020.29	-0.244092
2021.76	0.0879517
2023.23	0.806209
2024.7	0.434474
2026.16	0.165508
2027.63	0.116929
2029.1	0.62419
2030.57	0.362047
2032.03	0.537645
2033.5	0.949192
2034.97	0.62213
2036.44	-0.142515
2037.9	0.351801
2039.37	0.576808
2040.83	0.41515
2042.3	0.00178623
2043.76	0.396659
2045.23	0.540864
2046.69	0.147673
2048.16	0.158847
2049.62	0.270691
2051.08	0.43165
2052.55	0.472235
2054.01	0.594261
2055.47	0.966389
2056.94	0.510032
2058.4	0.473943
2059.86	0.80814
2061.32	0.90698
2062.79	0.569415
2064.25	1.0751
2065.71	1.26259
2067.17	0.559544
2068.63	0.463287
2070.09	0.855688
2071.55	1.06311
2073.01	1.16934
2074.47	1.47721
2075.93	1.32989
2077.39	1.09773
2078.85	1.01647
2080.31	1.17022
2081.76	1.05362
2083.22	0.178499
2084.68	0.968616
2086.13	1.25235
2087.59	1.36666
2089.05	1.26167
2090.51	1.49237
2091.96	0.614648
2093.42	1.58349
2094.87	1.07505
2096.33	1.05245
2097.78	1.5145
2099.24	1.50619
2100.69	1.36353
2102.15	1.60576
2103.6	1.58181
2105.06	1.61013
2106.51	1.80762
2107.96	1.50646
2109.42	1.7897
2110.87	1.88856
2112.32	1.35192
2113.77	1.51243
2115.23	2.03606
2116.68	1.60958
2118.13	1.93178
2119.58	1.90712
2121.03	1.6203
2122.48	2.66377
2123.93	2.48232
2125.38	2.61715
2126.83	2.58575
2128.28	2.6521
2129.73	3.01423
2131.18	2.24746
2132.63	2.45668
2134.08	2.50012
2135.53	2.49522
2136.97	2.16227
2138.42	3.0225
2139.87	3.01011
2141.32	3.41393
2142.76	3.30756
2144.21	3.35121
2145.66	3.74273
2147.1	3.78636
2148.55	3.84541
2150	3.55501
2151.44	4.43904
2152.89	4.02891
2154.33	3.98173
2155.78	4.21529
2157.22	4.4986
2158.66	4.61752
2160.11	4.9212
2161.55	4.63181
2163	4.03074
2164.44	5.19036
2165.88	4.89235
2167.32	4.56057
2168.77	4.67526
2170.21	5.00292
2171.65	3.96257
2173.09	4.19931
2174.53	3.46864
2175.97	4.84913
2177.41	4.38381
2178.85	4.66816
2180.29	5.08735
2181.73	4.69358
2183.17	4.33411
2184.61	3.89191
2186.05	3.86558
2187.49	4.30517
2188.93	4.02938
2190.37	3.38726
2191.81	4.00971
2193.24	4.04824
2194.68	2.9522
2196.12	3.75089
2197.56	4.02961
2198.99	2.94133
2200.43	3.08218
2201.87	3.4051
2203.3	3.01525
2204.74	3.2579
2206.17	3.18726
2207.61	3.25021
2209.04	2.89883
2210.48	2.91057
2211.91	2.93707
2213.35	3.06134
2214.78	2.22714
2216.21	2.88065
2217.65	2.87543
2219.08	2.77346
2220.51	3.10175
2221.95	2.29291
2223.38	2.50491
2224.81	2.61557
2226.24	1.42314
2227.67	2.12056
2229.1	1.92753
2230.54	1.70075
2231.97	1.24465
2233.4	2.37776
2234.83	1.77642
2236.26	2.12572
2237.69	2.29755
2239.11	1.885
2240.54	1.31305
2241.97	0.79321
2243.4	1.46605
2244.83	1.01412
2246.26	1.11576
2247.69	1.10075
2249.11	1.34315
2250.54	1.56537
2251.97	1.44248
2253.4	1.07443
2254.82	0.983646
2256.25	1.73946
2257.67	0.778172
2259.1	0.860312
2260.53	1.10931
2261.95	0.859214
2263.38	0.773863
2264.8	0.916471
2266.23	0.489614
2267.65	1.06971
2269.07	0.949036
2270.5	1.18511
2271.92	1.3065
2273.34	0.597022
2274.77	1.07651
2276.19	0.855901
2277.61	1.07551
2279.03	0.561737
2280.46	0.243279
2281.88	0.903117
2283.3	0.518987
2284.72	0.787458
2286.14	0.56671
2287.56	0.950521
2288.98	-0.0530701
2290.4	1.11642
2291.82	0.538188
2293.24	0.581109
2294.66	0.444064
2296.08	0.486818
2297.5	0.218387
2298.92	0.605079
2300.34	0.697372
2301.76	1.03616
2303.17	0.260136
2304.59	0.501245
2306.01	0.627537
2307.43	0.44124
2308.84	0.878574
2310.26	0.608229
2311.68	0.616686
2313.09	0.295979
2314.51	0.239005
2315.92	-0.113324
2317.34	0.65547
2318.75	0.0741024
2320.17	0.778253
2321.58	0.045867
2323	0.168429
2324.41	1.03014
2325.82	0.436075
2327.24	0.845735
2328.65	0.775738
2330.06	0.524866
2331.48	0.473152
2332.89	0.620692
2334.3	0.440422
2335.71	-0.0190096
2337.12	-0.166375
2338.54	0.276781
2339.95	-0.120239
2341.36	0.532758
2342.77	0.297892
2344.18	-0.084341
2345.59	0.0259972
2347	0.153005
2348.41	0.148962
2349.82	0.4061
2351.23	0.678043
2352.64	-0.0482922
2354.04	0.530627
2355.45	0.357479
2356.86	0.249272
2358.27	-0.102756
2359.68	-0.0963945
2361.08	0.202241
2362.49	0.208379
2363.9	-0.174374
2365.3	0.0260515
2366.71	0.258628
2368.12	-0.251091
2369.52	-0.161489
2370.93	-0.19905
2372.33	0.0876245
2373.74	0.327233
2375.14	0.341912
2376.55	0.516931
2377.95	0.207726
2379.36	0.282224
2380.76	-0.0954504
2382.16	0.311238
2383.57	-0.0372009
2384.97	0.318636
2386.37	0.362641
2387.78	0.407892
2389.18	-0.0154953
2390.58	-0.14947
2391.98	-0.138214
2393.38	0.272331
2394.79	-0.334144
2396.19	-0.239537
2397.59	0.221479
2398.99	0.206441
2400.39	0.621091
2401.79	0.21015
2403.19	0.498183
2404.59	-0.262398
2405.99	-0.0238113
2407.39	-0.0565386
2408.78	0.0998793
2410.18	0.382406
2411.58	0.142107
2412.98	-0.0651016
2414.38	0.315502
2415.77	-0.0300064
2417.17	-0.294334
2418.57	0.0126686
2419.97	0.0194559
2421.36	0.390409
2422.76	0.491629
2424.15	0.30722
2425.55	0.154525
2426.95	0.224422
2428.34	0.0578346
2429.74	0.0828762
2431.13	0.378754
2432.52	0.167173
2433.92	0.335801
2435.31	0.502867
2436.71	0.19105
2438.1	0.0993071
2439.49	0.513918
2440.89	0.212262
2442.28	0.116315
2443.67	-0.106963
2445.06	-0.124135
2446.46	0.17556
2447.85	-0.174974
2449.24	0.314308
2450.63	0.0751448
2452.02	-0.0839167
2453.41	0.660192
2454.8	0.582635
2456.19	0.71184
2457.58	0.319559
2458.97	-0.0412512
2460.36	0.166498
2461.75	0.0251141
2463.14	-0.196422
2464.53	0.00789547
2465.92	-0.167459
2467.31	0.446463
2468.69	-0.0920877
2470.08	-0.173081
2471.47	0.0763607
2472.86	-0.19536
2474.24	0.508163
2475.63	0.171424
2477.02	0.384738
2478.4	0.613303
2479.79	0.33958
2481.17	-0.0902586
2482.56	0.201204
2483.94	-0.32255
2485.33	0.607874
2486.72	0.456652
2488.1	0.39768
2489.48	0.212988
2490.87	-0.500698
2492.25	0.467017
2493.64	-0.0566072
2495.02	-0.220365
2496.4	-0.815981
2497.79	0.20141
2499.17	-0.206214
2500.55	0.283391
2501.93	-0.0944271
2503.31	0.437976
2504.69	0.335502
2506.08	0.293892
2507.46	-0.440639
2508.84	-0.0510731
2510.22	0.123253
2511.6	0.52831
2512.98	-0.231193
2514.36	0.160606
2515.74	0.00212002
2517.12	-0.0785208
2518.5	0.178107
2519.88	0.755652
2521.25	0.0187187
2522.63	-0.306218
2524.01	0.405237
2525.39	-0.119999
2526.77	0.207953
2528.14	0.383785
2529.52	-0.047246
2530.9	0.482072
2532.27	0.0563278
2533.65	0.422854
2535.03	0.577782
2536.4	-0.133286
2537.78	0.218131
2539.15	0.00605869
2540.53	0.233138
2541.9	0.155925
2543.28	0.124648
2544.65	-0.0115538
2546.03	0.415312
2547.4	-0.399795
2548.77	0.151582
2550.15	0.369492
2551.52	0.465353
2552.89	-0.183823
2554.27	0.0911808
2555.64	0.728843
2557.01	-0.424498
2558.38	-0.0307598
2559.75	0.257017
2561.12	-0.257833
2562.5	-0.18056
2563.87	-0.46613
2565.24	0.158176
2566.61	0.161553
2567.98	0.119596
2569.35	-0.0890646
2570.72	-0.115882
2572.09	0.630386
2573.46	0.346082
2574.83	-0.211001
2576.19	-0.328458
2577.56	-0.0669851
2578.93	0.239673
2580.3	0.894571
2581.67	-0.164589
2583.04	0.261629
2584.4	0.47515
2585.77	0.173145
2587.14	0.265443
2588.5	0.312536
2589.87	0.299183
2591.23	0.17958
2592.6	0.225974
2593.97	0.528661
2595.33	0.29957
2596.7	0.0690584
2598.06	0.367042
2599.43	-0.288449
2600.79	-0.172423
2602.15	-0.0709143
2603.52	0.0465784
2604.88	-0.423676
2606.25	0.162637
2607.61	0.220292
2608.97	0.397212
2610.33	0.195519
2611.7	-0.414278
2613.06	0.388684
2614.42	0.242518
2615.78	-0.0238466
2617.15	-0.00453949
2618.51	-0.0293083
2619.87	-0.232449
2621.23	0.552695
2622.59	0.11226
2623.95	0.210346
2625.31	0.532074
2626.67	-0.235632
2628.03	-0.108658
2629.39	-0.369481
2630.75	0.173202
2632.1	0.253983
2633.46	0.275139
2634.82	0.147777
2636.18	0.272684
2637.54	0.204715
2638.89	-0.322084
2640.25	0.291369
2641.61	0.0172386
2642.97	0.43827
2644.32	-0.0711002
2645.68	-0.048768
2647.03	0.886941
2648.39	0.199806
2649.75	-0.0900497
2651.1	-0.189278
2652.46	0.636428
2653.81	0.0376148
2655.17	-0.0605898
2656.52	-0.127713
2657.88	-0.324759
2659.23	0.0941706
2660.58	-0.0423107
2661.94	0.0257502
2663.29	0.0782537
2664.64	-0.191663
2666	0.339869
2667.35	0.272274
2668.7	0.466728
2670.05	0.355705
2671.4	0.56552
2672.76	-0.488115
2674.11	0.420914
2675.46	0.41543
2676.81	0.00457573
2678.16	0.117145
2679.51	0.187387
2680.86	0.346159
2682.21	-0.000696182
2683.56	0.509709
2684.91	0.267598
2686.26	-0.394693
2687.61	0.161628
2688.96	-0.473942
2690.3	0.0638504
2691.65	-0.0398617
2693	0.347461
2694.35	0.703865
2695.7	0.508818
2697.04	-0.438387
2698.39	-0.02178
2699.74	0.339219
2701.08	-0.0790682
2702.43	0.475213
2703.77	-0.316091
2705.12	-0.0344954
2706.47	0.595558
2707.81	0.369658
2709.16	0.317141
2710.5	0.423727
2711.85	-0.0365849
2713.19	0.388987
2714.53	0.436786
2715.88	0.4409
2717.22	0.546609
2718.57	0.157351
2719.91	0.247536
2721.25	0.206084
2722.59	0.294869
2723.94	0.20827
2725.28	-0.0827827
2726.62	0.659006
2727.96	0.352319
2729.3	0.380009
2730.65	0.916724
2731.99	0.332992
2733.33	0.0404625
2734.67	0.548256
2736.01	0.227235
2737.35	0.400955
2738.69	0.414657
2740.03	0.0498934
2741.37	-0.155561
2742.71	0.350422
2744.05	0.215625
2745.38	0.108997
2746.72	0.19057
2748.06	-0.0766096
2749.4	0.0047121
2750.74	0.100755
2752.07	-0.005867
2753.41	0.0763407
2754.75	0.260171
2756.09	-0.0773306
2757.42	-0.0813656
2758.76	0.00182533
2760.09	0.114496
2761.43	0.169973
2762.77	-0.338152
2764.1	0.499892
2765.44	-0.166853
2766.77	0.482345
2768.11	0.00173378
2769.44	-0.133521
2770.77	-0.198579
2772.11	-0.164506
2773.44	0.445124
2774.77	0.0148039
2776.11	0.29094
2777.44	-0.483464
2778.77	0.024066
2780.11	-0.258746
2781.44	-0.296556
2782.77	0.0963745
2784.1	-0.242743
2785.43	0.120829
2786.77	0.169069
2788.1	-0.168501
2789.43	0.0534458
2790.76	0.176455
2792.09	-0.0854578
2793.42	-0.417997
2794.75	0.250131
2796.08	-0.0684528
2797.41	0.340797
2798.74	0.548985
2800.07	-0.114296
2801.4	-0.0783796
2802.72	0.370701
2804.05	0.576656
2805.38	-0.272256
2806.71	0.273847
2808.04	0.505302
2809.36	-0.0601673
2810.69	-0.326534
2812.02	0.00437927
2813.34	-0.117294
2814.67	0.330428
2816	-0.226263
2817.32	0.395315
2818.65	0.0114746
2819.97	0.0812407
2821.3	-0.0480785
2822.62	0.43098
2823.95	0.469673
2825.27	-0.00213814
2826.6	0.262708
2827.92	0.683959
2829.25	0.100846
2830.57	0.325442
2831.89	0.507898
2833.22	0.704428
2834.54	0.617375
2835.86	0.883393
2837.18	1.74275
2838.51	1.46933
2839.83	1.54925
2841.15	2.46344
2842.47	2.07745
2843.79	2.89399
2845.11	2.60931
2846.43	2.55182
2847.76	3.34296
2849.08	2.72085
2850.4	3.17243
2851.72	4.06133
2853.04	3.76208
2854.36	3.68831
2855.67	3.85442
2856.99	4.47249
2858.31	4.03113
2859.63	4.83267
2860.95	4.65937
2862.27	5.17733
2863.58	4.32534
2864.9	5.25121
2866.22	4.73767
2867.54	5.5505
2868.85	5.24985
2870.17	6.14838
2871.49	5.98978
2872.8	6.14083
2874.12	6.8682
2875.43	6.50862
2876.75	6.18958
2878.07	6.88249
2879.38	6.87091
2880.7	6.70527
2882.01	6.97679
2883.32	7.54499
2884.64	6.93525
2885.95	7.25346
2887.27	6.86996
2888.58	7.32778
2889.89	7.84003
2891.21	7.57911
2892.52	7.79376
2893.83	8.24603
2895.14	8.95059
2896.46	8.22845
2897.77	9.06207
2899.08	8.89001
2900.39	9.02737
2901.7	8.96982
2903.01	9.58413
2904.32	9.6252
2905.63	9.80668
2906.94	9.97528
2908.25	10.3413
2909.56	10.7932
2910.87	12.0021
2912.18	11.5038
2913.49	11.8299
2914.8	11.4811
2916.11	12.0809
2917.42	13.237
2918.72	13.159
2920.03	12.773
2921.34	13.8148
2922.65	13.8941
2923.95	13.557
2925.26	14.3966
2926.57	14.0774
2927.88	15.0026
2929.18	14.9484
2930.49	14.7951
2931.79	14.1795
2933.1	14.7376
2934.4	14.4988
2935.71	14.3722
2937.01	14.204
2938.32	14.0222
2939.62	13.855
2940.93	14.0941
2942.23	12.6861
2943.54	12.9573
2944.84	12.3927
2946.14	12.1938
2947.45	12.1778
2948.75	11.8256
2950.05	11.1769
2951.35	11.5607
2952.66	11.2405
2953.96	9.96553
2955.26	10.2019
2956.56	9.83805
2957.86	9.38001
2959.16	9.50094
2960.46	9.50118
2961.77	8.08958
2963.07	8.79585
2964.37	8.75819
2965.66	8.39477
2966.96	7.76091
2968.26	8.17852
2969.56	8.48242
2970.86	7.49222
2972.16	7.06483
2973.46	6.69416
2974.76	7.22423
2976.06	6.66936
2977.35	6.19658
2978.65	6.34031
2979.95	6.03044
2981.25	6.05608
2982.54	5.75713
2983.84	5.19186
2985.14	5.19108
2986.43	5.34753
2987.73	4.97265
2989.02	5.00711
2990.32	4.81729
2991.62	4.41584
2992.91	3.40833
2994.21	3.57928
2995.5	3.42516
2996.8	3.38223
2998.09	3.24072
2999.38	2.52464
3000.68	2.91775
3001.97	2.76494
3003.26	2.29068
3004.56	2.37729
3005.85	2.2674
3007.14	1.84866
3008.43	1.90469
3009.73	1.52577
3011.02	0.950557
3012.31	1.22721
3013.6	1.26627
3014.89	1.23625
3016.19	0.747704
3017.48	0.91535
3018.77	0.554917
3020.06	0.570578
3021.35	0.571723
3022.64	0.502176
3023.93	0.153728
3025.22	0.37321
3026.5	0.231826
3027.79	-0.0330992
3029.08	0.381598
3030.37	0.397338
3031.66	-0.0541353
3032.95	0.0210514
3034.24	0.234778
3035.52	0.213139
3036.81	0.672191
3038.1	0.0671043
3039.39	-0.00293636
3040.67	0.0897961
3041.96	0.606408
3043.25	0.299101
3044.53	-0.21137
3045.82	0.49876
3047.1	0.650815
3048.39	0.233004
3049.67	0.405804
3050.96	0.744856
3052.24	0.130077
3053.53	0.129529
3054.81	0.551035
3056.1	0.411632
3057.38	0.584257
3058.67	0.496655
3059.95	0.531301
3061.23	0.253531
3062.52	0.263208
3063.8	0.125463
3065.08	0.180508
3066.36	0.0474339
3067.65	-0.0296402
3068.93	0.56031
3070.21	0.17089
3071.49	0.487494
3072.77	0.571084
3074.05	0.109016
3075.33	-0.0822906
3076.61	-0.0565634
3077.89	0.309128
3079.17	-0.16503
3080.45	-0.0126104
3081.73	-0.264715
3083.01	-0.162183
3084.29	0.185786
3085.57	-0.0358906
3086.85	0.0947218
3088.13	-0.169234
3089.41	0.0409164
3090.68	0.345397
3091.96	-0.096549
3093.24	0.587797
3094.52	0.499449
3095.79	0.357435
3097.07	-0.0418358
3098.35	0.14186
3099.62	-0.216616
3100.9	-0.0872545
3102.18	0.272447
3103.45	-0.234007
3104.73	0.262277
3106	-0.12009
3107.28	0.148649
3108.55	-0.0140228
3109.83	-0.134432
3111.1	0.410121
3112.38	0.387446
3113.65	0.568798
3114.93	0.41151
3116.2	0.0908155
3117.47	0.311361
3118.75	0.245593
3120.02	0.35464
3121.29	0.0556335
3122.57	0.636971
3123.84	0.431953
3125.11	0.714948
3126.38	0.443569
3127.65	0.701058
3128.92	0.56709
3130.2	-0.188064
3131.47	0.530869
3132.74	0.614246
3134.01	0.845731
3135.28	1.10335
3136.55	0.698814
3137.82	0.604298
3139.09	0.698114
3140.36	0.764739
3141.63	0.777677
3142.9	1.05994
3144.17	0.469967
3145.43	0.673462
3146.7	1.02534
3147.97	0.935811
3149.24	0.981316
