200.554	-0.162908
202.369	-0.132263
204.183	-0.100596
205.999	0.272875
207.813	0.840857
209.626	1.06745
211.439	0.903702
213.253	1.00538
215.065	0.81435
216.877	0.840997
218.688	0.480287
220.5	0.726057
222.312	-0.0671825
224.123	-0.0122185
225.933	-0.198195
227.742	0.0991983
229.552	-0.352675
231.361	-0.201484
233.171	0.76942
234.98	0.220903
236.787	0.108472
238.595	0.384584
240.402	0.182047
242.209	-0.0657816
244.015	0.242762
245.822	0.334191
247.627	0.833949
249.435	0.485046
251.24	-0.0371847
253.045	0.426734
254.849	0.0919113
256.653	0.576667
258.457	-0.190964
260.26	0.200564
262.063	-0.417221
263.866	0.533049
265.668	0.15972
267.47	-0.0687485
269.271	0.0638094
271.073	-0.0940199
272.873	0.445771
274.674	0.115666
276.474	-0.554032
278.274	0.0995464
280.073	0.460848
281.872	-0.0956593
283.671	-0.148787
285.47	0.372886
287.268	0.388505
289.065	-0.411036
290.863	0.492613
292.66	-0.0395384
294.456	0.244369
296.253	0.195212
298.049	-0.402186
299.844	0.219886
301.637	0.363547
303.432	-0.592318
305.227	-0.164883
307.021	-0.263814
308.815	-0.362926
310.609	0.182057
312.402	0.87107
314.195	0.157109
315.987	0.302948
317.777	-0.0013504
319.569	-0.327635
321.36	0.515164
323.151	0.310512
324.942	0.225458
326.733	0.474678
328.521	0.652114
330.31	0.828824
332.1	0.621319
333.889	0.363379
335.677	0.174188
337.464	0.125445
339.252	0.48064
341.039	0.498704
342.826	0.0375843
344.611	0.150202
346.398	0.358931
348.184	0.496784
349.97	0.181628
351.754	0.5587
353.539	-0.210559
355.324	-0.145924
357.106	-0.250018
358.89	-0.0697947
360.674	0.0610476
362.455	-0.214083
364.239	0.722792
366.021	-0.0533314
367.804	0.310075
369.584	0.363339
371.366	0.415301
373.145	-0.503811
374.926	0.232807
376.707	-0.590038
378.485	-0.0900612
380.265	0.763396
382.045	0.110577
383.822	-0.233851
385.601	0.175986
387.378	-0.164948
389.156	0.599808
390.934	0.0972271
392.71	0.135905
394.487	0.316252
396.262	0.356107
398.038	0.0907307
399.813	0.459175
401.588	0.451211
403.362	-0.144868
405.137	-0.154735
406.912	0.374489
408.685	-0.0599098
410.459	-0.306799
412.23	-0.248507
414.004	-0.0254717
415.775	0.949211
417.548	0.0712824
419.318	-0.195888
421.089	0.546365
422.86	0.326005
424.63	0.503686
426.401	0.539256
428.17	-0.318394
429.94	-0.120263
431.708	0.288984
433.478	-0.357549
435.245	0.240188
437.012	0.0633335
438.781	0.307942
440.547	0.808598
442.315	0.15685
444.081	0.159232
445.846	0.135754
447.613	0.0873308
449.378	0.786622
451.142	0.643754
452.908	-0.362148
454.672	0.0332499
456.435	0.358027
458.2	0.379325
459.963	0.191241
461.725	0.0973339
463.489	0.377416
465.251	0.660419
467.012	1.04011
468.775	-0.064024
470.536	0.344822
472.296	0.24286
474.056	0.884774
475.817	-0.17546
477.576	0.0887976
479.335	0.863188
481.094	1.44982
482.854	-0.0129423
484.612	0.59874
486.37	-0.324479
488.127	0.33919
489.886	0.35317
491.642	0.601926
493.398	-0.222916
495.154	0.471136
496.91	0.651304
498.667	0.690799
500.422	0.612422
502.176	0.603414
503.93	0.569667
505.684	0.957378
507.438	1.22603
509.191	0.998718
510.946	0.863169
512.698	0.913652
514.45	1.07971
516.202	-0.0264893
517.954	0.39492
519.705	0.0154533
521.456	1.23302
523.206	0.382175
524.956	0.869741
526.706	0.840654
528.456	1.42119
530.207	0.735509
531.956	1.47863
533.704	0.581268
535.452	-0.0124168
537.2	0.584821
538.947	0.898907
540.694	0.86093
542.441	0.728782
544.188	0.596426
545.934	0.603739
547.68	0.170319
549.425	0.73494
551.17	0.464993
552.915	0.889728
554.659	0.227866
556.403	0.213982
558.145	0.362027
559.889	0.441293
561.632	0.912452
563.375	0.325592
565.117	0.0161543
566.859	0.305145
568.601	0.0438585
570.342	0.426698
572.083	0.23755
573.824	0.0047245
575.565	0.737671
577.303	0.371634
579.043	0.305486
580.782	-0.150234
582.521	0.220937
584.26	-0.0290203
585.998	-0.00453949
587.734	0.0643368
589.472	-0.121403
591.21	-0.331363
592.947	0.194258
594.684	0.0984621
596.418	-0.0893126
598.154	0.321012
599.89	-0.189426
601.626	-0.125793
603.361	0.189152
605.094	-0.0497332
606.828	0.0316
608.562	0.777746
610.296	0.46716
612.027	0.0658331
613.761	0.858097
615.493	0.367176
617.224	0.151725
618.956	0.943358
620.688	0.588284
622.419	0.163319
624.149	0.423594
625.879	0.27235
627.61	0.168385
629.338	0.88864
631.068	0.425206
632.797	0.261112
634.525	0.258052
636.254	0.345793
637.98	0.431225
639.708	0.535849
641.436	1.1838
643.162	0.0272236
644.889	0.624166
646.614	0.674606
648.34	0.500231
650.067	0.534731
651.791	0.165324
653.516	-0.26745
655.239	0.691049
656.964	0.128531
658.687	-0.000889778
660.411	0.530576
662.133	0.193023
663.857	0.766114
665.58	0.239134
667.301	0.326815
669.024	-0.43263
670.744	0.684525
672.464	0.202947
674.186	0.57131
675.905	0.347029
677.626	0.445129
679.345	0.0152655
681.065	0.456909
682.783	1.05799
684.503	-0.391819
686.22	-0.00311375
687.939	0.429898
689.656	0.262753
691.372	0.463209
693.09	-0.0282011
694.806	0.331683
696.523	0.828315
698.239	0.793649
699.953	0.941416
701.67	0.00660992
703.384	0.496645
705.098	0.433917
706.813	1.05905
708.526	0.673712
710.239	0.952925
711.954	1.32272
713.666	0.707977
715.378	-0.18014
717.091	0.599882
718.802	-0.240872
720.513	-0.122751
722.226	0.0864115
723.936	0.591058
725.646	0.435453
727.355	-0.0155163
729.067	1.09944
730.776	-0.0551777
732.484	0.852822
734.192	0.966923
735.902	0.877449
737.61	1.14993
739.317	0.926533
741.024	0.997832
742.731	0.755272
744.439	0.424709
746.145	1.13141
747.851	0.984591
749.556	1.15449
751.262	0.921218
752.966	0.667146
754.673	1.2922
756.377	0.524226
758.081	0.207902
759.784	0.14085
761.487	1.06713
763.19	1.36365
764.892	1.45699
766.594	1.2326
768.296	1.29941
770	1.1147
771.701	1.80925
773.402	1.07736
775.102	1.49817
776.803	1.06053
778.503	1.28029
780.202	2.09015
781.901	1.47661
783.6	1.27019
785.299	2.30716
786.997	1.34903
788.695	1.79015
790.393	1.25397
792.09	1.03146
793.787	1.37183
795.484	2.00449
797.18	1.89356
798.877	1.01937
800.572	1.22898
802.268	1.59765
803.963	0.977373
805.658	0.806958
807.35	0.815416
809.044	1.02449
810.738	1.54597
812.432	0.921943
814.125	1.10477
815.818	1.21983
817.51	1.06626
819.202	2.18686
820.894	1.60882
822.584	1.03226
824.275	1.50549
825.966	1.42294
827.657	1.6774
829.347	1.5568
831.037	1.50701
832.725	1.59459
834.414	2.1754
836.103	0.996065
837.792	1.75675
839.481	1.95844
841.167	1.55507
842.854	1.44022
844.542	1.77167
846.229	1.54545
847.914	2.03702
849.6	1.68222
851.287	1.30782
852.973	1.69735
854.656	1.43812
856.341	1.29039
858.026	1.38824
859.711	1.21403
861.393	1.5101
863.077	1.91702
864.761	1.62392
866.442	0.991258
868.125	1.59766
869.808	1.79778
871.489	1.34338
873.171	1.27213
874.85	1.22335
876.532	1.76132
878.213	1.57723
879.892	1.57354
881.572	0.756646
883.251	0.864343
884.931	1.60268
886.61	1.1879
888.287	1.53838
889.966	0.984433
891.643	1.19543
893.321	0.571185
894.997	0.373979
896.675	1.16483
898.352	1.03215
900.028	1.235
901.704	1.61554
903.379	1.56931
905.055	0.852551
906.729	1.07534
908.404	1.0755
910.077	1.16594
911.75	0.612269
913.425	1.21619
915.097	0.909135
916.771	0.669252
918.443	1.02812
920.116	1.25362
921.787	1.45741
923.46	0.75618
925.13	0.853315
926.8	1.1073
928.472	1.01017
930.141	0.804381
931.813	0.511288
933.481	1.34369
935.15	2.06584
936.82	1.04612
938.488	0.689341
940.156	0.929658
941.825	0.796607
943.492	1.14989
945.158	0.973398
946.827	1.0602
948.493	0.460296
950.158	1.094
951.824	0.380053
953.491	1.07821
955.156	0.344922
956.82	1.0707
958.486	0.367214
960.15	0.394994
961.814	0.844416
963.477	0.719505
965.142	0.481598
966.804	0.88165
968.467	0.968425
970.129	0.941859
971.79	0.538232
973.454	1.13059
975.115	0.309548
976.776	0.729302
978.436	-0.087678
980.096	0.0804119
981.756	0.248073
983.417	1.28852
985.077	0.821085
986.736	1.52405
988.394	1.22859
990.052	0.909635
991.71	1.12059
993.368	1.17651
995.025	1.27666
996.682	1.06802
998.341	1.60921
999.998	1.97318
1001.65	2.27008
1003.31	1.66374
1004.97	0.639999
1006.62	2.12264
1008.28	1.34165
1009.93	0.847489
1011.58	0.288805
1013.24	1.02444
1014.89	0.445589
1016.54	0.502768
1018.2	0.582461
1019.85	1.16619
1021.5	1.02943
1023.16	0.435258
1024.81	1.24124
1026.46	1.52335
1028.11	0.865879
1029.76	1.32186
1031.41	1.40467
1033.06	1.74716
1034.71	1.6943
1036.36	1.35617
1038.01	1.34424
1039.66	2.33352
1041.31	2.4523
1042.95	1.76865
1044.6	2.17457
1046.25	1.93143
1047.9	2.84213
1049.54	2.14811
1051.19	1.99881
1052.84	2.06787
1054.48	1.50732
1056.13	1.8159
1057.77	1.75463
1059.42	0.779469
1061.06	1.47754
1062.71	1.43529
1064.35	0.717734
1066	1.08593
1067.64	0.67011
1069.28	1.05711
1070.93	0.769782
1072.57	1.00352
1074.21	1.7802
1075.85	1.06119
1077.49	0.886528
1079.13	1.21233
1080.78	0.780176
1082.42	0.846714
1084.06	1.51912
1085.7	1.34362
1087.34	0.797109
1088.97	0.854714
1090.61	1.16954
1092.25	1.02833
1093.89	1.29705
1095.53	1.56557
1097.17	0.519945
1098.8	1.13635
1100.44	0.484297
1102.08	0.54551
1103.71	0.50146
1105.35	1.12593
1106.99	1.4714
1108.62	0.547553
1110.26	1.38557
1111.89	0.523023
1113.52	0.325051
1115.16	1.34933
1116.79	0.762589
1118.43	1.33444
1120.06	1.58519
1121.69	0.659441
1123.32	1.14857
1124.96	0.590339
1126.59	0.546947
1128.22	1.12476
1129.85	0.655684
1131.48	0.273009
1133.11	0.724491
1134.75	0.363443
1136.37	0.81378
1138	0.578786
1139.63	0.385079
1141.26	0.361037
1142.89	0.165698
1144.52	-0.00788879
1146.15	0.267277
1147.78	0.223837
1149.4	0.288071
1151.03	0.267691
1152.66	0.588027
1154.28	0.0561857
1155.91	-0.0501957
1157.54	-0.0289822
1159.16	0.247953
1160.79	0.121861
1162.41	0.316197
1164.04	0.107841
1165.66	-0.652695
1167.29	0.0534735
1168.91	-0.28354
1170.53	0.33387
1172.16	-0.0713949
1173.78	-0.244901
1175.4	0.344053
1177.02	0.231954
1178.65	0.459239
1180.27	-0.223006
1181.89	0.0486803
1183.51	-0.0385094
1185.13	-0.125599
1186.75	-0.129349
1188.37	0.118014
1189.99	0.699623
1191.61	0.393294
1193.23	0.0858116
1194.85	0.512925
1196.47	1.04378
1198.08	0.464912
1199.7	-0.00563049
1201.32	0.426218
1202.94	0.443296
1204.55	-0.245818
1206.17	0.716461
1207.79	0.887338
1209.4	0.745605
1211.02	0.644496
1212.63	0.624561
1214.25	0.789249
1215.86	0.638456
1217.48	1.06801
1219.09	0.809696
1220.71	0.44803
1222.32	0.938256
1223.93	0.662676
1225.54	0.969254
1227.16	0.780856
1228.77	0.780643
1230.38	1.50574
1231.99	1.28124
1233.6	2.0092
1235.22	0.837395
1236.83	1.42401
1238.44	0.730406
1240.05	1.73301
1241.66	1.39189
1243.26	2.04317
1244.87	2.52806
1246.48	1.27337
1248.09	1.71406
1249.7	1.32608
1251.31	1.93078
1252.92	1.91514
1254.52	1.77644
1256.13	1.90815
1257.74	1.3589
1259.34	1.45247
1260.95	1.91988
1262.55	2.4711
1264.16	1.69691
1265.76	2.24786
1267.37	1.86531
1268.97	1.99959
1270.58	1.86292
1272.18	2.409
1273.78	2.02061
1275.39	3.14408
1276.99	2.35923
1278.59	2.19515
1280.2	1.88542
1281.8	2.71384
1283.4	2.42462
1285	3.48057
1286.6	2.07713
1288.2	2.90803
1289.8	1.96275
1291.4	2.50611
1293	2.71863
1294.6	3.0126
1296.2	3.24256
1297.8	2.78876
1299.4	2.93128
1301	2.61791
1302.6	1.78834
1304.19	3.20198
1305.79	2.63831
1307.39	2.97865
1308.99	2.12805
1310.58	3.08259
1312.18	2.66418
1313.77	2.06365
1315.37	2.48725
1316.96	2.33981
1318.56	2.94819
1320.15	2.49539
1321.75	2.57156
1323.34	2.74713
1324.94	2.39138
1326.53	2.56236
1328.12	2.52943
1329.72	2.47721
1331.31	2.75097
1332.9	2.84556
1334.49	2.13562
1336.08	2.78073
1337.67	2.35696
1339.27	2.39625
1340.86	2.41297
1342.45	2.34617
1344.04	2.55817
1345.63	1.84478
1347.22	1.63468
1348.8	1.70777
1350.39	2.50446
1351.98	1.52355
1353.57	1.52593
1355.16	2.04964
1356.75	1.97407
1358.33	1.2587
1359.92	1.86047
1361.51	1.8216
1363.09	2.36013
1364.68	2.27959
1366.27	2.19951
1367.85	2.10075
1369.44	2.04357
1371.02	1.72966
1372.61	1.61669
1374.19	1.20675
1375.77	1.49409
1377.36	1.70193
1378.94	2.04835
1380.52	1.67704
1382.11	1.88096
1383.69	2.18243
1385.27	2.00528
1386.85	1.84756
1388.43	1.27322
1390.02	2.26834
1391.6	1.91469
1393.18	1.32424
1394.76	1.4882
1396.34	2.32596
1397.92	2.13148
1399.5	2.29241
1401.08	1.73891
1402.65	2.84788
1404.23	2.23453
1405.81	2.2553
1407.39	2.39582
1408.97	2.51765
1410.54	2.71911
1412.12	2.66364
1413.7	2.82445
1415.27	2.60895
1416.85	2.27415
1418.43	2.56989
1420	2.43245
1421.58	1.74535
1423.15	2.95055
1424.73	2.46497
1426.3	3.12272
1427.87	3.13169
1429.45	2.86464
1431.02	2.97024
1432.6	3.15285
1434.17	3.57008
1435.74	3.51444
1437.31	3.65577
1438.89	3.73916
1440.46	4.37432
1442.03	4.00854
1443.6	4.2727
1445.17	4.91089
1446.74	4.66493
1448.31	4.65506
1449.88	4.567
1451.45	4.61728
1453.02	4.78639
1454.59	4.484
1456.16	4.35846
1457.72	4.76316
1459.29	4.96911
1460.86	3.51928
1462.43	3.68045
1463.99	3.38681
1465.56	2.65952
1467.13	3.50398
1468.69	2.26703
1470.26	2.77902
1471.83	2.841
1473.39	2.47294
1474.95	2.26295
1476.52	1.89672
1478.08	1.56991
1479.65	1.4195
1481.21	1.28857
1482.78	2.05902
1484.34	1.0852
1485.9	1.34538
1487.47	2.05485
1489.03	1.2546
1490.59	1.39185
1492.15	0.959108
1493.71	1.1103
1495.27	1.23939
1496.84	1.32783
1498.39	1.98006
1499.96	0.824085
1501.52	0.759244
1503.07	0.153031
1504.64	0.44021
1506.19	0.475509
1507.75	1.03205
1509.31	0.349827
1510.87	0.76749
1512.43	0.431538
1513.98	0.75031
1515.54	0.453473
1517.1	0.522849
1518.65	1.07238
1520.21	0.567978
1521.77	1.09809
1523.32	0.403387
1524.88	0.911947
1526.44	0.636271
1527.99	1.19792
1529.54	0.198276
1531.1	0.188713
1532.65	0.9761
1534.21	0.740034
1535.76	0.978674
1537.31	-0.0100737
1538.87	0.759286
1540.42	0.490526
1541.97	0.448421
1543.52	0.161618
1545.07	1.11593
1546.63	1.26046
1548.18	1.02924
1549.73	0.835935
1551.28	1.35474
1552.83	1.10628
1554.38	1.1772
1555.93	1.02567
1557.48	1.13787
1559.03	0.991205
1560.57	0.958905
1562.12	1.30167
1563.67	1.51522
1565.22	0.871208
1566.77	1.30947
1568.31	1.07563
1569.86	1.58786
1571.41	1.68898
1572.95	1.52839
1574.5	2.15164
1576.05	1.15084
1577.59	2.42778
1579.14	1.53972
1580.68	1.51118
1582.23	2.09995
1583.77	2.24174
1585.31	1.80524
1586.86	2.13558
1588.4	2.16705
1589.95	2.51634
1591.49	2.86527
1593.03	2.72691
1594.57	2.32584
1596.11	1.99953
1597.66	2.77938
1599.2	2.47319
1600.74	2.73044
1602.28	2.85716
1603.82	3.28438
1605.36	2.71526
1606.9	3.04586
1608.44	2.1897
1609.98	2.58964
1611.52	2.3099
1613.06	2.91038
1614.6	2.38238
1616.13	2.62347
1617.67	2.26513
1619.21	1.70267
1620.75	1.79806
1622.28	2.26959
1623.82	2.49862
1625.36	2.2783
1626.89	2.24414
1628.43	2.07729
1629.96	2.48842
1631.5	2.61739
1633.04	2.35347
1634.57	1.9223
1636.11	2.40683
1637.64	2.51914
1639.17	3.30332
1640.71	2.96875
1642.24	3.06199
1643.77	2.72533
1645.31	3.52246
1646.84	2.99702
1648.37	3.34522
1649.9	3.56353
1651.43	2.94794
1652.96	3.61449
1654.5	3.05838
1656.03	3.70823
1657.56	3.37548
1659.09	3.19
1660.62	3.18795
1662.15	2.85088
1663.67	2.64214
1665.2	3.50418
1666.73	3.35038
1668.26	3.29059
1669.79	2.99334
1671.32	2.77211
1672.84	2.77352
1674.37	2.25989
1675.9	2.48256
1677.43	2.31749
1678.95	2.62936
1680.48	2.11215
1682	2.09065
1683.53	2.10546
1685.05	1.42307
1686.58	2.19069
1688.1	1.93164
1689.63	1.6184
1691.15	1.92828
1692.68	1.67064
1694.2	1.61433
1695.72	1.11909
1697.25	1.39143
1698.77	1.58996
1700.29	1.11245
1701.81	1.03609
1703.33	1.01378
1704.86	1.13646
1706.38	0.985458
1707.9	0.634379
1709.42	0.356452
1710.94	0.587204
1712.46	0.727096
1713.98	0.740123
1715.5	1.33244
1717.02	0.838457
1718.54	0.507754
1720.06	0.66503
1721.57	0.497501
1723.09	0.348943
1724.61	0.201775
1726.13	0.866623
1727.64	0.848507
1729.16	0.255745
1730.68	0.314922
1732.19	0.712873
1733.71	0.655833
1735.23	1.17203
1736.74	0.636197
1738.26	0.131838
1739.77	0.062994
1741.29	0.258696
1742.8	0.370931
1744.31	0.518673
1745.83	0.267062
1747.34	0.881595
1748.85	0.646212
1750.37	1.0341
1751.88	0.441139
1753.39	0.17085
1754.91	0.774622
1756.42	0.788645
1757.93	0.249993
1759.44	-0.108773
1760.95	0.449939
1762.46	-0.0272627
1763.97	-0.22016
1765.48	-0.123803
1766.99	0.128911
1768.5	0.268348
1770.01	0.0941572
1771.52	0.278703
1773.03	0.292851
1774.54	0.083107
1776.04	0.450954
1777.55	0.475765
1779.06	-0.0294456
1780.57	0.05935
1782.07	-0.21915
1783.58	0.33707
1785.09	-0.268831
1786.59	0.13136
1788.1	0.218894
1789.6	0.379063
1791.11	-0.13477
1792.61	0.327106
1794.12	0.100041
1795.62	-0.0528116
1797.13	-0.384106
1798.63	0.1473
1800.13	-0.036375
1801.64	0.265887
1803.14	-0.0514107
1804.64	0.102126
1806.15	0.37986
1807.65	0.372082
1809.15	-0.0168839
1810.65	-0.0152588
1812.15	-0.128354
1813.65	-0.191449
1815.16	0.0475693
1816.66	-0.162388
1818.15	0.0128202
1819.66	0.0112295
1821.16	0.112966
1822.65	-0.160502
1824.15	-0.212514
1825.65	0.230041
1827.15	-0.179064
1828.65	0.562329
1830.15	0.122941
1831.64	0.0246391
1833.14	0.367646
1834.64	0.454532
1836.14	0.115672
1837.63	0.018055
1839.13	0.273508
1840.62	0.158823
1842.12	0.374441
1843.62	0.265161
1845.11	0.120385
1846.61	0.00665855
1848.1	0.0933495
1849.6	-0.014286
1851.09	0.0328722
1852.58	-0.107253
1854.08	0.331012
1855.57	0.272216
1857.06	0.054059
1858.55	0.398573
1860.05	0.189264
1861.54	-0.0677471
1863.03	-0.139349
1864.52	0.154738
1866.01	0.21151
1867.5	0.49133
1869	0.0486774
1870.49	-0.159003
1871.98	-0.165669
1873.47	-0.152475
1874.96	0.0517521
1876.44	0.0384388
1877.93	0.0827579
1879.42	-0.250746
1880.91	0.29422
1882.4	-0.352931
1882.47	-0.386218
1883.96	-0.369452
1885.46	0.221547
1886.95	0.149185
1888.44	-0.0803585
1889.94	0.490837
1891.43	0.26256
1892.93	0.0883312
1894.42	0.159515
1895.91	0.21501
1897.4	-0.0241928
1898.89	-0.141809
1900.39	0.261394
1901.88	0.297528
1903.37	0.244738
1904.86	0.433739
1906.35	0.0830231
1907.84	-0.180569
1909.33	0.129503
1910.82	0.145347
1912.31	0.439713
1913.8	0.318341
1915.29	-0.097662
1916.77	0.127616
1918.26	0.161543
1919.75	0.108311
1921.24	-0.360719
1922.73	-0.188375
1924.21	0.175219
1925.7	0.418757
1927.19	0.0229301
1928.67	-0.129856
1930.16	-0.230743
1931.64	0.481449
1933.13	0.707161
1934.61	0.18643
1936.1	0.200617
1937.58	0.00597095
1939.07	0.0183983
1940.55	0.10015
1942.04	-0.127946
1943.52	-0.251213
1945	0.126612
1946.49	0.177071
1947.97	0.00323105
1949.45	0.138816
1950.93	-0.0539417
1952.42	0.113875
1953.9	0.349617
1955.38	-0.205545
1956.86	0.133401
1958.34	-0.00790501
1959.82	0.383511
1961.3	-0.0821838
1962.78	0.275466
1964.26	0.495565
1965.74	-0.278337
1967.22	-0.350424
1968.7	0.0387163
1970.18	-0.171556
1971.65	-0.00603771
1973.13	0.0738134
1974.61	0.0342503
1976.09	0.114234
1977.57	0.347591
1979.04	-0.16821
1980.52	0.0821056
1982	0.00892162
1983.47	0.207311
1984.95	-0.273916
1986.42	0.059432
1987.9	-0.183986
1989.37	-0.358975
1990.85	0.126951
1992.32	0.122777
1993.8	-0.0493708
1995.27	0.134382
1996.75	0.166445
1998.22	0.198467
1999.69	0.314422
2001.17	0.0752411
2002.64	-0.34979
2004.11	0.0852079
2005.58	0.267361
2007.05	0.248021
2008.53	0.43178
2010	-0.14119
2011.47	0.330257
2012.94	0.0105906
2014.41	-0.141132
2015.88	0.227963
2017.35	-0.0936985
2018.82	0.00429153
2020.29	0.336825
2021.76	0.517696
2023.23	0.128021
2024.7	0.326772
2026.16	0.308601
2027.63	0.543578
2029.1	0.277016
2030.57	0.146059
2032.03	0.435617
2033.5	0.323034
2034.97	0.378304
2036.44	-0.0539541
2037.9	0.252308
2039.37	0.407023
2040.83	0.326377
2042.3	0.43105
2043.76	0.603866
2045.23	-0.147658
2046.69	-0.00681782
2048.16	0.656705
2049.62	0.494778
2051.08	0.382182
2052.55	0.284711
2054.01	0.117785
2055.47	-0.135305
2056.94	0.604863
2058.4	0.501051
2059.86	0.194983
2061.32	0.310513
2062.79	0.393172
2064.25	-0.0784979
2065.71	0.528039
2067.17	0.209887
2068.63	0.380441
2070.09	0.38306
2071.55	0.183729
2073.01	0.809238
2074.47	-0.198805
2075.93	0.510341
2077.39	0.444479
2078.85	0.209785
2080.31	0.513464
2081.76	0.816468
2083.22	0.4958
2084.68	0.527859
2086.13	0.962799
2087.59	0.488695
2089.05	0.45152
2090.51	0.414146
2091.96	0.292787
2093.42	0.288921
2094.87	0.620198
2096.33	0.0957775
2097.78	0.676756
2099.24	0.737367
2100.69	0.797502
2102.15	0.657241
2103.6	1.05244
2105.06	0.730972
2106.51	1.26222
2107.96	0.760299
2109.42	1.25955
2110.87	1.14115
2112.32	0.588093
2113.77	0.816424
2115.23	1.44196
2116.68	0.901598
2118.13	1.74117
2119.58	1.45228
2121.03	1.73008
2122.48	1.42954
2123.93	1.84394
2125.38	1.03208
2126.83	1.82832
2128.28	1.49595
2129.73	1.90781
2131.18	1.95335
2132.63	1.5178
2134.08	1.90984
2135.53	2.23623
2136.97	1.95259
2138.42	1.93575
2139.87	1.85511
2141.32	2.48726
2142.76	2.17873
2144.21	2.43326
2145.66	2.55581
2147.1	2.54564
2148.55	2.74999
2150	2.37353
2151.44	1.91284
2152.89	3.09124
2154.33	2.76079
2155.78	2.71141
2157.22	2.96029
2158.66	2.69652
2160.11	2.94794
2161.55	2.77087
2163	2.41365
2164.44	3.20263
2165.88	2.96454
2167.32	2.44361
2168.77	3.36703
2170.21	2.65919
2171.65	2.61365
2173.09	3.59705
2174.53	3.29764
2175.97	2.86448
2177.41	3.34619
2178.85	3.23024
2180.29	3.19871
2181.73	2.91894
2183.17	3.32168
2184.61	3.15944
2186.05	2.79762
2187.49	3.0347
2188.93	2.85586
2190.37	2.62701
2191.81	2.71406
2193.24	2.86682
2194.68	2.43521
2196.12	1.83502
2197.56	2.39754
2198.99	2.87416
2200.43	2.33521
2201.87	1.63081
2203.3	2.23885
2204.74	2.15104
2206.17	1.8657
2207.61	2.29366
2209.04	2.19116
2210.48	1.823
2211.91	1.70218
2213.35	1.84508
2214.78	1.73983
2216.21	1.89951
2217.65	1.74689
2219.08	1.94221
2220.51	1.9736
2221.95	1.49425
2223.38	1.52516
2224.81	1.70265
2226.24	1.08804
2227.67	1.52472
2229.1	1.20353
2230.54	1.60395
2231.97	0.790547
2233.4	1.12507
2234.83	1.21445
2236.26	1.19061
2237.69	1.23393
2239.11	1.40989
2240.54	1.47387
2241.97	0.773411
2243.4	1.70544
2244.83	1.13739
2246.26	1.2863
2247.69	0.650587
2249.11	1.03993
2250.54	0.660641
2251.97	0.768295
2253.4	0.923568
2254.82	0.185227
2256.25	0.959441
2257.67	0.209983
2259.1	0.0642958
2260.53	0.684236
2261.95	0.917641
2263.38	0.941978
2264.8	0.706733
2266.23	0.877347
2267.65	0.819514
2269.07	0.20729
2270.5	0.407743
2271.92	0.168114
2273.34	0.872778
2274.77	0.437556
2276.19	0.621505
2277.61	0.659067
2279.03	0.207659
2280.46	0.391912
2281.88	0.18468
2283.3	0.107763
2284.72	0.43881
2286.14	0.101019
2287.56	0.449181
2288.98	0.0793705
2290.4	0.216254
2291.82	0.435283
2293.24	0.425684
2294.66	0.432422
2296.08	0.389974
2297.5	0.200051
2298.92	0.10831
2300.34	0.524755
2301.76	0.663147
2303.17	0.178563
2304.59	0.580032
2306.01	0.423469
2307.43	-0.0457983
2308.84	0.651042
2310.26	0.262494
2311.68	-0.0280542
2313.09	0.207687
2314.51	0.674423
2315.92	0.368391
2317.34	-0.151263
2318.75	0.351023
2320.17	0.210408
2321.58	0.448038
2323	0.0566711
2324.41	0.157928
2325.82	0.735221
2327.24	0.700024
2328.65	1.19135
2330.06	0.512828
2331.48	0.313387
2332.89	0.0988369
2334.3	0.230863
2335.71	0.149259
2337.12	-0.113657
2338.54	-0.541789
2339.95	-0.214785
2341.36	-0.431048
2342.77	0.599687
2344.18	0.152982
2345.59	0.166045
2347	-0.0662947
2348.41	0.127299
2349.82	-0.203218
2351.23	-0.468661
2352.64	0.245323
2354.04	0.483807
2355.45	0.623245
2356.86	0.126967
2358.27	0.0871344
2359.68	-0.179954
2361.08	0.251542
2362.49	-0.274487
2363.9	-0.103065
2365.3	0.488585
2366.71	0.109456
2368.12	-0.0422421
2369.52	0.0816336
2370.93	-0.099596
2372.33	-0.085887
2373.74	-0.183865
2375.14	0.249852
2376.55	0.425394
2377.95	-0.140069
2379.36	-0.176103
2380.76	0.0270205
2382.16	0.164099
2383.57	0.267844
2384.97	0.387044
2386.37	0.162859
2387.78	-0.0598917
2389.18	-0.145441
2390.58	0.200607
2391.98	0.260813
2393.38	0.322031
2394.79	0.304567
2396.19	0.256086
2397.59	0.208319
2398.99	0.240638
2400.39	-0.346084
2401.79	0.147809
2403.19	0.308096
2404.59	0.38856
2405.99	0.293468
2407.39	0.308508
2408.78	0.100641
2410.18	0.0511217
2411.58	0.0652294
2412.98	0.191007
2414.38	-0.647756
2415.77	0.414909
2417.17	0.164945
2418.57	-0.0999222
2419.97	0.364026
2421.36	0.194431
2422.76	0.0719442
2424.15	0.266006
2425.55	0.523547
2426.95	-0.264334
2428.34	0.37509
2429.74	0.286418
2431.13	0.293637
2432.52	0.396285
2433.92	-0.0891237
2435.31	0.075326
2436.71	0.476631
2438.1	0.25668
2439.49	0.130692
2440.89	-0.0120993
2442.28	0.0509872
2443.67	0.0978432
2445.06	-0.141038
2446.46	0.0164843
2447.85	-0.0639925
2449.24	0.172384
2450.63	0.266277
2452.02	-0.367433
2453.41	0.645652
2454.8	0.488502
2456.19	0.221428
2457.58	0.160384
2458.97	0.194098
2460.36	0.163952
2461.75	-0.151622
2463.14	0.448885
2464.53	0.621725
2465.92	0.383461
2467.31	0.0505753
2468.69	-0.0611782
2470.08	0.331635
2471.47	-0.127614
2472.86	-0.130197
2474.24	-0.133563
2475.63	0.0983534
2477.02	0.298058
2478.4	0.151855
2479.79	0.178661
2481.17	0.158558
2482.56	-0.0182571
2483.94	-0.163951
2485.33	0.00252151
2486.72	0.261235
2488.1	-0.480529
2489.48	-0.0679369
2490.87	-0.139095
2492.25	0.0702333
2493.64	-0.139095
2495.02	0.134264
2496.4	0.00545216
2497.79	0.141054
2499.17	0.323204
2500.55	-0.19128
2501.93	0.298818
2503.31	-0.031353
2504.69	0.100936
2506.08	0.0011425
2507.46	0.316853
2508.84	-0.198235
2510.22	0.317179
2511.6	-0.165066
2512.98	0.166815
2514.36	0.499036
2515.74	0.127624
2517.12	-0.104828
2518.5	0.198659
2519.88	-0.185632
2521.25	-0.325414
2522.63	0.251707
2524.01	-0.103249
2525.39	0.0445194
2526.77	-0.0975933
2528.14	-0.330398
2529.52	0.0616407
2530.9	-0.578672
2532.27	0.105058
2533.65	-0.04566
2535.03	0.0474854
2536.4	0.216564
2537.78	-0.0707893
2539.15	-0.0249033
2540.53	0.202278
2541.9	0.565492
2543.28	-0.118188
2544.65	0.382541
2546.03	0.383874
2547.4	0.250003
2548.77	0.0866642
2550.15	0.014432
2551.52	0.0782785
2552.89	0.520593
2554.27	0.460953
2555.64	0.0210333
2557.01	-0.16143
2558.38	0.444538
2559.75	0.398584
2561.12	0.0349245
2562.5	0.111518
2563.87	0.476631
2565.24	0.43304
2566.61	-0.565021
2567.98	0.0888348
2569.35	-0.151444
2570.72	-0.164415
2572.09	-0.0106239
2573.46	-0.296342
2574.83	0.312409
2576.19	-0.139984
2577.56	0.0291166
2578.93	0.0160427
2580.3	0.230048
2581.67	0.382949
2583.04	0.505091
2584.4	0.217614
2585.77	-0.0850344
2587.14	-0.0692263
2588.5	-0.0229273
2589.87	0.326571
2591.23	0.312204
2592.6	0.221586
2593.97	0.387669
2595.33	0.234534
2596.7	0.0955381
2598.06	0.288641
2599.43	-0.0632086
2600.79	0.280507
2602.15	0.322302
2603.52	0.0930414
2604.88	-0.497602
2606.25	0.677285
2607.61	0.0414944
2608.97	-0.323326
2610.33	0.500958
2611.7	0.329288
2613.06	0.0964699
2614.42	-0.00154495
2615.78	0.00536633
2617.15	-0.00252724
2618.51	0.214853
2619.87	0.312944
2621.23	-0.1715
2622.59	0.346433
2623.95	-0.046978
2625.31	0.455437
2626.67	-0.191365
2628.03	0.250203
2629.39	0.184505
2630.75	0.0442677
2632.1	0.186584
2633.46	0.120642
2634.82	-0.167878
2636.18	0.211388
2637.54	-0.0768223
2638.89	0.30176
2640.25	0.073288
2641.61	-0.110228
2642.97	0.10568
2644.32	-0.0476255
2645.68	0.00573826
2647.03	0.0733461
2648.39	0.0959234
2649.75	0.29418
2651.1	0.109047
2652.46	0.173589
2653.81	0.311546
2655.17	0.0395823
2656.52	-0.0257463
2657.88	0.115123
2659.23	0.242141
2660.58	-0.0984211
2661.94	0.394235
2663.29	0.228436
2664.64	0.207926
2666	-0.148857
2667.35	0.121063
2668.7	0.346723
2670.05	0.0630226
2671.4	0.100154
2672.76	0.254127
2674.11	0.21978
2675.46	-0.220342
2676.81	0.123971
2678.16	0.135105
2679.51	0.147091
2680.86	0.000673294
2682.21	0.246957
2683.56	0.581553
2684.91	0.482216
2686.26	0.0351143
2687.61	0.676177
2688.96	0.169391
2690.3	0.284961
2691.65	0.340464
2693	0.0750599
2694.35	0.113341
2695.7	0.180321
2697.04	0.465132
2698.39	0.0559902
2699.74	0.45962
2701.08	0.590009
2702.43	0.46139
2703.77	0.116491
2705.12	0.395235
2706.47	0.427728
2707.81	0.503491
2709.16	0.0998135
2710.5	0.232714
2711.85	0.249184
2713.19	0.0184669
2714.53	0.310801
2715.88	0.312435
2717.22	0.662965
2718.57	0.271453
2719.91	0.388633
2721.25	0.898292
2722.59	0.214018
2723.94	0.35878
2725.28	0.634063
2726.62	0.501348
2727.96	0.237298
2729.3	0.17675
2730.65	0.610758
2731.99	0.288068
2733.33	0.343751
2734.67	0.574144
2736.01	0.412004
2737.35	0.220936
2738.69	0.204373
2740.03	0.652893
2741.37	0.548254
2742.71	0.399309
2744.05	0.714712
2745.38	0.346373
2746.72	0.224697
2748.06	0.393196
2749.4	0.314921
2750.74	0.555975
2752.07	0.275192
2753.41	0.284705
2754.75	0.00461769
2756.09	0.333158
2757.42	0.516866
2758.76	0.121694
2760.09	0.103399
2761.43	0.0277281
2762.77	-0.0763702
2764.1	0.051383
2765.44	0.208054
2766.77	0.523351
2768.11	0.432536
2769.44	0.658442
2770.77	0.159903
2772.11	0.0503941
2773.44	0.343942
2774.77	0.218252
2776.11	0.121503
2777.44	0.0396824
2778.77	0.0160866
2780.11	0.165517
2781.44	-0.0152273
2782.77	-0.238688
2784.1	-0.39022
2785.43	0.0603609
2786.77	0.0521793
2788.1	-0.127259
2789.43	-0.148326
2790.76	-0.0969248
2792.09	0.0696507
2793.42	0.193758
2794.75	0.103479
2796.08	-0.00140381
2797.41	0.107436
2798.74	0.215576
2800.07	0.251768
2801.4	0.0165796
2802.72	0.194889
2804.05	-0.0833035
2805.38	0.265016
2806.71	0.270626
2808.04	-0.165406
2809.36	0.00986004
2810.69	-0.0139704
2812.02	-0.108114
2813.34	0.536563
2814.67	-0.122095
2816	0.100004
2817.32	0.195704
2818.65	-0.00558853
2819.97	0.473479
2821.3	0.413457
2822.62	0.437718
2823.95	0.107048
2825.27	0.597678
2826.6	0.578291
2827.92	0.672746
2829.25	0.300636
2830.57	0.410409
2831.89	0.322239
2833.22	0.432188
2834.54	0.867317
2835.86	1.04706
2837.18	1.07047
2838.51	1.13578
2839.83	1.13009
2841.15	1.53452
2842.47	2.02404
2843.79	2.07606
2845.11	2.38334
2846.43	2.74792
2847.76	3.01407
2849.08	3.25203
2850.4	2.91012
2851.72	3.21775
2853.04	3.25615
2854.36	3.87339
2855.67	3.4588
2856.99	3.86364
2858.31	4.55092
2859.63	4.4895
2860.95	4.48433
2862.27	3.98463
2863.58	4.55731
2864.9	5.14344
2866.22	4.75586
2867.54	4.83422
2868.85	5.58994
2870.17	5.65521
2871.49	5.57975
2872.8	6.08178
2874.12	6.54028
2875.43	5.89829
2876.75	6.74762
2878.07	6.08921
2879.38	6.83743
2880.7	6.61541
2882.01	6.88651
2883.32	6.55507
2884.64	7.13792
2885.95	7.06165
2887.27	7.09784
2888.58	7.56837
2889.89	6.94331
2891.21	7.39711
2892.52	8.10185
2893.83	7.36274
2895.14	7.95507
2896.46	8.04427
2897.77	7.70127
2899.08	8.00359
2900.39	8.65683
2901.7	8.44344
2903.01	9.41941
2904.32	9.15065
2905.63	9.74956
2906.94	9.52413
2908.25	9.91549
2909.56	9.9586
2910.87	10.3246
2912.18	11.6846
2913.49	10.8178
2914.8	10.7746
2916.11	11.5684
2917.42	11.5895
2918.72	11.8747
2920.03	11.9635
2921.34	12.2352
2922.65	12.1454
2923.95	12.8687
2925.26	12.8253
2926.57	13.2024
2927.88	12.9226
2929.18	13.7186
2930.49	13.8985
2931.79	13.9936
2933.1	13.8646
2934.4	14.1829
2935.71	14.096
2937.01	13.4923
2938.32	13.2385
2939.62	13.2785
2940.93	13.1239
2942.23	12.8729
2943.54	11.436
2944.84	12.2655
2946.14	11.1257
2947.45	11.735
2948.75	11.1128
2950.05	10.7683
2951.35	10.8268
2952.66	9.79002
2953.96	9.52116
2955.26	9.4617
2956.56	9.66951
2957.86	9.4186
2959.16	9.01788
2960.46	8.99944
2961.77	8.5497
2963.07	8.26899
2964.37	7.57999
2965.66	8.12424
2966.96	7.80928
2968.26	7.717
2969.56	6.77979
2970.86	6.8265
2972.16	6.92996
2973.46	7.16069
2974.76	7.05375
2976.06	6.5939
2977.35	5.82232
2978.65	6.18883
2979.95	5.93333
2981.25	5.69014
2982.54	5.82607
2983.84	4.99225
2985.14	5.88928
2986.43	5.0035
2987.73	4.61185
2989.02	4.12326
2990.32	4.71722
2991.62	4.24249
2992.91	3.99126
2994.21	3.78055
2995.5	3.41393
2996.8	2.85006
2998.09	3.01617
2999.38	3.18247
3000.68	2.5922
3001.97	2.47974
3003.26	2.05967
3004.56	2.14436
3005.85	1.58455
3007.14	1.50042
3008.43	1.23354
3009.73	1.34349
3011.02	1.56422
3012.31	1.43508
3013.6	1.34802
3014.89	1.30346
3016.19	1.00911
3017.48	0.730015
3018.77	1.03635
3020.06	0.341206
3021.35	0.758377
3022.64	0.868528
3023.93	0.644356
3025.22	0.960447
3026.5	0.541619
3027.79	0.470118
3029.08	0.247988
3030.37	0.483896
3031.66	0.458937
3032.95	0.476746
3034.24	0.108607
3035.52	0.567989
3036.81	0.225859
3038.1	0.516006
3039.39	0.390656
3040.67	0.0989208
3041.96	0.0540504
3043.25	0.584965
3044.53	0.157297
3045.82	0.183788
3047.1	0.363028
3048.39	0.107892
3049.67	0.319521
3050.96	-0.053792
3052.24	0.542818
3053.53	0.30721
3054.81	0.234769
3056.1	0.215856
3057.38	0.468485
3058.67	0.488425
3059.95	0.399175
3061.23	0.215275
3062.52	0.44079
3063.8	0.54542
3065.08	0.284829
3066.36	0.515404
3067.65	0.244239
3068.93	0.367944
3070.21	0.246723
3071.49	0.328694
3072.77	-0.202519
3074.05	0.556768
3075.33	0.227449
3076.61	0.550038
3077.89	0.180614
3079.17	0.233436
3080.45	0.00316048
3081.73	0.358093
3083.01	0.239795
3084.29	-0.0268555
3085.57	0.222349
3086.85	-0.0580664
3088.13	-0.0676661
3089.41	0.166418
3090.68	-0.264838
3091.96	0.0637913
3093.24	-0.380537
3094.52	0.30135
3095.79	0.264849
3097.07	-0.0289402
3098.35	0.124742
3099.62	-0.0739298
3100.9	-0.123417
3102.18	-0.104939
3103.45	-0.113091
3104.73	0.177253
3106	0.251915
3107.28	-0.1459
3108.55	-0.163519
3109.83	-0.098629
3111.1	-0.16789
3112.38	0.562956
3113.65	-0.046473
3114.93	-0.100416
3116.2	0.238568
3117.47	0.5363
3118.75	0.385439
3120.02	-0.0783234
3121.29	0.325016
3122.57	0.117773
3123.84	0.466068
3125.11	0.421784
3126.38	0.337594
3127.65	0.362547
3128.92	0.253015
3130.2	0.725562
3131.47	0.400637
3132.74	0.143593
3134.01	0.291792
3135.28	0.601532
3136.55	0.546225
3137.82	0.638988
3139.09	0.852673
3140.36	0.783377
3141.63	0.647235
3142.9	0.417852
3144.17	0.404419
3145.43	0.5931
3146.7	0.2731
3147.97	0.945867
3149.24	0.815318
