200.554	0.0310583
202.369	0.0374117
204.183	0.0450897
205.999	-0.116393
207.813	-0.277308
209.626	0.0719347
211.439	0.395721
213.253	0.718103
215.065	-0.0279865
216.877	-0.0946989
218.688	0.444412
220.5	-0.347528
222.312	0.120327
224.123	-0.0882301
225.933	0.259921
227.742	-0.164978
229.552	-0.106782
231.361	0.457854
233.171	0.10521
234.98	-0.487698
236.787	0.174622
238.595	-0.125238
240.402	0.131812
242.209	0.294822
244.015	0.218136
245.822	-0.220599
247.627	0.015029
249.435	0.393283
251.24	-0.0280838
253.045	0.537872
254.849	0.329923
256.653	-0.432511
258.457	0.132133
260.26	0.457209
262.063	0.567408
263.866	0.221663
265.668	0.0456467
267.47	0.159217
269.271	0.682462
271.073	0.168503
272.873	0.0392342
274.674	-0.0189123
276.474	-0.102566
278.274	0.125475
280.073	-0.00974083
281.872	-0.122537
283.671	0.556777
285.47	-0.0156698
287.268	0.324405
289.065	-0.0553198
290.863	0.309085
292.66	0.339202
294.456	0.442693
296.253	0.0694914
298.049	0.438607
299.844	0.0196457
301.637	0.245713
303.432	-0.173722
305.227	-0.0211296
307.021	0.154397
308.815	-0.409301
310.609	-0.352324
312.402	0.229784
314.195	-0.0677433
315.987	0.422428
317.777	0.247705
319.569	0.312739
321.36	0.784254
323.151	0.16013
324.942	-0.17786
326.733	-0.0862865
328.521	0.745918
330.31	0.646186
332.1	-0.148408
333.889	-0.131693
335.677	0.242052
337.464	0.517956
339.252	0.050189
341.039	-0.0121422
342.826	0.116132
344.611	0.722204
346.398	0.253627
348.184	0.383052
349.97	0.345878
351.754	-0.00148487
353.539	0.199653
355.324	0.0180511
357.106	0.336082
358.89	0.247463
360.674	-0.0802221
362.455	0.686326
364.239	-0.403546
366.021	-0.114371
367.804	0.149866
369.584	0.270554
371.366	0.0823126
373.145	0.154103
374.926	0.461746
376.707	0.273155
378.485	0.179882
380.265	-0.383365
382.045	0.114665
383.822	0.401553
385.601	0.313315
387.378	0.155919
389.156	0.258173
390.934	0.431849
392.71	0.512387
394.487	0.499662
396.262	-0.123266
398.038	0.263795
399.813	0.0870533
401.588	0.614577
403.362	-0.549621
405.137	-0.0937996
406.912	-0.0614204
408.685	-0.334794
410.459	0.659219
412.23	0.291774
414.004	-0.239325
415.775	0.520864
417.548	0.108678
419.318	0.494946
421.089	0.153997
422.86	0.540445
424.63	0.175052
426.401	0.560032
428.17	-0.088706
429.94	-0.174392
431.708	-0.166168
433.478	0.828112
435.245	0.508445
437.012	0.517347
438.781	-0.0846128
440.547	-0.359298
442.315	-0.307256
444.081	0.0944128
445.846	-0.0449266
447.613	0.563803
449.378	0.773549
451.142	0.539194
452.908	0.3056
454.672	0.725702
456.435	0.679032
458.2	-0.0430031
459.963	0.539276
461.725	-0.0179644
463.489	0.0777378
465.251	0.477729
467.012	0.787521
468.775	0.147156
470.536	0.368467
472.296	0.776748
474.056	-0.421796
475.817	0.100581
477.576	0.341662
479.335	0.674218
481.094	0.912636
482.854	0.103183
484.612	0.878695
486.37	0.561466
488.127	0.10624
489.886	0.305513
491.642	1.3465
493.398	0.333785
495.154	0.137969
496.91	1.01856
498.667	0.40089
500.422	1.02462
502.176	0.498635
503.93	0.135379
505.684	0.640196
507.438	0.509296
509.191	0.400313
510.946	0.148561
512.698	-0.0106173
514.45	0.581774
516.202	0.466938
517.954	0.303981
519.705	0.821898
521.456	0.328321
523.206	0.351422
524.956	0.468196
526.706	0.0922174
528.456	0.232467
530.207	0.536501
531.956	0.535336
533.704	0.55679
535.452	0.717404
537.2	0.315543
538.947	0.963629
540.694	0.326646
542.441	0.272663
544.188	0.0323706
545.934	0.280569
547.68	0.876456
549.425	0.474465
551.17	0.675618
552.915	0.645223
554.659	0.384046
556.403	0.423736
558.145	0.394557
559.889	0.227685
561.632	0.452952
563.375	0.770417
565.117	0.0537109
566.859	0.716744
568.601	0.186029
570.342	0.643571
572.083	0.689214
573.824	0.530023
575.565	0.556079
577.303	0.83617
579.043	0.68158
580.782	0.389765
582.521	0.350502
584.26	0.425616
585.998	0.361804
587.734	0.641814
589.472	-0.528695
591.21	-0.22768
592.947	-0.479303
594.684	-0.293918
596.418	0.28261
598.154	0.652025
599.89	0.376887
601.626	-0.0830402
603.361	-0.0150156
605.094	-0.109285
606.828	0.438713
608.562	0.38831
610.296	0.750948
612.027	0.219115
613.761	-0.150974
615.493	0.121538
617.224	0.760548
618.956	0.024477
620.688	0.501209
622.419	0.747462
624.149	0.581112
625.879	0.300804
627.61	0.752418
629.338	0.452462
631.068	0.634052
632.797	0.726298
634.525	1.09343
636.254	0.524375
637.98	0.364437
639.708	0.29328
641.436	-0.122674
643.162	0.553659
644.889	0.65848
646.614	0.240305
648.34	0.210976
650.067	0.502684
651.791	0.343466
653.516	0.187765
655.239	0.330599
656.964	0.38465
658.687	0.553594
660.411	0.334513
662.133	0.615956
663.857	0.575662
665.58	1.67617
667.301	0.374236
669.024	0.695024
670.744	0.856571
672.464	0.722563
674.186	0.544896
675.905	0.850259
677.626	0.9279
679.345	0.155916
681.065	0.990824
682.783	0.582944
684.503	0.310661
686.22	0.86532
687.939	0.935087
689.656	0.934724
691.372	0.265626
693.09	0.517321
694.806	0.26156
696.523	1.45567
698.239	0.530128
699.953	1.35285
701.67	0.931746
703.384	0.900935
705.098	0.938379
706.813	1.38833
708.526	1.2639
710.239	1.68915
711.954	1.2434
713.666	1.20981
715.378	0.604795
717.091	1.18799
718.802	1.99833
720.513	0.551189
722.226	1.13325
723.936	1.4186
725.646	1.27141
727.355	0.897067
729.067	0.999478
730.776	1.35063
732.484	1.24779
734.192	1.48431
735.902	0.816361
737.61	1.09839
739.317	1.44822
741.024	0.738982
742.731	1.74381
744.439	0.497469
746.145	0.7613
747.851	1.72359
749.556	1.06727
751.262	1.10952
752.966	0.950546
754.673	1.17525
756.377	1.24392
758.081	0.998845
759.784	1.11531
761.487	1.50349
763.19	1.464
764.892	1.2209
766.594	1.54126
768.296	1.02376
770	1.25008
771.701	1.67811
773.402	0.883713
775.102	1.69439
776.803	1.5785
778.503	1.41861
780.202	1.8255
781.901	1.4418
783.6	2.28004
785.299	0.853866
786.997	1.2362
788.695	1.79657
790.393	1.90094
792.09	1.91216
793.787	1.35737
795.484	1.36733
797.18	1.80632
798.877	1.43547
800.572	2.59727
802.268	2.25198
803.963	2.04254
805.658	1.63076
807.35	1.37582
809.044	1.56916
810.738	1.51429
812.432	1.48106
814.125	2.2539
815.818	2.30886
817.51	1.60322
819.202	2.19499
820.894	1.73645
822.584	1.76988
824.275	1.80401
825.966	1.72806
827.657	1.56511
829.347	1.02624
831.037	1.75959
832.725	1.82754
834.414	1.8975
836.103	2.23613
837.792	1.57056
839.481	1.72933
841.167	1.9314
842.854	2.19932
844.542	1.5507
846.229	2.19886
847.914	1.73117
849.6	1.42194
851.287	1.80874
852.973	0.920347
854.656	1.98313
856.341	2.17189
858.026	1.88769
859.711	1.75886
861.393	1.38039
863.077	1.04504
864.761	1.29421
866.442	1.42997
868.125	1.3397
869.808	0.865542
871.489	0.86463
873.171	0.570235
874.85	1.20081
876.532	0.951428
878.213	1.26623
879.892	1.58101
881.572	0.969891
883.251	1.62226
884.931	1.5963
886.61	1.07248
888.287	0.727994
889.966	0.810832
891.643	1.32044
893.321	1.15251
894.997	0.713784
896.675	1.42126
898.352	1.071
900.028	1.77483
901.704	1.5801
903.379	0.982577
905.055	1.32492
906.729	0.974761
908.404	1.42853
910.077	1.36995
911.75	0.77844
913.425	1.54432
915.097	1.22114
916.771	1.16476
918.443	1.28571
920.116	0.875157
921.787	1.54979
923.46	1.11921
925.13	1.50807
926.8	1.39043
928.472	0.833017
930.141	1.35826
931.813	1.55297
933.481	1.15224
935.15	1.28114
936.82	1.43247
938.488	1.54051
940.156	1.91439
941.825	0.701193
943.492	1.62851
945.158	1.12142
946.827	1.23114
948.493	1.09631
950.158	1.24664
951.824	1.4399
953.491	1.23615
955.156	0.460691
956.82	1.14318
958.486	0.0862207
960.15	1.1496
961.814	0.846205
963.477	1.02851
965.142	0.944008
966.804	0.790573
968.467	0.900064
970.129	0.675811
971.79	0.826906
973.454	1.53126
975.115	0.777397
976.776	0.688599
978.436	0.733816
980.096	0.392353
981.756	0.0503035
983.417	1.2234
985.077	0.490953
986.736	0.354435
988.394	0.725282
990.052	0.630328
991.71	0.7338
993.368	0.859092
995.025	0.520779
996.682	0.227071
998.341	1.1463
999.998	1.13876
1001.65	0.888612
1003.31	1.01248
1004.97	0.718068
1006.62	0.489889
1008.28	0.85502
1009.93	0.627469
1011.58	0.707616
1013.24	0.459337
1014.89	0.715455
1016.54	0.424385
1018.2	0.702942
1019.85	0.763272
1021.5	1.13059
1023.16	0.842999
1024.81	0.0755997
1026.46	-0.144823
1028.11	0.770957
1029.76	0.921271
1031.41	0.808288
1033.06	1.21781
1034.71	0.556328
1036.36	0.91912
1038.01	1.10635
1039.66	0.749075
1041.31	1.13247
1042.95	0.951455
1044.6	1.48924
1046.25	0.703599
1047.9	0.853841
1049.54	0.875262
1051.19	0.550299
1052.84	0.334559
1054.48	0.901319
1056.13	0.620653
1057.77	0.622203
1059.42	0.427619
1061.06	0.667295
1062.71	0.406152
1064.35	0.774738
1066	0.207483
1067.64	0.574054
1069.28	1.00468
1070.93	0.739462
1072.57	1.12556
1074.21	0.513725
1075.85	0.40215
1077.49	0.356871
1079.13	0.551222
1080.78	0.832952
1082.42	0.832724
1084.06	1.26528
1085.7	-0.0813541
1087.34	0.737864
1088.97	0.406714
1090.61	0.399014
1092.25	0.00121784
1093.89	-0.201885
1095.53	0.480096
1097.17	0.385619
1098.8	0.206358
1100.44	0.416354
1102.08	0.412674
1103.71	0.539641
1105.35	1.09791
1106.99	-0.0640354
1108.62	0.945961
1110.26	0.277554
1111.89	0.338867
1113.52	0.506098
1115.16	0.951077
1116.79	0.129287
1118.43	0.40202
1120.06	0.0109072
1121.69	0.327691
1123.32	0.345482
1124.96	0.877597
1126.59	0.233812
1128.22	0.318088
1129.85	0.167768
1131.48	0.424183
1133.11	-0.00327492
1134.75	0.0608425
1136.37	-0.0893478
1138	-0.368584
1139.63	0.397942
1141.26	0.778652
1142.89	0.731774
1144.52	0.301202
1146.15	-0.107018
1147.78	0.636667
1149.4	0.336754
1151.03	-0.0690928
1152.66	0.164076
1154.28	0.716146
1155.91	0.394944
1157.54	0.478079
1159.16	0.433899
1160.79	0.36926
1162.41	0.263127
1164.04	-0.224818
1165.66	-0.776142
1167.29	0.13936
1168.91	0.309706
1170.53	0.265919
1172.16	0.411622
1173.78	0.215889
1175.4	0.443635
1177.02	0.267831
1178.65	-0.0981302
1180.27	-0.0396099
1181.89	-0.234227
1183.51	-0.216653
1185.13	-0.0934658
1186.75	0.4299
1188.37	0.0649071
1189.99	0.183606
1191.61	-0.457464
1193.23	-0.509505
1194.85	0.529584
1196.47	0.16126
1198.08	0.527555
1199.7	0.392679
1201.32	0.302008
1202.94	0.00508213
1204.55	-0.0805817
1206.17	-0.185244
1207.79	0.316207
1209.4	0.421414
1211.02	0.358976
1212.63	0.190782
1214.25	0.750059
1215.86	0.0156517
1217.48	0.466616
1219.09	-0.0815992
1220.71	0.139282
1222.32	0.21518
1223.93	0.229895
1225.54	0.349437
1227.16	0.594323
1228.77	0.881586
1230.38	0.260073
1231.99	0.384116
1233.6	0.364513
1235.22	0.780037
1236.83	0.865985
1238.44	1.24232
1240.05	1.16452
1241.66	1.1282
1243.26	0.781191
1244.87	0.55749
1246.48	1.07778
1248.09	0.831522
1249.7	0.294962
1251.31	1.28913
1252.92	0.773294
1254.52	0.982148
1256.13	1.00585
1257.74	1.32034
1259.34	0.663489
1260.95	1.04204
1262.55	1.442
1264.16	0.454288
1265.76	1.08189
1267.37	0.527661
1268.97	0.490652
1270.58	0.867402
1272.18	1.05661
1273.78	1.12045
1275.39	1.07969
1276.99	0.81016
1278.59	0.7472
1280.2	0.828683
1281.8	1.32375
1283.4	0.928969
1285	0.617743
1286.6	1.17579
1288.2	1.30048
1289.8	1.13668
1291.4	1.22133
1293	1.47114
1294.6	1.16239
1296.2	1.03843
1297.8	1.57363
1299.4	0.971997
1301	0.57595
1302.6	1.10633
1304.19	1.32621
1305.79	1.11328
1307.39	1.43425
1308.99	0.749091
1310.58	1.31541
1312.18	1.51246
1313.77	1.36217
1315.37	1.1314
1316.96	1.47353
1318.56	0.979206
1320.15	1.50477
1321.75	2.11004
1323.34	1.18654
1324.94	1.97064
1326.53	1.12758
1328.12	0.99574
1329.72	0.844557
1331.31	0.412074
1332.9	1.41692
1334.49	1.45315
1336.08	1.36977
1337.67	1.02478
1339.27	1.12294
1340.86	1.018
1342.45	1.17285
1344.04	0.742702
1345.63	0.874699
1347.22	1.08678
1348.8	0.759208
1350.39	0.494482
1351.98	0.352348
1353.57	1.17175
1355.16	0.832526
1356.75	0.69361
1358.33	0.73415
1359.92	1.1532
1361.51	0.572984
1363.09	0.591063
1364.68	0.648702
1366.27	0.706517
1367.85	0.824745
1369.44	0.446334
1371.02	0.78583
1372.61	0.688675
1374.19	0.831298
1375.77	0.556651
1377.36	0.699922
1378.94	0.982017
1380.52	0.626443
1382.11	1.02572
1383.69	0.250355
1385.27	0.667345
1386.85	0.785563
1388.43	0.407402
1390.02	0.367597
1391.6	0.507182
1393.18	1.02428
1394.76	0.39115
1396.34	0.630577
1397.92	0.730472
1399.5	0.551995
1401.08	0.511477
1402.65	0.747616
1404.23	0.726315
1405.81	0.942796
1407.39	0.626226
1408.97	0.290893
1410.54	0.687016
1412.12	0.648431
1413.7	0.510636
1415.27	0.786485
1416.85	0.666922
1418.43	0.389497
1420	0.723339
1421.58	0.171798
1423.15	0.901474
1424.73	0.825385
1426.3	0.888192
1427.87	0.813682
1429.45	0.817628
1431.02	1.31278
1432.6	0.665415
1434.17	1.07982
1435.74	1.27728
1437.31	1.4355
1438.89	1.0833
1440.46	1.5969
1442.03	0.774924
1443.6	1.48654
1445.17	1.13723
1446.74	1.73152
1448.31	1.32352
1449.88	1.19096
1451.45	2.08126
1453.02	1.4384
1454.59	1.05131
1456.16	0.860751
1457.72	1.20086
1459.29	1.44147
1460.86	1.7985
1462.43	1.20928
1463.99	1.30723
1465.56	1.22722
1467.13	0.871989
1468.69	0.811976
1470.26	1.28267
1471.83	0.792814
1473.39	0.617981
1474.95	0.40467
1476.52	1.03486
1478.08	1.11607
1479.65	0.805157
1481.21	1.02341
1482.78	0.496863
1484.34	0.910833
1485.9	0.403599
1487.47	0.757623
1489.03	0.934004
1490.59	0.61936
1492.15	-0.0487089
1493.71	1.15752
1495.27	0.623309
1496.84	0.576514
1498.39	0.374007
1499.96	0.541748
1501.52	0.826524
1503.07	1.34449
1504.64	0.68046
1506.19	0.540491
1507.75	-0.218607
1509.31	0.529714
1510.87	0.387776
1512.43	0.361058
1513.98	0.218619
1515.54	0.499566
1517.1	-0.0834866
1518.65	0.00659943
1520.21	0.269373
1521.77	0.283011
1523.32	0.716778
1524.88	0.671581
1526.44	0.778087
1527.99	0.445571
1529.54	0.341641
1531.1	0.257006
1532.65	0.116189
1534.21	0.222663
1535.76	0.216311
1537.31	0.248563
1538.87	0.432334
1540.42	0.691485
1541.97	0.742999
1543.52	0.210938
1545.07	0.488155
1546.63	0.332655
1548.18	0.0835276
1549.73	0.584582
1551.28	0.429465
1552.83	0.574413
1554.38	0.458301
1555.93	0.380956
1557.48	0.435908
1559.03	0.0633736
1560.57	0.625383
1562.12	0.311912
1563.67	0.37248
1565.22	0.750741
1566.77	0.494676
1568.31	0.518298
1569.86	0.840232
1571.41	0.881866
1572.95	0.97925
1574.5	0.759167
1576.05	0.875127
1577.59	0.729926
1579.14	0.510401
1580.68	0.683492
1582.23	0.950716
1583.77	0.63969
1585.31	1.18879
1586.86	0.785235
1588.4	0.549782
1589.95	1.00629
1591.49	0.882453
1593.03	0.627031
1594.57	0.895674
1596.11	1.16453
1597.66	1.43394
1599.2	0.95417
1600.74	1.14994
1602.28	0.651845
1603.82	0.998243
1605.36	0.855869
1606.9	0.655772
1608.44	1.31849
1609.98	1.26491
1611.52	1.17165
1613.06	1.26447
1614.6	0.905596
1616.13	0.75314
1617.67	0.657548
1619.21	0.825371
1620.75	1.01311
1622.28	0.939821
1623.82	0.885993
1625.36	0.869605
1626.89	0.908661
1628.43	1.00265
1629.96	0.927032
1631.5	0.719751
1633.04	0.829906
1634.57	0.99622
1636.11	0.845919
1637.64	1.3866
1639.17	1.16307
1640.71	0.958331
1642.24	1.25615
1643.77	1.18029
1645.31	0.861526
1646.84	1.15601
1648.37	0.855229
1649.9	1.40936
1651.43	1.7039
1652.96	1.16469
1654.5	1.25731
1656.03	0.961199
1657.56	1.48043
1659.09	1.05397
1660.62	1.20058
1662.15	1.14221
1663.67	1.1014
1665.2	1.3926
1666.73	0.927066
1668.26	1.32996
1669.79	1.0702
1671.32	1.05152
1672.84	1.19961
1674.37	0.777153
1675.9	0.483541
1677.43	0.6127
1678.95	0.501676
1680.48	0.297946
1682	0.755281
1683.53	1.08322
1685.05	0.695179
1686.58	0.583012
1688.1	0.654648
1689.63	0.561678
1691.15	0.597175
1692.68	0.504595
1694.2	-0.0269318
1695.72	-0.0096283
1697.25	0.482493
1698.77	0.316375
1700.29	0.369073
1701.81	0.147691
1703.33	0.0536985
1704.86	0.032218
1706.38	0.0831718
1707.9	0.388294
1709.42	1.21953
1710.94	0.0895653
1712.46	0.230867
1713.98	0.281491
1715.5	0.332076
1717.02	-0.0153971
1718.54	0.0351677
1720.06	-0.0408115
1721.57	0.0458632
1723.09	-0.137535
1724.61	0.148572
1726.13	0.0573292
1727.64	0.291286
1729.16	0.525918
1730.68	0.399897
1732.19	0.25657
1733.71	0.431051
1735.23	0.533204
1736.74	-0.0441523
1738.26	0.172264
1739.77	0.486259
1741.29	0.210291
1742.8	0.179812
1744.31	0.158471
1745.83	0.252305
1747.34	0.153131
1748.85	0.520267
1750.37	-0.0289021
1751.88	0.0685034
1753.39	0.393069
1754.91	0.307368
1756.42	-0.189901
1757.93	0.064642
1759.44	0.156727
1760.95	0.47019
1762.46	0.19287
1763.97	0.0131683
1765.48	-0.179777
1766.99	0.226929
1768.5	0.143289
1770.01	0.151417
1771.52	0.275908
1773.03	-0.0166368
1774.54	0.231766
1776.04	0.0607548
1777.55	0.328358
1779.06	0.150522
1780.57	0.0744295
1782.07	-0.101546
1783.58	0.136439
1785.09	0.0533719
1786.59	-0.0450225
1788.1	-0.000563145
1789.6	0.531948
1791.11	0.109354
1792.61	-0.191981
1794.12	-0.0857387
1795.62	0.158457
1797.13	-0.0899382
1798.63	-0.175205
1800.13	0.219937
1801.64	0.0251789
1803.14	-0.0446792
1804.64	0.0524502
1806.15	-0.0437655
1807.65	0.158442
1809.15	0.139953
1810.65	0.263304
1812.15	0.295004
1813.65	-0.115244
1815.16	0.044251
1816.66	-0.121778
1818.15	0.112759
1819.66	-0.0241723
1821.16	-0.0320644
1822.65	-0.118538
1824.15	0.124882
1825.65	0.021399
1827.15	-0.314865
1828.65	0.0744824
1830.15	-0.129525
1831.64	0.0974126
1833.14	-0.00683737
1834.64	-0.194219
1836.14	0.162043
1837.63	0.0629334
1839.13	-0.0751185
1840.62	0.178521
1842.12	0.151286
1843.62	0.143652
1845.11	0.0593276
1846.61	0.143413
1848.1	0.300448
1849.6	0.0984912
1851.09	0.038219
1852.58	0.121829
1854.08	-0.0196867
1855.57	0.0989437
1857.06	-0.168911
1858.55	-0.117616
1860.05	-0.0386486
1861.54	-0.11382
1863.03	-0.0678563
1864.52	0.270569
1866.01	0.420068
1867.5	0.0529022
1869	0.271791
1870.49	-0.0360208
1871.98	0.246267
1873.47	-0.180208
1874.96	0.27702
1876.44	0.139033
1877.93	-0.0764203
1879.42	0.11411
1880.91	0.334814
1882.4	0.18749
1882.47	0.178015
1883.96	0.0905066
1885.46	0.141799
1886.95	0.105201
1888.44	0.381525
1889.94	-0.00345612
1891.43	0.134476
1892.93	0.151971
1894.42	-0.14191
1895.91	0.139287
1897.4	0.212629
1898.89	0.285943
1900.39	0.0626631
1901.88	0.2729
1903.37	0.220651
1904.86	-0.0240555
1906.35	-0.373472
1907.84	-0.218972
1909.33	0.00528955
1910.82	0.403668
1912.31	-0.0994315
1913.8	0.612237
1915.29	0.127241
1916.77	0.179604
1918.26	0.0234909
1919.75	-0.132918
1921.24	0.0397787
1922.73	0.264646
1924.21	0.195842
1925.7	0.0414748
1927.19	0.130397
1928.67	0.046762
1930.16	0.638446
1931.64	0.225122
1933.13	0.33005
1934.61	0.468005
1936.1	-0.381833
1937.58	0.324451
1939.07	0.113611
1940.55	0.352231
1942.04	-0.150793
1943.52	-0.065937
1945	-0.0838799
1946.49	-0.170437
1947.97	0.22543
1949.45	0.0691266
1950.93	-0.415016
1952.42	0.0298371
1953.9	-0.0250554
1955.38	0.349634
1956.86	-0.0142784
1958.34	0.377993
1959.82	0.667569
1961.3	-0.157182
1962.78	-0.244038
1964.26	0.148767
1965.74	0.164047
1967.22	0.0931473
1968.7	0.175709
1970.18	0.0696254
1971.65	0.065949
1973.13	-0.040195
1974.61	0.246183
1976.09	0.123243
1977.57	0.375346
1979.04	-0.121751
1980.52	0.0962224
1982	0.296759
1983.47	0.17402
1984.95	0.169985
1986.42	0.386224
1987.9	0.432627
1989.37	0.0558653
1990.85	0.15404
1992.32	0.0668359
1993.8	0.386306
1995.27	0.317551
1996.75	0.0971909
1998.22	0.0796218
1999.69	0.0954752
2001.17	0.498929
2002.64	-0.110439
2004.11	0.309021
2005.58	-0.0299153
2007.05	-0.0142407
2008.53	0.254791
2010	0.154057
2011.47	-0.215516
2012.94	0.121974
2014.41	0.0214844
2015.88	0.542897
2017.35	-0.198186
2018.82	0.304648
2020.29	-0.11761
2021.76	0.585605
2023.23	-0.0544486
2024.7	0.195974
2026.16	-0.156643
2027.63	-0.038341
2029.1	0.0140929
2030.57	0.3193
2032.03	0.0717263
2033.5	0.0426469
2034.97	0.198273
2036.44	-0.133469
2037.9	0.223083
2039.37	0.00804234
2040.83	-0.526549
2042.3	0.183155
2043.76	-0.0984826
2045.23	0.293486
2046.69	0.215073
2048.16	0.0526309
2049.62	0.715589
2051.08	0.0294318
2052.55	0.0330071
2054.01	-0.0661116
2055.47	-0.116066
2056.94	0.439737
2058.4	0.202445
2059.86	-0.119038
2061.32	0.688165
2062.79	0.300431
2064.25	-0.0862689
2065.71	0.184268
2067.17	0.472342
2068.63	0.239222
2070.09	0.578652
2071.55	0.22798
2073.01	0.0118012
2074.47	0.266851
2075.93	0.673218
2077.39	0.506714
2078.85	0.525103
2080.31	0.458898
2081.76	-0.0118489
2083.22	0.257667
2084.68	0.0888934
2086.13	0.239227
2087.59	0.069438
2089.05	0.487666
2090.51	0.132607
2091.96	0.365454
2093.42	-0.173886
2094.87	0.628794
2096.33	0.541816
2097.78	0.387372
2099.24	0.500384
2100.69	0.328631
2102.15	0.641909
2103.6	0.304186
2105.06	0.885899
2106.51	0.901107
2107.96	0.817214
2109.42	0.600298
2110.87	0.583093
2112.32	0.514779
2113.77	0.395106
2115.23	0.607011
2116.68	0.551743
2118.13	0.480204
2119.58	0.725255
2121.03	0.838965
2122.48	0.655794
2123.93	1.00464
2125.38	0.524962
2126.83	1.08969
2128.28	0.924002
2129.73	1.08858
2131.18	1.2187
2132.63	0.619601
2134.08	0.699403
2135.53	1.11047
2136.97	1.1258
2138.42	1.09321
2139.87	1.06235
2141.32	1.28091
2142.76	1.35188
2144.21	1.24155
2145.66	1.09818
2147.1	0.921306
2148.55	1.04188
2150	0.929832
2151.44	1.04883
2152.89	1.28295
2154.33	1.59914
2155.78	1.50067
2157.22	1.48508
2158.66	1.73517
2160.11	1.60549
2161.55	1.89166
2163	1.20167
2164.44	1.57402
2165.88	1.48285
2167.32	1.37488
2168.77	1.7812
2170.21	1.63744
2171.65	1.19216
2173.09	1.57682
2174.53	1.76053
2175.97	1.42804
2177.41	1.12909
2178.85	1.32965
2180.29	1.48118
2181.73	1.70005
2183.17	1.60357
2184.61	1.4907
2186.05	1.57748
2187.49	1.49793
2188.93	1.51824
2190.37	1.62177
2191.81	1.29223
2193.24	1.16176
2194.68	1.34646
2196.12	1.04675
2197.56	1.41102
2198.99	1.24121
2200.43	1.20359
2201.87	0.850397
2203.3	0.879848
2204.74	1.0926
2206.17	1.15689
2207.61	0.774313
2209.04	1.23647
2210.48	1.21752
2211.91	0.850319
2213.35	1.32593
2214.78	1.04092
2216.21	0.954881
2217.65	1.19989
2219.08	0.852109
2220.51	0.884524
2221.95	0.999464
2223.38	1.1302
2224.81	0.238663
2226.24	0.531587
2227.67	0.460946
2229.1	0.882056
2230.54	0.825794
2231.97	0.933319
2233.4	1.1063
2234.83	0.821727
2236.26	0.29365
2237.69	0.975812
2239.11	0.5003
2240.54	0.793534
2241.97	0.22381
2243.4	0.193412
2244.83	0.57111
2246.26	0.540526
2247.69	0.524942
2249.11	0.311931
2250.54	0.504579
2251.97	0.190826
2253.4	0.429825
2254.82	0.246156
2256.25	0.339939
2257.67	0.695157
2259.1	0.679448
2260.53	0.260644
2261.95	0.509153
2263.38	0.450712
2264.8	0.229989
2266.23	0.415233
2267.65	0.177046
2269.07	0.588867
2270.5	0.430502
2271.92	-0.0703225
2273.34	0.145068
2274.77	0.442063
2276.19	0.478659
2277.61	0.0753808
2279.03	0.356643
2280.46	0.360794
2281.88	0.103875
2283.3	0.336186
2284.72	0.0301261
2286.14	0.589187
2287.56	0.0712423
2288.98	0.0106473
2290.4	0.554914
2291.82	0.347908
2293.24	0.484264
2294.66	0.326221
2296.08	0.102496
2297.5	0.0586576
2298.92	0.17864
2300.34	0.233315
2301.76	-0.121661
2303.17	-0.0830317
2304.59	0.349712
2306.01	0.0273938
2307.43	-0.14764
2308.84	-0.191754
2310.26	0.503605
2311.68	0.0805554
2313.09	-0.21117
2314.51	-0.140677
2315.92	0.177429
2317.34	0.265821
2318.75	-0.0244455
2320.17	0.476475
2321.58	0.448962
2323	0.139289
2324.41	-0.0733047
2325.82	0.438303
2327.24	0.502825
2328.65	0.714916
2330.06	0.18568
2331.48	0.332709
2332.89	0.0690899
2334.3	0.448043
2335.71	0.152573
2337.12	0.383181
2338.54	0.218268
2339.95	0.167575
2341.36	0.461011
2342.77	0.261284
2344.18	0.504585
2345.59	-0.366699
2347	-0.0573506
2348.41	-0.075736
2349.82	0.167347
2351.23	0.082531
2352.64	-0.215272
2354.04	0.237312
2355.45	-0.0451059
2356.86	0.128706
2358.27	0.155717
2359.68	0.117779
2361.08	-0.212158
2362.49	0.139562
2363.9	0.150324
2365.3	0.144841
2366.71	-0.038271
2368.12	-0.220544
2369.52	0.0177369
2370.93	-0.0173497
2372.33	0.0936751
2373.74	0.141001
2375.14	-0.0206313
2376.55	-0.101956
2377.95	0.41093
2379.36	-0.267193
2380.76	0.0658712
2382.16	0.365028
2383.57	0.374419
2384.97	0.575513
2386.37	0.456907
2387.78	0.179718
2389.18	-0.016212
2390.58	-0.226715
2391.98	0.328207
2393.38	0.151351
2394.79	0.150312
2396.19	0.133959
2397.59	0.324749
2398.99	0.372912
2400.39	0.262615
2401.79	0.216157
2403.19	-0.0684648
2404.59	-0.0833392
2405.99	0.107484
2407.39	0.392621
2408.78	0.216897
2410.18	-0.10161
2411.58	-0.0393925
2412.98	0.245111
2414.38	-0.308661
2415.77	0.231224
2417.17	0.218082
2418.57	0.237374
2419.97	-0.0280762
2421.36	-0.0877914
2422.76	0.501746
2424.15	0.219748
2425.55	-0.157358
2426.95	-0.0428672
2428.34	0.199175
2429.74	0.02981
2431.13	0.289282
2432.52	0.311019
2433.92	0.300599
2435.31	-0.0125842
2436.71	0.56267
2438.1	0.167496
2439.49	0.263771
2440.89	0.00985813
2442.28	0.0731497
2443.67	-0.00666142
2445.06	0.151367
2446.46	0.118876
2447.85	0.387401
2449.24	0.164614
2450.63	0.148034
2452.02	0.0844078
2453.41	0.25879
2454.8	0.196496
2456.19	0.292984
2457.58	0.373916
2458.97	0.106756
2460.36	0.3927
2461.75	0.203541
2463.14	-0.0652003
2464.53	0.155556
2465.92	0.233737
2467.31	0.406477
2468.69	-0.194131
2470.08	0.0257502
2471.47	0.0874276
2472.86	-0.119318
2474.24	0.114386
2475.63	-0.0145879
2477.02	0.375015
2478.4	0.371306
2479.79	0.195116
2481.17	0.0663824
2482.56	0.23549
2483.94	0.403949
2485.33	0.196005
2486.72	0.175036
2488.1	0.293649
2489.48	-0.00945854
2490.87	-0.0940228
2492.25	-0.209078
2493.64	-0.0124931
2495.02	0.21577
2496.4	-0.330345
2497.79	0.28673
2499.17	-0.381544
2500.55	0.0490813
2501.93	-0.170688
2503.31	0.0106292
2504.69	-0.271891
2506.08	-0.184501
2507.46	-0.0359468
2508.84	0.127737
2510.22	-0.077189
2511.6	-0.112428
2512.98	-0.0243587
2514.36	0.171462
2515.74	0.0615835
2517.12	0.0442519
2518.5	-0.0643473
2519.88	-0.126843
2521.25	0.467266
2522.63	0.464865
2524.01	0.21771
2525.39	0.168455
2526.77	0.256095
2528.14	-0.0973616
2529.52	0.0219169
2530.9	-0.176866
2532.27	0.157623
2533.65	0.234825
2535.03	0.0999331
2536.4	0.147343
2537.78	-0.0944014
2539.15	0.149187
2540.53	-0.0179725
2541.9	0.17893
2543.28	-0.0792766
2544.65	0.224568
2546.03	0.210792
2547.4	0.38005
2548.77	0.413527
2550.15	0.310548
2551.52	0.191981
2552.89	0.0423007
2554.27	-0.0930295
2555.64	0.317148
2557.01	0.256453
2558.38	-0.0621095
2559.75	-0.0771141
2561.12	0.21143
2562.5	-0.196705
2563.87	-0.104239
2565.24	0.215876
2566.61	0.369512
2567.98	0.204978
2569.35	0.207153
2570.72	0.179008
2572.09	0.0296307
2573.46	-0.225813
2574.83	0.00389099
2576.19	0.0214052
2577.56	-0.234056
2578.93	-0.140973
2580.3	0.0731516
2581.67	0.120148
2583.04	0.348771
2584.4	-0.0140915
2585.77	0.274878
2587.14	0.154645
2588.5	0.170988
2589.87	0.0207224
2591.23	-0.175075
2592.6	-0.204519
2593.97	0.280481
2595.33	0.128345
2596.7	0.111713
2598.06	-0.0114565
2599.43	0.137339
2600.79	0.0895939
2602.15	-0.123834
2603.52	0.14653
2604.88	-0.171373
2606.25	-0.187186
2607.61	-0.112752
2608.97	0.171975
2610.33	0.169224
2611.7	-0.0754161
2613.06	0.145562
2614.42	0.2453
2615.78	0.254559
2617.15	0.0540948
2618.51	0.0941319
2619.87	0.254435
2621.23	0.175846
2622.59	-0.245867
2623.95	0.273925
2625.31	0.00209332
2626.67	0.0734134
2628.03	0.501997
2629.39	-0.0828505
2630.75	0.106709
2632.1	0.0728798
2633.46	-0.124336
2634.82	0.213068
2636.18	-0.0284882
2637.54	0.174886
2638.89	0.0818372
2640.25	0.181388
2641.61	-0.0294671
2642.97	-0.0772858
2644.32	0.00796986
2645.68	-0.0544767
2647.03	0.221922
2648.39	-0.327544
2649.75	-0.0819979
2651.1	0.206629
2652.46	0.0538049
2653.81	0.0188198
2655.17	-0.0301757
2656.52	0.00965118
2657.88	-0.00820351
2659.23	0.164864
2660.58	0.0749111
2661.94	0.174935
2663.29	-0.163809
2664.64	0.183269
2666	0.0916615
2667.35	-0.0293517
2668.7	0.15554
2670.05	0.0638876
2671.4	-0.245308
2672.76	0.216515
2674.11	0.126447
2675.46	0.385303
2676.81	0.441273
2678.16	0.0771484
2679.51	-0.0540972
2680.86	-0.0539956
2682.21	0.338501
2683.56	0.0650296
2684.91	0.0968127
2686.26	0.0129361
2687.61	-0.0565686
2688.96	-0.257679
2690.3	0.280276
2691.65	-0.0542512
2693	0.190544
2694.35	0.289281
2695.7	0.228313
2697.04	-0.136315
2698.39	0.0795789
2699.74	0.0216084
2701.08	0.167762
2702.43	0.170349
2703.77	0.275243
2705.12	0.148717
2706.47	-0.00688601
2707.81	0.0983567
2709.16	0.130782
2710.5	0.235527
2711.85	0.180323
2713.19	0.0232487
2714.53	0.171268
2715.88	-0.0732498
2717.22	0.14739
2718.57	-0.170325
2719.91	0.122668
2721.25	0.15345
2722.59	0.183842
2723.94	-0.222814
2725.28	0.0397296
2726.62	-0.0182538
2727.96	-0.0619292
2729.3	0.330776
2730.65	-0.135211
2731.99	-0.0919123
2733.33	0.271472
2734.67	0.387647
2736.01	-0.106902
2737.35	0.0241017
2738.69	-0.0485239
2740.03	0.0968032
2741.37	0.227184
2742.71	-0.0645814
2744.05	-0.0370274
2745.38	0.00453806
2746.72	-0.172104
2748.06	0.159286
2749.4	0.142199
2750.74	-0.150282
2752.07	0.00709724
2753.41	0.265997
2754.75	0.452427
2756.09	0.00156546
2757.42	0.405398
2758.76	0.20123
2760.09	-0.0604272
2761.43	0.41641
2762.77	0.0108862
2764.1	0.169972
2765.44	-0.249693
2766.77	-0.119884
2768.11	-0.106532
2769.44	-0.15202
2770.77	0.0615211
2772.11	0.432556
2773.44	-0.179077
2774.77	0.233484
2776.11	0.0979037
2777.44	-0.181072
2778.77	0.116058
2780.11	0.0395384
2781.44	0.106995
2782.77	-0.0838838
2784.1	-0.346265
2785.43	0.409277
2786.77	0.132707
2788.1	0.128857
2789.43	0.368868
2790.76	-0.105684
2792.09	0.121317
2793.42	0.277115
2794.75	-0.153082
2796.08	-0.611905
2797.41	-0.0424232
2798.74	0.126416
2800.07	-0.247581
2801.4	0.120352
2802.72	0.145575
2804.05	-0.0574503
2805.38	0.0527425
2806.71	0.148083
2808.04	0.100538
2809.36	0.166408
2810.69	0.146972
2812.02	0.000315189
2813.34	0.0249352
2814.67	-0.289576
2816	-0.00745058
2817.32	0.0628967
2818.65	0.204598
2819.97	0.232937
2821.3	0.331783
2822.62	0.160806
2823.95	-0.0389638
2825.27	0.200173
2826.6	0.240963
2827.92	0.197201
2829.25	0.238851
2830.57	0.394129
2831.89	0.507115
2833.22	0.237872
2834.54	0.0250273
2835.86	0.420387
2837.18	-0.00547838
2838.51	0.176771
2839.83	0.316332
2841.15	0.272095
2842.47	0.383689
2843.79	0.679484
2845.11	1.20193
2846.43	0.566039
2847.76	0.947995
2849.08	0.637461
2850.4	0.877915
2851.72	1.17452
2853.04	1.04668
2854.36	1.03159
2855.67	1.20003
2856.99	0.873976
2858.31	0.92942
2859.63	1.28141
2860.95	1.18132
2862.27	1.2363
2863.58	1.2204
2864.9	1.3595
2866.22	1.62547
2867.54	1.80688
2868.85	1.76298
2870.17	1.88862
2871.49	1.76065
2872.8	1.78754
2874.12	1.99701
2875.43	1.85335
2876.75	1.84972
2878.07	2.0565
2879.38	1.89714
2880.7	1.99122
2882.01	1.83295
2883.32	1.98464
2884.64	2.22128
2885.95	2.36006
2887.27	2.28833
2888.58	2.27242
2889.89	2.12964
2891.21	2.02835
2892.52	2.30505
2893.83	2.21713
2895.14	2.25559
2896.46	2.2107
2897.77	2.23666
2899.08	2.66918
2900.39	2.64063
2901.7	2.44462
2903.01	2.43066
2904.32	2.51474
2905.63	2.641
2906.94	2.80968
2908.25	3.18889
2909.56	3.21915
2910.87	3.26392
2912.18	3.57468
2913.49	3.54893
2914.8	3.438
2916.11	3.54962
2917.42	3.57589
2918.72	3.93707
2920.03	3.87826
2921.34	3.72217
2922.65	4.19627
2923.95	4.00051
2925.26	4.47672
2926.57	3.97501
2927.88	4.40996
2929.18	4.2295
2930.49	4.34216
2931.79	4.20277
2933.1	4.23092
2934.4	4.52461
2935.71	4.45499
2937.01	4.6231
2938.32	3.95292
2939.62	4.02364
2940.93	3.87121
2942.23	3.9291
2943.54	3.83427
2944.84	3.65668
2946.14	3.87156
2947.45	3.75137
2948.75	3.51896
2950.05	3.18747
2951.35	3.31651
2952.66	3.27598
2953.96	3.02428
2955.26	2.9683
2956.56	2.87102
2957.86	2.85935
2959.16	2.76584
2960.46	2.6605
2961.77	2.85109
2963.07	2.64985
2964.37	2.49004
2965.66	2.65201
2966.96	2.7285
2968.26	2.69147
2969.56	2.24599
2970.86	2.22215
2972.16	2.38143
2973.46	1.95005
2974.76	2.48974
2976.06	2.42378
2977.35	2.10331
2978.65	1.83778
2979.95	2.19033
2981.25	1.30327
2982.54	1.51356
2983.84	1.4568
2985.14	1.26038
2986.43	1.06524
2987.73	1.48955
2989.02	1.01535
2990.32	1.30024
2991.62	1.06481
2992.91	1.02534
2994.21	1.08326
2995.5	1.08405
2996.8	0.943861
2998.09	0.607152
2999.38	0.719804
3000.68	0.650512
3001.97	0.651833
3003.26	0.499369
3004.56	0.571249
3005.85	0.320811
3007.14	0.672043
3008.43	0.546598
3009.73	0.364665
3011.02	0.601571
3012.31	0.349116
3013.6	0.222611
3014.89	-0.0985298
3016.19	0.236075
3017.48	-0.0834889
3018.77	0.0986733
3020.06	-0.192112
3021.35	0.212096
3022.64	0.129014
3023.93	-0.301619
3025.22	0.0027709
3026.5	-0.344569
3027.79	0.111681
3029.08	0.180884
3030.37	0.0853934
3031.66	0.0464501
3032.95	0.00841665
3034.24	0.370929
3035.52	-0.232868
3036.81	0.279767
3038.1	0.129026
3039.39	0.045898
3040.67	0.057951
3041.96	0.206509
3043.25	0.299776
3044.53	0.0238996
3045.82	-0.0722566
3047.1	0.461892
3048.39	0.232684
3049.67	0.223826
3050.96	0.0934978
3052.24	0.168576
3053.53	0.0254111
3054.81	0.00461149
3056.1	0.201258
3057.38	0.233332
3058.67	-0.0622258
3059.95	0.459324
3061.23	-0.0128179
3062.52	0.305195
3063.8	0.0938101
3065.08	0.645081
3066.36	0.0555305
3067.65	0.255355
3068.93	0.333212
3070.21	0.152519
3071.49	0.161596
3072.77	0.0473642
3074.05	-0.162899
3075.33	0.142649
3076.61	0.0402369
3077.89	0.39976
3079.17	-0.244173
3080.45	0.0223088
3081.73	0.100091
3083.01	0.138217
3084.29	-0.175826
3085.57	-0.0284433
3086.85	-0.125622
3088.13	-0.114713
3089.41	-0.0635786
3090.68	0.163633
3091.96	0.0650768
3093.24	0.129486
3094.52	0.451808
3095.79	0.0285645
3097.07	0.134287
3098.35	-0.0853105
3099.62	0.0880928
3100.9	0.153015
3102.18	-0.310158
3103.45	0.161346
3104.73	0.0916443
3106	0.198522
3107.28	0.211425
3108.55	0.0221968
3109.83	0.0639095
3111.1	0.33664
3112.38	0.203881
3113.65	0.13917
3114.93	0.223578
3116.2	0.239941
3117.47	0.282825
3118.75	0.352022
3120.02	0.691616
3121.29	0.189751
3122.57	-0.136003
3123.84	0.324097
3125.11	0.106986
3126.38	0.174668
3127.65	0.175166
3128.92	0.297861
3130.2	0.33971
3131.47	0.287057
3132.74	0.342518
3134.01	0.505769
3135.28	0.115031
3136.55	0.587808
3137.82	0.385528
3139.09	0.425806
3140.36	0.264048
3141.63	0.586804
3142.9	0.721205
3144.17	0.466504
3145.43	0.494467
3146.7	0.442586
3147.97	0.645919
3149.24	0.702253
