200.554	0.560888
202.369	0.571287
204.183	0.582329
205.999	1.30069
207.813	1.02246
209.626	0.549391
211.439	0.560804
213.253	1.10411
215.065	1.47518
216.877	-0.360512
218.688	0.688881
220.5	0.382948
222.312	0.176126
224.123	-0.584667
225.933	-0.81189
227.742	-0.338053
229.552	0.666161
231.361	1.06536
233.171	0.740252
234.98	-0.499859
236.787	1.03555
238.595	0.0197449
240.402	0.310392
242.209	0.17149
244.015	0.324577
245.822	0.357161
247.627	0.869961
249.435	0.0259666
251.24	-0.219873
253.045	0.905403
254.849	-0.0718784
256.653	0.253305
258.457	-0.359848
260.26	-0.0779552
262.063	0.592978
263.866	0.568569
265.668	-0.20064
267.47	1.27202
269.271	-0.67815
271.073	0.937941
272.873	0.744038
274.674	0.909307
276.474	0.396671
278.274	-0.094862
280.073	0.470238
281.872	0.260841
283.671	-0.119846
285.47	0.146379
287.268	-0.429129
289.065	0.531162
290.863	0.149855
292.66	0.992481
294.456	-0.0524921
296.253	0.245413
298.049	0.0433407
299.844	0.487549
301.637	0.023632
303.432	0.346493
305.227	0.141893
307.021	0.0313663
308.815	-0.150763
310.609	-0.355297
312.402	0.276287
314.195	-0.232147
315.987	0.882278
317.777	-0.333429
319.569	0.263828
321.36	0.840071
323.151	0.750822
324.942	1.16358
326.733	0.263947
328.521	0.676943
330.31	0.0613232
332.1	0.973734
333.889	-0.00653267
335.677	0.0378666
337.464	0.676319
339.252	0.329882
341.039	-0.353924
342.826	0.419598
344.611	0.0217667
346.398	-0.446297
348.184	-0.673887
349.97	0.15003
351.754	0.377029
353.539	0.00641441
355.324	0.516697
357.106	0.0942669
358.89	-0.854361
360.674	-0.208307
362.455	0.435215
364.239	-0.0410843
366.021	0.123556
367.804	0.713701
369.584	-0.0740643
371.366	-0.577522
373.145	0.409361
374.926	-0.118965
376.707	0.369114
378.485	-0.67535
380.265	-0.137686
382.045	0.942652
383.822	-0.257441
385.601	0.967703
387.378	0.173407
389.156	0.368513
390.934	0.612495
392.71	-0.339621
394.487	0.024704
396.262	0.953445
398.038	0.49688
399.813	-0.312328
401.588	-0.018383
403.362	0.838125
405.137	0.0726624
406.912	0.24534
408.685	0.933395
410.459	0.353123
412.23	0.547707
414.004	-0.476994
415.775	0.0719604
417.548	0.45829
419.318	0.400108
421.089	-0.737209
422.86	-0.020792
424.63	-0.174128
426.401	0.32822
428.17	0.547298
429.94	0.24913
431.708	0.420477
433.478	0.42824
435.245	0.976542
437.012	-0.305782
438.781	-0.298561
440.547	-0.247135
442.315	0.551102
444.081	-0.13242
445.846	0.423033
447.613	-0.101223
449.378	0.567196
451.142	0.183418
452.908	1.22488
454.672	0.0960388
456.435	0.390638
458.2	-0.852407
459.963	-0.0921364
461.725	0.273138
463.489	1.10594
465.251	-0.0784416
467.012	0.230024
468.775	0.171909
470.536	-0.09202
472.296	0.0404625
474.056	0.893436
475.817	0.229774
477.576	0.446878
479.335	0.427595
481.094	1.75745
482.854	0.828409
484.612	1.2993
486.37	0.609474
488.127	0.995546
489.886	0.266605
491.642	0.962626
493.398	0.025568
495.154	0.350151
496.91	0.487938
498.667	0.461458
500.422	0.973455
502.176	1.25036
503.93	0.163568
505.684	0.0602798
507.438	0.424612
509.191	0.527548
510.946	-0.360785
512.698	0.74789
514.45	0.935999
516.202	0.486229
517.954	1.16321
519.705	-0.183849
521.456	0.278084
523.206	0.33947
524.956	0.353498
526.706	0.0391026
528.456	1.15531
530.207	1.14534
531.956	0.853539
533.704	0.560492
535.452	0.826899
537.2	0.599396
538.947	0.439651
540.694	0.884293
542.441	0.208418
544.188	0.463993
545.934	0.416893
547.68	0.695194
549.425	0.787926
551.17	1.71448
552.915	1.08975
554.659	0.882683
556.403	1.06901
558.145	0.840763
559.889	0.729149
561.632	1.14831
563.375	0.670975
565.117	0.540316
566.859	0.250357
568.601	0.926546
570.342	0.27331
572.083	0.586794
573.824	0.834646
575.565	0.283138
577.303	0.469
579.043	0.0377522
580.782	1.21534
582.521	0.119286
584.26	0.124672
585.998	-0.446871
587.734	0.129133
589.472	0.495998
591.21	0.216927
592.947	-0.431225
594.684	0.392851
596.418	0.480803
598.154	0.63772
599.89	-0.241348
601.626	0.304338
603.361	0.709385
605.094	-0.153053
606.828	-0.00617599
608.562	0.94277
610.296	-0.129168
612.027	0.246134
613.761	0.0494442
615.493	0.060482
617.224	-0.111452
618.956	-0.169767
620.688	-0.138523
622.419	0.0276012
624.149	0.557678
625.879	-0.329165
627.61	0.476587
629.338	0.395491
631.068	0.478756
632.797	-0.0273094
634.525	0.746572
636.254	1.08627
637.98	0.806152
639.708	0.269712
641.436	0.229803
643.162	-0.110888
644.889	0.298052
646.614	0.456791
648.34	0.187164
650.067	0.0375404
651.791	0.372486
653.516	-0.194174
655.239	0.109158
656.964	-0.151985
658.687	0.112314
660.411	0.399118
662.133	0.432119
663.857	0.255028
665.58	-0.315536
667.301	-0.84421
669.024	-0.0935383
670.744	0.567474
672.464	0.706308
674.186	-0.707306
675.905	0.425039
677.626	0.414606
679.345	0.0138607
681.065	-0.228617
682.783	-0.382809
684.503	0.701992
686.22	-0.564932
687.939	0.329679
689.656	-0.597198
691.372	0.75498
693.09	-0.819443
694.806	0.276703
696.523	0.633745
698.239	0.620012
699.953	-0.270473
701.67	0.102625
703.384	0.243723
705.098	0.429249
706.813	0.590553
708.526	0.957207
710.239	0.841377
711.954	0.633453
713.666	0.63117
715.378	0.742785
717.091	0.580116
718.802	0.942583
720.513	0.461512
722.226	0.459724
723.936	0.708321
725.646	0.524349
727.355	0.95336
729.067	0.745411
730.776	0.786394
732.484	0.554834
734.192	0.0745201
735.902	0.00208473
737.61	0.65303
739.317	0.0858898
741.024	1.61779
742.731	0.356661
744.439	-0.134979
746.145	-0.0385056
747.851	1.07275
749.556	1.01641
751.262	0.692633
752.966	0.596205
754.673	1.22225
756.377	1.08627
758.081	-0.0376453
759.784	0.484512
761.487	0.964293
763.19	1.03956
764.892	1.27245
766.594	0.893402
768.296	1.77644
770	2.02282
771.701	1.72263
773.402	1.32934
775.102	0.799648
776.803	1.24329
778.503	1.62157
780.202	1.57309
781.901	1.75288
783.6	1.32193
785.299	1.6582
786.997	0.858212
788.695	0.346909
790.393	1.25518
792.09	1.41149
793.787	1.51947
795.484	1.82982
797.18	2.29916
798.877	1.1495
800.572	1.46763
802.268	1.31558
803.963	1.38973
805.658	1.05886
807.35	1.67044
809.044	1.38092
810.738	1.06716
812.432	1.69394
814.125	0.996822
815.818	1.84501
817.51	1.90887
819.202	1.86101
820.894	1.41163
822.584	1.81157
824.275	2.19012
825.966	1.81335
827.657	1.30738
829.347	1.11855
831.037	1.80388
832.725	1.96009
834.414	1.34015
836.103	1.18969
837.792	1.48497
839.481	2.22496
841.167	1.2202
842.854	2.33499
844.542	2.28735
846.229	1.32467
847.914	1.57216
849.6	1.80213
851.287	0.536755
852.973	1.64851
854.656	1.75441
856.341	2.24203
858.026	2.95326
859.711	2.64973
861.393	2.52231
863.077	1.76076
864.761	1.83
866.442	1.92008
868.125	1.62565
869.808	1.12724
871.489	1.10177
873.171	1.70764
874.85	1.65917
876.532	1.24964
878.213	1.42683
879.892	0.813805
881.572	1.98337
883.251	0.961813
884.931	1.42812
886.61	1.9819
888.287	1.06586
889.966	1.8163
891.643	1.54895
893.321	1.68476
894.997	0.693125
896.675	1.27477
898.352	1.13479
900.028	1.06067
901.704	1.16441
903.379	1.82627
905.055	1.36876
906.729	1.35927
908.404	1.19494
910.077	1.65619
911.75	0.916935
913.425	1.8027
915.097	0.86685
916.771	0.864431
918.443	0.529505
920.116	0.704622
921.787	0.261141
923.46	0.837217
925.13	1.39346
926.8	0.826567
928.472	1.87446
930.141	1.07054
931.813	1.21689
933.481	2.26813
935.15	1.24608
936.82	1.34989
938.488	1.98468
940.156	1.80582
941.825	1.23217
943.492	1.34365
945.158	0.439531
946.827	0.592491
948.493	1.31596
950.158	0.976313
951.824	0.700806
953.491	0.954992
955.156	1.25621
956.82	-0.00299072
958.486	1.25795
960.15	1.11267
961.814	0.439846
963.477	0.450954
965.142	2.25041
966.804	0.638784
968.467	0.45956
970.129	0.188046
971.79	0.224794
973.454	-0.00291824
975.115	0.678762
976.776	0.700409
978.436	0.282381
980.096	0.285711
981.756	0.288235
983.417	1.59435
985.077	1.21434
986.736	1.82636
988.394	1.8814
990.052	1.4917
991.71	0.703417
993.368	1.55013
995.025	1.91043
996.682	1.54253
998.341	2.03484
999.998	1.38028
1001.65	2.53146
1003.31	0.951508
1004.97	1.17633
1006.62	0.301899
1008.28	0.988007
1009.93	0.225534
1011.58	-0.293886
1013.24	0.459261
1014.89	0.401842
1016.54	0.410921
1018.2	0.0927582
1019.85	-0.267345
1021.5	0.489731
1023.16	1.008
1024.81	0.653717
1026.46	1.63355
1028.11	1.30218
1029.76	0.794849
1031.41	1.46471
1033.06	0.755661
1034.71	1.11324
1036.36	0.922672
1038.01	2.77854
1039.66	1.99762
1041.31	2.24154
1042.95	2.18351
1044.6	2.1943
1046.25	2.55654
1047.9	3.18314
1049.54	2.85753
1051.19	1.99145
1052.84	1.40909
1054.48	1.84849
1056.13	1.24478
1057.77	1.66196
1059.42	1.25208
1061.06	1.38445
1062.71	1.36306
1064.35	1.60077
1066	0.662407
1067.64	0.874247
1069.28	0.932011
1070.93	1.1188
1072.57	1.67422
1074.21	1.31889
1075.85	0.814035
1077.49	1.33124
1079.13	-0.100903
1080.78	0.723619
1082.42	0.225283
1084.06	1.39479
1085.7	1.91034
1087.34	2.78972
1088.97	1.97491
1090.61	1.39574
1092.25	1.5934
1093.89	1.53062
1095.53	0.0660572
1097.17	1.25702
1098.8	1.00562
1100.44	0.865623
1102.08	0.406687
1103.71	0.101969
1105.35	0.552591
1106.99	1.30523
1108.62	0.551699
1110.26	0.0327969
1111.89	1.40254
1113.52	0.383526
1115.16	-0.121428
1116.79	0.574543
1118.43	1.61278
1120.06	1.32282
1121.69	0.84247
1123.32	0.899702
1124.96	1.40807
1126.59	-0.135481
1128.22	0.889259
1129.85	-0.0092926
1131.48	0.0554829
1133.11	0.420048
1134.75	0.933887
1136.37	-0.071106
1138	0.82398
1139.63	0.562796
1141.26	0.577456
1142.89	0.868553
1144.52	0.839767
1146.15	-0.0829792
1147.78	-0.449139
1149.4	0.294336
1151.03	0.378021
1152.66	0.333862
1154.28	0.927711
1155.91	0.605291
1157.54	0.47434
1159.16	0.0889759
1160.79	-0.166979
1162.41	-0.420776
1164.04	0.326574
1165.66	0.245611
1167.29	-0.0272808
1168.91	-0.323444
1170.53	0.0787277
1172.16	0.222025
1173.78	-0.23262
1175.4	0.796127
1177.02	0.444489
1178.65	0.453909
1180.27	0.591677
1181.89	0.371387
1183.51	0.554272
1185.13	0.398859
1186.75	0.516243
1188.37	0.292732
1189.99	0.698156
1191.61	0.593786
1193.23	0.528862
1194.85	0.000715256
1196.47	-0.0226631
1198.08	0.646715
1199.7	1.31787
1201.32	0.905924
1202.94	0.061388
1204.55	-0.193022
1206.17	1.91431
1207.79	0.915052
1209.4	0.291946
1211.02	0.856178
1212.63	0.478575
1214.25	1.03472
1215.86	1.08606
1217.48	1.02984
1219.09	1.42895
1220.71	1.18358
1222.32	0.546101
1223.93	0.533773
1225.54	0.897011
1227.16	0.869545
1228.77	1.03092
1230.38	0.636366
1231.99	0.802418
1233.6	1.1774
1235.22	0.314669
1236.83	1.31437
1238.44	1.46871
1240.05	1.31419
1241.66	1.28402
1243.26	2.01861
1244.87	1.73801
1246.48	1.68296
1248.09	1.95699
1249.7	2.14674
1251.31	1.88074
1252.92	1.53255
1254.52	1.45473
1256.13	1.87547
1257.74	0.891941
1259.34	1.7312
1260.95	1.84815
1262.55	2.31812
1264.16	1.19331
1265.76	1.0823
1267.37	1.55023
1268.97	2.05799
1270.58	1.54783
1272.18	1.55393
1273.78	2.15923
1275.39	1.41508
1276.99	2.57588
1278.59	1.70428
1280.2	1.59828
1281.8	2.94053
1283.4	1.98559
1285	1.7563
1286.6	1.6323
1288.2	2.95714
1289.8	2.27884
1291.4	2.01492
1293	2.9285
1294.6	2.3529
1296.2	2.4358
1297.8	2.74246
1299.4	2.59156
1301	3.0975
1302.6	2.22006
1304.19	3.27666
1305.79	2.89068
1307.39	3.59284
1308.99	2.7749
1310.58	2.63495
1312.18	3.04881
1313.77	2.50222
1315.37	2.63292
1316.96	2.84695
1318.56	2.87813
1320.15	3.47973
1321.75	3.52844
1323.34	2.31223
1324.94	3.14792
1326.53	2.29399
1328.12	2.83997
1329.72	2.73791
1331.31	3.02359
1332.9	2.36369
1334.49	2.13329
1336.08	1.80541
1337.67	2.95109
1339.27	1.95752
1340.86	1.88843
1342.45	2.92196
1344.04	1.3968
1345.63	2.20183
1347.22	2.12314
1348.8	2.5087
1350.39	1.79778
1351.98	1.85281
1353.57	3.19127
1355.16	2.39281
1356.75	2.59455
1358.33	1.89634
1359.92	2.6544
1361.51	2.51151
1363.09	1.96817
1364.68	2.08267
1366.27	2.73549
1367.85	2.85161
1369.44	2.19381
1371.02	1.91735
1372.61	2.08146
1374.19	2.54617
1375.77	2.85302
1377.36	2.56305
1378.94	2.82915
1380.52	2.63549
1382.11	2.31987
1383.69	2.37965
1385.27	3.1132
1386.85	3.20943
1388.43	2.92864
1390.02	3.02662
1391.6	2.88827
1393.18	2.13662
1394.76	3.25035
1396.34	2.28114
1397.92	2.83732
1399.5	2.47957
1401.08	2.27866
1402.65	3.02691
1404.23	2.58735
1405.81	3.03912
1407.39	2.91907
1408.97	3.2948
1410.54	3.98733
1412.12	3.67225
1413.7	2.9218
1415.27	2.82117
1416.85	4.17819
1418.43	3.26643
1420	3.43983
1421.58	2.76869
1423.15	3.36105
1424.73	3.30708
1426.3	3.72805
1427.87	4.03201
1429.45	4.74865
1431.02	3.73124
1432.6	4.91557
1434.17	5.19232
1435.74	4.60263
1437.31	5.48833
1438.89	5.96249
1440.46	5.80987
1442.03	5.62012
1443.6	5.60882
1445.17	5.26425
1446.74	5.07726
1448.31	5.79483
1449.88	6.04138
1451.45	5.12896
1453.02	4.47305
1454.59	6.23718
1456.16	6.1131
1457.72	5.4167
1459.29	5.16991
1460.86	5.54898
1462.43	4.92037
1463.99	4.93756
1465.56	3.96968
1467.13	4.65214
1468.69	3.98005
1470.26	4.15435
1471.83	3.31084
1473.39	2.97991
1474.95	3.63113
1476.52	2.87132
1478.08	2.70004
1479.65	3.29313
1481.21	3.18025
1482.78	2.75369
1484.34	3.18906
1485.9	2.31097
1487.47	3.48805
1489.03	2.58634
1490.59	2.56213
1492.15	1.81011
1493.71	2.44178
1495.27	1.76149
1496.84	1.48989
1498.39	1.70503
1499.96	1.33773
1501.52	1.76927
1503.07	1.69803
1504.64	1.47361
1506.19	1.55976
1507.75	2.08922
1509.31	0.973536
1510.87	1.05437
1512.43	1.57655
1513.98	1.76951
1515.54	1.27044
1517.1	1.9064
1518.65	1.23853
1520.21	1.64591
1521.77	1.93797
1523.32	1.6553
1524.88	1.39076
1526.44	1.52523
1527.99	1.04827
1529.54	1.65529
1531.1	0.91263
1532.65	1.61396
1534.21	1.59566
1535.76	0.671635
1537.31	0.941681
1538.87	0.853867
1540.42	2.57702
1541.97	1.43375
1543.52	0.819408
1545.07	1.59709
1546.63	1.22711
1548.18	1.34539
1549.73	1.03228
1551.28	1.22569
1552.83	1.77514
1554.38	1.05461
1555.93	1.68253
1557.48	1.49185
1559.03	1.64099
1560.57	1.81239
1562.12	1.33394
1563.67	1.45455
1565.22	1.07244
1566.77	2.44456
1568.31	1.59554
1569.86	1.86552
1571.41	2.30278
1572.95	1.63813
1574.5	2.0559
1576.05	2.23106
1577.59	2.61199
1579.14	2.65775
1580.68	1.90186
1582.23	2.69737
1583.77	2.6356
1585.31	3.09854
1586.86	2.75888
1588.4	2.66231
1589.95	2.39679
1591.49	3.32818
1593.03	3.22936
1594.57	2.88639
1596.11	3.12416
1597.66	3.00683
1599.2	4.07204
1600.74	3.28249
1602.28	4.14476
1603.82	4.05008
1605.36	4.12289
1606.9	3.70414
1608.44	3.82615
1609.98	3.9621
1611.52	3.58581
1613.06	3.54377
1614.6	3.49914
1616.13	2.66603
1617.67	3.99048
1619.21	3.42382
1620.75	2.91693
1622.28	3.79861
1623.82	4.12001
1625.36	3.59895
1626.89	2.64598
1628.43	3.31851
1629.96	2.95918
1631.5	3.55124
1633.04	3.60018
1634.57	3.40709
1636.11	4.50323
1637.64	3.71677
1639.17	3.19316
1640.71	3.75083
1642.24	3.2635
1643.77	3.7053
1645.31	3.04622
1646.84	3.50187
1648.37	3.49173
1649.9	2.90688
1651.43	3.08558
1652.96	3.32225
1654.5	3.8576
1656.03	3.89343
1657.56	3.24345
1659.09	3.49983
1660.62	3.16091
1662.15	2.78244
1663.67	2.53168
1665.2	2.90816
1666.73	2.54664
1668.26	2.16939
1669.79	2.42217
1671.32	2.36441
1672.84	2.67718
1674.37	2.0699
1675.9	1.73855
1677.43	1.51624
1678.95	2.11983
1680.48	2.05889
1682	1.90469
1683.53	2.02548
1685.05	1.13706
1686.58	2.01088
1688.1	1.74823
1689.63	1.23015
1691.15	1.99467
1692.68	1.66056
1694.2	0.723043
1695.72	1.21207
1697.25	1.31638
1698.77	1.73032
1700.29	1.7779
1701.81	1.33197
1703.33	0.830866
1704.86	1.40379
1706.38	1.57463
1707.9	1.27198
1709.42	1.13316
1710.94	0.522919
1712.46	0.69368
1713.98	0.73764
1715.5	0.83592
1717.02	1.38607
1718.54	0.868786
1720.06	1.43561
1721.57	0.756968
1723.09	1.01794
1724.61	0.57785
1726.13	0.572935
1727.64	0.534525
1729.16	1.03778
1730.68	0.517357
1732.19	0.820371
1733.71	0.678695
1735.23	0.111514
1736.74	1.069
1738.26	0.579645
1739.77	0.345534
1741.29	0.264797
1742.8	0.296047
1744.31	0.45009
1745.83	1.07822
1747.34	0.148315
1748.85	0.410967
1750.37	0.505751
1751.88	0.512787
1753.39	0.310785
1754.91	0.592417
1756.42	0.542459
1757.93	0.41393
1759.44	0.916063
1760.95	0.359799
1762.46	0.0904408
1763.97	0.519135
1765.48	0.303713
1766.99	0.0644999
1768.5	0.281227
1770.01	0.644247
1771.52	0.330153
1773.03	0.644783
1774.54	0.294244
1776.04	0.479412
1777.55	-0.0822592
1779.06	0.0745163
1780.57	0.127674
1782.07	0.266617
1783.58	0.309359
1785.09	0.603609
1786.59	-0.216878
1788.1	0.0441866
1789.6	0.111716
1791.11	0.046792
1792.61	0.290769
1794.12	0.195956
1795.62	0.308367
1797.13	0.124844
1798.63	0.03302
1800.13	-0.170874
1801.64	0.0973158
1803.14	0.0628357
1804.64	0.0873375
1806.15	0.0914011
1807.65	0.331947
1809.15	0.11239
1810.65	0.145191
1812.15	0.197896
1813.65	-0.122908
1815.16	-0.199749
1816.66	-0.0818214
1818.15	0.0809231
1819.66	-0.278664
1821.16	-0.0801353
1822.65	0.0241642
1824.15	0.38622
1825.65	0.0478868
1827.15	0.361372
1828.65	0.238688
1830.15	-0.0401125
1831.64	-0.0254269
1833.14	-0.0937481
1834.64	0.0857592
1836.14	-0.0737886
1837.63	-0.294779
1839.13	0.278344
1840.62	-0.32845
1842.12	-0.388057
1843.62	-0.155502
1845.11	0.147541
1846.61	0.512878
1848.1	0.102033
1849.6	-0.0912161
1851.09	0.205243
1852.58	0.0812359
1854.08	0.535333
1855.57	0.234714
1857.06	0.43112
1858.55	-0.193009
1860.05	-0.632071
1861.54	0.288104
1863.03	0.212931
1864.52	0.792253
1866.01	0.260092
1867.5	0.27635
1869	0.664585
1870.49	-0.350328
1871.98	0.0481482
1873.47	-0.00473404
1874.96	0.205421
1876.44	-0.0658197
1877.93	0.388003
1879.42	-0.0839815
1880.91	0.22345
1882.4	-0.161231
1882.47	-0.180354
1883.96	-0.0943747
1885.46	0.251701
1886.95	-0.0658188
1888.44	-0.0531025
1889.94	0.307816
1891.43	-0.112662
1892.93	0.460681
1894.42	-0.0236998
1895.91	0.781065
1897.4	0.439709
1898.89	0.185073
1900.39	0.276702
1901.88	0.174384
1903.37	0.138818
1904.86	-0.00337505
1906.35	0.49612
1907.84	0.578226
1909.33	-0.328161
1910.82	-0.0698328
1912.31	-0.486759
1913.8	0.172697
1915.29	0.225164
1916.77	0.190408
1918.26	0.0681438
1919.75	0.101157
1921.24	0.359141
1922.73	0.340539
1924.21	-0.144101
1925.7	0.238728
1927.19	-0.31158
1928.67	-0.358831
1930.16	-0.180991
1931.64	0.307374
1933.13	0.429782
1934.61	-0.420089
1936.1	0.35445
1937.58	0.227045
1939.07	0.133577
1940.55	0.24786
1942.04	-0.257938
1943.52	0.445919
1945	0.495374
1946.49	0.459249
1947.97	0.0609035
1949.45	-0.0799131
1950.93	-0.0327635
1952.42	0.357004
1953.9	0.470183
1955.38	0.0159607
1956.86	-0.110784
1958.34	-0.219148
1959.82	0.359929
1961.3	0.596433
1962.78	-0.31531
1964.26	0.075551
1965.74	0.465276
1967.22	0.254442
1968.7	0.179626
1970.18	-0.2721
1971.65	0.147513
1973.13	0.395722
1974.61	-0.106753
1976.09	0.278058
1977.57	0.304937
1979.04	0.178743
1980.52	0.205773
1982	0.419474
1983.47	-0.590622
1984.95	-0.0551424
1986.42	0.190789
1987.9	0.588812
1989.37	-0.334169
1990.85	0.268255
1992.32	-0.0080843
1993.8	0.495106
1995.27	-0.0823374
1996.75	-0.0504885
1998.22	0.319081
1999.69	-0.240802
2001.17	0.26195
2002.64	0.0719032
2004.11	-0.337357
2005.58	-0.0885725
2007.05	-0.158899
2008.53	0.0585442
2010	0.125735
2011.47	0.193765
2012.94	0.144067
2014.41	0.379829
2015.88	0.126365
2017.35	0.510715
2018.82	0.422703
2020.29	-0.237409
2021.76	1.11814
2023.23	0.106098
2024.7	0.522361
2026.16	0.806052
2027.63	0.504972
2029.1	0.189559
2030.57	0.345935
2032.03	0.755683
2033.5	0.142517
2034.97	0.0159168
2036.44	0.207829
2037.9	-0.306716
2039.37	0.236704
2040.83	0.0910158
2042.3	0.0130949
2043.76	-0.0132704
2045.23	0.146857
2046.69	0.897571
2048.16	0.234657
2049.62	0.868291
2051.08	-0.0840044
2052.55	0.0906391
2054.01	0.228761
2055.47	0.380956
2056.94	0.412852
2058.4	-0.0452709
2059.86	0.793662
2061.32	0.757017
2062.79	0.418725
2064.25	0.654405
2065.71	0.790696
2067.17	0.692774
2068.63	0.629486
2070.09	0.735047
2071.55	0.807078
2073.01	0.424297
2074.47	0.680896
2075.93	0.431795
2077.39	0.266292
2078.85	-0.421872
2080.31	0.135412
2081.76	0.759054
2083.22	0.657594
2084.68	0.925193
2086.13	-0.0534019
2087.59	0.514738
2089.05	0.560684
2090.51	0.740623
2091.96	0.181549
2093.42	0.310904
2094.87	0.523573
2096.33	0.718462
2097.78	0.493301
2099.24	0.769536
2100.69	0.409317
2102.15	1.086
2103.6	0.377035
2105.06	-0.112077
2106.51	0.585916
2107.96	0.33448
2109.42	0.80078
2110.87	1.39938
2112.32	0.845632
2113.77	0.839244
2115.23	0.464159
2116.68	0.753223
2118.13	0.427642
2119.58	0.187597
2121.03	0.614388
2122.48	0.645881
2123.93	1.45909
2125.38	0.53223
2126.83	0.732594
2128.28	1.17999
2129.73	1.65804
2131.18	0.97413
2132.63	0.504806
2134.08	0.648021
2135.53	1.35445
2136.97	0.740339
2138.42	1.00532
2139.87	1.15761
2141.32	1.27954
2142.76	1.46965
2144.21	1.39631
2145.66	0.959064
2147.1	0.686577
2148.55	1.02573
2150	1.76132
2151.44	1.74994
2152.89	1.57123
2154.33	0.943812
2155.78	1.14408
2157.22	0.748047
2158.66	1.61203
2160.11	1.51736
2161.55	2.00545
2163	0.888818
2164.44	1.81386
2165.88	0.998421
2167.32	1.82649
2168.77	1.63994
2170.21	1.46698
2171.65	1.6565
2173.09	1.52681
2174.53	1.24517
2175.97	1.96046
2177.41	1.46198
2178.85	1.77947
2180.29	1.63301
2181.73	1.73739
2183.17	1.49353
2184.61	1.51619
2186.05	1.173
2187.49	1.34553
2188.93	1.20199
2190.37	1.67426
2191.81	1.01418
2193.24	0.885624
2194.68	1.15462
2196.12	1.12109
2197.56	0.851524
2198.99	1.66033
2200.43	0.954302
2201.87	0.996142
2203.3	0.52458
2204.74	1.00042
2206.17	1.17906
2207.61	0.596364
2209.04	0.825347
2210.48	0.606053
2211.91	1.59297
2213.35	1.28802
2214.78	1.11539
2216.21	0.729318
2217.65	0.790895
2219.08	0.920318
2220.51	1.5786
2221.95	0.605105
2223.38	0.438496
2224.81	1.07681
2226.24	0.576221
2227.67	1.17535
2229.1	0.112413
2230.54	0.149703
2231.97	0.301262
2233.4	0.665668
2234.83	0.899642
2236.26	1.16768
2237.69	0.556258
2239.11	0.845967
2240.54	0.404594
2241.97	0.634917
2243.4	0.769355
2244.83	0.839182
2246.26	0.581813
2247.69	0.860253
2249.11	0.515659
2250.54	-0.0112514
2251.97	0.306377
2253.4	0.0366411
2254.82	0.482662
2256.25	0.0696669
2257.67	0.163739
2259.1	0.148502
2260.53	0.575809
2261.95	0.325464
2263.38	0.467188
2264.8	-0.13791
2266.23	-0.0125113
2267.65	0.160643
2269.07	1.0486
2270.5	-0.164128
2271.92	0.0057497
2273.34	0.761721
2274.77	0.214967
2276.19	0.320004
2277.61	0.360185
2279.03	0.579824
2280.46	0.359211
2281.88	0.643938
2283.3	0.145547
2284.72	-0.124569
2286.14	0.0625315
2287.56	0.348255
2288.98	0.0468378
2290.4	0.415764
2291.82	-0.0973053
2293.24	-0.169066
2294.66	0.184481
2296.08	0.210839
2297.5	0.0733786
2298.92	0.558394
2300.34	0.20825
2301.76	0.300956
2303.17	-0.294861
2304.59	0.0117435
2306.01	-0.256238
2307.43	0.543023
2308.84	-0.0221863
2310.26	-0.309182
2311.68	0.258359
2313.09	-0.210426
2314.51	0.39093
2315.92	0.746873
2317.34	0.297125
2318.75	0.474015
2320.17	0.337404
2321.58	0.232005
2323	-0.552975
2324.41	0.176826
2325.82	0.094492
2327.24	0.108556
2328.65	0.846529
2330.06	0.85916
2331.48	0.461572
2332.89	-0.114997
2334.3	-0.130473
2335.71	-0.211333
2337.12	0.578869
2338.54	-0.0139275
2339.95	0.328683
2341.36	0.242437
2342.77	-0.189152
2344.18	-0.144634
2345.59	-0.411187
2347	0.420441
2348.41	0.17074
2349.82	-0.373673
2351.23	0.209461
2352.64	0.234841
2354.04	-0.116593
2355.45	-0.468392
2356.86	0.889725
2358.27	0.146624
2359.68	0.315187
2361.08	0.0290823
2362.49	0.424528
2363.9	0.154923
2365.3	-0.631908
2366.71	0.1832
2368.12	0.303273
2369.52	-0.0592403
2370.93	-0.145148
2372.33	0.23828
2373.74	-0.246677
2375.14	0.122521
2376.55	-0.426219
2377.95	-0.573948
2379.36	0.160032
2380.76	0.215979
2382.16	-0.227497
2383.57	0.321648
2384.97	0.40514
2386.37	0.217417
2387.78	0.031477
2389.18	-0.0247269
2390.58	0.351245
2391.98	0.505602
2393.38	0.231758
2394.79	0.198063
2396.19	-0.375042
2397.59	-0.263394
2398.99	0.0556164
2400.39	0.07341
2401.79	-0.194216
2403.19	0.284734
2404.59	0.0960884
2405.99	0.430077
2407.39	-0.126204
2408.78	0.157361
2410.18	0.281574
2411.58	0.358435
2412.98	0.198903
2414.38	-0.0694094
2415.77	-0.00295448
2417.17	-0.235267
2418.57	0.182959
2419.97	-0.0949068
2421.36	0.213049
2422.76	0.377996
2424.15	-0.186314
2425.55	0.231782
2426.95	-0.189233
2428.34	0.69081
2429.74	0.272467
2431.13	0.44195
2432.52	0.183238
2433.92	0.399972
2435.31	0.217997
2436.71	-0.157004
2438.1	0.260056
2439.49	-0.0239353
2440.89	0.484796
2442.28	0.0557222
2443.67	0.451659
2445.06	-0.15229
2446.46	0.242873
2447.85	0.589931
2449.24	0.477268
2450.63	0.127541
2452.02	-0.189464
2453.41	-0.568412
2454.8	0.019105
2456.19	0.132953
2457.58	-0.100698
2458.97	-0.176359
2460.36	-0.221217
2461.75	0.317748
2463.14	0.159718
2464.53	0.285272
2465.92	0.520774
2467.31	-0.0649414
2468.69	0.29648
2470.08	0.0106506
2471.47	0.228835
2472.86	0.162171
2474.24	-0.0630169
2475.63	-0.131571
2477.02	0.0194464
2478.4	-0.00264168
2479.79	-0.0715399
2481.17	-0.202796
2482.56	-0.161591
2483.94	0.144999
2485.33	0.262018
2486.72	-0.372856
2488.1	-0.102853
2489.48	0.16533
2490.87	0.136821
2492.25	0.0158606
2493.64	0.316026
2495.02	0.369425
2496.4	0.223189
2497.79	0.0475473
2499.17	-0.0654936
2500.55	-0.147915
2501.93	0.263197
2503.31	-0.300692
2504.69	0.616
2506.08	-0.380914
2507.46	0.240064
2508.84	-0.0318794
2510.22	0.127407
2511.6	0.517472
2512.98	0.448152
2514.36	0.0892725
2515.74	0.176137
2517.12	0.325267
2518.5	-0.396386
2519.88	-0.169582
2521.25	-0.0808496
2522.63	0.464721
2524.01	0.337133
2525.39	0.513419
2526.77	0.947839
2528.14	0.910466
2529.52	1.10296
2530.9	0.598657
2532.27	-0.0089798
2533.65	0.175737
2535.03	0.255222
2536.4	0.273905
2537.78	0.185257
2539.15	0.110368
2540.53	0.322711
2541.9	0.185227
2543.28	0.730978
2544.65	-0.618403
2546.03	0.127548
2547.4	0.314104
2548.77	0.441344
2550.15	-0.493382
2551.52	0.528652
2552.89	0.350473
2554.27	0.519711
2555.64	0.0957565
2557.01	0.232329
2558.38	0.0501604
2559.75	-0.146693
2561.12	-0.00923824
2562.5	0.0685148
2563.87	0.0259161
2565.24	0.332516
2566.61	-0.0878983
2567.98	-0.174801
2569.35	0.708286
2570.72	0.424376
2572.09	0.0798588
2573.46	0.22049
2574.83	0.36128
2576.19	0.320212
2577.56	0.0364265
2578.93	0.389107
2580.3	0.619965
2581.67	0.364951
2583.04	-0.254501
2584.4	-0.131377
2585.77	-0.1448
2587.14	-0.188375
2588.5	0.465484
2589.87	0.0889225
2591.23	0.106224
2592.6	-0.0892963
2593.97	-0.104169
2595.33	-0.196283
2596.7	0.103671
2598.06	0.205417
2599.43	-0.0262003
2600.79	0.407434
2602.15	-0.0345974
2603.52	0.279582
2604.88	-0.129937
2606.25	0.305894
2607.61	0.137775
2608.97	0.330257
2610.33	0.400159
2611.7	0.00132465
2613.06	-0.23323
2614.42	0.688155
2615.78	0.526752
2617.15	-0.0237627
2618.51	0.431137
2619.87	0.691894
2621.23	0.101093
2622.59	0.169429
2623.95	-0.284609
2625.31	0.69446
2626.67	0.195477
2628.03	0.680179
2629.39	0.121352
2630.75	0.217695
2632.1	0.269106
2633.46	0.231222
2634.82	0.252713
2636.18	0.377923
2637.54	-0.0453863
2638.89	0.0798922
2640.25	0.13121
2641.61	-0.305037
2642.97	-0.31181
2644.32	0.818437
2645.68	0.250425
2647.03	0.37549
2648.39	0.440365
2649.75	0.533274
2651.1	0.330861
2652.46	0.480804
2653.81	0.0292082
2655.17	0.209867
2656.52	0.274711
2657.88	0.47297
2659.23	0.0726337
2660.58	0.126629
2661.94	0.45805
2663.29	0.218557
2664.64	-0.0656872
2666	-0.350689
2667.35	-0.169626
2668.7	-0.353081
2670.05	0.104346
2671.4	-0.383224
2672.76	0.162449
2674.11	0.519616
2675.46	-0.225822
2676.81	0.103902
2678.16	-0.0152588
2679.51	-0.162113
2680.86	0.0115795
2682.21	0.795979
2683.56	-0.491182
2684.91	0.122612
2686.26	-0.133048
2687.61	0.307646
2688.96	0.311254
2690.3	-0.166803
2691.65	-0.212064
2693	0.306225
2694.35	0.517958
2695.7	0.642158
2697.04	0.0138893
2698.39	-0.1341
2699.74	0.38652
2701.08	0.736063
2702.43	0.233538
2703.77	0.239483
2705.12	1.00011
2706.47	0.0210533
2707.81	0.5353
2709.16	0.541265
2710.5	0.561142
2711.85	0.464373
2713.19	0.890431
2714.53	0.691606
2715.88	0.550718
2717.22	0.729492
2718.57	0.0350885
2719.91	0.663934
2721.25	0.52097
2722.59	0.537299
2723.94	0.916769
2725.28	0.320318
2726.62	0.727586
2727.96	0.406595
2729.3	0.478185
2730.65	0.462211
2731.99	0.402526
2733.33	0.735744
2734.67	0.50188
2736.01	0.399262
2737.35	0.325953
2738.69	0.703462
2740.03	0.25164
2741.37	1.00602
2742.71	0.799639
2744.05	0.592234
2745.38	0.500179
2746.72	0.785064
2748.06	0.474242
2749.4	0.52647
2750.74	0.433913
2752.07	0.15335
2753.41	0.148699
2754.75	0.0428886
2756.09	0.733955
2757.42	-0.109994
2758.76	0.508963
2760.09	0.766401
2761.43	0.199669
2762.77	0.516457
2764.1	0.254948
2765.44	0.774757
2766.77	0.223223
2768.11	0.422592
2769.44	0.590923
2770.77	0.612271
2772.11	0.47255
2773.44	0.663252
2774.77	0.232778
2776.11	0.177461
2777.44	0.511366
2778.77	0.486067
2780.11	0.619703
2781.44	0.207953
2782.77	0.09828
2784.1	0.720093
2785.43	0.380752
2786.77	0.142376
2788.1	-0.123589
2789.43	0.155581
2790.76	-0.422249
2792.09	0.131032
2793.42	0.255905
2794.75	0.037797
2796.08	0.276519
2797.41	-0.157089
2798.74	0.00844193
2800.07	0.372964
2801.4	0.0377235
2802.72	0.0161867
2804.05	0.464552
2805.38	0.484453
2806.71	0.0478973
2808.04	-0.00501919
2809.36	0.282558
2810.69	0.484482
2812.02	0.261283
2813.34	0.621614
2814.67	0.544398
2816	0.653806
2817.32	0.396491
2818.65	0.480317
2819.97	0.76262
2821.3	0.661536
2822.62	0.48855
2823.95	0.243775
2825.27	-0.171426
2826.6	0.617312
2827.92	0.287991
2829.25	0.412655
2830.57	1.17505
2831.89	0.352322
2833.22	0.888456
2834.54	0.815419
2835.86	1.29356
2837.18	1.61502
2838.51	1.58195
2839.83	1.97281
2841.15	1.86876
2842.47	2.62769
2843.79	2.80799
2845.11	3.31456
2846.43	3.31345
2847.76	3.4826
2849.08	3.8497
2850.4	4.11738
2851.72	4.32765
2853.04	4.69241
2854.36	4.61832
2855.67	4.95362
2856.99	4.62484
2858.31	5.24258
2859.63	5.56355
2860.95	5.48874
2862.27	5.37102
2863.58	4.98451
2864.9	5.81118
2866.22	6.14362
2867.54	6.06737
2868.85	6.47136
2870.17	6.74912
2871.49	7.30906
2872.8	6.50126
2874.12	6.83375
2875.43	7.27675
2876.75	6.97113
2878.07	7.46632
2879.38	7.7213
2880.7	7.92035
2882.01	7.83975
2883.32	8.5899
2884.64	7.46005
2885.95	8.25513
2887.27	8.67112
2888.58	9.17027
2889.89	9.09245
2891.21	8.56428
2892.52	8.53987
2893.83	9.56579
2895.14	9.48526
2896.46	9.23848
2897.77	10.1274
2899.08	9.43717
2900.39	9.97982
2901.7	9.68405
2903.01	10.0882
2904.32	10.6044
2905.63	10.7576
2906.94	10.9258
2908.25	11.5854
2909.56	12.3169
2910.87	12.0144
2912.18	11.4738
2913.49	11.9115
2914.8	12.5705
2916.11	12.1898
2917.42	13.0515
2918.72	12.5955
2920.03	13.2862
2921.34	13.866
2922.65	13.7911
2923.95	13.8031
2925.26	14.0413
2926.57	14.5464
2927.88	13.6818
2929.18	14.396
2930.49	14.6897
2931.79	15.2619
2933.1	14.6174
2934.4	14.3782
2935.71	13.3288
2937.01	14.4878
2938.32	14.124
2939.62	13.9983
2940.93	13.3706
2942.23	13.108
2943.54	12.8898
2944.84	12.7022
2946.14	11.9575
2947.45	11.5074
2948.75	11.1405
2950.05	10.8412
2951.35	10.6084
2952.66	10.3999
2953.96	10.3146
2955.26	9.78064
2956.56	9.23439
2957.86	8.91587
2959.16	8.54622
2960.46	8.48956
2961.77	8.80115
2963.07	7.85218
2964.37	7.91177
2965.66	7.18224
2966.96	7.51717
2968.26	7.99054
2969.56	7.4784
2970.86	7.10643
2972.16	6.72075
2973.46	6.78584
2974.76	6.56949
2976.06	6.25343
2977.35	6.20262
2978.65	6.66977
2979.95	5.72594
2981.25	6.45479
2982.54	6.63342
2983.84	5.36437
2985.14	5.74256
2986.43	5.42072
2987.73	5.11567
2989.02	4.74222
2990.32	4.35523
2991.62	4.47339
2992.91	4.25247
2994.21	3.38308
2995.5	3.62188
2996.8	3.85922
2998.09	3.49253
2999.38	2.2569
3000.68	2.88806
3001.97	2.72083
3003.26	2.77867
3004.56	2.72465
3005.85	1.99807
3007.14	2.04098
3008.43	2.09651
3009.73	1.77298
3011.02	1.51853
3012.31	1.80828
3013.6	1.42793
3014.89	1.41132
3016.19	0.880455
3017.48	1.17293
3018.77	1.00679
3020.06	0.86886
3021.35	0.730464
3022.64	1.2021
3023.93	0.866549
3025.22	1.12656
3026.5	0.734727
3027.79	0.607317
3029.08	0.219223
3030.37	0.386724
3031.66	0.694516
3032.95	0.341186
3034.24	0.499333
3035.52	0.215209
3036.81	0.287933
3038.1	0.247678
3039.39	0.411077
3040.67	0.241801
3041.96	0.455888
3043.25	0.312925
3044.53	0.199077
3045.82	-0.376807
3047.1	-0.0056591
3048.39	-0.177535
3049.67	0.0361853
3050.96	-0.389017
3052.24	0.128721
3053.53	0.223583
3054.81	0.153856
3056.1	0.750923
3057.38	0.487059
3058.67	0.481141
3059.95	-0.178727
3061.23	0.101748
3062.52	0.614678
3063.8	0.558362
3065.08	-0.0528126
3066.36	0.208397
3067.65	0.444125
3068.93	0.43587
3070.21	0.0873194
3071.49	0.0367851
3072.77	0.120523
3074.05	0.338369
3075.33	0.500293
3076.61	-0.0989075
3077.89	0.280466
3079.17	0.00996113
3080.45	0.148934
3081.73	-0.00802612
3083.01	0.406794
3084.29	-0.289685
3085.57	-0.00903511
3086.85	0.298308
3088.13	-0.589732
3089.41	-0.107815
3090.68	0.291973
3091.96	0.230209
3093.24	-0.319482
3094.52	0.216498
3095.79	0.3054
3097.07	0.136975
3098.35	0.253267
3099.62	-0.579069
3100.9	0.0926743
3102.18	0.0871315
3103.45	0.366439
3104.73	0.0103474
3106	0.332283
3107.28	0.00612259
3108.55	-0.128895
3109.83	0.265675
3111.1	0.55375
3112.38	0.0306578
3113.65	0.212584
3114.93	0.164348
3116.2	0.00705814
3117.47	0.526741
3118.75	0.0684128
3120.02	0.137579
3121.29	0.91046
3122.57	0.475856
3123.84	0.271729
3125.11	0.379622
3126.38	0.66416
3127.65	0.746594
3128.92	0.829946
3130.2	0.819338
3131.47	0.606294
3132.74	0.744711
3134.01	0.585485
3135.28	0.817298
3136.55	0.575908
3137.82	0.887027
3139.09	0.591076
3140.36	0.645474
3141.63	1.09002
3142.9	0.983565
3144.17	0.824509
3145.43	1.04242
3146.7	0.591001
3147.97	1.07918
3149.24	0.992096
