200.554	0.565742
202.369	0.575934
204.183	0.587362
205.999	-0.0563316
207.813	0.00609303
209.626	0.578289
211.439	-0.454281
213.253	0.308998
215.065	0.56068
216.877	-0.230676
218.688	0.287244
220.5	0.345686
222.312	-0.271712
224.123	-0.476089
225.933	-0.171868
227.742	0.78459
229.552	0.122153
231.361	-0.540219
233.171	0.655338
234.98	0.76549
236.787	-0.231222
238.595	0.125197
240.402	0.171846
242.209	-0.477528
244.015	0.249539
245.822	0.542866
247.627	0.496393
249.435	0.494657
251.24	0.706041
253.045	0.35859
254.849	0.564091
256.653	0.383316
258.457	0.49327
260.26	0.557483
262.063	1.4436
263.866	-0.389997
265.668	0.187042
267.47	0.0900908
269.271	0.137444
271.073	-0.467107
272.873	-0.807937
274.674	0.489009
276.474	0.771093
278.274	0.0384865
280.073	0.411787
281.872	0.444986
283.671	0.740197
285.47	1.12909
287.268	0.364291
289.065	1.20756
290.863	0.469586
292.66	0.117822
294.456	0.199393
296.253	1.14373
298.049	0.894011
299.844	0.382504
301.637	-0.39159
303.432	0.433467
305.227	0.731193
307.021	0.788932
308.815	0.488902
310.609	0.0710115
312.402	0.988991
314.195	0.123142
315.987	0.617415
317.777	1.37641
319.569	0.68499
321.36	0.495327
323.151	0.712109
324.942	1.35941
326.733	0.670637
328.521	0.506372
330.31	1.10611
332.1	1.20255
333.889	1.10521
335.677	1.00477
337.464	-0.462854
339.252	0.387815
341.039	1.61851
342.826	0.28947
344.611	0.586359
346.398	1.05105
348.184	0.704742
349.97	1.43368
351.754	0.634888
353.539	0.647027
355.324	0.633861
357.106	0.666565
358.89	0.101698
360.674	0.417105
362.455	0.707044
364.239	0.615112
366.021	0.593648
367.804	0.689837
369.584	0.334168
371.366	0.712312
373.145	0.0240831
374.926	1.34558
376.707	0.587149
378.485	0.467851
380.265	1.48087
382.045	0.611041
383.822	0.732309
385.601	1.44307
387.378	0.157779
389.156	1.13013
390.934	0.224657
392.71	0.00165462
394.487	0.131849
396.262	0.943666
398.038	1.05119
399.813	0.618289
401.588	0.325727
403.362	0.0792837
405.137	0.677387
406.912	0.170683
408.685	-0.148818
410.459	0.1652
412.23	0.620015
414.004	0.770333
415.775	0.734011
417.548	0.698933
419.318	0.35973
421.089	0.419829
422.86	0.667432
424.63	1.14886
426.401	0.619559
428.17	0.535153
429.94	0.661412
431.708	0.294799
433.478	0.538954
435.245	0.267302
437.012	0.840547
438.781	0.0281248
440.547	1.60725
442.315	0.883798
444.081	0.251696
445.846	0.742266
447.613	0.36444
449.378	-0.0366755
451.142	-0.203264
452.908	0.564607
454.672	0.351976
456.435	0.489269
458.2	0.0439997
459.963	-0.190991
461.725	-0.192109
463.489	0.738614
465.251	0.41743
467.012	0.565099
468.775	0.0658293
470.536	0.26634
472.296	1.7943
474.056	0.133069
475.817	0.936821
477.576	0.596416
479.335	0.323292
481.094	0.491454
482.854	0.0543489
484.612	-0.0550089
486.37	0.443979
488.127	1.01627
489.886	0.519295
491.642	1.58714
493.398	1.09232
495.154	1.04127
496.91	1.08365
498.667	0.211885
500.422	0.604322
502.176	0.574026
503.93	1.01222
505.684	1.02627
507.438	0.356373
509.191	-0.0809889
510.946	0.34986
512.698	1.41398
514.45	-0.37118
516.202	0.335979
517.954	0.68836
519.705	0.427907
521.456	0.824532
523.206	0.562574
524.956	1.02821
526.706	0.437732
528.456	0.387171
530.207	0.54741
531.956	0.777164
533.704	0.794837
535.452	0.57692
537.2	0.520967
538.947	0.416481
540.694	0.100736
542.441	0.11073
544.188	0.236521
545.934	0.315521
547.68	8.29697e-005
549.425	0.126143
551.17	0.761626
552.915	0.100747
554.659	0.758533
556.403	0.630601
558.145	0.503504
559.889	0.792028
561.632	0.390319
563.375	1.1631
565.117	-0.20191
566.859	0.686807
568.601	-0.30685
570.342	0.76715
572.083	0.397102
573.824	-0.635721
575.565	1.0408
577.303	0.746889
579.043	0.0414314
580.782	0.668495
582.521	0.170286
584.26	0.268581
585.998	-0.255441
587.734	-0.459389
589.472	0.186283
591.21	0.853806
592.947	-0.25097
594.684	0.369629
596.418	-0.413147
598.154	0.0694056
599.89	-0.391816
601.626	0.0430393
603.361	0.108047
605.094	-0.0358686
606.828	0.186231
608.562	0.177374
610.296	-0.24472
612.027	0.251819
613.761	0.886515
615.493	0.902855
617.224	0.919402
618.956	-0.622108
620.688	0.0795259
622.419	0.0924349
624.149	0.675665
625.879	0.20735
627.61	0.699969
629.338	-0.12866
631.068	-0.0866747
632.797	0.0264635
634.525	0.916997
636.254	0.36916
637.98	-0.112708
639.708	0.588613
641.436	0.258859
643.162	0.564363
644.889	0.252942
646.614	0.101838
648.34	0.4309
650.067	0.241376
651.791	0.261648
653.516	0.696374
655.239	0.317251
656.964	0.805825
658.687	-0.139484
660.411	-0.0149088
662.133	-0.0292997
663.857	0.204601
665.58	0.45834
667.301	0.618163
669.024	0.685579
670.744	0.6169
672.464	0.0702267
674.186	1.1751
675.905	0.794726
677.626	-0.158317
679.345	0.770261
681.065	-0.185969
682.783	1.24661
684.503	0.652235
686.22	0.722388
687.939	0.721314
689.656	0.557513
691.372	0.69214
693.09	0.941049
694.806	1.18884
696.523	1.20485
698.239	0.505543
699.953	0.886505
701.67	0.529564
703.384	0.677379
705.098	1.44411
706.813	0.786119
708.526	0.47253
710.239	0.410944
711.954	0.875458
713.666	0.721205
715.378	0.681204
717.091	0.435706
718.802	0.167969
720.513	0.994843
722.226	0.590856
723.936	0.756405
725.646	1.46705
727.355	0.131964
729.067	0.818189
730.776	0.595755
732.484	1.07528
734.192	1.53095
735.902	1.17213
737.61	1.55965
739.317	0.593886
741.024	1.27652
742.731	1.53183
744.439	1.4285
746.145	1.05721
747.851	0.260635
749.556	0.343338
751.262	1.23738
752.966	1.166
754.673	0.646511
756.377	0.893872
758.081	1.16599
759.784	0.403939
761.487	0.972536
763.19	1.24929
764.892	1.07442
766.594	1.1011
768.296	1.71308
770	0.98837
771.701	1.00698
773.402	0.933297
775.102	1.22083
776.803	2.11955
778.503	1.48254
780.202	2.45317
781.901	2.61141
783.6	1.86461
785.299	1.09312
786.997	1.85762
788.695	1.39548
790.393	1.40432
792.09	1.99714
793.787	2.36096
795.484	1.28013
797.18	1.71248
798.877	1.78607
800.572	1.70447
802.268	1.73732
803.963	2.15331
805.658	1.30984
807.35	1.29735
809.044	1.21592
810.738	1.49207
812.432	1.04904
814.125	1.05407
815.818	1.21545
817.51	1.68963
819.202	1.9396
820.894	1.94376
822.584	1.70304
824.275	0.594218
825.966	1.18212
827.657	1.74998
829.347	1.69769
831.037	1.38224
832.725	1.51596
834.414	1.34048
836.103	1.00991
837.792	1.48208
839.481	1.68521
841.167	1.28324
842.854	1.41551
844.542	1.3461
846.229	1.92582
847.914	1.4127
849.6	1.34981
851.287	1.11096
852.973	1.34487
854.656	1.71506
856.341	0.872707
858.026	1.37627
859.711	1.67593
861.393	1.16289
863.077	1.75103
864.761	1.41388
866.442	1.12035
868.125	1.47974
869.808	1.72589
871.489	1.13705
873.171	0.931278
874.85	1.40226
876.532	1.24149
878.213	1.50951
879.892	0.851951
881.572	1.3902
883.251	0.97934
884.931	0.567015
886.61	1.50712
888.287	1.31649
889.966	1.03365
891.643	0.839292
893.321	0.575879
894.997	1.23386
896.675	0.945085
898.352	1.12709
900.028	1.68875
901.704	0.522936
903.379	0.99264
905.055	0.298862
906.729	1.52657
908.404	1.48149
910.077	1.14826
911.75	1.08386
913.425	1.10936
915.097	0.780032
916.771	0.362615
918.443	0.987464
920.116	0.969207
921.787	0.487229
923.46	0.692722
925.13	0.900082
926.8	0.866781
928.472	0.548778
930.141	0.740056
931.813	1.54988
933.481	0.639136
935.15	1.16257
936.82	0.561665
938.488	0.513334
940.156	0.554811
941.825	0.818462
943.492	0.906631
945.158	0.2
946.827	0.882287
948.493	1.05446
950.158	1.13574
951.824	0.752066
953.491	0.280559
955.156	0.847736
956.82	0.801116
958.486	-0.454523
960.15	0.587629
961.814	0.48445
963.477	-0.215993
965.142	0.341211
966.804	1.42638
968.467	-0.0806885
970.129	0.356573
971.79	0.571434
973.454	0.18978
975.115	0.186042
976.776	0.604852
978.436	1.22487
980.096	0.828146
981.756	0.430599
983.417	1.20438
985.077	0.425918
986.736	1.50402
988.394	1.00818
990.052	0.710113
991.71	0.389413
993.368	-0.0857306
995.025	0.543474
996.682	0.819124
998.341	0.873908
999.998	1.10458
1001.65	0.91601
1003.31	0.639065
1004.97	0.66993
1006.62	0.283083
1008.28	0.116537
1009.93	0.213964
1011.58	-0.0609608
1013.24	0.519736
1014.89	0.574588
1016.54	0.34534
1018.2	1.29851
1019.85	0.174254
1021.5	-0.510521
1023.16	-0.275514
1024.81	-0.0175495
1026.46	-0.283381
1028.11	-0.243275
1029.76	0.822717
1031.41	0.2049
1033.06	0.0438519
1034.71	0.0990057
1036.36	1.04614
1038.01	0.857996
1039.66	1.45365
1041.31	0.113603
1042.95	0.88554
1044.6	0.268563
1046.25	1.17501
1047.9	0.715514
1049.54	1.56134
1051.19	0.323879
1052.84	0.499184
1054.48	1.26175
1056.13	0.416239
1057.77	0.222147
1059.42	0.440445
1061.06	0.61443
1062.71	0.526432
1064.35	0.393699
1066	-0.066493
1067.64	0.080637
1069.28	0.269853
1070.93	0.0237627
1072.57	1.34058
1074.21	0.140111
1075.85	-0.429107
1077.49	0.738563
1079.13	-0.347627
1080.78	0.909142
1082.42	0.604539
1084.06	0.754045
1085.7	0.944592
1087.34	-0.189481
1088.97	0.580435
1090.61	0.286764
1092.25	0.445962
1093.89	0.129152
1095.53	-0.229941
1097.17	0.361139
1098.8	0.845408
1100.44	-0.239972
1102.08	0.29202
1103.71	0.266686
1105.35	0.694778
1106.99	0.779378
1108.62	0.00328922
1110.26	0.0860119
1111.89	0.360015
1113.52	0.0731163
1115.16	0.385986
1116.79	-0.160384
1118.43	0.0658932
1120.06	0.935498
1121.69	-0.207212
1123.32	-0.0204906
1124.96	0.274335
1126.59	0.441803
1128.22	0.653009
1129.85	0.587157
1131.48	0.222788
1133.11	0.713949
1134.75	-0.398343
1136.37	0.775616
1138	0.302382
1139.63	0.639452
1141.26	0.334406
1142.89	-0.0990362
1144.52	0.598522
1146.15	-0.622218
1147.78	0.0132275
1149.4	0.521587
1151.03	-0.141163
1152.66	-0.0583086
1154.28	0.513675
1155.91	0.0206604
1157.54	0.166073
1159.16	0.120493
1160.79	-0.136554
1162.41	0.0544605
1164.04	-0.157204
1165.66	-0.219403
1167.29	0.164507
1168.91	0.270526
1170.53	0.289178
1172.16	0.496371
1173.78	0.594769
1175.4	0.436777
1177.02	0.320748
1178.65	0.0992975
1180.27	-0.311365
1181.89	0.0623474
1183.51	-0.366878
1185.13	0.155165
1186.75	-0.211581
1188.37	0.538217
1189.99	-0.02279
1191.61	0.0674915
1193.23	0.554994
1194.85	0.368261
1196.47	0.957826
1198.08	0.898131
1199.7	0.820173
1201.32	0.0562344
1202.94	1.00913
1204.55	0.148979
1206.17	0.982259
1207.79	0.00205421
1209.4	0.607714
1211.02	-0.0393219
1212.63	0.541762
1214.25	0.84838
1215.86	0.485217
1217.48	0.265857
1219.09	0.294959
1220.71	0.220104
1222.32	1.18321
1223.93	0.0536995
1225.54	0.563619
1227.16	0.805941
1228.77	0.42946
1230.38	-0.151775
1231.99	0.447106
1233.6	-0.110003
1235.22	0.636644
1236.83	-0.123904
1238.44	0.811873
1240.05	1.00452
1241.66	0.576968
1243.26	0.810768
1244.87	0.691826
1246.48	0.0127687
1248.09	0.905005
1249.7	1.11332
1251.31	0.990198
1252.92	0.5158
1254.52	1.03528
1256.13	0.584105
1257.74	0.506866
1259.34	0.513914
1260.95	0.729134
1262.55	1.19363
1264.16	1.34774
1265.76	1.41847
1267.37	0.638329
1268.97	1.07978
1270.58	0.980819
1272.18	0.83894
1273.78	0.52982
1275.39	0.841309
1276.99	1.1721
1278.59	0.880127
1280.2	0.111337
1281.8	0.853655
1283.4	0.788696
1285	1.53103
1286.6	1.26118
1288.2	0.868906
1289.8	1.15996
1291.4	0.831708
1293	1.45378
1294.6	1.37225
1296.2	1.10306
1297.8	1.65755
1299.4	1.48704
1301	1.43835
1302.6	1.67636
1304.19	1.2541
1305.79	1.4895
1307.39	1.57995
1308.99	1.66982
1310.58	1.7595
1312.18	1.84958
1313.77	1.87921
1315.37	1.78764
1316.96	1.90172
1318.56	2.13882
1320.15	1.51914
1321.75	1.67311
1323.34	1.70252
1324.94	0.77413
1326.53	1.18587
1328.12	1.37282
1329.72	0.709815
1331.31	1.1426
1332.9	1.5776
1334.49	0.783443
1336.08	1.92956
1337.67	1.48189
1339.27	1.39653
1340.86	1.75201
1342.45	1.48005
1344.04	1.72848
1345.63	1.41275
1347.22	1.67955
1348.8	1.20714
1350.39	1.37941
1351.98	1.41499
1353.57	0.833607
1355.16	0.973865
1356.75	1.5541
1358.33	1.59403
1359.92	1.39296
1361.51	0.990993
1363.09	1.62556
1364.68	0.684071
1366.27	1.61685
1367.85	1.0762
1369.44	0.955749
1371.02	1.45423
1372.61	0.82027
1374.19	1.32207
1375.77	1.36714
1377.36	1.03421
1378.94	1.6756
1380.52	1.38029
1382.11	1.68
1383.69	0.864119
1385.27	1.16062
1386.85	1.45625
1388.43	2.02984
1390.02	1.07555
1391.6	1.59156
1393.18	1.07683
1394.76	1.53466
1396.34	1.29799
1397.92	1.19919
1399.5	1.13869
1401.08	2.2256
1402.65	1.56868
1404.23	1.09053
1405.81	1.14749
1407.39	1.48229
1408.97	1.16604
1410.54	1.1272
1412.12	1.16727
1413.7	1.54203
1415.27	1.59951
1416.85	0.926105
1418.43	0.844208
1420	0.920481
1421.58	1.56919
1423.15	0.900831
1424.73	2.1835
1426.3	2.20818
1427.87	1.89901
1429.45	2.53416
1431.02	2.24286
1432.6	2.57962
1434.17	2.16726
1435.74	1.73486
1437.31	2.2271
1438.89	1.97324
1440.46	2.07469
1442.03	2.37402
1443.6	2.06511
1445.17	2.52326
1446.74	2.76551
1448.31	1.98585
1449.88	2.11081
1451.45	2.29547
1453.02	2.69731
1454.59	2.90314
1456.16	3.24672
1457.72	3.03837
1459.29	2.37535
1460.86	2.33953
1462.43	2.69445
1463.99	2.02413
1465.56	1.98185
1467.13	2.1945
1468.69	1.9363
1470.26	1.46379
1471.83	2.26835
1473.39	1.85803
1474.95	2.15491
1476.52	1.58961
1478.08	2.04402
1479.65	2.20419
1481.21	2.61897
1482.78	2.4848
1484.34	2.1937
1485.9	2.21558
1487.47	2.35376
1489.03	2.15701
1490.59	1.76201
1492.15	1.98994
1493.71	1.94082
1495.27	1.69411
1496.84	1.25164
1498.39	1.72453
1499.96	1.47801
1501.52	1.19481
1503.07	0.235173
1504.64	0.964068
1506.19	1.49839
1507.75	1.2766
1509.31	0.55152
1510.87	1.33144
1512.43	0.566646
1513.98	0.746304
1515.54	0.00322437
1517.1	0.856109
1518.65	0.691815
1520.21	0.950088
1521.77	0.480997
1523.32	0.107992
1524.88	1.41469
1526.44	0.772025
1527.99	1.10081
1529.54	0.306166
1531.1	0.89973
1532.65	0.639209
1534.21	0.551012
1535.76	1.16425
1537.31	1.28622
1538.87	0.653979
1540.42	0.739992
1541.97	0.750596
1543.52	0.591672
1545.07	0.771189
1546.63	0.818567
1548.18	0.190216
1549.73	1.45609
1551.28	1.3903
1552.83	1.58727
1554.38	0.81345
1555.93	1.16331
1557.48	0.936599
1559.03	0.694139
1560.57	0.37975
1562.12	1.28009
1563.67	0.745466
1565.22	1.14442
1566.77	1.301
1568.31	1.28931
1569.86	1.1464
1571.41	1.50695
1572.95	1.69912
1574.5	1.21908
1576.05	1.2431
1577.59	1.73413
1579.14	0.918923
1580.68	1.43014
1582.23	1.62513
1583.77	1.39173
1585.31	1.90676
1586.86	1.05803
1588.4	1.01304
1589.95	2.33371
1591.49	1.89513
1593.03	1.51175
1594.57	2.00809
1596.11	2.2425
1597.66	1.61552
1599.2	2.11404
1600.74	2.03246
1602.28	1.68869
1603.82	2.35855
1605.36	2.05107
1606.9	2.28635
1608.44	2.21812
1609.98	1.90219
1611.52	2.09037
1613.06	1.37419
1614.6	1.23885
1616.13	1.92836
1617.67	2.07415
1619.21	1.79062
1620.75	1.04128
1622.28	1.13674
1623.82	1.58896
1625.36	0.974072
1626.89	0.975916
1628.43	1.61207
1629.96	1.4417
1631.5	1.5691
1633.04	1.35964
1634.57	1.16955
1636.11	0.999429
1637.64	1.44613
1639.17	1.50183
1640.71	1.24068
1642.24	1.40731
1643.77	1.19986
1645.31	1.60507
1646.84	1.2833
1648.37	1.53761
1649.9	1.92211
1651.43	1.88072
1652.96	2.2121
1654.5	1.22844
1656.03	1.82169
1657.56	1.4139
1659.09	1.43127
1660.62	1.24322
1662.15	1.01642
1663.67	1.26905
1665.2	1.39124
1666.73	1.51377
1668.26	0.992194
1669.79	1.5423
1671.32	1.50436
1672.84	1.08114
1674.37	1.2296
1675.9	1.54329
1677.43	0.788239
1678.95	0.749759
1680.48	1.26148
1682	0.411931
1683.53	0.719827
1685.05	0.605401
1686.58	0.65663
1688.1	0.341842
1689.63	1.21858
1691.15	0.501863
1692.68	0.938844
1694.2	0.131525
1695.72	-0.0170794
1697.25	0.108204
1698.77	0.725934
1700.29	0.502861
1701.81	0.552916
1703.33	0.857254
1704.86	0.650497
1706.38	0.643598
1707.9	0.21822
1709.42	0.356514
1710.94	0.494683
1712.46	0.723506
1713.98	0.517373
1715.5	-0.1228
1717.02	0.775374
1718.54	0.244189
1720.06	0.237438
1721.57	0.609818
1723.09	0.423527
1724.61	0.0586948
1726.13	-0.285959
1727.64	0.199389
1729.16	0.487744
1730.68	0.325872
1732.19	0.30672
1733.71	0.620001
1735.23	0.337897
1736.74	0.397376
1738.26	0.381939
1739.77	0.507956
1741.29	0.179046
1742.8	0.522877
1744.31	0.433288
1745.83	0.352898
1747.34	0.106271
1748.85	0.321209
1750.37	0.314752
1751.88	0.173033
1753.39	0.0871439
1754.91	0.018446
1756.42	-0.0755005
1757.93	-0.34979
1759.44	-0.00913143
1760.95	0.295388
1762.46	0.216736
1763.97	-0.219479
1765.48	-0.387043
1766.99	-0.18983
1768.5	-0.0380936
1770.01	0.011301
1771.52	0.387314
1773.03	0.636465
1774.54	0.433866
1776.04	0.162419
1777.55	0.272312
1779.06	0.114683
1780.57	-0.123991
1782.07	0.555691
1783.58	-0.154847
1785.09	-0.0101957
1786.59	0.273973
1788.1	-0.0270262
1789.6	0.145695
1791.11	0.042098
1792.61	0.336774
1794.12	0.120493
1795.62	-0.3334
1797.13	0.10529
1798.63	-0.265728
1800.13	0.0272303
1801.64	-0.19395
1803.14	-0.0414801
1804.64	-0.164784
1806.15	0.0432949
1807.65	0.179249
1809.15	0.20259
1810.65	-0.0413418
1812.15	-0.182373
1813.65	-0.229941
1815.16	0.363487
1816.66	0.0637436
1818.15	0.0409603
1819.66	-0.100116
1821.16	0.157573
1822.65	-0.103186
1824.15	-0.00859642
1825.65	-0.0110474
1827.15	0.1763
1828.65	0.0817995
1830.15	0.494368
1831.64	0.000163078
1833.14	-0.221155
1834.64	0.288785
1836.14	0.0379381
1837.63	-0.113132
1839.13	0.127046
1840.62	0.105642
1842.12	-0.104487
1843.62	-0.00557804
1845.11	0.446587
1846.61	-0.119852
1848.1	0.0476828
1849.6	-0.219235
1851.09	0.0826464
1852.58	-0.0836878
1854.08	0.158157
1855.57	0.199837
1857.06	-0.0396242
1858.55	0.242625
1860.05	-0.234186
1861.54	-0.13777
1863.03	0.00367451
1864.52	0.519828
1866.01	-0.0633163
1867.5	0.316892
1869	0.0579929
1870.49	0.246479
1871.98	0.272426
1873.47	0.320109
1874.96	0.0554981
1876.44	-0.0554247
1877.93	0.118699
1879.42	0.19055
1880.91	-0.033967
1882.4	0.0758467
1882.47	0.0803022
1883.96	0.132128
1885.46	0.0261087
1886.95	0.0932674
1888.44	0.0552464
1889.94	0.27844
1891.43	0.0678501
1892.93	-0.0884705
1894.42	0.470304
1895.91	0.231284
1897.4	-0.19803
1898.89	-0.157936
1900.39	0.455062
1901.88	-0.238654
1903.37	0.387442
1904.86	0.402811
1906.35	0.104373
1907.84	-0.436944
1909.33	0.290065
1910.82	-0.248997
1912.31	0.16745
1913.8	-0.196029
1915.29	-0.385836
1916.77	0.20421
1918.26	0.238666
1919.75	0.0126238
1921.24	0.0464039
1922.73	-0.0752029
1924.21	0.0293627
1925.7	-0.072443
1927.19	0.156
1928.67	0.437257
1930.16	0.164446
1931.64	0.133064
1933.13	0.030654
1934.61	-0.0565748
1936.1	-0.163098
1937.58	0.0921278
1939.07	-0.0682755
1940.55	0.220806
1942.04	0.286233
1943.52	0.525418
1945	0.179235
1946.49	0.454381
1947.97	-0.373858
1949.45	0.0724096
1950.93	0.24156
1952.42	-0.227324
1953.9	-0.163247
1955.38	0.398946
1956.86	0.205261
1958.34	0.115631
1959.82	0.198555
1961.3	0.0763273
1962.78	0.468673
1964.26	0.363621
1965.74	-0.135839
1967.22	0.288623
1968.7	-0.0579681
1970.18	0.518192
1971.65	0.768664
1973.13	0.284733
1974.61	0.00628948
1976.09	-0.356774
1977.57	0.302842
1979.04	0.14466
1980.52	-0.013341
1982	-0.120345
1983.47	-0.210563
1984.95	0.276049
1986.42	0.184938
1987.9	0.331192
1989.37	-0.115104
1990.85	-0.0861263
1992.32	0.0961561
1993.8	-0.31221
1995.27	-0.144679
1996.75	-0.348388
1998.22	0.0391102
1999.69	0.189476
2001.17	0.254595
2002.64	0.285295
2004.11	0.568643
2005.58	0.144407
2007.05	-0.480697
2008.53	-0.009758
2010	-0.00938797
2011.47	0.19364
2012.94	0.497688
2014.41	-0.0907764
2015.88	-0.00694275
2017.35	0.445742
2018.82	-0.481476
2020.29	0.0365372
2021.76	0.285123
2023.23	-0.0704355
2024.7	0.363846
2026.16	-0.173598
2027.63	0.448146
2029.1	-0.203017
2030.57	0.556458
2032.03	0.0589628
2033.5	0.149308
2034.97	0.575581
2036.44	-0.0734386
2037.9	-0.252992
2039.37	0.0710945
2040.83	0.327981
2042.3	0.316411
2043.76	0.558033
2045.23	-0.124497
2046.69	0.270704
2048.16	-0.0407553
2049.62	0.304383
2051.08	0.00791168
2052.55	0.282802
2054.01	0.117031
2055.47	0.505609
2056.94	0.335957
2058.4	0.300203
2059.86	0.516901
2061.32	0.380323
2062.79	-0.209654
2064.25	0.278932
2065.71	0.667666
2067.17	0.569423
2068.63	0.269955
2070.09	0.458981
2071.55	0.227253
2073.01	0.550936
2074.47	0.251308
2075.93	0.288026
2077.39	0.425336
2078.85	0.14115
2080.31	0.479471
2081.76	0.41295
2083.22	0.227799
2084.68	0.664462
2086.13	0.443852
2087.59	1.36601
2089.05	0.354036
2090.51	0.216277
2091.96	0.64938
2093.42	1.0148
2094.87	0.725446
2096.33	0.636931
2097.78	0.26296
2099.24	0.574934
2100.69	0.735491
2102.15	0.311184
2103.6	0.506328
2105.06	0.736202
2106.51	0.517179
2107.96	0.916754
2109.42	0.883055
2110.87	1.01542
2112.32	0.412852
2113.77	0.524889
2115.23	0.534916
2116.68	0.577017
2118.13	0.42006
2119.58	0.79608
2121.03	0.974954
2122.48	0.907397
2123.93	0.510096
2125.38	1.02569
2126.83	0.894293
2128.28	0.993774
2129.73	0.776613
2131.18	0.955498
2132.63	0.951067
2134.08	0.86384
2135.53	0.761121
2136.97	0.990847
2138.42	1.18971
2139.87	1.35791
2141.32	1.03238
2142.76	1.12158
2144.21	1.17861
2145.66	0.557327
2147.1	0.961703
2148.55	1.19998
2150	1.08941
2151.44	1.62372
2152.89	1.26209
2154.33	1.28047
2155.78	1.18228
2157.22	1.59769
2158.66	1.38447
2160.11	1.32198
2161.55	1.29481
2163	1.6181
2164.44	1.64511
2165.88	1.67331
2167.32	1.38581
2168.77	1.54549
2170.21	0.971298
2171.65	1.50871
2173.09	1.46151
2174.53	1.31272
2175.97	1.34613
2177.41	1.18021
2178.85	1.34777
2180.29	1.31702
2181.73	1.30401
2183.17	1.34163
2184.61	1.41289
2186.05	1.26801
2187.49	1.47251
2188.93	1.1446
2190.37	1.64881
2191.81	1.37039
2193.24	1.17425
2194.68	1.00976
2196.12	1.59214
2197.56	1.02354
2198.99	1.35128
2200.43	1.17875
2201.87	1.18886
2203.3	0.967463
2204.74	0.664775
2206.17	0.529385
2207.61	1.09058
2209.04	1.02184
2210.48	1.00187
2211.91	0.666399
2213.35	0.776726
2214.78	0.226004
2216.21	1.36038
2217.65	1.2905
2219.08	0.958403
2220.51	0.512237
2221.95	0.775222
2223.38	0.87245
2224.81	0.967902
2226.24	0.238344
2227.67	1.0205
2229.1	0.649858
2230.54	0.754774
2231.97	0.695286
2233.4	1.04546
2234.83	0.300234
2236.26	0.783112
2237.69	0.630456
2239.11	0.512927
2240.54	0.316364
2241.97	0.709203
2243.4	0.842605
2244.83	0.340369
2246.26	0.261455
2247.69	0.767824
2249.11	0.570267
2250.54	0.223566
2251.97	0.331038
2253.4	0.583615
2254.82	0.088645
2256.25	-0.0142193
2257.67	0.226501
2259.1	0.0972719
2260.53	0.490697
2261.95	0.384131
2263.38	0.0683002
2264.8	0.370036
2266.23	0.0375814
2267.65	0.663663
2269.07	0.0360432
2270.5	0.839581
2271.92	0.177444
2273.34	0.0847969
2274.77	0.643792
2276.19	0.0953074
2277.61	0.638724
2279.03	0.514115
2280.46	0.161076
2281.88	0.623247
2283.3	0.400309
2284.72	0.0793896
2286.14	0.0523634
2287.56	0.417608
2288.98	0.293616
2290.4	0.660223
2291.82	0.0957022
2293.24	0.364898
2294.66	0.0943832
2296.08	0.26548
2297.5	0.25652
2298.92	0.263985
2300.34	0.288058
2301.76	0.132126
2303.17	-0.335343
2304.59	0.214579
2306.01	0.157345
2307.43	0.181806
2308.84	-0.123115
2310.26	0.442561
2311.68	0.646235
2313.09	0.0601788
2314.51	0.0831947
2315.92	0.156476
2317.34	-0.131701
2318.75	0.23972
2320.17	-0.0979071
2321.58	0.0249033
2323	0.492193
2324.41	0.296597
2325.82	0.642779
2327.24	0.73921
2328.65	0.504914
2330.06	0.287536
2331.48	0.0220242
2332.89	0.235315
2334.3	-0.0934649
2335.71	0.0388393
2337.12	0.384382
2338.54	0.449054
2339.95	0.16719
2341.36	0.492099
2342.77	0.192316
2344.18	0.253675
2345.59	0.233313
2347	0.295218
2348.41	-0.00303173
2349.82	0.32029
2351.23	0.0047121
2352.64	-0.442182
2354.04	0.0733671
2355.45	0.505553
2356.86	-0.170848
2358.27	0.471635
2359.68	0.609201
2361.08	-0.649252
2362.49	-0.0567169
2363.9	0.14572
2365.3	0.266767
2366.71	0.274625
2368.12	0.121712
2369.52	0.0832186
2370.93	-0.35666
2372.33	-0.343347
2373.74	0.138108
2375.14	-0.0564194
2376.55	0.102773
2377.95	0.0193472
2379.36	0.0788383
2380.76	-0.00823402
2382.16	0.239927
2383.57	-0.138238
2384.97	-0.0359087
2386.37	0.130529
2387.78	0.29763
2389.18	0.13098
2390.58	-0.225047
2391.98	-0.0538006
2393.38	-0.295282
2394.79	-0.0902338
2396.19	0.322147
2397.59	-0.139112
2398.99	0.306245
2400.39	0.227767
2401.79	0.165586
2403.19	-0.245904
2404.59	0.422059
2405.99	0.247368
2407.39	0.389014
2408.78	-0.311007
2410.18	0.352482
2411.58	0.239202
2412.98	0.34869
2414.38	0.285477
2415.77	0.0974121
2417.17	-0.0257225
2418.57	0.248062
2419.97	0.0948076
2421.36	0.178971
2422.76	0.595445
2424.15	0.219446
2425.55	0.350493
2426.95	0.101805
2428.34	0.504003
2429.74	-0.139097
2431.13	0.249441
2432.52	0.4798
2433.92	0.630354
2435.31	-0.0623245
2436.71	0.0850534
2438.1	0.0876379
2439.49	0.00924397
2440.89	-0.149616
2442.28	0.230707
2443.67	-0.103684
2445.06	0.27575
2446.46	-0.32832
2447.85	0.0822268
2449.24	0.207247
2450.63	0.506587
2452.02	-0.0483723
2453.41	0.125798
2454.8	0.269266
2456.19	-0.235033
2457.58	-0.0745125
2458.97	-0.0723448
2460.36	-0.149903
2461.75	0.166905
2463.14	0.229692
2464.53	-0.103273
2465.92	0.226953
2467.31	0.46205
2468.69	0.475969
2470.08	0.17421
2471.47	0.155945
2472.86	-0.115161
2474.24	0.14843
2475.63	0.316466
2477.02	0.122259
2478.4	0.0382195
2479.79	0.142805
2481.17	-0.254338
2482.56	0.101129
2483.94	-0.0454731
2485.33	0.479681
2486.72	0.0181274
2488.1	-0.178413
2489.48	0.170116
2490.87	0.190679
2492.25	-0.0214033
2493.64	-0.154116
2495.02	0.00973701
2496.4	0.438293
2497.79	0.294165
2499.17	0.444688
2500.55	-0.27157
2501.93	0.125152
2503.31	-0.113055
2504.69	-0.182178
2506.08	-0.0207653
2507.46	0.139977
2508.84	-0.191482
2510.22	0.0925665
2511.6	0.407471
2512.98	-0.227665
2514.36	-0.263385
2515.74	-0.221516
2517.12	0.249511
2518.5	-0.166085
2519.88	-0.229565
2521.25	-0.522361
2522.63	0.146071
2524.01	-0.0415325
2525.39	0.334198
2526.77	-0.0676622
2528.14	-0.285844
2529.52	0.561937
2530.9	0.316382
2532.27	0.209805
2533.65	0.408784
2535.03	0.578265
2536.4	0.185607
2537.78	-0.20777
2539.15	-0.100925
2540.53	-0.0862103
2541.9	0.140532
2543.28	0.261207
2544.65	-0.223956
2546.03	0.596872
2547.4	0.129856
2548.77	-0.10867
2550.15	-0.210572
2551.52	-0.161269
2552.89	0.266402
2554.27	0.586562
2555.64	0.541366
2557.01	0.662324
2558.38	0.434273
2559.75	0.130855
2561.12	0.222269
2562.5	-0.337228
2563.87	-0.107955
2565.24	0.136971
2566.61	0.230665
2567.98	0.263859
2569.35	0.251603
2570.72	-0.306305
2572.09	-0.121505
2573.46	0.0785694
2574.83	-0.373087
2576.19	0.342626
2577.56	0.057662
2578.93	0.303104
2580.3	0.123577
2581.67	0.125513
2583.04	0.415071
2584.4	-0.190161
2585.77	-0.0222626
2587.14	0.266985
2588.5	-0.110436
2589.87	-0.275499
2591.23	0.301854
2592.6	0.0452032
2593.97	0.227008
2595.33	0.437773
2596.7	-0.0340471
2598.06	0.340836
2599.43	-0.0109186
2600.79	0.227145
2602.15	-0.229177
2603.52	0.0101128
2604.88	0.29515
2606.25	0.00702286
2607.61	-0.190777
2608.97	0.168296
2610.33	-0.0618925
2611.7	0.323763
2613.06	0.0908175
2614.42	0.17284
2615.78	0.074275
2617.15	0.245992
2618.51	0.193446
2619.87	-0.0526066
2621.23	0.315662
2622.59	0.504744
2623.95	0.111496
2625.31	0.285784
2626.67	-0.0623999
2628.03	0.170679
2629.39	0.25414
2630.75	0.0693941
2632.1	-0.0111237
2633.46	0.547169
2634.82	-0.112556
2636.18	0.281709
2637.54	-0.0211515
2638.89	0.105922
2640.25	-0.255268
2641.61	0.241859
2642.97	0.251077
2644.32	0.319548
2645.68	0.00427055
2647.03	0.411343
2648.39	-0.111038
2649.75	0.426107
2651.1	0.24099
2652.46	-0.0910168
2653.81	-0.0553293
2655.17	0.90459
2656.52	0.414278
2657.88	0.116372
2659.23	0.185633
2660.58	0.255342
2661.94	0.134842
2663.29	0.305907
2664.64	0.125459
2666	0.148552
2667.35	0.0835743
2668.7	0.0622568
2670.05	0.434139
2671.4	0.515303
2672.76	0.146696
2674.11	0.476348
2675.46	0.0225611
2676.81	0.425874
2678.16	0.133502
2679.51	0.204789
2680.86	0.016325
2682.21	0.0467625
2683.56	0.281624
2684.91	0.053606
2686.26	0.116232
2687.61	-0.16958
2688.96	0.268993
2690.3	0.0959044
2691.65	0.660906
2693	0.556241
2694.35	0.131413
2695.7	0.0256233
2697.04	0.0220327
2698.39	0.0199356
2699.74	0.294916
2701.08	0.0217361
2702.43	0.286168
2703.77	0.088378
2705.12	-0.108942
2706.47	0.0127172
2707.81	0.0181084
2709.16	0.226262
2710.5	-0.262932
2711.85	0.118813
2713.19	0.326262
2714.53	-0.0476665
2715.88	0.0433884
2717.22	0.54157
2718.57	0.355966
2719.91	-0.135734
2721.25	0.623444
2722.59	0.0722847
2723.94	0.102705
2725.28	-0.33317
2726.62	0.01651
2727.96	0.511312
2729.3	0.292658
2730.65	-0.37719
2731.99	0.175172
2733.33	0.0583391
2734.67	0.0580988
2736.01	0.247177
2737.35	-0.130808
2738.69	0.0293264
2740.03	0.290958
2741.37	0.493812
2742.71	0.230624
2744.05	0.213788
2745.38	0.0945139
2746.72	0.0909891
2748.06	0.188837
2749.4	0.170573
2750.74	0.370104
2752.07	-0.1551
2753.41	0.305858
2754.75	0.27412
2756.09	-0.0326242
2757.42	0.109869
2758.76	-0.167222
2760.09	0.0193949
2761.43	0.0473366
2762.77	0.423116
2764.1	-0.0110216
2765.44	-0.285961
2766.77	0.436871
2768.11	0.203747
2769.44	0.504208
2770.77	0.441318
2772.11	0.203523
2773.44	-0.107327
2774.77	-0.000226974
2776.11	0.0633965
2777.44	0.0265913
2778.77	0.119921
2780.11	-0.188635
2781.44	0.135494
2782.77	-0.0860395
2784.1	0.26633
2785.43	-0.026762
2786.77	-0.176037
2788.1	0.104885
2789.43	-0.200194
2790.76	-0.0891924
2792.09	-0.12032
2793.42	-0.179465
2794.75	0.00444698
2796.08	-0.0264311
2797.41	0.28488
2798.74	0.0955477
2800.07	0.0771112
2801.4	-0.155605
2802.72	0.0251675
2804.05	0.077199
2805.38	-0.241649
2806.71	-0.148032
2808.04	0.0585032
2809.36	0.406331
2810.69	0.114573
2812.02	0.39159
2813.34	0.357598
2814.67	0.183629
2816	-0.101884
2817.32	0.152617
2818.65	-0.244156
2819.97	0.280393
2821.3	0.265824
2822.62	0.40634
2823.95	-0.02069
2825.27	0.486915
2826.6	0.0455151
2827.92	0.199558
2829.25	0.651521
2830.57	0.198011
2831.89	0.45259
2833.22	0.155053
2834.54	0.522424
2835.86	0.252296
2837.18	1.11357
2838.51	0.729077
2839.83	1.24961
2841.15	1.11962
2842.47	1.56974
2843.79	1.65307
2845.11	1.83624
2846.43	1.63864
2847.76	2.27536
2849.08	2.30443
2850.4	2.26247
2851.72	2.09267
2853.04	2.2897
2854.36	2.06226
2855.67	2.48456
2856.99	2.158
2858.31	2.59432
2859.63	2.81868
2860.95	2.81682
2862.27	2.95574
2863.58	3.10823
2864.9	2.73822
2866.22	2.77745
2867.54	2.74645
2868.85	3.01212
2870.17	3.30642
2871.49	3.19209
2872.8	3.59892
2874.12	3.77923
2875.43	3.59184
2876.75	3.31874
2878.07	3.97358
2879.38	3.71318
2880.7	4.0438
2882.01	4.20653
2883.32	3.64021
2884.64	4.1145
2885.95	4.14016
2887.27	3.74489
2888.58	4.00876
2889.89	4.07511
2891.21	4.14033
2892.52	4.05052
2893.83	4.29677
2895.14	4.2772
2896.46	3.68479
2897.77	4.59138
2899.08	4.61747
2900.39	4.70059
2901.7	5.10606
2903.01	4.96626
2904.32	5.03646
2905.63	4.99514
2906.94	5.37416
2908.25	5.04087
2909.56	5.45012
2910.87	5.51045
2912.18	5.61283
2913.49	5.54628
2914.8	5.43595
2916.11	5.53343
2917.42	5.58687
2918.72	6.17064
2920.03	5.84467
2921.34	5.82734
2922.65	5.39219
2923.95	6.11908
2925.26	6.06462
2926.57	6.05292
2927.88	6.3209
2929.18	6.81213
2930.49	6.6456
2931.79	6.5204
2933.1	6.40886
2934.4	6.39513
2935.71	6.03217
2937.01	5.85115
2938.32	6.24332
2939.62	5.68562
2940.93	5.64558
2942.23	6.1376
2943.54	5.6529
2944.84	5.56114
2946.14	6.01623
2947.45	5.60504
2948.75	4.53545
2950.05	4.8219
2951.35	4.57427
2952.66	4.43637
2953.96	4.71682
2955.26	4.45075
2956.56	4.56367
2957.86	3.90915
2959.16	4.18164
2960.46	3.92535
2961.77	4.06373
2963.07	3.62815
2964.37	4.18814
2965.66	3.74979
2966.96	3.75876
2968.26	3.63961
2969.56	3.40696
2970.86	3.01933
2972.16	3.54631
2973.46	3.27188
2974.76	3.03956
2976.06	2.73603
2977.35	2.98013
2978.65	2.8843
2979.95	2.68789
2981.25	2.6448
2982.54	2.36194
2983.84	2.17808
2985.14	1.88318
2986.43	2.11009
2987.73	1.80472
2989.02	1.64108
2990.32	1.5621
2991.62	1.66531
2992.91	1.55654
2994.21	1.33392
2995.5	1.5034
2996.8	1.71398
2998.09	0.717236
2999.38	1.58726
3000.68	1.04103
3001.97	1.01452
3003.26	1.01657
3004.56	1.14485
3005.85	0.726614
3007.14	0.405986
3008.43	0.532447
3009.73	0.517922
3011.02	0.558441
3012.31	0.361043
3013.6	0.261593
3014.89	0.079133
3016.19	0.301725
3017.48	0.274321
3018.77	0.331071
3020.06	0.332265
3021.35	0.152295
3022.64	0.388287
3023.93	-0.0294714
3025.22	0.245857
3026.5	0.174115
3027.79	0.186069
3029.08	0.0195599
3030.37	0.0346537
3031.66	-0.197115
3032.95	0.290439
3034.24	0.0466509
3035.52	0.050808
3036.81	0.0397186
3038.1	-0.124918
3039.39	-0.0574217
3040.67	0.145562
3041.96	-0.188382
3043.25	0.287198
3044.53	-0.332587
3045.82	-0.0739536
3047.1	-0.127528
3048.39	0.272227
3049.67	0.414866
3050.96	0.0954494
3052.24	0.104603
3053.53	0.18207
3054.81	0.0541916
3056.1	0.0752192
3057.38	0.176789
3058.67	0.359085
3059.95	0.554448
3061.23	0.368995
3062.52	0.0488873
3063.8	0.356103
3065.08	0.202807
3066.36	0.309533
3067.65	0.567093
3068.93	0.498883
3070.21	0.0767775
3071.49	0.00731277
3072.77	-0.158679
3074.05	-0.543459
3075.33	-0.303898
3076.61	0.0844431
3077.89	0.160667
3079.17	0.265229
3080.45	0.29014
3081.73	0.099926
3083.01	0.318194
3084.29	0.0625134
3085.57	-0.0438395
3086.85	-0.286409
3088.13	-0.231138
3089.41	0.203394
3090.68	0.135221
3091.96	0.21616
3093.24	0.297276
3094.52	0.134653
3095.79	-0.27159
3097.07	0.068059
3098.35	0.000952721
3099.62	-0.13398
3100.9	0.300045
3102.18	0.13807
3103.45	-0.199458
3104.73	0.289469
3106	0.224243
3107.28	0.403741
3108.55	-0.0244904
3109.83	0.319998
3111.1	0.0971889
3112.38	0.349257
3113.65	-0.183846
3114.93	0.285829
3116.2	0.362104
3117.47	0.0305758
3118.75	0.199625
3120.02	0.448812
3121.29	0.344322
3122.57	0.144382
3123.84	0.567536
3125.11	0.313574
3126.38	0.479941
3127.65	0.24104
3128.92	0.381674
3130.2	0.482148
3131.47	0.312403
3132.74	0.534554
3134.01	0.567072
3135.28	0.626007
3136.55	0.589791
3137.82	0.687906
3139.09	0.340934
3140.36	0.317421
3141.63	0.4151
3142.9	0.459281
3144.17	0.83965
3145.43	0.415282
3146.7	0.74314
3147.97	0.964239
3149.24	1.0921
