200.398	-0.149178
202.213	-0.129068
204.027	-0.106512
205.843	0.282711
207.657	0.526327
209.47	0.914703
211.283	0.814955
213.097	0.106106
214.909	0.196609
216.721	0.0192814
218.533	0.472019
220.344	0.0297451
222.157	0.315441
223.967	-0.219488
225.777	0.96302
227.587	0.574562
229.396	0.403105
231.205	0.279068
233.016	0.926554
234.824	-0.0415077
236.632	1.40398
238.439	1.55137
240.247	1.55912
242.053	2.05371
243.86	2.96165
245.666	3.46024
247.474	3.59402
249.279	4.22927
251.085	4.95426
252.889	4.22453
254.694	6.02437
256.498	5.77195
258.301	5.73857
260.105	5.99826
261.908	6.64798
263.71	5.51919
265.513	4.92291
267.315	5.4601
269.116	5.22556
270.918	4.65164
272.718	4.84661
274.519	4.33927
276.319	3.75613
278.119	3.72352
279.918	2.50638
281.718	2.58613
283.516	2.18082
285.315	2.22972
287.113	1.94081
288.911	1.94014
290.708	1.7493
292.505	0.580053
294.302	1.4009
296.098	1.55438
297.894	0.299891
299.69	0.433044
301.485	0.0403557
303.278	0.147772
305.073	0.682341
306.867	0.570501
308.661	1.19725
310.454	0.871317
312.247	1.38159
314.04	0.156591
315.833	1.6023
317.623	-0.0440865
319.415	1.38488
321.206	1.36352
322.997	0.366074
324.788	1.20572
326.579	0.828974
328.367	0.284073
330.156	0.741354
331.946	0.646761
333.735	0.644493
335.523	0.733789
337.31	0.483574
339.098	0.253237
340.885	1.21568
342.673	0.956507
344.458	0.458433
346.244	0.534922
348.03	0.89925
349.816	0.190157
351.6	0.316824
353.385	-0.583668
355.17	0.279612
356.953	0.424343
358.737	-0.55373
360.521	0.705729
362.304	-0.441961
364.085	-0.329136
365.868	0.471043
367.65	0.176376
369.431	0.42593
371.212	0.388956
372.994	1.55727
374.773	0.713322
376.554	0.957195
378.332	1.08364
380.112	0.928917
381.892	0.965117
383.669	0.862741
385.448	0.857132
387.225	1.58247
389.003	2.26266
390.781	2.24009
392.557	2.31327
394.334	2.31738
396.109	2.29887
397.885	3.66633
399.66	5.15102
401.436	4.05118
403.211	4.64101
404.984	5.65178
406.759	5.20459
408.532	5.20217
410.306	4.33044
412.078	4.8438
413.851	5.24068
415.623	4.20802
417.395	5.54723
419.166	5.62114
420.938	7.10407
422.708	7.41321
424.477	6.42951
426.248	5.86598
428.017	5.37081
429.788	4.07645
431.556	2.61798
433.326	3.34305
435.093	2.21483
436.86	1.7907
438.629	1.69372
440.395	0.373556
442.163	0.222876
443.929	1.84965
445.694	1.05738
447.461	0.567989
449.226	0.312262
450.99	-0.340078
452.756	1.11024
454.52	1.15916
456.285	0.275642
458.048	1.32619
459.811	1.09529
461.573	0.494009
463.337	-0.0337467
465.099	1.2328
466.86	0.994751
468.623	0.553179
470.384	0.440836
472.144	1.53979
473.906	0.938955
475.666	1.07922
477.425	1.56438
479.184	1.81258
480.944	1.19664
482.703	0.976982
484.461	1.6215
486.218	1.22205
487.975	0.990099
489.734	0.692327
491.491	0.676468
493.247	0.989141
495.003	1.16258
496.759	1.12554
498.516	0.994148
500.271	1.18989
502.025	0.328468
503.779	0.802694
505.533	0.828655
507.287	1.32209
509.042	1.50686
510.795	1.17059
512.547	1.30145
514.299	1.73495
516.051	1.60069
517.803	1.81658
519.554	1.79499
521.305	2.12414
523.055	1.55946
524.805	2.54397
526.555	1.15801
528.307	1.03964
530.056	2.04606
531.805	1.6452
533.553	1.61758
535.301	1.79792
537.049	1.9281
538.797	2.26497
540.544	0.452862
542.291	0.855986
544.037	1.53641
545.783	1.8665
547.529	0.57152
549.275	1.52875
551.02	1.32644
552.765	1.49506
554.509	2.14897
556.253	1.67103
557.997	1.63303
559.738	0.605539
561.482	0.893133
563.224	0.997486
564.967	0.459358
566.709	0.750261
568.451	1.13437
570.192	0.418884
571.933	1.06038
573.674	0.902374
575.415	-0.100548
577.153	1.51566
578.893	0.748556
580.632	0.855278
582.371	0.893488
584.11	1.22951
585.849	0.804649
587.587	0.767872
589.323	-1.15812
591.06	1.79131
592.797	1.08136
594.534	0.716164
596.271	0.535114
598.005	1.57339
599.741	0.655336
601.476	0.149706
603.211	0.377516
604.944	0.648041
606.679	0.386909
608.413	0.216078
610.147	1.14669
611.878	0.035778
613.611	-0.499212
615.344	0.251125
617.077	0.703499
618.807	1.10869
620.539	1.21353
622.27	0.171629
623.999	1.07231
625.73	1.0578
627.461	1.63916
629.189	1.47131
630.919	0.48745
632.648	1.24249
634.376	0.904745
636.105	0.543476
637.833	1.63944
639.559	1.88464
641.287	0.457666
643.013	1.14669
644.74	1.05734
646.467	-0.100502
648.192	0.520493
649.918	0.96575
651.642	0.942247
653.368	1.22299
655.091	0.806555
656.816	1.51036
658.538	0.941528
660.263	1.35187
661.987	2.14777
663.708	1.81978
665.432	2.19451
667.153	1.44441
668.875	1.28677
670.596	1.79385
672.318	0.841068
674.037	0.785864
675.759	0.918802
677.478	1.05494
679.196	0.548765
680.917	0.016552
682.635	0.468922
684.355	-0.0265808
686.072	0.279093
687.791	1.27239
689.508	1.1348
691.224	0.834257
692.942	0.394079
694.658	0.182661
696.376	-0.882883
698.091	-0.638174
699.805	-0.189196
701.522	-0.203186
703.236	0.355387
704.95	0.658962
706.665	0.869036
708.379	0.527479
710.093	0.437578
711.806	0.736229
713.518	-0.0871849
715.23	0.530119
716.943	0.529608
718.655	-0.132229
720.366	0.711683
722.078	0.324707
723.788	0.257076
725.498	-0.0607872
727.208	0.84778
728.919	0.482908
730.628	0.503143
732.337	-0.247593
734.045	1.40099
735.755	-0.163359
737.463	1.12133
739.17	0.600229
740.877	0.487862
742.584	1.32435
744.292	1.32977
745.998	0.888311
747.704	0.540262
749.409	0.64514
751.114	0.707846
752.819	0.840876
754.526	1.24692
756.23	0.688805
757.934	0.764072
759.637	1.0454
761.34	-0.0230598
763.043	-0.70833
764.746	1.40479
766.448	0.739326
768.152	0.769947
769.853	1.40639
771.554	1.29224
773.255	1.42358
774.956	1.82508
776.656	0.893656
778.356	0.665909
780.056	1.93408
781.755	1.96123
783.454	1.80782
785.153	1.06339
786.851	0.698572
788.549	0.960783
790.247	1.64535
791.944	0.627708
793.641	1.43717
795.338	0.710342
797.034	1.24882
798.73	0.303558
800.426	1.18656
802.121	1.01441
803.817	1.09133
805.511	1.50512
807.206	1.42242
808.9	0.865582
810.592	1.72069
812.286	0.890545
813.979	0.553307
815.672	1.38015
817.364	0.125216
819.057	0.660437
820.748	1.44072
822.44	1.90815
824.129	1.21721
825.82	0.93128
827.511	0.739313
829.201	1.62233
830.891	1.8662
832.581	2.0944
834.269	1.63675
835.958	1.35943
837.646	0.925245
839.335	1.62689
841.023	1.00769
842.709	1.72567
844.396	2.01812
846.084	0.345203
847.77	1.00041
849.455	1.05759
851.141	0.784575
852.827	1.05335
854.513	0.270348
856.196	1.39466
857.881	1.12488
859.566	1.41345
861.248	1.36058
862.932	0.785748
864.616	0.568079
866.297	0.348181
867.98	1.63747
869.663	1.16709
871.343	0.718363
873.026	0.720209
874.707	-0.0452976
876.387	0.181952
878.068	0.657551
879.747	0.636473
881.428	1.15636
883.108	0.703934
884.786	-0.292673
886.465	-0.0507698
888.143	0.751619
889.822	0.625074
891.498	0.630497
893.177	-0.49324
894.855	-0.222734
896.53	0.202278
898.208	0.758823
899.883	0.549332
901.56	0.114292
903.234	0.641268
904.91	0.317051
906.584	0.418262
908.26	0.899515
909.933	1.11447
911.608	0.307608
913.28	0.65971
914.955	0.434593
916.627	-0.23361
918.298	0.251719
919.972	1.42267
921.643	0.469048
923.315	-0.148928
924.986	0.739765
926.656	0.174465
928.328	0.0328331
929.997	0.158981
931.668	0.0880966
933.337	0.348808
935.006	0.168713
936.676	0.276276
938.344	0.915112
940.012	1.20392
941.681	1.03244
943.348	1.08337
945.014	-0.455046
946.683	-0.053997
948.349	-0.142639
950.015	0.404354
951.682	0.74951
953.347	0.653357
955.012	0.560762
956.676	0.209946
958.343	0.13121
960.006	1.20677
961.67	0.343882
963.333	0.0764656
964.998	0.822308
966.661	-0.981768
968.323	0.99065
969.985	0.47999
971.649	0.166307
973.31	0.450802
974.971	0.78281
976.632	0.853806
978.293	0.817904
979.953	0.97179
981.615	1.1249
983.274	1.10885
984.933	1.08808
986.592	0.531013
988.251	0.323883
989.909	2.14823
991.567	1.44943
993.225	1.89947
994.884	1.70897
996.541	2.46766
998.198	3.33565
999.855	4.35624
1001.51	6.07916
1003.17	4.58549
1004.82	4.45639
1006.48	4.63471
1008.13	4.94481
1009.79	5.73811
1011.44	3.98768
1013.1	4.05977
1014.75	3.12528
1016.4	3.37503
1018.06	2.77254
1019.71	1.51656
1021.36	1.99141
1023.01	1.02622
1024.66	0.806904
1026.32	1.33213
1027.97	1.22371
1029.62	2.4027
1031.27	1.30663
1032.92	0.578409
1034.57	1.54857
1036.22	1.77262
1037.87	0.730534
1039.52	2.56309
1041.16	1.47978
1042.81	2.55326
1044.46	2.41342
1046.11	2.7567
1047.76	4.12566
1049.4	4.82589
1051.05	5.8774
1052.7	6.49723
1054.34	6.53181
1055.99	6.30561
1057.63	6.49151
1059.28	6.39336
1060.92	5.88008
1062.57	6.23419
1064.21	5.54181
1065.85	3.88997
1067.5	3.93095
1069.14	1.97031
1070.78	1.83362
1072.43	1.54468
1074.07	1.38733
1075.71	1.12427
1077.35	0.712938
1078.99	1.49762
1080.63	0.78804
1082.27	1.53139
1083.91	0.429482
1085.55	0.234329
1087.19	1.24758
1088.83	0.478735
1090.47	0.918062
1092.11	0.791422
1093.75	0.0157719
1095.39	1.16213
1097.03	-0.256788
1098.66	1.06561
1100.3	0.905293
1101.94	-0.691612
1103.57	0.707218
1105.21	0.15156
1106.84	-0.144308
1108.48	-0.0322018
1110.11	-0.546284
1111.75	0.118135
1113.38	0.842299
1115.02	0.102448
1116.65	0.0913963
1118.29	0.57358
1119.92	0.564058
1121.55	0.985388
1123.19	-0.0463371
1124.82	0.0378799
1126.45	0.124262
1128.08	0.405048
1129.71	0.345499
1131.34	0.586765
1132.97	0.0164738
1134.6	0.514759
1136.23	1.46017
1137.86	0.607555
1139.49	0.478554
1141.12	0.453726
1142.75	0.662214
1144.38	-0.494215
1146.01	0.270782
1147.64	0.931118
1149.26	1.23118
1150.89	0.573921
1152.52	0.492027
1154.15	0.558304
1155.77	-0.16398
1157.4	0.539312
1159.02	0.0732174
1160.65	-0.347921
1162.27	0.105682
1163.9	0.0941086
1165.52	-0.511412
1167.15	-0.139439
1168.77	-0.089056
1170.39	1.50852
1172.02	0.252884
1173.64	0.522539
1175.26	-0.123842
1176.89	-0.68593
1178.51	0.0878239
1180.13	0.184826
1181.75	-0.371738
1183.37	0.828892
1184.99	0.147766
1186.61	0.858772
1188.23	0.319557
1189.85	1.08291
1191.47	-0.497557
1193.09	0.550047
1194.71	-0.0241623
1196.33	0.409571
1197.94	0.823526
1199.56	0.697298
1201.18	-0.467119
1202.8	0.841061
1204.41	1.13215
1206.03	0.469162
1207.65	0.707155
1209.26	1.1963
1210.88	0.285862
1212.49	0.184593
1214.11	1.68208
1215.72	1.69299
1217.34	1.59476
1218.95	1.09892
1220.57	1.51706
1222.18	1.60432
1223.79	0.638071
1225.41	1.74795
1227.02	0.480879
1228.63	2.03185
1230.24	1.72426
1231.85	1.87495
1233.47	1.36759
1235.08	2.55846
1236.69	2.01663
1238.3	2.01506
1239.91	1.82934
1241.52	2.26462
1243.13	1.54073
1244.74	1.76632
1246.34	2.13406
1247.95	2.54036
1249.56	1.1444
1251.17	1.85799
1252.78	2.59265
1254.38	1.3849
1255.99	1.71076
1257.6	1.64703
1259.2	1.68997
1260.81	1.81823
1262.42	1.76162
1264.02	1.76725
1265.63	1.60608
1267.23	1.89888
1268.84	1.58802
1270.44	1.99996
1272.04	2.34682
1273.65	1.38465
1275.25	0.979733
1276.85	1.50499
1278.46	1.92409
1280.06	1.49218
1281.66	0.604475
1283.26	0.896984
1284.86	2.47279
1286.46	1.3625
1288.07	1.37173
1289.67	1.92079
1291.27	1.72733
1292.87	1.67838
1294.47	2.22658
1296.06	1.90366
1297.66	1.8449
1299.26	1.74034
1300.86	2.43579
1302.46	2.24085
1304.06	2.14642
1305.65	1.72121
1307.25	2.52765
1308.85	3.59826
1310.44	2.26872
1312.04	2.23276
1313.64	2.23989
1315.23	1.96364
1316.83	3.16063
1318.42	3.01086
1320.02	1.82136
1321.61	2.87199
1323.2	2.14599
1324.8	1.53857
1326.39	1.76109
1327.99	1.6772
1329.58	2.95156
1331.17	2.75082
1332.76	2.53664
1334.36	2.16764
1335.95	2.63119
1337.54	2.53121
1339.13	2.34901
1340.72	2.00135
1342.31	2.87581
1343.9	2.63725
1345.49	2.67696
1347.08	2.23546
1348.67	2.08007
1350.26	3.01258
1351.85	1.49108
1353.43	3.23579
1355.02	1.78529
1356.61	2.15512
1358.2	0.86557
1359.78	2.6895
1361.37	1.73443
1362.96	2.21419
1364.54	2.65247
1366.13	2.27399
1367.71	2.31638
1369.3	1.86452
1370.88	2.47175
1372.47	2.06798
1374.05	2.24458
1375.64	1.22931
1377.22	1.64708
1378.8	2.77989
1380.39	1.90011
1381.97	1.03681
1383.55	1.88056
1385.13	2.522
1386.72	1.33365
1388.3	1.89432
1389.88	0.947783
1391.46	1.73082
1393.04	1.00804
1394.62	1.25859
1396.2	1.09221
1397.78	1.47905
1399.36	1.68447
1400.94	1.78793
1402.52	0.325794
1404.1	2.2877
1405.68	1.02592
1407.25	1.30939
1408.83	1.49632
1410.41	1.5464
1411.98	2.24806
1413.56	2.53309
1415.14	2.73632
1416.71	1.89163
1418.29	2.15041
1419.87	1.81881
1421.44	1.82527
1423.02	2.1315
1424.59	1.18277
1426.16	1.95016
1427.74	1.95162
1429.31	2.1099
1430.89	2.30499
1432.46	4.40553
1434.03	2.8626
1435.6	4.4069
1437.18	3.70947
1438.75	4.39057
1440.32	4.99589
1441.89	3.52096
1443.46	4.2101
1445.03	4.44849
1446.6	5.29682
1448.17	4.31767
1449.74	4.12559
1451.31	4.05286
1452.88	3.88343
1454.45	3.55777
1456.02	4.03865
1457.59	2.98293
1459.16	4.226
1460.72	3.94857
1462.29	3.64594
1463.86	4.43983
1465.43	3.5392
1466.99	3.0902
1468.56	2.85867
1470.13	2.78696
1471.69	2.22824
1473.26	2.08484
1474.82	1.94386
1476.38	2.21595
1477.95	2.99806
1479.51	1.32956
1481.08	1.85639
1482.64	1.85374
1484.2	1.98791
1485.77	1.92516
1487.33	1.82112
1488.89	1.38056
1490.46	1.20908
1492.02	2.2047
1493.58	1.80524
1495.14	1.44035
1496.7	1.46273
1498.26	3.19673
1499.82	1.35186
1501.38	1.24224
1502.94	1.31089
1504.5	0.626421
1506.06	1.57014
1507.62	1.60139
1509.18	1.45572
1510.73	1.63504
1512.29	0.770563
1513.85	0.677065
1515.41	1.98742
1516.96	0.954084
1518.52	1.19105
1520.08	1.94658
1521.63	1.51475
1523.19	0.891851
1524.75	1.26088
1526.3	0.939672
1527.85	0.711819
1529.41	0.577955
1530.96	0.919098
1532.52	0.976236
1534.07	1.37671
1535.62	0.62546
1537.18	1.57914
1538.73	0.664318
1540.28	1.1667
1541.84	1.15984
1543.39	1.51033
1544.94	0.787828
1546.49	1.19316
1548.04	0.94047
1549.59	1.60662
1551.14	1.74767
1552.69	2.63823
1554.25	0.988041
1555.79	0.950714
1557.34	1.6838
1558.89	1.43305
1560.44	1.00151
1561.99	1.7873
1563.54	1.96088
1565.08	0.942141
1566.63	2.3495
1568.18	1.2743
1569.73	2.23237
1571.27	0.8188
1572.82	2.63375
1574.37	1.2749
1575.91	1.87621
1577.46	2.32882
1579	1.40116
1580.55	1.87552
1582.09	1.81074
1583.64	1.71107
1585.18	2.09943
1586.73	2.20917
1588.27	1.94543
1589.81	1.81191
1591.35	1.54605
1592.9	1.99021
1594.44	1.34745
1595.98	2.65296
1597.52	2.47989
1599.06	2.28993
1600.61	2.77724
1602.15	3.30402
1603.69	2.59203
1605.23	3.13618
1606.77	1.87265
1608.31	3.08401
1609.85	2.25882
1611.39	2.93025
1612.93	2.26185
1614.46	1.59031
1616	2.64384
1617.54	2.76011
1619.08	1.51202
1620.61	2.25453
1622.15	2.30792
1623.69	1.91454
1625.23	1.55891
1626.76	1.38849
1628.3	2.54286
1629.83	2.7572
1631.37	1.32348
1632.9	2.07558
1634.44	2.06226
1635.97	2.20053
1637.51	1.89382
1639.04	1.92484
1640.57	2.70153
1642.11	1.51981
1643.64	1.93744
1645.17	2.59302
1646.71	1.79458
1648.24	2.37139
1649.77	1.64861
1651.3	2.71104
1652.83	2.01394
1654.36	2.06242
1655.89	2.18694
1657.42	2.21866
1658.96	2.00744
1660.48	2.49621
1662.01	2.16616
1663.54	1.22318
1665.07	2.20096
1666.6	2.49525
1668.13	2.34962
1669.66	1.41594
1671.19	1.50082
1672.71	1.44151
1674.24	2.32287
1675.77	1.28852
1677.29	2.42432
1678.82	1.1094
1680.35	1.31882
1681.87	0.680573
1683.4	2.15384
1684.92	1.33157
1686.45	1.81341
1687.97	0.903053
1689.5	0.342936
1691.02	1.08413
1692.54	0.50721
1694.07	0.845287
1695.59	1.74932
1697.11	-0.180519
1698.64	1.10491
1700.16	0.653793
1701.68	0.0376472
1703.2	1.13385
1704.72	0.332911
1706.25	-0.249706
1707.77	-0.450403
1709.29	0.620491
1710.81	0.310497
1712.33	0.382364
1713.85	-0.74118
1715.37	-0.0523491
1716.89	0.0744762
1718.41	0.0199699
1719.92	0.687702
1721.44	0.0376778
1722.96	0.219614
1724.48	-0.0101852
1725.99	-0.0378742
1727.51	0.280336
1729.03	0.385338
1730.55	-0.29538
1732.06	-0.147148
1733.58	0.49802
1735.09	-0.176384
1736.61	0.448631
1738.13	-0.232597
1739.64	0.320547
1741.15	-0.726763
1742.67	0.323246
1744.18	-0.437399
1745.7	0.12735
1747.21	-0.738068
1748.72	0.145987
1750.24	0.0472641
1751.75	-0.257669
1753.26	-0.00088501
1754.77	-0.0429192
1756.29	-0.308167
1757.8	0.0140247
1759.31	0.483194
1760.82	-0.560982
1762.33	-0.0462704
1763.84	0.192633
1765.35	0.441982
1766.86	-0.62035
1768.37	0.512762
1769.88	0.165573
1771.39	-0.629808
1772.9	0.292109
1774.4	0.440224
1775.91	-0.235712
1777.42	0.73811
1778.93	-0.406609
1780.44	0.942308
1781.94	0.0892982
1783.45	-0.00985909
1784.96	-0.0124664
1786.46	-0.0067997
1787.97	0.301943
1789.47	0.00306129
1790.98	0.607145
1792.48	0.110228
1793.99	-0.0880947
1795.49	0.0816116
1797	0.171843
1798.5	-0.432083
1800.01	0.309021
1801.51	0.284746
1803.01	0.456007
1804.51	0.223959
1806.02	0.04776
1807.52	0.621479
1809.02	-0.131332
1810.52	0.0924568
1812.02	0.312389
1813.52	0.425653
1815.02	-0.164961
1816.53	-0.336874
1818.03	-0.0860958
1819.52	-0.0744419
1821.02	-0.584986
1822.52	0.402821
1824.02	0.071703
1825.52	0.126249
1827.02	0.263788
1828.52	-0.0326538
1830.02	0.448864
1831.51	0.205883
1833.01	-0.248049
1834.51	-0.14558
1836.01	-0.188633
1837.5	0.133802
1839	0.25215
1840.49	0.372015
1841.99	0.305153
1843.49	0.200081
1844.98	0.460909
1846.48	-0.402805
1847.97	0.295677
1849.47	0.100168
1850.96	0.23992
1852.45	0.131359
1853.95	0.230015
1855.44	-0.309336
1856.93	0.211962
1858.42	0.788322
1859.92	0.105957
1861.41	-0.474424
1862.9	0.0184498
1864.39	-0.0294533
1865.88	0.498692
1867.38	0.343229
1868.87	0.698355
1870.36	0.394768
1871.85	0.406267
1873.34	0.166615
1874.83	-0.111021
1876.32	0.383995
1877.81	0.443666
1879.29	-0.119028
1880.78	-0.322727
1882.27	0.0799007
1882.53	0.172501
1884.03	0.152285
1885.52	0.0600357
1887.01	-0.417898
1888.51	0.652473
1890	-0.835224
1891.5	0.829153
1892.99	0.411003
1894.48	0.155035
1895.97	0.0776081
1897.47	0.211409
1898.96	0.501493
1900.45	0.318882
1901.94	0.253153
1903.43	0.512552
1904.92	1.1672
1906.41	0.324615
1907.9	0.299009
1909.39	1.02166
1910.88	0.688246
1912.37	0.253744
1913.86	0.393511
1915.35	0.637568
1916.84	0.481796
1918.33	0.549805
1919.81	0.356541
1921.3	-0.148626
1922.79	-0.0981159
1924.28	-0.512426
1925.76	0.0981083
1927.25	0.105932
1928.73	0.254242
1930.22	0.0907936
1931.71	0.427132
1933.19	0.118418
1934.68	0.791201
1936.16	0.610565
1937.65	0.34008
1939.13	-0.449766
1940.62	0.1437
1942.1	0.41115
1943.58	0.4573
1945.07	-0.183701
1946.55	0.176706
1948.03	0.122618
1949.51	0.169714
1951	0.110495
1952.48	-0.140682
1953.96	0.948013
1955.44	-0.301926
1956.92	-0.226772
1958.4	-0.218302
1959.88	0.35845
1961.36	0.404791
1962.84	0.554565
1964.32	1.16625
1965.8	0.234644
1967.28	0.756725
1968.76	1.00253
1970.24	-0.00155449
1971.72	0.20771
1973.2	0.792025
1974.67	0.301308
1976.15	0.578804
1977.63	0.515827
1979.1	0.11285
1980.58	0.509794
1982.06	0.888697
1983.54	0.960423
1985.01	0.691578
1986.49	0.710705
1987.96	0.611141
1989.44	-0.367836
1990.91	-0.564991
1992.39	0.255638
1993.86	-0.0710907
1995.33	0.128773
1996.81	-0.261454
1998.28	0.868422
1999.75	0.645647
2001.23	0.0499763
2002.7	0.0943356
2004.17	0.239399
2005.65	0.301102
2007.12	0.415545
2008.59	0.364388
2010.06	0.770426
2011.53	-0.252853
2013	0.542053
2014.47	0.359423
2015.94	0.931652
2017.41	-0.181046
2018.88	0.553898
2020.35	0.664835
2021.82	0.657684
2023.29	0.366215
2024.76	-0.375629
2026.23	0.614208
2027.69	0.0817814
2029.16	0.576981
2030.63	-0.148331
2032.1	-0.317358
2033.56	0.0521049
2035.03	-0.451445
2036.5	-0.217306
2037.96	0.469114
2039.43	0.129488
2040.89	0.697298
2042.36	0.190426
2043.83	0.0218735
2045.29	0.495333
2046.75	0.449566
2048.22	0.404694
2049.68	0.813879
2051.15	-0.0104675
2052.61	0.812876
2054.07	0.382914
2055.54	0.942705
2057	1.46436
2058.46	0.146473
2059.92	0.665157
2061.39	0.292315
2062.85	0.494452
2064.31	0.329269
2065.77	0.318569
2067.23	0.377697
2068.69	0.472246
2070.15	0.348944
2071.61	0.208948
2073.07	0.742012
2074.53	0.600849
2075.99	0.121868
2077.45	0.147001
2078.91	1.46765
2080.37	0.749298
2081.82	0.568213
2083.28	0.385214
2084.74	0.452549
2086.2	0.467213
2087.65	0.580927
2089.11	0.558874
2090.57	0.2003
2092.02	0.0433464
2093.48	0.55747
2094.94	-0.120378
2096.39	0.743048
2097.85	0.431021
2099.3	0.619675
2100.76	-0.0290051
2102.21	0.761009
2103.66	0.450253
2105.12	0.427376
2106.57	0.758936
2108.03	0.359535
2109.48	0.0613708
2110.93	0.845367
2112.38	1.04172
2113.84	0.316933
2115.29	0.636814
2116.74	0.936918
2118.19	0.323898
2119.64	0.495821
2121.09	0.706299
2122.54	0.159376
2123.99	-0.416323
2125.45	0.601721
2126.89	0.574316
2128.34	0.0799122
2129.79	0.957212
2131.24	0.107548
2132.69	0.779375
2134.14	1.10294
2135.59	0.717499
2137.04	-0.14271
2138.48	0.539579
2139.93	0.103346
2141.38	0.250154
2142.83	0.549202
2144.27	0.618717
2145.72	0.854181
2147.17	-0.0534534
2148.61	0.0136986
2150.06	0.393257
2151.5	0.786749
2152.95	-0.247459
2154.39	-0.389179
2155.84	0.594408
2157.28	0.849165
2158.73	-0.33522
2160.17	0.736916
2161.61	0.206963
2163.06	-0.384666
2164.5	0.752489
2165.94	-0.281336
2167.38	0.0953045
2168.83	0.452971
2170.27	0.822737
2171.71	1.25337
2173.15	0.663832
2174.59	0.835678
2176.03	0.423794
2177.47	1.02687
2178.91	0.601139
2180.36	0.760056
2181.8	0.588888
2183.23	0.701994
2184.67	0.217148
2186.11	0.181496
2187.55	0.495304
2188.99	0.642937
2190.43	0.657412
2191.87	0.254936
2193.3	0.882605
2194.74	0.341169
2196.18	0.793598
2197.62	0.707754
2199.05	0.783461
2200.49	0.474033
2201.93	0.911736
2203.36	1.21794
2204.8	0.797325
2206.23	-0.034277
2207.67	0.511322
2209.1	0.26111
2210.54	0.836515
2211.97	1.37536
2213.41	0.605526
2214.84	0.7614
2216.27	0.53911
2217.71	0.617235
2219.14	1.17702
2220.57	0.93108
2222.01	0.652697
2223.44	-0.00642586
2224.87	0.533257
2226.3	-0.0185623
2227.73	0.823313
2229.16	-0.245199
2230.6	-0.0011673
2232.03	0.569443
2233.46	0.615789
2234.89	0.942165
2236.32	0.225746
2237.75	0.886242
2239.18	-0.0639725
2240.61	0.362337
2242.03	0.989277
2243.46	0.690067
2244.89	0.881186
2246.32	0.63003
2247.75	0.0645485
2249.17	0.11285
2250.6	1.05087
2252.03	0.696508
2253.46	0.161488
2254.88	0.63559
2256.31	-0.38052
2257.73	0.282436
2259.16	0.579845
2260.59	0.982925
2262.01	1.08487
2263.44	0.89922
2264.86	0.291658
2266.29	-0.171305
2267.71	0.64823
2269.14	0.993876
2270.56	0.588573
2271.98	0.670097
2273.4	0.78372
2274.83	0.783625
2276.25	0.572264
2277.67	0.393902
2279.09	0.264536
2280.52	0.477392
2281.94	0.216961
2283.36	0.510847
2284.78	0.804991
2286.2	0.136848
2287.62	-0.187756
2289.04	-0.41334
2290.46	0.685556
2291.88	0.184124
2293.3	0.565733
2294.72	0.554934
2296.14	0.445665
2297.56	0.58177
2298.98	0.357716
2300.4	0.904337
2301.82	0.288021
2303.23	0.37735
2304.65	0.532875
2306.07	-0.0342922
2307.49	0.0378189
2308.9	0.535852
2310.32	0.720158
2311.73	0.492193
2313.15	0.0665436
2314.57	0.596403
2315.98	-0.00744629
2317.4	0.247025
2318.81	0.0249634
2320.23	-0.46191
2321.64	0.516266
2323.06	-0.226725
2324.47	0.806061
2325.88	0.792603
2327.3	0.972208
2328.71	1.0835
2330.12	0.371662
2331.54	0.338066
2332.95	-0.268375
2334.36	-0.296211
2335.77	-0.0765991
2337.18	-0.154381
2338.6	0.291264
2340.01	-0.301933
2341.42	0.843609
2342.83	0.115402
2344.24	0.24086
2345.65	-0.0755672
2347.06	0.346254
2348.47	0.816755
2349.88	-0.317558
2351.29	-0.308207
2352.7	0.172045
2354.1	0.485609
2355.51	0.535788
2356.92	-0.310621
2358.33	0.080822
2359.74	0.0493526
2361.14	-0.387527
2362.55	-0.0453091
2363.96	-0.0928116
2365.36	0.102329
2366.77	-0.154926
2368.18	0.0743694
2369.58	0.322279
2370.99	0.186684
2372.39	0.119455
2373.8	0.296669
2375.2	-0.490963
2376.61	-0.265326
2378.01	-0.316252
2379.42	0.319536
2380.82	-0.013607
2382.22	0.211182
2383.63	0.208736
2385.03	0.54151
2386.43	0.491219
2387.84	0.156336
2389.24	0.0168095
2390.64	0.215622
2392.04	0.417444
2393.44	0.367294
2394.84	0.287756
2396.25	1.03698
2397.65	0.277681
2399.05	-0.400105
2400.45	0.702993
2401.85	-0.0358658
2403.25	0.242002
2404.65	-0.195768
2406.05	-0.06427
2407.45	0.0804367
2408.84	0.635159
2410.24	0.586039
2411.64	0.109844
2413.04	0.143127
2414.44	0.718252
2415.83	0.0783978
2417.23	0.613829
2418.63	0.946119
2420.02	-0.0349121
2421.42	0.155519
2422.82	0.218306
2424.21	-0.0999489
2425.61	0.231596
2427	0.358656
2428.4	-0.145958
2429.8	-0.505535
2431.19	-0.35581
2432.58	0.0325851
2433.98	-0.1677
2435.37	0.597826
2436.77	0.310846
2438.16	-0.44116
2439.55	0.280773
2440.95	0.396357
2442.34	0.12937
2443.73	0.433029
2445.12	-0.152273
2446.51	0.102776
2447.91	0.785101
2449.3	0.183735
2450.69	0.0268669
2452.08	-0.128401
2453.47	-0.502949
2454.86	0.564644
2456.25	-0.0270615
2457.64	-0.728516
2459.03	0.00902367
2460.42	0.175512
2461.81	-0.30854
2463.2	0.422544
2464.59	0.171921
2465.98	0.583948
2467.36	-0.377966
2468.75	0.00198555
2470.14	-0.0920868
2471.53	-0.455263
2472.92	-0.0952358
2474.3	0.388172
2475.69	0.255592
2477.08	-0.00353622
2478.46	0.0674133
2479.85	0.0916405
2481.23	0.445583
2482.62	0.422777
2484	0.210852
2485.39	0.685011
2486.77	0.0301876
2488.16	0.606564
2489.54	0.0417976
2490.93	0.116209
2492.31	-0.13455
2493.69	-0.0401859
2495.08	0.538561
2496.46	-0.724644
2497.84	-0.0475426
2499.23	-0.314806
2500.61	0.345434
2501.99	-0.00203705
2503.37	0.652048
2504.75	0.052948
2506.13	-0.0226994
2507.52	0.347475
2508.9	-1.03537
2510.28	0.380917
2511.66	-0.167675
2513.04	0.31391
2514.42	0.184439
2515.8	-0.01894
2517.18	-0.0822659
2518.55	0.696857
2519.93	0.482416
2521.31	-0.297613
2522.69	0.203611
2524.07	-0.335281
2525.45	0.191542
2526.82	0.153376
2528.2	0.496788
2529.58	0.112906
2530.95	0.265755
2532.33	0.240814
2533.71	0.417162
2535.08	1.00569
2536.46	-0.441698
2537.84	0.418335
2539.21	0.728712
2540.59	0.06493
2541.96	-0.00748062
2543.34	0.391268
2544.71	0.0640545
2546.08	0.180161
2547.46	-0.519489
2548.83	0.512529
2550.2	0.331144
2551.58	0.300173
2552.95	-0.461758
2554.32	0.230408
2555.7	-0.415176
2557.07	0.196985
2558.44	0.308077
2559.81	-0.201672
2561.18	-0.0731812
2562.55	0.451025
2563.93	-0.144604
2565.3	-0.329895
2566.67	-0.211414
2568.04	-0.0775261
2569.41	0.344395
2570.78	-0.294621
2572.15	0.445776
2573.51	-0.268738
2574.88	0.381306
2576.25	0.0309143
2577.62	-0.0922813
2578.99	0.117496
2580.36	0.356686
2581.73	0.321825
2583.09	-0.108217
2584.46	0.370781
2585.83	0.546391
2587.19	0.388855
2588.56	0.64109
2589.93	-0.0459862
2591.29	-0.0210743
2592.66	-0.315573
2594.02	0.872429
2595.39	0.285198
2596.75	0.316227
2598.12	-0.184387
2599.48	-0.231848
2600.85	0.385891
2602.21	0.732489
2603.58	0.310776
2604.94	-0.0788689
2606.3	0.331785
2607.67	0.560333
2609.03	0.515102
2610.39	0.451571
2611.76	0.565125
2613.12	-0.0163288
2614.48	0.362635
2615.84	-0.295238
2617.2	0.113182
2618.56	0.657255
2619.92	0.274786
2621.28	-0.404102
2622.65	0.249235
2624.01	0.290129
2625.37	-0.370501
2626.72	0.0129585
2628.08	-0.156326
2629.44	0.120543
2630.8	0.0542564
2632.16	0.0918713
2633.52	-0.12319
2634.88	0.315083
2636.24	-0.10754
2637.59	0.804127
2638.95	0.0562172
2640.31	0.168007
2641.67	0.398623
2643.02	-0.0941868
2644.38	0.211361
2645.74	0.309767
2647.09	-0.713377
2648.45	0.104481
2649.8	0.41843
2651.16	0.318325
2652.51	0.511326
2653.87	0.103064
2655.22	-0.067873
2656.58	0.467413
2657.93	0.361092
2659.29	0.754704
2660.64	0.271774
2661.99	0.21277
2663.35	0.0792332
2664.7	-0.275211
2666.05	-0.441494
2667.41	0.353106
2668.76	0.418121
2670.11	0.396502
2671.46	0.434521
2672.81	0.154564
2674.16	1.00934
2675.51	0.311752
2676.87	0.849583
2678.22	-0.743176
2679.57	0.132132
2680.92	-0.207928
2682.27	0.745543
2683.62	0.60038
2684.97	0.457743
2686.31	0.28727
2687.66	0.333986
2689.01	0.159849
2690.36	0.228054
2691.71	0.364
2693.06	0.539362
2694.4	0.479979
2695.75	0.289761
2697.1	-0.0869179
2698.45	0.0324364
2699.79	0.445749
2701.14	0.0238247
2702.49	0.286449
2703.83	0.247747
2705.18	0.355379
2706.52	0.158669
2707.87	0.512491
2709.21	0.372009
2710.56	0.332073
2711.9	0.131603
2713.25	1.1077
2714.59	0.121901
2715.94	0.429432
2717.28	0.329542
2718.62	0.301666
2719.97	0.883984
2721.31	-0.0482273
2722.65	0.4881
2723.99	1.05239
2725.34	-0.480455
2726.68	0.445614
2728.02	0.250099
2729.36	0.97081
2730.7	1.10896
2732.04	0.883297
2733.39	0.352459
2734.73	0.287659
2736.07	1.25609
2737.41	0.435886
2738.75	0.00840187
2740.08	0.685537
2741.43	0.925093
2742.76	0.203413
2744.1	0.177868
2745.44	-0.110739
2746.78	0.122566
2748.12	0.297153
2749.46	0.210567
2750.79	0.356636
2752.13	0.19883
2753.47	0.375092
2754.81	0.580698
2756.14	-0.125923
2757.48	0.123957
2758.81	0.417826
2760.15	0.784958
2761.49	-0.525351
2762.82	0.177141
2764.16	0.012228
2765.49	-0.355246
2766.83	-0.550186
2768.16	0.0336952
2769.5	0.223577
2770.83	0.0627174
2772.16	0.375128
2773.5	-0.166925
2774.83	0.515965
2776.17	0.232521
2777.5	0.238369
2778.83	0.633936
2780.16	0.254322
2781.5	0.306908
2782.83	0.517546
2784.16	0.283195
2785.49	-0.294847
2786.82	-0.255762
2788.15	-0.215425
2789.49	0.413485
2790.82	0.300501
2792.15	-0.124926
2793.48	-0.0772171
2794.81	0.427933
2796.14	0.260447
2797.46	0.277346
2798.79	-0.192646
2800.12	-0.0353546
2801.45	-0.164173
2802.78	-0.150761
2804.11	0.631521
2805.44	0.0730324
2806.76	-0.244335
2808.09	0.247854
2809.42	-0.0433941
2810.75	-0.206287
2812.07	0.512438
2813.4	-0.114147
2814.73	0.0716553
2816.05	0.0909424
2817.38	0.509947
2818.7	0.165077
2820.03	0.0611935
2821.36	0.395554
2822.68	0.147144
2824.01	0.506468
2825.33	0.609795
2826.65	0.897282
2827.98	0.676317
2829.3	0.117121
2830.63	0.479347
2831.95	0.743006
2833.27	0.44031
2834.6	1.19839
2835.92	1.57295
2837.24	1.73374
2838.56	2.00648
2839.88	2.47655
2841.21	2.86182
2842.53	2.56958
2843.85	2.63249
2845.17	3.16369
2846.49	3.39974
2847.81	3.50959
2849.13	4.14246
2850.45	4.02546
2851.77	3.41248
2853.09	3.92885
2854.41	3.46909
2855.73	3.58825
2857.05	3.9475
2858.37	4.16554
2859.69	5.10372
2861	4.21968
2862.32	4.83156
2863.64	4.94823
2864.96	5.55802
2866.28	5.84298
2867.59	6.11438
2868.91	6.17534
2870.23	6.09642
2871.54	7.04692
2872.86	6.37568
2874.17	6.90041
2875.49	6.91499
2876.81	7.36311
2878.12	7.52721
2879.44	7.21222
2880.75	8.00883
2882.07	7.24739
2883.38	6.84045
2884.69	6.96983
2886.01	7.17088
2887.32	6.72644
2888.63	6.87039
2889.95	7.62947
2891.26	7.08178
2892.57	7.5561
2893.89	7.41319
2895.2	7.20135
2896.51	7.55166
2897.82	7.41469
2899.13	7.51825
2900.44	7.81966
2901.76	8.44396
2903.07	7.23632
2904.38	8.00132
2905.69	8.29146
2907	7.70178
2908.31	8.93261
2909.62	9.08858
2910.93	8.89618
2912.24	8.35372
2913.55	9.62917
2914.85	9.57126
2916.16	9.71901
2917.47	9.54086
2918.78	9.76608
2920.09	9.51524
2921.4	10.2449
2922.7	10.4881
2924.01	10.7626
2925.32	10.4949
2926.62	10.7179
2927.93	11.2206
2929.24	11.8901
2930.54	11.3001
2931.85	11.4218
2933.15	11.1934
2934.46	10.5038
2935.76	10.8348
2937.07	10.9565
2938.37	11.1065
2939.68	10.908
2940.98	10.3613
2942.29	9.83065
2943.59	9.76399
2944.89	8.81979
2946.2	8.3952
2947.5	8.68524
2948.8	8.12112
2950.11	7.81997
2951.41	8.20072
2952.71	7.89091
2954.01	7.24184
2955.32	6.91405
2956.62	7.51212
2957.92	6.92513
2959.22	7.22625
2960.52	6.88966
2961.82	6.62747
2963.12	6.31055
2964.42	7.12906
2965.72	5.82403
2967.02	5.73657
2968.32	5.96939
2969.62	5.42714
2970.92	6.16428
2972.22	5.94576
2973.51	5.29166
2974.81	5.25652
2976.11	4.67079
2977.41	4.41989
2978.71	4.74235
2980	4.51169
2981.3	3.98259
2982.6	4.07148
2983.9	4.37191
2985.19	3.87357
2986.49	3.53353
2987.78	3.12663
2989.08	3.53706
2990.38	3.2033
2991.67	3.24783
2992.97	3.27581
2994.26	2.69656
2995.56	2.07283
2996.85	1.75674
2998.14	2.01577
2999.44	2.68186
3000.73	2.15683
3002.03	1.53542
3003.32	1.3217
3004.61	1.7387
3005.91	0.964464
3007.2	0.819265
3008.49	1.00805
3009.78	0.719118
3011.07	0.945784
3012.37	0.919779
3013.66	0.865862
3014.95	0.812965
3016.24	0.845341
3017.53	0.225069
3018.82	0.664165
3020.11	0.226797
3021.4	0.15023
3022.69	1.07176
3023.98	-0.0643234
3025.27	0.269396
3026.56	-0.242926
3027.85	0.146183
3029.14	-0.181768
3030.43	-0.284777
3031.71	-0.0390911
3033	0.0707493
3034.29	-0.288008
3035.58	0.0971889
3036.87	0.148043
3038.15	0.222193
3039.44	0.222952
3040.73	-0.109865
3042.01	-0.196901
3043.3	0.0176601
3044.59	0.110413
3045.87	-0.408512
3047.16	-0.0198879
3048.44	-0.0906239
3049.73	-0.634111
3051.01	0.586542
3052.3	0.280565
3053.58	0.479473
3054.87	0.363018
3056.15	0.189562
3057.43	0.408991
3058.72	0.0268383
3060	0.202709
3061.29	0.705763
3062.57	0.190466
3063.85	0.195396
3065.13	0.231045
3066.42	0.636971
3067.7	0.637394
3068.98	-0.000469208
3070.26	0.136063
3071.54	-0.178223
3072.82	0.0214882
3074.11	0.204599
3075.39	-0.0902233
3076.67	-0.209015
3077.95	-0.204638
3079.23	0.127777
3080.51	0.368462
3081.79	0.273624
3083.07	-0.14397
3084.35	-0.166649
3085.63	0.177193
3086.9	0.275724
3088.18	0.0603695
3089.46	-0.197338
3090.74	-0.0218487
3092.02	-0.0638809
3093.29	-0.105597
3094.57	0.450024
3095.85	-0.214239
3097.13	0.0301476
3098.4	-0.118801
3099.68	0.206202
3100.95	0.314035
3102.23	0.151051
3103.51	-0.214338
3104.78	-0.0911503
3106.06	0.00655937
3107.33	0.322823
3108.61	0.587324
3109.88	0.164011
3111.16	0.121836
3112.43	0.257429
3113.71	-0.405455
3114.98	0.462904
3116.25	0.571321
3117.53	-0.339533
3118.8	-0.0866318
3120.07	0.34001
3121.35	-0.21188
3122.62	0.373592
3123.89	0.55168
3125.16	0.67581
3126.44	-0.119532
3127.71	0.561665
3128.98	0.85133
3130.25	0.492594
3131.52	0.593796
3132.79	0.505404
3134.06	0.537714
3135.33	0.325739
3136.6	0.854622
3137.87	0.491772
3139.14	0.842489
3140.41	0.46537
3141.68	0.922695
3142.95	0.479656
3144.22	0.48143
3145.49	0.846706
3146.76	0.944878
3148.02	1.01761
3149.29	1.10491
