200.398	-0.211552
202.213	-0.160267
204.027	-0.106482
205.843	0.216702
207.657	0.734554
209.47	0.0115719
211.283	0.185707
213.097	0.332735
214.909	0.452927
216.721	0.353491
218.533	-0.15757
220.344	0.107658
222.157	-0.27879
223.967	-0.179672
225.777	-0.103785
227.587	0.189524
229.396	0.143694
231.205	0.651804
233.016	0.91748
234.824	0.43589
236.632	0.752464
238.439	0.952427
240.247	1.25378
242.053	0.306004
243.86	1.67595
245.666	2.49193
247.474	3.06388
249.279	3.75078
251.085	4.5512
252.889	3.75169
254.694	4.70963
256.498	4.55631
258.301	3.85059
260.105	4.30547
261.908	4.13821
263.71	3.70979
265.513	3.98243
267.315	3.09913
269.116	3.63692
270.918	4.24532
272.718	3.01866
274.519	2.75316
276.319	3.08669
278.119	3.27127
279.918	1.98191
281.718	1.19504
283.516	2.0407
285.315	1.58424
287.113	0.814829
288.911	0.981886
290.708	1.38949
292.505	1.48774
294.302	1.20623
296.098	1.50175
297.894	1.17779
299.69	0.950569
301.485	0.555849
303.278	0.0402164
305.073	0.31008
306.867	0.148317
308.661	1.05878
310.454	0.968489
312.247	-0.0959988
314.04	0.6052
315.833	0.85733
317.623	1.06529
319.415	0.871403
321.206	1.06093
322.997	0.894421
324.788	-0.249844
326.579	0.729557
328.367	-0.345135
330.156	0.250927
331.946	0.34296
333.735	0.383768
335.523	-0.369366
337.31	-0.122074
339.098	0.288479
340.885	0.504236
342.673	0.550669
344.458	-0.502403
346.244	0.094183
348.03	-0.526228
349.816	0.597193
351.6	0.478931
353.385	0.383427
355.17	-0.119699
356.953	0.280945
358.737	-0.107918
360.521	-0.0938339
362.304	0.441822
364.085	0.0238819
365.868	-0.703733
367.65	0.609592
369.431	0.614391
371.212	0.0725288
372.994	0.287462
374.773	0.501001
376.554	0.784803
378.332	0.40859
380.112	0.859272
381.892	1.28778
383.669	1.57697
385.448	1.63327
387.225	0.986984
389.003	1.82325
390.781	0.970016
392.557	2.23214
394.334	2.13329
396.109	2.88057
397.885	2.54774
399.66	2.91901
401.436	3.40674
403.211	3.1179
404.984	3.39099
406.759	3.56835
408.532	3.1572
410.306	3.49652
412.078	3.69483
413.851	4.15203
415.623	3.60174
417.395	4.43761
419.166	5.25158
420.938	4.14178
422.708	4.83856
424.477	4.21915
426.248	2.98714
428.017	4.00683
429.788	2.37273
431.556	1.86532
433.326	1.71057
435.093	1.43907
436.86	0.745003
438.629	1.01176
440.395	0.712357
442.163	-0.0131245
443.929	1.6959
445.694	1.36067
447.461	0.789263
449.226	1.0596
450.99	0.605207
452.756	0.548954
454.52	-0.136639
456.285	0.250841
458.048	-0.550402
459.811	0.743948
461.573	-0.194868
463.337	-0.386044
465.099	-0.200983
466.86	0.198425
468.623	0.556643
470.384	-0.313675
472.144	-0.299551
473.906	0.0624466
475.666	0.165138
477.425	0.496548
479.184	-0.363804
480.944	0.381039
482.703	0.520304
484.461	1.4303
486.218	0.503963
487.975	1.02619
489.734	0.643501
491.491	0.799141
493.247	0.395601
495.003	0.599718
496.759	0.195383
498.516	0.0942822
500.271	0.273445
502.025	0.568953
503.779	1.07452
505.533	0.99087
507.287	1.35111
509.042	1.82609
510.795	1.19204
512.547	1.11926
514.299	1.01985
516.051	1.294
517.803	1.18919
519.554	1.76404
521.305	2.26621
523.055	2.25011
524.805	1.8814
526.555	1.51296
528.307	1.66069
530.056	2.18298
531.805	1.64982
533.553	1.93485
535.301	1.35153
537.049	1.4673
538.797	0.996204
540.544	1.08331
542.291	1.98372
544.037	1.55494
545.783	1.49883
547.529	1.16462
549.275	1.48073
551.02	1.10183
552.765	0.168911
554.509	0.948214
556.253	0.94153
557.997	1.097
559.738	0.400692
561.482	0.627428
563.224	0.555868
564.967	0.761362
566.709	0.829992
568.451	0.0965652
570.192	1.10993
571.933	-0.237671
573.674	-0.0676517
575.415	0.0828247
577.153	0.259562
578.893	0.484943
580.632	0.459452
582.371	0.0665207
584.11	0.292891
585.849	0.425449
587.587	-0.341593
589.323	0.269125
591.06	0.440872
592.797	0.128328
594.534	0.689699
596.271	-0.152336
598.005	-0.00513458
599.741	0.716492
601.476	-0.357924
603.211	-0.261513
604.944	0.10788
606.679	-0.169096
608.413	-0.562281
610.147	-0.220951
611.878	0.786066
613.611	0.4638
615.344	0.0744057
617.077	-0.062315
618.807	0.303957
620.539	0.00390816
622.27	-0.000900269
623.999	0.678345
625.73	0.21427
627.461	-0.041748
629.189	-0.156788
630.919	0.850855
632.648	0.584768
634.376	0.0470104
636.105	0.193348
637.833	1.11251
639.559	0.519701
641.287	0.468725
643.013	0.663507
644.74	0.308744
646.467	-0.113171
648.192	0.628475
649.918	0.489346
651.642	0.78973
653.368	1.53011
655.091	0.754421
656.816	0.801926
658.538	1.51264
660.263	0.626909
661.987	1.26648
663.708	0.73679
665.432	1.59614
667.153	0.142313
668.875	0.653177
670.596	-0.0469646
672.318	0.469152
674.037	1.47167
675.759	0.623781
677.478	0.557039
679.196	0.605423
680.917	0.0772953
682.635	0.64908
684.355	0.503695
686.072	0.446207
687.791	-0.0291424
689.508	-0.115213
691.224	0.211878
692.942	0.16914
694.658	-0.404793
696.376	-0.427816
698.091	0.766975
699.805	0.324554
701.522	-0.878767
703.236	0.0090332
704.95	0.159248
706.665	0.85894
708.379	0.433031
710.093	0.808937
711.806	0.473774
713.518	0.024168
715.23	0.191963
716.943	0.0396233
718.655	-0.180687
720.366	0.351843
722.078	0.655991
723.788	-0.291655
725.498	0.330702
727.208	0.542553
728.919	-0.268045
730.628	0.350294
732.337	-0.0298843
734.045	0.563164
735.755	0.250923
737.463	0.527119
739.17	0.262665
740.877	0.541557
742.584	0.124096
744.292	0.452715
745.998	1.7065
747.704	1.09506
749.409	0.239229
751.114	0.39827
752.819	0.559896
754.526	0.859276
756.23	1.0268
757.934	0.229435
759.637	-0.11532
761.34	-0.458305
763.043	1.16225
764.746	0.662344
766.448	2.03493
768.152	0.670084
769.853	0.792301
771.554	1.11403
773.255	1.79466
774.956	0.167868
776.656	1.6398
778.356	0.672348
780.056	1.10985
781.755	1.79877
783.454	1.1986
785.153	1.63727
786.851	1.39228
788.549	0.530016
790.247	1.78825
791.944	0.6208
793.641	1.394
795.338	0.743866
797.034	0.276932
798.73	1.03005
800.426	1.33562
802.121	0.878874
803.817	1.07613
805.511	0.50868
807.206	1.80517
808.9	2.5365
810.592	0.436813
812.286	1.23103
813.979	1.46266
815.672	1.9844
817.364	1.05124
819.057	1.39368
820.748	0.842659
822.44	0.806465
824.129	1.5523
825.82	1.43086
827.511	0.578793
829.201	1.46962
830.891	0.941145
832.581	0.930576
834.269	0.679123
835.958	1.00943
837.646	0.648033
839.335	1.22189
841.023	1.01129
842.709	0.351063
844.396	0.583366
846.084	1.4205
847.77	1.07663
849.455	0.468861
851.141	1.45499
852.827	1.77455
854.513	0.750607
856.196	0.600271
857.881	1.66165
859.566	0.471359
861.248	0.716818
862.932	0.846651
864.616	0.500748
866.297	-0.478451
867.98	0.908218
869.663	0.309889
871.343	0.139324
873.026	-0.685944
874.707	0.180704
876.387	0.190109
878.068	0.538115
879.747	0.750626
881.428	-1.04668
883.108	0.585968
884.786	-0.424725
886.465	0.841679
888.143	0.366987
889.822	0.836615
891.498	0.311069
893.177	0.684338
894.855	-0.340487
896.53	0.455349
898.208	0.596279
899.883	-0.566021
901.56	0.468435
903.234	0.671309
904.91	0.426214
906.584	0.606329
908.26	0.564278
909.933	-0.16621
911.608	-0.3372
913.28	-0.617521
914.955	-0.0084362
916.627	0.200388
918.298	0.519518
919.972	-0.401724
921.643	0.936304
923.315	0.373365
924.986	-0.428408
926.656	0.165401
928.328	0.0558605
929.997	0.125521
931.668	-0.0460892
933.337	0.577143
935.006	0.980032
936.676	0.611778
938.344	0.311531
940.012	0.918081
941.681	0.225819
943.348	-0.112089
945.014	-0.0530624
946.683	0.0258732
948.349	0.675097
950.015	1.29813
951.682	0.991507
953.347	0.552797
955.012	0.889233
956.676	-0.00352669
958.343	-0.0738144
960.006	0.479654
961.67	0.197895
963.333	-0.150642
964.998	0.293316
966.661	-0.28548
968.323	0.324627
969.985	-0.374998
971.649	1.06924
973.31	0.523502
974.971	0.644297
976.632	0.658377
978.293	0.321779
979.953	0.462267
981.615	0.602137
983.274	1.34811
984.933	1.93503
986.592	0.990038
988.251	2.51959
989.909	1.65667
991.567	0.57217
993.225	0.857954
994.884	1.71751
996.541	1.53948
998.198	2.88302
999.855	3.71765
1001.51	3.3391
1003.17	2.21181
1004.82	1.37122
1006.48	2.09181
1008.13	1.16465
1009.79	1.8634
1011.44	1.26834
1013.1	0.69698
1014.75	1.83568
1016.4	1.46348
1018.06	0.720858
1019.71	1.53353
1021.36	1.51709
1023.01	-0.00503349
1024.66	1.07624
1026.32	1.94005
1027.97	2.36681
1029.62	2.94499
1031.27	1.37979
1032.92	1.64592
1034.57	2.2135
1036.22	2.60274
1037.87	1.70406
1039.52	2.41735
1041.16	2.58724
1042.81	2.25995
1044.46	4.26188
1046.11	4.72495
1047.76	3.86792
1049.4	5.6864
1051.05	5.27131
1052.7	6.42243
1054.34	6.11923
1055.99	6.35931
1057.63	5.57703
1059.28	4.29314
1060.92	4.13805
1062.57	3.85056
1064.21	2.95201
1065.85	2.0512
1067.5	2.32187
1069.14	1.13445
1070.78	1.96612
1072.43	1.92846
1074.07	0.35133
1075.71	1.5974
1077.35	1.30611
1078.99	1.42977
1080.63	0.557753
1082.27	0.770052
1083.91	0.980497
1085.55	1.12231
1087.19	1.56283
1088.83	0.785566
1090.47	0.892563
1092.11	1.94781
1093.75	0.537928
1095.39	1.37491
1097.03	1.06969
1098.66	1.5435
1100.3	0.406063
1101.94	-0.0158691
1103.57	0.448372
1105.21	0.420681
1106.84	0.265303
1108.48	0.281446
1110.11	0.273804
1111.75	0.499189
1113.38	-0.611029
1115.02	0.230925
1116.65	0.0835857
1118.29	0.343939
1119.92	0.81966
1121.55	0.740343
1123.19	-0.0856094
1124.82	0.717327
1126.45	0.708929
1128.08	0.103531
1129.71	1.12492
1131.34	-0.140179
1132.97	0.541
1134.6	-0.253088
1136.23	0.0844688
1137.86	-0.43504
1139.49	0.858791
1141.12	-0.220549
1142.75	-0.169039
1144.38	0.0319786
1146.01	-0.320024
1147.64	-0.0942593
1149.26	-0.186285
1150.89	0.0849495
1152.52	0.398727
1154.15	0.00906372
1155.77	-0.0832787
1157.4	-0.0694695
1159.02	0.79586
1160.65	0.259172
1162.27	0.0440712
1163.9	0.256483
1165.52	-0.422909
1167.15	0.109154
1168.77	0.0861626
1170.39	-0.195518
1172.02	0.0711689
1173.64	0.057642
1175.26	0.211084
1176.89	0.977825
1178.51	0.218641
1180.13	0.0759544
1181.75	0.25275
1183.37	0.409718
1184.99	0.165205
1186.61	0.130184
1188.23	0.893442
1189.85	0.0489254
1191.47	1.05469
1193.09	0.603642
1194.71	1.15972
1196.33	0.288521
1197.94	1.20146
1199.56	1.17496
1201.18	1.5509
1202.8	1.55662
1204.41	2.13195
1206.03	1.68969
1207.65	0.812716
1209.26	1.5429
1210.88	1.58287
1212.49	2.43204
1214.11	1.67064
1215.72	1.92525
1217.34	2.65356
1218.95	2.48428
1220.57	2.75091
1222.18	2.39644
1223.79	2.66721
1225.41	3.54167
1227.02	2.49432
1228.63	2.19609
1230.24	3.45182
1231.85	3.30418
1233.47	3.57295
1235.08	2.52204
1236.69	3.3549
1238.3	3.44631
1239.91	3.27065
1241.52	3.92277
1243.13	3.64346
1244.74	2.28622
1246.34	3.16115
1247.95	2.5438
1249.56	2.60748
1251.17	3.97367
1252.78	2.81645
1254.38	2.8401
1255.99	2.39058
1257.6	3.28858
1259.2	2.38951
1260.81	3.23084
1262.42	3.10073
1264.02	3.59209
1265.63	2.77735
1267.23	2.5615
1268.84	3.4629
1270.44	4.23763
1272.04	2.93639
1273.65	2.95964
1275.25	2.62815
1276.85	2.93699
1278.46	2.7465
1280.06	2.90666
1281.66	2.46574
1283.26	2.77018
1284.86	2.33115
1286.46	2.8868
1288.07	2.63857
1289.67	2.57861
1291.27	3.36712
1292.87	2.87432
1294.47	4.2392
1296.06	3.39054
1297.66	4.49971
1299.26	3.1897
1300.86	3.54769
1302.46	3.65487
1304.06	4.15049
1305.65	3.08084
1307.25	3.53191
1308.85	4.16595
1310.44	3.93783
1312.04	3.9977
1313.64	3.91613
1315.23	3.65322
1316.83	3.94439
1318.42	4.0733
1320.02	2.87668
1321.61	4.51127
1323.2	3.65644
1324.8	4.01874
1326.39	4.43758
1327.99	4.40777
1329.58	4.25784
1331.17	4.0312
1332.76	4.27524
1334.36	4.82735
1335.95	5.06011
1337.54	4.00335
1339.13	3.83318
1340.72	4.58578
1342.31	3.96338
1343.9	4.42278
1345.49	4.23575
1347.08	4.08937
1348.67	3.7872
1350.26	2.99127
1351.85	4.08279
1353.43	4.07878
1355.02	3.27864
1356.61	3.31918
1358.2	2.55966
1359.78	3.71545
1361.37	3.21099
1362.96	2.7648
1364.54	3.53432
1366.13	3.28735
1367.71	1.98709
1369.3	2.54206
1370.88	3.11993
1372.47	3.70092
1374.05	3.09079
1375.64	3.41755
1377.22	3.18746
1378.8	2.75721
1380.39	2.92154
1381.97	2.32677
1383.55	3.24057
1385.13	2.91879
1386.72	3.27162
1388.3	2.17482
1389.88	2.17223
1391.46	2.13207
1393.04	2.64928
1394.62	2.45321
1396.2	2.61376
1397.78	2.71311
1399.36	2.27499
1400.94	2.74602
1402.52	2.56188
1404.1	2.23932
1405.68	2.49172
1407.25	2.0739
1408.83	2.92295
1410.41	3.35794
1411.98	3.55566
1413.56	2.7846
1415.14	3.01825
1416.71	3.52567
1418.29	3.16428
1419.87	2.48882
1421.44	3.96275
1423.02	2.21119
1424.59	3.02295
1426.16	3.22756
1427.74	3.76817
1429.31	2.83198
1430.89	5.21994
1432.46	4.23932
1434.03	4.86985
1435.6	5.5578
1437.18	5.81325
1438.75	5.12696
1440.32	5.50479
1441.89	6.67118
1443.46	5.5204
1445.03	6.13946
1446.6	6.26769
1448.17	6.43565
1449.74	5.5821
1451.31	5.51601
1452.88	5.33329
1454.45	5.82032
1456.02	5.46144
1457.59	5.04182
1459.16	5.3668
1460.72	4.91987
1462.29	4.66507
1463.86	4.64226
1465.43	4.32181
1466.99	4.05965
1468.56	3.66115
1470.13	3.61843
1471.69	3.53925
1473.26	2.81551
1474.82	2.79992
1476.38	2.98141
1477.95	2.43778
1479.51	3.28589
1481.08	3.13395
1482.64	3.35417
1484.2	3.31929
1485.77	2.83301
1487.33	2.56058
1488.89	2.22649
1490.46	2.35798
1492.02	2.46457
1493.58	1.76488
1495.14	2.1355
1496.7	2.09334
1498.26	2.42037
1499.82	2.43688
1501.38	1.60167
1502.94	1.4886
1504.5	1.43597
1506.06	2.46815
1507.62	2.08518
1509.18	1.99033
1510.73	1.56493
1512.29	1.9286
1513.85	1.25106
1515.41	1.47903
1516.96	2.24537
1518.52	0.614641
1520.08	2.28373
1521.63	1.61526
1523.19	1.196
1524.75	1.80686
1526.3	1.68929
1527.85	1.70313
1529.41	1.33524
1530.96	1.55693
1532.52	2.15832
1534.07	1.927
1535.62	1.47171
1537.18	1.66205
1538.73	2.08016
1540.28	1.48008
1541.84	1.97407
1543.39	2.16575
1544.94	1.52928
1546.49	1.88907
1548.04	2.04133
1549.59	1.94946
1551.14	1.59607
1552.69	2.46046
1554.25	2.87687
1555.79	2.28741
1557.34	2.16951
1558.89	2.16825
1560.44	1.35066
1561.99	3.18589
1563.54	2.71062
1565.08	3.03899
1566.63	2.65861
1568.18	2.24025
1569.73	2.49287
1571.27	2.38994
1572.82	2.65965
1574.37	3.37704
1575.91	2.60107
1577.46	3.487
1579	3.19782
1580.55	2.70466
1582.09	3.50181
1583.64	3.6102
1585.18	3.06637
1586.73	3.12161
1588.27	2.70965
1589.81	2.72725
1591.35	3.53002
1592.9	3.84535
1594.44	2.99884
1595.98	2.75144
1597.52	3.27324
1599.06	3.2345
1600.61	3.91025
1602.15	4.30629
1603.69	5.39753
1605.23	3.93317
1606.77	3.89262
1608.31	4.14805
1609.85	4.99926
1611.39	3.21379
1612.93	3.69728
1614.46	3.72657
1616	3.21073
1617.54	3.24015
1619.08	3.32846
1620.61	3.06443
1622.15	3.74004
1623.69	4.04305
1625.23	2.73631
1626.76	2.96293
1628.3	3.69152
1629.83	2.47134
1631.37	3.39921
1632.9	4.25024
1634.44	3.21552
1635.97	3.80704
1637.51	3.4491
1639.04	3.11163
1640.57	3.94867
1642.11	4.05708
1643.64	3.93929
1645.17	4.24665
1646.71	4.6257
1648.24	4.03709
1649.77	4.26719
1651.3	4.22098
1652.83	4.78995
1654.36	4.23028
1655.89	5.09982
1657.42	5.13488
1658.96	4.20491
1660.48	4.29079
1662.01	4.15098
1663.54	3.91607
1665.07	4.34501
1666.6	4.70021
1668.13	4.46734
1669.66	4.29375
1671.19	4.45566
1672.71	3.49662
1674.24	4.49132
1675.77	3.11004
1677.29	3.66019
1678.82	2.91958
1680.35	2.82069
1681.87	2.29747
1683.4	2.41677
1684.92	2.82964
1686.45	1.81232
1687.97	1.58536
1689.5	2.01902
1691.02	2.12323
1692.54	1.3308
1694.07	1.52676
1695.59	1.5393
1697.11	2.08113
1698.64	1.12411
1700.16	1.80976
1701.68	1.21666
1703.2	0.495493
1704.72	0.229435
1706.25	0.963531
1707.77	1.00487
1709.29	1.06409
1710.81	0.905571
1712.33	-0.267721
1713.85	0.826006
1715.37	0.886221
1716.89	0.548246
1718.41	0.463531
1719.92	0.595491
1721.44	0.583233
1722.96	-0.203051
1724.48	0.707539
1725.99	0.143328
1727.51	0.482578
1729.03	0.158005
1730.55	0.64086
1732.06	0.917068
1733.58	0.716108
1735.09	-0.133795
1736.61	0.367353
1738.13	0.246788
1739.64	0.260784
1741.15	0.566717
1742.67	0.271196
1744.18	0.286375
1745.7	0.769728
1747.21	0.00626755
1748.72	0.415257
1750.24	-0.193207
1751.75	0.530899
1753.26	-0.022953
1754.77	0.393652
1756.29	0.775702
1757.8	0.40379
1759.31	0.122856
1760.82	-0.123112
1762.33	-0.170963
1763.84	-0.354885
1765.35	-0.196207
1766.86	0.470335
1768.37	0.246359
1769.88	0.558167
1771.39	0.137754
1772.9	0.408253
1774.4	0.0321922
1775.91	-0.0967922
1777.42	-0.0347347
1778.93	0.292446
1780.44	0.113001
1781.94	0.551718
1783.45	0.311766
1784.96	0.31378
1786.46	0.430862
1787.97	0.304802
1789.47	-0.331715
1790.98	-0.56601
1792.48	0.259197
1793.99	0.218388
1795.49	0.251175
1797	-0.575727
1798.5	0.0803871
1800.01	-0.192299
1801.51	0.169601
1803.01	0.215939
1804.51	-0.170559
1806.02	0.017725
1807.52	0.0264912
1809.02	-0.254257
1810.52	0.262239
1812.02	-0.0318146
1813.52	0.116003
1815.02	-0.0811996
1816.53	-0.405659
1818.03	0.241898
1819.52	-0.0382042
1821.02	0.314165
1822.52	-0.29332
1824.02	-0.269451
1825.52	0.0320778
1827.02	-0.0761738
1828.52	0.101423
1830.02	-0.245073
1831.51	0.073452
1833.01	0.0864162
1834.51	0.270132
1836.01	0.0653477
1837.5	-0.093111
1839	0.473211
1840.49	0.206963
1841.99	0.340975
1843.49	0.389122
1844.98	0.126602
1846.48	0.237652
1847.97	0.326643
1849.47	0.00947571
1850.96	0.251577
1852.45	0.394255
1853.95	0.582476
1855.44	0.42347
1856.93	0.0751572
1858.42	0.00884247
1859.92	0.301851
1861.41	0.0846539
1862.9	0.217791
1864.39	0.684656
1865.88	0.88426
1867.38	0.554913
1868.87	-0.138557
1870.36	0.260668
1871.85	-0.181013
1873.34	-0.317705
1874.83	0.172094
1876.32	0.527969
1877.81	0.467466
1879.29	0.223017
1880.78	-0.0205975
1882.27	-0.370436
1882.53	-0.437307
1884.03	0.5362
1885.52	0.113104
1887.01	0.820488
1888.51	0.0462952
1890	-0.048069
1891.5	-0.105291
1892.99	-0.245737
1894.48	0.38298
1895.97	0.163359
1897.47	0.519533
1898.96	-0.0811481
1900.45	0.237709
1901.94	0.796356
1903.43	0.933218
1904.92	0.0583076
1906.41	0.415979
1907.9	0.234907
1909.39	-0.22229
1910.88	0.5376
1912.37	-0.140631
1913.86	0.171324
1915.35	0.0151825
1916.84	-0.124311
1918.33	0.203003
1919.81	0.442465
1921.3	0.542999
1922.79	-0.117443
1924.28	0.0208111
1925.76	0.196276
1927.25	-0.00665665
1928.73	1.03851
1930.22	0.473404
1931.71	0.0795078
1933.19	-0.594715
1934.68	0.216043
1936.16	0.261032
1937.65	0.942949
1939.13	-0.00127411
1940.62	0.506872
1942.1	-0.191601
1943.58	-0.214237
1945.07	0.713539
1946.55	-0.0650406
1948.03	0.397148
1949.51	0.702229
1951	0.143806
1952.48	-0.106388
1953.96	0.485004
1955.44	0.474007
1956.92	0.326557
1958.4	-0.557102
1959.88	-0.340309
1961.36	0.700577
1962.84	0.267042
1964.32	0.690079
1965.8	0.392326
1967.28	0.315777
1968.76	0.152273
1970.24	0.790974
1971.72	-0.450672
1973.2	0.203901
1974.67	0.0390816
1976.15	0.283964
1977.63	-0.0501785
1979.1	0.382322
1980.58	-0.410522
1982.06	-0.0638065
1983.54	0.145864
1985.01	-0.137753
1986.49	-0.0314217
1987.96	-0.179497
1989.44	0.486235
1990.91	0.915684
1992.39	0.365896
1993.86	-0.0795403
1995.33	0.879898
1996.81	-0.390249
1998.28	-0.207258
1999.75	-0.363005
2001.23	0.593742
2002.7	-0.289978
2004.17	0.748667
2005.65	0.00101662
2007.12	0.198956
2008.59	0.2474
2010.06	-0.0388756
2011.53	0.0296535
2013	0.232939
2014.47	1.29344
2015.94	0.433691
2017.41	-0.259459
2018.88	0.155586
2020.35	-0.254299
2021.82	-0.680876
2023.29	0.0518932
2024.76	0.51737
2026.23	0.482101
2027.69	-0.203903
2029.16	-0.198792
2030.63	0.0777512
2032.1	-0.146776
2033.56	0.0325279
2035.03	0.430269
2036.5	-0.0797539
2037.96	0.551357
2039.43	-0.0114193
2040.89	0.450863
2042.36	0.0735359
2043.83	0.875105
2045.29	-0.44079
2046.75	-0.0895004
2048.22	-0.326712
2049.68	0.345228
2051.15	0.290438
2052.61	0.535639
2054.07	0.355053
2055.54	0.119888
2057	0.303141
2058.46	-0.0547733
2059.92	0.328375
2061.39	0.190228
2062.85	-0.0974503
2064.31	0.139009
2065.77	-0.648848
2067.23	-0.239944
2068.69	0.0861855
2070.15	-0.0413818
2071.61	-0.16884
2073.07	0.427374
2074.53	-0.0209007
2075.99	-0.116348
2077.45	0.376802
2078.91	0.801682
2080.37	0.215151
2081.82	0.250429
2083.28	0.14953
2084.74	0.535019
2086.2	-0.00661278
2087.65	-0.26334
2089.11	0.991774
2090.57	0.683031
2092.02	0.25692
2093.48	-0.2864
2094.94	0.126213
2096.39	0.822157
2097.85	0.276293
2099.3	0.80089
2100.76	0.253714
2102.21	0.209192
2103.66	0.550671
2105.12	0.477455
2106.57	0.223972
2108.03	0.0063858
2109.48	0.0064373
2110.93	0.538744
2112.38	0.684429
2113.84	0.243256
2115.29	0.780834
2116.74	0.284758
2118.19	0.454664
2119.64	0.262178
2121.09	0.273306
2122.54	0.637043
2123.99	0.688856
2125.45	-0.518034
2126.89	1.01036
2128.34	0.629749
2129.79	0.246248
2131.24	-0.239141
2132.69	0.184662
2134.14	0.0454674
2135.59	0.470329
2137.04	0.0551434
2138.48	0.272181
2139.93	0.328077
2141.38	-0.0422058
2142.83	1.19389
2144.27	0.248707
2145.72	0.312601
2147.17	0.127552
2148.61	-0.688366
2150.06	-0.0486794
2151.5	0.440014
2152.95	0.297009
2154.39	-0.377947
2155.84	0.420683
2157.28	0.175735
2158.73	-0.216726
2160.17	0.354424
2161.61	-0.0149918
2163.06	0.415016
2164.5	0.0690575
2165.94	-0.142761
2167.38	-0.0394039
2168.83	0.710262
2170.27	0.226091
2171.71	0.618793
2173.15	-0.0739155
2174.59	-0.00428391
2176.03	0.762577
2177.47	0.615108
2178.91	0.801846
2180.36	0.0264263
2181.8	-0.048872
2183.23	-0.00654984
2184.67	0.468843
2186.11	0.778223
2187.55	0.505405
2188.99	-0.250048
2190.43	0.508936
2191.87	0.0855827
2193.3	-0.172951
2194.74	1.04753
2196.18	0.316158
2197.62	0.745672
2199.05	0.289724
2200.49	0.164484
2201.93	0.039114
2203.36	0.578953
2204.8	0.374372
2206.23	0.686014
2207.67	0.534697
2209.1	0.995813
2210.54	0.196898
2211.97	0.455338
2213.41	0.298576
2214.84	0.207851
2216.27	0.894348
2217.71	-0.166159
2219.14	0.525002
2220.57	0.0800533
2222.01	0.723402
2223.44	0.211515
2224.87	0.207546
2226.3	-0.0140419
2227.73	0.928394
2229.16	0.716509
2230.6	0.700203
2232.03	0.486826
2233.46	0.667385
2234.89	0.40777
2236.32	-0.0447922
2237.75	0.257771
2239.18	0.710958
2240.61	0.18959
2242.03	0.634665
2243.46	0.462696
2244.89	0.911335
2246.32	0.510345
2247.75	0.693018
2249.17	-0.0258198
2250.6	0.554558
2252.03	0.365145
2253.46	0.548229
2254.88	1.12156
2256.31	0.317348
2257.73	-0.0749931
2259.16	0.042038
2260.59	0.279011
2262.01	0.456554
2263.44	-0.482821
2264.86	0.511213
2266.29	0.513721
2267.71	-0.315207
2269.14	1.24551
2270.56	0.558914
2271.98	0.701254
2273.4	0.126671
2274.83	0.627172
2276.25	-0.175159
2277.67	1.35313
2279.09	0.485922
2280.52	0.400862
2281.94	0.397026
2283.36	0.344048
2284.78	0.04636
2286.2	0.48354
2287.62	0.350311
2289.04	0.969339
2290.46	0.51129
2291.88	0.560253
2293.3	0.462347
2294.72	0.249775
2296.14	0.167782
2297.56	0.282112
2298.98	0.986423
2300.4	0.560894
2301.82	-0.0447826
2303.23	-0.355131
2304.65	0.237352
2306.07	0.616787
2307.49	0.355005
2308.9	0.552044
2310.32	-0.255156
2311.73	-0.553837
2313.15	0.0522079
2314.57	0.824123
2315.98	0.33036
2317.4	0.0849857
2318.81	0.104078
2320.23	0.469038
2321.64	0.369877
2323.06	0.299484
2324.47	0.289953
2325.88	0.918871
2327.3	0.933346
2328.71	1.11088
2330.12	0.992174
2331.54	-0.326214
2332.95	-0.077652
2334.36	0.337166
2335.77	0.604294
2337.18	0.73871
2338.6	0.0817223
2340.01	-0.511475
2341.42	0.585409
2342.83	0.531004
2344.24	0.279808
2345.65	0.324562
2347.06	0.97592
2348.47	-0.0267143
2349.88	0.754137
2351.29	0.322523
2352.7	0.199724
2354.1	0.336147
2355.51	0.470762
2356.92	0.897417
2358.33	-0.319624
2359.74	-0.120277
2361.14	0.598215
2362.55	0.34239
2363.96	-0.350412
2365.36	-0.621193
2366.77	-0.163757
2368.18	-0.303314
2369.58	0.785574
2370.99	0.473354
2372.39	0.0517406
2373.8	0.59894
2375.2	-0.157272
2376.61	-0.656208
2378.01	-0.0795631
2379.42	-0.262207
2380.82	-0.0628662
2382.22	0.197119
2383.63	0.00612068
2385.03	-0.248928
2386.43	-0.230873
2387.84	-0.210928
2389.24	0.226088
2390.64	-0.179216
2392.04	0.373833
2393.44	0.116951
2394.84	-0.15374
2396.25	0.0542641
2397.65	-0.388103
2399.05	0.664577
2400.45	0.0816574
2401.85	0.532057
2403.25	0.378925
2404.65	0.764883
2406.05	0.0375595
2407.45	0.0862083
2408.84	-0.0730782
2410.24	0.432817
2411.64	0.764416
2413.04	0.0206623
2414.44	0.720919
2415.83	0.442719
2417.23	-0.0858212
2418.63	0.606718
2420.02	0.286734
2421.42	0.219799
2422.82	0.611511
2424.21	0.46398
2425.61	-0.111303
2427	0.439648
2428.4	0.374456
2429.8	0.025856
2431.19	0.693939
2432.58	0.521614
2433.98	0.347994
2435.37	0.807203
2436.77	0.135189
2438.16	0.635504
2439.55	1.24399
2440.95	0.420872
2442.34	0.00982666
2443.73	0.375998
2445.12	0.170471
2446.51	0.170879
2447.91	0.487936
2449.3	0.535393
2450.69	-0.0658588
2452.08	0.0150928
2453.47	0.366661
2454.86	0.609207
2456.25	-0.586281
2457.64	0.386126
2459.03	0.488136
2460.42	0.604668
2461.81	-0.324146
2463.2	-0.3216
2464.59	-0.478292
2465.98	0.51734
2467.36	0.517418
2468.75	0.296474
2470.14	0.658806
2471.53	0.0109615
2472.92	0.638359
2474.3	0.287226
2475.69	-0.363686
2477.08	-0.0870495
2478.46	0.110502
2479.85	0.166861
2481.23	-0.27825
2482.62	0.248558
2484	-0.0561905
2485.39	0.0912571
2486.77	0.23596
2488.16	0.284315
2489.54	0.268591
2490.93	-0.198769
2492.31	-0.0109711
2493.69	0.116571
2495.08	0.0295753
2496.46	0.100431
2497.84	-0.183218
2499.23	-0.465908
2500.61	0.39566
2501.99	0.249649
2503.37	-0.23794
2504.75	0.600035
2506.13	0.387131
2507.52	0.0971985
2508.9	-0.314804
2510.28	0.457481
2511.66	0.0942822
2513.04	0.0859966
2514.42	0.676912
2515.8	0.212799
2517.18	0.286327
2518.55	0.26922
2519.93	1.06239
2521.31	0.0672226
2522.69	0.582844
2524.07	-0.0632515
2525.45	0.555033
2526.82	-0.168303
2528.2	0.114607
2529.58	0.262609
2530.95	0.748245
2532.33	0.842197
2533.71	0.75684
2535.08	1.22002
2536.46	0.270178
2537.84	-0.118927
2539.21	0.203869
2540.59	0.342505
2541.96	-0.0661316
2543.34	0.25436
2544.71	0.424816
2546.08	1.08327
2547.46	0.864664
2548.83	0.784452
2550.2	0.112541
2551.58	0.000917435
2552.95	0.767555
2554.32	0.0295124
2555.7	0.00284958
2557.07	0.718216
2558.44	0.70505
2559.81	-0.398993
2561.18	0.347626
2562.55	0.671061
2563.93	0.859341
2565.3	0.563623
2566.67	0.526064
2568.04	0.261354
2569.41	1.08787
2570.78	0.959564
2572.15	0.907124
2573.51	0.354609
2574.88	0.181208
2576.25	0.462658
2577.62	0.819798
2578.99	0.236361
2580.36	0.258657
2581.73	0.462002
2583.09	0.800962
2584.46	0.229733
2585.83	0.295149
2587.19	0.663919
2588.56	0.351044
2589.93	0.417288
2591.29	0.422634
2592.66	0.305746
2594.02	0.45982
2595.39	0.808441
2596.75	0.92745
2598.12	0.575598
2599.48	0.707111
2600.85	0.551609
2602.21	0.382254
2603.58	0.78812
2604.94	0.27441
2606.3	0.968237
2607.67	1.04259
2609.03	0.255926
2610.39	0.898403
2611.76	0.618965
2613.12	0.187105
2614.48	0.865965
2615.84	0.312395
2617.2	0.120209
2618.56	0.408922
2619.92	0.818497
2621.28	0.272085
2622.65	0.414907
2624.01	0.214588
2625.37	0.7456
2626.72	0.529726
2628.08	0.238918
2629.44	0.45413
2630.8	0.207321
2632.16	0.585033
2633.52	0.382721
2634.88	0.210339
2636.24	0.512718
2637.59	0.355207
2638.95	0.523787
2640.31	0.559263
2641.67	-0.0256596
2643.02	-0.165962
2644.38	0.00428772
2645.74	0.896992
2647.09	0.460775
2648.45	0.745466
2649.8	0.571672
2651.16	0.631924
2652.51	-0.0135536
2653.87	1.10325
2655.22	0.328751
2656.58	0.553833
2657.93	0.678637
2659.29	0.717463
2660.64	0.81562
2661.99	0.533379
2663.35	0.892796
2664.7	0.345003
2666.05	1.05067
2667.41	0.923479
2668.76	0.242945
2670.11	0.306116
2671.46	0.35577
2672.81	0.0870399
2674.16	0.255592
2675.51	0.483246
2676.87	0.72641
2678.22	0.173126
2679.57	0.172916
2680.92	0.392382
2682.27	0.672369
2683.62	0.737467
2684.97	0.514565
2686.31	0.582716
2687.66	0.36025
2689.01	0.933603
2690.36	0.690372
2691.71	0.733503
2693.06	0.787783
2694.4	-0.218643
2695.75	0.57267
2697.1	0.408455
2698.45	0.377432
2699.79	0.6975
2701.14	0.601389
2702.49	0.870579
2703.83	0.707516
2705.18	-0.164951
2706.52	-0.0808563
2707.87	0.438074
2709.21	0.927546
2710.56	0.64687
2711.9	0.67046
2713.25	0.577501
2714.59	0.658751
2715.94	0.696281
2717.28	0.471718
2718.62	0.624712
2719.97	0.937037
2721.31	1.16116
2722.65	0.205296
2723.99	0.747499
2725.34	1.71089
2726.68	0.271788
2728.02	0.709618
2729.36	0.899441
2730.7	1.56906
2732.04	0.841755
2733.39	0.813057
2734.73	0.857454
2736.07	0.829552
2737.41	0.409246
2738.75	0.948771
2740.08	1.00778
2741.43	0.993029
2742.76	0.904167
2744.1	0.188902
2745.44	0.11199
2746.78	0.7603
2748.12	0.406092
2749.46	0.763212
2750.79	0.221254
2752.13	0.738579
2753.47	0.574865
2754.81	-0.182392
2756.14	-0.142303
2757.48	1.02749
2758.81	0.561432
2760.15	0.588495
2761.49	0.587635
2762.82	0.674614
2764.16	0.154549
2765.49	0.357918
2766.83	0.748343
2768.16	0.225405
2769.5	0.480816
2770.83	0.602802
2772.16	0.707254
2773.5	0.00126076
2774.83	-0.0992069
2776.17	-0.127586
2777.5	0.175842
2778.83	-0.181562
2780.16	0.540382
2781.5	0.141888
2782.83	0.476015
2784.16	-0.624582
2785.49	0.182377
2786.82	-0.185799
2788.15	0.0630264
2789.49	0.0127563
2790.82	0.450684
2792.15	0.032095
2793.48	-0.499681
2794.81	-0.373728
2796.14	0.00866699
2797.46	0.403967
2798.79	0.240942
2800.12	0.134211
2801.45	-0.486528
2802.78	0.204662
2804.11	-0.30246
2805.44	-0.0123634
2806.76	-0.00855827
2808.09	0.719267
2809.42	0.194452
2810.75	0.238533
2812.07	0.0425777
2813.4	0.402382
2814.73	0.112774
2816.05	0.223253
2817.38	0.60537
2818.7	0.393423
2820.03	-0.059454
2821.36	0.563896
2822.68	0.519663
2824.01	0.23325
2825.33	-0.393709
2826.65	0.325018
2827.98	0.563147
2829.3	0.462639
2830.63	0.986008
2831.95	0.901106
2833.27	1.09918
2834.6	0.475624
2835.92	1.06823
2837.24	1.71609
2838.56	2.58902
2839.88	2.95192
2841.21	2.48072
2842.53	2.8588
2843.85	3.11104
2845.17	3.47795
2846.49	2.84289
2847.81	4.10244
2849.13	3.49649
2850.45	4.35979
2851.77	3.8651
2853.09	3.59542
2854.41	4.17279
2855.73	3.84536
2857.05	4.61986
2858.37	4.53266
2859.69	5.20807
2861	5.31808
2862.32	5.49788
2863.64	5.90257
2864.96	6.85673
2866.28	7.26018
2867.59	7.02945
2868.91	7.61769
2870.23	8.05168
2871.54	8.03488
2872.86	9.06033
2874.17	9.32261
2875.49	8.5961
2876.81	8.6277
2878.12	8.29141
2879.44	8.93923
2880.75	8.89843
2882.07	8.91588
2883.38	9.25898
2884.69	8.59337
2886.01	8.05589
2887.32	8.8381
2888.63	8.2438
2889.95	8.32129
2891.26	8.48085
2892.57	9.38161
2893.89	8.5441
2895.2	9.16449
2896.51	8.35868
2897.82	9.03918
2899.13	9.58196
2900.44	8.41985
2901.76	9.74901
2903.07	9.10626
2904.38	9.89061
2905.69	10.1161
2907	10.3431
2908.31	10.4321
2909.62	11.3767
2910.93	11.1196
2912.24	11.7442
2913.55	12.5912
2914.85	12.2448
2916.16	12.1742
2917.47	12.5476
2918.78	11.9389
2920.09	12.8408
2921.4	13.2126
2922.7	14.1044
2924.01	13.2943
2925.32	14.1226
2926.62	14.2535
2927.93	14.0072
2929.24	14.1653
2930.54	14.364
2931.85	14.7573
2933.15	14.9122
2934.46	15.3047
2935.76	14.6772
2937.07	14.246
2938.37	13.4799
2939.68	13.3294
2940.98	13.5295
2942.29	12.9492
2943.59	12.1761
2944.89	12.3006
2946.2	11.3512
2947.5	11.242
2948.8	11.2581
2950.11	11.3556
2951.41	10.0488
2952.71	9.85764
2954.01	9.63542
2955.32	9.46844
2956.62	9.9054
2957.92	8.37344
2959.22	9.29717
2960.52	8.25276
2961.82	8.93592
2963.12	8.37327
2964.42	8.74923
2965.72	8.22346
2967.02	8.38215
2968.32	7.0197
2969.62	7.14544
2970.92	6.98974
2972.22	7.69286
2973.51	7.15878
2974.81	6.80744
2976.11	7.04594
2977.41	6.31012
2978.71	6.27458
2980	5.84114
2981.3	5.47548
2982.6	5.23555
2983.9	4.91224
2985.19	4.8024
2986.49	4.42893
2987.78	4.6208
2989.08	3.99986
2990.38	4.08217
2991.67	3.46081
2992.97	3.14652
2994.26	3.71491
2995.56	3.21314
2996.85	3.51051
2998.14	2.67053
2999.44	2.78571
3000.73	1.69618
3002.03	1.40766
3003.32	1.94698
3004.61	2.17811
3005.91	1.21829
3007.2	1.57384
3008.49	1.24186
3009.78	1.23009
3011.07	1.46838
3012.37	0.881783
3013.66	0.826294
3014.95	1.41307
3016.24	0.663267
3017.53	-0.111794
3018.82	-0.0917263
3020.11	0.262358
3021.4	1.0044
3022.69	0.146603
3023.98	0.162525
3025.27	0.509726
3026.56	-0.113585
3027.85	-0.31953
3029.14	0.196125
3030.43	0.368774
3031.71	0.281977
3033	0.25276
3034.29	-0.120687
3035.58	0.15358
3036.87	0.190672
3038.15	0.210455
3039.44	-0.434041
3040.73	-0.351551
3042.01	-0.0925159
3043.3	0.24806
3044.59	-0.286402
3045.87	-0.159889
3047.16	0.230423
3048.44	0.160906
3049.73	0.054966
3051.01	-0.252254
3052.3	0.370213
3053.58	0.501602
3054.87	0.577227
3056.15	0.609882
3057.43	0.435947
3058.72	0.342468
3060	0.49379
3061.29	0.7547
3062.57	0.813504
3063.85	1.05203
3065.13	0.491767
3066.42	-0.255731
3067.7	0.494464
3068.98	-0.168478
3070.26	0.609715
3071.54	-0.368074
3072.82	-0.0832033
3074.11	-0.072607
3075.39	-0.118043
3076.67	0.257083
3077.95	0.361372
3079.23	-0.780311
3080.51	0.387776
3081.79	0.29746
3083.07	0.426879
3084.35	-0.391896
3085.63	0.41793
3086.9	0.127852
3088.18	0.203007
3089.46	0.0733833
3090.74	-0.206166
3092.02	-0.336445
3093.29	0.686747
3094.57	0.245766
3095.85	0.0904417
3097.13	0.369363
3098.4	0.146805
3099.68	0.344347
3100.95	0.311555
3102.23	0.387468
3103.51	-0.145105
3104.78	0.799177
3106.06	0.986981
3107.33	0.527303
3108.61	0.28647
3109.88	0.535228
3111.16	0.163457
3112.43	0.267256
3113.71	0.38576
3114.98	0.53167
3116.25	0.392216
3117.53	0.725955
3118.8	0.691565
3120.07	0.397609
3121.35	0.278479
3122.62	0.958129
3123.89	1.00043
3125.16	0.840239
3126.44	0.884326
3127.71	0.172207
3128.98	0.773772
3130.25	0.226701
3131.52	1.07264
3132.79	0.931713
3134.06	1.14163
3135.33	0.959123
3136.6	0.991824
3137.87	1.40131
3139.14	1.20357
3140.41	1.43685
3141.68	1.13223
3142.95	1.54122
3144.22	1.74946
3145.49	1.82475
3146.76	1.35208
3148.02	1.3774
3149.29	1.16313
