200.398	0.773039
202.213	0.799335
204.027	0.828779
205.843	0.0575218
207.657	0.405962
209.47	0.364698
211.283	0.4676
213.097	0.592697
214.909	-0.254318
216.721	0.135199
218.533	0.548597
220.344	0.236506
222.157	0.265192
223.967	-0.0671425
225.777	0.181963
227.587	-0.100269
229.396	-0.237823
231.205	-0.424265
233.016	0.257574
234.824	0.674196
236.632	1.06863
238.439	0.574835
240.247	1.91739
242.053	1.33582
243.86	1.52835
245.666	2.63832
247.474	2.12903
249.279	2.70134
251.085	2.15734
252.889	3.03259
254.694	3.83143
256.498	3.03738
258.301	2.65542
260.105	3.86703
261.908	2.93816
263.71	3.53043
265.513	2.48665
267.315	2.64833
269.116	3.02661
270.918	1.42666
272.718	2.88651
274.519	1.69177
276.319	1.4828
278.119	1.19848
279.918	1.15182
281.718	1.36648
283.516	0.783953
285.315	0.704588
287.113	1.03209
288.911	0.879395
290.708	0.368969
292.505	0.412176
294.302	0.0274315
296.098	0.243345
297.894	0.484865
299.69	0.344898
301.485	0.443663
303.278	-0.557283
305.073	0.349911
306.867	0.825289
308.661	1.20439
310.454	-0.345873
312.247	0.393576
314.04	0.968676
315.833	-0.0484943
317.623	0.937626
319.415	1.06935
321.206	1.13176
322.997	0.9095
324.788	-0.0996284
326.579	1.18236
328.367	0.434769
330.156	0.641479
331.946	0.272449
333.735	0.953058
335.523	0.984295
337.31	1.34659
339.098	0.987434
340.885	-0.259062
342.673	0.3825
344.458	-0.0996685
346.244	0.470284
348.03	-0.248392
349.816	0.0606537
351.6	-0.776031
353.385	0.629877
355.17	0.0533428
356.953	0.11887
358.737	0.0868416
360.521	-0.0661373
362.304	0.469673
364.085	0.59914
365.868	0.0619755
367.65	0.117861
369.431	0.172203
371.212	-0.414539
372.994	0.418457
374.773	1.0362
376.554	0.708363
378.332	0.641483
380.112	0.599794
381.892	1.1015
383.669	1.58112
385.448	1.07508
387.225	0.924122
389.003	1.0571
390.781	1.84933
392.557	1.02238
394.334	2.12229
396.109	2.11911
397.885	1.99874
399.66	2.37126
401.436	2.86049
403.211	2.90229
404.984	3.13054
406.759	2.30062
408.532	2.62025
410.306	2.16452
412.078	1.66205
413.851	2.89688
415.623	3.6635
417.395	3.30541
419.166	3.15973
420.938	4.14115
422.708	3.00974
424.477	3.35576
426.248	2.69061
428.017	2.02388
429.788	1.61456
431.556	1.15826
433.326	1.80559
435.093	1.0453
436.86	1.34109
438.629	0.110246
440.395	1.34113
442.163	0.714847
443.929	0.273037
445.694	0.531481
447.461	0.366118
449.226	-0.0570421
450.99	0.244902
452.756	0.616837
454.52	0.755269
456.285	0.497205
458.048	0.309142
459.811	-0.413812
461.573	0.0047245
463.337	0.262424
465.099	0.756066
466.86	0.487515
468.623	0.595222
470.384	1.17128
472.144	0.515823
473.906	-0.327788
475.666	0.362235
477.425	-0.302059
479.184	0.404924
480.944	0.155107
482.703	0.254801
484.461	1.03171
486.218	0.13468
487.975	0.988488
489.734	0.587281
491.491	0.443932
493.247	0.278036
495.003	0.766957
496.759	0.530971
498.516	1.1141
500.271	0.454577
502.025	0.356109
503.779	1.19553
505.533	0.45944
507.287	0.613813
509.042	1.00101
510.795	0.444513
512.547	1.79126
514.299	1.53532
516.051	0.9712
517.803	1.72227
519.554	1.55418
521.305	2.58318
523.055	1.52014
524.805	1.49053
526.555	2.14119
528.307	1.64227
530.056	1.44832
531.805	1.6052
533.553	1.10509
535.301	1.00129
537.049	1.31593
538.797	1.04388
540.544	2.23957
542.291	1.19485
544.037	0.919645
545.783	0.552052
547.529	1.27641
549.275	1.07215
551.02	0.938178
552.765	1.54497
554.509	0.764349
556.253	0.193501
557.997	0.592917
559.738	0.554614
561.482	0.37912
563.224	1.40092
564.967	0.629292
566.709	0.227266
568.451	0.538662
570.192	0.828484
571.933	-0.0496922
573.674	0.267861
575.415	0.679988
577.153	-0.327702
578.893	0.158123
580.632	0.186275
582.371	0.12272
584.11	0.495055
585.849	0.659049
587.587	0.153937
589.323	-0.0772696
591.06	0.0580788
592.797	0.100487
594.534	0.1886
596.271	0.138685
598.005	1.05498
599.741	0.0841446
601.476	0.492327
603.211	0.231356
604.944	0.795802
606.679	-0.641554
608.413	0.631127
610.147	-0.14062
611.878	0.190231
613.611	0.315603
615.344	1.03784
617.077	0.683051
618.807	0.602537
620.539	-0.280849
622.27	0.779268
623.999	-0.655256
625.73	0.424943
627.461	-0.686365
629.189	0.214602
630.919	-0.295926
632.648	0.953856
634.376	0.35709
636.105	0.284698
637.833	1.09986
639.559	0.472582
641.287	-0.0678005
643.013	0.596519
644.74	0.893179
646.467	0.484468
648.192	-0.079771
649.918	0.474806
651.642	0.399097
653.368	0.625125
655.091	0.379187
656.816	1.29781
658.538	1.03474
660.263	0.770508
661.987	0.274854
663.708	1.51156
665.432	1.48801
667.153	1.36961
668.875	0.495014
670.596	0.467442
672.318	0.717546
674.037	0.651274
675.759	0.0612545
677.478	0.734022
679.196	0.0304508
680.917	0.128613
682.635	-0.328012
684.355	0.247337
686.072	0.0370655
687.791	-0.429215
689.508	-0.137197
691.224	0.0615501
692.942	0.420523
694.658	0.110317
696.376	0.696709
698.091	0.106819
699.805	-0.39258
701.522	-0.203367
703.236	0.51276
704.95	0.767406
706.665	0.102757
708.379	0.241091
710.093	0.0577564
711.806	1.33935
713.518	0.30794
715.23	0.420652
716.943	0.487352
718.655	0.0750237
720.366	0.598125
722.078	0.551224
723.788	0.68652
725.498	0.343979
727.208	1.04638
728.919	0.226385
730.628	0.676794
732.337	0.831253
734.045	0.374153
735.755	1.22894
737.463	0.569702
739.17	0.679781
740.877	0.475584
742.584	1.21965
744.292	0.186377
745.998	0.59655
747.704	-0.296223
749.409	-0.0169582
751.114	1.23133
752.819	0.749748
754.526	0.99011
756.23	1.16545
757.934	0.915613
759.637	0.893114
761.34	1.21058
763.043	1.12328
764.746	0.71936
766.448	1.3977
768.152	1.55397
769.853	2.04599
771.554	1.69805
773.255	2.45572
774.956	2.01404
776.656	2.31936
778.356	2.08414
780.056	1.62521
781.755	2.97779
783.454	2.79268
785.153	1.63226
786.851	1.73551
788.549	1.96945
790.247	1.1573
791.944	1.47196
793.641	1.60275
795.338	1.28157
797.034	1.21025
798.73	1.54698
800.426	0.693228
802.121	1.25995
803.817	1.13015
805.511	1.27002
807.206	1.02652
808.9	2.08395
810.592	1.34279
812.286	0.735718
813.979	0.711246
815.672	1.17891
817.364	2.1378
819.057	1.17312
820.748	1.23752
822.44	1.63708
824.129	1.9927
825.82	1.2582
827.511	1.44099
829.201	1.91751
830.891	1.24079
832.581	1.03615
834.269	1.50342
835.958	0.969229
837.646	1.50542
839.335	1.43753
841.023	0.696978
842.709	0.802908
844.396	0.975088
846.084	1.19301
847.77	2.15167
849.455	1.84002
851.141	1.12898
852.827	0.50942
854.513	0.810043
856.196	1.26835
857.881	1.3212
859.566	0.223923
861.248	0.901096
862.932	0.810543
864.616	0.875639
866.297	0.98439
867.98	0.348053
869.663	0.63542
871.343	0.178011
873.026	1.0061
874.707	1.5184
876.387	0.202946
878.068	-0.255182
879.747	0.618235
881.428	1.26554
883.108	0.715281
884.786	0.930885
886.465	0.918514
888.143	0.317076
889.822	1.22458
891.498	0.10034
893.177	0.709631
894.855	0.461031
896.53	0.1213
898.208	0.521738
899.883	1.03202
901.56	0.576363
903.234	0.725126
904.91	0.336765
906.584	0.0390301
908.26	0.567823
909.933	0.161469
911.608	0.00205421
913.28	0.0441055
914.955	0.530703
916.627	0.151363
918.298	0.437517
919.972	-0.0517044
921.643	0.389952
923.315	0.567326
924.986	0.504023
926.656	0.509935
928.328	1.11447
929.997	0.61739
931.668	0.540838
933.337	0.729509
935.006	0.587566
936.676	0.44631
938.344	0.946007
940.012	0.719837
941.681	0.42939
943.348	0.471022
945.014	0.976011
946.683	0.464006
948.349	0.633381
950.015	0.18173
951.682	0.809374
953.347	0.333897
955.012	1.22817
956.676	0.186255
958.343	0.3402
960.006	0.741571
961.67	0.240465
963.333	0.0701408
964.998	1.37891
966.661	0.0959263
968.323	0.268335
969.985	0.59223
971.649	0.715445
973.31	1.03832
974.971	0.0587521
976.632	0.652225
978.293	0.186552
979.953	0.230707
981.615	0.274359
983.274	-0.259624
984.933	0.664427
986.592	0.677464
988.251	0.643293
989.909	1.27047
991.567	0.746616
993.225	0.642727
994.884	0.472857
996.541	2.06836
998.198	2.29495
999.855	2.03609
1001.51	2.54765
1003.17	2.11145
1004.82	1.27944
1006.48	1.701
1008.13	2.01235
1009.79	1.95078
1011.44	1.25408
1013.1	1.1508
1014.75	0.47883
1016.4	0.640163
1018.06	0.867823
1019.71	0.965378
1021.36	1.45814
1023.01	1.31865
1024.66	1.53056
1026.32	1.78719
1027.97	1.78165
1029.62	1.49108
1031.27	0.892817
1032.92	2.14793
1034.57	1.82793
1036.22	1.89836
1037.87	1.27005
1039.52	1.53501
1041.16	2.23569
1042.81	1.93779
1044.46	2.36029
1046.11	3.26384
1047.76	3.25846
1049.4	3.51685
1051.05	3.77772
1052.7	4.04031
1054.34	4.45589
1055.99	3.45894
1057.63	3.50452
1059.28	3.41874
1060.92	2.11405
1062.57	1.87333
1064.21	1.67449
1065.85	1.10431
1067.5	1.31494
1069.14	0.741621
1070.78	0.710558
1072.43	0.961464
1074.07	1.06105
1075.71	0.880314
1077.35	1.17903
1078.99	0.612438
1080.63	0.545973
1082.27	0.999992
1083.91	1.40918
1085.55	1.44697
1087.19	2.04456
1088.83	1.16536
1090.47	1.21472
1092.11	1.8888
1093.75	0.422674
1095.39	1.07399
1097.03	0.884787
1098.66	1.04286
1100.3	0.945345
1101.94	0.937284
1103.57	0.243876
1105.21	1.55337
1106.84	0.110653
1108.48	0.0871601
1110.11	0.534986
1111.75	0.528614
1113.38	0.66993
1115.02	-0.178577
1116.65	0.603474
1118.29	0.698557
1119.92	0.6661
1121.55	0.485481
1123.19	0.478048
1124.82	0.450912
1126.45	1.51611
1128.08	0.871405
1129.71	0.613031
1131.34	0.248821
1132.97	0.0989819
1134.6	0.397884
1136.23	-0.30879
1137.86	-0.589481
1139.49	-0.337885
1141.12	0.637781
1142.75	0.267252
1144.38	-0.273331
1146.01	0.445478
1147.64	-0.113335
1149.26	-0.0738068
1150.89	0.349937
1152.52	0.198576
1154.15	0.70672
1155.77	1.23518
1157.4	0.656715
1159.02	0.206818
1160.65	0.226376
1162.27	0.460398
1163.9	-0.452023
1165.52	0.464968
1167.15	-0.425653
1168.77	0.574303
1170.39	0.529642
1172.02	0.22682
1173.64	0.579544
1175.26	0.420473
1176.89	1.32067
1178.51	0.4828
1180.13	0.430529
1181.75	-0.275934
1183.37	-0.0290489
1184.99	0.259943
1186.61	0.167017
1188.23	0.409166
1189.85	0.0995655
1191.47	0.166433
1193.09	-0.0637703
1194.71	0.272173
1196.33	0.103973
1197.94	0.523998
1199.56	0.360285
1201.18	1.0366
1202.8	1.19443
1204.41	1.50275
1206.03	1.3348
1207.65	1.23192
1209.26	1.00447
1210.88	1.13034
1212.49	2.17062
1214.11	1.45559
1215.72	1.67452
1217.34	1.45296
1218.95	1.35467
1220.57	2.46035
1222.18	2.00959
1223.79	1.93488
1225.41	2.09076
1227.02	1.87674
1228.63	2.47213
1230.24	2.09759
1231.85	1.64278
1233.47	2.30636
1235.08	1.62871
1236.69	1.98661
1238.3	2.55321
1239.91	2.50097
1241.52	2.63524
1243.13	2.56213
1244.74	1.88757
1246.34	2.76305
1247.95	2.87107
1249.56	2.33627
1251.17	2.11131
1252.78	1.94882
1254.38	2.32538
1255.99	2.43497
1257.6	2.15375
1259.2	1.75035
1260.81	2.23837
1262.42	1.85793
1264.02	2.22305
1265.63	1.65523
1267.23	1.95638
1268.84	1.98654
1270.44	1.99416
1272.04	2.14507
1273.65	1.58925
1275.25	1.67446
1276.85	1.86162
1278.46	2.35795
1280.06	1.9417
1281.66	1.52527
1283.26	2.08169
1284.86	2.45246
1286.46	2.3284
1288.07	1.58622
1289.67	3.07777
1291.27	2.40029
1292.87	1.95011
1294.47	2.65566
1296.06	2.34667
1297.66	2.48922
1299.26	2.15412
1300.86	2.86823
1302.46	1.91042
1304.06	2.7019
1305.65	2.48315
1307.25	2.16121
1308.85	3.00884
1310.44	2.42005
1312.04	2.81584
1313.64	2.76223
1315.23	3.09875
1316.83	2.61976
1318.42	3.42791
1320.02	2.6853
1321.61	3.16446
1323.2	1.93062
1324.8	3.35914
1326.39	2.52821
1327.99	2.97561
1329.58	3.28105
1331.17	2.82005
1332.76	3.11165
1334.36	3.28574
1335.95	2.85733
1337.54	3.09604
1339.13	2.62789
1340.72	3.14442
1342.31	2.67013
1343.9	2.83647
1345.49	2.49841
1347.08	3.28415
1348.67	3.37012
1350.26	2.03951
1351.85	2.21545
1353.43	1.41523
1355.02	3.13625
1356.61	2.47921
1358.2	2.52098
1359.78	2.64092
1361.37	2.51929
1362.96	2.47605
1364.54	1.71449
1366.13	1.91057
1367.71	2.90438
1369.3	2.70512
1370.88	2.19015
1372.47	2.37428
1374.05	1.82423
1375.64	1.75293
1377.22	2.17932
1378.8	2.30639
1380.39	2.63064
1381.97	2.25619
1383.55	1.38247
1385.13	1.24316
1386.72	1.36144
1388.3	1.81741
1389.88	2.71079
1391.46	1.85897
1393.04	1.92159
1394.62	1.84607
1396.2	1.88927
1397.78	1.89159
1399.36	1.07975
1400.94	1.81183
1402.52	0.978315
1404.1	2.12399
1405.68	1.90497
1407.25	2.162
1408.83	1.70907
1410.41	1.75116
1411.98	1.61548
1413.56	1.34072
1415.14	2.93909
1416.71	2.12841
1418.29	1.98799
1419.87	2.39981
1421.44	2.47837
1423.02	2.16597
1424.59	3.03756
1426.16	2.67143
1427.74	2.34569
1429.31	2.15729
1430.89	3.16792
1432.46	3.17259
1434.03	3.62791
1435.6	3.4134
1437.18	3.61223
1438.75	4.44131
1440.32	3.99454
1441.89	4.35545
1443.46	3.97092
1445.03	4.41258
1446.6	4.34361
1448.17	4.84497
1449.74	4.08877
1451.31	4.25738
1452.88	4.01407
1454.45	4.18449
1456.02	3.9811
1457.59	4.20942
1459.16	4.47478
1460.72	4.3826
1462.29	3.67696
1463.86	3.67665
1465.43	3.41873
1466.99	2.57105
1468.56	1.98011
1470.13	2.5491
1471.69	3.41389
1473.26	2.73075
1474.82	1.89246
1476.38	2.11392
1477.95	1.94343
1479.51	2.26295
1481.08	1.955
1482.64	1.86254
1484.2	2.0442
1485.77	1.85299
1487.33	2.22852
1488.89	1.3877
1490.46	0.642384
1492.02	1.49774
1493.58	1.07822
1495.14	1.61254
1496.7	1.3642
1498.26	1.48576
1499.82	0.927687
1501.38	1.36277
1502.94	1.62441
1504.5	1.05396
1506.06	1.25937
1507.62	0.709133
1509.18	0.506062
1510.73	1.05411
1512.29	1.3295
1513.85	0.718142
1515.41	1.0697
1516.96	1.0758
1518.52	0.987284
1520.08	0.76594
1521.63	0.832453
1523.19	0.879202
1524.75	0.714531
1526.3	0.777418
1527.85	0.800499
1529.41	1.58312
1530.96	0.996344
1532.52	1.18942
1534.07	1.25093
1535.62	0.954664
1537.18	0.868483
1538.73	0.991299
1540.28	1.35965
1541.84	1.48257
1543.39	1.17223
1544.94	2.14066
1546.49	1.45388
1548.04	0.955843
1549.59	1.93952
1551.14	1.18007
1552.69	1.48924
1554.25	1.14524
1555.79	1.15894
1557.34	0.596882
1558.89	1.36328
1560.44	1.33027
1561.99	1.31863
1563.54	1.70066
1565.08	1.39342
1566.63	1.36621
1568.18	1.00265
1569.73	0.937023
1571.27	2.34542
1572.82	1.94269
1574.37	2.37972
1575.91	2.14474
1577.46	1.91009
1579	2.23618
1580.55	1.18165
1582.09	1.52872
1583.64	2.3444
1585.18	1.62946
1586.73	1.77482
1588.27	1.47164
1589.81	2.40285
1591.35	2.22962
1592.9	2.57974
1594.44	1.78697
1595.98	2.21161
1597.52	1.41894
1599.06	2.48297
1600.61	2.40489
1602.15	2.81551
1603.69	2.09986
1605.23	1.88963
1606.77	2.1656
1608.31	2.28802
1609.85	2.83879
1611.39	1.82576
1612.93	2.27498
1614.46	2.15837
1616	2.45372
1617.54	1.92468
1619.08	1.97892
1620.61	1.58614
1622.15	1.42057
1623.69	1.12539
1625.23	1.95351
1626.76	1.24547
1628.3	2.35049
1629.83	1.9375
1631.37	2.00906
1632.9	1.83697
1634.44	1.64687
1635.97	2.11128
1637.51	2.72603
1639.04	2.1296
1640.57	2.48417
1642.11	2.72566
1643.64	2.77883
1645.17	1.69468
1646.71	2.13526
1648.24	3.07632
1649.77	3.70096
1651.3	3.34299
1652.83	3.17312
1654.36	2.96833
1655.89	1.93077
1657.42	2.56141
1658.96	1.70857
1660.48	3.27946
1662.01	2.62592
1663.54	2.93253
1665.07	3.293
1666.6	2.39846
1668.13	2.98247
1669.66	2.2965
1671.19	2.31388
1672.71	2.33314
1674.24	2.31639
1675.77	2.22565
1677.29	1.9864
1678.82	1.57995
1680.35	1.79726
1681.87	1.60878
1683.4	1.49337
1684.92	1.50666
1686.45	0.21838
1687.97	1.26005
1689.5	1.07384
1691.02	1.10794
1692.54	0.849323
1694.07	0.974968
1695.59	0.515181
1697.11	0.493988
1698.64	0.947071
1700.16	0.522882
1701.68	0.754971
1703.2	0.475491
1704.72	-0.241516
1706.25	0.734076
1707.77	0.507656
1709.29	1.11701
1710.81	-0.0712566
1712.33	0.592312
1713.85	-0.013237
1715.37	0.0883293
1716.89	0.0449142
1718.41	0.633894
1719.92	0.806429
1721.44	0.924795
1722.96	0.0702839
1724.48	-0.403096
1725.99	-0.207677
1727.51	0.0976067
1729.03	0.062336
1730.55	0.387188
1732.06	-0.00284958
1733.58	0.152773
1735.09	0.118851
1736.61	0.519709
1738.13	0.0772333
1739.64	-0.26671
1741.15	-0.00804424
1742.67	0.0647602
1744.18	0.339883
1745.7	-0.00194645
1747.21	-0.537856
1748.72	-0.0901718
1750.24	0.0595999
1751.75	0.737085
1753.26	0.789781
1754.77	-0.23271
1756.29	0.302482
1757.8	-0.540914
1759.31	0.0329084
1760.82	-0.0836716
1762.33	0.0490246
1763.84	0.293756
1765.35	0.190059
1766.86	0.0839081
1768.37	-0.0588341
1769.88	0.0829935
1771.39	0.730302
1772.9	0.200421
1774.4	-0.0188456
1775.91	0.169381
1777.42	0.130254
1778.93	-0.220493
1780.44	0.118741
1781.94	0.134514
1783.45	-0.209041
1784.96	0.201307
1786.46	-0.0389328
1787.97	-0.210498
1789.47	0.0992937
1790.98	0.326602
1792.48	0.00365067
1793.99	0.272929
1795.49	-0.360472
1797	0.232454
1798.5	0.611649
1800.01	-0.0152044
1801.51	-0.161368
1803.01	0.142563
1804.51	-0.199359
1806.02	-0.313971
1807.52	0.371593
1809.02	-0.135063
1810.52	0.333733
1812.02	-0.503711
1813.52	-0.166926
1815.02	0.0323744
1816.53	0.493133
1818.03	0.218511
1819.52	-0.0952482
1821.02	-0.183112
1822.52	-0.356601
1824.02	0.0916605
1825.52	0.126698
1827.02	-0.331576
1828.52	-0.130695
1830.02	0.180842
1831.51	0.342327
1833.01	0.211657
1834.51	-0.0811453
1836.01	-0.0386963
1837.5	0.116888
1839	-0.0734873
1840.49	0.485277
1841.99	0.531856
1843.49	0.129919
1844.98	0.175732
1846.48	-0.25596
1847.97	0.277089
1849.47	0.732582
1850.96	-0.293456
1852.45	0.243959
1853.95	-0.331956
1855.44	-0.105418
1856.93	-0.012722
1858.42	0.166934
1859.92	0.322235
1861.41	0.00842476
1862.9	-0.280563
1864.39	0.0122652
1865.88	0.790239
1867.38	-0.0746231
1868.87	0.0405006
1870.36	0.0788231
1871.85	0.424913
1873.34	0.198746
1874.83	-0.0968361
1876.32	0.0651197
1877.81	0.217685
1879.29	0.643488
1880.78	0.611658
1882.27	0.334191
1882.53	0.283092
1884.03	0.472035
1885.52	0.450317
1887.01	-0.0954552
1888.51	-0.18895
1890	0.379124
1891.5	0.217996
1892.99	-0.114067
1894.48	0.530721
1895.97	-0.230094
1897.47	-0.137542
1898.96	0.320148
1900.45	-0.0066967
1901.94	-0.214596
1903.43	0.287552
1904.92	0.0219231
1906.41	0.450133
1907.9	-0.129333
1909.39	0.525172
1910.88	0.556189
1912.37	0.328602
1913.86	0.0847721
1915.35	-0.141476
1916.84	0.30792
1918.33	0.236182
1919.81	-0.0269022
1921.3	0.177682
1922.79	-0.153928
1924.28	-0.0337467
1925.76	-0.11936
1927.25	0.00461388
1928.73	1.01277
1930.22	0.185536
1931.71	-0.314216
1933.19	0.205194
1934.68	0.357753
1936.16	0.264992
1937.65	0.187518
1939.13	-0.0634537
1940.62	0.618837
1942.1	0.249146
1943.58	0.709669
1945.07	-0.208128
1946.55	0.013072
1948.03	0.561162
1949.51	0.418449
1951	-0.431831
1952.48	-0.28472
1953.96	-0.448301
1955.44	-0.199386
1956.92	0.101371
1958.4	0.540261
1959.88	-0.169326
1961.36	0.442984
1962.84	-0.127521
1964.32	0.312951
1965.8	-0.121216
1967.28	0.128469
1968.76	0.256971
1970.24	0.0253067
1971.72	0.0326262
1973.2	0.517743
1974.67	0.166592
1976.15	-0.507593
1977.63	0.147958
1979.1	-0.201427
1980.58	0.232036
1982.06	0.103662
1983.54	0.348631
1985.01	-0.222064
1986.49	0.717103
1987.96	-0.00600719
1989.44	-0.0162249
1990.91	-0.0591145
1992.39	0.136458
1993.86	0.282885
1995.33	0.413736
1996.81	-0.0291138
1998.28	-0.0664225
1999.75	-0.0706968
2001.23	0.0083456
2002.7	0.592446
2004.17	0.0799541
2005.65	0.748036
2007.12	0.0357533
2008.59	-0.303964
2010.06	-0.0864744
2011.53	0.300189
2013	-0.121054
2014.47	0.651907
2015.94	0.6997
2017.41	0.476729
2018.88	0.101156
2020.35	0.397066
2021.82	0.054266
2023.29	0.0145216
2024.76	-0.00704288
2026.23	0.359263
2027.69	-0.0267553
2029.16	0.0594816
2030.63	-0.271349
2032.1	-0.114029
2033.56	1.28649
2035.03	0.387288
2036.5	-0.143639
2037.96	0.0467558
2039.43	0.169327
2040.89	0.560808
2042.36	0.499166
2043.83	0.522928
2045.29	0.228614
2046.75	0.204713
2048.22	0.23187
2049.68	0.0899467
2051.15	0.536245
2052.61	0.0862417
2054.07	0.273827
2055.54	0.576347
2057	0.724543
2058.46	0.0455132
2059.92	0.377374
2061.39	0.22142
2062.85	0.050169
2064.31	0.0322094
2065.77	0.689141
2067.23	0.135866
2068.69	-0.0293417
2070.15	-0.0425463
2071.61	0.0958672
2073.07	-0.119519
2074.53	-0.554311
2075.99	0.189077
2077.45	0.19091
2078.91	0.0573292
2080.37	0.545993
2081.82	-0.0944586
2083.28	-0.18035
2084.74	0.0859194
2086.2	0.552587
2087.65	0.378852
2089.11	-0.198792
2090.57	-0.188312
2092.02	0.0738487
2093.48	-0.285267
2094.94	-0.0407
2096.39	0.0854149
2097.85	-0.241982
2099.3	-0.10137
2100.76	0.40638
2102.21	0.228633
2103.66	-0.0643196
2105.12	-0.137761
2106.57	-0.041954
2108.03	0.68937
2109.48	0.420437
2110.93	0.78416
2112.38	-0.0377846
2113.84	0.537045
2115.29	-0.206234
2116.74	0.0643063
2118.19	-0.0138988
2119.64	-0.122912
2121.09	0.302308
2122.54	0.299325
2123.99	0.0998516
2125.45	-0.0321541
2126.89	-0.230895
2128.34	0.0992031
2129.79	0.22794
2131.24	-0.0265656
2132.69	-0.0172901
2134.14	0.0415487
2135.59	0.564613
2137.04	0.114584
2138.48	0.560294
2139.93	0.0341244
2141.38	0.00645828
2142.83	-0.250767
2144.27	0.584733
2145.72	0.0971375
2147.17	0.0887995
2148.61	-0.0365305
2150.06	0.333634
2151.5	-0.0267582
2152.95	0.207663
2154.39	-0.222026
2155.84	0.507278
2157.28	0.673354
2158.73	0.393381
2160.17	0.132171
2161.61	0.105731
2163.06	0.496783
2164.5	-0.18753
2165.94	0.191132
2167.38	-0.0777731
2168.83	0.698628
2170.27	-0.00741005
2171.71	-0.135088
2173.15	0.0667953
2174.59	0.0834417
2176.03	0.0159845
2177.47	0.181665
2178.91	0.049283
2180.36	-0.147996
2181.8	0.171563
2183.23	0.72498
2184.67	0.064867
2186.11	0.269701
2187.55	-0.107718
2188.99	0.679759
2190.43	0.535354
2191.87	-0.225542
2193.3	0.0777655
2194.74	0.112536
2196.18	-0.0720692
2197.62	0.0563316
2199.05	0.414541
2200.49	0.654217
2201.93	0.0465631
2203.36	0.353348
2204.8	-0.250363
2206.23	0.208912
2207.67	0.0722771
2209.1	0.23352
2210.54	-0.0370197
2211.97	-0.0277071
2213.41	-0.201478
2214.84	0.797516
2216.27	-0.18458
2217.71	0.090169
2219.14	-0.210457
2220.57	0.0840387
2222.01	0.477451
2223.44	0.19392
2224.87	-0.0258312
2226.3	0.212559
2227.73	-0.0125694
2229.16	0.401071
2230.6	-0.631145
2232.03	0.157485
2233.46	0.568343
2234.89	-0.557388
2236.32	0.575417
2237.75	0.158287
2239.18	-0.304067
2240.61	0.362782
2242.03	0.151732
2243.46	0.301638
2244.89	0.0770092
2246.32	0.144863
2247.75	0.568792
2249.17	0.744182
2250.6	0.817693
2252.03	-0.202579
2253.46	0.989135
2254.88	-0.160359
2256.31	0.0581846
2257.73	0.183102
2259.16	-0.0116539
2260.59	0.252868
2262.01	0.0347681
2263.44	0.420099
2264.86	0.692646
2266.29	0.558361
2267.71	-0.0166988
2269.14	0.464017
2270.56	0.259933
2271.98	0.380527
2273.4	0.256575
2274.83	-0.095336
2276.25	0.758672
2277.67	0.488859
2279.09	0.512469
2280.52	0.372924
2281.94	0.445125
2283.36	0.0603886
2284.78	-0.177586
2286.2	-0.382668
2287.62	0.000549316
2289.04	0.156108
2290.46	0.21443
2291.88	0.469452
2293.3	0.266984
2294.72	0.342454
2296.14	-0.269645
2297.56	0.100179
2298.98	-0.0866003
2300.4	0.25126
2301.82	-0.197175
2303.23	0.174735
2304.65	-0.0108004
2306.07	0.328887
2307.49	0.241099
2308.9	0.135846
2310.32	0.506375
2311.73	0.0704365
2313.15	-0.201284
2314.57	0.103587
2315.98	-0.00170994
2317.4	-0.237576
2318.81	-0.044343
2320.23	-0.296629
2321.64	0.422525
2323.06	0.577685
2324.47	0.10162
2325.88	0.628216
2327.3	0.904058
2328.71	-0.288527
2330.12	0.0194368
2331.54	-0.264083
2332.95	0.474898
2334.36	0.688437
2335.77	0.392352
2337.18	0.506766
2338.6	0.126177
2340.01	-0.0588903
2341.42	0.230852
2342.83	-0.219147
2344.24	0.0529814
2345.65	-0.0189381
2347.06	-0.155797
2348.47	0.100412
2349.88	-0.167834
2351.29	0.167777
2352.7	-0.609465
2354.1	-0.0162601
2355.51	0.118171
2356.92	0.561085
2358.33	-0.0054121
2359.74	-0.0830641
2361.14	-0.387615
2362.55	0.475769
2363.96	-0.152868
2365.36	-0.553746
2366.77	-0.452477
2368.18	0.198522
2369.58	0.317791
2370.99	-0.0121326
2372.39	0.498389
2373.8	-0.0365095
2375.2	-0.232261
2376.61	-0.476747
2378.01	0.113352
2379.42	0.00907707
2380.82	0.383658
2382.22	0.482361
2383.63	0.290975
2385.03	0.0836153
2386.43	-0.31425
2387.84	-0.709703
2389.24	0.603604
2390.64	0.451228
2392.04	-0.208298
2393.44	0.662206
2394.84	-0.0888939
2396.25	0.0680361
2397.65	0.416676
2399.05	0.130579
2400.45	-0.154524
2401.85	0.180463
2403.25	-0.167467
2404.65	-0.500034
2406.05	0.21376
2407.45	0.259014
2408.84	0.255263
2410.24	0.441137
2411.64	-0.40258
2413.04	0.687887
2414.44	-0.325774
2415.83	-0.307591
2417.23	-0.128839
2418.63	0.479032
2420.02	0.232553
2421.42	-0.584483
2422.82	-0.0715942
2424.21	0.0923681
2425.61	0.304014
2427	0.484936
2428.4	0.397962
2429.8	-0.242476
2431.19	0.339487
2432.58	-0.18898
2433.98	0.170572
2435.37	0.51252
2436.77	0.00988197
2438.16	0.36251
2439.55	0.252101
2440.95	0.314819
2442.34	0.630524
2443.73	0.167936
2445.12	0.117808
2446.51	0.0991535
2447.91	0.127816
2449.3	0.314826
2450.69	0.581234
2452.08	0.215285
2453.47	0.262327
2454.86	-0.464344
2456.25	-0.382893
2457.64	-0.174381
2459.03	0.0338326
2460.42	0.399146
2461.81	0.162082
2463.2	0.0660124
2464.59	0.0795841
2465.98	0.440045
2467.36	-0.462803
2468.75	0.370649
2470.14	0.729856
2471.53	0.725339
2472.92	0.026453
2474.3	0.192948
2475.69	0.0119982
2477.08	0.317915
2478.46	0.340556
2479.85	0.049614
2481.23	0.276842
2482.62	0.644597
2484	0.228184
2485.39	0.389625
2486.77	-0.576114
2488.16	-0.137136
2489.54	0.361808
2490.93	0.283332
2492.31	-0.213735
2493.69	-0.102256
2495.08	0.150906
2496.46	0.343815
2497.84	0.228165
2499.23	0.206014
2500.61	-0.0177794
2501.99	0.251971
2503.37	0.534959
2504.75	0.167944
2506.13	0.324476
2507.52	-0.381651
2508.9	0.405227
2510.28	0.592223
2511.66	0.15096
2513.04	-0.165489
2514.42	-0.158292
2515.8	0.294263
2517.18	-0.414964
2518.55	0.177059
2519.93	0.0811224
2521.31	0.305543
2522.69	0.146961
2524.07	0.551447
2525.45	0.588277
2526.82	0.137275
2528.2	0.0224419
2529.58	0.624335
2530.95	0.362089
2532.33	-0.261657
2533.71	0.195847
2535.08	0.533006
2536.46	0.383912
2537.84	0.719754
2539.21	0.157697
2540.59	0.277698
2541.96	0.184496
2543.34	0.471138
2544.71	0.288902
2546.08	-0.513
2547.46	0.0220089
2548.83	0.361393
2550.2	0.731351
2551.58	0.387277
2552.95	0.102235
2554.32	0.574147
2555.7	0.376745
2557.07	0.269452
2558.44	0.556226
2559.81	-0.111718
2561.18	0.0854597
2562.55	0.344298
2563.93	-0.077796
2565.3	-0.393062
2566.67	0.337738
2568.04	0.0988169
2569.41	0.344882
2570.78	0.181726
2572.15	0.321774
2573.51	0.583249
2574.88	0.465934
2576.25	1.07638
2577.62	0.0795879
2578.99	0.310474
2580.36	-0.217406
2581.73	0.103127
2583.09	-0.0470333
2584.46	0.226892
2585.83	-0.0147133
2587.19	0.486606
2588.56	-0.330356
2589.93	0.368431
2591.29	0.400145
2592.66	0.506779
2594.02	-0.403009
2595.39	0.427443
2596.75	-0.364179
2598.12	0.326178
2599.48	0.380068
2600.85	-0.124984
2602.21	0.262393
2603.58	0.15242
2604.94	0.0133371
2606.3	0.266882
2607.67	0.45934
2609.03	-0.465149
2610.39	-0.306196
2611.76	-0.164783
2613.12	0.32023
2614.48	-0.173435
2615.84	0.113729
2617.2	0.535604
2618.56	-0.390107
2619.92	0.333124
2621.28	0.0397406
2622.65	0.225826
2624.01	0.232882
2625.37	-0.312297
2626.72	0.0226278
2628.08	0.445893
2629.44	0.212831
2630.8	0.0987692
2632.16	0.118487
2633.52	0.672828
2634.88	0.395059
2636.24	0.132505
2637.59	0.077796
2638.95	0.1269
2640.31	0.264946
2641.67	0.551075
2643.02	0.231592
2644.38	0.665749
2645.74	0.214007
2647.09	0.307631
2648.45	0.193665
2649.8	0.255035
2651.16	0.726691
2652.51	0.638754
2653.87	0.257974
2655.22	0.216355
2656.58	0.0449219
2657.93	0.827112
2659.29	0.249553
2660.64	0.316644
2661.99	0.266493
2663.35	0.288363
2664.7	-0.0707388
2666.05	0.211095
2667.41	0.418771
2668.76	-0.189504
2670.11	-0.0688477
2671.46	0.488714
2672.81	-0.159348
2674.16	0.443315
2675.51	0.0303488
2676.87	-0.16363
2678.22	0.499363
2679.57	0.133972
2680.92	0.103997
2682.27	0.656049
2683.62	0.108292
2684.97	0.490278
2686.31	0.176854
2687.66	-0.195128
2689.01	0.548517
2690.36	0.098856
2691.71	0.0815287
2693.06	-0.0109892
2694.4	0.242895
2695.75	0.177341
2697.1	0.301252
2698.45	-0.0939894
2699.79	0.0640478
2701.14	0.485771
2702.49	0.432324
2703.83	0.815437
2705.18	0.0690241
2706.52	0.540372
2707.87	0.0684557
2709.21	0.684202
2710.56	0.196049
2711.9	0.447941
2713.25	0.0458364
2714.59	0.76261
2715.94	0.127475
2717.28	0.291647
2718.62	0.251779
2719.97	0.866035
2721.31	0.984878
2722.65	0.651646
2723.99	0.710501
2725.34	0.448342
2726.68	0.913259
2728.02	0.882701
2729.36	0.415131
2730.7	0.500323
2732.04	1.25467
2733.39	1.238
2734.73	-0.072896
2736.07	0.623913
2737.41	1.29179
2738.75	0.61287
2740.08	0.770358
2741.43	0.633785
2742.76	0.55565
2744.1	-0.059638
2745.44	0.239618
2746.78	0.320062
2748.12	0.138818
2749.46	0.160934
2750.79	0.0238285
2752.13	0.206226
2753.47	0.330925
2754.81	0.281982
2756.14	0.363667
2757.48	0.228391
2758.81	0.267347
2760.15	0.524069
2761.49	0.17379
2762.82	0.186177
2764.16	0.647655
2765.49	0.819697
2766.83	0.093915
2768.16	0.480464
2769.5	0.445168
2770.83	0.450625
2772.16	0.68468
2773.5	0.0651617
2774.83	0.426038
2776.17	0.210038
2777.5	-0.292765
2778.83	0.284706
2780.16	0.459876
2781.5	-0.0539284
2782.83	-0.222467
2784.16	0.0537004
2785.49	0.243465
2786.82	0.0179491
2788.15	0.323223
2789.49	0.329106
2790.82	-0.364204
2792.15	0.474175
2793.48	0.012125
2794.81	0.250648
2796.14	-0.197374
2797.46	0.0252419
2798.79	0.0468206
2800.12	0.0105276
2801.45	-0.268706
2802.78	-0.191559
2804.11	0.170061
2805.44	0.231409
2806.76	0.120797
2808.09	0.00921249
2809.42	0.266558
2810.75	0.381544
2812.07	-0.155333
2813.4	-0.079689
2814.73	-0.327668
2816.05	-0.374575
2817.38	0.374172
2818.7	-0.506042
2820.03	0.399633
2821.36	0.000557899
2822.68	0.606527
2824.01	-0.0923014
2825.33	-0.267324
2826.65	0.223384
2827.98	-0.0214386
2829.3	0.286906
2830.63	0.596039
2831.95	0.438399
2833.27	0.790248
2834.6	0.84425
2835.92	0.854899
2837.24	0.935327
2838.56	1.55246
2839.88	1.40523
2841.21	2.16312
2842.53	1.63517
2843.85	1.95659
2845.17	2.06731
2846.49	2.68797
2847.81	2.99843
2849.13	2.85668
2850.45	2.94051
2851.77	2.81141
2853.09	3.30321
2854.41	2.90393
2855.73	3.83252
2857.05	2.96674
2858.37	3.57026
2859.69	4.08886
2861	4.12688
2862.32	4.75719
2863.64	5.00543
2864.96	5.30946
2866.28	5.16189
2867.59	5.76237
2868.91	5.12268
2870.23	5.47088
2871.54	5.41054
2872.86	6.43487
2874.17	6.48507
2875.49	5.88519
2876.81	6.28324
2878.12	6.28527
2879.44	6.69457
2880.75	6.21858
2882.07	6.08185
2883.38	6.64954
2884.69	6.09558
2886.01	6.25899
2887.32	6.09968
2888.63	6.90778
2889.95	6.22699
2891.26	6.5546
2892.57	6.69852
2893.89	6.68793
2895.2	6.41203
2896.51	6.30592
2897.82	6.6777
2899.13	7.23322
2900.44	6.76896
2901.76	7.10306
2903.07	7.04589
2904.38	7.60444
2905.69	7.61805
2907	7.29708
2908.31	7.74704
2909.62	8.07289
2910.93	8.55394
2912.24	8.54528
2913.55	8.25513
2914.85	8.81624
2916.16	8.562
2917.47	9.22851
2918.78	9.48695
2920.09	10.3323
2921.4	10.1579
2922.7	10.1958
2924.01	10.1526
2925.32	10.5591
2926.62	10.2958
2927.93	10.6478
2929.24	10.6216
2930.54	11.0277
2931.85	10.6499
2933.15	10.5932
2934.46	9.87965
2935.76	10.8155
2937.07	9.86509
2938.37	10.2287
2939.68	9.79632
2940.98	9.58858
2942.29	9.35457
2943.59	9.54216
2944.89	8.48826
2946.2	8.68064
2947.5	8.07687
2948.8	7.8641
2950.11	7.85911
2951.41	7.48676
2952.71	7.20891
2954.01	6.95656
2955.32	7.96346
2956.62	6.8863
2957.92	7.11472
2959.22	7.01227
2960.52	7.12508
2961.82	7.32603
2963.12	5.50853
2964.42	6.88843
2965.72	6.39913
2967.02	6.46845
2968.32	6.54945
2969.62	6.10878
2970.92	5.28796
2972.22	5.57875
2973.51	5.26524
2974.81	5.19089
2976.11	4.96052
2977.41	5.45999
2978.71	4.99886
2980	4.591
2981.3	4.50464
2982.6	4.47362
2983.9	3.26232
2985.19	3.88094
2986.49	3.92592
2987.78	3.53803
2989.08	2.92714
2990.38	2.87885
2991.67	2.54866
2992.97	2.79289
2994.26	2.64139
2995.56	3.17622
2996.85	1.96839
2998.14	2.4172
2999.44	1.74395
3000.73	1.94157
3002.03	1.57948
3003.32	1.40058
3004.61	1.40414
3005.91	1.49129
3007.2	1.82931
3008.49	0.444643
3009.78	1.05954
3011.07	0.610466
3012.37	0.65002
3013.66	0.564006
3014.95	1.02257
3016.24	0.158401
3017.53	0.633205
3018.82	0.0648575
3020.11	0.74896
3021.4	0.416951
3022.69	-0.0827007
3023.98	0.263318
3025.27	0.288585
3026.56	-0.0604553
3027.85	0.0625076
3029.14	0.14579
3030.43	-0.735528
3031.71	0.154342
3033	0.161871
3034.29	0.266632
3035.58	0.149744
3036.87	0.430586
3038.15	0.0742559
3039.44	0.169515
3040.73	-0.38409
3042.01	-0.182817
3043.3	0.511287
3044.59	-0.163627
3045.87	-0.177705
3047.16	0.235562
3048.44	0.0107937
3049.73	0.499729
3051.01	0.0907393
3052.3	0.502066
3053.58	-0.0416231
3054.87	0.464254
3056.15	0.504433
3057.43	0.215583
3058.72	0.634186
3060	0.0171213
3061.29	0.313247
3062.57	0.0940351
3063.85	0.475742
3065.13	0.411491
3066.42	0.445004
3067.7	0.820345
3068.98	0.625444
3070.26	-0.0323114
3071.54	0.151753
3072.82	0.347394
3074.11	-0.0164795
3075.39	-0.218504
3076.67	0.244655
3077.95	0.368844
3079.23	0.155757
3080.51	-0.352905
3081.79	0.0908718
3083.07	0.129977
3084.35	0.21114
3085.63	0.143277
3086.9	-0.332448
3088.18	0.0322571
3089.46	-0.242014
3090.74	0.338026
3092.02	-0.0726328
3093.29	0.344659
3094.57	0.165768
3095.85	-0.161581
3097.13	-0.420727
3098.4	-0.0698252
3099.68	0.199537
3100.95	-0.0459957
3102.23	0.237016
3103.51	-0.278269
3104.78	0.168738
3106.06	0.982416
3107.33	0.241494
3108.61	-0.29448
3109.88	0.741544
3111.16	0.425968
3112.43	0.0710402
3113.71	0.47557
3114.98	1.21946
3116.25	0.362995
3117.53	0.03374
3118.8	0.231691
3120.07	0.495738
3121.35	0.568418
3122.62	0.653743
3123.89	0.346001
3125.16	0.580624
3126.44	0.382884
3127.71	0.511192
3128.98	0.748703
3130.25	0.838156
3131.52	0.657562
3132.79	0.504098
3134.06	0.742004
3135.33	0.668498
3136.6	1.09343
3137.87	1.3823
3139.14	0.888958
3140.41	0.504025
3141.68	1.22275
3142.95	1.01392
3144.22	0.913901
3145.49	0.895785
3146.76	1.62983
3148.02	1.58731
3149.29	1.29167
