200.398	0.162344
202.213	0.150604
204.027	0.142097
205.843	-0.521227
207.657	-0.137674
209.47	-0.483671
211.283	0.699785
213.097	0.569677
214.909	0.705379
216.721	-0.274511
218.533	0.515535
220.344	-0.170641
222.157	-0.854266
223.967	-0.109056
225.777	0.588377
227.587	0.464437
229.396	0.63023
231.205	0.143791
233.016	0.64679
234.824	0.9814
236.632	-0.489891
238.439	0.549385
240.247	0.941936
242.053	1.16978
243.86	1.47275
245.666	2.13844
247.474	2.03006
249.279	1.57963
251.085	2.25932
252.889	3.12749
254.694	2.7136
256.498	2.8542
258.301	2.39386
260.105	2.6838
261.908	2.66412
263.71	2.14178
265.513	1.7179
267.315	1.70451
269.116	0.413395
270.918	1.86935
272.718	1.97383
274.519	1.71465
276.319	1.79062
278.119	1.67101
279.918	1.52437
281.718	1.71176
283.516	1.72765
285.315	0.996504
287.113	1.4418
288.911	0.759418
290.708	0.726496
292.505	0.049612
294.302	0.548395
296.098	0.236275
297.894	0.380447
299.69	0.860062
301.485	0.336195
303.278	1.00542
305.073	0.47908
306.867	0.214334
308.661	0.0450134
310.454	0.686939
312.247	0.306236
314.04	0.238066
315.833	1.10164
317.623	0.468145
319.415	0.00377655
321.206	-0.31592
322.997	0.271664
324.788	0.502922
326.579	0.257339
328.367	0.0351696
330.156	-0.116352
331.946	0.376135
333.735	0.388012
335.523	-0.369055
337.31	-0.50739
339.098	-0.0267258
340.885	0.570887
342.673	0.545275
344.458	-0.053772
346.244	-0.054348
348.03	-0.00595856
349.816	-0.123764
351.6	0.0450993
353.385	0.356346
355.17	0.284214
356.953	-0.767431
358.737	0.205629
360.521	-0.0864258
362.304	0.191662
364.085	0.444422
365.868	-0.0408173
367.65	-0.194059
369.431	-0.395704
371.212	-0.574544
372.994	0.689232
374.773	0.720676
376.554	0.114798
378.332	0.737352
380.112	0.488541
381.892	-0.440445
383.669	0.39819
385.448	0.344633
387.225	0.0112457
389.003	0.831043
390.781	1.08852
392.557	0.760311
394.334	0.644644
396.109	1.56303
397.885	1.94163
399.66	2.2496
401.436	1.31206
403.211	3.02763
404.984	2.32267
406.759	2.48544
408.532	2.27147
410.306	1.51715
412.078	1.23261
413.851	0.972412
415.623	1.79287
417.395	2.73214
419.166	2.85152
420.938	2.7838
422.708	2.78613
424.477	2.34124
426.248	2.31726
428.017	1.3528
429.788	2.14812
431.556	0.502352
433.326	0.734907
435.093	0.709929
436.86	0.473761
438.629	0.588552
440.395	0.536728
442.163	0.880367
443.929	0.446384
445.694	1.06399
447.461	0.484758
449.226	-0.211191
450.99	0.566137
452.756	-0.54822
454.52	0.415627
456.285	-0.160362
458.048	0.0328808
459.811	0.644779
461.573	0.326721
463.337	-0.0581379
465.099	0.0956554
466.86	-0.0479088
468.623	-0.233501
470.384	0.00253677
472.144	0.263266
473.906	-0.0355892
475.666	-0.03479
477.425	-0.0142727
479.184	-0.159922
480.944	0.158575
482.703	0.29088
484.461	0.611437
486.218	0.329685
487.975	0.191254
489.734	0.662598
491.491	0.59964
493.247	0.397604
495.003	1.0609
496.759	0.156996
498.516	0.703613
500.271	0.101385
502.025	0.62364
503.779	0.605005
505.533	1.38352
507.287	0.679039
509.042	1.10044
510.795	0.295717
512.547	1.58235
514.299	0.913282
516.051	0.641897
517.803	0.791847
519.554	0.469753
521.305	0.452065
523.055	1.32592
524.805	1.40041
526.555	0.982113
528.307	0.681503
530.056	0.52165
531.805	0.829712
533.553	0.246531
535.301	0.480789
537.049	0.0111332
538.797	1.6178
540.544	0.46699
542.291	0.225782
544.037	0.891758
545.783	0.882135
547.529	1.03527
549.275	0.701637
551.02	0.62384
552.765	1.14792
554.509	0.562077
556.253	0.162552
557.997	0.825243
559.738	-0.447752
561.482	0.285105
563.224	0.879732
564.967	0.118364
566.709	-0.250389
568.451	0.530527
570.192	0.233942
571.933	0.628183
573.674	-0.00708008
575.415	0.599525
577.153	-0.121567
578.893	0.352863
580.632	0.117134
582.371	0.31801
584.11	0.679113
585.849	0.187786
587.587	0.246061
589.323	0.210194
591.06	1.04693
592.797	0.594252
594.534	0.348333
596.271	0.562601
598.005	0.362709
599.741	0.231205
601.476	-0.131758
603.211	-0.335777
604.944	-0.0593834
606.679	-0.658731
608.413	0.0271301
610.147	0.115135
611.878	0.364397
613.611	0.316685
615.344	0.499405
617.077	-0.0279083
618.807	0.0626869
620.539	0.197071
622.27	0.580709
623.999	0.0249729
625.73	-0.256008
627.461	0.538111
629.189	1.24366
630.919	0.538467
632.648	1.02368
634.376	0.552513
636.105	0.902468
637.833	0.47328
639.559	0.609941
641.287	0.193651
643.013	1.1637
644.74	0.444645
646.467	0.295994
648.192	0.514528
649.918	-0.0342216
651.642	0.991796
653.368	-0.111275
655.091	0.405394
656.816	0.471769
658.538	0.859238
660.263	0.357
661.987	1.60953
663.708	1.94553
665.432	0.425306
667.153	0.98152
668.875	0.392839
670.596	0.788685
672.318	0.433077
674.037	0.333403
675.759	0.718809
677.478	0.602577
679.196	0.0501118
680.917	1.15007
682.635	0.408102
684.355	0.397896
686.072	0.82155
687.791	-0.0703812
689.508	0.578775
691.224	-0.063324
692.942	0.514248
694.658	0.353365
696.376	1.24998
698.091	0.739649
699.805	0.342402
701.522	0.472321
703.236	0.623318
704.95	0.795719
706.665	0.576653
708.379	0.0360928
710.093	0.457991
711.806	0.672461
713.518	0.359838
715.23	0.687231
716.943	0.945333
718.655	0.473152
720.366	0.184401
722.078	0.625061
723.788	0.769281
725.498	0.458336
727.208	0.556213
728.919	1.12961
730.628	-0.067255
732.337	0.232286
734.045	0.621298
735.755	0.444426
737.463	0.449179
739.17	0.229464
740.877	0.507713
742.584	0.562391
744.292	1.20472
745.998	0.858875
747.704	0.515818
749.409	0.872591
751.114	0.399429
752.819	1.34564
754.526	0.382338
756.23	0.34388
757.934	0.893536
759.637	1.60416
761.34	1.16808
763.043	0.574444
764.746	0.814953
766.448	0.895666
768.152	1.35747
769.853	1.56688
771.554	1.72728
773.255	1.74924
774.956	1.04668
776.656	1.92778
778.356	1.83899
780.056	1.2781
781.755	1.12624
783.454	1.99304
785.153	1.25113
786.851	0.95755
788.549	2.42364
790.247	1.32619
791.944	1.8524
793.641	1.56161
795.338	1.22558
797.034	0.869165
798.73	1.1243
800.426	0.977226
802.121	1.32786
803.817	1.49957
805.511	0.546894
807.206	1.30129
808.9	1.73832
810.592	1.54422
812.286	0.855225
813.979	1.53297
815.672	1.20164
817.364	1.11677
819.057	2.19428
820.748	1.75178
822.44	1.55609
824.129	2.14255
825.82	0.903564
827.511	1.11745
829.201	1.06894
830.891	0.647345
832.581	0.899076
834.269	1.28871
835.958	0.833179
837.646	0.823198
839.335	0.855824
841.023	0.639898
842.709	1.22572
844.396	1.60963
846.084	1.65961
847.77	1.08681
849.455	0.853552
851.141	0.848476
852.827	1.40736
854.513	2.17122
856.196	0.825092
857.881	0.463537
859.566	0.0533485
861.248	1.14793
862.932	0.753841
864.616	0.695032
866.297	0.206129
867.98	1.40691
869.663	0.306875
871.343	0.333717
873.026	-0.181295
874.707	0.296192
876.387	0.864101
878.068	0.168255
879.747	0.871572
881.428	0.874527
883.108	1.05673
884.786	1.03372
886.465	0.39864
888.143	0.347603
889.822	1.15053
891.498	0.0115013
893.177	0.673119
894.855	0.588852
896.53	0.480227
898.208	0.459644
899.883	0.504629
901.56	0.83913
903.234	-0.372305
904.91	0.586655
906.584	-0.286707
908.26	-0.0644875
909.933	-0.0415897
911.608	0.427773
913.28	0.497494
914.955	-0.142836
916.627	0.0389557
918.298	0.508366
919.972	0.268457
921.643	-0.146963
923.315	0.810793
924.986	0.157707
926.656	-0.226231
928.328	0.673435
929.997	0.449638
931.668	1.52899
933.337	0.181982
935.006	1.10757
936.676	0.247271
938.344	0.359108
940.012	0.0100746
941.681	0.104445
943.348	0.509245
945.014	-0.344011
946.683	0.146875
948.349	0.590225
950.015	0.411795
951.682	0.429512
953.347	0.800116
955.012	0.688349
956.676	0.427578
958.343	0.0847473
960.006	0.034008
961.67	0.3839
963.333	0.645803
964.998	-0.201004
966.661	0.561472
968.323	1.1417
969.985	0.168905
971.649	0.167799
973.31	0.742477
974.971	0.103588
976.632	0.153791
978.293	-0.257565
979.953	-0.346916
981.615	-0.436993
983.274	0.831882
984.933	0.702375
986.592	0.0596542
988.251	0.409323
989.909	-0.636993
991.567	0.858021
993.225	0.0979996
994.884	0.442692
996.541	0.544567
998.198	0.778557
999.855	1.0118
1001.51	1.30999
1003.17	0.858633
1004.82	-0.0986137
1006.48	0.549435
1008.13	0.494041
1009.79	0.24185
1011.44	0.0785637
1013.1	0.968378
1014.75	0.0618267
1016.4	1.17112
1018.06	0.836172
1019.71	0.787498
1021.36	0.128819
1023.01	0.587526
1024.66	1.48513
1026.32	1.40045
1027.97	0.0922947
1029.62	0.225121
1031.27	0.552004
1032.92	1.29015
1034.57	1.50036
1036.22	0.791605
1037.87	1.75953
1039.52	1.87668
1041.16	1.75575
1042.81	2.63768
1044.46	2.13202
1046.11	1.91342
1047.76	2.76325
1049.4	3.35617
1051.05	2.99644
1052.7	3.09474
1054.34	3.91107
1055.99	3.27158
1057.63	2.63117
1059.28	2.51127
1060.92	2.19418
1062.57	1.54914
1064.21	1.33699
1065.85	0.992205
1067.5	0.666931
1069.14	0.861187
1070.78	-0.292574
1072.43	1.28942
1074.07	0.375767
1075.71	0.158998
1077.35	0.118589
1078.99	0.427774
1080.63	0.803638
1082.27	0.745863
1083.91	-0.874792
1085.55	0.103128
1087.19	0.469471
1088.83	0.527887
1090.47	0.8853
1092.11	0.266689
1093.75	0.684732
1095.39	0.368664
1097.03	-0.311623
1098.66	-0.363331
1100.3	-0.11005
1101.94	0.878593
1103.57	0.0848732
1105.21	0.348276
1106.84	0.37635
1108.48	0.274803
1110.11	-0.301943
1111.75	0.15003
1113.38	0.147062
1115.02	-0.545618
1116.65	0.0270691
1118.29	1.04928
1119.92	-0.435072
1121.55	-0.09552
1123.19	0.695374
1124.82	0.482248
1126.45	0.634768
1128.08	0.553669
1129.71	0.388653
1131.34	0.673885
1132.97	0.382576
1134.6	-0.229568
1136.23	0.183037
1137.86	0.123159
1139.49	0.317074
1141.12	0.359158
1142.75	-0.218828
1144.38	0.0144901
1146.01	0.611403
1147.64	0.528008
1149.26	-0.29908
1150.89	0.55802
1152.52	-0.0758514
1154.15	-0.369516
1155.77	-0.0253677
1157.4	0.211874
1159.02	0.428423
1160.65	-0.0124931
1162.27	0.697302
1163.9	0.409973
1165.52	1.10186
1167.15	-0.311644
1168.77	-0.132721
1170.39	-0.340046
1172.02	0.46839
1173.64	-0.150528
1175.26	-0.00758743
1176.89	0.112679
1178.51	0.550892
1180.13	-0.491772
1181.75	-0.409967
1183.37	-0.432508
1184.99	0.0944767
1186.61	-0.204659
1188.23	-0.0848713
1189.85	0.430872
1191.47	0.309587
1193.09	0.0379486
1194.71	-0.150833
1196.33	0.373713
1197.94	1.10818
1199.56	0.171608
1201.18	-0.151907
1202.8	-0.218534
1204.41	0.805845
1206.03	1.125
1207.65	0.383221
1209.26	1.37371
1210.88	-0.0362873
1212.49	0.594
1214.11	0.614471
1215.72	0.00518227
1217.34	-0.419882
1218.95	0.504349
1220.57	0.471359
1222.18	0.00437546
1223.79	1.4887
1225.41	0.696535
1227.02	0.219261
1228.63	1.1314
1230.24	1.13594
1231.85	0.915865
1233.47	0.450609
1235.08	1.49695
1236.69	1.34734
1238.3	1.61355
1239.91	2.12965
1241.52	0.640209
1243.13	0.638926
1244.74	1.54641
1246.34	1.72754
1247.95	0.561304
1249.56	1.89703
1251.17	0.356133
1252.78	0.863878
1254.38	0.980129
1255.99	1.01608
1257.6	1.11691
1259.2	1.19976
1260.81	0.601652
1262.42	0.687603
1264.02	1.16733
1265.63	0.941988
1267.23	1.31601
1268.84	0.672224
1270.44	0.108898
1272.04	-0.104284
1273.65	1.50475
1275.25	0.789507
1276.85	1.64738
1278.46	0.804184
1280.06	1.30613
1281.66	1.16534
1283.26	1.04554
1284.86	0.554823
1286.46	0.521236
1288.07	0.986021
1289.67	0.233477
1291.27	1.34202
1292.87	1.49979
1294.47	0.437059
1296.06	1.06553
1297.66	1.62798
1299.26	1.01001
1300.86	1.111
1302.46	1.82693
1304.06	1.69553
1305.65	1.04872
1307.25	1.24405
1308.85	1.93068
1310.44	1.01724
1312.04	1.84671
1313.64	2.08314
1315.23	1.42233
1316.83	1.62241
1318.42	1.43587
1320.02	0.658218
1321.61	1.73347
1323.2	1.90787
1324.8	2.74853
1326.39	1.93937
1327.99	1.27276
1329.58	0.953279
1331.17	1.91221
1332.76	1.43977
1334.36	1.49827
1335.95	1.19738
1337.54	1.42257
1339.13	1.20268
1340.72	2.1073
1342.31	1.63694
1343.9	1.64532
1345.49	1.22933
1347.08	1.81704
1348.67	0.864983
1350.26	1.26122
1351.85	1.06284
1353.43	1.04941
1355.02	2.05849
1356.61	1.36951
1358.2	0.719933
1359.78	0.727644
1361.37	2.13003
1362.96	0.955582
1364.54	1.9746
1366.13	1.3791
1367.71	1.22419
1369.3	1.37085
1370.88	2.1576
1372.47	1.67395
1374.05	0.934462
1375.64	1.37061
1377.22	2.02599
1378.8	1.28733
1380.39	0.665796
1381.97	0.598452
1383.55	0.965645
1385.13	0.594727
1386.72	1.03761
1388.3	0.884642
1389.88	1.50747
1391.46	0.862055
1393.04	1.36952
1394.62	1.5009
1396.2	0.680063
1397.78	1.88001
1399.36	1.31316
1400.94	0.724688
1402.52	1.24393
1404.1	1.26788
1405.68	1.27324
1407.25	0.964415
1408.83	0.776426
1410.41	1.1429
1411.98	1.25242
1413.56	1.30129
1415.14	1.38744
1416.71	2.14194
1418.29	1.33756
1419.87	0.298372
1421.44	2.25557
1423.02	1.22314
1424.59	1.67128
1426.16	1.55172
1427.74	1.43357
1429.31	1.78726
1430.89	2.86702
1432.46	1.87741
1434.03	2.87283
1435.6	2.3915
1437.18	2.75633
1438.75	2.41515
1440.32	3.01997
1441.89	2.11388
1443.46	1.81883
1445.03	2.95951
1446.6	2.90182
1448.17	2.49069
1449.74	3.02384
1451.31	2.61452
1452.88	2.08842
1454.45	2.31056
1456.02	2.13928
1457.59	2.41909
1459.16	2.67628
1460.72	2.53564
1462.29	2.39045
1463.86	2.92958
1465.43	2.69884
1466.99	2.13344
1468.56	1.80508
1470.13	1.91092
1471.69	0.78356
1473.26	1.65989
1474.82	1.61619
1476.38	0.573618
1477.95	0.688274
1479.51	1.48887
1481.08	1.26985
1482.64	2.18733
1484.2	0.968502
1485.77	1.88462
1487.33	0.977095
1488.89	1.45704
1490.46	1.4233
1492.02	0.387154
1493.58	1.04692
1495.14	1.13509
1496.7	1.0254
1498.26	0.46777
1499.82	0.670826
1501.38	0.681784
1502.94	0.792606
1504.5	1.35105
1506.06	0.902594
1507.62	0.337469
1509.18	0.737007
1510.73	0.573273
1512.29	-0.0162411
1513.85	0.203207
1515.41	0.326303
1516.96	0.335346
1518.52	0.461245
1520.08	0.952375
1521.63	-0.0112953
1523.19	0.268847
1524.75	0.947409
1526.3	0.420612
1527.85	0.959274
1529.41	0.753399
1530.96	0.244238
1532.52	0.230627
1534.07	-0.235289
1535.62	0.588606
1537.18	1.20511
1538.73	0.576345
1540.28	0.1572
1541.84	0.285496
1543.39	0.563896
1544.94	0.0515785
1546.49	0.610411
1548.04	0.942553
1549.59	0.167986
1551.14	1.54883
1552.69	0.608562
1554.25	0.382481
1555.79	0.944508
1557.34	0.707449
1558.89	0.270126
1560.44	1.31139
1561.99	0.0246029
1563.54	0.400875
1565.08	0.778687
1566.63	1.32488
1568.18	0.414906
1569.73	1.09045
1571.27	1.48518
1572.82	0.47921
1574.37	0.760923
1575.91	1.15473
1577.46	0.70899
1579	1.01099
1580.55	1.51996
1582.09	0.64901
1583.64	1.55442
1585.18	1.65869
1586.73	1.55867
1588.27	1.58991
1589.81	1.37749
1591.35	1.81901
1592.9	2.24098
1594.44	1.80089
1595.98	0.686144
1597.52	1.61456
1599.06	2.52658
1600.61	1.13392
1602.15	2.36862
1603.69	1.25738
1605.23	1.98462
1606.77	1.28088
1608.31	1.36157
1609.85	1.04206
1611.39	0.961367
1612.93	1.70229
1614.46	1.0503
1616	0.473034
1617.54	1.28462
1619.08	1.01145
1620.61	1.07926
1622.15	1.82445
1623.69	0.64323
1625.23	2.02698
1626.76	1.05038
1628.3	2.16662
1629.83	0.660486
1631.37	1.26529
1632.9	1.06521
1634.44	0.978035
1635.97	1.56455
1637.51	0.865974
1639.04	1.26947
1640.57	1.67286
1642.11	0.919497
1643.64	1.3187
1645.17	1.99366
1646.71	0.805889
1648.24	1.21709
1649.77	2.16704
1651.3	1.87481
1652.83	0.862648
1654.36	0.855309
1655.89	1.27587
1657.42	1.75167
1658.96	1.6882
1660.48	1.19592
1662.01	1.88469
1663.54	0.924419
1665.07	1.996
1666.6	1.31338
1668.13	1.07697
1669.66	1.01035
1671.19	1.83182
1672.71	1.51348
1674.24	0.680941
1675.77	2.13126
1677.29	1.83038
1678.82	1.36151
1680.35	1.99367
1681.87	1.13483
1683.4	1.08417
1684.92	1.29066
1686.45	1.47939
1687.97	0.605976
1689.5	0.870302
1691.02	1.20823
1692.54	1.38136
1694.07	-0.348135
1695.59	-0.229742
1697.11	1.22179
1698.64	0.479504
1700.16	1.01457
1701.68	0.179831
1703.2	0.565916
1704.72	-0.324654
1706.25	-0.286915
1707.77	0.677204
1709.29	0.404335
1710.81	0.0413761
1712.33	-0.483702
1713.85	0.133919
1715.37	0.479191
1716.89	-0.189177
1718.41	-0.0976944
1719.92	0.354656
1721.44	-0.149611
1722.96	-0.00268936
1724.48	-0.285915
1725.99	-0.0434208
1727.51	0.0581322
1729.03	0.25209
1730.55	0.0687237
1732.06	-0.0780849
1733.58	0.214809
1735.09	0.847982
1736.61	0.288832
1738.13	0.332813
1739.64	-0.0227337
1741.15	0.216269
1742.67	0.119331
1744.18	0.507599
1745.7	-0.455168
1747.21	0.0342255
1748.72	-0.144989
1750.24	0.0824471
1751.75	0.150555
1753.26	-0.0839348
1754.77	-0.0180931
1756.29	-0.219288
1757.8	-0.313892
1759.31	-0.0653229
1760.82	0.429499
1762.33	-0.0613556
1763.84	0.295393
1765.35	0.498184
1766.86	0.119463
1768.37	-0.321079
1769.88	-0.217352
1771.39	0.332741
1772.9	0.165224
1774.4	-0.055872
1775.91	0.16666
1777.42	1.05217
1778.93	-0.0219498
1780.44	-0.099205
1781.94	-0.0408459
1783.45	0.028059
1784.96	-0.0173206
1786.46	0.0624599
1787.97	0.463871
1789.47	0.106432
1790.98	-0.323053
1792.48	0.0348663
1793.99	0.03685
1795.49	0.18824
1797	-0.346636
1798.5	0.156395
1800.01	-0.00459862
1801.51	-0.422255
1803.01	0.456583
1804.51	0.0972748
1806.02	0.354839
1807.52	-0.117018
1809.02	-0.111685
1810.52	0.216677
1812.02	-0.097599
1813.52	0.146723
1815.02	-0.290724
1816.53	0.141226
1818.03	0.623749
1819.52	0.015852
1821.02	-0.00809669
1822.52	0.00303459
1824.02	-0.0165749
1825.52	0.493433
1827.02	-0.224819
1828.52	0.424891
1830.02	0.271955
1831.51	0.297176
1833.01	0.259382
1834.51	-0.467846
1836.01	0.100597
1837.5	0.341728
1839	0.262699
1840.49	-0.644444
1841.99	-0.232351
1843.49	0.158186
1844.98	0.221573
1846.48	-0.0208855
1847.97	0.327789
1849.47	0.323698
1850.96	0.600475
1852.45	0.32913
1853.95	0.675352
1855.44	0.194889
1856.93	-0.0675392
1858.42	0.0774117
1859.92	0.191462
1861.41	0.230675
1862.9	0.273705
1864.39	-0.0816708
1865.88	0.0258808
1867.38	0.133461
1868.87	0.23015
1870.36	-0.677355
1871.85	0.513313
1873.34	0.213018
1874.83	-0.0961037
1876.32	0.590881
1877.81	0.467091
1879.29	-0.177814
1880.78	0.258654
1882.27	0.269051
1882.53	0.246296
1884.03	0.747803
1885.52	0.0618553
1887.01	-0.434196
1888.51	0.670454
1890	0.400034
1891.5	-0.33695
1892.99	-0.251978
1894.48	0.324665
1895.97	0.210077
1897.47	-0.215292
1898.96	0.17647
1900.45	0.757002
1901.94	-0.249893
1903.43	0.269283
1904.92	-0.119713
1906.41	-0.388796
1907.9	0.0543365
1909.39	-0.0740776
1910.88	-0.182491
1912.37	0.284039
1913.86	0.0928936
1915.35	-0.167265
1916.84	-0.0120869
1918.33	0.748222
1919.81	0.397997
1921.3	0.203672
1922.79	0.270355
1924.28	-0.0760689
1925.76	0.0827065
1927.25	0.573328
1928.73	0.650297
1930.22	0.259668
1931.71	-0.0292587
1933.19	-0.131535
1934.68	0.817429
1936.16	0.878672
1937.65	0.625359
1939.13	0.492092
1940.62	-0.106358
1942.1	-0.546453
1943.58	-7.05719e-005
1945.07	0.530994
1946.55	-0.0749836
1948.03	0.283899
1949.51	-0.134647
1951	0.512051
1952.48	-0.427505
1953.96	0.610126
1955.44	0.477697
1956.92	-0.185804
1958.4	0.715155
1959.88	0.330664
1961.36	-0.309166
1962.84	-0.159456
1964.32	-0.233057
1965.8	0.342844
1967.28	0.0263348
1968.76	0.0676575
1970.24	0.329576
1971.72	0.846643
1973.2	-0.634087
1974.67	0.104836
1976.15	0.758011
1977.63	-0.156178
1979.1	0.514137
1980.58	0.452087
1982.06	0.253693
1983.54	-0.556694
1985.01	-0.246489
1986.49	-0.123955
1987.96	-0.0694218
1989.44	-0.285011
1990.91	-0.413877
1992.39	-0.218731
1993.86	0.401554
1995.33	0.854601
1996.81	0.734188
1998.28	0.326687
1999.75	-0.0310249
2001.23	0.251204
2002.7	-0.0415821
2004.17	0.660196
2005.65	0.637701
2007.12	0.448879
2008.59	-0.663347
2010.06	0.702042
2011.53	0.671322
2013	0.35465
2014.47	-0.198643
2015.94	0.356686
2017.41	0.539251
2018.88	-0.0370197
2020.35	0.528381
2021.82	0.538662
2023.29	0.096674
2024.76	0.52969
2026.23	-0.124628
2027.69	0.583673
2029.16	-0.431576
2030.63	0.217266
2032.1	-0.27206
2033.56	0.616137
2035.03	0.363018
2036.5	-0.160074
2037.96	1.29794
2039.43	-0.0511494
2040.89	-0.257847
2042.36	0.225796
2043.83	0.291239
2045.29	0.460167
2046.75	-0.227345
2048.22	-0.173555
2049.68	0.115427
2051.15	-0.238707
2052.61	0.0606499
2054.07	-0.167528
2055.54	0.00447655
2057	0.37509
2058.46	-0.267698
2059.92	0.0834274
2061.39	-0.0697155
2062.85	-0.0859222
2064.31	0.253977
2065.77	0.158957
2067.23	-0.405025
2068.69	-0.0418282
2070.15	-0.115349
2071.61	0.737238
2073.07	0.478411
2074.53	0.0673065
2075.99	0.632
2077.45	0.370609
2078.91	-0.312809
2080.37	0.383457
2081.82	0.11846
2083.28	0.861782
2084.74	-0.0463505
2086.2	0.103975
2087.65	0.504795
2089.11	0.702497
2090.57	-0.948195
2092.02	0.223089
2093.48	0.100918
2094.94	-0.172693
2096.39	0.692438
2097.85	0.566553
2099.3	0.0375557
2100.76	0.294544
2102.21	0.317812
2103.66	-0.474981
2105.12	0.455503
2106.57	-0.079298
2108.03	-0.444229
2109.48	0.192383
2110.93	0.643927
2112.38	-0.174671
2113.84	0.235552
2115.29	0.258379
2116.74	-0.485842
2118.19	-0.115065
2119.64	0.175575
2121.09	0.520609
2122.54	-0.389994
2123.99	0.195889
2125.45	-0.592915
2126.89	0.458128
2128.34	0.395689
2129.79	0.230331
2131.24	-0.0540924
2132.69	-0.0587959
2134.14	0.51545
2135.59	0.413223
2137.04	-0.0818195
2138.48	0.28739
2139.93	-0.478998
2141.38	0.147017
2142.83	0.131462
2144.27	-0.196783
2145.72	0.434975
2147.17	-0.0428028
2148.61	0.140028
2150.06	0.45335
2151.5	0.267241
2152.95	-0.352146
2154.39	0.351984
2155.84	0.176828
2157.28	-0.478453
2158.73	0.292639
2160.17	0.669512
2161.61	-0.423912
2163.06	0.426052
2164.5	0.351706
2165.94	0.461998
2167.38	-0.0757389
2168.83	0.397392
2170.27	0.76685
2171.71	0.199671
2173.15	-0.47216
2174.59	0.333204
2176.03	0.521585
2177.47	0.278103
2178.91	0.152952
2180.36	0.495739
2181.8	0.275419
2183.23	-0.442398
2184.67	0.619946
2186.11	0.019289
2187.55	-0.797844
2188.99	0.0324326
2190.43	-0.402061
2191.87	-0.154747
2193.3	0.34059
2194.74	0.582991
2196.18	-0.211176
2197.62	0.554369
2199.05	0.45022
2200.49	0.111061
2201.93	0.253525
2203.36	0.297874
2204.8	0.54388
2206.23	0.328178
2207.67	0.263094
2209.1	-0.116989
2210.54	0.295855
2211.97	-0.303215
2213.41	-0.556177
2214.84	0.231524
2216.27	-0.317356
2217.71	0.671461
2219.14	-0.00307465
2220.57	0.627388
2222.01	0.186556
2223.44	0.419735
2224.87	0.0729446
2226.3	-0.0143719
2227.73	1.0945
2229.16	0.145031
2230.6	0.590099
2232.03	0.0832386
2233.46	0.969526
2234.89	-0.629522
2236.32	0.73432
2237.75	0.124718
2239.18	0.695396
2240.61	0.112629
2242.03	0.203316
2243.46	1.12894
2244.89	0.342903
2246.32	0.387062
2247.75	-0.0620155
2249.17	0.820587
2250.6	0.376991
2252.03	-0.0377865
2253.46	0.229092
2254.88	0.0738316
2256.31	-0.0775433
2257.73	0.101652
2259.16	0.287861
2260.59	0.400282
2262.01	0.665022
2263.44	0.73922
2264.86	-0.0145512
2266.29	0.254301
2267.71	0.521454
2269.14	0.249451
2270.56	-0.545675
2271.98	-0.381744
2273.4	0.514721
2274.83	0.238945
2276.25	0.256824
2277.67	0.829315
2279.09	0.358923
2280.52	-0.0792274
2281.94	0.0203342
2283.36	0.217619
2284.78	0.284559
2286.2	0.498995
2287.62	0.322624
2289.04	-0.228409
2290.46	0.315918
2291.88	-0.331945
2293.3	0.44277
2294.72	0.236416
2296.14	0.0624104
2297.56	-0.60314
2298.98	0.319977
2300.4	0.293787
2301.82	1.02256
2303.23	0.259836
2304.65	0.744242
2306.07	0.112171
2307.49	0.349466
2308.9	0.684231
2310.32	-0.100426
2311.73	0.1497
2313.15	0.169542
2314.57	0.190407
2315.98	0.295452
2317.4	0.633204
2318.81	-0.511168
2320.23	0.800175
2321.64	-0.365128
2323.06	0.659296
2324.47	-0.0548439
2325.88	0.380585
2327.3	0.25082
2328.71	1.10814
2330.12	-0.143318
2331.54	0.0410118
2332.95	0.34317
2334.36	0.367588
2335.77	-0.100891
2337.18	-0.011076
2338.6	0.306452
2340.01	0.275774
2341.42	0.259193
2342.83	-0.070425
2344.24	0.338318
2345.65	-0.0230618
2347.06	-0.366884
2348.47	0.255569
2349.88	0.53277
2351.29	0.333593
2352.7	0.42626
2354.1	-0.6747
2355.51	-0.145128
2356.92	-0.00825691
2358.33	-0.197027
2359.74	0.0860996
2361.14	0.206579
2362.55	0.45649
2363.96	0.30072
2365.36	0.323139
2366.77	0.0874195
2368.18	-0.114029
2369.58	0.0584621
2370.99	0.0243988
2372.39	-0.102987
2373.8	-0.743065
2375.2	0.743036
2376.61	0.151442
2378.01	0.731615
2379.42	0.166315
2380.82	0.207861
2382.22	0.646687
2383.63	0.233454
2385.03	-0.227339
2386.43	-0.254652
2387.84	-0.279705
2389.24	-0.269934
2390.64	0.364212
2392.04	0.729704
2393.44	0.301723
2394.84	0.0989265
2396.25	0.979099
2397.65	0.239201
2399.05	-0.339952
2400.45	0.559738
2401.85	0.0621662
2403.25	0.374784
2404.65	0.479977
2406.05	-0.0678482
2407.45	0.144091
2408.84	0.0684433
2410.24	0.420055
2411.64	0.344097
2413.04	0.745329
2414.44	-0.0221024
2415.83	0.464943
2417.23	0.0845394
2418.63	0.244627
2420.02	0.13644
2421.42	0.281353
2422.82	0.219511
2424.21	0.568913
2425.61	-0.301619
2427	0.0967655
2428.4	0.386436
2429.8	0.2663
2431.19	0.0207939
2432.58	0.188154
2433.98	0.529123
2435.37	0.295616
2436.77	0.0107231
2438.16	-0.59561
2439.55	0.27244
2440.95	0.0738811
2442.34	0.15988
2443.73	0.0705814
2445.12	0.39332
2446.51	-0.0773125
2447.91	0.577311
2449.3	-0.431894
2450.69	0.761154
2452.08	0.466801
2453.47	0.0479717
2454.86	0.454044
2456.25	0.197327
2457.64	0.447588
2459.03	0.396917
2460.42	0.313246
2461.81	0.496407
2463.2	0.551083
2464.59	0.177711
2465.98	-0.21187
2467.36	-0.0488434
2468.75	0.098135
2470.14	0.528368
2471.53	0.49995
2472.92	0.202105
2474.3	-0.0184898
2475.69	0.451815
2477.08	0.0560322
2478.46	0.0376816
2479.85	-0.262686
2481.23	-0.107466
2482.62	0.0160255
2484	-0.127914
2485.39	0.211155
2486.77	-0.23431
2488.16	0.0208549
2489.54	-0.131557
2490.93	-0.564056
2492.31	0.202684
2493.69	-0.132223
2495.08	0.296839
2496.46	0.263189
2497.84	0.402033
2499.23	0.479429
2500.61	0.354832
2501.99	0.429464
2503.37	0.192804
2504.75	0.756552
2506.13	0.423946
2507.52	0.306957
2508.9	0.313536
2510.28	0.505424
2511.66	-0.145336
2513.04	0.371931
2514.42	-0.0898361
2515.8	-0.120298
2517.18	0.67712
2518.55	-0.191483
2519.93	-0.294733
2521.31	-0.169397
2522.69	0.152687
2524.07	0.670639
2525.45	0.347876
2526.82	0.603655
2528.2	0.525267
2529.58	0.966631
2530.95	0.0435181
2532.33	0.325415
2533.71	-0.103613
2535.08	0.0464039
2536.46	0.621675
2537.84	0.101555
2539.21	0.642469
2540.59	0.148682
2541.96	-0.0876274
2543.34	0.0713539
2544.71	0.717651
2546.08	-0.0287266
2547.46	0.441269
2548.83	0.792034
2550.2	0.369173
2551.58	0.885977
2552.95	0.307938
2554.32	0.243427
2555.7	0.358898
2557.07	0.670174
2558.44	0.647367
2559.81	0.231077
2561.18	0.467939
2562.55	0.463778
2563.93	-0.175461
2565.3	-0.0408516
2566.67	0.215588
2568.04	0.654104
2569.41	0.77442
2570.78	-0.0753059
2572.15	0.242111
2573.51	0.393003
2574.88	0.528984
2576.25	0.149567
2577.62	0.679653
2578.99	0.299475
2580.36	0.161072
2581.73	0.734346
2583.09	0.624411
2584.46	0.83227
2585.83	0.539753
2587.19	0.368811
2588.56	0.592402
2589.93	0.42218
2591.29	0.115307
2592.66	0.534704
2594.02	0.709671
2595.39	0.200678
2596.75	0.597864
2598.12	-0.111553
2599.48	0.297779
2600.85	0.404678
2602.21	0.210588
2603.58	-0.374237
2604.94	0.340384
2606.3	0.330889
2607.67	-0.207098
2609.03	0.0823956
2610.39	0.368795
2611.76	0.425964
2613.12	0.0893955
2614.48	-0.218245
2615.84	0.509523
2617.2	0.157064
2618.56	0.435692
2619.92	0.371479
2621.28	0.518414
2622.65	0.203173
2624.01	0.366718
2625.37	0.246407
2626.72	0.99057
2628.08	0.257685
2629.44	0.463245
2630.8	0.459713
2632.16	0.337013
2633.52	-0.171799
2634.88	0.641083
2636.24	0.0733948
2637.59	0.0845032
2638.95	0.673159
2640.31	0.580698
2641.67	0.326376
2643.02	0.457169
2644.38	0.23387
2645.74	-0.00404167
2647.09	0.273428
2648.45	0.548883
2649.8	0.233343
2651.16	0.416685
2652.51	0.525513
2653.87	0.796021
2655.22	0.320242
2656.58	0.609383
2657.93	-0.0505772
2659.29	0.345518
2660.64	0.245012
2661.99	0.714231
2663.35	0.363638
2664.7	0.683041
2666.05	0.110552
2667.41	-0.126936
2668.76	-0.102133
2670.11	0.243343
2671.46	0.153318
2672.81	0.326391
2674.16	-0.109232
2675.51	0.589024
2676.87	0.417448
2678.22	0.392546
2679.57	0.253561
2680.92	0.116987
2682.27	0.679028
2683.62	0.272354
2684.97	0.0416946
2686.31	0.827627
2687.66	0.29286
2689.01	0.713306
2690.36	0.694435
2691.71	1.00518
2693.06	0.485228
2694.4	0.659573
2695.75	0.499987
2697.1	-0.440262
2698.45	0.548998
2699.79	0.600487
2701.14	0.207035
2702.49	0.541006
2703.83	0.399391
2705.18	0.360304
2706.52	0.509842
2707.87	0.296114
2709.21	-0.165472
2710.56	0.446379
2711.9	0.447887
2713.25	0.434557
2714.59	0.464655
2715.94	0.465546
2717.28	0.858809
2718.62	1.17893
2719.97	0.232422
2721.31	0.521582
2722.65	1.18813
2723.99	0.383574
2725.34	-0.101788
2726.68	0.69289
2728.02	0.759043
2729.36	0.548155
2730.7	0.0896263
2732.04	0.140333
2733.39	0.0748482
2734.73	0.387932
2736.07	0.730503
2737.41	0.709736
2738.75	0.0781136
2740.08	-0.0450077
2741.43	0.645111
2742.76	0.650303
2744.1	0.595787
2745.44	0.888575
2746.78	0.541212
2748.12	0.121153
2749.46	0.16584
2750.79	0.0948982
2752.13	0.256531
2753.47	0.375086
2754.81	-0.172501
2756.14	0.0771465
2757.48	0.00844765
2758.81	-0.0596466
2760.15	0.263897
2761.49	0.55946
2762.82	-0.489674
2764.16	0.24169
2765.49	0.0325089
2766.83	0.212984
2768.16	0.724054
2769.5	0.219833
2770.83	0.348728
2772.16	0.488909
2773.5	0.179285
2774.83	-0.289585
2776.17	0.452196
2777.5	0.0853729
2778.83	-0.150227
2780.16	0.0323772
2781.5	-0.21538
2782.83	0.226246
2784.16	0.236925
2785.49	-0.239737
2786.82	0.0723839
2788.15	-0.316187
2789.49	0.170084
2790.82	-0.185928
2792.15	0.646709
2793.48	-0.121077
2794.81	-0.116669
2796.14	0.0870609
2797.46	0.418049
2798.79	0.376347
2800.12	0.00549316
2801.45	-0.0660229
2802.78	-0.266203
2804.11	-0.0534592
2805.44	-0.226423
2806.76	-0.457378
2808.09	0.0075779
2809.42	0.343054
2810.75	0.507675
2812.07	-0.092905
2813.4	0.118126
2814.73	-0.376783
2816.05	0.237249
2817.38	0.0314693
2818.7	0.238001
2820.03	0.203604
2821.36	0.437538
2822.68	-0.0243874
2824.01	-0.0482655
2825.33	0.0971222
2826.65	0.893938
2827.98	0.417326
2829.3	0.0836449
2830.63	-0.234818
2831.95	0.452238
2833.27	0.459692
2834.6	0.339088
2835.92	0.0335178
2837.24	0.887167
2838.56	0.848345
2839.88	1.36065
2841.21	1.95774
2842.53	1.52365
2843.85	2.03804
2845.17	2.04518
2846.49	1.71451
2847.81	2.03473
2849.13	1.60594
2850.45	2.23658
2851.77	2.01815
2853.09	2.39226
2854.41	2.05895
2855.73	2.41766
2857.05	2.71975
2858.37	2.25916
2859.69	2.42007
2861	2.5806
2862.32	2.85335
2863.64	2.60303
2864.96	3.21304
2866.28	3.07506
2867.59	3.54412
2868.91	2.82951
2870.23	3.30024
2871.54	3.50334
2872.86	3.84679
2874.17	3.35728
2875.49	3.18995
2876.81	3.99204
2878.12	3.66603
2879.44	3.59296
2880.75	3.81582
2882.07	3.75913
2883.38	3.52204
2884.69	3.80655
2886.01	3.79734
2887.32	3.76025
2888.63	3.75039
2889.95	3.80917
2891.26	3.27738
2892.57	4.04831
2893.89	4.21588
2895.2	3.72595
2896.51	3.72794
2897.82	3.42413
2899.13	3.78002
2900.44	3.73166
2901.76	3.93604
2903.07	3.76316
2904.38	4.37387
2905.69	4.38369
2907	4.49253
2908.31	4.14132
2909.62	4.33728
2910.93	5.02423
2912.24	4.01777
2913.55	4.25559
2914.85	4.60297
2916.16	5.42318
2917.47	5.02259
2918.78	5.43191
2920.09	5.1554
2921.4	5.14602
2922.7	5.37658
2924.01	5.88922
2925.32	5.761
2926.62	5.31245
2927.93	5.29734
2929.24	5.81285
2930.54	5.83811
2931.85	5.90452
2933.15	6.06834
2934.46	5.84081
2935.76	5.5996
2937.07	5.84789
2938.37	5.00658
2939.68	5.42352
2940.98	5.36629
2942.29	4.97527
2943.59	4.50246
2944.89	4.39534
2946.2	4.36017
2947.5	4.2981
2948.8	4.36159
2950.11	4.64721
2951.41	4.13169
2952.71	4.00494
2954.01	4.05785
2955.32	4.40409
2956.62	3.80012
2957.92	3.85768
2959.22	4.0041
2960.52	3.81944
2961.82	3.27375
2963.12	3.96326
2964.42	3.03829
2965.72	3.09309
2967.02	2.97647
2968.32	3.56048
2969.62	2.99042
2970.92	3.23574
2972.22	2.96123
2973.51	2.65912
2974.81	2.61028
2976.11	2.15207
2977.41	1.84647
2978.71	2.57992
2980	2.38103
2981.3	2.58805
2982.6	2.11884
2983.9	2.03031
2985.19	1.87363
2986.49	1.69175
2987.78	1.59691
2989.08	1.89746
2990.38	1.45378
2991.67	1.86659
2992.97	1.50458
2994.26	1.46356
2995.56	1.58912
2996.85	0.927069
2998.14	1.33182
2999.44	0.558498
3000.73	0.277649
3002.03	1.17556
3003.32	0.798651
3004.61	0.254183
3005.91	0.479879
3007.2	0.704361
3008.49	0.703318
3009.78	0.574845
3011.07	0.0679741
3012.37	0.161533
3013.66	-0.289008
3014.95	-0.166449
3016.24	0.305623
3017.53	0.207834
3018.82	0.0138445
3020.11	-0.0127649
3021.4	-0.276337
3022.69	0.111779
3023.98	0.344904
3025.27	0.354465
3026.56	0.613007
3027.85	-0.0964622
3029.14	-0.277082
3030.43	0.0567207
3031.71	-0.173133
3033	0.151547
3034.29	-0.144292
3035.58	-0.0958776
3036.87	0.21211
3038.15	0.158254
3039.44	-0.0916128
3040.73	-0.0962887
3042.01	0.130814
3043.3	-0.451281
3044.59	0.475601
3045.87	-0.305449
3047.16	-0.0835009
3048.44	0.115364
3049.73	0.113522
3051.01	0.456015
3052.3	0.186108
3053.58	-0.0835657
3054.87	0.150575
3056.15	0.19185
3057.43	0.626542
3058.72	-0.0440922
3060	0.306897
3061.29	0.250112
3062.57	0.453833
3063.85	0.456209
3065.13	0.244169
3066.42	0.361237
3067.7	0.262857
3068.98	0.518909
3070.26	0.0946531
3071.54	0.444192
3072.82	0.261234
3074.11	0.484075
3075.39	0.134469
3076.67	0.110723
3077.95	0.590171
3079.23	0.433756
3080.51	0.158353
3081.79	0.87638
3083.07	0.403189
3084.35	0.745487
3085.63	0.192492
3086.9	0.398804
3088.18	0.2104
3089.46	0.889538
3090.74	0.645092
3092.02	0.549911
3093.29	0.360329
3094.57	0.320769
3095.85	0.987
3097.13	1.2467
3098.4	0.869393
3099.68	0.844522
3100.95	1.03647
3102.23	1.10677
3103.51	0.961176
3104.78	0.451413
3106.06	0.809574
3107.33	1.19668
3108.61	0.909323
3109.88	1.49044
3111.16	1.04492
3112.43	0.966484
3113.71	1.32264
3114.98	1.31324
3116.25	0.991276
3117.53	1.00688
3118.8	1.15629
3120.07	1.62941
3121.35	1.55849
3122.62	1.50032
3123.89	0.995096
3125.16	2.10217
3126.44	1.57177
3127.71	1.28672
3128.98	1.47648
3130.25	2.08624
3131.52	1.88505
3132.79	1.91379
3134.06	1.95561
3135.33	1.90221
3136.6	1.79408
3137.87	1.87426
3139.14	2.08866
3140.41	2.67959
3141.68	1.97893
3142.95	2.24784
3144.22	2.20878
3145.49	1.91634
3146.76	2.45714
3148.02	2.83807
3149.29	2.67099
