200.398	-0.0371876
202.213	-0.066906
204.027	-0.0902081
205.843	0.278284
207.657	-0.202957
209.47	0.65279
211.283	0.462196
213.097	-0.579308
214.909	0.125866
216.721	-0.600294
218.533	-0.4284
220.344	0.713249
222.157	0.0176048
223.967	0.364834
225.777	0.447811
227.587	0.966522
229.396	0.7605
231.205	0.675058
233.016	0.662195
234.824	0.313156
236.632	1.02809
238.439	0.783421
240.247	2.08708
242.053	2.07063
243.86	3.07103
245.666	3.42155
247.474	3.23878
249.279	4.11341
251.085	5.17494
252.889	5.38544
254.694	5.88169
256.498	5.53315
258.301	5.45261
260.105	5.37676
261.908	6.84801
263.71	5.62604
265.513	5.58787
267.315	5.47904
269.116	4.93631
270.918	5.18781
272.718	5.17211
274.519	4.43045
276.319	4.14381
278.119	3.66094
279.918	2.57238
281.718	2.90128
283.516	3.49063
285.315	3.2833
287.113	2.40306
288.911	2.67595
290.708	2.27969
292.505	1.12151
294.302	2.45648
296.098	2.26358
297.894	1.11783
299.69	0.977976
301.485	1.4833
303.278	1.15141
305.073	1.55756
306.867	1.81863
308.661	1.19733
310.454	1.24538
312.247	1.5107
314.04	0.970221
315.833	0.838999
317.623	0.831053
319.415	0.469475
321.206	1.25455
322.997	0.444845
324.788	1.59226
326.579	1.61964
328.367	1.59925
330.156	1.12373
331.946	0.980553
333.735	0.47525
335.523	1.52121
337.31	1.24669
339.098	0.298315
340.885	0.017252
342.673	1.6952
344.458	0.815254
346.244	-0.205925
348.03	-0.0307827
349.816	0.408278
351.6	0.513458
353.385	0.331512
355.17	0.744244
356.953	0.00975609
358.737	0.0600243
360.521	-0.0109043
362.304	0.630573
364.085	0.366226
365.868	-0.112703
367.65	0.974468
369.431	-0.408024
371.212	-0.0363274
372.994	0.286062
374.773	0.110912
376.554	-0.0871067
378.332	-0.519186
380.112	-0.0531578
381.892	0.0851288
383.669	0.484844
385.448	0.393354
387.225	0.539768
389.003	0.571255
390.781	0.323235
392.557	0.875729
394.334	0.889637
396.109	1.44477
397.885	1.71865
399.66	2.81452
401.436	2.80584
403.211	2.49064
404.984	4.07638
406.759	3.28849
408.532	3.744
410.306	3.84667
412.078	3.71492
413.851	4.24148
415.623	4.04255
417.395	4.0101
419.166	4.19069
420.938	5.3111
422.708	5.46907
424.477	5.39084
426.248	4.91142
428.017	4.03105
429.788	3.99486
431.556	2.76177
433.326	2.2104
435.093	1.35491
436.86	1.4149
438.629	0.534872
440.395	0.614288
442.163	0.29089
443.929	0.78396
445.694	0.757206
447.461	0.400318
449.226	0.697927
450.99	1.06541
452.756	-0.0842972
454.52	0.0280952
456.285	0.629862
458.048	0.182529
459.811	-0.0311623
461.573	0.780104
463.337	-0.35862
465.099	0.413773
466.86	0.123171
468.623	0.0241508
470.384	0.487244
472.144	0.742971
473.906	0.369059
475.666	1.13252
477.425	0.633902
479.184	0.480757
480.944	0.0926342
482.703	1.12558
484.461	0.460785
486.218	0.219215
487.975	0.727844
489.734	0.658455
491.491	-0.0390034
493.247	-0.0819988
495.003	0.787506
496.759	0.417923
498.516	0.18775
500.271	0.800491
502.025	0.356857
503.779	1.06167
505.533	1.13054
507.287	0.585232
509.042	0.530334
510.795	0.44858
512.547	0.481241
514.299	0.981443
516.051	1.1493
517.803	1.29102
519.554	0.466698
521.305	0.440454
523.055	0.624626
524.805	1.23067
526.555	1.95335
528.307	1.26856
530.056	0.349989
531.805	0.368509
533.553	1.11106
535.301	1.00814
537.049	0.528557
538.797	0.887472
540.544	0.916676
542.291	1.10716
544.037	0.83107
545.783	0.695015
547.529	1.07028
549.275	0.564293
551.02	1.07884
552.765	1.13004
554.509	0.257313
556.253	0.333372
557.997	-0.166426
559.738	0.441648
561.482	0.957722
563.224	0.301104
564.967	-0.238386
566.709	0.625368
568.451	-0.209143
570.192	0.0378304
571.933	-0.148504
573.674	-0.0103436
575.415	-0.235666
577.153	0.574875
578.893	0.0802517
580.632	0.36767
582.371	0.31097
584.11	0.161205
585.849	0.469242
587.587	0.590857
589.323	-0.325321
591.06	0.13693
592.797	0.460024
594.534	-0.114532
596.271	-0.0218163
598.005	0.231878
599.741	0.438845
601.476	-0.414049
603.211	-0.303196
604.944	0.149549
606.679	0.116674
608.413	0.105087
610.147	-0.319963
611.878	0.449141
613.611	-0.661041
615.344	0.270809
617.077	0.285925
618.807	-0.157988
620.539	0.724005
622.27	-0.136169
623.999	0.557514
625.73	-0.371845
627.461	0.574043
629.189	0.267759
630.919	-0.535658
632.648	0.741524
634.376	0.469297
636.105	-0.351435
637.833	1.08432
639.559	0.825342
641.287	0.195482
643.013	-0.392902
644.74	0.952438
646.467	0.384941
648.192	0.503952
649.918	0.901701
651.642	0.307356
653.368	1.01624
655.091	1.23239
656.816	1.27163
658.538	0.560822
660.263	1.1027
661.987	1.16281
663.708	0.943993
665.432	1.6801
667.153	1.42921
668.875	1.95407
670.596	1.1993
672.318	1.47784
674.037	1.00604
675.759	0.904652
677.478	0.989212
679.196	0.867596
680.917	0.513897
682.635	0.731144
684.355	-0.252665
686.072	0.462696
687.791	0.0236034
689.508	-0.556042
691.224	-0.100639
692.942	-0.22238
694.658	-0.41468
696.376	0.289223
698.091	0.368834
699.805	0.860041
701.522	0.198425
703.236	0.248156
704.95	0.801636
706.665	-0.184513
708.379	0.893908
710.093	-0.000823975
711.806	0.135418
713.518	0.133501
715.23	-0.143108
716.943	0.448187
718.655	0.422642
720.366	0.534161
722.078	0.0308552
723.788	0.393099
725.498	0.936312
727.208	-0.520845
728.919	0.361095
730.628	-0.709232
732.337	0.599836
734.045	-0.0173664
735.755	0.20295
737.463	0.536364
739.17	0.125879
740.877	1.0253
742.584	0.0334435
744.292	0.441133
745.998	0.153469
747.704	0.273535
749.409	0.463501
751.114	-0.491253
752.819	0.513195
754.526	1.38547
756.23	0.438181
757.934	0.461174
759.637	0.194023
761.34	0.695145
763.043	1.3334
764.746	0.978596
766.448	1.38933
768.152	1.48044
769.853	1.20551
771.554	1.44652
773.255	1.3002
774.956	1.085
776.656	1.79773
778.356	1.72152
780.056	1.80654
781.755	1.37348
783.454	0.963093
785.153	1.52377
786.851	1.60468
788.549	1.43046
790.247	0.820181
791.944	1.0417
793.641	1.39507
795.338	0.799587
797.034	1.49143
798.73	2.20775
800.426	1.14853
802.121	1.96045
803.817	1.46865
805.511	0.797102
807.206	1.54017
808.9	2.14538
810.592	1.35606
812.286	1.30596
813.979	1.47879
815.672	1.91939
817.364	1.41961
819.057	0.540791
820.748	1.02584
822.44	1.13141
824.129	0.747723
825.82	1.99371
827.511	1.83924
829.201	0.84388
830.891	1.21282
832.581	1.29766
834.269	1.34208
835.958	1.16547
837.646	1.05528
839.335	1.21073
841.023	1.43024
842.709	1.33441
844.396	0.500021
846.084	0.605118
847.77	0.758148
849.455	0.334116
851.141	1.70538
852.827	1.49154
854.513	0.0226021
856.196	0.706564
857.881	1.43481
859.566	0.653471
861.248	1.30855
862.932	0.429245
864.616	0.808704
866.297	0.442644
867.98	0.435869
869.663	0.225178
871.343	0.713032
873.026	0.207909
874.707	0.0183125
876.387	0.212271
878.068	0.473951
879.747	0.464602
881.428	0.52223
883.108	-0.00849533
884.786	1.60328
886.465	0.413164
888.143	1.13843
889.822	0.416634
891.498	0.66184
893.177	0.0257435
894.855	0.738449
896.53	1.0656
898.208	0.716297
899.883	0.747232
901.56	0.126646
903.234	0.535818
904.91	0.496458
906.584	0.881691
908.26	1.04411
909.933	0.762461
911.608	0.572031
913.28	1.09454
914.955	0.284414
916.627	0.230145
918.298	1.66069
919.972	1.02944
921.643	0.931307
923.315	1.52067
924.986	0.963717
926.656	0.874632
928.328	0.788889
929.997	0.705641
931.668	0.711992
933.337	0.674759
935.006	0.395201
936.676	0.954525
938.344	0.853785
940.012	1.17444
941.681	0.504852
943.348	1.16037
945.014	0.557892
946.683	0.548996
948.349	0.00677299
950.015	0.983742
951.682	0.413254
953.347	0.835579
955.012	0.00370407
956.676	0.323788
958.343	0.539915
960.006	1.51223
961.67	0.589491
963.333	1.25679
964.998	0.218618
966.661	0.302677
968.323	-0.194031
969.985	0.101585
971.649	0.284637
973.31	1.17605
974.971	0.743275
976.632	1.13235
978.293	1.32553
979.953	1.32107
981.615	1.31585
983.274	1.39645
984.933	1.47304
986.592	0.394365
988.251	0.241901
989.909	1.43588
991.567	0.969599
993.225	2.02744
994.884	1.7376
996.541	1.60275
998.198	2.12944
999.855	1.31078
1001.51	1.54934
1003.17	1.12642
1004.82	0.681347
1006.48	0.895859
1008.13	1.22004
1009.79	0.381311
1011.44	1.49632
1013.1	1.55882
1014.75	1.44682
1016.4	1.64222
1018.06	1.61964
1019.71	1.42376
1021.36	1.53627
1023.01	1.08271
1024.66	1.6585
1026.32	2.01686
1027.97	1.17348
1029.62	1.37764
1031.27	1.7757
1032.92	1.92989
1034.57	1.66574
1036.22	1.81317
1037.87	1.84955
1039.52	2.21206
1041.16	2.55361
1042.81	3.11486
1044.46	3.02758
1046.11	2.96647
1047.76	3.49604
1049.4	3.98594
1051.05	5.56489
1052.7	5.25636
1054.34	6.57836
1055.99	7.18371
1057.63	6.00595
1059.28	7.21817
1060.92	6.4502
1062.57	5.72359
1064.21	5.38602
1065.85	3.04587
1067.5	3.61648
1069.14	3.09808
1070.78	2.1659
1072.43	2.16757
1074.07	1.86641
1075.71	1.63273
1077.35	1.27189
1078.99	1.39091
1080.63	0.861061
1082.27	1.28535
1083.91	1.3175
1085.55	1.30283
1087.19	1.47878
1088.83	1.21696
1090.47	1.47091
1092.11	1.6785
1093.75	0.847916
1095.39	1.14108
1097.03	1.58629
1098.66	0.0304604
1100.3	0.46077
1101.94	0.485779
1103.57	-0.346035
1105.21	0.115772
1106.84	0.148561
1108.48	0.0302296
1110.11	0.791285
1111.75	0.366444
1113.38	0.217838
1115.02	0.603395
1116.65	-0.557495
1118.29	0.877319
1119.92	0.104918
1121.55	0.770132
1123.19	0.944647
1124.82	0.736057
1126.45	0.187223
1128.08	0.0893421
1129.71	0.356464
1131.34	-0.893192
1132.97	-0.346296
1134.6	0.136137
1136.23	0.510317
1137.86	0.0487938
1139.49	0.332642
1141.12	0.870272
1142.75	0.488604
1144.38	-0.105728
1146.01	-0.143869
1147.64	-0.00949669
1149.26	-0.171659
1150.89	0.34889
1152.52	0.933142
1154.15	-0.378416
1155.77	0.629782
1157.4	-0.171434
1159.02	-0.227037
1160.65	0.378344
1162.27	-0.630054
1163.9	0.192272
1165.52	0.569206
1167.15	-0.266258
1168.77	-0.253391
1170.39	0.924953
1172.02	0.101215
1173.64	0.33613
1175.26	0.865009
1176.89	0.247055
1178.51	0.520119
1180.13	0.773054
1181.75	0.371815
1183.37	0.458776
1184.99	0.355591
1186.61	0.884085
1188.23	0.479898
1189.85	-0.222927
1191.47	0.124367
1193.09	0.866924
1194.71	0.786745
1196.33	0.0987206
1197.94	0.189175
1199.56	0.471287
1201.18	0.465321
1202.8	0.486008
1204.41	0.136665
1206.03	0.272079
1207.65	1.20314
1209.26	0.111296
1210.88	1.08289
1212.49	0.0487766
1214.11	0.552866
1215.72	0.614136
1217.34	0.962542
1218.95	1.03774
1220.57	1.36153
1222.18	1.41651
1223.79	1.14262
1225.41	0.603346
1227.02	1.97185
1228.63	1.31516
1230.24	0.785892
1231.85	1.0244
1233.47	1.16214
1235.08	1.21995
1236.69	1.07375
1238.3	1.26058
1239.91	1.42835
1241.52	1.74147
1243.13	0.3783
1244.74	0.56488
1246.34	1.08045
1247.95	1.15927
1249.56	1.27777
1251.17	0.485271
1252.78	0.872448
1254.38	1.59202
1255.99	0.659239
1257.6	0.949509
1259.2	1.32523
1260.81	1.53758
1262.42	0.798664
1264.02	0.825777
1265.63	0.147526
1267.23	0.939064
1268.84	0.54722
1270.44	0.692162
1272.04	0.917805
1273.65	1.09972
1275.25	0.844147
1276.85	0.835325
1278.46	0.348295
1280.06	1.04056
1281.66	0.613935
1283.26	0.332685
1284.86	2.05871
1286.46	1.36679
1288.07	1.2976
1289.67	0.135212
1291.27	2.01179
1292.87	1.30517
1294.47	2.00194
1296.06	0.795568
1297.66	1.38257
1299.26	1.14005
1300.86	1.28625
1302.46	1.28526
1304.06	1.7143
1305.65	1.17462
1307.25	1.10723
1308.85	1.24451
1310.44	1.72983
1312.04	0.986603
1313.64	1.65773
1315.23	1.14459
1316.83	0.961149
1318.42	2.02378
1320.02	0.984802
1321.61	1.16775
1323.2	2.16106
1324.8	1.84737
1326.39	1.55157
1327.99	1.62008
1329.58	0.656929
1331.17	1.62077
1332.76	1.75914
1334.36	0.307245
1335.95	0.858572
1337.54	1.24924
1339.13	1.17457
1340.72	0.451891
1342.31	1.054
1343.9	1.61034
1345.49	1.76124
1347.08	0.949398
1348.67	1.1045
1350.26	1.4248
1351.85	0.510351
1353.43	1.54067
1355.02	1.6939
1356.61	0.489199
1358.2	0.722595
1359.78	0.913881
1361.37	0.603672
1362.96	1.32921
1364.54	1.53475
1366.13	0.345865
1367.71	1.41029
1369.3	1.6404
1370.88	1.3363
1372.47	1.39365
1374.05	1.75206
1375.64	2.23148
1377.22	0.542259
1378.8	1.6378
1380.39	0.880571
1381.97	2.12985
1383.55	1.36694
1385.13	0.860733
1386.72	1.60558
1388.3	1.238
1389.88	0.951611
1391.46	0.806387
1393.04	1.6748
1394.62	2.00826
1396.2	2.18258
1397.78	1.16584
1399.36	0.94017
1400.94	1.28689
1402.52	1.63191
1404.1	1.87753
1405.68	1.84724
1407.25	1.66088
1408.83	2.42508
1410.41	1.70865
1411.98	1.13086
1413.56	2.07213
1415.14	2.10292
1416.71	1.65838
1418.29	1.48931
1419.87	1.69542
1421.44	1.74623
1423.02	2.01718
1424.59	1.85892
1426.16	2.17607
1427.74	2.80954
1429.31	2.08437
1430.89	2.08542
1432.46	2.94965
1434.03	2.96521
1435.6	3.07798
1437.18	2.34572
1438.75	3.03083
1440.32	2.40132
1441.89	3.07132
1443.46	2.34767
1445.03	3.04004
1446.6	2.82882
1448.17	2.36241
1449.74	2.95819
1451.31	3.04405
1452.88	2.73793
1454.45	3.04244
1456.02	3.28805
1457.59	2.64676
1459.16	2.53381
1460.72	3.18434
1462.29	2.6891
1463.86	1.99365
1465.43	3.24213
1466.99	2.62215
1468.56	1.98404
1470.13	2.2906
1471.69	2.06992
1473.26	1.18506
1474.82	1.83196
1476.38	1.79346
1477.95	1.16714
1479.51	1.59938
1481.08	1.42373
1482.64	0.777636
1484.2	1.65979
1485.77	1.42425
1487.33	1.59841
1488.89	1.24087
1490.46	1.56429
1492.02	0.630938
1493.58	0.631828
1495.14	0.843264
1496.7	1.26594
1498.26	1.06421
1499.82	0.922575
1501.38	0.977831
1502.94	1.19092
1504.5	1.40571
1506.06	1.25303
1507.62	1.2153
1509.18	0.885498
1510.73	0.631001
1512.29	0.587069
1513.85	1.0428
1515.41	0.728807
1516.96	1.53053
1518.52	1.18158
1520.08	1.0648
1521.63	0.757437
1523.19	0.603004
1524.75	1.11538
1526.3	0.537342
1527.85	1.32973
1529.41	1.20583
1530.96	0.721466
1532.52	1.81339
1534.07	0.651039
1535.62	0.874752
1537.18	1.36469
1538.73	1.51557
1540.28	1.66709
1541.84	1.25347
1543.39	1.63093
1544.94	0.615849
1546.49	1.53697
1548.04	1.08612
1549.59	1.2734
1551.14	1.40458
1552.69	1.48059
1554.25	1.46519
1555.79	1.13557
1557.34	1.53843
1558.89	1.36711
1560.44	0.827255
1561.99	1.54111
1563.54	2.51889
1565.08	1.50188
1566.63	2.4817
1568.18	1.4269
1569.73	1.6403
1571.27	1.46087
1572.82	1.87814
1574.37	1.17506
1575.91	1.12541
1577.46	1.59897
1579	1.71883
1580.55	1.6908
1582.09	1.47784
1583.64	2.14479
1585.18	1.99168
1586.73	1.72751
1588.27	1.80018
1589.81	2.09705
1591.35	1.38235
1592.9	1.37766
1594.44	2.1028
1595.98	1.36707
1597.52	1.96251
1599.06	1.86622
1600.61	1.22754
1602.15	2.07202
1603.69	1.99729
1605.23	2.14646
1606.77	1.29664
1608.31	1.11874
1609.85	1.63112
1611.39	1.40527
1612.93	1.45681
1614.46	1.35515
1616	1.32761
1617.54	0.926218
1619.08	0.546583
1620.61	0.826078
1622.15	1.48299
1623.69	1.56129
1625.23	0.947159
1626.76	0.874369
1628.3	0.518196
1629.83	1.22519
1631.37	0.340475
1632.9	1.36107
1634.44	0.794384
1635.97	0.789825
1637.51	0.600855
1639.04	0.749056
1640.57	0.263666
1642.11	0.8393
1643.64	0.294847
1645.17	0.381132
1646.71	0.68848
1648.24	0.734541
1649.77	0.892742
1651.3	1.18277
1652.83	-0.0270939
1654.36	0.212721
1655.89	0.880116
1657.42	0.379715
1658.96	0.507839
1660.48	0.281404
1662.01	0.348154
1663.54	1.0963
1665.07	0.345882
1666.6	0.852371
1668.13	0.71497
1669.66	0.138624
1671.19	0.266207
1672.71	0.00932121
1674.24	0.563938
1675.77	0.105289
1677.29	0.786356
1678.82	-0.20948
1680.35	0.135628
1681.87	0.221464
1683.4	0.563519
1684.92	-0.287483
1686.45	0.477177
1687.97	0.600456
1689.5	0.0650387
1691.02	0.611029
1692.54	-0.0511322
1694.07	0.47621
1695.59	0.344526
1697.11	-0.171265
1698.64	-0.0662861
1700.16	0.0194054
1701.68	-0.169687
1703.2	-0.30508
1704.72	0.195923
1706.25	-0.323816
1707.77	0.629244
1709.29	0.472502
1710.81	0.334368
1712.33	0.43264
1713.85	-0.102987
1715.37	0.340029
1716.89	-0.12219
1718.41	-0.132099
1719.92	0.27323
1721.44	-0.241917
1722.96	-0.0699043
1724.48	-0.220192
1725.99	0.532974
1727.51	0.424509
1729.03	-0.131439
1730.55	-0.4338
1732.06	0.153944
1733.58	0.344849
1735.09	-0.569405
1736.61	-0.0833721
1738.13	-0.147676
1739.64	0.238661
1741.15	-0.0839767
1742.67	0.120943
1744.18	0.639372
1745.7	0.291859
1747.21	-0.177277
1748.72	0.690502
1750.24	-0.0686321
1751.75	0.0202656
1753.26	0.0380363
1754.77	0.467083
1756.29	0.238791
1757.8	0.0803452
1759.31	-0.000257492
1760.82	-0.288368
1762.33	0.19771
1763.84	-0.0617752
1765.35	0.11796
1766.86	0.292484
1768.37	0.220415
1769.88	0.0883808
1771.39	0.337637
1772.9	-0.16486
1774.4	-0.410736
1775.91	0.331854
1777.42	-0.401421
1778.93	-0.379759
1780.44	-0.306454
1781.94	-0.0916939
1783.45	0.178904
1784.96	0.1555
1786.46	0.220682
1787.97	0.187662
1789.47	0.0750732
1790.98	0.334684
1792.48	0.166578
1793.99	0.0884762
1795.49	-0.0756798
1797	0.591944
1798.5	0.445145
1800.01	0.121017
1801.51	-0.356131
1803.01	-0.196089
1804.51	0.237619
1806.02	-0.0891972
1807.52	-0.00892067
1809.02	-0.315001
1810.52	0.418434
1812.02	0.210728
1813.52	0.0623703
1815.02	-0.225819
1816.53	0.248049
1818.03	0.000314713
1819.52	-0.256704
1821.02	0.216166
1822.52	-0.169456
1824.02	-0.0669518
1825.52	0.022171
1827.02	0.178654
1828.52	0.0854073
1830.02	0.112387
1831.51	0.387289
1833.01	0.18104
1834.51	0.0813503
1836.01	-0.140089
1837.5	0.520552
1839	-0.0179939
1840.49	0.119741
1841.99	0.361357
1843.49	0.111795
1844.98	-0.120712
1846.48	0.263201
1847.97	-0.122704
1849.47	0.396776
1850.96	-0.151423
1852.45	0.351601
1853.95	-0.226355
1855.44	0.2397
1856.93	0.0305424
1858.42	0.169989
1859.92	0.428909
1861.41	0.205254
1862.9	0.238512
1864.39	-0.444866
1865.88	0.207355
1867.38	-0.167145
1868.87	0.452391
1870.36	0.0786572
1871.85	0.170393
1873.34	-0.252354
1874.83	-0.118534
1876.32	0.105396
1877.81	-0.00527954
1879.29	-0.558599
1880.78	-0.51177
1882.27	0.356579
1882.53	0.538643
1884.03	0.695322
1885.52	-0.457218
1887.01	0.217749
1888.51	0.00286865
1890	-0.19381
1891.5	0.255894
1892.99	0.0490894
1894.48	0.28204
1895.97	0.241121
1897.47	0.324287
1898.96	0.563745
1900.45	-0.22595
1901.94	0.371616
1903.43	0.529312
1904.92	0.422152
1906.41	0.41717
1907.9	0.446882
1909.39	0.0964355
1910.88	0.7379
1912.37	0.895842
1913.86	0.101454
1915.35	0.504129
1916.84	-0.134451
1918.33	0.0231228
1919.81	-0.271074
1921.3	0.560555
1922.79	-0.182882
1924.28	0.426828
1925.76	0.520231
1927.25	0.04533
1928.73	0.385927
1930.22	0.328245
1931.71	0.216413
1933.19	0.221842
1934.68	-0.418022
1936.16	-0.0583668
1937.65	0.332262
1939.13	-0.367392
1940.62	-0.426403
1942.1	0.483397
1943.58	0.774254
1945.07	0.343092
1946.55	-0.845245
1948.03	0.603283
1949.51	0.274391
1951	-0.108555
1952.48	0.349596
1953.96	0.186573
1955.44	0.453182
1956.92	-0.258282
1958.4	0.749252
1959.88	0.179623
1961.36	0.709442
1962.84	0.553808
1964.32	0.0209007
1965.8	-0.204628
1967.28	0.663622
1968.76	0.348841
1970.24	0.716579
1971.72	-0.197926
1973.2	0.202997
1974.67	0.978863
1976.15	0.867884
1977.63	-0.468761
1979.1	0.307304
1980.58	0.0957146
1982.06	0.631886
1983.54	0.0454311
1985.01	0.171837
1986.49	0.144751
1987.96	-0.153463
1989.44	-0.0100403
1990.91	0.55809
1992.39	-0.783033
1993.86	0.500204
1995.33	0.398945
1996.81	0.467913
1998.28	-0.611641
1999.75	-0.121531
2001.23	0.113457
2002.7	-0.159075
2004.17	0.0740528
2005.65	-0.180758
2007.12	0.476219
2008.59	0.428144
2010.06	0.214134
2011.53	0.775978
2013	0.344803
2014.47	0.451126
2015.94	0.269302
2017.41	0.65696
2018.88	-0.0842533
2020.35	0.971619
2021.82	-0.459375
2023.29	0.529022
2024.76	-0.226215
2026.23	0.0118732
2027.69	-0.0313759
2029.16	-0.0370579
2030.63	0.128584
2032.1	0.414417
2033.56	0.147757
2035.03	0.0824184
2036.5	0.284788
2037.96	0.721098
2039.43	0.467478
2040.89	0.482555
2042.36	-0.0225391
2043.83	0.214148
2045.29	0.100103
2046.75	-0.382441
2048.22	0.213421
2049.68	0.5394
2051.15	0.255943
2052.61	-0.0149593
2054.07	0.957268
2055.54	0.4744
2057	-0.652514
2058.46	0.140289
2059.92	0.0730305
2061.39	0.512062
2062.85	0.29656
2064.31	-0.454683
2065.77	0.513405
2067.23	0.373016
2068.69	0.133215
2070.15	0.483372
2071.61	0.497084
2073.07	0.325209
2074.53	0.152615
2075.99	-0.0040493
2077.45	0.579304
2078.91	0.201715
2080.37	-0.362242
2081.82	-0.0183563
2083.28	0.205854
2084.74	0.310209
2086.2	0.177059
2087.65	-0.630148
2089.11	0.0244465
2090.57	-0.363554
2092.02	0.172018
2093.48	0.45512
2094.94	-0.587589
2096.39	-0.00461769
2097.85	0.743374
2099.3	-0.101263
2100.76	0.509459
2102.21	1.16997
2103.66	0.379032
2105.12	0.243345
2106.57	0.178162
2108.03	-0.000982285
2109.48	0.0542889
2110.93	-0.041872
2112.38	0.325212
2113.84	0.471016
2115.29	0.0134277
2116.74	0.169422
2118.19	0.375813
2119.64	0.0376339
2121.09	0.252266
2122.54	0.637583
2123.99	0.678312
2125.45	-0.207813
2126.89	0.265089
2128.34	-0.226126
2129.79	1.11877
2131.24	-0.0417423
2132.69	0.319815
2134.14	0.515457
2135.59	0.415319
2137.04	0.203327
2138.48	0.260534
2139.93	0.305988
2141.38	0.206829
2142.83	0.209806
2144.27	0.429485
2145.72	0.33523
2147.17	0.654072
2148.61	0.656851
2150.06	0.160425
2151.5	0.208118
2152.95	-0.0780239
2154.39	0.41254
2155.84	-0.224653
2157.28	0.960634
2158.73	1.03777
2160.17	0.273401
2161.61	0.0598907
2163.06	-0.215612
2164.5	0.474459
2165.94	0.287655
2167.38	-0.0159664
2168.83	-0.00666809
2170.27	0.314339
2171.71	-0.351135
2173.15	0.0100365
2174.59	0.118336
2176.03	1.05669
2177.47	0.216105
2178.91	0.641144
2180.36	0.253918
2181.8	-0.264219
2183.23	-0.215693
2184.67	-0.0666656
2186.11	0.265587
2187.55	0.182032
2188.99	-0.41736
2190.43	0.447788
2191.87	0.396921
2193.3	0.8437
2194.74	-0.111326
2196.18	0.727217
2197.62	0.245859
2199.05	0.625414
2200.49	0.0216141
2201.93	-0.382421
2203.36	0.360455
2204.8	-0.221375
2206.23	0.244005
2207.67	0.660587
2209.1	0.794859
2210.54	0.546368
2211.97	0.212957
2213.41	0.0599632
2214.84	0.00598907
2216.27	0.151634
2217.71	0.481382
2219.14	0.896379
2220.57	0.505465
2222.01	0.345842
2223.44	-0.342632
2224.87	-0.309311
2226.3	0.262814
2227.73	0.139437
2229.16	-0.00333023
2230.6	0.377268
2232.03	0.101025
2233.46	0.431717
2234.89	0.207664
2236.32	0.444399
2237.75	0.50518
2239.18	0.276953
2240.61	-0.027626
2242.03	0.145338
2243.46	0.125656
2244.89	-0.0399609
2246.32	0.722544
2247.75	0.20882
2249.17	0.211695
2250.6	0.453382
2252.03	0.478693
2253.46	1.00594
2254.88	0.395712
2256.31	-0.14492
2257.73	0.554113
2259.16	-0.0866566
2260.59	0.480474
2262.01	-0.0335007
2263.44	0.089365
2264.86	0.359346
2266.29	0.417339
2267.71	0.749943
2269.14	-0.0750008
2270.56	0.350992
2271.98	0.108341
2273.4	0.337435
2274.83	0.159603
2276.25	0.503561
2277.67	0.326599
2279.09	0.655077
2280.52	-0.369883
2281.94	0.0233479
2283.36	-0.0729065
2284.78	-0.201748
2286.2	-0.199551
2287.62	-0.196468
2289.04	0.510054
2290.46	0.368397
2291.88	0.685036
2293.3	0.364418
2294.72	-0.152885
2296.14	0.622259
2297.56	-0.190516
2298.98	0.634382
2300.4	0.427921
2301.82	1.04183
2303.23	1.01723
2304.65	0.599028
2306.07	0.426535
2307.49	0.368
2308.9	-0.300179
2310.32	0.11499
2311.73	0.693913
2313.15	0.664297
2314.57	0.668585
2315.98	0.213646
2317.4	-0.27276
2318.81	0.494211
2320.23	0.486219
2321.64	-0.102079
2323.06	0.393898
2324.47	0.240513
2325.88	0.494032
2327.3	0.578245
2328.71	0.643969
2330.12	0.644211
2331.54	-0.390516
2332.95	0.503849
2334.36	-0.426567
2335.77	0.404238
2337.18	0.74012
2338.6	-0.307646
2340.01	0.35162
2341.42	-0.0924664
2342.83	0.578691
2344.24	0.379686
2345.65	0.771631
2347.06	-0.277542
2348.47	0.982662
2349.88	-0.246174
2351.29	0.192123
2352.7	-0.25466
2354.1	0.243444
2355.51	0.543245
2356.92	-0.281898
2358.33	-0.35717
2359.74	0.00669479
2361.14	-0.198029
2362.55	-0.14295
2363.96	0.365217
2365.36	0.257408
2366.77	0.618958
2368.18	-0.504066
2369.58	-0.186869
2370.99	0.713333
2372.39	0.149698
2373.8	0.0722046
2375.2	-0.213547
2376.61	-0.532131
2378.01	-0.209778
2379.42	0.317287
2380.82	1.28879
2382.22	-0.0543556
2383.63	0.349096
2385.03	-0.0328217
2386.43	0.0105591
2387.84	0.0560226
2389.24	-0.477646
2390.64	-0.0674343
2392.04	-0.817167
2393.44	-0.0361252
2394.84	0.825659
2396.25	-0.155668
2397.65	-0.340143
2399.05	0.00120544
2400.45	0.0576458
2401.85	-0.107538
2403.25	0.124445
2404.65	1.08583
2406.05	-0.0507622
2407.45	0.445494
2408.84	0.0988026
2410.24	-0.311752
2411.64	0.276749
2413.04	-0.131001
2414.44	0.272032
2415.83	0.266907
2417.23	-0.289072
2418.63	0.376211
2420.02	0.124063
2421.42	0.21999
2422.82	-0.0334492
2424.21	0.583792
2425.61	0.171309
2427	0.267126
2428.4	0.158972
2429.8	0.497128
2431.19	0.583374
2432.58	0.368425
2433.98	0.549061
2435.37	0.631691
2436.77	-0.210854
2438.16	0.468128
2439.55	0.714859
2440.95	0.863909
2442.34	0.567015
2443.73	0.602856
2445.12	0.0830765
2446.51	0.149969
2447.91	0.232315
2449.3	-0.239861
2450.69	-0.251923
2452.08	0.813547
2453.47	-0.0343323
2454.86	-0.13624
2456.25	-0.426292
2457.64	1.02439
2459.03	0.782103
2460.42	0.33285
2461.81	0.30867
2463.2	-0.159971
2464.59	0.618452
2465.98	-0.13637
2467.36	-0.385635
2468.75	1.14812
2470.14	1.21327
2471.53	-0.299047
2472.92	-0.0626965
2474.3	-0.332228
2475.69	0.592579
2477.08	0.0218773
2478.46	0.504164
2479.85	0.0916405
2481.23	0.197599
2482.62	0.0838814
2484	-0.484753
2485.39	-0.647799
2486.77	-0.0944843
2488.16	0.860682
2489.54	0.377905
2490.93	-0.38413
2492.31	0.551332
2493.69	0.602161
2495.08	0.485531
2496.46	-0.402826
2497.84	0.477879
2499.23	0.506706
2500.61	0.441868
2501.99	-0.443863
2503.37	0.553402
2504.75	-0.335272
2506.13	-0.222004
2507.52	0.0289497
2508.9	0.0336685
2510.28	-0.0527496
2511.66	-0.183506
2513.04	0.868105
2514.42	0.0974331
2515.8	0.0646572
2517.18	-0.195702
2518.55	-0.0264111
2519.93	0.632095
2521.31	-0.268547
2522.69	0.31085
2524.07	0.429893
2525.45	-0.336891
2526.82	0.709021
2528.2	0.202248
2529.58	-0.422844
2530.95	-0.572433
2532.33	-0.171059
2533.71	0.187761
2535.08	0.396307
2536.46	0.498375
2537.84	0.325396
2539.21	0.241312
2540.59	0.853693
2541.96	0.796974
2543.34	0.407167
2544.71	0.474678
2546.08	0.81813
2547.46	0.785336
2548.83	-0.0494804
2550.2	0.177738
2551.58	-0.187969
2552.95	0.627907
2554.32	0.652105
2555.7	0.0369263
2557.07	-0.0332336
2558.44	0.866772
2559.81	-0.0673313
2561.18	0.0156879
2562.55	0.403265
2563.93	0.610323
2565.3	0.485001
2566.67	0.572437
2568.04	-0.234077
2569.41	0.535582
2570.78	0.00181198
2572.15	0.483641
2573.51	0.359367
2574.88	-0.0224113
2576.25	0.550949
2577.62	0.654194
2578.99	0.0897236
2580.36	0.0096302
2581.73	1.18706
2583.09	0.25601
2584.46	0.29479
2585.83	0.74271
2587.19	0.432974
2588.56	0.108595
2589.93	0.830164
2591.29	0.278442
2592.66	0.649986
2594.02	0.352938
2595.39	0.780519
2596.75	0.176014
2598.12	0.583832
2599.48	0.839088
2600.85	-0.0540524
2602.21	0.368824
2603.58	0.234348
2604.94	0.0711117
2606.3	0.0743713
2607.67	-0.0286732
2609.03	0.288429
2610.39	0.481848
2611.76	0.61166
2613.12	0.212231
2614.48	0.667971
2615.84	-0.258345
2617.2	-0.132915
2618.56	-0.350784
2619.92	-0.177446
2621.28	0.565485
2622.65	0.292542
2624.01	0.214626
2625.37	0.181465
2626.72	0.908268
2628.08	0.634874
2629.44	-0.0110683
2630.8	0.295692
2632.16	0.230072
2633.52	0.134743
2634.88	-0.479965
2636.24	-0.17429
2637.59	0.0123253
2638.95	-0.186193
2640.31	0.311295
2641.67	0.320789
2643.02	0.212742
2644.38	0.164293
2645.74	0.29277
2647.09	-0.0368557
2648.45	0.413109
2649.8	0.624933
2651.16	0.423117
2652.51	0.309103
2653.87	-0.214937
2655.22	0.714813
2656.58	-0.185148
2657.93	-0.0712833
2659.29	0.0298615
2660.64	-0.438396
2661.99	0.233397
2663.35	0.245836
2664.7	0.431545
2666.05	0.688162
2667.41	0.200016
2668.76	0.207546
2670.11	0.346649
2671.46	0.0796757
2672.81	-0.0401783
2674.16	-0.202024
2675.51	0.856829
2676.87	0.146042
2678.22	0.264013
2679.57	0.731838
2680.92	0.926495
2682.27	0.660034
2683.62	0.454313
2684.97	0.743881
2686.31	0.193155
2687.66	0.106159
2689.01	0.248726
2690.36	0.721363
2691.71	1.20413
2693.06	0.290178
2694.4	0.9554
2695.75	0.0253201
2697.1	0.444746
2698.45	0.070364
2699.79	0.597675
2701.14	0.0574455
2702.49	0.0418415
2703.83	0.825598
2705.18	0.552938
2706.52	0.193119
2707.87	0.267677
2709.21	0.326885
2710.56	0.414307
2711.9	0.399475
2713.25	0.674952
2714.59	0.746931
2715.94	0.629801
2717.28	0.483191
2718.62	0.466835
2719.97	0.275032
2721.31	0.489635
2722.65	0.586731
2723.99	0.333429
2725.34	0.326574
2726.68	0.0423241
2728.02	0.965364
2729.36	0.854473
2730.7	1.25254
2732.04	0.792072
2733.39	0.433756
2734.73	0.43956
2736.07	0.00949287
2737.41	0.510588
2738.75	0.604387
2740.08	0.66853
2741.43	0.644335
2742.76	-0.0209503
2744.1	0.286249
2745.44	0.112453
2746.78	-0.192852
2748.12	0.358095
2749.46	0.27029
2750.79	0.125
2752.13	0.197876
2753.47	-0.496883
2754.81	0.214552
2756.14	-0.00109291
2757.48	0.493263
2758.81	-0.170122
2760.15	0.296556
2761.49	0.0695763
2762.82	0.71191
2764.16	0.48675
2765.49	-0.0133057
2766.83	-0.297277
2768.16	0.588417
2769.5	-0.00410461
2770.83	-0.252485
2772.16	0.680637
2773.5	0.571093
2774.83	0.229837
2776.17	-0.0964851
2777.5	-0.219936
2778.83	0.348303
2780.16	0.500153
2781.5	-0.122917
2782.83	-0.242651
2784.16	0.412111
2785.49	0.421038
2786.82	0.430395
2788.15	0.125986
2789.49	0.281509
2790.82	-0.33338
2792.15	0.640949
2793.48	-0.371143
2794.81	0.475262
2796.14	0.0345898
2797.46	0.150043
2798.79	0.24991
2800.12	-0.593184
2801.45	-0.023819
2802.78	-0.367918
2804.11	0.0858116
2805.44	0.0965805
2806.76	-0.0932446
2808.09	0.1994
2809.42	0.206465
2810.75	0.0289993
2812.07	-0.217798
2813.4	-0.518524
2814.73	0.1057
2816.05	0.293356
2817.38	0.0299206
2818.7	0.207201
2820.03	0.101046
2821.36	-0.10527
2822.68	0.452255
2824.01	0.455666
2825.33	-0.349039
2826.65	0.786814
2827.98	0.705769
2829.3	0.427841
2830.63	0.419996
2831.95	0.370178
2833.27	0.815681
2834.6	0.821678
2835.92	1.05304
2837.24	1.28314
2838.56	1.73852
2839.88	2.16493
2841.21	1.87035
2842.53	2.19884
2843.85	2.65592
2845.17	2.73306
2846.49	3.05192
2847.81	2.79221
2849.13	3.23925
2850.45	3.12028
2851.77	2.74582
2853.09	2.58229
2854.41	1.95166
2855.73	2.94563
2857.05	3.27536
2858.37	2.63056
2859.69	2.2119
2861	2.45669
2862.32	2.5031
2863.64	2.94394
2864.96	2.12824
2866.28	2.56843
2867.59	3.51665
2868.91	3.52074
2870.23	3.01823
2871.54	3.20692
2872.86	2.77493
2874.17	3.08844
2875.49	3.44192
2876.81	3.59583
2878.12	4.08567
2879.44	4.16659
2880.75	3.72807
2882.07	3.76937
2883.38	3.48982
2884.69	3.3388
2886.01	3.58216
2887.32	3.64315
2888.63	3.29635
2889.95	3.55143
2891.26	3.48219
2892.57	3.72017
2893.89	3.11716
2895.2	3.24359
2896.51	3.98742
2897.82	3.26362
2899.13	3.17178
2900.44	3.29136
2901.76	2.74042
2903.07	3.19711
2904.38	3.44425
2905.69	3.49615
2907	2.57001
2908.31	3.51978
2909.62	3.00232
2910.93	3.00352
2912.24	3.08874
2913.55	2.8787
2914.85	3.17025
2916.16	2.85689
2917.47	3.01686
2918.78	3.17509
2920.09	3.01134
2921.4	4.317
2922.7	3.61131
2924.01	3.59319
2925.32	3.24163
2926.62	3.24063
2927.93	4.09252
2929.24	4.0212
2930.54	3.16613
2931.85	3.45672
2933.15	3.67701
2934.46	3.93923
2935.76	4.28554
2937.07	3.63994
2938.37	3.03674
2939.68	3.20266
2940.98	2.74068
2942.29	2.76923
2943.59	3.14923
2944.89	2.8886
2946.2	2.88157
2947.5	2.77766
2948.8	2.56137
2950.11	2.20313
2951.41	2.27603
2952.71	2.34592
2954.01	2.51159
2955.32	2.14471
2956.62	2.42332
2957.92	1.44563
2959.22	2.1942
2960.52	2.37372
2961.82	1.6598
2963.12	1.60556
2964.42	1.88734
2965.72	1.42267
2967.02	1.82623
2968.32	1.41258
2969.62	1.27875
2970.92	1.38386
2972.22	1.55993
2973.51	1.21609
2974.81	1.29442
2976.11	0.85087
2977.41	0.517807
2978.71	0.886011
2980	0.589666
2981.3	1.1638
2982.6	1.13179
2983.9	0.397554
2985.19	0.509079
2986.49	1.21344
2987.78	0.276314
2989.08	0.647894
2990.38	1.24498
2991.67	0.632662
2992.97	0.398035
2994.26	0.0910473
2995.56	0.456537
2996.85	0.680117
2998.14	0.341875
2999.44	0.369173
3000.73	0.201254
3002.03	0.52523
3003.32	0.0371552
3004.61	0.64234
3005.91	0.518549
3007.2	0.253786
3008.49	-0.0961456
3009.78	0.489573
3011.07	0.332626
3012.37	0.258984
3013.66	-0.107397
3014.95	0.32226
3016.24	0.697083
3017.53	-0.26348
3018.82	0.364407
3020.11	-0.468339
3021.4	-0.258455
3022.69	0.380226
3023.98	0.405495
3025.27	-0.194525
3026.56	-0.655181
3027.85	0.283611
3029.14	-0.0626869
3030.43	-0.00473881
3031.71	0.0561428
3033	0.188213
3034.29	0.0311232
3035.58	-0.333661
3036.87	0.278417
3038.15	0.720963
3039.44	0.168178
3040.73	0.287192
3042.01	-0.131043
3043.3	0.342815
3044.59	-0.0176983
3045.87	-0.428666
3047.16	0.026103
3048.44	0.28012
3049.73	-0.362529
3051.01	0.594901
3052.3	0.216644
3053.58	-0.297817
3054.87	0.26453
3056.15	0.565583
3057.43	0.332775
3058.72	0.139705
3060	-0.325819
3061.29	0.20343
3062.57	0.244538
3063.85	0.0300684
3065.13	0.376184
3066.42	0.616374
3067.7	0.219703
3068.98	0.00058651
3070.26	-0.273347
3071.54	0.824941
3072.82	1.0505
3074.11	0.55314
3075.39	0.122446
3076.67	0.411477
3077.95	0.361856
3079.23	0.138157
3080.51	1.02995
3081.79	0.147902
3083.07	1.26254
3084.35	0.126636
3085.63	0.388461
3086.9	0.256055
3088.18	0.312495
3089.46	1.0328
3090.74	1.15512
3092.02	0.965246
3093.29	1.27779
3094.57	0.750214
3095.85	1.18621
3097.13	0.768391
3098.4	1.21822
3099.68	0.787016
3100.95	0.762454
3102.23	1.0497
3103.51	1.18861
3104.78	1.49108
3106.06	1.17261
3107.33	1.11331
3108.61	1.17805
3109.88	1.33985
3111.16	1.21952
3112.43	1.53425
3113.71	1.33532
3114.98	1.61085
3116.25	1.26203
3117.53	1.5626
3118.8	1.40006
3120.07	1.61537
3121.35	2.08655
3122.62	1.90594
3123.89	2.17231
3125.16	1.95163
3126.44	2.13823
3127.71	1.35202
3128.98	2.19056
3130.25	2.28591
3131.52	2.01663
3132.79	2.05834
3134.06	2.2616
3135.33	2.0724
3136.6	2.38167
3137.87	2.1236
3139.14	2.2157
3140.41	2.69792
3141.68	2.57452
3142.95	2.85534
3144.22	2.80132
3145.49	2.66837
3146.76	2.65795
3148.02	3.06447
3149.29	2.78905
