200.398	-0.0223198
202.213	-0.0102673
204.027	0.0041008
205.843	-0.441216
207.657	-0.00992775
209.47	0.444685
211.283	0.338358
213.097	0.25407
214.909	-0.608265
216.721	0.25061
218.533	-0.150806
220.344	0.853678
222.157	-0.269424
223.967	1.60883
225.777	0.272799
227.587	0.798487
229.396	0.864483
231.205	0.808853
233.016	0.53577
234.824	0.143326
236.632	1.03161
238.439	1.63505
240.247	2.26846
242.053	1.62973
243.86	3.96109
245.666	4.36418
247.474	5.223
249.279	5.06162
251.085	6.02735
252.889	5.99605
254.694	5.28488
256.498	6.33351
258.301	7.02197
260.105	6.51006
261.908	5.66656
263.71	6.7792
265.513	6.52196
267.315	4.60301
269.116	5.11743
270.918	5.91955
272.718	4.28388
274.519	3.8986
276.319	2.97927
278.119	3.40566
279.918	3.32121
281.718	2.84692
283.516	1.76779
285.315	2.58542
287.113	1.16749
288.911	1.6227
290.708	1.00081
292.505	1.62765
294.302	-0.0869236
296.098	1.00105
297.894	2.32968
299.69	1.05453
301.485	0.353182
303.278	-0.0867462
305.073	0.282581
306.867	1.41277
308.661	0.0620403
310.454	-0.690405
312.247	0.227514
314.04	0.577044
315.833	0.692558
317.623	-0.402422
319.415	1.05455
321.206	0.847057
322.997	0.331242
324.788	1.05672
326.579	1.25819
328.367	0.0737476
330.156	1.1098
331.946	0.733292
333.735	1.14231
335.523	-0.415457
337.31	0.0796127
339.098	0.881004
340.885	-0.306538
342.673	-0.0606918
344.458	0.447588
346.244	-0.548203
348.03	0.0818596
349.816	0.18755
351.6	-0.207911
353.385	-0.604319
355.17	0.500116
356.953	0.122467
358.737	0.957602
360.521	0.026783
362.304	0.380219
364.085	-0.457506
365.868	0.0349846
367.65	0.145075
369.431	-0.339787
371.212	0.856167
372.994	0.48628
374.773	1.3216
376.554	0.549856
378.332	0.912813
380.112	1.04146
381.892	0.607609
383.669	0.765364
385.448	1.98372
387.225	1.51197
389.003	1.34859
390.781	1.91571
392.557	1.59224
394.334	2.58541
396.109	2.05303
397.885	3.3998
399.66	4.06517
401.436	5.48115
403.211	4.80505
404.984	4.78465
406.759	6.21819
408.532	4.10437
410.306	4.36128
412.078	3.72636
413.851	4.59447
415.623	5.13583
417.395	5.72632
419.166	6.10756
420.938	5.78562
422.708	6.56626
424.477	5.8427
426.248	5.77389
428.017	4.41162
429.788	3.30643
431.556	2.01357
433.326	2.81037
435.093	1.82432
436.86	1.5423
438.629	2.43211
440.395	0.854383
442.163	0.891298
443.929	1.18094
445.694	0.809788
447.461	0.319201
449.226	0.903952
450.99	0.13266
452.756	0.460489
454.52	0.601673
456.285	0.649286
458.048	0.766306
459.811	0.208332
461.573	0.652525
463.337	-0.0857315
465.099	-0.260437
466.86	-0.684359
468.623	0.29212
470.384	-0.470322
472.144	-0.161753
473.906	0.261999
475.666	0.192972
477.425	0.538172
479.184	0.552841
480.944	0.495121
482.703	0.554064
484.461	0.708754
486.218	0.774769
487.975	0.449657
489.734	0.688745
491.491	0.0436401
493.247	0.824181
495.003	-0.404533
496.759	0.634815
498.516	0.45709
500.271	0.2076
502.025	0.707211
503.779	0.947142
505.533	0.973137
507.287	0.737198
509.042	1.8853
510.795	1.21828
512.547	1.912
514.299	0.531315
516.051	2.04124
517.803	1.97163
519.554	1.24124
521.305	2.74172
523.055	2.50154
524.805	1.88543
526.555	2.06744
528.307	1.85063
530.056	1.96185
531.805	1.5332
533.553	2.53088
535.301	1.62954
537.049	1.84785
538.797	1.57185
540.544	1.34001
542.291	1.73548
544.037	1.87299
545.783	1.38256
547.529	1.42744
549.275	1.10182
551.02	1.86575
552.765	1.35616
554.509	1.65679
556.253	0.526217
557.997	0.759325
559.738	0.993151
561.482	0.744398
563.224	1.34846
564.967	0.229109
566.709	0.445038
568.451	0.226355
570.192	1.06595
571.933	-0.0417671
573.674	0.299955
575.415	-0.0423279
577.153	0.28471
578.893	1.21201
580.632	1.06266
582.371	0.637732
584.11	-0.179712
585.849	0.21866
587.587	0.752243
589.323	0.0176258
591.06	0.49995
592.797	0.313677
594.534	0.86318
596.271	0.561453
598.005	-0.0394363
599.741	-0.227085
601.476	0.0433769
603.211	0.0806961
604.944	-0.368324
606.679	0.972075
608.413	-0.0564995
610.147	0.269747
611.878	-0.59609
613.611	-0.244156
615.344	1.02584
617.077	0.783247
618.807	1.04346
620.539	1.46088
622.27	-0.733303
623.999	0.685184
625.73	0.890709
627.461	0.230902
629.189	-0.149666
630.919	0.548018
632.648	0.954117
634.376	0.769732
636.105	0.744385
637.833	0.189798
639.559	0.769861
641.287	1.36468
643.013	1.47368
644.74	0.121756
646.467	1.25235
648.192	1.43104
649.918	0.504025
651.642	1.01845
653.368	0.951984
655.091	0.393602
656.816	0.0678139
658.538	2.00044
660.263	1.74575
661.987	0.98414
663.708	1.88378
665.432	2.22925
667.153	1.38064
668.875	1.53585
670.596	1.5783
672.318	2.12925
674.037	0.694996
675.759	0.616341
677.478	0.81616
679.196	0.304943
680.917	0.709923
682.635	0.305914
684.355	0.425463
686.072	-0.196823
687.791	0.0517788
689.508	0.182556
691.224	0.104153
692.942	-0.321388
694.658	-0.17289
696.376	0.525745
698.091	-0.160208
699.805	0.0486221
701.522	-0.136721
703.236	-0.301243
704.95	-0.2377
706.665	0.742338
708.379	0.32091
710.093	-0.238417
711.806	0.0951405
713.518	-0.258949
715.23	0.438236
716.943	-0.532864
718.655	0.0491753
720.366	-0.167171
722.078	0.573561
723.788	0.494068
725.498	-0.654116
727.208	0.424868
728.919	0.683786
730.628	0.283613
732.337	0.902361
734.045	0.863117
735.755	0.032814
737.463	-0.614346
739.17	0.478395
740.877	-0.00634193
742.584	0.413605
744.292	0.521105
745.998	0.834593
747.704	0.296484
749.409	-0.462997
751.114	-0.0271378
752.819	0.996729
754.526	0.179518
756.23	0.693361
757.934	0.716171
759.637	0.269583
761.34	1.58381
763.043	-0.0993881
764.746	0.856144
766.448	1.47137
768.152	1.31406
769.853	1.08328
771.554	1.57083
773.255	1.39887
774.956	1.70043
776.656	1.39275
778.356	2.06058
780.056	1.26252
781.755	1.19092
783.454	2.20608
785.153	2.3815
786.851	1.41905
788.549	2.30462
790.247	2.27603
791.944	1.74295
793.641	1.92897
795.338	1.2565
797.034	1.42131
798.73	0.734152
800.426	1.51545
802.121	1.33222
803.817	0.926041
805.511	1.21676
807.206	0.988359
808.9	1.13898
810.592	0.343887
812.286	0.0856876
813.979	0.745029
815.672	1.73838
817.364	0.6049
819.057	1.61897
820.748	1.33654
822.44	1.7918
824.129	1.35654
825.82	0.769333
827.511	1.79173
829.201	1.43987
830.891	1.31859
832.581	0.603088
834.269	0.717196
835.958	1.07949
837.646	-0.187311
839.335	1.69012
841.023	1.2867
842.709	1.01362
844.396	0.850739
846.084	0.77879
847.77	1.47146
849.455	0.985405
851.141	1.33364
852.827	0.499744
854.513	0.205202
856.196	0.448858
857.881	0.240646
859.566	1.91805
861.248	0.936163
862.932	1.36809
864.616	-0.434137
866.297	1.18666
867.98	0.0781765
869.663	0.231016
871.343	-0.857527
873.026	-0.00673866
874.707	-0.216412
876.387	-0.245554
878.068	0.582981
879.747	-0.304012
881.428	-0.5826
883.108	-0.298609
884.786	0.230972
886.465	0.68903
888.143	0.826878
889.822	0.306322
891.498	0.165567
893.177	-0.811844
894.855	0.324375
896.53	1.56814
898.208	0.201548
899.883	0.405653
901.56	-0.356424
903.234	-0.737696
904.91	-0.403521
906.584	-0.136564
908.26	-0.158607
909.933	0.556608
911.608	0.315977
913.28	0.544477
914.955	-0.27017
916.627	0.026083
918.298	-0.0108624
919.972	0.550249
921.643	0.580891
923.315	-0.137175
924.986	0.718508
926.656	0.385906
928.328	0.411272
929.997	-0.861874
931.668	0.316328
933.337	-0.269831
935.006	0.84306
936.676	0.523214
938.344	0.404243
940.012	-0.373127
941.681	0.176147
943.348	0.838095
945.014	0.153757
946.683	0.0842628
948.349	0.341009
950.015	0.482126
951.682	-0.726141
953.347	0.735058
955.012	-0.644903
956.676	0.342106
958.343	0.235405
960.006	0.313011
961.67	0.682341
963.333	-0.406759
964.998	0.466782
966.661	-0.060009
968.323	0.0912151
969.985	-0.0731831
971.649	0.600389
973.31	0.213356
974.971	0.139921
976.632	-0.724669
978.293	1.11341
979.953	0.60894
981.615	0.103203
983.274	0.722675
984.933	0.451283
986.592	0.771675
988.251	0.622087
989.909	0.358418
991.567	-0.127909
993.225	1.24112
994.884	0.599943
996.541	1.48215
998.198	2.49557
999.855	3.13249
1001.51	3.4591
1003.17	3.07967
1004.82	1.93003
1006.48	1.24308
1008.13	0.491564
1009.79	1.40977
1011.44	2.04291
1013.1	1.18629
1014.75	1.03278
1016.4	1.05571
1018.06	1.34269
1019.71	1.65362
1021.36	0.240192
1023.01	1.45377
1024.66	1.75187
1026.32	1.6147
1027.97	1.84914
1029.62	2.86815
1031.27	1.39321
1032.92	1.72649
1034.57	2.64347
1036.22	3.38053
1037.87	2.5016
1039.52	2.4073
1041.16	3.64191
1042.81	3.24859
1044.46	5.7292
1046.11	4.41339
1047.76	6.25345
1049.4	6.68741
1051.05	7.27792
1052.7	8.11057
1054.34	9.61863
1055.99	8.78008
1057.63	8.22276
1059.28	7.03298
1060.92	6.42771
1062.57	5.16733
1064.21	3.99088
1065.85	3.44175
1067.5	2.54155
1069.14	2.16022
1070.78	1.7988
1072.43	1.89307
1074.07	0.947144
1075.71	1.02444
1077.35	1.17078
1078.99	1.47274
1080.63	1.23499
1082.27	0.932285
1083.91	1.68951
1085.55	1.46608
1087.19	1.21486
1088.83	1.04417
1090.47	1.04132
1092.11	-0.845942
1093.75	1.63122
1095.39	1.08344
1097.03	0.948685
1098.66	0.107468
1100.3	1.27459
1101.94	0.725006
1103.57	0.762081
1105.21	-0.121647
1106.84	0.545223
1108.48	0.286427
1110.11	1.01357
1111.75	0.531864
1113.38	0.367874
1115.02	-0.894707
1116.65	0.524193
1118.29	0.0547676
1119.92	-0.390621
1121.55	0.109653
1123.19	-0.37191
1124.82	0.348064
1126.45	0.5783
1128.08	0.169285
1129.71	-0.34428
1131.34	-0.385632
1132.97	0.600117
1134.6	-0.381203
1136.23	-0.487827
1137.86	0.171703
1139.49	0.22913
1141.12	0.240658
1142.75	-0.731094
1144.38	0.452633
1146.01	-0.025589
1147.64	0.330662
1149.26	0.540272
1150.89	0.0697327
1152.52	0.898533
1154.15	0.640079
1155.77	-0.321796
1157.4	-0.113323
1159.02	0.159863
1160.65	1.20105
1162.27	0.28931
1163.9	0.295132
1165.52	0.196308
1167.15	-0.15831
1168.77	0.972126
1170.39	-0.0285759
1172.02	1.21738
1173.64	-0.367523
1175.26	1.10089
1176.89	1.33568
1178.51	0.151443
1180.13	0.0717888
1181.75	0.227703
1183.37	-0.269833
1184.99	-0.153843
1186.61	0.275978
1188.23	0.468025
1189.85	0.632408
1191.47	0.158688
1193.09	1.02686
1194.71	0.756145
1196.33	0.40226
1197.94	0.533718
1199.56	0.774841
1201.18	0.79306
1202.8	1.15385
1204.41	0.47916
1206.03	1.98175
1207.65	0.609352
1209.26	1.6372
1210.88	2.01573
1212.49	1.76307
1214.11	1.37835
1215.72	2.09034
1217.34	2.25417
1218.95	1.79068
1220.57	1.30684
1222.18	1.7386
1223.79	3.14746
1225.41	2.21947
1227.02	3.73957
1228.63	2.84298
1230.24	2.65439
1231.85	2.94539
1233.47	2.97171
1235.08	3.39493
1236.69	3.6363
1238.3	3.07506
1239.91	2.57798
1241.52	3.28103
1243.13	2.90759
1244.74	2.20044
1246.34	2.66933
1247.95	2.92793
1249.56	3.10115
1251.17	2.92153
1252.78	3.46661
1254.38	3.45553
1255.99	2.35184
1257.6	2.10025
1259.2	2.51458
1260.81	2.0421
1262.42	1.77802
1264.02	2.73612
1265.63	2.69898
1267.23	3.28128
1268.84	2.55458
1270.44	2.92317
1272.04	2.81139
1273.65	2.79983
1275.25	2.12167
1276.85	1.60653
1278.46	1.97978
1280.06	2.39209
1281.66	2.9272
1283.26	1.86916
1284.86	2.90237
1286.46	2.26331
1288.07	1.87605
1289.67	2.69056
1291.27	2.7008
1292.87	2.77283
1294.47	3.09037
1296.06	3.01115
1297.66	3.23624
1299.26	2.63018
1300.86	3.48364
1302.46	4.59923
1304.06	3.26041
1305.65	1.57219
1307.25	4.52721
1308.85	2.61269
1310.44	4.90339
1312.04	3.32124
1313.64	3.2583
1315.23	2.6266
1316.83	2.63217
1318.42	3.84337
1320.02	4.2166
1321.61	2.9362
1323.2	4.44097
1324.8	2.72478
1326.39	3.70798
1327.99	3.55115
1329.58	4.32787
1331.17	3.73278
1332.76	3.40926
1334.36	4.06312
1335.95	3.63228
1337.54	4.69644
1339.13	3.39894
1340.72	4.0715
1342.31	4.0714
1343.9	3.24023
1345.49	3.55133
1347.08	3.68134
1348.67	3.15578
1350.26	3.54018
1351.85	2.49288
1353.43	2.19344
1355.02	2.57832
1356.61	2.68463
1358.2	1.73077
1359.78	3.35043
1361.37	3.3283
1362.96	1.8869
1364.54	1.72183
1366.13	2.27498
1367.71	3.60683
1369.3	2.59274
1370.88	1.38518
1372.47	2.9088
1374.05	3.16267
1375.64	2.66285
1377.22	2.82011
1378.8	2.61756
1380.39	3.2473
1381.97	2.99702
1383.55	1.62874
1385.13	2.66323
1386.72	2.34412
1388.3	1.60876
1389.88	2.38478
1391.46	2.29026
1393.04	2.83339
1394.62	3.02069
1396.2	3.08838
1397.78	1.66689
1399.36	2.10565
1400.94	2.32284
1402.52	2.08245
1404.1	1.32777
1405.68	2.37497
1407.25	1.78365
1408.83	2.61833
1410.41	2.52598
1411.98	2.49288
1413.56	2.2012
1415.14	2.45912
1416.71	2.26023
1418.29	2.65141
1419.87	2.728
1421.44	2.04024
1423.02	2.441
1424.59	3.81177
1426.16	2.82516
1427.74	2.66721
1429.31	3.23672
1430.89	3.58661
1432.46	3.97169
1434.03	5.27771
1435.6	4.51622
1437.18	5.72195
1438.75	6.14348
1440.32	5.88076
1441.89	6.28993
1443.46	5.83707
1445.03	6.40772
1446.6	5.76051
1448.17	5.8804
1449.74	6.68947
1451.31	6.61572
1452.88	5.63934
1454.45	5.45086
1456.02	5.67544
1457.59	5.68142
1459.16	5.28921
1460.72	5.02848
1462.29	4.21016
1463.86	4.9597
1465.43	4.58409
1466.99	5.18964
1468.56	5.1675
1470.13	4.67765
1471.69	2.70142
1473.26	2.53447
1474.82	3.46854
1476.38	3.10983
1477.95	4.02596
1479.51	2.51099
1481.08	1.66246
1482.64	2.06809
1484.2	2.45358
1485.77	2.5243
1487.33	2.5728
1488.89	3.30188
1490.46	2.20394
1492.02	1.66681
1493.58	2.54878
1495.14	1.88113
1496.7	1.60078
1498.26	1.651
1499.82	0.73119
1501.38	2.04967
1502.94	2.76837
1504.5	2.4814
1506.06	0.647396
1507.62	1.29017
1509.18	0.942825
1510.73	2.23245
1512.29	1.60776
1513.85	0.944778
1515.41	0.264748
1516.96	1.04755
1518.52	0.680527
1520.08	0.872044
1521.63	2.0589
1523.19	1.19691
1524.75	1.72782
1526.3	1.89161
1527.85	1.51845
1529.41	0.725876
1530.96	1.66331
1532.52	0.969097
1534.07	2.09781
1535.62	1.24139
1537.18	1.35384
1538.73	1.24209
1540.28	2.0936
1541.84	1.66287
1543.39	2.1172
1544.94	1.46058
1546.49	1.61219
1548.04	1.53774
1549.59	2.25049
1551.14	1.31466
1552.69	1.57967
1554.25	1.11847
1555.79	1.65269
1557.34	2.36038
1558.89	2.12281
1560.44	1.72431
1561.99	0.995831
1563.54	2.65929
1565.08	1.78768
1566.63	1.62542
1568.18	2.26492
1569.73	2.24993
1571.27	3.0176
1572.82	2.55228
1574.37	2.25444
1575.91	2.4607
1577.46	2.77973
1579	2.80156
1580.55	2.82561
1582.09	3.1513
1583.64	2.91979
1585.18	3.19543
1586.73	2.51966
1588.27	2.94744
1589.81	2.81356
1591.35	2.79037
1592.9	3.62685
1594.44	3.32024
1595.98	3.48197
1597.52	3.49534
1599.06	3.3424
1600.61	4.14862
1602.15	3.75624
1603.69	3.57006
1605.23	4.07649
1606.77	3.73276
1608.31	3.77658
1609.85	2.70319
1611.39	3.53844
1612.93	2.86343
1614.46	3.46067
1616	3.08014
1617.54	2.85159
1619.08	2.6836
1620.61	3.64478
1622.15	2.53212
1623.69	2.24667
1625.23	2.35464
1626.76	3.30219
1628.3	2.13052
1629.83	2.88102
1631.37	2.65506
1632.9	2.01695
1634.44	2.12724
1635.97	3.07979
1637.51	4.46376
1639.04	2.49328
1640.57	3.54361
1642.11	3.78997
1643.64	3.49218
1645.17	3.84164
1646.71	3.27607
1648.24	4.14091
1649.77	3.53887
1651.3	3.85041
1652.83	3.62827
1654.36	3.81839
1655.89	3.13967
1657.42	2.79478
1658.96	3.72549
1660.48	3.76217
1662.01	3.294
1663.54	3.56173
1665.07	4.38098
1666.6	2.70859
1668.13	3.0896
1669.66	3.78886
1671.19	3.40585
1672.71	2.9351
1674.24	2.57692
1675.77	3.39647
1677.29	3.07166
1678.82	2.96399
1680.35	2.70549
1681.87	2.04029
1683.4	2.25607
1684.92	1.42582
1686.45	2.37669
1687.97	2.90652
1689.5	1.27563
1691.02	1.53322
1692.54	1.11376
1694.07	1.1518
1695.59	2.21303
1697.11	0.84203
1698.64	0.201855
1700.16	0.236206
1701.68	1.94662
1703.2	0.991737
1704.72	0.96505
1706.25	0.263542
1707.77	0.343876
1709.29	0.260311
1710.81	1.10269
1712.33	0.602459
1713.85	1.082
1715.37	0.981739
1716.89	0.103649
1718.41	-0.159004
1719.92	0.156422
1721.44	1.04927
1722.96	1.04121
1724.48	0.694492
1725.99	0.118759
1727.51	-0.577705
1729.03	-0.442394
1730.55	-0.604862
1732.06	0.870483
1733.58	-0.0244522
1735.09	-0.0829544
1736.61	0.31012
1738.13	1.05904
1739.64	1.01352
1741.15	0.0857048
1742.67	0.241379
1744.18	-0.0454826
1745.7	0.111767
1747.21	0.534981
1748.72	0.61375
1750.24	0.839836
1751.75	0.742439
1753.26	-0.0464592
1754.77	0.523563
1756.29	-0.0751648
1757.8	0.616829
1759.31	0.191341
1760.82	0.585636
1762.33	-0.0554237
1763.84	-0.0267334
1765.35	0.5602
1766.86	0.395222
1768.37	0.248955
1769.88	-0.21896
1771.39	-0.307407
1772.9	-0.325466
1774.4	-0.234638
1775.91	0.0290489
1777.42	0.226032
1778.93	0.0834351
1780.44	0.100742
1781.94	0.381401
1783.45	0.124828
1784.96	0.23122
1786.46	0.266434
1787.97	-0.244751
1789.47	-0.286674
1790.98	0.34557
1792.48	0.447109
1793.99	0.374207
1795.49	0.444916
1797	-0.0830193
1798.5	-0.418785
1800.01	0.0116348
1801.51	0.123196
1803.01	-0.207672
1804.51	-0.504429
1806.02	0.423256
1807.52	0.0439987
1809.02	0.218143
1810.52	0.490807
1812.02	0.275833
1813.52	-0.128384
1815.02	-0.289917
1816.53	-0.34692
1818.03	0.121292
1819.52	0.316929
1821.02	0.286903
1822.52	0.124722
1824.02	-0.164948
1825.52	0.525841
1827.02	-0.0624123
1828.52	0.249321
1830.02	0.383633
1831.51	-0.40897
1833.01	0.399574
1834.51	0.0864563
1836.01	-0.328674
1837.5	0.0938225
1839	0.617046
1840.49	-0.202106
1841.99	-0.148994
1843.49	-0.142422
1844.98	0.0998688
1846.48	-0.0911293
1847.97	0.169254
1849.47	0.430527
1850.96	0.306561
1852.45	0.643864
1853.95	-0.0267677
1855.44	0.376106
1856.93	0.165798
1858.42	0.283337
1859.92	0.347324
1861.41	0.311653
1862.9	-0.167503
1864.39	-0.304279
1865.88	0.69569
1867.38	0.798996
1868.87	0.171986
1870.36	0.362949
1871.85	0.302456
1873.34	0.0446205
1874.83	0.0675278
1876.32	1.07488
1877.81	0.433384
1879.29	0.185204
1880.78	-0.454033
1882.27	-0.0534096
1882.53	0.0586929
1884.03	0.451504
1885.52	0.283588
1887.01	0.844215
1888.51	-0.0249901
1890	-0.0573921
1891.5	-0.0861702
1892.99	0.325535
1894.48	-0.299358
1895.97	-0.484051
1897.47	-0.144039
1898.96	-0.639221
1900.45	0.0101013
1901.94	0.096981
1903.43	0.264446
1904.92	0.461365
1906.41	1.05486
1907.9	0.675228
1909.39	0.905739
1910.88	0.740501
1912.37	0.249123
1913.86	0.436462
1915.35	0.207935
1916.84	0.498432
1918.33	0.128254
1919.81	0.345814
1921.3	0.251175
1922.79	0.417862
1924.28	0.795471
1925.76	-0.225002
1927.25	-0.462547
1928.73	0.358383
1930.22	0.192379
1931.71	0.542992
1933.19	0.957581
1934.68	-0.0365982
1936.16	0.521133
1937.65	0.0538139
1939.13	0.363007
1940.62	0.534771
1942.1	0.226295
1943.58	0.83622
1945.07	0.0521317
1946.55	-0.0749817
1948.03	-0.340672
1949.51	0.13195
1951	-1.00065
1952.48	-0.225197
1953.96	-0.381306
1955.44	0.0639915
1956.92	-0.142422
1958.4	-0.0371552
1959.88	-0.0322418
1961.36	1.05494
1962.84	0.18803
1964.32	-0.0277481
1965.8	-0.108093
1967.28	0.408226
1968.76	0.0492592
1970.24	0.218533
1971.72	-0.125767
1973.2	0.076458
1974.67	0.739273
1976.15	0.737137
1977.63	0.360966
1979.1	0.564434
1980.58	-0.048912
1982.06	0.0178986
1983.54	0.830963
1985.01	0.198925
1986.49	-0.178627
1987.96	-0.233639
1989.44	-0.0164261
1990.91	0.101398
1992.39	0.949776
1993.86	0.195053
1995.33	0.305817
1996.81	0.316765
1998.28	0.41206
1999.75	0.387573
2001.23	-0.330929
2002.7	-0.274632
2004.17	-0.218842
2005.65	-0.465168
2007.12	0.58836
2008.59	0.802738
2010.06	0.279491
2011.53	1.0377
2013	0.651417
2014.47	0.650791
2015.94	0.512779
2017.41	0.152946
2018.88	0.227516
2020.35	0.636131
2021.82	0.959873
2023.29	0.36137
2024.76	0.571659
2026.23	0.433933
2027.69	-0.151314
2029.16	0.0739517
2030.63	-0.132076
2032.1	0.470814
2033.56	-0.535732
2035.03	0.58979
2036.5	0.639565
2037.96	0.0321503
2039.43	0.599552
2040.89	0.528225
2042.36	-0.331985
2043.83	-0.163982
2045.29	0.781483
2046.75	0.653118
2048.22	0.138344
2049.68	0.397186
2051.15	0.197388
2052.61	0.801449
2054.07	0.201618
2055.54	0.253258
2057	0.148254
2058.46	0.293255
2059.92	-0.0508537
2061.39	0.600227
2062.85	0.664749
2064.31	1.01906
2065.77	0.602882
2067.23	0.341286
2068.69	0.384766
2070.15	0.850262
2071.61	-0.11488
2073.07	0.148399
2074.53	0.6129
2075.99	0.183769
2077.45	-0.263493
2078.91	0.214066
2080.37	1.11095
2081.82	0.372524
2083.28	1.07961
2084.74	0.403793
2086.2	0.398666
2087.65	0.660404
2089.11	0.584316
2090.57	0.0372849
2092.02	0.111748
2093.48	0.269737
2094.94	-0.361515
2096.39	0.0286331
2097.85	1.0859
2099.3	0.315216
2100.76	1.21688
2102.21	0.647537
2103.66	0.482777
2105.12	0.356224
2106.57	0.635143
2108.03	0.0337105
2109.48	0.184162
2110.93	-0.000724792
2112.38	0.0765495
2113.84	0.164486
2115.29	0.845718
2116.74	0.259201
2118.19	0.605
2119.64	0.739269
2121.09	0.930016
2122.54	0.198811
2123.99	0.418232
2125.45	0.125885
2126.89	0.147732
2128.34	0.0169487
2129.79	0.560894
2131.24	0.304905
2132.69	1.08926
2134.14	0.846989
2135.59	1.16997
2137.04	0.886349
2138.48	-0.200394
2139.93	-0.784784
2141.38	0.107365
2142.83	0.921406
2144.27	0.381824
2145.72	0.338779
2147.17	0.841099
2148.61	-0.198692
2150.06	0.0667915
2151.5	0.196503
2152.95	0.919407
2154.39	0.297451
2155.84	0.535526
2157.28	0.624771
2158.73	0.153267
2160.17	-0.0653038
2161.61	0.484169
2163.06	0.42688
2164.5	-0.00690079
2165.94	0.275467
2167.38	0.50811
2168.83	0.2887
2170.27	0.828197
2171.71	-0.0364914
2173.15	0.489635
2174.59	0.0130997
2176.03	0.0337257
2177.47	0.986156
2178.91	0.860291
2180.36	0.787666
2181.8	0.285732
2183.23	0.667027
2184.67	0.483917
2186.11	0.53392
2187.55	-0.214642
2188.99	0.484573
2190.43	0.734592
2191.87	0.584259
2193.3	0.23159
2194.74	1.10656
2196.18	0.959713
2197.62	-0.00904465
2199.05	0.131557
2200.49	0.351612
2201.93	0.753471
2203.36	0.178173
2204.8	0.253986
2206.23	0.117767
2207.67	0.927769
2209.1	0.14679
2210.54	0.654919
2211.97	1.30794
2213.41	-0.604504
2214.84	0.029026
2216.27	0.729759
2217.71	0.460251
2219.14	-0.398415
2220.57	0.52689
2222.01	1.0236
2223.44	0.578463
2224.87	0.458323
2226.3	-0.0130787
2227.73	0.283367
2229.16	0.656967
2230.6	0.0920296
2232.03	0.0683937
2233.46	-0.37978
2234.89	0.53274
2236.32	0.500057
2237.75	0.538254
2239.18	1.25195
2240.61	0.210539
2242.03	0.871975
2243.46	0.869015
2244.89	0.622646
2246.32	0.847042
2247.75	0.234156
2249.17	-0.22271
2250.6	0.975069
2252.03	0.21167
2253.46	0.568813
2254.88	0.552677
2256.31	-0.107744
2257.73	0.506351
2259.16	1.06506
2260.59	0.400917
2262.01	-0.0603504
2263.44	0.490362
2264.86	0.977755
2266.29	-0.259151
2267.71	1.23304
2269.14	0.347204
2270.56	0.89057
2271.98	-0.293518
2273.4	0.78508
2274.83	0.00743484
2276.25	0.435858
2277.67	0.0828247
2279.09	0.561281
2280.52	0.664766
2281.94	1.01251
2283.36	0.332304
2284.78	0.320997
2286.2	0.3431
2287.62	0.595089
2289.04	0.0648003
2290.46	-0.660603
2291.88	0.314459
2293.3	0.767456
2294.72	0.271816
2296.14	0.986746
2297.56	0.244677
2298.98	0.124697
2300.4	0.480604
2301.82	0.181896
2303.23	0.540127
2304.65	0.423258
2306.07	-0.0224571
2307.49	0.828281
2308.9	0.609396
2310.32	0.0265465
2311.73	0.0176601
2313.15	-0.221691
2314.57	-0.459824
2315.98	0.292347
2317.4	0.0264511
2318.81	-0.238201
2320.23	0.271259
2321.64	0.232904
2323.06	1.40935
2324.47	0.250776
2325.88	0.932646
2327.3	0.882557
2328.71	-0.175426
2330.12	1.15677
2331.54	0.33404
2332.95	0.486853
2334.36	0.297014
2335.77	0.305544
2337.18	0.657892
2338.6	0.118879
2340.01	-0.193537
2341.42	0.213753
2342.83	-0.300209
2344.24	-0.00998688
2345.65	0.24803
2347.06	0.146393
2348.47	0.781605
2349.88	-0.0739212
2351.29	-0.57126
2352.7	1.05209
2354.1	-0.186193
2355.51	0.613121
2356.92	0.351252
2358.33	-0.219156
2359.74	-0.0892715
2361.14	0.495125
2362.55	0.0730629
2363.96	-0.186506
2365.36	0.330889
2366.77	0.459974
2368.18	0.0419712
2369.58	0.386456
2370.99	0.170803
2372.39	0.00833893
2373.8	0.187651
2375.2	0.319838
2376.61	0.000160217
2378.01	0.690165
2379.42	0.924004
2380.82	0.348997
2382.22	0.523916
2383.63	0.9356
2385.03	0.0178146
2386.43	-0.129467
2387.84	-0.273355
2389.24	0.320492
2390.64	0.200771
2392.04	0.21262
2393.44	-0.0107651
2394.84	-0.262877
2396.25	0.123535
2397.65	0.702559
2399.05	-0.353289
2400.45	-0.294985
2401.85	0.383833
2403.25	-0.128498
2404.65	0.580729
2406.05	0.365969
2407.45	-0.296082
2408.84	0.483019
2410.24	-0.467556
2411.64	0.611509
2413.04	-0.0337772
2414.44	-0.0568562
2415.83	-0.138294
2417.23	1.0038
2418.63	-0.162476
2420.02	-0.187639
2421.42	-0.118179
2422.82	-0.350874
2424.21	0.873123
2425.61	0.718988
2427	0.804348
2428.4	-0.153631
2429.8	0.381786
2431.19	0.856531
2432.58	0.554358
2433.98	0.186642
2435.37	0.60914
2436.77	0.311766
2438.16	0.00920868
2439.55	0.798409
2440.95	1.1712
2442.34	0.303661
2443.73	0.387897
2445.12	-0.115402
2446.51	0.348326
2447.91	0.367474
2449.3	0.386555
2450.69	0.248072
2452.08	-0.0309448
2453.47	0.230822
2454.86	-0.406401
2456.25	-0.455851
2457.64	-0.25116
2459.03	-0.410788
2460.42	0.0603085
2461.81	-0.467554
2463.2	0.0296288
2464.59	0.334908
2465.98	-0.245455
2467.36	-0.0837059
2468.75	-0.99519
2470.14	0.553747
2471.53	-0.516962
2472.92	0.159876
2474.3	-0.237186
2475.69	-0.0538063
2477.08	0.0180359
2478.46	0.278048
2479.85	0.318521
2481.23	0.81422
2482.62	0.102539
2484	0.173157
2485.39	0.647337
2486.77	0.38245
2488.16	-0.5721
2489.54	-0.731913
2490.93	0.135422
2492.31	0.940142
2493.69	0.240524
2495.08	0.0587654
2496.46	0.455019
2497.84	0.187551
2499.23	0.478582
2500.61	0.365927
2501.99	0.0962849
2503.37	0.348833
2504.75	0.752136
2506.13	0.27424
2507.52	0.0582256
2508.9	0.227461
2510.28	0.0445557
2511.66	0.861393
2513.04	0.269163
2514.42	0.906124
2515.8	-0.842569
2517.18	0.0292053
2518.55	-0.137815
2519.93	0.780853
2521.31	0.582758
2522.69	0.260574
2524.07	0.637638
2525.45	0.645962
2526.82	0.455427
2528.2	0.723026
2529.58	0.233671
2530.95	1.40677
2532.33	-0.0590134
2533.71	0.197037
2535.08	0.440243
2536.46	0.288267
2537.84	-0.108932
2539.21	0.265421
2540.59	-0.653702
2541.96	0.399662
2543.34	0.300137
2544.71	0.643391
2546.08	0.581123
2547.46	0.826332
2548.83	1.12
2550.2	0.275898
2551.58	0.128071
2552.95	1.00921
2554.32	1.53772
2555.7	0.803736
2557.07	0.174406
2558.44	0.788364
2559.81	0.129515
2561.18	-0.299959
2562.55	0.424517
2563.93	0.756813
2565.3	0.408587
2566.67	1.39478
2568.04	0.54756
2569.41	0.897631
2570.78	0.671745
2572.15	0.56724
2573.51	0.76615
2574.88	0.919933
2576.25	0.634157
2577.62	0.8636
2578.99	-0.0752506
2580.36	0.501026
2581.73	0.530058
2583.09	0.466894
2584.46	0.387779
2585.83	0.808733
2587.19	0.199324
2588.56	0.86371
2589.93	-0.138653
2591.29	0.480137
2592.66	1.08212
2594.02	-0.166925
2595.39	0.868053
2596.75	0.581898
2598.12	0.414433
2599.48	0.351749
2600.85	0.274378
2602.21	0.304436
2603.58	1.24238
2604.94	0.461229
2606.3	0.299742
2607.67	0.755531
2609.03	0.499775
2610.39	-0.19647
2611.76	0.157515
2613.12	0.416912
2614.48	0.65826
2615.84	0.418072
2617.2	0.493935
2618.56	0.841225
2619.92	0.606899
2621.28	0.629566
2622.65	0.250502
2624.01	0.3356
2625.37	-0.0571022
2626.72	0.549011
2628.08	0.482622
2629.44	0.430225
2630.8	0.302835
2632.16	0.695599
2633.52	0.18149
2634.88	0.721884
2636.24	0.238041
2637.59	0.199474
2638.95	0.472071
2640.31	0.522818
2641.67	0.308241
2643.02	0.567616
2644.38	0.620506
2645.74	0.702566
2647.09	0.591549
2648.45	1.64204
2649.8	0.451149
2651.16	0.421686
2652.51	0.464699
2653.87	-0.00512886
2655.22	-0.0172825
2656.58	0.501345
2657.93	0.569265
2659.29	1.42997
2660.64	1.25304
2661.99	0.359709
2663.35	-0.111025
2664.7	0.306599
2666.05	0.4149
2667.41	0.798372
2668.76	0.248987
2670.11	0.836254
2671.46	0.900955
2672.81	0.618935
2674.16	0.484505
2675.51	0.584314
2676.87	0.35219
2678.22	0.557463
2679.57	0.214325
2680.92	0.556067
2682.27	0.655161
2683.62	0.555119
2684.97	0.806219
2686.31	0.797821
2687.66	0.658234
2689.01	0.572817
2690.36	0.0899773
2691.71	0.719021
2693.06	1.15411
2694.4	1.03459
2695.75	0.798641
2697.1	1.1009
2698.45	0.321077
2699.79	0.198517
2701.14	0.892412
2702.49	1.04099
2703.83	0.801857
2705.18	1.28907
2706.52	0.834105
2707.87	0.20369
2709.21	0.486032
2710.56	0.447865
2711.9	0.641205
2713.25	0.485466
2714.59	1.08525
2715.94	0.609213
2717.28	0.946911
2718.62	0.963875
2719.97	0.514021
2721.31	0.761112
2722.65	0.817453
2723.99	0.304609
2725.34	1.6389
2726.68	1.42904
2728.02	1.50923
2729.36	0.759119
2730.7	1.02724
2732.04	0.829617
2733.39	0.87962
2734.73	1.25016
2736.07	1.18496
2737.41	0.843849
2738.75	0.968088
2740.08	0.262598
2741.43	0.646259
2742.76	0.606152
2744.1	0.869017
2745.44	0.679346
2746.78	-0.00528526
2748.12	1.19704
2749.46	0.512314
2750.79	-0.113218
2752.13	1.10373
2753.47	0.668386
2754.81	-0.533983
2756.14	-0.113026
2757.48	0.177864
2758.81	0.266739
2760.15	0.559414
2761.49	0.737757
2762.82	-0.21106
2764.16	0.288116
2765.49	0.353146
2766.83	0.431194
2768.16	0.520756
2769.5	0.403761
2770.83	-0.136816
2772.16	0.301043
2773.5	0.157808
2774.83	0.690668
2776.17	0.574286
2777.5	0.214619
2778.83	0.676945
2780.16	0.249292
2781.5	-0.291641
2782.83	0.431316
2784.16	-0.051548
2785.49	0.684378
2786.82	-0.556604
2788.15	0.223799
2789.49	-0.43923
2790.82	0.00232697
2792.15	0.303036
2793.48	0.747993
2794.81	0.192451
2796.14	-0.00666809
2797.46	-0.0216885
2798.79	0.0757904
2800.12	0.471556
2801.45	0.0815392
2802.78	0.603807
2804.11	0.212673
2805.44	0.390291
2806.76	1.12087
2808.09	0.397684
2809.42	-0.0272865
2810.75	0.656158
2812.07	0.247824
2813.4	0.226498
2814.73	0.946964
2816.05	0.296694
2817.38	0.0469704
2818.7	0.0400314
2820.03	-0.136963
2821.36	-0.173586
2822.68	-0.198067
2824.01	0.129757
2825.33	-0.152702
2826.65	0.00410271
2827.98	1.06857
2829.3	1.24264
2830.63	1.20585
2831.95	0.41951
2833.27	1.30333
2834.6	0.742348
2835.92	0.830965
2837.24	1.59706
2838.56	1.71074
2839.88	2.44596
2841.21	2.13492
2842.53	3.28127
2843.85	2.81817
2845.17	3.78485
2846.49	3.3544
2847.81	3.63174
2849.13	4.34734
2850.45	3.22458
2851.77	3.85292
2853.09	4.28173
2854.41	3.76248
2855.73	4.30245
2857.05	4.96936
2858.37	5.15603
2859.69	5.22963
2861	5.13324
2862.32	5.98173
2863.64	6.63109
2864.96	6.53144
2866.28	6.96783
2867.59	7.24971
2868.91	7.03942
2870.23	8.62098
2871.54	9.31457
2872.86	7.52662
2874.17	8.59732
2875.49	8.73434
2876.81	8.76917
2878.12	8.6184
2879.44	9.31069
2880.75	9.4973
2882.07	8.70297
2883.38	8.89582
2884.69	8.22118
2886.01	8.44719
2887.32	8.8839
2888.63	8.78581
2889.95	8.9799
2891.26	8.54021
2892.57	8.50543
2893.89	8.72237
2895.2	8.75828
2896.51	9.88852
2897.82	9.65012
2899.13	9.40116
2900.44	10.176
2901.76	9.59543
2903.07	10.6382
2904.38	9.34541
2905.69	10.6273
2907	11.1836
2908.31	11.5887
2909.62	10.9054
2910.93	12.1688
2912.24	12.789
2913.55	12.7069
2914.85	12.8163
2916.16	12.9763
2917.47	13.1313
2918.78	13.7168
2920.09	13.1825
2921.4	14.5663
2922.7	14.0383
2924.01	15.4579
2925.32	14.5329
2926.62	15.441
2927.93	14.8816
2929.24	15.2856
2930.54	15.4641
2931.85	15.9627
2933.15	15.7476
2934.46	16.0497
2935.76	16.3521
2937.07	15.565
2938.37	14.7507
2939.68	15.5444
2940.98	15.166
2942.29	14.6786
2943.59	13.9154
2944.89	13.4358
2946.2	13.8267
2947.5	12.8067
2948.8	12.0092
2950.11	11.9638
2951.41	10.9048
2952.71	11.3104
2954.01	10.9417
2955.32	10.432
2956.62	10.4291
2957.92	10.1104
2959.22	9.68767
2960.52	9.51106
2961.82	9.71886
2963.12	9.17176
2964.42	8.98728
2965.72	9.48681
2967.02	9.33543
2968.32	8.01318
2969.62	8.34735
2970.92	7.5421
2972.22	7.70815
2973.51	8.15684
2974.81	7.90199
2976.11	7.43402
2977.41	7.08893
2978.71	7.8089
2980	6.07413
2981.3	6.5036
2982.6	6.08724
2983.9	6.37527
2985.19	5.65454
2986.49	4.68579
2987.78	4.9581
2989.08	4.88216
2990.38	4.90549
2991.67	4.46369
2992.97	3.85026
2994.26	3.65491
2995.56	3.16151
2996.85	3.84577
2998.14	3.13961
2999.44	3.31858
3000.73	1.99883
3002.03	2.30775
3003.32	2.39359
3004.61	1.75139
3005.91	2.1032
3007.2	1.92113
3008.49	1.56902
3009.78	0.711477
3011.07	1.58563
3012.37	2.06643
3013.66	0.523804
3014.95	0.267317
3016.24	0.807354
3017.53	0.708597
3018.82	0.875956
3020.11	0.362068
3021.4	0.931721
3022.69	0.220545
3023.98	0.298809
3025.27	0.139225
3026.56	-0.117476
3027.85	-0.787279
3029.14	0.0681438
3030.43	0.208305
3031.71	0.60129
3033	-0.535154
3034.29	-0.220716
3035.58	0.161156
3036.87	-0.0124187
3038.15	-0.231951
3039.44	0.0391998
3040.73	0.236719
3042.01	0.390095
3043.3	-0.854902
3044.59	-0.273485
3045.87	0.338717
3047.16	-0.245913
3048.44	0.33757
3049.73	0.435526
3051.01	0.538244
3052.3	0.0430851
3053.58	-0.219791
3054.87	0.225212
3056.15	0.612665
3057.43	0.996891
3058.72	0.193336
3060	0.465797
3061.29	1.58288
3062.57	0.634544
3063.85	0.27578
3065.13	1.26766
3066.42	0.700333
3067.7	0.543962
3068.98	0.00808525
3070.26	0.273968
3071.54	0.687307
3072.82	0.0774441
3074.11	0.742491
3075.39	0.208824
3076.67	0.136736
3077.95	0.0254078
3079.23	0.0395603
3080.51	-0.17247
3081.79	0.447645
3083.07	0.0676537
3084.35	0.16465
3085.63	0.764256
3086.9	0.0192585
3088.18	0.31761
3089.46	0.682095
3090.74	0.000593185
3092.02	-0.110971
3093.29	0.836178
3094.57	0.522905
3095.85	0.102348
3097.13	0.482288
3098.4	0.0761185
3099.68	0.591452
3100.95	0.347986
3102.23	0.660366
3103.51	0.215504
3104.78	0.327549
3106.06	1.14565
3107.33	0.653852
3108.61	0.368267
3109.88	0.559628
3111.16	0.388538
3112.43	1.33047
3113.71	0.973761
3114.98	0.969477
3116.25	1.0591
3117.53	0.59058
3118.8	0.770279
3120.07	1.27279
3121.35	1.10849
3122.62	1.60705
3123.89	0.818151
3125.16	1.73684
3126.44	1.00516
3127.71	1.69662
3128.98	1.5915
3130.25	1.65009
3131.52	1.38484
3132.79	1.6198
3134.06	2.50225
3135.33	1.84382
3136.6	2.00783
3137.87	2.02237
3139.14	2.49426
3140.41	2.68269
3141.68	2.48136
3142.95	2.32204
3144.22	2.93003
3145.49	2.38552
3146.76	2.64859
3148.02	2.63232
3149.29	2.55115
