200.43	-0.353493
202.246	-0.342759
204.061	-0.331382
205.875	0.79974
207.688	0.423007
209.501	0.167794
211.316	-0.28229
213.129	1.06331
214.941	-0.164879
216.753	-0.13134
218.566	0.0960751
220.377	0.493246
222.188	-0.100845
223.999	0.467113
225.809	-0.100621
227.618	0.00870609
229.43	-0.220301
231.239	-0.473616
233.047	0.527573
234.855	0.105609
236.663	0.239608
238.471	1.41194
240.278	1.96018
242.087	0.968019
243.894	0.651985
245.7	0.287482
247.506	0.0179844
249.311	0.373907
251.116	0.7995
252.921	0.739638
254.725	0.774729
256.529	0.61657
258.333	0.266627
260.136	0.159455
261.939	0.367331
263.744	0.625046
265.546	0.667074
267.348	-0.0616484
269.15	0.631368
270.951	0.0702887
272.752	0.159133
274.552	0.367342
276.353	0.477663
278.152	0.730877
279.952	0.0668077
281.751	-0.165004
283.55	0.660099
285.348	0.305166
287.146	-0.0257244
288.942	-0.0442028
290.739	0.201582
292.536	-0.0783844
294.333	0.265433
296.129	-0.154772
297.925	0.478004
299.721	0.0357637
301.516	0.50134
303.311	-0.0846415
305.106	0.426608
306.9	0.125578
308.694	0.182284
310.486	-0.237044
312.279	0.369216
314.072	-0.285321
315.864	-0.485624
317.656	-0.0413551
319.448	0.285455
321.24	0.279992
323.029	0.394529
324.819	0.151774
326.61	0.434177
328.4	0.764569
330.19	0.616675
331.977	-0.0825586
333.766	0.0296707
335.555	-0.170981
337.343	-0.206118
339.131	0.618192
340.917	0.340487
342.704	0.540366
344.491	0.931206
346.277	0.175789
348.062	0.0901184
349.848	0.100505
351.633	-0.0561094
353.416	0.431166
355.201	0.559435
356.986	0.161851
358.77	0.00178814
360.552	-0.159084
362.335	0.512362
364.118	0.254775
365.899	-0.0505314
367.682	0.759593
369.464	0.452925
371.243	0.833009
373.025	-0.326262
374.806	0.0765333
376.585	0.407667
378.365	0.903651
380.143	0.103888
381.923	0.436463
383.702	0.699205
385.479	0.798338
387.258	0.499145
389.034	-0.033658
390.812	0.327205
392.59	1.2289
394.365	0.863025
396.142	1.01423
397.916	0.766309
399.693	1.10543
401.467	1.25628
403.242	0.60796
405.015	0.898449
406.79	0.648089
408.565	0.655518
410.337	0.967785
412.111	1.25653
413.882	0.0673189
415.656	1.08459
417.426	0.905963
419.197	1.03305
420.969	0.996182
422.739	0.11402
424.51	0.663115
426.279	0.248876
428.05	0.326895
429.819	0.26362
431.589	-0.0108852
433.356	0.0434952
435.124	0.215537
436.893	-0.175681
438.66	-0.473598
440.428	0.212887
442.194	0.0762358
443.96	0.289438
445.727	-0.155238
447.492	-0.0151358
449.259	-0.0393906
451.023	0.427114
452.787	0.0760965
454.553	0.239028
456.316	0.308475
458.079	0.0283613
459.844	-0.36761
461.606	0.167732
463.368	0.0995092
465.132	0.289066
466.893	0.550899
468.654	-0.044632
470.415	0.0586872
472.177	0.302331
473.937	0.149796
475.696	0.298341
477.456	0.188753
479.217	0.520074
480.975	1.01345
482.733	1.06434
484.491	0.161449
486.251	0.611232
488.008	0.270883
489.765	0.678375
491.522	0.130408
493.278	0.376493
495.036	0.389376
496.791	1.5258
498.546	0.57878
500.301	0.473855
502.056	0.462037
503.81	0.28497
505.566	0.694221
507.319	0.35015
509.073	0.474868
510.825	0.00994682
512.578	0.343567
514.33	0.934649
516.082	0.842031
517.833	1.21865
519.587	0.677211
521.337	0.370499
523.088	-0.0067997
524.838	0.508009
526.588	0.576529
528.337	0.50432
530.087	0.619564
531.835	0.406414
533.584	0.00553322
535.332	0.914017
537.08	0.651226
538.827	0.597734
540.574	1.2895
542.321	0.697777
544.068	0.572385
545.814	0.26137
547.56	-0.164791
549.305	0.0129747
551.05	0.398932
552.795	0.414109
554.54	0.26768
556.284	0.491118
558.027	0.506917
559.771	0.131474
561.514	-0.242821
563.257	0.235039
564.999	-0.183724
566.742	-0.00414753
568.481	-0.0995913
570.223	1.15989
571.964	0.446835
573.705	0.309034
575.445	0.425172
577.185	-0.420898
578.925	0.50118
580.665	-0.320727
582.402	0.901765
584.141	-0.128048
585.879	0.588277
587.617	-0.467429
589.355	0.339021
591.092	0.339475
592.828	0.0633411
594.564	0.0631466
596.301	-0.0980787
598.037	0.26982
599.773	0.0852385
601.506	0.176
603.242	0.541587
604.976	-0.0829315
606.711	0.0502262
608.443	0.0447273
610.177	-0.649435
611.91	-0.103804
613.644	0.120953
615.374	0.300275
617.107	-0.00150681
618.839	0.475158
620.569	0.401055
622.3	0.669043
624.032	0.0671768
625.761	0.631157
627.491	0.419114
629.221	-0.521262
630.949	0.639996
632.679	0.479522
634.408	0.160221
636.135	0.502539
637.863	0.63793
639.592	0.793633
641.318	0.444653
643.045	0.412967
644.77	0.698935
646.497	0.848113
648.224	0.521406
649.948	0.811374
651.674	0.423113
653.398	0.674646
655.123	0.65656
656.846	0.503928
658.57	0.80775
660.293	0.564209
662.017	0.889734
663.738	0.596574
665.462	1.35255
667.185	0.392041
668.905	0.64261
670.628	0.504948
672.348	0.208704
674.067	0.326442
675.789	1.08802
677.508	0.819758
679.228	0.459234
680.947	0.924731
682.667	0.561121
684.385	0.655483
686.104	0.817172
687.821	0.747144
689.538	0.722147
691.256	0.650381
692.972	0.808376
694.69	0.643198
696.406	0.868637
698.121	0.632442
699.837	0.763433
701.552	1.33019
703.268	1.18284
704.982	0.874232
706.695	0.359018
708.41	0.807339
710.123	0.750489
711.836	-0.130771
713.55	1.04778
715.262	0.624368
716.973	0.338637
718.685	0.760632
720.398	1.15921
722.108	0.851315
723.818	1.29481
725.53	1.39642
727.24	1.40671
728.949	0.781189
730.658	1.08591
732.369	1.11786
734.077	0.787561
735.785	0.932595
737.493	1.16796
739.2	0.839495
740.909	0.647668
742.616	1.02033
744.322	0.830894
746.028	0.710397
747.734	1.91851
749.441	0.968027
751.146	1.21097
752.851	1.4776
754.555	1.09313
756.26	1.56499
757.963	1.34068
759.667	1.2977
761.372	0.962593
763.075	1.10129
764.777	2.18831
766.479	1.37778
768.181	1.53668
769.883	0.992706
771.584	1.66784
773.285	1.4145
774.986	2.06516
776.686	1.3144
778.386	2.37368
780.085	2.66582
781.785	1.48871
783.484	1.94044
785.182	1.418
786.881	1.97988
788.579	1.31652
790.276	1.60071
791.974	1.70116
793.671	1.68698
795.367	2.23646
797.064	0.982722
798.76	2.05211
800.456	1.70381
802.151	1.40217
803.846	1.82106
805.541	2.17204
807.236	1.78041
808.93	1.92704
810.624	1.33177
812.317	2.14921
814.01	1.55322
815.703	1.60718
817.394	1.66099
819.086	1.93822
820.778	1.27725
822.47	1.33166
824.161	1.58735
825.852	1.93309
827.543	2.12455
829.231	2.29624
830.921	1.89179
832.611	2.11366
834.3	2.00339
835.989	1.71555
837.676	1.47182
839.364	1.82965
841.053	1.47151
842.74	1.8492
844.426	1.73493
846.113	1.50942
847.8	2.1574
849.486	0.973715
851.171	1.22359
852.857	1.56529
854.542	2.06564
856.227	1.35396
857.911	1.33682
859.595	1.34064
861.279	1.68055
862.961	1.79401
864.645	1.68097
866.329	1.65711
868.01	1.49732
869.692	1.06637
871.375	1.13122
873.055	1.17332
874.737	1.62149
876.418	1.52817
878.097	1.47996
879.778	1.22846
881.457	1.29262
883.137	1.53672
884.817	1.1477
886.495	1.16376
888.174	1.38143
889.851	1.86805
891.53	1.20327
893.206	1.28134
894.884	1.51566
896.562	1.20901
898.237	1.23889
899.914	0.841607
901.589	1.60956
903.265	0.76393
904.94	1.57403
906.615	0.998379
908.289	0.892859
909.964	1.14463
911.637	1.46341
913.31	1.38215
914.984	1.0349
916.656	1.6644
918.33	1.47262
920.001	0.882746
921.674	1.7102
923.345	1.07844
925.015	1.02338
926.687	1.32328
928.357	1.22722
930.028	1.19853
931.698	0.971931
933.366	1.14272
935.037	0.475417
936.705	1.08782
938.373	1.39214
940.043	0.793285
941.71	0.768911
943.379	1.03203
945.046	1.00822
946.712	0.850941
948.378	0.868587
950.046	1.01691
951.711	0.612453
953.376	0.671412
955.043	0.886014
956.708	1.14714
958.372	1.69811
960.036	0.972121
961.701	1.13015
963.364	1.31042
965.027	1.26818
966.69	0.471173
968.354	0.777686
970.016	0.661922
971.678	0.655969
973.339	1.04844
975	1.15465
976.661	0.753869
978.324	1.32765
979.984	1.00617
981.644	0.684163
983.303	0.526855
984.962	0.345676
986.621	0.229129
988.282	0.310196
989.94	1.23037
991.598	0.955499
993.256	0.327365
994.913	0.892035
996.57	0.48543
998.227	0.917116
999.884	1.39214
1001.54	1.40373
1003.2	1.48088
1004.85	1.2717
1006.51	1.08465
1008.16	0.832088
1009.82	0.448488
1011.47	0.153491
1013.12	0.801647
1014.78	1.18652
1016.43	0.848913
1018.08	0.380845
1019.74	1.4886
1021.39	1.17537
1023.04	0.754085
1024.69	0.508677
1026.34	0.504231
1028	1.30824
1029.65	0.669581
1031.3	0.750813
1032.95	0.852343
1034.6	0.559498
1036.25	1.13784
1037.9	1.23524
1039.55	1.17999
1041.19	1.82145
1042.84	0.854774
1044.49	0.738114
1046.14	1.23149
1047.79	1.37898
1049.43	1.24573
1051.08	1.39605
1052.73	1.13444
1054.37	1.04692
1056.02	1.52445
1057.66	0.936681
1059.31	0.652629
1060.95	0.868029
1062.6	0.278166
1064.24	0.318055
1065.88	0.27004
1067.53	0.829604
1069.17	0.279883
1070.81	0.424913
1072.46	0.634788
1074.1	0.8666
1075.74	0.535231
1077.38	0.357025
1079.02	0.613678
1080.66	0.459008
1082.3	0.6296
1083.94	0.279003
1085.58	0.534043
1087.22	0.0286894
1088.86	0.842913
1090.5	0.464318
1092.14	0.668888
1093.78	0.159913
1095.42	0.471908
1097.05	0.719376
1098.69	0.903069
1100.33	0.140967
1101.97	0.392667
1103.6	1.05455
1105.24	0.641951
1106.87	-0.0926228
1108.51	0.355491
1110.15	0.952968
1111.78	0.774858
1113.41	0.55239
1115.05	0.11433
1116.68	0.169691
1118.31	0.0535555
1119.95	0.473742
1121.58	0.144908
1123.21	0.759052
1124.85	0.28249
1126.48	0.106449
1128.11	0.209186
1129.74	0.483562
1131.37	-0.075388
1133	0.370761
1134.63	-0.16656
1136.26	0.599412
1137.89	0.188912
1139.52	0.0766039
1141.15	0.945543
1142.78	0.0633526
1144.41	0.568457
1146.04	-0.120124
1147.66	0.364773
1149.29	-0.513371
1150.92	0.121652
1152.55	0.117531
1154.17	-0.184953
1155.8	0.108295
1157.43	-0.0455704
1159.05	0.26889
1160.68	0.22245
1162.3	0.559744
1163.93	0.345134
1165.55	-0.102883
1167.17	0.235566
1168.8	0.509236
1170.42	0.717463
1172.05	0.307579
1173.67	0.00263691
1175.29	0.481936
1176.91	0.451221
1178.54	0.6749
1180.16	0.412041
1181.78	-0.0400352
1183.4	0.544975
1185.02	0.368692
1186.64	0.360688
1188.26	0.224589
1189.88	0.403066
1191.5	0.410938
1193.12	0.144023
1194.74	0.842832
1196.36	0.281723
1197.97	0.351105
1199.59	0.610119
1201.21	0.578307
1202.83	0.799623
1204.44	-0.0202951
1206.06	0.748006
1207.68	0.515927
1209.29	0.40934
1210.91	0.635742
1212.52	0.902112
1214.14	0.43676
1215.75	0.823586
1217.37	0.542305
1218.98	0.572285
1220.6	0.456727
1222.21	0.777536
1223.82	0.187239
1225.44	0.489574
1227.05	0.482533
1228.66	0.683636
1230.27	0.389553
1231.88	0.799566
1233.49	0.321847
1235.1	0.589372
1236.72	0.485996
1238.33	0.548931
1239.94	0.467782
1241.55	1.56574
1243.16	1.33985
1244.76	1.13379
1246.37	1.13361
1247.98	0.946192
1249.59	0.758051
1251.2	0.983388
1252.8	0.7538
1254.41	1.00064
1256.02	0.834827
1257.63	0.773598
1259.23	0.692755
1260.84	0.736905
1262.44	0.760838
1264.05	0.577665
1265.66	0.787723
1267.26	0.769208
1268.87	0.853445
1270.47	1.08185
1272.07	0.562819
1273.68	0.478246
1275.28	1.09752
1276.88	0.451535
1278.48	0.55092
1280.09	0.835995
1281.69	0.727279
1283.29	0.887689
1284.89	1.02778
1286.49	0.77585
1288.09	0.855727
1289.69	0.812457
1291.3	1.14163
1292.9	0.892148
1294.49	1.65427
1296.09	1.27887
1297.69	1.45951
1299.29	1.41132
1300.89	0.351481
1302.49	0.878258
1304.09	1.1562
1305.68	1.04226
1307.28	0.989663
1308.88	0.444489
1310.47	0.412817
1312.07	1.60984
1313.66	0.698666
1315.26	1.07742
1316.86	0.496844
1318.45	1.36625
1320.05	1.74494
1321.64	1.63323
1323.23	0.930015
1324.83	1.3039
1326.42	1.00554
1328.01	1.13313
1329.61	1.11914
1331.2	1.63256
1332.79	1.52079
1334.38	1.79513
1335.98	1.38473
1337.57	2.20564
1339.16	1.41242
1340.75	1.10198
1342.34	1.41378
1343.93	1.09978
1345.52	1.60853
1347.11	0.532027
1348.7	1.18211
1350.29	1.29303
1351.87	1.16635
1353.46	1.08184
1355.05	1.19858
1356.64	0.676207
1358.23	1.13256
1359.81	0.748989
1361.4	0.684044
1362.99	0.757987
1364.57	0.652063
1366.16	0.944954
1367.74	0.979421
1369.33	1.1942
1370.91	0.892826
1372.5	1.03069
1374.08	0.791604
1375.67	0.99094
1377.25	0.872017
1378.83	1.19038
1380.42	0.552646
1382	0.749357
1383.58	1.38216
1385.16	0.721436
1386.75	1.15354
1388.33	1.50594
1389.91	0.826535
1391.49	0.763641
1393.07	0.304803
1394.65	0.838225
1396.23	0.816024
1397.81	0.713855
1399.39	0.868373
1400.97	0.902967
1402.55	1.09528
1404.13	0.792741
1405.7	0.728297
1407.28	1.1984
1408.86	0.641589
1410.44	0.69796
1412.01	0.892488
1413.59	0.8297
1415.17	0.233327
1416.74	1.13549
1418.32	0.676305
1419.89	0.336111
1421.47	1.04082
1423.05	0.624564
1424.62	0.800541
1426.19	0.682512
1427.77	1.17519
1429.34	1.19524
1430.92	0.9782
1432.49	1.48816
1434.06	1.05258
1435.63	0.990448
1437.2	1.69531
1438.78	1.02462
1440.35	1.37716
1441.92	1.43583
1443.49	1.43627
1445.06	1.79089
1446.63	1.83126
1448.2	2.12734
1449.77	1.89297
1451.34	1.5214
1452.91	1.75992
1454.48	1.23176
1456.05	2.23805
1457.62	1.74844
1459.18	1.29675
1460.75	1.15819
1462.32	1.80474
1463.89	1.4855
1465.45	1.47988
1467.02	1.33637
1468.59	0.781062
1470.15	1.071
1471.72	1.10681
1473.28	0.790649
1474.85	1.47548
1476.41	0.925312
1477.98	1.43405
1479.54	0.903675
1481.11	1.41211
1482.67	0.862095
1484.23	1.09586
1485.8	1.30959
1487.36	1.05238
1488.92	1.3226
1490.48	1.29711
1492.05	1.2107
1493.61	1.47372
1495.17	1.53912
1496.73	1.62264
1498.29	0.927279
1499.85	1.30314
1501.41	0.960969
1502.97	0.911638
1504.53	1.19271
1506.09	1.16382
1507.65	0.728223
1509.2	0.504955
1510.76	0.435409
1512.32	1.23234
1513.88	0.795058
1515.44	0.666584
1516.99	0.731005
1518.55	0.585127
1520.1	0.727518
1521.66	0.39143
1523.22	1.06879
1524.77	0.292833
1526.33	0.871552
1527.88	0.286248
1529.44	0.253428
1530.99	0.56241
1532.55	0.378045
1534.1	0.0814066
1535.65	0.24042
1537.21	0.343325
1538.76	0.975185
1540.31	-0.317169
1541.86	0.25807
1543.42	0.436863
1544.97	0.746722
1546.52	0.623736
1548.07	0.463287
1549.62	0.659263
1551.17	0.44307
1552.72	0.826398
1554.27	0.817483
1555.82	0.959397
1557.37	0.16964
1558.92	0.819231
1560.47	0.0712481
1562.02	0.724061
1563.57	0.762392
1565.11	0.577419
1566.66	0.280532
1568.21	0.543269
1569.75	0.357712
1571.3	0.899758
1572.85	1.18021
1574.39	1.23652
1575.94	0.564805
1577.49	0.957358
1579.03	0.827619
1580.58	0.455733
1582.12	1.26108
1583.67	0.909451
1585.21	1.38064
1586.75	1.46011
1588.3	0.716831
1589.84	1.0393
1591.38	1.36158
1592.93	0.485207
1594.47	1.01277
1596.01	1.09103
1597.55	-0.104728
1599.09	0.274226
1600.63	1.25446
1602.18	0.697145
1603.72	0.909154
1605.26	1.271
1606.8	1.40622
1608.34	1.67103
1609.87	0.711749
1611.41	1.12211
1612.95	1.32352
1614.49	0.566153
1616.03	0.934644
1617.57	0.759532
1619.11	0.604497
1620.64	0.69453
1622.18	0.505018
1623.72	0.859313
1625.25	1.21356
1626.79	0.743449
1628.32	0.908407
1629.86	0.604322
1631.4	0.934938
1632.93	1.17135
1634.47	1.31444
1636	1.30895
1637.53	0.950078
1639.07	1.24465
1640.6	1.09178
1642.14	0.994294
1643.67	1.17508
1645.2	1.01947
1646.73	0.863116
1648.27	0.855302
1649.8	1.16353
1651.33	1.50946
1652.86	1.42973
1654.39	1.09169
1655.92	0.661882
1657.45	1.12169
1658.98	1.54333
1660.51	1.42636
1662.04	1.53001
1663.57	1.26254
1665.1	1.14265
1666.63	1.31858
1668.16	1.60602
1669.69	1.10211
1671.21	0.637072
1672.74	1.40758
1674.27	0.72337
1675.79	1.05187
1677.32	1.1033
1678.85	0.638481
1680.37	0.834948
1681.9	0.497542
1683.42	0.472389
1684.95	1.14463
1686.47	0.93611
1688	0.929914
1689.52	0.997414
1691.05	0.662292
1692.57	0.400793
1694.1	0.615059
1695.62	0.189069
1697.14	0.402799
1698.66	0.214192
1700.19	0.335626
1701.71	0.128102
1703.23	1.08665
1704.75	0.0582523
1706.27	0.41386
1707.79	0.223195
1709.32	0.141735
1710.83	0.0242033
1712.35	0.414748
1713.88	0.315619
1715.39	-0.308254
1716.91	-0.171486
1718.43	-0.324238
1719.95	0.29967
1721.47	0.219026
1722.99	0.030901
1724.5	0.00618362
1726.02	0.270896
1727.54	0.140723
1729.06	-0.114329
1730.57	0.222436
1732.09	0.12581
1733.61	-0.215225
1735.12	-0.24852
1736.64	0.193053
1738.15	0.681756
1739.67	0.299236
1741.18	-0.145141
1742.7	0.145451
1744.21	0.113952
1745.72	0.0679073
1747.24	0.0285645
1748.75	-0.0456266
1750.26	0.0947866
1751.78	0.0225048
1753.29	-0.105588
1754.8	-0.064887
1756.31	0.261621
1757.82	-0.17869
1759.34	0.119079
1760.85	-0.0590515
1762.36	-0.339478
1763.87	-0.398698
1765.38	-0.108752
1766.89	-0.0806684
1768.4	0.537795
1769.91	0.0407257
1771.41	0.549241
1772.92	0.261538
1774.43	0.0700207
1775.94	0.227597
1777.45	0.0569277
1778.96	-0.113794
1780.46	0.19294
1781.97	0.0268383
1783.48	-0.237578
1784.98	0.438987
1786.49	0.0180655
1788	-0.0890102
1789.5	-0.057251
1791.01	-0.109917
1792.51	0.225672
1794.01	-0.158054
1795.52	-0.0839806
1797.02	0.158144
1798.53	0.300711
1800.03	0.14201
1801.54	0.067296
1803.04	0.27521
1804.54	0.0815535
1806.04	0.136164
1807.54	0.117633
1809.05	0.114048
1810.55	-0.0621233
1812.05	0.00370693
1813.55	-0.0101147
1815.05	-0.0528164
1816.55	0.117537
1818.05	0.139041
1819.55	0.0849333
1821.05	0.27021
1822.55	0.0256529
1824.05	0.0528412
1825.55	0.0800476
1827.05	0.155675
1828.55	0.279729
1830.04	0.264233
1831.54	0.223137
1833.04	-0.0332518
1834.54	0.0480719
1836.03	0.125834
1837.53	0.0153513
1839.03	-0.0138683
1840.52	0.183744
1842.02	0.150301
1843.51	0.223183
1845.01	0.34127
1846.5	0.0544844
1848	0.151054
1849.49	0.366887
1850.99	0.375567
1852.48	0.0935774
1853.97	0.321539
1855.47	-0.0341473
1856.96	0.339263
1858.45	0.448804
1859.94	-0.0546589
1861.44	0.0520535
1862.93	0.387011
1864.42	0.48443
1865.91	0.25663
1867.4	0.218415
1868.89	0.632757
1870.38	0.466673
1871.87	0.0660534
1873.36	-0.269974
1874.85	-0.261928
1876.34	0.0498095
1877.83	0.236334
1879.32	0.248994
1880.81	0.150458
1882.3	0.109727
1882.56	0.10288
1884.06	0.0472469
1885.55	0.374249
1887.04	0.160161
1888.54	0.0502596
1890.03	0.358237
1891.52	-0.219997
1893.02	-0.396426
1894.51	-0.0495396
1896	-0.327109
1897.49	0.12645
1898.99	0.353936
1900.48	0.0585489
1901.97	0.0746946
1903.46	0.210844
1904.95	0.206413
1906.44	-0.19838
1907.93	0.0571041
1909.42	0.0178757
1910.91	0.430722
1912.4	-0.0404453
1913.89	-0.14665
1915.38	0.215456
1916.86	0.247691
1918.35	0.296709
1919.84	0.379906
1921.33	0.203166
1922.82	0.200113
1924.3	0.215263
1925.79	0.352726
1927.28	0.318144
1928.76	0.162997
1930.25	0.128983
1931.74	-0.165598
1933.22	-0.357645
1934.71	0.314212
1936.19	0.239908
1937.67	0.268253
1939.16	-0.135835
1940.64	-0.297354
1942.13	0.111628
1943.61	-0.392996
1945.09	-0.189421
1946.58	0.514301
1948.06	0.303972
1949.54	-0.0447655
1951.03	-0.187539
1952.51	-0.107335
1953.99	-0.113756
1955.47	-0.206152
1956.95	0.0969162
1958.43	0.194354
1959.91	0.223808
1961.39	-0.0720091
1962.87	-0.0931501
1964.35	-0.165858
1965.83	0.171998
1967.31	-0.15866
1968.79	0.280131
1970.27	-0.0342999
1971.75	0.232174
1973.22	-0.0138206
1974.7	0.30347
1976.18	0.364842
1977.66	0.324123
1979.13	0.147388
1980.61	0.328057
1982.09	0.253336
1983.56	0.365272
1985.04	0.476689
1986.52	0.011055
1987.99	-0.267448
1989.47	-0.0372066
1990.94	0.0072298
1992.41	0.373891
1993.89	-0.120961
1995.36	-0.141442
1996.84	0.091918
1998.31	-0.0633469
1999.78	0.253764
2001.26	-0.206217
2002.73	-0.126525
2004.2	0.239547
2005.67	0.201225
2007.15	0.0794706
2008.62	0.00925732
2010.09	-0.295763
2011.56	-0.0446939
2013.03	-0.147097
2014.5	0.322276
2015.97	0.336417
2017.44	-0.0371904
2018.91	0.294736
2020.38	-0.0294685
2021.85	0.284667
2023.32	-0.00542355
2024.79	0.275988
2026.25	0.407461
2027.72	0.221701
2029.19	0.372918
2030.66	0.139683
2032.13	0.0247622
2033.59	0.44744
2035.06	0.181861
2036.53	-0.353061
2037.99	0.455469
2039.46	-0.14779
2040.92	0.122787
2042.39	0.242551
2043.85	-0.0573483
2045.32	-0.221971
2046.78	0.455788
2048.25	0.595528
2049.71	-0.0233622
2051.18	0.452128
2052.64	-0.254208
2054.1	-0.270984
2055.56	0.047843
2057.03	0.230321
2058.49	0.563539
2059.95	0.508943
2061.42	0.522175
2062.88	0.0817766
2064.34	0.282106
2065.8	0.399261
2067.26	0.012394
2068.72	0.0804911
2070.18	0.0142488
2071.64	0.688813
2073.1	0.201612
2074.56	0.252896
2076.02	0.0344162
2077.48	0.169212
2078.94	0.58989
2080.39	-0.0507765
2081.85	0.015275
2083.31	0.535132
2084.77	0.397689
2086.22	0.444626
2087.68	0.13781
2089.14	-0.10191
2090.6	-0.022438
2092.05	-0.127789
2093.51	0.438053
2094.96	0.265139
2096.42	0.393594
2097.87	0.303493
2099.33	0.631283
2100.78	0.89136
2102.24	0.399361
2103.69	0.00910759
2105.15	0.288157
2106.6	0.251357
2108.05	0.699302
2109.51	0.18023
2110.96	0.227658
2112.41	0.057127
2113.86	0.151558
2115.32	0.0279903
2116.77	0.119892
2118.22	-0.0205679
2119.67	0.703583
2121.12	0.0519295
2122.57	0.215318
2124.02	0.0152454
2125.47	0.180613
2126.92	0.0306711
2128.37	0.360511
2129.82	0.4071
2131.27	0.468923
2132.72	-0.0163269
2134.17	0.342646
2135.62	0.454014
2137.06	0.252727
2138.51	0.0698767
2139.96	0.582991
2141.41	0.238296
2142.85	-0.105455
2144.3	0.361762
2145.75	0.250236
2147.19	0.287339
2148.64	0.588857
2150.09	0.906244
2151.53	0.493695
2152.97	0.345212
2154.42	0.692996
2155.86	0.211942
2157.31	0.0458069
2158.75	0.443576
2160.2	0.710159
2161.64	0.183184
2163.08	0.320734
2164.53	0.824902
2165.97	0.500473
2167.41	0.54099
2168.86	0.547267
2170.3	0.501892
2171.74	0.454435
2173.18	1.0705
2174.62	0.354418
2176.06	0.635832
2177.5	0.352036
2178.94	0.883709
2180.38	0.61831
2181.82	0.320497
2183.26	0.455544
2184.7	1.05663
2186.14	0.260598
2187.58	0.76214
2189.02	0.531659
2190.46	0.633982
2191.89	0.636182
2193.33	0.820787
2194.77	0.637762
2196.21	0.369751
2197.64	0.499288
2199.08	0.294457
2200.52	0.0224695
2201.95	0.514445
2203.39	0.176862
2204.83	0.106051
2206.26	0.434053
2207.7	0.580053
2209.13	0.642937
2210.57	0.373954
2212	0.286225
2213.43	0.528471
2214.87	0.423397
2216.3	0.665711
2217.73	0.150034
2219.17	0.279172
2220.6	0.606888
2222.03	0.341209
2223.47	0.272694
2224.9	0.433389
2226.33	0.411168
2227.76	-0.352463
2229.19	0.29655
2230.62	-0.0244579
2232.05	0.326883
2233.49	0.334
2234.91	0.374566
2236.34	0.187536
2237.77	0.361514
2239.2	0.0313807
2240.63	0.241738
2242.06	0.38856
2243.49	0.0799246
2244.92	0.897076
2246.35	0.245549
2247.78	-0.0649624
2249.2	0.421404
2250.63	0.188209
2252.06	-0.0138111
2253.48	-0.102429
2254.91	0.264329
2256.34	-0.0823717
2257.76	0.790621
2259.19	0.20595
2260.61	0.500395
2262.04	0.18067
2263.46	0.138302
2264.89	0.12867
2266.31	0.102392
2267.74	0.368134
2269.16	0.470423
2270.59	0.0673218
2272.01	0.33112
2273.43	0.366859
2274.85	0.288676
2276.28	0.243259
2277.7	0.27949
2279.12	0.658161
2280.54	0.433617
2281.97	0.339319
2283.39	0.0491199
2284.81	0.297341
2286.23	0.382688
2287.65	-0.44591
2289.07	-0.033268
2290.49	-0.19183
2291.91	0.581553
2293.33	0.243618
2294.75	0.248962
2296.17	0.401549
2297.59	-0.199068
2299.01	-0.112067
2300.42	0.204659
2301.84	0.128418
2303.26	0.0195761
2304.68	-0.302617
2306.1	0.261657
2307.51	0.251036
2308.93	-0.236854
2310.35	0.228079
2311.76	0.215898
2313.18	-0.174759
2314.59	0.043746
2316.01	0.411359
2317.43	0.219956
2318.84	0.407948
2320.26	-0.162826
2321.67	0.155816
2323.08	-0.088377
2324.5	0.127208
2325.91	0.307479
2327.33	0.156117
2328.74	0.910592
2330.15	0.544407
2331.56	0.278316
2332.98	-0.0851746
2334.39	-0.250175
2335.8	-0.135218
2337.21	-0.201672
2338.62	-0.351227
2340.04	0.254111
2341.45	0.578647
2342.86	0.0324984
2344.27	-0.15216
2345.68	-0.172413
2347.09	0.299005
2348.5	0.344285
2349.91	0.0292253
2351.31	0.187868
2352.72	0.0512753
2354.13	-0.314436
2355.54	-0.223688
2356.95	0.0944958
2358.36	-0.206062
2359.76	-0.3109
2361.17	0.249998
2362.58	0.128767
2363.98	0.169643
2365.39	0.129481
2366.8	0.332016
2368.21	-0.0141554
2369.61	-0.0521593
2371.02	0.0401554
2372.42	0.471999
2373.83	0.276443
2375.23	-0.385351
2376.64	0.240166
2378.04	-0.116921
2379.44	-0.0573063
2380.85	0.289499
2382.25	-0.151529
2383.66	0.448552
2385.06	0.247181
2386.46	0.142587
2387.86	-0.0406494
2389.26	-0.222322
2390.67	0.505601
2392.07	-0.660808
2393.47	-0.15417
2394.87	-0.0289335
2396.27	0.192288
2397.67	0.207396
2399.07	0.30253
2400.47	-0.189643
2401.87	0.128716
2403.27	0.0658731
2404.67	-0.0131998
2406.07	0.271984
2407.47	-0.0310545
2408.87	-0.0332727
2410.27	0.0910025
2411.67	0.0727997
2413.07	0.1663
2414.46	-0.16643
2415.86	0.00898457
2417.26	0.454853
2418.66	0.284232
2420.05	0.0347281
2421.45	0.117658
2422.84	0.0101442
2424.24	0.203382
2425.64	0.254121
2427.03	-0.122518
2428.43	0.151536
2429.82	0.347436
2431.22	0.0840721
2432.61	0.122218
2434.01	0.175747
2435.4	0.387042
2436.79	0.549215
2438.19	0.137836
2439.58	-0.258853
2440.97	0.0583754
2442.37	0.13675
2443.76	0.103709
2445.15	0.181549
2446.54	0.211604
2447.93	0.178111
2449.33	-0.12464
2450.72	0.0481014
2452.11	0.300386
2453.5	-0.0321331
2454.89	0.205881
2456.28	0.270533
2457.67	0.193137
2459.06	-0.0425787
2460.45	0.0849152
2461.84	-0.152091
2463.23	-0.405538
2464.62	0.114801
2466	0.144858
2467.39	0.506287
2468.78	-0.0477858
2470.17	0.18698
2471.55	-0.0518198
2472.94	0.228809
2474.33	0.19346
2475.72	-0.172817
2477.1	0.0898056
2478.49	0.399073
2479.87	0.268656
2481.26	-0.0652122
2482.65	0.0713863
2484.03	0.0350943
2485.42	0.154374
2486.8	-0.38388
2488.19	0.1547
2489.57	0.379528
2490.95	-0.205658
2492.34	-0.400237
2493.72	0.353806
2495.1	-0.102244
2496.49	0.0327301
2497.87	0.152863
2499.25	-0.222205
2500.63	0.176269
2502.02	-0.292118
2503.4	-0.0658245
2504.78	-0.380706
2506.16	0.0440559
2507.54	0.190619
2508.92	0.444606
2510.3	0.176367
2511.68	-0.351477
2513.06	0.471306
2514.44	-0.00825405
2515.82	0.309659
2517.2	0.153775
2518.58	0.0903482
2519.96	0.149405
2521.34	0.360853
2522.72	0.0676947
2524.1	-0.0428915
2525.47	0.135546
2526.85	0.054574
2528.23	0.384973
2529.6	-0.0290098
2530.98	0.68374
2532.36	0.531703
2533.74	0.244428
2535.11	-0.194014
2536.49	0.0359755
2537.86	0.0677824
2539.24	0.296059
2540.61	0.00716209
2541.99	-0.266714
2543.36	0.0212574
2544.74	0.264428
2546.11	0.0234318
2547.49	-0.0646477
2548.86	0.166689
2550.23	0.519555
2551.61	0.234618
2552.98	-0.233404
2554.35	0.253633
2555.72	0.299635
2557.09	-0.125134
2558.47	0.314518
2559.84	0.557148
2561.21	0.360711
2562.58	0.240774
2563.95	0.121456
2565.32	0.199583
2566.69	-0.131208
2568.06	-0.189136
2569.43	0.298558
2570.8	-0.0927811
2572.17	-0.0445442
2573.54	-0.162962
2574.91	0.537333
2576.28	0.525208
2577.65	0.0429735
2579.02	0.000185013
2580.39	-0.224905
2581.75	0.368399
2583.12	-0.130363
2584.49	0.00745583
2585.85	0.0390959
2587.22	-0.232275
2588.59	0.102807
2589.95	0.301569
2591.32	-0.242349
2592.68	0.289155
2594.05	0.092535
2595.42	-0.0292797
2596.78	-0.121736
2598.15	-0.487157
2599.51	-0.066329
2600.88	0.21813
2602.24	0.472594
2603.6	0.380334
2604.97	0.243461
2606.33	0.333146
2607.69	0.0303869
2609.06	-0.0920973
2610.42	0.0856056
2611.78	0.0811424
2613.14	0.466468
2614.51	0.0391321
2615.87	0.0175714
2617.23	-0.0636606
2618.59	0.439928
2619.95	0.000757217
2621.31	-0.302413
2622.67	0.396461
2624.03	0.228577
2625.39	0.225001
2626.75	0.415033
2628.11	-0.215091
2629.47	-0.397872
2630.83	0.118687
2632.19	0.21808
2633.55	0.0944643
2634.91	0.371755
2636.26	0.21851
2637.62	0.198866
2638.98	-0.250054
2640.34	0.0416088
2641.69	0.0374269
2643.05	0.136945
2644.41	0.47269
2645.76	0.11454
2647.12	0.0660677
2648.48	-0.130307
2649.83	-0.047534
2651.19	0.0785151
2652.54	-0.0162659
2653.9	0.124112
2655.25	0.0744448
2656.6	0.523922
2657.96	-0.328651
2659.31	0.429761
2660.67	0.193567
2662.02	0.118209
2663.37	0.086154
2664.73	0.389035
2666.08	0.282341
2667.43	-0.0724049
2668.78	0.0247431
2670.14	-0.183519
2671.49	-0.0565472
2672.84	-0.0163012
2674.19	0.0680838
2675.54	0.0223265
2676.89	-0.124371
2678.24	-0.270308
2679.59	0.222642
2680.94	0.310534
2682.29	0.0371885
2683.64	0.011487
2684.99	-0.143826
2686.34	0.267098
2687.69	0.300726
2689.04	0.463823
2690.39	0.48003
2691.74	0.523378
2693.08	0.216937
2694.43	0.0693274
2695.78	0.139103
2697.13	-0.00784302
2698.47	0.121747
2699.82	0.426721
2701.17	-0.0340042
2702.51	0.245301
2703.86	-0.0972576
2705.21	0.1113
2706.55	0.146046
2707.9	0.122521
2709.24	-0.249823
2710.58	0.669657
2711.93	0.151337
2713.27	0.257399
2714.62	0.261712
2715.96	-0.213855
2717.3	-0.0498877
2718.65	0.215766
2719.99	0.350214
2721.33	0.0913143
2722.68	0.195745
2724.02	0.110498
2725.36	0.490604
2726.71	0.302665
2728.05	0.0853243
2729.39	0.173391
2730.73	0.101247
2732.07	0.305519
2733.41	0.247992
2734.75	0.16157
2736.09	0.162632
2737.43	-0.0543242
2738.77	0.601304
2740.11	0.136862
2741.45	0.326346
2742.79	0.253451
2744.13	0.0345726
2745.47	0.32369
2746.81	0.292692
2748.14	-0.202941
2749.48	0.114395
2750.82	-0.00341702
2752.16	-0.0339003
2753.49	-0.0351448
2754.83	0.108665
2756.17	0.368393
2757.5	-0.15375
2758.84	-0.0384226
2760.18	0.46801
2761.51	0.0775766
2762.85	0.208617
2764.18	0.25314
2765.52	-0.281094
2766.85	-0.121271
2768.19	-0.0491695
2769.52	0.224061
2770.86	-0.0679884
2772.19	-0.0866213
2773.52	-0.0484934
2774.86	0.133212
2776.19	0.25696
2777.52	0.0498638
2778.86	-0.084444
2780.19	-0.0887184
2781.52	0.180173
2782.85	-0.268745
2784.19	0.286769
2785.52	0.153611
2786.85	-0.294271
2788.18	0.00322056
2789.51	0.0293303
2790.84	0.342346
2792.17	0.38429
2793.5	0.412386
2794.83	-0.00253773
2796.16	0.26824
2797.49	-0.0187464
2798.82	-0.163288
2800.15	0.434012
2801.48	0.288722
2802.81	0.114865
2804.13	-0.0020752
2805.46	0.0943193
2806.79	0.175758
2808.12	-0.113319
2809.45	-0.0186462
2810.77	0.118526
2812.1	-0.297326
2813.43	-0.130079
2814.75	0.0525885
2816.08	-0.174499
2817.41	0.0389223
2818.73	-0.0447531
2820.06	0.05583
2821.38	0.127626
2822.71	-0.297227
2824.03	-0.0141172
2825.36	-0.0855675
2826.68	0.352859
2828	0.055397
2829.33	-0.170641
2830.65	0.226665
2831.98	-0.0977859
2833.3	0.129772
2834.62	0.272066
2835.94	0.187424
2837.27	-0.166539
2838.59	0.58261
2839.91	0.482672
2841.23	0.354625
2842.55	0.325994
2843.87	0.566526
2845.2	0.510943
2846.52	0.342896
2847.84	0.175168
2849.16	0.912014
2850.48	0.758168
2851.8	0.490785
2853.12	0.59041
2854.44	0.859235
2855.76	1.15607
2857.08	1.15616
2858.39	0.859684
2859.71	1.00108
2861.03	1.19874
2862.35	0.873696
2863.67	1.24003
2864.98	1.29552
2866.3	1.92932
2867.62	1.51945
2868.94	1.82929
2870.25	1.87157
2871.57	1.50522
2872.88	1.78701
2874.2	1.98343
2875.52	2.03787
2876.83	2.02082
2878.15	1.97487
2879.46	1.88653
2880.78	2.02348
2882.09	1.97846
2883.41	1.79402
2884.72	2.38284
2886.03	1.77876
2887.35	2.39602
2888.66	2.24083
2889.97	2.01484
2891.29	1.85833
2892.6	1.92565
2893.91	1.96474
2895.22	2.42423
2896.54	2.31025
2897.85	2.70112
2899.16	2.56117
2900.47	2.38005
2901.78	2.4512
2903.09	2.46658
2904.4	2.60798
2905.71	2.59578
2907.02	3.12964
2908.33	2.57322
2909.64	2.54911
2910.95	1.96571
2912.26	3.57968
2913.57	2.82751
2914.88	3.30594
2916.19	3.22274
2917.5	3.27806
2918.81	3.45834
2920.11	3.69432
2921.42	3.59525
2922.73	3.91678
2924.04	4.04389
2925.34	3.97641
2926.65	3.76971
2927.96	3.95446
2929.26	3.77537
2930.57	3.7775
2931.87	3.93297
2933.18	4.17205
2934.49	4.22937
2935.79	4.09114
2937.1	4.24656
2938.4	4.15062
2939.7	3.70561
2941.01	4.12746
2942.31	3.65581
2943.62	3.50665
2944.92	3.93189
2946.22	3.22569
2947.53	3.28901
2948.83	3.00222
2950.13	3.20423
2951.43	3.08261
2952.74	2.34312
2954.04	3.26862
2955.34	2.73769
2956.64	3.21548
2957.94	2.89735
2959.24	3.04368
2960.54	2.85652
2961.84	2.93739
2963.15	2.514
2964.45	2.45449
2965.75	2.47789
2967.05	2.72469
2968.34	2.52055
2969.64	2.58277
2970.94	2.61679
2972.24	2.06021
2973.54	1.81325
2974.84	2.25589
2976.14	1.8252
2977.43	1.94238
2978.73	2.00166
2980.03	2.003
2981.33	1.74982
2982.62	1.91829
2983.92	1.80576
2985.22	1.53976
2986.51	1.61253
2987.81	1.43373
2989.11	1.0872
2990.4	1.07815
2991.7	1.11082
2992.99	1.31115
2994.29	1.18706
2995.58	1.25861
2996.88	0.880136
2998.17	0.6702
2999.46	1.2041
3000.76	1.14917
3002.05	0.884601
3003.34	0.984915
3004.64	0.608977
3005.93	0.87718
3007.22	0.696648
3008.52	0.837258
3009.81	0.599316
3011.1	0.319059
3012.39	0.206359
3013.68	-0.0177641
3014.97	0.483695
3016.27	-0.0596566
3017.56	-0.170066
3018.85	0.179284
3020.14	0.166732
3021.43	0.264963
3022.72	0.431688
3024.01	0.0421324
3025.3	0.331882
3026.59	0.0114794
3027.88	0.356301
3029.16	0.162417
3030.45	0.108397
3031.74	0.249164
3033.03	0.252765
3034.32	0.118643
3035.6	0.246202
3036.89	-0.0136595
3038.18	0.0144639
3039.47	0.260952
3040.75	0.175514
3042.04	-0.116437
3043.33	0.126903
3044.61	-0.0675902
3045.9	-0.0823307
3047.18	0.150867
3048.47	0.126571
3049.75	-0.100412
3051.04	0.315524
3052.32	0.404683
3053.61	0.0981393
3054.89	0.309449
3056.18	0.0696096
3057.46	0.196981
3058.74	0.41884
3060.03	0.449568
3061.31	0.167653
3062.59	0.335794
3063.88	0.233217
3065.16	0.32248
3066.44	0.263537
3067.72	0.246321
3069	0.324665
3070.29	0.225965
3071.57	0.262421
3072.85	-0.123844
3074.13	0.127856
3075.41	-0.0291381
3076.69	0.139658
3077.97	-0.0713701
3079.25	-0.0912538
3080.53	0.134435
3081.81	-0.248864
3083.09	-0.183377
3084.37	0.0320187
3085.65	-0.0238681
3086.93	0.29984
3088.21	-0.0286198
3089.49	0.00875473
3090.76	0.33065
3092.04	-0.134572
3093.32	0.295747
3094.6	0.129506
3095.87	-0.0770907
3097.15	0.0147038
3098.43	0.445236
3099.7	0.130193
3100.98	0.275797
3102.26	-0.0796709
3103.53	-0.0420589
3104.81	0.375008
3106.08	-0.032886
3107.36	0.223264
3108.63	0.290949
3109.91	0.454441
3111.18	0.266934
3112.46	0.134219
3113.73	0.34057
3115	0.397928
3116.28	0.19722
3117.55	0.578809
3118.83	0.0506358
3120.1	0.118206
3121.37	0.320457
3122.64	0.278068
3123.92	-0.116655
3125.19	0.342157
3126.46	0.232592
3127.73	-0.0251675
3129	0.380452
3130.27	0.312921
3131.55	0.245553
3132.82	0.556432
3134.09	0.569562
3135.36	0.136678
3136.63	0.459271
3137.9	0.632639
3139.17	0.414739
3140.44	0.587337
3141.71	0.450431
3142.98	0.421538
3144.24	0.500551
3145.51	0.0837145
3146.78	0.552864
3148.05	0.740692
3149.32	0.714668
