200.388	-0.0770178
202.204	-0.0788832
204.019	-0.0792351
205.832	0.237644
207.646	0.0442305
209.459	1.0659
211.274	0.167126
213.087	-0.197435
214.899	0.577858
216.711	0.600383
218.524	0.332502
220.335	0.743433
222.146	0.380842
223.956	0.164719
225.766	0.384528
227.576	0.652789
229.388	0.751722
231.197	-0.235785
233.005	-0.13683
234.813	0.203642
236.621	0.0388889
238.429	0.334082
240.236	0.438793
242.045	0.35288
243.852	0.654296
245.658	0.9321
247.464	0.533011
249.269	0.662856
251.074	0.838434
252.879	0.72199
254.683	0.773085
256.487	1.06499
258.291	0.827338
260.094	0.543365
261.897	0.743208
263.702	-0.0670366
265.504	0.545251
267.306	0.700411
269.108	0.590421
270.909	1.05849
272.71	0.778365
274.511	0.49714
276.311	0.262928
278.111	0.509364
279.91	0.127756
281.709	0.515214
283.508	0.611975
285.306	0.226877
287.105	0.106001
288.9	0.944586
290.698	0.177373
292.495	0.58562
294.291	0.0858669
296.088	1.1661
297.884	4.29153e-005
299.679	1.27242
301.475	0.203303
303.27	0.208778
305.064	0.070137
306.858	0.264871
308.652	0.483132
310.444	0.249067
312.237	0.34982
314.03	0.404489
315.822	0.0085268
317.615	0.376296
319.406	0.126379
321.198	0.187287
322.987	0.392164
324.778	0.287646
326.568	-0.103267
328.358	-0.0407906
330.148	0.332113
331.935	-0.0369368
333.724	0.0469847
335.513	-0.110055
337.301	-0.125374
339.089	0.168631
340.875	0.795975
342.662	0.609393
344.449	0.446901
346.236	-0.120963
348.02	-0.448982
349.806	-0.155605
351.592	0.448077
353.375	0.0250444
355.16	0.507928
356.944	0.226348
358.728	-0.222847
360.51	-0.148472
362.294	0.329638
364.077	0.0930796
365.858	0.307764
367.64	0.379038
369.422	0.0700903
371.202	0.708577
372.983	0.658941
374.764	0.680039
376.543	0.488764
378.324	0.67575
380.102	0.698379
381.881	1.28705
383.661	-0.00553131
385.438	0.843988
387.216	0.683505
388.993	0.124928
390.771	0.577518
392.548	0.420235
394.324	0.968135
396.101	0.342275
397.875	0.280197
399.651	0.0771294
401.425	0.343503
403.201	0.0222101
404.974	0.146597
406.749	1.11574
408.524	0.464062
410.296	0.493115
412.07	0.123286
413.841	-0.246004
415.614	0.652473
417.385	-0.0438423
419.156	0.0582428
420.928	0.301493
422.698	0.521194
424.469	0.0830717
426.238	-0.332364
428.009	0.0732069
429.777	-0.155437
431.548	0.249686
433.315	-0.049016
435.083	-0.394295
436.852	0.0819139
438.618	0.252484
440.387	0.421824
442.153	0.0732813
443.919	-0.0892267
445.686	0.0983
447.451	-0.37087
449.218	-0.138061
450.982	0.39817
452.746	0.210148
454.512	0.0693388
456.275	0.185173
458.038	-0.258189
459.803	0.136971
461.565	-0.188733
463.327	-0.745144
465.091	0.83847
466.852	0.542293
468.613	-0.100091
470.374	0.677263
472.136	0.153097
473.896	0.489193
475.655	0.288373
477.415	0.807678
479.176	0.370245
480.934	-0.0214615
482.692	0.378882
484.45	0.617213
486.21	-0.330701
487.967	0.633723
489.724	0.0618458
491.481	0.190338
493.237	-0.00741577
494.995	0.145484
496.75	0.81359
498.506	0.170649
500.26	0.675241
502.015	0.663798
503.769	0.534118
505.525	0.144727
507.279	0.153463
509.032	0.349094
510.785	0.16697
512.537	0.430529
514.289	0.692763
516.041	0.506712
517.793	0.390239
519.546	0.319985
521.297	0.460599
523.047	0.553684
524.797	0.505659
526.547	0.973779
528.297	0.878734
530.046	0.197845
531.795	0.922683
533.543	0.756477
535.291	0.402326
537.039	-0.0225906
538.787	-0.121035
540.534	0.0595951
542.281	0.937927
544.027	0.766866
545.773	-0.0544348
547.519	0.240438
549.264	0.465304
551.01	0.249902
552.754	0.659704
554.499	0.0752182
556.243	0.230858
557.987	0.455716
559.73	0.0815735
561.474	0.560327
563.216	0.624801
564.959	0.896599
566.701	0.0201006
568.441	0.0866222
570.182	0.0851336
571.923	0.314232
573.664	0.361172
575.405	0.134387
577.145	0.138446
578.885	0.0288877
580.624	0.402219
582.361	-0.0741749
584.1	-0.0916576
585.839	0.510958
587.577	0.330706
589.315	0.149316
591.052	0.220169
592.787	0.290548
594.524	0.33777
596.26	0.0169125
597.997	-0.303961
599.732	0.18011
601.466	0.433385
603.201	0.0875254
604.936	0.0854855
606.67	0.335084
608.403	0.170323
610.136	0.0744553
611.87	-0.0897398
613.603	0.0449333
615.334	0.225915
617.067	-0.257481
618.799	-0.46608
620.529	0.377637
622.26	0.235644
623.991	0.0702143
625.72	0.201949
627.451	0.106058
629.181	0.628062
630.909	0.398886
632.638	0.673562
634.368	0.150485
636.095	0.471617
637.823	0.243499
639.551	0.355487
641.277	0.738524
643.005	0.343938
644.73	-0.119404
646.457	-0.240503
648.184	0.0719366
649.908	-0.158754
651.634	0.63622
653.357	0.34386
655.083	0.440761
656.806	0.835836
658.53	0.571628
660.253	0.283713
661.977	0.450698
663.7	0.27317
665.422	0.802109
667.145	0.232005
668.865	0.55294
670.588	0.805862
672.308	0.145236
674.027	-0.193485
675.749	0.202446
677.468	-0.271664
679.188	0.792202
680.907	0.156153
682.627	0.483812
684.345	0.602885
686.064	0.881488
687.781	0.836345
689.498	0.237363
691.216	1.54958
692.932	0.373474
694.65	-0.0430641
696.366	0.414777
698.081	0.986473
699.797	0.0378914
701.512	1.27411
703.228	0.554356
704.942	0.707706
706.655	0.424301
708.371	1.01238
710.083	1.09507
711.796	0.467564
713.51	0.549938
715.222	1.40899
716.934	0.805155
718.645	1.04651
720.358	0.375885
722.068	1.05013
723.779	0.835892
725.49	1.23571
727.2	0.975876
728.909	1.21537
730.618	0.977906
732.329	1.30675
734.037	1.00123
735.745	1.26141
737.453	0.550397
739.16	1.0144
740.869	1.11775
742.576	1.04178
744.282	1.19221
745.988	1.29873
747.694	0.866471
749.401	0.682968
751.107	0.995399
752.811	1.69132
754.516	1.33129
756.22	1.03989
757.924	1.19988
759.627	0.437609
761.332	1.50142
763.035	1.46172
764.738	1.28625
766.44	1.3807
768.142	1.225
769.843	1.1351
771.544	1.42782
773.245	1.56096
774.946	1.55794
776.646	1.55534
778.346	1.41817
780.046	1.68937
781.745	1.41878
783.444	1.895
785.143	1.17078
786.841	1.39516
788.539	2.09204
790.237	1.54122
791.934	2.16396
793.631	1.31632
795.328	2.04907
797.024	1.78955
798.72	2.11746
800.416	1.50125
802.112	1.04442
803.807	1.01586
805.502	2.17867
807.196	2.01399
808.89	2.0056
810.584	2.04099
812.278	1.98574
813.971	1.36987
815.664	2.09801
817.354	1.50514
819.047	2.07546
820.739	1.57308
822.43	2.16516
824.122	1.84286
825.813	1.76734
827.503	2.11694
829.192	1.46668
830.882	1.68768
832.571	2.11179
834.261	1.71347
835.95	1.40485
837.637	1.80988
839.325	1.85708
841.013	2.03689
842.701	0.897383
844.389	1.34349
846.074	1.54444
847.761	1.2327
849.447	1.95186
851.131	1.5771
852.817	1.44993
854.503	1.39065
856.188	2.16219
857.871	1.60776
859.556	1.43341
861.24	1.00951
862.922	1.14693
864.606	1.8693
866.289	1.01325
867.97	1.14831
869.653	1.35068
871.336	0.966335
873.016	1.12313
874.698	1.00911
876.379	1.50436
878.058	1.48062
879.739	1.41163
881.418	1.13913
883.098	1.38521
884.778	1.22398
886.456	1.40014
888.135	1.05588
889.812	0.958612
891.49	1.6715
893.167	1.09854
894.845	1.31299
896.523	1.05401
898.198	0.502741
899.875	0.894007
901.55	1.23887
903.226	1.42573
904.901	1.25434
906.576	1.03888
908.25	1.18118
909.925	1.36841
911.598	1.24458
913.271	1.23271
914.945	1.13234
916.617	0.921286
918.291	1.08732
919.962	0.987409
921.635	0.910228
923.306	1.2983
924.978	1.62092
926.648	1.50323
928.318	1.40922
929.989	1.53702
931.659	1.73159
933.328	0.801283
934.998	1.39331
936.666	1.54445
938.336	1.43165
940.004	0.768489
941.671	1.12093
943.34	0.723925
945.007	0.76805
946.673	1.00994
948.339	0.323215
950.007	0.495803
951.672	1.19676
953.337	0.684212
955.004	0.834659
956.669	0.921191
958.333	0.591347
959.997	0.175214
961.662	1.01882
963.326	1.42151
964.989	0.850124
966.651	0.718464
968.315	0.650774
969.977	0.780401
971.639	0.754353
973.301	0.72863
974.962	0.195455
976.624	0.349259
978.285	0.349482
979.945	0.516226
981.605	0.682774
983.264	0.925773
984.924	0.857224
986.583	1.49514
988.243	0.538086
989.901	0.465323
991.56	0.679371
993.217	0.694209
994.875	0.775308
996.532	0.679902
998.188	0.981463
999.845	1.28246
1001.5	0.745895
1003.16	0.429724
1004.81	0.839421
1006.47	0.852843
1008.12	0.580847
1009.78	0.836145
1011.43	0.674789
1013.09	0.557845
1014.74	0.769916
1016.39	0.806938
1018.05	0.0566378
1019.7	0.838635
1021.35	0.265362
1023	0.0430374
1024.65	0.433488
1026.31	0.67136
1027.96	0.931056
1029.61	0.556617
1031.26	0.246855
1032.91	0.569108
1034.56	0.845997
1036.21	0.641658
1037.86	0.545816
1039.51	1.10304
1041.16	0.659382
1042.8	0.5
1044.45	0.450852
1046.1	1.38076
1047.75	1.37812
1049.39	0.725456
1051.04	0.834001
1052.69	1.18226
1054.33	0.50972
1055.98	0.532379
1057.62	0.793936
1059.27	-0.031951
1060.91	0.511339
1062.56	0.379951
1064.2	-0.339261
1065.85	0.527879
1067.49	0.719973
1069.13	-0.0231123
1070.77	0.449965
1072.42	0.14104
1074.06	0.179904
1075.7	0.197856
1077.34	0.130111
1078.98	-0.00166512
1080.62	-0.132803
1082.27	0.386601
1083.91	-0.157175
1085.55	-0.268473
1087.18	0.420436
1088.82	0.00252628
1090.46	0.254523
1092.1	0.00790501
1093.74	0.430773
1095.38	0.0978088
1097.02	-0.1477
1098.65	0.21137
1100.29	0.0331774
1101.93	0.222495
1103.56	0.219531
1105.2	0.110106
1106.84	0.366827
1108.47	0.558757
1110.11	0.491711
1111.74	0.530849
1113.38	0.117445
1115.01	-0.017437
1116.64	0.254944
1118.28	-0.309074
1119.91	0.627856
1121.54	0.38683
1123.18	0.12552
1124.81	0.59267
1126.44	0.418579
1128.07	0.394922
1129.7	0.200816
1131.33	0.263783
1132.97	0.134589
1134.6	0.00532436
1136.23	-0.124409
1137.86	0.257903
1139.49	-0.215405
1141.11	0.292957
1142.74	0.0108337
1144.37	0.283597
1146	0.172917
1147.63	0.105724
1149.26	0.145807
1150.88	-0.239714
1152.51	-0.0713663
1154.14	-0.329165
1155.76	-0.267889
1157.39	0.0272589
1159.01	0.684076
1160.64	0.426884
1162.27	0.638481
1163.89	0.298123
1165.51	-0.211882
1167.14	0.19219
1168.76	0.170169
1170.39	-0.405828
1172.01	0.0580692
1173.63	0.180294
1175.25	-0.101805
1176.88	0.018856
1178.5	0.139459
1180.12	-0.289926
1181.74	0.424277
1183.36	-0.0880318
1184.98	0.266629
1186.6	0.514521
1188.22	-0.0411005
1189.84	0.140402
1191.46	0.256765
1193.08	0.0982084
1194.7	-0.123619
1196.32	0.116416
1197.94	0.419336
1199.55	0.283741
1201.17	0.296656
1202.79	0.0821018
1204.41	0.287335
1206.02	0.36905
1207.64	0.51447
1209.25	0.576694
1210.87	-0.0291538
1212.48	0.0311384
1214.1	0.652199
1215.71	-0.124584
1217.33	0.263417
1218.94	0.234131
1220.56	0.0802174
1222.17	0.155271
1223.79	0.914975
1225.4	0.411756
1227.01	1.00722
1228.62	0.34163
1230.23	0.546035
1231.85	0.627312
1233.46	0.750933
1235.07	0.276245
1236.68	0.505287
1238.29	0.177087
1239.9	0.67644
1241.51	0.493665
1243.12	0.682929
1244.73	0.788853
1246.34	0.893924
1247.94	0.480795
1249.55	0.563636
1251.16	0.41861
1252.77	0.832273
1254.37	0.0468111
1255.98	0.668757
1257.59	0.71262
1259.2	0.633344
1260.8	0.140796
1262.41	1.13923
1264.01	0.999121
1265.62	0.734237
1267.22	0.302743
1268.83	0.409318
1270.43	0.639473
1272.03	0.848021
1273.64	0.765401
1275.24	0.22593
1276.85	0.349063
1278.45	0.927164
1280.05	1.17296
1281.65	0.197145
1283.25	0.401468
1284.85	0.544005
1286.46	0.728522
1288.06	0.748475
1289.66	0.273242
1291.26	0.790404
1292.86	0.563598
1294.46	0.584156
1296.06	0.479736
1297.66	0.890147
1299.25	1.05112
1300.85	0.324038
1302.45	0.23564
1304.05	0.743421
1305.65	0.653376
1307.24	1.15867
1308.84	0.472692
1310.43	0.402996
1312.03	0.210896
1313.63	1.00149
1315.22	0.38151
1316.82	1.04968
1318.41	0.942031
1320.01	1.32375
1321.6	0.848549
1323.2	0.983394
1324.79	0.709908
1326.38	0.537362
1327.98	0.486411
1329.57	1.00293
1331.16	0.629661
1332.76	0.157976
1334.35	0.738826
1335.94	1.3405
1337.53	1.15549
1339.12	1.13139
1340.71	0.461341
1342.3	0.917563
1343.89	0.98919
1345.48	0.838802
1347.07	0.78904
1348.66	0.820942
1350.25	0.85489
1351.84	1.11103
1353.43	0.4091
1355.01	0.228456
1356.6	0.308012
1358.19	0.586962
1359.77	0.505496
1361.36	0.503027
1362.95	0.300362
1364.53	0.895059
1366.12	0.393397
1367.71	0.828901
1369.29	0.787302
1370.88	0.408638
1372.46	0.707831
1374.04	0.828875
1375.63	0.59236
1377.21	0.793715
1378.8	-0.0400782
1380.38	0.558005
1381.96	0.677376
1383.54	0.318289
1385.13	0.217039
1386.71	0.492963
1388.29	0.431147
1389.87	0.330228
1391.45	0.428558
1393.03	0.190267
1394.61	0.587097
1396.19	0.50772
1397.77	0.744967
1399.35	0.723582
1400.93	0.978653
1402.51	-0.390248
1404.09	0.77462
1405.67	0.574308
1407.24	0.374914
1408.82	0.492531
1410.4	0.116713
1411.98	0.29401
1413.55	0.806297
1415.13	0.113789
1416.71	-0.0068512
1418.28	0.384755
1419.86	0.382193
1421.43	0.616786
1423.01	1.01002
1424.58	0.577921
1426.16	0.796487
1427.73	0.661277
1429.31	0.840784
1430.88	0.40938
1432.45	0.961032
1434.02	0.823016
1435.6	0.763337
1437.17	1.31333
1438.74	1.29366
1440.31	1.07835
1441.88	1.15875
1443.45	1.57388
1445.03	0.51535
1446.6	0.872047
1448.17	0.69818
1449.74	1.016
1451.3	1.57026
1452.87	1.61389
1454.44	1.14645
1456.01	1.01328
1457.58	1.45021
1459.15	1.41378
1460.72	0.824796
1462.28	1.08038
1463.85	1.07866
1465.42	0.958027
1466.98	1.15148
1468.55	0.795276
1470.12	1.30365
1471.68	0.910242
1473.25	0.635683
1474.81	0.930598
1476.38	1.1866
1477.94	0.305569
1479.51	0.698852
1481.07	1.03315
1482.63	0.563804
1484.2	0.447182
1485.76	1.17269
1487.32	0.917937
1488.88	1.24952
1490.45	0.0724707
1492.01	0.752603
1493.57	0.921774
1495.13	0.737753
1496.69	0.43628
1498.25	0.991563
1499.81	0.302029
1501.37	1.01281
1502.93	0.772841
1504.49	0.476037
1506.05	0.257456
1507.61	0.638313
1509.17	0.341333
1510.73	0.835177
1512.28	0.344151
1513.84	0.181218
1515.4	0.172614
1516.96	0.433294
1518.51	0.291317
1520.07	0.111871
1521.63	0.296575
1523.18	0.213022
1524.74	0.68267
1526.29	0.120626
1527.85	0.28286
1529.4	-0.240375
1530.96	0.168225
1532.51	0.215826
1534.06	-0.28515
1535.62	0.142759
1537.17	-0.204173
1538.72	0.0353203
1540.28	-0.0836143
1541.83	0.381777
1543.38	0.432127
1544.93	0.670234
1546.48	0.269057
1548.03	0.844246
1549.59	0.55599
1551.14	0.755325
1552.69	0.412198
1554.24	0.163946
1555.79	0.365465
1557.34	0.54953
1558.88	0.436563
1560.43	0.325284
1561.98	0.737725
1563.53	0.293006
1565.08	0.203207
1566.62	0.468051
1568.17	0.471487
1569.72	0.21329
1571.27	0.346739
1572.81	0.554623
1574.36	0.482378
1575.9	0.503485
1577.45	0.0767221
1579	0.191665
1580.54	0.86729
1582.09	0.423265
1583.63	0.876433
1585.17	0.994169
1586.72	0.813311
1588.26	0.557624
1589.8	0.881623
1591.35	0.569073
1592.89	0.574218
1594.43	0.878796
1595.97	0.696448
1597.52	0.49558
1599.06	0.913857
1600.6	0.939185
1602.14	0.627131
1603.68	0.709098
1605.22	0.65909
1606.76	1.1905
1608.3	0.686666
1609.84	0.443972
1611.38	0.537644
1612.92	0.535675
1614.46	0.83288
1615.99	-0.164866
1617.53	0.788408
1619.07	0.392675
1620.61	0.672735
1622.14	1.12233
1623.68	0.861109
1625.22	0.375399
1626.75	0.54428
1628.29	0.337831
1629.82	0.410902
1631.36	0.258739
1632.9	0.610709
1634.43	0.533142
1635.96	0.045846
1637.5	0.454933
1639.03	0.37951
1640.57	0.21101
1642.1	0.731461
1643.63	0.840877
1645.16	0.65139
1646.7	0.442774
1648.23	0.605806
1649.76	0.583211
1651.29	0.747019
1652.82	0.689119
1654.36	0.502444
1655.89	0.575943
1657.42	0.44555
1658.95	0.999936
1660.48	0.367943
1662.01	0.438502
1663.53	1.54319
1665.06	1.24182
1666.59	1.21805
1668.12	1.21371
1669.65	0.971066
1671.18	0.693119
1672.7	1.02417
1674.23	0.600451
1675.76	0.857974
1677.29	0.930628
1678.81	0.26644
1680.34	0.650055
1681.86	0.49969
1683.39	0.385948
1684.91	0.107237
1686.44	0.269298
1687.96	0.339886
1689.49	0.0443478
1691.01	0.390165
1692.54	0.204987
1694.06	0.202861
1695.58	0.4017
1697.11	0.910742
1698.63	0.32321
1700.15	0.411282
1701.67	-0.139541
1703.2	0.549233
1704.72	-0.0928831
1706.24	0.411956
1707.76	-0.32052
1709.28	-0.234441
1710.8	-0.0758533
1712.32	0.300192
1713.84	0.186573
1715.36	-0.144042
1716.88	0.0323029
1718.4	0.190175
1719.91	0.203257
1721.43	0.0179691
1722.95	-0.256712
1724.47	0.24453
1725.99	0.332094
1727.5	-0.371289
1729.02	0.0603037
1730.54	0.0079565
1732.05	0.436194
1733.57	0.256963
1735.09	-0.306931
1736.6	0.0735645
1738.12	0.0871086
1739.63	-0.00209045
1741.15	0.293919
1742.66	0.371668
1744.18	0.185648
1745.69	-0.11316
1747.2	-0.223535
1748.72	0.00668526
1750.23	0.171789
1751.74	9.63211e-005
1753.25	0.0138636
1754.77	0.00447559
1756.28	0.104689
1757.79	-0.16813
1759.3	-0.163363
1760.81	0.216707
1762.32	-0.263422
1763.83	-0.206607
1765.34	0.411825
1766.85	0.343326
1768.36	0.293634
1769.87	-0.397338
1771.38	0.368851
1772.89	-0.0962343
1774.4	0.084939
1775.91	0.138356
1777.41	-0.234717
1778.92	0.16054
1780.43	-0.15114
1781.94	-0.164307
1783.44	0.0866632
1784.95	0.0601645
1786.45	-0.255156
1787.96	0.174551
1789.47	-0.0359888
1790.97	0.338806
1792.47	0.0440722
1793.98	-0.106107
1795.48	-0.0583296
1796.99	-0.0664825
1798.49	-0.00252151
1800	0.33442
1801.5	-0.0252476
1803	-0.00993729
1804.51	0.109752
1806.01	0.197309
1807.51	0.33923
1809.01	0.0756311
1810.51	0.104649
1812.02	0.361684
1813.52	-0.0411959
1815.02	-0.0258589
1816.52	0.209846
1818.02	-0.243207
1819.52	-0.0495634
1821.02	-0.0874882
1822.52	-0.0278368
1824.02	0.203673
1825.51	-0.0382366
1827.01	0.282207
1828.51	0.219108
1830.01	0.376885
1831.51	0.249406
1833	-0.23361
1834.5	0.153662
1836	0.0229368
1837.49	0.413448
1838.99	-0.114761
1840.49	-0.0120792
1841.98	0.32376
1843.48	0.198058
1844.97	0.175673
1846.47	0.0221281
1847.96	0.413448
1849.46	0.151658
1850.95	0.2917
1852.45	0.14798
1853.94	-0.0132351
1855.43	-0.0986757
1856.92	0.131912
1858.42	0.109996
1859.91	-0.0610447
1861.4	0.0383816
1862.89	-0.127745
1864.39	0.0643711
1865.88	0.379981
1867.37	0.0366001
1868.86	-0.201628
1870.35	0.0605154
1871.84	-0.0827818
1873.33	0.489126
1874.82	0.0433216
1876.31	0.0476427
1877.8	0.0801392
1879.29	0.0565691
1880.77	0.223519
1882.26	-0.00619698
1882.52	-0.0646648
1884.02	0.247844
1885.51	-0.242174
1887.01	0.138353
1888.5	-0.0912409
1889.99	0.0971451
1891.49	0.321022
1892.98	-0.027523
1894.47	0.025528
1895.96	0.0973577
1897.46	-0.299602
1898.95	0.312107
1900.44	0.331573
1901.93	-0.0853443
1903.42	0.17457
1904.91	-0.401402
1906.4	0.0475807
1907.89	0.0619431
1909.38	0.024766
1910.87	-0.0635958
1912.36	0.230524
1913.85	-0.0472984
1915.34	-0.18621
1916.83	0.0560589
1918.32	-0.0489111
1919.8	-0.31015
1921.29	0.0868931
1922.78	0.0511675
1924.27	0.0335598
1925.75	0.0515957
1927.24	-0.0505943
1928.73	-0.0656528
1930.21	0.57729
1931.7	0.0246878
1933.18	0.232713
1934.67	0.352487
1936.15	-0.117622
1937.64	-0.622821
1939.12	0.168134
1940.61	0.00861645
1942.09	-0.0636587
1943.57	0.00306606
1945.06	0.0877581
1946.54	0.207215
1948.02	0.102359
1949.51	-0.00308418
1950.99	-0.0404434
1952.47	0.162321
1953.95	-0.0311871
1955.43	-0.0870361
1956.91	0.338367
1958.39	-0.145733
1959.87	-0.0797415
1961.36	0.0552626
1962.84	0.173199
1964.32	-0.000384331
1965.79	0.202492
1967.27	-0.126038
1968.75	0.161004
1970.23	-0.219478
1971.71	0.288528
1973.19	-0.211256
1974.66	0.125493
1976.14	0.257405
1977.62	0.0145826
1979.1	-0.244841
1980.57	0.125421
1982.05	0.325045
1983.53	-0.325185
1985	0.179442
1986.48	0.326905
1987.95	0.0165606
1989.43	0.0625944
1990.9	0.210698
1992.38	0.207259
1993.85	0.0187845
1995.33	0.371971
1996.8	0.117149
1998.27	-0.103759
1999.75	0.114045
2001.22	0.0611334
2002.69	-0.0259008
2004.16	0.0218916
2005.64	0.238437
2007.11	-0.083509
2008.58	0.387007
2010.05	-0.320375
2011.52	0.100754
2012.99	0.370343
2014.46	0.319729
2015.93	0.23478
2017.4	0.048152
2018.87	0.348444
2020.34	0.295105
2021.81	0.0401669
2023.28	0.0543413
2024.75	0.119548
2026.22	0.135449
2027.69	-0.0821671
2029.15	0.372457
2030.62	-0.194924
2032.09	-0.409338
2033.56	-0.153443
2035.02	0.220189
2036.49	-0.128626
2037.95	-0.0580182
2039.42	0.0290861
2040.89	0.0153141
2042.35	0.102762
2043.82	-0.111833
2045.28	0.582874
2046.75	0.28563
2048.21	0.241036
2049.67	0.179252
2051.14	0.0827808
2052.6	0.0692024
2054.06	0.256391
2055.53	0.323934
2056.99	0.272187
2058.45	0.0680943
2059.92	0.268268
2061.38	0.131918
2062.84	0.198376
2064.3	-0.239178
2065.76	0.24981
2067.22	0.201012
2068.68	0.0349255
2070.14	-0.114084
2071.6	-0.296751
2073.06	0.0592184
2074.52	0.53291
2075.98	0.147517
2077.44	0.182781
2078.9	0.0324526
2080.36	-0.000388622
2081.82	0.134657
2083.27	-0.118087
2084.73	-0.0179563
2086.19	0.36743
2087.65	0.382032
2089.1	0.093739
2090.56	0.0575109
2092.01	0.239503
2093.47	0.236649
2094.93	-0.303072
2096.38	0.514976
2097.84	0.594421
2099.29	0.104153
2100.75	0.0825915
2102.2	0.245061
2103.66	0.107471
2105.11	-0.229101
2106.56	0.219913
2108.02	0.0191107
2109.47	-0.114594
2110.92	0.168065
2112.37	0.332725
2113.83	-0.303626
2115.28	0.340808
2116.73	0.21863
2118.18	0.578633
2119.63	0.341765
2121.09	-0.0755787
2122.54	-0.159245
2123.99	0.255823
2125.44	0.15736
2126.89	-0.0407858
2128.34	0.489637
2129.79	-0.141398
2131.23	0.0220013
2132.68	-0.0471907
2134.13	0.313784
2135.58	0.195562
2137.03	0.227466
2138.48	0.21138
2139.92	0.246516
2141.37	0.167363
2142.82	-0.0431037
2144.26	0.706324
2145.71	0.215235
2147.16	0.336095
2148.6	0.0589948
2150.05	0.145472
2151.49	0.0985899
2152.94	0.0177293
2154.38	0.549219
2155.83	0.169048
2157.27	-0.0122023
2158.72	0.254404
2160.16	0.190829
2161.6	0.526419
2163.05	0.465983
2164.49	0.423397
2165.93	0.165658
2167.38	0.156687
2168.82	0.130209
2170.26	0.401597
2171.7	0.155646
2173.14	0.490263
2174.58	0.540869
2176.03	0.524428
2177.47	0.458286
2178.91	0.226561
2180.35	0.3947
2181.79	0.297576
2183.23	0.250815
2184.67	-0.0618443
2186.1	0.224338
2187.54	0.377539
2188.98	0.447617
2190.42	0.551005
2191.86	0.188039
2193.3	0.423756
2194.73	0.358659
2196.17	0.641569
2197.61	0.406748
2199.05	0.553111
2200.48	0.116836
2201.92	0.295364
2203.35	0.623507
2204.79	0.25581
2206.22	0.519168
2207.66	0.0538392
2209.09	0.367048
2210.53	0.248961
2211.96	0.295558
2213.4	0.440613
2214.83	0.23849
2216.27	0.218726
2217.7	-0.113492
2219.13	0.0668392
2220.56	0.346688
2222	0.659446
2223.43	0.328837
2224.86	0.425442
2226.29	0.487496
2227.72	0.531536
2229.16	-0.0661798
2230.59	0.0913539
2232.02	0.11726
2233.45	0.454339
2234.88	0.398937
2236.31	0.638747
2237.74	0.210294
2239.17	0.404043
2240.6	0.175321
2242.03	0.127662
2243.45	0.260493
2244.88	0.0184937
2246.31	0.183709
2247.74	0.102905
2249.17	-0.126411
2250.59	0.0988026
2252.02	0.110569
2253.45	-0.122343
2254.87	-0.0133977
2256.3	0.0965915
2257.73	0.240918
2259.15	0.144294
2260.58	0.326041
2262	0.266564
2263.43	-0.19759
2264.85	0.329277
2266.28	0.271073
2267.7	0.147038
2269.13	0.136019
2270.55	-0.364073
2271.97	0.17726
2273.4	0.262664
2274.82	0.250446
2276.24	0.124337
2277.66	0.226495
2279.09	0.0842276
2280.51	0.202748
2281.93	0.0928631
2283.35	0.0644212
2284.77	0.231826
2286.19	0.0893703
2287.61	0.143084
2289.04	0.246223
2290.46	0.31711
2291.88	0.159443
2293.29	0.214355
2294.71	-0.0415735
2296.13	0.373317
2297.55	0.182618
2298.97	0.286685
2300.39	-0.149851
2301.81	-0.143822
2303.23	0.0101056
2304.64	0.328479
2306.06	-0.174048
2307.48	0.111332
2308.89	0.412933
2310.31	0.105815
2311.73	0.192922
2313.14	0.24714
2314.56	0.0219316
2315.97	-0.136958
2317.39	0.281293
2318.8	0.189371
2320.22	-0.166754
2321.63	0.284384
2323.05	0.387558
2324.46	0.307126
2325.88	0.389699
2327.29	0.915922
2328.7	0.60035
2330.12	0.46649
2331.53	0.267715
2332.94	-0.0286641
2334.35	0.202391
2335.76	0.433561
2337.18	-0.0265241
2338.59	0.301976
2340	0.333394
2341.41	-0.0794582
2342.82	0.508834
2344.23	0.0139313
2345.64	0.0443659
2347.05	0.255179
2348.46	0.0401683
2349.87	0.0213995
2351.28	0.443337
2352.69	-0.132563
2354.1	0.123936
2355.5	0.330417
2356.91	0.145386
2358.32	0.416132
2359.73	-0.0284662
2361.14	0.0960116
2362.54	-0.18511
2363.95	-0.174201
2365.36	-0.308962
2366.76	0.170839
2368.17	0.375719
2369.58	0.129478
2370.98	0.0459814
2372.39	0.108737
2373.79	-0.246372
2375.2	0.397125
2376.6	-0.0221448
2378	-0.393663
2379.41	0.133844
2380.81	-0.0794139
2382.22	0.267772
2383.62	0.228992
2385.02	0.430017
2386.42	0.391276
2387.83	0.35343
2389.23	0.173234
2390.63	0.0263286
2392.03	0.0876184
2393.43	0.0224185
2394.84	-0.24875
2396.24	0.148615
2397.64	-0.20071
2399.04	0.149762
2400.44	-0.0872684
2401.84	-0.0221581
2403.24	-0.0205588
2404.64	-0.241563
2406.04	-0.0822115
2407.44	-0.0665631
2408.83	0.344887
2410.23	-0.100338
2411.63	0.0254331
2413.03	-0.0224171
2414.43	0.263332
2415.83	0.154512
2417.22	0.252669
2418.62	0.335822
2420.02	-0.024106
2421.41	0.170132
2422.81	-0.0794611
2424.21	0.0825958
2425.6	0.00704861
2427	0.0904112
2428.39	0.0160203
2429.79	0.354753
2431.18	0.0597053
2432.58	0.272504
2433.97	0.040359
2435.36	0.28367
2436.76	-0.268651
2438.15	0.226322
2439.54	0.0687604
2440.94	-0.168914
2442.33	-0.0735264
2443.72	0.211959
2445.11	0.195693
2446.51	-0.0585127
2447.9	0.242045
2449.29	0.320557
2450.68	0.00336885
2452.07	0.177539
2453.46	-0.0433016
2454.85	-0.421519
2456.24	0.181695
2457.63	0.0416574
2459.02	0.170389
2460.41	0.266966
2461.8	-0.285442
2463.19	-0.142753
2464.58	0.188933
2465.97	0.0147247
2467.36	0.156293
2468.75	-0.0178776
2470.13	0.328376
2471.52	0.248295
2472.91	0.120444
2474.29	0.228224
2475.68	0.618416
2477.07	-0.155432
2478.45	0.218357
2479.84	0.0267801
2481.22	0.0394859
2482.61	0.161784
2484	0.189555
2485.38	0.122671
2486.77	0.226792
2488.15	-0.0447888
2489.54	-0.222823
2490.92	-0.260448
2492.3	0.0133386
2493.69	0.31845
2495.07	-0.0739369
2496.45	0.062429
2497.84	0.0289469
2499.22	0.320789
2500.6	0.302586
2501.98	0.299173
2503.36	0.0478563
2504.74	0.289848
2506.13	-0.147172
2507.51	0.447739
2508.89	0.165145
2510.27	0.144608
2511.65	-0.166832
2513.03	-0.0784979
2514.41	-0.112117
2515.79	0.0540242
2517.17	-0.177097
2518.55	-0.162887
2519.93	0.264039
2521.3	0.125197
2522.68	0.275952
2524.06	0.0902166
2525.44	0.391834
2526.82	0.0683899
2528.19	-0.102035
2529.57	0.0784349
2530.95	0.320855
2532.32	0.306282
2533.7	-0.178058
2535.08	-0.0540314
2536.45	0.0547652
2537.83	0.193361
2539.2	0.133647
2540.58	0.209894
2541.95	-0.139193
2543.33	0.528735
2544.7	0.0290518
2546.08	0.197951
2547.45	0.201058
2548.82	-0.0681748
2550.2	0.33022
2551.57	0.0302191
2552.94	0.0481048
2554.32	0.110631
2555.69	-0.191754
2557.06	0.218418
2558.43	0.0975366
2559.8	0.401409
2561.17	-0.00673151
2562.55	0.373837
2563.92	-0.230136
2565.29	-0.121498
2566.66	-0.0277991
2568.03	0.172069
2569.4	0.47806
2570.77	0.0565534
2572.14	0.241344
2573.51	0.0321045
2574.88	0.368668
2576.24	0.18984
2577.61	-0.0194054
2578.98	0.195696
2580.35	-0.0140581
2581.72	-0.133178
2583.09	0.0354772
2584.45	0.203895
2585.82	-0.127985
2587.19	0.22235
2588.55	0.254526
2589.92	0.377722
2591.28	0.48564
2592.65	0.21433
2594.02	0.321123
2595.38	0.305812
2596.75	-0.0585275
2598.11	0.469379
2599.48	0.195041
2600.84	0.087327
2602.2	0.251997
2603.57	0.52276
2604.93	0.0393252
2606.3	0.491646
2607.66	0.00846863
2609.02	0.233358
2610.38	0.276204
2611.75	0.137227
2613.11	-0.213015
2614.47	0.232901
2615.83	-0.207651
2617.19	0.0124588
2618.56	-0.00696468
2619.92	0.0491195
2621.28	0.255262
2622.64	0.252378
2624	-0.0937357
2625.36	0.276835
2626.72	0.139678
2628.08	0.13654
2629.44	0.162921
2630.8	0.308108
2632.15	-0.0970712
2633.51	0.196496
2634.87	-0.104114
2636.23	0.218596
2637.59	0.466684
2638.94	0.299842
2640.3	0.444094
2641.66	0.0857167
2643.02	0.171291
2644.37	0.301181
2645.73	-0.159275
2647.08	-0.162409
2648.44	0.36415
2649.8	0.285724
2651.15	-0.0577698
2652.51	0.0397472
2653.86	0.0638952
2655.22	0.440407
2656.57	-0.134729
2657.92	0.418919
2659.28	0.0511093
2660.63	0.283507
2661.99	0.281724
2663.34	0.659181
2664.69	0.188849
2666.04	-0.193955
2667.4	0.152113
2668.75	0.191746
2670.1	0.318851
2671.45	0.228135
2672.81	-0.152511
2674.16	0.208432
2675.51	0.308227
2676.86	0.0747313
2678.21	0.393107
2679.56	0.190033
2680.91	0.0314274
2682.26	0.265298
2683.61	0.23923
2684.96	0.213977
2686.31	0.174603
2687.66	0.10604
2689	-0.0942082
2690.35	0.154156
2691.7	0.284796
2693.05	0.167394
2694.4	-0.139237
2695.74	0.0615425
2697.09	0.248148
2698.44	0.0447268
2699.79	-0.142722
2701.13	0.163605
2702.48	-0.194984
2703.82	0.461387
2705.17	0.103968
2706.52	0.0798597
2707.86	-0.0605879
2709.21	0.00175333
2710.55	0.383306
2711.9	0.14023
2713.24	0.536255
2714.58	0.27836
2715.93	0.369208
2717.27	0.0382104
2718.61	0.506949
2719.96	0.393545
2721.3	0.148721
2722.64	0.354618
2723.99	0.531024
2725.33	0.677937
2726.67	0.256856
2728.01	0.548687
2729.35	0.170846
2730.7	0.345883
2732.04	-0.192032
2733.38	0.448548
2734.72	0.0709596
2736.06	0.217204
2737.4	0.465353
2738.74	0.015389
2740.08	0.379628
2741.42	0.496195
2742.76	0.0742817
2744.09	0.175174
2745.43	0.478853
2746.77	0.230098
2748.11	0.373301
2749.45	0.400346
2750.79	0.137476
2752.12	-0.168466
2753.46	0.105705
2754.8	0.307399
2756.13	0.29183
2757.47	-0.071104
2758.81	0.203309
2760.14	0.173994
2761.48	-0.332443
2762.81	-0.0859613
2764.15	0.290966
2765.49	0.132519
2766.82	0.364318
2768.15	0.14686
2769.49	-0.0571036
2770.82	0.0413861
2772.16	0.196379
2773.49	0.350251
2774.82	0.388048
2776.16	0.396926
2777.49	-0.16955
2778.82	0.401382
2780.16	0.368378
2781.49	0.0915685
2782.82	-0.0843377
2784.15	0.299262
2785.48	0.252368
2786.81	-0.0664387
2788.15	0.0736189
2789.48	-0.172125
2790.81	-0.0164652
2792.14	0.125442
2793.47	-0.275546
2794.8	0.0382719
2796.13	0.0944734
2797.46	-0.149774
2798.79	0.191091
2800.12	-0.125195
2801.44	0.114924
2802.77	-0.115871
2804.1	0.237627
2805.43	0.034904
2806.76	0.0738854
2808.08	-0.0441728
2809.41	-0.290309
2810.74	-0.0816231
2812.07	0.0279145
2813.39	0.166623
2814.72	0.0512328
2816.05	-0.0628829
2817.37	0.0790787
2818.7	-0.00525618
2820.02	0.264756
2821.35	0.37847
2822.67	0.179819
2824	0.320734
2825.32	0.29131
2826.65	0.162809
2827.97	-0.00768328
2829.29	0.459391
2830.62	0.176528
2831.94	0.573331
2833.26	0.403858
2834.59	0.602129
2835.91	0.573495
2837.23	0.148227
2838.55	0.430067
2839.88	0.386322
2841.2	0.243719
2842.52	0.412492
2843.84	0.49694
2845.16	0.299323
2846.48	0.73817
2847.8	0.908817
2849.12	0.924026
2850.44	0.924848
2851.76	0.868722
2853.08	0.670852
2854.4	0.515103
2855.72	1.00916
2857.04	0.79674
2858.36	0.979902
2859.68	1.12063
2861	1.24705
2862.32	1.10492
2863.63	1.48477
2864.95	1.42678
2866.27	1.46755
2867.58	1.67774
2868.9	1.80361
2870.22	1.56325
2871.53	1.44996
2872.85	1.98477
2874.17	1.7156
2875.48	1.72742
2876.8	2.217
2878.11	2.11441
2879.43	2.08199
2880.74	2.26071
2882.06	1.75153
2883.37	1.84753
2884.69	1.95831
2886	1.873
2887.31	1.78779
2888.63	2.09514
2889.94	1.61614
2891.25	2.11834
2892.57	2.22716
2893.88	1.99953
2895.19	2.17848
2896.5	2.20399
2897.82	2.21637
2899.13	2.20161
2900.44	2.14554
2901.75	2.27171
2903.06	1.89448
2904.37	2.28669
2905.68	2.51127
2906.99	2.41459
2908.3	2.79419
2909.61	2.74086
2910.92	2.74396
2912.23	2.73306
2913.54	2.46954
2914.85	3.07288
2916.16	2.69483
2917.46	2.93146
2918.77	3.19512
2920.08	3.33259
2921.39	3.07904
2922.7	3.32986
2924	3.26028
2925.31	3.45722
2926.62	3.38908
2927.92	3.64251
2929.23	3.44828
2930.53	3.44931
2931.84	3.49189
2933.15	3.56222
2934.45	3.5766
2935.76	3.633
2937.06	3.38209
2938.37	3.46673
2939.67	3.21623
2940.98	3.10588
2942.28	2.89838
2943.58	2.7337
2944.89	2.59796
2946.19	2.64484
2947.49	2.87412
2948.8	2.64151
2950.1	2.67387
2951.4	2.28476
2952.7	2.5803
2954.01	2.67867
2955.31	2.51073
2956.61	2.63746
2957.91	2.52786
2959.21	2.33637
2960.51	2.17492
2961.81	2.39338
2963.11	2.17787
2964.41	2.41087
2965.71	2.02494
2967.01	2.05895
2968.31	2.10598
2969.61	2.01183
2970.91	1.98785
2972.21	1.93596
2973.51	1.87024
2974.81	1.81856
2976.1	2.07611
2977.4	1.85394
2978.7	1.6867
2980	1.70111
2981.29	1.06717
2982.59	1.64289
2983.89	1.40296
2985.18	1.23435
2986.48	1.43237
2987.78	1.40672
2989.07	1.19919
2990.37	0.865382
2991.66	1.16361
2992.96	1.44692
2994.25	0.857942
2995.55	0.731887
2996.84	0.605341
2998.14	0.689233
2999.43	0.829346
3000.72	0.815537
3002.02	0.549922
3003.31	0.312834
3004.6	0.342131
3005.9	0.413213
3007.19	0.567741
3008.48	0.315698
3009.77	0.384815
3011.07	0.4672
3012.36	0.339682
3013.65	0.421607
3014.94	0.211008
3016.23	0.32167
3017.52	0.446731
3018.81	0.16856
3020.1	0.447036
3021.39	0.224469
3022.68	0.237606
3023.97	0.16665
3025.26	0.0397387
3026.55	0.176042
3027.84	-0.213341
3029.13	-0.089622
3030.42	0.118004
3031.71	0.243751
3033	-0.00246429
3034.28	-0.0274353
3035.57	0.181704
3036.86	0.113825
3038.15	-0.106958
3039.43	0.373006
3040.72	-0.249013
3042.01	0.159275
3043.29	0.0729599
3044.58	0.0149579
3045.86	0.259229
3047.15	0.176992
3048.44	0.233357
3049.72	-0.0633898
3051.01	-0.0721378
3052.29	0.015295
3053.58	0.293771
3054.86	-0.0422568
3056.14	0.371131
3057.43	0.224381
3058.71	0.308728
3060	0.297434
3061.28	0.109564
3062.56	-0.009305
3063.84	0.226551
3065.13	0.164501
3066.41	0.457098
3067.69	0.0571733
3068.97	0.160625
3070.25	0.236696
3071.54	-0.422365
3072.82	0.0464511
3074.1	0.228556
3075.38	0.137981
3076.66	-0.224371
3077.94	0.28266
3079.22	-0.1596
3080.5	0.132113
3081.78	-0.0632596
3083.06	0.0950875
3084.34	0.0505347
3085.62	-0.224689
3086.9	0.286913
3088.17	-0.165716
3089.45	-0.265975
3090.73	-0.122298
3092.01	0.15688
3093.29	-0.0115237
3094.56	0.0238109
3095.84	0.0864863
3097.12	0.162782
3098.4	-0.303114
3099.67	0.0305471
3100.95	-0.110148
3102.22	0.0878634
3103.5	0.231848
3104.77	0.010747
3106.05	-0.00665712
3107.33	0.193226
3108.6	-0.323293
3109.88	-0.0675383
3111.15	0.256846
3112.43	0.0809379
3113.7	-0.257361
3114.97	-0.0401111
3116.25	0.271857
3117.52	0.0678749
3118.79	0.066421
3120.07	0.1319
3121.34	-0.196556
3122.61	-0.172881
3123.88	0.216384
3125.16	-0.112141
3126.43	0.439694
3127.7	0.396327
3128.97	0.299349
3130.24	0.175703
3131.51	0.363129
3132.78	0.171976
3134.05	0.304854
3135.33	0.410193
3136.59	0.339549
3137.86	0.362965
3139.14	0.264812
3140.41	0.27437
3141.67	0.297421
3142.94	0.320706
3144.21	0.183271
3145.48	0.247787
3146.75	0.554096
3148.02	0.25772
3149.28	0.444208
