200.388	0.145808
202.204	0.154155
204.019	0.163771
205.832	-0.0931892
207.646	0.18531
209.459	0.463272
211.274	0.0600548
213.087	-0.270914
214.899	-0.359722
216.711	0.0117035
218.524	0.261613
220.335	0.70542
222.146	-0.350104
223.956	-0.025527
225.766	-0.570646
227.576	0.0927191
229.388	0.248249
231.197	0.596319
233.005	0.123652
234.813	0.0617275
236.621	0.266168
238.429	0.327839
240.236	-0.258973
242.045	0.795668
243.852	0.76698
245.658	0.545312
247.464	0.153205
249.269	0.265748
251.074	0.858474
252.879	-0.120403
254.683	-0.086751
256.487	0.718057
258.291	0.534819
260.094	0.642418
261.897	0.19781
263.702	0.21257
265.504	0.0597324
267.306	1.01589
269.108	1.46606
270.909	0.30039
272.71	0.266732
274.511	0.0390215
276.311	-0.117668
278.111	0.30255
279.91	0.263063
281.709	0.197783
283.508	0.63602
285.306	-0.129123
287.105	0.0666761
288.9	-0.00164127
290.698	0.0506535
292.495	-0.350713
294.291	-0.247769
296.088	0.334585
297.884	0.104937
299.679	-0.00453568
301.475	0.0770845
303.27	-0.00913143
305.064	0.213963
306.858	-0.494171
308.652	0.514662
310.444	0.474623
312.237	-0.8027
314.03	0.470001
315.822	0.315511
317.615	0.186544
319.406	0.0113468
321.198	0.623663
322.987	0.617384
324.778	0.516188
326.568	0.677707
328.358	0.0986633
330.148	-0.0512877
331.935	-0.0110292
333.724	0.171415
335.513	-0.102548
337.301	0.363314
339.089	0.396555
340.875	0.332708
342.662	0.507243
344.449	0.538247
346.236	0.521966
348.02	-0.20994
349.806	0.754015
351.592	0.357209
353.375	0.437393
355.16	-0.00814247
356.944	0.45162
358.728	0.385477
360.51	-0.729452
362.294	0.298191
364.077	0.324931
365.858	-0.0291014
367.64	-0.0508442
369.422	0.780375
371.202	0.353705
372.983	0.424232
374.764	-0.0256386
376.543	0.517064
378.324	-0.0256214
380.102	0.211056
381.881	1.34286
383.661	0.333827
385.438	-0.179008
387.216	0.719688
388.993	0.23288
390.771	0.334444
392.548	0.765577
394.324	-0.0943079
396.101	0.243919
397.875	0.206542
399.651	0.192563
401.425	0.95335
403.201	0.44527
404.974	0.735111
406.749	1.23558
408.524	0.678811
410.296	0.521029
412.07	0.363382
413.841	0.206203
415.614	0.730186
417.385	0.386781
419.156	0.865321
420.928	0.217731
422.698	0.180103
424.469	0.188868
426.238	0.337707
428.009	-0.0775757
429.777	0.563069
431.548	0.522958
433.315	-0.0331612
435.083	-0.00217915
436.852	0.451303
438.618	0.129725
440.387	0.393623
442.153	-0.141923
443.919	0.00104427
445.686	-0.0217714
447.451	0.305474
449.218	-0.280272
450.982	0.0463066
452.746	0.32596
454.512	-0.16434
456.275	0.138616
458.038	0.557446
459.803	-0.00166893
461.565	0.533606
463.327	0.000526428
465.091	0.143824
466.852	0.0340548
468.613	0.182352
470.374	-0.0627966
472.136	0.20434
473.896	0.215087
475.655	0.480525
477.415	0.977079
479.176	0.679891
480.934	0.358488
482.692	0.409904
484.45	0.578834
486.21	-0.0424471
487.967	0.503094
489.724	0.514765
491.481	0.41075
493.237	0.0502052
494.995	0.601282
496.75	0.825621
498.506	-0.261921
500.26	0.477335
502.015	0.630553
503.769	0.642294
505.525	0.512015
507.279	0.780101
509.032	0.647098
510.785	0.206663
512.537	0.776557
514.289	0.356819
516.041	0.594676
517.793	0.196344
519.546	0.173551
521.297	0.173615
523.047	0.220237
524.797	0.876888
526.547	0.711772
528.297	0.031045
530.046	0.475826
531.795	0.615319
533.543	0.636912
535.291	0.774384
537.039	-0.0244503
538.787	0.134235
540.534	0.2216
542.281	0.00524521
544.027	0.440503
545.773	0.363476
547.519	0.356437
549.264	0.164194
551.01	-0.258964
552.754	1.14638
554.499	0.977636
556.243	0.324773
557.987	0.180919
559.73	0.383384
561.474	0.19467
563.216	0.466836
564.959	0.509289
566.701	0.460403
568.441	-0.138683
570.182	-0.0478363
571.923	0.342355
573.664	0.756804
575.405	0.415861
577.145	0.145169
578.885	0.10504
580.624	0.41008
582.361	0.393847
584.1	0.377162
585.839	0.474567
587.577	-0.0271807
589.315	0.160054
591.052	-0.044631
592.787	-0.0657253
594.524	-0.294021
596.26	-0.0391312
597.997	0.146718
599.732	-0.311894
601.466	0.379074
603.201	0.815729
604.936	-0.128591
606.67	0.833982
608.403	0.370944
610.136	0.0919075
611.87	-0.0717306
613.603	0.659642
615.334	0.405524
617.067	0.701644
618.799	0.584879
620.529	0.0781403
622.26	0.0741911
623.991	0.618137
625.72	0.56734
627.451	0.905633
629.181	0.286895
630.909	0.537624
632.638	0.493539
634.368	0.0852661
636.095	0.0418749
637.823	0.727556
639.551	0.52062
641.277	0.584929
643.005	0.236709
644.73	0.388884
646.457	0.92769
648.184	-0.351239
649.908	0.600542
651.634	0.737324
653.357	-0.167931
655.083	0.634602
656.806	0.689185
658.53	0.220555
660.253	0.435126
661.977	0.214882
663.7	0.540811
665.422	0.430573
667.145	0.592978
668.865	0.617484
670.588	0.917021
672.308	0.53193
674.027	0.652359
675.749	0.86658
677.468	0.577612
679.188	0.609773
680.907	0.710116
682.627	0.694036
684.345	0.837162
686.064	0.310801
687.781	0.496767
689.498	0.958241
691.216	0.843208
692.932	0.428163
694.65	0.979877
696.366	0.63246
698.081	0.698543
699.797	1.13163
701.512	0.482311
703.228	0.545409
704.942	1.25089
706.655	0.784391
708.371	0.799796
710.083	1.63972
711.796	0.783731
713.51	0.958252
715.222	0.812335
716.934	0.940612
718.645	1.11435
720.358	1.06001
722.068	0.778178
723.779	0.565134
725.49	1.05709
727.2	0.752957
728.909	1.44749
730.618	0.870715
732.329	1.35919
734.037	1.16773
735.745	1.27052
737.453	1.30567
739.16	0.867578
740.869	0.746638
742.576	1.77575
744.282	0.981228
745.988	1.31391
747.694	1.01768
749.401	1.01516
751.107	0.721356
752.811	1.1709
754.516	1.37429
756.22	0.85894
757.924	1.51528
759.627	1.4527
761.332	1.34598
763.035	1.62314
764.738	1.60696
766.44	2.01904
768.142	1.57088
769.843	1.73092
771.544	1.48208
773.245	1.84245
774.946	1.56918
776.646	1.92944
778.346	1.5673
780.046	1.38733
781.745	1.70597
783.444	1.43658
785.143	1.07556
786.841	1.91226
788.539	1.27488
790.237	2.64827
791.934	2.14119
793.631	1.47535
795.328	1.57745
797.024	1.0941
798.72	2.1894
800.416	1.6193
802.112	1.74852
803.807	2.1931
805.502	1.44575
807.196	2.38358
808.89	1.56768
810.584	2.36753
812.278	1.2144
813.971	1.74302
815.664	1.91233
817.354	1.45498
819.047	2.07121
820.739	2.35157
822.43	1.60541
824.122	1.50766
825.813	1.7009
827.503	2.05169
829.192	2.3602
830.882	2.64924
832.571	2.18364
834.261	2.05398
835.95	2.41583
837.637	1.90757
839.325	1.88896
841.013	1.64554
842.701	1.95929
844.389	1.91513
846.074	1.26799
847.761	1.561
849.447	1.45367
851.131	2.19919
852.817	1.60305
854.503	1.61234
856.188	1.71137
857.871	1.13512
859.556	2.06406
861.24	1.23639
862.922	1.37503
864.606	1.76056
866.289	1.64953
867.97	1.65057
869.653	1.4933
871.336	1.60636
873.016	1.74181
874.698	1.01977
876.379	1.26789
878.058	1.80949
879.739	0.929025
881.418	1.8992
883.098	1.22082
884.778	1.35418
886.456	0.69636
888.135	1.32363
889.812	1.72348
891.49	1.58063
893.167	1.59441
894.845	0.999542
896.523	1.19162
898.198	2.23582
899.875	1.10094
901.55	1.53635
903.226	1.52261
904.901	0.927628
906.576	0.847675
908.25	1.2589
909.925	0.801369
911.598	0.701504
913.271	1.09135
914.945	0.94784
916.617	1.04866
918.291	1.70328
919.962	0.983937
921.635	0.775142
923.306	1.23074
924.978	1.20105
926.648	1.32751
928.318	1.16839
929.989	1.18695
931.659	1.49293
933.328	1.26961
934.998	1.57584
936.666	0.956047
938.336	1.19714
940.004	0.909902
941.671	0.733891
943.34	1.13212
945.007	1.79529
946.673	1.22154
948.339	1.24213
950.007	1.23897
951.672	1.19056
953.337	1.31861
955.004	1.31555
956.669	0.719432
958.333	1.18456
959.997	0.835859
961.662	0.841443
963.326	1.06802
964.989	1.44831
966.651	1.09648
968.315	0.896962
969.977	1.31508
971.639	1.75434
973.301	0.888983
974.962	1.37393
976.624	0.776775
978.285	1.04341
979.945	0.989912
981.605	0.936072
983.264	1.20209
984.924	1.0237
986.583	0.865687
988.243	1.74604
989.901	0.722718
991.56	0.849115
993.217	1.17397
994.875	0.990786
996.532	0.785826
998.188	1.39689
999.845	1.30187
1001.5	0.964356
1003.16	1.08905
1004.81	1.27923
1006.47	1.18333
1008.12	0.780192
1009.78	0.465645
1011.43	0.371161
1013.09	0.803146
1014.74	0.753047
1016.39	1.36007
1018.05	0.785326
1019.7	0.69294
1021.35	0.798243
1023	0.729531
1024.65	0.421247
1026.31	1.27168
1027.96	0.570627
1029.61	0.328023
1031.26	0.674231
1032.91	1.32448
1034.56	1.18713
1036.21	1.20133
1037.86	0.844379
1039.51	0.487874
1041.16	1.19823
1042.8	1.27834
1044.45	1.49022
1046.1	1.46476
1047.75	1.22384
1049.39	1.46219
1051.04	1.61483
1052.69	1.4424
1054.33	1.20505
1055.98	1.05451
1057.62	1.03409
1059.27	1.05672
1060.91	0.861329
1062.56	1.0349
1064.2	0.68581
1065.85	0.662006
1067.49	0.811148
1069.13	1.02452
1070.77	0.17301
1072.42	0.950108
1074.06	0.359945
1075.7	0.616965
1077.34	0.788188
1078.98	0.9821
1080.62	0.67792
1082.27	0.568917
1083.91	0.632668
1085.55	0.695058
1087.18	0.365675
1088.82	0.7495
1090.46	0.265797
1092.1	0.408814
1093.74	0.745461
1095.38	0.196977
1097.02	0.727945
1098.65	0.677571
1100.29	0.693305
1101.93	0.344802
1103.56	1.22421
1105.2	0.233107
1106.84	0.726743
1108.47	0.875958
1110.11	0.572687
1111.74	0.418725
1113.38	0.607244
1115.01	0.472446
1116.64	0.165655
1118.28	0.0094099
1119.91	-0.0175858
1121.54	0.791308
1123.18	0.936798
1124.81	0.163033
1126.44	0.395741
1128.07	0.800043
1129.7	0.926837
1131.33	0.861683
1132.97	0.540261
1134.6	0.753181
1136.23	0.174728
1137.86	0.0657406
1139.49	0.489838
1141.11	0.763272
1142.74	0.502489
1144.37	0.28469
1146	0.0889511
1147.63	0.213782
1149.26	0.38184
1150.88	-0.00358009
1152.51	0.399108
1154.14	0.141333
1155.76	0.564417
1157.39	-0.076704
1159.01	0.133613
1160.64	0.259418
1162.27	0.662479
1163.89	0.577322
1165.51	0.450082
1167.14	-0.0813313
1168.76	0.364438
1170.39	-0.232793
1172.01	0.018672
1173.63	-0.0288143
1175.25	0.495575
1176.88	-0.0412798
1178.5	0.397231
1180.12	0.242943
1181.74	0.428036
1183.36	0.275201
1184.98	0.24937
1186.6	0.624032
1188.22	0.427086
1189.84	-0.213815
1191.46	0.324158
1193.08	0.481042
1194.7	0.762733
1196.32	0.225909
1197.94	0.675381
1199.55	0.351349
1201.17	0.71945
1202.79	0.608992
1204.41	0.89741
1206.02	0.791088
1207.64	0.811154
1209.25	0.831491
1210.87	0.78858
1212.48	0.452353
1214.1	0.552156
1215.71	0.504163
1217.33	0.829142
1218.94	0.882374
1220.56	0.0634518
1222.17	0.885078
1223.79	0.608034
1225.4	0.332698
1227.01	0.824616
1228.62	0.551929
1230.23	0.838778
1231.85	0.320312
1233.46	0.71242
1235.07	0.940172
1236.68	0.693582
1238.29	0.923279
1239.9	0.409249
1241.51	0.432902
1243.12	0.890759
1244.73	0.686005
1246.34	0.563119
1247.94	0.273836
1249.55	0.128794
1251.16	0.438634
1252.77	0.769232
1254.37	0.70736
1255.98	0.563646
1257.59	1.33117
1259.2	1.10679
1260.8	0.572567
1262.41	1.21869
1264.01	0.290982
1265.62	0.709242
1267.22	1.04424
1268.83	1.58589
1270.43	1.27664
1272.03	0.924947
1273.64	1.13215
1275.24	0.550756
1276.85	1.21218
1278.45	0.588126
1280.05	1.28922
1281.65	1.07874
1283.25	0.827148
1284.85	0.658916
1286.46	0.140087
1288.06	0.242399
1289.66	0.655386
1291.26	0.676106
1292.86	0.221551
1294.46	0.737479
1296.06	1.21081
1297.66	1.37273
1299.25	0.522061
1300.85	0.557744
1302.45	0.592336
1304.05	0.955326
1305.65	0.926352
1307.24	1.08182
1308.84	1.77009
1310.43	1.24774
1312.03	1.05434
1313.63	0.596079
1315.22	1.01816
1316.82	1.27699
1318.41	0.658633
1320.01	0.958538
1321.6	1.54239
1323.2	0.536501
1324.79	0.446017
1326.38	0.943298
1327.98	1.11439
1329.57	1.20445
1331.16	1.31588
1332.76	0.6814
1334.35	0.877696
1335.94	1.23657
1337.53	0.809011
1339.12	1.16753
1340.71	1.58456
1342.3	0.912291
1343.89	0.68189
1345.48	1.3545
1347.07	0.922606
1348.66	0.81361
1350.25	1.10717
1351.84	1.00251
1353.43	1.03973
1355.01	0.77829
1356.6	1.27666
1358.19	0.675692
1359.77	0.793213
1361.36	0.889742
1362.95	0.706154
1364.53	1.12053
1366.12	0.598155
1367.71	1.07271
1369.29	1.12986
1370.88	0.630981
1372.46	0.312565
1374.04	0.214001
1375.63	0.673142
1377.21	1.19212
1378.8	0.775435
1380.38	0.457422
1381.96	1.0336
1383.54	0.792967
1385.13	0.432377
1386.71	0.866408
1388.29	0.803681
1389.87	1.25765
1391.45	0.422297
1393.03	1.23465
1394.61	0.301622
1396.19	0.26119
1397.77	0.477914
1399.35	0.574756
1400.93	0.670693
1402.51	0.746206
1404.09	0.841367
1405.67	0.818213
1407.24	1.01324
1408.82	0.576601
1410.4	2.511
1411.98	2.17337
1413.55	1.12475
1415.13	1.3192
1416.71	0.329424
1418.28	0.858015
1419.86	0.696805
1421.43	0.753232
1423.01	0.535371
1424.58	0.988184
1426.16	0.772881
1427.73	0.951722
1429.31	1.16973
1430.88	0.914572
1432.45	0.520722
1434.02	0.932816
1435.6	0.596917
1437.17	0.615261
1438.74	1.2632
1440.31	0.968414
1441.88	0.694176
1443.45	1.30494
1445.03	1.22821
1446.6	1.36784
1448.17	1.19312
1449.74	1.35281
1451.3	1.23768
1452.87	1.39832
1454.44	1.2053
1456.01	1.52376
1457.58	1.54659
1459.15	1.01724
1460.72	0.939033
1462.28	1.29206
1463.85	1.3287
1465.42	1.12843
1466.98	0.790524
1468.55	0.924463
1470.12	0.960902
1471.68	1.01791
1473.25	0.997388
1474.81	0.546163
1476.38	0.899323
1477.94	0.644756
1479.51	0.821448
1481.07	0.664811
1482.63	0.527741
1484.2	0.312228
1485.76	0.782163
1487.32	0.742024
1488.88	1.03361
1490.45	0.81453
1492.01	0.965299
1493.57	0.859921
1495.13	0.519015
1496.69	0.996344
1498.25	0.499195
1499.81	0.742299
1501.37	1.04401
1502.93	0.550992
1504.49	0.0791111
1506.05	0.769812
1507.61	0.201637
1509.17	0.213324
1510.73	0.552047
1512.28	0.580825
1513.84	0.0702429
1515.4	0.387662
1516.96	0.493584
1518.51	0.312279
1520.07	0.285142
1521.63	0.717506
1523.18	0.537007
1524.74	0.356235
1526.29	0.651744
1527.85	0.564801
1529.4	0.287453
1530.96	0.257671
1532.51	0.152543
1534.06	0.692291
1535.62	0.191283
1537.17	0.542473
1538.72	0.459395
1540.28	0.225976
1541.83	0.0496159
1543.38	0.494586
1544.93	0.393266
1546.48	0.723964
1548.03	0.528449
1549.59	-0.116552
1551.14	0.513206
1552.69	0.917651
1554.24	0.518492
1555.79	0.662777
1557.34	0.379073
1558.88	0.713037
1560.43	0.582098
1561.98	-0.0884027
1563.53	0.324045
1565.08	0.457201
1566.62	0.422543
1568.17	0.201054
1569.72	0.184531
1571.27	0.839692
1572.81	0.393288
1574.36	0.656105
1575.9	0.769603
1577.45	0.360569
1579	0.698621
1580.54	0.663823
1582.09	0.947177
1583.63	0.727017
1585.17	0.750313
1586.72	0.699283
1588.26	0.667053
1589.8	0.690771
1591.35	0.901327
1592.89	0.587324
1594.43	0.441444
1595.97	0.688954
1597.52	0.524634
1599.06	0.848242
1600.6	0.760059
1602.14	0.672205
1603.68	1.18516
1605.22	0.927797
1606.76	0.593896
1608.3	0.277007
1609.84	0.390507
1611.38	0.91541
1612.92	0.799646
1614.46	0.382561
1615.99	0.359488
1617.53	0.411775
1619.07	0.727235
1620.61	0.425673
1622.14	0.21906
1623.68	0.462531
1625.22	0.986775
1626.75	0.499593
1628.29	0.554163
1629.82	1.14982
1631.36	-0.0689888
1632.9	0.767892
1634.43	0.595978
1635.96	1.30184
1637.5	0.776987
1639.03	1.03613
1640.57	1.09014
1642.1	1.0877
1643.63	1.30775
1645.16	0.819323
1646.7	0.870011
1648.23	1.08756
1649.76	0.562359
1651.29	1.02219
1652.82	1.03744
1654.36	1.01661
1655.89	1.01491
1657.42	1.25406
1658.95	0.584826
1660.48	0.507509
1662.01	1.16907
1663.53	1.40348
1665.06	0.676497
1666.59	0.744556
1668.12	0.942524
1669.65	1.03094
1671.18	0.770515
1672.7	1.02699
1674.23	1.21012
1675.76	1.13523
1677.29	0.728415
1678.81	0.118638
1680.34	0.611775
1681.86	0.387064
1683.39	0.731583
1684.91	0.0480614
1686.44	0.264308
1687.96	0.150747
1689.49	0.513935
1691.01	0.0713387
1692.54	0.306379
1694.06	0.467976
1695.58	0.099082
1697.11	-0.141718
1698.63	0.475768
1700.15	0.763647
1701.67	-0.171263
1703.2	0.571353
1704.72	0.547516
1706.24	0.37774
1707.76	0.189822
1709.28	0.528893
1710.8	0.59523
1712.32	0.17201
1713.84	0.47436
1715.36	-0.0926752
1716.88	-0.0800123
1718.4	0.0228901
1719.91	0.251966
1721.43	0.318402
1722.95	-0.0114298
1724.47	0.0744324
1725.99	0.233308
1727.5	-0.146822
1729.02	0.0499792
1730.54	0.139299
1732.05	0.457431
1733.57	0.346428
1735.09	-0.213847
1736.6	0.0656033
1738.12	0.0645761
1739.63	0.266004
1741.15	0.0679693
1742.66	0.386711
1744.18	-0.353271
1745.69	-0.125391
1747.2	0.105504
1748.72	0.0990934
1750.23	-0.268597
1751.74	-0.139644
1753.25	-0.189939
1754.77	-0.0283241
1756.28	-0.225148
1757.79	0.196956
1759.3	-0.015954
1760.81	0.0679522
1762.32	-0.0318222
1763.83	0.34883
1765.34	-0.0436621
1766.85	0.0285349
1768.36	-0.0639029
1769.87	-0.0845833
1771.38	0.296677
1772.89	0.287368
1774.4	-0.156927
1775.91	0.451451
1777.41	-0.0687742
1778.92	0.0748034
1780.43	0.0809488
1781.94	0.220772
1783.44	0.331721
1784.95	-0.0181608
1786.45	-0.01437
1787.96	0.247959
1789.47	0.221178
1790.97	0.234909
1792.47	0.266746
1793.98	0.0310154
1795.48	0.287113
1796.99	0.401926
1798.49	0.102592
1800	-0.0846272
1801.5	0.102616
1803	0.240436
1804.51	0.054574
1806.01	0.116561
1807.51	0.159983
1809.01	0.00854874
1810.51	-0.0313816
1812.02	0.237535
1813.52	0.10518
1815.02	-0.144384
1816.52	-0.188545
1818.02	-0.094038
1819.52	0.281882
1821.02	0.0367584
1822.52	0.0569792
1824.02	-0.239478
1825.51	-0.0472851
1827.01	0.154579
1828.51	0.244259
1830.01	0.0638523
1831.51	-0.0358429
1833	0.312068
1834.5	-0.150351
1836	0.138315
1837.49	0.266363
1838.99	0.23806
1840.49	0.267999
1841.98	0.184479
1843.48	0.208008
1844.97	0.157454
1846.47	0.212764
1847.96	0.432076
1849.46	0.414148
1850.95	-0.469728
1852.45	-0.0213146
1853.94	0.609256
1855.43	0.0890636
1856.92	-0.0514879
1858.42	-0.0984583
1859.91	0.109167
1861.4	0.0720348
1862.89	0.167234
1864.39	0.187104
1865.88	-0.0900612
1867.37	-0.383995
1868.86	-0.135973
1870.35	0.201267
1871.84	0.217564
1873.33	0.231457
1874.82	0.451363
1876.31	0.34125
1877.8	0.15649
1879.29	-0.0320444
1880.77	-0.138948
1882.26	0.0497713
1882.52	0.0927448
1884.02	-0.205255
1885.51	0.00163269
1887.01	0.416572
1888.5	0.273566
1889.99	-0.182273
1891.49	0.11099
1892.98	0.144704
1894.47	0.0235844
1895.96	0.0255556
1897.46	0.115242
1898.95	0.170082
1900.44	0.27622
1901.93	-0.00181675
1903.42	0.188232
1904.91	0.63759
1906.4	0.512417
1907.89	0.31789
1909.38	0.228257
1910.87	-0.0166044
1912.36	0.0343819
1913.85	0.137887
1915.34	0.432191
1916.83	0.604717
1918.32	0.343353
1919.8	-0.0915298
1921.29	0.166624
1922.78	-0.198376
1924.27	0.147376
1925.75	0.113221
1927.24	-0.0757809
1928.73	0.185937
1930.21	-0.0371695
1931.7	-0.139791
1933.18	0.102647
1934.67	0.20492
1936.15	0.0287771
1937.64	0.00738811
1939.12	0.227516
1940.61	0.257684
1942.09	0.116027
1943.57	-0.386795
1945.06	0.318604
1946.54	0.334343
1948.02	0.0396662
1949.51	0.192436
1950.99	0.17199
1952.47	0.202356
1953.95	-0.180523
1955.43	0.124391
1956.91	0.343395
1958.39	0.219515
1959.87	-0.092258
1961.36	0.625557
1962.84	0.0231895
1964.32	-0.150517
1965.79	0.103618
1967.27	-0.0367727
1968.75	0.164514
1970.23	0.313725
1971.71	0.155043
1973.19	0.0818834
1974.66	0.0941944
1976.14	-0.20014
1977.62	0.289576
1979.1	0.0808687
1980.57	0.501779
1982.05	0.140042
1983.53	0.152242
1985	-0.209284
1986.48	-0.417832
1987.95	0.170429
1989.43	-0.0716825
1990.9	-0.025176
1992.38	0.0390177
1993.85	0.425251
1995.33	0.0345716
1996.8	-0.338551
1998.27	0.149847
1999.75	-0.341639
2001.22	0.0442448
2002.69	0.243806
2004.16	0.0553102
2005.64	0.18745
2007.11	-0.033556
2008.58	0.335773
2010.05	-0.0350313
2011.52	0.0660877
2012.99	0.0325823
2014.46	0.200656
2015.93	0.216548
2017.4	0.164341
2018.87	-0.241592
2020.34	0.125291
2021.81	-0.0121288
2023.28	0.102657
2024.75	0.285171
2026.22	0.0492935
2027.69	-0.0845799
2029.15	0.15187
2030.62	-0.0801568
2032.09	0.0409641
2033.56	0.280106
2035.02	0.334691
2036.49	-0.131804
2037.95	0.157121
2039.42	-0.0415635
2040.89	0.129442
2042.35	0.401757
2043.82	0.0189457
2045.28	0.0909796
2046.75	-0.122457
2048.21	0.118975
2049.67	0.0401564
2051.14	0.0278177
2052.6	0.132168
2054.06	-0.051784
2055.53	0.20119
2056.99	0.26738
2058.45	0.265397
2059.92	0.212736
2061.38	-0.193092
2062.84	0.395172
2064.3	0.226764
2065.76	0.379046
2067.22	-0.0569224
2068.68	-0.122149
2070.14	0.267385
2071.6	0.236189
2073.06	0.103837
2074.52	0.274332
2075.98	0.29299
2077.44	0.479723
2078.9	-0.00750303
2080.36	0.127951
2081.82	0.111362
2083.27	0.363511
2084.73	0.362446
2086.19	0.192497
2087.65	0.207092
2089.1	0.338941
2090.56	0.285706
2092.01	0.198882
2093.47	0.246304
2094.93	0.176059
2096.38	0.557976
2097.84	0.0678658
2099.29	0.280817
2100.75	0.493154
2102.2	-0.146839
2103.66	0.3336
2105.11	0.113655
2106.56	0.045279
2108.02	0.494907
2109.47	0.26096
2110.92	0.110011
2112.37	0.00801516
2113.83	0.237709
2115.28	0.0496802
2116.73	-0.0889373
2118.18	-0.0111175
2119.63	0.366492
2121.09	0.46334
2122.54	0.396017
2123.99	0.296869
2125.44	0.297808
2126.89	0.265364
2128.34	0.397816
2129.79	0.296982
2131.23	0.0957217
2132.68	0.225039
2134.13	0.304551
2135.58	0.434271
2137.03	0.383371
2138.48	0.102764
2139.92	-0.176201
2141.37	0.00895929
2142.82	0.641709
2144.26	0.216765
2145.71	0.569451
2147.16	0.0943141
2148.6	0.264238
2150.05	0.35068
2151.49	0.154625
2152.94	-0.125148
2154.38	0.306856
2155.83	0.158562
2157.27	0.17601
2158.72	0.210624
2160.16	0.279493
2161.6	0.383024
2163.05	0.106898
2164.49	0.644647
2165.93	0.818644
2167.38	0.278396
2168.82	0.76727
2170.26	0.489994
2171.7	0.277247
2173.14	0.511963
2174.58	0.29635
2176.03	0.329761
2177.47	-0.0689783
2178.91	0.480661
2180.35	0.399328
2181.79	0.202352
2183.23	0.60449
2184.67	0.208642
2186.1	0.394969
2187.54	0.115492
2188.98	0.668057
2190.42	0.421838
2191.86	0.408376
2193.3	0.311022
2194.73	0.279134
2196.17	0.0459743
2197.61	0.34373
2199.05	0.722817
2200.48	0.0537186
2201.92	0.680459
2203.35	0.195299
2204.79	0.358349
2206.22	0.140934
2207.66	0.520557
2209.09	0.253889
2210.53	0.350923
2211.96	0.0665441
2213.4	0.277777
2214.83	0.554669
2216.27	0.534596
2217.7	0.350586
2219.13	0.00291681
2220.56	0.414568
2222	0.496468
2223.43	0.363511
2224.86	0.311796
2226.29	0.159914
2227.72	0.220577
2229.16	-0.17985
2230.59	0.272991
2232.02	0.151103
2233.45	0.0297213
2234.88	0.0400491
2236.31	-0.373409
2237.74	0.243562
2239.17	0.176115
2240.6	0.143084
2242.03	-0.0514765
2243.45	0.0975428
2244.88	0.393688
2246.31	0.0857558
2247.74	0.363631
2249.17	0.248195
2250.59	0.489332
2252.02	0.0774407
2253.45	0.0720987
2254.87	0.53817
2256.3	0.469038
2257.73	0.110032
2259.15	-0.1976
2260.58	0.259807
2262	0.167711
2263.43	0.125643
2264.85	-0.111228
2266.28	-0.0885105
2267.7	-0.0339017
2269.13	0.312912
2270.55	0.00808334
2271.97	0.126015
2273.4	0.276416
2274.82	0.361801
2276.24	0.00746727
2277.66	-0.232805
2279.09	0.0485287
2280.51	0.264739
2281.93	-0.024693
2283.35	-0.232768
2284.77	-0.114536
2286.19	-0.0287075
2287.61	0.204432
2289.04	0.323779
2290.46	0.00238228
2291.88	-0.090178
2293.29	-0.0518808
2294.71	-0.0790148
2296.13	0.172023
2297.55	0.210343
2298.97	0.0521483
2300.39	0.123437
2301.81	0.113044
2303.23	-0.241642
2304.64	0.339076
2306.06	-0.065063
2307.48	0.220211
2308.89	0.275125
2310.31	0.0829043
2311.73	-0.0439968
2313.14	0.256796
2314.56	-0.0179539
2315.97	0.0535097
2317.39	0.455217
2318.8	0.297289
2320.22	0.204952
2321.63	0.144563
2323.05	0.511596
2324.46	-0.0971146
2325.88	0.298866
2327.29	0.297277
2328.7	0.163163
2330.12	0.259961
2331.53	-0.120004
2332.94	-0.054359
2334.35	0.143611
2335.76	0.325258
2337.18	-0.118541
2338.59	0.127606
2340	-0.0711236
2341.41	-0.0569587
2342.82	0.0552144
2344.23	0.118008
2345.64	0.213736
2347.05	0.162183
2348.46	0.241673
2349.87	-0.15367
2351.28	0.219157
2352.69	0.247538
2354.1	0.307665
2355.5	0.0736542
2356.91	-0.0299015
2358.32	0.208293
2359.73	0.251121
2361.14	0.131638
2362.54	0.0448189
2363.95	0.055264
2365.36	0.0332856
2366.76	-0.31171
2368.17	-0.219589
2369.58	-0.0299907
2370.98	0.015368
2372.39	0.0134821
2373.79	-0.100255
2375.2	0.140559
2376.6	0.0429673
2378	0.137502
2379.41	-0.315736
2380.81	-0.159592
2382.22	-0.149279
2383.62	-0.315913
2385.02	0.333425
2386.42	0.230657
2387.83	0.128913
2389.23	-0.274521
2390.63	-0.246054
2392.03	0.30872
2393.43	0.195433
2394.84	0.401076
2396.24	0.00306368
2397.64	0.130345
2399.04	0.289839
2400.44	-0.344596
2401.84	-0.263791
2403.24	-0.0400467
2404.64	0.119796
2406.04	-0.00691271
2407.44	0.151275
2408.83	0.245193
2410.23	-0.120965
2411.63	0.115479
2413.03	-0.42358
2414.43	0.305345
2415.83	-0.0886674
2417.22	0.0250764
2418.62	0.171303
2420.02	0.0169978
2421.41	-0.0424304
2422.81	0.262206
2424.21	0.154713
2425.6	0.348332
2427	0.162087
2428.39	0.182609
2429.79	0.0453849
2431.18	-0.297636
2432.58	-0.00586128
2433.97	0.301625
2435.36	-0.217767
2436.76	-0.150736
2438.15	0.264552
2439.54	-0.0997624
2440.94	0.122884
2442.33	-0.194813
2443.72	-0.05234
2445.11	0.0581412
2446.51	0.184247
2447.9	0.38936
2449.29	0.166589
2450.68	-0.134954
2452.07	-0.325018
2453.46	0.150249
2454.85	0.183079
2456.24	0.0741425
2457.63	0.0920429
2459.02	0.220525
2460.41	0.221961
2461.8	0.112009
2463.19	-0.0934033
2464.58	0.159012
2465.97	-0.0628166
2467.36	0.0311728
2468.75	-0.00119638
2470.13	0.139772
2471.52	-0.176908
2472.91	0.325354
2474.29	-0.22844
2475.68	-0.0111971
2477.07	-0.203266
2478.45	-0.0338655
2479.84	0.260938
2481.22	0.194794
2482.61	-0.0279822
2484	0.297108
2485.38	-0.082942
2486.77	0.0211196
2488.15	0.04598
2489.54	0.0233836
2490.92	-0.0926676
2492.3	-0.161354
2493.69	0.0815616
2495.07	0.0924487
2496.45	0.0734115
2497.84	-0.0377884
2499.22	-0.287908
2500.6	-0.135801
2501.98	0.0926924
2503.36	0.0729017
2504.74	0.0369444
2506.13	0.385724
2507.51	0.302571
2508.89	-0.103129
2510.27	0.183486
2511.65	-0.14361
2513.03	0.312318
2514.41	-0.104784
2515.79	0.137619
2517.17	-0.0785122
2518.55	-0.217495
2519.93	-0.0352893
2521.3	0.177047
2522.68	0.190145
2524.06	-0.422853
2525.44	0.259914
2526.82	-0.0941401
2528.19	0.298283
2529.57	0.204534
2530.95	0.0970774
2532.32	0.00635481
2533.7	-0.0679722
2535.08	0.0406337
2536.45	0.301125
2537.83	0.0141287
2539.2	0.273158
2540.58	0.1973
2541.95	0.19706
2543.33	0.106025
2544.7	0.0461106
2546.08	-0.118906
2547.45	0.111502
2548.82	-0.0972691
2550.2	0.0126061
2551.57	0.228345
2552.94	0.321905
2554.32	0.308313
2555.69	0.415303
2557.06	0.27906
2558.43	0.264083
2559.8	0.294827
2561.17	0.00774622
2562.55	-0.0362248
2563.92	-0.0342278
2565.29	0.0439043
2566.66	-0.0141335
2568.03	0.291626
2569.4	0.112438
2570.77	0.130266
2572.14	0.102664
2573.51	-0.0612979
2574.88	-0.0432844
2576.24	0.38411
2577.61	-0.0527382
2578.98	-0.0349398
2580.35	-0.351023
2581.72	0.0300508
2583.09	0.137862
2584.45	0.139326
2585.82	-0.0411477
2587.19	0.324153
2588.55	0.189432
2589.92	0.221528
2591.28	-0.0798635
2592.65	-0.0482459
2594.02	0.0432777
2595.38	0.0733066
2596.75	0.344608
2598.11	0.176221
2599.48	-0.173728
2600.84	-0.175645
2602.2	-0.0412264
2603.57	0.229489
2604.93	0.0176072
2606.3	0.258584
2607.66	-0.0437284
2609.02	0.0755143
2610.38	0.329147
2611.75	0.144794
2613.11	0.455951
2614.47	-0.180518
2615.83	0.0694203
2617.19	-0.0557175
2618.56	0.403983
2619.92	0.0704894
2621.28	0.216638
2622.64	0.363038
2624	-0.192359
2625.36	-0.0904808
2626.72	0.309289
2628.08	0.112156
2629.44	-0.323179
2630.8	-0.0884967
2632.15	0.220053
2633.51	0.305258
2634.87	0.152831
2636.23	0.223074
2637.59	0.367287
2638.94	0.0227084
2640.3	0.359367
2641.66	-0.32432
2643.02	0.293242
2644.37	0.00956297
2645.73	0.198294
2647.08	0.0178709
2648.44	-0.177581
2649.8	0.362421
2651.15	-0.0841885
2652.51	0.101339
2653.86	0.0519414
2655.22	0.0472503
2656.57	0.321778
2657.92	-0.120251
2659.28	0.14117
2660.63	-0.0505877
2661.99	0.152313
2663.34	0.193822
2664.69	0.161598
2666.04	-0.0462556
2667.4	-0.0355844
2668.75	0.237097
2670.1	0.0876327
2671.45	0.17148
2672.81	0.154053
2674.16	0.311452
2675.51	0.295022
2676.86	0.380668
2678.21	0.46684
2679.56	0.104216
2680.91	-0.286374
2682.26	-0.18301
2683.61	-0.0931482
2684.96	0.345672
2686.31	0.248318
2687.66	0.412029
2689	0.371539
2690.35	0.0537295
2691.7	0.416607
2693.05	0.429707
2694.4	0.0504198
2695.74	0.352527
2697.09	0.538987
2698.44	0.11826
2699.79	0.292808
2701.13	0.0923767
2702.48	-0.193763
2703.82	0.303266
2705.17	0.308274
2706.52	0.153788
2707.86	0.0569739
2709.21	0.192012
2710.55	0.167085
2711.9	-0.0324125
2713.24	0.218317
2714.58	-0.0541372
2715.93	0.283868
2717.27	-0.148886
2718.61	0.188954
2719.96	0.0173578
2721.3	0.0345149
2722.64	0.429693
2723.99	0.0385151
2725.33	0.374732
2726.67	0.535942
2728.01	0.303896
2729.35	0.260867
2730.7	0.305026
2732.04	0.0872717
2733.38	0.146037
2734.72	0.23403
2736.06	0.0022068
2737.4	0.221384
2738.74	0.309635
2740.08	0.121364
2741.42	0.339856
2742.76	-0.009233
2744.09	0.280717
2745.43	0.0614738
2746.77	0.00177813
2748.11	0.304855
2749.45	-0.0161743
2750.79	0.344874
2752.12	0.154956
2753.46	0.15378
2754.8	0.283147
2756.13	0.209783
2757.47	-0.0371532
2758.81	0.280822
2760.14	0.077961
2761.48	-0.124418
2762.81	0.136675
2764.15	0.15203
2765.49	0.00822401
2766.82	0.0810666
2768.15	-0.0783124
2769.49	0.281857
2770.82	0.308063
2772.16	-0.143503
2773.49	0.0973663
2774.82	0.17878
2776.16	0.274413
2777.49	0.312634
2778.82	-0.166415
2780.16	-0.11263
2781.49	0.228555
2782.82	0.124486
2784.15	-0.0655403
2785.48	-0.0116892
2786.81	0.156831
2788.15	-0.161118
2789.48	-0.449476
2790.81	0.0211382
2792.14	0.220436
2793.47	0.219903
2794.8	0.0479059
2796.13	-0.238593
2797.46	-0.0397253
2798.79	-0.155583
2800.12	0.0280132
2801.44	-0.0598197
2802.77	0.322786
2804.1	0.519519
2805.43	0.245642
2806.76	-0.156521
2808.08	0.0955977
2809.41	0.190654
2810.74	0.384991
2812.07	0.182227
2813.39	0.391999
2814.72	0.546142
2816.05	0.347129
2817.37	0.00741863
2818.7	0.00839233
2820.02	0.136937
2821.35	0.293445
2822.67	-0.160005
2824	0.406284
2825.32	0.0654864
2826.65	0.107239
2827.97	0.220196
2829.29	0.20619
2830.62	0.13596
2831.94	0.122539
2833.26	0.349704
2834.59	0.350108
2835.91	0.420853
2837.23	0.0807905
2838.55	0.334637
2839.88	0.503325
2841.2	0.672011
2842.52	0.671357
2843.84	0.62886
2845.16	0.572851
2846.48	0.771746
2847.8	0.3067
2849.12	0.562453
2850.44	0.648374
2851.76	0.267478
2853.08	0.861379
2854.4	0.833077
2855.72	0.620958
2857.04	0.493645
2858.36	0.677148
2859.68	1.28425
2861	1.22738
2862.32	1.18438
2863.63	1.36691
2864.95	1.35158
2866.27	1.2516
2867.58	1.50444
2868.9	1.58834
2870.22	1.4611
2871.53	1.43269
2872.85	1.57319
2874.17	1.61439
2875.48	1.61245
2876.8	1.49699
2878.11	1.56392
2879.43	2.08056
2880.74	1.90817
2882.06	1.69447
2883.37	1.93122
2884.69	1.94398
2886	2.13972
2887.31	1.53544
2888.63	1.75895
2889.94	1.54686
2891.25	2.16153
2892.57	2.25659
2893.88	2.35143
2895.19	1.62034
2896.5	2.16422
2897.82	2.1349
2899.13	1.95254
2900.44	2.06464
2901.75	2.1911
2903.06	1.88408
2904.37	2.54232
2905.68	2.24964
2906.99	2.5029
2908.3	2.3372
2909.61	2.61986
2910.92	2.30132
2912.23	2.90647
2913.54	2.71323
2914.85	3.30283
2916.16	2.49104
2917.46	3.00785
2918.77	2.75406
2920.08	3.36744
2921.39	2.68066
2922.7	3.28126
2924	3.05815
2925.31	3.00369
2926.62	3.13145
2927.92	3.11946
2929.23	3.30288
2930.53	3.08044
2931.84	3.38885
2933.15	3.13788
2934.45	2.87294
2935.76	3.3768
2937.06	3.22391
2938.37	3.18296
2939.67	3.39376
2940.98	2.86436
2942.28	2.58713
2943.58	2.79992
2944.89	2.62241
2946.19	2.72539
2947.49	2.64703
2948.8	2.6804
2950.1	2.26487
2951.4	2.29591
2952.7	2.3535
2954.01	2.10199
2955.31	2.66214
2956.61	2.509
2957.91	2.2315
2959.21	1.84398
2960.51	2.0886
2961.81	2.06874
2963.11	2.04946
2964.41	2.40878
2965.71	2.38812
2967.01	2.22556
2968.31	1.6541
2969.61	1.89732
2970.91	1.83112
2972.21	1.96208
2973.51	1.84006
2974.81	1.84465
2976.1	1.90506
2977.4	1.7673
2978.7	1.48737
2980	1.14984
2981.29	1.65577
2982.59	1.28879
2983.89	1.31602
2985.18	1.45652
2986.48	1.35928
2987.78	0.954099
2989.07	1.04151
2990.37	1.12915
2991.66	0.710438
2992.96	1.16225
2994.25	0.966541
2995.55	0.882373
2996.84	0.643222
2998.14	0.670725
2999.43	0.754488
3000.72	0.656319
3002.02	0.81098
3003.31	0.447414
3004.6	0.714513
3005.9	0.421058
3007.19	0.813218
3008.48	0.154966
3009.77	0.335676
3011.07	0.264021
3012.36	0.303797
3013.65	0.245834
3014.94	0.425256
3016.23	-0.300499
3017.52	0.464897
3018.81	0.0470986
3020.1	-0.245035
3021.39	0.102154
3022.68	0.170407
3023.97	-0.37285
3025.26	0.179505
3026.55	0.218135
3027.84	-0.0473557
3029.13	-0.0211692
3030.42	0.0752492
3031.71	-0.158689
3033	-0.115512
3034.28	-0.0307169
3035.57	-0.208532
3036.86	0.21942
3038.15	0.0391293
3039.43	0.242934
3040.72	0.389936
3042.01	0.000458717
3043.29	-0.100193
3044.58	0.128604
3045.86	-0.0930047
3047.15	0.00175047
3048.44	-0.106524
3049.72	0.169141
3051.01	0.132125
3052.29	0.286816
3053.58	0.127675
3054.86	-0.0729117
3056.14	0.0939679
3057.43	0.0962253
3058.71	0.452028
3060	0.0446696
3061.28	-0.0217295
3062.56	0.307136
3063.84	-0.15173
3065.13	0.260895
3066.41	-0.00512123
3067.69	0.0151591
3068.97	0.00855303
3070.25	0.0425153
3071.54	-0.0738397
3072.82	-0.218368
3074.1	0.22071
3075.38	0.128708
3076.66	-0.248685
3077.94	0.216149
3079.22	0.179441
3080.5	0.11686
3081.78	0.0284581
3083.06	0.0495863
3084.34	-0.145825
3085.62	0.0930176
3086.9	-0.129949
3088.17	-0.217798
3089.45	0.182373
3090.73	0.06638
3092.01	0.0723834
3093.29	-0.192785
3094.56	0.0576901
3095.84	0.159135
3097.12	-0.146086
3098.4	-0.207294
3099.67	0.0430374
3100.95	0.062849
3102.22	0.218103
3103.5	0.0756302
3104.77	0.028379
3106.05	-0.0994673
3107.33	-0.213031
3108.6	0.0396147
3109.88	0.117223
3111.15	-0.0615926
3112.43	0.112259
3113.7	-0.0928459
3114.97	0.0272069
3116.25	0.255417
3117.52	-0.0595427
3118.79	0.207741
3120.07	-0.0277395
3121.34	0.129261
3122.61	-0.0938315
3123.88	0.008183
3125.16	0.0425248
3126.43	-0.261179
3127.7	0.26106
3128.97	-0.0551763
3130.24	-0.0734992
3131.51	0.0434275
3132.78	-0.12363
3134.05	0.235882
3135.33	0.432592
3136.59	0.0484204
3137.86	0.513642
3139.14	0.290784
3140.41	0.121944
3141.67	0.195462
3142.94	-0.201193
3144.21	-0.1001
3145.48	0.283002
3146.75	0.317549
3148.02	0.33918
3149.28	0.0265241
