200.388	0.318906
202.204	0.335121
204.019	0.353563
205.832	-0.088954
207.646	-0.238915
209.459	0.218371
211.274	0.188409
213.087	1.03097
214.899	0.440134
216.711	0.382808
218.524	0.713218
220.335	0.00315762
222.146	0.286812
223.956	-0.347508
225.766	-0.400545
227.576	-0.163479
229.388	0.797509
231.197	-0.00481415
233.005	-0.0829363
234.813	0.249344
236.621	-0.285028
238.429	0.556874
240.236	-0.237515
242.045	0.899235
243.852	0.0604019
245.658	0.234522
247.464	0.865967
249.269	0.118445
251.074	1.46812
252.879	0.424535
254.683	0.296589
256.487	0.626399
258.291	-0.175857
260.094	0.301133
261.897	0.250125
263.702	0.996044
265.504	0.562788
267.306	-0.111153
269.108	-0.110681
270.909	-0.448527
272.71	0.369746
274.511	0.342714
276.311	0.000591278
278.111	0.0182009
279.91	0.443155
281.709	0.576568
283.508	0.0584011
285.306	0.0201635
287.105	-0.162832
288.9	0.134078
290.698	0.335415
292.495	-0.0844822
294.291	0.0480967
296.088	0.421245
297.884	-0.662547
299.679	-0.000881195
301.475	-0.366796
303.27	-0.231869
305.064	0.402863
306.858	0.368084
308.652	0.166226
310.444	0.179595
312.237	-0.0915403
314.03	0.163102
315.822	0.13398
317.615	0.0353842
319.406	0.53401
321.198	-0.157311
322.987	-0.204619
324.778	0.464391
326.568	-0.178803
328.358	0.180429
330.148	0.467717
331.935	-0.202653
333.724	0.368846
335.513	-0.162413
337.301	0.500338
339.089	0.442901
340.875	-0.261932
342.662	0.299867
344.449	0.168184
346.236	-0.153942
348.02	0.0263176
349.806	0.565164
351.592	-0.16113
353.375	-0.243369
355.16	-0.135761
356.944	0.5665
358.728	0.0989122
360.51	-0.0835657
362.294	-0.242955
364.077	0.524456
365.858	0.101936
367.64	0.249008
369.422	-0.150498
371.202	-0.0052824
372.983	-0.168703
374.764	-0.00128841
376.543	0.755957
378.324	0.33308
380.102	0.265429
381.881	0.269786
383.661	1.23993
385.438	1.01148
387.216	0.00925827
388.993	1.26412
390.771	0.687608
392.548	1.05159
394.324	0.195097
396.101	0.88903
397.875	0.902065
399.651	1.03239
401.425	1.04481
403.201	0.328425
404.974	0.198457
406.749	0.560869
408.524	0.523369
410.296	0.203833
412.07	0.846668
413.841	0.480754
415.614	0.725756
417.385	0.924724
419.156	0.561271
420.928	0.737876
422.698	0.327435
424.469	0.409191
426.238	0.208248
428.009	0.0533867
429.777	0.343997
431.548	0.30593
433.315	0.409002
435.083	-0.426329
436.852	0.0056982
438.618	0.0849848
440.387	-0.400369
442.153	0.191525
443.919	-0.0164785
445.686	0.0549431
447.451	0.26538
449.218	0.42814
450.982	0.0533266
452.746	0.356482
454.512	0.33284
456.275	0.169393
458.038	-0.0172338
459.803	-0.250058
461.565	-0.55165
463.327	0.287476
465.091	0.686973
466.852	0.508624
468.613	0.147243
470.374	-0.375177
472.136	-0.0365286
473.896	0.0224037
475.655	0.00971603
477.415	0.064641
479.176	0.793143
480.934	0.68187
482.692	0.524149
484.45	0.158044
486.21	0.516049
487.967	0.457106
489.724	0.680216
491.481	0.508009
493.237	1.06053
494.995	0.725685
496.75	0.881669
498.506	0.779902
500.26	0.654001
502.015	0.691468
503.769	0.775002
505.525	0.528368
507.279	0.726743
509.032	1.37057
510.785	0.271741
512.537	0.512188
514.289	1.17454
516.041	0.658907
517.793	0.447938
519.546	0.682678
521.297	0.634408
523.047	0.491714
524.797	0.466282
526.547	0.605055
528.297	0.649923
530.046	-0.289625
531.795	0.621766
533.543	0.852428
535.291	-0.228361
537.039	0.677635
538.787	0.903357
540.534	0.614208
542.281	0.441298
544.027	0.570813
545.773	0.490831
547.519	0.968248
549.264	0.192965
551.01	1.08696
552.754	0.45251
554.499	0.420411
556.243	-0.511591
557.987	0.172893
559.73	0.142359
561.474	0.411717
563.216	0.267217
564.959	0.583257
566.701	0.141521
568.441	0.0455132
570.182	-0.026391
571.923	0.407851
573.664	-0.073905
575.405	0.249071
577.145	0.505072
578.885	0.0280914
580.624	-0.0580654
582.361	0.223478
584.1	-0.0239925
585.839	0.670224
587.577	0.397348
589.315	0.123068
591.052	-0.0602179
592.787	-0.497159
594.524	0.377138
596.26	-0.0829611
597.997	0.607249
599.732	-0.313355
601.466	0.306598
603.201	0.0740967
604.936	0.0241537
606.67	-0.371766
608.403	-0.331757
610.136	0.258834
611.87	0.0922461
613.603	0.0871124
615.334	0.0597677
617.067	-0.0360918
618.799	0.440175
620.529	0.434203
622.26	-0.0763645
623.991	-0.0842371
625.72	-0.114994
627.451	0.60868
629.181	0.329551
630.909	0.258383
632.638	-0.0616579
634.368	0.395339
636.095	0.258717
637.823	0.873653
639.551	0.0249634
641.277	0.200357
643.005	0.623639
644.73	0.930936
646.457	0.487212
648.184	0.0461006
649.908	0.65383
651.634	0.333749
653.357	-0.164258
655.083	1.00104
656.806	0.531496
658.53	0.540734
660.253	-0.180546
661.977	0.442688
663.7	0.241817
665.422	0.404031
667.145	0.518591
668.865	0.174899
670.588	0.0146637
672.308	1.20646
674.027	0.478598
675.749	0.43949
677.468	0.0345488
679.188	0.180188
680.907	0.440091
682.627	0.330512
684.345	0.379727
686.064	0.495981
687.781	0.472431
689.498	0.539857
691.216	0.0306234
692.932	0.557313
694.65	0.0466976
696.366	0.732699
698.081	1.02574
699.797	0.557836
701.512	1.19309
703.228	0.44749
704.942	0.460078
706.655	0.632746
708.371	0.0937824
710.083	0.33436
711.796	1.03203
713.51	1.72812
715.222	0.982993
716.934	1.15243
718.645	1.50414
720.358	1.51352
722.068	1.47753
723.779	1.23687
725.49	1.01921
727.2	0.506351
728.909	1.46901
730.618	1.13711
732.329	1.55282
734.037	1.51495
735.745	0.369652
737.453	0.468897
739.16	0.884457
740.869	1.45807
742.576	1.10854
744.282	0.986007
745.988	0.57251
747.694	1.28557
749.401	0.60512
751.107	0.668361
752.811	1.3852
754.516	0.731339
756.22	1.3839
757.924	1.09298
759.627	1.0736
761.332	2.0023
763.035	1.37616
764.738	1.08751
766.44	1.09105
768.142	1.22836
769.843	1.22783
771.544	1.7905
773.245	1.58276
774.946	2.07543
776.646	1.68677
778.346	1.36728
780.046	1.95393
781.745	1.70508
783.444	2.2031
785.143	1.40995
786.841	1.54231
788.539	1.1282
790.237	2.00036
791.934	1.55744
793.631	1.76834
795.328	1.36938
797.024	1.4228
798.72	2.24354
800.416	1.7147
802.112	2.35785
803.807	2.01172
805.502	1.53084
807.196	2.10562
808.89	1.75778
810.584	1.36422
812.278	1.68782
813.971	1.87583
815.664	1.61549
817.354	1.42265
819.047	1.8336
820.739	1.99838
822.43	2.29717
824.122	2.55175
825.813	3.09723
827.503	3.93417
829.192	1.99026
830.882	1.76473
832.571	1.51985
834.261	1.41074
835.95	1.34722
837.637	1.19419
839.325	1.82136
841.013	1.53157
842.701	1.64233
844.389	1.55143
846.074	1.95286
847.761	0.947704
849.447	1.68907
851.131	1.6728
852.817	2.21893
854.503	1.15175
856.188	0.800926
857.871	1.50503
859.556	0.746065
861.24	1.24509
862.922	1.51772
864.606	0.662389
866.289	1.29339
867.97	1.13483
869.653	1.13359
871.336	1.40269
873.016	1.46861
874.698	0.361122
876.379	0.765306
878.058	0.718212
879.739	1.05473
881.418	1.66186
883.098	0.846039
884.778	1.11271
886.456	1.44558
888.135	1.14488
889.812	0.662374
891.49	0.855008
893.167	1.60905
894.845	0.875493
896.523	1.26616
898.198	1.83466
899.875	1.21198
901.55	0.477864
903.226	1.46801
904.901	1.58383
906.576	1.47635
908.25	0.83471
909.925	1.06393
911.598	1.09337
913.271	0.812314
914.945	0.443332
916.617	0.540967
918.291	1.32538
919.962	1.11204
921.635	0.811118
923.306	1.04235
924.978	1.14233
926.648	0.736279
928.318	1.2593
929.989	1.03305
931.659	1.05032
933.328	1.08994
934.998	0.842976
936.666	1.34635
938.336	1.23302
940.004	1.29739
941.671	1.60572
943.34	0.657245
945.007	0.811756
946.673	1.03144
948.339	0.829871
950.007	1.08984
951.672	1.41454
953.337	1.23174
955.004	1.07264
956.669	0.585597
958.333	1.05013
959.997	1.89324
961.662	0.729233
963.326	1.04447
964.989	0.783384
966.651	0.87336
968.315	0.717094
969.977	0.271049
971.639	0.421428
973.301	1.39039
974.962	1.05592
976.624	0.900238
978.285	0.215156
979.945	0.581483
981.605	0.947672
983.264	1.10234
984.924	1.4321
986.583	0.918491
988.243	1.37674
989.901	0.838113
991.56	0.454049
993.217	0.754939
994.875	0.702362
996.532	0.319027
998.188	1.34727
999.845	1.60278
1001.5	1.79148
1003.16	1.91342
1004.81	1.59497
1006.47	1.51855
1008.12	0.410237
1009.78	0.335185
1011.43	1.09401
1013.09	0.296271
1014.74	1.18648
1016.39	0.784472
1018.05	0.142724
1019.7	0.749008
1021.35	0.568799
1023	0.870692
1024.65	0.62711
1026.31	0.996073
1027.96	1.34315
1029.61	1.16517
1031.26	1.07334
1032.91	1.351
1034.56	0.688388
1036.21	1.0717
1037.86	0.386049
1039.51	0.789741
1041.16	0.562663
1042.8	0.902385
1044.45	1.11317
1046.1	1.28242
1047.75	1.49708
1049.39	0.91
1051.04	1.17128
1052.69	0.629718
1054.33	1.00097
1055.98	0.611697
1057.62	0.852397
1059.27	0.0707912
1060.91	0.288601
1062.56	0.462173
1064.2	0.743515
1065.85	0.219342
1067.49	0.259382
1069.13	0.602578
1070.77	-0.162741
1072.42	-0.037571
1074.06	-0.0639553
1075.7	0.734921
1077.34	0.341981
1078.98	0.55759
1080.62	0.75231
1082.27	0.339892
1083.91	0.642182
1085.55	0.249071
1087.18	0.69923
1088.82	0.388856
1090.46	0.358396
1092.1	0.564548
1093.74	0.834526
1095.38	0.651061
1097.02	0.533412
1098.65	0.589654
1100.29	0.195539
1101.93	0.55687
1103.56	0.833751
1105.2	0.703246
1106.84	0.637934
1108.47	0.400321
1110.11	-0.0747919
1111.74	1.10379
1113.38	0.38918
1115.01	-0.197088
1116.64	0.632689
1118.28	0.00361538
1119.91	0.168715
1121.54	-0.115055
1123.18	-0.0336599
1124.81	0.412372
1126.44	0.281493
1128.07	0.557781
1129.7	0.642273
1131.33	-0.0422983
1132.97	0.128657
1134.6	0.449105
1136.23	-0.321151
1137.86	0.553191
1139.49	0.315051
1141.11	0.268213
1142.74	0.391586
1144.37	0.792196
1146	0.233791
1147.63	0.571859
1149.26	0.676265
1150.88	2.05917
1152.51	1.97208
1154.14	0.522113
1155.76	0.455946
1157.39	-0.269888
1159.01	0.579006
1160.64	0.216229
1162.27	0.216153
1163.89	-0.0592928
1165.51	0.601319
1167.14	0.304923
1168.76	0.177588
1170.39	0.048624
1172.01	0.470178
1173.63	0.0826216
1175.25	0.0549889
1176.88	0.408424
1178.5	0.0624466
1180.12	0.0986729
1181.74	0.347274
1183.36	-0.228251
1184.98	-0.211404
1186.6	0.754771
1188.22	-0.244381
1189.84	-0.484847
1191.46	0.094471
1193.08	0.0400343
1194.7	0.656756
1196.32	0.286302
1197.94	-0.333504
1199.55	-0.0299034
1201.17	0.40074
1202.79	0.269659
1204.41	-0.192539
1206.02	0.203165
1207.64	0.620956
1209.25	0.580074
1210.87	0.163004
1212.48	1.01627
1214.1	0.470276
1215.71	0.318279
1217.33	0.68474
1218.94	0.862315
1220.56	0.582648
1222.17	0.698266
1223.79	1.20865
1225.4	0.53965
1227.01	1.15609
1228.62	0.780591
1230.23	0.923642
1231.85	1.15057
1233.46	0.820673
1235.07	0.760818
1236.68	1.59101
1238.29	1.82306
1239.9	1.08412
1241.51	1.37921
1243.12	1.3224
1244.73	0.995764
1246.34	1.12323
1247.94	0.835762
1249.55	0.94064
1251.16	0.81758
1252.77	1.39804
1254.37	1.15181
1255.98	1.13425
1257.59	0.993883
1259.2	1.45478
1260.8	1.25455
1262.41	1.36532
1264.01	0.771901
1265.62	0.902947
1267.22	0.95041
1268.83	0.872525
1270.43	0.150785
1272.03	0.837872
1273.64	1.3165
1275.24	0.716053
1276.85	0.923098
1278.45	1.08772
1280.05	1.21014
1281.65	1.43559
1283.25	1.74369
1284.85	0.687253
1286.46	1.1416
1288.06	1.39011
1289.66	1.57755
1291.26	1.39357
1292.86	0.982298
1294.46	0.818292
1296.06	0.776981
1297.66	0.919856
1299.25	1.47349
1300.85	1.57118
1302.45	1.23477
1304.05	0.856757
1305.65	1.48613
1307.24	0.963525
1308.84	1.57008
1310.43	1.62198
1312.03	1.77653
1313.63	1.2771
1315.22	1.67876
1316.82	1.30492
1318.41	1.8912
1320.01	1.96683
1321.6	1.0025
1323.2	1.84948
1324.79	1.9
1326.38	1.74578
1327.98	2.01705
1329.57	1.70096
1331.16	1.91321
1332.76	1.60211
1334.35	2.06127
1335.94	1.91634
1337.53	1.81258
1339.12	1.93
1340.71	1.68288
1342.3	1.89669
1343.89	1.30377
1345.48	1.35345
1347.07	1.68374
1348.66	1.57445
1350.25	1.36797
1351.84	1.50458
1353.43	1.44341
1355.01	0.904044
1356.6	1.6043
1358.19	0.80551
1359.77	1.70364
1361.36	1.14278
1362.95	1.14013
1364.53	0.897849
1366.12	0.875247
1367.71	1.70979
1369.29	1.25101
1370.88	0.65474
1372.46	1.27393
1374.04	1.27741
1375.63	1.32144
1377.21	0.708944
1378.8	1.13068
1380.38	0.476886
1381.96	0.896194
1383.54	1.11504
1385.13	1.15373
1386.71	0.575984
1388.29	1.01167
1389.87	1.18961
1391.45	0.673877
1393.03	1.17101
1394.61	0.993999
1396.19	0.5393
1397.77	0.916714
1399.35	1.55041
1400.93	1.46949
1402.51	1.32858
1404.09	1.26691
1405.67	1.20584
1407.24	1.2248
1408.82	1.00759
1410.4	1.28489
1411.98	1.46327
1413.55	0.989508
1415.13	1.30441
1416.71	1.08561
1418.28	0.432982
1419.86	1.21941
1421.43	1.37608
1423.01	0.648522
1424.58	1.2023
1426.16	0.871691
1427.73	1.11247
1429.31	1.4908
1430.88	1.82878
1432.45	1.27986
1434.02	0.907189
1435.6	1.12425
1437.17	1.42001
1438.74	1.85397
1440.31	1.81721
1441.88	1.38846
1443.45	1.72697
1445.03	1.43701
1446.6	1.50102
1448.17	1.40793
1449.74	2.31775
1451.3	2.10758
1452.87	2.09461
1454.44	2.29846
1456.01	1.83341
1457.58	1.99724
1459.15	1.86451
1460.72	1.55279
1462.28	2.16382
1463.85	1.94661
1465.42	1.66937
1466.98	1.84382
1468.55	1.44907
1470.12	1.46776
1471.68	1.56613
1473.25	1.72445
1474.81	1.76594
1476.38	1.27851
1477.94	1.00698
1479.51	1.24511
1481.07	1.16948
1482.63	1.17217
1484.2	0.567313
1485.76	1.21609
1487.32	0.94328
1488.88	0.865067
1490.45	0.295853
1492.01	1.1525
1493.57	1.02868
1495.13	1.23483
1496.69	0.503993
1498.25	1.2926
1499.81	0.913638
1501.37	0.866735
1502.93	0.859971
1504.49	0.718561
1506.05	0.6745
1507.61	0.668592
1509.17	1.14462
1510.73	0.421941
1512.28	0.471008
1513.84	0.500279
1515.4	0.91408
1516.96	0.847489
1518.51	0.935292
1520.07	0.946936
1521.63	0.403882
1523.18	0.664496
1524.74	0.370048
1526.29	0.513867
1527.85	0.637298
1529.4	1.38729
1530.96	0.729985
1532.51	1.08001
1534.06	0.274867
1535.62	0.683298
1537.17	0.638342
1538.72	0.292198
1540.28	0.475143
1541.83	0.299912
1543.38	0.764816
1544.93	1.097
1546.48	1.09019
1548.03	0.707936
1549.59	1.09494
1551.14	0.825962
1552.69	0.558031
1554.24	0.814871
1555.79	0.531089
1557.34	0.324107
1558.88	0.268526
1560.43	0.979726
1561.98	0.386627
1563.53	1.52967
1565.08	0.266635
1566.62	0.962816
1568.17	0.576452
1569.72	1.21624
1571.27	1.16504
1572.81	0.758852
1574.36	1.15519
1575.9	1.19688
1577.45	1.18277
1579	1.33712
1580.54	1.2494
1582.09	1.57336
1583.63	1.71157
1585.17	1.29005
1586.72	0.457431
1588.26	0.765206
1589.8	0.90464
1591.35	1.43684
1592.89	1.38843
1594.43	1.47077
1595.97	0.822498
1597.52	1.03635
1599.06	1.47603
1600.6	0.922639
1602.14	1.34514
1603.68	1.67419
1605.22	1.32655
1606.76	1.18395
1608.3	1.82871
1609.84	1.1366
1611.38	1.23148
1612.92	1.66223
1614.46	1.58433
1615.99	1.24342
1617.53	0.978375
1619.07	1.38924
1620.61	1.20203
1622.14	0.604447
1623.68	1.05632
1625.22	0.965288
1626.75	1.34142
1628.29	0.668325
1629.82	1.04159
1631.36	1.0022
1632.9	1.16786
1634.43	1.35229
1635.96	1.35076
1637.5	1.77915
1639.03	0.604583
1640.57	1.55553
1642.1	1.51777
1643.63	1.53475
1645.16	1.49461
1646.7	1.88123
1648.23	1.46789
1649.76	1.35262
1651.29	1.64676
1652.82	1.19998
1654.36	1.71888
1655.89	1.81183
1657.42	2.07145
1658.95	2.25596
1660.48	1.58733
1662.01	2.17592
1663.53	1.50534
1665.06	2.14659
1666.59	1.32915
1668.12	2.35833
1669.65	1.45246
1671.18	1.94936
1672.7	2.00506
1674.23	1.41675
1675.76	1.19675
1677.29	1.58342
1678.81	1.26958
1680.34	1.24912
1681.86	1.43
1683.39	1.18793
1684.91	1.18478
1686.44	0.870222
1687.96	1.27131
1689.49	0.756433
1691.01	0.571922
1692.54	0.607286
1694.06	0.752308
1695.58	-0.0902185
1697.11	0.602768
1698.63	0.692001
1700.15	1.09095
1701.67	0.649882
1703.2	0.773817
1704.72	0.168571
1706.24	0.419022
1707.76	0.268809
1709.28	0.0460997
1710.8	0.495337
1712.32	0.41812
1713.84	0.866625
1715.36	0.0291395
1716.88	0.0250225
1718.4	0.76179
1719.91	0.179013
1721.43	0.174733
1722.95	0.134944
1724.47	0.438501
1725.99	-0.121369
1727.5	0.0405703
1729.02	0.167376
1730.54	0.149648
1732.05	-0.294522
1733.57	0.150076
1735.09	0.146232
1736.6	0.220901
1738.12	0.221771
1739.63	0.255329
1741.15	0.487299
1742.66	-0.184979
1744.18	-0.268485
1745.69	-0.194969
1747.2	0.144458
1748.72	0.29842
1750.23	0.388553
1751.74	0.57332
1753.25	0.0406475
1754.77	0.200006
1756.28	-0.00725651
1757.79	-0.0190687
1759.3	0.0821142
1760.81	-0.0972958
1762.32	-0.335049
1763.83	0.0700598
1765.34	0.413349
1766.85	0.244221
1768.36	0.00385475
1769.87	0.14192
1771.38	0.179567
1772.89	0.433826
1774.4	0.225043
1775.91	0.515676
1777.41	-0.133353
1778.92	0.170796
1780.43	0.0274267
1781.94	0.121639
1783.44	0.219458
1784.95	-0.37487
1786.45	0.117066
1787.96	-0.0954494
1789.47	-0.020793
1790.97	0.151443
1792.47	0.0864267
1793.98	0.218863
1795.48	0.20181
1796.99	0.0371103
1798.49	-0.114089
1800	-0.0928001
1801.5	0.0267763
1803	0.275738
1804.51	0.0670109
1806.01	0.332886
1807.51	0.250472
1809.01	0.0993271
1810.51	0.027997
1812.02	-0.00951385
1813.52	-0.0449076
1815.02	-0.0396814
1816.52	0.207966
1818.02	0.234732
1819.52	-0.218412
1821.02	0.195744
1822.52	0.120255
1824.02	-0.0253725
1825.51	-0.233606
1827.01	0.0458889
1828.51	0.439984
1830.01	0.113886
1831.51	0.236582
1833	0.199691
1834.5	0.112832
1836	0.0173721
1837.49	0.126235
1838.99	0.0723829
1840.49	0.0892658
1841.98	0.350563
1843.48	-0.0817547
1844.97	0.21206
1846.47	0.0744534
1847.96	0.319995
1849.46	-0.246293
1850.95	-0.200652
1852.45	-0.0981579
1853.94	0.284804
1855.43	0.199882
1856.92	0.150792
1858.42	0.398044
1859.91	-0.0463476
1861.4	-0.0577135
1862.89	-0.134982
1864.39	-0.0190163
1865.88	-0.0254726
1867.37	-0.13359
1868.86	0.273322
1870.35	0.21249
1871.84	0.0668421
1873.33	-0.0157566
1874.82	0.0861855
1876.31	0.252621
1877.8	-0.061285
1879.29	-0.138695
1880.77	0.170948
1882.26	-0.481047
1882.52	-0.637771
1884.02	0.146025
1885.51	0.144228
1887.01	0.0369625
1888.5	-0.140378
1889.99	0.0306482
1891.49	-0.110439
1892.98	0.219748
1894.47	0.325867
1895.96	0.0512152
1897.46	0.281763
1898.95	0.268751
1900.44	-0.110734
1901.93	0.638734
1903.42	0.255479
1904.91	0.635737
1906.4	0.128626
1907.89	0.177695
1909.38	0.435682
1910.87	-0.433293
1912.36	0.0869503
1913.85	0.121976
1915.34	0.157094
1916.83	0.0531416
1918.32	0.329955
1919.8	0.172938
1921.29	0.0332441
1922.78	0.0152988
1924.27	0.275327
1925.75	0.207652
1927.24	-0.482071
1928.73	-0.0631104
1930.21	-0.0423613
1931.7	0.116061
1933.18	-0.246576
1934.67	-0.178197
1936.15	-0.16357
1937.64	0.109113
1939.12	0.363648
1940.61	0.221039
1942.09	0.0795555
1943.57	-0.405629
1945.06	-0.303224
1946.54	0.196017
1948.02	-0.029109
1949.51	-0.0998363
1950.99	0.431042
1952.47	0.185957
1953.95	0.146893
1955.43	0.485831
1956.91	0.275254
1958.39	0.151512
1959.87	0.457575
1961.36	-0.196244
1962.84	0.0934019
1964.32	-0.011445
1965.79	-0.116737
1967.27	0.0854092
1968.75	0.252387
1970.23	-0.179756
1971.71	0.071641
1973.19	0.117805
1974.66	0.488065
1976.14	0.00581455
1977.62	-0.117904
1979.1	0.150146
1980.57	0.281729
1982.05	0.00498581
1983.53	-0.0508738
1985	0.113646
1986.48	0.0232334
1987.95	-0.236525
1989.43	0.0124836
1990.9	0.160332
1992.38	0.00460148
1993.85	0.103713
1995.33	0.254344
1996.8	0.0168076
1998.27	0.0496044
1999.75	0.318258
2001.22	-0.173345
2002.69	-0.108426
2004.16	0.209146
2005.64	-0.231463
2007.11	0.188112
2008.58	0.37271
2010.05	0.0531359
2011.52	-0.0805874
2012.99	0.0887442
2014.46	0.240739
2015.93	0.0553331
2017.4	0.508143
2018.87	0.236794
2020.34	-0.270133
2021.81	0.533188
2023.28	0.446461
2024.75	-0.0923061
2026.22	0.142155
2027.69	0.0091238
2029.15	0.162862
2030.62	0.133565
2032.09	0.0885448
2033.56	-0.0231333
2035.02	0.200976
2036.49	0.021637
2037.95	0.228097
2039.42	-0.0195608
2040.89	0.169678
2042.35	-0.0777502
2043.82	0.045517
2045.28	-0.351783
2046.75	0.143626
2048.21	0.185088
2049.67	0.445343
2051.14	0.249459
2052.6	0.709472
2054.06	0.206197
2055.53	-0.0291348
2056.99	0.172461
2058.45	0.271934
2059.92	-0.0499468
2061.38	0.0834837
2062.84	0.217709
2064.3	0.15103
2065.76	-0.0491714
2067.22	0.0712938
2068.68	0.293402
2070.14	0.297083
2071.6	0.166145
2073.06	0.00134754
2074.52	0.307731
2075.98	0.22647
2077.44	-0.158322
2078.9	-0.00464916
2080.36	0.16536
2081.82	0.132698
2083.27	-0.220492
2084.73	0.233455
2086.19	-0.154774
2087.65	0.011528
2089.1	-0.024436
2090.56	0.325753
2092.01	0.087904
2093.47	0.0851212
2094.93	0.165921
2096.38	-0.156138
2097.84	0.258455
2099.29	0.186435
2100.75	-0.0363207
2102.2	0.443308
2103.66	0.522406
2105.11	0.152222
2106.56	0.351095
2108.02	0.550997
2109.47	0.250938
2110.92	-0.0495396
2112.37	0.448637
2113.83	0.111802
2115.28	-0.192981
2116.73	0.100297
2118.18	-0.121517
2119.63	0.488307
2121.09	0.120705
2122.54	-0.0952892
2123.99	0.320455
2125.44	0.00723648
2126.89	0.141455
2128.34	0.274584
2129.79	0.190757
2131.23	-0.225606
2132.68	0.367367
2134.13	0.149023
2135.58	0.212825
2137.03	0.0963011
2138.48	0.37838
2139.92	0.133588
2141.37	-0.225289
2142.82	0.227103
2144.26	0.697067
2145.71	0.588319
2147.16	0.230803
2148.6	0.203621
2150.05	0.506854
2151.49	0.129824
2152.94	0.663024
2154.38	0.383473
2155.83	0.418249
2157.27	0.154925
2158.72	0.356174
2160.16	0.426283
2161.6	-0.0651751
2163.05	1.05303
2164.49	0.81379
2165.93	0.525339
2167.38	0.884337
2168.82	0.827066
2170.26	0.584856
2171.7	0.772779
2173.14	0.409676
2174.58	0.510917
2176.03	0.57825
2177.47	1.01157
2178.91	0.697445
2180.35	0.783416
2181.79	0.837088
2183.23	0.824888
2184.67	0.929421
2186.1	1.15053
2187.54	0.672905
2188.98	0.627833
2190.42	0.149948
2191.86	0.820359
2193.3	0.441194
2194.73	0.726599
2196.17	0.776941
2197.61	0.209508
2199.05	0.522157
2200.48	0.81666
2201.92	0.595886
2203.35	0.890437
2204.79	0.754713
2206.22	0.570534
2207.66	0.370521
2209.09	0.501678
2210.53	0.201562
2211.96	0.215028
2213.4	0.260753
2214.83	0.0585222
2216.27	0.500925
2217.7	0.3831
2219.13	0.0358181
2220.56	0.151269
2222	0.497522
2223.43	0.00257301
2224.86	-0.048748
2226.29	0.29316
2227.72	0.484826
2229.16	0.297
2230.59	0.305606
2232.02	0.281192
2233.45	0.257121
2234.88	0.168491
2236.31	0.130263
2237.74	0.159052
2239.17	0.483475
2240.6	0.483566
2242.03	0.534534
2243.45	0.162784
2244.88	0.16654
2246.31	0.136994
2247.74	0.399359
2249.17	0.0398064
2250.59	0.32997
2252.02	0.145795
2253.45	0.0586309
2254.87	0.573061
2256.3	0.179078
2257.73	0.0801334
2259.15	-0.0157795
2260.58	0.0535755
2262	0.32028
2263.43	0.0529909
2264.85	-0.198051
2266.28	0.330748
2267.7	0.35494
2269.13	-0.0612383
2270.55	0.270313
2271.97	0.275843
2273.4	-0.207404
2274.82	0.221463
2276.24	0.32486
2277.66	0.575184
2279.09	0.369243
2280.51	0.587111
2281.93	0.1362
2283.35	-0.0539865
2284.77	0.229018
2286.19	0.136967
2287.61	0.0452452
2289.04	0.117264
2290.46	0.271453
2291.88	-0.195126
2293.29	0.123025
2294.71	-0.114861
2296.13	0.088913
2297.55	0.178171
2298.97	0.120116
2300.39	0.0786009
2301.81	-0.290621
2303.23	0.0947552
2304.64	0.332965
2306.06	0.0786428
2307.48	0.15233
2308.89	0.126878
2310.31	-0.24453
2311.73	0.205858
2313.14	0.129955
2314.56	0.037961
2315.97	0.0289888
2317.39	0.00433826
2318.8	-0.382536
2320.22	0.00512695
2321.63	0.359023
2323.05	0.0509653
2324.46	0.136516
2325.88	0.38465
2327.29	0.482366
2328.7	0.480262
2330.12	0.0665836
2331.53	0.197544
2332.94	0.164997
2334.35	0.347277
2335.76	-0.523092
2337.18	0.00444317
2338.59	0.267594
2340	-0.111547
2341.41	-0.11354
2342.82	0.162927
2344.23	0.0781946
2345.64	0.157753
2347.05	-0.0409317
2348.46	-0.124756
2349.87	0.249169
2351.28	-0.604221
2352.69	0.110694
2354.1	0.284879
2355.5	0.0830793
2356.91	0.304688
2358.32	0.0215807
2359.73	0.0154152
2361.14	-0.36393
2362.54	0.311354
2363.95	0.175306
2365.36	-0.381136
2366.76	-0.0150232
2368.17	-0.0849581
2369.58	-0.0891771
2370.98	-0.414417
2372.39	0.180369
2373.79	0.0992851
2375.2	0.244032
2376.6	-0.142681
2378	0.354293
2379.41	0.28658
2380.81	0.377722
2382.22	0.0502405
2383.62	-0.0532017
2385.02	0.499169
2386.42	0.427562
2387.83	0.325168
2389.23	-0.317838
2390.63	0.331975
2392.03	-0.259703
2393.43	0.280081
2394.84	0.168133
2396.24	-0.133747
2397.64	-0.228159
2399.04	0.170626
2400.44	0.220266
2401.84	0.111391
2403.24	0.0819969
2404.64	0.131623
2406.04	-0.0577793
2407.44	0.0217333
2408.83	-0.105813
2410.23	0.0200434
2411.63	-0.0441198
2413.03	0.145994
2414.43	0.17899
2415.83	0.356003
2417.22	0.43944
2418.62	-0.0461435
2420.02	0.418719
2421.41	0.31338
2422.81	0.11258
2424.21	0.244162
2425.6	0.122297
2427	0.302068
2428.39	0.324301
2429.79	-0.128226
2431.18	0.292253
2432.58	0.205297
2433.97	0.419477
2435.36	0.12423
2436.76	0.192749
2438.15	0.625092
2439.54	0.134588
2440.94	0.183286
2442.33	0.294877
2443.72	-0.117564
2445.11	-0.117458
2446.51	0.0568857
2447.9	0.120006
2449.29	-0.371352
2450.68	-0.323721
2452.07	0.436638
2453.46	0.232133
2454.85	0.155187
2456.24	0.221356
2457.63	0.00313473
2459.02	0.101116
2460.41	0.0245256
2461.8	0.326585
2463.19	0.248299
2464.58	0.311642
2465.97	0.264064
2467.36	0.358494
2468.75	0.0267668
2470.13	-0.115612
2471.52	0.324903
2472.91	0.149829
2474.29	0.304766
2475.68	-0.217604
2477.07	0.344964
2478.45	0.294087
2479.84	0.353312
2481.22	0.11471
2482.61	0.189754
2484	0.232885
2485.38	0.071701
2486.77	-0.324674
2488.15	-0.0502586
2489.54	-0.0110435
2490.92	0.012351
2492.3	0.0673075
2493.69	-0.0630894
2495.07	0.195957
2496.45	0.331869
2497.84	-0.0426464
2499.22	0.311117
2500.6	-0.387735
2501.98	0.258274
2503.36	-0.271334
2504.74	0.217225
2506.13	-0.389862
2507.51	-0.0416307
2508.89	0.30595
2510.27	-0.0224886
2511.65	-0.226867
2513.03	0.137072
2514.41	0.0264874
2515.79	0.161855
2517.17	0.221377
2518.55	-0.0702372
2519.93	0.0359335
2521.3	0.111176
2522.68	0.231445
2524.06	-0.137398
2525.44	-0.155878
2526.82	0.160409
2528.19	-0.223318
2529.57	0.124468
2530.95	0.0631351
2532.32	0.33786
2533.7	0.310067
2535.08	-0.0967751
2536.45	0.271166
2537.83	0.106687
2539.2	-0.0131578
2540.58	0.16987
2541.95	0.185447
2543.33	0.474398
2544.7	-0.0550289
2546.08	0.220842
2547.45	0.027751
2548.82	0.093401
2550.2	0.477801
2551.57	0.0271282
2552.94	0.288751
2554.32	0.0333176
2555.69	0.15634
2557.06	0.263558
2558.43	0.249271
2559.8	0.326224
2561.17	0.070262
2562.55	0.315135
2563.92	-0.106187
2565.29	-0.102751
2566.66	0.234338
2568.03	0.23813
2569.4	0.408652
2570.77	0.185108
2572.14	0.295054
2573.51	0.192876
2574.88	0.16658
2576.24	0.140312
2577.61	0.00782681
2578.98	0.223845
2580.35	0.105924
2581.72	0.0785589
2583.09	-0.100795
2584.45	0.189594
2585.82	0.388922
2587.19	-0.0482521
2588.55	0.12106
2589.92	0.199536
2591.28	0.0960302
2592.65	0.022377
2594.02	0.0691175
2595.38	0.220793
2596.75	0.068553
2598.11	0.203084
2599.48	0.110285
2600.84	0.199021
2602.2	0.378788
2603.57	0.211893
2604.93	-0.0750017
2606.3	0.0910435
2607.66	0.0304575
2609.02	0.330786
2610.38	0.328276
2611.75	-0.232474
2613.11	0.229054
2614.47	0.103069
2615.83	-0.248012
2617.19	0.271282
2618.56	0.221105
2619.92	0.156857
2621.28	-0.13082
2622.64	-0.014123
2624	0.0279942
2625.36	0.0849247
2626.72	0.186256
2628.08	0.123188
2629.44	0.149236
2630.8	-0.301059
2632.15	-0.156108
2633.51	0.107395
2634.87	0.459495
2636.23	0.0991507
2637.59	0.0653725
2638.94	0.13534
2640.3	0.190565
2641.66	0.0537863
2643.02	0.124311
2644.37	0.623032
2645.73	-0.044467
2647.08	-0.136488
2648.44	0.168643
2649.8	-0.0867939
2651.15	0.0397997
2652.51	-0.304125
2653.86	0.101082
2655.22	0.0665398
2656.57	-0.0547075
2657.92	-0.116084
2659.28	0.0429325
2660.63	0.260688
2661.99	-0.00418949
2663.34	0.227221
2664.69	0.238564
2666.04	0.292868
2667.4	0.127985
2668.75	0.0069561
2670.1	0.482944
2671.45	-0.146228
2672.81	-0.163654
2674.16	0.516603
2675.51	0.282331
2676.86	0.164927
2678.21	0.468888
2679.56	0.309551
2680.91	0.296335
2682.26	0.182867
2683.61	0.157597
2684.96	0.00273991
2686.31	0.00786591
2687.66	0.665996
2689	0.176324
2690.35	0.483299
2691.7	-0.0245018
2693.05	0.0903435
2694.4	0.392603
2695.74	0.56391
2697.09	0.199723
2698.44	-0.133905
2699.79	-0.349915
2701.13	-0.071909
2702.48	0.120765
2703.82	-0.120091
2705.17	0.103275
2706.52	0.355913
2707.86	-0.0880232
2709.21	0.251176
2710.55	0.154578
2711.9	-0.0585785
2713.24	0.251112
2714.58	0.182998
2715.93	0.231086
2717.27	0.177253
2718.61	0.297702
2719.96	0.330522
2721.3	0.333781
2722.64	0.511191
2723.99	0.0185738
2725.33	0.311496
2726.67	0.109144
2728.01	0.124802
2729.35	0.358493
2730.7	0.577429
2732.04	0.38891
2733.38	0.767853
2734.72	0.346896
2736.06	0.217106
2737.4	0.0874615
2738.74	0.56862
2740.08	0.351435
2741.42	0.162887
2742.76	0.468009
2744.09	0.321732
2745.43	0.0877361
2746.77	0.390788
2748.11	0.345018
2749.45	0.357365
2750.79	0.311887
2752.12	0.542162
2753.46	0.366717
2754.8	-0.0837088
2756.13	0.291846
2757.47	0.232956
2758.81	0.319116
2760.14	0.275373
2761.48	0.0874281
2762.81	0.464322
2764.15	0.0312233
2765.49	0.33604
2766.82	-0.155341
2768.15	0.393937
2769.49	0.0306673
2770.82	0.518878
2772.16	0.0952702
2773.49	0.205137
2774.82	-0.0173235
2776.16	0.178264
2777.49	0.18679
2778.82	0.037672
2780.16	-0.0532284
2781.49	-0.0144482
2782.82	0.0530729
2784.15	-0.0803385
2785.48	-0.0272827
2786.81	0.26937
2788.15	0.0651627
2789.48	-0.16667
2790.81	-0.440336
2792.14	-0.212654
2793.47	0.215483
2794.8	0.400509
2796.13	0.24218
2797.46	0.0262451
2798.79	0.152573
2800.12	0.235544
2801.44	0.189775
2802.77	0.357717
2804.1	-0.00205708
2805.43	0.00842476
2806.76	0.231785
2808.08	0.155507
2809.41	0.590538
2810.74	0.286474
2812.07	-0.00234222
2813.39	0.0223503
2814.72	-0.1075
2816.05	0.104325
2817.37	0.288863
2818.7	-0.0362654
2820.02	-0.0495663
2821.35	-0.0349617
2822.67	0.0498333
2824	0.0489664
2825.32	0.231887
2826.65	0.273148
2827.97	0.343222
2829.29	0.413845
2830.62	0.711429
2831.94	0.343901
2833.26	0.485913
2834.59	0.457733
2835.91	0.627181
2837.23	0.824313
2838.55	0.511646
2839.88	0.708034
2841.2	0.890276
2842.52	0.988051
2843.84	1.04406
2845.16	0.959485
2846.48	1.12992
2847.8	0.551684
2849.12	1.28786
2850.44	1.52908
2851.76	1.58603
2853.08	1.41632
2854.4	1.61364
2855.72	1.68355
2857.04	1.44263
2858.36	2.04929
2859.68	1.62483
2861	1.99103
2862.32	2.03207
2863.63	2.42554
2864.95	2.5222
2866.27	2.98555
2867.58	3.08226
2868.9	3.19352
2870.22	3.09374
2871.53	3.47341
2872.85	3.30301
2874.17	3.625
2875.48	3.66388
2876.8	2.95532
2878.11	3.45671
2879.43	3.53532
2880.74	3.41741
2882.06	3.3848
2883.37	3.66234
2884.69	3.37915
2886	3.44769
2887.31	3.34785
2888.63	3.48612
2889.94	3.35694
2891.25	3.6616
2892.57	3.29258
2893.88	3.358
2895.19	3.94182
2896.5	3.72823
2897.82	3.57189
2899.13	3.37476
2900.44	4.18575
2901.75	3.97596
2903.06	4.39587
2904.37	4.31235
2905.68	4.63476
2906.99	4.734
2908.3	4.7922
2909.61	4.61351
2910.92	4.98116
2912.23	5.22297
2913.54	5.492
2914.85	5.39545
2916.16	5.49291
2917.46	5.93842
2918.77	5.82287
2920.08	6.11278
2921.39	6.66894
2922.7	6.28972
2924	6.65307
2925.31	6.4726
2926.62	6.51651
2927.92	6.72822
2929.23	6.72979
2930.53	7.23397
2931.84	7.29019
2933.15	7.06652
2934.45	7.48577
2935.76	7.23426
2937.06	7.12271
2938.37	6.62013
2939.67	6.49519
2940.98	6.53851
2942.28	6.96015
2943.58	6.06952
2944.89	6.15868
2946.19	6.02549
2947.49	5.50114
2948.8	5.45198
2950.1	5.38751
2951.4	5.16697
2952.7	4.77627
2954.01	5.07011
2955.31	4.97147
2956.61	4.77584
2957.91	4.93238
2959.21	4.51793
2960.51	4.79258
2961.81	4.04649
2963.11	4.40846
2964.41	4.44744
2965.71	3.97918
2967.01	4.43624
2968.31	3.95021
2969.61	4.06775
2970.91	3.86169
2972.21	3.66991
2973.51	3.61912
2974.81	3.58236
2976.1	3.37593
2977.4	3.67499
2978.7	2.87392
2980	3.15516
2981.29	3.26593
2982.59	3.06655
2983.89	2.6849
2985.18	2.93713
2986.48	2.33368
2987.78	2.64523
2989.07	2.33954
2990.37	2.13246
2991.66	2.00918
2992.96	1.92696
2994.25	1.9137
2995.55	1.96945
2996.84	1.71549
2998.14	1.34925
2999.43	1.58673
3000.72	1.61422
3002.02	1.19377
3003.31	1.26444
3004.6	0.886903
3005.9	1.25152
3007.19	0.971308
3008.48	1.06824
3009.77	1.01031
3011.07	0.686203
3012.36	0.697196
3013.65	0.638399
3014.94	0.468578
3016.23	0.620081
3017.52	0.438007
3018.81	0.868895
3020.1	0.478867
3021.39	0.51969
3022.68	0.254037
3023.97	0.126592
3025.26	0.594759
3026.55	0.577024
3027.84	0.2277
3029.13	0.00451422
3030.42	0.266679
3031.71	0.170956
3033	0.186792
3034.28	0.120131
3035.57	0.480632
3036.86	0.150091
3038.15	0.203959
3039.43	0.104472
3040.72	-0.0925622
3042.01	0.217864
3043.29	0.00652266
3044.58	0.357786
3045.86	0.354369
3047.15	0.161915
3048.44	0.354347
3049.72	0.152966
3051.01	0.280769
3052.29	0.450305
3053.58	0.306028
3054.86	0.20205
3056.14	0.328928
3057.43	0.427342
3058.71	0.320472
3060	0.608295
3061.28	0.610385
3062.56	0.463857
3063.84	-0.197826
3065.13	0.121088
3066.41	0.645272
3067.69	-0.0395331
3068.97	0.336575
3070.25	0.277297
3071.54	0.189955
3072.82	0.0470228
3074.1	0.161225
3075.38	0.179285
3076.66	-0.0202923
3077.94	0.0250468
3079.22	-0.0642815
3080.5	0.268416
3081.78	-0.292648
3083.06	-0.106431
3084.34	0.0262508
3085.62	0.14548
3086.9	-0.047884
3088.17	0.2874
3089.45	-0.056653
3090.73	-0.00754213
3092.01	0.190638
3093.29	-0.0722785
3094.56	-0.0500116
3095.84	-0.0274777
3097.12	-0.181088
3098.4	-0.0365105
3099.67	0.107862
3100.95	-0.181411
3102.22	0.138953
3103.5	0.0261817
3104.77	-0.167235
3106.05	0.00553751
3107.33	-0.0779357
3108.6	-0.092732
3109.88	0.0153418
3111.15	0.395246
3112.43	-0.15842
3113.7	0.250006
3114.97	-0.0732803
3116.25	-0.058229
3117.52	-0.00330019
3118.79	0.118393
3120.07	0.130498
3121.34	-0.143019
3122.61	-0.0239029
3123.88	0.257483
3125.16	-0.178804
3126.43	0.035347
3127.7	0.304021
3128.97	0.316078
3130.24	0.355533
3131.51	0.0842004
3132.78	0.326361
3134.05	0.135777
3135.33	0.012372
3136.59	0.509145
3137.86	0.0745211
3139.14	0.0712628
3140.41	0.417797
3141.67	0.158653
3142.94	0.357091
3144.21	0.354314
3145.48	0.20459
3146.75	0.189834
3148.02	0.416903
3149.28	0.189063
