200.43	0.929887
202.246	0.926901
204.061	0.925244
205.875	0.851967
207.688	0.998211
209.501	0.415166
211.316	0.463449
213.129	0.46219
214.941	0.70272
216.753	0.215508
218.566	0.819234
220.377	-0.0049324
222.188	-0.415681
223.999	0.0455141
225.809	0.603809
227.618	0.0749722
229.43	-0.405182
231.239	0.0802746
233.047	0.854733
234.855	0.568151
236.663	0.379739
238.471	0.50709
240.278	0.998807
242.087	0.914736
243.894	0.398098
245.7	0.629422
247.506	1.29426
249.311	1.08756
251.116	1.72285
252.921	1.462
254.725	0.886094
256.529	1.54015
258.333	0.989756
260.136	0.562213
261.939	1.12473
263.744	0.677474
265.546	0.833856
267.348	0.653522
269.15	1.07568
270.951	0.41246
272.752	0.158035
274.552	0.866817
276.353	0.82667
278.152	0.953494
279.952	0.452065
281.751	0.190014
283.55	-0.193576
285.348	0.527477
287.146	0.238418
288.942	0.0939608
290.739	-0.121176
292.536	0.096344
294.333	-0.0435152
296.129	-0.133754
297.925	0.0402308
299.721	0.549282
301.516	0.413139
303.311	-0.0817232
305.106	0.210311
306.9	-0.0234795
308.694	0.481873
310.486	0.0820198
312.279	-0.339955
314.072	-0.450394
315.864	0.798375
317.656	0.858655
319.448	-0.055953
321.24	0.126422
323.029	-0.0716381
324.819	0.828328
326.61	0.225461
328.4	0.625212
330.19	0.498977
331.977	0.251924
333.766	-0.0208445
335.555	0.852899
337.343	-0.142038
339.131	0.0335751
340.917	0.0880432
342.704	0.189554
344.491	-0.0673828
346.277	-0.0846701
348.062	0.997239
349.848	0.0262489
351.633	0.487894
353.416	0.495494
355.201	0.215868
356.986	0.030591
358.77	-0.441707
360.552	0.180998
362.335	0.30224
364.118	-0.0291681
365.899	-0.0518217
367.682	0.423305
369.464	-0.312584
371.243	-0.313453
373.025	-0.101998
374.806	0.132303
376.585	0.012125
378.365	0.482314
380.143	0.410765
381.923	0.599565
383.702	0.836581
385.479	0.769194
387.258	0.585808
389.034	0.00448418
390.812	0.575372
392.59	0.606919
394.365	1.10888
396.142	0.531071
397.916	0.117796
399.693	0.315056
401.467	0.840783
403.242	0.590825
405.015	0.152277
406.79	0.605467
408.565	0.494452
410.337	0.359711
412.111	0.131249
413.882	-0.284381
415.656	0.544393
417.426	0.106972
419.197	0.538486
420.969	0.430645
422.739	0.768578
424.51	0.190351
426.279	0.127654
428.05	0.41629
429.819	0.281898
431.589	0.00672722
433.356	-0.103773
435.124	0.278974
436.893	-0.159675
438.66	-0.246917
440.428	0.110335
442.194	0.137013
443.96	-0.330794
445.727	0.418338
447.492	-0.0754519
449.259	0.0157709
451.023	-0.220137
452.787	0.128309
454.553	0.593083
456.316	-0.294652
458.079	0.262781
459.844	-0.0881157
461.606	-0.321541
463.368	-0.0418453
465.132	-0.480266
466.893	0.82689
468.654	-0.117131
470.415	0.17253
472.177	0.0443602
473.937	0.497393
475.696	0.669529
477.456	0.653106
479.217	0.378469
480.975	0.382327
482.733	0.0369806
484.491	-0.353765
486.251	0.468684
488.008	0.990992
489.765	0.233372
491.522	0.222691
493.278	0.376249
495.036	0.319867
496.791	0.427153
498.546	0.370343
500.301	1.13375
502.056	0.724264
503.81	0.642028
505.566	0.229444
507.319	0.567479
509.073	0.480775
510.825	0.76883
512.578	0.490536
514.33	0.634215
516.082	0.447069
517.833	0.470428
519.587	0.210634
521.337	0.396733
523.088	0.676082
524.838	0.814082
526.588	0.717329
528.337	0.714501
530.087	0.477228
531.835	0.614547
533.584	0.189106
535.332	0.417987
537.08	1.15919
538.827	0.426657
540.574	0.370727
542.321	0.430554
544.068	0.955119
545.814	0.804523
547.56	-0.0881968
549.305	0.11096
551.05	0.263576
552.795	0.416045
554.54	0.013834
556.284	0.674534
558.027	0.0890694
559.771	0.0581455
561.514	0.235012
563.257	0.13616
564.999	-0.0309124
566.742	0.40011
568.481	-0.454198
570.223	0.116097
571.964	0.205582
573.705	0.250813
575.445	0.137256
577.185	-0.0205498
578.925	-0.406704
580.665	0.746347
582.402	-0.0525541
584.141	-0.0481062
585.879	0.116326
587.617	0.0265512
589.355	-0.0644751
591.092	0.119639
592.828	-0.0879202
594.564	-0.157609
596.301	0.255876
598.037	0.00211906
599.773	-0.482042
601.506	0.620316
603.242	0.0881071
604.976	-0.422248
606.711	0.399288
608.443	-0.158775
610.177	0.936079
611.91	-0.080121
613.644	0.304032
615.374	-0.113603
617.107	0.477309
618.839	0.15119
620.569	0.488105
622.3	-0.114573
624.032	0.128489
625.761	0.485394
627.491	0.340617
629.221	0.654377
630.949	0.30871
632.679	0.786646
634.408	0.581148
636.135	0.626369
637.863	0.487213
639.592	-0.0198069
641.318	0.314579
643.045	0.509252
644.77	1.04377
646.497	0.553934
648.224	0.134972
649.948	-0.0532312
651.674	0.398564
653.398	-0.168414
655.123	0.495551
656.846	0.684835
658.57	0.510829
660.293	0.564212
662.017	0.296366
663.738	0.939897
665.462	1.14714
667.185	0.574902
668.905	0.527646
670.628	0.709773
672.348	1.28306
674.067	0.416864
675.789	0.284972
677.508	0.199971
679.228	0.551343
680.947	0.143765
682.667	0.907074
684.385	-0.0573263
686.104	1.00186
687.821	0.677992
689.538	0.445016
691.256	0.533732
692.972	-0.000136375
694.69	-0.166163
696.406	0.0353537
698.121	0.788086
699.837	0.52647
701.552	0.286919
703.268	0.276502
704.982	0.862528
706.695	1.14879
708.41	0.769094
710.123	0.779125
711.836	0.90321
713.55	0.454885
715.262	0.784131
716.973	0.313592
718.685	0.93891
720.398	0.56044
722.108	0.501588
723.818	1.35298
725.53	1.40709
727.24	0.574986
728.949	1.0374
730.658	1.36242
732.369	0.64456
734.077	0.968676
735.785	0.907923
737.493	1.09602
739.2	0.991155
740.909	1.02268
742.616	0.830129
744.322	0.729223
746.028	0.899857
747.734	0.396857
749.441	1.15497
751.146	0.677194
752.851	0.650544
754.555	0.895198
756.26	0.646342
757.963	1.1193
759.667	0.580404
761.372	0.650629
763.075	0.96967
764.777	1.10829
766.479	1.38152
768.181	1.60795
769.883	0.905149
771.584	0.878448
773.285	1.55129
774.986	1.86174
776.686	1.517
778.386	0.879595
780.085	2.00758
781.785	1.21436
783.484	1.71077
785.182	1.07447
786.881	2.11083
788.579	1.55934
790.276	1.52508
791.974	1.14901
793.671	1.47187
795.367	1.2975
797.064	1.80047
798.76	2.05658
800.456	1.41398
802.151	1.51592
803.846	2.27067
805.541	1.36113
807.236	2.06934
808.93	1.27094
810.624	1.30266
812.317	2.05091
814.01	1.60984
815.703	2.08706
817.394	1.57925
819.086	1.74278
820.778	1.52657
822.47	1.80195
824.161	1.45342
825.852	1.0622
827.543	1.45303
829.231	1.31193
830.921	1.59705
832.611	1.75155
834.3	1.77466
835.989	1.50892
837.676	1.17572
839.364	1.55552
841.053	1.33091
842.74	1.5963
844.426	2.17409
846.113	1.07644
847.8	1.34379
849.486	2.24033
851.171	1.9093
852.857	1.15388
854.542	2.05828
856.227	1.54934
857.911	1.33049
859.595	0.794535
861.279	0.796392
862.961	1.76533
864.645	1.76466
866.329	1.44736
868.01	0.745862
869.692	0.878059
871.375	0.716723
873.055	1.00634
874.737	1.34106
876.418	0.863452
878.097	0.949969
879.778	0.87838
881.457	0.377481
883.137	1.52383
884.817	1.63057
886.495	0.900719
888.174	0.846513
889.851	1.26432
891.53	0.868764
893.206	1.17052
894.884	1.38054
896.562	0.802232
898.237	1.07741
899.914	0.700474
901.589	1.66788
903.265	1.69245
904.94	1.13568
906.615	1.6742
908.289	0.339367
909.964	1.124
911.637	0.484108
913.31	0.735155
914.984	0.675194
916.656	0.770686
918.33	1.13185
920.001	1.49243
921.674	0.835301
923.345	0.600386
925.015	0.522017
926.687	1.19622
928.357	0.900462
930.028	0.848862
931.698	1.8129
933.366	0.769455
935.037	0.652861
936.705	0.889586
938.373	0.663993
940.043	1.60856
941.71	0.569256
943.379	0.964509
945.046	1.38189
946.712	1.2243
948.378	0.976475
950.046	0.969473
951.711	1.29211
953.376	0.467698
955.043	1.07848
956.708	1.51561
958.372	0.699003
960.036	1.65026
961.701	0.660719
963.364	0.487513
965.027	0.821124
966.69	0.377958
968.354	0.529235
970.016	0.589874
971.678	0.959228
973.339	1.12984
975	1.05865
976.661	0.215272
978.324	0.125201
979.984	0.434056
981.644	0.742715
983.303	0.917307
984.962	1.04562
986.621	0.928246
988.282	0.919646
989.94	0.0694456
991.598	0.9654
993.256	0.755761
994.913	1.01
996.57	0.602202
998.227	1.18704
999.884	1.30819
1001.54	1.27459
1003.2	0.822426
1004.85	1.07425
1006.51	0.446548
1008.16	0.522556
1009.82	0.423215
1011.47	0.127066
1013.12	0.445385
1014.78	0.347536
1016.43	0.272089
1018.08	0.569201
1019.74	0.385669
1021.39	0.050272
1023.04	0.371893
1024.69	0.956604
1026.34	0.951777
1028	0.575532
1029.65	0.701206
1031.3	0.716361
1032.95	1.53756
1034.6	0.82882
1036.25	0.969801
1037.9	0.891819
1039.55	1.46685
1041.19	0.519117
1042.84	0.813044
1044.49	0.847731
1046.14	1.40573
1047.79	0.988283
1049.43	0.963579
1051.08	1.04882
1052.73	0.74393
1054.37	0.721791
1056.02	0.83005
1057.66	0.894573
1059.31	0.219355
1060.95	0.913211
1062.6	1.23665
1064.24	1.08069
1065.88	0.141015
1067.53	0.439459
1069.17	0.302187
1070.81	0.35978
1072.46	1.11177
1074.1	0.453271
1075.74	0.794075
1077.38	0.572246
1079.02	0.720419
1080.66	0.82603
1082.3	0.237742
1083.94	-0.0478029
1085.58	0.423848
1087.22	0.0913839
1088.86	0.753234
1090.5	0.481912
1092.14	0.166535
1093.78	0.823013
1095.42	0.0975952
1097.05	-0.108356
1098.69	0.419722
1100.33	0.43224
1101.97	-0.00516987
1103.6	0.398496
1105.24	0.222607
1106.87	0.21942
1108.51	0.667552
1110.15	0.211367
1111.78	0.26967
1113.41	0.046979
1115.05	0.553167
1116.68	0.779119
1118.31	0.554671
1119.95	0.566868
1121.58	-0.169333
1123.21	0.209184
1124.85	0.524227
1126.48	1.01109
1128.11	1.15642
1129.74	0.72518
1131.37	0.444323
1133	0.655513
1134.63	0.268015
1136.26	-0.0131836
1137.89	0.708934
1139.52	0.254546
1141.15	0.1624
1142.78	-0.122243
1144.41	-0.107907
1146.04	-0.199496
1147.66	-0.119578
1149.29	0.365952
1150.92	0.702655
1152.55	0.826258
1154.17	-0.0724659
1155.8	0.00792027
1157.43	0.0242786
1159.05	-0.788526
1160.68	0.0372686
1162.3	0.544976
1163.93	0.352057
1165.55	-0.393127
1167.17	0.243461
1168.8	-0.0140219
1170.42	-0.400644
1172.05	0.485757
1173.67	-0.350432
1175.29	0.0437489
1176.91	0.648761
1178.54	0.448084
1180.16	-0.323088
1181.78	-0.330812
1183.4	0.148403
1185.02	0.373567
1186.64	-0.22604
1188.26	0.587207
1189.88	0.00571346
1191.5	-0.323852
1193.12	-0.317727
1194.74	0.401365
1196.36	-0.223379
1197.97	0.0129423
1199.59	-0.293329
1201.21	0.657036
1202.83	0.126286
1204.44	0.391906
1206.06	0.367515
1207.68	0.448861
1209.29	0.593086
1210.91	0.840702
1212.52	-0.289694
1214.14	1.05836
1215.75	-0.26305
1217.37	0.184134
1218.98	0.567
1220.6	0.0355005
1222.21	0.915983
1223.82	0.698014
1225.44	0.337089
1227.05	0.267932
1228.66	0.882855
1230.27	0.278784
1231.88	0.813221
1233.49	0.0466738
1235.1	1.1416
1236.72	0.853091
1238.33	0.586291
1239.94	1.39538
1241.55	1.50185
1243.16	1.13218
1244.76	0.492512
1246.37	0.844906
1247.98	0.0374355
1249.59	1.05002
1251.2	1.02765
1252.8	0.447013
1254.41	0.880715
1256.02	0.94325
1257.63	0.986452
1259.23	2.37598
1260.84	0.538255
1262.44	0.521996
1264.05	0.775064
1265.66	1.19367
1267.26	0.160753
1268.87	1.03376
1270.47	0.889895
1272.07	1.59497
1273.68	0.764616
1275.28	0.969827
1276.88	0.614422
1278.48	1.27338
1280.09	1.06147
1281.69	1.4289
1283.29	1.21686
1284.89	0.840146
1286.49	0.754064
1288.09	1.64055
1289.69	0.461229
1291.3	1.28708
1292.9	1.18292
1294.49	0.768115
1296.09	1.36408
1297.69	0.863737
1299.29	1.62058
1300.89	1.09649
1302.49	1.45759
1304.09	1.42593
1305.68	1.70187
1307.28	1.29892
1308.88	1.69656
1310.47	1.41706
1312.07	0.503914
1313.66	1.2091
1315.26	0.688012
1316.86	1.72054
1318.45	1.67082
1320.05	1.64142
1321.64	1.10181
1323.23	1.07023
1324.83	0.89453
1326.42	1.50941
1328.01	1.59492
1329.61	1.70103
1331.2	1.30309
1332.79	1.11047
1334.38	1.82925
1335.98	1.45932
1337.57	1.11063
1339.16	1.44695
1340.75	1.80109
1342.34	1.28687
1343.93	1.57547
1345.52	1.3602
1347.11	1.00518
1348.7	1.11346
1350.29	1.42439
1351.87	1.41775
1353.46	1.15357
1355.05	1.23085
1356.64	0.868903
1358.23	1.36568
1359.81	1.44171
1361.4	1.03741
1362.99	0.792174
1364.57	0.945528
1366.16	0.83993
1367.74	1.09376
1369.33	0.950584
1370.91	1.00807
1372.5	1.16656
1374.08	0.848749
1375.67	0.730671
1377.25	0.871395
1378.83	0.95188
1380.42	0.931759
1382	0.233853
1383.58	0.767879
1385.16	0.525182
1386.75	1.01727
1388.33	0.178583
1389.91	0.194838
1391.49	0.271541
1393.07	1.40044
1394.65	0.883077
1396.23	0.702844
1397.81	0.720169
1399.39	0.221196
1400.97	0.672298
1402.55	0.805563
1404.13	0.958409
1405.7	0.913918
1407.28	-0.275957
1408.86	0.847655
1410.44	0.944
1412.01	1.33644
1413.59	0.8002
1415.17	0.796107
1416.74	1.14604
1418.32	0.687035
1419.89	1.29261
1421.47	0.815826
1423.05	0.911967
1424.62	1.128
1426.19	0.932114
1427.77	1.03209
1429.34	1.50575
1430.92	1.13204
1432.49	1.38682
1434.06	1.48297
1435.63	1.69654
1437.2	1.399
1438.78	1.92801
1440.35	1.77013
1441.92	2.10474
1443.49	2.28297
1445.06	1.63621
1446.63	1.7758
1448.2	2.97709
1449.77	2.35064
1451.34	2.47176
1452.91	1.94458
1454.48	3.30607
1456.05	2.77928
1457.62	2.15309
1459.18	1.93852
1460.75	2.1155
1462.32	1.44418
1463.89	1.87268
1465.45	1.33637
1467.02	1.88061
1468.59	1.24665
1470.15	1.36004
1471.72	0.846865
1473.28	1.19813
1474.85	0.883426
1476.41	1.13789
1477.98	1.27479
1479.54	1.82322
1481.11	1.5286
1482.67	1.42994
1484.23	1.07642
1485.8	1.01646
1487.36	1.26903
1488.92	0.678084
1490.48	0.868299
1492.05	0.0977716
1493.61	1.08415
1495.17	0.505563
1496.73	0.531176
1498.29	0.30344
1499.85	-0.000887871
1501.41	0.939066
1502.97	0.831104
1504.53	0.666253
1506.09	0.734287
1507.65	0.801509
1509.2	0.152621
1510.76	-0.0136671
1512.32	0.0314646
1513.88	0.691948
1515.44	0.255243
1516.99	-0.141332
1518.55	-0.114281
1520.1	-0.0483341
1521.66	-0.173674
1523.22	0.197888
1524.77	0.147726
1526.33	-0.0940752
1527.88	0.596763
1529.44	0.106163
1530.99	0.167513
1532.55	0.64638
1534.1	-0.0680571
1535.65	0.752423
1537.21	0.400702
1538.76	-0.213772
1540.31	0.267063
1541.86	0.690556
1543.42	0.416758
1544.97	0.124475
1546.52	-0.167466
1548.07	0.572957
1549.62	0.487091
1551.17	1.2442
1552.72	0.279382
1554.27	0.775188
1555.82	0.842196
1557.37	0.425793
1558.92	0.70231
1560.47	0.0853491
1562.02	0.347012
1563.57	0.124854
1565.11	0.798895
1566.66	0.988046
1568.21	0.99035
1569.75	0.71223
1571.3	0.862971
1572.85	0.509381
1574.39	1.03298
1575.94	0.828577
1577.49	1.25912
1579.03	0.775354
1580.58	1.13243
1582.12	0.407305
1583.67	0.598121
1585.21	0.902014
1586.75	0.608427
1588.3	0.801063
1589.84	1.12462
1591.38	1.16715
1592.93	0.628694
1594.47	1.08228
1596.01	0.674326
1597.55	0.66014
1599.09	0.796669
1600.63	0.483886
1602.18	1.05343
1603.72	1.43576
1605.26	1.36681
1606.8	1.07073
1608.34	1.2046
1609.87	1.1667
1611.41	1.12614
1612.95	0.257043
1614.49	1.03908
1616.03	1.08813
1617.57	0.743993
1619.11	0.701264
1620.64	0.660223
1622.18	0.564548
1623.72	1.29356
1625.25	0.99289
1626.79	1.32778
1628.32	1.15586
1629.86	1.18816
1631.4	0.92017
1632.93	1.15632
1634.47	1.09384
1636	0.752464
1637.53	0.63622
1639.07	0.427546
1640.6	1.20682
1642.14	1.4632
1643.67	1.06635
1645.2	1.24544
1646.73	0.958326
1648.27	1.26586
1649.8	0.812065
1651.33	1.56614
1652.86	1.412
1654.39	1.18515
1655.92	1.12601
1657.45	1.56712
1658.98	1.59955
1660.51	1.59339
1662.04	1.12303
1663.57	0.818371
1665.1	1.69561
1666.63	1.55679
1668.16	1.6223
1669.69	1.5236
1671.21	1.20567
1672.74	1.2392
1674.27	1.32852
1675.79	1.49118
1677.32	1.21111
1678.85	1.24273
1680.37	1.21791
1681.9	0.769604
1683.42	0.780537
1684.95	1.01171
1686.47	0.821198
1688	1.10795
1689.52	0.900248
1691.05	0.619801
1692.57	0.394629
1694.1	0.206182
1695.62	0.67588
1697.14	0.614904
1698.66	0.498816
1700.19	0.583115
1701.71	0.539042
1703.23	0.549031
1704.75	0.813306
1706.27	0.166846
1707.79	0.484658
1709.32	0.111587
1710.83	-0.0248299
1712.35	-0.0520363
1713.88	0.319551
1715.39	-0.124022
1716.91	0.825819
1718.43	-0.37674
1719.95	-0.0244169
1721.47	-0.0694542
1722.99	-0.203955
1724.5	0.167289
1726.02	0.377478
1727.54	-0.167005
1729.06	0.765566
1730.57	0.0794621
1732.09	0.342951
1733.61	-0.346051
1735.12	-0.119086
1736.64	0.276782
1738.15	0.243605
1739.67	0.31827
1741.18	0.462625
1742.7	0.0758448
1744.21	0.0418024
1745.72	-0.240632
1747.24	-0.149715
1748.75	0.31415
1750.26	0.46486
1751.78	-0.15646
1753.29	-0.299376
1754.8	0.013957
1756.31	0.249875
1757.82	0.109276
1759.34	-0.0266037
1760.85	0.435798
1762.36	-0.0993185
1763.87	0.46272
1765.38	0.684403
1766.89	0.131896
1768.4	0.455577
1769.91	-0.0718594
1771.41	0.261559
1772.92	0.291561
1774.43	0.513449
1775.94	0.192249
1777.45	-0.125927
1778.96	0.287215
1780.46	0.0586081
1781.97	0.0467119
1783.48	0.285379
1784.98	0.243108
1786.49	-0.0406075
1788	-0.156359
1789.5	0.0644932
1791.01	-0.0406151
1792.51	0.607626
1794.01	-0.0470667
1795.52	0.0723686
1797.02	0.232609
1798.53	0.199581
1800.03	-0.139199
1801.54	0.126989
1803.04	0.221222
1804.54	-0.008811
1806.04	0.0060997
1807.54	0.255486
1809.05	0.240257
1810.55	0.076087
1812.05	0.402786
1813.55	0.437151
1815.05	0.0100851
1816.55	0.039053
1818.05	0.481611
1819.55	0.0295782
1821.05	0.145319
1822.55	-0.000684738
1824.05	0.0255699
1825.55	0.0816278
1827.05	-0.143479
1828.55	0.116431
1830.04	0.0548439
1831.54	0.19472
1833.04	-0.0240183
1834.54	0.0575848
1836.03	-0.121461
1837.53	0.0903883
1839.03	0.194584
1840.52	-0.00203991
1842.02	0.13646
1843.51	-0.167751
1845.01	0.138766
1846.5	-0.230614
1848	0.0581331
1849.49	0.299147
1850.99	0.144928
1852.48	0.0331802
1853.97	0.029603
1855.47	0.137366
1856.96	0.165803
1858.45	-0.0333862
1859.94	0.619766
1861.44	0.215293
1862.93	-0.20745
1864.42	-0.192921
1865.91	-0.161877
1867.4	0.254315
1868.89	-0.168958
1870.38	0.0840626
1871.87	0.496423
1873.36	0.315607
1874.85	0.170504
1876.34	-0.143129
1877.83	-0.0465975
1879.32	-0.0428753
1880.81	-0.134469
1882.3	-0.299583
1882.56	-0.334332
1884.06	0.0104656
1885.55	0.336698
1887.04	-0.12213
1888.54	0.306746
1890.03	0.404844
1891.52	0.138819
1893.02	0.396425
1894.51	-0.247966
1896	-0.0734711
1897.49	0.119399
1898.99	-0.0183048
1900.48	-0.139809
1901.97	0.17176
1903.46	0.150767
1904.95	0.580106
1906.44	0.330526
1907.93	0.741063
1909.42	-0.340758
1910.91	0.765553
1912.4	-0.278698
1913.89	-0.0904846
1915.38	0.271159
1916.86	0.112171
1918.35	0.801916
1919.84	-0.189946
1921.33	0.273688
1922.82	0.252694
1924.3	-0.425125
1925.79	0.421872
1927.28	0.162133
1928.76	-0.183488
1930.25	-0.00974941
1931.74	0.0245571
1933.22	0.438141
1934.71	0.537874
1936.19	0.237622
1937.67	0.126533
1939.16	-0.105867
1940.64	0.3876
1942.13	0.242973
1943.61	0.082469
1945.09	0.40591
1946.58	-0.0978861
1948.06	-0.0501738
1949.54	0.496216
1951.03	-0.250383
1952.51	0.431005
1953.99	-0.1272
1955.47	0.260354
1956.95	0.716552
1958.43	0.126134
1959.91	0.223353
1961.39	0.269677
1962.87	0.333337
1964.35	-0.0487309
1965.83	-0.0714149
1967.31	0.0249491
1968.79	-0.0505877
1970.27	-0.109587
1971.75	0.00199699
1973.22	0.386441
1974.7	-0.0993729
1976.18	0.114492
1977.66	0.260147
1979.13	-0.0708656
1980.61	0.0237675
1982.09	-0.238883
1983.56	-0.331631
1985.04	-0.102137
1986.52	0.245445
1987.99	0.0840893
1989.47	0.329758
1990.94	-0.11793
1992.41	-0.0904245
1993.89	0.107244
1995.36	0.576085
1996.84	0.453858
1998.31	0.145885
1999.78	0.0570841
2001.26	-0.606071
2002.73	-0.0885057
2004.2	0.276681
2005.67	-0.284804
2007.15	0.367742
2008.62	-0.292421
2010.09	0.4292
2011.56	0.22539
2013.03	0.4593
2014.5	0.0868092
2015.97	-0.421002
2017.44	-0.424965
2018.91	-0.110428
2020.38	0.320819
2021.85	0.0629473
2023.32	0.175004
2024.79	-0.0308924
2026.25	0.251162
2027.72	-0.488285
2029.19	-0.13581
2030.66	0.16794
2032.13	0.271594
2033.59	0.0569181
2035.06	0.715332
2036.53	0.0634108
2037.99	0.284274
2039.46	0.269495
2040.92	0.49
2042.39	0.00487232
2043.85	-0.00869656
2045.32	-0.088542
2046.78	0.0681124
2048.25	0.292666
2049.71	0.264259
2051.18	0.318926
2052.64	0.472985
2054.1	0.00090313
2055.56	0.471195
2057.03	-0.156072
2058.49	-0.126607
2059.95	-0.0973177
2061.42	0.42071
2062.88	0.165089
2064.34	-0.139728
2065.8	0.381269
2067.26	0.0113001
2068.72	0.348862
2070.18	-0.154788
2071.64	-0.153435
2073.1	0.0834894
2074.56	0.337006
2076.02	-0.16763
2077.48	-0.167495
2078.94	0.354234
2080.39	0.168155
2081.85	0.149836
2083.31	-0.323718
2084.77	-0.0574312
2086.22	0.342422
2087.68	0.253632
2089.14	0.483745
2090.6	0.05832
2092.05	0.321565
2093.51	-0.0196228
2094.96	-0.0253353
2096.42	-0.0651274
2097.87	0.212607
2099.33	0.238195
2100.78	-0.0543308
2102.24	0.472632
2103.69	0.131528
2105.15	-0.0407867
2106.6	0.189012
2108.05	0.553296
2109.51	0.017355
2110.96	-0.0521727
2112.41	0.160127
2113.86	0.753252
2115.32	0.128991
2116.77	0.186364
2118.22	0.260643
2119.67	0.0210037
2121.12	0.132218
2122.57	0.461148
2124.02	-0.203312
2125.47	0.442985
2126.92	-0.270672
2128.37	-0.206127
2129.82	0.0557156
2131.27	-0.429388
2132.72	0.425923
2134.17	0.932835
2135.62	0.762274
2137.06	0.461396
2138.51	0.559443
2139.96	0.0812483
2141.41	0.315563
2142.85	0.749795
2144.3	0.754992
2145.75	0.876208
2147.19	0.31832
2148.64	0.620571
2150.09	0.242758
2151.53	0.211638
2152.97	0.494234
2154.42	1.07413
2155.86	0.75879
2157.31	1.17249
2158.75	-0.036315
2160.2	0.313481
2161.64	0.615678
2163.08	0.572064
2164.53	0.613101
2165.97	0.754766
2167.41	0.514374
2168.86	0.870955
2170.3	0.826642
2171.74	0.846395
2173.18	0.49791
2174.62	0.613663
2176.06	1.16112
2177.5	0.494858
2178.94	0.827185
2180.38	0.478982
2181.82	0.713689
2183.26	0.865985
2184.7	0.952131
2186.14	0.489414
2187.58	0.908424
2189.02	1.04474
2190.46	0.531901
2191.89	1.21726
2193.33	0.753051
2194.77	0.720144
2196.21	0.601911
2197.64	1.23015
2199.08	1.00766
2200.52	0.817477
2201.95	0.826651
2203.39	0.554573
2204.83	0.516243
2206.26	0.562007
2207.7	0.575207
2209.13	0.704082
2210.57	0.583658
2212	-0.0836344
2213.43	0.554926
2214.87	0.317048
2216.3	0.509362
2217.73	0.735784
2219.17	-0.207384
2220.6	0.730421
2222.03	0.102117
2223.47	0.379535
2224.9	0.490434
2226.33	0.303018
2227.76	0.442793
2229.19	0.350891
2230.62	0.504364
2232.05	0.214836
2233.49	-0.417439
2234.91	0.391355
2236.34	0.285141
2237.77	0.0993061
2239.2	0.176928
2240.63	0.126289
2242.06	0.306064
2243.49	0.0468779
2244.92	0.0653458
2246.35	0.148299
2247.78	0.343576
2249.2	-0.21364
2250.63	0.628281
2252.06	0.392576
2253.48	0.172598
2254.91	0.74948
2256.34	-0.004035
2257.76	-0.0561867
2259.19	0.17071
2260.61	0.190033
2262.04	0.0823088
2263.46	-0.332309
2264.89	0.0817204
2266.31	-0.187141
2267.74	-0.0179214
2269.16	0.703729
2270.59	0.138859
2272.01	0.175588
2273.43	-0.064723
2274.85	0.330272
2276.28	0.269471
2277.7	0.208851
2279.12	-0.0962667
2280.54	0.18544
2281.97	0.369283
2283.39	1.0752
2284.81	0.0843515
2286.23	-0.106903
2287.65	-0.0529251
2289.07	0.262933
2290.49	0.334402
2291.91	0.193751
2293.33	0.363852
2294.75	0.206841
2296.17	0.295133
2297.59	0.268811
2299.01	0.340831
2300.42	0.036171
2301.84	0.321885
2303.26	-0.32694
2304.68	0.107125
2306.1	-0.279608
2307.51	-0.124888
2308.93	0.440312
2310.35	-0.0800533
2311.76	0.00740814
2313.18	-0.00382805
2314.59	0.363983
2316.01	0.420086
2317.43	-0.297178
2318.84	0.106246
2320.26	-0.413825
2321.67	0.136927
2323.08	0.289723
2324.5	0.0272274
2325.91	0.323181
2327.33	0.501506
2328.74	0.382115
2330.15	0.691348
2331.56	-0.118141
2332.98	0.144041
2334.39	-0.0371933
2335.8	0.0122318
2337.21	0.274899
2338.62	0.223884
2340.04	-0.239223
2341.45	0.216732
2342.86	-0.378741
2344.27	0.108912
2345.68	-0.0756903
2347.09	0.182497
2348.5	0.276711
2349.91	0.190402
2351.31	0.23407
2352.72	-0.19713
2354.13	0.203518
2355.54	0.455867
2356.95	-0.0253916
2358.36	0.340102
2359.76	0.10382
2361.17	0.111599
2362.58	-0.0265732
2363.98	0.0135794
2365.39	-0.367047
2366.8	0.433087
2368.21	-0.0754013
2369.61	-0.00104141
2371.02	-0.054224
2372.42	0.135843
2373.83	0.455712
2375.23	0.164098
2376.64	0.435389
2378.04	-0.356155
2379.44	0.249478
2380.85	0.177922
2382.25	-0.151687
2383.66	0.175055
2385.06	0.276805
2386.46	0.338868
2387.86	0.401868
2389.26	0.13934
2390.67	0.308875
2392.07	0.0178747
2393.47	0.237558
2394.87	-0.30539
2396.27	0.186273
2397.67	0.201553
2399.07	0.344615
2400.47	-0.147227
2401.87	0.187393
2403.27	-0.176808
2404.67	0.125565
2406.07	-0.0335608
2407.47	0.456906
2408.87	0.168887
2410.27	0.261208
2411.67	0.116063
2413.07	0.162054
2414.46	0.00370026
2415.86	-0.232053
2417.26	-0.387139
2418.66	0.155447
2420.05	0.0809832
2421.45	-0.0411701
2422.84	0.216448
2424.24	-0.0173645
2425.64	-0.156075
2427.03	0.387286
2428.43	0.440484
2429.82	0.367977
2431.22	-0.179783
2432.61	-0.045289
2434.01	0.358707
2435.4	-0.0167894
2436.79	0.384375
2438.19	-0.105968
2439.58	0.35542
2440.97	0.0373821
2442.37	-0.312813
2443.76	0.114465
2445.15	0.0177689
2446.54	-0.269275
2447.93	-0.223428
2449.33	-0.0667572
2450.72	0.169207
2452.11	0.405619
2453.5	-0.0692177
2454.89	-0.226454
2456.28	0.392253
2457.67	0.0463476
2459.06	0.538578
2460.45	0.0336914
2461.84	0.144667
2463.23	0.064991
2464.62	0.0636902
2466	0.204177
2467.39	0.0760841
2468.78	0.232045
2470.17	-0.0381861
2471.55	0.164191
2472.94	-0.170066
2474.33	0.203621
2475.72	-0.163297
2477.1	0.0200377
2478.49	0.140203
2479.87	0.291756
2481.26	0.239437
2482.65	-0.0165615
2484.03	-0.13181
2485.42	0.283865
2486.8	-0.13064
2488.19	0.0162745
2489.57	0.146386
2490.95	0.182621
2492.34	0.0794897
2493.72	0.350501
2495.1	0.09515
2496.49	-0.0187922
2497.87	0.271118
2499.25	-0.120107
2500.63	-0.124508
2502.02	0.287462
2503.4	-0.136219
2504.78	-0.112793
2506.16	0.402917
2507.54	0.0399551
2508.92	-0.0299559
2510.3	0.238631
2511.68	0.00115108
2513.06	0.148232
2514.44	0.234807
2515.82	0.138616
2517.2	0.0893421
2518.58	-0.0968447
2519.96	-0.26737
2521.34	0.172871
2522.72	0.184461
2524.1	-0.537061
2525.47	0.311435
2526.85	0.107563
2528.23	0.026228
2529.6	0.0983515
2530.98	0.141845
2532.36	-0.116608
2533.74	0.0671768
2535.11	0.0542507
2536.49	0.11722
2537.86	0.118623
2539.24	0.164466
2540.61	-0.0336075
2541.99	0.329597
2543.36	-0.611916
2544.74	0.359298
2546.11	-0.154745
2547.49	0.4096
2548.86	0.0647964
2550.23	-0.0979834
2551.61	0.254615
2552.98	0.348176
2554.35	0.288749
2555.72	0.395166
2557.09	0.0458536
2558.47	0.560885
2559.84	-0.333837
2561.21	0.682132
2562.58	0.198271
2563.95	0.291018
2565.32	0.247883
2566.69	0.220184
2568.06	0.0258837
2569.43	0.331717
2570.8	0.243507
2572.17	0.367542
2573.54	0.279468
2574.91	0.388568
2576.28	0.300625
2577.65	0.0457888
2579.02	0.0787525
2580.39	0.21745
2581.75	-0.44796
2583.12	-0.0372448
2584.49	0.0244513
2585.85	0.207338
2587.22	0.0871973
2588.59	-0.0175524
2589.95	0.39309
2591.32	0.485295
2592.68	0.455694
2594.05	0.591754
2595.42	0.226764
2596.78	0.330066
2598.15	0.417196
2599.51	0.654969
2600.88	0.137105
2602.24	-0.09266
2603.6	0.146513
2604.97	0.295599
2606.33	0.309034
2607.69	0.0204916
2609.06	0.017561
2610.42	0.269279
2611.78	-0.082921
2613.14	0.361058
2614.51	-0.428444
2615.87	-0.0312023
2617.23	-0.00924873
2618.59	-0.106454
2619.95	-0.202594
2621.31	0.449849
2622.67	-0.317495
2624.03	0.0214071
2625.39	0.0314989
2626.75	0.145665
2628.11	-0.113245
2629.47	0.19368
2630.83	0.202329
2632.19	0.552738
2633.55	0.204397
2634.91	0.346358
2636.26	-0.119967
2637.62	0.110876
2638.98	0.134125
2640.34	-0.0939837
2641.69	0.0776949
2643.05	-0.0312357
2644.41	0.273515
2645.76	0.194188
2647.12	0.0997505
2648.48	0.431782
2649.83	0.041194
2651.19	0.488496
2652.54	0.36179
2653.9	0.411661
2655.25	0.34509
2656.6	0.162777
2657.96	-0.164289
2659.31	-0.197395
2660.67	-0.332373
2662.02	0.175622
2663.37	0.068924
2664.73	-0.00940228
2666.08	0.34906
2667.43	-0.0805521
2668.78	0.24761
2670.14	0.0226889
2671.49	0.220358
2672.84	0.186019
2674.19	0.123409
2675.54	-0.0255508
2676.89	-0.173719
2678.24	-0.103477
2679.59	0.0691776
2680.94	-0.162963
2682.29	-0.0602608
2683.64	0.0293169
2684.99	0.656726
2686.34	0.0807457
2687.69	0.563737
2689.04	0.0147905
2690.39	-0.0135746
2691.74	0.13014
2693.08	-0.00365353
2694.43	0.12258
2695.78	0.0310993
2697.13	0.490881
2698.47	0.416076
2699.82	-0.0621109
2701.17	0.113333
2702.51	0.276095
2703.86	0.251812
2705.21	0.721035
2706.55	0.218942
2707.9	0.0498295
2709.24	0.330132
2710.58	0.581144
2711.93	0.178301
2713.27	0.283629
2714.62	0.519765
2715.96	0.203439
2717.3	0.352169
2718.65	0.151529
2719.99	0.663359
2721.33	0.12698
2722.68	0.448631
2724.02	0.434981
2725.36	0.275252
2726.71	0.66817
2728.05	-0.0454388
2729.39	0.506851
2730.73	-0.0324364
2732.07	0.475866
2733.41	0.504105
2734.75	0.110728
2736.09	0.241248
2737.43	0.255557
2738.77	-0.0501184
2740.11	0.211094
2741.45	0.326286
2742.79	-0.518768
2744.13	0.161774
2745.47	-0.0595579
2746.81	0.212524
2748.14	0.397067
2749.48	0.770116
2750.82	0.127899
2752.16	0.153357
2753.49	0.208055
2754.83	-0.0268402
2756.17	0.477225
2757.5	0.517851
2758.84	0.298204
2760.18	0.325158
2761.51	-0.139327
2762.85	-0.067791
2764.18	0.496038
2765.52	-0.155555
2766.85	0.320838
2768.19	0.680261
2769.52	-0.176638
2770.86	-0.0228548
2772.19	0.215804
2773.52	0.207603
2774.86	-0.305785
2776.19	0.333964
2777.52	0.411777
2778.86	0.0731173
2780.19	-0.135112
2781.52	-0.0554848
2782.85	0.239394
2784.19	0.11791
2785.52	0.0538988
2786.85	-0.22464
2788.18	-0.115782
2789.51	0.208476
2790.84	0.118756
2792.17	-0.112976
2793.5	-0.28689
2794.83	0.0109386
2796.16	0.122488
2797.49	0.333312
2798.82	-0.0991888
2800.15	0.0247746
2801.48	-0.236837
2802.81	-0.170487
2804.13	0.00949478
2805.46	0.0890703
2806.79	0.139359
2808.12	0.131953
2809.45	-0.00382805
2810.77	-0.0115499
2812.1	-0.0894957
2813.43	0.245276
2814.75	-0.396783
2816.08	0.196329
2817.41	0.053565
2818.73	0.0390482
2820.06	0.123747
2821.38	-0.203094
2822.71	0.163746
2824.03	0.0905275
2825.36	0.257749
2826.68	-0.0282021
2828	-0.228479
2829.33	0.124056
2830.65	0.363832
2831.98	-0.302113
2833.3	0.249247
2834.62	0.262324
2835.94	0.288982
2837.27	0.640439
2838.59	0.708313
2839.91	0.733491
2841.23	0.78707
2842.55	1.0673
2843.87	0.768767
2845.2	1.1919
2846.52	1.19179
2847.84	0.923579
2849.16	1.53167
2850.48	1.31966
2851.8	1.75723
2853.12	1.26138
2854.44	1.45761
2855.76	1.45577
2857.08	1.72233
2858.39	1.84764
2859.71	1.83167
2861.03	1.90023
2862.35	2.13779
2863.67	1.86671
2864.98	2.63962
2866.3	2.32591
2867.62	2.78835
2868.94	2.94093
2870.25	3.20678
2871.57	3.21902
2872.88	2.83631
2874.2	2.97417
2875.52	2.95574
2876.83	3.76665
2878.15	2.74651
2879.46	3.55537
2880.78	3.64693
2882.09	3.27583
2883.41	3.36979
2884.72	2.86115
2886.03	3.22379
2887.35	3.24954
2888.66	2.69944
2889.97	3.24287
2891.29	3.35024
2892.6	3.5549
2893.91	3.14282
2895.22	3.72575
2896.54	3.63737
2897.85	3.80224
2899.16	3.75844
2900.47	4.12134
2901.78	3.89724
2903.09	3.63147
2904.4	4.07926
2905.71	3.85601
2907.02	4.43074
2908.33	4.43302
2909.64	4.14254
2910.95	4.69231
2912.26	4.52841
2913.57	4.76955
2914.88	4.533
2916.19	5.31634
2917.5	5.36969
2918.81	5.12801
2920.11	5.36186
2921.42	5.16299
2922.73	5.38512
2924.04	5.44118
2925.34	5.35886
2926.65	5.80849
2927.96	5.7969
2929.26	5.67301
2930.57	5.78613
2931.87	6.13632
2933.18	5.85716
2934.49	6.40268
2935.79	5.81625
2937.1	6.23631
2938.4	5.87404
2939.7	5.7078
2941.01	5.91949
2942.31	5.32179
2943.62	5.68982
2944.92	5.45855
2946.22	4.50134
2947.53	4.70539
2948.83	4.88132
2950.13	4.94401
2951.43	4.47249
2952.74	4.65683
2954.04	4.25147
2955.34	4.51776
2956.64	4.44916
2957.94	4.39706
2959.24	4.01218
2960.54	4.30269
2961.84	4.02126
2963.15	4.35763
2964.45	3.83738
2965.75	3.89078
2967.05	3.68934
2968.34	3.66898
2969.64	3.60557
2970.94	3.45764
2972.24	3.68987
2973.54	3.41605
2974.84	2.71978
2976.14	3.26149
2977.43	3.01332
2978.73	3.04476
2980.03	2.5815
2981.33	2.59544
2982.62	2.2009
2983.92	2.11641
2985.22	1.9068
2986.51	2.17679
2987.81	2.22364
2989.11	1.87821
2990.4	1.85631
2991.7	2.19929
2992.99	1.8805
2994.29	1.47606
2995.58	1.36553
2996.88	1.28237
2998.17	0.806164
2999.46	1.3266
3000.76	1.13219
3002.05	0.476081
3003.34	1.29219
3004.64	1.00132
3005.93	0.654337
3007.22	0.670902
3008.52	1.05029
3009.81	0.659226
3011.1	0.505389
3012.39	0.560762
3013.68	0.657949
3014.97	0.407033
3016.27	0.296627
3017.56	0.396085
3018.85	0.329097
3020.14	-0.0436459
3021.43	0.0144529
3022.72	-0.220079
3024.01	-0.0112028
3025.3	-0.094614
3026.59	0.348247
3027.88	0.085207
3029.16	-0.217517
3030.45	0.158916
3031.74	-0.195258
3033.03	-0.216601
3034.32	0.245473
3035.6	0.375558
3036.89	-0.0750113
3038.18	0.0103607
3039.47	0.354974
3040.75	0.380922
3042.04	0.117585
3043.33	0.101705
3044.61	0.223802
3045.9	0.11517
3047.18	-0.11363
3048.47	-0.230187
3049.75	0.256274
3051.04	0.103022
3052.32	0.278293
3053.61	0.180717
3054.89	0.546315
3056.18	0.419624
3057.46	0.237293
3058.74	0.463037
3060.03	0.116446
3061.31	0.328678
3062.59	0.215463
3063.88	0.457529
3065.16	0.443047
3066.44	0.457468
3067.72	0.0380173
3069	0.489302
3070.29	0.192444
3071.57	0.193848
3072.85	-0.037219
3074.13	0.13835
3075.41	-0.0812073
3076.69	0.0115471
3077.97	0.0233173
3079.25	0.0228205
3080.53	-0.152252
3081.81	-0.0677528
3083.09	0.221723
3084.37	0.050806
3085.65	-0.133571
3086.93	-0.27771
3088.21	0.0932493
3089.49	0.0291977
3090.76	0.439679
3092.04	-0.235383
3093.32	-0.0553789
3094.6	-0.0106173
3095.87	0.00741386
3097.15	-0.204812
3098.43	0.220086
3099.7	0.156946
3100.98	-0.000974655
3102.26	-0.0231981
3103.53	0.10394
3104.81	0.35352
3106.08	0.576897
3107.36	0.233047
3108.63	0.10701
3109.91	0.171742
3111.18	0.251253
3112.46	0.467239
3113.73	0.453612
3115	0.440025
3116.28	0.426013
3117.55	-0.00933075
3118.83	0.707069
3120.1	0.635631
3121.37	0.44126
3122.64	0.598825
3123.92	0.525872
3125.19	0.6429
3126.46	0.828151
3127.73	0.811111
3129	0.0915394
3130.27	0.833136
3131.55	0.763574
3132.82	0.410268
3134.09	0.502667
3135.36	0.8645
3136.63	0.537395
3137.9	0.58777
3139.17	1.28439
3140.44	1.03765
3141.71	1.02019
3142.98	1.07043
3144.24	1.24211
3145.51	0.703451
3146.78	1.02444
3148.05	1.03777
3149.32	0.757391
