200.43	0.689538
202.246	0.69571
204.061	0.702518
205.875	0.540281
207.688	0.378686
209.501	1.21322
211.316	0.710126
213.129	0.133577
214.941	0.33301
216.753	0.483227
218.566	-0.0931444
220.377	-0.111278
222.188	-0.0799341
223.999	-0.434394
225.809	0.203027
227.618	-0.0777979
229.43	-0.0205393
231.239	0.784446
233.047	-0.534391
234.855	0.800882
236.663	0.521589
238.471	0.485801
240.278	0.501024
242.087	-0.132188
243.894	0.297058
245.7	0.533752
247.506	0.720904
249.311	0.929579
251.116	0.772823
252.921	1.02356
254.725	1.24813
256.529	0.94168
258.333	1.28722
260.136	0.285369
261.939	0.707355
263.744	0.794036
265.546	0.785678
267.348	1.40448
269.15	1.15555
270.951	0.134276
272.752	-0.020299
274.552	0.354213
276.353	0.100304
278.152	0.736321
279.952	0.382238
281.751	0.194981
283.55	0.270677
285.348	0.152603
287.146	-0.37399
288.942	0.467238
290.739	0.804684
292.536	0.16174
294.333	0.693564
296.129	-0.303613
297.925	-0.103735
299.721	0.192216
301.516	0.0102215
303.311	0.519989
305.106	0.81331
306.9	0.437547
308.694	-0.0571556
310.486	0.0449514
312.279	0.291208
314.072	0.682051
315.864	0.455867
317.656	0.731838
319.448	0.819196
321.24	0.264529
323.029	0.449504
324.819	0.39669
326.61	0.081399
328.4	0.267297
330.19	0.0225105
331.977	-0.271526
333.766	0.150343
335.555	0.0916719
337.343	-0.0411224
339.131	0.158927
340.917	0.620312
342.704	0.554605
344.491	0.0110826
346.277	0.495627
348.062	0.383739
349.848	0.224817
351.633	0.0422153
353.416	0.885253
355.201	0.0092268
356.986	-0.295186
358.77	0.447919
360.552	0.283976
362.335	0.52386
364.118	0.144387
365.899	0.00240707
367.682	0.405819
369.464	0.902418
371.243	0.189075
373.025	0.706885
374.806	0.514182
376.585	0.723331
378.365	0.22525
380.143	0.0354633
381.923	0.459289
383.702	0.460562
385.479	0.251747
387.258	0.772972
389.034	0.872316
390.812	0.620517
392.59	1.30916
394.365	0.871287
396.142	0.762714
397.916	-0.00330544
399.693	0.616239
401.467	0.460298
403.242	0.750003
405.015	0.663117
406.79	0.270212
408.565	0.675077
410.337	0.609992
412.111	0.0287247
413.882	0.738706
415.656	0.440467
417.426	0.565521
419.197	0.691372
420.969	0.489033
422.739	0.920215
424.51	0.787352
426.279	-0.121235
428.05	0.401377
429.819	0.47742
431.589	0.0840511
433.356	-0.00379753
435.124	0.143455
436.893	0.361154
438.66	0.0148926
440.428	0.206934
442.194	-0.705682
443.96	0.419975
445.727	-0.00393009
447.492	-0.0539379
449.259	0.176264
451.023	0.312731
452.787	-0.157591
454.553	-0.393618
456.316	0.069952
458.079	-0.00296879
459.844	0.273366
461.606	-0.031311
463.368	-0.171282
465.132	0.0863647
466.893	-0.280352
468.654	0.238877
470.415	0.737387
472.177	-0.18221
473.937	0.479609
475.696	-0.0477047
477.456	0.563893
479.217	0.171873
480.975	-0.128003
482.733	0.410766
484.491	0.112319
486.251	-0.254029
488.008	0.523664
489.765	0.511559
491.522	0.757409
493.278	0.326906
495.036	0.410387
496.791	0.0725918
498.546	-0.148967
500.301	0.449405
502.056	0.250129
503.81	0.0965834
505.566	0.646747
507.319	-0.191381
509.073	0.450213
510.825	-0.0860214
512.578	0.599581
514.33	0.436475
516.082	0.813003
517.833	0.576541
519.587	0.621239
521.337	0.0776691
523.088	0.56743
524.838	0.141069
526.588	0.325078
528.337	0.227573
530.087	0.950282
531.835	0.125957
533.584	0.0976105
535.332	0.114864
537.08	-0.26666
538.827	0.261612
540.574	0.647581
542.321	-0.0396919
544.068	0.600349
545.814	0.35583
547.56	0.135306
549.305	0.611028
551.05	0.344936
552.795	0.449736
554.54	0.184832
556.284	-0.125391
558.027	0.741488
559.771	0.0175934
561.514	0.722791
563.257	-0.159612
564.999	0.270078
566.742	-0.127053
568.481	0.165869
570.223	-0.618936
571.964	0.112319
573.705	-0.0725307
575.445	-0.0490541
577.185	0.68754
578.925	0.53084
580.665	0.305971
582.402	-0.010911
584.141	0.361059
585.879	-0.0266972
587.617	-0.162955
589.355	0.665773
591.092	-0.116956
592.828	-0.256051
594.564	-0.0272007
596.301	-0.373492
598.037	0.223469
599.773	0.0838451
601.506	0.0583954
603.242	0.353602
604.976	0.394172
606.711	0.180526
608.443	0.126983
610.177	-0.0184736
611.91	0.180783
613.644	0.42653
615.374	0.397799
617.107	0.690038
618.839	0.202852
620.569	-0.262134
622.3	0.713311
624.032	0.474912
625.761	0.556636
627.491	0.593715
629.221	0.244937
630.949	0.583392
632.679	0.422053
634.408	0.490096
636.135	0.21544
637.863	0.349842
639.592	0.253119
641.318	-0.12037
643.045	0.506845
644.77	0.607903
646.497	-0.132618
648.224	0.311966
649.948	0.600319
651.674	0.347401
653.398	0.348596
655.123	0.376121
656.846	0.337851
658.57	0.824821
660.293	0.627847
662.017	0.771366
663.738	0.569766
665.462	0.98259
667.185	0.776066
668.905	0.385608
670.628	0.0414305
672.348	0.705976
674.067	-0.160458
675.789	0.555486
677.508	0.241669
679.228	-0.00370026
680.947	0.967861
682.667	0.558696
684.385	0.630078
686.104	0.584192
687.821	0.49048
689.538	0.257346
691.256	0.484093
692.972	0.710155
694.69	0.497747
696.406	0.0540705
698.121	0.6453
699.837	1.02761
701.552	1.06328
703.268	0.661125
704.982	0.718068
706.695	1.41694
708.41	0.60072
710.123	1.27474
711.836	0.436235
713.55	0.833969
715.262	1.23077
716.973	1.17013
718.685	0.858764
720.398	0.844387
722.108	0.648033
723.818	0.110762
725.53	0.847317
727.24	0.946305
728.949	0.477339
730.658	0.484839
732.369	0.990144
734.077	1.22271
735.785	0.392521
737.493	0.693342
739.2	1.26501
740.909	0.326437
742.616	0.764593
744.322	0.888425
746.028	0.406028
747.734	0.442824
749.441	0.908319
751.146	0.700328
752.851	0.673621
754.555	1.27826
756.26	1.14215
757.963	0.782438
759.667	1.48274
761.372	1.39611
763.075	1.87402
764.777	1.11045
766.479	1.63251
768.181	1.67839
769.883	0.817403
771.584	1.46906
773.285	1.39554
774.986	1.41192
776.686	1.49666
778.386	1.67323
780.085	1.78366
781.785	1.44293
783.484	1.57741
785.182	1.37121
786.881	1.75102
788.579	1.47094
790.276	0.983932
791.974	1.17274
793.671	1.56266
795.367	1.97404
797.064	1.55171
798.76	1.64982
800.456	1.41214
802.151	1.35622
803.846	1.54846
805.541	1.20085
807.236	1.36947
808.93	1.71629
810.624	1.74717
812.317	1.79937
814.01	1.51473
815.703	1.45412
817.394	1.25935
819.086	1.48956
820.778	1.60789
822.47	1.68178
824.161	1.86788
825.852	1.67645
827.543	1.97753
829.231	1.61338
830.921	1.23026
832.611	1.58517
834.3	2.45539
835.989	1.74737
837.676	1.91974
839.364	2.0174
841.053	1.84838
842.74	1.96625
844.426	1.60549
846.113	1.37936
847.8	1.4009
849.486	1.06707
851.171	0.757744
852.857	1.14468
854.542	1.46609
856.227	1.42863
857.911	1.54726
859.595	1.25925
861.279	0.721164
862.961	0.991757
864.645	1.1936
866.329	1.01132
868.01	1.16646
869.692	0.937742
871.375	1.40785
873.055	0.930323
874.737	1.62586
876.418	0.899856
878.097	1.61813
879.778	1.11752
881.457	1.04532
883.137	1.19808
884.817	1.41736
886.495	1.36419
888.174	1.82822
889.851	1.23015
891.53	1.0142
893.206	0.414268
894.884	1.68162
896.562	1.82146
898.237	1.10652
899.914	1.02013
901.589	1.38114
903.265	1.02454
904.94	0.400422
906.615	0.782475
908.289	1.00819
909.964	1.30107
911.637	0.793447
913.31	0.70982
914.984	1.13738
916.656	1.12053
918.33	1.10359
920.001	0.621821
921.674	0.672376
923.345	0.746118
925.015	1.1086
926.687	1.22977
928.357	0.558093
930.028	1.52103
931.698	1.05025
933.366	0.535768
935.037	0.992105
936.705	0.941511
938.373	0.935927
940.043	0.997788
941.71	0.928606
943.379	0.992573
945.046	0.923987
946.712	0.655491
948.378	0.561614
950.046	1.14986
951.711	0.567132
953.376	0.977242
955.043	1.03595
956.708	1.05352
958.372	1.00844
960.036	1.36368
961.701	0.948049
963.364	0.973801
965.027	0.688125
966.69	0.28872
968.354	0.240249
970.016	0.897511
971.678	0.602445
973.339	0.838674
975	0.744671
976.661	0.0112181
978.324	0.761179
979.984	0.560753
981.644	0.359805
983.303	0.865775
984.962	1.30326
986.621	1.00789
988.282	0.312434
989.94	1.40738
991.598	0.356645
993.256	0.6984
994.913	0.554186
996.57	0.719105
998.227	0.663298
999.884	0.386928
1001.54	1.34368
1003.2	0.648145
1004.85	0.107128
1006.51	0.204015
1008.16	0.586328
1009.82	0.968421
1011.47	0.16625
1013.12	0.702447
1014.78	0.208936
1016.43	0.0885468
1018.08	0.340775
1019.74	-0.15003
1021.39	0.082078
1023.04	0.708627
1024.69	0.155826
1026.34	0.499716
1028	0.384707
1029.65	0.334591
1031.3	1.24414
1032.95	0.557573
1034.6	0.72076
1036.25	0.707764
1037.9	0.279929
1039.55	0.984534
1041.19	0.557695
1042.84	0.263266
1044.49	0.992146
1046.14	1.46199
1047.79	1.82525
1049.43	1.19143
1051.08	1.29746
1052.73	1.55653
1054.37	1.7727
1056.02	1.22824
1057.66	1.16146
1059.31	1.09408
1060.95	0.982443
1062.6	0.630708
1064.24	0.277953
1065.88	0.511106
1067.53	0.612541
1069.17	0.843163
1070.81	0.681933
1072.46	-0.195657
1074.1	0.381716
1075.74	-0.298306
1077.38	0.0860023
1079.02	0.579942
1080.66	0.510883
1082.3	-0.403862
1083.94	0.350121
1085.58	0.0832968
1087.22	-0.0338621
1088.86	0.301612
1090.5	0.43996
1092.14	0.274076
1093.78	-0.259219
1095.42	0.503178
1097.05	0.575242
1098.69	0.0455484
1100.33	0.271879
1101.97	0.134222
1103.6	-0.0444565
1105.24	0.423615
1106.87	0.117942
1108.51	0.199113
1110.15	0.601578
1111.78	0.48622
1113.41	0.283206
1115.05	0.186373
1116.68	0.475107
1118.31	0.377661
1119.95	0.580982
1121.58	-0.242621
1123.21	-0.0583811
1124.85	0.661637
1126.48	0.761877
1128.11	1.11957
1129.74	0.451646
1131.37	-0.258232
1133	-0.198089
1134.63	0.610054
1136.26	-0.207028
1137.89	0.321236
1139.52	0.0575323
1141.15	-0.399234
1142.78	0.530906
1144.41	-0.288691
1146.04	0.662637
1147.66	0.655287
1149.29	-0.20328
1150.92	-0.0597839
1152.55	0.637317
1154.17	0.503381
1155.8	0.198787
1157.43	0.553762
1159.05	0.121938
1160.68	-0.330019
1162.3	-0.355418
1163.93	0.619548
1165.55	0.170532
1167.17	-0.151191
1168.8	-0.155124
1170.42	0.285463
1172.05	-0.359917
1173.67	-0.13603
1175.29	0.0649424
1176.91	0.180211
1178.54	0.486124
1180.16	0.136161
1181.78	-0.127754
1183.4	-0.0734978
1185.02	0.192038
1186.64	0.0338917
1188.26	0.106266
1189.88	-0.182028
1191.5	0.0334883
1193.12	-0.236811
1194.74	-0.129394
1196.36	0.711511
1197.97	-0.12389
1199.59	0.445847
1201.21	0.243981
1202.83	0.442131
1204.44	0.517792
1206.06	-0.343054
1207.68	0.174751
1209.29	0.421581
1210.91	0.959426
1212.52	0.0772581
1214.14	0.52701
1215.75	0.59879
1217.37	0.81394
1218.98	0.798834
1220.6	0.783556
1222.21	0.00176048
1223.82	0.21734
1225.44	0.413538
1227.05	0.300791
1228.66	0.582707
1230.27	-0.0232286
1231.88	0.447386
1233.49	0.423143
1235.1	0.730982
1236.72	0.523493
1238.33	0.461821
1239.94	0.959208
1241.55	0.629723
1243.16	0.50659
1244.76	0.734302
1246.37	1.04366
1247.98	0.420678
1249.59	0.252093
1251.2	0.0418081
1252.8	0.514396
1254.41	0.615384
1256.02	1.21402
1257.63	1.00741
1259.23	0.905549
1260.84	0.55627
1262.44	0.372948
1264.05	1.10101
1265.66	0.0469828
1267.26	0.525411
1268.87	0.671278
1270.47	0.878204
1272.07	1.16685
1273.68	1.03959
1275.28	1.28429
1276.88	1.15476
1278.48	0.734303
1280.09	0.644741
1281.69	0.616982
1283.29	0.79623
1284.89	0.645055
1286.49	0.763736
1288.09	0.656196
1289.69	0.591066
1291.3	0.815825
1292.9	1.01979
1294.49	0.871658
1296.09	0.825371
1297.69	0.570834
1299.29	1.18115
1300.89	0.943595
1302.49	1.4877
1304.09	1.10356
1305.68	1.06879
1307.28	1.21831
1308.88	1.01836
1310.47	0.531922
1312.07	1.13192
1313.66	0.954411
1315.26	1.02356
1316.86	1.07329
1318.45	1.14402
1320.05	0.74561
1321.64	1.05974
1323.23	0.557506
1324.83	1.1723
1326.42	0.70798
1328.01	1.17677
1329.61	0.511075
1331.2	0.799303
1332.79	0.745975
1334.38	0.998193
1335.98	1.37308
1337.57	1.04235
1339.16	1.25547
1340.75	1.30518
1342.34	1.41261
1343.93	1.31636
1345.52	1.19889
1347.11	0.981526
1348.7	1.40756
1350.29	1.11531
1351.87	0.946531
1353.46	1.3002
1355.05	1.25549
1356.64	1.13134
1358.23	1.08667
1359.81	0.821234
1361.4	1.09364
1362.99	-0.091444
1364.57	0.319299
1366.16	0.630178
1367.74	0.543365
1369.33	0.497828
1370.91	0.33454
1372.5	0.172896
1374.08	0.370707
1375.67	0.708588
1377.25	0.549151
1378.83	0.747313
1380.42	0.944271
1382	0.880996
1383.58	1.03493
1385.16	0.591208
1386.75	0.564539
1388.33	-0.077527
1389.91	0.452817
1391.49	0.666316
1393.07	0.583064
1394.65	0.480477
1396.23	-0.0188417
1397.81	0.512111
1399.39	-0.127562
1400.97	-0.0547523
1402.55	0.235044
1404.13	-0.108606
1405.7	1.26896
1407.28	0.590733
1408.86	0.783401
1410.44	0.522264
1412.01	1.18933
1413.59	0.256336
1415.17	0.842313
1416.74	1.26893
1418.32	0.571127
1419.89	0.8397
1421.47	0.617014
1423.05	0.534125
1424.62	0.964947
1426.19	0.747748
1427.77	0.846135
1429.34	1.23947
1430.92	1.10027
1432.49	1.68779
1434.06	1.21147
1435.63	1.9542
1437.2	1.55637
1438.78	1.43486
1440.35	1.72736
1441.92	1.84415
1443.49	1.39192
1445.06	1.4708
1446.63	1.11749
1448.2	1.84547
1449.77	1.94485
1451.34	1.84822
1452.91	1.02458
1454.48	1.24362
1456.05	1.38403
1457.62	1.97636
1459.18	1.66191
1460.75	1.26659
1462.32	1.30194
1463.89	1.21723
1465.45	1.34744
1467.02	1.65383
1468.59	0.998284
1470.15	1.01167
1471.72	0.849867
1473.28	0.924796
1474.85	0.079011
1476.41	0.567236
1477.98	0.663383
1479.54	0.681025
1481.11	0.816134
1482.67	0.657156
1484.23	0.51766
1485.8	0.612875
1487.36	1.31426
1488.92	0.662699
1490.48	0.792165
1492.05	1.29024
1493.61	0.710384
1495.17	0.110023
1496.73	0.893219
1498.29	0.564885
1499.85	0.199152
1501.41	0.262635
1502.97	0.540704
1504.53	0.896832
1506.09	1.19456
1507.65	1.02682
1509.2	0.375138
1510.76	0.0901375
1512.32	0.151638
1513.88	0.135534
1515.44	-0.0149193
1516.99	0.258051
1518.55	0.205312
1520.1	0.172582
1521.66	0.0444775
1523.22	0.18388
1524.77	0.112002
1526.33	0.420448
1527.88	0.00335217
1529.44	-0.0139532
1530.99	0.234538
1532.55	0.255405
1534.1	0.637075
1535.65	0.0922508
1537.21	0.400037
1538.76	-0.424485
1540.31	0.8273
1541.86	0.494363
1543.42	0.406591
1544.97	0.0555372
1546.52	0.305957
1548.07	0.0490389
1549.62	0.467381
1551.17	0.697832
1552.72	0.947145
1554.27	0.729928
1555.82	0.178589
1557.37	0.656671
1558.92	0.632931
1560.47	0.686173
1562.02	0.741394
1563.57	0.704744
1565.11	0.370272
1566.66	0.0731621
1568.21	0.130328
1569.75	0.299059
1571.3	0.784691
1572.85	0.0379763
1574.39	1.00847
1575.94	0.0375719
1577.49	0.261645
1579.03	0.766275
1580.58	0.114091
1582.12	0.825956
1583.67	0.455688
1585.21	0.123452
1586.75	0.782442
1588.3	0.731419
1589.84	0.343299
1591.38	1.05878
1592.93	0.557053
1594.47	0.129583
1596.01	0.994689
1597.55	0.961224
1599.09	0.85356
1600.63	0.915504
1602.18	0.452579
1603.72	0.458631
1605.26	0.445121
1606.8	1.48241
1608.34	0.544157
1609.87	0.693152
1611.41	0.670183
1612.95	1.09553
1614.49	0.524045
1616.03	0.402876
1617.57	1.44453
1619.11	0.631764
1620.64	0.626817
1622.18	0.511207
1623.72	0.7898
1625.25	0.562971
1626.79	0.204321
1628.32	0.648825
1629.86	1.50268
1631.4	0.653545
1632.93	0.813505
1634.47	0.805623
1636	1.26518
1637.53	0.550533
1639.07	0.545655
1640.6	0.410383
1642.14	0.46079
1643.67	0.99397
1645.2	0.44576
1646.73	0.901309
1648.27	1.3372
1649.8	0.993072
1651.33	0.891837
1652.86	0.662404
1654.39	0.694113
1655.92	0.856334
1657.45	1.16663
1658.98	1.16087
1660.51	1.65331
1662.04	1.19981
1663.57	1.0967
1665.1	1.27006
1666.63	0.705359
1668.16	0.548524
1669.69	0.670161
1671.21	0.553987
1672.74	1.39707
1674.27	0.675017
1675.79	1.03929
1677.32	0.868633
1678.85	0.825535
1680.37	0.96501
1681.9	0.772609
1683.42	1.31452
1684.95	0.571262
1686.47	0.122805
1688	1.10503
1689.52	0.67615
1691.05	0.724068
1692.57	0.168134
1694.1	0.179698
1695.62	-0.0466175
1697.14	0.43961
1698.66	-0.207338
1700.19	0.222715
1701.71	0.213869
1703.23	-0.214846
1704.75	0.175879
1706.27	0.00133896
1707.79	0.190334
1709.32	0.342545
1710.83	0.0953474
1712.35	0.0845041
1713.88	0.218804
1715.39	0.0814352
1716.91	0.143164
1718.43	-0.1749
1719.95	-0.131371
1721.47	-0.268158
1722.99	-0.512224
1724.5	0.218148
1726.02	-0.00510883
1727.54	-0.0824966
1729.06	0.00334549
1730.57	-0.376378
1732.09	-0.18211
1733.61	0.42662
1735.12	0.341286
1736.64	0.171176
1738.15	0.325084
1739.67	-0.185581
1741.18	0.0248432
1742.7	0.339164
1744.21	0.162587
1745.72	0.0730457
1747.24	-0.0214691
1748.75	0.0153551
1750.26	0.203259
1751.78	0.0471792
1753.29	-0.0415964
1754.8	0.0152102
1756.31	0.352295
1757.82	0.0127373
1759.34	0.422327
1760.85	-0.416975
1762.36	-0.406118
1763.87	0.383026
1765.38	0.137134
1766.89	0.0662127
1768.4	0.151866
1769.91	-0.144985
1771.41	-0.0334425
1772.92	0.217803
1774.43	0.248721
1775.94	0.349216
1777.45	0.015336
1778.96	0.128952
1780.46	-0.0494356
1781.97	0.176286
1783.48	-0.0187111
1784.98	0.502837
1786.49	0.13323
1788	0.0404053
1789.5	0.110856
1791.01	0.111245
1792.51	-0.043148
1794.01	-0.291252
1795.52	0.296064
1797.02	0.22607
1798.53	0.0975409
1800.03	0.156578
1801.54	-0.243676
1803.04	-0.212447
1804.54	-0.311986
1806.04	0.351524
1807.54	0.00814247
1809.05	-0.122561
1810.55	0.208933
1812.05	0.0110836
1813.55	0.318657
1815.05	0.182357
1816.55	0.0869741
1818.05	-0.22802
1819.55	0.0160303
1821.05	0.414403
1822.55	0.523939
1824.05	0.289489
1825.55	0.134598
1827.05	0.0529022
1828.55	-0.241482
1830.04	0.199064
1831.54	0.151844
1833.04	-0.195085
1834.54	-0.185288
1836.03	0.286583
1837.53	0.0546618
1839.03	0.303619
1840.52	0.1879
1842.02	0.205524
1843.51	0.0120716
1845.01	0.248172
1846.5	0.0092926
1848	-0.0772562
1849.49	0.280717
1850.99	0.362984
1852.48	0.163194
1853.97	0.519462
1855.47	-0.344613
1856.96	0.128771
1858.45	-0.0122461
1859.94	0.0472403
1861.44	0.258734
1862.93	0.283137
1864.42	0.671175
1865.91	0.303927
1867.4	0.182663
1868.89	0.489894
1870.38	0.705729
1871.87	0.287883
1873.36	0.404993
1874.85	0.0788374
1876.34	0.391857
1877.83	0.426848
1879.32	0.113453
1880.81	0.387968
1882.3	0.0652809
1882.56	-0.0195265
1884.06	0.133247
1885.55	0.162993
1887.04	0.174263
1888.54	-0.128397
1890.03	0.474217
1891.52	-0.0702972
1893.02	0.274165
1894.51	-0.0225391
1896	0.830159
1897.49	0.240671
1898.99	0.242229
1900.48	-0.0879889
1901.97	-0.22876
1903.46	0.011075
1904.95	0.00568676
1906.44	0.277375
1907.93	0.218833
1909.42	0.404099
1910.91	0.364805
1912.4	-0.0376463
1913.89	0.0290155
1915.38	0.598625
1916.86	0.370108
1918.35	0.00239277
1919.84	0.102182
1921.33	0.461631
1922.82	0.180701
1924.3	-0.0124588
1925.79	-0.0830393
1927.28	0.00344753
1928.76	0.436995
1930.25	-0.220356
1931.74	0.264182
1933.22	0.262095
1934.71	0.379026
1936.19	0.476516
1937.67	0.295807
1939.16	0.373963
1940.64	0.383328
1942.13	0.117625
1943.61	0.629696
1945.09	0.521665
1946.58	0.465878
1948.06	0.220262
1949.54	0.0255966
1951.03	-0.118423
1952.51	0.0119553
1953.99	0.468193
1955.47	0.614425
1956.95	0.142768
1958.43	0.118737
1959.91	-0.0416136
1961.39	0.00458431
1962.87	0.222383
1964.35	-0.279806
1965.83	-0.131402
1967.31	0.306988
1968.79	0.128313
1970.27	-0.238838
1971.75	0.401937
1973.22	-0.255422
1974.7	-0.0589418
1976.18	0.0352125
1977.66	0.112424
1979.13	0.376875
1980.61	-0.158512
1982.09	-0.132454
1983.56	0.487727
1985.04	0.359755
1986.52	-0.0227184
1987.99	0.00211239
1989.47	-0.175921
1990.94	0.154777
1992.41	-0.0549965
1993.89	0.632615
1995.36	0.23916
1996.84	0.0154419
1998.31	0.18024
1999.78	0.293743
2001.26	0.153297
2002.73	0.687029
2004.2	0.0400305
2005.67	0.876867
2007.15	0.214907
2008.62	0.413312
2010.09	0.242328
2011.56	-0.214131
2013.03	-0.148654
2014.5	0.707222
2015.97	0.24948
2017.44	0.127262
2018.91	0.373977
2020.38	0.687
2021.85	0.227045
2023.32	0.271523
2024.79	0.434387
2026.25	0.648956
2027.72	0.177622
2029.19	-0.241547
2030.66	0.347321
2032.13	0.283198
2033.59	0.370708
2035.06	0.239936
2036.53	0.545381
2037.99	-0.0234337
2039.46	-0.189616
2040.92	0.282866
2042.39	0.655165
2043.85	1.07911
2045.32	0.478097
2046.78	0.853964
2048.25	0.489423
2049.71	0.107222
2051.18	0.128089
2052.64	-0.190203
2054.1	0.0964327
2055.56	0.38094
2057.03	0.64677
2058.49	0.153152
2059.95	0.501942
2061.42	0.143817
2062.88	0.426561
2064.34	0.0877323
2065.8	0.356025
2067.26	0.406566
2068.72	0.239038
2070.18	0.812516
2071.64	0.443434
2073.1	0.461345
2074.56	0.32738
2076.02	0.479273
2077.48	0.51284
2078.94	0.411196
2080.39	0.662602
2081.85	-0.08008
2083.31	0.338157
2084.77	0.772103
2086.22	0.0273409
2087.68	0.00544834
2089.14	0.302382
2090.6	0.716357
2092.05	0.391129
2093.51	0.519168
2094.96	0.982137
2096.42	1.00816
2097.87	-0.0385771
2099.33	0.0702019
2100.78	0.613224
2102.24	0.520738
2103.69	0.178952
2105.15	0.606842
2106.6	0.752456
2108.05	0.132082
2109.51	-0.0373793
2110.96	0.409373
2112.41	0.620903
2113.86	0.313877
2115.32	0.454605
2116.77	0.427774
2118.22	0.384799
2119.67	0.393325
2121.12	0.304659
2122.57	0.59984
2124.02	0.0178156
2125.47	0.481272
2126.92	0.861411
2128.37	-0.00304508
2129.82	-0.0566854
2131.27	0.931616
2132.72	0.295748
2134.17	0.454644
2135.62	0.730083
2137.06	0.709607
2138.51	0.757537
2139.96	0.51032
2141.41	0.760932
2142.85	0.28553
2144.3	0.356459
2145.75	0.54346
2147.19	0.316317
2148.64	0.137948
2150.09	0.505165
2151.53	0.274849
2152.97	1.17005
2154.42	0.589613
2155.86	0.770792
2157.31	0.620746
2158.75	0.504721
2160.2	0.307446
2161.64	1.20586
2163.08	0.48251
2164.53	0.772156
2165.97	1.11302
2167.41	0.673346
2168.86	0.863556
2170.3	1.31789
2171.74	1.40386
2173.18	0.772042
2174.62	0.521224
2176.06	0.203304
2177.5	0.484325
2178.94	0.616554
2180.38	0.38418
2181.82	0.751389
2183.26	0.803429
2184.7	0.672864
2186.14	0.4758
2187.58	0.877695
2189.02	0.497607
2190.46	0.899697
2191.89	0.668953
2193.33	1.1199
2194.77	0.237253
2196.21	0.967314
2197.64	0.346761
2199.08	0.705843
2200.52	0.498301
2201.95	0.290901
2203.39	0.499358
2204.83	0.360669
2206.26	0.554811
2207.7	0.650017
2209.13	0.744897
2210.57	0.242894
2212	0.765771
2213.43	0.576305
2214.87	0.766846
2216.3	0.759818
2217.73	0.407782
2219.17	0.304923
2220.6	0.318559
2222.03	0.56305
2223.47	0.509948
2224.9	0.208195
2226.33	0.743939
2227.76	0.438322
2229.19	0.312377
2230.62	0.317002
2232.05	0.599929
2233.49	0.587954
2234.91	0.675056
2236.34	0.714469
2237.77	0.396659
2239.2	-0.0489597
2240.63	0.649944
2242.06	0.486403
2243.49	0.520116
2244.92	0.276959
2246.35	0.342885
2247.78	1.15703
2249.2	0.891956
2250.63	0.722067
2252.06	0.615321
2253.48	0.166257
2254.91	0.14082
2256.34	0.847717
2257.76	0.90774
2259.19	0.517147
2260.61	0.535854
2262.04	0.411513
2263.46	0.20779
2264.89	0.166686
2266.31	0.417766
2267.74	0.944683
2269.16	0.380464
2270.59	-0.0223093
2272.01	0.437107
2273.43	0.27764
2274.85	0.248531
2276.28	0.415195
2277.7	0.777745
2279.12	-0.163641
2280.54	0.280489
2281.97	0.121191
2283.39	0.532736
2284.81	0.324419
2286.23	0.393767
2287.65	0.284007
2289.07	0.0440483
2290.49	-0.0812168
2291.91	0.13705
2293.33	0.306582
2294.75	0.0181112
2296.17	0.384041
2297.59	-0.0194387
2299.01	-0.0463905
2300.42	0.615247
2301.84	0.539957
2303.26	0.218862
2304.68	-0.0367126
2306.1	0.200066
2307.51	0.568095
2308.93	-0.0505295
2310.35	1.08918
2311.76	0.600657
2313.18	0.704154
2314.59	0.051096
2316.01	0.74872
2317.43	0.278252
2318.84	-0.0932703
2320.26	-0.0531569
2321.67	0.480675
2323.08	0.550335
2324.5	0.187971
2325.91	0.845851
2327.33	0.989853
2328.74	0.951449
2330.15	0.452171
2331.56	0.38258
2332.98	0.725894
2334.39	0.16514
2335.8	0.2465
2337.21	0.0312147
2338.62	0.35739
2340.04	0.0738707
2341.45	0.380687
2342.86	0.309053
2344.27	0.614662
2345.68	-0.226988
2347.09	-0.313814
2348.5	0.467041
2349.91	0.281284
2351.31	0.32366
2352.72	-0.174236
2354.13	0.371882
2355.54	0.149981
2356.95	0.563127
2358.36	0.19468
2359.76	-0.124095
2361.17	0.142195
2362.58	-0.013628
2363.98	-0.201632
2365.39	0.257799
2366.8	0.0862322
2368.21	-0.342552
2369.61	0.31146
2371.02	0.321328
2372.42	0.300644
2373.83	0.184622
2375.23	-0.188375
2376.64	-0.352362
2378.04	0.0453205
2379.44	-0.0735912
2380.85	-0.467209
2382.25	0.340909
2383.66	0.249189
2385.06	-0.178484
2386.46	-0.0214844
2387.86	0.136259
2389.26	0.079936
2390.67	0.0093298
2392.07	-0.155253
2393.47	0.0952778
2394.87	0.0125952
2396.27	-0.339411
2397.67	-0.197741
2399.07	0.0239925
2400.47	0.278014
2401.87	-0.261834
2403.27	0.0878763
2404.67	-0.24575
2406.07	0.403885
2407.47	-0.328526
2408.87	0.0965052
2410.27	0.045187
2411.67	-0.00578976
2413.07	0.134333
2414.46	0.450109
2415.86	0.356056
2417.26	0.295354
2418.66	0.124939
2420.05	0.192465
2421.45	-0.0727777
2422.84	0.421908
2424.24	0.678716
2425.64	0.650445
2427.03	0.464355
2428.43	-0.117039
2429.82	0.364945
2431.22	0.102462
2432.61	0.173272
2434.01	0.1482
2435.4	0.407674
2436.79	0.109267
2438.19	0.571571
2439.58	0.190222
2440.97	0.26845
2442.37	0.488826
2443.76	-0.0212393
2445.15	-0.0869913
2446.54	0.417882
2447.93	0.731977
2449.33	0.602257
2450.72	-0.0178699
2452.11	0.423594
2453.5	-0.115248
2454.89	0.628639
2456.28	0.265919
2457.67	0.251641
2459.06	0.237165
2460.45	0.0796413
2461.84	-0.0313883
2463.23	0.141178
2464.62	-0.0662727
2466	0.29461
2467.39	0.386721
2468.78	0.178901
2470.17	-0.218224
2471.55	0.377522
2472.94	-0.00494671
2474.33	-0.324885
2475.72	0.17282
2477.1	-0.132276
2478.49	0.536729
2479.87	-0.364281
2481.26	-0.260184
2482.65	0.157009
2484.03	0.604242
2485.42	-0.342357
2486.8	0.133239
2488.19	-0.204998
2489.57	0.235903
2490.95	0.426485
2492.34	0.368564
2493.72	0.545063
2495.1	0.31963
2496.49	0.0806923
2497.87	-0.218781
2499.25	0.0706434
2500.63	0.266442
2502.02	0.167314
2503.4	-0.0872641
2504.78	-0.0647936
2506.16	0.203402
2507.54	0.378368
2508.92	0.0765533
2510.3	-0.346919
2511.68	-0.0783758
2513.06	0.389909
2514.44	0.0467558
2515.82	-0.00399971
2517.2	0.558134
2518.58	0.00428581
2519.96	0.199978
2521.34	-0.0477686
2522.72	-0.0976114
2524.1	0.781965
2525.47	0.226727
2526.85	-0.160424
2528.23	-0.135622
2529.6	-0.0942869
2530.98	0.146524
2532.36	-0.14253
2533.74	0.117125
2535.11	-0.00218487
2536.49	0.319028
2537.86	-0.499949
2539.24	-0.0136662
2540.61	0.167702
2541.99	0.136035
2543.36	0.302003
2544.74	0.0594149
2546.11	-0.242231
2547.49	0.504265
2548.86	-0.295465
2550.23	0.285452
2551.61	0.410652
2552.98	0.0187111
2554.35	-0.0254326
2555.72	-0.0706453
2557.09	0.0806818
2558.47	0.550207
2559.84	0.352838
2561.21	0.125936
2562.58	0.00599098
2563.95	-0.234441
2565.32	0.146978
2566.69	0.362025
2568.06	0.168027
2569.43	0.0346546
2570.8	0.295359
2572.17	-0.171412
2573.54	0.119803
2574.91	0.0170345
2576.28	0.23268
2577.65	0.129865
2579.02	0.0419302
2580.39	-0.152575
2581.75	-0.165609
2583.12	0.124151
2584.49	0.216503
2585.85	0.11173
2587.22	-0.0534868
2588.59	0.190767
2589.95	-0.0346565
2591.32	0.209556
2592.68	-0.152923
2594.05	-0.167834
2595.42	-0.0325336
2596.78	0.116547
2598.15	0.506554
2599.51	0.109485
2600.88	-0.377625
2602.24	0.389873
2603.6	-0.019927
2604.97	0.15979
2606.33	-0.15816
2607.69	-0.400877
2609.06	-0.0113897
2610.42	0.481619
2611.78	-0.216687
2613.14	0.272655
2614.51	0.144243
2615.87	0.435946
2617.23	-0.112065
2618.59	-0.26889
2619.95	-0.274854
2621.31	0.168645
2622.67	0.238623
2624.03	0.308802
2625.39	-0.158371
2626.75	0.135295
2628.11	0.234428
2629.47	-0.51564
2630.83	0.416392
2632.19	0.321085
2633.55	0.121904
2634.91	0.160494
2636.26	0.40661
2637.62	-0.251554
2638.98	0.468363
2640.34	-0.025773
2641.69	0.146421
2643.05	0.451682
2644.41	-0.173306
2645.76	0.102378
2647.12	0.185532
2648.48	-0.233086
2649.83	-0.372343
2651.19	0.0905981
2652.54	0.0235653
2653.9	0.22104
2655.25	0.243211
2656.6	-0.553419
2657.96	0.394156
2659.31	-0.00405884
2660.67	0.11038
2662.02	0.282982
2663.37	0.0310946
2664.73	0.041256
2666.08	0.531794
2667.43	0.248599
2668.78	0.47541
2670.14	-0.141646
2671.49	-0.190088
2672.84	-0.0923958
2674.19	-0.0376129
2675.54	0.467773
2676.89	0.14647
2678.24	-0.260772
2679.59	0.232227
2680.94	-0.216004
2682.29	0.526127
2683.64	0.00835991
2684.99	0.0572319
2686.34	-0.314089
2687.69	0.272103
2689.04	0.566772
2690.39	-0.113313
2691.74	0.40924
2693.08	-0.274592
2694.43	-0.233894
2695.78	0.545687
2697.13	0.122997
2698.47	0.00635147
2699.82	0.0510921
2701.17	0.155888
2702.51	-0.142998
2703.86	-0.0785599
2705.21	0.175036
2706.55	-0.02071
2707.9	0.334479
2709.24	0.297523
2710.58	0.0858021
2711.93	0.0189009
2713.27	-0.00460911
2714.62	0.233438
2715.96	0.442485
2717.3	-0.235722
2718.65	-0.128988
2719.99	-0.0226374
2721.33	0.476156
2722.68	-0.117135
2724.02	0.569818
2725.36	0.353821
2726.71	-0.0518427
2728.05	0.31352
2729.39	0.38749
2730.73	0.141168
2732.07	0.374984
2733.41	-0.00210285
2734.75	0.232027
2736.09	0.262755
2737.43	0.52636
2738.77	-0.21356
2740.11	-0.153859
2741.45	-0.0656509
2742.79	-0.254436
2744.13	-0.153282
2745.47	0.499117
2746.81	0.497026
2748.14	0.117327
2749.48	0.63757
2750.82	-0.234632
2752.16	-0.00403309
2753.49	0.25568
2754.83	0.109785
2756.17	0.0800266
2757.5	-0.0218983
2758.84	0.600352
2760.18	-0.0363169
2761.51	-0.020978
2762.85	-0.2221
2764.18	-0.234726
2765.52	-0.160555
2766.85	0.289203
2768.19	0.0144844
2769.52	0.504679
2770.86	0.125553
2772.19	0.0484924
2773.52	0.345469
2774.86	0.0934687
2776.19	-0.158109
2777.52	0.166835
2778.86	0.233111
2780.19	0.314309
2781.52	-0.164245
2782.85	0.0180883
2784.19	-0.416558
2785.52	-0.00505924
2786.85	0.0480862
2788.18	0.259253
2789.51	0.0133448
2790.84	0.0547857
2792.17	0.0399609
2793.5	0.211538
2794.83	-0.31721
2796.16	0.0826368
2797.49	-0.26115
2798.82	-0.291224
2800.15	0.177747
2801.48	-0.224188
2802.81	0.329323
2804.13	0.197927
2805.46	0.265533
2806.79	0.659663
2808.12	0.18488
2809.45	-0.247054
2810.77	0.0743685
2812.1	-0.0722151
2813.43	-0.373247
2814.75	0.0932817
2816.08	-0.175785
2817.41	0.0384455
2818.73	0.0265827
2820.06	-0.127012
2821.38	0.214929
2822.71	-0.138379
2824.03	0.42862
2825.36	0.669169
2826.68	0.329071
2828	-0.0527077
2829.33	-0.263814
2830.65	-0.0638151
2831.98	0.844188
2833.3	0.350718
2834.62	0.267375
2835.94	0.183468
2837.27	0.381937
2838.59	-0.42453
2839.91	0.183377
2841.23	0.974893
2842.55	0.762983
2843.87	0.905275
2845.2	0.751654
2846.52	0.952089
2847.84	0.912706
2849.16	0.689602
2850.48	1.37073
2851.8	1.50004
2853.12	1.60043
2854.44	1.37534
2855.76	1.23487
2857.08	1.34871
2858.39	1.51907
2859.71	1.40693
2861.03	1.9159
2862.35	1.36551
2863.67	2.00049
2864.98	1.25206
2866.3	1.81589
2867.62	2.04128
2868.94	1.6749
2870.25	2.08451
2871.57	1.81759
2872.88	1.97323
2874.2	2.3252
2875.52	2.15458
2876.83	2.47559
2878.15	2.49984
2879.46	2.56594
2880.78	1.87335
2882.09	2.5873
2883.41	2.4733
2884.72	2.09373
2886.03	1.98173
2887.35	2.31895
2888.66	2.20651
2889.97	2.38782
2891.29	2.554
2892.6	2.63527
2893.91	2.32404
2895.22	2.67163
2896.54	2.61398
2897.85	2.82346
2899.16	2.96408
2900.47	2.9517
2901.78	2.82794
2903.09	3.05414
2904.4	2.67902
2905.71	3.14347
2907.02	2.85324
2908.33	3.20738
2909.64	3.24078
2910.95	3.24683
2912.26	3.74277
2913.57	3.70601
2914.88	3.13561
2916.19	3.3473
2917.5	3.29129
2918.81	3.69592
2920.11	3.55469
2921.42	3.33041
2922.73	3.54093
2924.04	3.55721
2925.34	3.68655
2926.65	3.55095
2927.96	3.52722
2929.26	4.00635
2930.57	3.74393
2931.87	3.7047
2933.18	4.01466
2934.49	3.79342
2935.79	3.86583
2937.1	4.16201
2938.4	4.31861
2939.7	3.6371
2941.01	3.89239
2942.31	3.57568
2943.62	3.06453
2944.92	2.97396
2946.22	3.10832
2947.53	3.15945
2948.83	3.22434
2950.13	2.84
2951.43	3.04175
2952.74	3.15748
2954.04	3.08968
2955.34	2.96551
2956.64	3.16427
2957.94	2.38544
2959.24	2.75728
2960.54	3.09036
2961.84	2.82327
2963.15	2.54256
2964.45	2.42928
2965.75	2.38457
2967.05	2.5067
2968.34	2.36038
2969.64	2.00223
2970.94	2.43144
2972.24	2.22807
2973.54	2.39085
2974.84	1.84985
2976.14	1.98372
2977.43	2.08805
2978.73	2.13418
2980.03	1.74198
2981.33	1.2501
2982.62	1.79883
2983.92	1.48986
2985.22	1.95531
2986.51	1.55101
2987.81	1.68237
2989.11	1.4354
2990.4	1.69462
2991.7	1.34894
2992.99	1.24097
2994.29	1.11755
2995.58	0.894601
2996.88	1.28873
2998.17	0.980602
2999.46	0.855363
3000.76	1.0533
3002.05	0.901325
3003.34	0.721884
3004.64	0.500615
3005.93	0.99334
3007.22	0.393111
3008.52	0.450039
3009.81	0.156318
3011.1	0.141584
3012.39	0.279955
3013.68	-0.139912
3014.97	-0.0429296
3016.27	0.402925
3017.56	0.264333
3018.85	0.0151443
3020.14	-0.108562
3021.43	0.198209
3022.72	-0.0103054
3024.01	-0.0531015
3025.3	-0.110552
3026.59	-0.0712023
3027.88	0.106961
3029.16	0.438161
3030.45	0.135072
3031.74	-0.152193
3033.03	-0.175775
3034.32	0.0493793
3035.6	-0.181512
3036.89	0.523821
3038.18	-0.110238
3039.47	-0.0434561
3040.75	-0.102325
3042.04	0.0300474
3043.33	-0.0572987
3044.61	0.0618601
3045.9	-0.03613
3047.18	0.00514317
3048.47	-0.183066
3049.75	0.613908
3051.04	0.034133
3052.32	0.0148458
3053.61	0.00917625
3054.89	0.00273132
3056.18	0.281472
3057.46	0.313318
3058.74	0.153438
3060.03	0.0478821
3061.31	0.378294
3062.59	0.0974302
3063.88	0.416619
3065.16	0.139278
3066.44	0.502532
3067.72	-0.179976
3069	0.388843
3070.29	0.20943
3071.57	0.382558
3072.85	0.159822
3074.13	0.193996
3075.41	-0.34363
3076.69	0.0966597
3077.97	0.0347376
3079.25	0.0147953
3080.53	-0.111966
3081.81	-0.0877495
3083.09	-0.0621452
3084.37	-0.0629263
3085.65	0.343488
3086.93	0.152202
3088.21	0.0414619
3089.49	0.377768
3090.76	-0.182188
3092.04	0.00403595
3093.32	-0.0266924
3094.6	0.119192
3095.87	-0.0736628
3097.15	0.248739
3098.43	0.232068
3099.7	0.499743
3100.98	0.198188
3102.26	-0.0760765
3103.53	-0.106209
3104.81	-0.0681009
3106.08	0.0655346
3107.36	-0.124607
3108.63	-0.354213
3109.91	-0.000671387
3111.18	0.543698
3112.46	0.222412
3113.73	0.145236
3115	0.257698
3116.28	0.234038
3117.55	-0.143337
3118.83	0.0611677
3120.1	0.305002
3121.37	-0.0624876
3122.64	0.40977
3123.92	0.0956945
3125.19	0.0934877
3126.46	-0.0300446
3127.73	0.415338
3129	0.712216
3130.27	0.387315
3131.55	0.238413
3132.82	0.332599
3134.09	-0.060009
3135.36	0.357061
3136.63	0.435671
3137.9	0.634829
3139.17	0.402118
3140.44	0.317567
3141.71	0.408012
3142.98	-0.213507
3144.24	-0.135415
3145.51	0.533449
3146.78	0.370959
3148.05	0.182607
3149.32	0.289673
