200.563	0.507553
202.377	0.531724
204.194	0.557457
206.008	-0.339905
207.821	-0.142208
209.634	0.151935
211.449	-0.0168762
213.262	-0.0170784
215.074	0.539363
216.885	-0.141648
218.699	-0.070735
220.51	-0.0476046
222.321	-0.0959768
224.131	0.146849
225.941	0.510938
227.751	-0.0914354
229.562	-0.138351
231.371	0.0313473
233.18	0.128211
234.988	-0.0880003
236.796	-0.374876
238.603	-0.153134
240.411	0.0232315
242.219	0.684536
244.026	-0.557961
245.832	0.563525
247.638	0.0905066
249.443	0.0970945
251.248	0.244969
253.053	-0.165463
254.857	-0.167356
256.661	0.0955563
258.465	0.600197
260.268	0.311459
262.071	0.169605
263.874	0.294649
265.678	0.0354223
267.48	-0.0307922
269.282	0.577533
271.083	-0.382029
272.884	0.0794516
274.684	-0.0634327
276.484	-0.208148
278.284	0.39213
280.084	0.26701
281.883	-0.558291
283.682	-0.326273
285.48	0.312161
287.276	-0.0835257
289.074	-0.0707912
290.871	-0.200933
292.668	0.173237
294.465	0.165956
296.261	-0.0548096
298.057	0.490556
299.853	0.0804424
301.648	-0.0430641
303.443	0.0712662
305.237	-0.0545712
307.032	0.0571928
308.823	0.14474
310.617	0.25669
312.41	0.107955
314.203	-0.205498
315.995	0.173681
317.788	0.531137
319.579	0.15201
321.369	0.131356
323.16	0.183105
324.951	0.0921974
326.741	0.335548
328.531	0.626677
330.321	0.34356
332.108	0.560987
333.897	0.609076
335.686	0.415344
337.474	1.1282
339.26	0.737809
341.048	0.32193
342.835	0.718174
344.622	0.707853
346.406	0.483173
348.192	0.450462
349.978	0.585432
351.764	0.338449
353.547	0.377206
355.332	0.104598
357.116	0.0691099
358.901	-0.158495
360.682	0.470145
362.466	-0.188126
364.249	0.128589
366.03	0.396412
367.812	0.354292
369.594	0.00300407
371.374	0.338288
373.155	0.624695
374.936	0.0356855
376.715	-0.12705
378.495	0.206298
380.273	0.516438
382.053	0.380194
383.832	0.128022
385.609	-0.357486
387.388	0.61561
389.164	0.203345
390.942	0.473479
392.72	0.345223
394.495	0.194149
396.272	0.160897
398.047	0.151181
399.823	0.869358
401.597	0.295171
403.372	0.565798
405.145	-0.0100002
406.92	0.564127
408.693	0.620823
410.467	-0.144423
412.239	0.569139
414.012	0.109726
415.783	0.37854
417.556	0.0381842
419.327	0.519793
421.099	0.0160131
422.869	0.873251
424.64	0.509064
426.409	0.214168
428.18	0.317414
429.948	0.420079
431.718	0.100241
433.486	0.226695
435.253	-0.0924158
437.022	-0.0830202
438.789	-0.191803
440.558	0.143628
442.324	0.218567
444.089	-0.0137596
445.857	0.454895
447.622	0.289527
449.386	0.942327
451.153	0.916584
452.917	0.401074
454.682	-0.346606
456.446	0.305175
458.208	0.070837
459.973	0.511755
461.735	0.464523
463.497	0.558609
465.259	0.306866
467.022	0.476638
468.783	0.440293
470.544	-0.152191
472.306	-0.0233793
474.066	0.0813961
475.825	0.0212402
477.585	0.30809
479.346	0.196919
481.104	-0.101644
482.862	1.06731
484.62	0.304484
486.38	1.03463
488.137	0.392601
489.894	0.0553036
491.65	0.11547
493.407	-0.0338774
495.164	0.752226
496.92	0.0414114
498.675	0.336486
500.43	0.232858
502.184	0.550787
503.939	0.210472
505.694	0.620534
507.448	0.347465
509.201	0.354712
510.954	0.595439
512.706	0.481439
514.459	0.130435
516.21	0.530796
517.962	0.0594492
519.715	1.09177
521.466	0.266144
523.216	0.638437
524.966	0.704977
526.716	0.278796
528.466	0.040638
530.215	1.32577
531.964	1.34427
533.712	1.22131
535.46	0.488982
537.208	1.0181
538.955	-0.136246
540.703	0.762609
542.449	1.02962
544.196	0.0626497
545.942	0.143522
547.688	0.270807
549.433	0.374877
551.178	0.363176
552.923	0.606116
554.667	0.409763
556.412	0.19104
558.155	0.41129
559.899	-0.243745
561.642	0.0927401
563.385	-0.49071
565.127	0.168446
566.867	0.276166
568.609	0.0632467
570.35	0.631917
572.092	0.192381
573.832	0.397129
575.573	-0.0614157
577.313	0.399564
579.053	-0.124827
580.79	0.0860748
582.529	-0.116374
584.268	0.439053
586.006	0.073801
587.745	-0.477093
589.482	-0.109163
591.218	-0.248343
592.955	-0.181006
594.692	-0.0448112
596.428	0.206455
598.164	0.549695
599.898	0.110291
601.634	0.222082
603.369	-0.104545
605.104	-0.271626
606.836	0.685931
608.57	-0.149613
610.304	1.01232
612.037	0.200931
613.769	-0.471202
615.501	0.324664
617.234	0.134974
618.966	-0.100977
620.696	-0.452338
622.427	0.63651
624.159	0.282844
625.887	0.135318
627.618	-0.513062
629.348	-0.0177269
631.076	0.525558
632.806	0.454978
634.535	0.499642
636.262	0.680843
637.99	0.449141
639.716	-0.0137596
641.444	0.410002
643.172	-0.0582705
644.897	-0.322084
646.624	0.256576
648.348	0.154571
650.075	0.601474
651.801	0.234613
653.524	0.190124
655.249	-0.101041
656.972	0.702687
658.697	0.392103
660.419	0.285693
662.143	0.200139
663.865	-0.368025
665.588	-0.459168
667.309	-0.0492125
669.032	0.0399504
670.752	0.701972
672.474	0.97758
674.194	0.637959
675.915	-0.295799
677.634	0.376106
679.355	-0.282716
681.073	0.228617
682.793	-0.158448
684.511	0.579731
686.23	-0.31864
687.947	-0.320839
689.664	0.689382
691.382	-0.0748072
693.098	0.173859
694.816	0.237403
696.531	0.322883
698.247	0.268897
699.963	0.834843
701.678	0.479053
703.392	0.559313
705.108	1.28172
706.821	0.855042
708.534	0.543204
710.249	-0.272624
711.962	0.469211
713.674	0.271678
715.388	0.554142
717.099	0.76758
718.81	0.707026
720.523	0.396063
722.234	1.17882
723.944	1.14124
725.654	0.944471
727.365	0.906672
729.075	0.686958
730.784	0.467167
732.492	0.473867
734.202	0.774435
735.91	0.938898
737.618	0.606723
739.325	3.11832
741.034	3.44052
742.741	3.42603
744.447	0.959524
746.153	0.117243
747.859	0.604308
749.564	1.0701
751.271	0.862506
752.976	0.836298
754.681	0.339148
756.385	1.05861
758.088	1.05986
759.792	1.17538
761.495	0.79626
763.2	1.3197
764.902	0.37581
766.604	1.28224
768.306	1.05731
770.008	1.12377
771.709	1.16543
773.41	0.753315
775.11	1.47136
776.811	1.12731
778.51	1.71177
780.21	1.1447
781.909	2.09433
783.608	1.41522
785.307	1.48143
787.005	1.63554
788.703	1.87654
790.401	1.59336
792.098	1.42056
793.795	1.67533
795.492	1.56847
797.188	1.86853
798.884	1.58452
800.58	1.77557
802.276	1.49559
803.971	1.01416
805.665	1.79177
807.36	1.98355
809.054	1.92675
810.748	1.95844
812.441	1.74239
814.135	2.35501
815.826	1.44415
817.518	1.72019
819.21	1.86177
820.902	1.71304
822.594	1.65426
824.285	2.26536
825.976	1.4736
827.665	1.0637
829.355	2.01545
831.045	2.10207
832.735	2.01377
834.424	4.55824
836.111	4.45257
837.8	3.85543
839.488	1.35806
841.177	1.44801
842.864	1.15675
844.55	1.37887
846.237	1.78071
847.924	1.89419
849.61	1.96588
851.295	1.79421
852.98	1.31058
854.666	1.32061
856.349	1.26301
858.034	0.664417
859.719	1.21068
861.403	1.53057
863.085	1.35337
864.769	1.2873
866.452	0.769303
868.133	1.26509
869.816	1.39973
871.498	1.17316
873.179	1.71338
874.86	1.30599
876.54	0.289195
878.221	0.919773
879.902	0.715197
881.58	1.34546
883.26	1.22997
884.938	0.910108
886.618	1.71726
888.297	1.01056
889.974	1.65573
891.653	1.48718
893.329	1.09219
895.007	1.34902
896.683	0.70508
898.36	0.779889
900.035	1.25729
901.712	0.63494
903.387	0.975677
905.063	0.64496
906.737	1.43131
908.412	0.901233
910.085	1.26407
911.76	1.13775
913.433	0.790221
915.107	0.932178
916.779	0.563752
918.452	1.21534
920.124	1.46735
921.797	1.07807
923.467	1.0665
925.138	0.548731
926.81	1.22574
928.48	1.17575
930.151	0.862344
931.82	1.54263
933.489	1.12001
935.16	1.13885
936.828	0.717103
938.496	0.494854
940.165	1.31055
941.833	0.473293
943.5	1.02659
945.168	0.255666
946.834	1.07259
948.5	0.673495
950.168	1.00073
951.834	0.289613
953.499	0.527435
955.163	0.921233
956.83	0.149318
958.494	0.748153
960.158	0.710433
961.821	1.09397
963.487	0.637842
965.15	0.3783
966.812	0.823677
968.474	1.02278
970.138	0.666514
971.8	0.552805
973.461	0.439705
975.123	0.814717
976.783	0.572507
978.446	0.331806
980.106	0.478884
981.766	0.625579
983.425	1.02543
985.084	1.48953
986.743	0.73386
988.402	0.662547
990.06	1.05432
991.72	0.53891
993.378	0.333157
995.035	-0.00468159
996.692	0.650737
998.349	0.930557
1000.01	1.4742
1001.66	0.915687
1003.32	1.25966
1004.97	0.525304
1006.63	0.69282
1008.28	0.421082
1009.94	0.106211
1011.59	0.428162
1013.25	0.224238
1014.9	0.152396
1016.55	0.803466
1018.21	0.81993
1019.86	0.618591
1021.51	0.331101
1023.16	0.438401
1024.81	0.546681
1026.47	0.437034
1028.12	0.982883
1029.77	0.741404
1031.42	0.760748
1033.07	0.887466
1034.72	0.794062
1036.37	0.895496
1038.02	0.843426
1039.67	0.726094
1041.31	1.10998
1042.96	0.603646
1044.61	1.29474
1046.26	0.771233
1047.91	1.31418
1049.55	0.79478
1051.2	0.42872
1052.84	0.541335
1054.49	-0.0844307
1056.14	1.05004
1057.78	1.2064
1059.43	1.44921
1061.07	1.14772
1062.72	1.25846
1064.36	1.15069
1066	0.346112
1067.65	0.822994
1069.29	1.2116
1070.93	1.09972
1072.58	0.662235
1074.22	0.724727
1075.86	1.02694
1077.5	0.831714
1079.14	1.0933
1080.78	0.705149
1082.42	0.815697
1084.06	1.14203
1085.7	0.729394
1087.34	1.35478
1088.98	1.34918
1090.62	1.34159
1092.26	0.90038
1093.9	0.826571
1095.54	0.839456
1097.17	0.745486
1098.81	0.243966
1100.45	0.627569
1102.09	0.496468
1103.72	0.496439
1105.36	0.712897
1106.99	0.951406
1108.63	0.372294
1110.27	0.67369
1111.9	0.844214
1113.53	0.733547
1115.17	0.578737
1116.8	0.209004
1118.43	0.440177
1120.07	1.20738
1121.7	0.84004
1123.33	0.752475
1124.97	1.60742
1126.6	1.0726
1128.23	0.218169
1129.86	0.562129
1131.49	0.970759
1133.12	1.93545
1134.75	0.911876
1136.38	0.507606
1138.01	0.95702
1139.64	0.699963
1141.27	0.634163
1142.9	0.37587
1144.53	-0.0739317
1146.16	0.223558
1147.78	0.393978
1149.41	0.0539045
1151.04	0.672976
1152.67	1.0575
1154.29	-0.325555
1155.92	0.483867
1157.54	-0.00513077
1159.17	0.187192
1160.8	0.38034
1162.42	-0.148279
1164.05	0.174663
1165.67	-0.0759764
1167.29	-0.5608
1168.92	0.101361
1170.54	0.0176001
1172.16	0.739138
1173.79	0.290282
1175.41	-0.371391
1177.03	-0.417795
1178.65	-0.124989
1180.28	0.0834579
1181.9	0.22911
1183.52	-0.216666
1185.14	0.394486
1186.76	-0.0307837
1188.38	0.112496
1190	0.0637722
1191.62	0.139474
1193.24	-0.291095
1194.86	0.265405
1196.47	0.862355
1198.09	0.32822
1199.71	0.257365
1201.33	0.523457
1202.95	0.103015
1204.56	0.854434
1206.18	0.230619
1207.8	0.19251
1209.41	0.342373
1211.03	0.345296
1212.64	0.325535
1214.26	0.282601
1215.87	0.154105
1217.49	0.60641
1219.1	0.287943
1220.71	0.696567
1222.33	0.317142
1223.94	0.354131
1225.55	0.620407
1227.16	0.825885
1228.78	1.19813
1230.39	1.03394
1232	0.685123
1233.61	0.85444
1235.22	1.25243
1236.83	0.721655
1238.44	0.874039
1240.05	1.00651
1241.66	0.953066
1243.27	1.02333
1244.88	1.58937
1246.49	1.16109
1248.1	1.08345
1249.71	1.005
1251.32	1.07108
1252.92	2.00616
1254.53	1.20453
1256.14	1.08669
1257.74	0.949497
1259.35	1.24804
1260.96	1.13369
1262.56	0.771272
1264.17	1.29936
1265.77	1.37145
1267.38	1.3391
1268.98	1.53373
1270.59	2.16266
1272.19	1.69148
1273.79	1.8204
1275.4	1.28485
1277	1.26657
1278.6	1.88954
1280.21	1.72451
1281.81	1.68348
1283.41	2.09774
1285.01	1.85059
1286.61	2.47289
1288.21	1.36
1289.81	1.5504
1291.41	1.39002
1293.01	1.89068
1294.61	1.2748
1296.21	1.64905
1297.81	2.53727
1299.41	2.12286
1301.01	1.87218
1302.6	2.44437
1304.2	1.53279
1305.8	2.57515
1307.4	1.84865
1308.99	2.29266
1310.59	1.11691
1312.19	2.50284
1313.78	2.14863
1315.38	2.24574
1316.97	1.99671
1318.57	2.2791
1320.16	2.41818
1321.76	2.00596
1323.35	1.81654
1324.94	2.05237
1326.54	1.43352
1328.13	1.84955
1329.72	2.28544
1331.32	2.01439
1332.91	2.15056
1334.5	1.78433
1336.09	2.2275
1337.68	1.33968
1339.27	1.50016
1340.87	1.75925
1342.45	2.07586
1344.04	1.52531
1345.64	1.61726
1347.22	1.78947
1348.81	1.22215
1350.4	1.75923
1351.99	2.07839
1353.58	1.31996
1355.17	1.62272
1356.75	0.866643
1358.34	1.38895
1359.93	0.991333
1361.51	1.29146
1363.1	1.4707
1364.69	1.43009
1366.27	0.971418
1367.86	1.43013
1369.44	1.09353
1371.03	1.25618
1372.61	1.40034
1374.2	1.30692
1375.78	1.59224
1377.37	1.45977
1378.95	1.56549
1380.53	1.41139
1382.11	1.77309
1383.7	0.920125
1385.28	1.14012
1386.86	1.04158
1388.44	1.53903
1390.02	0.925241
1391.6	1.42402
1393.19	1.56627
1394.77	0.618027
1396.35	1.23643
1397.93	1.77442
1399.51	1.32016
1401.08	1.63765
1402.66	1.08326
1404.24	1.47903
1405.82	1.51906
1407.4	1.224
1408.97	0.930065
1410.55	1.60466
1412.13	2.04182
1413.71	1.62919
1415.28	1.63021
1416.86	1.68946
1418.43	2.04386
1420.01	2.18161
1421.59	1.63135
1423.16	1.83123
1424.73	1.46207
1426.31	2.01935
1427.88	2.16387
1429.46	2.60328
1431.03	2.49047
1432.6	2.14019
1434.18	2.79227
1435.75	2.71581
1437.32	3.24913
1438.89	3.23273
1440.46	3.63029
1442.04	3.47871
1443.61	3.09214
1445.18	3.35458
1446.75	2.98828
1448.32	3.36908
1449.89	2.90495
1451.46	3.52271
1453.03	3.55134
1454.6	3.56074
1456.16	3.43231
1457.73	2.61418
1459.3	3.15233
1460.87	2.74374
1462.44	2.72654
1464	2.66811
1465.57	2.27435
1467.14	2.43063
1468.7	2.23381
1470.27	1.88121
1471.83	1.54974
1473.4	1.35689
1474.96	1.79242
1476.53	1.36556
1478.09	1.38979
1479.66	1.41395
1481.22	1.59477
1482.78	1.48148
1484.35	1.50521
1485.91	1.33261
1487.47	0.963376
1489.04	1.45433
1490.6	1.21883
1492.16	1.76329
1493.72	0.878599
1495.28	1.18392
1496.84	0.980832
1498.4	0.816952
1499.96	0.790121
1501.52	0.628576
1503.08	0.720674
1504.64	1.18157
1506.2	1.02245
1507.76	0.785584
1509.32	0.567403
1510.88	1.39041
1512.44	0.726679
1513.99	0.352954
1515.55	0.787608
1517.11	0.837893
1518.66	0.735457
1520.22	0.0784149
1521.78	0.570935
1523.33	0.718002
1524.89	0.21483
1526.44	0.264782
1528	0.675419
1529.55	0.723129
1531.11	0.485924
1532.66	0.875555
1534.21	0.450895
1535.77	0.992871
1537.32	0.344388
1538.87	-0.0755978
1540.43	0.731176
1541.98	1.10321
1543.53	0.853389
1545.08	0.246629
1546.63	0.936749
1548.18	1.0812
1549.74	0.738001
1551.29	0.919955
1552.84	1.04598
1554.39	0.967196
1555.94	0.833976
1557.48	0.908062
1559.03	1.13337
1560.58	1.06206
1562.13	0.246218
1563.68	1.53954
1565.23	1.3037
1566.78	1.0492
1568.32	1.35428
1569.87	1.19235
1571.42	1.17932
1572.96	0.90465
1574.51	1.05916
1576.05	1.13903
1577.6	1.1071
1579.14	1.00091
1580.69	1.36215
1582.24	1.8364
1583.78	1.17219
1585.32	1.03158
1586.87	1.45224
1588.41	1.08776
1589.95	1.34024
1591.5	1.33036
1593.04	1.88173
1594.58	1.02831
1596.12	1.22367
1597.67	1.30714
1599.21	1.5226
1600.75	1.55138
1602.29	1.95604
1603.83	1.21553
1605.37	1.67596
1606.91	1.28952
1608.45	1.5399
1609.99	1.37436
1611.53	1.6386
1613.07	0.980353
1614.6	1.52266
1616.14	1.48246
1617.68	1.34912
1619.22	1.3483
1620.75	0.731019
1622.29	0.939253
1623.83	0.811213
1625.37	1.24474
1626.9	0.816406
1628.44	1.39724
1629.97	1.30296
1631.51	1.22639
1633.04	1.72851
1634.58	1.14774
1636.11	1.78113
1637.65	1.33327
1639.18	1.89308
1640.72	2.19158
1642.25	1.94888
1643.78	1.57484
1645.31	2.00006
1646.85	1.45682
1648.38	2.32617
1649.91	1.7465
1651.44	1.87376
1652.97	2.05788
1654.5	2.24304
1656.03	1.89124
1657.56	2.41037
1659.1	2.35405
1660.62	2.2963
1662.15	2.31097
1663.68	1.95466
1665.21	1.78301
1666.74	1.53824
1668.27	1.22122
1669.8	1.58809
1671.32	1.69823
1672.85	1.34896
1674.38	1.93948
1675.91	1.05658
1677.43	1.60886
1678.96	0.871858
1680.49	1.31118
1682.01	1.7492
1683.54	0.680671
1685.06	0.586137
1686.59	1.3723
1688.11	1.95639
1689.64	0.928275
1691.16	1.07322
1692.68	0.687387
1694.21	1.05177
1695.73	0.867153
1697.25	0.170867
1698.78	0.44283
1700.3	-0.0706921
1701.82	0.473687
1703.34	0.561129
1704.86	-0.0986958
1706.39	0.715814
1707.91	0.656102
1709.43	0.669057
1710.95	1.19017
1712.47	1.16664
1713.99	0.780974
1715.51	0.902843
1717.02	0.95208
1718.54	0.440846
1720.06	0.147077
1721.58	0.377171
1723.1	0.823796
1724.62	0.586223
1726.13	0.296243
1727.65	0.673816
1729.17	0.188364
1730.68	-0.170566
1732.2	1.05255
1733.72	0.444584
1735.23	0.116872
1736.75	0.66921
1738.26	0.790372
1739.78	0.276048
1741.29	0.494001
1742.81	0.234164
1744.32	0.266037
1745.84	0.145632
1747.35	0.520871
1748.86	0.26523
1750.37	0.452511
1751.89	0.281005
1753.4	0.137314
1754.91	-0.0515079
1756.42	0.40157
1757.93	0.625625
1759.45	0.25608
1760.96	0.326761
1762.47	-0.204672
1763.98	0.640178
1765.49	0.24971
1767	0.585943
1768.51	0.356331
1770.02	0.182546
1771.53	0.312585
1773.03	0.0949764
1774.54	0.0609455
1776.05	0.151936
1777.56	-0.0864506
1779.07	0.137323
1780.57	0.217563
1782.08	0.114105
1783.59	0.202734
1785.09	0.187708
1786.6	0.145003
1788.11	0.202212
1789.61	0.150835
1791.12	0.155224
1792.62	0.141337
1794.13	0.343165
1795.63	0.0801802
1797.13	0.29058
1798.64	0.102258
1800.14	0.407998
1801.65	-0.120828
1803.15	0.104382
1804.65	-0.0360899
1806.15	-0.117558
1807.66	-0.0929651
1809.16	0.00170326
1810.66	0.115744
1812.16	0.205323
1813.66	-0.0249653
1815.16	0.0600758
1816.66	0.190918
1818.16	0.0758257
1819.66	0.110891
1821.16	0.0808077
1822.66	0.0328684
1824.16	0.143179
1825.66	-0.0872812
1827.16	0.0362959
1828.66	0.0626793
1830.16	0.199203
1831.65	0.00970554
1833.15	0.479071
1834.65	0.127901
1836.14	0.14541
1837.64	0.193535
1839.14	-0.147138
1840.63	-0.0946722
1842.13	0.106163
1843.62	-0.0792952
1845.12	0.41768
1846.61	-0.0484753
1848.11	-0.045455
1849.6	0.259328
1851.1	0.0316257
1852.59	0.228723
1854.08	0.285692
1855.58	-0.289445
1857.07	0.0862207
1858.56	0.0487471
1860.05	0.30676
1861.55	0.292568
1863.04	0.115639
1864.53	-0.115601
1866.02	0.0543432
1867.51	0.366783
1869	0.0596619
1870.49	-0.196778
1871.98	0.547026
1873.47	0.370792
1874.96	-0.185849
1876.45	-0.160646
1877.94	-0.449295
1879.43	-0.0277023
1880.92	0.176925
1882.41	0.0417395
1882.51	0.0296478
1884	-0.0586157
1885.5	0.322923
1886.99	0.337475
1888.48	-0.257776
1889.98	0.504859
1891.47	0.0156174
1892.96	0.102028
1894.46	0.537929
1895.95	0.0539064
1897.44	0.527096
1898.93	0.252391
1900.42	-0.110386
1901.91	-0.178998
1903.41	-0.00580692
1904.9	0.1137
1906.39	-0.0978127
1907.88	-0.0660267
1909.37	-0.0163336
1910.86	0.225093
1912.35	0.727481
1913.83	-0.0358324
1915.32	0.41507
1916.81	0.206662
1918.3	0.39646
1919.79	0.187178
1921.27	-0.125992
1922.76	0.39258
1924.25	-0.0923357
1925.74	-0.00475407
1927.22	0.291617
1928.71	0.0173244
1930.19	0.0719576
1931.68	-0.0819807
1933.17	-0.219976
1934.65	0.350109
1936.14	0.0529842
1937.62	-0.244981
1939.11	-0.0246487
1940.59	-0.32235
1942.07	0.22673
1943.56	-0.15519
1945.04	0.360723
1946.52	-0.123169
1948.01	0.323635
1949.49	-0.126403
1950.97	0.0772943
1952.45	0.0905743
1953.93	0.223634
1955.42	0.356425
1956.9	0.420743
1958.38	-0.0635281
1959.86	-0.306415
1961.34	0.137326
1962.82	0.37522
1964.3	-0.0897083
1965.78	0.0446682
1967.26	0.263814
1968.74	0.46494
1970.21	0.118235
1971.69	-0.0745258
1973.17	0.0913658
1974.65	0.00127983
1976.13	0.286468
1977.6	0.72473
1979.08	0.00506973
1980.56	-0.509539
1982.03	0.0812893
1983.51	-0.450089
1984.99	0.00346279
1986.46	0.218637
1987.94	-0.0579977
1989.41	0.5128
1990.89	-0.118044
1992.36	0.233767
1993.84	-0.326679
1995.31	-0.176118
1996.78	-0.00834084
1998.26	0.345076
1999.73	0.0225353
2001.2	-0.317202
2002.68	-0.420955
2004.15	-0.474161
2005.62	0.130145
2007.09	-0.00645256
2008.56	0.278926
2010.04	0.0263062
2011.51	0.296121
2012.98	0.128319
2014.45	0.0106468
2015.92	0.0268793
2017.39	0.210407
2018.86	-0.144964
2020.33	-0.181282
2021.8	0.00061512
2023.26	-0.102703
2024.73	0.130394
2026.2	0.196755
2027.67	0.0297031
2029.14	0.015069
2030.61	0.018508
2032.07	0.0732365
2033.54	-0.0897484
2035.01	0.452467
2036.47	0.221931
2037.94	0.494834
2039.4	0.0951977
2040.87	-0.17018
2042.33	0.674425
2043.8	-0.498091
2045.27	-0.257199
2046.73	0.169833
2048.19	0.32811
2049.66	-0.204764
2051.12	0.255719
2052.59	0.0909853
2054.05	0.295489
2055.51	0.19471
2056.97	0.176912
2058.44	0.141491
2059.9	0.156468
2061.36	0.0708065
2062.82	0.339477
2064.28	-0.0473251
2065.74	-0.130157
2067.21	0.208558
2068.67	0.278608
2070.13	0.298492
2071.59	0.234278
2073.05	-0.284702
2074.51	-0.147307
2075.96	0.0740004
2077.42	0.210778
2078.88	0.128252
2080.34	-0.0894098
2081.8	-0.156015
2083.26	0.466924
2084.72	0.230597
2086.17	-0.37636
2087.63	0.109529
2089.09	0.426507
2090.54	0.037487
2092	0.370705
2093.45	-0.185827
2094.91	-0.222107
2096.37	0.210486
2097.82	0.608381
2099.28	-0.0158167
2100.73	0.146613
2102.19	0.208743
2103.64	0.655651
2105.09	0.40236
2106.55	0.400931
2108	0.450598
2109.45	0.0670481
2110.91	0.0832844
2112.36	0.198252
2113.81	0.727777
2115.26	0.489521
2116.72	0.516757
2118.17	0.793406
2119.62	-0.124103
2121.07	0.105981
2122.52	0.4704
2123.97	-0.258341
2125.42	0.505994
2126.87	0.855472
2128.32	0.590517
2129.77	0.755184
2131.22	0.404983
2132.67	0.733034
2134.11	0.746351
2135.56	0.297474
2137.01	0.544578
2138.46	0.661157
2139.91	0.630856
2141.35	1.03196
2142.8	0.525016
2144.25	0.994381
2145.7	0.736077
2147.14	1.10644
2148.59	1.04581
2150.03	0.735779
2151.48	0.805733
2152.92	0.709033
2154.37	0.710944
2155.81	1.29224
2157.26	0.829889
2158.7	1.11371
2160.15	0.868758
2161.59	0.956858
2163.03	1.46136
2164.47	0.906272
2165.92	1.09837
2167.36	1.19099
2168.8	0.933562
2170.24	0.823817
2171.69	1.32746
2173.13	1.16378
2174.57	1.34803
2176.01	1.54823
2177.45	1.63218
2178.89	1.3844
2180.33	1.2374
2181.77	1.20768
2183.21	1.06216
2184.65	1.51565
2186.09	0.854785
2187.53	1.17541
2188.97	1.24657
2190.4	1.03476
2191.84	0.706086
2193.28	1.02597
2194.72	1.31125
2196.16	1.04531
2197.59	0.810834
2199.03	1.24001
2200.47	1.00293
2201.9	0.81584
2203.34	0.895121
2204.77	0.660341
2206.21	0.642274
2207.64	0.541917
2209.08	0.590521
2210.51	0.903157
2211.95	0.949792
2213.38	0.846847
2214.82	0.430081
2216.25	0.509653
2217.68	0.342748
2219.12	0.721378
2220.55	0.127931
2221.98	0.688651
2223.41	0.506948
2224.85	0.686344
2226.28	0.205651
2227.71	0.25026
2229.14	0.277143
2230.57	0.00793839
2232	0.525693
2233.43	0.600613
2234.86	0.806912
2236.29	0.556564
2237.72	0.406113
2239.15	0.55137
2240.58	0.192808
2242.01	0.0644341
2243.44	0.361297
2244.87	0.54437
2246.29	0.0743809
2247.72	0.663076
2249.15	0.124491
2250.58	0.268631
2252.01	0.0853357
2253.43	0.405692
2254.86	0.579513
2256.29	0.316103
2257.71	0.0877237
2259.14	0.0730524
2260.56	0.547866
2261.99	0.489669
2263.41	0.432981
2264.84	0.132786
2266.26	-0.233137
2267.69	0.473543
2269.11	0.0570087
2270.53	0.258062
2271.96	-0.0460367
2273.38	0.512739
2274.8	0.45282
2276.23	-0.0305624
2277.65	0.0238094
2279.07	0.551046
2280.49	0.60561
2281.91	-0.073904
2283.34	0.420833
2284.76	0.344686
2286.18	0.285033
2287.6	0.127726
2289.02	-0.257944
2290.44	0.0264053
2291.86	0.164126
2293.28	0.449282
2294.7	0.243816
2296.12	-0.0273819
2297.54	0.077774
2298.96	0.543476
2300.37	0.386954
2301.79	0.410935
2303.21	-0.20462
2304.63	0.262696
2306.04	0.319854
2307.46	0.557482
2308.88	-0.0599785
2310.3	0.225946
2311.71	0.0182076
2313.13	-0.156788
2314.54	-0.117566
2315.96	0.136415
2317.37	0.0948114
2318.79	0.234915
2320.2	0.243011
2321.62	0.0685759
2323.03	-0.10771
2324.45	0.324481
2325.86	0.160426
2327.27	0.390679
2328.69	0.372729
2330.1	0.289083
2331.51	-0.0241346
2332.92	0.338703
2334.34	-0.00536919
2335.75	0.243172
2337.16	0.343161
2338.57	0.0147123
2339.98	-0.0680304
2341.39	0.176882
2342.8	0.371761
2344.21	-0.28645
2345.63	-0.00936985
2347.04	0.0546989
2348.45	0.0696154
2349.85	-0.259367
2351.26	0.3922
2352.67	0.306816
2354.08	-0.0567083
2355.49	-0.224544
2356.9	0.0147314
2358.3	-0.071846
2359.71	0.0368385
2361.12	0.0480061
2362.53	-0.102996
2363.93	0.183515
2365.34	0.0972481
2366.75	0.286082
2368.15	0.039176
2369.56	-0.174064
2370.97	0.0978155
2372.37	-0.112725
2373.77	-0.193306
2375.18	0.0323687
2376.59	0.386219
2377.99	0.0311632
2379.39	0.317859
2380.8	0.088789
2382.2	0.0673132
2383.6	0.525503
2385.01	0.0705738
2386.41	0.160311
2387.81	0.250682
2389.21	0.517383
2390.62	0.689255
2392.02	-0.427516
2393.42	-0.0145159
2394.82	-0.189629
2396.22	0.303759
2397.62	0.400076
2399.02	0.465116
2400.42	-0.104835
2401.82	-0.00719643
2403.22	-0.274814
2404.62	-0.129838
2406.02	0.204777
2407.42	-0.175746
2408.82	0.0142927
2410.22	0.298925
2411.62	-0.00273514
2413.01	0.0291815
2414.41	0.0305767
2415.81	-0.109164
2417.21	0.211425
2418.6	-0.227102
2420	0.458986
2421.4	0.147296
2422.79	-0.244049
2424.19	0.124783
2425.59	0.335278
2426.98	0.0391369
2428.38	0.155845
2429.77	0.178343
2431.17	-0.0523672
2432.56	0.129594
2433.95	0.4224
2435.35	-0.0164251
2436.74	0.305845
2438.14	0.372483
2439.53	0.45374
2440.92	-0.14878
2442.31	-0.116434
2443.71	0.0425625
2445.1	0.0426435
2446.49	-0.290372
2447.88	0.391008
2449.27	-0.0845823
2450.67	-0.0687256
2452.06	0.279966
2453.45	0.0278754
2454.84	0.251285
2456.23	0.238002
2457.62	-0.0913377
2459.01	0.132803
2460.4	0.372175
2461.79	-0.0059371
2463.18	0.31087
2464.57	0.374094
2465.95	0.200075
2467.34	-0.100175
2468.73	0.1678
2470.12	0.35648
2471.5	0.118945
2472.89	-0.103212
2474.28	0.492814
2475.67	0.0491409
2477.05	0.313091
2478.44	-0.0202241
2479.82	0.0865126
2481.21	0.381384
2482.6	0.409377
2483.98	-0.0797248
2485.37	0.150671
2486.75	-0.0110316
2488.13	0.185521
2489.52	0.302951
2490.9	0.326536
2492.29	0.163992
2493.67	-0.400907
2495.05	-0.0172229
2496.44	0.0414176
2497.82	0.0852575
2499.2	-0.366029
2500.58	-0.0281453
2501.97	0.0612316
2503.35	-0.344555
2504.73	0.113449
2506.11	0.230915
2507.49	0.347872
2508.87	-0.11953
2510.25	-0.170905
2511.63	-0.451748
2513.01	0.0196867
2514.39	0.291989
2515.77	-0.124072
2517.15	0.0423651
2518.53	0.178527
2519.91	0.161891
2521.29	0.206111
2522.67	0.402295
2524.05	0.200838
2525.42	0.120927
2526.8	-0.476863
2528.18	-0.0539112
2529.55	-0.208421
2530.93	0.155374
2532.31	-0.0721469
2533.69	0.294166
2535.06	0.357244
2536.44	0.0252829
2537.81	-0.0338159
2539.19	0.270729
2540.56	0.331398
2541.94	-0.321677
2543.31	0.452119
2544.69	-0.00241327
2546.06	0.242011
2547.44	0.578578
2548.81	-0.0245948
2550.18	0.252198
2551.56	0.285801
2552.93	0.622066
2554.3	0.395808
2555.67	0.108056
2557.04	0.032259
2558.42	0.198974
2559.79	0.168752
2561.16	0.184489
2562.53	0.231108
2563.9	-0.100598
2565.27	0.325784
2566.64	0.434156
2568.01	0.0879583
2569.38	-0.0157895
2570.75	0.517024
2572.12	0.261717
2573.49	0.0670772
2574.86	0.296953
2576.23	-0.0643992
2577.6	0.544489
2578.97	0.152467
2580.33	0.245302
2581.7	0.110299
2583.07	0.141726
2584.44	-0.206086
2585.8	0.310125
2587.17	-0.0982342
2588.54	0.478737
2589.9	0.222223
2591.27	0.117147
2592.64	0.314686
2594	0.0569358
2595.37	0.161819
2596.73	-0.127899
2598.1	0.504752
2599.46	0.244271
2600.83	0.165488
2602.19	-0.199705
2603.55	0.220993
2604.92	-0.00700712
2606.28	0.444129
2607.64	-0.251368
2609.01	0.334056
2610.37	0.495943
2611.73	-0.111255
2613.09	0.258884
2614.46	-0.243681
2615.82	0.244902
2617.18	-0.166751
2618.54	0.26159
2619.9	0.360667
2621.26	0.25094
2622.62	0.052196
2623.98	0.257092
2625.34	0.312421
2626.7	0.456896
2628.06	0.138891
2629.42	0.520879
2630.78	0.515223
2632.14	0.241856
2633.5	0.236233
2634.86	0.126681
2636.21	-0.0717206
2637.57	-0.166109
2638.93	0.391156
2640.29	0.237523
2641.64	0.0252099
2643	0.0793591
2644.36	0.295963
2645.71	0.0400896
2647.07	0.226456
2648.43	0.279301
2649.78	-0.0366292
2651.14	0.0443306
2652.49	0.418531
2653.85	0.293334
2655.2	0.0811086
2656.56	0.382844
2657.91	-0.00268888
2659.26	0.110414
2660.62	0.369982
2661.97	0.117646
2663.32	0.434651
2664.68	0.0206513
2666.03	0.612909
2667.38	0.271046
2668.74	0.00243235
2670.09	0.301935
2671.44	0.383359
2672.79	-0.29031
2674.14	0.213644
2675.49	0.296653
2676.84	0.496175
2678.19	0.159534
2679.54	0.0558453
2680.89	0.185102
2682.24	0.242947
2683.59	0.171397
2684.94	0.506835
2686.29	0.073904
2687.64	0.453356
2688.99	0.599586
2690.34	0.497389
2691.69	0.175721
2693.03	0.273547
2694.38	-0.369187
2695.73	-0.22882
2697.08	0.230601
2698.42	0.227446
2699.77	-0.107182
2701.12	0.110018
2702.46	0.169342
2703.81	0.461525
2705.15	0.464505
2706.5	0.249971
2707.85	0.470306
2709.19	0.312988
2710.54	0.285869
2711.88	-0.0901747
2713.22	0.376204
2714.57	0.450335
2715.91	0.451735
2717.26	0.496617
2718.6	0.221216
2719.94	0.629221
2721.29	0.425684
2722.63	0.469044
2723.97	0.366383
2725.31	0.379729
2726.66	0.159817
2728	0.347128
2729.34	0.344977
2730.68	0.0516677
2732.02	0.558555
2733.36	0.0471077
2734.7	0.292277
2736.04	0.261242
2737.38	0.492114
2738.72	0.301183
2740.06	0.168197
2741.4	0.180189
2742.74	0.467762
2744.08	0.405717
2745.42	0.197821
2746.76	-0.053905
2748.09	0.0282493
2749.43	0.24093
2750.77	0.381096
2752.11	-0.203507
2753.45	0.0241027
2754.78	-0.0235662
2756.12	-0.215935
2757.46	0.0552912
2758.79	0.283171
2760.13	0.077106
2761.46	0.103093
2762.8	-0.0875354
2764.14	-0.075294
2765.47	0.168429
2766.8	0.324883
2768.14	0.220045
2769.47	0.0417466
2770.81	-0.0221429
2772.14	-0.0150323
2773.48	0.279688
2774.81	-0.118638
2776.14	0.175069
2777.48	-0.135865
2778.81	-0.244472
2780.14	-0.122535
2781.47	-0.0722818
2782.8	-0.208589
2784.14	-0.158343
2785.47	0.0637965
2786.8	0.156898
2788.13	-0.078886
2789.46	0.315828
2790.79	0.18188
2792.12	-0.137119
2793.45	0.0590901
2794.78	0.0837498
2796.11	0.0366397
2797.44	0.0604577
2798.77	0.0837255
2800.1	-0.378683
2801.43	0.0149913
2802.76	0.222744
2804.09	0.44428
2805.41	-0.118198
2806.74	0.315773
2808.07	0.208045
2809.4	0.256402
2810.72	0.0348797
2812.05	0.14063
2813.38	0.162223
2814.71	0.241887
2816.03	-0.15904
2817.36	0.121515
2818.68	0.0907979
2820.01	0.0317507
2821.33	0.340788
2822.66	0.0822816
2823.98	0.460831
2825.31	0.30061
2826.63	0.352922
2827.96	0.518982
2829.28	0.119284
2830.6	0.555303
2831.93	0.496062
2833.25	0.366004
2834.57	0.631969
2835.9	0.727576
2837.22	0.51134
2838.54	0.789876
2839.86	1.08221
2841.18	1.84105
2842.5	1.53987
2843.83	1.9744
2845.15	2.38138
2846.47	2.69014
2847.79	2.66016
2849.11	2.77155
2850.43	3.0381
2851.75	2.92248
2853.07	3.42812
2854.39	3.04296
2855.71	3.01091
2857.03	3.3179
2858.35	3.639
2859.66	3.29624
2860.98	3.34877
2862.3	3.42917
2863.62	3.97486
2864.94	3.75803
2866.25	3.9786
2867.57	4.19936
2868.89	4.08216
2870.2	3.92323
2871.52	4.66668
2872.84	4.40896
2874.15	4.71408
2875.47	5.20087
2876.78	4.93975
2878.1	5.04375
2879.41	5.02073
2880.73	4.7451
2882.04	4.99058
2883.36	4.81581
2884.67	4.71254
2885.99	5.21369
2887.3	5.36388
2888.61	6.00459
2889.93	5.10096
2891.24	5.27664
2892.55	5.31129
2893.86	5.80799
2895.18	5.42257
2896.49	5.73834
2897.8	5.67743
2899.11	5.93964
2900.42	6.09089
2901.73	5.8231
2903.05	5.98924
2904.36	5.90381
2905.67	6.50412
2906.98	6.15402
2908.29	6.39244
2909.6	6.66
2910.91	6.39662
2912.21	6.88903
2913.52	7.33871
2914.83	6.86269
2916.14	7.00055
2917.45	7.29038
2918.76	7.15908
2920.07	7.18154
2921.37	8.22552
2922.68	7.77486
2923.99	7.53582
2925.29	7.81546
2926.6	7.84434
2927.91	7.87332
2929.22	8.0976
2930.52	7.95773
2931.83	7.74743
2933.13	8.54328
2934.44	7.99723
2935.74	7.75893
2937.05	8.31746
2938.35	7.73035
2939.66	7.63275
2940.96	7.95502
2942.26	7.43999
2943.57	7.0801
2944.87	6.76369
2946.18	6.57441
2947.48	6.59563
2948.78	6.21075
2950.08	6.10436
2951.39	5.8839
2952.69	6.02535
2953.99	5.91316
2955.29	5.91258
2956.59	5.54915
2957.9	5.51004
2959.2	5.27806
2960.5	5.10513
2961.8	4.83624
2963.1	4.69417
2964.4	4.76196
2965.7	4.47714
2967	4.13408
2968.3	4.46419
2969.6	4.16091
2970.9	4.44815
2972.19	4.24352
2973.49	3.94072
2974.79	4.46834
2976.09	3.88329
2977.39	3.50796
2978.68	3.6659
2979.98	3.75158
2981.28	3.1041
2982.58	2.97701
2983.87	2.56925
2985.17	2.96409
2986.47	2.50324
2987.76	2.66235
2989.06	2.35888
2990.35	2.0979
2991.65	1.87865
2992.94	2.05196
2994.24	1.57769
2995.53	1.83301
2996.83	1.66627
2998.12	1.49955
2999.42	1.48759
3000.71	0.915414
3002	0.638654
3003.3	0.82498
3004.59	0.997393
3005.88	0.679404
3007.18	0.683137
3008.47	0.938009
3009.76	0.884198
3011.05	0.41065
3012.34	0.719347
3013.64	0.483588
3014.93	0.290513
3016.22	0.432812
3017.51	-0.00897837
3018.8	-0.171373
3020.09	-0.472469
3021.38	0.185551
3022.67	-0.0190735
3023.96	0.192166
3025.25	0.180607
3026.54	0.501379
3027.83	0.0610719
3029.12	0.0512891
3030.41	-0.191844
3031.69	0.367744
3032.98	0.127328
3034.27	-0.11248
3035.56	0.0476146
3036.84	-0.000319004
3038.13	0.184515
3039.42	0.160955
3040.71	0.0948782
3041.99	-0.163891
3043.28	-0.188851
3044.57	0.0472493
3045.85	0.0520067
3047.14	0.11356
3048.42	0.0954642
3049.71	0.175045
3050.99	0.133418
3052.28	-0.0300608
3053.56	0.0522542
3054.85	0.297829
3056.13	0.0787954
3057.41	0.445247
3058.7	0.265755
3059.98	0.113626
3061.26	0.0302043
3062.55	0.111129
3063.83	0.370178
3065.11	0.250092
3066.39	-0.113232
3067.68	0.353867
3068.96	0.372882
3070.24	0.174248
3071.52	0.274188
3072.8	0.1284
3074.08	0.24001
3075.36	0.459553
3076.65	0.244199
3077.93	0.341789
3079.21	0.155555
3080.49	-0.313878
3081.77	-0.469685
3083.04	-0.0680332
3084.32	-0.126786
3085.6	0.0997334
3086.88	0.298948
3088.16	0.307707
3089.44	-0.0639801
3090.72	0.134156
3091.99	0.237333
3093.27	0.0559778
3094.55	0.444741
3095.83	0.155911
3097.1	0.314833
3098.38	0.406099
3099.66	0.199324
3100.93	0.385641
3102.21	0.369013
3103.49	0.285177
3104.76	0.134398
3106.04	0.268761
3107.31	0.174087
3108.59	0.364762
3109.86	0.272416
3111.14	0.357147
3112.41	0.375129
3113.69	0.732514
3114.96	0.466779
3116.23	0.72958
3117.51	0.530815
3118.78	0.42623
3120.05	0.782027
3121.33	0.730342
3122.6	0.475141
3123.87	0.775597
3125.14	0.940861
3126.41	0.849525
3127.69	0.96199
3128.96	0.764069
3130.23	0.756138
3131.5	0.586432
3132.77	0.673747
3134.04	0.950063
3135.31	0.901925
3136.58	1.08303
3137.85	0.994092
3139.12	0.891809
3140.39	1.04555
3141.66	1.15912
3142.93	1.21933
3144.2	1.44128
3145.47	1.24796
3146.74	1.32399
3148	1.24005
3149.27	1.22407
