200.563	0.332639
202.377	0.337685
204.194	0.344192
206.008	0.0601482
207.821	0.287434
209.634	0.635734
211.449	-0.0372772
213.262	0.18743
215.074	0.0956612
216.885	-0.505243
218.699	0.396627
220.51	0.354328
222.321	0.192438
224.131	0.394595
225.941	0.234952
227.751	-0.286585
229.562	0.133852
231.371	0.408751
233.18	-0.0403509
234.988	-0.512486
236.796	0.0297146
238.603	0.309092
240.411	-0.0352459
242.219	-0.256509
244.026	0.223224
245.832	-0.623965
247.638	0.506524
249.443	-0.127987
251.248	0.465703
253.053	-0.343518
254.857	0.29371
256.661	0.206825
258.465	0.50677
260.268	-0.395977
262.071	0.0287523
263.874	0.21455
265.678	0.233094
267.48	-0.20575
269.282	-0.0423079
271.083	0.265143
272.884	-0.0553341
274.684	-0.0396338
276.484	-0.266586
278.284	0.203576
280.084	0.4786
281.883	0.0772562
283.682	-0.0367823
285.48	0.78494
287.276	-0.363621
289.074	0.264501
290.871	0.533144
292.668	0.0610456
294.465	-0.145395
296.261	1.01288
298.057	-0.481196
299.853	0.0810661
301.648	-0.288592
303.443	0.0335875
305.237	0.0440321
307.032	0.196708
308.823	0.53982
310.617	0.287766
312.41	0.632848
314.203	0.646443
315.995	0.900446
317.788	0.394642
319.579	-0.109561
321.369	0.0783939
323.16	0.553719
324.951	0.31433
326.741	0.385288
328.531	-0.0216894
330.321	0.454759
332.108	1.00219
333.897	1.16533
335.686	0.871404
337.474	0.335588
339.26	0.347892
341.048	0.645544
342.835	0.679215
344.622	0.61737
346.406	0.24577
348.192	0.137954
349.978	-0.0407791
351.764	0.377342
353.547	0.126567
355.332	0.208798
357.116	0.313407
358.901	0.678611
360.682	-0.0532856
362.466	-0.118799
364.249	0.766088
366.03	0.31842
367.812	0.796351
369.594	-0.126456
371.374	0.135991
373.155	-0.667438
374.936	0.232039
376.715	0.0674696
378.495	0.281185
380.273	-0.234651
382.053	0.734554
383.832	0.551391
385.609	-0.00610733
387.388	0.354737
389.164	0.0354166
390.942	0.727304
392.72	0.339743
394.495	0.633986
396.272	-0.0106611
398.047	-0.0915689
399.823	-0.243087
401.597	0.567952
403.372	0.063015
405.145	0.449795
406.92	0.342583
408.693	-0.234778
410.467	0.549218
412.239	0.206531
414.012	-0.534402
415.783	0.0629988
417.556	0.0981836
419.327	0.134097
421.099	0.334629
422.869	0.394095
424.64	-0.0167027
426.409	0.463581
428.18	-0.348173
429.948	0.295029
431.718	0.726913
433.486	0.173444
435.253	0.347957
437.022	-0.0408068
438.789	0.273732
440.558	-0.2816
442.324	-0.205451
444.089	0.00899982
445.857	0.221196
447.622	-0.317136
449.386	-0.130096
451.153	0.103478
452.917	0.383723
454.682	0.337253
456.446	-0.594762
458.208	0.290962
459.973	0.523898
461.735	0.385284
463.497	0.829684
465.259	-0.00136852
467.022	-0.0158672
468.783	-0.19022
470.544	0.520961
472.306	0.582016
474.066	0.22315
475.825	0.444304
477.585	0.546698
479.346	0.5539
481.104	0.769674
482.862	0.543136
484.62	0.48101
486.38	-0.0448885
488.137	0.176942
489.894	0.821114
491.65	0.276888
493.407	1.04092
495.164	0.754154
496.92	0.490128
498.675	1.16254
500.43	0.334672
502.184	0.772132
503.939	0.645509
505.694	0.329383
507.448	0.904973
509.201	0.397142
510.954	1.25198
512.706	0.48152
514.459	0.815292
516.21	0.676928
517.962	0.984099
519.715	0.349629
521.466	0.560742
523.216	0.489326
524.966	1.0984
526.716	0.135127
528.466	0.907873
530.215	1.60938
531.964	0.740447
533.712	0.667409
535.46	0.289083
537.208	0.77446
538.955	0.276866
540.703	0.968298
542.449	0.748897
544.196	0.0178404
545.942	0.101727
547.688	0.603331
549.433	1.05768
551.178	0.608243
552.923	0.345032
554.667	0.336746
556.412	0.559587
558.155	1.03606
559.899	-0.008255
561.642	0.19283
563.385	0.64721
565.127	0.297132
566.867	0.15495
568.609	0.495893
570.35	0.516424
572.092	0.561421
573.832	0.83763
575.573	0.129387
577.313	0.340546
579.053	-0.433895
580.79	0.698049
582.529	0.751149
584.268	0.0679512
586.006	-0.0879507
587.745	-0.199271
589.482	0.792447
591.218	0.126699
592.955	1.04791
594.692	0.151349
596.428	1.0954
598.164	0.0607977
599.898	0.383173
601.634	0.451518
603.369	0.0814705
605.104	-0.0830107
606.836	-0.294654
608.57	0.204969
610.304	0.290782
612.037	-0.334028
613.769	0.16599
615.501	0.620448
617.234	0.845622
618.966	-0.0979519
620.696	0.194202
622.427	0.873555
624.159	0.339529
625.887	0.331675
627.618	0.416316
629.348	1.05073
631.076	0.820458
632.806	0.181697
634.535	0.548072
636.262	0.434746
637.99	0.912965
639.716	0.589223
641.444	1.08354
643.172	0.0247889
644.897	0.901826
646.624	0.390141
648.348	0.222315
650.075	0.489726
651.801	0.579432
653.524	0.673406
655.249	0.11138
656.972	0.324902
658.697	0.562591
660.419	0.503568
662.143	0.67106
663.865	0.83622
665.588	0.793079
667.309	0.450521
669.032	1.31925
670.752	0.221863
672.474	0.315862
674.194	0.801824
675.915	0.924084
677.634	1.2085
679.355	0.804516
681.073	0.674472
682.793	0.772306
684.511	-0.144966
686.23	0.546887
687.947	0.523421
689.664	1.28196
691.382	1.07226
693.098	0.516325
694.816	0.627546
696.531	0.783697
698.247	1.19166
699.963	0.76953
701.678	1.17444
703.392	0.842366
705.108	1.22188
706.821	1.21013
708.534	0.670497
710.249	0.497875
711.962	0.78299
713.674	1.29597
715.388	1.1908
717.099	1.06294
718.81	1.36878
720.523	0.922172
722.234	0.613122
723.944	1.51044
725.654	1.65591
727.365	1.3011
729.075	0.719541
730.784	0.909322
732.492	1.27948
734.202	1.19618
735.91	1.74594
737.618	1.57251
739.325	1.28738
741.034	1.29681
742.741	1.42019
744.447	1.07214
746.153	1.44604
747.859	1.55125
749.564	0.938107
751.271	1.60848
752.976	1.44807
754.681	1.5816
756.385	1.9419
758.088	1.40357
759.792	1.9477
761.495	1.34389
763.2	1.73254
764.902	1.21816
766.604	1.37967
768.306	1.96884
770.008	1.83238
771.709	1.94233
773.41	1.96027
775.11	1.36722
776.811	1.74708
778.51	1.60831
780.21	2.28534
781.909	2.08162
783.608	2.46628
785.307	2.10274
787.005	2.84561
788.703	2.70188
790.401	1.87586
792.098	1.74859
793.795	2.29717
795.492	2.30307
797.188	1.94944
798.884	1.37302
800.58	2.32974
802.276	2.61214
803.971	1.4108
805.665	1.26672
807.36	2.02061
809.054	1.78433
810.748	1.79388
812.441	1.95936
814.135	2.68404
815.826	2.28797
817.518	2.69767
819.21	1.98938
820.902	2.08628
822.594	1.98265
824.285	2.21451
825.976	2.15801
827.665	2.23764
829.355	2.00854
831.045	1.67145
832.735	2.07248
834.424	1.98573
836.111	1.47611
837.8	1.52357
839.488	2.39599
841.177	2.37381
842.864	1.88091
844.55	1.78954
846.237	1.96714
847.924	2.32573
849.61	1.88199
851.295	2.44804
852.98	0.999858
854.666	1.52429
856.349	1.82494
858.034	1.94504
859.719	1.11833
861.403	1.43692
863.085	1.52882
864.769	1.68703
866.452	1.91196
868.133	1.25687
869.816	1.75124
871.498	2.11008
873.179	1.09258
874.86	1.49623
876.54	1.74203
878.221	1.51391
879.902	1.10502
881.58	1.64377
883.26	1.93342
884.938	1.86061
886.618	1.53796
888.297	1.91314
889.974	1.94796
891.653	2.13878
893.329	1.40454
895.007	1.27766
896.683	1.23976
898.36	0.706833
900.035	1.45258
901.712	1.16516
903.387	1.25824
905.063	2.06594
906.737	1.5328
908.412	1.58123
910.085	1.36333
911.76	1.50275
913.433	1.5093
915.107	1.89362
916.779	1.41219
918.452	1.37477
920.124	1.49255
921.797	1.52225
923.467	1.6858
925.138	1.63006
926.81	2.23878
928.48	1.65711
930.151	0.900566
931.82	1.51291
933.489	1.41943
935.16	1.70111
936.828	1.43186
938.496	1.47237
940.165	1.33777
941.833	0.873541
943.5	0.873224
945.168	0.740265
946.834	0.672242
948.5	1.13204
950.168	0.839337
951.834	1.89129
953.499	1.64149
955.163	1.50389
956.83	0.421174
958.494	0.841371
960.158	1.15451
961.821	1.22668
963.487	1.03345
965.15	1.25833
966.812	1.1928
968.474	0.814434
970.138	1.25246
971.8	1.00377
973.461	0.667277
975.123	0.553535
976.783	1.65808
978.446	1.23829
980.106	1.16193
981.766	1.08504
983.425	1.34973
985.084	1.10312
986.743	0.721504
988.402	0.470992
990.06	0.728005
991.72	1.33765
993.378	0.64334
995.035	1.05361
996.692	0.669342
998.349	0.858722
1000.01	0.915401
1001.66	1.19179
1003.32	1.70938
1004.97	0.246785
1006.63	0.961598
1008.28	0.950898
1009.94	1.24777
1011.59	0.930725
1013.25	0.592653
1014.9	1.08769
1016.55	1.18859
1018.21	0.633568
1019.86	0.123664
1021.51	0.620904
1023.16	0.33215
1024.81	0.153758
1026.47	0.238207
1028.12	0.759609
1029.77	0.930623
1031.42	0.597903
1033.07	0.19824
1034.72	0.953578
1036.37	0.747207
1038.02	0.932405
1039.67	0.790758
1041.31	1.28084
1042.96	0.945739
1044.61	1.02572
1046.26	-0.043375
1047.91	1.06159
1049.55	0.734868
1051.2	0.974156
1052.84	0.432285
1054.49	0.651107
1056.14	0.283165
1057.78	0.458244
1059.43	0.393693
1061.07	0.719847
1062.72	0.675534
1064.36	1.0216
1066	0.192501
1067.65	0.60145
1069.29	0.357352
1070.93	0.156222
1072.58	-0.0665426
1074.22	0.752872
1075.86	1.11733
1077.5	0.377091
1079.14	0.852685
1080.78	0.136383
1082.42	0.8512
1084.06	0.93615
1085.7	1.66955
1087.34	1.03506
1088.98	0.572187
1090.62	1.27643
1092.26	0.486705
1093.9	0.993607
1095.54	0.679992
1097.17	1.25161
1098.81	0.553073
1100.45	0.438555
1102.09	0.455285
1103.72	-0.106956
1105.36	0.558354
1106.99	0.643384
1108.63	1.00759
1110.27	0.29542
1111.9	0.312754
1113.53	0.113572
1115.17	1.26576
1116.8	0.871244
1118.43	1.0348
1120.07	0.470522
1121.7	0.678806
1123.33	0.417185
1124.97	0.905628
1126.6	0.710284
1128.23	1.22156
1129.86	1.49827
1131.49	0.450077
1133.12	0.513987
1134.75	0.257088
1136.38	0.491122
1138.01	0.360693
1139.64	0.891198
1141.27	-0.28775
1142.9	0.369039
1144.53	0.470829
1146.16	0.573292
1147.78	0.399685
1149.41	0.376231
1151.04	0.140289
1152.67	0.266454
1154.29	0.243153
1155.92	0.751507
1157.54	0.344584
1159.17	0.406245
1160.8	0.44755
1162.42	-0.0202456
1164.05	0.448558
1165.67	0.36506
1167.29	0.515129
1168.92	0.0687294
1170.54	0.959702
1172.16	0.254565
1173.79	0.376327
1175.41	-0.161025
1177.03	-0.104501
1178.65	-0.238452
1180.28	0.305837
1181.9	0.321533
1183.52	0.0630713
1185.14	0.0373058
1186.76	-0.0527849
1188.38	-0.0389528
1190	0.0149813
1191.62	-0.227887
1193.24	-0.114241
1194.86	0.124256
1196.47	-0.0571098
1198.09	0.370165
1199.71	0.547346
1201.33	0.559591
1202.95	0.449434
1204.56	0.488271
1206.18	0.466752
1207.8	0.258857
1209.41	0.82305
1211.03	1.19843
1212.64	0.487531
1214.26	0.795884
1215.87	0.143645
1217.49	0.405917
1219.1	0.479626
1220.71	0.656884
1222.33	0.71015
1223.94	0.433191
1225.55	0.137584
1227.16	0.588845
1228.78	0.85499
1230.39	0.812175
1232	0.377956
1233.61	0.813229
1235.22	1.2498
1236.83	0.426901
1238.44	0.741886
1240.05	0.458029
1241.66	1.04294
1243.27	1.40016
1244.88	1.0738
1246.49	1.26358
1248.1	1.49362
1249.71	0.626219
1251.32	0.917216
1252.92	0.836087
1254.53	0.652356
1256.14	1.19375
1257.74	1.73663
1259.35	0.936018
1260.96	1.02597
1262.56	0.681628
1264.17	0.772066
1265.77	0.675615
1267.38	1.49039
1268.98	0.79098
1270.59	1.23067
1272.19	1.33748
1273.79	0.862648
1275.4	1.44401
1277	0.863627
1278.6	1.06989
1280.21	1.68944
1281.81	0.880112
1283.41	1.00255
1285.01	1.06347
1286.61	1.31138
1288.21	1.82901
1289.81	1.62423
1291.41	1.56469
1293.01	1.60833
1294.61	1.837
1296.21	1.56843
1297.81	2.08264
1299.41	1.27405
1301.01	1.72239
1302.6	1.50951
1304.2	0.96669
1305.8	1.53428
1307.4	1.29922
1308.99	2.06953
1310.59	2.22347
1312.19	1.4359
1313.78	2.45044
1315.38	1.66624
1316.97	2.02775
1318.57	1.30806
1320.16	1.71049
1321.76	1.58162
1323.35	1.91925
1324.94	1.2989
1326.54	2.4851
1328.13	1.3972
1329.72	1.42632
1331.32	1.35606
1332.91	1.63191
1334.5	1.36471
1336.09	1.54353
1337.68	1.07735
1339.27	1.27606
1340.87	0.888555
1342.45	1.56588
1344.04	1.97831
1345.64	1.86662
1347.22	1.03372
1348.81	1.40627
1350.4	1.40064
1351.99	1.69785
1353.58	1.47726
1355.17	1.41814
1356.75	1.4993
1358.34	0.880752
1359.93	1.14021
1361.51	1.43819
1363.1	0.817395
1364.69	1.35321
1366.27	0.693295
1367.86	0.492967
1369.44	1.0306
1371.03	1.39033
1372.61	0.915723
1374.2	1.11891
1375.78	1.1636
1377.37	1.44718
1378.95	1.21279
1380.53	0.877824
1382.11	1.49638
1383.7	1.73531
1385.28	1.31702
1386.86	0.71985
1388.44	1.23544
1390.02	1.43374
1391.6	1.65275
1393.19	0.543413
1394.77	1.02162
1396.35	1.08299
1397.93	1.00478
1399.51	0.648134
1401.08	1.22163
1402.66	0.665687
1404.24	1.11926
1405.82	1.0391
1407.4	1.03899
1408.97	0.723684
1410.55	0.96215
1412.13	0.548779
1413.71	1.18121
1415.28	1.41753
1416.86	2.20485
1418.43	1.59157
1420.01	1.17636
1421.59	1.29438
1423.16	1.43376
1424.73	1.693
1426.31	1.89456
1427.88	1.82116
1429.46	1.31437
1431.03	1.47578
1432.6	1.49812
1434.18	2.10957
1435.75	2.1302
1437.32	1.95448
1438.89	2.46768
1440.46	2.51022
1442.04	2.90764
1443.61	2.4215
1445.18	2.76126
1446.75	2.59023
1448.32	2.38005
1449.89	2.54371
1451.46	2.72765
1453.03	2.12562
1454.6	1.99586
1456.16	2.57429
1457.73	1.93202
1459.3	2.66578
1460.87	1.56731
1462.44	1.7853
1464	1.29338
1465.57	1.44938
1467.14	1.74234
1468.7	1.30902
1470.27	1.56394
1471.83	1.21179
1473.4	0.978666
1474.96	1.57004
1476.53	1.299
1478.09	1.42021
1479.66	1.44332
1481.22	0.93713
1482.78	1.25404
1484.35	0.963297
1485.91	0.94651
1487.47	1.04637
1489.04	1.28174
1490.6	0.908274
1492.16	1.1781
1493.72	1.26928
1495.28	1.47533
1496.84	0.0821218
1498.4	0.638021
1499.96	0.415809
1501.52	0.816399
1503.08	0.674436
1504.64	0.804886
1506.2	1.30312
1507.76	0.272019
1509.32	0.613434
1510.88	0.817802
1512.44	0.558268
1513.99	0.433747
1515.55	0.425065
1517.11	0.666617
1518.66	0.256481
1520.22	0.977956
1521.78	0.492668
1523.33	0.772553
1524.89	0.74549
1526.44	0.0882511
1528	0.421853
1529.55	0.373739
1531.11	0.040987
1532.66	0.543897
1534.21	0.40265
1535.77	0.924779
1537.32	0.294315
1538.87	0.458555
1540.43	-0.0747967
1541.98	0.0145922
1543.53	0.42362
1545.08	0.568428
1546.63	0.299541
1548.18	0.425032
1549.74	0.775132
1551.29	0.28219
1552.84	0.520268
1554.39	0.665462
1555.94	0.606479
1557.48	0.362776
1559.03	0.531782
1560.58	0.348205
1562.13	0.94977
1563.68	0.694344
1565.23	0.887258
1566.78	0.669735
1568.32	1.29179
1569.87	0.43894
1571.42	0.574924
1572.96	1.27065
1574.51	0.472853
1576.05	0.197758
1577.6	0.538919
1579.14	1.04857
1580.69	0.513352
1582.24	0.893891
1583.78	0.67767
1585.32	0.574185
1586.87	1.0694
1588.41	0.779553
1589.95	1.08802
1591.5	1.13418
1593.04	1.27349
1594.58	1.45005
1596.12	1.327
1597.67	1.09188
1599.21	1.34479
1600.75	1.61743
1602.29	0.914839
1603.83	1.00017
1605.37	1.10363
1606.91	0.698266
1608.45	1.11772
1609.99	0.989721
1611.53	1.38543
1613.07	0.633188
1614.6	0.668734
1616.14	1.11645
1617.68	1.11429
1619.22	1.18833
1620.75	1.65719
1622.29	1.02259
1623.83	1.21277
1625.37	1.30929
1626.9	1.16162
1628.44	1.23713
1629.97	0.67533
1631.51	0.972736
1633.04	0.970577
1634.58	0.800768
1636.11	1.26632
1637.65	0.744014
1639.18	0.800643
1640.72	1.00632
1642.25	1.41609
1643.78	1.11673
1645.31	1.4305
1646.85	1.14785
1648.38	1.27409
1649.91	1.88336
1651.44	1.15689
1652.97	1.71229
1654.5	2.19426
1656.03	1.54601
1657.56	1.80593
1659.1	1.67583
1660.62	2.19228
1662.15	1.33755
1663.68	1.44403
1665.21	1.45741
1666.74	1.56347
1668.27	1.22798
1669.8	1.15254
1671.32	1.17084
1672.85	1.61391
1674.38	0.860253
1675.91	0.824681
1677.43	1.02753
1678.96	0.934742
1680.49	1.19027
1682.01	0.746506
1683.54	0.670213
1685.06	1.69507
1686.59	0.316736
1688.11	0.938197
1689.64	0.771707
1691.16	0.514083
1692.68	0.165285
1694.21	0.932485
1695.73	0.52872
1697.25	0.527075
1698.78	0.762459
1700.3	0.321872
1701.82	0.683742
1703.34	0.315551
1704.86	0.147656
1706.39	-0.0204258
1707.91	-0.115783
1709.43	0.279328
1710.95	0.383488
1712.47	0.415129
1713.99	-0.386489
1715.51	0.00797367
1717.02	0.546409
1718.54	0.451284
1720.06	0.302078
1721.58	0.604344
1723.1	0.564201
1724.62	0.687324
1726.13	0.181466
1727.65	0.523396
1729.17	0.326255
1730.68	0.239617
1732.2	-0.1099
1733.72	0.103777
1735.23	-0.441585
1736.75	-0.127415
1738.26	0.492132
1739.78	-0.0590067
1741.29	-0.0397415
1742.81	0.25807
1744.32	0.113811
1745.84	0.197404
1747.35	-0.0755291
1748.86	0.110319
1750.37	0.492598
1751.89	0.0131617
1753.4	0.899652
1754.91	0.373971
1756.42	0.066968
1757.93	-0.0607891
1759.45	0.586644
1760.96	0.299958
1762.47	0.300015
1763.98	-0.199778
1765.49	0.0225849
1767	0.0939579
1768.51	0.151484
1770.02	0.371348
1771.53	0.457438
1773.03	0.077445
1774.54	0.0839453
1776.05	0.357507
1777.56	0.534812
1779.07	0.430726
1780.57	0.0578871
1782.08	0.074152
1783.59	-0.00365353
1785.09	0.305427
1786.6	0.379226
1788.11	0.478021
1789.61	0.00332451
1791.12	0.000576973
1792.62	0.0519381
1794.13	0.211764
1795.63	0.338816
1797.13	0.354728
1798.64	0.231532
1800.14	0.179004
1801.65	0.262387
1803.15	0.00108433
1804.65	-0.184727
1806.15	0.162108
1807.66	-0.16498
1809.16	0.225432
1810.66	0.0893431
1812.16	0.206467
1813.66	0.0488882
1815.16	0.0227318
1816.66	0.0984678
1818.16	0.300576
1819.66	0.221257
1821.16	-0.0375481
1822.66	0.0268536
1824.16	0.248742
1825.66	-0.0219994
1827.16	0.169654
1828.66	-0.0932837
1830.16	0.344309
1831.65	0.24466
1833.15	0.262865
1834.65	-0.189217
1836.14	0.0060215
1837.64	0.0240316
1839.14	0.0465593
1840.63	-0.108868
1842.13	-0.0675669
1843.62	0.167102
1845.12	0.0182858
1846.61	0.342388
1848.11	0.184629
1849.6	0.0815802
1851.1	0.159613
1852.59	-0.0987577
1854.08	-0.0282431
1855.58	-0.303085
1857.07	0.181301
1858.56	-0.249684
1860.05	0.0377483
1861.55	-0.0562553
1863.04	0.177979
1864.53	-0.0710716
1866.02	0.244861
1867.51	0.0118942
1869	0.198583
1870.49	0.0310688
1871.98	0.203422
1873.47	-0.0417204
1874.96	0.294605
1876.45	0.357575
1877.94	0.130498
1879.43	-0.404363
1880.92	-0.233788
1882.41	-0.156258
1882.51	-0.155034
1884	0.419822
1885.5	0.174448
1886.99	0.0851774
1888.48	-0.0741405
1889.98	-0.354904
1891.47	0.28723
1892.96	-0.164824
1894.46	0.0978155
1895.95	0.222896
1897.44	0.261904
1898.93	-0.0122871
1900.42	-0.183158
1901.91	-0.0250578
1903.41	-0.00786209
1904.9	-0.0616264
1906.39	0.196618
1907.88	0.332995
1909.37	0.313626
1910.86	0.191102
1912.35	0.138935
1913.83	0.226102
1915.32	-0.380289
1916.81	0.122804
1918.3	0.243815
1919.79	0.139054
1921.27	0.0515823
1922.76	-0.0354471
1924.25	-0.0177193
1925.74	0.191526
1927.22	0.03827
1928.71	0.197283
1930.19	-0.232458
1931.68	0.306747
1933.17	0.221114
1934.65	-0.177814
1936.14	-0.0762892
1937.62	-0.0797787
1939.11	-0.221948
1940.59	-0.0873871
1942.07	-0.159271
1943.56	0.511672
1945.04	0.165572
1946.52	0.164852
1948.01	0.0432758
1949.49	0.14501
1950.97	0.262888
1952.45	0.0699768
1953.93	0.426993
1955.42	-0.213219
1956.9	-0.491595
1958.38	0.0548
1959.86	0.618487
1961.34	-0.000920296
1962.82	0.100268
1964.3	-0.312791
1965.78	-0.0238371
1967.26	-0.00969124
1968.74	-0.133039
1970.21	-0.0858622
1971.69	0.575882
1973.17	-0.248322
1974.65	-0.32079
1976.13	-0.00097847
1977.6	-0.0391283
1979.08	0.0760593
1980.56	-0.0981045
1982.03	-0.0682173
1983.51	0.0462685
1984.99	-0.179214
1986.46	-0.0484276
1987.94	0.505808
1989.41	0.365202
1990.89	-0.197604
1992.36	0.408184
1993.84	-0.0168734
1995.31	0.218284
1996.78	0.183413
1998.26	-0.0203505
1999.73	0.248313
2001.2	0.279911
2002.68	0.277247
2004.15	0.190149
2005.62	0.18771
2007.09	0.0680923
2008.56	0.370435
2010.04	0.252618
2011.51	-0.150805
2012.98	0.253829
2014.45	0.0857639
2015.92	0.034791
2017.39	-0.151577
2018.86	0.18255
2020.33	0.0621548
2021.8	0.0257015
2023.26	-0.0943317
2024.73	0.0884972
2026.2	-0.130231
2027.67	0.0382404
2029.14	0.275231
2030.61	0.0606451
2032.07	0.484581
2033.54	0.456036
2035.01	0.377078
2036.47	-0.223072
2037.94	0.0832968
2039.4	0.120514
2040.87	0.224928
2042.33	0.111165
2043.8	0.250359
2045.27	0.138132
2046.73	0.0265398
2048.19	0.167803
2049.66	0.039238
2051.12	0.111929
2052.59	-0.170992
2054.05	0.387571
2055.51	0.505891
2056.97	0.319324
2058.44	0.519649
2059.9	0.635419
2061.36	0.246385
2062.82	-0.0069418
2064.28	0.212043
2065.74	0.38147
2067.21	0.484422
2068.67	0.217698
2070.13	0.0353889
2071.59	0.240307
2073.05	0.310437
2074.51	0.56555
2075.96	0.348839
2077.42	0.620122
2078.88	-0.0520411
2080.34	-0.0173464
2081.8	0.420883
2083.26	0.235487
2084.72	0.0999441
2086.17	0.0647097
2087.63	0.281118
2089.09	0.14399
2090.54	0.577902
2092	0.390114
2093.45	0.0178595
2094.91	0.0650196
2096.37	0.178697
2097.82	0.760538
2099.28	-0.0147104
2100.73	0.732695
2102.19	0.376298
2103.64	0.221604
2105.09	0.518952
2106.55	0.417014
2108	0.499656
2109.45	0.582603
2110.91	0.498279
2112.36	0.312741
2113.81	0.475446
2115.26	0.636332
2116.72	0.413666
2118.17	0.507279
2119.62	0.402865
2121.07	0.399984
2122.52	0.614597
2123.97	0.399427
2125.42	0.947683
2126.87	0.0531654
2128.32	0.616699
2129.77	0.499173
2131.22	0.181729
2132.67	0.592172
2134.11	0.257667
2135.56	0.651777
2137.01	0.716414
2138.46	0.485377
2139.91	0.65284
2141.35	0.689712
2142.8	0.397052
2144.25	0.898869
2145.7	0.507535
2147.14	0.959997
2148.59	0.749659
2150.03	0.869677
2151.48	0.756781
2152.92	0.659465
2154.37	1.07497
2155.81	0.49593
2157.26	0.314631
2158.7	1.01193
2160.15	1.13079
2161.59	1.05259
2163.03	0.992766
2164.47	0.901225
2165.92	0.39534
2167.36	0.553214
2168.8	1.09268
2170.24	1.19851
2171.69	1.01948
2173.13	1.12126
2174.57	0.905595
2176.01	0.905606
2177.45	1.02219
2178.89	0.723856
2180.33	1.45727
2181.77	0.695232
2183.21	0.981246
2184.65	1.36743
2186.09	1.0884
2187.53	0.676172
2188.97	1.26237
2190.4	1.3494
2191.84	1.25306
2193.28	1.22255
2194.72	1.07415
2196.16	0.607709
2197.59	1.05475
2199.03	0.91763
2200.47	1.12855
2201.9	0.84092
2203.34	0.587523
2204.77	0.899253
2206.21	0.615046
2207.64	0.580105
2209.08	1.05838
2210.51	0.840267
2211.95	0.571786
2213.38	0.50128
2214.82	0.678493
2216.25	0.228795
2217.68	0.754043
2219.12	0.405997
2220.55	0.289831
2221.98	0.668298
2223.41	0.518632
2224.85	0.4501
2226.28	0.791372
2227.71	0.538592
2229.14	0.646342
2230.57	0.424978
2232	0.36776
2233.43	-0.065546
2234.86	0.091403
2236.29	0.26548
2237.72	0.293836
2239.15	-0.100276
2240.58	0.584332
2242.01	0.406009
2243.44	0.522491
2244.87	0.443616
2246.29	0.559847
2247.72	0.250504
2249.15	0.607668
2250.58	0.180289
2252.01	0.158807
2253.43	0.608148
2254.86	0.1796
2256.29	0.191441
2257.71	0.448884
2259.14	0.579128
2260.56	0.355294
2261.99	0.247321
2263.41	0.43311
2264.84	-0.0468464
2266.26	0.480435
2267.69	-0.033659
2269.11	0.557597
2270.53	0.236841
2271.96	0.322492
2273.38	-0.357445
2274.8	0.184129
2276.23	0.286218
2277.65	0.0788612
2279.07	0.0833921
2280.49	0.332469
2281.91	0.173782
2283.34	-0.164522
2284.76	0.0681906
2286.18	0.00741291
2287.6	0.387789
2289.02	0.131827
2290.44	0.317242
2291.86	0.208832
2293.28	0.231288
2294.7	0.384629
2296.12	0.488914
2297.54	0.298476
2298.96	0.30451
2300.37	0.474623
2301.79	0.0548573
2303.21	-0.102564
2304.63	-0.243586
2306.04	0.173569
2307.46	-0.0499992
2308.88	0.00518036
2310.3	0.207843
2311.71	0.476049
2313.13	0.398846
2314.54	-0.105976
2315.96	-0.100052
2317.37	-0.0769291
2318.79	0.292811
2320.2	0.266902
2321.62	0.536927
2323.03	0.0130777
2324.45	-0.0674372
2325.86	0.361431
2327.27	0.4915
2328.69	1.03267
2330.1	0.832204
2331.51	0.105999
2332.92	-0.207122
2334.34	0.369245
2335.75	-0.0907879
2337.16	-0.287868
2338.57	0.286991
2339.98	-0.0106516
2341.39	0.101693
2342.8	0.14776
2344.21	-0.298269
2345.63	0.125159
2347.04	-0.336143
2348.45	0.15256
2349.85	0.198609
2351.26	0.227504
2352.67	0.108414
2354.08	-0.451916
2355.49	-0.0337486
2356.9	0.0575762
2358.3	-0.0302544
2359.71	0.060936
2361.12	0.314331
2362.53	-0.12999
2363.93	-0.0551958
2365.34	0.294411
2366.75	0.304068
2368.15	-0.347675
2369.56	0.0189772
2370.97	-0.177899
2372.37	0.287229
2373.77	0.221458
2375.18	0.252704
2376.59	0.396193
2377.99	-0.37806
2379.39	0.0845499
2380.8	0.304008
2382.2	0.377325
2383.6	-0.0148773
2385.01	-0.37436
2386.41	-0.117523
2387.81	0.139552
2389.21	0.166051
2390.62	0.353016
2392.02	0.254285
2393.42	-0.0183773
2394.82	-0.0514145
2396.22	-0.147354
2397.62	0.138789
2399.02	-0.321465
2400.42	-0.240942
2401.82	0.173394
2403.22	0.19062
2404.62	0.0487089
2406.02	0.271154
2407.42	-0.0786734
2408.82	-0.286192
2410.22	0.251191
2411.62	0.122814
2413.01	-0.0205212
2414.41	0.312398
2415.81	0.488311
2417.21	0.206422
2418.6	0.242036
2420	-0.0862379
2421.4	-0.0345697
2422.79	-0.125798
2424.19	-0.29653
2425.59	-0.134482
2426.98	0.107325
2428.38	0.397621
2429.77	0.149804
2431.17	0.156314
2432.56	-0.376752
2433.95	0.105653
2435.35	-0.349936
2436.74	-0.123842
2438.14	-0.216889
2439.53	0.117792
2440.92	0.086194
2442.31	-0.0570221
2443.71	0.0852222
2445.1	0.179597
2446.49	0.178612
2447.88	0.0031786
2449.27	0.097168
2450.67	0.0646162
2452.06	0.0958977
2453.45	0.475998
2454.84	0.334701
2456.23	0.00429535
2457.62	-0.135941
2459.01	0.119121
2460.4	0.231257
2461.79	-0.210793
2463.18	0.484671
2464.57	0.0573082
2465.95	0.0721931
2467.34	0.0396137
2468.73	0.180572
2470.12	0.11619
2471.5	0.114491
2472.89	0.064889
2474.28	0.046114
2475.67	-0.130551
2477.05	-0.0400915
2478.44	-0.0126524
2479.82	0.250273
2481.21	-0.114247
2482.6	0.148443
2483.98	-0.0280561
2485.37	0.123376
2486.75	-0.0546522
2488.13	0.188016
2489.52	0.164429
2490.9	0.280828
2492.29	0.257515
2493.67	-0.183961
2495.05	0.462576
2496.44	-0.223785
2497.82	-0.180338
2499.2	0.0335636
2500.58	0.0612526
2501.97	0.0572586
2503.35	0.608218
2504.73	0.339683
2506.11	0.502528
2507.49	0.110692
2508.87	-0.449267
2510.25	0.236305
2511.63	-0.168207
2513.01	-0.310672
2514.39	-0.222376
2515.77	0.233924
2517.15	0.0326166
2518.53	0.0155144
2519.91	0.0444403
2521.29	0.103638
2522.67	0.314784
2524.05	-0.0852633
2525.42	-0.0891237
2526.8	0.378827
2528.18	0.192128
2529.55	0.09797
2530.93	0.552553
2532.31	-0.070343
2533.69	0.0679131
2535.06	0.419528
2536.44	0.0570621
2537.81	0.0737925
2539.19	-0.153378
2540.56	-0.107902
2541.94	0.271104
2543.31	0.225277
2544.69	0.0740948
2546.06	0.136457
2547.44	0.0786285
2548.81	0.325013
2550.18	-0.0353951
2551.56	0.210693
2552.93	-0.226993
2554.3	0.366311
2555.67	0.306166
2557.04	0.260673
2558.42	-0.118518
2559.79	0.184901
2561.16	-0.0114737
2562.53	-0.343585
2563.9	-0.144739
2565.27	0.175729
2566.64	0.375208
2568.01	-0.0162597
2569.38	0.274257
2570.75	0.398081
2572.12	0.249114
2573.49	0.297271
2574.86	-0.185069
2576.23	0.120915
2577.6	0.138796
2578.97	-0.0558176
2580.33	-0.0536456
2581.7	0.0391231
2583.07	0.283143
2584.44	0.420766
2585.8	-0.305711
2587.17	-0.0922203
2588.54	0.16687
2589.9	0.21387
2591.27	0.0182877
2592.64	0.0344362
2594	0.0195346
2595.37	0.185407
2596.73	0.0928435
2598.1	-0.106275
2599.46	0.23876
2600.83	0.0244026
2602.19	0.173197
2603.55	-0.0700011
2604.92	-0.0106869
2606.28	0.38063
2607.64	0.288831
2609.01	0.271661
2610.37	-0.0177646
2611.73	0.143494
2613.09	0.0477519
2614.46	0.342003
2615.82	0.320275
2617.18	-0.0309834
2618.54	-0.0215712
2619.9	0.168101
2621.26	0.253507
2622.62	-0.153798
2623.98	-0.0825043
2625.34	0.0632539
2626.7	-0.283518
2628.06	0.100057
2629.42	0.542329
2630.78	0.314192
2632.14	-0.136688
2633.5	-0.0967102
2634.86	-0.0865078
2636.21	-0.0170312
2637.57	0.0671334
2638.93	-0.130114
2640.29	0.146523
2641.64	0.289922
2643	0.507244
2644.36	0.104388
2645.71	0.0265718
2647.07	-0.0515013
2648.43	0.0319319
2649.78	0.143887
2651.14	0.0785556
2652.49	0.20397
2653.85	0.285315
2655.2	0.24995
2656.56	0.0106454
2657.91	-0.0516033
2659.26	-0.0105481
2660.62	0.250173
2661.97	0.408204
2663.32	0.0980968
2664.68	-0.256184
2666.03	0.249882
2667.38	0.0405912
2668.74	0.545056
2670.09	0.394231
2671.44	0.0405779
2672.79	0.399978
2674.14	0.0189276
2675.49	0.016201
2676.84	-0.0875564
2678.19	0.15745
2679.54	0.316096
2680.89	0.388694
2682.24	-0.0884976
2683.59	0.189353
2684.94	0.366708
2686.29	0.181886
2687.64	0.345152
2688.99	0.231538
2690.34	0.319547
2691.69	0.521883
2693.03	0.272827
2694.38	0.269565
2695.73	0.237133
2697.08	0.466046
2698.42	0.276079
2699.77	0.189154
2701.12	-0.185741
2702.46	0.46901
2703.81	0.0963984
2705.15	0.0863857
2706.5	0.192457
2707.85	0.646636
2709.19	-0.191193
2710.54	0.247919
2711.88	0.904973
2713.22	0.225423
2714.57	0.214033
2715.91	0.34797
2717.26	-0.0708318
2718.6	0.0481791
2719.94	0.210554
2721.29	0.50354
2722.63	0.475917
2723.97	0.316822
2725.31	0.623076
2726.66	0.288516
2728	0.390304
2729.34	0.215341
2730.68	0.520441
2732.02	0.243483
2733.36	0.403078
2734.7	0.199164
2736.04	0.329997
2737.38	0.359137
2738.72	-0.309818
2740.06	0.0826588
2741.4	0.445531
2742.74	0.313388
2744.08	0.311433
2745.42	0.105492
2746.76	0.40755
2748.09	0.30274
2749.43	0.22707
2750.77	0.108139
2752.11	0.221497
2753.45	0.320502
2754.78	0.434093
2756.12	-0.0316081
2757.46	0.545644
2758.79	-0.151052
2760.13	-0.0510669
2761.46	0.367689
2762.8	-0.110315
2764.14	-0.0381422
2765.47	-0.385569
2766.8	0.0189424
2768.14	0.147659
2769.47	-0.491228
2770.81	-0.0469742
2772.14	-0.00888824
2773.48	0.0714636
2774.81	-0.00743103
2776.14	0.129826
2777.48	0.0944686
2778.81	0.419202
2780.14	0.140412
2781.47	-0.13769
2782.8	0.330921
2784.14	0.0100555
2785.47	0.305876
2786.8	-8.10623e-005
2788.13	-0.119115
2789.46	-0.0513115
2790.79	0.174587
2792.12	0.000726223
2793.45	0.22765
2794.78	0.240139
2796.11	0.295166
2797.44	0.00682402
2798.77	-0.110504
2800.1	0.38556
2801.43	-0.0320673
2802.76	-0.135796
2804.09	0.41587
2805.41	0.382558
2806.74	-0.249104
2808.07	-0.112444
2809.4	-0.402739
2810.72	0.202094
2812.05	0.153815
2813.38	0.291047
2814.71	0.231057
2816.03	-0.167704
2817.36	-0.125944
2818.68	0.143134
2820.01	-0.537404
2821.33	0.383242
2822.66	0.098536
2823.98	0.479231
2825.31	0.476964
2826.63	0.375606
2827.96	0.501322
2829.28	0.457672
2830.6	0.640982
2831.93	0.555539
2833.25	0.526666
2834.57	0.313491
2835.9	0.680129
2837.22	0.522596
2838.54	0.7325
2839.86	1.14007
2841.18	1.56167
2842.5	1.67253
2843.83	1.76991
2845.15	2.60292
2846.47	1.88203
2847.79	2.63135
2849.11	2.6882
2850.43	3.15463
2851.75	2.70178
2853.07	2.3756
2854.39	2.75561
2855.71	2.69732
2857.03	3.14758
2858.35	3.14579
2859.66	3.17222
2860.98	3.07138
2862.3	3.46432
2863.62	3.37678
2864.94	3.33133
2866.25	3.58211
2867.57	3.52277
2868.89	3.92925
2870.2	3.78626
2871.52	4.12275
2872.84	4.00785
2874.15	4.20214
2875.47	4.18383
2876.78	4.44586
2878.1	4.66446
2879.41	4.53089
2880.73	4.52433
2882.04	4.60302
2883.36	4.1913
2884.67	4.62339
2885.99	4.39619
2887.3	4.43586
2888.61	4.57323
2889.93	5.06031
2891.24	4.22801
2892.55	4.68513
2893.86	4.6233
2895.18	4.786
2896.49	5.00547
2897.8	4.82023
2899.11	5.05599
2900.42	5.01283
2901.73	5.34792
2903.05	4.56419
2904.36	5.15145
2905.67	5.30539
2906.98	5.18023
2908.29	5.48964
2909.6	5.8141
2910.91	5.92945
2912.21	5.6529
2913.52	5.97741
2914.83	6.06235
2916.14	6.25729
2917.45	6.59026
2918.76	6.29227
2920.07	6.88939
2921.37	6.55013
2922.68	6.70175
2923.99	7.0926
2925.29	7.27512
2926.6	7.06701
2927.91	6.76108
2929.22	6.90206
2930.52	7.40589
2931.83	7.39188
2933.13	7.23778
2934.44	6.94391
2935.74	7.29311
2937.05	7.41886
2938.35	7.18151
2939.66	6.39953
2940.96	6.79193
2942.26	6.76613
2943.57	5.94505
2944.87	5.97792
2946.18	5.91424
2947.48	6.08906
2948.78	5.77388
2950.08	4.96721
2951.39	4.99851
2952.69	5.47589
2953.99	4.73358
2955.29	5.09695
2956.59	5.22321
2957.9	4.93177
2959.2	4.32113
2960.5	4.34327
2961.8	4.66199
2963.1	4.19641
2964.4	4.03846
2965.7	4.27221
2967	4.23743
2968.3	3.93411
2969.6	3.85481
2970.9	3.52218
2972.19	3.51328
2973.49	3.49067
2974.79	3.10207
2976.09	3.67009
2977.39	3.36393
2978.68	3.52065
2979.98	3.33764
2981.28	2.61865
2982.58	2.94049
2983.87	2.13766
2985.17	2.67166
2986.47	2.44814
2987.76	1.84676
2989.06	2.25814
2990.35	2.34665
2991.65	2.13955
2992.94	1.87522
2994.24	2.07339
2995.53	1.45564
2996.83	1.30098
2998.12	1.01996
2999.42	1.31454
3000.71	0.866266
3002	0.951518
3003.3	1.17726
3004.59	0.954736
3005.88	0.143956
3007.18	0.523109
3008.47	0.901171
3009.76	0.564858
3011.05	0.535702
3012.34	0.11528
3013.64	0.407004
3014.93	0.461705
3016.22	0.433423
3017.51	0.252764
3018.8	0.0589099
3020.09	0.0600691
3021.38	0.311042
3022.67	0.185923
3023.96	0.434797
3025.25	0.0309143
3026.54	0.126235
3027.83	0.0696182
3029.12	0.373618
3030.41	0.250308
3031.69	-0.0647774
3032.98	0.0493636
3034.27	-0.126047
3035.56	-0.081037
3036.84	0.210962
3038.13	0.459597
3039.42	-0.105959
3040.71	-0.0393648
3041.99	0.136043
3043.28	-0.19619
3044.57	0.102919
3045.85	0.197773
3047.14	0.00763941
3048.42	0.0657372
3049.71	0.412401
3050.99	-0.181107
3052.28	0.0177388
3053.56	0.421289
3054.85	0.333056
3056.13	0.325752
3057.41	0.0857129
3058.7	0.553676
3059.98	0.135835
3061.26	-0.0906243
3062.55	-0.152719
3063.83	0.316787
3065.11	0.325365
3066.39	0.240146
3067.68	0.074327
3068.96	0.208064
3070.24	0.0968504
3071.52	0.0664892
3072.8	0.415833
3074.08	0.532744
3075.36	-0.0442638
3076.65	0.180289
3077.93	-0.056468
3079.21	0.345704
3080.49	0.125121
3081.77	0.421556
3083.04	-0.243927
3084.32	0.0951762
3085.6	0.135977
3086.88	-0.285069
3088.16	-0.0416327
3089.44	-0.165226
3090.72	0.199363
3091.99	-0.101029
3093.27	0.290649
3094.55	0.167196
3095.83	-0.132149
3097.1	-0.119448
3098.38	-0.0254145
3099.66	-0.0263281
3100.93	0.135301
3102.21	0.0802894
3103.49	0.133934
3104.76	-0.204434
3106.04	-0.596087
3107.31	0.258186
3108.59	0.00376034
3109.86	0.142853
3111.14	0.364232
3112.41	-0.050066
3113.69	-0.0306058
3114.96	0.0838089
3116.23	0.374272
3117.51	0.501391
3118.78	0.383429
3120.05	0.495051
3121.33	-0.0449419
3122.6	0.0383883
3123.87	0.202811
3125.14	0.191338
3126.41	0.681129
3127.69	0.792345
3128.96	0.417184
3130.23	0.21843
3131.5	0.249794
3132.77	0.429739
3134.04	0.285139
3135.31	0.585763
3136.58	0.440408
3137.85	0.577975
3139.12	0.203186
3140.39	0.649963
3141.66	0.491004
3142.93	0.816391
3144.2	0.779293
3145.47	0.192945
3146.74	0.492936
3148	0.980772
3149.27	0.491312
