200.563	0.140143
202.377	0.146392
204.194	0.153879
206.008	0.819185
207.821	0.512016
209.634	0.593636
211.449	0.407167
213.262	0.462574
215.074	-0.113521
216.885	0.546961
218.699	0.213877
220.51	0.947
222.321	0.084034
224.131	0.45608
225.941	0.34526
227.751	0.428061
229.562	-0.31031
231.371	0.303188
233.18	0.0958729
234.988	0.516273
236.796	-0.243223
238.603	0.301355
240.411	0.462994
242.219	0.53077
244.026	0.575984
245.832	0.21101
247.638	0.616936
249.443	0.127022
251.248	-0.293349
253.053	0.65972
254.857	0.163083
256.661	0.486494
258.465	0.232309
260.268	-0.0920963
262.071	-0.462509
263.874	-0.277096
265.678	0.343266
267.48	0.410024
269.282	-0.294762
271.083	0.0121727
272.884	0.173508
274.684	-0.269159
276.484	-0.086422
278.284	0.215034
280.084	0.442091
281.883	0.594718
283.682	0.456755
285.48	-0.0186062
287.276	0.394341
289.074	0.399054
290.871	-0.146231
292.668	0.22035
294.465	0.0619068
296.261	0.168222
298.057	0.156148
299.853	0.407499
301.648	-0.0101519
303.443	0.717741
305.237	-0.202769
307.032	0.570272
308.823	0.055171
310.617	0.994647
312.41	0.196175
314.203	-0.171439
315.995	0.93926
317.788	0.075491
319.579	-0.239144
321.369	0.638907
323.16	0.588716
324.951	0.324251
326.741	0.250681
328.531	0.368003
330.321	0.341417
332.108	0.265803
333.897	0.451672
335.686	0.75515
337.474	1.34346
339.26	1.02028
341.048	0.193551
342.835	0.944403
344.622	-0.0495176
346.406	0.343216
348.192	0.402218
349.978	1.1302
351.764	0.640731
353.547	0.46113
355.332	0.519144
357.116	-0.187157
358.901	0.392793
360.682	0.399392
362.466	0.000593185
364.249	-0.0891838
366.03	0.533196
367.812	0.0619678
369.594	-0.314324
371.374	0.659386
373.155	0.32911
374.936	-0.118874
376.715	-0.400476
378.495	-0.138587
380.273	-0.370952
382.053	0.716309
383.832	-0.0782614
385.609	0.210795
387.388	0.0544109
389.164	0.322111
390.942	0.33239
392.72	0.413996
394.495	0.449282
396.272	0.485003
398.047	0.262495
399.823	0.673993
401.597	0.145555
403.372	0.485565
405.145	0.566444
406.92	-0.151803
408.693	-0.212995
410.467	-0.0162296
412.239	0.0397186
414.012	0.213442
415.783	0.0593901
417.556	0.23468
419.327	0.246379
421.099	-0.164119
422.869	0.0353374
424.64	-0.470117
426.409	0.385156
428.18	0.652695
429.948	0.990137
431.718	-0.221493
433.486	-0.188764
435.253	0.360637
437.022	-0.286923
438.789	-0.0198727
440.558	0.15183
442.324	0.157246
444.089	0.230853
445.857	1.07553
447.622	0.162326
449.386	-0.0482073
451.153	-0.0713491
452.917	-0.327544
454.682	0.16326
456.446	0.443524
458.208	-0.231552
459.973	0.816445
461.735	0.23597
463.497	0.308551
465.259	0.151159
467.022	0.345181
468.783	0.053813
470.544	-0.724422
472.306	0.0328188
474.066	0.324474
475.825	-0.200583
477.585	0.227137
479.346	0.862776
481.104	0.63555
482.862	0.292119
484.62	0.765094
486.38	0.518037
488.137	0.342854
489.894	0.426063
491.65	-0.00314808
493.407	0.525513
495.164	0.751312
496.92	0.485802
498.675	-0.0148296
500.43	0.491628
502.184	0.294127
503.939	0.847075
505.694	0.906003
507.448	0.775391
509.201	0.619542
510.954	0.861971
512.706	0.396877
514.459	0.189123
516.21	1.55622
517.962	0.240364
519.715	1.15764
521.466	1.27446
523.216	0.146058
524.966	0.497278
526.716	0.519691
528.466	0.588991
530.215	0.775263
531.964	0.656423
533.712	0.630507
535.46	0.275979
537.208	0.247793
538.955	0.3817
540.703	0.37425
542.449	0.342746
544.196	0.520313
545.942	0.534786
547.688	0.340547
549.433	0.703317
551.178	-0.161691
552.923	0.339985
554.667	0.794561
556.412	0.417558
558.155	0.964032
559.899	-0.148709
561.642	0.628517
563.385	-0.204967
565.127	0.250436
566.867	0.591007
568.609	-0.00925827
570.35	0.264066
572.092	-0.539688
573.832	0.30993
575.573	0.335393
577.313	-0.211197
579.053	0.804095
580.79	0.00655937
582.529	0.449199
584.268	0.247955
586.006	0.206511
587.745	0.232817
589.482	0.580046
591.218	-0.131969
592.955	0.0528021
594.692	0.697561
596.428	0.237999
598.164	0.514607
599.898	0.00861073
601.634	0.375989
603.369	-0.0169563
605.104	0.232628
606.836	-0.0707159
608.57	-0.0529976
610.304	0.44652
612.037	0.166093
613.769	0.276455
615.501	-0.27728
617.234	-0.0286379
618.966	-0.0555248
620.696	-0.152098
622.427	0.162017
624.159	-0.325156
625.887	0.353354
627.618	0.255857
629.348	0.776529
631.076	0.865795
632.806	0.4779
634.535	0.547359
636.262	0.479471
637.99	1.02614
639.716	0.748258
641.444	0.467607
643.172	0.982552
644.897	0.402561
646.624	0.711083
648.348	0.680112
650.075	0.516003
651.801	0.742016
653.524	0.49465
655.249	-0.25027
656.972	0.5995
658.697	0.426074
660.419	1.05046
662.143	0.235478
663.865	0.0569315
665.588	0.859032
667.309	0.83646
669.032	0.401477
670.752	-0.307405
672.474	1.13629
674.194	0.660296
675.915	0.231456
677.634	0.743673
679.355	0.866538
681.073	0.620745
682.793	0.418771
684.511	0.536752
686.23	1.04437
687.947	1.34337
689.664	0.604766
691.382	0.648539
693.098	0.369196
694.816	0.457651
696.531	0.476029
698.247	0.976647
699.963	0.762304
701.678	0.225075
703.392	0.882662
705.108	0.367375
706.821	0.380161
708.534	0.484238
710.249	0.519011
711.962	0.484699
713.674	0.267161
715.388	0.940987
717.099	0.83732
718.81	1.09888
720.523	0.813151
722.234	1.00625
723.944	0.994289
725.654	1.36864
727.365	0.447448
729.075	0.639359
730.784	0.785125
732.492	1.36051
734.202	0.984332
735.91	1.10619
737.618	1.22818
739.325	1.14758
741.034	0.932831
742.741	0.494328
744.447	0.260228
746.153	0.995255
747.859	0.898727
749.564	1.38833
751.271	0.394649
752.976	0.774223
754.681	1.04271
756.385	1.04271
758.088	2.21506
759.792	1.54272
761.495	0.780383
763.2	1.0102
764.902	0.449715
766.604	1.42387
768.306	1.0409
770.008	1.58263
771.709	1.30843
773.41	1.75646
775.11	1.68394
776.811	1.99637
778.51	2.40062
780.21	2.53518
781.909	1.8565
783.608	1.20009
785.307	1.42501
787.005	2.14564
788.703	2.02545
790.401	1.42701
792.098	1.50477
793.795	1.40023
795.492	2.24302
797.188	2.319
798.884	1.54084
800.58	2.13839
802.276	1.79188
803.971	1.17642
805.665	2.20226
807.36	2.03547
809.054	1.44098
810.748	1.94564
812.441	1.88807
814.135	1.94204
815.826	1.50319
817.518	2.45174
819.21	2.4378
820.902	2.15611
822.594	2.36613
824.285	1.30583
825.976	1.91948
827.665	1.28739
829.355	2.23944
831.045	1.65779
832.735	2.05898
834.424	2.2174
836.111	1.77474
837.8	1.68838
839.488	1.46676
841.177	1.89119
842.864	1.48786
844.55	1.64259
846.237	1.37341
847.924	1.53065
849.61	1.22059
851.295	1.56183
852.98	1.21066
854.666	2.13868
856.349	1.36117
858.034	2.08751
859.719	1.39567
861.403	1.48917
863.085	1.42346
864.769	1.44661
866.452	1.60412
868.133	1.10715
869.816	1.89509
871.498	1.41976
873.179	0.537984
874.86	2.09279
876.54	0.872284
878.221	1.41192
879.902	1.61298
881.58	1.79112
883.26	1.517
884.938	0.99348
886.618	0.829861
888.297	1.58985
889.974	1.37796
891.653	1.20989
893.329	1.08581
895.007	1.11828
896.683	1.64418
898.36	1.80871
900.035	0.917739
901.712	0.812146
903.387	0.907684
905.063	0.622898
906.737	1.29878
908.412	1.26028
910.085	0.799661
911.76	1.11942
913.433	0.83917
915.107	1.40346
916.779	1.14601
918.452	1.33217
920.124	1.20816
921.797	1.12917
923.467	1.55982
925.138	0.93124
926.81	1.16618
928.48	1.27014
930.151	0.845634
931.82	0.995562
933.489	1.03538
935.16	1.40621
936.828	1.31425
938.496	1.3114
940.165	0.648062
941.833	0.823973
943.5	0.713764
945.168	1.17718
946.834	0.20476
948.5	0.532929
950.168	1.07994
951.834	0.743042
953.499	1.24455
955.163	0.468488
956.83	1.39311
958.494	0.909538
960.158	0.450226
961.821	0.786889
963.487	0.59332
965.15	0.220909
966.812	1.19534
968.474	0.950427
970.138	1.43359
971.8	0.721383
973.461	1.09355
975.123	0.64889
976.783	0.161685
978.446	0.582638
980.106	0.705668
981.766	0.828345
983.425	1.09363
985.084	1.44555
986.743	1.26408
988.402	0.903962
990.06	1.42744
991.72	0.60167
993.378	1.19023
995.035	0.608315
996.692	0.446335
998.349	0.879807
1000.01	0.541314
1001.66	1.12774
1003.32	1.03078
1004.97	0.889657
1006.63	-0.372043
1008.28	0.45423
1009.94	0.774961
1011.59	0.437826
1013.25	-0.0518589
1014.9	0.401205
1016.55	0.65713
1018.21	0.585093
1019.86	1.03879
1021.51	0.574939
1023.16	1.05229
1024.81	0.131724
1026.47	0.807105
1028.12	0.630198
1029.77	0.867782
1031.42	0.994842
1033.07	0.79278
1034.72	0.851124
1036.37	0.951669
1038.02	0.702752
1039.67	0.845974
1041.31	1.09842
1042.96	1.41705
1044.61	1.38953
1046.26	0.516954
1047.91	1.10159
1049.55	0.558475
1051.2	1.23282
1052.84	1.08264
1054.49	0.824098
1056.14	0.934922
1057.78	0.784631
1059.43	1.5035
1061.07	0.656279
1062.72	1.35209
1064.36	0.568376
1066	0.566465
1067.65	0.97645
1069.29	1.25486
1070.93	0.533489
1072.58	0.615773
1074.22	0.264545
1075.86	1.06415
1077.5	0.411695
1079.14	0.172598
1080.78	0.541367
1082.42	0.801657
1084.06	1.0827
1085.7	0.906787
1087.34	0.317324
1088.98	0.852491
1090.62	0.627975
1092.26	0.964706
1093.9	0.97643
1095.54	0.621604
1097.17	0.807114
1098.81	0.605995
1100.45	0.837377
1102.09	0.726136
1103.72	1.06846
1105.36	0.444022
1106.99	0.121343
1108.63	0.680118
1110.27	0.205614
1111.9	0.697062
1113.53	0.692444
1115.17	0.235853
1116.8	0.25128
1118.43	0.931366
1120.07	0.647216
1121.7	0.557092
1123.33	0.361071
1124.97	0.701004
1126.6	1.21268
1128.23	0.698478
1129.86	0.612771
1131.49	0.292472
1133.12	0.549686
1134.75	0.186825
1136.38	0.101283
1138.01	0.570333
1139.64	-0.28631
1141.27	0.607487
1142.9	0.262356
1144.53	0.30162
1146.16	0.703934
1147.78	0.0626717
1149.41	-0.00216866
1151.04	-0.130445
1152.67	0.124637
1154.29	0.251524
1155.92	0.399254
1157.54	0.482965
1159.17	0.567005
1160.8	0.0564499
1162.42	-0.155226
1164.05	-0.0470438
1165.67	0.104101
1167.29	-0.382878
1168.92	0.341025
1170.54	0.531685
1172.16	-0.0869303
1173.79	-0.00586605
1175.41	-0.116955
1177.03	0.238047
1178.65	1.27051
1180.28	-0.195405
1181.9	0.0548306
1183.52	0.0305414
1185.14	-0.479689
1186.76	0.150052
1188.38	0.418662
1190	0.28446
1191.62	0.190851
1193.24	0.537586
1194.86	0.504742
1196.47	-0.052022
1198.09	0.35668
1199.71	0.368747
1201.33	-0.181053
1202.95	0.191098
1204.56	0.04352
1206.18	0.0648994
1207.8	0.08745
1209.41	-0.181829
1211.03	-0.222375
1212.64	-0.285285
1214.26	0.274991
1215.87	-0.146116
1217.49	0.263944
1219.1	0.547612
1220.71	0.228661
1222.33	0.263558
1223.94	0.361741
1225.55	0.647536
1227.16	0.375742
1228.78	1.09831
1230.39	0.767116
1232	0.333933
1233.61	0.687428
1235.22	0.60805
1236.83	0.0750818
1238.44	0.824646
1240.05	0.623946
1241.66	0.671515
1243.27	0.615329
1244.88	0.248002
1246.49	0.33492
1248.1	0.648535
1249.71	0.568296
1251.32	0.715377
1252.92	0.59376
1254.53	0.596968
1256.14	0.290944
1257.74	1.22726
1259.35	0.447583
1260.96	0.703249
1262.56	0.980256
1264.17	0.946734
1265.77	0.498324
1267.38	0.5879
1268.98	0.801023
1270.59	0.598538
1272.19	0.664598
1273.79	0.771148
1275.4	1.20837
1277	-0.0754309
1278.6	0.422311
1280.21	0.732761
1281.81	0.421803
1283.41	0.835287
1285.01	0.773357
1286.61	1.47722
1288.21	1.33437
1289.81	1.81244
1291.41	1.25774
1293.01	1.36419
1294.61	1.30458
1296.21	1.34697
1297.81	1.63543
1299.41	1.61245
1301.01	1.31999
1302.6	1.6447
1304.2	1.20648
1305.8	1.11791
1307.4	1.1933
1308.99	1.10415
1310.59	1.60948
1312.19	1.43863
1313.78	1.24845
1315.38	1.38652
1316.97	1.36197
1318.57	1.68481
1320.16	0.946968
1321.76	1.18708
1323.35	1.52699
1324.94	1.66117
1326.54	0.981713
1328.13	1.459
1329.72	1.16634
1331.32	0.795077
1332.91	1.37628
1334.5	1.13097
1336.09	1.02876
1337.68	1.12881
1339.27	0.845109
1340.87	1.08384
1342.45	0.314041
1344.04	1.0716
1345.64	1.38473
1347.22	1.27632
1348.81	1.0697
1350.4	1.06597
1351.99	1.42471
1353.58	0.845455
1355.17	0.8674
1356.75	0.989557
1358.34	0.731678
1359.93	1.11206
1361.51	0.772588
1363.1	0.931377
1364.69	0.990006
1366.27	0.590592
1367.86	1.04865
1369.44	0.890408
1371.03	0.2958
1372.61	0.458781
1374.2	1.12019
1375.78	1.08579
1377.37	1.29024
1378.95	0.439536
1380.53	1.15984
1382.11	0.744772
1383.7	0.686666
1385.28	0.548202
1386.86	0.548536
1388.44	0.906468
1390.02	0.927301
1391.6	0.849764
1393.19	1.24911
1394.77	0.894954
1396.35	0.243338
1397.93	0.721304
1399.51	0.900775
1401.08	0.702909
1402.66	1.39543
1404.24	0.90024
1405.82	0.920171
1407.4	0.782788
1408.97	0.448724
1410.55	0.826388
1412.13	0.828587
1413.71	0.790729
1415.28	1.54125
1416.86	1.30422
1418.43	0.810888
1420.01	1.36245
1421.59	0.831624
1423.16	1.14909
1424.73	1.13342
1426.31	0.981161
1427.88	1.08525
1429.46	1.68113
1431.03	1.42973
1432.6	2.2005
1434.18	1.63221
1435.75	2.20447
1437.32	1.73462
1438.89	2.20926
1440.46	2.90099
1442.04	2.78788
1443.61	2.24317
1445.18	2.05258
1446.75	2.58942
1448.32	2.32054
1449.89	2.24853
1451.46	2.9635
1453.03	2.20431
1454.6	2.44839
1456.16	2.0432
1457.73	2.66048
1459.3	1.80047
1460.87	1.92267
1462.44	2.04294
1464	1.70917
1465.57	2.29839
1467.14	1.21698
1468.7	1.04022
1470.27	0.727109
1471.83	1.39613
1473.4	1.1244
1474.96	0.931949
1476.53	0.896781
1478.09	1.05775
1479.66	0.728576
1481.22	1.12456
1482.78	1.14802
1484.35	1.2497
1485.91	0.861238
1487.47	0.765962
1489.04	0.88483
1490.6	0.767028
1492.16	1.05788
1493.72	0.467254
1495.28	0.129898
1496.84	0.669166
1498.4	0.467484
1499.96	0.189113
1501.52	0.378225
1503.08	0.509828
1504.64	0.196354
1506.2	0.657917
1507.76	0.189804
1509.32	0.494378
1510.88	0.777915
1512.44	-0.192582
1513.99	0.26321
1515.55	0.199062
1517.11	0.385186
1518.66	0.188077
1520.22	0.279252
1521.78	0.0259848
1523.33	0.231651
1524.89	-0.0602083
1526.44	0.0290766
1528	0.269632
1529.55	-0.137366
1531.11	0.254172
1532.66	0.3607
1534.21	0.0701342
1535.77	0.0837908
1537.32	0.665026
1538.87	0.169883
1540.43	0.0908575
1541.98	0.7467
1543.53	0.55433
1545.08	0.0237465
1546.63	0.301619
1548.18	0.785156
1549.74	0.499231
1551.29	0.382584
1552.84	0.491104
1554.39	0.45078
1555.94	0.934701
1557.48	0.635745
1559.03	0.469464
1560.58	1.51756
1562.13	0.365745
1563.68	0.0730133
1565.23	0.396436
1566.78	0.906623
1568.32	0.446177
1569.87	0.395931
1571.42	0.868006
1572.96	0.555832
1574.51	0.635532
1576.05	1.01394
1577.6	0.701831
1579.14	0.81947
1580.69	0.732308
1582.24	0.5898
1583.78	0.933685
1585.32	1.12896
1586.87	0.576954
1588.41	0.361266
1589.95	1.15567
1591.5	0.770935
1593.04	1.39667
1594.58	0.879947
1596.12	0.718953
1597.67	0.764409
1599.21	1.16675
1600.75	0.594592
1602.29	0.735481
1603.83	1.0267
1605.37	1.18601
1606.91	0.667581
1608.45	0.57946
1609.99	1.25986
1611.53	0.697783
1613.07	0.772904
1614.6	1.97283
1616.14	0.976521
1617.68	0.994073
1619.22	0.338264
1620.75	1.23869
1622.29	0.979
1623.83	1.16943
1625.37	0.667205
1626.9	1.39959
1628.44	0.970417
1629.97	1.30698
1631.51	0.838614
1633.04	0.538558
1634.58	1.26579
1636.11	1.28404
1637.65	0.818252
1639.18	0.688921
1640.72	1.30513
1642.25	0.877047
1643.78	1.10002
1645.31	1.2658
1646.85	1.04003
1648.38	1.79909
1649.91	1.49914
1651.44	2.14688
1652.97	1.84928
1654.5	1.88674
1656.03	1.0166
1657.56	0.795393
1659.1	1.3515
1660.62	1.12839
1662.15	1.16319
1663.68	1.10447
1665.21	0.786788
1666.74	1.9094
1668.27	1.75898
1669.8	1.3153
1671.32	1.26033
1672.85	1.31692
1674.38	0.674111
1675.91	1.13598
1677.43	1.5968
1678.96	0.602954
1680.49	0.98806
1682.01	1.13317
1683.54	0.580054
1685.06	0.578219
1686.59	0.631712
1688.11	0.777174
1689.64	0.574776
1691.16	0.647423
1692.68	0.976248
1694.21	0.755952
1695.73	0.426026
1697.25	0.443364
1698.78	0.186462
1700.3	0.458706
1701.82	0.383622
1703.34	0.599698
1704.86	0.541803
1706.39	0.447195
1707.91	0.443387
1709.43	0.167073
1710.95	0.0727701
1712.47	0.0875635
1713.99	-0.0787067
1715.51	0.352696
1717.02	-0.157198
1718.54	0.11071
1720.06	0.468388
1721.58	0.266335
1723.1	0.299463
1724.62	0.49558
1726.13	-0.279707
1727.65	-0.00921631
1729.17	-0.169972
1730.68	0.297408
1732.2	-0.148458
1733.72	0.329109
1735.23	0.348544
1736.75	0.115527
1738.26	-0.207717
1739.78	0.149631
1741.29	0.354683
1742.81	-0.125002
1744.32	-0.242836
1745.84	0.149633
1747.35	-0.0283546
1748.86	0.113363
1750.37	0.125896
1751.89	-0.043983
1753.4	0.254397
1754.91	0.166718
1756.42	-0.00682259
1757.93	0.252252
1759.45	-0.0529742
1760.96	0.0629559
1762.47	0.181712
1763.98	-0.226469
1765.49	0.223093
1767	0.216249
1768.51	0.221727
1770.02	-0.241117
1771.53	-0.140719
1773.03	-0.088306
1774.54	-0.207775
1776.05	0.231348
1777.56	-0.0920124
1779.07	0.196208
1780.57	-0.0413713
1782.08	0.135988
1783.59	0.135676
1785.09	-0.0510588
1786.6	0.0106955
1788.11	0.094955
1789.61	0.297597
1791.12	0.172982
1792.62	0.182487
1794.13	0.215105
1795.63	0.0361505
1797.13	-0.204288
1798.64	-0.0534267
1800.14	0.158067
1801.65	0.137974
1803.15	-0.138418
1804.65	0.168091
1806.15	-0.00888538
1807.66	0.199627
1809.16	0.0788722
1810.66	0.0445285
1812.16	0.164119
1813.66	0.0263901
1815.16	-0.207043
1816.66	0.0840101
1818.16	0.228976
1819.66	0.0207353
1821.16	-0.32665
1822.66	0.0720448
1824.16	0.48397
1825.66	-0.078567
1827.16	0.103018
1828.66	0.14376
1830.16	-0.579216
1831.65	-0.0464425
1833.15	-0.218008
1834.65	-0.100976
1836.14	0.202425
1837.64	-0.0537539
1839.14	-0.0754318
1840.63	0.107055
1842.13	-0.0183606
1843.62	-0.137838
1845.12	0.240414
1846.61	0.125887
1848.11	0.25665
1849.6	0.176404
1851.1	0.282519
1852.59	0.393594
1854.08	-0.220154
1855.58	0.283738
1857.07	0.0637703
1858.56	0.138381
1860.05	0.0521402
1861.55	0.159263
1863.04	0.43163
1864.53	-0.301489
1866.02	0.131721
1867.51	0.0595412
1869	-0.0386739
1870.49	0.0884929
1871.98	-0.19513
1873.47	0.195964
1874.96	0.0602579
1876.45	0.0262861
1877.94	-0.00461388
1879.43	0.137837
1880.92	0.35021
1882.41	0.0300097
1882.51	0.00494719
1884	0.475298
1885.5	0.16046
1886.99	0.0715866
1888.48	-0.104665
1889.98	-0.00221109
1891.47	0.0661564
1892.96	0.205345
1894.46	0.050468
1895.95	0.209839
1897.44	0.352585
1898.93	-0.130928
1900.42	-0.128286
1901.91	-0.14435
1903.41	0.0468526
1904.9	-0.0588031
1906.39	-0.251889
1907.88	0.145609
1909.37	0.126639
1910.86	0.0737557
1912.35	0.0910363
1913.83	0.282214
1915.32	0.230635
1916.81	0.24814
1918.3	0.0745225
1919.79	-0.168677
1921.27	-0.0134225
1922.76	0.0208473
1924.25	-0.0480628
1925.74	0.160946
1927.22	-0.287024
1928.71	-0.0592985
1930.19	0.46284
1931.68	-0.0892968
1933.17	-0.053843
1934.65	0.343658
1936.14	-0.16026
1937.62	-0.12858
1939.11	0.0408988
1940.59	-0.134963
1942.07	0.156019
1943.56	0.0680861
1945.04	0.0154238
1946.52	0.169974
1948.01	0.324236
1949.49	0.0815449
1950.97	0.251475
1952.45	-0.181824
1953.93	-0.081975
1955.42	0.0863948
1956.9	0.15182
1958.38	0.0632663
1959.86	0.112643
1961.34	0.0252519
1962.82	0.0752192
1964.3	0.244923
1965.78	-0.0996938
1967.26	0.240097
1968.74	0.373671
1970.21	0.540747
1971.69	0.00704575
1973.17	0.0202394
1974.65	-0.0347357
1976.13	-0.0894895
1977.6	0.418039
1979.08	0.176035
1980.56	0.00236607
1982.03	0.253749
1983.51	-0.089993
1984.99	-0.212852
1986.46	0.105239
1987.94	0.168612
1989.41	-0.106545
1990.89	0.0253706
1992.36	0.0225821
1993.84	-0.148443
1995.31	0.407996
1996.78	0.0690579
1998.26	0.118742
1999.73	0.252446
2001.2	0.166158
2002.68	0.23133
2004.15	-0.125136
2005.62	0.260409
2007.09	0.191468
2008.56	-0.045032
2010.04	0.274853
2011.51	0.426748
2012.98	0.444003
2014.45	0.157981
2015.92	0.376163
2017.39	-0.264289
2018.86	-0.0979691
2020.33	0.0509429
2021.8	-0.169877
2023.26	-0.339864
2024.73	0.0613713
2026.2	0.161369
2027.67	0.212197
2029.14	0.16363
2030.61	-0.320025
2032.07	0.505774
2033.54	-0.0272326
2035.01	0.295832
2036.47	0.198828
2037.94	0.286157
2039.4	0.423609
2040.87	-0.178582
2042.33	0.194476
2043.8	0.38335
2045.27	0.0178337
2046.73	0.0903177
2048.19	0.247359
2049.66	0.10093
2051.12	0.223322
2052.59	-0.195162
2054.05	-0.176688
2055.51	0.0764761
2056.97	0.412684
2058.44	0.596305
2059.9	-0.230991
2061.36	-0.04708
2062.82	-0.131965
2064.28	0.0532646
2065.74	0.323407
2067.21	0.156696
2068.67	-0.161029
2070.13	0.21158
2071.59	-0.324771
2073.05	0.19939
2074.51	0.235112
2075.96	0.236883
2077.42	0.272032
2078.88	0.323686
2080.34	0.139212
2081.8	0.122688
2083.26	0.0382948
2084.72	-0.113965
2086.17	0.389331
2087.63	0.118248
2089.09	0.0991597
2090.54	0.163908
2092	0.178161
2093.45	0.276225
2094.91	-0.0285158
2096.37	0.303587
2097.82	0.634706
2099.28	0.211687
2100.73	0.290736
2102.19	0.453385
2103.64	0.432808
2105.09	0.663679
2106.55	0.194846
2108	0.0107269
2109.45	0.24385
2110.91	0.409739
2112.36	0.291149
2113.81	0.854034
2115.26	0.0835648
2116.72	0.0783854
2118.17	0.0900683
2119.62	0.53434
2121.07	0.581529
2122.52	0.613742
2123.97	0.0833821
2125.42	0.664608
2126.87	0.482863
2128.32	0.41638
2129.77	0.613925
2131.22	0.644583
2132.67	0.343471
2134.11	0.12539
2135.56	0.602608
2137.01	0.369909
2138.46	0.585036
2139.91	0.289382
2141.35	0.474355
2142.8	0.726557
2144.25	0.549387
2145.7	0.322533
2147.14	0.707866
2148.59	0.761704
2150.03	0.334415
2151.48	-0.176676
2152.92	0.272433
2154.37	0.985975
2155.81	1.13573
2157.26	0.357877
2158.7	0.557991
2160.15	0.97456
2161.59	0.779648
2163.03	0.851403
2164.47	0.791814
2165.92	0.467223
2167.36	0.507609
2168.8	0.613712
2170.24	1.20081
2171.69	0.971318
2173.13	0.540478
2174.57	0.823803
2176.01	0.657526
2177.45	0.890522
2178.89	0.409188
2180.33	1.19222
2181.77	0.845456
2183.21	0.81507
2184.65	1.00114
2186.09	0.621714
2187.53	0.674791
2188.97	1.09406
2190.4	0.614604
2191.84	0.750757
2193.28	0.986239
2194.72	0.970863
2196.16	0.854081
2197.59	0.552681
2199.03	0.665884
2200.47	0.395915
2201.9	0.806912
2203.34	0.753319
2204.77	0.783614
2206.21	0.649021
2207.64	0.730361
2209.08	0.0828714
2210.51	0.72638
2211.95	0.524741
2213.38	0.306221
2214.82	0.236554
2216.25	0.431559
2217.68	0.478768
2219.12	0.510458
2220.55	0.345013
2221.98	0.163303
2223.41	0.195344
2224.85	0.0780745
2226.28	0.14062
2227.71	0.201757
2229.14	0.294596
2230.57	0.386602
2232	0.0849447
2233.43	0.357077
2234.86	0.089623
2236.29	0.738487
2237.72	-0.0163217
2239.15	0.340815
2240.58	0.11207
2242.01	0.765584
2243.44	0.115297
2244.87	-0.0290966
2246.29	-0.190304
2247.72	-0.0754213
2249.15	0.282267
2250.58	0.132759
2252.01	0.20995
2253.43	0.302581
2254.86	0.314039
2256.29	-0.0792308
2257.71	0.227549
2259.14	0.0172582
2260.56	-0.0771461
2261.99	0.138694
2263.41	-0.11497
2264.84	-0.141159
2266.26	0.271376
2267.69	0.146859
2269.11	0.281888
2270.53	0.0745034
2271.96	-0.0356975
2273.38	-0.0157952
2274.8	-0.0609794
2276.23	0.0895047
2277.65	0.3054
2279.07	0.179116
2280.49	0.215786
2281.91	0.0729609
2283.34	0.370499
2284.76	-0.0171714
2286.18	0.182758
2287.6	0.20349
2289.02	0.175591
2290.44	0.197021
2291.86	0.169657
2293.28	0.240504
2294.7	0.344118
2296.12	-0.0596695
2297.54	0.191177
2298.96	-0.0328131
2300.37	0.00538301
2301.79	-0.234919
2303.21	0.000533104
2304.63	-0.0262756
2306.04	-0.0203195
2307.46	-0.0310531
2308.88	0.319425
2310.3	0.159928
2311.71	0.54282
2313.13	0.415843
2314.54	0.0092988
2315.96	-0.248785
2317.37	0.0865884
2318.79	-0.154271
2320.2	0.000276566
2321.62	-0.192387
2323.03	0.125023
2324.45	0.341614
2325.86	-0.0706511
2327.27	0.241664
2328.69	0.404693
2330.1	0.320616
2331.51	0.171492
2332.92	0.385466
2334.34	-0.0416784
2335.75	0.0415473
2337.16	-0.155199
2338.57	-0.105958
2339.98	0.0245147
2341.39	0.0227194
2342.8	0.283094
2344.21	0.182295
2345.63	0.098237
2347.04	0.178313
2348.45	0.258322
2349.85	0.256135
2351.26	-0.351494
2352.67	-0.0769353
2354.08	-0.0809927
2355.49	0.0774207
2356.9	0.0886946
2358.3	0.0185881
2359.71	-0.262486
2361.12	-0.169587
2362.53	0.214946
2363.93	-0.195013
2365.34	-0.0702491
2366.75	0.0705614
2368.15	0.211564
2369.56	0.224086
2370.97	-0.213681
2372.37	-0.166548
2373.77	0.283894
2375.18	-0.456859
2376.59	-0.167533
2377.99	0.345798
2379.39	0.423348
2380.8	-0.0624619
2382.2	-0.0833716
2383.6	-0.0248618
2385.01	0.081305
2386.41	0.0676999
2387.81	0.054841
2389.21	0.066874
2390.62	0.159545
2392.02	-0.0335369
2393.42	-0.130118
2394.82	-0.0987134
2396.22	0.219381
2397.62	0.0609818
2399.02	-0.0015316
2400.42	0.222327
2401.82	0.0175118
2403.22	0.527453
2404.62	0.0365925
2406.02	-0.391205
2407.42	-0.0577679
2408.82	0.195463
2410.22	-0.0432205
2411.62	0.114588
2413.01	0.0670228
2414.41	0.242152
2415.81	0.465904
2417.21	-0.25913
2418.6	0.25144
2420	-0.0927162
2421.4	0.323249
2422.79	0.152891
2424.19	-0.0494213
2425.59	-0.0457368
2426.98	0.0217419
2428.38	0.0740824
2429.77	0.285802
2431.17	-0.0570731
2432.56	0.282476
2433.95	0.494862
2435.35	-0.0560713
2436.74	-0.0364041
2438.14	0.0456309
2439.53	0.269591
2440.92	0.175095
2442.31	0.159595
2443.71	-0.0306716
2445.1	-0.0623059
2446.49	0.159638
2447.88	0.127725
2449.27	0.143348
2450.67	-0.015028
2452.06	-0.188691
2453.45	0.0339265
2454.84	0.0989151
2456.23	-0.0886579
2457.62	-0.00704479
2459.01	0.374958
2460.4	0.187095
2461.79	-0.143636
2463.18	-0.111258
2464.57	-0.14255
2465.95	-0.031918
2467.34	-0.0161691
2468.73	0.0784173
2470.12	0.0308261
2471.5	-0.237746
2472.89	0.422906
2474.28	-0.177302
2475.67	0.44982
2477.05	0.179751
2478.44	0.255579
2479.82	0.347109
2481.21	0.0309615
2482.6	-0.0340576
2483.98	0.0572171
2485.37	-0.212069
2486.75	-0.0285954
2488.13	-0.220892
2489.52	-0.0548372
2490.9	0.281877
2492.29	0.0429935
2493.67	0.550826
2495.05	0.0504165
2496.44	-0.463614
2497.82	0.0770135
2499.2	-0.404465
2500.58	-0.158542
2501.97	-0.160857
2503.35	0.438282
2504.73	-0.198477
2506.11	0.0130806
2507.49	0.193196
2508.87	0.111656
2510.25	0.13813
2511.63	-0.157127
2513.01	0.192562
2514.39	0.266657
2515.77	0.157676
2517.15	-0.0576224
2518.53	0.0640979
2519.91	0.41505
2521.29	0.169786
2522.67	0.351664
2524.05	0.349587
2525.42	-0.110278
2526.8	-0.00618029
2528.18	-0.0540991
2529.55	-0.101114
2530.93	-0.23807
2532.31	0.218926
2533.69	0.281829
2535.06	0.13261
2536.44	-0.0318136
2537.81	0.426098
2539.19	0.108523
2540.56	-0.0273447
2541.94	0.0187206
2543.31	-0.0867634
2544.69	-0.161212
2546.06	-0.174043
2547.44	0.208441
2548.81	-0.121369
2550.18	0.261965
2551.56	0.0531716
2552.93	0.496221
2554.3	-0.063158
2555.67	0.135527
2557.04	-0.0758481
2558.42	0.0918708
2559.79	0.320337
2561.16	-0.178375
2562.53	-0.0854239
2563.9	0.326189
2565.27	0.344133
2566.64	0.528979
2568.01	0.380504
2569.38	0.171396
2570.75	-0.128672
2572.12	-0.413589
2573.49	0.362623
2574.86	-0.0282807
2576.23	0.111412
2577.6	0.160096
2578.97	0.223772
2580.33	0.0748897
2581.7	0.395735
2583.07	0.337201
2584.44	0.157207
2585.8	0.477422
2587.17	0.0549932
2588.54	-0.0641098
2589.9	0.150293
2591.27	-0.120345
2592.64	-0.148849
2594	0.215913
2595.37	-0.0563526
2596.73	0.397354
2598.1	-0.0274692
2599.46	0.379439
2600.83	0.377974
2602.19	-0.12146
2603.55	-0.091567
2604.92	0.240523
2606.28	-0.061017
2607.64	0.481831
2609.01	0.285018
2610.37	0.0121527
2611.73	0.0246086
2613.09	0.126365
2614.46	0.257349
2615.82	-0.0473084
2617.18	-0.0513635
2618.54	0.51415
2619.9	0.36103
2621.26	0.403136
2622.62	0.0720558
2623.98	0.458357
2625.34	0.441196
2626.7	-0.0533314
2628.06	0.108242
2629.42	0.209775
2630.78	0.0134244
2632.14	0.382207
2633.5	0.185898
2634.86	0.316408
2636.21	0.520835
2637.57	0.20628
2638.93	0.277233
2640.29	-0.214004
2641.64	0.0792294
2643	0.298383
2644.36	0.133529
2645.71	0.0426044
2647.07	0.202114
2648.43	0.0809693
2649.78	0.342017
2651.14	-0.0742459
2652.49	-0.0493288
2653.85	0.371816
2655.2	0.396986
2656.56	0.159367
2657.91	0.464541
2659.26	0.024024
2660.62	0.19838
2661.97	0.211698
2663.32	0.429018
2664.68	0.0469627
2666.03	0.335784
2667.38	0.361443
2668.74	0.503467
2670.09	0.339934
2671.44	0.380612
2672.79	0.33456
2674.14	0.216452
2675.49	0.142461
2676.84	0.475217
2678.19	-0.0474596
2679.54	-0.0472069
2680.89	-0.0316787
2682.24	0.463189
2683.59	0.37908
2684.94	0.121644
2686.29	0.256176
2687.64	0.434223
2688.99	0.103302
2690.34	0.293653
2691.69	0.0906334
2693.03	0.35082
2694.38	0.464973
2695.73	0.303483
2697.08	0.0557141
2698.42	0.286988
2699.77	0.519481
2701.12	0.304475
2702.46	0.177489
2703.81	0.326551
2705.15	0.244193
2706.5	0.350358
2707.85	0.0936356
2709.19	-0.134588
2710.54	0.203077
2711.88	0.613395
2713.22	0.311817
2714.57	0.591425
2715.91	0.536724
2717.26	0.525498
2718.6	0.281293
2719.94	-0.152483
2721.29	0.242776
2722.63	0.579539
2723.97	0.362845
2725.31	0.335011
2726.66	0.510641
2728	0.685983
2729.34	0.642801
2730.68	0.5413
2732.02	0.599824
2733.36	0.498382
2734.7	0.353457
2736.04	0.295978
2737.38	0.762186
2738.72	0.166674
2740.06	-0.0363202
2741.4	0.312891
2742.74	0.239897
2744.08	0.427981
2745.42	0.339411
2746.76	0.177949
2748.09	0.466445
2749.43	0.188863
2750.77	0.520791
2752.11	0.490216
2753.45	0.27144
2754.78	0.081913
2756.12	0.153309
2757.46	0.0510221
2758.79	0.368781
2760.13	0.324867
2761.46	0.00639534
2762.8	0.180321
2764.14	0.325526
2765.47	0.181335
2766.8	0.340621
2768.14	-0.0649714
2769.47	0.121517
2770.81	0.118854
2772.14	0.490603
2773.48	0.543498
2774.81	0.509338
2776.14	0.431984
2777.48	0.340645
2778.81	0.00542068
2780.14	0.231519
2781.47	0.285225
2782.8	0.353275
2784.14	0.378153
2785.47	0.359979
2786.8	-0.0161109
2788.13	-0.0335078
2789.46	0.0355344
2790.79	0.0479813
2792.12	-0.0247831
2793.45	-0.368773
2794.78	0.130639
2796.11	-0.0991502
2797.44	0.199277
2798.77	0.382824
2800.1	0.394603
2801.43	0.0209885
2802.76	0.588614
2804.09	0.2719
2805.41	0.567607
2806.74	0.0653863
2808.07	0.189167
2809.4	0.184519
2810.72	0.350298
2812.05	-0.0797281
2813.38	0.257507
2814.71	0.425417
2816.03	0.0699191
2817.36	0.480746
2818.68	-0.199349
2820.01	0.240273
2821.33	0.50945
2822.66	-0.114743
2823.98	0.408415
2825.31	0.137835
2826.63	0.674587
2827.96	0.446971
2829.28	0.687039
2830.6	-0.105937
2831.93	0.587635
2833.25	0.502585
2834.57	0.275749
2835.9	0.232555
2837.22	0.825674
2838.54	0.979644
2839.86	1.43033
2841.18	1.32947
2842.5	1.51171
2843.83	1.45418
2845.15	2.04737
2846.47	2.4715
2847.79	2.11868
2849.11	2.1192
2850.43	2.31731
2851.75	2.51497
2853.07	2.54253
2854.39	2.37188
2855.71	2.28586
2857.03	2.56714
2858.35	2.66476
2859.66	2.35278
2860.98	3.0009
2862.3	3.12614
2863.62	3.23684
2864.94	3.05091
2866.25	2.58293
2867.57	3.07439
2868.89	3.31223
2870.2	3.53628
2871.52	2.97105
2872.84	3.89964
2874.15	2.93908
2875.47	3.49932
2876.78	3.67797
2878.1	3.58831
2879.41	4.07506
2880.73	3.77444
2882.04	3.48892
2883.36	3.93491
2884.67	3.67951
2885.99	3.74766
2887.3	4.1527
2888.61	3.85554
2889.93	3.64197
2891.24	3.89048
2892.55	4.04009
2893.86	4.18938
2895.18	4.17085
2896.49	4.01312
2897.8	4.2623
2899.11	4.12059
2900.42	3.88176
2901.73	4.49669
2903.05	4.41236
2904.36	4.07639
2905.67	4.06239
2906.98	4.69233
2908.29	4.81951
2909.6	4.42985
2910.91	4.78228
2912.21	4.61693
2913.52	4.61883
2914.83	5.05346
2916.14	4.75847
2917.45	4.5881
2918.76	5.50819
2920.07	5.5184
2921.37	5.40341
2922.68	5.52727
2923.99	5.30299
2925.29	5.583
2926.6	5.68189
2927.91	5.72492
2929.22	5.57187
2930.52	6.00546
2931.83	6.36865
2933.13	5.55737
2934.44	5.52889
2935.74	5.89185
2937.05	5.64001
2938.35	5.69581
2939.66	5.01126
2940.96	5.17957
2942.26	5.69803
2943.57	4.9878
2944.87	4.94956
2946.18	4.35294
2947.48	4.60986
2948.78	4.68483
2950.08	4.36681
2951.39	4.5792
2952.69	4.2018
2953.99	4.48124
2955.29	4.10232
2956.59	4.15815
2957.9	3.85184
2959.2	3.74376
2960.5	3.87613
2961.8	3.3656
2963.1	4.1878
2964.4	3.46639
2965.7	3.31879
2967	3.26804
2968.3	3.17394
2969.6	2.93852
2970.9	2.99825
2972.19	3.17081
2973.49	3.03416
2974.79	2.37661
2976.09	2.66158
2977.39	2.93151
2978.68	2.49599
2979.98	2.53777
2981.28	2.38141
2982.58	2.32315
2983.87	2.49015
2985.17	2.15199
2986.47	2.09629
2987.76	1.83103
2989.06	1.49633
2990.35	2.18775
2991.65	2.00748
2992.94	1.77012
2994.24	1.47558
2995.53	1.26457
2996.83	1.51645
2998.12	1.02416
2999.42	0.827075
3000.71	1.12131
3002	0.686942
3003.3	0.785655
3004.59	1.0385
3005.88	0.842859
3007.18	0.548907
3008.47	0.52043
3009.76	0.505294
3011.05	0.391808
3012.34	0.320054
3013.64	0.583229
3014.93	0.358428
3016.22	0.245934
3017.51	-0.0468268
3018.8	0.203815
3020.09	0.398634
3021.38	0.45392
3022.67	0.439039
3023.96	0.0487432
3025.25	-0.133447
3026.54	0.197021
3027.83	0.153617
3029.12	0.0558414
3030.41	0.042244
3031.69	0.0988393
3032.98	0.308069
3034.27	-0.117395
3035.56	0.229621
3036.84	-0.0450974
3038.13	0.106334
3039.42	0.104702
3040.71	0.0469241
3041.99	0.414101
3043.28	0.245685
3044.57	0.215279
3045.85	-0.100892
3047.14	0.404836
3048.42	-0.0576239
3049.71	0.0142274
3050.99	0.223722
3052.28	-0.057374
3053.56	-0.0791397
3054.85	-0.183188
3056.13	-0.17879
3057.41	0.00206566
3058.7	0.100429
3059.98	0.0759592
3061.26	0.160679
3062.55	-0.134765
3063.83	0.196516
3065.11	0.420103
3066.39	-0.26607
3067.68	0.299321
3068.96	-0.0459089
3070.24	-0.0377555
3071.52	0.255424
3072.8	0.126102
3074.08	-0.12641
3075.36	-0.0396729
3076.65	0.291213
3077.93	-0.0429935
3079.21	-0.145415
3080.49	0.0789194
3081.77	-0.292429
3083.04	0.0561528
3084.32	0.1069
3085.6	0.15778
3086.88	0.0183444
3088.16	0.0548592
3089.44	-0.112682
3090.72	0.126615
3091.99	0.189387
3093.27	-0.222431
3094.55	-0.254105
3095.83	0.148362
3097.1	-0.0727754
3098.38	0.248315
3099.66	0.0272055
3100.93	-0.112524
3102.21	0.0864863
3103.49	0.31272
3104.76	-0.0156612
3106.04	0.40102
3107.31	0.195889
3108.59	0.275812
3109.86	0.261885
3111.14	-0.00849247
3112.41	0.0602093
3113.69	0.00738955
3114.96	0.0901275
3116.23	0.0234933
3117.51	-0.0301757
3118.78	0.159563
3120.05	-0.126142
3121.33	0.387568
3122.6	0.209372
3123.87	0.261504
3125.14	0.191951
3126.41	0.488285
3127.69	0.0543218
3128.96	0.297359
3130.23	0.608187
3131.5	0.135026
3132.77	0.405314
3134.04	0.256487
3135.31	0.350463
3136.58	0.201151
3137.85	0.53707
3139.12	0.319964
3140.39	0.412714
3141.66	0.86854
3142.93	0.423662
3144.2	0.0605192
3145.47	0.248514
3146.74	0.235745
3148	0.411112
3149.27	0.560045
