200.563	1.05154
202.377	1.0832
204.194	1.11651
206.008	1.1756
207.821	0.675959
209.634	1.26948
211.449	0.330727
213.262	0.798885
215.074	0.804016
216.885	0.662947
218.699	1.07934
220.51	1.44776
222.321	-0.0210152
224.131	-0.398956
225.941	0.480898
227.751	0.683767
229.562	0.668646
231.371	0.338963
233.18	1.19123
234.988	0.620758
236.796	0.173248
238.603	0.11471
240.411	-0.157074
242.219	0.225368
244.026	0.585836
245.832	0.125843
247.638	0.121853
249.443	0.765852
251.248	0.0289612
253.053	0.929623
254.857	0.355501
256.661	0.866375
258.465	1.06483
260.268	0.326202
262.071	0.915623
263.874	0.905287
265.678	0.0532417
267.48	0.165293
269.282	0.397419
271.083	0.266758
272.884	0.0861254
274.684	-0.0965786
276.484	0.296913
278.284	-0.589654
280.084	-0.63533
281.883	1.04905
283.682	-0.205737
285.48	-0.0428648
287.276	-0.00141048
289.074	-0.175748
290.871	0.441811
292.668	0.174721
294.465	0.508269
296.261	0.174221
298.057	0.248268
299.853	0.0123701
301.648	0.158439
303.443	-0.365376
305.237	0.207204
307.032	-0.295399
308.823	0.322566
310.617	0.559555
312.41	0.274183
314.203	-0.34197
315.995	0.092288
317.788	0.36247
319.579	0.65883
321.369	0.146685
323.16	0.541372
324.951	0.793944
326.741	0.258975
328.531	0.415825
330.321	1.12168
332.108	0.367353
333.897	0.686573
335.686	0.308747
337.474	1.10003
339.26	0.78739
341.048	0.209602
342.835	0.419932
344.622	0.152162
346.406	0.530176
348.192	0.192642
349.978	0.285661
351.764	-0.0271349
353.547	0.279716
355.332	0.13161
357.116	0.410851
358.901	0.115932
360.682	-0.466065
362.466	-0.239491
364.249	0.00941753
366.03	-0.00447559
367.812	0.526384
369.594	-0.296547
371.374	0.728351
373.155	-0.000728607
374.936	-0.0197802
376.715	-0.062315
378.495	-0.316224
380.273	0.208959
382.053	-0.441948
383.832	0.0623446
385.609	-0.443005
387.388	0.628098
389.164	0.0791817
390.942	0.494832
392.72	-0.00436783
394.495	0.366178
396.272	0.291023
398.047	0.215925
399.823	1.03306
401.597	0.416744
403.372	-0.0830784
405.145	0.238032
406.92	-0.0525465
408.693	0.782996
410.467	0.303249
412.239	-0.152818
414.012	-0.0450029
415.783	0.0168123
417.556	0.408234
419.327	0.37816
421.099	0.606572
422.869	0.764174
424.64	0.944218
426.409	0.74722
428.18	0.478567
429.948	-0.0724382
431.718	0.690963
433.486	0.281228
435.253	0.55257
437.022	0.190144
438.789	0.296018
440.558	-0.0695705
442.324	-0.226719
444.089	0.504057
445.857	0.551869
447.622	0.902116
449.386	0.0585604
451.153	-0.339505
452.917	0.0104694
454.682	0.150227
456.446	-0.0132885
458.208	-0.293221
459.973	0.474484
461.735	0.451463
463.497	0.593411
465.259	0.111361
467.022	0.283991
468.783	0.646349
470.544	0.0813475
472.306	0.447268
474.066	0.276909
475.825	0.266882
477.585	1.51169
479.346	0.84373
481.104	0.127849
482.862	0.996048
484.62	0.375335
486.38	0.945323
488.137	0.44659
489.894	0.859802
491.65	0.668168
493.407	0.266787
495.164	0.893991
496.92	0.28143
498.675	0.862284
500.43	0.646085
502.184	0.569355
503.939	0.303266
505.694	1.37491
507.448	0.493774
509.201	0.480068
510.954	0.746393
512.706	0.704565
514.459	0.754662
516.21	0.61455
517.962	0.872541
519.715	1.2699
521.466	0.490994
523.216	0.557561
524.966	0.905377
526.716	0.408283
528.466	0.779201
530.215	0.868331
531.964	0.324353
533.712	1.04376
535.46	0.801467
537.208	0.4874
538.955	0.755521
540.703	0.998036
542.449	0.35377
544.196	0.640998
545.942	1.22952
547.688	1.42237
549.433	0.54884
551.178	0.603737
552.923	0.427456
554.667	0.0438604
556.412	0.353844
558.155	0.594558
559.899	0.443874
561.642	0.064044
563.385	0.605615
565.127	0.618569
566.867	0.471637
568.609	-0.224981
570.35	0.595028
572.092	0.567617
573.832	0.450811
575.573	0.497089
577.313	0.316257
579.053	-0.000637054
580.79	0.693767
582.529	0.952341
584.268	-0.215097
586.006	0.523982
587.745	0.364515
589.482	0.0652275
591.218	-0.419454
592.955	0.199512
594.692	0.128025
596.428	0.815806
598.164	0.560222
599.898	0.281087
601.634	-0.321266
603.369	-0.120228
605.104	-0.496043
606.836	0.436428
608.57	0.310424
610.304	0.367995
612.037	-0.12431
613.769	0.30202
615.501	0.408047
617.234	0.285079
618.966	0.0469217
620.696	0.539914
622.427	-0.319064
624.159	0.353488
625.887	-0.139821
627.618	-0.0603027
629.348	-0.274827
631.076	0.0615406
632.806	-0.101394
634.535	-0.17172
636.262	0.579173
637.99	1.25914
639.716	0.451503
641.444	0.780709
643.172	0.672992
644.897	0.563763
646.624	0.910167
648.348	0.599674
650.075	0.771171
651.801	0.10742
653.524	0.426169
655.249	0.727157
656.972	1.23678
658.697	0.700169
660.419	-0.0892963
662.143	0.465054
663.865	0.994106
665.588	0.902882
667.309	0.831735
669.032	0.210636
670.752	-0.0435324
672.474	0.139577
674.194	0.532295
675.915	-0.355094
677.634	0.501259
679.355	0.417746
681.073	-0.0811882
682.793	0.61301
684.511	0.6145
686.23	0.267776
687.947	0.886083
689.664	0.489511
691.382	0.644706
693.098	0.315287
694.816	0.675796
696.531	0.0676517
698.247	1.00053
699.963	0.688352
701.678	1.27175
703.392	1.32448
705.108	0.916769
706.821	0.600712
708.534	1.06418
710.249	0.747327
711.962	0.796775
713.674	0.525485
715.388	1.16841
717.099	0.645791
718.81	0.671662
720.523	0.674907
722.234	0.792229
723.944	0.272364
725.654	0.571548
727.365	0.415534
729.075	0.622293
730.784	1.1454
732.492	0.964908
734.202	1.07858
735.91	0.875728
737.618	1.55437
739.325	0.6762
741.034	1.15328
742.741	1.09078
744.447	0.872675
746.153	0.679236
747.859	1.3202
749.564	0.748159
751.271	1.14514
752.976	1.0941
754.681	1.38245
756.385	1.13292
758.088	1.11051
759.792	1.31539
761.495	1.58973
763.2	1.39135
764.902	0.67286
766.604	1.33015
768.306	1.78211
770.008	2.18607
771.709	2.0897
773.41	1.83302
775.11	1.34967
776.811	1.59071
778.51	1.90144
780.21	1.08358
781.909	1.1491
783.608	1.96163
785.307	1.45999
787.005	1.63403
788.703	1.62255
790.401	2.44336
792.098	1.83534
793.795	1.47454
795.492	1.3848
797.188	2.24307
798.884	1.41337
800.58	1.60006
802.276	1.63103
803.971	1.68535
805.665	1.40218
807.36	1.43267
809.054	2.44952
810.748	1.3989
812.441	2.25447
814.135	2.61498
815.826	2.28061
817.518	2.70719
819.21	1.45709
820.902	2.66552
822.594	2.24384
824.285	1.35579
825.976	2.25347
827.665	2.75249
829.355	2.36456
831.045	2.40425
832.735	1.82423
834.424	1.93766
836.111	2.23103
837.8	2.2789
839.488	2.3251
841.177	1.65424
842.864	1.51739
844.55	2.31843
846.237	1.55625
847.924	1.98123
849.61	1.71655
851.295	2.50747
852.98	1.8232
854.666	1.58757
856.349	1.08156
858.034	2.10199
859.719	1.27652
861.403	1.61828
863.085	2.04827
864.769	1.75562
866.452	0.830239
868.133	1.05354
869.816	0.983133
871.498	1.72435
873.179	2.19481
874.86	1.83042
876.54	1.46596
878.221	1.86881
879.902	1.36869
881.58	1.88382
883.26	1.31431
884.938	1.28507
886.618	1.93093
888.297	2.16805
889.974	1.2075
891.653	0.403717
893.329	1.60348
895.007	1.74215
896.683	1.8341
898.36	1.7672
900.035	1.49725
901.712	1.74204
903.387	1.06811
905.063	2.42913
906.737	1.57761
908.412	1.70992
910.085	2.39993
911.76	1.75512
913.433	0.979264
915.107	1.69291
916.779	1.14095
918.452	1.58715
920.124	1.32425
921.797	1.59354
923.467	1.51042
925.138	1.8053
926.81	1.66097
928.48	1.6737
930.151	1.82058
931.82	2.01252
933.489	1.43269
935.16	1.84584
936.828	1.13477
938.496	1.83652
940.165	2.27545
941.833	1.39269
943.5	0.709141
945.168	0.731297
946.834	1.28164
948.5	1.45415
950.168	1.73425
951.834	1.19622
953.499	0.239694
955.163	1.53497
956.83	0.5628
958.494	0.830003
960.158	0.615674
961.821	0.646073
963.487	0.94153
965.15	1.1022
966.812	1.14859
968.474	0.46089
970.138	1.7394
971.8	-0.301435
973.461	0.489848
975.123	1.06187
976.783	0.619171
978.446	0.797772
980.106	1.27609
981.766	1.75405
983.425	2.06413
985.084	1.26444
986.743	2.07763
988.402	1.25053
990.06	1.2848
991.72	1.09714
993.378	0.732809
995.035	1.40651
996.692	1.99138
998.349	1.53928
1000.01	1.43993
1001.66	2.19893
1003.32	1.92202
1004.97	0.67747
1006.63	0.884852
1008.28	1.09214
1009.94	1.32157
1011.59	1.15662
1013.25	0.68574
1014.9	0.829252
1016.55	1.03887
1018.21	1.66475
1019.86	0.519771
1021.51	1.43225
1023.16	0.968798
1024.81	1.53404
1026.47	1.16035
1028.12	1.74811
1029.77	1.30799
1031.42	1.60881
1033.07	2.169
1034.72	1.35166
1036.37	1.18746
1038.02	1.5234
1039.67	2.05464
1041.31	1.86841
1042.96	1.46706
1044.61	1.9378
1046.26	1.36858
1047.91	1.82309
1049.55	0.75975
1051.2	1.19674
1052.84	1.15706
1054.49	1.09618
1056.14	1.53516
1057.78	1.69128
1059.43	1.41188
1061.07	0.718336
1062.72	1.43703
1064.36	1.39333
1066	1.00028
1067.65	1.30133
1069.29	1.66596
1070.93	0.85673
1072.58	1.56749
1074.22	1.58412
1075.86	1.34202
1077.5	1.55742
1079.14	1.68787
1080.78	1.1255
1082.42	1.32204
1084.06	1.99421
1085.7	1.23302
1087.34	0.924413
1088.98	0.786426
1090.62	1.51161
1092.26	1.49893
1093.9	0.967319
1095.54	1.32159
1097.17	1.8058
1098.81	1.21439
1100.45	1.14297
1102.09	1.26808
1103.72	1.26662
1105.36	1.33158
1106.99	0.924157
1108.63	1.13998
1110.27	0.451118
1111.9	1.52282
1113.53	0.894213
1115.17	0.672483
1116.8	0.922197
1118.43	1.42903
1120.07	1.14359
1121.7	0.710082
1123.33	0.941979
1124.97	1.83834
1126.6	0.981602
1128.23	1.217
1129.86	1.23956
1131.49	0.600198
1133.12	0.880587
1134.75	1.3531
1136.38	0.820039
1138.01	0.734399
1139.64	0.839355
1141.27	0.72933
1142.9	0.789451
1144.53	0.785775
1146.16	0.740499
1147.78	0.696641
1149.41	0.440994
1151.04	0.803825
1152.67	0.804465
1154.29	0.442697
1155.92	1.14471
1157.54	0.420688
1159.17	0.867466
1160.8	0.358379
1162.42	0.425102
1164.05	0.110508
1165.67	0.200548
1167.29	0.396502
1168.92	-0.599602
1170.54	0.102758
1172.16	-0.132756
1173.79	0.37271
1175.41	-0.354623
1177.03	0.805128
1178.65	-0.281791
1180.28	-0.328995
1181.9	-0.0999432
1183.52	0.277701
1185.14	-0.0634661
1186.76	-0.173253
1188.38	-0.0740976
1190	0.233002
1191.62	-0.0525932
1193.24	0.5225
1194.86	0.381173
1196.47	1.16277
1198.09	0.540951
1199.71	0.947862
1201.33	0.521641
1202.95	0.914108
1204.56	0.725506
1206.18	0.978165
1207.8	0.502404
1209.41	0.944894
1211.03	0.927219
1212.64	0.615221
1214.26	0.737979
1215.87	0.711715
1217.49	0.163013
1219.1	1.04785
1220.71	1.18349
1222.33	1.73464
1223.94	0.401245
1225.55	1.08035
1227.16	1.96766
1228.78	0.89132
1230.39	1.74044
1232	1.12324
1233.61	1.64474
1235.22	1.5893
1236.83	2.03169
1238.44	1.73148
1240.05	2.3006
1241.66	2.20837
1243.27	2.03282
1244.88	2.10433
1246.49	2.96067
1248.1	2.90499
1249.71	1.97919
1251.32	2.08756
1252.92	2.21697
1254.53	2.43021
1256.14	2.19005
1257.74	1.45519
1259.35	1.61149
1260.96	2.16242
1262.56	2.52808
1264.17	2.02395
1265.77	1.80896
1267.38	1.82078
1268.98	2.45319
1270.59	2.8354
1272.19	2.2208
1273.79	1.89498
1275.4	2.47984
1277	1.7161
1278.6	2.1117
1280.21	2.50609
1281.81	2.60998
1283.41	2.42437
1285.01	3.14963
1286.61	3.21429
1288.21	2.97054
1289.81	3.05892
1291.41	2.7141
1293.01	2.63776
1294.61	4.19225
1296.21	3.38957
1297.81	3.78219
1299.41	2.81015
1301.01	3.09463
1302.6	3.62394
1304.2	3.30709
1305.8	3.66816
1307.4	3.41159
1308.99	3.46284
1310.59	2.55092
1312.19	2.54222
1313.78	3.00506
1315.38	2.89648
1316.97	3.19786
1318.57	3.33639
1320.16	3.02601
1321.76	2.95908
1323.35	3.21549
1324.94	3.73285
1326.54	3.23188
1328.13	3.05576
1329.72	3.00252
1331.32	2.68902
1332.91	3.08669
1334.5	2.96221
1336.09	2.55783
1337.68	3.46552
1339.27	2.65784
1340.87	3.21826
1342.45	3.00981
1344.04	3.18068
1345.64	2.46627
1347.22	2.79659
1348.81	3.06867
1350.4	2.18333
1351.99	2.32296
1353.58	1.86566
1355.17	2.20995
1356.75	2.01503
1358.34	1.89948
1359.93	2.32177
1361.51	2.0436
1363.1	2.30311
1364.69	1.88406
1366.27	1.28659
1367.86	2.82165
1369.44	1.47087
1371.03	2.0732
1372.61	1.86147
1374.2	1.79064
1375.78	2.13859
1377.37	2.72544
1378.95	2.13749
1380.53	2.36388
1382.11	1.85224
1383.7	1.83619
1385.28	2.21629
1386.86	2.23781
1388.44	1.34616
1390.02	2.04414
1391.6	1.39362
1393.19	1.91497
1394.77	1.62342
1396.35	1.86707
1397.93	1.57436
1399.51	2.15227
1401.08	2.35201
1402.66	1.95692
1404.24	1.56225
1405.82	1.88058
1407.4	2.49631
1408.97	2.16445
1410.55	2.26805
1412.13	2.74666
1413.71	2.33578
1415.28	2.20013
1416.86	1.68872
1418.43	2.02485
1420.01	2.30204
1421.59	2.28524
1423.16	2.23137
1424.73	2.63257
1426.31	2.85842
1427.88	3.02598
1429.46	2.54354
1431.03	3.83111
1432.6	4.09326
1434.18	4.23575
1435.75	3.57116
1437.32	4.00832
1438.89	4.72163
1440.46	4.53229
1442.04	4.56071
1443.61	4.98331
1445.18	5.46554
1446.75	3.90393
1448.32	4.44566
1449.89	5.10594
1451.46	4.70539
1453.03	4.77757
1454.6	4.79134
1456.16	4.52954
1457.73	4.32555
1459.3	3.86361
1460.87	3.6548
1462.44	3.95469
1464	3.60289
1465.57	3.56425
1467.14	2.68051
1468.7	2.5836
1470.27	2.8217
1471.83	3.13975
1473.4	2.08633
1474.96	2.32862
1476.53	2.12047
1478.09	2.46142
1479.66	1.95931
1481.22	2.04516
1482.78	2.22884
1484.35	2.03998
1485.91	1.51762
1487.47	1.83652
1489.04	1.05701
1490.6	1.52795
1492.16	1.36962
1493.72	1.63826
1495.28	1.59173
1496.84	1.07628
1498.4	0.795381
1499.96	0.943498
1501.52	1.32564
1503.08	0.816551
1504.64	0.328955
1506.2	0.578092
1507.76	1.19333
1509.32	0.183258
1510.88	0.833297
1512.44	0.17027
1513.99	0.355267
1515.55	0.655354
1517.11	0.744356
1518.66	0.316444
1520.22	0.75218
1521.78	0.86194
1523.33	0.703424
1524.89	0.162408
1526.44	0.288732
1528	0.39451
1529.55	0.860553
1531.11	0.072258
1532.66	0.25374
1534.21	0.94715
1535.77	0.0137243
1537.32	0.292701
1538.87	0.722941
1540.43	0.832263
1541.98	0.169165
1543.53	0.805707
1545.08	0.594727
1546.63	0.815849
1548.18	0.529748
1549.74	0.993879
1551.29	0.25904
1552.84	1.11626
1554.39	1.03874
1555.94	0.944528
1557.48	1.1514
1559.03	1.73386
1560.58	1.60971
1562.13	0.816167
1563.68	1.01275
1565.23	1.02352
1566.78	1.07168
1568.32	1.69811
1569.87	1.52151
1571.42	1.71769
1572.96	0.830803
1574.51	1.21308
1576.05	1.29671
1577.6	1.24994
1579.14	0.961003
1580.69	1.19563
1582.24	1.48739
1583.78	1.63093
1585.32	1.4952
1586.87	1.77132
1588.41	1.33703
1589.95	1.557
1591.5	1.30855
1593.04	2.72585
1594.58	1.68988
1596.12	2.09606
1597.67	1.8471
1599.21	2.18009
1600.75	2.42053
1602.29	2.54919
1603.83	1.92675
1605.37	1.56575
1606.91	1.63487
1608.45	2.43443
1609.99	1.52052
1611.53	2.67065
1613.07	1.88284
1614.6	2.50175
1616.14	1.39388
1617.68	1.73131
1619.22	1.1145
1620.75	2.1856
1622.29	2.00346
1623.83	1.78501
1625.37	1.75378
1626.9	2.00219
1628.44	1.14491
1629.97	2.21256
1631.51	2.38063
1633.04	2.09974
1634.58	1.91296
1636.11	2.11927
1637.65	2.45719
1639.18	2.49739
1640.72	2.36983
1642.25	3.21015
1643.78	2.94953
1645.31	2.38975
1646.85	2.88934
1648.38	3.14625
1649.91	2.77212
1651.44	2.95656
1652.97	3.21676
1654.5	3.60812
1656.03	3.29579
1657.56	3.78021
1659.1	3.83708
1660.62	3.16996
1662.15	3.25999
1663.68	3.0525
1665.21	2.62293
1666.74	3.09885
1668.27	3.22528
1669.8	3.11412
1671.32	2.563
1672.85	3.02682
1674.38	2.69916
1675.91	1.94784
1677.43	2.53933
1678.96	1.65719
1680.49	1.84088
1682.01	1.96823
1683.54	1.43397
1685.06	1.94644
1686.59	1.87191
1688.11	2.10964
1689.64	1.39509
1691.16	1.7618
1692.68	0.792345
1694.21	0.793152
1695.73	1.17763
1697.25	1.17765
1698.78	1.04939
1700.3	0.57397
1701.82	0.900921
1703.34	0.825747
1704.86	0.476836
1706.39	0.801091
1707.91	0.924475
1709.43	0.284721
1710.95	0.626087
1712.47	0.785776
1713.99	0.275075
1715.51	0.525546
1717.02	0.594637
1718.54	0.229699
1720.06	0.6056
1721.58	0.169222
1723.1	0.112809
1724.62	0.291897
1726.13	0.580427
1727.65	0.924356
1729.17	0.0456371
1730.68	-0.215442
1732.2	0.471203
1733.72	0.703373
1735.23	0.748922
1736.75	0.0932531
1738.26	0.393949
1739.78	0.357782
1741.29	0.355982
1742.81	0.490974
1744.32	0.407112
1745.84	0.209319
1747.35	0.188951
1748.86	0.365505
1750.37	0.179506
1751.89	-0.142007
1753.4	0.508904
1754.91	-0.175687
1756.42	-0.118279
1757.93	-0.0787296
1759.45	0.744265
1760.96	-0.0487881
1762.47	0.0761395
1763.98	-0.140038
1765.49	0.100553
1767	0.385633
1768.51	0.103427
1770.02	-0.129029
1771.53	0.184807
1773.03	0.0992975
1774.54	0.260514
1776.05	0.240405
1777.56	-0.0483332
1779.07	-0.154281
1780.57	0.374659
1782.08	-0.453393
1783.59	-0.0544491
1785.09	-0.0373335
1786.6	0.239851
1788.11	0.41501
1789.61	-0.153572
1791.12	0.119434
1792.62	-0.114017
1794.13	0.550845
1795.63	0.301089
1797.13	-0.224346
1798.64	-0.290984
1800.14	0.309003
1801.65	-0.0023222
1803.15	0.250973
1804.65	0.00184536
1806.15	0.104506
1807.66	0.16479
1809.16	0.295006
1810.66	-0.137562
1812.16	-0.199093
1813.66	-0.0785694
1815.16	-0.361677
1816.66	0.338544
1818.16	0.230847
1819.66	-0.087491
1821.16	-0.126203
1822.66	0.263266
1824.16	0.106897
1825.66	-0.0140877
1827.16	0.18148
1828.66	0.327909
1830.16	0.188325
1831.65	-0.312663
1833.15	-0.48394
1834.65	-0.133638
1836.14	0.282639
1837.64	-0.103373
1839.14	-0.125154
1840.63	-0.0703983
1842.13	-0.263497
1843.62	0.123813
1845.12	0.0254211
1846.61	-0.247378
1848.11	0.285556
1849.6	0.031188
1851.1	-0.150266
1852.59	0.197413
1854.08	0.241195
1855.58	0.309769
1857.07	0.0158033
1858.56	0.298715
1860.05	0.328337
1861.55	-0.187258
1863.04	-0.054225
1864.53	0.399809
1866.02	0.0407553
1867.51	0.270547
1869	0.332555
1870.49	0.367808
1871.98	0.357182
1873.47	0.0220242
1874.96	-0.109557
1876.45	0.543397
1877.94	0.345247
1879.43	-0.0262766
1880.92	-0.0148602
1882.41	0.329561
1882.51	0.355755
1884	0.339121
1885.5	0.0950346
1886.99	-0.184678
1888.48	0.109772
1889.98	0.212716
1891.47	0.194944
1892.96	0.0225353
1894.46	0.0956392
1895.95	-0.107698
1897.44	-0.171032
1898.93	-0.182325
1900.42	0.170588
1901.91	0.138939
1903.41	-0.329505
1904.9	0.122096
1906.39	0.346476
1907.88	0.101707
1909.37	0.204999
1910.86	0.153112
1912.35	0.22371
1913.83	0.26024
1915.32	-0.223355
1916.81	-0.152355
1918.3	-0.0473318
1919.79	0.1784
1921.27	-0.133083
1922.76	-0.374677
1924.25	0.57935
1925.74	0.0976238
1927.22	-0.123203
1928.71	0.331911
1930.19	0.163702
1931.68	0.392849
1933.17	-0.124262
1934.65	0.0492678
1936.14	0.566774
1937.62	0.235048
1939.11	0.680733
1940.59	-0.0998154
1942.07	-0.0156107
1943.56	0.138684
1945.04	0.569745
1946.52	-0.343667
1948.01	-0.033185
1949.49	0.586314
1950.97	0.412048
1952.45	-0.262116
1953.93	-0.196653
1955.42	0.641877
1956.9	-0.134475
1958.38	0.120626
1959.86	-0.00111294
1961.34	-0.362192
1962.82	0.20281
1964.3	-0.363637
1965.78	0.38848
1967.26	-0.230202
1968.74	0.126074
1970.21	0.122258
1971.69	-0.257635
1973.17	0.0627337
1974.65	0.0416279
1976.13	0.0548325
1977.6	-0.323548
1979.08	0.132724
1980.56	0.316193
1982.03	0.0232592
1983.51	-0.0148144
1984.99	0.286252
1986.46	0.315202
1987.94	0.377972
1989.41	0.237782
1990.89	0.267776
1992.36	0.417192
1993.84	-0.040987
1995.31	0.0766935
1996.78	-0.328927
1998.26	0.211425
1999.73	0.43015
2001.2	0.19237
2002.68	0.0217056
2004.15	0.323068
2005.62	0.388605
2007.09	0.488618
2008.56	-0.0333815
2010.04	0.388613
2011.51	0.524912
2012.98	-0.163495
2014.45	0.595081
2015.92	-0.212214
2017.39	0.34226
2018.86	0.458261
2020.33	0.23746
2021.8	-0.0840511
2023.26	-0.153112
2024.73	0.298868
2026.2	0.215115
2027.67	0.233639
2029.14	-0.0480709
2030.61	0.594311
2032.07	0.147353
2033.54	0.0363922
2035.01	0.613861
2036.47	0.116157
2037.94	0.00403118
2039.4	0.479639
2040.87	0.333397
2042.33	0.372458
2043.8	0.496491
2045.27	0.705782
2046.73	0.259566
2048.19	0.318571
2049.66	0.00648308
2051.12	0.957554
2052.59	0.136589
2054.05	0.477077
2055.51	0.34335
2056.97	0.359828
2058.44	-0.0964518
2059.9	0.491758
2061.36	0.322278
2062.82	0.793461
2064.28	0.00338173
2065.74	-0.0449524
2067.21	0.799594
2068.67	0.887547
2070.13	0.790728
2071.59	0.845472
2073.05	0.243393
2074.51	0.331285
2075.96	0.452489
2077.42	0.135435
2078.88	0.121053
2080.34	0.224033
2081.8	0.427387
2083.26	0.663575
2084.72	0.208841
2086.17	0.779693
2087.63	0.996253
2089.09	0.405423
2090.54	0.369254
2092	0.601646
2093.45	0.279963
2094.91	0.562069
2096.37	0.424278
2097.82	0.0346823
2099.28	0.799735
2100.73	0.710369
2102.19	0.437573
2103.64	0.767241
2105.09	0.881026
2106.55	0.36237
2108	0.278886
2109.45	0.879495
2110.91	0.762359
2112.36	0.943723
2113.81	1.07294
2115.26	1.10022
2116.72	1.04324
2118.17	1.06977
2119.62	0.599858
2121.07	0.99536
2122.52	0.464061
2123.97	0.664253
2125.42	1.0807
2126.87	0.883345
2128.32	1.04957
2129.77	1.04839
2131.22	1.31068
2132.67	1.00894
2134.11	0.624775
2135.56	1.2009
2137.01	1.38155
2138.46	0.820631
2139.91	1.03868
2141.35	1.87031
2142.8	0.603769
2144.25	1.18983
2145.7	1.46209
2147.14	1.18784
2148.59	1.62484
2150.03	1.19959
2151.48	1.63459
2152.92	1.62111
2154.37	2.07054
2155.81	1.39278
2157.26	1.97418
2158.7	1.56248
2160.15	1.45051
2161.59	2.35137
2163.03	2.09472
2164.47	1.98898
2165.92	2.13317
2167.36	2.34393
2168.8	2.05491
2170.24	2.17922
2171.69	2.56715
2173.13	1.88799
2174.57	2.43808
2176.01	2.27214
2177.45	2.35591
2178.89	2.39071
2180.33	2.593
2181.77	2.26436
2183.21	2.20246
2184.65	1.72506
2186.09	1.59692
2187.53	1.58524
2188.97	1.85651
2190.4	2.19445
2191.84	2.11597
2193.28	2.21971
2194.72	1.88892
2196.16	2.12196
2197.59	1.47057
2199.03	1.88199
2200.47	1.97587
2201.9	1.93658
2203.34	1.45019
2204.77	1.72842
2206.21	1.41098
2207.64	0.829372
2209.08	1.20852
2210.51	0.990573
2211.95	0.788274
2213.38	1.04821
2214.82	1.04334
2216.25	1.27024
2217.68	0.805281
2219.12	1.36459
2220.55	1.10023
2221.98	0.687855
2223.41	0.999879
2224.85	0.914854
2226.28	1.10771
2227.71	0.920208
2229.14	1.01077
2230.57	0.821341
2232	0.927036
2233.43	0.852756
2234.86	0.697706
2236.29	1.32845
2237.72	0.360174
2239.15	0.55364
2240.58	0.765476
2242.01	0.506281
2243.44	0.78672
2244.87	0.643517
2246.29	0.907361
2247.72	0.0930147
2249.15	-0.0547657
2250.58	0.381763
2252.01	1.15752
2253.43	0.434788
2254.86	0.103634
2256.29	0.537568
2257.71	0.567896
2259.14	0.520249
2260.56	0.443399
2261.99	0.872383
2263.41	0.134254
2264.84	0.923208
2266.26	0.883396
2267.69	0.468467
2269.11	0.507833
2270.53	0.660294
2271.96	0.046957
2273.38	0.361471
2274.8	0.252665
2276.23	0.567672
2277.65	0.149617
2279.07	0.59544
2280.49	0.421773
2281.91	-0.274067
2283.34	0.106438
2284.76	-0.149272
2286.18	0.280676
2287.6	0.254078
2289.02	0.423939
2290.44	0.33293
2291.86	0.552746
2293.28	0.200495
2294.7	0.0769644
2296.12	0.133286
2297.54	-0.0232859
2298.96	-0.392917
2300.37	0.12236
2301.79	0.310462
2303.21	0.482652
2304.63	-0.0998802
2306.04	-0.124712
2307.46	0.145832
2308.88	0.366727
2310.3	-0.235056
2311.71	0.346664
2313.13	0.270536
2314.54	0.293542
2315.96	0.564359
2317.37	0.342043
2318.79	0.33428
2320.2	0.0788574
2321.62	0.0860319
2323.03	0.4708
2324.45	0.473481
2325.86	0.407661
2327.27	0.933672
2328.69	0.35402
2330.1	0.401126
2331.51	-0.011837
2332.92	-0.192882
2334.34	0.383958
2335.75	0.0066824
2337.16	0.237629
2338.57	-0.173788
2339.98	0.219118
2341.39	0.462756
2342.8	0.213179
2344.21	0.127886
2345.63	-0.10451
2347.04	0.449885
2348.45	0.103336
2349.85	0.214856
2351.26	-0.115974
2352.67	0.156989
2354.08	0.248947
2355.49	0.437763
2356.9	0.25131
2358.3	-0.016119
2359.71	0.578263
2361.12	0.213909
2362.53	0.433979
2363.93	0.216178
2365.34	0.289982
2366.75	0.218382
2368.15	0.147574
2369.56	-0.180105
2370.97	0.509648
2372.37	-0.314378
2373.77	0.409373
2375.18	0.0866623
2376.59	0.423491
2377.99	0.115598
2379.39	0.0313997
2380.8	-0.311275
2382.2	-0.446256
2383.6	-0.149433
2385.01	-0.0135498
2386.41	-0.149195
2387.81	-0.283601
2389.21	-0.129512
2390.62	0.169
2392.02	-0.0888777
2393.42	0.291083
2394.82	0.210349
2396.22	0.114551
2397.62	-0.18711
2399.02	-0.18611
2400.42	0.466732
2401.82	-0.0239201
2403.22	0.168515
2404.62	0.122317
2406.02	0.567303
2407.42	-0.448853
2408.82	0.136894
2410.22	-0.0867319
2411.62	0.228758
2413.01	0.418138
2414.41	0.292141
2415.81	0.278605
2417.21	0.282356
2418.6	0.397943
2420	-0.151186
2421.4	-0.0670328
2422.79	-0.062439
2424.19	0.0527716
2425.59	-0.0220966
2426.98	0.0620337
2428.38	0.0361471
2429.77	0.233275
2431.17	0.225054
2432.56	-0.386239
2433.95	0.271906
2435.35	-0.262157
2436.74	0.0441132
2438.14	0.428224
2439.53	0.175413
2440.92	0.25521
2442.31	0.0168686
2443.71	-0.0629263
2445.1	0.285409
2446.49	0.300326
2447.88	0.616179
2449.27	0.0605116
2450.67	0.31307
2452.06	-0.605243
2453.45	0.107585
2454.84	0.1249
2456.23	-0.0943222
2457.62	0.461897
2459.01	0.242855
2460.4	-0.103273
2461.79	-0.450115
2463.18	-0.29179
2464.57	0.213395
2465.95	-0.103379
2467.34	0.321928
2468.73	0.38389
2470.12	0.0670719
2471.5	0.333299
2472.89	0.251906
2474.28	0.232752
2475.67	-0.400561
2477.05	-0.310266
2478.44	-0.125954
2479.82	0.0582256
2481.21	-0.0556288
2482.6	0.0499706
2483.98	0.405372
2485.37	-0.25741
2486.75	0.267321
2488.13	-0.0997839
2489.52	-0.591448
2490.9	-0.101468
2492.29	0.185711
2493.67	0.271497
2495.05	0.0327892
2496.44	0.105835
2497.82	0.272617
2499.2	-0.102279
2500.58	-0.275923
2501.97	0.0444546
2503.35	0.0389853
2504.73	0.0634174
2506.11	0.19498
2507.49	0.0027647
2508.87	0.149323
2510.25	-0.0418549
2511.63	0.166929
2513.01	-0.0070715
2514.39	0.00392246
2515.77	0.000509262
2517.15	0.288558
2518.53	-0.15699
2519.91	-0.0517778
2521.29	0.144685
2522.67	0.0960026
2524.05	-0.167048
2525.42	0.0267563
2526.8	-0.617575
2528.18	-0.241028
2529.55	0.0144415
2530.93	-0.29108
2532.31	0.089098
2533.69	-0.197909
2535.06	-0.180284
2536.44	0.39942
2537.81	0.14283
2539.19	0.0523605
2540.56	0.659456
2541.94	0.628274
2543.31	-0.10053
2544.69	0.339952
2546.06	-0.00709915
2547.44	-0.140498
2548.81	-0.106166
2550.18	-0.193126
2551.56	0.189855
2552.93	0.222848
2554.3	0.300242
2555.67	0.118702
2557.04	-0.169528
2558.42	0.103293
2559.79	0.133683
2561.16	0.058527
2562.53	0.453856
2563.9	-0.135242
2565.27	-0.254098
2566.64	0.0667696
2568.01	0.524156
2569.38	0.511749
2570.75	0.362929
2572.12	-0.195131
2573.49	0.338241
2574.86	0.341192
2576.23	-0.0196915
2577.6	0.0135002
2578.97	0.425529
2580.33	-0.133253
2581.7	-0.146595
2583.07	-0.220978
2584.44	0.538191
2585.8	0.918171
2587.17	-0.0507412
2588.54	-0.00387859
2589.9	0.315876
2591.27	0.4233
2592.64	0.28776
2594	0.0302057
2595.37	-0.0768576
2596.73	-0.124377
2598.1	0.129873
2599.46	0.0810356
2600.83	0.00212574
2602.19	0.0748396
2603.55	0.480288
2604.92	-0.0797253
2606.28	0.00950432
2607.64	0.294352
2609.01	0.0354633
2610.37	0.317816
2611.73	-0.16924
2613.09	0.125209
2614.46	-0.317801
2615.82	0.155161
2617.18	-0.451927
2618.54	0.30561
2619.9	0.494006
2621.26	0.0100546
2622.62	0.0652723
2623.98	0.07586
2625.34	0.190825
2626.7	0.484302
2628.06	-0.206492
2629.42	0.309494
2630.78	-0.112875
2632.14	0.3424
2633.5	0.098731
2634.86	-0.0110016
2636.21	-0.0316162
2637.57	-0.0818605
2638.93	0.282597
2640.29	0.0400524
2641.64	0.345136
2643	0.192103
2644.36	0.629978
2645.71	0.359025
2647.07	0.368114
2648.43	0.170211
2649.78	0.0747805
2651.14	0.0816965
2652.49	-0.117355
2653.85	0.315067
2655.2	0.0145731
2656.56	-0.0792189
2657.91	-0.0399504
2659.26	0.307412
2660.62	0.0553789
2661.97	0.285713
2663.32	0.471334
2664.68	0.509854
2666.03	0.532878
2667.38	0.00152588
2668.74	0.00969791
2670.09	-0.0982618
2671.44	0.376051
2672.79	0.182014
2674.14	-0.359653
2675.49	0.130377
2676.84	0.388418
2678.19	0.197366
2679.54	0.25381
2680.89	0.267858
2682.24	0.225194
2683.59	0.125796
2684.94	0.201436
2686.29	0.640375
2687.64	0.324678
2688.99	0.167229
2690.34	0.457981
2691.69	0.0644855
2693.03	0.133865
2694.38	0.564634
2695.73	0.284585
2697.08	0.497976
2698.42	-0.011445
2699.77	0.50915
2701.12	0.452428
2702.46	0.411829
2703.81	0.763605
2705.15	0.782837
2706.5	-0.0681076
2707.85	0.0085783
2709.19	0.418781
2710.54	0.277032
2711.88	0.469003
2713.22	-0.341725
2714.57	0.0970421
2715.91	0.245198
2717.26	0.335102
2718.6	0.68664
2719.94	0.688697
2721.29	0.544704
2722.63	0.633004
2723.97	0.677113
2725.31	0.487832
2726.66	0.720224
2728	0.661144
2729.34	0.398064
2730.68	-0.025178
2732.02	0.366362
2733.36	0.292392
2734.7	0.756804
2736.04	0.261423
2737.38	0.566155
2738.72	0.419991
2740.06	0.738915
2741.4	0.257526
2742.74	0.10995
2744.08	0.22329
2745.42	0.858868
2746.76	0.433365
2748.09	0.0225258
2749.43	0.134396
2750.77	0.565448
2752.11	-0.0473986
2753.45	0.0505819
2754.78	0.0617456
2756.12	0.145453
2757.46	-0.277505
2758.79	0.0382919
2760.13	0.122777
2761.46	0.453753
2762.8	0.119573
2764.14	0.436881
2765.47	0.189881
2766.8	0.0292301
2768.14	0.200324
2769.47	0.312096
2770.81	0.436624
2772.14	0.0251417
2773.48	0.13263
2774.81	0.0519142
2776.14	0.360187
2777.48	0.308511
2778.81	0.0274401
2780.14	-0.324517
2781.47	-0.0150719
2782.8	-0.236939
2784.14	0.100739
2785.47	0.394946
2786.8	0.416829
2788.13	0.167257
2789.46	-0.0239792
2790.79	-0.45724
2792.12	-0.0172396
2793.45	0.0227737
2794.78	0.177153
2796.11	-0.111839
2797.44	0.341511
2798.77	-0.362615
2800.1	0.0323324
2801.43	-0.215305
2802.76	-0.149231
2804.09	-0.283009
2805.41	0.0671511
2806.74	-0.0107689
2808.07	0.294748
2809.4	0.457224
2810.72	0.307046
2812.05	0.14355
2813.38	0.208411
2814.71	0.288964
2816.03	0.215139
2817.36	0.525253
2818.68	0.382462
2820.01	0.0837812
2821.33	0.549975
2822.66	0.320957
2823.98	0.672213
2825.31	0.75378
2826.63	0.325557
2827.96	0.365308
2829.28	0.363199
2830.6	0.559792
2831.93	0.983101
2833.25	0.457938
2834.57	1.10726
2835.9	1.27472
2837.22	1.32829
2838.54	1.76325
2839.86	2.49471
2841.18	2.109
2842.5	2.47316
2843.83	3.44574
2845.15	3.69839
2846.47	3.59859
2847.79	4.07876
2849.11	4.03606
2850.43	4.36044
2851.75	4.10465
2853.07	4.32868
2854.39	4.87714
2855.71	4.16771
2857.03	4.94177
2858.35	4.72697
2859.66	5.40192
2860.98	5.59634
2862.3	5.74786
2863.62	5.927
2864.94	5.23082
2866.25	6.01615
2867.57	5.92707
2868.89	6.58599
2870.2	7.27351
2871.52	7.63689
2872.84	7.36554
2874.15	7.54402
2875.47	7.65032
2876.78	7.76889
2878.1	7.64682
2879.41	7.8479
2880.73	8.26008
2882.04	7.91451
2883.36	7.97817
2884.67	7.72042
2885.99	7.98314
2887.3	8.38625
2888.61	8.49382
2889.93	8.06704
2891.24	8.17205
2892.55	8.30404
2893.86	8.30955
2895.18	8.65171
2896.49	8.63096
2897.8	8.58395
2899.11	8.60857
2900.42	9.04017
2901.73	9.30461
2903.05	9.4295
2904.36	8.98113
2905.67	9.49836
2906.98	9.79271
2908.29	9.97652
2909.6	10.2737
2910.91	10.3061
2912.21	11.0804
2913.52	11.0697
2914.83	11.7987
2916.14	11.2088
2917.45	11.764
2918.76	11.156
2920.07	12.3663
2921.37	12.8779
2922.68	12.4269
2923.99	12.9848
2925.29	12.776
2926.6	13.2532
2927.91	13.3671
2929.22	13.2986
2930.52	13.5647
2931.83	13.4524
2933.13	13.7312
2934.44	13.8281
2935.74	13.6317
2937.05	13.5475
2938.35	13.4636
2939.66	13.1707
2940.96	12.8507
2942.26	12.4064
2943.57	11.9501
2944.87	11.4819
2946.18	11.4909
2947.48	11.0812
2948.78	10.4328
2950.08	10.4823
2951.39	10.207
2952.69	9.63451
2953.99	9.19996
2955.29	8.87695
2956.59	9.5491
2957.9	9.02062
2959.2	8.28609
2960.5	8.15746
2961.8	8.05978
2963.1	8.37001
2964.4	8.27278
2965.7	8.15929
2967	7.69187
2968.3	7.25027
2969.6	7.24324
2970.9	7.30638
2972.19	7.04642
2973.49	6.56169
2974.79	6.52717
2976.09	6.36507
2977.39	6.31379
2978.68	5.72509
2979.98	5.92247
2981.28	5.32989
2982.58	5.17305
2983.87	4.93245
2985.17	5.29786
2986.47	4.80804
2987.76	4.43277
2989.06	3.93238
2990.35	3.93828
2991.65	3.32519
2992.94	3.1887
2994.24	3.06476
2995.53	3.1502
2996.83	2.99599
2998.12	2.74345
2999.42	2.39328
3000.71	2.33854
3002	2.41074
3003.3	2.18921
3004.59	1.46369
3005.88	1.71864
3007.18	1.42682
3008.47	1.40019
3009.76	1.40058
3011.05	0.659616
3012.34	0.784957
3013.64	0.784599
3014.93	0.561714
3016.22	0.88326
3017.51	0.885089
3018.8	1.15195
3020.09	0.667703
3021.38	0.503267
3022.67	0.504863
3023.96	0.352808
3025.25	0.3805
3026.54	-0.0629463
3027.83	0.283731
3029.12	0.603414
3030.41	0.496045
3031.69	0.404317
3032.98	-0.210685
3034.27	-0.0244055
3035.56	0.313031
3036.84	0.304143
3038.13	0.30721
3039.42	0.432176
3040.71	0.431509
3041.99	0.182854
3043.28	0.606501
3044.57	0.455132
3045.85	0.565806
3047.14	0.337246
3048.42	0.466643
3049.71	0.77578
3050.99	0.745511
3052.28	0.634431
3053.56	0.427973
3054.85	0.821216
3056.13	0.244909
3057.41	0.0905542
3058.7	0.807566
3059.98	0.924431
3061.26	0.320442
3062.55	0.656712
3063.83	0.409679
3065.11	0.518015
3066.39	0.274491
3067.68	0.0865002
3068.96	0.551742
3070.24	0.459337
3071.52	0.420502
3072.8	-0.0410719
3074.08	0.108148
3075.36	0.161281
3076.65	0.26846
3077.93	0.240323
3079.21	-0.193576
3080.49	0.106932
3081.77	-0.0385208
3083.04	0.0209284
3084.32	0.447614
3085.6	0.250397
3086.88	0.21563
3088.16	-0.349113
3089.44	0.252839
3090.72	-0.190582
3091.99	-0.281102
3093.27	0.374706
3094.55	-0.108416
3095.83	-0.238407
3097.1	-0.151216
3098.38	-0.0504103
3099.66	0.145211
3100.93	0.462701
3102.21	0.401044
3103.49	0.190935
3104.76	-0.00485277
3106.04	-0.0778666
3107.31	0.310313
3108.59	0.266661
3109.86	0.143041
3111.14	0.413181
3112.41	0.291655
3113.69	0.360344
3114.96	0.45631
3116.23	0.55205
3117.51	0.389388
3118.78	0.659764
3120.05	0.373065
3121.33	0.424642
3122.6	0.380882
3123.87	0.621565
3125.14	0.740573
3126.41	0.196961
3127.69	0.425688
3128.96	0.939009
3130.23	0.69539
3131.5	0.506319
3132.77	0.830885
3134.04	0.547215
3135.31	0.830431
3136.58	0.397925
3137.85	0.437549
3139.12	0.827202
3140.39	0.691297
3141.66	0.74421
3142.93	0.958786
3144.2	0.569564
3145.47	0.919657
3146.74	0.975249
3148	0.696722
3149.27	1.24953
