200.563	0.513168
202.377	0.583282
204.194	0.655046
206.008	0.67964
207.821	-0.0978317
209.634	-1.2648
211.449	1.57434
213.262	-0.0345993
215.074	-0.382586
216.885	-0.440611
218.699	-0.0384293
220.51	0.194674
222.321	0.719334
224.131	0.229567
225.941	0.586859
227.751	-0.312456
229.562	-0.0771656
231.371	0.783947
233.18	0.00304031
234.988	0.139593
236.796	0.350649
238.603	-1.12162
240.411	-0.0585308
242.219	-0.292944
244.026	1.25969
245.832	0.0134182
247.638	0.0905533
249.443	0.524279
251.248	1.33775
253.053	0.045248
254.857	0.873018
256.661	0.49349
258.465	-0.173403
260.268	-0.692327
262.071	-0.581444
263.874	1.00179
265.678	0.611443
267.48	0.992397
269.282	0.793976
271.083	0.521202
272.884	0.0528774
274.684	-0.129166
276.484	-0.266388
278.284	0.0504951
280.084	0.603796
281.883	0.526377
283.682	0.348991
285.48	-0.479712
287.276	-0.204494
289.074	-0.409487
290.871	0.417093
292.668	-0.239328
294.465	0.375582
296.261	0.538155
298.057	-0.635954
299.853	0.867197
301.648	0.243044
303.443	0.357512
305.237	0.0396748
307.032	0.101797
308.823	0.0440006
310.617	0.0586357
312.41	0.17057
314.203	-0.0480061
315.995	-0.334755
317.788	0.0483284
319.579	-0.304337
321.369	0.726925
323.16	0.687349
324.951	0.79146
326.741	1.54033
328.531	1.02305
330.321	0.670879
332.108	1.24851
333.897	1.34445
335.686	1.14877
337.474	0.469738
339.26	0.528269
341.048	1.39671
342.835	1.13921
344.622	0.332125
346.406	0.529543
348.192	0.345928
349.978	0.497322
351.764	0.839367
353.547	1.25145
355.332	0.659153
357.116	0.899054
358.901	0.611677
360.682	0.917553
362.466	0.697538
364.249	0.0244713
366.03	0.443707
367.812	0.26717
369.594	0.634464
371.374	1.09387
373.155	0.533432
374.936	0.611412
376.715	0.665573
378.495	0.838364
380.273	0.258593
382.053	0.317358
383.832	0.331215
385.609	1.123
387.388	0.27142
389.164	0.0800304
390.942	0.101736
392.72	0.805782
394.495	0.641796
396.272	1.06546
398.047	0.267826
399.823	0.456074
401.597	1.13654
403.372	0.758657
405.145	1.20118
406.92	0.702736
408.693	0.437906
410.467	0.947029
412.239	1.15077
414.012	1.26129
415.783	0.387556
417.556	0.782261
419.327	1.15458
421.099	0.635429
422.869	0.702278
424.64	1.1198
426.409	1.55888
428.18	0.658089
429.948	0.953499
431.718	0.802769
433.486	0.582119
435.253	1.08952
437.022	0.30588
438.789	0.529909
440.558	0.258215
442.324	0.522259
444.089	0.758417
445.857	0.12396
447.622	1.57116
449.386	1.42481
451.153	0.601305
452.917	0.900137
454.682	0.708965
456.446	0.54122
458.208	0.815805
459.973	0.694431
461.735	1.01628
463.497	0.434278
465.259	0.902685
467.022	0.841875
468.783	0.855694
470.544	0.593777
472.306	1.17023
474.066	0.97736
475.825	0.873974
477.585	1.11576
479.346	1.70341
481.104	0.844927
482.862	0.988335
484.62	1.39014
486.38	0.910471
488.137	1.59979
489.894	0.637718
491.65	0.913301
493.407	1.54098
495.164	0.673292
496.92	0.880537
498.675	1.18124
500.43	1.22353
502.184	1.00635
503.939	1.5152
505.694	0.847204
507.448	1.13989
509.201	0.935774
510.954	0.869587
512.706	1.34153
514.459	1.38696
516.21	1.10032
517.962	2.01079
519.715	1.1085
521.466	1.49777
523.216	1.20465
524.966	0.348089
526.716	1.60354
528.466	1.52125
530.215	1.08724
531.964	1.26174
533.712	1.62163
535.46	1.69797
537.208	1.4208
538.955	1.11802
540.703	1.76962
542.449	0.205488
544.196	1.52889
545.942	1.26906
547.688	0.290749
549.433	1.30858
551.178	0.657377
552.923	1.32625
554.667	1.09293
556.412	1.27604
558.155	0.629379
559.899	0.514708
561.642	0.976694
563.385	0.817989
565.127	0.200918
566.867	0.986988
568.609	1.06196
570.35	0.61112
572.092	1.31025
573.832	-0.189796
575.573	0.102749
577.313	0.742643
579.053	0.352375
580.79	0.445438
582.529	0.354876
584.268	0.35511
586.006	-0.244587
587.745	0.924389
589.482	0.641993
591.218	0.633896
592.955	1.66015
594.692	0.684452
596.428	0.284019
598.164	0.320631
599.898	0.241493
601.634	-0.483332
603.369	-0.0373344
605.104	0.152798
606.836	-0.417868
608.57	-0.369356
610.304	0.0690231
612.037	-0.13443
613.769	0.810123
615.501	0.219618
617.234	0.866953
618.966	0.459297
620.696	0.576397
622.427	1.03409
624.159	0.209457
625.887	0.459677
627.618	0.665968
629.348	0.305357
631.076	0.519815
632.806	0.874989
634.535	0.77574
636.262	0.515926
637.99	0.823387
639.716	1.14835
641.444	1.26194
643.172	1.50735
644.897	0.133564
646.624	0.90111
648.348	0.602896
650.075	-0.302467
651.801	-0.0871239
653.524	0.249111
655.249	-0.36356
656.972	0.25639
658.697	-0.00973129
660.419	-0.186007
662.143	0.27396
663.865	0.250368
665.588	0.176542
667.309	0.122066
669.032	0.157776
670.752	0.217958
672.474	0.670864
674.194	-0.0391159
675.915	-0.654657
677.634	0.405807
679.355	-0.414829
681.073	0.163544
682.793	0.555521
684.511	0.0232315
686.23	0.361917
687.947	0.00694466
689.664	0.202776
691.382	0.67371
693.098	-0.123407
694.816	0.598301
696.531	-0.155785
698.247	1.09109
699.963	0.654903
701.678	0.860931
703.392	0.306526
705.108	0.0501137
706.821	0.66522
708.534	0.957579
710.249	0.882122
711.962	-0.246874
713.674	0.866976
715.388	0.835896
717.099	0.941826
718.81	0.249413
720.523	0.492918
722.234	0.94128
723.944	0.865698
725.654	0.471783
727.365	0.350531
729.075	0.455681
730.784	0.0157719
732.492	0.504572
734.202	0.0418396
735.91	0.597258
737.618	0.858774
739.325	1.12112
741.034	0.956615
742.741	0.86227
744.447	1.06327
746.153	0.479156
747.859	1.06786
749.564	1.00654
751.271	0.36289
752.976	0.441425
754.681	0.657528
756.385	1.01155
758.088	1.63898
759.792	1.07579
761.495	-0.00464439
763.2	1.26093
764.902	0.94721
766.604	1.03768
768.306	1.1927
770.008	1.79608
771.709	0.60939
773.41	1.61365
775.11	1.3056
776.811	1.22482
778.51	1.98314
780.21	1.27452
781.909	0.8843
783.608	1.1051
785.307	1.82192
787.005	1.33469
788.703	1.67913
790.401	1.31604
792.098	1.26497
793.795	1.30149
795.492	1.33757
797.188	0.383753
798.884	1.1685
800.58	0.807686
802.276	0.96722
803.971	1.48764
805.665	1.13064
807.36	1.31172
809.054	1.84976
810.748	2.1381
812.441	1.63953
814.135	1.40962
815.826	1.6498
817.518	1.50928
819.21	1.23509
820.902	1.72091
822.594	2.05055
824.285	1.48948
825.976	0.976444
827.665	1.96021
829.355	1.72384
831.045	1.29277
832.735	1.86932
834.424	1.73699
836.111	1.71787
837.8	1.65368
839.488	1.5426
841.177	1.69657
842.864	1.82588
844.55	1.57459
846.237	1.43635
847.924	2.17352
849.61	2.02122
851.295	1.64954
852.98	1.3032
854.666	1.90032
856.349	1.86933
858.034	1.81369
859.719	2.15987
861.403	0.836792
863.085	1.22149
864.769	0.747829
866.452	1.55724
868.133	1.35122
869.816	1.03155
871.498	1.3654
873.179	1.22527
874.86	1.19781
876.54	0.922199
878.221	2.09108
879.902	1.36395
881.58	0.884338
883.26	1.19349
884.938	1.83922
886.618	1.30849
888.297	0.933067
889.974	1.68258
891.653	1.07629
893.329	1.32415
895.007	1.11942
896.683	1.18287
898.36	0.88504
900.035	1.59553
901.712	1.51875
903.387	1.23982
905.063	0.938929
906.737	0.4608
908.412	0.0518951
910.085	1.38247
911.76	0.86562
913.433	0.528923
915.107	1.43685
916.779	1.12324
918.452	0.876593
920.124	0.320763
921.797	0.342159
923.467	2.26659
925.138	1.62926
926.81	0.974165
928.48	0.477297
930.151	0.667027
931.82	0.615276
933.489	1.24792
935.16	1.5058
936.828	0.992613
938.496	1.27517
940.165	1.09694
941.833	0.435646
943.5	1.03318
945.168	1.01269
946.834	1.07831
948.5	1.20669
950.168	-0.147118
951.834	1.27749
953.499	1.73109
955.163	0.974905
956.83	-0.0184402
958.494	0.383453
960.158	1.09987
961.821	0.936506
963.487	-0.266382
965.15	0.339773
966.812	0.499044
968.474	0.277117
970.138	1.20187
971.8	0.797718
973.461	0.284166
975.123	0.56959
976.783	0.902714
978.446	1.10608
980.106	0.768612
981.766	0.430162
983.425	0.410057
985.084	0.696276
986.743	1.08923
988.402	1.94317
990.06	1.42301
991.72	0.592842
993.378	0.558517
995.035	0.811426
996.692	1.46141
998.349	0.699539
1000.01	1.4145
1001.66	2.14986
1003.32	1.84915
1004.97	0.998524
1006.63	1.4674
1008.28	0.552534
1009.94	0.692892
1011.59	0.63658
1013.25	0.71274
1014.9	0.636278
1016.55	0.122911
1018.21	0.573792
1019.86	0.829004
1021.51	0.976744
1023.16	1.60743
1024.81	0.316599
1026.47	1.29979
1028.12	0.753325
1029.77	1.40731
1031.42	1.03217
1033.07	1.44013
1034.72	1.90993
1036.37	0.65419
1038.02	2.36147
1039.67	1.06224
1041.31	1.70217
1042.96	1.88741
1044.61	0.772436
1046.26	1.09556
1047.91	1.1616
1049.55	1.29598
1051.2	1.23733
1052.84	1.54955
1054.49	1.05863
1056.14	0.893511
1057.78	2.07563
1059.43	1.66998
1061.07	1.98054
1062.72	1.76773
1064.36	1.48789
1066	1.61913
1067.65	1.50914
1069.29	1.41908
1070.93	1.02389
1072.58	1.32346
1074.22	0.972906
1075.86	1.62242
1077.5	0.647791
1079.14	1.10698
1080.78	0.786913
1082.42	1.46427
1084.06	1.83621
1085.7	1.40277
1087.34	1.09567
1088.98	1.52114
1090.62	1.16379
1092.26	1.15068
1093.9	1.13673
1095.54	0.929102
1097.17	1.58571
1098.81	1.81326
1100.45	0.60178
1102.09	0.36344
1103.72	1.76351
1105.36	0.950153
1106.99	1.64355
1108.63	0.185669
1110.27	1.26325
1111.9	0.811218
1113.53	1.15133
1115.17	2.26152
1116.8	1.93184
1118.43	1.25995
1120.07	1.40443
1121.7	0.951227
1123.33	1.48502
1124.97	1.35712
1126.6	1.50907
1128.23	2.0688
1129.86	1.06898
1131.49	2.52909
1133.12	1.6808
1134.75	0.960604
1136.38	1.03012
1138.01	0.477964
1139.64	0.265673
1141.27	0.329283
1142.9	0.669365
1144.53	0.817495
1146.16	0.604467
1147.78	0.81966
1149.41	0.631594
1151.04	0.380615
1152.67	0.257517
1154.29	0.346733
1155.92	0.839542
1157.54	0.268097
1159.17	0.612318
1160.8	0.554005
1162.42	0.497841
1164.05	-0.109232
1165.67	-0.843002
1167.29	0.846571
1168.92	0.322889
1170.54	0.625147
1172.16	0.583643
1173.79	0.602602
1175.41	0.110138
1177.03	0.825834
1178.65	-0.132427
1180.28	-0.347136
1181.9	0.243889
1183.52	-0.876978
1185.14	0.0740395
1186.76	-0.202536
1188.38	1.16393
1190	0.669451
1191.62	0.825077
1193.24	0.0105057
1194.86	1.2331
1196.47	0.984991
1198.09	-0.223629
1199.71	0.205086
1201.33	0.992462
1202.95	1.40786
1204.56	0.930439
1206.18	0.624252
1207.8	0.883833
1209.41	1.26894
1211.03	0.275837
1212.64	0.38509
1214.26	0.636034
1215.87	0.861715
1217.49	0.834116
1219.1	1.01256
1220.71	1.54338
1222.33	0.975483
1223.94	1.65418
1225.55	1.63081
1227.16	1.92079
1228.78	1.53068
1230.39	2.30113
1232	0.138287
1233.61	1.26462
1235.22	2.04178
1236.83	1.60183
1238.44	2.36276
1240.05	2.27747
1241.66	2.29587
1243.27	2.43773
1244.88	1.64695
1246.49	1.88873
1248.1	3.05975
1249.71	2.40838
1251.32	1.96351
1252.92	2.78099
1254.53	3.1034
1256.14	2.642
1257.74	1.97607
1259.35	3.19514
1260.96	2.76065
1262.56	3.23792
1264.17	2.43116
1265.77	2.63843
1267.38	3.13456
1268.98	3.42166
1270.59	3.9141
1272.19	2.642
1273.79	3.37901
1275.4	3.32615
1277	3.16783
1278.6	3.69156
1280.21	3.24049
1281.81	3.30664
1283.41	2.89721
1285.01	2.86145
1286.61	3.5717
1288.21	3.4983
1289.81	4.31536
1291.41	3.27354
1293.01	3.71926
1294.61	3.35767
1296.21	5.01748
1297.81	3.45239
1299.41	4.05176
1301.01	4.64725
1302.6	4.29175
1304.2	3.62625
1305.8	3.8857
1307.4	4.53377
1308.99	4.81063
1310.59	3.65253
1312.19	4.2786
1313.78	4.29151
1315.38	4.14299
1316.97	3.91499
1318.57	4.17805
1320.16	3.88999
1321.76	3.70232
1323.35	4.52927
1324.94	3.90781
1326.54	3.52868
1328.13	4.10227
1329.72	3.62287
1331.32	4.0579
1332.91	4.15314
1334.5	4.05087
1336.09	4.31517
1337.68	4.43902
1339.27	3.91626
1340.87	4.19638
1342.45	3.32474
1344.04	4.42074
1345.64	3.46445
1347.22	3.55359
1348.81	3.38556
1350.4	2.84246
1351.99	3.08502
1353.58	3.07137
1355.17	3.57981
1356.75	3.16947
1358.34	2.19915
1359.93	1.82675
1361.51	2.25106
1363.1	2.23455
1364.69	2.63609
1366.27	2.28059
1367.86	2.06639
1369.44	2.13333
1371.03	2.16303
1372.61	2.19526
1374.2	2.07037
1375.78	3.3992
1377.37	1.44491
1378.95	2.6734
1380.53	2.04941
1382.11	2.99465
1383.7	2.02787
1385.28	2.80917
1386.86	2.53597
1388.44	2.4421
1390.02	2.21062
1391.6	1.78254
1393.19	2.90342
1394.77	2.85429
1396.35	3.28065
1397.93	2.25831
1399.51	2.76052
1401.08	2.5277
1402.66	2.7691
1404.24	2.37717
1405.82	2.28325
1407.4	2.86298
1408.97	1.88301
1410.55	2.40568
1412.13	2.41449
1413.71	3.01431
1415.28	2.88187
1416.86	2.45217
1418.43	2.47555
1420.01	2.93295
1421.59	2.78161
1423.16	2.47586
1424.73	2.90149
1426.31	3.27033
1427.88	3.7976
1429.46	4.99348
1431.03	4.2192
1432.6	4.52508
1434.18	5.51742
1435.75	6.11496
1437.32	6.516
1438.89	6.58432
1440.46	6.30105
1442.04	6.47187
1443.61	6.40834
1445.18	6.14906
1446.75	5.55596
1448.32	5.72969
1449.89	6.8674
1451.46	6.37443
1453.03	6.31507
1454.6	6.8269
1456.16	6.15822
1457.73	6.11753
1459.3	5.66076
1460.87	6.20395
1462.44	5.34612
1464	5.15412
1465.57	5.43179
1467.14	4.66739
1468.7	4.10092
1470.27	4.41982
1471.83	3.62252
1473.4	3.16112
1474.96	3.5053
1476.53	2.98744
1478.09	3.05798
1479.66	2.89314
1481.22	2.33615
1482.78	2.50419
1484.35	1.86857
1485.91	2.93678
1487.47	1.94658
1489.04	2.32497
1490.6	2.05388
1492.16	1.72054
1493.72	1.8331
1495.28	1.00587
1496.84	2.0492
1498.4	1.29939
1499.96	1.54359
1501.52	1.32323
1503.08	2.21072
1504.64	1.41251
1506.2	1.64205
1507.76	1.32852
1509.32	1.26489
1510.88	0.678432
1512.44	0.785648
1513.99	0.94972
1515.55	1.19056
1517.11	0.644829
1518.66	0.945335
1520.22	0.633282
1521.78	1.3745
1523.33	0.985861
1524.89	0.558514
1526.44	1.48414
1528	0.88254
1529.55	0.928118
1531.11	0.176179
1532.66	1.11456
1534.21	0.65082
1535.77	0.88972
1537.32	1.50752
1538.87	0.785191
1540.43	1.9127
1541.98	1.39933
1543.53	0.98084
1545.08	1.12681
1546.63	1.66649
1548.18	1.58564
1549.74	1.14877
1551.29	1.21865
1552.84	1.92527
1554.39	1.88471
1555.94	1.09968
1557.48	1.23322
1559.03	1.51924
1560.58	2.2374
1562.13	1.55912
1563.68	1.94605
1565.23	1.10253
1566.78	1.90107
1568.32	0.982273
1569.87	1.66786
1571.42	1.55018
1572.96	1.86135
1574.51	1.70555
1576.05	2.01647
1577.6	1.89838
1579.14	2.77047
1580.69	1.88865
1582.24	2.93154
1583.78	2.23901
1585.32	2.03318
1586.87	3.02457
1588.41	1.80981
1589.95	2.01576
1591.5	2.38952
1593.04	2.70651
1594.58	2.57362
1596.12	3.20893
1597.67	2.57089
1599.21	2.87103
1600.75	3.00381
1602.29	3.51288
1603.83	3.23363
1605.37	3.02792
1606.91	3.34572
1608.45	3.47204
1609.99	3.42492
1611.53	2.52807
1613.07	2.98057
1614.6	2.3793
1616.14	3.24098
1617.68	2.39682
1619.22	2.30501
1620.75	2.77769
1622.29	2.09161
1623.83	2.88607
1625.37	2.51971
1626.9	2.84447
1628.44	2.39966
1629.97	2.34544
1631.51	2.99964
1633.04	2.88662
1634.58	3.01697
1636.11	2.81279
1637.65	3.44964
1639.18	3.06171
1640.72	2.99085
1642.25	3.42183
1643.78	2.97525
1645.31	3.23409
1646.85	3.08186
1648.38	3.63538
1649.91	3.50187
1651.44	4.11257
1652.97	3.50083
1654.5	4.93102
1656.03	3.41441
1657.56	4.69633
1659.1	4.06808
1660.62	3.49346
1662.15	4.17476
1663.68	3.11543
1665.21	3.90368
1666.74	3.2704
1668.27	3.85718
1669.8	3.59814
1671.32	3.24992
1672.85	3.06962
1674.38	3.1848
1675.91	2.9312
1677.43	2.67626
1678.96	2.82427
1680.49	2.78639
1682.01	2.52673
1683.54	2.59733
1685.06	1.36516
1686.59	2.07896
1688.11	2.29781
1689.64	1.47294
1691.16	1.94921
1692.68	1.41861
1694.21	1.16274
1695.73	1.2176
1697.25	1.12577
1698.78	1.36213
1700.3	0.940479
1701.82	0.755559
1703.34	0.697499
1704.86	-0.144382
1706.39	0.833761
1707.91	1.19171
1709.43	1.13116
1710.95	0.508271
1712.47	1.13778
1713.99	0.498318
1715.51	1.50723
1717.02	0.995045
1718.54	0.375012
1720.06	0.315639
1721.58	0.437046
1723.1	0.721411
1724.62	0.628663
1726.13	0.880272
1727.65	0.611824
1729.17	0.974896
1730.68	0.601958
1732.2	0.0756388
1733.72	1.04738
1735.23	0.0875731
1736.75	0.289904
1738.26	0.436804
1739.78	0.528865
1741.29	0.482971
1742.81	0.390382
1744.32	0.255632
1745.84	0.499551
1747.35	0.201372
1748.86	0.320954
1750.37	0.582537
1751.89	0.38551
1753.4	-0.922492
1754.91	0.101256
1756.42	-0.0640564
1757.93	-0.0765352
1759.45	0.146071
1760.96	0.402974
1762.47	0.279152
1763.98	0.0281677
1765.49	0.00098896
1767	0.607327
1768.51	0.46972
1770.02	-0.502013
1771.53	-0.0812073
1773.03	0.75843
1774.54	0.241201
1776.05	0.445366
1777.56	0.434798
1779.07	0.188672
1780.57	0.325372
1782.08	0.29507
1783.59	-0.106701
1785.09	0.178029
1786.6	0.317102
1788.11	0.0729141
1789.61	0.767673
1791.12	0.352497
1792.62	0.116666
1794.13	0.152602
1795.63	0.225849
1797.13	0.326873
1798.64	0.0238018
1800.14	-0.262658
1801.65	0.202388
1803.15	-0.0216064
1804.65	-0.299212
1806.15	-0.0802774
1807.66	-0.00494289
1809.16	-0.0338154
1810.66	0.104757
1812.16	0.324272
1813.66	-0.180278
1815.16	-0.323583
1816.66	0.190919
1818.16	0.104553
1819.66	-0.0936489
1821.16	-0.0778618
1822.66	-0.0105677
1824.16	0.552472
1825.66	0.186563
1827.16	0.0985041
1828.66	0.113466
1830.16	0.0496521
1831.65	0.479422
1833.15	-0.121248
1834.65	-0.295097
1836.14	0.078002
1837.64	-0.111812
1839.14	-0.504151
1840.63	0.332824
1842.13	-0.0537119
1843.62	0.159516
1845.12	-0.0216389
1846.61	0.142102
1848.11	-0.0716372
1849.6	0.52052
1851.1	0.0132084
1852.59	-0.242448
1854.08	-0.111174
1855.58	-0.0611515
1857.07	-0.0280819
1858.56	-0.0216608
1860.05	-0.224907
1861.55	-0.25651
1863.04	-0.167293
1864.53	0.342453
1866.02	-0.0819597
1867.51	-0.0329361
1869	0.0598249
1870.49	-0.0767784
1871.98	0.116487
1873.47	0.0738096
1874.96	0.209328
1876.45	0.0303869
1877.94	-0.224989
1879.43	0.0303087
1880.92	-0.101618
1882.41	0.286168
1882.51	0.314061
1884	0.0349617
1885.5	0.539051
1886.99	0.0833874
1888.48	-0.00701904
1889.98	-0.0274801
1891.47	-0.568231
1892.96	0.197631
1894.46	0.253161
1895.95	0.328403
1897.44	0.248413
1898.93	-0.197069
1900.42	-0.0352621
1901.91	0.367701
1903.41	0.0374165
1904.9	0.0876398
1906.39	0.796838
1907.88	0.65433
1909.37	-0.129347
1910.86	-0.0434761
1912.35	0.19978
1913.83	0.322368
1915.32	-0.17921
1916.81	0.0470667
1918.3	-0.368855
1919.79	0.185097
1921.27	0.149625
1922.76	0.20134
1924.25	0.271634
1925.74	0.551338
1927.22	-0.154133
1928.71	0.457112
1930.19	0.098732
1931.68	0.293267
1933.17	0.208575
1934.65	-0.138365
1936.14	0.100761
1937.62	0.389709
1939.11	0.591161
1940.59	0.343824
1942.07	0.046279
1943.56	0.268077
1945.04	0.180597
1946.52	-0.216562
1948.01	0.299567
1949.49	0.194057
1950.97	-0.050581
1952.45	-0.124236
1953.93	0.661119
1955.42	0.259595
1956.9	0.546071
1958.38	-0.350993
1959.86	-0.0452614
1961.34	-0.20198
1962.82	0.190207
1964.3	-0.120649
1965.78	-0.620333
1967.26	-0.0593185
1968.74	0.568483
1970.21	-0.138678
1971.69	0.572437
1973.17	0.190068
1974.65	0.251841
1976.13	0.0581303
1977.6	-0.0499096
1979.08	-0.0725546
1980.56	-0.741594
1982.03	0.714828
1983.51	0.19835
1984.99	-0.199063
1986.46	0.0143347
1987.94	0.210423
1989.41	0.592939
1990.89	0.112865
1992.36	-0.026969
1993.84	0.392677
1995.31	-0.0824471
1996.78	0.355662
1998.26	0.134796
1999.73	-0.238486
2001.2	0.383274
2002.68	0.17725
2004.15	0.139796
2005.62	0.0354614
2007.09	0.0333529
2008.56	-0.539896
2010.04	0.285686
2011.51	-0.150703
2012.98	0.204167
2014.45	-0.030674
2015.92	0.120423
2017.39	0.270094
2018.86	-0.136332
2020.33	0.263331
2021.8	-0.143719
2023.26	0.171868
2024.73	-0.23315
2026.2	0.454095
2027.67	0.673608
2029.14	0.207695
2030.61	-0.00471783
2032.07	0.0862341
2033.54	0.429779
2035.01	0.739966
2036.47	0.243449
2037.94	-0.0357018
2039.4	-0.281948
2040.87	-0.0408878
2042.33	0.469848
2043.8	0.275564
2045.27	-0.119471
2046.73	0.0417986
2048.19	0.304761
2049.66	-0.19089
2051.12	0.238923
2052.59	0.75106
2054.05	0.349865
2055.51	0.0641565
2056.97	-0.0379868
2058.44	0.65076
2059.9	0.125947
2061.36	0.225119
2062.82	-0.0280704
2064.28	-0.145054
2065.74	0.261114
2067.21	0.214132
2068.67	0.218506
2070.13	0.475842
2071.59	-0.0242491
2073.05	0.199343
2074.51	-0.0825729
2075.96	0.561199
2077.42	0.564547
2078.88	0.1463
2080.34	0.0136967
2081.8	0.0150213
2083.26	0.6887
2084.72	0.418573
2086.17	0.248471
2087.63	0.0944204
2089.09	0.72978
2090.54	0.524339
2092	0.419729
2093.45	0.650697
2094.91	0.411468
2096.37	0.272361
2097.82	0.634926
2099.28	0.577639
2100.73	0.419625
2102.19	0.546242
2103.64	0.857581
2105.09	0.719859
2106.55	0.500936
2108	1.15102
2109.45	0.650757
2110.91	0.583401
2112.36	0.830761
2113.81	0.409214
2115.26	0.718057
2116.72	0.875407
2118.17	1.14922
2119.62	0.876871
2121.07	0.989301
2122.52	0.242159
2123.97	0.940117
2125.42	1.09174
2126.87	0.861642
2128.32	1.4258
2129.77	1.57327
2131.22	0.873921
2132.67	1.00176
2134.11	1.39407
2135.56	1.35726
2137.01	1.50452
2138.46	1.58846
2139.91	1.69183
2141.35	1.1531
2142.8	1.70724
2144.25	1.68382
2145.7	1.71025
2147.14	1.40513
2148.59	1.89383
2150.03	1.90104
2151.48	1.74101
2152.92	2.29192
2154.37	1.68172
2155.81	1.68387
2157.26	2.24934
2158.7	2.71647
2160.15	2.02614
2161.59	2.29938
2163.03	2.22759
2164.47	2.47336
2165.92	2.20616
2167.36	2.20428
2168.8	2.2839
2170.24	2.47725
2171.69	2.41785
2173.13	1.8729
2174.57	2.5235
2176.01	2.62414
2177.45	2.55879
2178.89	2.61104
2180.33	2.33235
2181.77	2.17142
2183.21	2.54353
2184.65	2.21765
2186.09	2.93982
2187.53	1.9485
2188.97	2.68767
2190.4	2.41171
2191.84	2.11859
2193.28	2.00742
2194.72	2.39367
2196.16	1.96134
2197.59	2.02536
2199.03	1.57119
2200.47	2.04649
2201.9	1.82352
2203.34	1.28666
2204.77	1.24953
2206.21	1.69462
2207.64	1.47748
2209.08	1.5749
2210.51	1.80347
2211.95	1.10396
2213.38	1.74313
2214.82	1.42317
2216.25	1.13757
2217.68	1.16743
2219.12	1.28157
2220.55	1.34748
2221.98	0.85321
2223.41	1.51151
2224.85	0.767496
2226.28	1.05856
2227.71	0.458939
2229.14	0.581248
2230.57	0.849821
2232	0.527554
2233.43	1.05757
2234.86	0.62281
2236.29	0.615353
2237.72	0.332651
2239.15	0.314048
2240.58	0.477724
2242.01	0.676539
2243.44	0.991325
2244.87	0.0996704
2246.29	0.740325
2247.72	0.905652
2249.15	0.334143
2250.58	0.428035
2252.01	0.112336
2253.43	0.950602
2254.86	0.552976
2256.29	1.29449
2257.71	0.837885
2259.14	0.272223
2260.56	1.10612
2261.99	0.239783
2263.41	-0.219107
2264.84	0.491998
2266.26	0.0489454
2267.69	0.547884
2269.11	0.0531912
2270.53	0.175672
2271.96	0.72084
2273.38	0.337683
2274.8	0.573483
2276.23	0.940051
2277.65	0.0358152
2279.07	0.304973
2280.49	0.606806
2281.91	0.370361
2283.34	0.45998
2284.76	0.908698
2286.18	0.737697
2287.6	0.387527
2289.02	0.00508499
2290.44	0.243847
2291.86	0.270694
2293.28	0.346816
2294.7	0.063015
2296.12	0.2208
2297.54	0.165765
2298.96	-0.479018
2300.37	0.219842
2301.79	0.00148392
2303.21	-0.118262
2304.63	0.0903835
2306.04	0.299148
2307.46	0.474774
2308.88	0.238842
2310.3	-0.178998
2311.71	0.224781
2313.13	0.0857697
2314.54	-0.0692415
2315.96	-0.0587006
2317.37	0.101198
2318.79	0.36081
2320.2	0.0596104
2321.62	0.0206175
2323.03	0.111036
2324.45	0.214737
2325.86	0.46371
2327.27	0.512191
2328.69	0.922072
2330.1	0.327003
2331.51	0.0959845
2332.92	0.311075
2334.34	0.0830021
2335.75	-0.309111
2337.16	-0.0273342
2338.57	0.302248
2339.98	0.317711
2341.39	0.249697
2342.8	0.476435
2344.21	0.407614
2345.63	0.191766
2347.04	0.304182
2348.45	0.0891285
2349.85	0.348218
2351.26	0.0500698
2352.67	-0.183643
2354.08	0.299715
2355.49	0.25953
2356.9	-0.481188
2358.3	-0.439657
2359.71	-0.755499
2361.12	0.179197
2362.53	0.171538
2363.93	0.228535
2365.34	0.544175
2366.75	-0.481971
2368.15	0.190035
2369.56	0.216975
2370.97	0.00394154
2372.37	0.0507956
2373.77	-0.448496
2375.18	-0.238583
2376.59	0.115453
2377.99	-0.384595
2379.39	0.383305
2380.8	0.29674
2382.2	0.0640259
2383.6	-0.345595
2385.01	-0.35465
2386.41	0.0841827
2387.81	0.52326
2389.21	0.516722
2390.62	0.0340662
2392.02	0.0950537
2393.42	0.141459
2394.82	-0.160909
2396.22	0.110272
2397.62	0.223216
2399.02	-0.235105
2400.42	0.0382071
2401.82	0.391273
2403.22	0.188453
2404.62	-0.268864
2406.02	-0.0921679
2407.42	-0.535696
2408.82	-0.599252
2410.22	0.810958
2411.62	0.049509
2413.01	-0.235038
2414.41	-0.264364
2415.81	0.262363
2417.21	0.11018
2418.6	0.117568
2420	0.220492
2421.4	-0.104384
2422.79	0.520691
2424.19	0.337464
2425.59	-0.43206
2426.98	0.050931
2428.38	0.313379
2429.77	0.688335
2431.17	0.302998
2432.56	-0.336478
2433.95	0.531513
2435.35	0.826631
2436.74	0.341157
2438.14	0.298337
2439.53	0.063077
2440.92	0.509495
2442.31	0.700834
2443.71	-0.108087
2445.1	0.03508
2446.49	0.336441
2447.88	0.0192909
2449.27	0.272636
2450.67	0.0668955
2452.06	0.305206
2453.45	0.465322
2454.84	0.420905
2456.23	0.235116
2457.62	0.571785
2459.01	0.0382681
2460.4	0.75341
2461.79	0.407788
2463.18	0.077033
2464.57	0.18807
2465.95	0.124857
2467.34	0.0773373
2468.73	0.266446
2470.12	0.234299
2471.5	0.106966
2472.89	-0.225963
2474.28	-0.0714931
2475.67	0.14477
2477.05	-0.347127
2478.44	0.575098
2479.82	0.758529
2481.21	0.628304
2482.6	-0.0345125
2483.98	0.054512
2485.37	-0.311388
2486.75	0.149953
2488.13	0.202997
2489.52	0.23927
2490.9	-0.160578
2492.29	0.0319586
2493.67	-0.0229597
2495.05	-0.200058
2496.44	0.0278349
2497.82	0.225567
2499.2	0.0364332
2500.58	0.00177574
2501.97	-0.018446
2503.35	0.623974
2504.73	0.0298452
2506.11	0.453032
2507.49	0.551701
2508.87	-0.456601
2510.25	-0.126089
2511.63	0.127889
2513.01	-0.169396
2514.39	-0.327191
2515.77	0.572501
2517.15	0.0648165
2518.53	0.0629654
2519.91	-0.0456219
2521.29	0.24263
2522.67	0.361728
2524.05	-0.00860596
2525.42	0.367399
2526.8	0.331244
2528.18	0.752151
2529.55	0.307277
2530.93	0.594613
2532.31	-0.0275564
2533.69	0.507018
2535.06	-0.279232
2536.44	0.0131502
2537.81	0.274199
2539.19	0.624949
2540.56	0.230351
2541.94	-0.0431032
2543.31	0.245347
2544.69	0.565122
2546.06	0.128122
2547.44	0.542252
2548.81	-0.134685
2550.18	0.159398
2551.56	0.225259
2552.93	0.654078
2554.3	-0.162974
2555.67	0.323757
2557.04	0.506099
2558.42	0.157412
2559.79	0.339821
2561.16	0.17427
2562.53	-0.00552845
2563.9	0.103395
2565.27	0.288659
2566.64	0.413631
2568.01	0.190157
2569.38	0.209139
2570.75	0.137162
2572.12	0.413828
2573.49	0.584514
2574.86	0.725013
2576.23	0.774592
2577.6	0.172072
2578.97	0.221154
2580.33	0.360711
2581.7	-0.228136
2583.07	0.289344
2584.44	0.503175
2585.8	0.3379
2587.17	0.49109
2588.54	0.371692
2589.9	0.661622
2591.27	0.405787
2592.64	-0.214308
2594	-0.123305
2595.37	0.117682
2596.73	0.235947
2598.1	0.564753
2599.46	0.423921
2600.83	0.31358
2602.19	0.158719
2603.55	0.518148
2604.92	0.651709
2606.28	0.242392
2607.64	0.707479
2609.01	0.326929
2610.37	0.035471
2611.73	-0.00154972
2613.09	0.215501
2614.46	-0.00460434
2615.82	0.255533
2617.18	-0.0242357
2618.54	0.476097
2619.9	0.632427
2621.26	0.520399
2622.62	0.125353
2623.98	0.223906
2625.34	0.352063
2626.7	0.375291
2628.06	0.263875
2629.42	0.152175
2630.78	0.174232
2632.14	0.285262
2633.5	0.381155
2634.86	0.313563
2636.21	-0.243385
2637.57	0.504512
2638.93	0.274031
2640.29	0.236431
2641.64	0.347049
2643	0.265816
2644.36	0.31777
2645.71	0.000699043
2647.07	-0.0511303
2648.43	-0.148028
2649.78	0.416332
2651.14	-0.0210752
2652.49	0.144064
2653.85	0.191755
2655.2	0.665415
2656.56	-0.00258732
2657.91	0.151556
2659.26	0.321358
2660.62	0.184484
2661.97	0.325197
2663.32	0.304241
2664.68	0.267553
2666.03	0.273582
2667.38	0.42463
2668.74	0.47333
2670.09	-0.161544
2671.44	0.673694
2672.79	0.331725
2674.14	0.412152
2675.49	-0.174404
2676.84	0.473539
2678.19	-0.241445
2679.54	0.393562
2680.89	0.188877
2682.24	0.44978
2683.59	0.204858
2684.94	0.425291
2686.29	0.443367
2687.64	0.417683
2688.99	0.216105
2690.34	0.317006
2691.69	0.0379438
2693.03	0.612913
2694.38	0.0838757
2695.73	0.584081
2697.08	0.331347
2698.42	0.355716
2699.77	0.585107
2701.12	0.223244
2702.46	0.413732
2703.81	0.634792
2705.15	0.436348
2706.5	0.353816
2707.85	0.430438
2709.19	0.332328
2710.54	0.436887
2711.88	0.207001
2713.22	0.543458
2714.57	0.691046
2715.91	0.896765
2717.26	0.578783
2718.6	0.740329
2719.94	0.814087
2721.29	1.1637
2722.63	0.683038
2723.97	1.1477
2725.31	0.316262
2726.66	0.692362
2728	0.587658
2729.34	0.875507
2730.68	0.784742
2732.02	0.30111
2733.36	1.02509
2734.7	0.745495
2736.04	0.349865
2737.38	0.230783
2738.72	0.213466
2740.06	0.879258
2741.4	0.715414
2742.74	0.492517
2744.08	-0.138202
2745.42	0.901291
2746.76	0.269324
2748.09	0.726253
2749.43	0.109144
2750.77	0.145444
2752.11	0.529985
2753.45	-0.47674
2754.78	-0.598815
2756.12	0.568385
2757.46	0.0699558
2758.79	0.00640488
2760.13	-0.186874
2761.46	-0.0755539
2762.8	-0.108322
2764.14	-0.241957
2765.47	0.159728
2766.8	0.372641
2768.14	0.164706
2769.47	0.0996704
2770.81	-0.444239
2772.14	0.440338
2773.48	0.0378628
2774.81	0.0101051
2776.14	0.054328
2777.48	0.286022
2778.81	-0.330331
2780.14	-0.269687
2781.47	-0.395394
2782.8	-0.305563
2784.14	0.0135069
2785.47	-0.0261946
2786.8	0.163556
2788.13	0.0674639
2789.46	0.215778
2790.79	0.0648766
2792.12	0.000939369
2793.45	0.695315
2794.78	-0.382756
2796.11	0.0966482
2797.44	-0.22489
2798.77	0.052702
2800.1	0.200998
2801.43	-0.10772
2802.76	0.125384
2804.09	0.229618
2805.41	0.290376
2806.74	0.691776
2808.07	-0.273742
2809.4	-0.144079
2810.72	-0.170812
2812.05	0.399327
2813.38	0.105204
2814.71	-0.257496
2816.03	0.317524
2817.36	0.284532
2818.68	0.450824
2820.01	0.0218477
2821.33	-0.0250549
2822.66	0.578982
2823.98	0.530165
2825.31	0.395864
2826.63	0.530747
2827.96	0.312359
2829.28	0.562015
2830.6	0.599976
2831.93	0.793963
2833.25	0.902935
2834.57	2.03051
2835.9	1.10503
2837.22	2.04675
2838.54	2.40738
2839.86	2.61193
2841.18	3.12758
2842.5	3.9264
2843.83	4.51409
2845.15	5.3291
2846.47	5.72129
2847.79	6.2273
2849.11	6.46487
2850.43	6.3768
2851.75	6.95209
2853.07	6.79141
2854.39	6.87022
2855.71	6.46828
2857.03	6.74451
2858.35	6.97842
2859.66	7.36757
2860.98	7.29033
2862.3	7.90425
2863.62	8.29135
2864.94	8.32497
2866.25	8.86638
2867.57	8.7734
2868.89	9.31588
2870.2	9.45023
2871.52	9.79633
2872.84	10.1559
2874.15	9.64018
2875.47	10.2494
2876.78	10.3772
2878.1	10.7846
2879.41	10.5159
2880.73	10.7963
2882.04	11.3874
2883.36	10.7864
2884.67	10.6794
2885.99	10.8404
2887.3	10.9314
2888.61	11.681
2889.93	11.2501
2891.24	11.3366
2892.55	11.4918
2893.86	11.1702
2895.18	11.8299
2896.49	11.8049
2897.8	12.3561
2899.11	11.9998
2900.42	12.6387
2901.73	12.6211
2903.05	12.3243
2904.36	12.1537
2905.67	13.0188
2906.98	12.5564
2908.29	12.8511
2909.6	13.3856
2910.91	14.2854
2912.21	14.1499
2913.52	13.7747
2914.83	14.9785
2916.14	15.2964
2917.45	15.5128
2918.76	14.9292
2920.07	15.4786
2921.37	15.8475
2922.68	15.9813
2923.99	16.2022
2925.29	16.4257
2926.6	17.2238
2927.91	17.1834
2929.22	17.2121
2930.52	16.7783
2931.83	17.1262
2933.13	17.236
2934.44	16.8426
2935.74	16.5194
2937.05	16.2386
2938.35	15.8885
2939.66	16.1818
2940.96	15.5541
2942.26	15.3056
2943.57	14.5565
2944.87	14.0338
2946.18	13.6391
2947.48	13.2596
2948.78	13.1872
2950.08	13.1125
2951.39	11.1439
2952.69	11.6078
2953.99	11.439
2955.29	11.4655
2956.59	11.1298
2957.9	10.8682
2959.2	10.9618
2960.5	10.4727
2961.8	10.66
2963.1	10.288
2964.4	10.1111
2965.7	10.1561
2967	9.80447
2968.3	8.76127
2969.6	8.85517
2970.9	8.83645
2972.19	8.77616
2973.49	7.67521
2974.79	7.71396
2976.09	7.6954
2977.39	7.06915
2978.68	6.63711
2979.98	6.70902
2981.28	6.07509
2982.58	5.72208
2983.87	6.21357
2985.17	5.00612
2986.47	5.37572
2987.76	5.0734
2989.06	4.61831
2990.35	4.02322
2991.65	4.00366
2992.94	3.40636
2994.24	3.0884
2995.53	2.72684
2996.83	3.03846
2998.12	2.15678
2999.42	2.20217
3000.71	2.73923
3002	2.28177
3003.3	2.06363
3004.59	1.88797
3005.88	1.39009
3007.18	1.2838
3008.47	1.38643
3009.76	1.02637
3011.05	1.23874
3012.34	1.17109
3013.64	0.629395
3014.93	1.10692
3016.22	1.0974
3017.51	0.434836
3018.8	0.302731
3020.09	0.393585
3021.38	-0.0720158
3022.67	-0.121288
3023.96	0.272466
3025.25	0.3735
3026.54	0.183359
3027.83	0.617118
3029.12	0.15325
3030.41	0.0101604
3031.69	-0.0476513
3032.98	-0.0484943
3034.27	0.213545
3035.56	-0.283825
3036.84	0.389677
3038.13	-0.0421171
3039.42	-0.145169
3040.71	0.0112543
3041.99	-0.163162
3043.28	-0.090229
3044.57	0.0934324
3045.85	0.347537
3047.14	0.344909
3048.42	0.154751
3049.71	0.240936
3050.99	0.193101
3052.28	-0.180763
3053.56	0.114282
3054.85	0.31315
3056.13	0.81081
3057.41	0.529741
3058.7	0.684066
3059.98	0.851723
3061.26	-0.000623703
3062.55	0.0744038
3063.83	0.586626
3065.11	0.380575
3066.39	0.489446
3067.68	0.246517
3068.96	-0.0636358
3070.24	0.319756
3071.52	0.239875
3072.8	0.158664
3074.08	-0.0734224
3075.36	0.49542
3076.65	-0.00925255
3077.93	0.247519
3079.21	-0.199686
3080.49	-0.305211
3081.77	-0.055685
3083.04	-0.373928
3084.32	0.258796
3085.6	-0.193489
3086.88	0.317503
3088.16	0.47503
3089.44	-0.15523
3090.72	0.245717
3091.99	0.497441
3093.27	-0.254086
3094.55	0.337987
3095.83	0.361131
3097.1	-0.143929
3098.38	0.679742
3099.66	-0.0414591
3100.93	0.375869
3102.21	0.644481
3103.49	0.507546
3104.76	0.114589
3106.04	0.0885363
3107.31	0.348246
3108.59	0.542053
3109.86	0.534682
3111.14	0.759187
3112.41	0.443464
3113.69	0.575633
3114.96	0.979352
3116.23	0.732285
3117.51	0.660697
3118.78	0.710172
3120.05	0.62301
3121.33	1.05031
3122.6	0.541896
3123.87	1.38865
3125.14	1.43657
3126.41	0.808831
3127.69	1.42748
3128.96	1.1272
3130.23	1.34182
3131.5	1.34073
3132.77	1.56966
3134.04	1.39322
3135.31	1.55419
3136.58	1.68781
3137.85	2.0233
3139.12	1.30758
3140.39	1.67005
3141.66	2.00572
3142.93	2.03274
3144.2	2.03402
3145.47	1.91602
3146.74	2.2823
3148	2.00643
3149.27	1.98674
