200.563	1.0407
202.377	1.06472
204.194	1.08996
206.008	0.240601
207.821	0.170144
209.634	0.317891
211.449	1.38728
213.262	0.779241
215.074	0.0738735
216.885	0.289934
218.699	0.263604
220.51	0.818755
222.321	0.382483
224.131	0.455268
225.941	0.0210457
227.751	0.142799
229.562	0.119198
231.371	-0.435932
233.18	-0.025919
234.988	0.0223989
236.796	0.288883
238.603	-0.0934029
240.411	0.0329123
242.219	0.595518
244.026	-0.0705252
245.832	0.0108471
247.638	0.0906715
249.443	-0.0494871
251.248	0.121164
253.053	-0.0247202
254.857	0.720365
256.661	-0.223333
258.465	0.37698
260.268	-0.466973
262.071	-0.273015
263.874	0.597016
265.678	0.528599
267.48	0.629114
269.282	0.150752
271.083	-0.256299
272.884	0.0346384
274.684	0.589368
276.484	0.949421
278.284	0.271157
280.084	0.651154
281.883	-0.319201
283.682	0.29727
285.48	-0.0257263
287.276	0.467137
289.074	-0.0958767
290.871	0.205223
292.668	-0.426344
294.465	0.0207615
296.261	0.0384245
298.057	0.463349
299.853	-0.497272
301.648	0.0232859
303.443	0.327734
305.237	0.201114
307.032	0.431465
308.823	0.422956
310.617	0.534159
312.41	0.479756
314.203	-0.00157738
315.995	0.209465
317.788	0.255549
319.579	0.827246
321.369	0.447128
323.16	1.11671
324.951	0.737533
326.741	0.525097
328.531	0.407677
330.321	0.767538
332.108	0.504608
333.897	0.64648
335.686	0.642637
337.474	0.373239
339.26	0.436738
341.048	0.116053
342.835	-0.085638
344.622	0.405688
346.406	0.63437
348.192	0.17115
349.978	-0.38688
351.764	0.48733
353.547	-0.142751
355.332	0.132944
357.116	0.693226
358.901	0.393721
360.682	0.402989
362.466	0.863435
364.249	0.395106
366.03	0.0930996
367.812	0.289265
369.594	0.318209
371.374	0.74885
373.155	-0.0760374
374.936	0.518411
376.715	0.59228
378.495	0.501467
380.273	0.458838
382.053	0.440968
383.832	0.471411
385.609	0.620597
387.388	1.1703
389.164	0.969071
390.942	0.487101
392.72	0.898438
394.495	0.417928
396.272	0.877145
398.047	0.256085
399.823	0.221949
401.597	0.328265
403.372	0.692309
405.145	0.233522
406.92	0.595995
408.693	0.347299
410.467	0.145325
412.239	-0.244305
414.012	0.281696
415.783	1.08981
417.556	0.725529
419.327	0.596458
421.099	0.584929
422.869	0.80783
424.64	0.60748
426.409	0.617448
428.18	0.0162334
429.948	-0.186323
431.718	0.87853
433.486	0.112941
435.253	0.169104
437.022	0.201737
438.789	0.0928297
440.558	0.709929
442.324	0.738244
444.089	0.225193
445.857	0.484055
447.622	0.460488
449.386	0.202694
451.153	0.856556
452.917	0.459203
454.682	0.459196
456.446	0.0629463
458.208	0.156196
459.973	0.226097
461.735	0.529085
463.497	0.810007
465.259	0.326353
467.022	0.403178
468.783	0.645266
470.544	0.493962
472.306	0.668797
474.066	0.563621
475.825	0.340136
477.585	0.67354
479.346	1.33131
481.104	0.916557
482.862	0.339033
484.62	0.694295
486.38	0.259454
488.137	0.781906
489.894	0.887117
491.65	0.619995
493.407	0.750233
495.164	0.413131
496.92	-0.0886106
498.675	0.673723
500.43	0.287786
502.184	0.182203
503.939	0.521889
505.694	1.37802
507.448	0.540467
509.201	1.58267
510.954	0.694301
512.706	0.651248
514.459	0.889071
516.21	0.443249
517.962	1.05474
519.715	1.00658
521.466	0.605257
523.216	1.07274
524.966	1.37521
526.716	0.551357
528.466	0.713089
530.215	1.60096
531.964	1.01192
533.712	1.28875
535.46	0.979245
537.208	0.622081
538.955	1.01124
540.703	-0.14063
542.449	0.386363
544.196	1.19087
545.942	0.994333
547.688	0.496751
549.433	0.672769
551.178	0.894898
552.923	0.885417
554.667	0.876141
556.412	0.451688
558.155	0.604905
559.899	0.205406
561.642	0.81992
563.385	0.812987
565.127	0.0941315
566.867	0.594213
568.609	0.727157
570.35	0.402069
572.092	0.720869
573.832	0.307118
575.573	0.537376
577.313	-0.125645
579.053	-0.237008
580.79	-0.187064
582.529	0.25364
584.268	0.395352
586.006	1.01916
587.745	0.537848
589.482	0.538342
591.218	-0.0372553
592.955	1.0202
594.692	-0.223245
596.428	0.189865
598.164	0.257817
599.898	0.78552
601.634	0.139125
603.369	0.0207176
605.104	0.429776
606.836	-0.127788
608.57	0.600477
610.304	0.386836
612.037	0.0592108
613.769	0.237021
615.501	-0.0430832
617.234	-0.322865
618.966	0.175707
620.696	0.215016
622.427	0.0243664
624.159	-0.121084
625.887	-0.174926
627.618	0.388648
629.348	0.588424
631.076	1.06418
632.806	0.127125
634.535	0.856878
636.262	0.262492
637.99	0.899028
639.716	0.0493374
641.444	0.087163
643.172	0.396191
644.897	0.453124
646.624	0.39656
648.348	0.478296
650.075	0.494769
651.801	0.446717
653.524	0.356833
655.249	0.247156
656.972	-0.0656157
658.697	0.601974
660.419	0.563093
662.143	0.248525
663.865	-0.000113487
665.588	0.937691
667.309	0.0219126
669.032	0.729024
670.752	0.133236
672.474	0.591578
674.194	0.434353
675.915	0.73728
677.634	0.0552607
679.355	0.543355
681.073	0.75554
682.793	0.621225
684.511	0.392632
686.23	0.944942
687.947	0.758985
689.664	0.0421448
691.382	0.568457
693.098	0.748646
694.816	0.928064
696.531	1.22159
698.247	0.546924
699.963	1.18313
701.678	0.920677
703.392	0.588672
705.108	1.06024
706.821	0.727415
708.534	0.715721
710.249	1.1848
711.962	1.01176
713.674	0.998812
715.388	0.894268
717.099	1.20082
718.81	1.34724
720.523	1.37961
722.234	1.7764
723.944	1.01225
725.654	1.15854
727.365	1.62221
729.075	1.38122
730.784	1.36691
732.492	1.17108
734.202	1.06592
735.91	2.15889
737.618	1.218
739.325	1.33978
741.034	1.19182
742.741	0.752443
744.447	1.30541
746.153	1.16162
747.859	0.951778
749.564	0.945716
751.271	1.36821
752.976	1.63453
754.681	1.31736
756.385	1.09147
758.088	0.88937
759.792	1.04888
761.495	0.939057
763.2	1.07775
764.902	1.75829
766.604	1.24104
768.306	2.39429
770.008	1.53363
771.709	2.34411
773.41	2.27128
775.11	1.40664
776.811	1.85403
778.51	2.2123
780.21	2.41392
781.909	1.5308
783.608	2.16352
785.307	2.00309
787.005	1.86285
788.703	1.62899
790.401	1.64095
792.098	1.33391
793.795	2.38062
795.492	1.73336
797.188	2.3052
798.884	1.99953
800.58	1.51601
802.276	1.8667
803.971	2.06031
805.665	1.93885
807.36	1.54704
809.054	1.53625
810.748	1.6141
812.441	2.22909
814.135	1.74473
815.826	1.70866
817.518	1.94098
819.21	2.39645
820.902	1.33295
822.594	1.90027
824.285	1.41966
825.976	2.52309
827.665	1.44489
829.355	1.66155
831.045	1.9034
832.735	1.76938
834.424	1.88246
836.111	1.30514
837.8	1.15094
839.488	1.73235
841.177	1.99997
842.864	1.99833
844.55	0.968304
846.237	1.1902
847.924	1.68226
849.61	1.30458
851.295	1.77963
852.98	1.65219
854.666	1.74973
856.349	2.04942
858.034	1.38171
859.719	0.891238
861.403	1.23156
863.085	1.23282
864.769	1.07512
866.452	1.23207
868.133	1.86205
869.816	1.36416
871.498	0.820665
873.179	0.998773
874.86	0.860958
876.54	1.4227
878.221	1.55577
879.902	0.988991
881.58	0.918392
883.26	1.118
884.938	1.27141
886.618	1.37828
888.297	0.603691
889.974	0.797977
891.653	1.64421
893.329	1.5647
895.007	1.61915
896.683	1.2004
898.36	1.52252
900.035	1.23742
901.712	1.01942
903.387	1.27131
905.063	0.851986
906.737	1.30439
908.412	0.240423
910.085	1.42871
911.76	0.79125
913.433	1.26686
915.107	1.18681
916.779	0.618963
918.452	0.561801
920.124	1.10266
921.797	0.758245
923.467	1.10069
925.138	1.53257
926.81	1.19302
928.48	1.34094
930.151	1.09274
931.82	1.22035
933.489	1.28198
935.16	0.902621
936.828	1.27364
938.496	1.24849
940.165	0.89367
941.833	1.51056
943.5	1.13543
945.168	1.22343
946.834	0.89091
948.5	1.26297
950.168	0.882749
951.834	0.589879
953.499	1.06922
955.163	1.54988
956.83	1.32761
958.494	0.733407
960.158	0.86961
961.821	0.830664
963.487	0.946217
965.15	0.418827
966.812	0.972653
968.474	0.130094
970.138	1.29898
971.8	0.896274
973.461	0.848044
975.123	0.248382
976.783	0.955169
978.446	0.579643
980.106	0.635992
981.766	0.691964
983.425	1.26691
985.084	1.22014
986.743	1.10495
988.402	0.545642
990.06	0.649073
991.72	0.420315
993.378	0.85428
995.035	0.625633
996.692	0.772393
998.349	0.963046
1000.01	0.82272
1001.66	1.36483
1003.32	1.13559
1004.97	1.06029
1006.63	0.831175
1008.28	0.712305
1009.94	0.198939
1011.59	0.454166
1013.25	0.073946
1014.9	0.483023
1016.55	0.979584
1018.21	0.404024
1019.86	0.835787
1021.51	0.83096
1023.16	0.433758
1024.81	0.409106
1026.47	0.690907
1028.12	1.32222
1029.77	1.34102
1031.42	0.812593
1033.07	0.523141
1034.72	1.49782
1036.37	1.467
1038.02	1.37008
1039.67	1.90447
1041.31	2.37353
1042.96	2.75646
1044.61	2.81507
1046.26	2.85412
1047.91	2.48268
1049.55	2.0262
1051.2	2.28776
1052.84	2.05059
1054.49	1.40082
1056.14	0.185622
1057.78	1.33923
1059.43	0.622887
1061.07	0.210186
1062.72	0.47082
1064.36	0.295721
1066	0.358839
1067.65	0.638263
1069.29	0.63417
1070.93	0.651201
1072.58	0.125475
1074.22	0.989285
1075.86	-0.0335712
1077.5	0.463319
1079.14	0.527529
1080.78	0.59242
1082.42	1.04757
1084.06	0.200863
1085.7	1.02203
1087.34	0.778966
1088.98	0.837314
1090.62	0.893916
1092.26	0.625065
1093.9	0.572212
1095.54	0.36866
1097.17	1.13624
1098.81	0.633157
1100.45	0.433786
1102.09	0.257919
1103.72	0.384963
1105.36	0.706733
1106.99	0.362211
1108.63	0.447544
1110.27	0.531803
1111.9	0.979883
1113.53	0.845999
1115.17	0.582294
1116.8	0.361306
1118.43	0.59094
1120.07	0.071126
1121.7	0.409298
1123.33	0.683921
1124.97	0.488593
1126.6	0.251425
1128.23	1.10569
1129.86	0.463681
1131.49	1.36165
1133.12	0.100641
1134.75	1.23375
1136.38	0.335563
1138.01	0.483728
1139.64	0.0967045
1141.27	0.947335
1142.9	0.687097
1144.53	-0.0845737
1146.16	0.38156
1147.78	-0.0254974
1149.41	0.165003
1151.04	0.63273
1152.67	-0.0922756
1154.29	-0.24243
1155.92	-0.116169
1157.54	0.0524693
1159.17	0.348974
1160.8	0.773734
1162.42	0.242658
1164.05	-0.308689
1165.67	0.160963
1167.29	-0.390217
1168.92	0.290769
1170.54	-0.305305
1172.16	-0.180346
1173.79	0.197688
1175.41	0.277082
1177.03	0.377113
1178.65	0.138312
1180.28	-0.268806
1181.9	-0.399601
1183.52	-0.106858
1185.14	0.143284
1186.76	0.286647
1188.38	0.153999
1190	-0.0645094
1191.62	0.199922
1193.24	0.252108
1194.86	0.219458
1196.47	0.249863
1198.09	0.38577
1199.71	0.5021
1201.33	0.474196
1202.95	-0.240137
1204.56	-0.0331383
1206.18	0.843273
1207.8	0.531483
1209.41	0.178261
1211.03	0.450034
1212.64	0.365619
1214.26	0.341722
1215.87	0.523997
1217.49	0.142677
1219.1	0.384602
1220.71	0.584439
1222.33	0.618664
1223.94	0.757628
1225.55	0.421638
1227.16	0.356496
1228.78	0.933869
1230.39	0.705666
1232	0.974833
1233.61	1.12108
1235.22	1.14453
1236.83	0.466404
1238.44	0.760678
1240.05	0.869592
1241.66	1.20624
1243.27	0.777228
1244.88	1.00945
1246.49	0.971721
1248.1	1.34687
1249.71	1.34881
1251.32	1.04017
1252.92	1.16622
1254.53	1.16888
1256.14	0.924401
1257.74	1.13619
1259.35	1.28711
1260.96	1.27337
1262.56	0.721673
1264.17	1.35037
1265.77	1.00512
1267.38	1.1979
1268.98	1.90814
1270.59	1.66373
1272.19	1.43896
1273.79	1.10953
1275.4	0.613434
1277	1.11136
1278.6	1.87745
1280.21	1.46212
1281.81	1.31592
1283.41	1.60441
1285.01	1.52101
1286.61	1.45924
1288.21	1.60524
1289.81	1.31812
1291.41	1.09354
1293.01	1.26144
1294.61	1.18067
1296.21	1.5943
1297.81	1.46931
1299.41	1.15714
1301.01	1.64792
1302.6	1.72475
1304.2	1.28602
1305.8	0.991367
1307.4	1.29237
1308.99	1.92068
1310.59	1.66653
1312.19	1.67943
1313.78	1.26363
1315.38	0.890432
1316.97	1.66206
1318.57	1.94341
1320.16	1.22529
1321.76	1.74987
1323.35	1.76321
1324.94	1.49022
1326.54	1.54133
1328.13	1.55124
1329.72	1.96666
1331.32	1.45252
1332.91	1.54777
1334.5	1.18072
1336.09	2.34922
1337.68	1.74221
1339.27	0.893288
1340.87	1.37319
1342.45	1.26668
1344.04	0.897212
1345.64	1.29044
1347.22	1.52258
1348.81	0.774484
1350.4	1.41093
1351.99	0.968941
1353.58	1.349
1355.17	0.690715
1356.75	0.632548
1358.34	1.43296
1359.93	1.23348
1361.51	0.554153
1363.1	1.01177
1364.69	1.04993
1366.27	0.530441
1367.86	1.08759
1369.44	0.889007
1371.03	0.93069
1372.61	0.874166
1374.2	0.918181
1375.78	1.22148
1377.37	1.12688
1378.95	1.05168
1380.53	0.597469
1382.11	1.09703
1383.7	0.95875
1385.28	0.978668
1386.86	0.839231
1388.44	1.03767
1390.02	1.19689
1391.6	0.821108
1393.19	0.664486
1394.77	0.746266
1396.35	0.748503
1397.93	1.12669
1399.51	0.84977
1401.08	1.02772
1402.66	0.591354
1404.24	0.452207
1405.82	0.78824
1407.4	0.689948
1408.97	0.711056
1410.55	0.969626
1412.13	0.359154
1413.71	1.03157
1415.28	0.637159
1416.86	0.676208
1418.43	0.990808
1420.01	1.00995
1421.59	1.38453
1423.16	0.953341
1424.73	1.11432
1426.31	0.98123
1427.88	1.89179
1429.46	0.696012
1431.03	0.877176
1432.6	1.03755
1434.18	1.37402
1435.75	1.84756
1437.32	2.16375
1438.89	1.81226
1440.46	1.48156
1442.04	2.03622
1443.61	2.55226
1445.18	1.75191
1446.75	2.70099
1448.32	1.80259
1449.89	1.61206
1451.46	2.48374
1453.03	2.27462
1454.6	2.53789
1456.16	1.71902
1457.73	1.78473
1459.3	2.67576
1460.87	1.83317
1462.44	1.65792
1464	0.969931
1465.57	1.93255
1467.14	1.1063
1468.7	0.909546
1470.27	0.929683
1471.83	1.46089
1473.4	1.14949
1474.96	1.54488
1476.53	1.64645
1478.09	0.807074
1479.66	1.30078
1481.22	1.46108
1482.78	1.54285
1484.35	1.42853
1485.91	1.15716
1487.47	1.39433
1489.04	1.53213
1490.6	0.826629
1492.16	1.29303
1493.72	0.682304
1495.28	1.31975
1496.84	1.17531
1498.4	1.01158
1499.96	1.12091
1501.52	0.920427
1503.08	1.12873
1504.64	0.891861
1506.2	1.02342
1507.76	0.477287
1509.32	0.568768
1510.88	0.658987
1512.44	0.478413
1513.99	0.740612
1515.55	1.0792
1517.11	0.534509
1518.66	0.873836
1520.22	0.542609
1521.78	0.346183
1523.33	0.857023
1524.89	0.755059
1526.44	0.557072
1528	0.929936
1529.55	0.122507
1531.11	0.93112
1532.66	0.676263
1534.21	0.744826
1535.77	0.0387564
1537.32	0.071909
1538.87	0.388685
1540.43	-0.162181
1541.98	0.248785
1543.53	0.583587
1545.08	0.0903397
1546.63	0.142546
1548.18	0.232032
1549.74	0.752373
1551.29	0.803761
1552.84	0.762019
1554.39	0.459591
1555.94	0.719175
1557.48	0.43877
1559.03	0.869391
1560.58	0.685918
1562.13	0.261409
1563.68	0.453477
1565.23	0.851332
1566.78	0.876124
1568.32	1.29264
1569.87	1.27956
1571.42	1.35944
1572.96	1.08438
1574.51	1.23853
1576.05	0.832685
1577.6	1.21108
1579.14	1.21653
1580.69	1.27858
1582.24	1.00524
1583.78	1.12485
1585.32	0.964879
1586.87	1.14176
1588.41	1.01963
1589.95	1.25272
1591.5	0.792944
1593.04	1.10017
1594.58	1.36986
1596.12	1.33998
1597.67	0.860668
1599.21	1.13161
1600.75	1.7411
1602.29	1.20672
1603.83	1.57312
1605.37	1.67615
1606.91	1.55238
1608.45	1.67099
1609.99	1.61819
1611.53	1.18742
1613.07	1.07441
1614.6	1.52339
1616.14	0.864885
1617.68	1.5572
1619.22	1.25699
1620.75	1.22063
1622.29	1.26044
1623.83	1.28226
1625.37	1.37894
1626.9	0.744949
1628.44	1.21392
1629.97	1.47553
1631.51	1.23129
1633.04	1.30451
1634.58	1.60195
1636.11	1.95584
1637.65	1.15405
1639.18	1.15508
1640.72	1.97611
1642.25	1.43596
1643.78	1.73312
1645.31	1.71243
1646.85	1.96981
1648.38	1.81777
1649.91	2.14911
1651.44	1.27488
1652.97	2.57278
1654.5	1.33072
1656.03	1.81377
1657.56	2.16671
1659.1	2.33335
1660.62	2.12828
1662.15	2.21796
1663.68	2.19546
1665.21	2.11704
1666.74	2.51897
1668.27	1.55677
1669.8	1.33445
1671.32	1.96126
1672.85	1.44672
1674.38	1.46688
1675.91	1.7261
1677.43	1.76352
1678.96	1.61587
1680.49	1.74312
1682.01	1.28154
1683.54	0.967151
1685.06	0.744992
1686.59	1.18361
1688.11	0.925672
1689.64	1.18128
1691.16	0.869263
1692.68	0.887016
1694.21	0.922972
1695.73	0.410295
1697.25	0.372977
1698.78	0.974517
1700.3	0.735456
1701.82	0.64212
1703.34	0.98575
1704.86	0.599973
1706.39	-0.204048
1707.91	-0.479768
1709.43	0.15304
1710.95	0.585211
1712.47	0.472863
1713.99	0.0890913
1715.51	0.303353
1717.02	0.227807
1718.54	0.116114
1720.06	0.25734
1721.58	0.145904
1723.1	0.0531645
1724.62	0.393805
1726.13	-0.00306034
1727.65	0.0875521
1729.17	0.376862
1730.68	0.502715
1732.2	0.128297
1733.72	0.180843
1735.23	0.0938826
1736.75	-0.0363607
1738.26	-0.190193
1739.78	-0.0682335
1741.29	0.276502
1742.81	-0.126743
1744.32	0.408748
1745.84	-0.146796
1747.35	0.117601
1748.86	0.21979
1750.37	0.312038
1751.89	0.144984
1753.4	0.0400171
1754.91	-0.150291
1756.42	0.310884
1757.93	0.249428
1759.45	0.381627
1760.96	-0.246727
1762.47	0.466914
1763.98	-0.112589
1765.49	-0.356909
1767	0.320962
1768.51	0.0616627
1770.02	0.217803
1771.53	0.338323
1773.03	0.0798531
1774.54	-0.033278
1776.05	0.0952988
1777.56	0.0123687
1779.07	-0.0461259
1780.57	0.162554
1782.08	-0.11756
1783.59	0.117229
1785.09	0.0582976
1786.6	0.0308371
1788.11	0.0549579
1789.61	-0.0626411
1791.12	-0.0634561
1792.62	0.0228624
1794.13	0.0649786
1795.63	-0.227188
1797.13	0.0111003
1798.64	0.162508
1800.14	0.0690475
1801.65	0.143045
1803.15	0.0869088
1804.65	0.0882125
1806.15	0.185851
1807.66	0.0628467
1809.16	-0.0259361
1810.66	-0.168194
1812.16	-0.12554
1813.66	0.187003
1815.16	0.101482
1816.66	0.103267
1818.16	-0.0524058
1819.66	0.106701
1821.16	-0.157325
1822.66	-0.175783
1824.16	-0.0659728
1825.66	0.0789871
1827.16	0.161793
1828.66	-0.144011
1830.16	0.182055
1831.65	-0.106517
1833.15	-0.0631485
1834.65	0.00794172
1836.14	0.0673618
1837.64	-0.133982
1839.14	0.0611205
1840.63	-0.181137
1842.13	0.101055
1843.62	-0.125296
1845.12	0.0820208
1846.61	0.151294
1848.11	0.186843
1849.6	0.0495672
1851.1	0.161185
1852.59	0.0616908
1854.08	0.0827217
1855.58	0.300495
1857.07	-0.0562658
1858.56	-0.274842
1860.05	0.440035
1861.55	-0.197104
1863.04	-0.0453172
1864.53	0.233442
1866.02	0.30715
1867.51	0.272256
1869	0.252897
1870.49	0.0669079
1871.98	-0.113622
1873.47	0.147496
1874.96	-0.000448227
1876.45	0.0142751
1877.94	-0.280858
1879.43	0.0235314
1880.92	0.0264282
1882.41	0.0940566
1882.51	0.0997033
1884	-0.161721
1885.5	0.22115
1886.99	-0.0589309
1888.48	0.217893
1889.98	-0.37535
1891.47	0.19794
1892.96	-0.0101881
1894.46	0.322223
1895.95	0.3778
1897.44	-0.1224
1898.93	0.00333452
1900.42	-0.202277
1901.91	0.130054
1903.41	0.02599
1904.9	-0.461654
1906.39	0.33623
1907.88	0.00450563
1909.37	0.229038
1910.86	0.280674
1912.35	0.246322
1913.83	-0.186429
1915.32	-0.168091
1916.81	0.335398
1918.3	-0.0977631
1919.79	0.144693
1921.27	0.282978
1922.76	0.33494
1924.25	0.162569
1925.74	0.0950689
1927.22	0.426652
1928.71	-0.0722299
1930.19	0.104086
1931.68	-0.15317
1933.17	0.246393
1934.65	-0.30777
1936.14	0.0541291
1937.62	-0.0522223
1939.11	0.29041
1940.59	0.183879
1942.07	0.0781932
1943.56	0.249493
1945.04	0.438646
1946.52	0.386664
1948.01	-0.0963197
1949.49	-0.148898
1950.97	0.0560241
1952.45	-0.0153785
1953.93	0.136365
1955.42	-0.1074
1956.9	0.0444365
1958.38	0.128005
1959.86	-0.182451
1961.34	-0.406446
1962.82	0.192628
1964.3	0.088603
1965.78	-0.392497
1967.26	-0.120573
1968.74	0.42416
1970.21	0.386505
1971.69	0.0070529
1973.17	-0.252432
1974.65	0.0172634
1976.13	-0.0712018
1977.6	-0.244575
1979.08	0.280236
1980.56	-0.0291677
1982.03	-0.0833216
1983.51	0.609743
1984.99	-0.192175
1986.46	-0.111142
1987.94	0.291736
1989.41	-0.321797
1990.89	0.0475917
1992.36	0.231251
1993.84	-0.074687
1995.31	-0.041719
1996.78	0.244995
1998.26	0.311944
1999.73	-0.279925
2001.2	0.0900583
2002.68	0.00388384
2004.15	0.10311
2005.62	0.0508604
2007.09	0.0497918
2008.56	0.234728
2010.04	0.033093
2011.51	-0.252209
2012.98	0.152685
2014.45	0.287852
2015.92	0.304533
2017.39	0.488604
2018.86	-0.017437
2020.33	0.0142126
2021.8	-0.088645
2023.26	-0.358994
2024.73	0.394995
2026.2	-0.0582337
2027.67	-0.0908246
2029.14	0.0790682
2030.61	0.132674
2032.07	-0.0981703
2033.54	0.0909114
2035.01	-0.257274
2036.47	0.217141
2037.94	0.338511
2039.4	0.308331
2040.87	0.244462
2042.33	0.0968013
2043.8	-0.0335107
2045.27	0.0555563
2046.73	0.280018
2048.19	-0.168826
2049.66	0.359107
2051.12	0.144809
2052.59	0.0471325
2054.05	0.234647
2055.51	0.133998
2056.97	-0.153186
2058.44	0.250059
2059.9	0.0464559
2061.36	0.0453868
2062.82	-0.106516
2064.28	0.0958819
2065.74	0.231741
2067.21	0.0990386
2068.67	0.269759
2070.13	-0.0137148
2071.59	-0.246708
2073.05	0.210458
2074.51	0.600143
2075.96	0.669627
2077.42	0.216743
2078.88	0.0498018
2080.34	0.135079
2081.8	0.337732
2083.26	-0.13356
2084.72	0.337145
2086.17	0.689158
2087.63	0.435027
2089.09	0.516881
2090.54	0.514487
2092	0.814215
2093.45	0.526261
2094.91	0.65765
2096.37	0.503531
2097.82	0.667256
2099.28	0.495471
2100.73	0.290222
2102.19	0.737152
2103.64	0.583006
2105.09	0.330015
2106.55	0.462132
2108	0.828565
2109.45	0.59483
2110.91	0.894196
2112.36	0.642299
2113.81	0.322577
2115.26	0.118436
2116.72	0.894738
2118.17	0.872662
2119.62	0.918179
2121.07	0.915578
2122.52	1.32933
2123.97	0.649812
2125.42	1.08196
2126.87	0.916931
2128.32	1.36439
2129.77	0.932088
2131.22	0.995858
2132.67	0.992624
2134.11	0.757751
2135.56	1.0529
2137.01	1.36563
2138.46	1.46506
2139.91	1.46709
2141.35	1.37146
2142.8	1.39263
2144.25	1.51367
2145.7	1.61839
2147.14	1.06065
2148.59	1.41287
2150.03	1.2178
2151.48	1.17087
2152.92	1.68641
2154.37	1.52185
2155.81	1.77104
2157.26	1.82146
2158.7	1.75658
2160.15	2.20651
2161.59	2.01205
2163.03	1.80265
2164.47	2.05899
2165.92	1.23737
2167.36	1.77684
2168.8	1.75082
2170.24	1.68984
2171.69	1.6934
2173.13	1.74504
2174.57	2.02822
2176.01	1.31293
2177.45	1.49594
2178.89	1.34706
2180.33	1.88073
2181.77	1.98297
2183.21	2.05254
2184.65	2.17231
2186.09	2.04264
2187.53	1.86304
2188.97	1.6834
2190.4	1.68677
2191.84	1.97291
2193.28	1.72562
2194.72	1.69351
2196.16	1.42669
2197.59	1.49098
2199.03	1.17118
2200.47	1.79793
2201.9	1.24482
2203.34	1.25717
2204.77	1.18756
2206.21	1.48357
2207.64	1.26625
2209.08	1.38014
2210.51	1.1622
2211.95	0.993221
2213.38	1.1048
2214.82	1.18305
2216.25	1.03063
2217.68	0.598919
2219.12	0.97671
2220.55	0.992301
2221.98	1.20577
2223.41	0.759478
2224.85	0.839318
2226.28	0.851752
2227.71	0.764072
2229.14	0.905363
2230.57	0.651931
2232	0.611897
2233.43	0.604919
2234.86	0.549519
2236.29	0.887303
2237.72	0.605558
2239.15	0.439985
2240.58	0.423018
2242.01	0.733754
2243.44	0.57254
2244.87	0.379006
2246.29	0.690574
2247.72	0.332097
2249.15	0.510015
2250.58	0.343761
2252.01	0.599496
2253.43	0.75647
2254.86	0.588458
2256.29	-0.0488772
2257.71	0.484733
2259.14	0.517436
2260.56	0.666182
2261.99	0.41131
2263.41	0.336177
2264.84	0.667506
2266.26	0.25094
2267.69	0.0773115
2269.11	0.16318
2270.53	0.329855
2271.96	0.00770473
2273.38	0.597296
2274.8	0.568192
2276.23	0.311136
2277.65	0.347458
2279.07	0.49797
2280.49	0.19192
2281.91	0.0650291
2283.34	0.199043
2284.76	-0.025866
2286.18	0.712333
2287.6	0.324641
2289.02	0.900739
2290.44	0.235779
2291.86	0.0445662
2293.28	0.114958
2294.7	-0.0273104
2296.12	-0.153403
2297.54	0.211615
2298.96	0.134654
2300.37	-0.0241776
2301.79	0.161416
2303.21	-0.0463223
2304.63	0.369604
2306.04	0.358902
2307.46	0.709387
2308.88	0.0405588
2310.3	0.291591
2311.71	-0.0826068
2313.13	0.102365
2314.54	0.123177
2315.96	-0.00360823
2317.37	0.117232
2318.79	0.222082
2320.2	0.557772
2321.62	0.00182724
2323.03	0.302245
2324.45	0.221217
2325.86	0.666305
2327.27	0.713813
2328.69	0.810028
2330.1	0.346262
2331.51	0.0483341
2332.92	0.228819
2334.34	0.327633
2335.75	0.229209
2337.16	-0.116226
2338.57	-0.166278
2339.98	0.0621605
2341.39	-0.022438
2342.8	-0.00887728
2344.21	0.447423
2345.63	0.0838881
2347.04	-0.2462
2348.45	-0.00293779
2349.85	0.239716
2351.26	0.121769
2352.67	0.0358739
2354.08	0.128855
2355.49	0.123284
2356.9	0.443099
2358.3	-0.213705
2359.71	-0.0566382
2361.12	-0.338043
2362.53	0.110723
2363.93	-0.0569878
2365.34	0.0668178
2366.75	-0.245845
2368.15	0.136841
2369.56	0.116362
2370.97	0.145349
2372.37	0.143165
2373.77	0.25453
2375.18	0.0924864
2376.59	0.139443
2377.99	0.0729251
2379.39	0.278397
2380.8	-0.111813
2382.2	0.0588779
2383.6	0.116324
2385.01	0.221418
2386.41	0.246688
2387.81	0.0172901
2389.21	-0.402015
2390.62	0.247761
2392.02	0.165205
2393.42	0.0358405
2394.82	0.114037
2396.22	0.0178652
2397.62	0.462632
2399.02	0.0814099
2400.42	-0.108611
2401.82	-0.155363
2403.22	-0.202065
2404.62	0.100286
2406.02	0.27481
2407.42	0.178698
2408.82	-0.0924368
2410.22	0.175373
2411.62	0.379704
2413.01	0.172776
2414.41	-0.175465
2415.81	0.0633059
2417.21	0.160658
2418.6	0.274616
2420	0.0563397
2421.4	0.123018
2422.79	-0.270004
2424.19	0.00212383
2425.59	0.210971
2426.98	-0.150273
2428.38	0.04387
2429.77	0.270621
2431.17	-0.00960255
2432.56	0.249787
2433.95	0.461339
2435.35	0.0366459
2436.74	-0.103428
2438.14	0.0730424
2439.53	0.43904
2440.92	0.391193
2442.31	0.152424
2443.71	0.326165
2445.1	0.388584
2446.49	0.133728
2447.88	-0.0893183
2449.27	0.0679865
2450.67	-0.059669
2452.06	-0.139322
2453.45	-0.0759087
2454.84	0.0672536
2456.23	0.337492
2457.62	-0.0405703
2459.01	0.150699
2460.4	0.151691
2461.79	0.246889
2463.18	0.135904
2464.57	0.0403204
2465.95	0.355169
2467.34	-0.403744
2468.73	-0.0733218
2470.12	0.177785
2471.5	0.065733
2472.89	0.1738
2474.28	0.359811
2475.67	-0.210044
2477.05	-0.0877295
2478.44	0.269909
2479.82	0.20342
2481.21	0.105815
2482.6	0.0866508
2483.98	0.301959
2485.37	0.0782423
2486.75	0.104029
2488.13	-0.0583887
2489.52	0.308867
2490.9	-0.0875969
2492.29	-0.0629458
2493.67	-0.177258
2495.05	0.268162
2496.44	-0.247156
2497.82	0.230268
2499.2	0.0726442
2500.58	0.146988
2501.97	-0.258517
2503.35	0.0770826
2504.73	-0.375367
2506.11	-0.0261159
2507.49	0.0605187
2508.87	0.0394421
2510.25	0.0648212
2511.63	-0.170148
2513.01	0.0711117
2514.39	0.174816
2515.77	0.294389
2517.15	0.230896
2518.53	0.122062
2519.91	0.135737
2521.29	0.0880995
2522.67	0.0399895
2524.05	0.143795
2525.42	-0.134147
2526.8	0.105889
2528.18	-0.247556
2529.55	-0.0522442
2530.93	0.128896
2532.31	0.220108
2533.69	-0.204145
2535.06	0.0862746
2536.44	0.23993
2537.81	0.0132575
2539.19	0.317458
2540.56	-0.0624151
2541.94	0.0585237
2543.31	-0.0328188
2544.69	0.33163
2546.06	-0.0158958
2547.44	0.244318
2548.81	0.156353
2550.18	-0.326093
2551.56	-0.0805888
2552.93	-0.291057
2554.3	0.0288248
2555.67	-0.0162363
2557.04	-0.228563
2558.42	0.15049
2559.79	0.271842
2561.16	0.0601406
2562.53	-0.0752058
2563.9	0.0323963
2565.27	0.0342674
2566.64	-0.0242782
2568.01	0.00818157
2569.38	0.0254951
2570.75	0.0731292
2572.12	0.10564
2573.49	0.395923
2574.86	-0.177778
2576.23	0.188441
2577.6	0.372714
2578.97	-0.0800204
2580.33	0.346408
2581.7	0.347934
2583.07	0.136887
2584.44	0.319842
2585.8	-0.0581374
2587.17	-0.375317
2588.54	0.0806346
2589.9	0.263836
2591.27	-0.144071
2592.64	0.235631
2594	-0.0519814
2595.37	0.0534859
2596.73	0.218585
2598.1	-0.0255895
2599.46	-0.0581226
2600.83	-0.0905418
2602.19	-0.0319176
2603.55	0.253615
2604.92	-0.064209
2606.28	0.131234
2607.64	0.265965
2609.01	-0.202968
2610.37	0.080791
2611.73	-0.0131669
2613.09	-0.213147
2614.46	-0.0828824
2615.82	-0.163169
2617.18	-0.258105
2618.54	-0.052865
2619.9	0.182548
2621.26	0.343434
2622.62	-0.0632691
2623.98	0.157925
2625.34	0.199714
2626.7	0.0772147
2628.06	-0.0602779
2629.42	-0.257362
2630.78	-0.00795841
2632.14	0.0774336
2633.5	0.073523
2634.86	0.307075
2636.21	0.0804935
2637.57	0.16545
2638.93	-0.0162005
2640.29	0.23161
2641.64	0.375769
2643	0.0324445
2644.36	-0.0740528
2645.71	0.0113244
2647.07	-0.287014
2648.43	-0.0698776
2649.78	0.14624
2651.14	-0.153157
2652.49	0.0618157
2653.85	0.349878
2655.2	-0.0362439
2656.56	0.311466
2657.91	0.176634
2659.26	0.174361
2660.62	0.172433
2661.97	0.170399
2663.32	0.372374
2664.68	0.223111
2666.03	-0.101585
2667.38	0.156787
2668.74	0.152554
2670.09	0.163102
2671.44	-0.0149565
2672.79	-0.134146
2674.14	0.0667815
2675.49	0.0792694
2676.84	0.425902
2678.19	0.192685
2679.54	0.0617876
2680.89	0.149247
2682.24	0.10718
2683.59	0.0950694
2684.94	-0.0178027
2686.29	-0.289976
2687.64	0.0616913
2688.99	0.12226
2690.34	0.312147
2691.69	0.0360332
2693.03	0.237642
2694.38	0.133751
2695.73	0.247207
2697.08	-0.131473
2698.42	0.533785
2699.77	-0.189842
2701.12	0.0146618
2702.46	0.0755911
2703.81	0.325786
2705.15	0.243192
2706.5	0.204091
2707.85	0.00512171
2709.19	0.139552
2710.54	0.215686
2711.88	0.18997
2713.22	0.178652
2714.57	-0.00714779
2715.91	0.199471
2717.26	-0.0593185
2718.6	0.147093
2719.94	-0.155976
2721.29	0.209946
2722.63	0.037045
2723.97	-0.034368
2725.31	0.286878
2726.66	-0.0326204
2728	-0.0758052
2729.34	0.142771
2730.68	-0.0753322
2732.02	0.0412121
2733.36	0.0414214
2734.7	0.201771
2736.04	-0.0158997
2737.38	-0.044363
2738.72	0.101679
2740.06	0.0875492
2741.4	0.0148869
2742.74	-0.160015
2744.08	0.333147
2745.42	0.157204
2746.76	0.460258
2748.09	-0.0789852
2749.43	0.0641928
2750.77	0.265422
2752.11	0.365221
2753.45	0.349203
2754.78	0.144996
2756.12	-0.0155225
2757.46	-0.016542
2758.79	0.0839734
2760.13	0.0689678
2761.46	0.141182
2762.8	0.459751
2764.14	-0.176408
2765.47	-0.0312181
2766.8	0.258272
2768.14	0.113004
2769.47	0.299346
2770.81	0.29646
2772.14	-0.0685821
2773.48	0.100003
2774.81	0.08044
2776.14	0.449779
2777.48	-0.00154877
2778.81	0.0516133
2780.14	-0.196661
2781.47	-0.243295
2782.8	-0.00277138
2784.14	-0.0494456
2785.47	0.190568
2786.8	0.186928
2788.13	0.212328
2789.46	0.0666456
2790.79	-0.106797
2792.12	0.206626
2793.45	-0.0372314
2794.78	0.104938
2796.11	-0.0247006
2797.44	0.0738459
2798.77	0.100483
2800.1	0.18384
2801.43	0.152781
2802.76	0.0503058
2804.09	0.389498
2805.41	0.18674
2806.74	-0.172829
2808.07	0.264088
2809.4	-0.06744
2810.72	0.112795
2812.05	-0.217635
2813.38	-0.0929255
2814.71	0.330524
2816.03	-0.33653
2817.36	-0.251346
2818.68	0.0894055
2820.01	0.302609
2821.33	-0.207373
2822.66	0.104146
2823.98	0.145865
2825.31	0.00314522
2826.63	-0.0686703
2827.96	0.199746
2829.28	0.22787
2830.6	0.0723429
2831.93	0.384131
2833.25	0.28536
2834.57	0.497733
2835.9	0.469074
2837.22	0.454134
2838.54	0.948086
2839.86	0.833503
2841.18	0.563545
2842.5	0.873591
2843.83	0.774209
2845.15	1.32553
2846.47	1.17074
2847.79	1.05866
2849.11	1.62501
2850.43	1.14522
2851.75	1.52718
2853.07	1.54121
2854.39	1.5973
2855.71	1.78036
2857.03	1.52544
2858.35	1.84973
2859.66	1.52429
2860.98	2.07424
2862.3	2.25667
2863.62	2.14229
2864.94	2.38049
2866.25	2.73139
2867.57	2.29257
2868.89	2.70034
2870.2	2.53033
2871.52	2.79749
2872.84	2.75427
2874.15	2.89357
2875.47	3.0741
2876.78	3.42241
2878.1	3.15047
2879.41	3.28639
2880.73	3.25378
2882.04	2.75831
2883.36	3.17705
2884.67	3.1752
2885.99	3.23006
2887.3	2.79373
2888.61	3.42363
2889.93	3.16874
2891.24	3.41804
2892.55	3.4283
2893.86	3.42437
2895.18	3.5188
2896.49	3.79586
2897.8	3.0942
2899.11	3.34514
2900.42	3.79257
2901.73	3.79274
2903.05	4.17077
2904.36	4.03137
2905.67	4.18597
2906.98	4.29913
2908.29	4.28716
2909.6	4.97556
2910.91	4.72716
2912.21	4.81458
2913.52	5.04132
2914.83	5.71474
2916.14	5.30843
2917.45	5.62847
2918.76	5.86336
2920.07	5.76224
2921.37	5.67583
2922.68	6.03802
2923.99	6.16389
2925.29	6.33286
2926.6	6.47452
2927.91	6.42054
2929.22	6.51994
2930.52	6.19936
2931.83	6.11596
2933.13	6.24199
2934.44	6.941
2935.74	6.7875
2937.05	6.24289
2938.35	6.24351
2939.66	6.04877
2940.96	6.49732
2942.26	6.02447
2943.57	6.19563
2944.87	5.85098
2946.18	5.71705
2947.48	5.52767
2948.78	5.28192
2950.08	5.24492
2951.39	5.38821
2952.69	4.61946
2953.99	4.99756
2955.29	4.85722
2956.59	4.66174
2957.9	4.53816
2959.2	4.54309
2960.5	4.53663
2961.8	3.73306
2963.1	4.31793
2964.4	4.46794
2965.7	3.95653
2967	3.93497
2968.3	4.06678
2969.6	3.81826
2970.9	4.01957
2972.19	3.47562
2973.49	3.36792
2974.79	3.33055
2976.09	3.06732
2977.39	2.80287
2978.68	2.86077
2979.98	3.01563
2981.28	2.97219
2982.58	2.64695
2983.87	2.6175
2985.17	2.60307
2986.47	2.88508
2987.76	2.28312
2989.06	2.18792
2990.35	1.96646
2991.65	2.22241
2992.94	1.74663
2994.24	1.69143
2995.53	1.36841
2996.83	1.42408
2998.12	1.54967
2999.42	1.47896
3000.71	1.40875
3002	1.6895
3003.3	1.22778
3004.59	0.906496
3005.88	1.08933
3007.18	1.13153
3008.47	0.89315
3009.76	0.822075
3011.05	0.778409
3012.34	0.804242
3013.64	0.732364
3014.93	0.437882
3016.22	0.283673
3017.51	0.227699
3018.8	0.422657
3020.09	0.464485
3021.38	0.630995
3022.67	0.338247
3023.96	0.433719
3025.25	0.264974
3026.54	0.193315
3027.83	0.122148
3029.12	0.204049
3030.41	0.21792
3031.69	0.5782
3032.98	0.552517
3034.27	0.402918
3035.56	0.473719
3036.84	0.240059
3038.13	0.404804
3039.42	0.567688
3040.71	0.13786
3041.99	0.243704
3043.28	0.294368
3044.57	0.153931
3045.85	0.206546
3047.14	0.165156
3048.42	0.303174
3049.71	0.797637
3050.99	0.515408
3052.28	0.547779
3053.56	0.784828
3054.85	0.48922
3056.13	0.261077
3057.41	0.332128
3058.7	0.674933
3059.98	0.49969
3061.26	0.392983
3062.55	0.219159
3063.83	0.304906
3065.11	0.174339
3066.39	0.0856786
3067.68	0.43289
3068.96	0.426959
3070.24	0.488828
3071.52	0.413982
3072.8	0.433342
3074.08	0.45165
3075.36	0.3197
3076.65	-0.219794
3077.93	0.20526
3079.21	0.142342
3080.49	-0.231355
3081.77	-0.210415
3083.04	0.123504
3084.32	0.037446
3085.6	-0.0892863
3086.88	0.27223
3088.16	0.144578
3089.44	0.165677
3090.72	0.267813
3091.99	0.234122
3093.27	-0.124962
3094.55	0.0180874
3095.83	0.256214
3097.1	0.114758
3098.38	-0.229986
3099.66	-0.317221
3100.93	0.0425568
3102.21	0.239675
3103.49	0.0984373
3104.76	-0.0152545
3106.04	0.548338
3107.31	0.00290537
3108.59	0.216153
3109.86	0.213736
3111.14	0.279809
3112.41	0.224648
3113.69	0.0613832
3114.96	0.0742006
3116.23	0.181612
3117.51	0.166335
3118.78	0.0010047
3120.05	0.0111456
3121.33	0.535746
3122.6	0.273467
3123.87	-0.0158544
3125.14	0.412844
3126.41	0.205432
3127.69	0.174512
3128.96	0.292804
3130.23	0.194973
3131.5	-0.145996
3132.77	0.310384
3134.04	0.293398
3135.31	0.545997
3136.58	0.406601
3137.85	0.213046
3139.12	0.059907
3140.39	0.270288
3141.66	0.399688
3142.93	0.233502
3144.2	0.443877
3145.47	0.694672
3146.74	0.127932
3148	0.741391
3149.27	0.497711
