200.563	1.28532
202.377	1.36019
204.194	1.43664
206.008	1.36817
207.821	0.716185
209.634	0.452009
211.449	0.161346
213.262	1.30009
215.074	1.24635
216.885	0.609484
218.699	0.336538
220.51	-0.0807285
222.321	0.422729
224.131	0.660746
225.941	0.826488
227.751	0.870865
229.562	-0.341516
231.371	0.666014
233.18	-0.209997
234.988	-0.0723457
236.796	-0.222366
238.603	0.233257
240.411	-0.17514
242.219	0.649336
244.026	-0.212646
245.832	0.10643
247.638	0.857069
249.443	0.274702
251.248	-0.144459
253.053	0.638287
254.857	-0.247442
256.661	0.0962505
258.465	-0.161848
260.268	-0.0801697
262.071	-0.52578
263.874	0.211264
265.678	0.636576
267.48	0.869232
269.282	0.932184
271.083	-0.0193291
272.884	-0.34655
274.684	-0.0978947
276.484	-0.23811
278.284	0.485781
280.084	0.458626
281.883	0.16292
283.682	0.970367
285.48	0.692467
287.276	-0.546537
289.074	-0.0571041
290.871	-0.334229
292.668	0.1089
294.465	0.075201
296.261	0.569538
298.057	-0.440779
299.853	0.628532
301.648	0.550005
303.443	0.493586
305.237	0.912046
307.032	-0.031271
308.823	0.384449
310.617	0.204765
312.41	0.74136
314.203	0.541954
315.995	0.464376
317.788	0.413208
319.579	0.125925
321.369	-0.0409775
323.16	0.484474
324.951	0.199553
326.741	0.439392
328.531	1.08496
330.321	0.582283
332.108	-0.425589
333.897	0.907536
335.686	0.514431
337.474	-0.0502682
339.26	-0.211754
341.048	1.17858
342.835	0.845137
344.622	0.0815907
346.406	0.298416
348.192	0.229439
349.978	0.447474
351.764	0.474203
353.547	0.332634
355.332	0.499266
357.116	-0.266521
358.901	0.205242
360.682	0.0551662
362.466	-0.619884
364.249	0.155043
366.03	-0.0942287
367.812	0.272543
369.594	0.0679321
371.374	1.28318
373.155	0.74369
374.936	-0.244372
376.715	0.492772
378.495	0.639503
380.273	0.268989
382.053	-0.0285797
383.832	-0.512057
385.609	0.229161
387.388	0.524957
389.164	0.51674
390.942	1.09708
392.72	0.0814857
394.495	0.851504
396.272	0.0015049
398.047	0.701427
399.823	0.931196
401.597	1.06608
403.372	0.40114
405.145	0.650802
406.92	0.52332
408.693	0.817317
410.467	0.523694
412.239	0.347421
414.012	0.429855
415.783	1.38139
417.556	0.926279
419.327	1.45759
421.099	1.37906
422.869	0.99472
424.64	0.209871
426.409	0.761468
428.18	0.72466
429.948	1.27375
431.718	0.602134
433.486	0.705478
435.253	0.996987
437.022	0.232165
438.789	-0.134968
440.558	0.856471
442.324	0.483464
444.089	0.529153
445.857	0.993309
447.622	0.612112
449.386	0.60487
451.153	0.293982
452.917	0.287475
454.682	0.654379
456.446	0.134928
458.208	0.337854
459.973	0.796449
461.735	-0.0932388
463.497	0.717116
465.259	0.78716
467.022	1.16384
468.783	0.429298
470.544	0.37138
472.306	0.50035
474.066	0.371979
475.825	1.26538
477.585	0.315228
479.346	1.41188
481.104	0.852989
482.862	1.06301
484.62	0.62279
486.38	1.164
488.137	0.730103
489.894	1.34858
491.65	1.12928
493.407	1.21437
495.164	1.51039
496.92	1.05761
498.675	0.556559
500.43	1.0857
502.184	0.816545
503.939	1.64943
505.694	0.601093
507.448	0.630983
509.201	1.74049
510.954	1.41248
512.706	1.4346
514.459	1.54825
516.21	1.07137
517.962	0.498626
519.715	1.2175
521.466	1.08861
523.216	1.00598
524.966	1.15774
526.716	0.816658
528.466	1.01517
530.215	1.0492
531.964	1.29322
533.712	1.60573
535.46	0.652744
537.208	1.24125
538.955	1.66282
540.703	1.21864
542.449	0.0754042
544.196	1.30704
545.942	0.560703
547.688	0.628649
549.433	0.488173
551.178	1.13558
552.923	0.764148
554.667	0.139652
556.412	0.0246391
558.155	0.0949078
559.899	0.142777
561.642	0.283501
563.385	0.976912
565.127	0.77389
566.867	0.824883
568.609	1.77246
570.35	-0.0785666
572.092	0.345055
573.832	-0.5822
575.573	-0.0614529
577.313	0.0720062
579.053	0.253548
580.79	-0.160724
582.529	-0.0697355
584.268	0.802127
586.006	-0.0519438
587.745	0.425727
589.482	-0.248755
591.218	-0.280555
592.955	0.146992
594.692	0.620312
596.428	-0.0336428
598.164	-0.0434608
599.898	-0.790051
601.634	0.0953856
603.369	0.81746
605.104	0.0653572
606.836	-0.205612
608.57	0.25727
610.304	-0.565739
612.037	-0.0337534
613.769	0.590718
615.501	-0.0905743
617.234	0.0307283
618.966	0.0136642
620.696	0.0406542
622.427	-0.117392
624.159	0.249187
625.887	0.523979
627.618	-0.11293
629.348	0.189618
631.076	0.495886
632.806	0.257815
634.535	0.295246
636.262	0.857111
637.99	0.502984
639.716	0.486792
641.444	0.625355
643.172	1.03317
644.897	1.25615
646.624	0.637751
648.348	0.296401
650.075	0.21055
651.801	0.676374
653.524	0.12601
655.249	0.422076
656.972	0.471879
658.697	0.682871
660.419	0.50561
662.143	0.188343
663.865	0.461048
665.588	0.47859
667.309	0.653149
669.032	0.392075
670.752	0.269583
672.474	0.379059
674.194	0.675877
675.915	0.701624
677.634	-0.280141
679.355	0.160372
681.073	0.37023
682.793	0.462494
684.511	0.965784
686.23	0.0614986
687.947	0.835638
689.664	1.33183
691.382	0.559916
693.098	0.15556
694.816	0.302811
696.531	0.839903
698.247	0.592075
699.963	0.733538
701.678	0.459051
703.392	0.78092
705.108	1.05525
706.821	1.32836
708.534	0.728994
710.249	1.413
711.962	1.66034
713.674	0.968998
715.388	1.1926
717.099	0.799364
718.81	1.2966
720.523	0.562595
722.234	0.94593
723.944	0.896433
725.654	-0.0396996
727.365	1.00124
729.075	0.950499
730.784	0.921803
732.492	0.530233
734.202	0.614222
735.91	1.30844
737.618	0.85043
739.325	0.597469
741.034	1.158
742.741	0.63858
744.447	0.955009
746.153	0.508387
747.859	0.649265
749.564	1.19714
751.271	1.49968
752.976	0.342405
754.681	0.851902
756.385	0.711473
758.088	1.31651
759.792	1.1361
761.495	1.38569
763.2	0.756521
764.902	1.0292
766.604	1.00667
768.306	1.61412
770.008	1.29133
771.709	1.48528
773.41	1.81267
775.11	0.443542
776.811	1.90178
778.51	1.44033
780.21	1.70502
781.909	1.81334
783.608	1.94455
785.307	1.77962
787.005	2.06344
788.703	2.27399
790.401	1.91335
792.098	1.23238
793.795	1.85966
795.492	1.33503
797.188	1.12846
798.884	1.26273
800.58	1.37729
802.276	0.774122
803.971	1.99408
805.665	0.897409
807.36	2.18209
809.054	1.59962
810.748	1.41993
812.441	1.39601
814.135	2.24501
815.826	1.68199
817.518	1.54482
819.21	1.72091
820.902	2.41059
822.594	1.76118
824.285	2.87551
825.976	2.45348
827.665	1.45654
829.355	2.40218
831.045	1.32624
832.735	1.63578
834.424	0.81216
836.111	1.63976
837.8	1.91002
839.488	1.66505
841.177	1.79702
842.864	1.23432
844.55	1.51989
846.237	2.05269
847.924	1.78394
849.61	1.63095
851.295	0.96682
852.98	2.61339
854.666	2.06584
856.349	1.96605
858.034	1.90914
859.719	1.35426
861.403	1.35859
863.085	1.58558
864.769	0.999353
866.452	0.952349
868.133	1.40043
869.816	1.44202
871.498	1.05455
873.179	0.8923
874.86	0.865295
876.54	1.65077
878.221	1.55627
879.902	1.57447
881.58	1.00512
883.26	0.479683
884.938	2.18735
886.618	1.18384
888.297	1.57709
889.974	1.2458
891.653	0.912436
893.329	1.56825
895.007	1.18607
896.683	0.892763
898.36	1.54152
900.035	1.22287
901.712	0.926035
903.387	1.38984
905.063	2.27677
906.737	1.95679
908.412	1.50494
910.085	1.61238
911.76	0.987049
913.433	1.14195
915.107	1.05292
916.779	1.62961
918.452	1.14141
920.124	0.278009
921.797	1.38584
923.467	1.07924
925.138	1.70358
926.81	1.64597
928.48	0.62018
930.151	1.09747
931.82	1.13446
933.489	1.48073
935.16	1.45227
936.828	1.68928
938.496	0.516319
940.165	1.59505
941.833	0.734838
943.5	0.75808
945.168	0.626543
946.834	1.04493
948.5	1.26164
950.168	0.570311
951.834	0.980551
953.499	1.08201
955.163	1.45078
956.83	0.854023
958.494	1.56395
960.158	0.954903
961.821	1.36366
963.487	0.424255
965.15	0.454025
966.812	0.390968
968.474	1.96073
970.138	0.274702
971.8	1.48548
973.461	1.70157
975.123	0.239584
976.783	1.56711
978.446	0.818233
980.106	0.955149
981.766	1.09143
983.425	1.69035
985.084	1.93174
986.743	2.03664
988.402	1.98349
990.06	0.866888
991.72	0.855423
993.378	1.66095
995.035	1.03097
996.692	0.556368
998.349	1.89022
1000.01	2.36275
1001.66	2.67985
1003.32	1.93949
1004.97	1.94728
1006.63	0.856192
1008.28	0.184135
1009.94	1.13738
1011.59	0.796322
1013.25	1.42077
1014.9	1.43189
1016.55	0.743244
1018.21	1.369
1019.86	0.945833
1021.51	1.59607
1023.16	1.02385
1024.81	1.67733
1026.47	1.74165
1028.12	2.15554
1029.77	1.84725
1031.42	1.1875
1033.07	2.68663
1034.72	2.04318
1036.37	2.48821
1038.02	3.80249
1039.67	4.37456
1041.31	4.55567
1042.96	5.49998
1044.61	4.96959
1046.26	4.57394
1047.91	4.61661
1049.55	3.27263
1051.2	2.45212
1052.84	2.19763
1054.49	2.3783
1056.14	1.86351
1057.78	2.00018
1059.43	1.52724
1061.07	1.14004
1062.72	0.903706
1064.36	1.03547
1066	0.991518
1067.65	1.79335
1069.29	0.941889
1070.93	1.06726
1072.58	1.06213
1074.22	0.580561
1075.86	1.29408
1077.5	0.881866
1079.14	0.927242
1080.78	1.10397
1082.42	1.38904
1084.06	0.631773
1085.7	1.06426
1087.34	0.712992
1088.98	1.0299
1090.62	1.38671
1092.26	1.89221
1093.9	0.841162
1095.54	2.05777
1097.17	1.03197
1098.81	1.15178
1100.45	1.81264
1102.09	1.76617
1103.72	1.57228
1105.36	0.886013
1106.99	1.19016
1108.63	0.741001
1110.27	1.60163
1111.9	0.782614
1113.53	2.10968
1115.17	1.90889
1116.8	1.55721
1118.43	1.50641
1120.07	1.41407
1121.7	0.981024
1123.33	1.21369
1124.97	0.656275
1126.6	1.87593
1128.23	1.36427
1129.86	1.32443
1131.49	1.41386
1133.12	1.97408
1134.75	1.25141
1136.38	1.23307
1138.01	0.935152
1139.64	1.59654
1141.27	0.611788
1142.9	0.928822
1144.53	0.584686
1146.16	1.39324
1147.78	0.583258
1149.41	0.648716
1151.04	0.352829
1152.67	0.823671
1154.29	0.506001
1155.92	0.975306
1157.54	0.444204
1159.17	0.360739
1160.8	0.30003
1162.42	0.283714
1164.05	0.162733
1165.67	0.0425301
1167.29	0.389618
1168.92	-0.434401
1170.54	-0.665668
1172.16	0.204905
1173.79	0.37108
1175.41	0.195614
1177.03	-0.255917
1178.65	-0.176823
1180.28	0.411291
1181.9	0.217463
1183.52	0.0460777
1185.14	0.128414
1186.76	-0.107643
1188.38	0.0126724
1190	0.277149
1191.62	0.580044
1193.24	0.606455
1194.86	0.232639
1196.47	-0.181913
1198.09	1.10205
1199.71	0.754757
1201.33	0.850922
1202.95	0.700884
1204.56	1.30663
1206.18	0.830647
1207.8	1.48351
1209.41	1.23965
1211.03	1.03612
1212.64	1.10081
1214.26	0.578255
1215.87	1.67673
1217.49	0.960596
1219.1	1.22087
1220.71	0.795485
1222.33	2.54956
1223.94	1.52635
1225.55	1.68752
1227.16	1.78904
1228.78	1.72742
1230.39	3.03262
1232	2.00351
1233.61	2.713
1235.22	3.05264
1236.83	2.15433
1238.44	2.62199
1240.05	2.76016
1241.66	2.73322
1243.27	2.7677
1244.88	3.04906
1246.49	2.85269
1248.1	2.34411
1249.71	2.97225
1251.32	3.26873
1252.92	2.57272
1254.53	2.37456
1256.14	2.40585
1257.74	2.89445
1259.35	2.41274
1260.96	2.30485
1262.56	2.81894
1264.17	3.04339
1265.77	2.85277
1267.38	2.59851
1268.98	2.9437
1270.59	3.59813
1272.19	3.91891
1273.79	3.5121
1275.4	3.76687
1277	3.14946
1278.6	3.29741
1280.21	3.54767
1281.81	3.67301
1283.41	3.73642
1285.01	3.42861
1286.61	3.12266
1288.21	3.41812
1289.81	4.00444
1291.41	3.57903
1293.01	2.96751
1294.61	4.29661
1296.21	3.24768
1297.81	4.5292
1299.41	4.56841
1301.01	4.41915
1302.6	3.62928
1304.2	3.3741
1305.8	3.61153
1307.4	3.90914
1308.99	3.56967
1310.59	3.29246
1312.19	3.58972
1313.78	3.45833
1315.38	3.28813
1316.97	4.20197
1318.57	4.09535
1320.16	3.0101
1321.76	3.61547
1323.35	3.58613
1324.94	3.43174
1326.54	3.96541
1328.13	3.68589
1329.72	3.67141
1331.32	3.51838
1332.91	3.99606
1334.5	3.24551
1336.09	3.8507
1337.68	2.98389
1339.27	3.00364
1340.87	3.70514
1342.45	3.35524
1344.04	4.18838
1345.64	2.99013
1347.22	2.43683
1348.81	3.49003
1350.4	2.62453
1351.99	3.16466
1353.58	2.00848
1355.17	1.73463
1356.75	2.46054
1358.34	2.40623
1359.93	1.95096
1361.51	2.25272
1363.1	2.35331
1364.69	1.99473
1366.27	2.75274
1367.86	1.83863
1369.44	2.16152
1371.03	2.50649
1372.61	2.33633
1374.2	2.14818
1375.78	2.89632
1377.37	2.11239
1378.95	1.96431
1380.53	1.75484
1382.11	2.81636
1383.7	2.28419
1385.28	1.98931
1386.86	2.07145
1388.44	2.1141
1390.02	1.66161
1391.6	1.56809
1393.19	1.55523
1394.77	1.38428
1396.35	2.08552
1397.93	1.77422
1399.51	1.6398
1401.08	1.20689
1402.66	2.69351
1404.24	1.90348
1405.82	1.88631
1407.4	1.5741
1408.97	2.42921
1410.55	1.64519
1412.13	1.80931
1413.71	1.59728
1415.28	2.11395
1416.86	0.932834
1418.43	1.58534
1420.01	2.08015
1421.59	1.84778
1423.16	1.9528
1424.73	2.92647
1426.31	2.15046
1427.88	2.28065
1429.46	2.80398
1431.03	2.83365
1432.6	2.11357
1434.18	2.63163
1435.75	3.89599
1437.32	2.84005
1438.89	3.65326
1440.46	3.72112
1442.04	3.98718
1443.61	4.47065
1445.18	4.5028
1446.75	3.86696
1448.32	4.39108
1449.89	4.9355
1451.46	4.3995
1453.03	4.92627
1454.6	3.99823
1456.16	4.82079
1457.73	4.34355
1459.3	3.94257
1460.87	3.79432
1462.44	3.56412
1464	4.03915
1465.57	2.48745
1467.14	3.51012
1468.7	2.58872
1470.27	2.31732
1471.83	2.36185
1473.4	2.34926
1474.96	2.37715
1476.53	3.09193
1478.09	2.25794
1479.66	2.24732
1481.22	1.98173
1482.78	2.18638
1484.35	1.99885
1485.91	1.86952
1487.47	2.16979
1489.04	1.62581
1490.6	1.94021
1492.16	1.91822
1493.72	1.58019
1495.28	1.43512
1496.84	1.44459
1498.4	1.74557
1499.96	2.47429
1501.52	1.65019
1503.08	2.12903
1504.64	1.27156
1506.2	2.31296
1507.76	1.99766
1509.32	0.947197
1510.88	1.11282
1512.44	1.71988
1513.99	0.68902
1515.55	0.814304
1517.11	0.633102
1518.66	1.06708
1520.22	0.849822
1521.78	1.11162
1523.33	0.493134
1524.89	0.714765
1526.44	0.743634
1528	0.847157
1529.55	0.588341
1531.11	0.634027
1532.66	0.414954
1534.21	1.31501
1535.77	1.02299
1537.32	0.959815
1538.87	0.8412
1540.43	0.893069
1541.98	0.831943
1543.53	0.846038
1545.08	1.29218
1546.63	1.49293
1548.18	1.29901
1549.74	1.23663
1551.29	1.09979
1552.84	0.776996
1554.39	1.59627
1555.94	1.37066
1557.48	0.774817
1559.03	1.54455
1560.58	1.73854
1562.13	1.43133
1563.68	1.1631
1565.23	1.23152
1566.78	1.18807
1568.32	2.02143
1569.87	2.07037
1571.42	1.932
1572.96	1.4385
1574.51	2.79282
1576.05	2.14977
1577.6	1.86172
1579.14	2.15305
1580.69	2.33341
1582.24	1.76806
1583.78	1.72679
1585.32	1.9109
1586.87	2.582
1588.41	1.94451
1589.95	2.54113
1591.5	2.20149
1593.04	2.1979
1594.58	2.58719
1596.12	1.75894
1597.67	2.35526
1599.21	2.18431
1600.75	3.36498
1602.29	3.02726
1603.83	2.93321
1605.37	2.81908
1606.91	3.32272
1608.45	3.71044
1609.99	2.32752
1611.53	2.85784
1613.07	2.89625
1614.6	3.2328
1616.14	2.87432
1617.68	3.34184
1619.22	2.44325
1620.75	2.18458
1622.29	1.87201
1623.83	2.7402
1625.37	3.19631
1626.9	2.52802
1628.44	3.07399
1629.97	3.24321
1631.51	2.70034
1633.04	3.20342
1634.58	3.01581
1636.11	3.38945
1637.65	4.04405
1639.18	3.09591
1640.72	3.54615
1642.25	4.36751
1643.78	3.69656
1645.31	3.67557
1646.85	4.7873
1648.38	4.7449
1649.91	4.90758
1651.44	4.0327
1652.97	4.68182
1654.5	4.7576
1656.03	4.61201
1657.56	4.33661
1659.1	4.57855
1660.62	4.04043
1662.15	4.51785
1663.68	4.475
1665.21	4.39431
1666.74	4.42517
1668.27	4.23665
1669.8	3.9957
1671.32	3.66541
1672.85	3.68716
1674.38	3.94901
1675.91	3.69476
1677.43	4.28579
1678.96	3.6787
1680.49	2.51886
1682.01	3.12303
1683.54	2.71601
1685.06	2.87848
1686.59	2.5462
1688.11	2.70989
1689.64	2.04971
1691.16	1.59196
1692.68	1.97656
1694.21	2.34235
1695.73	1.35467
1697.25	0.988843
1698.78	1.70026
1700.3	1.64366
1701.82	0.984471
1703.34	1.21828
1704.86	0.995635
1706.39	0.990983
1707.91	0.949556
1709.43	0.326877
1710.95	1.28415
1712.47	0.80767
1713.99	0.31409
1715.51	0.780781
1717.02	0.993372
1718.54	1.02466
1720.06	0.911327
1721.58	0.473699
1723.1	0.758714
1724.62	0.0719576
1726.13	0.88244
1727.65	0.776191
1729.17	-0.0663528
1730.68	0.350235
1732.2	0.634542
1733.72	1.28397
1735.23	0.517451
1736.75	0.150251
1738.26	0.091011
1739.78	0.944821
1741.29	0.607416
1742.81	0.55243
1744.32	0.150407
1745.84	0.0306845
1747.35	0.11268
1748.86	0.833518
1750.37	-0.353832
1751.89	0.109274
1753.4	0.233294
1754.91	-0.0297718
1756.42	0.058259
1757.93	0.0648193
1759.45	-0.270801
1760.96	0.140063
1762.47	0.500151
1763.98	-0.0604706
1765.49	0.505112
1767	0.146211
1768.51	-0.176908
1770.02	-0.333197
1771.53	0.344672
1773.03	0.241077
1774.54	-0.258924
1776.05	0.526284
1777.56	-0.149778
1779.07	0.175404
1780.57	0.210926
1782.08	-0.0206585
1783.59	-0.0117483
1785.09	0.35315
1786.6	0.162167
1788.11	-0.207862
1789.61	-0.161588
1791.12	-0.095767
1792.62	0.00585461
1794.13	0.105105
1795.63	-0.0460539
1797.13	0.0937529
1798.64	-0.0513706
1800.14	-0.0286417
1801.65	0.252888
1803.15	-0.159254
1804.65	0.00512314
1806.15	-0.159979
1807.66	0.244151
1809.16	0.329714
1810.66	0.420269
1812.16	-0.0162535
1813.66	-0.187147
1815.16	0.155159
1816.66	0.0551052
1818.16	0.0424366
1819.66	0.164624
1821.16	0.156894
1822.66	0.118978
1824.16	-0.0478544
1825.66	-0.0794516
1827.16	0.173785
1828.66	0.37125
1830.16	0.297199
1831.65	-0.112825
1833.15	0.0573101
1834.65	0.0229521
1836.14	-0.173221
1837.64	0.223454
1839.14	0.17484
1840.63	-0.304326
1842.13	0.000557899
1843.62	-0.306673
1845.12	-0.0296879
1846.61	-0.144876
1848.11	0.175584
1849.6	0.301085
1851.1	0.249845
1852.59	0.243999
1854.08	0.348686
1855.58	-0.0488768
1857.07	-0.468146
1858.56	0.206987
1860.05	0.211912
1861.55	0.152163
1863.04	0.189961
1864.53	-0.0898123
1866.02	0.0265493
1867.51	-0.114059
1869	0.388901
1870.49	0.40221
1871.98	0.182783
1873.47	-0.340331
1874.96	-0.12296
1876.45	-0.0349617
1877.94	-0.531081
1879.43	0.155633
1880.92	-0.248801
1882.41	-0.216903
1882.51	-0.213251
1884	0.101105
1885.5	0.117878
1886.99	-0.162708
1888.48	0.269989
1889.98	0.145718
1891.47	0.0403261
1892.96	0.111107
1894.46	0.253976
1895.95	-0.34862
1897.44	-0.0459108
1898.93	0.482917
1900.42	-0.276936
1901.91	0.613553
1903.41	0.266375
1904.9	0.299788
1906.39	0.123516
1907.88	-0.0352726
1909.37	0.154067
1910.86	-0.0718651
1912.35	-0.0188646
1913.83	-0.0865078
1915.32	0.210154
1916.81	0.402199
1918.3	0.628029
1919.79	-0.151886
1921.27	0.142451
1922.76	0.212056
1924.25	0.369415
1925.74	0.199435
1927.22	0.307961
1928.71	0.0365095
1930.19	0.284444
1931.68	0.46201
1933.17	0.0314445
1934.65	0.0659504
1936.14	0.0634642
1937.62	0.266775
1939.11	0.175405
1940.59	-0.0535936
1942.07	0.0985155
1943.56	0.0794392
1945.04	0.216782
1946.52	-0.0764036
1948.01	0.181743
1949.49	0.26639
1950.97	0.34954
1952.45	0.345223
1953.93	0.0993347
1955.42	0.231686
1956.9	0.364394
1958.38	0.206142
1959.86	0.392174
1961.34	-0.124216
1962.82	-0.0571375
1964.3	-0.0417728
1965.78	0.144124
1967.26	-0.0819101
1968.74	0.495314
1970.21	0.318839
1971.69	0.449667
1973.17	0.0340271
1974.65	-0.0738811
1976.13	0.432186
1977.6	0.0180321
1979.08	0.0641403
1980.56	0.0250921
1982.03	-0.0821419
1983.51	-0.172662
1984.99	-0.195626
1986.46	0.0185385
1987.94	-0.479438
1989.41	0.15834
1990.89	0.288457
1992.36	-0.10458
1993.84	0.315616
1995.31	-0.260434
1996.78	0.279497
1998.26	0.075943
1999.73	0.22645
2001.2	0.342227
2002.68	0.0861168
2004.15	0.318933
2005.62	0.316082
2007.09	0.533231
2008.56	0.532676
2010.04	0.0956383
2011.51	0.130804
2012.98	0.485826
2014.45	-0.00128078
2015.92	0.318311
2017.39	0.23278
2018.86	0.0452871
2020.33	0.277251
2021.8	-0.12939
2023.26	0.220143
2024.73	0.503339
2026.2	0.234481
2027.67	0.118672
2029.14	-0.0789309
2030.61	0.46339
2032.07	0.201849
2033.54	0.31014
2035.01	0.132995
2036.47	0.307971
2037.94	0.566306
2039.4	0.0510721
2040.87	0.107078
2042.33	0.331754
2043.8	0.187565
2045.27	0.31374
2046.73	0.643122
2048.19	-0.104792
2049.66	0.410085
2051.12	0.367626
2052.59	0.356684
2054.05	0.629894
2055.51	0.2935
2056.97	-0.196393
2058.44	0.492507
2059.9	0.304728
2061.36	0.252347
2062.82	0.436779
2064.28	0.319608
2065.74	0.658235
2067.21	0.594164
2068.67	0.85071
2070.13	0.670102
2071.59	0.843077
2073.05	0.409731
2074.51	1.01993
2075.96	1.24241
2077.42	0.352894
2078.88	0.692126
2080.34	1.01383
2081.8	0.593841
2083.26	0.94735
2084.72	0.794759
2086.17	0.792592
2087.63	0.335549
2089.09	0.92029
2090.54	0.916242
2092	1.33179
2093.45	0.958119
2094.91	1.03727
2096.37	1.16588
2097.82	1.1426
2099.28	1.25231
2100.73	1.06035
2102.19	1.01937
2103.64	0.812661
2105.09	1.1254
2106.55	1.15627
2108	1.77243
2109.45	1.30494
2110.91	1.08696
2112.36	1.93364
2113.81	1.39464
2115.26	1.22007
2116.72	1.34368
2118.17	1.89938
2119.62	1.67611
2121.07	1.83756
2122.52	2.035
2123.97	2.28435
2125.42	1.9046
2126.87	1.77322
2128.32	2.3863
2129.77	1.88666
2131.22	1.76639
2132.67	2.93611
2134.11	2.84715
2135.56	2.77605
2137.01	2.64123
2138.46	2.87298
2139.91	2.47972
2141.35	3.09728
2142.8	3.27064
2144.25	3.39559
2145.7	3.1071
2147.14	3.5464
2148.59	3.40528
2150.03	3.69338
2151.48	3.1846
2152.92	3.93339
2154.37	3.88547
2155.81	3.68765
2157.26	4.16915
2158.7	4.02233
2160.15	3.92742
2161.59	4.33254
2163.03	4.49246
2164.47	4.48933
2165.92	4.30504
2167.36	4.80153
2168.8	4.9311
2170.24	4.20943
2171.69	4.66481
2173.13	5.38302
2174.57	4.66813
2176.01	4.80056
2177.45	4.35131
2178.89	5.00076
2180.33	4.60446
2181.77	4.45906
2183.21	4.88006
2184.65	4.30374
2186.09	4.45928
2187.53	4.64822
2188.97	4.37129
2190.4	4.26068
2191.84	4.01638
2193.28	3.92062
2194.72	3.93917
2196.16	3.43867
2197.59	3.63403
2199.03	3.16122
2200.47	3.61777
2201.9	3.39267
2203.34	3.21871
2204.77	3.56074
2206.21	2.59483
2207.64	3.0719
2209.08	3.39925
2210.51	2.7485
2211.95	2.97356
2213.38	2.6351
2214.82	2.16475
2216.25	2.81838
2217.68	2.43366
2219.12	1.88632
2220.55	2.01659
2221.98	2.1305
2223.41	2.52334
2224.85	2.53494
2226.28	1.85272
2227.71	2.27056
2229.14	1.94654
2230.57	1.39233
2232	1.5928
2233.43	1.67865
2234.86	1.12769
2236.29	1.64137
2237.72	1.35662
2239.15	1.25446
2240.58	1.79144
2242.01	1.36863
2243.44	1.51854
2244.87	1.53853
2246.29	1.16609
2247.72	1.32963
2249.15	1.1639
2250.58	0.881093
2252.01	1.55655
2253.43	1.13998
2254.86	0.968285
2256.29	0.912532
2257.71	1.03867
2259.14	0.957879
2260.56	1.10842
2261.99	0.69443
2263.41	1.14306
2264.84	0.796402
2266.26	0.92037
2267.69	0.327546
2269.11	1.08371
2270.53	0.943883
2271.96	0.982351
2273.38	0.988002
2274.8	0.863442
2276.23	0.706528
2277.65	0.533475
2279.07	0.360419
2280.49	0.774229
2281.91	0.274664
2283.34	0.737304
2284.76	0.580099
2286.18	0.390465
2287.6	0.838006
2289.02	0.812779
2290.44	0.265221
2291.86	0.485904
2293.28	0.347159
2294.7	0.502759
2296.12	0.822058
2297.54	0.502903
2298.96	0.543952
2300.37	0.224711
2301.79	0.479471
2303.21	0.308314
2304.63	0.15361
2306.04	0.359952
2307.46	-0.14051
2308.88	-0.0668011
2310.3	0.236387
2311.71	0.308937
2313.13	0.184024
2314.54	0.48751
2315.96	0.413502
2317.37	0.324017
2318.79	0.0537195
2320.2	0.327104
2321.62	0.714764
2323.03	0.225313
2324.45	0.475271
2325.86	0.590029
2327.27	0.619882
2328.69	0.763972
2330.1	0.496358
2331.51	0.592428
2332.92	0.0645676
2334.34	0.196327
2335.75	0.01581
2337.16	0.525529
2338.57	0.0964851
2339.98	-0.39946
2341.39	-0.337746
2342.8	0.035018
2344.21	0.0956249
2345.63	0.107341
2347.04	0.381495
2348.45	0.0333271
2349.85	0.0776958
2351.26	-0.0261631
2352.67	-0.0985126
2354.08	-0.286212
2355.49	0.161247
2356.9	-0.304512
2358.3	0.417995
2359.71	0.342986
2361.12	-0.186177
2362.53	0.145048
2363.93	0.151512
2365.34	0.190223
2366.75	-0.433506
2368.15	0.365594
2369.56	0.11608
2370.97	0.336218
2372.37	0.0101509
2373.77	-0.0565739
2375.18	0.0221491
2376.59	0.148577
2377.99	0.691503
2379.39	0.203177
2380.8	0.27524
2382.2	0.00846958
2383.6	0.109438
2385.01	0.145843
2386.41	0.358418
2387.81	0.491945
2389.21	0.435533
2390.62	0.38096
2392.02	0.248498
2393.42	0.117575
2394.82	0.703606
2396.22	0.209078
2397.62	0.319695
2399.02	-0.109186
2400.42	0.0982246
2401.82	-0.0275679
2403.22	0.0849562
2404.62	0.0858011
2406.02	0.0219955
2407.42	0.24259
2408.82	0.414321
2410.22	-0.223008
2411.62	0.249615
2413.01	0.422007
2414.41	0.326891
2415.81	0.186337
2417.21	0.158427
2418.6	0.131757
2420	-0.100307
2421.4	0.253486
2422.79	0.274219
2424.19	-0.196607
2425.59	0.124842
2426.98	0.399519
2428.38	0.612105
2429.77	0.271072
2431.17	0.0100393
2432.56	0.0664797
2433.95	-0.243008
2435.35	0.79617
2436.74	-0.025281
2438.14	0.310964
2439.53	0.0576029
2440.92	0.247762
2442.31	0.278299
2443.71	0.594032
2445.1	0.227215
2446.49	0.114161
2447.88	0.270428
2449.27	0.014678
2450.67	0.123619
2452.06	0.343978
2453.45	0.549437
2454.84	0.455414
2456.23	-0.15963
2457.62	0.111652
2459.01	0.0821753
2460.4	0.162636
2461.79	0.226157
2463.18	0.304359
2464.57	0.460689
2465.95	0.632246
2467.34	-0.0646811
2468.73	0.232965
2470.12	0.0411673
2471.5	0.369112
2472.89	0.364926
2474.28	0.690271
2475.67	0.290622
2477.05	-0.344683
2478.44	-0.272326
2479.82	0.0982685
2481.21	0.170588
2482.6	0.509053
2483.98	0.470614
2485.37	0.337178
2486.75	0.202445
2488.13	0.00408936
2489.52	-0.350632
2490.9	-0.0820847
2492.29	0.0931835
2493.67	-0.0566044
2495.05	0.0749264
2496.44	-0.0865698
2497.82	0.187014
2499.2	-0.266891
2500.58	0.14558
2501.97	0.108171
2503.35	-0.301074
2504.73	-0.093708
2506.11	-0.0725203
2507.49	0.0252352
2508.87	0.0768108
2510.25	-0.0861645
2511.63	0.319717
2513.01	0.495969
2514.39	-0.0773811
2515.77	-0.220155
2517.15	-0.0710812
2518.53	0.109131
2519.91	-0.107907
2521.29	-0.355606
2522.67	-0.0238638
2524.05	0.336817
2525.42	0.482592
2526.8	-0.39251
2528.18	-0.124513
2529.55	-0.326838
2530.93	0.248246
2532.31	-0.223217
2533.69	0.218884
2535.06	0.358063
2536.44	-0.156071
2537.81	0.21005
2539.19	0.0280075
2540.56	0.087863
2541.94	-0.323322
2543.31	-0.278714
2544.69	0.0551825
2546.06	0.193444
2547.44	0.196856
2548.81	0.155916
2550.18	0.206134
2551.56	0.0736094
2552.93	0.334418
2554.3	-0.225659
2555.67	0.123544
2557.04	0.441483
2558.42	-0.105252
2559.79	0.606877
2561.16	0.0159845
2562.53	-0.0282993
2563.9	0.185822
2565.27	-0.372324
2566.64	0.191264
2568.01	-0.0330439
2569.38	0.439809
2570.75	0.397382
2572.12	0.506576
2573.49	0.479473
2574.86	-0.0326138
2576.23	0.107183
2577.6	0.292392
2578.97	0.371174
2580.33	0.146214
2581.7	-0.0338097
2583.07	-0.0778608
2584.44	0.120331
2585.8	-0.272762
2587.17	0.365029
2588.54	-0.042758
2589.9	0.0952291
2591.27	-0.297341
2592.64	0.445937
2594	-0.311843
2595.37	-0.464806
2596.73	-0.391935
2598.1	0.284941
2599.46	0.295278
2600.83	0.396388
2602.19	0.105422
2603.55	0.208126
2604.92	-0.0355492
2606.28	0.234099
2607.64	0.246776
2609.01	-0.284278
2610.37	0.328392
2611.73	0.411612
2613.09	-0.0933561
2614.46	0.438057
2615.82	0.502836
2617.18	-0.136755
2618.54	0.109302
2619.9	-0.272516
2621.26	0.154686
2622.62	-0.18006
2623.98	0.71041
2625.34	0.30137
2626.7	0.116225
2628.06	0.303417
2629.42	0.0581055
2630.78	0.333617
2632.14	0.549071
2633.5	-0.00831795
2634.86	0.236632
2636.21	0.258694
2637.57	-0.0156679
2638.93	0.317534
2640.29	0.487683
2641.64	-0.199523
2643	0.488541
2644.36	0.112951
2645.71	0.327877
2647.07	0.0112534
2648.43	0.283371
2649.78	-0.240767
2651.14	0.0290489
2652.49	0.121649
2653.85	0.287705
2655.2	0.0733576
2656.56	0.285591
2657.91	0.162472
2659.26	0.318673
2660.62	-0.0803299
2661.97	0.0908346
2663.32	0.173381
2664.68	0.269313
2666.03	0.0285969
2667.38	0.093646
2668.74	-0.336639
2670.09	-0.0529261
2671.44	0.201971
2672.79	-0.00758171
2674.14	-0.0127354
2675.49	0.0554647
2676.84	0.0228081
2678.19	0.237622
2679.54	0.0329514
2680.89	0.264699
2682.24	0.222591
2683.59	0.211107
2684.94	0.0994053
2686.29	0.525145
2687.64	0.326838
2688.99	0.14133
2690.34	0.0986862
2691.69	0.126152
2693.03	0.398158
2694.38	-0.0129757
2695.73	0.0688152
2697.08	-0.0949268
2698.42	0.0617476
2699.77	0.249571
2701.12	0.367372
2702.46	0.212092
2703.81	0.405926
2705.15	0.180229
2706.5	0.650617
2707.85	0.468081
2709.19	0.212242
2710.54	0.536557
2711.88	0.105334
2713.22	0.124102
2714.57	-0.104309
2715.91	0.00147533
2717.26	0.456185
2718.6	-0.0493603
2719.94	0.448381
2721.29	0.46542
2722.63	0.147025
2723.97	0.366493
2725.31	0.599925
2726.66	0.468934
2728	0.672253
2729.34	0.0457087
2730.68	0.641351
2732.02	0.407521
2733.36	0.0720358
2734.7	0.245945
2736.04	0.594639
2737.38	0.361729
2738.72	0.405134
2740.06	0.753577
2741.4	0.287028
2742.74	-0.267469
2744.08	0.543483
2745.42	0.118184
2746.76	0.462263
2748.09	-0.0360994
2749.43	0.452626
2750.77	-0.103004
2752.11	0.211994
2753.45	0.237229
2754.78	0.248196
2756.12	-0.00137043
2757.46	-0.0478601
2758.79	0.137631
2760.13	0.381448
2761.46	-0.372643
2762.8	0.335504
2764.14	-0.156937
2765.47	0.103017
2766.8	-0.158488
2768.14	-0.0595312
2769.47	0.0376558
2770.81	0.190598
2772.14	-0.279504
2773.48	-0.158656
2774.81	-0.0675926
2776.14	0.00883961
2777.48	-0.0583124
2778.81	0.43623
2780.14	0.427805
2781.47	0.434207
2782.8	-0.0615654
2784.14	0.188995
2785.47	0.0378914
2786.8	0.173685
2788.13	-0.219648
2789.46	-0.210919
2790.79	0.385385
2792.12	0.0958939
2793.45	0.493351
2794.78	0.218973
2796.11	-0.155748
2797.44	0.226052
2798.77	-0.0499907
2800.1	0.187396
2801.43	0.367132
2802.76	0.589195
2804.09	0.112376
2805.41	0.119724
2806.74	0.311263
2808.07	-0.408627
2809.4	-0.0620966
2810.72	-0.071104
2812.05	0.133562
2813.38	-0.256178
2814.71	-0.189957
2816.03	0.430957
2817.36	0.358765
2818.68	0.372447
2820.01	0.201895
2821.33	0.512621
2822.66	-0.0420799
2823.98	0.450992
2825.31	0.135968
2826.63	0.727453
2827.96	0.625651
2829.28	0.354795
2830.6	0.749959
2831.93	0.749043
2833.25	0.394173
2834.57	1.38353
2835.9	0.362369
2837.22	1.08117
2838.54	1.55853
2839.86	1.9222
2841.18	1.91824
2842.5	1.83008
2843.83	2.43543
2845.15	2.22209
2846.47	2.57499
2847.79	2.73061
2849.11	3.19722
2850.43	3.08391
2851.75	3.09704
2853.07	3.06699
2854.39	3.19178
2855.71	2.96303
2857.03	3.5254
2858.35	3.70633
2859.66	4.26847
2860.98	3.92648
2862.3	4.5582
2863.62	4.69506
2864.94	5.0995
2866.25	5.12281
2867.57	5.64011
2868.89	5.67851
2870.2	5.90087
2871.52	6.05295
2872.84	6.28909
2874.15	6.42525
2875.47	6.75672
2876.78	6.50881
2878.1	6.03461
2879.41	6.82614
2880.73	6.74585
2882.04	6.94801
2883.36	7.06753
2884.67	7.14653
2885.99	7.47922
2887.3	6.98384
2888.61	7.28773
2889.93	6.56612
2891.24	7.11957
2892.55	7.33513
2893.86	7.67626
2895.18	7.12154
2896.49	7.7304
2897.8	7.99086
2899.11	8.44889
2900.42	8.20873
2901.73	8.06737
2903.05	8.58381
2904.36	8.68083
2905.67	8.90422
2906.98	9.19852
2908.29	9.63419
2909.6	10.1975
2910.91	10.2442
2912.21	10.6269
2913.52	11.2603
2914.83	11.2051
2916.14	12.0146
2917.45	11.5192
2918.76	12.0155
2920.07	12.8048
2921.37	13.567
2922.68	12.9473
2923.99	13.6165
2925.29	13.6589
2926.6	14.08
2927.91	14.5431
2929.22	14.684
2930.52	14.4742
2931.83	14.8226
2933.13	14.7651
2934.44	14.6655
2935.74	15.223
2937.05	14.9843
2938.35	14.5362
2939.66	14.2565
2940.96	13.9498
2942.26	13.6728
2943.57	13.5937
2944.87	12.9162
2946.18	13.0377
2947.48	12.4609
2948.78	11.7992
2950.08	11.485
2951.39	11.4893
2952.69	11.4339
2953.99	11.0959
2955.29	10.5752
2956.59	10.3642
2957.9	10.5627
2959.2	9.61828
2960.5	9.70067
2961.8	9.46444
2963.1	9.76242
2964.4	8.59975
2965.7	8.78166
2967	8.35651
2968.3	8.63161
2969.6	8.39923
2970.9	8.27901
2972.19	7.61055
2973.49	7.2097
2974.79	7.44205
2976.09	6.87089
2977.39	6.94511
2978.68	6.38281
2979.98	6.63419
2981.28	6.41875
2982.58	6.06183
2983.87	5.93066
2985.17	5.50623
2986.47	4.62076
2987.76	4.84786
2989.06	4.73931
2990.35	4.82795
2991.65	4.31146
2992.94	4.07438
2994.24	3.61052
2995.53	3.60863
2996.83	3.29668
2998.12	3.50386
2999.42	3.10804
3000.71	2.76944
3002	2.33384
3003.3	2.57173
3004.59	2.15124
3005.88	2.64085
3007.18	1.78531
3008.47	1.75479
3009.76	1.42933
3011.05	1.69004
3012.34	1.82403
3013.64	1.1068
3014.93	1.11611
3016.22	1.12639
3017.51	0.956738
3018.8	1.08022
3020.09	0.410974
3021.38	0.700899
3022.67	0.878133
3023.96	0.429194
3025.25	0.714766
3026.54	0.694736
3027.83	0.384798
3029.12	0.35345
3030.41	0.0478649
3031.69	0.600856
3032.98	0.437015
3034.27	0.453156
3035.56	0.634085
3036.84	0.564819
3038.13	0.327805
3039.42	0.418865
3040.71	0.397536
3041.99	0.361204
3043.28	0.47563
3044.57	0.645663
3045.85	-0.180478
3047.14	0.445961
3048.42	0.282939
3049.71	0.286814
3050.99	0.74322
3052.28	0.559418
3053.56	0.621273
3054.85	0.0410194
3056.13	0.646137
3057.41	0.785742
3058.7	0.637923
3059.98	0.803031
3061.26	1.0637
3062.55	0.645433
3063.83	0.582983
3065.11	0.645116
3066.39	0.35577
3067.68	0.271746
3068.96	0.419448
3070.24	0.322037
3071.52	0.672247
3072.8	0.408721
3074.08	0.320274
3075.36	0.149058
3076.65	-0.0631943
3077.93	-0.179685
3079.21	0.00386047
3080.49	0.297865
3081.77	-0.0299892
3083.04	0.010148
3084.32	0.336222
3085.6	-0.151752
3086.88	-0.178992
3088.16	0.200015
3089.44	0.00800133
3090.72	-0.0217638
3091.99	-0.0517159
3093.27	0.17626
3094.55	-0.110753
3095.83	-0.112543
3097.1	-0.276873
3098.38	0.100922
3099.66	-0.0636377
3100.93	-0.0114889
3102.21	-0.108244
3103.49	-0.015027
3104.76	0.187132
3106.04	0.227842
3107.31	-0.000822067
3108.59	0.0290813
3109.86	-0.115499
3111.14	0.160943
3112.41	-0.0354242
3113.69	-0.190694
3114.96	0.0199099
3116.23	0.189387
3117.51	-0.0762482
3118.78	0.280524
3120.05	0.418717
3121.33	0.311495
3122.6	-0.162391
3123.87	0.0953264
3125.14	0.353081
3126.41	0.137549
3127.69	0.0853195
3128.96	0.466656
3130.23	0.199255
3131.5	0.418807
3132.77	0.475881
3134.04	-0.318507
3135.31	0.0346346
3136.58	0.40013
3137.85	0.265605
3139.12	0.292425
3140.39	0.265113
3141.66	0.143825
3142.93	0.49342
3144.2	0.480618
3145.47	0.187006
3146.74	0.363962
3148	0.0191116
3149.27	0.559204
