200.388	0.307118
202.204	0.374427
204.019	0.442637
205.832	0.414367
207.646	-0.00294217
209.459	0.429456
211.274	0.179416
213.087	0.582633
214.899	0.570896
216.711	0.994102
218.524	0.13267
220.335	0.119829
222.146	0.228728
223.956	0.725107
225.766	-0.204464
227.576	0.654007
229.388	0.0137563
231.197	0.531283
233.005	-0.375908
234.813	-0.124888
236.621	0.102968
238.429	-0.245457
240.236	-0.398268
242.045	0.729336
243.852	-0.504906
245.658	0.769207
247.464	0.134526
249.269	-0.190537
251.074	0.0110578
252.879	-0.298372
254.683	0.137529
256.487	0.523698
258.291	0.741416
260.094	0.238011
261.897	0.339163
263.702	-0.497366
265.504	-0.393506
267.306	0.120138
269.108	0.729628
270.909	-0.277473
272.71	-0.322219
274.511	0.450598
276.311	0.0154393
278.111	-0.374035
279.91	0.703154
281.709	0.572527
283.508	-0.594855
285.306	0.400077
287.105	0.26357
288.9	0.0549855
290.698	-0.176544
292.495	0.646771
294.291	0.944376
296.088	0.0717849
297.884	0.157003
299.679	0.361967
301.475	-0.532426
303.27	0.434803
305.064	0.182223
306.858	0.739317
308.652	-0.373528
310.444	-0.579538
312.237	0.311315
314.03	0.274731
315.822	0.859276
317.615	0.0884904
319.406	0.986561
321.198	0.313554
322.987	1.14287
324.778	0.899737
326.568	0.0353661
328.358	0.650598
330.148	0.18969
331.935	0.539695
333.724	0.145904
335.513	0.251541
337.301	0.019066
339.089	0.334044
340.875	0.670467
342.662	0.120844
344.449	-0.0463736
346.236	0.718373
348.02	0.169925
349.806	0.457717
351.592	0.0291671
353.375	0.291894
355.16	0.457569
356.944	0.978893
358.728	0.163241
360.51	-0.152987
362.294	1.02911
364.077	0.329711
365.858	0.414348
367.64	0.378983
369.422	0.555813
371.202	0.423044
372.983	0.455109
374.764	0.557311
376.543	0.0217533
378.324	0.643251
380.102	0.439871
381.881	0.167494
383.661	0.0850663
385.438	0.356717
387.216	0.253452
388.993	0.0574592
390.771	0.66112
392.548	0.302599
394.324	0.860549
396.101	0.57339
397.875	1.08467
399.651	1.00847
401.425	0.579206
403.201	0.947596
404.974	0.516309
406.749	0.765033
408.524	0.77796
410.296	-0.0782272
412.07	0.591252
413.841	0.603806
415.614	0.898644
417.385	0.678107
419.156	0.223531
420.928	0.28538
422.698	0.0885957
424.469	0.923784
426.238	0.137882
428.009	0.501164
429.777	-0.169176
431.548	-0.464048
433.315	-0.171968
435.083	-0.184748
436.852	0.248262
438.618	-0.0706718
440.387	0.664613
442.153	0.482127
443.919	0.719034
445.686	-0.0541238
447.451	-0.289292
449.218	-0.361061
450.982	-0.0355575
452.746	-0.107213
454.512	0.0779882
456.275	0.402621
458.038	0.586727
459.803	0.305079
461.565	0.838429
463.327	0.396742
465.091	-0.0418299
466.852	0.0805898
468.613	0.299124
470.374	0.241009
472.136	0.416256
473.896	0.00872841
475.655	0.670093
477.415	1.23587
479.176	1.21684
480.934	0.451038
482.692	0.500569
484.45	0.877457
486.21	0.557892
487.967	0.450417
489.724	0.531839
491.481	0.637954
493.237	0.861853
494.995	0.829146
496.75	1.6623
498.506	0.973652
500.26	0.564534
502.015	0.857968
503.771	0.986309
505.525	0.690277
507.279	1.63847
509.032	1.15046
510.785	1.38948
512.537	0.567541
514.289	1.03784
516.041	0.753422
517.793	0.72629
519.546	0.862418
521.297	0.997415
523.047	0.521021
524.797	0.983663
526.547	0.812334
528.297	0.547383
530.046	0.727802
531.795	0.228268
533.543	0.524196
535.291	1.07557
537.039	0.946516
538.787	0.512383
540.534	0.753972
542.281	0.621252
544.027	0.0462751
545.773	0.680912
547.519	0.455455
549.264	0.763989
551.01	0.446834
552.754	0.338753
554.499	0.415957
556.243	0.400956
557.987	0.501722
559.73	0.188157
561.474	0.221086
563.216	0.668666
564.959	-0.147932
566.701	0.0709852
568.441	0.152819
570.182	0.212835
571.923	0.25147
573.664	1.02609
575.405	1.00001
577.145	-0.171269
578.885	0.058536
580.624	-0.330632
582.361	-0.467279
584.1	0.222988
585.839	-0.329271
587.577	0.565936
589.315	0.470678
591.052	0.0751293
592.787	0.300121
594.524	-0.602464
596.26	-0.92982
597.997	0.606338
599.732	0.301535
601.466	0.432874
603.201	0.0796732
604.936	-0.137102
606.67	0.288148
608.403	0.482287
610.136	0.630063
611.87	-0.070493
613.603	-0.746507
615.334	0.251906
617.067	0.356297
618.799	0.551638
620.529	-0.101425
622.26	0.548726
623.991	0.419673
625.72	-0.2575
627.451	-0.0879227
629.181	0.311951
630.909	-0.0841633
632.638	0.434957
634.368	0.0654701
636.095	0.334743
637.823	0.556409
639.551	-0.160907
641.277	0.190938
643.005	0.698858
644.73	0.384602
646.457	0.912866
648.184	0.328714
649.908	-0.00108156
651.634	0.17363
653.357	-0.101532
655.083	0.445846
656.806	0.814872
658.53	0.365405
660.253	0.348101
661.977	0.214772
663.7	0.215648
665.422	0.693757
667.145	0.300822
668.865	-0.733623
670.588	-0.235115
672.308	0.0599626
674.027	-0.0768634
675.749	0.292905
677.468	0.412573
679.188	0.349038
680.907	0.00840802
682.627	-0.0587634
684.345	1.02248
686.064	-0.108464
687.781	1.15347
689.498	-0.303679
691.216	-0.494912
692.932	0.303664
694.65	0.364233
696.366	0.699975
698.081	0.389529
699.797	0.100818
701.512	0.753978
703.228	0.210031
704.942	0.837336
706.655	0.545079
708.371	0.550878
710.083	0.556232
711.796	0.103278
713.51	1.09177
715.222	1.23272
716.934	0.300241
718.645	1.1717
720.358	-0.146193
722.068	0.314672
723.779	0.979623
725.49	1.12043
727.2	0.442987
728.909	0.787467
730.618	1.24412
732.329	0.816106
734.037	0.75074
735.745	0.414345
737.453	0.801634
739.16	0.692696
740.869	0.720356
742.576	1.56042
744.282	1.09539
745.988	0.655101
747.694	1.36419
749.401	1.30988
751.107	1.05482
752.811	0.756394
754.516	0.842029
756.22	0.952022
757.924	0.636219
759.627	0.637242
761.332	1.06803
763.035	0.529972
764.738	1.70692
766.44	0.0372929
768.142	1.41549
769.843	0.824878
771.544	0.72914
773.245	1.64928
774.946	1.18943
776.646	1.56683
778.346	1.35794
780.046	1.39967
781.745	1.7596
783.444	2.4369
785.143	2.4115
786.841	1.54555
788.539	1.8528
790.237	1.43187
791.934	1.7088
793.631	1.17029
795.328	1.7829
797.024	2.48562
798.72	1.5453
800.416	2.11654
802.112	2.12664
803.807	0.968237
805.502	1.38427
807.196	1.30467
808.89	1.44835
810.584	2.24123
812.278	1.59661
813.971	1.98299
815.664	1.27145
817.354	2.19397
819.047	2.0646
820.739	1.71238
822.43	1.58434
824.122	1.97031
825.813	1.55533
827.503	2.03434
829.192	1.7371
830.882	1.66639
832.571	1.06451
834.261	1.2003
835.95	1.5606
837.637	2.30059
839.325	1.36533
841.013	1.3432
842.701	1.54286
844.389	1.20565
846.074	1.87488
847.761	0.824988
849.447	1.90239
851.131	1.52903
852.817	1.13505
854.503	1.57167
856.188	1.3128
857.871	1.23198
859.556	1.05906
861.24	1.44665
862.922	2.03545
864.606	0.977963
866.289	0.978182
867.97	1.65411
869.653	1.04424
871.336	1.40374
873.016	1.92105
874.698	1.35536
876.379	1.48913
878.058	1.12644
879.739	1.32788
881.418	0.625979
883.098	1.3906
884.778	1.25092
886.456	0.658231
888.135	1.07933
889.812	1.79135
891.49	1.84711
893.167	1.69845
894.845	1.12099
896.523	0.947913
898.198	1.08841
899.875	1.6761
901.55	0.984348
903.226	0.897781
904.901	0.855919
906.576	1.52871
908.25	1.21971
909.925	1.73648
911.598	1.27448
913.271	1.12546
914.945	1.11042
916.617	1.02897
918.291	1.14709
919.962	0.556592
921.635	0.742098
923.306	1.23812
924.978	1.62496
926.648	1.26303
928.318	1.03596
929.989	0.545766
931.659	0.806795
933.328	1.06812
934.998	1.15314
936.666	1.41512
938.336	1.08268
940.004	0.972267
941.671	1.3266
943.34	1.1966
945.007	1.0223
946.673	0.692121
948.339	0.448074
950.007	0.95222
951.672	0.814795
953.337	0.434863
955.004	1.11532
956.669	0.343602
958.333	1.14156
959.997	0.773926
961.662	0.584488
963.326	0.637887
964.989	0.335589
966.651	0.848572
968.315	0.91588
969.977	1.35669
971.639	1.48654
973.301	1.35148
974.962	1.04132
976.624	-0.195498
978.285	0.582043
979.945	0.851921
981.605	1.12156
983.264	1.12407
984.924	1.81048
986.583	2.02926
988.243	1.91366
989.901	0.60242
991.56	1.19241
993.217	1.18515
994.875	0.449553
996.532	1.50199
998.188	1.82559
999.845	2.50112
1001.5	1.69982
1003.16	1.6913
1004.81	1.1106
1006.47	0.464659
1008.12	2.14754
1009.78	0.99763
1011.43	0.770899
1013.09	0.566951
1014.74	1.63417
1016.39	0.511526
1018.05	1.4256
1019.7	1.11506
1021.35	1.28707
1023	1.56968
1024.65	1.26337
1026.31	1.7446
1027.96	1.19887
1029.61	1.02394
1031.26	1.19708
1032.91	1.52094
1034.56	1.90781
1036.21	2.64121
1037.86	3.04555
1039.51	3.5797
1041.16	3.35265
1042.8	3.80166
1044.45	3.40538
1046.1	3.62041
1047.75	2.90431
1049.39	2.60328
1051.04	1.69581
1052.69	1.57124
1054.33	1.92517
1055.98	0.975229
1057.62	1.65497
1059.27	1.44292
1060.91	0.29501
1062.56	0.950883
1064.2	0.801121
1065.85	0.976236
1067.49	0.69354
1069.13	1.25715
1070.77	0.473068
1072.42	0.318989
1074.06	1.2071
1075.7	1.42341
1077.34	0.68709
1078.98	0.321154
1080.62	0.389888
1082.27	0.545412
1083.91	0.938433
1085.55	1.04759
1087.18	1.08919
1088.82	0.391942
1090.46	0.905261
1092.1	0.594795
1093.74	0.759383
1095.38	0.794409
1097.02	1.11059
1098.65	1.0402
1100.29	0.412368
1101.93	0.927917
1103.56	0.498762
1105.2	0.630644
1106.84	0.97832
1108.47	0.615937
1110.11	0.596442
1111.74	0.446149
1113.38	0.551857
1115.01	1.23557
1116.64	0.587508
1118.28	0.262026
1119.91	0.559063
1121.54	0.36445
1123.18	0.406734
1124.81	0.963659
1126.44	0.922413
1128.07	1.16016
1129.7	0.500704
1131.33	0.376596
1132.97	0.723196
1134.6	0.577972
1136.23	0.902266
1137.86	0.562789
1139.49	0.585214
1141.11	0.691802
1142.74	0.712296
1144.37	0.221025
1146	0.349246
1147.63	0.0309597
1149.26	-0.158273
1150.88	-0.240323
1152.51	-0.386173
1154.14	0.212817
1155.76	-0.0403103
1157.39	0.238468
1159.01	0.453664
1160.64	-0.11706
1162.27	0.589409
1163.89	0.148864
1165.51	0.368069
1167.14	0.842171
1168.76	0.634672
1170.39	0.106454
1172.01	-0.0624469
1173.63	0.594848
1175.25	0.422324
1176.88	0.185821
1178.5	-0.240747
1180.12	0.328954
1181.74	-0.0529954
1183.36	0.369697
1184.98	-0.158835
1186.6	0.156933
1188.22	1.20887
1189.84	0.148664
1191.46	0.0991231
1193.08	-0.0151141
1194.7	0.184944
1196.32	0.510236
1197.94	0.333177
1199.55	0.284038
1201.17	0.613819
1202.79	0.946227
1204.41	0.655322
1206.02	1.09748
1207.64	0.226844
1209.25	0.879563
1210.87	0.926362
1212.48	0.449907
1214.1	0.742311
1215.71	1.19824
1217.33	1.33912
1218.94	0.854957
1220.56	1.16049
1222.17	1.32103
1223.79	1.52424
1225.4	2.20524
1227.01	1.74923
1228.62	1.37822
1230.23	1.69141
1231.85	1.59251
1233.46	2.11519
1235.07	2.01938
1236.68	1.32569
1238.29	2.1629
1239.9	2.13288
1241.51	1.8549
1243.12	1.45227
1244.73	2.37282
1246.34	2.40246
1247.94	2.0997
1249.55	2.66497
1251.16	1.96773
1252.77	2.16036
1254.37	2.00223
1255.98	1.9075
1257.59	2.39355
1259.2	2.30192
1260.8	1.96299
1262.41	2.34919
1264.01	2.83932
1265.62	1.69222
1267.22	2.40906
1268.83	2.44085
1270.43	2.84452
1272.03	2.33453
1273.64	2.34156
1275.24	2.2644
1276.85	2.22752
1278.45	2.54176
1280.05	2.77212
1281.65	2.60861
1283.25	2.63155
1284.85	2.5104
1286.46	2.65922
1288.06	2.7473
1289.66	2.27859
1291.26	2.01731
1292.86	2.87172
1294.46	3.27048
1296.06	2.38693
1297.66	3.31859
1299.25	2.20453
1300.85	2.73934
1302.45	2.63311
1304.05	3.12262
1305.65	2.52058
1307.24	3.19244
1308.84	3.41112
1310.43	2.33821
1312.03	2.78298
1313.63	2.55289
1315.22	2.34493
1316.82	2.79189
1318.41	2.97369
1320.01	2.93086
1321.6	2.94806
1323.2	2.658
1324.79	2.34601
1326.38	2.6826
1327.98	2.22687
1329.57	2.40063
1331.16	2.93997
1332.76	2.61221
1334.35	2.57056
1335.94	2.4302
1337.53	2.7748
1339.12	2.73526
1340.71	2.69368
1342.3	2.79033
1343.89	2.50227
1345.48	1.77176
1347.07	1.98548
1348.66	1.9804
1350.25	2.45865
1351.84	1.69936
1353.43	1.6831
1355.01	1.32867
1356.6	1.31462
1358.19	1.73958
1359.77	1.78372
1361.36	1.08804
1362.95	0.83095
1364.53	1.29143
1366.12	1.63208
1367.71	1.29619
1369.29	1.43975
1370.88	1.34605
1372.46	0.875951
1374.04	1.87962
1375.63	1.13308
1377.21	0.923898
1378.8	1.25145
1380.38	1.39873
1381.96	1.18637
1383.54	1.19136
1385.13	0.936782
1386.71	1.49643
1388.29	1.20181
1389.87	1.56323
1391.45	0.91344
1393.03	0.661693
1394.61	0.787357
1396.19	0.69466
1397.77	0.640892
1399.35	1.12107
1400.93	1.38186
1402.51	0.929052
1404.09	0.931699
1405.67	1.27105
1407.24	0.958817
1408.82	1.04296
1410.4	0.930124
1411.98	1.11353
1413.55	0.881628
1415.13	1.06325
1416.71	1.46065
1418.28	1.89654
1419.86	0.85486
1421.43	1.37089
1423.01	1.73086
1424.58	1.04949
1426.16	1.74738
1427.73	1.44215
1429.31	1.53028
1430.88	2.16846
1432.45	2.01794
1434.02	2.33845
1435.6	1.83217
1437.17	2.66335
1438.74	3.1215
1440.31	3.24666
1441.88	2.94069
1443.45	2.79285
1445.03	2.95997
1446.6	3.00939
1448.17	3.01968
1449.74	3.40385
1451.3	3.04152
1452.87	2.60108
1454.44	3.1248
1456.01	3.1962
1457.58	2.9126
1459.15	3.25715
1460.72	2.49745
1462.28	3.30962
1463.85	2.82116
1465.42	2.9607
1466.98	2.82457
1468.55	2.06072
1470.12	1.69115
1471.68	2.18634
1473.25	1.64304
1474.81	1.17932
1476.38	1.73577
1477.94	2.15498
1479.51	1.39787
1481.07	1.54242
1482.63	1.04012
1484.2	1.43913
1485.76	1.13237
1487.32	1.3537
1488.88	0.790298
1490.45	1.45814
1492.01	0.5389
1493.57	0.458827
1495.13	1.23542
1496.69	1.36585
1498.25	0.892365
1499.81	1.58679
1501.37	1.29072
1502.93	1.03542
1504.49	0.47163
1506.05	1.03195
1507.61	0.933022
1509.17	0.639972
1510.73	-0.00101126
1512.28	0.0524491
1513.84	0.548028
1515.4	0.581158
1516.96	0.250052
1518.51	0.706772
1520.07	0.799186
1521.63	0.508942
1523.18	0.79243
1524.74	0.711682
1526.29	0.725381
1527.85	0.50952
1529.4	0.730988
1530.96	1.3695
1532.51	0.31919
1534.06	1.01482
1535.62	0.764128
1537.17	0.156044
1538.72	0.757981
1540.28	0.623724
1541.83	0.659389
1543.38	0.788981
1544.93	0.466859
1546.48	0.577152
1548.03	0.912198
1549.59	0.477992
1551.14	1.11218
1552.69	0.43617
1554.24	1.14545
1555.79	0.753163
1557.34	0.867224
1558.88	0.666054
1560.43	1.1759
1561.98	1.63143
1563.53	1.39801
1565.08	0.605414
1566.62	0.857749
1568.17	1.01659
1569.72	0.969726
1571.27	1.10909
1572.81	0.800122
1574.36	0.920322
1575.9	1.1152
1577.45	1.01159
1579	1.58051
1580.54	1.08588
1582.09	1.41365
1583.63	1.18204
1585.17	1.41827
1586.72	1.24391
1588.26	1.63068
1589.8	1.13809
1591.35	1.89879
1592.89	1.4798
1594.43	2.07164
1595.97	1.31485
1597.52	1.94492
1599.06	2.31368
1600.6	2.32716
1602.14	2.47258
1603.68	1.88578
1605.22	2.2558
1606.76	2.22989
1608.3	2.23932
1609.84	2.17091
1611.38	1.61133
1612.92	1.89508
1614.46	2.5899
1615.99	1.97035
1617.53	2.19556
1619.07	1.78483
1620.61	1.09517
1622.14	1.77421
1623.68	2.34162
1625.22	1.31782
1626.75	1.69722
1628.29	1.64469
1629.82	2.43217
1631.36	1.98406
1632.9	2.43252
1634.43	2.43275
1635.96	2.56448
1637.5	2.58527
1639.03	2.21529
1640.57	2.59111
1642.1	2.61199
1643.63	2.50122
1645.16	2.96602
1646.7	3.18733
1648.23	3.33355
1649.76	4.11132
1651.29	2.64388
1652.82	3.2569
1654.36	4.11179
1655.89	3.57683
1657.42	3.5795
1658.95	3.67383
1660.48	3.87751
1662.01	3.35757
1663.53	3.83514
1665.06	3.09211
1666.59	3.73484
1668.12	3.43737
1669.65	3.67664
1671.18	3.07002
1672.7	3.16512
1674.23	2.74514
1675.76	2.85903
1677.29	2.23575
1678.81	2.42115
1680.34	2.93606
1681.86	2.5307
1683.39	2.63957
1684.91	2.08772
1686.44	1.61031
1687.96	1.50051
1689.49	1.55613
1691.01	1.74012
1692.54	1.6678
1694.06	2.07105
1695.58	1.23051
1697.11	1.24937
1698.63	1.24957
1700.15	0.920795
1701.67	1.39436
1703.2	0.718463
1704.72	0.589318
1706.24	1.2059
1707.76	1.02122
1709.28	0.709586
1710.8	0.652637
1712.32	0.48715
1713.84	0.666337
1715.36	0.700465
1716.88	0.915342
1718.4	1.02128
1719.91	0.96442
1721.43	0.691294
1722.95	0.112663
1724.47	0.166407
1725.99	0.27536
1727.5	0.49352
1729.02	0.37062
1730.54	0.0705615
1732.05	0.592117
1733.57	0.258376
1735.09	0.149734
1736.6	0.428037
1738.12	0.375905
1739.63	0.356693
1741.15	0.206008
1742.66	0.51719
1744.18	0.240376
1745.69	0.47579
1747.2	0.445306
1748.72	0.195648
1750.23	0.0127873
1751.74	0.508541
1753.25	-0.0746619
1754.77	0.301013
1756.28	-0.000522474
1757.79	0.173229
1759.3	-0.10354
1760.81	0.103655
1762.32	0.155381
1763.83	-0.0620434
1765.34	0.248724
1766.85	0.0956608
1768.36	0.0540357
1769.87	0.185541
1771.38	-0.0413929
1772.89	0.273302
1774.4	-0.192344
1775.91	-0.0492248
1777.41	-0.130979
1778.92	0.293908
1780.43	0.132647
1781.94	-0.0109942
1783.44	0.281163
1784.95	0.130986
1786.45	0.529442
1787.96	-0.167427
1789.47	-0.0323561
1790.97	-0.0729865
1792.48	0.069973
1793.98	-0.00445948
1795.48	-0.168585
1796.99	0.108082
1798.49	0.186095
1800	-0.0500694
1801.5	0.0438331
1803	0.0122998
1804.51	-0.0361241
1806.01	-0.0356627
1807.51	-0.110776
1809.01	-0.135961
1810.51	-0.044576
1812.02	0.178941
1813.52	-0.0677448
1815.02	0.193658
1816.52	0.144097
1818.02	0.128082
1819.52	-0.0692731
1821.02	-0.10584
1822.52	-0.0741428
1824.02	0.028995
1825.51	0.0397428
1827.01	0.393993
1828.51	-0.010785
1830.01	-0.0203715
1831.51	0.0920942
1833	-0.175054
1834.5	0.022944
1836	-0.0582577
1837.5	0.11448
1838.99	0.132198
1840.49	-0.0828524
1841.98	-0.019479
1843.48	-0.12984
1844.97	-0.177889
1846.47	0.269263
1847.96	0.198121
1849.46	-0.0073251
1850.95	-0.15384
1852.45	-0.0971405
1853.94	-0.168181
1855.43	0.224045
1856.92	0.0565637
1858.42	0.218347
1859.91	0.124726
1861.4	0.204612
1862.89	-0.18635
1864.39	-0.342903
1865.88	0.0981621
1867.37	0.11405
1868.86	0.238254
1870.35	-0.0665456
1871.84	0.129862
1873.33	0.0786796
1874.82	0.275527
1876.31	0.345513
1877.8	0.228653
1879.29	0.0395164
1880.77	0.237819
1882.26	0.130143
1882.51	0.0996929
1884	0.240285
1885.5	0.432289
1886.99	0.449083
1888.48	-0.0220681
1889.98	0.377369
1891.47	-0.0921836
1892.97	0.344159
1894.46	-0.0350063
1895.95	0.352307
1897.44	0.288378
1898.93	0.328687
1900.42	0.0374865
1901.92	0.110067
1903.41	-0.201656
1904.9	-0.0799084
1906.39	0.17997
1907.88	-0.341903
1909.37	-0.133728
1910.86	0.0751259
1912.35	-0.287756
1913.84	0.113148
1915.32	0.0457933
1916.81	-0.108536
1918.3	-0.0033089
1919.79	0.447958
1921.28	-0.0191784
1922.76	0.276236
1924.25	-0.310603
1925.74	0.159708
1927.22	0.354019
1928.71	0.202696
1930.2	0.137886
1931.68	0.314749
1933.17	-0.0638747
1934.65	-0.392037
1936.14	0.160931
1937.62	0.158851
1939.11	0.571003
1940.59	0.274926
1942.08	-0.0717683
1943.56	-0.00315928
1945.04	0.480053
1946.53	0.0324153
1948.01	0.463746
1949.49	0.170524
1950.97	0.375941
1952.45	0.373736
1953.94	0.199013
1955.42	0.230642
1956.9	0.125206
1958.38	0.312294
1959.86	0.345494
1961.34	-0.13523
1962.82	0.344471
1964.3	0.138281
1965.78	-0.205197
1967.26	-0.275101
1968.74	0.287352
1970.22	0.0109462
1971.69	-0.17992
1973.17	-0.0804152
1974.65	-0.407372
1976.13	0.374147
1977.61	0.166862
1979.08	-0.0911209
1980.56	0.110478
1982.03	0.481623
1983.51	0.172503
1984.99	0.338769
1986.46	0.233171
1987.94	0.16161
1989.41	0.49686
1990.89	0.172286
1992.36	0.153424
1993.84	0.456714
1995.31	0.101472
1996.78	0.186114
1998.26	0.203116
1999.73	0.354754
2001.2	0.269439
2002.68	0.200591
2004.15	0.131672
2005.62	-0.00428157
2007.09	0.281637
2008.56	-0.0547885
2010.04	0.788211
2011.51	0.0154712
2012.98	-0.353082
2014.45	-0.132902
2015.92	0.019191
2017.39	0.13672
2018.86	-0.099641
2020.33	0.0333639
2021.8	-0.069017
2023.27	0.349332
2024.74	0.130464
2026.2	0.214754
2027.67	0.585467
2029.14	0.655688
2030.61	0.408483
2032.07	0.313101
2033.54	0.436349
2035.01	0.576459
2036.47	0.497908
2037.94	0.284365
2039.41	0.221599
2040.87	0.209177
2042.34	0.230713
2043.8	0.370688
2045.27	0.595745
2046.73	0.535537
2048.2	0.0881188
2049.66	-0.292662
2051.12	0.522435
2052.59	0.25723
2054.05	0.00712834
2055.51	0.210757
2056.98	0.665868
2058.44	0.631196
2059.9	0.27635
2061.36	0.208386
2062.82	0.326369
2064.29	0.630366
2065.75	0.71648
2067.21	0.635127
2068.67	0.217709
2070.13	0.38964
2071.59	0.477495
2073.05	0.548393
2074.51	0.551688
2075.97	0.53782
2077.43	0.62464
2078.88	0.391108
2080.34	0.527614
2081.8	0.394178
2083.26	0.849301
2084.72	0.596693
2086.17	0.797721
2087.63	0.829829
2089.09	0.609401
2090.54	0.792121
2092	0.840263
2093.46	0.519112
2094.91	0.935954
2096.37	0.664657
2097.82	1.13
2099.28	0.991536
2100.73	0.953295
2102.19	0.597832
2103.64	0.978394
2105.09	0.859068
2106.55	1.07487
2108	0.924654
2109.46	1.04165
2110.91	1.04136
2112.36	1.05644
2113.81	1.30293
2115.27	1.21464
2116.72	0.793091
2118.17	1.4024
2119.62	1.56394
2121.07	1.32912
2122.52	1.72667
2123.97	1.67787
2125.42	1.94482
2126.87	1.61457
2128.32	2.06248
2129.77	2.09436
2131.22	1.777
2132.67	1.98879
2134.12	2.33263
2135.57	2.03211
2137.01	2.26232
2138.46	2.09782
2139.91	2.43117
2141.36	2.46889
2142.8	2.70639
2144.25	2.49814
2145.7	2.62088
2147.14	2.92551
2148.59	2.50087
2150.03	2.72111
2151.48	3.08943
2152.92	3.10869
2154.37	3.0607
2155.81	3.2938
2157.26	3.02997
2158.7	2.6179
2160.15	3.20124
2161.59	3.53828
2163.03	3.81148
2164.48	3.88779
2165.92	3.66642
2167.36	3.27848
2168.8	3.63689
2170.25	3.77733
2171.69	3.93191
2173.13	3.96763
2174.57	3.45272
2176.01	3.36965
2177.45	3.45309
2178.89	3.58728
2180.33	3.57299
2181.77	3.55975
2183.21	3.49733
2184.65	3.51838
2186.09	3.4397
2187.53	3.44422
2188.97	3.4987
2190.41	3.32014
2191.84	3.0746
2193.28	3.12785
2194.72	2.84657
2196.16	3.24578
2197.59	3.52589
2199.03	2.49007
2200.47	2.63416
2201.9	2.92726
2203.34	3.10453
2204.78	2.28797
2206.21	2.35177
2207.65	2.267
2209.08	2.18211
2210.51	2.16266
2211.95	2.12562
2213.38	2.35227
2214.82	2.26461
2216.25	1.94662
2217.68	1.71268
2219.12	1.94197
2220.55	1.54555
2221.98	1.61098
2223.42	1.7086
2224.85	1.67296
2226.28	1.42169
2227.71	1.4815
2229.14	1.85192
2230.57	1.08876
2232	1.65438
2233.43	1.49882
2234.86	1.44243
2236.29	0.831889
2237.72	1.13803
2239.15	1.38038
2240.58	0.841578
2242.01	1.31593
2243.44	0.633453
2244.87	1.19092
2246.3	1.0464
2247.73	0.900375
2249.15	0.784977
2250.58	1.41698
2252.01	0.565005
2253.43	0.68947
2254.86	0.26157
2256.29	0.728549
2257.71	0.710353
2259.14	0.28925
2260.56	0.665836
2261.99	0.541711
2263.41	0.857449
2264.84	0.653833
2266.26	0.644778
2267.69	0.586155
2269.11	0.689358
2270.54	0.336071
2271.96	0.845113
2273.38	0.702755
2274.81	1.0491
2276.23	0.206352
2277.65	0.830166
2279.07	0.55773
2280.49	0.545997
2281.92	0.844043
2283.34	0.440613
2284.76	0.624496
2286.18	0.465881
2287.6	0.291178
2289.02	0.263754
2290.44	0.694189
2291.86	0.487704
2293.28	0.199382
2294.7	0.597964
2296.12	0.456646
2297.54	0.347901
2298.96	0.222721
2300.38	0.310658
2301.79	0.874459
2303.21	0.0281689
2304.63	0.49431
2306.05	0.271094
2307.46	0.45812
2308.88	0.168115
2310.3	0.239118
2311.71	0.227557
2313.13	-0.162493
2314.55	0.500954
2315.96	0.0293779
2317.38	0.744249
2318.79	-0.105713
2320.21	0.494612
2321.62	0.384987
2323.03	0.339597
2324.45	0.457126
2325.86	0.572538
2327.27	0.669794
2328.69	0.48604
2330.1	0.302653
2331.51	0.268412
2332.93	0.333942
2334.34	0.0382218
2335.75	-0.0268363
2337.16	0.154445
2338.57	-0.0926951
2339.99	0.0537569
2341.4	0.527646
2342.81	0.0322011
2344.22	-0.0362231
2345.63	0.141511
2347.04	0.20462
2348.45	0.464108
2349.86	0.00314484
2351.26	0.408501
2352.67	0.257003
2354.08	0.219138
2355.49	-0.0963751
2356.9	0.125803
2358.31	0.363722
2359.71	-0.243629
2361.12	0.302737
2362.53	0.0372841
2363.94	-0.179123
2365.34	0.300551
2366.75	-0.077179
2368.15	-0.211443
2369.56	-0.13489
2370.97	0.410139
2372.37	0.182386
2373.78	0.34224
2375.18	-0.061062
2376.59	0.163139
2377.99	-0.803747
2379.39	0.318243
2380.8	0.313143
2382.2	0.114331
2383.61	0.29954
2385.01	0.180157
2386.41	0.0294481
2387.81	-0.120139
2389.22	-0.188679
2390.62	0.0944551
2392.02	0.15532
2393.42	0.201092
2394.82	0.231659
2396.22	-0.00743318
2397.63	0.00848184
2399.02	-0.149891
2400.43	0.327671
2401.82	0.582981
2403.23	0.472987
2404.62	-0.0660206
2406.02	-0.351531
2407.42	0.282677
2408.82	0.0116126
2410.22	0.216057
2411.62	0.277887
2413.02	0.245366
2414.41	0.277333
2415.81	0.247287
2417.21	0.360921
2418.61	0.0162301
2420	0.178525
2421.4	0.229906
2422.79	0.344351
2424.19	0.521951
2425.59	0.271785
2426.98	0.465774
2428.38	0.0740659
2429.77	0.301452
2431.17	-0.0415549
2432.56	0.345495
2433.96	-0.0140116
2435.35	0.0700682
2436.74	0.025784
2438.14	0.186694
2439.53	0.187563
2440.92	-0.050594
2442.32	0.457018
2443.71	0.154707
2445.1	0.042814
2446.49	0.184548
2447.88	-0.212776
2449.28	0.404008
2450.67	0.323783
2452.06	0.560649
2453.45	0.0702138
2454.84	-0.13448
2456.23	0.278409
2457.62	0.0904441
2459.01	0.0921713
2460.4	0.346423
2461.79	-0.000959517
2463.18	0.283377
2464.57	0.0929972
2465.96	0.518402
2467.34	0.106718
2468.73	0.515818
2470.12	0.813956
2471.51	-0.118119
2472.89	0.0529833
2474.28	0.207444
2475.67	-0.205189
2477.05	0.262677
2478.44	-0.16543
2479.83	-0.0434931
2481.21	-2.99527e-006
2482.6	0.0903621
2483.98	-0.0389913
2485.37	-0.137596
2486.75	-0.111989
2488.14	0.0218435
2489.52	0.248192
2490.9	-0.195444
2492.29	0.0930767
2493.67	-0.177139
2495.06	0.407531
2496.44	0.0778212
2497.82	0.0901247
2499.2	0.303873
2500.59	-0.10167
2501.97	-0.198169
2503.35	0.0752485
2504.73	-0.0382835
2506.11	-0.198346
2507.49	-0.281315
2508.88	0.0664605
2510.26	0.0299139
2511.63	-0.0213398
2513.01	0.280729
2514.39	-0.213398
2515.77	0.0286294
2517.15	-0.0349162
2518.53	0.00910417
2519.91	-0.405199
2521.29	-0.238918
2522.67	0.323468
2524.05	0.319999
2525.42	-0.0041631
2526.8	-0.114852
2528.18	-0.164161
2529.56	0.0308091
2530.93	-0.0922429
2532.31	-0.168175
2533.69	0.106521
2535.06	0.062772
2536.44	0.292458
2537.81	0.278466
2539.19	-0.00975399
2540.56	0.156935
2541.94	0.110698
2543.31	-0.253897
2544.69	0.0195101
2546.06	0.263563
2547.44	-0.0677065
2548.81	0.37542
2550.18	0.0752491
2551.56	-0.149551
2552.93	0.353305
2554.3	0.35441
2555.68	0.0512548
2557.05	0.172445
2558.42	0.445074
2559.79	0.475243
2561.16	0.339166
2562.53	0.127936
2563.9	-0.370669
2565.28	0.116115
2566.64	-0.109131
2568.02	-0.213073
2569.38	-0.0593705
2570.76	0.00340571
2572.12	0.172321
2573.49	0.37165
2574.86	0.328528
2576.23	0.285434
2577.6	0.151286
2578.97	-0.240845
2580.34	-0.269382
2581.7	0.0504782
2583.07	-0.0393878
2584.44	-0.00816578
2585.81	0.447425
2587.17	-0.0821573
2588.54	0.100822
2589.91	-0.367775
2591.27	0.148567
2592.64	-0.184094
2594	0.376433
2595.37	0.375414
2596.73	0.055588
2598.1	0.0530714
2599.46	0.171171
2600.83	-0.239641
2602.19	-0.121006
2603.55	0.269801
2604.92	0.162829
2606.28	0.222044
2607.64	-0.171433
2609.01	-0.0679222
2610.37	0.305551
2611.73	-0.21066
2613.09	0.13009
2614.46	-0.251534
2615.82	0.0726614
2617.18	0.321436
2618.54	-0.133623
2619.9	0.116079
2621.26	0.1567
2622.62	0.00348097
2623.98	-0.0746668
2625.34	0.399367
2626.7	0.0225428
2628.06	0.0929961
2629.42	0.192852
2630.78	-0.109344
2632.14	0.376744
2633.5	-0.0886661
2634.86	0.0700207
2636.22	-0.157163
2637.57	-0.295085
2638.93	0.159502
2640.29	0.228845
2641.64	0.342658
2643	0.190641
2644.36	-0.0938753
2645.72	0.389064
2647.07	-0.337863
2648.43	0.05521
2649.78	0.108417
2651.14	0.322619
2652.49	0.682954
2653.85	0.294526
2655.2	0.479158
2656.56	0.269041
2657.91	0.148084
2659.27	0.452301
2660.62	-0.0914664
2661.97	0.0520554
2663.33	0.0342385
2664.68	0.0157363
2666.03	0.273712
2667.38	0.0499232
2668.74	0.17589
2670.09	0.403736
2671.44	-0.0516434
2672.79	0.0317578
2674.14	0.202733
2675.49	0.359524
2676.84	0.182991
2678.2	0.152212
2679.55	0.180186
2680.89	0.0785873
2682.24	-0.210436
2683.59	0.154024
2684.94	0.0988553
2686.29	0.029558
2687.64	-0.0834576
2688.99	0.267022
2690.34	0.296678
2691.69	-0.125254
2693.04	0.133653
2694.38	-0.0145613
2695.73	0.387931
2697.08	0.138702
2698.43	0.252827
2699.77	-0.0659848
2701.12	-0.166083
2702.46	0.430326
2703.81	-0.174622
2705.16	0.0322006
2706.5	-0.311895
2707.85	-0.0180471
2709.19	0.319246
2710.54	0.307925
2711.88	0.136558
2713.23	0.270103
2714.57	-0.00332249
2715.92	0.144687
2717.26	0.350832
2718.6	0.382287
2719.95	-0.0813137
2721.29	0.269509
2722.63	0.678208
2723.97	0.475187
2725.32	0.198974
2726.66	0.169867
2728	0.300571
2729.34	0.329164
2730.68	0.546773
2732.02	0.618805
2733.36	0.0217397
2734.7	0.42859
2736.04	-0.29892
2737.39	0.48633
2738.72	0.108027
2740.06	0.223986
2741.4	0.0341574
2742.74	0.410776
2744.08	-0.0563365
2745.42	0.115528
2746.76	0.0109641
2748.1	0.0369582
2749.44	-0.0676218
2750.77	-0.128437
2752.11	0.0429698
2753.45	0.228949
2754.78	0.183149
2756.12	0.123007
2757.46	0.482952
2758.79	0.0467552
2760.13	-0.432329
2761.47	0.0587049
2762.8	0.0725368
2764.14	0.245806
2765.47	0.0284038
2766.81	0.0276449
2768.14	0.185189
2769.48	0.211371
2770.81	0.481898
2772.14	-0.274497
2773.48	0.210288
2774.81	0.463087
2776.14	0.196857
2777.48	0.0321433
2778.81	-0.0886913
2780.14	0.0210297
2781.47	-0.213773
2782.81	0.0397474
2784.14	0.0347247
2785.47	-0.185294
2786.8	0.0391349
2788.13	-0.0798252
2789.46	0.0738534
2790.79	-0.272389
2792.12	-0.0887138
2793.46	0.109562
2794.79	-0.00663299
2796.11	0.0483961
2797.44	0.48857
2798.77	0.328225
2800.1	0.410236
2801.43	-0.107215
2802.76	0.316696
2804.09	0.184161
2805.42	0.0941041
2806.74	0.473314
2808.07	0.410499
2809.4	0.333161
2810.73	-0.0280572
2812.05	0.13684
2813.38	0.0188691
2814.71	0.0582283
2816.03	0.0421366
2817.36	0.0270343
2818.68	-0.0584157
2820.01	0.295528
2821.33	0.450631
2822.66	0.293326
2823.98	0.121335
2825.31	0.487358
2826.63	0.173507
2827.96	0.695588
2829.28	0.467736
2830.61	0.155417
2831.93	0.452004
2833.25	0.323869
2834.57	0.535158
2835.9	0.87332
2837.22	0.970323
2838.54	1.09515
2839.86	1.20556
2841.18	1.37257
2842.51	1.39855
2843.83	1.94807
2845.15	1.48071
2846.47	1.94672
2847.79	2.31419
2849.11	2.69586
2850.43	2.25746
2851.75	2.62418
2853.07	2.45327
2854.39	2.40918
2855.71	2.81701
2857.03	2.73028
2858.35	2.81311
2859.67	3.26309
2860.98	3.47269
2862.3	3.73833
2863.62	3.46711
2864.94	4.11289
2866.25	3.98244
2867.57	4.52928
2868.89	4.44187
2870.21	4.51006
2871.52	4.78986
2872.84	4.82966
2874.15	5.29127
2875.47	5.14568
2876.78	5.30864
2878.1	5.70965
2879.42	5.23793
2880.73	5.20281
2882.04	5.26703
2883.36	5.24817
2884.67	4.87944
2885.99	5.14328
2887.3	5.43517
2888.61	5.544
2889.93	5.25907
2891.24	5.84269
2892.55	5.96256
2893.87	5.49372
2895.18	5.72587
2896.49	6.01476
2897.8	6.40272
2899.11	6.24613
2900.42	6.0486
2901.74	6.24334
2903.05	6.56421
2904.36	7.19294
2905.67	7.38839
2906.98	7.71044
2908.29	7.75381
2909.6	7.70035
2910.91	7.85753
2912.22	8.89662
2913.53	8.98306
2914.83	9.30561
2916.14	9.33174
2917.45	9.74754
2918.76	9.82588
2920.07	10.3235
2921.37	10.6679
2922.68	10.5667
2923.99	11.0685
2925.3	11.6139
2926.6	11.1259
2927.91	11.5884
2929.22	11.5472
2930.52	11.3373
2931.83	11.63
2933.13	11.7685
2934.44	12.0747
2935.74	11.5284
2937.05	11.751
2938.35	11.2333
2939.66	11.4286
2940.96	10.5627
2942.27	10.5923
2943.57	10.2602
2944.87	9.91591
2946.18	9.64295
2947.48	9.62246
2948.78	9.34968
2950.09	9.31316
2951.39	8.72808
2952.69	8.8825
2953.99	8.79695
2955.29	8.47291
2956.6	8.0661
2957.9	7.84391
2959.2	7.21907
2960.5	7.84396
2961.8	6.90221
2963.1	7.74179
2964.4	7.03756
2965.7	6.97683
2967	6.50638
2968.3	6.11826
2969.6	6.24928
2970.9	6.40832
2972.2	6.28641
2973.49	5.81303
2974.79	5.53645
2976.09	5.27307
2977.39	5.38829
2978.69	5.02276
2979.98	4.85237
2981.28	4.69459
2982.58	4.49406
2983.88	4.39246
2985.17	3.91268
2986.47	3.81419
2987.76	3.8438
2989.06	3.67779
2990.36	3.75097
2991.65	2.75547
2992.95	2.93943
2994.24	2.79881
2995.54	2.76942
2996.83	2.78137
2998.12	2.70885
2999.42	2.51039
3000.71	2.42481
3002	1.89137
3003.3	2.00326
3004.59	2.00312
3005.88	1.72262
3007.18	1.67967
3008.47	1.39806
3009.76	1.26969
3011.05	1.05691
3012.35	0.913833
3013.64	1.04997
3014.93	0.642618
3016.22	0.640467
3017.51	0.778233
3018.8	0.707606
3020.09	0.637133
3021.38	0.760913
3022.67	0.92539
3023.96	0.658461
3025.25	0.405142
3026.54	0.401402
3027.83	0.301224
3029.12	0.506387
3030.41	0.353394
3031.69	0.381459
3032.98	0.286231
3034.27	0.398377
3035.56	0.275447
3036.85	0.316914
3038.13	0.480688
3039.42	0.270834
3040.71	0.224963
3041.99	0.0685585
3043.28	0.460771
3044.57	0.400991
3045.85	0.370219
3047.14	0.669369
3048.42	0.724583
3049.71	0.549788
3050.99	1.01795
3052.28	0.695426
3053.56	0.441191
3054.85	0.336489
3056.13	0.640034
3057.42	0.410669
3058.7	0.194417
3059.98	0.413881
3061.27	0.71506
3062.55	0.350372
3063.83	0.694279
3065.11	0.56369
3066.4	0.597583
3067.68	0.27892
3068.96	0.504505
3070.24	0.294707
3071.52	0.356124
3072.8	0.620401
3074.09	0.366787
3075.37	-0.172823
3076.65	0.0890599
3077.93	0.174575
3079.21	0.125304
3080.49	0.267326
3081.77	0.15302
3083.05	-0.0279829
3084.32	0.117251
3085.61	0.0319113
3086.88	0.231188
3088.16	0.389131
3089.44	0.288552
3090.72	-0.219502
3092	0.195051
3093.27	-0.122862
3094.55	-0.114906
3095.83	-0.228724
3097.11	0.321843
3098.38	-0.117238
3099.66	0.216121
3100.94	0.183489
3102.21	-0.0928198
3103.49	-0.016718
3104.76	-0.129685
3106.04	0.109915
3107.31	-0.0286151
3108.59	0.0773881
3109.86	-0.0457256
3111.14	0.0486246
3112.41	-0.398064
3113.69	-0.0994479
3114.96	0.185887
3116.23	0.00996497
3117.51	0.321492
3118.78	0.0760003
3120.05	0.317781
3121.33	-0.0785865
3122.6	0.175317
3123.87	0.0901833
3125.14	-0.143623
3126.42	-0.160277
3127.69	0.067112
3128.96	0.32188
3130.23	0.0224688
3131.5	0.318113
3132.77	0.194579
3134.04	0.0978417
3135.31	0.203244
3136.58	0.483435
3137.85	0.290933
3139.12	0.138801
3140.39	0.323281
3141.66	0.157881
3142.93	0.490184
3144.2	0.177967
3145.47	0.269272
3146.74	0.629183
3148	0.506945
3149.27	0.157827
