200.563	1.58638
202.377	1.58331
204.194	1.58814
206.008	0.91368
207.821	0.872571
209.634	0.904016
211.449	1.66285
213.262	1.10863
215.074	1.2331
216.885	1.28424
218.699	0.609216
220.51	1.17061
222.321	0.741232
224.131	1.03913
225.941	0.661198
227.751	0.694607
229.562	0.462156
231.371	0.108793
233.18	-0.0513363
234.988	0.392291
236.796	0.861743
238.603	0.828102
240.411	0.50898
242.219	0.434206
244.026	-0.314095
245.832	-0.0492964
247.638	0.479444
249.443	-0.1299
251.248	0.0536585
253.053	-0.490271
254.857	-0.0707788
256.661	0.372155
258.465	-0.00325394
260.268	0.491385
262.071	0.410586
263.874	0.910478
265.678	0.592971
267.48	0.685708
269.282	0.730035
271.083	0.580577
272.884	0.188583
274.684	-0.0363503
276.484	0.339408
278.284	-0.13075
280.084	0.119534
281.883	0.174402
283.682	0.0825672
285.48	0.085268
287.276	0.303127
289.074	0.257041
290.871	-0.290729
292.668	0.097805
294.465	-0.325164
296.261	-0.171762
298.057	-0.0647039
299.853	-0.100249
301.648	0.365674
303.443	0.161733
305.237	0.553007
307.032	0.203417
308.823	0.283163
310.617	-0.0174007
312.41	-0.0539274
314.203	0.507273
315.995	0.071043
317.788	-0.148324
319.579	-0.0320683
321.369	0.967863
323.16	0.205339
324.951	0.277862
326.741	0.135857
328.531	0.447435
330.321	0.376064
332.108	-0.151395
333.897	0.251667
335.686	-0.113678
337.474	-0.338446
339.26	0.582481
341.048	-0.292726
342.835	0.0987139
344.622	-0.15521
346.406	0.35617
348.192	0.438519
349.978	0.617124
351.764	-0.0157156
353.547	0.424796
355.332	0.0526381
357.116	0.585072
358.901	0.209667
360.682	0.166618
362.466	0.336606
364.249	-0.0890341
366.03	0.245318
367.812	-0.0627499
369.594	0.0554438
371.374	-0.182975
373.155	0.311632
374.936	0.024889
376.715	-0.0249643
378.495	0.491986
380.273	0.231947
382.053	-0.120058
383.832	-0.352103
385.609	-0.205946
387.388	-0.175699
389.164	0.208456
390.942	0.45295
392.72	0.393307
394.495	0.240654
396.272	0.605247
398.047	-0.298194
399.823	0.559648
401.597	0.26606
403.372	0.370936
405.145	0.756629
406.92	0.460253
408.693	-0.0715837
410.467	0.523104
412.239	0.0850887
414.012	0.375283
415.783	-0.647463
417.556	0.677351
419.327	0.337163
421.099	-0.401736
422.869	0.502017
424.64	0.137307
426.409	-0.369534
428.18	0.014637
429.948	0.139947
431.718	-0.0867844
433.486	-0.266058
435.253	-0.397893
437.022	0.10393
438.789	0.862928
440.558	-0.632946
442.324	0.16804
444.089	0.730876
445.857	-0.443024
447.622	0.653606
449.386	-0.0761166
451.153	-0.12688
452.917	0.593229
454.682	-0.0869331
456.446	0.142897
458.208	0.0461779
459.973	0.391869
461.735	0.0405102
463.497	0.156615
465.259	0.578058
467.022	0.864086
468.783	-0.287036
470.544	-0.0180502
472.306	0.112388
474.066	0.730843
475.825	0.555412
477.585	0.633102
479.346	0.0327053
481.104	0.898501
482.862	0.460203
484.62	0.605912
486.38	0.498178
488.137	0.0437174
489.894	0.664468
491.65	0.563978
493.407	0.300666
495.164	-0.196716
496.92	0.241228
498.675	0.562425
500.43	0.625579
502.184	0.312365
503.939	0.819543
505.694	0.949712
507.448	0.701756
509.201	0.827794
510.954	0.928076
512.706	0.743731
514.459	1.09843
516.21	0.227791
517.962	0.249594
519.715	1.06923
521.466	0.829769
523.216	0.542917
524.966	1.00713
526.716	0.978226
528.466	1.20729
530.215	0.709508
531.964	0.633226
533.712	0.743121
535.46	0.944726
537.208	0.606507
538.955	0.313635
540.703	0.532769
542.449	0.703712
544.196	-0.498755
545.942	1.13623
547.688	0.423699
549.433	0.431754
551.178	0.903178
552.923	0.703086
554.667	0.457491
556.412	0.789823
558.155	0.637818
559.899	0.256442
561.642	-0.192549
563.385	0.486975
565.127	0.545749
566.867	0.582405
568.609	0.321704
570.35	0.361062
572.092	0.287628
573.832	0.58354
575.573	-0.356853
577.313	-0.170976
579.053	0.200418
580.79	0.688003
582.529	-0.225599
584.268	0.422503
586.006	-0.126266
587.745	0.381129
589.482	0.311837
591.218	0.287274
592.955	0.123943
594.692	-0.0625954
596.428	-0.042017
598.164	-0.205563
599.898	-0.553655
601.634	-0.488771
603.369	0.51729
605.104	0.785008
606.836	0.292407
608.57	-0.131884
610.304	0.109703
612.037	0.374627
613.769	0.984314
615.501	0.448527
617.234	0.119516
618.966	0.431222
620.696	0.260431
622.427	-0.20928
624.159	0.371994
625.887	0.198712
627.618	0.712016
629.348	0.771257
631.076	0.40032
632.806	0.739597
634.535	0.555449
636.262	-0.314142
637.99	0.525806
639.716	0.973717
641.444	0.344984
643.172	0.123971
644.897	0.835165
646.624	-0.0466681
648.348	0.848492
650.075	0.474794
651.801	0.447439
653.524	1.01651
655.249	0.544543
656.972	0.348125
658.697	0.426066
660.419	0.389389
662.143	0.784331
663.865	0.28525
665.588	0.491063
667.309	0.0998116
669.032	0.64517
670.752	0.436981
672.474	0.620381
674.194	0.71575
675.915	0.8142
677.634	0.776848
679.355	0.119372
681.073	0.42482
682.793	0.774289
684.511	0.844962
686.23	1.07406
687.947	0.656137
689.664	1.25011
691.382	1.45146
693.098	0.937814
694.816	0.74557
696.531	0.897389
698.247	0.610049
699.963	1.6557
701.678	0.973848
703.392	1.21074
705.108	0.642444
706.821	1.33644
708.534	1.2491
710.249	1.50497
711.962	0.775532
713.674	1.19049
715.388	1.23877
717.099	0.624822
718.81	1.26663
720.523	1.15544
722.234	0.794188
723.944	1.4119
725.654	0.778099
727.365	0.712733
729.075	1.10073
730.784	0.965952
732.492	1.57823
734.202	0.650551
735.91	0.922684
737.618	1.1722
739.325	1.37709
741.034	1.38012
742.741	0.979438
744.447	0.738692
746.153	1.51272
747.859	1.70326
749.564	0.905944
751.271	1.70745
752.976	0.801351
754.681	1.58422
756.385	1.44688
758.088	0.455952
759.792	1.17816
761.495	1.15878
763.2	0.75645
764.902	2.22732
766.604	1.32597
768.306	1.37049
770.008	1.5477
771.709	1.17939
773.41	1.32927
775.11	1.07154
776.811	2.05817
778.51	2.14223
780.21	1.68569
781.909	1.90912
783.608	2.20072
785.307	1.76638
787.005	1.78131
788.703	2.26702
790.401	2.24999
792.098	1.89011
793.795	1.88991
795.492	1.84426
797.188	1.10137
798.884	2.09595
800.58	1.49378
802.276	2.08647
803.971	1.4202
805.665	1.22626
807.36	2.37945
809.054	1.14941
810.748	1.91649
812.441	1.85151
814.135	1.92026
815.826	1.56324
817.518	1.4975
819.21	1.61072
820.902	2.43851
822.594	2.21687
824.285	1.95215
825.976	2.46968
827.665	2.38849
829.355	2.48946
831.045	1.99351
832.735	2.30338
834.424	1.56877
836.111	1.4815
837.8	2.15261
839.488	1.61692
841.177	1.86038
842.864	1.23079
844.55	1.69531
846.237	1.62459
847.924	2.29424
849.61	2.02838
851.295	1.76567
852.98	1.70686
854.666	1.335
856.349	1.05189
858.034	1.71104
859.719	1.96392
861.403	1.1112
863.085	1.44933
864.769	1.493
866.452	1.87357
868.133	1.89265
869.816	1.12169
871.498	0.643253
873.179	1.1571
874.86	1.12942
876.54	1.10176
878.221	0.848396
879.902	1.65573
881.58	1.4694
883.26	1.2594
884.938	1.43164
886.618	0.902187
888.297	1.25076
889.974	1.21348
891.653	1.28684
893.329	1.17811
895.007	1.09038
896.683	0.933916
898.36	0.372154
900.035	1.42531
901.712	0.481016
903.387	0.657055
905.063	1.14521
906.737	1.07456
908.412	1.78515
910.085	0.936689
911.76	0.825298
913.433	1.33733
915.107	1.09394
916.779	1.67179
918.452	1.2512
920.124	1.07512
921.797	1.16558
923.467	0.41762
925.138	1.15288
926.81	1.55869
928.48	1.17202
930.151	0.345907
931.82	1.08748
933.489	0.836483
935.16	1.00486
936.828	1.12972
938.496	0.991159
940.165	0.898386
941.833	0.829323
943.5	0.650866
945.168	1.00176
946.834	0.865505
948.5	1.10192
950.168	0.651451
951.834	0.92766
953.499	1.00537
955.163	0.423805
956.83	0.750204
958.494	0.573843
960.158	0.555588
961.821	1.06948
963.487	0.810129
965.15	0.769192
966.812	0.812969
968.474	1.33965
970.138	1.28811
971.8	1.56721
973.461	0.807571
975.123	0.691462
976.783	0.599983
978.446	0.576864
980.106	0.786949
981.766	0.996534
983.425	0.949652
985.084	0.745026
986.743	1.79908
988.402	1.14633
990.06	0.403976
991.72	0.523413
993.378	0.973812
995.035	0.298088
996.692	0.461609
998.349	0.713081
1000.01	1.84531
1001.66	1.14781
1003.32	0.648663
1004.97	1.09533
1006.63	0.772097
1008.28	0.603226
1009.94	0.500883
1011.59	0.377359
1013.25	0.86825
1014.9	0.548714
1016.55	0.711702
1018.21	0.962778
1019.86	0.996088
1021.51	0.200087
1023.16	0.892376
1024.81	-0.0751743
1026.47	1.12162
1028.12	0.286146
1029.77	0.170912
1031.42	0.687376
1033.07	0.873755
1034.72	1.16667
1036.37	1.56623
1038.02	1.87688
1039.67	2.09988
1041.31	1.95389
1042.96	1.94052
1044.61	2.55992
1046.26	1.37918
1047.91	1.37444
1049.55	0.52512
1051.2	1.2413
1052.84	0.742289
1054.49	0.61297
1056.14	0.461843
1057.78	0.0493736
1059.43	0.788446
1061.07	1.02665
1062.72	1.15502
1064.36	0.0644207
1066	0.168312
1067.65	0.096817
1069.29	0.567162
1070.93	0.775656
1072.58	0.332647
1074.22	0.368086
1075.86	1.38103
1077.5	0.487059
1079.14	0.874464
1080.78	1.06774
1082.42	0.415255
1084.06	1.08415
1085.7	1.14348
1087.34	0.983093
1088.98	0.213612
1090.62	0.200096
1092.26	0.941496
1093.9	0.579523
1095.54	0.175425
1097.17	0.50609
1098.81	0.62282
1100.45	0.957165
1102.09	0.79907
1103.72	-0.238358
1105.36	0.640686
1106.99	0.358906
1108.63	0.700336
1110.27	0.868042
1111.9	0.474573
1113.53	0.14361
1115.17	0.240692
1116.8	1.00183
1118.43	0.583136
1120.07	0.508755
1121.7	0.114746
1123.33	1.00672
1124.97	1.02227
1126.6	0.461582
1128.23	0.650745
1129.86	0.49876
1131.49	1.18142
1133.12	0.603109
1134.75	0.473572
1136.38	0.727835
1138.01	0.489016
1139.64	1.14571
1141.27	0.220562
1142.9	1.04537
1144.53	-0.00722313
1146.16	0.370485
1147.78	0.408306
1149.41	0.532541
1151.04	0.401806
1152.67	-0.133486
1154.29	0.0973969
1155.92	0.0935078
1157.54	0.51498
1159.17	0.745333
1160.8	0.317659
1162.42	-0.0870056
1164.05	0.232653
1165.67	0.255333
1167.29	-0.190161
1168.92	0.468378
1170.54	0.571627
1172.16	-0.00779724
1173.79	-0.121965
1175.41	0.122984
1177.03	0.0701351
1178.65	-0.257647
1180.28	0.199188
1181.9	-0.25288
1183.52	0.0575523
1185.14	0.705681
1186.76	-0.0208702
1188.38	0.0108643
1190	-0.0866566
1191.62	-0.270819
1193.24	-0.162195
1194.86	0.175978
1196.47	0.0521164
1198.09	0.243999
1199.71	-0.189425
1201.33	-0.0127811
1202.95	0.793655
1204.56	0.246489
1206.18	0.8085
1207.8	0.2665
1209.41	-0.525358
1211.03	0.621452
1212.64	-0.152891
1214.26	-0.0752773
1215.87	0.249008
1217.49	0.570255
1219.1	0.59856
1220.71	0.232315
1222.33	0.489941
1223.94	1.20474
1225.55	0.968279
1227.16	0.527445
1228.78	0.916372
1230.39	0.707245
1232	0.78937
1233.61	1.63794
1235.22	1.12422
1236.83	0.984301
1238.44	1.23861
1240.05	1.34926
1241.66	1.74979
1243.27	1.52932
1244.88	1.36968
1246.49	1.20849
1248.1	1.17
1249.71	1.83389
1251.32	1.23529
1252.92	1.09228
1254.53	1.59157
1256.14	2.25798
1257.74	1.04388
1259.35	0.969072
1260.96	1.9512
1262.56	1.94075
1264.17	1.59885
1265.77	1.06957
1267.38	1.1815
1268.98	1.72749
1270.59	1.4427
1272.19	1.94424
1273.79	1.8222
1275.4	1.57434
1277	1.42885
1278.6	1.24083
1280.21	1.81817
1281.81	1.50468
1283.41	2.0812
1285.01	2.1825
1286.61	1.23084
1288.21	1.54196
1289.81	1.91631
1291.41	2.20867
1293.01	2.72806
1294.61	2.62637
1296.21	2.04769
1297.81	1.61149
1299.41	1.40022
1301.01	2.05286
1302.6	2.24949
1304.2	2.44431
1305.8	2.14429
1307.4	1.72087
1308.99	1.93388
1310.59	2.20796
1312.19	1.86795
1313.78	1.75477
1315.38	2.48101
1316.97	1.14548
1318.57	2.1589
1320.16	2.15129
1321.76	2.32556
1323.35	2.27331
1324.94	2.25914
1326.54	1.81666
1328.13	2.14487
1329.72	1.94681
1331.32	2.01457
1332.91	1.23702
1334.5	1.77631
1336.09	2.35765
1337.68	1.80971
1339.27	2.26913
1340.87	2.94685
1342.45	1.8091
1344.04	1.67573
1345.64	1.72177
1347.22	1.10647
1348.81	1.81691
1350.4	1.90936
1351.99	2.32552
1353.58	1.18498
1355.17	1.56606
1356.75	1.0083
1358.34	1.48894
1359.93	1.70827
1361.51	1.02773
1363.1	1.88263
1364.69	1.48018
1366.27	0.978991
1367.86	1.25615
1369.44	1.83344
1371.03	1.41748
1372.61	0.327171
1374.2	1.10893
1375.78	0.856915
1377.37	0.664692
1378.95	1.58606
1380.53	1.11304
1382.11	1.71247
1383.7	1.51422
1385.28	1.23519
1386.86	1.17434
1388.44	1.05425
1390.02	0.994793
1391.6	1.03589
1393.19	1.35582
1394.77	1.27946
1396.35	0.826103
1397.93	0.332325
1399.51	0.986759
1401.08	1.34221
1402.66	0.884928
1404.24	1.16012
1405.82	0.585583
1407.4	1.0603
1408.97	0.528234
1410.55	1.32058
1412.13	0.552414
1413.71	1.12617
1415.28	0.691917
1416.86	0.572454
1418.43	1.20157
1420.01	0.78653
1421.59	0.314365
1423.16	1.26199
1424.73	0.932281
1426.31	1.66719
1427.88	1.51716
1429.46	1.38635
1431.03	1.09678
1432.6	0.825329
1434.18	1.45763
1435.75	1.93164
1437.32	1.52099
1438.89	1.54409
1440.46	2.57098
1442.04	2.40036
1443.61	2.30941
1445.18	2.57281
1446.75	2.56135
1448.32	2.01938
1449.89	2.44109
1451.46	2.27375
1453.03	2.12683
1454.6	2.62954
1456.16	2.85692
1457.73	2.86687
1459.3	2.7961
1460.87	3.07685
1462.44	2.15449
1464	2.11526
1465.57	1.58315
1467.14	1.22794
1468.7	1.97309
1470.27	1.6592
1471.83	1.64148
1473.4	1.38997
1474.96	1.33577
1476.53	1.10572
1478.09	1.54242
1479.66	1.31246
1481.22	1.51361
1482.78	1.36184
1484.35	1.75853
1485.91	1.6452
1487.47	2.27494
1489.04	2.47148
1490.6	1.84315
1492.16	1.95527
1493.72	2.23963
1495.28	2.01344
1496.84	1.8057
1498.4	1.90951
1499.96	1.9751
1501.52	1.90631
1503.08	1.89767
1504.64	1.96785
1506.2	1.28337
1507.76	1.21803
1509.32	0.726305
1510.88	1.33382
1512.44	1.51464
1513.99	1.29036
1515.55	1.18226
1517.11	0.883406
1518.66	0.624708
1520.22	1.09531
1521.78	0.857214
1523.33	0.122231
1524.89	0.265936
1526.44	0.33165
1528	0.567263
1529.55	0.345205
1531.11	0.560453
1532.66	0.32082
1534.21	-0.0494499
1535.77	0.263451
1537.32	0.690327
1538.87	0.720932
1540.43	0.88398
1541.98	0.839643
1543.53	0.550606
1545.08	0.0926476
1546.63	0.386572
1548.18	1.07368
1549.74	0.747234
1551.29	0.702612
1552.84	0.902006
1554.39	1.64438
1555.94	0.949684
1557.48	0.818365
1559.03	1.04445
1560.58	0.657492
1562.13	0.832462
1563.68	0.803751
1565.23	1.22363
1566.78	1.45712
1568.32	0.831766
1569.87	1.12037
1571.42	1.03514
1572.96	0.893505
1574.51	0.807688
1576.05	1.16994
1577.6	1.77521
1579.14	1.54103
1580.69	1.02763
1582.24	1.71046
1583.78	1.75967
1585.32	1.11849
1586.87	0.814032
1588.41	1.3886
1589.95	2.05689
1591.5	1.9201
1593.04	2.28811
1594.58	1.26985
1596.12	1.48768
1597.67	1.8937
1599.21	2.39475
1600.75	2.54088
1602.29	1.89952
1603.83	2.25271
1605.37	1.04582
1606.91	2.3168
1608.45	1.95015
1609.99	2.10634
1611.53	1.73298
1613.07	1.07543
1614.6	2.06838
1616.14	1.33406
1617.68	2.04464
1619.22	1.25746
1620.75	1.42817
1622.29	1.35729
1623.83	1.30628
1625.37	1.33014
1626.9	2.02659
1628.44	1.37374
1629.97	1.74793
1631.51	1.76517
1633.04	1.78187
1634.58	2.41502
1636.11	2.02259
1637.65	1.83703
1639.18	1.68976
1640.72	1.84079
1642.25	2.38198
1643.78	1.78522
1645.31	2.71323
1646.85	2.4486
1648.38	2.10961
1649.91	2.12454
1651.44	2.01101
1652.97	3.01227
1654.5	2.97613
1656.03	2.34786
1657.56	2.88711
1659.1	1.9616
1660.62	2.03465
1662.15	1.69852
1663.68	2.28551
1665.21	2.02118
1666.74	2.34841
1668.27	1.90226
1669.8	2.362
1671.32	1.47851
1672.85	1.79441
1674.38	1.87138
1675.91	1.89268
1677.43	1.48949
1678.96	2.04163
1680.49	1.37826
1682.01	1.70681
1683.54	1.24493
1685.06	0.4902
1686.59	1.09394
1688.11	0.964468
1689.64	0.872328
1691.16	1.27495
1692.68	1.00017
1694.21	1.0365
1695.73	1.14569
1697.25	0.651442
1698.78	0.431187
1700.3	0.137602
1701.82	0.554943
1703.34	-0.0131607
1704.86	0.147242
1706.39	-0.0389061
1707.91	0.447502
1709.43	0.823994
1710.95	0.474079
1712.47	-0.0744286
1713.99	0.428936
1715.51	0.460922
1717.02	0.926844
1718.54	0.10869
1720.06	0.447447
1721.58	-0.116186
1723.1	0.511663
1724.62	0.869793
1726.13	-0.283192
1727.65	0.186567
1729.17	-0.0624809
1730.68	0.770227
1732.2	-0.109941
1733.72	0.0137081
1735.23	0.375385
1736.75	-0.0286636
1738.26	0.209461
1739.78	0.364288
1741.29	0.0971031
1742.81	0.571915
1744.32	0.349445
1745.84	0.367428
1747.35	-0.051651
1748.86	0.151707
1750.37	0.555449
1751.89	0.611078
1753.4	0.0771465
1754.91	-0.0187454
1756.42	0.0857773
1757.93	-0.0590458
1759.45	-0.0166397
1760.96	0.102926
1762.47	0.0941143
1763.98	-0.275282
1765.49	0.0118408
1767	0.287628
1768.51	0.251554
1770.02	0.371849
1771.53	0.20241
1773.03	-0.0824509
1774.54	0.0156403
1776.05	0.165195
1777.56	-0.145695
1779.07	-0.0754242
1780.57	-0.272474
1782.08	-0.25226
1783.59	0.360323
1785.09	-0.253214
1786.6	-0.206196
1788.11	0.363947
1789.61	0.0279369
1791.12	-0.198648
1792.62	-0.511751
1794.13	0.264389
1795.63	-0.0166893
1797.13	-0.292681
1798.64	0.176311
1800.14	-0.133503
1801.65	0.136992
1803.15	0.201881
1804.65	0.0872021
1806.15	0.0465584
1807.66	0.141897
1809.16	-0.261751
1810.66	-0.015234
1812.16	0.104973
1813.66	0.308908
1815.16	-0.335957
1816.66	0.289536
1818.16	0.289658
1819.66	0.0123405
1821.16	0.240032
1822.66	0.256273
1824.16	0.623098
1825.66	-0.084301
1827.16	0.318001
1828.66	-0.0215893
1830.16	-0.198673
1831.65	0.245289
1833.15	0.106236
1834.65	0.0500412
1836.14	0.280483
1837.64	-0.420753
1839.14	0.12615
1840.63	0.089262
1842.13	0.02742
1843.62	0.0210819
1845.12	0.482389
1846.61	-0.0835018
1848.11	-0.118124
1849.6	0.179958
1851.1	-0.13291
1852.59	-0.411837
1854.08	0.208258
1855.58	-0.0662956
1857.07	-0.385317
1858.56	0.0616322
1860.05	0.280897
1861.55	0.387001
1863.04	0.970013
1864.53	0.0770416
1866.02	0.375895
1867.51	-0.137886
1869	0.227507
1870.49	-0.198463
1871.98	-0.563383
1873.47	0.376747
1874.96	0.630867
1876.45	-0.0790596
1877.94	0.0374718
1879.43	0.336266
1880.92	-0.620176
1882.41	0.146179
1882.51	0.208683
1884	0.639723
1885.5	0.0580063
1886.99	0.432852
1888.48	0.545053
1889.98	-0.508154
1891.47	-0.0626698
1892.96	0.0382614
1894.46	0.0909824
1895.95	0.599199
1897.44	-0.316628
1898.93	0.0368176
1900.42	-0.0641308
1901.91	0.753391
1903.41	0.34927
1904.9	0.289892
1906.39	0.31567
1907.88	0.4629
1909.37	0.732824
1910.86	-0.418159
1912.35	0.445723
1913.83	0.478008
1915.32	0.0249729
1916.81	0.420904
1918.3	0.676802
1919.79	0.290453
1921.27	0.111988
1922.76	0.107674
1924.25	0.780468
1925.74	0.88438
1927.22	0.280933
1928.71	0.527237
1930.19	0.583073
1931.68	0.100317
1933.17	-0.333593
1934.65	0.596371
1936.14	0.328045
1937.62	-0.167408
1939.11	0.649929
1940.59	0.637991
1942.07	-0.511034
1943.56	0.827335
1945.04	0.890564
1946.52	0.4547
1948.01	0.122013
1949.49	-0.0397758
1950.97	0.347395
1952.45	0.577204
1953.93	-0.071558
1955.42	0.208284
1956.9	-0.163952
1958.38	0.186579
1959.86	-0.267904
1961.34	0.256609
1962.82	0.781137
1964.3	0.122658
1965.78	-0.0568371
1967.26	0.0533237
1968.74	0.179016
1970.21	0.57674
1971.69	-0.0173836
1973.17	-0.201151
1974.65	0.707134
1976.13	0.199896
1977.6	0.630507
1979.08	0.24375
1980.56	1.09917
1982.03	0.712185
1983.51	0.460941
1984.99	-0.367786
1986.46	-0.568254
1987.94	0.0789051
1989.41	0.234642
1990.89	0.103951
1992.36	0.702753
1993.84	0.23815
1995.31	0.0292416
1996.78	0.497206
1998.26	0.221706
1999.73	0.418163
2001.2	0.545622
2002.68	-0.0365524
2004.15	0.106432
2005.62	-0.00274277
2007.09	0.310862
2008.56	-0.198746
2010.04	0.202875
2011.51	0.757042
2012.98	0.570633
2014.45	0.147749
2015.92	1.05247
2017.39	0.155008
2018.86	0.50045
2020.33	0.105021
2021.8	0.750862
2023.26	1.16179
2024.73	0.215099
2026.2	-0.0741692
2027.67	0.0590744
2029.14	0.900038
2030.61	-0.0508003
2032.07	0.124348
2033.54	1.224
2035.01	0.947363
2036.47	0.300112
2037.94	1.29802
2039.4	1.03498
2040.87	1.02384
2042.33	1.13125
2043.8	1.13952
2045.27	0.560919
2046.73	-0.504768
2048.19	0.467333
2049.66	0.445389
2051.12	0.539246
2052.59	0.612856
2054.05	0.480057
2055.51	1.03474
2056.97	0.844301
2058.44	0.31514
2059.9	0.106068
2061.36	0.554697
2062.82	0.44935
2064.28	0.127512
2065.74	0.615723
2067.21	0.533623
2068.67	0.755791
2070.13	0.322233
2071.59	0.915661
2073.05	0.229277
2074.51	-0.0705299
2075.96	0.656141
2077.42	1.38205
2078.88	0.810364
2080.34	1.46692
2081.8	0.926687
2083.26	0.940607
2084.72	1.25575
2086.17	0.559694
2087.63	1.66193
2089.09	0.779058
2090.54	0.299746
2092	0.660179
2093.45	0.818682
2094.91	1.26153
2096.37	0.261377
2097.82	1.50535
2099.28	0.553688
2100.73	0.856976
2102.19	0.8929
2103.64	0.730227
2105.09	1.27156
2106.55	1.26503
2108	0.877306
2109.45	1.17424
2110.91	1.30312
2112.36	1.17898
2113.81	1.33422
2115.26	0.636957
2116.72	1.18569
2118.17	1.96669
2119.62	1.35528
2121.07	1.11395
2122.52	1.73957
2123.97	0.859301
2125.42	1.00872
2126.87	1.35652
2128.32	1.37045
2129.77	1.92809
2131.22	2.51536
2132.67	2.02417
2134.11	2.12899
2135.56	2.2851
2137.01	1.48582
2138.46	1.8975
2139.91	1.6524
2141.35	1.51013
2142.8	2.27996
2144.25	1.77807
2145.7	3.01387
2147.14	2.39562
2148.59	2.13983
2150.03	2.21324
2151.48	2.26782
2152.92	2.50238
2154.37	2.27111
2155.81	2.65176
2157.26	3.47974
2158.7	2.37126
2160.15	3.07145
2161.59	3.08006
2163.03	2.52933
2164.47	2.91059
2165.92	3.72602
2167.36	2.28292
2168.8	3.0632
2170.24	2.59276
2171.69	3.39808
2173.13	3.64994
2174.57	3.4992
2176.01	2.89807
2177.45	2.79641
2178.89	2.69653
2180.33	3.48007
2181.77	3.10191
2183.21	3.02439
2184.65	3.16373
2186.09	3.13694
2187.53	2.02866
2188.97	3.16676
2190.4	3.0402
2191.84	2.56334
2193.28	2.46763
2194.72	2.80174
2196.16	2.43242
2197.59	1.75928
2199.03	1.9975
2200.47	2.01698
2201.9	2.43451
2203.34	1.67499
2204.77	1.99663
2206.21	2.56891
2207.64	2.28047
2209.08	1.71037
2210.51	1.28803
2211.95	1.42631
2213.38	1.59579
2214.82	1.7647
2216.25	1.65411
2217.68	1.69466
2219.12	1.7215
2220.55	1.58544
2221.98	2.32327
2223.41	1.41149
2224.85	1.22194
2226.28	1.67054
2227.71	1.39124
2229.14	1.48728
2230.57	1.76177
2232	0.986383
2233.43	1.3755
2234.86	1.4057
2236.29	0.0825291
2237.72	1.1973
2239.15	0.73221
2240.58	1.28323
2242.01	0.631191
2243.44	0.927931
2244.87	0.491522
2246.29	1.24441
2247.72	1.17821
2249.15	0.715971
2250.58	0.379648
2252.01	0.870108
2253.43	0.642262
2254.86	0.464205
2256.29	0.533045
2257.71	0.331093
2259.14	0.800608
2260.56	-0.378416
2261.99	1.59606
2263.41	1.04252
2264.84	1.6429
2266.26	1.08869
2267.69	1.06896
2269.11	0.217138
2270.53	0.144413
2271.96	0.461325
2273.38	1.42944
2274.8	1.30673
2276.23	0.711916
2277.65	0.638735
2279.07	0.500456
2280.49	0.0847588
2281.91	1.055
2283.34	0.312481
2284.76	0.711981
2286.18	0.377638
2287.6	0.89295
2289.02	0.821575
2290.44	0.146475
2291.86	0.648424
2293.28	0.676821
2294.7	0.45977
2296.12	0.962561
2297.54	0.99077
2298.96	0.429344
2300.37	-0.00105095
2301.79	0.519833
2303.21	0.303589
2304.63	1.15443
2306.04	0.100912
2307.46	0.113623
2308.88	0.141613
2310.3	0.628769
2311.71	0.177759
2313.13	0.549084
2314.54	-0.247112
2315.96	-0.00496483
2317.37	0.156719
2318.79	0.533869
2320.2	0.366655
2321.62	0.460894
2323.03	0.881134
2324.45	0.603075
2325.86	0.567564
2327.27	1.20441
2328.69	0.421474
2330.1	1.23752
2331.51	0.39192
2332.92	0.569853
2334.34	0.22307
2335.75	-0.238138
2337.16	0.155132
2338.57	0.25012
2339.98	-0.396929
2341.39	0.876074
2342.8	-0.216888
2344.21	0.0691032
2345.63	-0.00526237
2347.04	0.609022
2348.45	0.0767899
2349.85	0.722227
2351.26	0.400576
2352.67	-0.151405
2354.08	-0.737068
2355.49	0.38847
2356.9	0.257147
2358.3	0.158527
2359.71	0.222851
2361.12	-0.297028
2362.53	0.0758781
2363.93	0.156248
2365.34	-0.329947
2366.75	0.332752
2368.15	0.236595
2369.56	0.175121
2370.97	-0.0928993
2372.37	0.0289707
2373.77	-0.0241966
2375.18	-0.140846
2376.59	0.176222
2377.99	0.47455
2379.39	-0.0182896
2380.8	-0.112614
2382.2	0.399511
2383.6	-0.340809
2385.01	0.215816
2386.41	-0.0269012
2387.81	-0.26712
2389.21	0.053772
2390.62	-0.849861
2392.02	0.176697
2393.42	0.535921
2394.82	0.32411
2396.22	0.257143
2397.62	0.0962715
2399.02	-0.349236
2400.42	0.22323
2401.82	0.303816
2403.22	0.178028
2404.62	0.0356083
2406.02	-0.553061
2407.42	0.253023
2408.82	0.358818
2410.22	0.146732
2411.62	0.378937
2413.01	0.185141
2414.41	0.168432
2415.81	0.297447
2417.21	0.651064
2418.6	0.183466
2420	0.555902
2421.4	0.278799
2422.79	0.222626
2424.19	0.32427
2425.59	0.33099
2426.98	0.30714
2428.38	0.348618
2429.77	0.312937
2431.17	-0.451103
2432.56	0.197355
2433.95	0.114717
2435.35	0.760368
2436.74	-0.0587959
2438.14	0.199022
2439.53	0.295074
2440.92	-0.484362
2442.31	0.10074
2443.71	0.399147
2445.1	-0.492695
2446.49	-0.527962
2447.88	0.878635
2449.27	0.858305
2450.67	0.110172
2452.06	-0.0980606
2453.45	-0.415234
2454.84	0.2188
2456.23	-0.0790977
2457.62	0.114122
2459.01	0.0381126
2460.4	0.277172
2461.79	-0.750486
2463.18	-0.182878
2464.57	0.430449
2465.95	-0.0470867
2467.34	0.706848
2468.73	0.355511
2470.12	0.619125
2471.5	-0.174627
2472.89	0.228271
2474.28	-0.504469
2475.67	0.0995312
2477.05	0.120209
2478.44	0.580462
2479.82	0.0988216
2481.21	0.198473
2482.6	0.391842
2483.98	0.098587
2485.37	0.241844
2486.75	0.554169
2488.13	0.800892
2489.52	-0.279377
2490.9	0.5105
2492.29	0.00929832
2493.67	0.163767
2495.05	0.274334
2496.44	-0.263479
2497.82	0.0842686
2499.2	0.16902
2500.58	0.0364017
2501.97	0.11866
2503.35	-0.372671
2504.73	0.338171
2506.11	0.506838
2507.49	0.0743294
2508.87	0.62698
2510.25	0.0275841
2511.63	-0.369713
2513.01	0.185778
2514.39	-1.08042
2515.77	-0.0776405
2517.15	-0.558243
2518.53	0.491753
2519.91	-0.109274
2521.29	-0.0229416
2522.67	-0.380762
2524.05	-0.465355
2525.42	0.149712
2526.8	0.321585
2528.18	0.281048
2529.55	0.927271
2530.93	-0.080286
2532.31	-0.202116
2533.69	-0.381693
2535.06	0.123993
2536.44	0.447302
2537.81	0.541246
2539.19	0.29891
2540.56	0.449623
2541.94	0.599411
2543.31	0.582813
2544.69	0.173738
2546.06	0.404558
2547.44	-0.165827
2548.81	-0.0517673
2550.18	0.699867
2551.56	0.798103
2552.93	-0.243933
2554.3	-0.347263
2555.67	0.715729
2557.04	0.305706
2558.42	-0.0134048
2559.79	0.53232
2561.16	-0.0577202
2562.53	-0.327925
2563.9	0.266966
2565.27	0.0444946
2566.64	0.474226
2568.01	-0.0202541
2569.38	-0.181316
2570.75	-0.130182
2572.12	-0.185051
2573.49	0.124081
2574.86	-0.0516376
2576.23	-0.0302029
2577.6	0.203363
2578.97	0.770071
2580.33	-0.104465
2581.7	0.551571
2583.07	-0.0971756
2584.44	0.163277
2585.8	-0.061491
2587.17	0.502203
2588.54	0.111443
2589.9	0.00893974
2591.27	0.118357
2592.64	0.135841
2594	0.197023
2595.37	0.255934
2596.73	0.388203
2598.1	-0.101671
2599.46	-0.516207
2600.83	-0.15943
2602.19	0.666218
2603.55	0.269867
2604.92	-0.275789
2606.28	-0.0814514
2607.64	0.15731
2609.01	-0.118395
2610.37	-0.0650215
2611.73	0.301468
2613.09	0.364029
2614.46	0.37966
2615.82	0.0345535
2617.18	0.56011
2618.54	0.486958
2619.9	0.834663
2621.26	-0.117334
2622.62	0.17341
2623.98	-0.446564
2625.34	0.113049
2626.7	0.358223
2628.06	0.64703
2629.42	0.160463
2630.78	-0.0579891
2632.14	0.526447
2633.5	0.159176
2634.86	-0.415335
2636.21	0.0194912
2637.57	0.379507
2638.93	-0.104889
2640.29	1.02447
2641.64	0.245609
2643	0.473099
2644.36	0.213501
2645.71	-0.414703
2647.07	-0.173073
2648.43	0.479134
2649.78	0.319021
2651.14	1.02507
2652.49	-0.620789
2653.85	-0.194191
2655.2	0.233196
2656.56	-0.201828
2657.91	0.112753
2659.26	0.472843
2660.62	0.0878181
2661.97	0.0244045
2663.32	-0.0256004
2664.68	-0.00431061
2666.03	0.13199
2667.38	0.369051
2668.74	0.0958614
2670.09	0.12929
2671.44	0.0911179
2672.79	0.0108147
2674.14	0.178862
2675.49	0.580256
2676.84	0.460266
2678.19	0.269341
2679.54	-0.137119
2680.89	0.241734
2682.24	0.0287533
2683.59	0.673897
2684.94	0.451223
2686.29	0.389093
2687.64	0.616917
2688.99	0.334143
2690.34	1.12191
2691.69	0.584534
2693.03	0.479328
2694.38	-0.396475
2695.73	0.496361
2697.08	0.158356
2698.42	0.967447
2699.77	-0.493252
2701.12	0.163975
2702.46	-0.131247
2703.81	0.836308
2705.15	0.254677
2706.5	0.223818
2707.85	0.0907993
2709.19	-0.188366
2710.54	0.199453
2711.88	0.122118
2713.22	0.305984
2714.57	0.591595
2715.91	0.0484715
2717.26	0.624628
2718.6	-0.0505543
2719.94	0.655508
2721.29	0.589514
2722.63	0.173122
2723.97	0.352425
2725.31	0.370682
2726.66	0.475445
2728	0.288427
2729.34	0.624807
2730.68	0.640694
2732.02	0.249149
2733.36	0.527054
2734.7	0.136206
2736.04	0.516737
2737.38	0.43214
2738.72	0.260262
2740.06	0.146055
2741.4	0.219887
2742.74	0.8011
2744.08	0.610231
2745.42	0.548859
2746.76	-0.021677
2748.09	-0.243755
2749.43	0.15834
2750.77	0.0964432
2752.11	0.209129
2753.45	0.00341797
2754.78	-0.216259
2756.12	0.346622
2757.46	0.475155
2758.79	0.16991
2760.13	0.618258
2761.46	-0.45191
2762.8	0.403662
2764.14	-0.216009
2765.47	-0.24242
2766.8	0.207645
2768.14	-0.400288
2769.47	0.363026
2770.81	-0.597208
2772.14	0.202696
2773.48	0.941423
2774.81	0.0341511
2776.14	0.0358372
2777.48	0.210985
2778.81	-0.0299549
2780.14	0.104225
2781.47	0.61232
2782.8	0.0579662
2784.14	0.049202
2785.47	-0.131567
2786.8	0.0463676
2788.13	-0.0468025
2789.46	-0.138189
2790.79	0.27302
2792.12	-0.400984
2793.45	-0.00152397
2794.78	0.269245
2796.11	0.596323
2797.44	-0.0778522
2798.77	-0.167345
2800.1	-0.172047
2801.43	0.293434
2802.76	0.0594006
2804.09	-0.402962
2805.41	0.230942
2806.74	0.179558
2808.07	-0.328279
2809.4	-0.0119476
2810.72	0.602165
2812.05	0.0530415
2813.38	0.797714
2814.71	-0.170551
2816.03	0.565805
2817.36	0.0713558
2818.68	0.386122
2820.01	0.474155
2821.33	-0.0198689
2822.66	-0.288488
2823.98	-0.218306
2825.31	0.191048
2826.63	0.727736
2827.96	0.40167
2829.28	0.317598
2830.6	0.60261
2831.93	-0.145271
2833.25	0.819529
2834.57	0.821072
2835.9	1.2178
2837.22	0.948189
2838.54	1.18699
2839.86	1.48176
2841.18	1.11212
2842.5	1.26654
2843.83	1.62016
2845.15	2.21554
2846.47	1.44142
2847.79	2.13789
2849.11	2.31153
2850.43	1.86264
2851.75	2.47275
2853.07	2.5305
2854.39	2.48848
2855.71	2.54496
2857.03	2.19172
2858.35	2.60141
2859.66	2.81322
2860.98	2.65749
2862.3	3.16465
2863.62	2.88041
2864.94	3.41414
2866.25	4.31429
2867.57	4.14271
2868.89	4.08495
2870.2	4.07041
2871.52	4.25355
2872.84	4.47835
2874.15	4.0956
2875.47	3.9503
2876.78	4.29561
2878.1	4.68105
2879.41	4.67167
2880.73	5.21111
2882.04	4.20634
2883.36	4.59495
2884.67	4.33948
2885.99	4.22576
2887.3	4.63155
2888.61	4.4469
2889.93	4.06437
2891.24	4.64787
2892.55	4.15042
2893.86	4.98388
2895.18	4.92118
2896.49	5.01416
2897.8	4.71745
2899.11	5.22046
2900.42	5.19339
2901.73	5.517
2903.05	5.855
2904.36	5.64774
2905.67	5.52499
2906.98	5.82297
2908.29	6.48637
2909.6	5.97644
2910.91	6.47506
2912.21	6.38598
2913.52	6.54733
2914.83	7.82586
2916.14	7.28076
2917.45	7.78221
2918.76	8.46311
2920.07	7.63268
2921.37	8.09046
2922.68	7.87959
2923.99	8.37055
2925.29	8.6542
2926.6	8.96712
2927.91	9.22427
2929.22	9.27091
2930.52	9.37227
2931.83	8.99729
2933.13	9.27876
2934.44	8.93114
2935.74	8.59779
2937.05	8.97751
2938.35	9.37153
2939.66	8.31283
2940.96	8.19142
2942.26	8.11366
2943.57	7.56312
2944.87	7.82593
2946.18	7.78364
2947.48	7.15494
2948.78	7.25307
2950.08	7.44695
2951.39	7.72124
2952.69	6.6333
2953.99	7.16669
2955.29	5.73933
2956.59	5.74168
2957.9	6.64384
2959.2	5.50765
2960.5	6.42128
2961.8	5.72814
2963.1	5.47048
2964.4	5.49213
2965.7	4.69617
2967	5.73719
2968.3	5.28602
2969.6	5.42357
2970.9	4.2669
2972.19	4.24977
2973.49	4.43031
2974.79	4.28146
2976.09	4.18227
2977.39	4.16449
2978.68	3.77452
2979.98	3.16998
2981.28	4.06874
2982.58	3.27775
2983.87	3.45809
2985.17	3.69669
2986.47	2.8422
2987.76	2.98848
2989.06	2.60279
2990.35	2.62515
2991.65	2.63245
2992.94	2.03326
2994.24	1.79695
2995.53	2.24665
2996.83	1.45892
2998.12	1.69582
2999.42	1.80667
3000.71	1.51186
3002	1.02218
3003.3	0.996037
3004.59	1.12417
3005.88	1.32165
3007.18	0.845747
3008.47	0.410477
3009.76	0.826759
3011.05	0.975376
3012.34	0.536402
3013.64	0.949011
3014.93	1.18056
3016.22	0.354475
3017.51	0.658646
3018.8	0.253859
3020.09	0.211212
3021.38	0.0981541
3022.67	0.164
3023.96	-0.0221615
3025.25	-0.0294094
3026.54	0.350613
3027.83	-0.542221
3029.12	-0.131701
3030.41	0.0877914
3031.69	0.158161
3032.98	-0.0454636
3034.27	-0.124111
3035.56	0.347956
3036.84	0.0998096
3038.13	0.35791
3039.42	0.43252
3040.71	0.42103
3041.99	0.256481
3043.28	-0.798723
3044.57	0.559618
3045.85	0.0996666
3047.14	-0.286564
3048.42	0.0561409
3049.71	0.621325
3050.99	0.534607
3052.28	0.367781
3053.56	0.337414
3054.85	0.387465
3056.13	0.367012
3057.41	0.316896
3058.7	0.333157
3059.98	0.294249
3061.26	0.174417
3062.55	0.355879
3063.83	0.172937
3065.11	0.278763
3066.39	0.509838
3067.68	0.131184
3068.96	-0.0836067
3070.24	0.503395
3071.52	0.109293
3072.8	0.270149
3074.08	0.0883083
3075.36	0.094759
3076.65	0.168291
3077.93	-0.232578
3079.21	-0.535973
3080.49	0.0862236
3081.77	0.0197086
3083.04	0.267813
3084.32	0.327461
3085.6	-0.0470657
3086.88	-0.232723
3088.16	-0.501413
3089.44	0.151289
3090.72	-0.513523
3091.99	0.395245
3093.27	-0.0660763
3094.55	0.286987
3095.83	-0.227325
3097.1	-0.104216
3098.38	0.0728359
3099.66	0.27651
3100.93	-0.509089
3102.21	0.290228
3103.49	0.0741882
3104.76	0.278849
3106.04	-0.30002
3107.31	-0.0649834
3108.59	0.483435
3109.86	0.492792
3111.14	0.00323677
3112.41	0.0160789
3113.69	-0.281911
3114.96	-0.105809
3116.23	0.367702
3117.51	0.134205
3118.78	0.0881138
3120.05	0.270079
3121.33	-0.051796
3122.6	-0.551006
3123.87	-0.102122
3125.14	0.360173
3126.41	0.389821
3127.69	0.0552588
3128.96	0.181776
3130.23	0.16013
3131.5	0.6658
3132.77	0.0762148
3134.04	0.188519
3135.31	-0.0920219
3136.58	0.247047
3137.85	0.62486
3139.12	0.664363
3140.39	0.528276
3141.66	0.553796
3142.93	0.781294
3144.2	0.364904
3145.47	0.245498
3146.74	-0.140525
3148	0.439794
3149.27	0.217224
