200.388	0.0392324
202.204	0.0629196
204.019	0.0876151
205.832	0.769723
207.646	0.551909
209.459	0.455283
211.274	0.0177139
213.087	0.234794
214.899	0.499051
216.711	-0.27991
218.524	0.952477
220.335	0.0536807
222.146	0.148462
223.956	0.533962
225.766	0.194542
227.576	-0.555261
229.388	0.288891
231.197	0.504182
233.005	0.357043
234.813	0.837181
236.621	0.185025
238.429	-0.151842
240.236	0.284609
242.045	-0.120776
243.852	0.149997
245.658	0.300265
247.464	0.763158
249.269	0.402855
251.074	0.643361
252.879	-0.132469
254.683	0.393449
256.487	0.195023
258.291	0.190163
260.094	0.451619
261.897	0.955468
263.702	0.665791
265.504	0.160074
267.306	-0.200998
269.108	-0.562537
270.909	0.352875
272.71	0.15834
274.511	-0.278544
276.311	0.0787739
278.111	0.747583
279.91	1.31764
281.709	0.681596
283.508	0.597913
285.306	0.489011
287.105	0.427565
288.9	0.629891
290.698	0.42517
292.495	0.987804
294.291	0.40281
296.088	0.345695
297.884	0.671914
299.679	0.281559
301.475	0.273422
303.27	0.670437
305.064	0.445511
306.858	0.816221
308.652	0.99553
310.444	0.26966
312.237	0.498057
314.03	0.251432
315.822	0.363538
317.615	0.334245
319.406	0.735018
321.198	0.302914
322.987	0.92024
324.778	1.06144
326.568	0.701481
328.358	0.508068
330.148	0.839736
331.935	1.12283
333.724	1.02179
335.513	0.583719
337.301	0.1675
339.089	0.323758
340.875	0.382869
342.662	-0.132529
344.449	0.16479
346.236	0.677181
348.02	0.616711
349.806	0.58057
351.592	0.401246
353.375	0.507844
355.16	-0.0305881
356.944	-0.0689923
358.728	0.94006
360.51	0.613177
362.294	0.285907
364.077	0.386462
365.858	0.129831
367.64	0.893613
369.422	0.967477
371.202	0.637697
372.983	0.615571
374.764	0.569487
376.543	0.995633
378.324	0.761005
380.102	0.127126
381.881	0.36622
383.661	0.864733
385.438	1.08164
387.216	0.993951
388.993	0.296545
390.771	0.915544
392.548	0.854033
394.324	1.05138
396.101	0.403607
397.875	0.319504
399.651	0.517088
401.425	0.361968
403.201	-0.075544
404.974	0.449275
406.749	0.738501
408.524	-0.522477
410.296	0.0476467
412.07	0.2655
413.841	0.460115
415.614	0.866433
417.385	0.264454
419.156	0.718916
420.928	0.0471389
422.698	0.407802
424.469	0.486258
426.238	0.493492
428.009	0.758228
429.777	0.482587
431.548	0.300825
433.315	-0.0919203
435.083	-0.179302
436.852	0.296567
438.618	0.818786
440.387	0.612241
442.153	0.192971
443.919	0.475602
445.686	0.522001
447.451	0.497035
449.218	1.00951
450.982	1.03048
452.746	0.561462
454.512	-0.0232321
456.275	0.185427
458.038	0.347042
459.803	0.485155
461.565	0.158505
463.327	0.298308
465.091	0.718758
466.852	0.885963
468.613	0.19562
470.374	0.831831
472.136	0.60839
473.896	1.12912
475.655	0.903441
477.415	1.1416
479.176	0.399703
480.934	0.169427
482.692	0.21874
484.45	0.548442
486.21	0.740082
487.967	0.957022
489.724	0.47634
491.481	0.836162
493.237	0.963562
494.995	0.717227
496.75	0.821463
498.506	0.246185
500.26	1.00616
502.015	1.08624
503.771	0.742881
505.525	0.844605
507.279	1.72126
509.032	0.997578
510.785	1.18969
512.537	1.02744
514.289	1.19327
516.041	1.09902
517.793	0.298209
519.546	0.578492
521.297	0.669897
523.047	0.361553
524.797	1.01567
526.547	0.660328
528.297	0.844653
530.046	0.349088
531.795	0.205055
533.543	1.02025
535.291	0.757368
537.039	0.867616
538.787	1.13986
540.534	0.640847
542.281	0.887663
544.027	0.505374
545.773	0.542232
547.519	0.416679
549.264	0.291617
551.01	0.0280777
552.754	0.505471
554.499	0.427428
556.243	0.280515
557.987	0.77991
559.73	-0.0344718
561.474	0.488187
563.216	0.205406
564.959	0.360249
566.701	0.446501
568.441	0.694028
570.182	-0.228155
571.923	0.594936
573.664	0.547409
575.405	0.478443
577.145	0.663284
578.885	0.528022
580.624	0.485186
582.361	0.69519
584.1	0.261261
585.839	0.194122
587.577	0.632017
589.315	0.539879
591.052	0.538954
592.787	0.422531
594.524	0.19093
596.26	0.0283845
597.997	0.625045
599.732	0.669251
601.466	0.758771
603.201	-0.141732
604.936	-0.0312834
606.67	0.169941
608.403	0.209522
610.136	-0.210107
611.87	-0.30778
613.603	0.122573
615.334	0.232257
617.067	0.777333
618.799	0.382614
620.529	0.170508
622.26	0.552418
623.991	0.0643887
625.72	0.376556
627.451	-0.0870954
629.181	0.729211
630.909	0.451837
632.638	0.541323
634.368	0.882837
636.095	0.425308
637.823	0.673983
639.551	-0.175081
641.277	0.228747
643.005	0.219796
644.73	0.278113
646.457	0.245505
648.184	0.850898
649.908	0.481232
651.634	1.06922
653.357	0.86532
655.083	0.595888
656.806	0.510128
658.53	-0.0308113
660.253	1.09247
661.977	0.800671
663.7	-0.201963
665.422	0.347095
667.145	0.734864
668.865	0.481698
670.588	0.823692
672.308	0.89293
674.027	0.64375
675.749	0.418945
677.468	0.286557
679.188	0.751216
680.907	1.00909
682.627	0.598703
684.345	0.462219
686.064	-0.0905385
687.781	0.529803
689.498	0.412323
691.216	0.800993
692.932	0.498104
694.65	0.931671
696.366	0.949779
698.081	0.690608
699.797	0.75272
701.512	1.13577
703.228	1.10381
704.942	0.58896
706.655	0.487522
708.371	0.706938
710.083	1.04026
711.796	1.16665
713.51	0.8122
715.222	1.0981
716.934	0.88112
718.645	1.09803
720.358	1.13237
722.068	0.825211
723.779	1.04195
725.49	1.25822
727.2	1.42845
728.909	1.18953
730.618	1.38142
732.329	1.11962
734.037	1.03917
735.745	0.529472
737.453	1.19526
739.16	0.484194
740.869	1.55593
742.576	1.25302
744.282	1.22184
745.988	0.831839
747.694	1.34317
749.401	1.78793
751.107	1.42408
752.811	1.48874
754.516	1.12718
756.22	1.57685
757.924	1.87065
759.627	1.78311
761.332	1.2005
763.035	1.18156
764.738	1.61401
766.44	1.57162
768.142	1.27896
769.843	1.3234
771.544	1.25306
773.245	1.99554
774.946	1.53908
776.646	1.37704
778.346	2.39187
780.046	1.80266
781.745	1.5309
783.444	2.11912
785.143	2.05026
786.841	1.43604
788.539	1.70193
790.237	1.69331
791.934	1.70491
793.631	1.57954
795.328	1.0255
797.024	1.87056
798.72	2.08508
800.416	2.59357
802.112	2.24797
803.807	1.79089
805.502	1.19919
807.196	1.77578
808.89	2.19355
810.584	1.51008
812.278	1.70134
813.971	1.80217
815.664	2.19363
817.354	2.18177
819.047	2.05823
820.739	1.73406
822.43	1.76774
824.122	2.04732
825.813	1.8598
827.503	2.18662
829.192	1.86988
830.882	2.40216
832.571	1.73423
834.261	1.24593
835.95	1.76165
837.637	1.96542
839.325	2.28007
841.013	1.32037
842.701	2.14631
844.389	2.12296
846.074	1.85428
847.761	1.63167
849.447	1.38854
851.131	2.28914
852.817	1.08628
854.503	1.34021
856.188	1.19027
857.871	1.30894
859.556	1.56145
861.24	1.13729
862.922	1.40964
864.606	1.32054
866.289	0.644459
867.97	1.38807
869.653	1.72566
871.336	1.02545
873.016	1.54312
874.698	0.661911
876.379	1.13447
878.058	1.22349
879.739	1.53818
881.418	1.26569
883.098	1.66983
884.778	0.583136
886.456	0.917523
888.135	1.61145
889.812	0.905256
891.49	0.897265
893.167	0.798124
894.845	1.68824
896.523	1.40683
898.198	0.855636
899.875	0.820783
901.55	0.964606
903.226	1.46563
904.901	1.07126
906.576	0.901258
908.25	0.665294
909.925	0.519631
911.598	0.241517
913.271	0.964639
914.945	1.08715
916.617	1.27606
918.291	0.733165
919.962	1.34277
921.635	0.7571
923.306	1.25645
924.978	1.44717
926.648	0.844407
928.318	0.640822
929.989	0.747295
931.659	0.964621
933.328	0.652674
934.998	1.02473
936.666	1.17649
938.336	0.623191
940.004	1.28392
941.671	1.17374
943.34	0.953838
945.007	0.402674
946.673	0.887943
948.339	0.356406
950.007	0.375234
951.672	0.900502
953.337	1.11666
955.004	0.760621
956.669	0.781715
958.333	1.59957
959.997	1.14049
961.662	1.14603
963.326	0.952609
964.989	0.779709
966.651	0.892118
968.315	0.404858
969.977	0.557511
971.639	0.510299
973.301	1.14898
974.962	1.28009
976.624	0.439647
978.285	1.28135
979.945	0.940266
981.605	0.598695
983.264	1.04182
984.924	1.06278
986.583	0.794258
988.243	1.01112
989.901	1.42573
991.56	0.225973
993.217	0.772352
994.875	0.611773
996.532	1.00302
998.188	0.577982
999.845	0.990634
1001.5	0.32337
1003.16	0.977072
1004.81	0.727934
1006.47	1.22621
1008.12	1.06507
1009.78	0.355799
1011.43	0.700479
1013.09	1.33001
1014.74	0.688713
1016.39	0.442517
1018.05	0.612718
1019.7	0.870887
1021.35	0.845492
1023	0.995896
1024.65	0.1199
1026.31	0.949077
1027.96	1.01337
1029.61	0.290682
1031.26	0.637536
1032.91	0.764547
1034.56	0.650058
1036.21	1.12324
1037.86	1.09391
1039.51	1.45634
1041.16	2.14504
1042.8	1.98624
1044.45	1.78577
1046.1	1.26143
1047.75	1.41223
1049.39	1.04326
1051.04	0.870804
1052.69	0.76417
1054.33	0.483974
1055.98	0.116727
1057.62	0.879533
1059.27	0.642062
1060.91	0.338778
1062.56	0.0565922
1064.2	0.947848
1065.85	0.859735
1067.49	0.1622
1069.13	0.70271
1070.77	0.460444
1072.42	0.131429
1074.06	0.128517
1075.7	0.0396222
1077.34	0.0168439
1078.98	0.363675
1080.62	0.212358
1082.27	-0.199139
1083.91	0.191022
1085.55	0.42808
1087.18	0.16501
1088.82	0.247058
1090.46	0.0679567
1092.1	0.0611663
1093.74	0.507481
1095.38	0.241074
1097.02	0.191339
1098.65	-0.00805018
1100.29	0.181658
1101.93	0.501769
1103.56	0.199242
1105.2	-0.14513
1106.84	0.306824
1108.47	0.4359
1110.11	0.585585
1111.74	0.0246527
1113.38	0.386668
1115.01	0.103213
1116.64	0.0985249
1118.28	0.28685
1119.91	0.389745
1121.54	0.343423
1123.18	0.190983
1124.81	-0.0675278
1126.44	0.337855
1128.07	0.529816
1129.7	0.487095
1131.33	-0.0254855
1132.97	0.167723
1134.6	-0.0880754
1136.23	0.510626
1137.86	0.168089
1139.49	0.486966
1141.11	0.100204
1142.74	0.310889
1144.37	-0.11841
1146	-0.0138269
1147.63	-0.100396
1149.26	0.15464
1150.88	0.196943
1152.51	0.239248
1154.14	-0.165812
1155.76	0.195238
1157.39	-0.337644
1159.01	-0.444553
1160.64	-0.104236
1162.27	0.683311
1163.89	0.0895786
1165.51	0.112869
1167.14	-0.161679
1168.76	0.00948273
1170.39	0.179301
1172.01	0.602408
1173.63	0.0256992
1175.25	0.191345
1176.88	-0.0676862
1178.5	-0.262636
1180.12	0.326409
1181.74	0.492281
1183.36	0.129971
1184.98	0.27525
1186.6	0.166249
1188.22	0.520323
1189.84	0.429503
1191.46	-0.167952
1193.08	0.475423
1194.7	0.0875433
1196.32	-0.404094
1197.94	-0.202762
1199.55	0.292147
1201.17	0.516249
1202.79	0.0113594
1204.41	0.427352
1206.02	0.573557
1207.64	-0.155382
1209.25	0.138232
1210.87	0.347751
1212.48	0.18055
1214.1	-0.0299007
1215.71	0.049715
1217.33	-0.0802421
1218.94	0.100962
1220.56	0.28167
1222.17	0.58696
1223.79	0.229617
1225.4	0.515897
1227.01	0.513324
1228.62	1.09102
1230.23	0.387415
1231.85	0.553361
1233.46	0.410195
1235.07	0.598718
1236.68	0.932916
1238.29	1.14403
1239.9	1.3765
1241.51	0.823295
1243.12	0.766082
1244.73	0.377163
1246.34	0.628851
1247.94	1.00388
1249.55	1.48166
1251.16	0.717784
1252.77	1.31946
1254.37	0.866766
1255.98	1.34576
1257.59	1.26734
1259.2	1.04505
1260.8	0.616379
1262.41	1.01609
1264.01	0.753265
1265.62	1.15305
1267.22	0.889171
1268.83	0.437807
1270.43	0.752668
1272.03	0.278815
1273.64	0.799352
1275.24	0.904367
1276.85	0.51123
1278.45	0.821995
1280.05	1.09059
1281.65	1.21381
1283.25	1.08874
1284.85	0.695372
1286.46	1.02654
1288.06	0.759011
1289.66	1.15361
1291.26	1.34194
1292.86	0.497099
1294.46	0.953388
1296.06	0.995395
1297.66	1.36635
1299.25	0.95151
1300.85	0.824593
1302.45	1.47963
1304.05	1.577
1305.65	0.933398
1307.24	1.3792
1308.84	0.900566
1310.43	1.40666
1312.03	0.765533
1313.63	0.494431
1315.22	1.20544
1316.82	0.690986
1318.41	1.44274
1320.01	0.725432
1321.6	0.925218
1323.2	1.26586
1324.79	1.4417
1326.38	1.18957
1327.98	1.46472
1329.57	1.59784
1331.16	1.38816
1332.76	1.54449
1334.35	1.09679
1335.94	0.873031
1337.53	1.25507
1339.12	1.77728
1340.71	0.544991
1342.3	0.983346
1343.89	0.755839
1345.48	1.15032
1347.07	1.06259
1348.66	0.796159
1350.25	1.35276
1351.84	0.490641
1353.43	0.930583
1355.01	0.391934
1356.6	1.35257
1358.19	1.35346
1359.77	0.974143
1361.36	1.23296
1362.95	0.99207
1364.53	0.950511
1366.12	1.0088
1367.71	1.14732
1369.29	1.16729
1370.88	0.850111
1372.46	1.19084
1374.04	1.37328
1375.63	1.13847
1377.21	0.565453
1378.8	1.20588
1380.38	0.770957
1381.96	0.752872
1383.54	0.972362
1385.13	1.0517
1386.71	0.971616
1388.29	0.75271
1389.87	0.613914
1391.45	0.594993
1393.03	0.735424
1394.61	0.856284
1396.19	0.600208
1397.77	0.740182
1399.35	0.0866472
1400.93	0.60149
1402.51	0.481885
1404.09	0.362365
1405.67	0.717923
1407.24	0.559939
1408.82	0.422513
1410.4	0.858415
1411.98	0.54367
1413.55	0.86035
1415.13	0.623569
1416.71	0.524377
1418.28	0.661477
1419.86	1.17294
1421.43	0.680565
1423.01	0.85907
1424.58	0.979795
1426.16	0.530786
1427.73	0.298725
1429.31	0.873474
1430.88	0.542118
1432.45	0.859328
1434.02	0.860834
1435.6	1.19629
1437.17	0.587957
1438.74	1.12058
1440.31	0.92663
1441.88	1.20516
1443.45	1.42532
1445.03	0.800704
1446.6	1.47342
1448.17	1.18316
1449.74	1.08966
1451.3	1.4684
1452.87	1.35608
1454.44	1.10633
1456.01	1.60413
1457.58	1.31444
1459.15	1.49598
1460.72	0.888904
1462.28	1.10685
1463.85	1.10697
1465.42	1.2634
1466.98	1.06575
1468.55	0.750778
1470.12	1.00591
1471.68	1.14405
1473.25	1.20455
1474.81	1.20685
1476.38	1.32716
1477.94	0.898609
1479.51	0.724935
1481.07	1.23721
1482.63	0.769435
1484.2	1.02666
1485.76	1.20515
1487.32	1.28501
1488.88	0.795966
1490.45	0.775498
1492.01	1.10522
1493.57	1.27627
1495.13	0.60646
1496.69	0.775236
1498.25	0.554153
1499.81	0.683881
1501.37	0.154096
1502.93	0.537849
1504.49	1.01846
1506.05	1.16934
1507.61	0.913303
1509.17	0.309197
1510.73	0.207247
1512.28	0.259047
1513.84	0.560603
1515.4	0.227173
1516.96	0.509373
1518.51	0.254574
1520.07	0.211531
1521.63	0.283569
1523.18	0.661047
1524.74	0.731572
1526.29	0.801113
1527.85	0.565026
1529.4	0.119978
1530.96	0.397681
1532.51	0.693958
1534.06	-0.0892887
1535.62	0.397469
1537.17	0.808289
1538.72	-0.121332
1540.28	0.516316
1541.83	0.210876
1543.38	0.169436
1544.93	-0.304507
1546.48	0.330526
1548.03	0.232355
1549.59	0.415516
1551.14	0.523535
1552.69	0.500776
1554.24	0.59092
1555.79	0.625963
1557.34	0.606338
1558.88	0.737537
1560.43	0.123964
1561.98	0.239257
1563.53	1.13898
1565.08	0.733265
1566.62	0.962021
1568.17	0.9107
1569.72	0.989727
1571.27	0.639107
1572.81	0.717574
1574.36	0.515914
1575.9	0.799618
1577.45	1.36351
1579	0.695615
1580.54	0.644228
1582.09	0.612099
1583.63	0.0575126
1585.17	1.46537
1586.72	0.668617
1588.26	0.525952
1589.8	0.682405
1591.35	0.614025
1592.89	0.432877
1594.43	1.0006
1595.97	0.781763
1597.52	1.03165
1599.06	0.60726
1600.6	1.28978
1602.14	1.18511
1603.68	1.11788
1605.22	0.542822
1606.76	1.20663
1608.3	0.666267
1609.84	0.838292
1611.38	1.29027
1612.92	1.08296
1614.46	0.574501
1615.99	0.7603
1617.53	1.13363
1619.07	1.13277
1620.61	0.327795
1622.14	1.13457
1623.68	0.818466
1625.22	0.727122
1626.75	0.335807
1628.29	0.467614
1629.82	1.08447
1631.36	0.970944
1632.9	1.36151
1634.43	0.967805
1635.96	1.15355
1637.5	0.481952
1639.03	1.17234
1640.57	0.93043
1642.1	1.4148
1643.63	1.2275
1645.16	1.15109
1646.7	1.33436
1648.23	1.47991
1649.76	1.64411
1651.29	1.01095
1652.82	1.58508
1654.36	1.39949
1655.89	1.27018
1657.42	1.45591
1658.95	1.41864
1660.48	0.917544
1662.01	0.970901
1663.53	1.28206
1665.06	1.37058
1666.59	1.18239
1668.12	1.25353
1669.65	1.123
1671.18	0.993804
1672.7	0.902411
1674.23	1.45599
1675.76	1.21747
1677.29	1.23613
1678.81	0.646821
1680.34	1.10529
1681.86	0.46012
1683.39	0.78872
1684.91	0.988471
1686.44	0.968171
1687.96	1.14986
1689.49	0.672192
1691.01	0.781126
1692.54	0.542301
1694.06	0.468292
1695.58	0.467356
1697.11	0.521043
1698.63	0.428312
1700.15	0.116363
1701.67	0.333332
1703.2	0.239746
1704.72	0.364405
1706.24	-0.403062
1707.76	-0.0422981
1709.28	0.390422
1710.8	-0.230142
1712.32	0.111509
1713.84	0.380239
1715.36	0.25031
1716.88	0.0481888
1718.4	0.280062
1719.91	0.186443
1721.43	0.435911
1722.95	0.577229
1724.47	0.268689
1725.99	0.105552
1727.5	0.0695551
1729.02	-0.0556579
1730.54	0.0362172
1732.05	-0.244931
1733.57	0.932778
1735.09	0.362162
1736.6	-0.0358246
1738.12	0.184528
1739.63	0.204169
1741.15	0.186095
1742.66	-0.177052
1744.18	0.274271
1745.69	-0.0311883
1747.2	0.330231
1748.72	0.0539218
1750.23	-0.233377
1751.74	-0.0674226
1753.25	0.200772
1754.77	0.40293
1756.28	0.359958
1757.79	0.0284037
1759.3	0.100495
1760.81	0.221054
1762.32	-0.0332214
1763.83	-0.364995
1765.34	-0.272879
1766.85	0.392104
1768.36	0.0815792
1769.87	0.0610052
1771.38	0.0813791
1772.89	0.246422
1774.4	0.108351
1775.91	0.205593
1777.41	-0.0524836
1778.92	-0.19042
1780.43	-0.0459915
1781.94	0.498562
1783.44	0.228385
1784.95	0.170575
1786.45	0.0560077
1787.96	-0.0147378
1789.47	0.378205
1790.97	-0.15818
1792.48	-0.0942418
1793.98	0.0406246
1795.48	0.113978
1796.99	-0.12532
1798.49	-0.0527708
1800	0.0208061
1801.5	0.0675804
1803	-0.0864953
1804.51	-0.0498439
1806.01	-0.0584529
1807.51	-0.0947748
1809.01	0.199349
1810.51	0.344437
1812.02	0.117988
1813.52	0.0591727
1815.02	0.15551
1816.52	-0.0938779
1818.02	0.139512
1819.52	0.0720218
1821.02	0.0123024
1822.52	-0.0605853
1824.02	0.144281
1825.51	-0.132223
1827.01	-0.0489686
1828.51	0.140322
1830.01	0.0937742
1831.51	0.21527
1833	0.0517296
1834.5	0.0526448
1836	-0.234968
1837.5	-0.0423258
1838.99	0.451224
1840.49	-0.134995
1841.98	-0.255379
1843.48	0.118741
1844.97	0.0269972
1846.47	0.295906
1847.96	0.039597
1849.46	-0.00739997
1850.95	0.135028
1852.45	-0.218704
1853.94	0.0164109
1855.43	0.25696
1856.92	0.111613
1858.42	-0.0012188
1859.91	-0.206231
1861.4	-0.108571
1862.89	0.0138445
1864.39	0.186747
1865.88	-0.214974
1867.37	0.0106835
1868.86	-0.0672485
1870.35	-0.085338
1871.84	0.276266
1873.33	0.0354482
1874.82	-0.27402
1876.31	0.285856
1877.8	-0.00436923
1879.29	0.0112725
1880.77	0.104233
1882.26	-0.0532876
1882.51	-0.0898234
1884	0.0842916
1885.5	-0.230243
1886.99	-0.040036
1888.48	0.114771
1889.98	0.25215
1891.47	0.0597325
1892.97	0.0251451
1894.46	-0.268837
1895.95	0.0120897
1897.44	0.0676573
1898.93	0.297127
1900.42	0.0213651
1901.92	-0.0294836
1903.41	-0.168601
1904.9	-0.0653238
1906.39	0.297869
1907.88	-0.294433
1909.37	0.086289
1910.86	-0.0704717
1912.35	-0.0183011
1913.84	0.311775
1915.32	-0.0691542
1916.81	-0.120782
1918.3	0.312519
1919.79	-0.0691431
1921.28	0.207561
1922.76	0.207353
1924.25	-0.294242
1925.74	-0.17168
1927.22	0.367163
1928.71	0.0235798
1930.2	-0.060357
1931.68	-0.214169
1933.17	0.0984909
1934.65	0.530833
1936.14	-0.145804
1937.62	0.0765263
1939.11	-0.0128057
1940.59	0.381677
1942.08	0.344915
1943.56	0.171022
1945.04	0.239352
1946.53	-0.0368422
1948.01	0.0144019
1949.49	-0.038304
1950.97	0.063255
1952.45	0.439305
1953.94	0.315738
1955.42	0.00325227
1956.9	-0.23984
1958.38	0.221529
1959.86	0.219814
1961.34	0.0127621
1962.82	-0.228245
1964.3	0.0276709
1965.78	-0.247887
1967.26	0.400562
1968.74	0.141189
1970.22	0.00134611
1971.69	0.0152238
1973.17	0.285055
1974.65	0.230512
1976.13	-0.573755
1977.61	0.0539304
1979.08	0.0510652
1980.56	0.167254
1982.03	0.198163
1983.51	-0.178871
1984.99	0.123337
1986.46	0.390971
1987.94	-0.0535971
1989.41	-0.260179
1990.89	0.10939
1992.36	-0.011268
1993.84	0.494447
1995.31	0.155443
1996.78	-0.149202
1998.26	-0.0145751
1999.73	-0.0829481
2001.2	-0.168586
2002.68	0.0490866
2004.15	0.114713
2005.62	-0.00482285
2007.09	-0.0731783
2008.56	-0.157629
2010.04	0.145807
2011.51	0.146554
2012.98	-0.00413815
2014.45	0.316098
2015.92	0.0635785
2017.39	0.315075
2018.86	-0.257998
2020.33	0.328424
2021.8	0.275978
2023.27	0.0559837
2024.74	0.0548931
2026.2	-0.0627323
2027.67	0.00523694
2029.14	0.0743105
2030.61	0.0101972
2032.07	-0.0532271
2033.54	-0.0659679
2035.01	0.240345
2036.47	0.109811
2037.94	0.180432
2039.41	0.318009
2040.87	0.0353428
2042.34	0.27407
2043.8	-0.176108
2045.27	0.6024
2046.73	0.473125
2048.2	0.00705455
2049.66	0.0290079
2051.12	-0.118364
2052.59	0.306439
2054.05	0.0216212
2055.51	0.22455
2056.98	0.122898
2058.44	0.104962
2059.9	0.17113
2061.36	0.136526
2062.82	0.287713
2064.29	0.22082
2065.75	0.457625
2067.21	0.0892371
2068.67	0.377649
2070.13	0.12771
2071.59	0.281804
2073.05	0.28429
2074.51	0.387607
2075.97	0.507519
2077.43	0.105102
2078.88	0.0560284
2080.34	0.242358
2081.8	0.360881
2083.26	0.276855
2084.72	0.259617
2086.17	0.527792
2087.63	0.341279
2089.09	0.557951
2090.54	0.539082
2092	0.150825
2093.46	0.534768
2094.91	0.297594
2096.37	0.462561
2097.82	0.191331
2099.28	0.656398
2100.73	0.418135
2102.19	0.514605
2103.64	0.0271242
2105.09	0.108618
2106.55	0.324526
2108	0.124133
2109.46	0.441017
2110.91	0.657309
2112.36	0.18923
2113.81	0.436432
2115.27	0.166231
2116.72	0.145176
2118.17	0.406755
2119.62	0.901304
2121.07	0.617087
2122.52	0.384376
2123.97	0.517691
2125.42	1.03286
2126.87	1.10008
2128.32	0.619436
2129.77	0.833945
2131.22	1.0141
2132.67	1.04443
2134.12	1.07469
2135.57	0.857538
2137.01	1.15412
2138.46	0.757986
2139.91	1.10709
2141.36	0.23437
2142.8	0.916435
2144.25	1.21905
2145.7	1.17448
2147.14	0.964061
2148.59	0.951731
2150.03	1.15406
2151.48	1.52135
2152.92	1.52332
2154.37	1.29263
2155.81	1.06159
2157.26	1.17851
2158.7	1.26285
2160.15	1.58022
2161.59	1.4352
2163.03	2.00453
2164.48	1.33161
2165.92	1.88704
2167.36	1.29682
2168.8	1.55281
2170.25	1.62461
2171.69	1.56158
2173.13	1.53015
2174.57	2.01319
2176.01	1.91347
2177.45	1.58118
2178.89	1.499
2180.33	1.4509
2181.77	1.204
2183.21	1.63933
2184.65	1.7923
2186.09	1.76238
2187.53	1.58273
2188.97	1.71924
2190.41	1.27319
2191.84	1.4594
2193.28	1.5285
2194.72	1.31344
2196.16	1.46314
2197.59	1.41142
2199.03	1.14215
2200.47	1.12161
2201.9	1.3666
2203.34	1.51223
2204.78	1.36014
2206.21	1.27537
2207.65	1.15798
2209.08	1.20615
2210.51	1.17087
2211.95	1.30022
2213.38	0.899837
2214.82	0.863282
2216.25	0.596156
2217.68	0.610659
2219.12	0.593114
2220.55	0.840015
2221.98	0.592446
2223.42	1.0694
2224.85	0.70503
2226.28	0.83341
2227.71	0.910944
2229.14	0.740939
2230.57	0.751137
2232	0.548096
2233.43	0.362093
2234.86	0.569471
2236.29	0.679332
2237.72	0.822891
2239.15	0.706708
2240.58	0.967359
2242.01	0.446495
2243.44	0.2202
2244.87	0.0757187
2246.3	0.420098
2247.73	0.306603
2249.15	0.4035
2250.58	0.335709
2252.01	0.120204
2253.43	0.473627
2254.86	0.3392
2256.29	0.254762
2257.71	0.431785
2259.14	0.399932
2260.56	0.0782261
2261.99	0.37492
2263.41	0.315797
2264.84	0.191839
2266.26	0.473991
2267.69	0.332857
2269.11	0.0769857
2270.54	0.29246
2271.96	0.491379
2273.38	0.28309
2274.81	0.319114
2276.23	0.029429
2277.65	0.212373
2279.07	0.688903
2280.49	0.203538
2281.92	0.256089
2283.34	0.259652
2284.76	0.100063
2286.18	0.267
2287.6	0.271024
2289.02	0.112036
2290.44	0.280024
2291.86	0.464707
2293.28	0.142662
2294.7	0.131183
2296.12	0.463369
2297.54	0.468283
2298.96	0.0309099
2300.38	0.150537
2301.79	-0.123065
2303.21	0.0790351
2304.63	0.0188229
2306.05	0.352653
2307.46	-0.102138
2308.88	0.29706
2310.3	0.301468
2311.71	0.272677
2313.13	0.0957495
2314.55	0.0835872
2315.96	0.121342
2317.38	-0.0380059
2318.79	0.000609856
2320.21	0.154557
2321.62	0.571863
2323.03	1.02098
2324.45	0.147996
2325.86	0.643011
2327.27	0.443727
2328.69	0.820876
2330.1	0.357702
2331.51	0.159078
2332.93	0.471628
2334.34	0.455574
2335.75	0.225865
2337.16	-0.053401
2338.57	-0.0536976
2339.99	0.175237
2341.4	0.304684
2342.81	-0.140804
2344.22	-0.0281326
2345.63	-0.210423
2347.04	0.197362
2348.45	-0.0664631
2349.86	0.0133064
2351.26	-0.365293
2352.67	0.0889987
2354.08	0.182807
2355.49	0.324816
2356.9	-0.201308
2358.31	-0.0432097
2359.71	0.179621
2361.12	0.044986
2362.53	-0.23529
2363.94	0.310935
2365.34	0.0955596
2366.75	0.0908754
2368.15	-0.0102358
2369.56	0.0186208
2370.97	0.0322616
2372.37	-0.162589
2373.78	0.0460437
2375.18	0.0777182
2376.59	0.125188
2377.99	-0.390965
2379.39	0.217266
2380.8	-0.107815
2382.2	0.095908
2383.61	0.218418
2385.01	0.356445
2386.41	0.222822
2387.81	0.0901657
2389.22	0.054314
2390.62	-0.155812
2392.02	0.303861
2393.42	-0.270532
2394.82	0.0945867
2396.22	0.0783561
2397.63	0.142063
2399.02	-0.0480689
2400.43	0.000528166
2401.82	0.239936
2403.23	0.193445
2404.62	-0.139109
2406.02	-0.011769
2407.42	-0.202527
2408.82	0.0662554
2410.22	0.382073
2411.62	-0.316238
2413.02	0.126874
2414.41	0.206465
2415.81	-0.0136708
2417.21	-0.280343
2418.61	0.0552588
2420	0.0586601
2421.4	-0.0172146
2422.79	0.397749
2424.19	0.321435
2425.59	0.0232909
2426.98	0.311839
2428.38	0.331658
2429.77	0.161882
2431.17	0.135278
2432.56	-0.0976043
2433.96	-0.156366
2435.35	0.340074
2436.74	-0.244798
2438.14	0.186043
2439.53	0.218709
2440.92	0.377716
2442.32	0.0599717
2443.71	-0.0355903
2445.1	0.265329
2446.49	0.328059
2447.88	0.0261404
2449.28	0.0254434
2450.67	-0.244261
2452.06	0.0247487
2453.45	-0.386259
2454.84	0.0736147
2456.23	0.122576
2457.62	0.140131
2459.01	0.0626727
2460.4	-0.141694
2461.79	0.0487183
2463.18	0.175229
2464.57	0.095826
2465.96	-0.0784897
2467.34	0.0471987
2468.73	0.0622853
2470.12	-0.143578
2471.51	-0.00277498
2472.89	-0.256445
2474.28	0.119373
2475.67	0.116646
2477.05	0.0822116
2478.44	-0.093549
2479.83	0.0449262
2481.21	0.449862
2482.6	0.180412
2483.98	-0.355065
2485.37	-0.0612784
2486.75	-0.0188495
2488.14	0.287973
2489.52	0.203866
2490.9	0.213241
2492.29	0.238514
2493.67	0.497424
2495.06	-0.0653349
2496.44	-0.11471
2497.82	0.115396
2499.2	-0.196362
2500.59	0.18812
2501.97	-0.371303
2503.35	0.30484
2504.73	0.377424
2506.11	-0.0590871
2507.49	-0.0484774
2508.88	-0.114676
2510.26	0.0959982
2511.63	0.122601
2513.01	0.287675
2514.39	-0.144233
2515.77	0.205714
2517.15	0.265142
2518.53	-0.103172
2519.91	0.00273113
2521.29	-0.0138425
2522.67	-0.0919128
2524.05	-0.139967
2525.42	0.0858796
2526.8	0.113199
2528.18	0.110335
2529.56	0.184287
2530.93	0.168118
2532.31	0.122807
2533.69	0.0177357
2535.06	0.262626
2536.44	0.385946
2537.81	0.0530315
2539.19	-0.0222738
2540.56	0.114428
2541.94	0.265947
2543.31	-0.204509
2544.69	-0.0673695
2546.06	-0.126591
2547.44	0.179096
2548.81	0.379277
2550.18	-0.163938
2551.56	-0.100602
2552.93	0.280808
2554.3	-0.00627131
2555.68	0.328133
2557.05	0.222099
2558.42	-0.0356081
2559.79	0.131466
2561.16	0.223072
2562.53	0.2545
2563.9	-0.274336
2565.28	0.182154
2566.64	0.0326635
2568.02	0.262109
2569.38	0.233931
2570.76	0.175437
2572.12	-0.064927
2573.49	0.164658
2574.86	0.485298
2576.23	-0.0429978
2577.6	0.201839
2578.97	0.00682073
2580.34	-0.279439
2581.7	-0.202064
2583.07	-0.140119
2584.44	-0.154149
2585.81	0.483584
2587.17	0.0603095
2588.54	0.288929
2589.91	0.199357
2591.27	-0.0872873
2592.64	-0.0408625
2594	0.474585
2595.37	0.32266
2596.73	-0.0266866
2598.1	0.244
2599.46	0.075645
2600.83	0.0435472
2602.19	-0.154283
2603.55	0.146692
2604.92	-0.019952
2606.28	0.386878
2607.64	-0.0512336
2609.01	0.00780259
2610.37	0.141228
2611.73	0.0176543
2613.09	0.38966
2614.46	-0.110876
2615.82	0.199731
2617.18	0.0601547
2618.54	0.0860215
2619.9	0.20218
2621.26	-0.0700682
2622.62	0.106715
2623.98	-0.0152153
2625.34	-0.137023
2626.7	-0.139539
2628.06	0.066333
2629.42	0.361019
2630.78	0.0153327
2632.14	0.0417701
2633.5	0.172104
2634.86	0.213159
2636.22	-0.116628
2637.57	-0.105074
2638.93	-0.0490872
2640.29	-0.170614
2641.64	0.10738
2643	-0.0580238
2644.36	-0.193547
2645.72	-0.107649
2647.07	0.257943
2648.43	-0.0403705
2649.78	0.0291592
2651.14	0.156867
2652.49	-0.068376
2653.85	-0.175642
2655.2	0.040274
2656.56	0.168725
2657.91	0.0197401
2659.27	-0.303972
2660.62	0.13325
2661.97	0.365342
2663.33	0.260806
2664.68	0.214187
2666.03	-0.285065
2667.38	0.309145
2668.74	0.247049
2670.09	0.30165
2671.44	-0.006932
2672.79	0.484516
2674.14	-0.156865
2675.49	0.349498
2676.84	0.188428
2678.2	-0.0300514
2679.55	0.259681
2680.89	0.245609
2682.24	-0.086547
2683.59	0.408609
2684.94	-0.16865
2686.29	0.313277
2687.64	-0.0609436
2688.99	0.246144
2690.34	0.218162
2691.69	0.246908
2693.04	0.216483
2694.38	0.0983669
2695.73	-0.135702
2697.08	-0.0504325
2698.43	-0.109148
2699.77	-0.0798049
2701.12	0.037632
2702.46	0.0982394
2703.81	0.348021
2705.16	0.206978
2706.5	-0.0791968
2707.85	0.0695114
2709.19	0.10192
2710.54	0.119562
2711.88	-0.168038
2713.23	0.0671982
2714.57	0.200788
2715.92	0.203551
2717.26	0.177124
2718.6	0.397816
2719.95	0.240011
2721.29	0.474757
2722.63	0.0105666
2723.97	-0.381254
2725.32	0.0999568
2726.66	0.231556
2728	0.144598
2729.34	0.392185
2730.68	-0.117018
2732.02	-0.0878195
2733.36	0.363289
2734.7	0.261702
2736.04	0.160279
2737.39	0.146231
2738.72	0.161253
2740.06	0.10339
2741.4	-0.0565787
2742.74	0.306396
2744.08	0.348952
2745.42	0.318379
2746.76	0.0696847
2748.1	0.11137
2749.44	-0.166151
2750.77	0.0933092
2752.11	0.236767
2753.45	0.191885
2754.78	0.0747196
2756.12	0.363266
2757.46	0.289773
2758.79	0.30336
2760.13	0.100132
2761.47	-0.00138373
2762.8	0.0566244
2764.14	-0.131122
2765.47	0.361159
2766.81	-0.260925
2768.14	0.0278
2769.48	0.0841146
2770.81	-0.135227
2772.14	0.193522
2773.48	-0.113877
2774.81	0.242028
2776.14	-0.079709
2777.48	0.131847
2778.81	-0.0448211
2780.14	-0.307081
2781.47	0.335958
2782.81	0.246299
2784.14	0.099346
2785.47	-0.0904251
2786.8	0.364709
2788.13	0.247074
2789.46	0.0872122
2790.79	-0.0718704
2792.12	0.112854
2793.46	-0.0452631
2794.79	-0.0317753
2796.11	0.0529157
2797.44	-0.0199523
2798.77	0.163843
2800.1	-0.0952549
2801.43	0.0879146
2802.76	-0.171236
2804.09	0.324983
2805.42	0.0654802
2806.74	0.118994
2808.07	-0.354273
2809.4	0.437742
2810.73	-0.077938
2812.05	-0.0106158
2813.38	-0.14115
2814.71	-0.057904
2816.03	-0.101275
2817.36	0.0120517
2818.68	-0.129337
2820.01	0.168665
2821.33	0.112012
2822.66	0.267455
2823.98	-0.186839
2825.31	-0.0745891
2826.63	0.108438
2827.96	0.249274
2829.28	-0.0908583
2830.61	0.291343
2831.93	0.333935
2833.25	0.362328
2834.57	0.121562
2835.9	0.474885
2837.22	0.37492
2838.54	0.317118
2839.86	0.485462
2841.18	0.526548
2842.51	0.765801
2843.83	0.524924
2845.15	0.694447
2846.47	0.878544
2847.79	0.780257
2849.11	0.667843
2850.43	1.03578
2851.75	0.951063
2853.07	0.781189
2854.39	1.00674
2855.71	1.06254
2857.03	1.18894
2858.35	1.24472
2859.67	1.10275
2860.98	1.00307
2862.3	1.11495
2863.62	1.42412
2864.94	1.54949
2866.25	1.77353
2867.57	1.75788
2868.89	1.89767
2870.21	1.82627
2871.52	1.96644
2872.84	1.95134
2874.15	1.9075
2875.47	2.21503
2876.78	2.14135
2878.1	2.16561
2879.42	2.1615
2880.73	1.63754
2882.04	1.9436
2883.36	2.13781
2884.67	2.51517
2885.99	2.38745
2887.3	2.33003
2888.61	2.11794
2889.93	2.25607
2891.24	2.36542
2892.55	2.16587
2893.87	1.98038
2895.18	2.59346
2896.49	2.14287
2897.8	2.39301
2899.11	2.78371
2900.42	2.5454
2901.74	2.55928
2903.05	2.99296
2904.36	2.93714
2905.67	3.11932
2906.98	3.19004
2908.29	3.10752
2909.6	3.12358
2910.91	3.16807
2912.22	3.29655
2913.53	3.6205
2914.83	3.70539
2916.14	4.18086
2917.45	4.47289
2918.76	4.33018
2920.07	4.32727
2921.37	4.31093
2922.68	4.74294
2923.99	4.71476
2925.3	4.9671
2926.6	4.8146
2927.91	5.03959
2929.22	4.69107
2930.52	5.20884
2931.83	4.84546
2933.13	4.73351
2934.44	5.02687
2935.74	4.57957
2937.05	5.22248
2938.35	4.80346
2939.66	4.99952
2940.96	4.81873
2942.27	4.69453
2943.57	4.31974
2944.87	4.23947
2946.18	4.43981
2947.48	3.94125
2948.78	4.26791
2950.09	3.97782
2951.39	3.93821
2952.69	3.79903
2953.99	3.37871
2955.29	3.68611
2956.6	3.47623
2957.9	3.5199
2959.2	3.3697
2960.5	3.61381
2961.8	3.31317
2963.1	3.0548
2964.4	3.07641
2965.7	3.09695
2967	3.07404
2968.3	2.71266
2969.6	2.82858
2970.9	3.23981
2972.2	2.63852
2973.49	2.54379
2974.79	2.54753
2976.09	2.91686
2977.39	1.94758
2978.69	2.3991
2979.98	2.28606
2981.28	2.05948
2982.58	2.04361
2983.88	1.52186
2985.17	1.7321
2986.47	1.3391
2987.76	1.73411
2989.06	1.53967
2990.36	1.26108
2991.65	1.4459
2992.95	1.2786
2994.24	1.40548
2995.54	1.33477
2996.83	0.814275
2998.12	0.799271
2999.42	0.966787
3000.71	0.769979
3002	0.727908
3003.3	0.756218
3004.59	0.602473
3005.88	0.322595
3007.18	0.588428
3008.47	0.685514
3009.76	0.79581
3011.05	0.37443
3012.35	0.497856
3013.64	0.704773
3014.93	0.521343
3016.22	0.505834
3017.51	0.0592953
3018.8	0.337177
3020.09	-0.0666407
3021.38	0.405322
3022.67	0.0288246
3023.96	0.346079
3025.25	0.17696
3026.54	0.534298
3027.83	0.047214
3029.12	0.571027
3030.41	0.293811
3031.69	-0.0786944
3032.98	-0.0360126
3034.27	0.117263
3035.56	-0.143799
3036.85	0.283869
3038.13	0.062175
3039.42	0.156071
3040.71	0.276106
3041.99	0.17552
3043.28	0.417804
3044.57	0.482094
3045.85	-0.0131258
3047.14	-0.341934
3048.42	-0.204538
3049.71	0.0842866
3050.99	0.237627
3052.28	0.323312
3053.56	0.327129
3054.85	0.0576246
3056.13	0.373948
3057.42	0.362049
3058.7	0.29506
3059.98	0.0917783
3061.27	-0.0157622
3062.55	0.435115
3063.83	-0.0243432
3065.11	-0.129056
3066.4	0.202234
3067.68	0.0991876
3068.96	0.254776
3070.24	0.423823
3071.52	0.347429
3072.8	0.35173
3074.09	0.300717
3075.37	0.0588162
3076.65	-0.0472853
3077.93	0.294903
3079.21	0.0677054
3080.49	0.0451731
3081.77	0.145827
3083.05	0.0845908
3084.32	0.159523
3085.61	0.085251
3086.88	-0.0572406
3088.16	-0.227394
3089.44	-0.0315621
3090.72	0.123176
3092	0.00640427
3093.27	-0.0559646
3094.55	-0.0502997
3095.83	-0.0444485
3097.11	0.0970191
3098.38	-0.154664
3099.66	0.189866
3100.94	-0.251535
3102.21	0.187593
3103.49	-0.145031
3104.76	-0.0169389
3106.04	0.0168813
3107.31	0.213727
3108.59	-0.0758842
3109.86	0.000644531
3111.14	0.0101987
3112.41	0.142208
3113.69	-0.00995747
3114.96	0.0411008
3116.23	-0.0708628
3117.51	0.196289
3118.78	0.137179
3120.05	-0.00409574
3121.33	-0.213755
3122.6	0.0777492
3123.87	0.192752
3125.14	-0.0307149
3126.42	-0.0236051
3127.69	0.065061
3128.96	0.167555
3130.23	0.229667
3131.5	-0.0190605
3132.77	0.137636
3134.04	0.0643327
3135.31	0.5307
3136.58	-0.0157408
3137.85	-0.116926
3139.12	0.253256
3140.39	0.326591
3141.66	0.117432
3142.93	0.379095
3144.2	0.291599
3145.47	0.526643
3146.74	0.131779
3148	0.233585
3149.27	0.416028
