200.563	0.0889235
202.377	0.121408
204.194	0.155088
206.008	-0.0538473
207.821	0.175
209.634	0.694541
211.449	0.28944
213.262	-0.165178
215.074	0.155784
216.885	-0.130314
218.699	-0.173882
220.51	-0.0718279
222.321	0.272633
224.131	0.0854931
225.941	0.212996
227.751	-0.577679
229.562	-0.136756
231.371	0.399599
233.18	0.0665884
234.988	0.288644
236.796	-0.0187445
238.603	0.422878
240.411	0.312246
242.219	-0.399351
244.026	0.385053
245.832	-0.302402
247.638	0.673916
249.443	0.319864
251.248	0.518077
253.053	0.810019
254.857	-0.154397
256.661	-0.0333786
258.465	0.546002
260.268	0.42773
262.071	0.214759
263.874	-0.261885
265.678	0.466884
267.48	-0.587437
269.282	0.213493
271.083	0.338738
272.884	-0.164094
274.684	-0.378994
276.484	-0.185598
278.284	0.174623
280.084	0.219501
281.883	0.551168
283.682	0.567868
285.48	0.679202
287.276	0.429492
289.074	0.252138
290.871	0.67453
292.668	0.331429
294.465	0.683761
296.261	0.0328331
298.057	0.315314
299.853	0.765154
301.648	0.832252
303.443	0.635737
305.237	0.605168
307.032	0.525985
308.823	0.518094
310.617	1.15393
312.41	0.861466
314.203	0.6897
315.995	0.281465
317.788	0.541482
319.579	0.374081
321.369	0.135925
323.16	0.661252
324.951	0.90112
326.741	0.568199
328.531	0.497341
330.321	0.258319
332.108	0.352705
333.897	0.182353
335.686	0.321032
337.474	0.720809
339.26	1.09451
341.048	0.940342
342.835	0.283509
344.622	-0.0383635
346.406	0.810682
348.192	0.656902
349.978	0.455824
351.764	0.517288
353.547	0.554237
355.332	0.351592
357.116	0.505487
358.901	0.586458
360.682	0.928146
362.466	0.483184
364.249	0.941648
366.03	0.400861
367.812	1.09441
369.594	0.552821
371.374	0.343076
373.155	0.346024
374.936	0.348577
376.715	0.1623
378.495	0.401248
380.273	1.04091
382.053	0.480142
383.832	0.509318
385.609	-0.0951452
387.388	0.899755
389.164	0.156622
390.942	0.471508
392.72	0.92788
394.495	0.633216
396.272	0.785043
398.047	0.467169
399.823	0.571821
401.597	0.135781
403.372	0.0279713
405.145	0.342204
406.92	0.467814
408.693	0.475402
410.467	-0.127626
412.239	0.60724
414.012	0.544414
415.783	1.04531
417.556	0.115601
419.327	0.781993
421.099	0.228257
422.869	-0.138146
424.64	0.222503
426.409	-0.239344
428.18	-0.0445871
429.948	-0.296287
431.718	0.55512
433.486	0.209724
435.253	0.498267
437.022	0.270409
438.789	0.722473
440.558	0.16408
442.324	0.917732
444.089	0.0511427
445.857	-0.113152
447.622	0.260095
449.386	0.304914
451.153	0.466521
452.917	-0.142192
454.682	0.253152
456.446	0.135092
458.208	-0.0527964
459.973	-0.333429
461.735	0.71232
463.497	0.526449
465.259	0.807548
467.022	0.161714
468.783	0.052475
470.544	0.549307
472.306	0.72138
474.066	0.683355
475.825	0.527212
477.585	0.532126
479.346	0.0928211
481.104	0.887219
482.862	0.377388
484.62	0.800247
486.38	0.689154
488.137	0.626469
489.894	0.798759
491.65	0.785483
493.407	0.539085
495.164	0.292397
496.92	0.9113
498.675	0.429779
500.43	0.41601
502.184	1.01189
503.939	0.245481
505.694	0.299664
507.448	0.846535
509.201	0.592617
510.954	0.148875
512.706	0.52726
514.459	0.998421
516.21	0.550724
517.962	0.454945
519.715	0.663939
521.466	0.237699
523.216	0.257649
524.966	1.05191
526.716	0.437833
528.466	0.504331
530.215	0.898713
531.964	0.636499
533.712	0.701536
535.46	0.554912
537.208	0.430643
538.955	0.655545
540.703	0.645734
542.449	0.448913
544.196	0.857057
545.942	0.660097
547.688	0.231702
549.433	0.754887
551.178	0.0499058
552.923	0.248655
554.667	-0.0149546
556.412	0.645449
558.155	0.0135965
559.899	0.466118
561.642	0.296844
563.385	-0.469673
565.127	0.259372
566.867	0.29891
568.609	0.155435
570.35	0.12774
572.092	0.583009
573.832	0.649626
575.573	0.396667
577.313	1.06296
579.053	0.514235
580.79	0.0115967
582.529	0.128978
584.268	0.245996
586.006	0.546212
587.745	0.178366
589.482	-0.121615
591.218	0.244834
592.955	-0.263432
594.692	0.263523
596.428	-0.198793
598.164	0.328155
599.898	-0.157503
601.634	-0.275731
603.369	0.0190077
605.104	0.197396
606.836	-0.0620251
608.57	0.229298
610.304	-0.237147
612.037	0.146015
613.769	0.254368
615.501	0.592381
617.234	-0.123585
618.966	0.236892
620.696	-0.021903
622.427	0.336184
624.159	-0.175555
625.887	0.0215921
627.618	0.0139399
629.348	-0.425629
631.076	-0.041667
632.806	0.0244732
634.535	0.525134
636.262	0.0897045
637.99	0.428848
639.716	0.719876
641.444	0.551836
643.172	0.518638
644.897	0.097435
646.624	0.336958
648.348	0.418683
650.075	0.298591
651.801	0.409085
653.524	0.682137
655.249	0.34425
656.972	0.463128
658.697	-0.2832
660.419	0.0638428
662.143	0.250334
663.865	0.869355
665.588	0.938119
667.309	0.364905
669.032	0.499898
670.752	-0.142122
672.474	0.773293
674.194	0.249071
675.915	0.275954
677.634	0.395691
679.355	0.354983
681.073	0.382298
682.793	0.385116
684.511	0.294043
686.23	-0.0751181
687.947	0.682857
689.664	1.11763
691.382	0.676455
693.098	0.810594
694.816	0.253078
696.531	0.523886
698.247	0.885604
699.963	0.2335
701.678	0.730936
703.392	0.629422
705.108	0.458529
706.821	0.907072
708.534	0.368544
710.249	1.13651
711.962	0.346223
713.674	1.08945
715.388	0.939986
717.099	1.06474
718.81	0.733154
720.523	0.812527
722.234	0.436508
723.944	1.15323
725.654	1.11848
727.365	0.720124
729.075	0.889409
730.784	0.899303
732.492	1.20326
734.202	0.96346
735.91	0.272215
737.618	0.779328
739.325	0.970286
741.034	0.823678
742.741	1.03877
744.447	0.894609
746.153	0.639318
747.859	0.970312
749.564	0.987436
751.271	0.87075
752.976	0.53027
754.681	1.00079
756.385	1.5179
758.088	0.730887
759.792	0.777884
761.495	1.09645
763.2	0.874401
764.902	0.922728
766.604	1.06051
768.306	1.10642
770.008	1.80621
771.709	1.07971
773.41	1.66352
775.11	1.11635
776.811	1.40633
778.51	1.49399
780.21	1.99015
781.909	1.83151
783.608	1.67287
785.307	2.35062
787.005	1.80382
788.703	1.11848
790.401	1.40348
792.098	1.48233
793.795	1.51451
795.492	2.47125
797.188	1.51156
798.884	1.70343
800.58	1.8517
802.276	1.88861
803.971	1.90361
805.665	1.6262
807.36	1.5505
809.054	2.01275
810.748	1.6655
812.441	1.74395
814.135	1.64256
815.826	1.87691
817.518	1.82006
819.21	1.38347
820.902	1.95258
822.594	2.18647
824.285	2.35391
825.976	2.1883
827.665	1.9581
829.355	1.44108
831.045	1.79539
832.735	1.97421
834.424	1.90989
836.111	1.53411
837.8	1.17998
839.488	1.58366
841.177	1.45016
842.864	1.38246
844.55	1.91771
846.237	1.5598
847.924	1.27035
849.61	1.54213
851.295	1.52541
852.98	2.04833
854.666	1.60825
856.349	1.50398
858.034	0.813888
859.719	1.49387
861.403	0.957265
863.085	1.34236
864.769	1.36608
866.452	0.645061
868.133	1.11825
869.816	0.869549
871.498	1.29722
873.179	0.82242
874.86	1.29511
876.54	1.27148
878.221	0.819023
879.902	0.953254
881.58	1.15492
883.26	0.791577
884.938	1.01424
886.618	1.19049
888.297	0.959164
889.974	1.58357
891.653	1.12421
893.329	1.36242
895.007	0.609205
896.683	0.755605
898.36	1.23768
900.035	0.686141
901.712	0.493647
903.387	1.24093
905.063	1.09232
906.737	0.988961
908.412	1.28766
910.085	1.20794
911.76	0.684275
913.433	0.940059
915.107	1.21784
916.779	0.85189
918.452	0.974095
920.124	0.697678
921.797	0.554973
923.467	0.745031
925.138	1.04667
926.81	0.996311
928.48	0.748825
930.151	1.4293
931.82	1.09522
933.489	1.20267
935.16	0.847048
936.828	0.932995
938.496	0.79916
940.165	0.75459
941.833	1.3508
943.5	0.822524
945.168	0.602831
946.834	1.33127
948.5	0.468813
950.168	0.553966
951.834	0.417483
953.499	1.36186
955.163	0.521163
956.83	0.520863
958.494	0.633565
960.158	1.0798
961.821	0.511816
963.487	0.340742
965.15	0.566133
966.812	0.192088
968.474	0.28031
970.138	0.787187
971.8	0.364234
973.461	1.0476
975.123	1.04661
976.783	0.0741129
978.446	0.650978
980.106	0.730793
981.766	0.810274
983.425	0.324072
985.084	0.411776
986.743	0.608401
988.402	0.93614
990.06	0.665494
991.72	0.328308
993.378	0.543551
995.035	1.28839
996.692	0.377933
998.349	0.791371
1000.01	0.851561
1001.66	1.06548
1003.32	0.992652
1004.97	0.611791
1006.63	0.495073
1008.28	0.268849
1009.94	0.130993
1011.59	0.585758
1013.25	0.602035
1014.9	0.15867
1016.55	0.613663
1018.21	1.33118
1019.86	1.04275
1021.51	0.930385
1023.16	0.447478
1024.81	0.468206
1026.47	0.664219
1028.12	0.597986
1029.77	0.596749
1031.42	0.681816
1033.07	0.940078
1034.72	1.54568
1036.37	0.928375
1038.02	1.55297
1039.67	1.43648
1041.31	1.84282
1042.96	2.05425
1044.61	1.91956
1046.26	2.28643
1047.91	2.04696
1049.55	1.63536
1051.2	0.899064
1052.84	0.836689
1054.49	0.122695
1056.14	0.429914
1057.78	0.280486
1059.43	0.935071
1061.07	0.371552
1062.72	0.829321
1064.36	1.02533
1066	0.307317
1067.65	0.153788
1069.29	0.868571
1070.93	0.431304
1072.58	0.167981
1074.22	-0.0946951
1075.86	0.359437
1077.5	0.380727
1079.14	0.316303
1080.78	-0.289623
1082.42	0.0151663
1084.06	0.622722
1085.7	0.686748
1087.34	0.120645
1088.98	0.87427
1090.62	0.132493
1092.26	-0.2415
1093.9	0.594116
1095.54	0.284928
1097.17	-0.346328
1098.81	0.639943
1100.45	0.18414
1102.09	0.375894
1103.72	0.353874
1105.36	0.18237
1106.99	0.226417
1108.63	0.678762
1110.27	0.312984
1111.9	0.332966
1113.53	0.437505
1115.17	0.133037
1116.8	0.321897
1118.43	0.489184
1120.07	0.356922
1121.7	0.718127
1123.33	0.309422
1124.97	0.308359
1126.6	0.714402
1128.23	0.436632
1129.86	0.907894
1131.49	0.738173
1133.12	0.761123
1134.75	0.484674
1136.38	0.699293
1138.01	-0.0913324
1139.64	0.420467
1141.27	-0.0723944
1142.9	-0.0530443
1144.53	0.32898
1146.16	-0.354648
1147.78	0.113771
1149.41	0.0712891
1151.04	0.0931044
1152.67	-0.268408
1154.29	-0.204238
1155.92	0.285228
1157.54	0.348786
1159.17	0.157405
1160.8	0.477184
1162.42	0.500142
1164.05	0.247544
1165.67	-0.366117
1167.29	0.0618172
1168.92	0.425026
1170.54	-0.0209846
1172.16	0.0416183
1173.79	0.357495
1175.41	-0.325158
1177.03	0.0739441
1178.65	0.0278091
1180.28	0.0246534
1181.9	0.212605
1183.52	-0.106511
1185.14	-0.150602
1186.76	-0.153185
1188.38	-0.135974
1190	0.554074
1191.62	0.167382
1193.24	0.684435
1194.86	0.338677
1196.47	0.455153
1198.09	0.174352
1199.71	0.104822
1201.33	0.476116
1202.95	0.0974436
1204.56	0.472597
1206.18	0.411119
1207.8	-0.0665064
1209.41	0.26968
1211.03	0.771904
1212.64	-0.0202398
1214.26	0.478429
1215.87	0.183384
1217.49	0.178617
1219.1	0.297742
1220.71	0.893976
1222.33	0.514995
1223.94	0.61432
1225.55	0.404215
1227.16	0.671558
1228.78	0.670937
1230.39	0.857465
1232	0.962242
1233.61	1.29539
1235.22	0.864907
1236.83	1.09686
1238.44	1.04033
1240.05	1.17045
1241.66	0.535468
1243.27	0.189527
1244.88	0.649808
1246.49	0.902401
1248.1	0.429904
1249.71	0.63964
1251.32	0.724965
1252.92	0.78979
1254.53	0.544978
1256.14	0.797497
1257.74	1.19593
1259.35	0.912659
1260.96	1.14746
1262.56	0.409551
1264.17	1.01762
1265.77	0.921179
1267.38	0.720396
1268.98	1.0785
1270.59	1.16625
1272.19	1.12869
1273.79	1.09022
1275.4	0.926548
1277	1.17659
1278.6	1.3429
1280.21	1.21866
1281.81	1.36333
1283.41	1.11494
1285.01	0.660449
1286.61	1.63342
1288.21	0.974061
1289.81	1.55561
1291.41	1.20762
1293.01	1.41743
1294.61	1.04809
1296.21	1.02888
1297.81	1.37986
1299.41	1.44019
1301.01	1.14865
1302.6	1.22726
1304.2	1.09913
1305.8	0.991197
1307.4	1.19109
1308.99	1.10311
1310.59	1.56863
1312.19	0.662003
1313.78	1.39387
1315.38	1.65531
1316.97	1.71301
1318.57	0.975467
1320.16	1.48241
1321.76	1.43776
1323.35	1.06625
1324.94	1.95416
1326.54	1.78313
1328.13	2.11885
1329.72	2.1506
1331.32	1.49624
1332.91	1.51196
1334.5	1.36811
1336.09	1.71013
1337.68	2.09254
1339.27	1.16374
1340.87	1.70497
1342.45	1.39824
1344.04	1.13063
1345.64	0.782446
1347.22	1.07692
1348.81	1.19193
1350.4	0.80855
1351.99	1.76785
1353.58	0.92871
1355.17	1.35038
1356.75	0.952861
1358.34	0.615108
1359.93	0.935753
1361.51	1.41489
1363.1	1.05502
1364.69	0.914581
1366.27	0.973771
1367.86	1.13316
1369.44	0.736095
1371.03	0.439956
1372.61	0.0455284
1374.2	0.945351
1375.78	0.930391
1377.37	1.07468
1378.95	0.780742
1380.53	0.903819
1382.11	0.806937
1383.7	1.18628
1385.28	0.789303
1386.86	0.690337
1388.44	0.353331
1390.02	0.314886
1391.6	1.20977
1393.19	0.478132
1394.77	0.560283
1396.35	0.54308
1397.93	0.961391
1399.51	0.724685
1401.08	0.744871
1402.66	1.08127
1404.24	0.883164
1405.82	1.0614
1407.4	0.66703
1408.97	0.194615
1410.55	0.848738
1412.13	0.989012
1413.71	0.832592
1415.28	0.872843
1416.86	0.715163
1418.43	0.793866
1420.01	0.83339
1421.59	1.54325
1423.16	0.679251
1424.73	0.958483
1426.31	1.10094
1427.88	0.987943
1429.46	1.07151
1431.03	1.17398
1432.6	0.803167
1434.18	1.29734
1435.75	1.12222
1437.32	1.65518
1438.89	1.71677
1440.46	1.11102
1442.04	1.41019
1443.61	1.21862
1445.18	1.28285
1446.75	1.56346
1448.32	1.72629
1449.89	1.51589
1451.46	1.1682
1453.03	1.17483
1454.6	1.65387
1456.16	1.58214
1457.73	1.6869
1459.3	1.59374
1460.87	1.75488
1462.44	1.02902
1464	1.26589
1465.57	1.52128
1467.14	1.63861
1468.7	1.50093
1470.27	1.42305
1471.83	1.20888
1473.4	0.662319
1474.96	0.940176
1476.53	0.414404
1478.09	1.33956
1479.66	1.00991
1481.22	0.58226
1482.78	1.19327
1484.35	1.52967
1485.91	1.23874
1487.47	0.65348
1489.04	1.20296
1490.6	0.908982
1492.16	1.23917
1493.72	1.50828
1495.28	1.09246
1496.84	0.559877
1498.4	1.15702
1499.96	0.70376
1501.52	0.252448
1503.08	0.636875
1504.64	0.362535
1506.2	0.514723
1507.76	0.511403
1509.32	0.372016
1510.88	0.675797
1512.44	0.823967
1513.99	0.798266
1515.55	0.0232162
1517.11	0.709509
1518.66	-0.158319
1520.22	0.125456
1521.78	0.255686
1523.33	0.595595
1524.89	0.342286
1526.44	0.0888009
1528	0.292221
1529.55	0.190468
1531.11	-0.0628738
1532.66	0.974115
1534.21	0.0777593
1535.77	0.546118
1537.32	0.730799
1538.87	0.311699
1540.43	0.270817
1541.98	0.644495
1543.53	0.264614
1545.08	1.01332
1546.63	0.746167
1548.18	0.72333
1549.74	0.138246
1551.29	0.865135
1552.84	0.562248
1554.39	0.522322
1555.94	0.913119
1557.48	0.595613
1559.03	1.00765
1560.58	0.637518
1562.13	0.567205
1563.68	0.255212
1565.23	0.596637
1566.78	0.471664
1568.32	0.551768
1569.87	0.818237
1571.42	0.80443
1572.96	0.753061
1574.51	0.776245
1576.05	0.594106
1577.6	0.878834
1579.14	0.809205
1580.69	0.515994
1582.24	0.87697
1583.78	0.753064
1585.32	0.816544
1586.87	0.749573
1588.41	0.607816
1589.95	1.23297
1591.5	1.16561
1593.04	0.779481
1594.58	1.32943
1596.12	1.01788
1597.67	1.10008
1599.21	1.80165
1600.75	1.43516
1602.29	0.862226
1603.83	0.945913
1605.37	1.04789
1606.91	1.13001
1608.45	1.19174
1609.99	1.28916
1611.53	0.72701
1613.07	1.27174
1614.6	1.15796
1616.14	1.30657
1617.68	1.23049
1619.22	1.11803
1620.75	1.15671
1622.29	1.32754
1623.83	1.29305
1625.37	0.884175
1626.9	1.03624
1628.44	1.35553
1629.97	1.11241
1631.51	1.46674
1633.04	1.37208
1634.58	1.42715
1636.11	1.40822
1637.65	1.25954
1639.18	1.4284
1640.72	1.50396
1642.25	0.833755
1643.78	1.22458
1645.31	1.70701
1646.85	1.35127
1648.38	2.0363
1649.91	1.88521
1651.44	1.56819
1652.97	1.60497
1654.5	2.05055
1656.03	2.25541
1657.56	1.99684
1659.1	1.62661
1660.62	1.47773
1662.15	2.32672
1663.68	1.52835
1665.21	1.17406
1666.74	1.30048
1668.27	1.8149
1669.8	1.50058
1671.32	1.53787
1672.85	1.66816
1674.38	1.55935
1675.91	1.50559
1677.43	1.45116
1678.96	1.15671
1680.49	1.3397
1682.01	1.24624
1683.54	1.4097
1685.06	0.728948
1686.59	0.837875
1688.11	0.598803
1689.64	1.0747
1691.16	0.836248
1692.68	0.469991
1694.21	0.707629
1695.73	0.615824
1697.25	0.176756
1698.78	0.705729
1700.3	0.978224
1701.82	0.538692
1703.34	0.336225
1704.86	0.00617886
1706.39	0.91351
1707.91	0.528429
1709.43	0.888606
1710.95	0.123131
1712.47	0.428847
1713.99	0.0638623
1715.51	0.13396
1717.02	0.294319
1718.54	0.219367
1720.06	0.216714
1721.58	-0.0203385
1723.1	0.446494
1724.62	0.318926
1726.13	-0.131595
1727.65	-0.130754
1729.17	0.104708
1730.68	0.213385
1732.2	0.230402
1733.72	0.441523
1735.23	0.0788288
1736.75	-0.0580616
1738.26	0.450716
1739.78	0.3532
1741.29	0.132788
1742.81	0.160725
1744.32	0.0385232
1745.84	0.473351
1747.35	0.119684
1748.86	0.0193658
1750.37	0.331134
1751.89	-0.196166
1753.4	0.286693
1754.91	-0.130865
1756.42	-0.0430074
1757.93	0.240508
1759.45	0.364939
1760.96	0.293249
1762.47	-0.142826
1763.98	0.145476
1765.49	0.0425892
1767	0.0491891
1768.51	0.18091
1770.02	0.0162668
1771.53	0.00551701
1773.03	0.0164986
1774.54	-0.091136
1776.05	0.0331712
1777.56	0.000700951
1779.07	0.0410089
1780.57	0.22039
1782.08	0.133002
1783.59	0.430385
1785.09	0.119486
1786.6	0.177826
1788.11	-0.0288448
1789.61	-0.0322552
1791.12	-0.181548
1792.62	-0.245611
1794.13	-0.0145588
1795.63	-0.248141
1797.13	0.0617404
1798.64	0.130663
1800.14	0.0304842
1801.65	-0.0363369
1803.15	0.0716982
1804.65	0.188672
1806.15	0.411971
1807.66	-0.240743
1809.16	0.0155907
1810.66	0.04986
1812.16	-0.162849
1813.66	-0.330514
1815.16	0.292347
1816.66	0.0637956
1818.16	0.104599
1819.66	0.215673
1821.16	-0.13228
1822.66	0.0727057
1824.16	-0.0490141
1825.66	-0.0151901
1827.16	0.0789738
1828.66	0.167614
1830.16	-0.0201998
1831.65	-0.0253129
1833.15	0.00822735
1834.65	0.12106
1836.14	0.0299039
1837.64	0.0976882
1839.14	0.0637393
1840.63	-0.0767012
1842.13	-0.0843844
1843.62	-0.150883
1845.12	0.00948763
1846.61	-0.00662088
1848.11	-0.161841
1849.6	-0.0335913
1851.1	-0.16571
1852.59	0.153754
1854.08	0.0210633
1855.58	0.125503
1857.07	0.121945
1858.56	-0.136946
1860.05	-0.0537639
1861.55	-0.402798
1863.04	0.219647
1864.53	0.251441
1866.02	-0.100708
1867.51	0.0401669
1869	-0.07059
1870.49	-0.0655398
1871.98	0.21405
1873.47	0.170906
1874.96	0.138606
1876.45	-0.00349998
1877.94	0.209843
1879.43	-0.0865345
1880.92	-0.208987
1882.41	0.35324
1882.51	0.395879
1884	-0.00510311
1885.5	0.342899
1886.99	-0.0590649
1888.48	-0.0258169
1889.98	-0.340436
1891.47	-0.0975204
1892.96	-0.322982
1894.46	0.426583
1895.95	0.0298786
1897.44	0.207626
1898.93	-0.0147209
1900.42	0.0752277
1901.91	0.320467
1903.41	0.216363
1904.9	-0.375566
1906.39	0.127055
1907.88	0.142894
1909.37	0.00297546
1910.86	0.245621
1912.35	0.211297
1913.83	0.281505
1915.32	0.108998
1916.81	-0.0637026
1918.3	0.283229
1919.79	-0.0114937
1921.27	0.317447
1922.76	0.109716
1924.25	-0.0452929
1925.74	0.16415
1927.22	0.184002
1928.71	0.412149
1930.19	0.0862012
1931.68	0.105923
1933.17	0.332291
1934.65	0.280171
1936.14	0.00182724
1937.62	0.0340886
1939.11	0.221444
1940.59	0.167034
1942.07	-0.0937338
1943.56	0.215814
1945.04	0.336125
1946.52	0.0774107
1948.01	0.11165
1949.49	0.041925
1950.97	0.143666
1952.45	-0.133997
1953.93	0.104116
1955.42	0.169998
1956.9	0.407821
1958.38	0.0280523
1959.86	0.112421
1961.34	0.300026
1962.82	0.0077157
1964.3	-0.130298
1965.78	0.450669
1967.26	0.602592
1968.74	-0.306701
1970.21	0.25474
1971.69	0.456483
1973.17	0.214112
1974.65	0.279171
1976.13	-0.218174
1977.6	-0.0674753
1979.08	0.372458
1980.56	0.369526
1982.03	0.298467
1983.51	0.0234294
1984.99	0.172868
1986.46	-0.0512457
1987.94	0.165595
1989.41	0.0436587
1990.89	-0.229893
1992.36	-0.0626655
1993.84	0.0882468
1995.31	0.00308371
1996.78	0.121044
1998.26	0.390899
1999.73	0.0186987
2001.2	0.220073
2002.68	-0.23693
2004.15	0.0313053
2005.62	0.299533
2007.09	0.467056
2008.56	0.113235
2010.04	0.248488
2011.51	-0.0872164
2012.98	-0.0188432
2014.45	0.133332
2015.92	-0.236705
2017.39	0.620534
2018.86	0.467758
2020.33	0.348277
2021.8	0.363142
2023.26	0.311111
2024.73	-0.260385
2026.2	0.343544
2027.67	0.378138
2029.14	0.262972
2030.61	0.618571
2032.07	0.0689597
2033.54	0.42588
2035.01	0.262449
2036.47	0.350588
2037.94	0.354332
2039.4	-0.0119896
2040.87	-0.00869083
2042.33	-0.0219269
2043.8	0.335434
2045.27	0.0879989
2046.73	0.396498
2048.19	0.43605
2049.66	0.256284
2051.12	0.210454
2052.59	0.332026
2054.05	-0.0200334
2055.51	-0.171029
2056.97	0.317602
2058.44	0.383977
2059.9	0.26488
2061.36	0.230377
2062.82	0.718342
2064.28	0.432756
2065.74	0.501446
2067.21	0.3857
2068.67	0.438719
2070.13	0.0206733
2071.59	0.326488
2073.05	0.346029
2074.51	0.247489
2075.96	0.283391
2077.42	0.521091
2078.88	0.640584
2080.34	0.389237
2081.8	0.204848
2083.26	0.322992
2084.72	0.238559
2086.17	0.590962
2087.63	0.60629
2089.09	0.234723
2090.54	0.384078
2092	0.751465
2093.45	0.648564
2094.91	0.579103
2096.37	0.408762
2097.82	0.422346
2099.28	0.452144
2100.73	0.381299
2102.19	0.394278
2103.64	0.82535
2105.09	0.322344
2106.55	0.805195
2108	0.905001
2109.45	0.971699
2110.91	0.871213
2112.36	0.203173
2113.81	0.783466
2115.26	0.546288
2116.72	0.624642
2118.17	0.453949
2119.62	0.782507
2121.07	0.929747
2122.52	1.02873
2123.97	1.06258
2125.42	1.06382
2126.87	0.766409
2128.32	0.982144
2129.77	0.84863
2131.22	1.26071
2132.67	0.91023
2134.11	0.576663
2135.56	1.08733
2137.01	1.36738
2138.46	1.20268
2139.91	1.13877
2141.35	1.50602
2142.8	0.766589
2144.25	1.06934
2145.7	1.10766
2147.14	1.65902
2148.59	1.81273
2150.03	1.83321
2151.48	1.3723
2152.92	1.58979
2154.37	1.55803
2155.81	1.62526
2157.26	1.77536
2158.7	1.64447
2160.15	1.86261
2161.59	1.88355
2163.03	1.93933
2164.47	1.9302
2165.92	1.93842
2167.36	1.68076
2168.8	1.88732
2170.24	1.8264
2171.69	2.16282
2173.13	1.89861
2174.57	1.64981
2176.01	2.19882
2177.45	2.04946
2178.89	2.24995
2180.33	2.08557
2181.77	2.32104
2183.21	2.19126
2184.65	1.87874
2186.09	1.98206
2187.53	2.08545
2188.97	1.65635
2190.4	1.95947
2191.84	1.69641
2193.28	1.83224
2194.72	1.61726
2196.16	1.36747
2197.59	1.54873
2199.03	1.44564
2200.47	1.80699
2201.9	1.53677
2203.34	1.26749
2204.77	1.39742
2206.21	1.62754
2207.64	1.11243
2209.08	1.40902
2210.51	1.00953
2211.95	1.28783
2213.38	1.05272
2214.82	1.39593
2216.25	1.19446
2217.68	1.12615
2219.12	1.05894
2220.55	1.15736
2221.98	0.909729
2223.41	1.02414
2224.85	0.330466
2226.28	0.985631
2227.71	0.865689
2229.14	0.744916
2230.57	0.623764
2232	0.895982
2233.43	0.824075
2234.86	0.932785
2236.29	0.421443
2237.72	0.581474
2239.15	0.383824
2240.58	0.546729
2242.01	0.384782
2243.44	0.550011
2244.87	0.780793
2246.29	0.39124
2247.72	0.734428
2249.15	0.391016
2250.58	0.567568
2252.01	0.628515
2253.43	0.721192
2254.86	0.456491
2256.29	0.680371
2257.71	0.467732
2259.14	0.322346
2260.56	0.422583
2261.99	0.427368
2263.41	0.417156
2264.84	0.374687
2266.26	0.543272
2267.69	0.418584
2269.11	0.309343
2270.53	0.2157
2271.96	-0.0900612
2273.38	0.46708
2274.8	0.438087
2276.23	0.458122
2277.65	0.57609
2279.07	0.270308
2280.49	0.828573
2281.91	0.147398
2283.34	0.265246
2284.76	0.383173
2286.18	0.436033
2287.6	0.260613
2289.02	0.199745
2290.44	0.400574
2291.86	0.193109
2293.28	0.198166
2294.7	-0.058578
2296.12	0.109973
2297.54	0.180371
2298.96	0.480217
2300.37	0.157656
2301.79	0.113764
2303.21	0.496595
2304.63	0.206946
2306.04	0.114015
2307.46	0.579391
2308.88	0.0749164
2310.3	0.474019
2311.71	-0.0974221
2313.13	-0.0439939
2314.54	0.108511
2315.96	0.0146737
2317.37	0.415575
2318.79	0.0754542
2320.2	0.312061
2321.62	-0.161459
2323.03	-0.058979
2324.45	0.0748391
2325.86	0.388418
2327.27	0.25521
2328.69	0.352276
2330.1	0.284653
2331.51	0.151912
2332.92	0.398645
2334.34	0.251005
2335.75	0.399737
2337.16	0.0546665
2338.57	0.120102
2339.98	0.086031
2341.39	0.100555
2342.8	0.163904
2344.21	0.128737
2345.63	0.0282583
2347.04	0.124669
2348.45	-0.155503
2349.85	-0.272008
2351.26	0.134187
2352.67	0.0980201
2354.08	-0.0366907
2355.49	0.121757
2356.9	0.393595
2358.3	-0.197224
2359.71	-0.00681353
2361.12	-0.0601897
2362.53	-0.0486107
2363.93	0.238196
2365.34	-0.106617
2366.75	0.147407
2368.15	-0.32518
2369.56	0.123306
2370.97	-0.0888376
2372.37	0.0224686
2373.77	-0.0105214
2375.18	0.182156
2376.59	0.277856
2377.99	0.0188842
2379.39	-0.17661
2380.8	-0.244545
2382.2	-0.265241
2383.6	0.0978389
2385.01	0.0599546
2386.41	-0.00151777
2387.81	-0.0621943
2389.21	0.25281
2390.62	-0.0849652
2392.02	-0.294018
2393.42	0.0388865
2394.82	-0.0891519
2396.22	0.0854959
2397.62	0.08567
2399.02	0.181609
2400.42	0.0872493
2401.82	0.0249233
2403.22	0.0897017
2404.62	0.106552
2406.02	-0.0835967
2407.42	-0.115618
2408.82	-0.322638
2410.22	0.10436
2411.62	0.166682
2413.01	0.0236759
2414.41	0.214182
2415.81	0.215759
2417.21	0.582476
2418.6	0.0316253
2420	0.19353
2421.4	-0.0722713
2422.79	0.326972
2424.19	0.0764842
2425.59	0.253827
2426.98	-0.0597186
2428.38	0.356487
2429.77	0.18689
2431.17	-0.140997
2432.56	0.197668
2433.95	0.0598001
2435.35	-0.0630989
2436.74	0.146533
2438.14	0.243826
2439.53	0.149495
2440.92	0.149796
2442.31	0.340178
2443.71	-0.025187
2445.1	-0.120743
2446.49	0.211739
2447.88	0.195184
2449.27	-0.122334
2450.67	0.00392485
2452.06	0.241263
2453.45	-0.0589538
2454.84	0.052917
2456.23	0.117817
2457.62	-0.0701351
2459.01	0.168879
2460.4	0.122756
2461.79	0.123483
2463.18	0.0287852
2464.57	-0.00307941
2465.95	0.12278
2467.34	0.453667
2468.73	0.279311
2470.12	0.0576525
2471.5	-0.179881
2472.89	0.25975
2474.28	0.351904
2475.67	0.380499
2477.05	-0.0470481
2478.44	0.154242
2479.82	0.276867
2481.21	0.211271
2482.6	-0.0579448
2483.98	0.377389
2485.37	-0.0332713
2486.75	0.337222
2488.13	0.0506463
2489.52	0.278511
2490.9	-0.132459
2492.29	0.37512
2493.67	0.0127897
2495.05	0.00898075
2496.44	0.207602
2497.82	0.205217
2499.2	0.234004
2500.58	0.247037
2501.97	0.0585494
2503.35	0.193923
2504.73	0.112411
2506.11	-0.0464363
2507.49	0.195047
2508.87	-0.0712466
2510.25	-0.428804
2511.63	0.135348
2513.01	-0.0980697
2514.39	-0.177309
2515.77	0.126842
2517.15	-0.0124288
2518.53	0.169923
2519.91	0.734246
2521.29	0.0148597
2522.67	0.30321
2524.05	-0.0348129
2525.42	-0.00707769
2526.8	0.0204139
2528.18	0.0177207
2529.55	0.335153
2530.93	-0.319287
2532.31	0.334666
2533.69	0.184195
2535.06	-0.23918
2536.44	0.14264
2537.81	0.311253
2539.19	0.175339
2540.56	0.00851059
2541.94	0.145072
2543.31	0.099669
2544.69	0.0700831
2546.06	0.193088
2547.44	-0.00153446
2548.81	-0.0286965
2550.18	-0.192366
2551.56	0.2051
2552.93	0.0555911
2554.3	0.557858
2555.67	0.331013
2557.04	-0.472517
2558.42	-0.183938
2559.79	0.241102
2561.16	-0.15209
2562.53	0.0917883
2563.9	0.381523
2565.27	0.216962
2566.64	0.234439
2568.01	-0.00564671
2569.38	0.0119014
2570.75	0.0446129
2572.12	-0.0893779
2573.49	-0.147529
2574.86	-0.0388632
2576.23	0.115329
2577.6	-0.0640731
2578.97	0.15058
2580.33	-0.196047
2581.7	0.109042
2583.07	-0.0713444
2584.44	0.248409
2585.8	0.00720072
2587.17	-0.0368333
2588.54	0.298166
2589.9	-0.109365
2591.27	0.0134463
2592.64	0.241963
2594	0.439507
2595.37	-0.0907245
2596.73	0.423134
2598.1	-0.274376
2599.46	-0.0490956
2600.83	0.206209
2602.19	-0.0216627
2603.55	0.15875
2604.92	0.128178
2606.28	0.0374451
2607.64	0.338597
2609.01	-0.295575
2610.37	-0.0863996
2611.73	0.256992
2613.09	0.253088
2614.46	0.0833654
2615.82	0.288939
2617.18	0.0745335
2618.54	0.370185
2619.9	0.187065
2621.26	0.318796
2622.62	0.107075
2623.98	0.0302076
2625.34	-0.00182724
2626.7	0.100214
2628.06	0.395583
2629.42	0.0946884
2630.78	0.195817
2632.14	0.445364
2633.5	-0.211629
2634.86	-0.199684
2636.21	0.0198474
2637.57	0.105652
2638.93	-0.223217
2640.29	-0.181586
2641.64	0.0819163
2643	-0.0388589
2644.36	0.150682
2645.71	-0.0584126
2647.07	0.0126061
2648.43	0.0830188
2649.78	0.0791349
2651.14	0.162963
2652.49	0.246387
2653.85	0.300462
2655.2	-0.143364
2656.56	0.0294752
2657.91	0.0419035
2659.26	0.12812
2660.62	0.273045
2661.97	0.0962124
2663.32	-0.153888
2664.68	0.354758
2666.03	-0.0713506
2667.38	0.246112
2668.74	-0.0340366
2670.09	0.152066
2671.44	0.0184026
2672.79	0.0452142
2674.14	0.188624
2675.49	0.332313
2676.84	0.287692
2678.19	0.243606
2679.54	-0.147829
2680.89	0.548971
2682.24	0.20275
2683.59	-0.0556455
2684.94	-0.0523796
2686.29	0.00926828
2687.64	0.0563402
2688.99	0.33487
2690.34	0.263773
2691.69	0.249386
2693.03	0.175838
2694.38	-0.0433693
2695.73	0.114328
2697.08	-0.191237
2698.42	0.0690928
2699.77	-0.190737
2701.12	0.144359
2702.46	-0.0407681
2703.81	0.0790319
2705.15	-0.250104
2706.5	0.261749
2707.85	0.0193152
2709.19	-0.0348945
2710.54	0.0122328
2711.88	-0.0134292
2713.22	0.178755
2714.57	0.254731
2715.91	0.141685
2717.26	0.115735
2718.6	0.133235
2719.94	-0.0386868
2721.29	0.109181
2722.63	0.00930786
2723.97	0.0546355
2725.31	0.652769
2726.66	0.260839
2728	0.43632
2729.34	0.305989
2730.68	0.262881
2732.02	-0.0275645
2733.36	0.307637
2734.7	-0.0116515
2736.04	0.0765042
2737.38	0.106575
2738.72	0.456577
2740.06	0.195587
2741.4	0.210569
2742.74	0.0942388
2744.08	0.209991
2745.42	0.0927687
2746.76	0.164104
2748.09	0.0755739
2749.43	-0.0273614
2750.77	-0.159076
2752.11	0.2749
2753.45	-0.0158978
2754.78	0.229681
2756.12	-0.0606909
2757.46	0.0980892
2758.79	0.199066
2760.13	0.213443
2761.46	0.372881
2762.8	0.416887
2764.14	-0.0308156
2765.47	0.129189
2766.8	0.288848
2768.14	0.187424
2769.47	-0.0594697
2770.81	0.27088
2772.14	0.152129
2773.48	0.104949
2774.81	0.230444
2776.14	-0.0332184
2777.48	0.149963
2778.81	0.14631
2780.14	-0.144365
2781.47	0.183098
2782.8	0.0366035
2784.14	-0.00935078
2785.47	0.0164018
2786.8	0.300063
2788.13	0.111367
2789.46	0.0951285
2790.79	-0.0205622
2792.12	0.121747
2793.45	-0.00728273
2794.78	0.221076
2796.11	0.377639
2797.44	0.0480556
2798.77	0.203758
2800.1	0.144935
2801.43	0.0289063
2802.76	0.126721
2804.09	0.110241
2805.41	-0.0204773
2806.74	-0.236866
2808.07	0.186635
2809.4	-0.144041
2810.72	-0.0481648
2812.05	0.0337968
2813.38	-0.167202
2814.71	-0.154349
2816.03	-0.069633
2817.36	-0.12589
2818.68	0.186779
2820.01	0.0884271
2821.33	0.3866
2822.66	0.329939
2823.98	0.131148
2825.31	0.045505
2826.63	0.299793
2827.96	0.129597
2829.28	0.427027
2830.6	0.484105
2831.93	0.654582
2833.25	0.258805
2834.57	0.443152
2835.9	0.556334
2837.22	0.824713
2838.54	0.696549
2839.86	0.865265
2841.18	0.666375
2842.5	0.849534
2843.83	0.920049
2845.15	0.962834
2846.47	0.610379
2847.79	1.02135
2849.11	1.05077
2850.43	1.30611
2851.75	1.37733
2853.07	1.29268
2854.39	1.44797
2855.71	1.34875
2857.03	1.44731
2858.35	1.36226
2859.66	1.5173
2860.98	1.60156
2862.3	1.84082
2863.62	2.13614
2864.94	2.21944
2866.25	2.41551
2867.57	2.07578
2868.89	2.48384
2870.2	2.15901
2871.52	2.66605
2872.84	2.52442
2874.15	2.80493
2875.47	2.63368
2876.78	2.72916
2878.1	2.58466
2879.41	3.07292
2880.73	2.63322
2882.04	2.86897
2883.36	2.86663
2884.67	2.79487
2885.99	2.69557
2887.3	2.8911
2888.61	2.39862
2889.93	2.43886
2891.24	3.02524
2892.55	2.74167
2893.86	3.39678
2895.18	2.93141
2896.49	2.83098
2897.8	3.20723
2899.11	3.3603
2900.42	3.37409
2901.73	3.89185
2903.05	3.76629
2904.36	3.83667
2905.67	3.47368
2906.98	3.96436
2908.29	3.89624
2909.6	3.54898
2910.91	3.97174
2912.21	4.57664
2913.52	4.48111
2914.83	5.02834
2916.14	4.87401
2917.45	4.95623
2918.76	4.85561
2920.07	5.52413
2921.37	5.82929
2922.68	5.7021
2923.99	5.81387
2925.29	5.84283
2926.6	5.76053
2927.91	5.84602
2929.22	6.23871
2930.52	6.42117
2931.83	5.94611
2933.13	6.36545
2934.44	6.54707
2935.74	6.35141
2937.05	6.00221
2938.35	6.26805
2939.66	6.12889
2940.96	5.9343
2942.26	5.81035
2943.57	5.8552
2944.87	5.24425
2946.18	5.31924
2947.48	5.6187
2948.78	5.16234
2950.08	5.34867
2951.39	4.53923
2952.69	4.77822
2953.99	4.60987
2955.29	4.60919
2956.59	4.34331
2957.9	4.34512
2959.2	4.11123
2960.5	4.21571
2961.8	4.29405
2963.1	4.12067
2964.4	3.98866
2965.7	4.30478
2967	3.87488
2968.3	3.71058
2969.6	3.41895
2970.9	3.45056
2972.19	3.34172
2973.49	3.09236
2974.79	3.63113
2976.09	2.86021
2977.39	2.93285
2978.68	2.55353
2979.98	2.66559
2981.28	2.59356
2982.58	2.59142
2983.87	2.23804
2985.17	2.4901
2986.47	1.92821
2987.76	2.07013
2989.06	1.76314
2990.35	1.82171
2991.65	1.71124
2992.94	1.76859
2994.24	2.10592
2995.53	1.64149
2996.83	1.47163
2998.12	1.59642
2999.42	0.977824
3000.71	1.18738
3002	0.99071
3003.3	1.20082
3004.59	0.80851
3005.88	0.920364
3007.18	0.793686
3008.47	0.820379
3009.76	0.818381
3011.05	1.02537
3012.34	0.854722
3013.64	0.865659
3014.93	0.291379
3016.22	0.414912
3017.51	0.218595
3018.8	0.579434
3020.09	0.300189
3021.38	0.0348272
3022.67	0.130321
3023.96	0.585751
3025.25	0.332694
3026.54	0.620085
3027.83	0.160036
3029.12	0.57258
3030.41	0.184248
3031.69	0.184075
3032.98	0.336497
3034.27	0.447631
3035.56	0.406518
3036.84	0.364455
3038.13	0.334881
3039.42	0.400264
3040.71	0.106937
3041.99	0.307791
3043.28	0.24759
3044.57	0.229191
3045.85	0.15731
3047.14	0.333
3048.42	0.537449
3049.71	0.115499
3050.99	0.540926
3052.28	0.393775
3053.56	-0.0126023
3054.85	0.467379
3056.13	0.182599
3057.41	0.374331
3058.7	0.401748
3059.98	0.224652
3061.26	0.483446
3062.55	0.661046
3063.83	0.146104
3065.11	0.502554
3066.39	0.438549
3067.68	0.552021
3068.96	0.0946474
3070.24	0.371379
3071.52	0.334661
3072.8	0.25622
3074.08	0.312801
3075.36	0.341427
3076.65	0.193192
3077.93	-0.0225029
3079.21	-0.101605
3080.49	0.29513
3081.77	0.394478
3083.04	0.0606341
3084.32	-0.245697
3085.6	-0.0635352
3086.88	0.064044
3088.16	0.177524
3089.44	0.168302
3090.72	0.240123
3091.99	-0.000261784
3093.27	-0.0370154
3094.55	0.129841
3095.83	0.0934258
3097.1	0.0435004
3098.38	-0.0878015
3099.66	-0.164972
3100.93	-0.174465
3102.21	-0.35999
3103.49	0.185823
3104.76	-0.0127459
3106.04	0.181718
3107.31	0.187325
3108.59	0.00419521
3109.86	-0.151176
3111.14	0.0866981
3112.41	0.162721
3113.69	-0.0996842
3114.96	0.15279
3116.23	0.0525064
3117.51	-0.156984
3118.78	-0.0417776
3120.05	0.0997119
3121.33	0.0641751
3122.6	0.258572
3123.87	0.181686
3125.14	0.19974
3126.41	-0.0120153
3127.69	0.20969
3128.96	0.228718
3130.23	-0.10359
3131.5	0.077992
3132.77	0.0971675
3134.04	0.305112
3135.31	-0.230053
3136.58	0.0444388
3137.85	0.250742
3139.12	0.133105
3140.39	0.0558591
3141.66	-0.249864
3142.93	0.264706
3144.2	0.174582
3145.47	0.111837
3146.74	0.0228181
3148	0.389837
3149.27	0.301582
