200.563	0.69032
202.377	0.693459
204.194	0.697859
206.008	0.16809
207.821	0.70878
209.634	0.471132
211.449	0.81588
213.262	0.0428343
215.074	0.604126
216.885	0.631113
218.699	0.101264
220.51	0.105208
222.321	-0.446335
224.131	0.260635
225.941	-0.144112
227.751	0.248796
229.562	-0.131451
231.371	0.0193148
233.18	0.0251169
234.988	0.103678
236.796	0.0145721
238.603	-0.313784
240.411	0.275808
242.219	-0.121077
244.026	0.520141
245.832	0.365509
247.638	0.547623
249.443	0.486296
251.248	0.422595
253.053	0.139676
254.857	0.169401
256.661	-0.0903721
258.465	0.0605478
260.268	-0.437708
262.071	0.776083
263.874	0.304958
265.678	-0.3581
267.48	-0.177567
269.282	-0.11763
271.083	-0.178735
272.884	0.313929
274.684	0.443933
276.484	0.235221
278.284	-0.167508
280.084	0.151208
281.883	0.10703
283.682	-0.0346212
285.48	0.327496
287.276	0.208403
289.074	0.521228
290.871	0.259311
292.668	0.405881
294.465	0.0513058
296.261	-0.110373
298.057	0.589352
299.853	0.548462
301.648	0.244794
303.443	0.394362
305.237	0.375837
307.032	0.14204
308.823	-0.139238
310.617	0.0329924
312.41	0.158481
314.203	0.523431
315.995	0.485142
317.788	0.85329
319.579	0.46067
321.369	0.164098
323.16	-0.394392
324.951	0.45477
326.741	0.493314
328.531	0.316752
330.321	0.235138
332.108	0.750506
333.897	-0.0988808
335.686	0.00694942
337.474	0.206796
339.26	0.357141
341.048	0.123614
342.835	0.0570564
344.622	0.181755
346.406	0.282955
348.192	0.814533
349.978	0.200483
351.764	0.111852
353.547	-0.311197
355.332	0.601052
357.116	0.605523
358.901	0.370654
360.682	0.0875769
362.466	-0.0767808
364.249	0.780964
366.03	0.947815
367.812	0.330544
369.594	0.757044
371.374	-0.0259142
373.155	-0.381804
374.936	0.231745
376.715	0.395558
378.495	0.465208
380.273	0.040874
382.053	0.159624
383.832	-0.191114
385.609	-0.0467238
387.388	0.404006
389.164	0.479542
390.942	0.0861988
392.72	0.867878
394.495	-0.299107
396.272	0.20164
398.047	0.185854
399.823	-0.346747
401.597	-0.550851
403.372	-0.144692
405.145	-0.0913987
406.92	0.783241
408.693	0.436288
410.467	0.065804
412.239	-0.304444
414.012	0.170542
415.783	0.364499
417.556	-0.0743699
419.327	0.402447
421.099	0.245932
422.869	0.13614
424.64	0.518813
426.409	0.384311
428.18	0.0144453
429.948	0.465849
431.718	0.353929
433.486	0.383152
435.253	0.0371904
437.022	0.348392
438.789	-0.303188
440.558	0.194059
442.324	-0.36605
444.089	-0.153616
445.857	0.291402
447.622	0.477353
449.386	-0.296025
451.153	0.0768256
452.917	0.0291715
454.682	0.42496
456.446	0.167585
458.208	-0.671634
459.973	-0.0667591
461.735	0.04951
463.497	0.236653
465.259	0.17004
467.022	0.50077
468.783	0.392216
470.544	0.354858
472.306	-0.0311112
474.066	-0.0921459
475.825	-0.131279
477.585	0.270559
479.346	0.158557
481.104	0.0691423
482.862	0.375856
484.62	-0.061749
486.38	-0.591166
488.137	0.955041
489.894	0.802135
491.65	0.0195951
493.407	0.474621
495.164	0.86052
496.92	0.310672
498.675	0.157923
500.43	0.590863
502.184	0.296395
503.939	0.212171
505.694	0.00942516
507.448	0.2522
509.201	0.0234857
510.954	0.405201
512.706	0.644577
514.459	0.294498
516.21	0.0846081
517.962	0.273703
519.715	0.179812
521.466	0.343889
523.216	0.366552
524.966	-0.244647
526.716	0.364619
528.466	0.152687
530.215	0.456441
531.964	0.220872
533.712	-0.0618553
535.46	-0.13458
537.208	0.586292
538.955	0.464275
540.703	0.318276
542.449	-0.130766
544.196	0.304983
545.942	0.460869
547.688	-0.242092
549.433	-0.178277
551.178	0.0708089
552.923	-0.0274324
554.667	-0.171505
556.412	-0.0611649
558.155	0.717971
559.899	0.0677471
561.642	0.408901
563.385	0.243977
565.127	0.309621
566.867	0.0541377
568.609	0.0291595
570.35	0.073885
572.092	0.0278988
573.832	-0.0167899
575.573	0.00870657
577.313	0.425595
579.053	0.361732
580.79	0.0687227
582.529	0.418927
584.268	-0.0586343
586.006	-0.468366
587.745	0.155955
589.482	0.158383
591.218	0.390185
592.955	-0.413743
594.692	-0.159418
596.428	-0.181143
598.164	0.303255
599.898	0.258206
601.634	-0.0635347
603.369	0.0508394
605.104	0.393917
606.836	-0.114469
608.57	-0.393245
610.304	0.269166
612.037	0.403672
613.769	0.103083
615.501	-0.357175
617.234	0.603442
618.966	0.0972352
620.696	0.323116
622.427	-0.321475
624.159	0.405712
625.887	0.263903
627.618	0.123137
629.348	0.0753202
631.076	-0.0619473
632.806	0.098947
634.535	0.466071
636.262	0.399285
637.99	0.399575
639.716	0.420542
641.444	0.439151
643.172	0.934382
644.897	-0.325273
646.624	-0.103847
648.348	0.186855
650.075	0.57056
651.801	-0.156176
653.524	0.619895
655.249	0.785304
656.972	0.201361
658.697	0.391952
660.419	0.194625
662.143	0.201245
663.865	-0.0452943
665.588	0.643511
667.309	0.622322
669.032	0.0973997
670.752	0.350702
672.474	0.468342
674.194	-0.0990739
675.915	0.617793
677.634	0.442077
679.355	0.679518
681.073	0.157909
682.793	0.646409
684.511	0.53532
686.23	0.445605
687.947	0.193406
689.664	0.470125
691.382	0.677204
693.098	0.630393
694.816	0.536916
696.531	1.08745
698.247	0.900064
699.963	1.01092
701.678	0.614796
703.392	0.95383
705.108	0.763611
706.821	0.481463
708.534	0.795619
710.249	1.15477
711.962	0.528669
713.674	0.543822
715.388	0.581634
717.099	1.00746
718.81	0.907974
720.523	1.37853
722.234	1.30193
723.944	0.770452
725.654	1.01266
727.365	0.436569
729.075	0.746144
730.784	0.986775
732.492	0.343427
734.202	0.922873
735.91	0.981397
737.618	1.26589
739.325	0.535271
741.034	0.978727
742.741	1.35491
744.447	0.966309
746.153	1.14177
747.859	1.04825
749.564	1.18075
751.271	1.58414
752.976	1.31383
754.681	0.999561
756.385	0.88882
758.088	1.16194
759.792	1.32385
761.495	1.14864
763.2	1.24432
764.902	1.33988
766.604	0.756768
768.306	1.86705
770.008	1.91353
771.709	1.46081
773.41	1.6627
775.11	1.66072
776.811	1.74965
778.51	1.7492
780.21	1.81785
781.909	1.32181
783.608	1.25551
785.307	1.68624
787.005	1.7982
788.703	2.11118
790.401	1.7878
792.098	1.91464
793.795	1.5884
795.492	1.51071
797.188	1.79449
798.884	1.47113
800.58	1.57726
802.276	1.63938
803.971	2.24168
805.665	1.65191
807.36	1.73604
809.054	1.30262
810.748	1.744
812.441	1.66825
814.135	1.54736
815.826	1.35932
817.518	1.97673
819.21	1.98977
820.902	1.71264
822.594	1.68169
824.285	1.69602
825.976	1.73378
827.665	2.0628
829.355	1.68129
831.045	1.36904
832.735	1.70495
834.424	1.84217
836.111	1.33345
837.8	1.53811
839.488	1.83135
841.177	2.21287
842.864	1.56572
844.55	1.566
846.237	1.2092
847.924	0.965343
849.61	1.77467
851.295	0.997214
852.98	1.74402
854.666	1.37107
856.349	1.91813
858.034	0.846412
859.719	1.05423
861.403	1.6888
863.085	2.02988
864.769	1.26585
866.452	1.22199
868.133	1.10994
869.816	1.15537
871.498	0.929863
873.179	1.15534
874.86	1.24543
876.54	1.31297
878.221	1.33537
879.902	1.35769
881.58	1.15393
883.26	0.972148
884.938	0.902391
886.618	0.989566
888.297	0.917556
889.974	0.506161
891.653	1.49136
893.329	0.875295
895.007	0.821807
896.683	1.03735
898.36	0.578033
900.035	1.30779
901.712	0.713447
903.387	1.01514
905.063	1.42765
906.737	1.50454
908.412	0.734637
910.085	0.924658
911.76	0.981455
913.433	1.17199
915.107	1.11818
916.779	0.709587
918.452	1.40973
920.124	1.24518
921.797	0.550484
923.467	1.3829
925.138	0.823813
926.81	0.929066
928.48	1.45486
930.151	1.09864
931.82	0.676882
933.489	1.07164
935.16	1.22378
936.828	0.868956
938.496	1.15441
940.165	0.999691
941.833	0.779655
943.5	1.33235
945.168	0.494641
946.834	1.17889
948.5	0.978796
950.168	0.534534
951.834	0.883856
953.499	0.527297
955.163	1.1864
956.83	0.722963
958.494	0.570561
960.158	0.420006
961.821	0.999255
963.487	0.341267
965.15	-0.0312924
966.812	0.611717
968.474	1.07589
970.138	0.343768
971.8	-0.0347958
973.461	0.737082
975.123	1.08974
976.783	0.713995
978.446	0.449804
980.106	0.506769
981.766	0.563431
983.425	0.408772
985.084	0.872505
986.743	0.493505
988.402	0.42316
990.06	0.285645
991.72	-0.0510731
993.378	0.473849
995.035	0.84371
996.692	0.419033
998.349	0.435767
1000.01	0.80485
1001.66	0.776786
1003.32	0.440342
1004.97	0.411982
1006.63	0.71318
1008.28	0.684658
1009.94	0.0858917
1011.59	0.255733
1013.25	0.57908
1014.9	0.289046
1016.55	1.07227
1018.21	0.6298
1019.86	0.232086
1021.51	0.0321774
1023.16	0.663732
1024.81	0.74938
1026.47	0.485788
1028.12	0.724771
1029.77	0.679183
1031.42	0.567152
1033.07	0.715953
1034.72	0.623362
1036.37	0.726074
1038.02	0.631973
1039.67	0.363844
1041.31	0.966628
1042.96	1.70002
1044.61	0.934985
1046.26	0.628144
1047.91	0.540004
1049.55	0.974297
1051.2	0.453901
1052.84	0.585651
1054.49	0.630793
1056.14	0.349906
1057.78	0.26433
1059.43	0.613207
1061.07	0.396315
1062.72	0.657201
1064.36	0.24333
1066	0.546186
1067.65	0.369964
1069.29	-0.154457
1070.93	-0.00571537
1072.58	-0.0959487
1074.22	-0.0338788
1075.86	0.267461
1077.5	-0.146051
1079.14	0.460564
1080.78	0.568909
1082.42	0.286888
1084.06	-0.125861
1085.7	0.522539
1087.34	0.302293
1088.98	0.816957
1090.62	0.918478
1092.26	0.327222
1093.9	0.0822277
1095.54	0.0751643
1097.17	0.478244
1098.81	0.213987
1100.45	0.209651
1102.09	0.163651
1103.72	0.161958
1105.36	0.0536261
1106.99	0.397344
1108.63	0.117085
1110.27	-0.0348797
1111.9	-0.402776
1113.53	0.216676
1115.17	0.662786
1116.8	1.0864
1118.43	0.523448
1120.07	0.304522
1121.7	-0.0204759
1123.33	0.533065
1124.97	0.0813503
1126.6	-0.0700321
1128.23	0.0999579
1129.86	0.163477
1131.49	-0.13606
1133.12	-0.136078
1134.75	0.248549
1136.38	-0.286405
1138.01	0.802001
1139.64	0.607257
1141.27	0.540002
1142.9	0.0243502
1144.53	0.277106
1146.16	0.0611467
1147.78	0.144383
1149.41	0.270784
1151.04	-0.220236
1152.67	-0.0934997
1154.29	0.160647
1155.92	-0.0325713
1157.54	-0.395951
1159.17	0.26206
1160.8	0.261173
1162.42	-0.164141
1164.05	0.346794
1165.67	-0.119982
1167.29	0.0721412
1168.92	0.15715
1170.54	-0.205436
1172.16	0.365619
1173.79	0.149221
1175.41	-0.322338
1177.03	-0.0939817
1178.65	0.261261
1180.28	0.447165
1181.9	-0.00109768
1183.52	0.164709
1185.14	-0.388063
1186.76	0.0304532
1188.38	-0.354528
1190	-0.0446396
1191.62	0.0948076
1193.24	-0.040452
1194.86	0.495877
1196.47	0.611479
1198.09	-0.340244
1199.71	0.259069
1201.33	0.315662
1202.95	0.395002
1204.56	0.0170465
1206.18	-0.254845
1207.8	-0.129395
1209.41	0.100473
1211.03	-0.150022
1212.64	0.161317
1214.26	0.0540357
1215.87	0.569919
1217.49	-0.414074
1219.1	0.0369782
1220.71	0.570064
1222.33	0.273127
1223.94	0.433477
1225.55	0.159903
1227.16	0.156763
1228.78	0.464857
1230.39	-0.260142
1232	0.318333
1233.61	0.174096
1235.22	0.444115
1236.83	0.63236
1238.44	0.304569
1240.05	0.142532
1241.66	0.0839458
1243.27	0.37679
1244.88	0.524325
1246.49	0.464205
1248.1	0.175729
1249.71	0.52816
1251.32	0.280365
1252.92	0.405131
1254.53	0.902715
1256.14	0.180748
1257.74	0.555956
1259.35	1.01494
1260.96	0.00515223
1262.56	0.154608
1264.17	0.262745
1265.77	0.515719
1267.38	0.395185
1268.98	0.294639
1270.59	1.18857
1272.19	0.630347
1273.79	1.04582
1275.4	0.817824
1277	0.382022
1278.6	0.9609
1280.21	0.586411
1281.81	0.895005
1283.41	0.231134
1285.01	0.374683
1286.61	0.828866
1288.21	0.33287
1289.81	0.230326
1291.41	0.355443
1293.01	0.459782
1294.61	0.852741
1296.21	0.893445
1297.81	0.272337
1299.41	0.33149
1301.01	0.348269
1302.6	0.714303
1304.2	0.379319
1305.8	0.763989
1307.4	0.387654
1308.99	1.09914
1310.59	0.3747
1312.19	0.163823
1313.78	1.01734
1315.38	0.296729
1316.97	0.945883
1318.57	0.717196
1320.16	0.611051
1321.76	0.280328
1323.35	1.02756
1324.94	1.18242
1326.54	1.11256
1328.13	0.758674
1329.72	0.50739
1331.32	-0.166797
1332.91	0.353933
1334.5	0.996531
1336.09	0.610429
1337.68	0.366282
1339.27	1.27077
1340.87	0.460745
1342.45	0.61638
1344.04	0.951142
1345.64	0.641935
1347.22	0.834918
1348.81	0.828468
1350.4	1.06405
1351.99	0.241224
1353.58	0.420269
1355.17	0.779979
1356.75	0.240564
1358.34	0.460206
1359.93	0.63907
1361.51	1.27602
1363.1	0.475476
1364.69	0.373348
1366.27	0.311382
1367.86	0.150498
1369.44	0.42854
1371.03	0.727329
1372.61	0.290803
1374.2	0.71073
1375.78	0.295412
1377.37	0.337791
1378.95	0.519083
1380.53	0.401152
1382.11	0.202745
1383.7	0.142739
1385.28	0.380243
1386.86	-0.0979762
1388.44	0.218667
1390.02	0.138533
1391.6	0.356722
1393.19	0.138916
1394.77	0.476791
1396.35	0.417788
1397.93	0.615977
1399.51	0.377367
1401.08	0.276922
1402.66	0.255354
1404.24	0.589899
1405.82	0.449943
1407.4	0.251448
1408.97	0.923048
1410.55	-0.0843234
1412.13	0.152859
1413.71	0.488151
1415.28	-0.0456171
1416.86	0.564312
1418.43	0.404677
1420.01	0.540958
1421.59	0.205356
1423.16	0.579748
1424.73	0.935511
1426.31	0.62299
1427.88	0.468294
1429.46	0.746393
1431.03	0.433342
1432.6	0.847623
1434.18	0.395417
1435.75	0.238177
1437.32	0.88727
1438.89	1.0452
1440.46	0.889385
1442.04	0.242998
1443.61	0.815601
1445.18	1.0151
1446.75	1.19511
1448.32	1.04109
1449.89	0.710329
1451.46	0.851737
1453.03	0.855926
1454.6	0.525966
1456.16	1.29767
1457.73	1.341
1459.3	1.24557
1460.87	0.00743151
1462.44	0.71614
1464	0.892212
1465.57	0.733202
1467.14	0.495552
1468.7	0.925944
1470.27	0.434291
1471.83	1.02278
1473.4	0.552666
1474.96	0.534318
1476.53	0.94762
1478.09	0.517906
1479.66	0.421483
1481.22	0.599404
1482.78	0.718422
1484.35	0.484616
1485.91	1.07338
1487.47	0.407844
1489.04	0.583558
1490.6	0.835965
1492.16	0.832193
1493.72	1.02204
1495.28	0.390775
1496.84	0.637002
1498.4	0.357092
1499.96	0.933393
1501.52	0.849181
1503.08	0.727292
1504.64	0.625666
1506.2	0.698608
1507.76	0.654895
1509.32	-0.00768137
1510.88	0.372313
1512.44	0.808546
1513.99	0.550589
1515.55	0.00514221
1517.11	0.133377
1518.66	0.108458
1520.22	0.505412
1521.78	0.155441
1523.33	0.627807
1524.89	0.907576
1526.44	-0.0152559
1528	0.206057
1529.55	0.464402
1531.11	0.456225
1532.66	0.657012
1534.21	0.0437593
1535.77	0.283819
1537.32	0.335106
1538.87	0.349037
1540.43	0.570612
1541.98	0.415086
1543.53	-0.0224981
1545.08	0.0858335
1546.63	0.644541
1548.18	0.582854
1549.74	0.671203
1551.29	0.497405
1552.84	0.548811
1554.39	0.320501
1555.94	0.112257
1557.48	0.204173
1559.03	0.595938
1560.58	0.26136
1562.13	0.0772166
1563.68	0.434858
1565.23	-0.065331
1566.78	-0.360334
1568.32	0.333624
1569.87	0.7288
1571.42	0.545076
1572.96	0.361135
1574.51	0.233092
1576.05	0.534428
1577.6	0.481238
1579.14	0.82042
1580.69	0.263875
1582.24	0.230635
1583.78	0.777107
1585.32	0.726449
1586.87	0.0404191
1588.41	0.438769
1589.95	0.481755
1591.5	0.449575
1593.04	0.679192
1594.58	1.05859
1596.12	0.482712
1597.67	0.60026
1599.21	0.399623
1600.75	0.874647
1602.29	0.449556
1603.83	1.07561
1605.37	1.19447
1606.91	0.203508
1608.45	0.62043
1609.99	0.471864
1611.53	0.697471
1613.07	0.940238
1614.6	0.449855
1616.14	0.841304
1617.68	0.595366
1619.22	0.72525
1620.75	0.70632
1622.29	0.856916
1623.83	-0.00288153
1625.37	0.485282
1626.9	0.355123
1628.44	0.953725
1629.97	0.97111
1631.51	0.408353
1633.04	1.17207
1634.58	0.385852
1636.11	0.328678
1637.65	0.663841
1639.18	0.495835
1640.72	0.980226
1642.25	0.867633
1643.78	0.772929
1645.31	1.40313
1646.85	0.860337
1648.38	1.0056
1649.91	0.538259
1651.44	0.962935
1652.97	0.609119
1654.5	1.2205
1656.03	0.738402
1657.56	0.497406
1659.1	1.01537
1660.62	0.902471
1662.15	0.400155
1663.68	0.8035
1665.21	0.670203
1666.74	0.51896
1668.27	0.516267
1669.8	0.809566
1671.32	0.735203
1672.85	1.17744
1674.38	0.827933
1675.91	1.36208
1677.43	0.754221
1678.96	0.403569
1680.49	1.37625
1682.01	0.785429
1683.54	0.0115223
1685.06	0.504798
1686.59	0.924365
1688.11	0.610672
1689.64	0.609021
1691.16	0.607549
1692.68	-0.0343604
1694.21	0.476626
1695.73	0.365407
1697.25	-0.0199494
1698.78	0.562698
1700.3	0.414348
1701.82	0.265807
1703.34	0.29929
1704.86	0.660084
1706.39	0.146642
1707.91	0.67003
1709.43	0.0663915
1710.95	0.516362
1712.47	0.458027
1713.99	-0.053009
1715.51	0.215211
1717.02	-0.204361
1718.54	0.352538
1720.06	0.493155
1721.58	0.0202613
1723.1	0.305695
1724.62	0.195118
1726.13	0.139649
1727.65	0.445184
1729.17	0.301368
1730.68	0.354421
1732.2	-0.073554
1733.72	0.136561
1735.23	-0.0617042
1736.75	0.0860415
1738.26	0.377082
1739.78	0.311903
1741.29	0.0817719
1742.81	-0.119687
1744.32	-0.0719481
1745.84	-0.225375
1747.35	-0.0111938
1748.86	0.350489
1750.37	0.0213876
1751.89	0.0812111
1753.4	-0.0505958
1754.91	0.195948
1756.42	0.130523
1757.93	-0.211933
1759.45	-0.235545
1760.96	0.283715
1762.47	0.184265
1763.98	0.135692
1765.49	-0.157331
1767	0.161057
1768.51	0.11015
1770.02	0.218034
1771.53	0.323898
1773.03	0.134837
1774.54	0.245608
1776.05	0.280849
1777.56	0.0471482
1779.07	0.395622
1780.57	-0.178625
1782.08	0.0423279
1783.59	0.388103
1785.09	0.0472164
1786.6	-0.406149
1788.11	0.0307851
1789.61	0.220067
1791.12	0.315272
1792.62	0.469769
1794.13	0.0626354
1795.63	-0.0207906
1797.13	-0.00671816
1798.64	-0.0465722
1800.14	-0.0892167
1801.65	0.323619
1803.15	0.0476418
1804.65	-0.072351
1806.15	-0.101439
1807.66	0.0390863
1809.16	-0.0245595
1810.66	0.300755
1812.16	0.111831
1813.66	-0.167643
1815.16	0.277326
1816.66	0.298524
1818.16	0.209931
1819.66	-0.0776758
1821.16	0.247838
1822.66	0.0102015
1824.16	0.0317211
1825.66	0.0538063
1827.16	-0.18413
1828.66	-0.0833988
1830.16	-0.12857
1831.65	-0.0185981
1833.15	-0.0542603
1834.65	0.122258
1836.14	-0.0584741
1837.64	-0.249236
1839.14	0.0343995
1840.63	0.16522
1842.13	0.107879
1843.62	-0.122636
1845.12	0.297637
1846.61	0.0823174
1848.11	-0.204712
1849.6	0.0718737
1851.1	0.195354
1852.59	0.298841
1854.08	0.0451941
1855.58	0.25951
1857.07	0.0381079
1858.56	-0.192019
1860.05	-0.17729
1861.55	0.108495
1863.04	0.115353
1864.53	0.161811
1866.02	-0.0522923
1867.51	0.168947
1869	0.120075
1870.49	-0.0383472
1871.98	-0.11076
1873.47	0.0474296
1874.96	0.0442228
1876.45	-0.164995
1877.94	0.186266
1879.43	-0.0421143
1880.92	0.0439973
1882.41	0.0116396
1882.51	0.00960398
1884	-0.0432348
1885.5	0.0776501
1886.99	0.00618887
1888.48	0.404428
1889.98	0.558801
1891.47	0.139903
1892.96	0.174541
1894.46	-0.067627
1895.95	-0.0826359
1897.44	0.216018
1898.93	0.253795
1900.42	0.273423
1901.91	0.413586
1903.41	0.117549
1904.9	0.220452
1906.39	0.270524
1907.88	0.0253067
1909.37	0.0932035
1910.86	0.144392
1912.35	0.335006
1913.83	0.127075
1915.32	-0.392836
1916.81	-0.340653
1918.3	0.491076
1919.79	0.29969
1921.27	0.194957
1922.76	-0.0306187
1924.25	0.00424051
1925.74	0.126482
1927.22	0.509209
1928.71	-0.025146
1930.19	0.15033
1931.68	-0.00378513
1933.17	0.0834694
1934.65	-0.10758
1936.14	0.288552
1937.62	0.285645
1939.11	0.161432
1940.59	-0.221412
1942.07	0.39775
1943.56	0.171861
1945.04	0.22271
1946.52	0.0669494
1948.01	0.255791
1949.49	0.0304985
1950.97	-0.040359
1952.45	-0.352711
1953.93	-0.200788
1955.42	0.0883327
1956.9	0.291492
1958.38	0.357625
1959.86	0.269866
1961.34	0.131168
1962.82	0.198419
1964.3	-0.111444
1965.78	0.0238547
1967.26	0.295432
1968.74	-0.0324745
1970.21	0.306238
1971.69	-0.175596
1973.17	0.333169
1974.65	0.363711
1976.13	-0.0658407
1977.6	0.220685
1979.08	0.166479
1980.56	0.231394
1982.03	0.126111
1983.51	-0.0811653
1984.99	0.152925
1986.46	0.26775
1987.94	-0.0582385
1989.41	-0.0278878
1990.89	-0.183246
1992.36	0.186567
1993.84	0.387696
1995.31	0.0316205
1996.78	0.267399
1998.26	0.0132403
1999.73	0.0290604
2001.2	0.246921
2002.68	0.0931382
2004.15	0.0405498
2005.62	0.0388055
2007.09	0.256568
2008.56	0.458058
2010.04	0.205569
2011.51	0.189227
2012.98	0.021452
2014.45	-0.0456076
2015.92	0.0213981
2017.39	0.44088
2018.86	0.18696
2020.33	0.168096
2021.8	0.0315847
2023.26	0.382218
2024.73	-0.256791
2026.2	-0.00552702
2027.67	-0.222939
2029.14	0.0471249
2030.61	-0.201828
2032.07	-0.0978169
2033.54	0.10734
2035.01	0.245461
2036.47	-0.00297785
2037.94	0.285751
2039.4	0.13734
2040.87	0.409075
2042.33	0.193602
2043.8	0.14676
2045.27	0.201507
2046.73	0.0211725
2048.19	0.00932169
2049.66	0.351153
2051.12	0.389052
2052.59	0.122228
2054.05	0.258763
2055.51	0.275928
2056.97	0.190899
2058.44	0.240133
2059.9	0.356574
2061.36	0.288015
2062.82	-0.402701
2064.28	0.0688372
2065.74	0.254906
2067.21	0.205996
2068.67	0.224842
2070.13	-0.0927367
2071.59	0.582938
2073.05	0.332611
2074.51	0.115708
2075.96	0.285848
2077.42	0.034719
2078.88	0.170618
2080.34	0.474552
2081.8	0.037199
2083.26	0.525313
2084.72	0.188047
2086.17	0.657889
2087.63	0.639252
2089.09	0.300986
2090.54	0.433226
2092	0.380595
2093.45	0.227274
2094.91	0.308712
2096.37	0.171806
2097.82	0.185324
2099.28	-0.0359426
2100.73	0.294751
2102.19	0.775475
2103.64	0.504719
2105.09	0.135131
2106.55	0.284073
2108	0.46706
2109.45	0.23335
2110.91	0.482803
2112.36	0.731079
2113.81	0.145133
2115.26	0.540563
2116.72	0.701887
2118.17	0.647231
2119.62	0.610277
2121.07	0.425533
2122.52	0.706764
2123.97	0.425203
2125.42	0.475823
2126.87	0.493087
2128.32	0.575903
2129.77	0.293079
2131.22	0.82109
2132.67	0.404405
2134.11	0.285941
2135.56	0.465788
2137.01	0.712677
2138.46	0.845171
2139.91	0.830384
2141.35	0.684623
2142.8	0.870409
2144.25	0.643268
2145.7	0.697397
2147.14	0.701675
2148.59	0.854539
2150.03	1.08965
2151.48	1.19151
2152.92	1.12689
2154.37	0.978765
2155.81	0.631496
2157.26	0.731601
2158.7	0.997868
2160.15	0.950419
2161.59	1.33515
2163.03	1.07509
2164.47	0.766163
2165.92	1.15475
2167.36	0.846036
2168.8	1.23435
2170.24	1.25575
2171.69	1.22558
2173.13	1.09401
2174.57	1.07781
2176.01	1.16092
2177.45	0.811837
2178.89	0.729426
2180.33	0.913759
2181.77	1.28168
2183.21	0.752162
2184.65	1.33707
2186.09	1.157
2187.53	1.15991
2188.97	1.11293
2190.4	1.08255
2191.84	1.08525
2193.28	1.10403
2194.72	1.10511
2196.16	1.10476
2197.59	0.969729
2199.03	0.900011
2200.47	0.646805
2201.9	1.40659
2203.34	0.473543
2204.77	0.587085
2206.21	0.916732
2207.64	0.716371
2209.08	0.830677
2210.51	0.28224
2211.95	0.296091
2213.38	0.755669
2214.82	0.735479
2216.25	0.814807
2217.68	0.713429
2219.12	0.514142
2220.55	0.546443
2221.98	0.331611
2223.41	0.758938
2224.85	0.509703
2226.28	0.506317
2227.71	0.600335
2229.14	0.430415
2230.57	0.801641
2232	0.401689
2233.43	0.231988
2234.86	0.3248
2236.29	0.597998
2237.72	0.300559
2239.15	0.445414
2240.58	0.673194
2242.01	0.44559
2243.44	0.545135
2244.87	0.123011
2246.29	0.369162
2247.72	0.483648
2249.15	0.319329
2250.58	0.235012
2252.01	0.00304079
2253.43	0.144907
2254.86	0.579154
2256.29	0.315663
2257.71	0.881773
2259.14	0.297884
2260.56	0.381413
2261.99	0.336937
2263.41	0.423524
2264.84	0.152937
2266.26	0.369581
2267.69	0.553328
2269.11	0.101832
2270.53	0.382019
2271.96	0.238613
2273.38	0.388164
2274.8	0.0980082
2276.23	0.231501
2277.65	0.104418
2279.07	0.531596
2280.49	0.17623
2281.91	0.0978746
2283.34	0.117307
2284.76	0.316274
2286.18	0.352269
2287.6	0.290583
2289.02	0.310843
2290.44	0.282396
2291.86	0.581072
2293.28	0.242284
2294.7	0.410386
2296.12	0.136616
2297.54	0.140954
2298.96	-0.00211525
2300.37	0.297341
2301.79	0.433304
2303.21	0.372741
2304.63	0.312231
2306.04	0.465104
2307.46	-0.154392
2308.88	0.425158
2310.3	0.0345206
2311.71	0.350639
2313.13	0.0252142
2314.54	0.259483
2315.96	0.280398
2317.37	0.367804
2318.79	0.175401
2320.2	0.0156083
2321.62	0.1849
2323.03	0.204403
2324.45	-0.107841
2325.86	0.997298
2327.27	0.269791
2328.69	0.69612
2330.1	0.463247
2331.51	0.165416
2332.92	0.18133
2334.34	0.329491
2335.75	-0.213151
2337.16	0.329616
2338.57	-1.04904e-005
2339.98	0.392839
2341.39	0.308303
2342.8	0.0265579
2344.21	0.22075
2345.63	-0.0931835
2347.04	0.183125
2348.45	0.0826297
2349.85	-0.279747
2351.26	0.0607491
2352.67	0.416328
2354.08	0.329993
2355.49	0.243309
2356.9	-0.0388303
2358.3	-0.0438957
2359.71	0.243584
2361.12	0.23838
2362.53	-0.107301
2363.93	0.406056
2365.34	0.174056
2366.75	0.120458
2368.15	0.148126
2369.56	0.192612
2370.97	0.20575
2372.37	-0.00569963
2373.77	-0.0390816
2375.18	0.169288
2376.59	0.103693
2377.99	0.471554
2379.39	0.548527
2380.8	0.335135
2382.2	0.233359
2383.6	0.0190325
2385.01	0.252935
2386.41	0.366726
2387.81	0.305374
2389.21	-0.0818229
2390.62	0.05827
2392.02	0.103476
2393.42	0.165262
2394.82	0.211689
2396.22	0.099617
2397.62	0.353618
2399.02	-0.0435438
2400.42	-0.201892
2401.82	0.0688896
2403.22	0.0537577
2404.62	0.165395
2406.02	0.0223808
2407.42	0.275481
2408.82	0.14714
2410.22	0.177191
2411.62	0.00140238
2413.01	0.07973
2414.41	0.33307
2415.81	0.429104
2417.21	0.146185
2418.6	0.259726
2420	0.246882
2421.4	0.233954
2422.79	0.141548
2424.19	-0.0778403
2425.59	-0.0437031
2426.98	0.0383468
2428.38	-0.00577879
2429.77	0.267928
2431.17	-0.0129638
2432.56	0.134615
2433.95	0.345479
2435.35	0.19028
2436.74	0.510588
2438.14	0.162465
2439.53	0.258251
2440.92	0.258029
2442.31	-0.155331
2443.71	0.526311
2445.1	-0.156817
2446.49	0.127648
2447.88	0.491
2449.27	0.315444
2450.67	-0.0181279
2452.06	-0.287752
2453.45	0.0604243
2454.84	0.187569
2456.23	0.125363
2457.62	0.0792193
2459.01	0.38094
2460.4	0.207736
2461.79	-0.0450463
2463.18	0.0178642
2464.57	0.143506
2465.95	0.205649
2467.34	0.0940266
2468.73	0.124468
2470.12	-0.176451
2471.5	0.326509
2472.89	-0.132545
2474.28	0.0538936
2475.67	-0.106471
2477.05	-0.0310869
2478.44	0.028429
2479.82	0.135039
2481.21	0.0691257
2482.6	-0.0280657
2483.98	-0.109772
2485.37	0.13649
2486.75	0.0846014
2488.13	0.125663
2489.52	0.228415
2490.9	-0.0427537
2492.29	0.231189
2493.67	-0.193467
2495.05	-0.104409
2496.44	0.062871
2497.82	-0.218666
2499.2	0.104039
2500.58	-0.146235
2501.97	0.0206184
2503.35	-0.0914435
2504.73	0.120007
2506.11	-0.27036
2507.49	-0.0751848
2508.87	0.0735197
2510.25	-0.315307
2511.63	0.355717
2513.01	0.182986
2514.39	0.317508
2515.77	0.0545239
2517.15	0.0218902
2518.53	-0.163204
2519.91	-0.210452
2521.29	-0.0745521
2522.67	0.0302076
2524.05	0.210493
2525.42	-0.204392
2526.8	0.188277
2528.18	0.0784812
2529.55	0.243332
2530.93	0.257169
2532.31	0.302631
2533.69	0.227555
2535.06	-0.0444818
2536.44	0.230398
2537.81	0.307281
2539.19	-0.224063
2540.56	0.261547
2541.94	0.336772
2543.31	0.245249
2544.69	0.381933
2546.06	0.125134
2547.44	0.157436
2548.81	0.144852
2550.18	0.117157
2551.56	0.11947
2552.93	0.0604196
2554.3	-0.105586
2555.67	0.167809
2557.04	-0.105364
2558.42	-0.120705
2559.79	0.137012
2561.16	0.288904
2562.53	0.244216
2563.9	0.169662
2565.27	0.14089
2566.64	0.112301
2568.01	-0.26479
2569.38	0.252292
2570.75	0.208629
2572.12	-0.138163
2573.49	0.182044
2574.86	-0.149504
2576.23	-0.102055
2577.6	0.0666504
2578.97	0.113916
2580.33	0.0699568
2581.7	0.298635
2583.07	-0.140091
2584.44	0.133611
2585.8	0.28595
2587.17	0.165527
2588.54	0.136198
2589.9	-0.196135
2591.27	-0.0587449
2592.64	0.0176921
2594	0.245019
2595.37	-0.134258
2596.73	0.121777
2598.1	0.029037
2599.46	-0.048749
2600.83	0.0700545
2602.19	0.14378
2603.55	-0.144368
2604.92	-0.0848241
2606.28	0.186006
2607.64	0.00404739
2609.01	-0.163272
2610.37	0.195938
2611.73	0.327925
2613.09	-0.0975275
2614.46	0.273415
2615.82	0.178231
2617.18	0.0384378
2618.54	0.393568
2619.9	0.194991
2621.26	0.161755
2622.62	-0.0204659
2623.98	-0.0828128
2625.34	-0.130189
2626.7	0.299516
2628.06	-0.0166945
2629.42	-0.0944071
2630.78	0.274196
2632.14	0.225883
2633.5	0.370715
2634.86	-0.00417948
2636.21	-0.0373921
2637.57	0.240622
2638.93	-0.118441
2640.29	-0.0477786
2641.64	-0.184013
2643	-0.11303
2644.36	0.0465522
2645.71	0.220613
2647.07	0.173015
2648.43	0.507957
2649.78	0.0176048
2651.14	-0.0900655
2652.49	-0.0802488
2653.85	-0.0996442
2655.2	0.174668
2656.56	0.171037
2657.91	-0.0805664
2659.26	0.224653
2660.62	0.281304
2661.97	0.133201
2663.32	0.247742
2664.68	-0.163918
2666.03	-0.356736
2667.38	0.222823
2668.74	0.116976
2670.09	0.0988007
2671.44	0.110107
2672.79	0.296221
2674.14	0.0469179
2675.49	-0.259764
2676.84	-0.232078
2678.19	0.0570984
2679.54	0.2597
2680.89	0.216528
2682.24	0.0147533
2683.59	0.0458002
2684.94	0.0195308
2686.29	0.182215
2687.64	0.0110703
2688.99	-0.0593638
2690.34	0.0287156
2691.69	0.0719438
2693.03	0.15758
2694.38	0.126428
2695.73	0.167635
2697.08	-0.152904
2698.42	0.367598
2699.77	0.0203619
2701.12	0.123273
2702.46	0.0824609
2703.81	0.259737
2705.15	-0.0698552
2706.5	0.252987
2707.85	0.343766
2709.19	-0.0592432
2710.54	0.10353
2711.88	0.0483294
2713.22	0.181896
2714.57	-0.149635
2715.91	-0.0597472
2717.26	-0.0280814
2718.6	-0.243882
2719.94	0.0929089
2721.29	0.327634
2722.63	0.0672026
2723.97	0.0683975
2725.31	0.345844
2726.66	0.18635
2728	0.201295
2729.34	0.0123334
2730.68	0.0997748
2732.02	0.332659
2733.36	0.0564098
2734.7	0.420351
2736.04	-0.117376
2737.38	0.159514
2738.72	0.0146151
2740.06	0.160408
2741.4	-0.0576682
2742.74	0.0727768
2744.08	0.173601
2745.42	0.244856
2746.76	0.112439
2748.09	-0.0635419
2749.43	0.326509
2750.77	-0.0667839
2752.11	-0.213131
2753.45	0.0900626
2754.78	0.103422
2756.12	0.131354
2757.46	-0.173641
2758.79	0.25998
2760.13	0.23055
2761.46	-0.102401
2762.8	0.288543
2764.14	0.0864444
2765.47	-0.0722327
2766.8	0.260684
2768.14	-0.0435829
2769.47	-0.261817
2770.81	0.285086
2772.14	0.151575
2773.48	0.046382
2774.81	-0.0590248
2776.14	-0.121063
2777.48	-0.0676165
2778.81	0.0292759
2780.14	0.0976553
2781.47	0.338506
2782.8	-0.181506
2784.14	-0.184569
2785.47	-0.0443187
2786.8	0.00994062
2788.13	-0.107288
2789.46	0.291224
2790.79	-0.454121
2792.12	-0.0832009
2793.45	0.187794
2794.78	-0.0415106
2796.11	-0.0280347
2797.44	-0.057795
2798.77	0.211917
2800.1	-0.0612359
2801.43	-0.020493
2802.76	-0.0797291
2804.09	-0.224587
2805.41	0.271332
2806.74	0.0830064
2808.07	0.406511
2809.4	0.0754676
2810.72	-0.269249
2812.05	-0.0879889
2813.38	0.0796452
2814.71	0.00713205
2816.03	-0.0643182
2817.36	0.0634675
2818.68	0.0641046
2820.01	-0.176193
2821.33	0.121793
2822.66	-0.0483918
2823.98	0.319432
2825.31	0.120252
2826.63	0.0203271
2827.96	-0.178304
2829.28	-0.149985
2830.6	-0.0364156
2831.93	0.360404
2833.25	0.219271
2834.57	0.120395
2835.9	0.290087
2837.22	0.346148
2838.54	0.302852
2839.86	0.217006
2841.18	0.739217
2842.5	0.215494
2843.83	0.455587
2845.15	0.554821
2846.47	0.428375
2847.79	0.712037
2849.11	1.02402
2850.43	0.629095
2851.75	0.827456
2853.07	0.869975
2854.39	0.799162
2855.71	0.784753
2857.03	0.770338
2858.35	0.99608
2859.66	1.23587
2860.98	1.13658
2862.3	0.797109
2863.62	1.19146
2864.94	0.922243
2866.25	1.24562
2867.57	1.17413
2868.89	0.933782
2870.2	1.17312
2871.52	1.1024
2872.84	1.01742
2874.15	1.15744
2875.47	1.3671
2876.78	1.33651
2878.1	1.64309
2879.41	1.62568
2880.73	1.59445
2882.04	1.78861
2883.36	1.21091
2884.67	1.88385
2885.99	1.5883
2887.3	1.57362
2888.61	1.27803
2889.93	1.41692
2891.24	1.70939
2892.55	1.59475
2893.86	1.55013
2895.18	1.46379
2896.49	1.76998
2897.8	1.72688
2899.11	1.44665
2900.42	1.8805
2901.73	1.89494
2903.05	1.97947
2904.36	1.56055
2905.67	1.98106
2906.98	1.81448
2908.29	1.83027
2909.6	2.16844
2910.91	2.3112
2912.21	2.11809
2913.52	2.55439
2914.83	2.52778
2916.14	2.40198
2917.45	2.28915
2918.76	2.32961
2920.07	2.64964
2921.37	2.25685
2922.68	2.81564
2923.99	2.62044
2925.29	2.98516
2926.6	3.19657
2927.91	3.07253
2929.22	3.04608
2930.52	2.89342
2931.83	2.95014
2933.13	2.88086
2934.44	3.2169
2935.74	3.03586
2937.05	3.17639
2938.35	2.99563
2939.66	3.03864
2940.96	3.05407
2942.26	3.29368
2943.57	3.01708
2944.87	2.78327
2946.18	2.53613
2947.48	2.49909
2948.78	2.44787
2950.08	2.66186
2951.39	2.49664
2952.69	2.12006
2953.99	2.24662
2955.29	2.44286
2956.59	2.3737
2957.9	2.36192
2959.2	2.01598
2960.5	2.02181
2961.8	2.19727
2963.1	2.05085
2964.4	1.37035
2965.7	1.81191
2967	1.52201
2968.3	1.6809
2969.6	1.74094
2970.9	1.70245
2972.19	1.55159
2973.49	1.40088
2974.79	1.20785
2976.09	1.61976
2977.39	1.43952
2978.68	1.44116
2979.98	1.23048
2981.28	1.5256
2982.58	1.32779
2983.87	1.14443
2985.17	1.22895
2986.47	0.963156
2987.76	0.867008
2989.06	0.813676
2990.35	0.887007
2991.65	0.931916
2992.94	0.638828
2994.24	0.766501
2995.53	0.907368
2996.83	0.682569
2998.12	0.542008
2999.42	0.47186
3000.71	0.317987
3002	0.220672
3003.3	0.628139
3004.59	0.278982
3005.88	0.125915
3007.18	0.546484
3008.47	0.476389
3009.76	-0.1955
3011.05	0.362594
3012.34	0.109778
3013.64	0.275858
3014.93	0.177092
3016.22	0.218237
3017.51	0.162383
3018.8	0.232176
3020.09	0.0933337
3021.38	0.051641
3022.67	-0.0877962
3023.96	0.258022
3025.25	0.131298
3026.54	0.1293
3027.83	-0.0661092
3029.12	0.0852046
3030.41	0.099144
3031.69	0.141704
3032.98	0.198766
3034.27	0.338818
3035.56	0.00934982
3036.84	0.106716
3038.13	0.25781
3039.42	-0.253286
3040.71	-0.0632806
3041.99	0.235382
3043.28	-0.0287919
3044.57	0.0778847
3045.85	-0.170062
3047.14	0.0757051
3048.42	0.145247
3049.71	0.420935
3050.99	0.192739
3052.28	0.128922
3053.56	0.0241919
3054.85	-0.149168
3056.13	0.23602
3057.41	0.0339632
3058.7	0.15853
3059.98	0.446135
3061.26	0.243761
3062.55	-0.0257382
3063.83	0.208986
3065.11	0.363111
3066.39	0.273509
3067.68	0.0622311
3068.96	0.245536
3070.24	0.292704
3071.52	-0.0415688
3072.8	-0.0230498
3074.08	0.157722
3075.36	0.133866
3076.65	0.0283051
3077.93	-0.144756
3079.21	0.0629444
3080.49	-0.162537
3081.77	-0.210591
3083.04	-0.0678921
3084.32	0.238151
3085.6	0.150785
3086.88	0.320949
3088.16	0.137698
3089.44	0.157541
3090.72	0.122756
3091.99	0.182834
3093.27	0.283668
3094.55	0.0592003
3095.83	-0.0294161
3097.1	-0.0908356
3098.38	0.172998
3099.66	0.152052
3100.93	-0.0721517
3102.21	0.123612
3103.49	-0.154404
3104.76	-0.0123501
3106.04	-0.0051899
3107.31	0.0567183
3108.59	-0.0295334
3109.86	-0.101549
3111.14	0.111398
3112.41	-0.121972
3113.69	0.0648313
3114.96	0.129751
3116.23	0.235076
3117.51	0.08213
3118.78	0.240346
3120.05	0.0858221
3121.33	0.201851
3122.6	0.0192194
3123.87	-0.000867367
3125.14	0.236437
3126.41	0.446769
3127.69	0.535569
3128.96	0.00253582
3130.23	0.186664
3131.5	0.330208
3132.77	0.0546646
3134.04	0.548938
3135.31	0.434851
3136.58	0.131587
3137.85	0.124947
3139.12	0.0372205
3140.39	0.285983
3141.66	0.507457
3142.93	0.392833
3144.2	0.265295
3145.47	0.218873
3146.74	0.19979
3148	0.435711
3149.27	0.189758
