200.423	-0.00435638
202.238	0.037817
204.052	0.0813904
205.868	0.733954
207.682	0.000259399
209.495	0.651402
211.308	0.765854
213.12	-0.408298
214.935	0.746013
216.746	0.0797386
218.558	0.455655
220.369	-0.184974
222.18	0.361331
223.992	-0.228328
225.802	0.173797
227.612	0.478788
229.421	0.0583878
231.23	0.820022
233.039	0.470561
234.849	0.724468
236.657	0.786671
238.465	-0.233281
240.272	-0.0210609
242.079	0.0732594
243.885	0.0967379
245.691	-0.000735283
247.497	0.140992
249.305	0.375823
251.11	-0.407652
252.915	0.495087
254.719	0.0195236
256.523	-0.432242
258.327	0.129311
260.13	0.306797
261.933	0.0769043
263.736	-0.247479
265.538	-0.329901
267.34	-0.195239
269.141	0.34868
270.943	0.361155
272.744	-0.568364
274.544	-0.101426
276.344	0.339099
278.144	0.343115
279.944	0.75384
281.743	-0.258835
283.542	-0.190251
285.34	-0.12374
287.138	0.661508
288.936	0.581783
290.733	-0.119856
292.53	-0.292305
294.327	-0.678099
296.123	0.157429
297.919	0.515431
299.715	0.25249
301.508	0.39535
303.303	0.0116653
305.098	0.605076
306.892	0.552521
308.686	0.141973
310.479	0.232698
312.273	-0.104054
314.065	0.585129
315.858	-0.176135
317.648	-0.00672913
319.44	0.760105
321.231	0.742388
323.022	0.105507
324.813	0.589792
326.604	0.358382
328.392	0.341243
330.181	0.108005
331.971	0.614396
333.76	-0.0534573
335.548	-0.0782518
337.335	0.444394
339.123	-0.327707
340.91	0.668317
342.698	0.252005
344.483	0.0747576
346.269	0.519136
348.055	0.892352
349.841	0.120045
351.625	-0.293991
353.41	0.0311356
355.195	0.354692
356.977	0.366274
358.762	0.113954
360.545	0.00329399
362.329	0.391271
364.11	0.373363
365.893	0.140674
367.675	0.809267
369.455	-0.160739
371.237	0.172858
373.017	-0.039423
374.798	-0.109991
376.578	-0.29847
378.357	0.00916195
380.137	0.317164
381.917	0.531818
383.694	-0.310778
385.473	-0.23405
387.249	0.172937
389.028	0.158097
390.806	0.214858
392.581	0.953579
394.359	0.119553
396.134	0.577547
397.91	0.0727367
399.684	-0.0331326
401.46	-0.0926132
403.234	0.105436
405.009	0.560846
406.784	0.522015
408.557	0.130185
410.331	-0.0976458
412.103	1.0592
413.876	0.573606
415.647	0.370495
417.42	0.0275574
419.191	0.225031
420.961	0.258536
422.733	-0.013443
424.502	-0.262895
426.273	0.167322
428.042	-0.0843449
429.812	0.414515
431.58	-0.189936
433.35	-0.301131
435.118	-0.0833988
436.885	-0.123897
438.653	0.515361
440.42	-0.161383
442.188	-0.1365
443.954	0.237369
445.719	0.350718
447.486	0.158039
449.251	-0.33894
451.015	0.496737
452.781	0.864467
454.545	0.182236
456.308	0.0370998
458.073	-0.224474
459.836	0.189238
461.598	-0.327057
463.362	0.181684
465.124	0.204968
466.885	0.254976
468.648	0.0526762
470.408	0.108335
472.169	0.257911
473.929	0.406763
475.69	0.483681
477.45	0.18516
479.208	0.233686
480.967	0.74676
482.727	0.048789
484.485	0.144115
486.243	0.241805
488	0.715137
489.759	0.725196
491.515	0.153038
493.272	0.32838
495.028	0.855107
496.783	1.055
498.54	0.317715
500.295	0.633798
502.05	0.644488
503.804	0.630584
505.558	0.803238
507.311	0.85675
509.064	1.00242
510.819	0.746084
512.572	0.322912
514.324	0.415521
516.076	0.694578
517.827	0.525111
519.578	0.98919
521.329	0.230057
523.08	1.4672
524.83	0.660739
526.58	0.418118
528.329	0.152333
530.08	0.425683
531.829	0.323505
533.578	0.197056
535.326	0.420194
537.074	-0.0131292
538.821	0.509851
540.568	0.44721
542.315	0.267219
544.062	0.76184
545.808	0.34899
547.554	0.00697327
549.299	-0.380311
551.044	0.206106
552.789	0.444499
554.533	0.659521
556.278	1.03603
558.019	0.835814
559.763	-0.215835
561.506	-0.183023
563.249	-0.356576
564.991	0.0914383
566.733	0.218063
568.475	0.575124
570.217	-0.145362
571.958	0.421068
573.699	0.759982
575.439	-0.779938
577.177	-0.0237579
578.917	0.665711
580.656	0.300338
582.396	-0.180115
584.134	-0.109884
585.873	0.396166
587.609	0.624922
589.347	0.254035
591.084	-0.141084
592.822	0.10736
594.558	-0.288592
596.295	-0.0862904
598.029	0.231035
599.765	0.248851
601.5	0.725725
603.235	-0.225037
604.968	0.156433
606.703	0.0993643
608.437	-0.119408
610.171	-0.200394
611.902	0.0174894
613.635	0.12149
615.368	-0.0716724
617.099	0.239615
618.831	0.435557
620.563	0.126407
622.294	0.59387
624.024	0.419543
625.755	-0.394203
627.485	0.255477
629.213	-0.142797
630.943	0.146544
632.673	-0.656885
634.4	0.412321
636.129	0.431517
637.855	0.174695
639.584	0.165681
641.312	0.198623
643.037	0.54755
644.764	-0.380812
646.491	-0.397237
648.216	-0.434156
649.942	0.168856
651.666	0.435564
653.392	0.320906
655.115	-0.426576
656.84	-0.102383
658.563	0.0641413
660.287	0.0480518
662.011	0.349796
663.732	0.214964
665.456	0.0770102
667.177	0.508311
668.899	0.36701
670.62	-0.0251579
672.342	0.202698
674.061	0.662841
675.781	-0.363365
677.502	0.170223
679.22	0.406567
680.941	0.596242
682.659	0.139832
684.379	0.209677
686.096	-0.321589
687.815	0.503883
689.532	0.176531
691.248	0.239848
692.966	0.256339
694.682	0.686516
696.4	0.14817
698.115	0.0921059
699.829	-0.218535
701.546	0.366672
703.26	0.444404
704.974	0.268517
706.689	0.528293
708.402	0.328536
710.115	0.563996
711.83	0.386517
713.542	0.437729
715.254	-0.379783
716.967	0.105535
718.679	0.521688
720.39	1.02851
722.102	0.578239
723.812	0.993453
725.522	0.589434
727.232	1.23059
728.943	0.372358
730.652	0.852785
732.361	0.652373
734.069	0.995124
735.779	0.500954
737.487	1.22758
739.194	1.09645
740.901	0.583595
742.608	0.523532
744.316	0.262587
746.022	0.408702
747.728	0.736396
749.433	0.840688
751.138	0.56423
752.843	0.334367
754.549	0.758543
756.254	0.689685
757.957	0.600171
759.661	0.534888
761.364	0.493467
763.067	0.971618
764.769	1.08894
766.471	0.369081
768.175	0.708735
769.877	0.729479
771.578	0.81561
773.279	1.0583
774.98	1.32298
776.68	1.1813
778.38	1.42563
780.079	0.97086
781.779	1.15073
783.478	1.28571
785.176	1.03462
786.875	1.39187
788.573	1.38303
790.27	1.75462
791.968	1.42157
793.665	0.928981
795.361	1.60998
797.058	1.32171
798.754	1.95934
800.45	1.22551
802.145	1.61914
803.84	1.60855
805.535	0.878452
807.23	1.45128
808.922	1.61786
810.616	1.40123
812.309	1.60982
814.002	1.88456
815.695	0.837719
817.388	1.00046
819.08	1.67706
820.772	1.43719
822.464	1.48826
824.153	2.27607
825.844	2.32933
827.535	1.2271
829.225	1.84369
830.915	1.39507
832.605	1.39542
834.292	1.10866
835.981	0.711349
837.67	1.27306
839.359	0.985497
841.047	0.963844
842.732	1.43209
844.42	1.34124
846.107	1.54172
847.794	0.805406
849.479	0.966218
851.165	1.35422
852.851	1.00571
854.534	0.971797
856.22	0.87028
857.905	1.127
859.589	0.549588
861.272	0.892371
862.956	0.0170746
864.639	0.91993
866.321	0.740192
868.004	0.830175
869.687	1.32562
871.367	0.422289
873.049	0.330631
874.731	0.960908
876.41	1.18518
878.092	0.935564
879.771	1.20496
881.451	0.25493
883.131	0.500474
884.809	0.880178
886.489	0.806701
888.166	1.13748
889.845	0.744391
891.522	0.913362
893.2	0.832734
894.878	1.15582
896.554	1.27468
898.231	1.12255
899.906	0.947166
901.583	0.793579
903.258	0.662082
904.934	0.73179
906.608	0.712346
908.283	0.649102
909.956	0.498016
911.631	0.059123
913.304	0.488725
914.976	1.1622
916.65	0.50349
918.322	0.533003
919.995	0.717569
921.666	0.946737
923.339	1.28742
925.009	1.05534
926.679	1.06871
928.351	1.50355
930.021	0.924707
931.692	0.435219
933.361	0.894818
935.029	0.582521
936.699	0.60163
938.367	1.28342
940.035	0.48901
941.704	1.04155
943.371	0.977427
945.038	0.89106
946.706	0.450112
948.372	0.735377
950.038	1.08445
951.705	0.681671
953.37	0.962884
955.035	0.959186
956.7	0.672214
958.366	1.22734
960.03	0.705012
961.693	0.426921
963.357	0.899899
965.021	0.354073
966.684	0.00370312
968.346	0.866861
970.008	0.731791
971.67	-0.178505
973.334	0.570641
974.995	0.724293
976.655	0.659032
978.316	0.529241
979.976	0.754283
981.638	0.979016
983.297	0.538051
984.957	1.15727
986.616	1.24252
988.274	0.728069
989.932	0.0798302
991.59	0.602805
993.248	0.175211
994.907	0.564967
996.565	0.0719643
998.221	0.814255
999.878	1.70965
1001.53	1.10594
1003.19	1.05266
1004.85	0.845096
1006.5	0.198169
1008.16	0.69421
1009.81	-0.0169792
1011.46	0.918047
1013.12	0.997727
1014.77	0.420713
1016.43	0.50159
1018.08	0.517373
1019.73	0.534122
1021.38	0.836358
1023.04	-0.084239
1024.69	1.16028
1026.34	0.482244
1027.99	1.24649
1029.64	1.0485
1031.29	1.70083
1032.94	1.67384
1034.59	2.08102
1036.24	2.52939
1037.89	3.47694
1039.54	4.31398
1041.19	4.80271
1042.84	5.70583
1044.48	6.30673
1046.13	6.34581
1047.78	5.9104
1049.42	4.69604
1051.07	4.87366
1052.72	3.46675
1054.36	2.58133
1056.01	2.2606
1057.66	2.52631
1059.3	1.48687
1060.94	1.55531
1062.59	0.992128
1064.23	0.775702
1065.88	0.710196
1067.52	1.27364
1069.16	1.27057
1070.81	0.441437
1072.45	0.850122
1074.09	0.91188
1075.73	0.454298
1077.38	0.12869
1079.02	0.780488
1080.66	0.392345
1082.3	0.893281
1083.94	1.02449
1085.58	0.286547
1087.22	0.0450115
1088.86	0.234348
1090.5	0.74583
1092.13	0.36865
1093.77	0.531446
1095.41	0.111583
1097.05	0.340146
1098.68	0.0745678
1100.32	0.586401
1101.96	0.454534
1103.6	0.195866
1105.23	0.283061
1106.87	0.844125
1108.5	0.480005
1110.14	0.329699
1111.77	0.30654
1113.41	0.689584
1115.04	0.662714
1116.67	-0.158628
1118.31	-0.0569048
1119.94	0.516809
1121.58	0.855524
1123.21	1.02404
1124.84	1.64298
1126.47	1.10767
1128.1	0.830255
1129.73	0.617982
1131.37	1.56095
1133	0.409165
1134.63	0.262074
1136.26	0.050149
1137.89	0.136212
1139.52	0.135351
1141.14	-0.0588799
1142.77	-0.0828371
1144.4	0.0426645
1146.03	-0.0230188
1147.66	0.104288
1149.29	0.0621176
1150.91	0.0205679
1152.54	0.106828
1154.17	0.277797
1155.79	0.618439
1157.42	-0.232754
1159.04	-0.317314
1160.67	0.300884
1162.3	0.0909939
1163.92	0.201265
1165.55	-0.453261
1167.17	0.167644
1168.79	-0.318274
1170.42	-0.083313
1172.04	0.0854616
1173.66	0.273153
1175.28	0.140829
1176.91	-0.182746
1178.53	-0.166673
1180.15	-0.0228176
1181.77	-0.131949
1183.39	0.119258
1185.01	0.349117
1186.63	0.134154
1188.25	0.529435
1189.87	0.162774
1191.49	0.0893478
1193.11	-0.469305
1194.73	-0.229558
1196.35	0.407876
1197.97	0.563101
1199.59	0.239057
1201.2	0.0647726
1202.82	-0.168697
1204.44	0.310723
1206.05	1.50181
1207.67	0.169914
1209.29	0.0694237
1210.9	0.155744
1212.52	0.823792
1214.13	0.842516
1215.75	0.108819
1217.36	0.123088
1218.97	0.302336
1220.59	0.56407
1222.2	0.432055
1223.82	0.63331
1225.43	0.111407
1227.04	0.357628
1228.65	0.584589
1230.26	0.854253
1231.88	1.37329
1233.49	0.612267
1235.1	0.596899
1236.71	1.43044
1238.32	1.00445
1239.93	0.703206
1241.54	0.174522
1243.15	1.46579
1244.76	0.811557
1246.37	0.528409
1247.97	1.40282
1249.58	1.30368
1251.19	1.01798
1252.8	1.31177
1254.41	1.29614
1256.01	1.50938
1257.62	0.876052
1259.23	1.11296
1260.83	0.999237
1262.44	1.56938
1264.04	1.43566
1265.65	1.30134
1267.25	1.70496
1268.86	1.1124
1270.46	0.331801
1272.07	1.39523
1273.67	1.17185
1275.27	1.67278
1276.88	1.71639
1278.48	2.11105
1280.08	1.38644
1281.68	1.88318
1283.28	1.6969
1284.89	1.73894
1286.49	1.51332
1288.09	1.33047
1289.69	1.7068
1291.29	1.87706
1292.89	2.17117
1294.49	2.17503
1296.09	1.88808
1297.69	2.05342
1299.29	2.40208
1300.88	2.19163
1302.48	2.55662
1304.08	2.11704
1305.68	2.6642
1307.27	1.75135
1308.87	2.70697
1310.47	2.38992
1312.06	2.09452
1313.66	2.04609
1315.25	1.59035
1316.85	2.15746
1318.44	1.60233
1320.04	1.37409
1321.63	2.2247
1323.23	1.54556
1324.82	1.41448
1326.41	0.896276
1328.01	1.69648
1329.6	2.65724
1331.19	1.73691
1332.78	1.73053
1334.38	2.15102
1335.97	2.23007
1337.56	2.06777
1339.15	1.88469
1340.74	1.80046
1342.33	1.89476
1343.92	1.58433
1345.51	1.29325
1347.1	1.74489
1348.69	1.31628
1350.28	1.07161
1351.87	1.35044
1353.46	1.37163
1355.04	1.97409
1356.63	1.27789
1358.22	1.40058
1359.81	1.30237
1361.39	0.823691
1362.98	0.942931
1364.57	0.523318
1366.15	1.39954
1367.74	1.59871
1369.32	1.24184
1370.91	2.00139
1372.49	0.752719
1374.07	0.79894
1375.66	1.12456
1377.24	0.952845
1378.83	1.15862
1380.41	0.845819
1381.99	0.531569
1383.57	0.633561
1385.16	1.62874
1386.74	1.21182
1388.32	0.815329
1389.9	0.995599
1391.48	0.680742
1393.06	0.624905
1394.64	0.0340528
1396.22	1.02958
1397.8	0.616308
1399.38	0.717337
1400.96	0.896351
1402.54	0.262887
1404.12	1.05447
1405.7	1.03512
1407.28	0.917991
1408.85	1.01932
1410.43	1.18048
1412.01	1.16379
1413.58	1.32405
1415.16	1.24629
1416.74	1.16755
1418.31	1.38403
1419.89	1.06878
1421.46	1.83808
1423.04	2.09702
1424.61	1.72816
1426.19	1.06575
1427.76	1.86051
1429.33	1.90703
1430.91	2.05082
1432.48	1.87823
1434.05	2.27498
1435.63	2.74956
1437.2	2.39833
1438.77	2.77553
1440.34	2.95738
1441.91	3.12086
1443.49	3.04947
1445.05	3.09652
1446.63	2.96693
1448.2	2.79821
1449.77	2.23663
1451.34	3.01254
1452.91	3.16012
1454.47	2.30505
1456.04	2.94489
1457.61	3.56448
1459.18	2.88355
1460.75	2.14129
1462.31	1.94777
1463.88	3.0502
1465.45	2.30252
1467.01	2.22303
1468.58	0.867911
1470.15	2.06631
1471.71	2.22546
1473.28	2.15055
1474.84	1.6845
1476.41	1.23872
1477.97	2.00867
1479.54	1.13177
1481.1	0.980154
1482.66	1.65154
1484.23	1.08815
1485.79	1.38649
1487.35	0.998292
1488.91	0.922014
1490.48	0.334894
1492.04	0.84094
1493.6	1.24583
1495.16	1.1599
1496.72	0.507758
1498.28	0.868869
1499.84	0.95762
1501.4	0.775639
1502.96	0.479115
1504.52	0.164832
1506.08	0.180526
1507.64	0.330873
1509.2	0.576343
1510.76	0.877786
1512.31	0.657096
1513.87	0.686714
1515.43	0.428106
1516.99	0.74679
1518.54	0.3561
1520.1	0.330965
1521.66	0.669681
1523.21	0.777933
1524.77	0.579552
1526.32	0.666473
1527.88	0.733033
1529.43	0.665621
1530.99	-0.0282183
1532.54	0.493938
1534.09	0.921062
1535.65	0.57288
1537.2	0.339954
1538.75	0.768954
1540.31	0.481004
1541.86	0.231414
1543.41	0.942026
1544.96	0.842532
1546.51	0.329772
1548.06	0.99994
1549.62	0.562789
1551.17	0.276548
1552.72	0.646167
1554.27	0.847964
1555.82	0.939
1557.36	0.975998
1558.91	0.567461
1560.46	0.441166
1562.01	0.689814
1563.56	0.902462
1565.11	0.835958
1566.66	1.32942
1568.2	0.236286
1569.75	0.150436
1571.3	0.904149
1572.84	0.500214
1574.39	1.16015
1575.93	0.905387
1577.48	1.13622
1579.02	1.36755
1580.57	0.77809
1582.11	0.917679
1583.66	1.3759
1585.2	1.31202
1586.75	0.762573
1588.29	1.33508
1589.83	1.25291
1591.38	1.45093
1592.92	2.06046
1594.46	1.73348
1596	1.27517
1597.54	1.60422
1599.09	1.61556
1600.63	1.5152
1602.17	2.12849
1603.71	1.95373
1605.25	1.38345
1606.79	1.31854
1608.33	1.6836
1609.87	1.21897
1611.41	1.71003
1612.95	1.72879
1614.48	1.68962
1616.02	1.98755
1617.56	1.57336
1619.1	1.55444
1620.64	0.994206
1622.17	1.07249
1623.71	0.870897
1625.25	1.4556
1626.78	1.38419
1628.32	1.14293
1629.86	1.96614
1631.39	1.64713
1632.92	1.68286
1634.46	1.40155
1635.99	1.40135
1637.53	1.51413
1639.06	1.29199
1640.59	1.92737
1642.13	1.68595
1643.66	1.68551
1645.19	2.35351
1646.73	2.08969
1648.26	1.99308
1649.79	1.78564
1651.32	2.54459
1652.85	2.39544
1654.38	1.93266
1655.92	2.45334
1657.45	1.84336
1658.98	1.67742
1660.51	1.71373
1662.04	2.39574
1663.57	1.76286
1665.09	1.44427
1666.62	1.95707
1668.15	1.71425
1669.68	1.73157
1671.21	1.7875
1672.73	1.62371
1674.26	1.84728
1675.79	1.99684
1677.31	1.74046
1678.84	1.66693
1680.37	1.24287
1681.89	0.506036
1683.42	1.75289
1684.94	0.887893
1686.47	1.05136
1687.99	1.30679
1689.52	1.3609
1691.04	0.573006
1692.57	0.609511
1694.09	0.975151
1695.61	1.23053
1697.14	0.864081
1698.66	0.22373
1700.18	0.569168
1701.7	0.0928726
1703.22	0.673636
1704.75	-0.185727
1706.27	0.575165
1707.79	0.552719
1709.31	0.039794
1710.83	0.126714
1712.35	0.159277
1713.87	0.282549
1715.39	0.31517
1716.91	0.347673
1718.43	0.199231
1719.95	0.177361
1721.46	0.678946
1722.98	0.549347
1724.5	0.00667953
1726.02	0.00628757
1727.53	0.853355
1729.05	0.261395
1730.57	0.731026
1732.08	0.926519
1733.6	0.483797
1735.12	0.256035
1736.63	0.111418
1738.15	0.223826
1739.66	-0.013936
1741.18	0.351084
1742.69	-0.0138273
1744.21	-0.108189
1745.72	0.410287
1747.23	0.236066
1748.74	-0.195317
1750.26	0.0910511
1751.77	0.487833
1753.28	0.187806
1754.8	0.0978041
1756.31	0.286844
1757.82	0.283699
1759.33	0.181722
1760.84	0.156411
1762.35	0.415993
1763.86	-0.0511866
1765.37	0.00846386
1766.88	0.150826
1768.39	0.0563316
1769.9	-0.0718422
1771.41	-0.0834646
1772.92	-0.187395
1774.43	0.308202
1775.93	0.0164385
1777.44	-0.274214
1778.95	-0.0565701
1780.46	0.172348
1781.96	-0.0808039
1783.47	0.0323114
1784.98	0.270431
1786.48	-0.158185
1787.99	0.0464182
1789.49	0.218097
1791	0.0531082
1792.5	-0.202502
1794.01	0.120435
1795.51	-0.0233231
1797.02	0.0804653
1798.52	0.00208282
1800.03	0.231016
1801.53	0.163377
1803.03	0.0990896
1804.53	0.318159
1806.04	-0.13475
1807.54	0.22644
1809.04	-0.139084
1810.54	0.0331297
1812.04	-0.355656
1813.54	0.164064
1815.05	-0.0043335
1816.55	-0.310932
1818.05	0.217024
1819.55	0.306085
1821.05	0.144498
1822.55	-0.0989676
1824.05	0.0198479
1825.54	0.249155
1827.04	0.0629425
1828.54	-0.0934038
1830.04	0.0108013
1831.54	0.195743
1833.03	-0.0773201
1834.53	0.0289087
1836.03	-0.197777
1837.52	0.00568199
1839.02	0.0934248
1840.52	0.103604
1842.01	0.101806
1843.51	0.0259838
1845	0.0935993
1846.5	0.0159636
1847.99	0.303717
1849.49	0.179231
1850.98	-0.326736
1852.47	-0.296062
1853.97	0.311291
1855.46	-0.00126839
1856.95	-0.165537
1858.45	0.0698175
1859.94	0.211816
1861.43	-0.0750713
1862.92	0.134878
1864.41	0.280706
1865.91	0.302087
1867.4	-0.0393496
1868.89	-0.0640697
1870.38	-0.0505724
1871.87	0.230438
1873.36	0.31197
1874.85	-0.250895
1876.34	-0.192575
1877.83	0.22241
1879.31	-0.115874
1880.8	0.085639
1882.29	0.125477
1882.56	0.123714
1884.05	0.228753
1885.54	0.263111
1887.04	0.470613
1888.53	0.0854673
1890.03	0.170721
1891.52	0.152682
1893.01	0.0495453
1894.5	-0.0689087
1895.99	-0.098732
1897.49	0.133223
1898.98	0.173772
1900.47	0.0217981
1901.96	0.0593567
1903.45	-0.131158
1904.94	-0.340499
1906.43	-0.324616
1907.92	0.107989
1909.41	0.0722237
1910.9	0.00283241
1912.39	0.368155
1913.88	-0.497435
1915.37	-0.356876
1916.86	0.16467
1918.35	0.165394
1919.84	-0.00764656
1921.32	0.165744
1922.81	0.149024
1924.3	0.271811
1925.78	-0.21004
1927.27	0.244137
1928.76	0.127733
1930.24	0.270991
1931.73	-0.0195885
1933.21	0.138436
1934.7	-0.0171719
1936.18	0.258017
1937.67	-0.523123
1939.15	0.285867
1940.64	0.230793
1942.12	-0.168397
1943.6	-0.0313005
1945.09	-0.117535
1946.57	0.072506
1948.05	0.262156
1949.54	-0.376044
1951.02	0.173274
1952.5	-0.0705738
1953.98	0.338681
1955.46	0.180251
1956.94	0.486123
1958.42	0.29471
1959.91	0.258719
1961.39	0.463428
1962.87	0.239693
1964.34	-0.104002
1965.82	0.117159
1967.3	0.166173
1968.78	0.231495
1970.26	0.791743
1971.74	0.138208
1973.22	0.0146465
1974.7	0.198372
1976.17	-0.0610971
1977.65	0.24204
1979.13	0.187444
1980.6	0.0648451
1982.08	0.31617
1983.56	-0.0446892
1985.03	-0.048954
1986.51	-0.070446
1987.98	0.0775394
1989.46	0.107126
1990.93	0.222034
1992.41	0.473162
1993.88	0.302562
1995.36	-0.238754
1996.83	0.386423
1998.3	0.318728
1999.78	0.351874
2001.25	0.0130568
2002.72	-0.106728
2004.2	0.296051
2005.67	0.193331
2007.14	0.108377
2008.61	0.411819
2010.08	0.480403
2011.55	0.0277348
2013.02	0.181146
2014.49	-0.0361967
2015.97	-0.0524063
2017.43	-0.019146
2018.9	0.567929
2020.37	0.246509
2021.84	0.0596094
2023.31	0.024333
2024.78	0.577201
2026.25	0.124644
2027.72	-0.275838
2029.19	0.2478
2030.65	0.437525
2032.12	0.192126
2033.59	0.182102
2035.05	0.205627
2036.52	-0.107237
2037.98	0.284868
2039.45	0.374197
2040.92	0.413063
2042.38	0.553276
2043.85	0.0384388
2045.31	0.214128
2046.78	0.306619
2048.24	0.264784
2049.71	0.289942
2051.17	0.280249
2052.63	0.167622
2054.1	0.0866785
2055.56	0.610888
2057.02	0.543272
2058.48	0.373706
2059.95	0.810474
2061.41	0.472872
2062.87	0.473069
2064.33	0.642698
2065.79	0.661984
2067.25	0.480274
2068.71	0.467509
2070.17	0.48876
2071.63	0.796272
2073.09	0.884808
2074.55	0.55207
2076.01	0.471494
2077.47	0.760983
2078.93	0.578487
2080.39	0.294457
2081.85	0.447602
2083.3	1.08808
2084.76	0.633564
2086.22	0.733607
2087.68	0.883296
2089.13	1.11639
2090.59	1.14744
2092.05	1.07763
2093.5	1.07489
2094.96	0.686145
2096.41	0.582191
2097.87	1.1308
2099.32	0.924771
2100.78	0.400976
2102.23	0.613469
2103.69	1.17726
2105.14	1.34135
2106.59	1.34014
2108.05	1.39021
2109.5	0.957077
2110.95	1.29033
2112.41	1.70507
2113.86	1.46782
2115.31	1.56176
2116.76	1.50483
2118.21	2.04635
2119.67	1.85844
2121.12	1.50725
2122.57	1.73915
2124.02	1.97273
2125.47	1.99149
2126.92	2.0099
2128.37	1.94414
2129.82	2.32409
2131.27	2.27143
2132.71	2.01919
2134.16	2.13115
2135.61	2.32667
2137.06	2.12723
2138.51	1.97978
2139.95	1.80163
2141.4	2.56767
2142.85	2.40962
2144.29	2.26881
2145.74	2.80661
2147.19	2.28478
2148.63	2.44084
2150.08	2.77809
2151.52	2.51769
2152.97	3.11757
2154.42	2.65596
2155.86	2.97247
2157.3	3.58718
2158.75	2.61262
2160.19	3.06438
2161.64	3.02151
2163.08	3.21314
2164.52	2.84294
2165.96	2.75554
2167.41	3.36568
2168.85	3.32683
2170.29	3.08593
2171.73	2.95854
2173.17	3.34428
2174.61	3.29566
2176.06	2.8139
2177.5	2.99767
2178.94	3.11589
2180.38	2.93612
2181.82	2.957
2183.26	3.07841
2184.7	2.70123
2186.14	2.92291
2187.57	3.01156
2189.01	2.51782
2190.45	3.0226
2191.89	2.96113
2193.33	2.54902
2194.76	2.21844
2196.2	2.2186
2197.64	2.49914
2199.08	2.26175
2200.51	3.05351
2201.95	2.1505
2203.38	2.44412
2204.82	2.02579
2206.25	1.95717
2207.69	2.2537
2209.12	2.28479
2210.56	2.38106
2211.99	2.22783
2213.43	1.94163
2214.86	2.0521
2216.3	2.2457
2217.73	2.19303
2219.16	1.77916
2220.59	1.76227
2222.03	1.71256
2223.46	1.43136
2224.89	1.16523
2226.32	1.53918
2227.75	1.53244
2229.19	1.55702
2230.62	1.515
2232.05	1.01402
2233.48	1.30013
2234.91	1.16139
2236.34	0.991595
2237.77	0.954482
2239.2	0.723757
2240.63	1.35995
2242.06	1.08465
2243.48	1.02281
2244.91	0.651429
2246.34	0.964355
2247.77	1.04709
2249.2	0.573054
2250.62	0.911615
2252.05	0.564062
2253.48	1.2732
2254.9	0.486717
2256.33	0.628478
2257.76	1.04851
2259.18	0.676596
2260.61	0.843369
2262.03	0.477299
2263.46	0.648556
2264.88	0.820307
2266.31	0.487759
2267.73	0.365477
2269.16	0.388562
2270.58	0.150329
2272	0.334794
2273.43	0.405149
2274.85	0.768848
2276.27	0.220469
2277.69	1.00845
2279.12	0.753552
2280.54	0.579983
2281.96	0.16151
2283.38	0.786881
2284.8	0.46611
2286.22	0.56981
2287.64	0.608655
2289.07	0.190664
2290.49	0.655152
2291.91	0.0904427
2293.32	0.42486
2294.74	-0.140354
2296.16	0.406923
2297.58	0.397827
2299	0.618133
2300.42	0.855229
2301.84	0.141776
2303.26	0.0513506
2304.67	0.256452
2306.09	0.37956
2307.51	-0.121984
2308.92	0.411057
2310.34	-0.157879
2311.76	-0.118988
2313.17	0.199612
2314.59	0.584688
2316	0.163989
2317.42	-0.272768
2318.83	0.328983
2320.25	0.155925
2321.66	-0.298998
2323.08	0.234127
2324.49	0.121227
2325.91	0.517432
2327.32	0.862018
2328.73	0.595614
2330.15	0.576799
2331.56	0.641303
2332.97	0.410748
2334.38	0.279965
2335.79	-0.179519
2337.21	0.133707
2338.62	0.0346928
2340.03	0.279622
2341.44	0.260514
2342.85	-0.0380888
2344.26	-0.10673
2345.67	-0.420831
2347.08	0.13382
2348.49	-0.212472
2349.9	0.193745
2351.31	-0.0389385
2352.72	0.168689
2354.13	0.423875
2355.53	0.237719
2356.94	0.0841551
2358.35	0.0122128
2359.76	-0.0431976
2361.17	0.0638943
2362.57	-0.250789
2363.98	0.163867
2365.39	-0.037179
2366.79	-0.140642
2368.2	0.0634747
2369.6	0.268309
2371.01	-0.154421
2372.42	-0.140271
2373.82	0.406279
2375.22	0.147951
2376.63	0.452542
2378.03	0.337553
2379.44	0.44598
2380.84	-0.202057
2382.25	0.143914
2383.65	0.0557423
2385.05	0.415396
2386.45	0.431145
2387.86	0.447834
2389.26	0.202721
2390.66	0.357656
2392.06	-0.155024
2393.46	0.479568
2394.87	0.335124
2396.27	-0.078702
2397.67	0.239481
2399.07	0.160873
2400.47	0.36877
2401.87	0.386325
2403.27	-0.199571
2404.67	0.262299
2406.07	0.342041
2407.47	0.0399132
2408.86	0.0544128
2410.26	0.385572
2411.66	0.558207
2413.06	0.0664568
2414.46	0.0355129
2415.85	0.2594
2417.25	-0.0535793
2418.65	0.0776615
2420.05	0.51023
2421.44	0.451769
2422.84	0.535486
2424.23	0.111887
2425.63	0.401348
2427.03	0.247682
2428.42	0.316814
2429.82	0.513888
2431.21	0.331075
2432.6	-0.0105238
2434	0.28229
2435.39	0.00217819
2436.79	0.419499
2438.18	0.485662
2439.57	0.375662
2440.97	0.423529
2442.36	0.423156
2443.75	0.24792
2445.14	-0.165278
2446.54	0.0875893
2447.93	0.0706854
2449.32	-0.0570984
2450.71	0.211292
2452.1	0.400902
2453.49	0.21148
2454.88	-0.150972
2456.27	0.325771
2457.66	-0.0197544
2459.05	0.283074
2460.44	0.126597
2461.83	0.238101
2463.22	-0.0464363
2464.61	0.553371
2466	0.189029
2467.39	0.282673
2468.77	0.376172
2470.16	-0.161467
2471.55	0.688044
2472.94	0.0708179
2474.32	-0.0899019
2475.71	-0.203865
2477.1	0.184916
2478.48	0.149
2479.87	0.160391
2481.25	-0.173008
2482.64	0.152056
2484.02	0.382164
2485.41	0.25119
2486.8	0.462965
2488.18	0.282961
2489.56	0.0402775
2490.95	0.18716
2492.33	0.194328
2493.72	0.233676
2495.1	0.0882235
2496.48	0.145838
2497.86	-0.0435619
2499.25	0.200952
2500.63	0.0426178
2502.01	0.316423
2503.39	0.264456
2504.77	0.381297
2506.16	-0.0882654
2507.54	0.135526
2508.92	0.25134
2510.3	-0.185489
2511.68	0.0389252
2513.06	-0.0121775
2514.44	-0.200145
2515.82	-0.0808372
2517.2	-0.129157
2518.58	0.11361
2519.95	0.157649
2521.33	-0.0735502
2522.71	-0.0914831
2524.09	-0.186514
2525.47	0.266509
2526.84	0.0180597
2528.22	0.0747471
2529.6	0.0260696
2530.98	-0.416069
2532.35	0.450508
2533.73	-0.125093
2535.11	0.333202
2536.48	0.10776
2537.86	-0.0424032
2539.23	-0.0568218
2540.61	0.535218
2541.98	0.215842
2543.36	0.079051
2544.73	0.458973
2546.1	0.203074
2547.48	-0.0363598
2548.85	-0.0322332
2550.23	0.366467
2551.6	0.324659
2552.97	0.205984
2554.34	-0.0655241
2555.72	0.162801
2557.09	0.0870876
2558.46	0.11743
2559.83	0.148038
2561.2	-0.0633097
2562.58	0.135239
2563.95	0.197978
2565.32	0.321782
2566.69	0.354929
2568.06	0.0244465
2569.43	0.391118
2570.8	0.121242
2572.17	0.0181122
2573.54	0.142436
2574.91	0.206236
2576.27	0.209434
2577.64	0.106417
2579.01	-0.0120163
2580.38	0.202773
2581.75	0.356472
2583.11	-0.581861
2584.48	-0.140712
2585.85	-0.124131
2587.21	0.256326
2588.58	0.288342
2589.95	0.244699
2591.31	0.155459
2592.68	0.353627
2594.04	0.126705
2595.41	0.459133
2596.78	0.275555
2598.14	0.136708
2599.51	0.526784
2600.87	0.145926
2602.23	-0.00745583
2603.6	0.126811
2604.96	0.0955658
2606.32	-0.131557
2607.69	-0.0271263
2609.05	-0.194935
2610.41	-0.0173616
2611.77	0.0532541
2613.14	0.242828
2614.5	0.296047
2615.86	0.318873
2617.22	0.177015
2618.58	0.470384
2619.94	0.404958
2621.3	0.190906
2622.67	0.00759506
2624.03	-0.0408478
2625.39	0.179316
2626.75	0.0559444
2628.1	0.304925
2629.46	-0.325265
2630.82	0.235527
2632.18	-0.0520296
2633.54	0.0767365
2634.9	0.264629
2636.26	-0.215151
2637.61	-0.0421848
2638.97	0.0121098
2640.33	-0.0222864
2641.69	-0.0711403
2643.04	-0.282139
2644.4	0.112591
2645.76	-0.245676
2647.11	0.310124
2648.47	0.260418
2649.82	0.239365
2651.18	0.32054
2652.53	-0.0393372
2653.89	-0.310218
2655.24	-0.0521679
2656.6	-0.130281
2657.95	0.436887
2659.31	-0.0781584
2660.66	0.372744
2662.01	0.0484943
2663.37	0.0452995
2664.72	0.128846
2666.07	-0.138548
2667.43	0.235214
2668.78	0.0549536
2670.13	0.00622082
2671.48	0.452444
2672.83	0.230371
2674.18	0.241581
2675.53	0.238871
2676.89	0.613984
2678.24	0.583449
2679.59	0.0608587
2680.94	0.235455
2682.29	0.179322
2683.64	0.109924
2684.99	0.201039
2686.34	0.0460243
2687.68	0.471309
2689.03	0.227732
2690.38	0.417859
2691.73	0.112526
2693.08	-0.0200882
2694.43	-0.0375528
2695.77	-0.185603
2697.12	0.130668
2698.47	0.0425692
2699.81	0.289268
2701.16	-0.316571
2702.51	0.252113
2703.85	0.170197
2705.2	0.219231
2706.54	0.340878
2707.89	0.143121
2709.23	0.423836
2710.58	0.181561
2711.92	0.0114851
2713.27	-0.028059
2714.61	0.193948
2715.96	-0.19466
2717.3	0.070859
2718.64	0.743597
2719.99	0.543184
2721.33	0.0656977
2722.67	0.388103
2724.01	0.477171
2725.36	0.172774
2726.7	0.508421
2728.04	0.101444
2729.38	0.189075
2730.72	0.363842
2732.06	0.465792
2733.41	0.407801
2734.75	0.320919
2736.09	0.248812
2737.43	0.220488
2738.77	0.00308037
2740.11	0.250792
2741.44	0.178075
2742.78	0.221008
2744.12	0.33586
2745.46	0.261127
2746.8	0.345743
2748.14	0.197852
2749.48	0.470901
2750.81	-0.0102167
2752.15	0.248676
2753.49	-0.043088
2754.83	-0.073698
2756.16	0.576582
2757.5	0.459249
2758.84	0.110647
2760.17	-0.107137
2761.51	0.196602
2762.84	0.0956202
2764.18	-0.135247
2765.51	0.082408
2766.85	-0.322518
2768.18	0.15407
2769.52	0.267584
2770.85	0.336112
2772.19	-0.116749
2773.52	0.223636
2774.85	0.130392
2776.19	0.123695
2777.52	0.0886173
2778.85	0.111689
2780.18	0.0921545
2781.52	0.245307
2782.85	-0.233098
2784.18	0.336002
2785.51	0.259398
2786.84	0.140131
2788.17	0.0215406
2789.51	-0.0818119
2790.84	-0.312878
2792.17	-0.299958
2793.5	0.113665
2794.83	0.155559
2796.16	0.139929
2797.48	-0.147643
2798.81	0.192661
2800.14	0.0898199
2801.47	-0.298503
2802.8	-0.230386
2804.13	0.264914
2805.46	0.00436687
2806.79	-0.0287523
2808.11	-0.0340195
2809.44	-0.0112772
2810.77	0.0824776
2812.09	-0.0219393
2813.42	0.272062
2814.75	0.156176
2816.07	0.0560312
2817.4	0.254705
2818.73	0.184676
2820.05	-0.182992
2821.38	0.256763
2822.7	0.469004
2824.03	0.0571222
2825.35	0.594099
2826.67	0.521946
2828	0.195536
2829.32	0.351137
2830.65	0.507207
2831.97	0.748422
2833.29	0.86216
2834.62	0.635843
2835.94	0.776999
2837.26	1.04487
2838.58	1.35458
2839.9	1.66391
2841.23	1.73285
2842.55	2.19804
2843.87	2.45186
2845.19	2.62173
2846.51	2.82063
2847.83	3.64184
2849.15	3.31831
2850.47	3.27707
2851.79	3.3624
2853.11	3.82865
2854.43	3.43234
2855.75	3.50214
2857.07	3.82619
2858.39	4.0231
2859.71	4.30466
2861.02	4.14818
2862.34	4.42897
2863.66	4.27163
2864.98	4.89008
2866.3	4.50663
2867.61	4.96989
2868.93	4.70034
2870.25	5.27729
2871.56	5.45959
2872.88	5.64145
2874.19	5.45589
2875.51	5.48029
2876.83	5.78479
2878.14	5.63761
2879.46	5.77149
2880.77	5.54021
2882.09	5.84413
2883.4	5.98069
2884.71	6.18869
2886.03	6.20088
2887.34	6.24122
2888.65	5.93013
2889.97	6.33354
2891.28	6.28681
2892.59	6.30936
2893.91	6.30366
2895.22	6.39649
2896.53	5.98648
2897.84	6.71158
2899.15	6.92012
2900.46	6.58411
2901.78	7.0881
2903.09	6.79501
2904.4	7.34137
2905.71	7.18874
2907.02	7.28866
2908.33	7.55758
2909.64	8.17754
2910.95	8.00086
2912.26	7.5301
2913.57	8.52811
2914.87	7.83023
2916.18	8.41793
2917.49	8.63933
2918.8	8.18765
2920.11	9.02277
2921.42	8.78173
2922.72	9.14366
2924.03	8.90643
2925.34	9.6912
2926.64	9.65214
2927.95	9.79486
2929.26	9.50364
2930.56	9.96653
2931.87	9.82759
2933.17	10.1775
2934.48	9.64682
2935.78	9.89901
2937.09	9.85791
2938.39	9.88696
2939.7	9.79063
2941	9.10815
2942.31	9.25132
2943.61	9.06077
2944.91	8.36875
2946.22	8.46107
2947.52	8.26045
2948.82	8.33926
2950.13	7.68847
2951.43	8.05721
2952.73	7.75127
2954.03	7.90549
2955.33	6.96731
2956.64	7.16427
2957.94	7.15397
2959.24	7.00724
2960.54	6.89206
2961.84	6.72333
2963.14	6.3589
2964.44	6.02125
2965.74	5.73756
2967.04	5.57802
2968.34	5.69788
2969.64	4.83252
2970.94	5.11995
2972.24	4.57781
2973.53	4.93643
2974.83	4.49285
2976.13	4.27356
2977.43	4.30614
2978.73	4.20997
2980.02	3.6754
2981.32	3.56178
2982.62	3.60232
2983.91	3.58697
2985.21	3.02479
2986.51	2.75964
2987.8	2.84743
2989.1	2.45853
2990.4	2.53363
2991.69	2.4817
2992.99	2.1897
2994.28	1.58729
2995.57	2.16386
2996.87	2.47241
2998.16	1.62974
2999.46	2.03646
3000.75	1.44792
3002.05	1.67337
3003.34	1.1985
3004.63	1.25633
3005.92	1.2298
3007.22	0.796681
3008.51	0.922733
3009.8	0.893903
3011.09	1.22759
3012.39	1.07168
3013.68	0.762539
3014.97	0.747037
3016.26	0.71835
3017.55	0.662628
3018.84	0.524008
3020.13	0.524672
3021.42	0.330284
3022.71	0.371392
3024	0.480813
3025.29	0.436751
3026.58	-0.0506439
3027.87	0.1552
3029.16	0.195898
3030.45	0.55582
3031.73	0.240192
3033.02	0.146766
3034.31	0.219308
3035.6	0.291243
3036.89	0.334186
3038.17	0.402775
3039.46	0.386714
3040.75	0.286592
3042.03	0.350501
3043.32	0.331944
3044.61	0.505944
3045.89	0.476181
3047.18	0.25751
3048.46	0.164423
3049.75	0.44206
3051.03	0.584745
3052.32	0.196086
3053.6	0.0803685
3054.89	0.509713
3056.17	0.514975
3057.45	0.559985
3058.74	0.304384
3060.02	0.729583
3061.31	-0.0563998
3062.59	0.492303
3063.87	0.634108
3065.15	0.396817
3066.44	-0.124504
3067.72	0.334048
3069	0.493934
3070.28	0.136745
3071.56	0.268275
3072.84	-0.158994
3074.13	-0.0570869
3075.41	0.369909
3076.69	0.0356641
3077.97	0.177235
3079.25	0.265501
3080.53	0.19247
3081.81	-0.0281806
3083.09	0.0915565
3084.37	-0.140793
3085.64	0.196831
3086.92	-0.0495539
3088.2	0.029088
3089.48	0.147745
3090.76	0.265902
3092.04	-0.0909629
3093.31	0.135708
3094.59	0.430389
3095.87	-0.413671
3097.14	0.044034
3098.42	-0.189718
3099.7	0.0236492
3100.97	-0.0747418
3102.25	-0.0240512
3103.53	-0.108495
3104.8	0.349022
3106.08	-0.180801
3107.35	0.0617347
3108.63	0.156445
3109.9	0.0627499
3111.18	0.0783095
3112.45	0.0540066
3113.73	0.450183
3115	0.209496
3116.27	-0.0454111
3117.55	-0.0164809
3118.82	0.241979
3120.09	0.065311
3121.37	0.023375
3122.64	-0.452765
3123.91	-0.0481982
3125.18	0.0583067
3126.45	0.219314
3127.73	0.164297
3129	0.123361
3130.27	-0.0524063
3131.54	0.204561
3132.81	0.17747
3134.08	0.163535
3135.35	0.297585
3136.62	0.188056
3137.89	-0.0296745
3139.16	0.19709
3140.43	0.0195498
3141.7	0.420601
3142.97	0.351018
3144.24	0.0672407
3145.51	0.374743
3146.78	0.61547
3148.04	0.561824
3149.31	0.294614
