200.554	0.1614
202.369	0.20056
204.183	0.242161
205.999	0.383661
207.813	1.4011
209.626	0.52128
211.439	0.538557
213.253	0.431665
215.065	0.152794
216.877	0.212603
218.688	0.490789
220.5	0.964048
222.312	0.350889
224.123	0.683659
225.933	0.896921
227.742	0.144165
229.552	0.35718
231.361	-0.0344353
233.171	-0.956768
234.98	0.485836
236.787	-0.359186
238.595	0.126987
240.402	-0.176058
242.209	0.297905
244.015	0.79969
245.822	0.143318
247.627	-0.203373
249.435	1.20629
251.24	0.145651
253.045	-0.0519657
254.849	0.325638
256.653	0.0512238
258.457	1.36982
260.26	0.0658703
262.063	0.887062
263.866	-0.142559
265.668	0.468672
267.47	-0.220396
269.271	0.343084
271.073	0.133387
272.873	-0.0790234
274.674	0.0910549
276.474	0.570646
278.274	0.635931
280.073	-0.0261726
281.872	-0.331236
283.671	0.129391
285.47	0.00931931
287.268	0.247789
289.065	0.342098
290.863	0.414253
292.66	-0.276299
294.456	0.090374
296.253	-0.0418034
298.049	0.712999
299.844	0.369555
301.637	0.407982
303.432	0.253395
305.227	0.573288
307.021	0.60449
308.815	1.11199
310.609	0.238609
312.402	0.512159
314.195	1.19447
315.987	0.428837
317.777	0.834377
319.569	-0.137798
321.36	0.0360794
323.151	0.736658
324.942	0.00736427
326.733	0.423552
328.521	1.03077
330.31	1.30242
332.1	0.160202
333.889	0.328878
335.677	1.21039
337.464	0.483053
339.252	1.76047
341.039	0.187479
342.826	-0.0714169
344.611	0.338829
346.398	-0.0142536
348.184	-0.389341
349.97	-0.0230446
351.754	1.25003
353.539	0.564476
355.324	0.616182
357.106	0.473854
358.89	0.304649
360.674	0.680601
362.455	-0.231203
364.239	-0.525181
366.021	-0.392761
367.804	0.473295
369.584	0.363447
371.366	-0.790371
373.145	-0.0033741
374.926	0.497398
376.707	0.0530548
378.485	0.0353527
380.265	-0.404148
382.045	0.407269
383.822	0.632519
385.601	-0.0796719
387.378	-0.177435
389.156	0.432194
390.934	0.902937
392.71	0.107321
394.487	0.0412235
396.262	0.304691
398.038	-0.0657444
399.813	-0.225355
401.588	-0.268597
403.362	0.485161
405.137	0.532459
406.912	-0.502266
408.685	-0.387693
410.459	0.94663
412.23	-0.0663204
414.004	-0.702515
415.775	-0.140394
417.548	0.376644
419.318	0.754389
421.089	0.475576
422.86	0.313387
424.63	1.18233
426.401	-0.22814
428.17	0.847786
429.94	-0.589178
431.708	0.931286
433.478	0.433958
435.245	-0.34425
437.012	-0.0195465
438.781	-0.189436
440.547	0.38805
442.315	1.14799
444.081	0.729731
445.846	-0.0438004
447.613	0.889566
449.378	1.53959
451.142	0.693506
452.908	1.01674
454.672	0.943419
456.435	0.240849
458.2	0.0280151
459.963	0.746437
461.725	0.326065
463.489	-0.090086
465.251	0.89374
467.012	0.559725
468.775	0.905979
470.536	0.187046
472.296	-0.15914
474.056	1.16878
475.817	0.280819
477.576	0.319048
479.335	0.166574
481.094	0.61743
482.854	1.18505
484.612	0.823866
486.37	0.51375
488.127	0.884308
489.886	0.443766
491.642	0.518497
493.398	0.571436
495.154	1.27973
496.91	0.233301
498.667	0.754101
500.422	0.10202
502.176	0.808571
503.93	1.06773
505.684	0.172672
507.438	0.942951
509.191	0.369211
510.946	1.13252
512.698	0.221415
514.45	1.07148
516.202	0.48295
517.954	0.526798
519.705	1.13235
521.456	0.701708
523.206	0.0354767
524.956	1.03581
526.706	0.697868
528.456	1.15743
530.207	1.38182
531.956	1.01937
533.704	1.52133
535.452	1.41154
537.2	1.27505
538.947	1.67227
540.694	0.736549
542.441	1.24507
544.188	1.33269
545.934	1.07148
547.68	0.904108
549.425	1.47942
551.17	0.548887
552.915	1.21669
554.659	1.28275
556.403	0.472216
558.145	1.18607
559.889	1.60023
561.632	0.334675
563.375	1.74053
565.117	0.709402
566.859	0.668844
568.601	-0.0584908
570.342	0.272882
572.083	0.561354
573.824	0.234259
575.565	1.1501
577.303	0.372173
579.043	0.446159
580.782	0.131458
582.521	0.712788
584.26	-0.178093
585.998	0.514771
587.734	0.169827
589.472	0.53512
591.21	0.0239372
592.947	0.063694
594.684	-0.380087
596.418	-0.0185509
598.154	-0.531424
599.89	-0.562052
601.626	0.532497
603.361	0.910646
605.094	0.526381
606.828	1.08137
608.562	-0.662533
610.296	0.257467
612.027	0.672958
613.761	0.447929
615.493	0.774668
617.224	0.964035
618.956	0.350365
620.688	1.03932
622.419	1.42706
624.149	0.394966
625.879	-0.27018
627.61	0.894363
629.338	0.00871849
631.068	0.817448
632.797	0.375904
634.525	0.963665
636.254	0.86586
637.98	0.193089
639.708	-0.0294743
641.436	0.950031
643.162	0.60063
644.889	0.294453
646.614	0.67211
648.34	0.508173
650.067	0.420059
651.791	0.136539
653.516	0.316534
655.239	-0.269026
656.964	-0.304003
658.687	-0.587795
660.411	0.929447
662.133	0.367311
663.857	0.0959759
665.58	0.527466
667.301	0.909023
669.024	1.08317
670.744	0.412918
672.464	0.433336
674.186	-0.0902328
675.905	-0.839067
677.626	0.0195217
679.345	0.053175
681.065	0.774256
682.783	-0.210293
684.503	-0.441305
686.22	0.290176
687.939	1.06447
689.656	0.339182
691.372	0.625643
693.09	0.196508
694.806	0.295404
696.523	0.0234852
698.239	0.0712547
699.953	0.645327
701.67	0.0432243
703.384	-0.123646
705.098	0.397072
706.813	0.227306
708.526	0.767691
710.239	1.7416
711.954	0.515274
713.666	0.50259
715.378	-0.447451
717.091	-0.0261135
718.802	-0.175558
720.513	1.06582
722.226	0.142149
723.936	-0.643328
725.646	0.118004
727.355	-0.076582
729.067	0.000455856
730.776	1.18714
732.484	0.807997
734.192	1.17572
735.902	1.67841
737.61	-0.189764
739.317	0.85713
741.024	2.15246
742.731	1.37647
744.439	0.582094
746.145	0.0392742
747.851	0.782238
749.556	-0.338985
751.262	-0.0401669
752.966	0.329014
754.673	0.881386
756.377	0.51474
758.081	1.52479
759.784	0.804485
761.487	0.31119
763.19	1.2624
764.892	0.927233
766.594	1.67356
768.296	1.19568
770	1.75261
771.701	0.948212
773.402	1.54265
775.102	1.97776
776.803	1.75848
778.503	1.36134
780.202	1.60082
781.901	1.41308
783.6	1.3386
785.299	1.37461
786.997	1.06566
788.695	1.47387
790.393	1.48977
792.09	1.45434
793.787	1.0316
795.484	1.12794
797.18	0.64027
798.877	0.292192
800.572	0.578691
802.268	0.980463
803.963	0.123985
805.658	1.7855
807.35	1.12936
809.044	1.12247
810.738	-0.0539398
812.432	1.23591
814.125	1.91753
815.818	0.761864
817.51	1.97891
819.202	1.004
820.894	1.3262
822.584	2.05043
824.275	1.28163
825.966	2.29971
827.657	1.60681
829.347	1.03199
831.037	1.55534
832.725	1.68435
834.414	2.37555
836.103	1.90994
837.792	2.02351
839.481	1.19662
841.167	1.70572
842.854	1.11735
844.542	1.48864
846.229	1.25827
847.914	2.14992
849.6	1.66103
851.287	0.68453
852.973	3.20735
854.656	2.66331
856.341	2.99372
858.026	2.66998
859.711	1.01396
861.393	2.18866
863.077	1.7163
864.761	1.75893
866.442	1.32606
868.125	2.5827
869.808	1.8541
871.489	1.68845
873.171	1.68023
874.85	1.49136
876.532	0.760862
878.213	1.70042
879.892	1.26303
881.572	0.960144
883.251	1.69404
884.931	2.44786
886.61	1.70851
888.287	2.38723
889.966	0.648695
891.643	1.568
893.321	1.85238
894.997	1.54855
896.675	1.1753
898.352	1.18219
900.028	1.29909
901.704	2.08589
903.379	1.28091
905.055	1.37135
906.729	0.792671
908.404	1.33146
910.077	1.00273
911.75	1.16618
913.425	0.353045
915.097	1.20748
916.771	1.12877
918.443	2.06951
920.116	1.23755
921.787	1.29335
923.46	0.62237
925.13	2.20927
926.8	1.30404
928.472	1.6395
930.141	1.8012
931.813	2.09682
933.481	2.1283
935.15	1.34412
936.82	1.42133
938.488	1.47862
940.156	0.921286
941.825	0.962275
943.492	0.585707
945.158	0.782419
946.827	1.44004
948.493	0.636513
950.158	1.68258
951.824	0.827988
953.491	0.922579
955.156	0.756359
956.82	0.574654
958.486	0.135693
960.15	0.651791
961.814	0.332657
963.477	0.498966
965.142	0.307602
966.804	0.463881
968.467	-0.337626
970.129	0.515558
971.79	0.127968
973.454	0.206125
975.115	0.0444698
976.776	0.218746
978.436	1.0602
980.096	0.775057
981.756	0.488762
983.417	1.32819
985.077	0.480604
986.736	0.91209
988.394	1.53823
990.052	1.76283
991.71	0.858631
993.368	2.25211
995.025	2.03289
996.682	0.975922
998.341	2.8084
999.998	1.75159
1001.65	2.58893
1003.31	2.12576
1004.97	1.68446
1006.62	0.716167
1008.28	0.408363
1009.93	1.15508
1011.58	0.388798
1013.24	0.347799
1014.89	0.592537
1016.54	0.597208
1018.2	0.449982
1019.85	0.829737
1021.5	-0.0125866
1023.16	1.09351
1024.81	1.21805
1026.46	1.01618
1028.11	0.989157
1029.76	1.00429
1031.41	1.40958
1033.06	1.76702
1034.71	1.70555
1036.36	2.44746
1038.01	3.25161
1039.66	3.0749
1041.31	3.72678
1042.95	3.68576
1044.6	5.1486
1046.25	4.3569
1047.9	4.69998
1049.54	4.548
1051.19	3.13962
1052.84	2.64532
1054.48	3.54247
1056.13	3.76624
1057.77	4.77194
1059.42	4.21119
1061.06	5.54034
1062.71	3.43177
1064.35	3.97355
1066	3.07762
1067.64	1.5925
1069.28	2.79986
1070.93	0.942768
1072.57	1.6918
1074.21	1.59529
1075.85	1.65331
1077.49	1.97488
1079.13	1.93086
1080.78	1.49838
1082.42	1.43446
1084.06	1.88868
1085.7	2.68548
1087.34	1.48318
1088.97	2.35576
1090.61	2.46546
1092.25	2.52879
1093.89	2.97953
1095.53	2.84748
1097.17	2.26527
1098.8	2.24753
1100.44	1.82533
1102.08	0.999546
1103.71	1.94264
1105.35	1.12487
1106.99	0.717264
1108.62	0.588526
1110.26	0.629192
1111.89	1.59022
1113.52	2.52491
1115.16	1.58778
1116.79	1.27264
1118.43	1.68714
1120.06	0.946041
1121.69	1.85697
1123.32	2.02064
1124.96	3.87686
1126.59	4.02319
1128.22	4.06466
1129.85	2.93211
1131.48	1.67307
1133.11	0.84251
1134.75	0.845407
1136.37	1.46652
1138	0.674585
1139.63	0.820061
1141.26	0.173122
1142.89	0.16584
1144.52	0.308275
1146.15	0.00461769
1147.78	-0.871876
1149.4	0.555058
1151.03	0.597946
1152.66	0.683386
1154.28	-0.445511
1155.91	0.255634
1157.54	0.764618
1159.16	-0.491068
1160.79	0.424898
1162.41	0.34396
1164.04	-0.818911
1165.66	-0.0883255
1167.29	0.0462608
1168.91	0.816057
1170.53	-0.097599
1172.16	0.238266
1173.78	-0.619287
1175.4	0.027813
1177.02	0.291237
1178.65	0.0464706
1180.27	-0.302046
1181.89	0.473137
1183.51	-0.378874
1185.13	-0.490395
1186.75	-0.308414
1188.37	0.818871
1189.99	0.316483
1191.61	0.0422649
1193.23	-0.0455208
1194.85	0.767796
1196.47	0.509909
1198.08	0.862225
1199.7	0.590647
1201.32	1.16108
1202.94	1.23609
1204.55	0.628706
1206.17	0.527565
1207.79	-0.238037
1209.4	0.206959
1211.02	0.670689
1212.63	0.421209
1214.25	1.12518
1215.86	0.115541
1217.48	1.22518
1219.09	1.18741
1220.71	1.60621
1222.32	0.118145
1223.93	0.541971
1225.54	1.38283
1227.16	1.56416
1228.77	1.04554
1230.38	2.01902
1231.99	1.75471
1233.6	1.05947
1235.22	1.50406
1236.83	2.05496
1238.44	1.92631
1240.05	2.39891
1241.66	2.43781
1243.26	1.6069
1244.87	1.80842
1246.48	3.18701
1248.09	3.03183
1249.7	2.35756
1251.31	2.28269
1252.92	3.18063
1254.52	2.92204
1256.13	1.54927
1257.74	2.3514
1259.34	3.3223
1260.95	2.88841
1262.55	2.64174
1264.16	3.51356
1265.76	3.0172
1267.37	3.63804
1268.97	2.84692
1270.58	3.64953
1272.18	4.09701
1273.78	3.62955
1275.39	2.68296
1276.99	3.41299
1278.59	4.03691
1280.2	3.2301
1281.8	4.18245
1283.4	3.47934
1285	4.72208
1286.6	3.98181
1288.2	5.72481
1289.8	6.18844
1291.4	7.00461
1293	8.06823
1294.6	7.74522
1296.2	8.84349
1297.8	6.75716
1299.4	6.21556
1301	6.02097
1302.6	5.86448
1304.19	5.33529
1305.79	5.21634
1307.39	4.84986
1308.99	4.72959
1310.58	5.47028
1312.18	4.26582
1313.77	5.60164
1315.37	4.44496
1316.96	4.06849
1318.56	3.85722
1320.15	4.33899
1321.75	4.47128
1323.34	4.23304
1324.94	3.97048
1326.53	4.94329
1328.12	3.74314
1329.72	4.0661
1331.31	3.38133
1332.9	3.6128
1334.49	4.93979
1336.08	4.77608
1337.67	4.23069
1339.27	4.57092
1340.86	4.08053
1342.45	4.26959
1344.04	3.48849
1345.63	2.68652
1347.22	4.47352
1348.8	3.43692
1350.39	3.04885
1351.98	3.46764
1353.57	4.35096
1355.16	3.03841
1356.75	3.78552
1358.33	3.55226
1359.92	3.89582
1361.51	3.57775
1363.09	3.63693
1364.68	3.09717
1366.27	2.8775
1367.85	3.41681
1369.44	4.41656
1371.02	3.78751
1372.61	3.40098
1374.19	3.45504
1375.77	3.68983
1377.36	3.48703
1378.94	3.89974
1380.52	4.01132
1382.11	3.84101
1383.69	3.24991
1385.27	4.24692
1386.85	3.93071
1388.43	3.59538
1390.02	3.50026
1391.6	4.20118
1393.18	4.24907
1394.76	3.50452
1396.34	3.45379
1397.92	4.72934
1399.5	4.61434
1401.08	4.59598
1402.65	4.29905
1404.23	3.72547
1405.81	4.73568
1407.39	5.07523
1408.97	5.27847
1410.54	4.83107
1412.12	5.80547
1413.7	4.94183
1415.27	5.3392
1416.85	5.3001
1418.43	5.94989
1420	6.40299
1421.58	6.26799
1423.15	6.51146
1424.73	6.20829
1426.3	6.73518
1427.87	8.26731
1429.45	8.38144
1431.02	7.92208
1432.6	9.89956
1434.17	9.78795
1435.74	11.3861
1437.31	12.0206
1438.89	12.0478
1440.46	11.194
1442.03	11.8368
1443.6	12.2067
1445.17	10.5731
1446.74	11.2593
1448.31	10.8058
1449.88	10.2746
1451.45	10.8458
1453.02	10.2978
1454.59	10.6359
1456.16	10.2655
1457.72	9.51906
1459.29	9.79195
1460.86	9.60698
1462.43	9.88859
1463.99	8.82791
1465.56	7.23445
1467.13	7.50788
1468.69	6.72192
1470.26	6.07658
1471.83	6.57258
1473.39	5.40412
1474.95	5.90493
1476.52	5.0146
1478.08	5.28141
1479.65	4.50904
1481.21	4.10899
1482.78	4.4143
1484.34	3.13206
1485.9	3.96502
1487.47	3.1113
1489.03	3.23364
1490.59	3.03817
1492.15	2.13377
1493.71	2.49528
1495.27	2.01291
1496.84	2.32799
1498.39	2.33048
1499.96	1.18774
1501.52	2.26311
1503.07	1.28347
1504.64	2.32258
1506.19	2.1409
1507.75	1.7066
1509.31	1.9468
1510.87	1.54698
1512.43	1.28103
1513.98	0.726246
1515.54	1.44187
1517.1	1.79238
1518.65	1.05096
1520.21	1.88315
1521.77	0.819788
1523.32	1.24866
1524.88	0.930197
1526.44	1.67784
1527.99	1.25995
1529.54	1.31727
1531.1	0.634016
1532.65	1.11038
1534.21	1.28456
1535.76	1.49856
1537.31	2.11099
1538.87	1.85559
1540.42	1.20558
1541.97	2.27118
1543.52	2.31825
1545.07	1.95112
1546.63	2.20397
1548.18	2.0244
1549.73	1.71391
1551.28	2.34067
1552.83	3.34155
1554.38	1.85733
1555.93	2.82522
1557.48	1.25769
1559.03	1.61785
1560.57	1.94482
1562.12	3.26412
1563.67	2.01155
1565.22	2.29
1566.77	2.58734
1568.31	3.46278
1569.86	2.62015
1571.41	2.85915
1572.95	2.42545
1574.5	2.9061
1576.05	3.18148
1577.59	3.15866
1579.14	3.21151
1580.68	3.37789
1582.23	3.62092
1583.77	4.25841
1585.31	3.57122
1586.86	4.09994
1588.4	3.6006
1589.95	4.89664
1591.49	4.11468
1593.03	3.38717
1594.57	4.00714
1596.11	4.85244
1597.66	4.83715
1599.2	4.63602
1600.74	5.35564
1602.28	5.25127
1603.82	4.35792
1605.36	5.19036
1606.9	4.40363
1608.44	4.87094
1609.98	5.01291
1611.52	5.48713
1613.06	4.34091
1614.6	4.65667
1616.13	4.61468
1617.67	3.768
1619.21	5.21071
1620.75	4.24015
1622.28	3.47942
1623.82	4.06875
1625.36	3.66579
1626.89	4.53361
1628.43	4.20034
1629.96	4.20049
1631.5	4.32892
1633.04	4.68039
1634.57	4.54692
1636.11	3.96784
1637.64	3.70855
1639.17	5.55753
1640.71	4.40475
1642.24	4.667
1643.77	4.83314
1645.31	4.903
1646.84	4.09657
1648.37	5.31586
1649.9	4.78912
1651.43	4.61808
1652.96	5.35912
1654.5	5.23092
1656.03	4.95605
1657.56	4.97751
1659.09	4.79321
1660.62	4.67984
1662.15	4.341
1663.67	4.05535
1665.2	4.23055
1666.73	3.52056
1668.26	3.14619
1669.79	4.10284
1671.32	4.26992
1672.84	3.46329
1674.37	3.56041
1675.9	3.04929
1677.43	3.86159
1678.95	3.71403
1680.48	2.7919
1682	3.13687
1683.53	3.05831
1685.05	2.41121
1686.58	2.09581
1688.1	1.7268
1689.63	2.29326
1691.15	2.07238
1692.68	2.62045
1694.2	1.81426
1695.72	1.24614
1697.25	2.15797
1698.77	1.55232
1700.29	1.62161
1701.81	2.01785
1703.33	1.08185
1704.86	1.27498
1706.38	2.13994
1707.9	0.912252
1709.42	1.6662
1710.94	1.74759
1712.46	1.81109
1713.98	1.09582
1715.5	1.59464
1717.02	0.844463
1718.54	1.39636
1720.06	1.35128
1721.57	1.36079
1723.09	1.96649
1724.61	0.970224
1726.13	1.07648
1727.64	0.159595
1729.16	1.17081
1730.68	0.92407
1732.19	1.77974
1733.71	0.758703
1735.23	0.9184
1736.74	0.611168
1738.26	1.15987
1739.77	0.902576
1741.29	0.720575
1742.8	0.48028
1744.31	0.217621
1745.83	-0.00528336
1747.34	0.860065
1748.85	0.979794
1750.37	0.621367
1751.88	0.398291
1753.39	0.274147
1754.91	0.39082
1756.42	0.63065
1757.93	0.132931
1759.44	0.513685
1760.95	0.416294
1762.46	-0.0485821
1763.97	0.0415936
1765.48	0.173399
1766.99	0.206194
1768.5	0.353476
1770.01	0.402321
1771.52	0.786072
1773.03	0.578745
1774.54	0.113195
1776.04	0.0750446
1777.55	-0.231699
1779.06	0.490692
1780.57	-0.0154781
1782.07	0.274847
1783.58	0.203875
1785.09	0.190222
1786.59	0.0661259
1788.1	0.688107
1789.6	-0.132404
1791.11	0.294609
1792.61	-0.0886459
1794.12	-0.325081
1795.62	0.0897312
1797.13	0.364571
1798.63	0.294235
1800.13	-0.314018
1801.64	-0.0438824
1803.14	-0.350224
1804.64	0.273399
1806.15	-0.171982
1807.65	0.337139
1809.15	0.262245
1810.65	0.243311
1812.15	-0.200529
1813.65	0.16783
1815.16	0.0196877
1816.66	-0.273544
1818.15	-0.064558
1819.66	0.236959
1821.16	-0.314922
1822.65	-0.227928
1824.15	-0.120365
1825.65	0.0778236
1827.15	0.161522
1828.65	0.0710869
1830.15	0.131884
1831.64	-0.223946
1833.14	0.00489807
1834.64	0.4895
1836.14	-0.087677
1837.63	-0.0854549
1839.13	0.0381241
1840.62	0.101242
1842.12	-0.0454025
1843.62	-0.256666
1845.11	0.0766144
1846.61	-0.287025
1848.1	0.626528
1849.6	0.194853
1851.09	0.261503
1852.58	0.122765
1854.08	-0.193668
1855.57	0.369503
1857.06	0.358999
1858.55	0.0603123
1860.05	0.359203
1861.54	0.233141
1863.03	-0.0654354
1864.52	-0.437401
1866.01	1.04676
1867.5	0.368347
1869	0.858368
1870.49	-0.119583
1871.98	0.24325
1873.47	0.0157223
1874.96	-0.165203
1876.44	0.581165
1877.93	-0.0149422
1879.42	0.0148964
1880.91	0.269695
1882.4	-0.0922432
1882.47	-0.113424
1883.96	-0.444975
1885.46	-0.324768
1886.95	-0.171598
1888.44	0.781092
1889.94	0.0106087
1891.43	0.721035
1892.93	0.23461
1894.42	-0.0393143
1895.91	0.698383
1897.4	0.151161
1898.89	-0.257282
1900.39	-0.772223
1901.88	-0.194372
1903.37	0.414505
1904.86	0.446264
1906.35	-0.357704
1907.84	0.749243
1909.33	0.0164261
1910.82	-0.488365
1912.31	-0.0716782
1913.8	0.155197
1915.29	0.000707626
1916.77	-0.0330238
1918.26	0.122822
1919.75	0.624166
1921.24	0.120323
1922.73	-0.226589
1924.21	-0.346569
1925.7	0.089674
1927.19	-0.129789
1928.67	0.136839
1930.16	0.368876
1931.64	-0.0240746
1933.13	0.0649567
1934.61	-0.818974
1936.1	-0.0791283
1937.58	0.484537
1939.07	0.32074
1940.55	0.174952
1942.04	0.100058
1943.52	0.527613
1945	-0.284946
1946.49	0.0588169
1947.97	0.0400314
1949.45	0.312637
1950.93	0.273035
1952.42	0.111107
1953.9	-0.258162
1955.38	0.455437
1956.86	0.636488
1958.34	0.389641
1959.82	0.590578
1961.3	-0.167768
1962.78	-0.376575
1964.26	-0.0544262
1965.74	0.197935
1967.22	-0.338675
1968.7	0.0134792
1970.18	0.175938
1971.65	0.491344
1973.13	0.0892639
1974.61	0.199625
1976.09	0.0885983
1977.57	0.318729
1979.04	0.0380993
1980.52	0.370157
1982	0.276442
1983.47	0.776791
1984.95	0.104498
1986.42	-0.211113
1987.9	0.676952
1989.37	0.277262
1990.85	0.0486965
1992.32	-0.329948
1993.8	-0.401934
1995.27	0.372723
1996.75	-0.186863
1998.22	0.132076
1999.69	-0.0227604
2001.17	-0.178686
2002.64	-0.571598
2004.11	0.788828
2005.58	0.109697
2007.05	0.409533
2008.53	0.189077
2010	0.00414467
2011.47	0.0560169
2012.94	0.141672
2014.41	-0.0427723
2015.88	-0.0099411
2017.35	0.4247
2018.82	0.0839939
2020.29	0.229757
2021.76	0.324656
2023.23	-0.368834
2024.7	0.399536
2026.16	-0.138617
2027.63	0.550617
2029.1	0.404207
2030.57	0.243715
2032.03	-0.267292
2033.5	0.363882
2034.97	0.743607
2036.44	0.0309181
2037.9	0.106491
2039.37	0.786339
2040.83	-0.0465984
2042.3	0.0455914
2043.76	0.357935
2045.23	0.924747
2046.69	0.332003
2048.16	0.530993
2049.62	0.291397
2051.08	1.02748
2052.55	0.226191
2054.01	0.618465
2055.47	-0.0383682
2056.94	0.532938
2058.4	0.242771
2059.86	0.373552
2061.32	1.06065
2062.79	0.015192
2064.25	0.28492
2065.71	0.203196
2067.17	0.123171
2068.63	0.448275
2070.09	0.959276
2071.55	0.948654
2073.01	0.365273
2074.47	0.168531
2075.93	0.661539
2077.39	0.783344
2078.85	0.399136
2080.31	0.569729
2081.76	0.587631
2083.22	1.19333
2084.68	1.14088
2086.13	0.73366
2087.59	0.628145
2089.05	0.891594
2090.51	0.818388
2091.96	0.912987
2093.42	0.58782
2094.87	0.597897
2096.33	1.22712
2097.78	0.648212
2099.24	1.12323
2100.69	1.04495
2102.15	1.56876
2103.6	1.35876
2105.06	0.88467
2106.51	1.53166
2107.96	1.02966
2109.42	1.0456
2110.87	1.894
2112.32	1.50595
2113.77	1.81414
2115.23	1.55268
2116.68	1.68869
2118.13	2.25691
2119.58	1.134
2121.03	1.37676
2122.48	2.25359
2123.93	1.85638
2125.38	1.99131
2126.83	1.56203
2128.28	1.69444
2129.73	2.23816
2131.18	2.09956
2132.63	1.64484
2134.08	2.05075
2135.53	1.82951
2136.97	2.75197
2138.42	2.3724
2139.87	2.69106
2141.32	2.05463
2142.76	2.67713
2144.21	2.95415
2145.66	2.42079
2147.1	3.55862
2148.55	2.89058
2150	2.18716
2151.44	3.30393
2152.89	3.22571
2154.33	3.36104
2155.78	3.72723
2157.22	3.24864
2158.66	3.28511
2160.11	3.838
2161.55	3.8316
2163	3.39828
2164.44	4.0296
2165.88	3.61787
2167.32	3.75368
2168.77	4.43601
2170.21	4.13376
2171.65	3.42729
2173.09	4.54626
2174.53	4.248
2175.97	2.68453
2177.41	3.61609
2178.85	3.30211
2180.29	3.90469
2181.73	3.67797
2183.17	3.9015
2184.61	3.56026
2186.05	3.13589
2187.49	3.31041
2188.93	3.16888
2190.37	2.87746
2191.81	3.01823
2193.24	3.20744
2194.68	3.54366
2196.12	3.22663
2197.56	3.23822
2198.99	2.64739
2200.43	3.06861
2201.87	3.23973
2203.3	2.39992
2204.74	2.49203
2206.17	2.73541
2207.61	2.35023
2209.04	2.644
2210.48	2.32347
2211.91	1.96811
2213.35	1.94219
2214.78	2.46107
2216.21	1.46182
2217.65	2.64377
2219.08	2.12867
2220.51	1.64878
2221.95	1.40024
2223.38	2.10605
2224.81	2.2485
2226.24	1.71248
2227.67	2.19316
2229.1	1.68472
2230.54	1.88112
2231.97	1.14251
2233.4	1.51916
2234.83	1.17703
2236.26	1.60576
2237.69	1.53095
2239.11	1.01957
2240.54	0.887819
2241.97	1.60786
2243.4	0.748384
2244.83	0.998779
2246.26	0.774925
2247.69	0.90683
2249.11	0.529022
2250.54	1.4994
2251.97	1.26011
2253.4	1.70244
2254.82	1.03965
2256.25	0.851614
2257.67	0.798277
2259.1	0.134146
2260.53	0.335644
2261.95	0.720585
2263.38	0.62192
2264.8	0.653837
2266.23	0.750172
2267.65	0.259399
2269.07	0.466202
2270.5	0.883163
2271.92	1.16903
2273.34	1.11263
2274.77	0.616545
2276.19	0.462772
2277.61	0.847111
2279.03	0.367769
2280.46	0.11635
2281.88	0.794285
2283.3	0.362955
2284.72	0.780048
2286.14	1.05086
2287.56	0.816402
2288.98	0.402992
2290.4	-0.0099144
2291.82	-0.112036
2293.24	-0.197657
2294.66	0.812824
2296.08	0.44907
2297.5	0.690769
2298.92	0.0153522
2300.34	-0.0211182
2301.76	-0.286638
2303.17	0.399633
2304.59	0.381117
2306.01	0.526674
2307.43	0.32666
2308.84	0.322651
2310.26	0.712135
2311.68	0.953009
2313.09	1.06229
2314.51	-0.0291309
2315.92	0.740705
2317.34	-0.530075
2318.75	0.160269
2320.17	0.422144
2321.58	0.0881577
2323	0.113453
2324.41	0.629358
2325.82	0.678619
2327.24	0.625477
2328.65	0.653189
2330.06	0.730579
2331.48	0.0193443
2332.89	0.841433
2334.3	-0.309713
2335.71	-0.456327
2337.12	0.350218
2338.54	0.595392
2339.95	-0.14786
2341.36	0.339514
2342.77	0.0374851
2344.18	-0.133045
2345.59	0.762455
2347	0.36343
2348.41	0.24325
2349.82	0.0570526
2351.23	0.572536
2352.64	0.464596
2354.04	0.240728
2355.45	0.553829
2356.86	0.425915
2358.27	-0.254841
2359.68	0.723372
2361.08	-0.361612
2362.49	-0.114826
2363.9	-0.678587
2365.3	0.0530605
2366.71	0.541048
2368.12	-0.117161
2369.52	0.018261
2370.93	-0.408207
2372.33	0.167255
2373.74	-0.270395
2375.14	0.0657539
2376.55	0.22394
2377.95	-0.0864258
2379.36	-0.736759
2380.76	0.119883
2382.16	-0.278772
2383.57	0.378763
2384.97	0.426296
2386.37	0.00313187
2387.78	-0.417385
2389.18	0.49654
2390.58	0.535126
2391.98	0.25757
2393.38	0.777941
2394.79	0.0748272
2396.19	0.216291
2397.59	0.0410328
2398.99	0.597887
2400.39	-0.210724
2401.79	0.36343
2403.19	-0.237717
2404.59	-0.458261
2405.99	0.224506
2407.39	0.540016
2408.78	-0.304117
2410.18	0.167572
2411.58	0.00541115
2412.98	0.462547
2414.38	0.383551
2415.77	-0.864014
2417.17	0.88311
2418.57	0.194031
2419.97	-0.256989
2421.36	0.273697
2422.76	0.439497
2424.15	0.06604
2425.55	-0.00634766
2426.95	0.286716
2428.34	0.629126
2429.74	0.0696545
2431.13	-0.123978
2432.52	-0.0793705
2433.92	-0.464485
2435.31	0.387178
2436.71	0.553083
2438.1	0.143972
2439.49	-0.0134468
2440.89	0.748436
2442.28	0.603832
2443.67	0.553928
2445.06	0.0912895
2446.46	0.80196
2447.85	0.370686
2449.24	0.00309753
2450.63	0.158745
2452.02	0.821747
2453.41	-0.112297
2454.8	0.648502
2456.19	-0.297955
2457.58	0.575418
2458.97	0.62591
2460.36	0.311518
2461.75	0.280247
2463.14	0.0577354
2464.53	-0.228989
2465.92	0.510412
2467.31	0.759594
2468.69	0.393055
2470.08	0.641514
2471.47	0.132198
2472.86	0.0632114
2474.24	0.197453
2475.63	-0.676559
2477.02	-0.182499
2478.4	0.200676
2479.79	0.0342827
2481.17	0.150698
2482.56	0.110119
2483.94	-0.0565338
2485.33	0.307158
2486.72	0.355425
2488.1	0.0580673
2489.48	-0.16214
2490.87	-0.802382
2492.25	0.674034
2493.64	0.472042
2495.02	-0.347422
2496.4	0.293972
2497.79	-0.225607
2499.17	0.401495
2500.55	-0.22579
2501.93	0.228243
2503.31	0.0310345
2504.69	-0.136721
2506.08	0.665361
2507.46	0.633987
2508.84	0.264641
2510.22	0.0504627
2511.6	0.114088
2512.98	0.255732
2514.36	-0.167925
2515.74	0.45153
2517.12	0.0620918
2518.5	-0.402296
2519.88	0.157967
2521.25	-0.000696182
2522.63	0.49589
2524.01	0.242743
2525.39	0.247608
2526.77	0.190962
2528.14	0.0286026
2529.52	0.127026
2530.9	-0.212404
2532.27	0.241739
2533.65	0.181826
2535.03	0.53356
2536.4	0.824457
2537.78	0.460781
2539.15	0.535749
2540.53	-0.119801
2541.9	0.514402
2543.28	0.177597
2544.65	0.692041
2546.03	0.677879
2547.4	0.924036
2548.77	0.38307
2550.15	0.707062
2551.52	0.256222
2552.89	0.653383
2554.27	0.0468502
2555.64	0.197287
2557.01	0.361664
2558.38	-0.00509071
2559.75	0.159389
2561.12	-0.129896
2562.5	0.233761
2563.87	-0.356205
2565.24	0.221518
2566.61	0.511801
2567.98	-0.107048
2569.35	0.986664
2570.72	-0.0414982
2572.09	0.127728
2573.46	0.342581
2574.83	0.860815
2576.19	0.135979
2577.56	0.305428
2578.93	0.0801945
2580.3	0.430445
2581.67	0.279467
2583.04	0.203539
2584.4	0.778984
2585.77	0.672031
2587.14	0.140913
2588.5	0.21645
2589.87	0.0193939
2591.23	-0.299112
2592.6	0.730049
2593.97	0.272671
2595.33	0.888676
2596.7	0.50301
2598.06	0.494284
2599.43	0.363771
2600.79	0.581091
2602.15	0.859529
2603.52	0.912601
2604.88	0.800787
2606.25	0.327433
2607.61	0.275991
2608.97	0.433933
2610.33	0.800133
2611.7	-0.236633
2613.06	0.0643044
2614.42	0.348061
2615.78	0.150427
2617.15	-0.301281
2618.51	0.507059
2619.87	0.282963
2621.23	0.464382
2622.59	0.183371
2623.95	-0.23122
2625.31	0.190296
2626.67	0.53615
2628.03	0.493361
2629.39	0.0330544
2630.75	0.153242
2632.1	0.272987
2633.46	0.0804596
2634.82	0.734159
2636.18	0.422722
2637.54	0.00798798
2638.89	0.526793
2640.25	0.0685539
2641.61	-0.285017
2642.97	-0.356874
2644.32	0.280302
2645.68	0.562357
2647.03	0.341953
2648.39	0.694941
2649.75	0.692411
2651.1	0.526695
2652.46	0.801188
2653.81	0.66468
2655.17	0.48591
2656.52	0.661127
2657.88	0.45787
2659.23	0.651651
2660.58	0.261209
2661.94	0.440834
2663.29	0.385357
2664.64	0.109329
2666	0.575994
2667.35	0.239326
2668.7	0.296114
2670.05	0.7316
2671.4	0.571331
2672.76	0.470654
2674.11	0.4149
2675.46	0.418415
2676.81	0.65517
2678.16	0.182373
2679.51	0.363972
2680.86	-0.104855
2682.21	0.617544
2683.56	0.225937
2684.91	0.677355
2686.26	0.636711
2687.61	0.566763
2688.96	0.697628
2690.3	0.650833
2691.65	0.890545
2693	0.227339
2694.35	0.258726
2695.7	0.82584
2697.04	0.640306
2698.39	1.31188
2699.74	0.726982
2701.08	1.23176
2702.43	0.56665
2703.77	0.656773
2705.12	1.25547
2706.47	1.05713
2707.81	1.16276
2709.16	0.962759
2710.5	0.892471
2711.85	1.17017
2713.19	1.18617
2714.53	1.4055
2715.88	1.95923
2717.22	1.68395
2718.57	1.53889
2719.91	1.5821
2721.25	2.06093
2722.59	2.34958
2723.94	2.0986
2725.28	1.75929
2726.62	1.92854
2727.96	2.16982
2729.3	1.91569
2730.65	1.34116
2731.99	1.45045
2733.33	0.701588
2734.67	1.16051
2736.01	1.45977
2737.35	1.51204
2738.69	0.633488
2740.03	0.641605
2741.37	0.721426
2742.71	0.916155
2744.05	0.571573
2745.38	0.995848
2746.72	0.257107
2748.06	0.244318
2749.4	0.579819
2750.74	0.378784
2752.07	0.0769348
2753.41	0.181543
2754.75	0.170502
2756.09	0.492857
2757.42	-0.0100174
2758.76	-0.048914
2760.09	0.173481
2761.43	0.68618
2762.77	-0.218287
2764.1	0.382795
2765.44	0.202517
2766.77	-0.0220528
2768.11	0.069828
2769.44	0.780785
2770.77	0.201828
2772.11	0.458353
2773.44	-0.369953
2774.77	0.301346
2776.11	-0.325079
2777.44	-0.0286407
2778.77	-0.119873
2780.11	-0.253042
2781.44	0.533693
2782.77	0.0279598
2784.1	0.0390682
2785.43	-0.437223
2786.77	0.0470791
2788.1	0.288422
2789.43	-0.112766
2790.76	-0.397358
2792.09	0.220604
2793.42	-0.261494
2794.75	-0.157303
2796.08	0.0604858
2797.41	0.576982
2798.74	0.149544
2800.07	0.563576
2801.4	0.277662
2802.72	0.761557
2804.05	-0.294689
2805.38	0.27301
2806.71	-0.186068
2808.04	0.164902
2809.36	0.11648
2810.69	-0.0454769
2812.02	0.361637
2813.34	0.0614128
2814.67	0.0905399
2816	0.717997
2817.32	0.58234
2818.65	0.915726
2819.97	0.21451
2821.3	1.0998
2822.62	0.821451
2823.95	0.612679
2825.27	1.32395
2826.6	1.04365
2827.92	1.62824
2829.25	2.07236
2830.57	2.98464
2831.89	3.18962
2833.22	3.29539
2834.54	4.09396
2835.86	4.65058
2837.18	6.86115
2838.51	7.54175
2839.83	9.94672
2841.15	10.9651
2842.47	13.1718
2843.79	14.2209
2845.11	16.1628
2846.43	16.2696
2847.76	16.5192
2849.08	16.1754
2850.4	16.7916
2851.72	16.7136
2853.04	17.1707
2854.36	16.7361
2855.67	16.8519
2856.99	16.4733
2858.31	16.9989
2859.63	17.4113
2860.95	16.4816
2862.27	16.5677
2863.58	17.1323
2864.9	16.8491
2866.22	17.8638
2867.54	17.7788
2868.85	18.8797
2870.17	19.573
2871.49	19.7593
2872.8	21.5231
2874.12	22.5789
2875.43	23.9682
2876.75	24.7186
2878.07	27.1112
2879.38	28.9374
2880.7	28.5561
2882.01	27.7291
2883.32	27.3567
2884.64	25.8233
2885.95	25.4582
2887.27	23.9148
2888.58	23.465
2889.89	23.8541
2891.21	22.1645
2892.52	22.9969
2893.83	23.0573
2895.14	23.063
2896.46	22.7218
2897.77	23.0984
2899.08	22.9469
2900.39	23.2463
2901.7	23.7851
2903.01	23.8492
2904.32	22.739
2905.63	24.1894
2906.94	22.9983
2908.25	24.0342
2909.56	24.2759
2910.87	23.9042
2912.18	24.6802
2913.49	24.3899
2914.8	25.2288
2916.11	26.2435
2917.42	25.9365
2918.72	25.5002
2920.03	26.6998
2921.34	27.1461
2922.65	26.7439
2923.95	27.5629
2925.26	27.1142
2926.57	26.7936
2927.88	27.3261
2929.18	28.2068
2930.49	28.0791
2931.79	28.2293
2933.1	27.1904
2934.4	27.9127
2935.71	27.6152
2937.01	26.8572
2938.32	26.6729
2939.62	25.6093
2940.93	24.324
2942.23	23.2232
2943.54	23.0066
2944.84	21.5222
2946.14	20.768
2947.45	19.6096
2948.75	19.4434
2950.05	18.3918
2951.35	17.7548
2952.66	17.3081
2953.96	17.2355
2955.26	16.8398
2956.56	15.7608
2957.86	15.6955
2959.16	15.1198
2960.46	15.4061
2961.77	15.1661
2963.07	14.8441
2964.37	14.4502
2965.66	13.4759
2966.96	13.1427
2968.26	13.115
2969.56	12.2978
2970.86	12.4082
2972.16	12.0975
2973.46	11.4499
2974.76	10.9993
2976.06	10.5752
2977.35	10.725
2978.65	10.5467
2979.95	9.82903
2981.25	9.36166
2982.54	8.93544
2983.84	8.28554
2985.14	8.22925
2986.43	8.28937
2987.73	7.72108
2989.02	6.60748
2990.32	6.75946
2991.62	7.13538
2992.91	5.87863
2994.21	6.13678
2995.5	4.94539
2996.8	4.5676
2998.09	4.76513
2999.38	4.80889
3000.68	4.6858
3001.97	3.51313
3003.26	2.62262
3004.56	3.45616
3005.85	3.54658
3007.14	2.9498
3008.43	2.99545
3009.73	2.63368
3011.02	1.97744
3012.31	2.25683
3013.6	1.8105
3014.89	1.2126
3016.19	1.09093
3017.48	0.971268
3018.77	1.17315
3020.06	0.902405
3021.35	0.798094
3022.64	0.84516
3023.93	0.793139
3025.22	0.0049839
3026.5	0.520042
3027.79	0.800068
3029.08	0.0728989
3030.37	0.0686398
3031.66	0.205828
3032.95	-0.192963
3034.24	0.62396
3035.52	0.377285
3036.81	0.404181
3038.1	0.0280857
3039.39	-0.213308
3040.67	-0.0309906
3041.96	0.50606
3043.25	0.219336
3044.53	0.27762
3045.82	0.202732
3047.1	0.528999
3048.39	0.546057
3049.67	0.472416
3050.96	0.539021
3052.24	0.580408
3053.53	0.00822639
3054.81	0.117361
3056.1	0.579216
3057.38	0.793383
3058.67	0.297499
3059.95	0.659702
3061.23	0.151632
3062.52	0.367289
3063.8	-0.0531273
3065.08	0.576914
3066.36	0.951878
3067.65	0.568039
3068.93	0.56605
3070.21	-0.22492
3071.49	0.478819
3072.77	0.269217
3074.05	0.519761
3075.33	0.0755091
3076.61	0.147422
3077.89	0.0575466
3079.17	0.44516
3080.45	-0.710417
3081.73	0.0232563
3083.01	0.271514
3084.29	-0.143169
3085.57	0.324719
3086.85	-0.049262
3088.13	0.0507975
3089.41	0.244866
3090.68	0.289104
3091.96	0.062108
3093.24	-0.408205
3094.52	0.194025
3095.79	-0.219846
3097.07	0.0448971
3098.35	0.0930262
3099.62	0.100694
3100.9	0.135749
3102.18	-0.275525
3103.45	-0.347096
3104.73	-0.0787802
3106	0.218391
3107.28	-0.226503
3108.55	0.156601
3109.83	0.420543
3111.1	-0.0305738
3112.38	0.54941
3113.65	0.467227
3114.93	0.35835
3116.2	0.77788
3117.47	0.748864
3118.75	0.514698
3120.02	0.658731
3121.29	1.16746
3122.57	0.997577
3123.84	0.868613
3125.11	0.984404
3126.38	1.14207
3127.65	1.7208
3128.92	1.09706
3130.2	0.948263
3131.47	1.89518
3132.74	1.72036
3134.01	1.4375
3135.28	1.519
3136.55	1.72126
3137.82	1.2084
3139.09	1.82784
3140.36	1.71974
3141.63	1.2898
3142.9	2.75648
3144.17	2.04743
3145.43	2.26699
3146.7	1.76446
3147.97	1.97466
3149.24	2.69516
