200.554	0.122685
202.369	0.132713
204.183	0.144623
205.999	0.109076
207.813	0.608837
209.626	0.524589
211.439	0.147973
213.253	0.377415
215.065	0.217505
216.877	0.978384
218.688	-0.150591
220.5	-0.163871
222.312	0.839907
224.123	0.7075
225.933	0.358507
227.742	0.299904
229.552	0.361829
231.361	-0.0111485
233.171	0.17093
234.98	-0.297631
236.787	-0.137631
238.595	0.0728493
240.402	-0.123655
242.209	0.598524
244.015	-0.341723
245.822	-0.196731
247.627	0.453887
249.435	-0.105312
251.24	0.201519
253.045	-0.315138
254.849	-0.181658
256.653	-0.313756
258.457	0.302333
260.26	0.19718
262.063	0.431509
263.866	0.258214
265.668	0.495742
267.47	-0.0614929
269.271	0.51378
271.073	0.316967
272.873	0.625297
274.674	0.112448
276.474	0.176609
278.274	0.166569
280.073	0.53983
281.872	-0.557629
283.671	1.11024
285.47	0.539337
287.268	0.160831
289.065	0.0949039
290.863	-0.161604
292.66	0.253968
294.456	0.503313
296.253	0.228135
298.049	0.384612
299.844	-0.461839
301.637	0.626702
303.432	0.519876
305.227	0.459579
307.021	0.613082
308.815	0.62326
310.609	-0.0805826
312.402	-0.282316
314.195	0.398895
315.987	0.0105715
317.777	0.529141
319.569	-0.0461264
321.36	0.738029
323.151	0.450768
324.942	0.306899
326.733	0.521199
328.521	0.5444
330.31	-0.0307035
332.1	0.0142546
333.889	0.392447
335.677	0.31387
337.464	0.208915
339.252	0.101824
341.039	0.495402
342.826	-0.307308
344.611	1.35167
346.398	-0.45318
348.184	0.77634
349.97	0.334806
351.754	-0.321294
353.539	-0.04704
355.324	0.0112934
357.106	-0.146373
358.89	0.147539
360.674	0.392278
362.455	-0.0781555
364.239	0.545096
366.021	0.738955
367.804	-0.183855
369.584	0.53022
371.366	0.223474
373.145	0.626412
374.926	0.20101
376.707	0.0127439
378.485	0.108448
380.265	-0.0305729
382.045	-0.238671
383.822	0.119397
385.601	-0.250275
387.378	-0.124861
389.156	0.260071
390.934	0.551975
392.71	0.727304
394.487	0.738972
396.262	0.140469
398.038	0.129205
399.813	-0.0466566
401.588	-0.0350542
403.362	-0.0945778
405.137	0.408815
406.912	0.840861
408.685	0.192137
410.459	0.834363
412.23	0.162202
414.004	0.124314
415.775	0.884978
417.548	0.44991
419.318	0.320557
421.089	-0.27797
422.86	-0.243114
424.63	0.448355
426.401	0.62243
428.17	0.466937
429.94	0.310991
431.708	0.741838
433.478	-0.258601
435.245	-0.13211
437.012	0.0178299
438.781	0.753741
440.547	0.596185
442.315	0.0142965
444.081	0.157403
445.846	0.0641375
447.613	0.32085
449.378	0.904011
451.142	-0.172419
452.908	0.504037
454.672	0.0134525
456.435	-0.289924
458.2	-0.616244
459.963	0.105157
461.725	0.175187
463.489	-0.0552969
465.251	0.855453
467.012	0.421533
468.775	0.339031
470.536	0.0723639
472.296	0.573909
474.056	0.0740108
475.817	0.643214
477.576	0.651255
479.335	0.517533
481.094	0.941808
482.854	1.11005
484.612	0.161699
486.37	0.216881
488.127	0.27435
489.886	0.380718
491.642	1.00195
493.398	0.690349
495.154	0.471944
496.91	0.135979
498.667	0.548897
500.422	0.446089
502.176	0.436284
503.93	0.214094
505.684	0.366442
507.438	0.376389
509.191	0.572897
510.946	0.861897
512.698	0.725646
514.45	0.68187
516.202	0.330802
517.954	1.29557
519.705	0.542498
521.456	0.447165
523.206	0.187043
524.956	0.114751
526.706	0.675879
528.456	0.650305
530.207	0.741798
531.956	0.879577
533.704	0.10345
535.452	0.753861
537.2	0.466953
538.947	0.482567
540.694	0.706759
542.441	0.743249
544.188	0.825779
545.934	0.0948906
547.68	0.78156
549.425	0.58606
551.17	1.06272
552.915	0.705899
554.659	0.881472
556.403	0.410719
558.145	0.21804
559.889	0.510038
561.632	0.134602
563.375	0.979405
565.117	0.76635
566.859	0.898849
568.601	0.0678997
570.342	-0.00387001
572.083	0.338778
573.824	0.407788
575.565	0.134579
577.303	0.367835
579.043	0.464897
580.782	0.562843
582.521	0.867786
584.26	0.16082
585.998	0.0961514
587.734	0.674254
589.472	0.768102
591.21	0.147706
592.947	-0.84136
594.684	0.0560427
596.418	0.24025
598.154	-0.242791
599.89	0.470111
601.626	-0.566246
603.361	0.696279
605.094	0.0483618
606.828	0.134946
608.562	-0.146795
610.296	0.627357
612.027	0.162571
613.761	0.29516
615.493	0.130403
617.224	-0.217366
618.956	0.0987091
620.688	0.482029
622.419	0.383213
624.149	0.352225
625.879	0.778157
627.61	0.154605
629.338	0.902961
631.068	0.284475
632.797	-0.12649
634.525	0.490521
636.254	0.217062
637.98	0.284135
639.708	0.371161
641.436	0.272539
643.162	-0.056325
644.889	0.570372
646.614	0.513941
648.34	0.459644
650.067	0.590536
651.791	-0.410623
653.516	0.523744
655.239	-0.402728
656.964	0.515821
658.687	1.04966
660.411	-0.195791
662.133	0.998545
663.857	0.363833
665.58	0.846214
667.301	0.434988
669.024	0.754751
670.744	0.984013
672.464	1.05535
674.186	0.785891
675.905	0.564103
677.626	0.320218
679.345	0.581237
681.065	0.703751
682.783	0.594461
684.503	0.920168
686.22	0.230778
687.939	0.898332
689.656	0.781746
691.372	1.10203
693.09	0.891814
694.806	0.934155
696.523	0.422744
698.239	0.577945
699.953	0.777736
701.67	0.608137
703.384	0.437762
705.098	0.680277
706.813	0.875979
708.526	0.40595
710.239	0.829835
711.954	0.794761
713.666	0.873787
715.378	0.906758
717.091	0.25469
718.802	0.767207
720.513	1.279
722.226	1.26632
723.936	1.27649
725.646	0.90005
727.355	0.887335
729.067	0.828796
730.776	1.01927
732.484	0.665449
734.192	0.945598
735.902	1.04442
737.61	1.18862
739.317	0.927234
741.024	1.23083
742.731	0.814457
744.439	1.41306
746.145	1.02248
747.851	0.926089
749.556	1.191
751.262	1.18733
752.966	0.712663
754.673	1.00419
756.377	1.27492
758.081	1.02961
759.784	1.82193
761.487	1.42154
763.19	0.908258
764.892	1.52293
766.594	1.50454
768.296	1.7554
770	1.32572
771.701	1.21036
773.402	2.04328
775.102	1.74509
776.803	2.28412
778.503	1.69405
780.202	1.71607
781.901	2.35012
783.6	1.2873
785.299	1.49035
786.997	1.71356
788.695	2.11439
790.393	2.26246
792.09	1.45817
793.787	1.17295
795.484	1.56473
797.18	1.46098
798.877	1.6744
800.572	1.3943
802.268	1.45338
803.963	1.91787
805.658	1.01054
807.35	1.38389
809.044	1.37387
810.738	1.31777
812.432	1.48503
814.125	1.53942
815.818	1.72778
817.51	1.53554
819.202	1.58952
820.894	2.51443
822.584	1.83186
824.275	1.95383
825.966	1.89893
827.657	1.24501
829.347	1.28464
831.037	1.48325
832.725	1.79627
834.414	1.2201
836.103	1.3357
837.792	1.74133
839.481	1.56556
841.167	1.83473
842.854	1.27599
844.542	1.63275
846.229	1.25281
847.914	1.43348
849.6	1.50501
851.287	1.40006
852.973	1.83486
854.656	1.19437
856.341	1.85519
858.026	1.79658
859.711	1.89358
861.393	1.33574
863.077	2.08225
864.761	1.27295
866.442	1.13846
868.125	1.11599
869.808	1.47647
871.489	1.25024
873.171	1.49751
874.85	1.58683
876.532	1.78901
878.213	0.998166
879.892	1.31308
881.572	1.51478
883.251	1.39966
884.931	1.03507
886.61	1.34622
888.287	0.843348
889.966	0.72265
891.643	0.803448
893.321	0.680128
894.997	0.82585
896.675	1.08261
898.352	1.18064
900.028	0.784048
901.704	1.19406
903.379	2.31851
905.055	2.05442
906.729	1.25564
908.404	0.949889
910.077	1.13564
911.75	1.29967
913.425	1.26406
915.097	1.3843
916.771	1.26035
918.443	0.560387
920.116	1.58878
921.787	0.647203
923.46	1.23346
925.13	0.870772
926.8	0.598666
928.472	0.968504
930.141	1.25111
931.813	1.42399
933.481	0.780867
935.15	1.21889
936.82	1.37057
938.488	1.61137
940.156	0.927143
941.825	0.994015
943.492	0.686507
945.158	1.10702
946.827	1.04082
948.493	0.840272
950.158	2.16058
951.824	1.22857
953.491	0.672198
955.156	0.779239
956.82	0.822932
958.486	0.80375
960.15	1.29503
961.814	0.374791
963.477	0.558297
965.142	0.91725
966.804	0.521496
968.467	0.432597
970.129	1.00536
971.79	1.51074
973.454	0.910739
975.115	0.754658
976.776	1.02062
978.436	0.801532
980.096	0.959143
981.756	1.11639
983.417	0.696663
985.077	1.00543
986.736	1.62181
988.394	1.35092
990.052	0.703065
991.71	-0.143621
993.368	0.401964
995.025	0.836647
996.682	0.410576
998.341	1.04326
999.998	1.49868
1001.65	1.4246
1003.31	1.21811
1004.97	1.14351
1006.62	0.981006
1008.28	0.094245
1009.93	0.503698
1011.58	0.649898
1013.24	0.379983
1014.89	0.505027
1016.54	0.104962
1018.2	0.843566
1019.85	0.510681
1021.5	0.528908
1023.16	0.526375
1024.81	0.961882
1026.46	0.982672
1028.11	0.872351
1029.76	0.499235
1031.41	1.0423
1033.06	1.53962
1034.71	0.660186
1036.36	0.761557
1038.01	0.8184
1039.66	0.635669
1041.31	0.823673
1042.95	1.25189
1044.6	1.81188
1046.25	1.59171
1047.9	0.917632
1049.54	0.940287
1051.19	0.638427
1052.84	1.24972
1054.48	1.44879
1056.13	0.34383
1057.77	0.912027
1059.42	0.697181
1061.06	0.894762
1062.71	1.37422
1064.35	0.591558
1066	0.612374
1067.64	1.08847
1069.28	0.715956
1070.93	0.560249
1072.57	0.903815
1074.21	0.575001
1075.85	1.07173
1077.49	0.355166
1079.13	0.767631
1080.78	0.855545
1082.42	0.791615
1084.06	0.921881
1085.7	0.139997
1087.34	0.634991
1088.97	0.910824
1090.61	0.600304
1092.25	0.980819
1093.89	1.4897
1095.53	1.17802
1097.17	0.544494
1098.8	0.64571
1100.44	1.09302
1102.08	1.26219
1103.71	0.357524
1105.35	0.250341
1106.99	0.487832
1108.62	0.595899
1110.26	0.251296
1111.89	0.915455
1113.52	0.911432
1115.16	1.33545
1116.79	1.00749
1118.43	0.744442
1120.06	0.910928
1121.69	0.885563
1123.32	0.540304
1124.96	0.431653
1126.59	0.152834
1128.22	0.537823
1129.85	0.795105
1131.48	0.390166
1133.11	0.327615
1134.75	0.799309
1136.37	0.564919
1138	0.308185
1139.63	0.242642
1141.26	0.261571
1142.89	0.173307
1144.52	-0.0213375
1146.15	0.275196
1147.78	0.721627
1149.4	0.124738
1151.03	0.274096
1152.66	0.359485
1154.28	-0.0451717
1155.91	-0.215869
1157.54	0.91123
1159.16	0.421594
1160.79	0.27331
1162.41	0.168712
1164.04	0.107629
1165.66	0.408471
1167.29	-0.290291
1168.91	0.00919533
1170.53	0.349419
1172.16	-0.26852
1173.78	0.280222
1175.4	-0.170073
1177.02	-0.174989
1178.65	-0.137319
1180.27	-0.0143538
1181.89	0.299694
1183.51	0.0854902
1185.13	-0.0439644
1186.75	0.205858
1188.37	0.622462
1189.99	0.256472
1191.61	0.142015
1193.23	0.110486
1194.85	0.14124
1196.47	0.0881376
1198.08	0.454847
1199.7	0.613326
1201.32	0.105328
1202.94	0.66556
1204.55	0.372165
1206.17	0.623548
1207.79	1.00131
1209.4	0.816013
1211.02	1.08871
1212.63	0.23362
1214.25	0.794006
1215.86	0.560171
1217.48	0.782562
1219.09	0.525581
1220.71	0.891777
1222.32	0.718807
1223.93	0.402415
1225.54	0.502111
1227.16	0.499729
1228.77	0.891706
1230.38	0.953859
1231.99	1.22392
1233.6	1.20582
1235.22	0.362309
1236.83	0.904779
1238.44	1.17968
1240.05	0.979761
1241.66	1.21428
1243.26	0.662356
1244.87	1.37165
1246.48	1.12813
1248.09	1.00771
1249.7	1.09344
1251.31	1.15817
1252.92	1.07834
1254.52	0.978594
1256.13	0.797226
1257.74	1.58938
1259.34	0.975963
1260.95	0.880571
1262.55	1.42752
1264.16	1.49841
1265.76	1.5689
1267.37	1.43136
1268.97	0.878092
1270.58	1.40181
1272.18	1.77931
1273.78	1.67882
1275.39	1.22492
1276.99	1.1847
1278.59	0.687963
1280.2	1.57827
1281.8	1.28782
1283.4	1.80455
1285	1.39091
1286.6	1.99145
1288.2	2.26213
1289.8	1.99643
1291.4	1.73132
1293	1.87936
1294.6	1.57205
1296.2	1.945
1297.8	1.73792
1299.4	1.94187
1301	2.06145
1302.6	1.66455
1304.19	1.39081
1305.79	1.40466
1307.39	1.08938
1308.99	1.94378
1310.58	2.18159
1312.18	1.58005
1313.77	1.28728
1315.37	2.01772
1316.96	1.78839
1318.56	2.0496
1320.15	1.16867
1321.75	1.53065
1323.34	1.66652
1324.94	1.43439
1326.53	0.998428
1328.12	1.23203
1329.72	1.62762
1331.31	1.19483
1332.9	1.35114
1334.49	1.57005
1336.08	1.87106
1337.67	1.70842
1339.27	1.48473
1340.86	1.56168
1342.45	0.952113
1344.04	1.20612
1345.63	1.338
1347.22	1.52995
1348.8	1.02227
1350.39	1.77878
1351.98	0.976881
1353.57	1.35737
1355.16	0.879464
1356.75	0.981616
1358.33	1.20311
1359.92	0.884339
1361.51	0.844204
1363.09	1.42165
1364.68	0.821917
1366.27	0.880628
1367.85	1.5574
1369.44	1.17986
1371.02	0.704498
1372.61	1.58373
1374.19	1.09105
1375.77	2.17099
1377.36	1.30097
1378.94	0.649268
1380.52	0.931778
1382.11	0.755364
1383.69	0.776628
1385.27	1.45282
1386.85	0.955811
1388.43	0.816873
1390.02	1.17495
1391.6	1.19635
1393.18	0.901125
1394.76	1.00305
1396.34	1.0849
1397.92	0.35324
1399.5	0.512794
1401.08	1.30504
1402.65	0.611348
1404.23	0.848198
1405.81	0.887597
1407.39	1.18475
1408.97	1.30471
1410.54	1.22758
1412.12	1.46635
1413.7	1.27007
1415.27	1.05327
1416.85	1.26968
1418.43	1.62343
1420	1.26805
1421.58	1.28822
1423.15	0.975367
1424.73	1.82551
1426.3	1.51561
1427.87	1.65894
1429.45	1.29018
1431.02	1.39287
1432.6	1.2582
1434.17	2.06691
1435.74	2.75669
1437.31	1.93244
1438.89	1.89567
1440.46	2.64611
1442.03	2.78825
1443.6	2.51846
1445.17	1.77736
1446.74	2.70709
1448.31	2.55598
1449.88	2.60176
1451.45	2.05819
1453.02	2.63599
1454.59	2.25053
1456.16	2.06158
1457.72	1.97022
1459.29	2.2514
1460.86	1.84192
1462.43	2.04049
1463.99	1.98153
1465.56	2.09837
1467.13	1.86115
1468.69	1.50679
1470.26	1.87979
1471.83	1.62594
1473.39	1.98132
1474.95	1.90597
1476.52	0.948769
1478.08	1.3054
1479.65	0.975792
1481.21	0.99895
1482.78	0.747663
1484.34	1.06451
1485.9	1.08702
1487.47	1.55916
1489.03	0.972404
1490.59	1.30392
1492.15	0.811618
1493.71	1.06019
1495.27	1.11136
1496.84	1.14184
1498.39	0.72451
1499.96	0.541991
1501.52	0.962703
1503.07	0.685593
1504.64	0.797332
1506.19	1.10266
1507.75	0.942638
1509.31	0.53076
1510.87	0.19585
1512.43	0.381242
1513.98	0.334867
1515.54	0.615543
1517.1	0.569768
1518.65	0.793298
1520.21	0.442308
1521.77	0.513179
1523.32	0.449753
1524.88	0.500237
1526.44	0.473338
1527.99	0.407547
1529.54	0.322397
1531.1	-0.161196
1532.65	0.456679
1534.21	0.676137
1535.76	1.00956
1537.31	0.587477
1538.87	0.223553
1540.42	0.709177
1541.97	-0.16234
1543.52	0.529694
1545.07	0.938164
1546.63	0.556782
1548.18	0.851441
1549.73	1.01426
1551.28	0.596512
1552.83	0.909609
1554.38	0.344693
1555.93	0.267551
1557.48	0.658789
1559.03	0.939604
1560.57	0.774419
1562.12	0.70408
1563.67	0.802689
1565.22	1.16308
1566.77	0.814488
1568.31	0.820189
1569.86	0.620173
1571.41	0.979764
1572.95	0.835079
1574.5	1.19427
1576.05	0.526779
1577.59	1.48359
1579.14	0.704645
1580.68	1.60664
1582.23	1.20241
1583.77	0.649352
1585.31	0.881543
1586.86	0.628263
1588.4	1.17917
1589.95	0.364305
1591.49	1.38287
1593.03	0.866188
1594.57	0.910836
1596.11	1.06798
1597.66	1.63797
1599.2	1.64656
1600.74	1.7309
1602.28	1.74072
1603.82	1.41246
1605.36	1.30862
1606.9	1.63554
1608.44	1.49068
1609.98	1.98247
1611.52	1.60734
1613.06	1.34319
1614.6	1.11558
1616.13	1.82563
1617.67	1.29823
1619.21	1.166
1620.75	1.40992
1622.28	0.812497
1623.82	1.91965
1625.36	0.742823
1626.89	1.34353
1628.43	1.11943
1629.96	1.30552
1631.5	1.19138
1633.04	1.37584
1634.57	1.6164
1636.11	1.27917
1637.64	1.27884
1639.17	0.663884
1640.71	1.298
1642.24	1.14858
1643.77	2.00365
1645.31	1.36785
1646.84	2.07079
1648.37	1.84337
1649.9	1.82096
1651.43	1.66971
1652.96	1.29734
1654.5	1.70506
1656.03	1.70535
1657.56	2.44666
1659.09	1.42708
1660.62	1.98056
1662.15	1.27395
1663.67	1.86114
1665.2	2.31753
1666.73	0.946623
1668.26	1.86557
1669.79	1.64217
1671.32	1.3468
1672.84	1.12638
1674.37	0.998561
1675.9	1.25715
1677.43	0.686607
1678.95	1.6055
1680.48	1.06997
1682	0.79157
1683.53	0.990612
1685.05	1.22618
1686.58	1.09503
1688.1	1.36769
1689.63	1.12753
1691.15	1.07094
1692.68	0.70337
1694.2	0.189771
1695.72	0.755116
1697.25	0.753195
1698.77	0.805714
1700.29	0.273765
1701.81	0.982115
1703.33	0.850606
1704.86	0.227095
1706.38	0.550259
1707.9	0.418139
1709.42	0.249849
1710.94	0.553743
1712.46	0.494649
1713.98	0.526388
1715.5	0.0331678
1717.02	0.372686
1718.54	0.133206
1720.06	0.363523
1721.57	0.575588
1723.09	0.751816
1724.61	1.09093
1726.13	0.332579
1727.64	0.764159
1729.16	0.440616
1730.68	0.173179
1732.19	1.27541
1733.71	0.140387
1735.23	0.409106
1736.74	0.437279
1738.26	0.484937
1739.77	0.454881
1741.29	-0.454399
1742.8	0.128288
1744.31	0.292593
1745.83	0.561186
1747.34	0.657993
1748.85	-0.237403
1750.37	0.194967
1751.88	0.0880051
1753.39	-0.325075
1754.91	0.117224
1756.42	-0.228881
1757.93	0.165598
1759.44	0.794827
1760.95	0.329673
1762.46	0.256739
1763.97	0.140927
1765.48	0.294229
1766.99	0.217696
1768.5	0.354232
1770.01	-0.187735
1771.52	0.161386
1773.03	0.180782
1774.54	-0.233238
1776.04	-0.303648
1777.55	-0.0521097
1779.06	0.010191
1780.57	-0.0330925
1782.07	-0.142563
1783.58	0.0872421
1785.09	0.464986
1786.59	0.0149126
1788.1	0.286611
1789.6	0.054678
1791.11	0.15365
1792.61	0.0129318
1794.12	-0.0467443
1795.62	0.0557604
1797.13	0.209273
1798.63	0.100981
1800.13	0.156984
1801.64	0.182147
1803.14	0.336396
1804.64	0.0313616
1806.15	0.0931177
1807.65	0.22807
1809.15	0.271202
1810.65	0.1993
1812.15	0.152161
1813.65	0.128006
1815.16	0.0195484
1816.66	0.21886
1818.15	0.203382
1819.66	-0.00599766
1821.16	0.103593
1822.65	-0.267063
1824.15	-0.0769482
1825.65	0.217004
1827.15	0.079813
1828.65	0.0442677
1830.15	0.117225
1831.64	0.196468
1833.14	0.0284491
1834.64	-0.171285
1836.14	0.142118
1837.63	0.27588
1839.13	-0.373379
1840.62	0.120604
1842.12	0.390773
1843.62	0.166926
1845.11	0.0738745
1846.61	-0.0203295
1848.1	0.00852394
1849.6	-0.0254488
1851.09	0.00384235
1852.58	-0.0492611
1854.08	0.096386
1855.57	0.0107899
1857.06	0.242871
1858.55	0.0310335
1860.05	0.119423
1861.54	-0.00594521
1863.03	0.339118
1864.52	0.262399
1866.01	0.42469
1867.5	0.680989
1869	0.233224
1870.49	-0.240704
1871.98	-0.0572538
1873.47	0.442979
1874.96	-0.277311
1876.44	-0.0359945
1877.93	-0.120145
1879.42	-0.337115
1880.91	0.4883
1882.4	0.158335
1882.47	0.141615
1883.96	0.192764
1885.46	0.260524
1886.95	0.0660744
1888.44	0.0627909
1889.94	0.16406
1891.43	-0.0120668
1892.93	-0.0821953
1894.42	0.266733
1895.91	0.286901
1897.4	-0.14422
1898.89	-0.05373
1900.39	0.0184298
1901.88	0.106412
1903.37	-0.033474
1904.86	-0.10516
1906.35	-0.160198
1907.84	0.0105219
1909.33	0.303158
1910.82	-0.114907
1912.31	-0.341014
1913.8	-0.271625
1915.29	0.0926361
1916.77	0.248398
1918.26	0.195561
1919.75	0.211607
1921.24	0.331459
1922.73	0.382372
1924.21	0.191768
1925.7	0.348577
1927.19	0.142929
1928.67	0.370773
1930.16	-0.267152
1931.64	0.358242
1933.13	0.047121
1934.61	-0.14443
1936.1	-0.268243
1937.58	0.24668
1939.07	-0.172609
1940.55	0.0823479
1942.04	0.424114
1943.52	-0.11314
1945	0.109633
1946.49	0.022357
1947.97	0.227907
1949.45	0.156957
1950.93	-0.10431
1952.42	0.270491
1953.9	-0.00921917
1955.38	0.0893965
1956.86	0.720613
1958.34	0.253349
1959.82	0.164728
1961.3	0.19678
1962.78	-0.0452194
1964.26	-0.150115
1965.74	0.292611
1967.22	0.289193
1968.7	0.0285435
1970.18	0.160791
1971.65	-0.0831833
1973.13	-0.139121
1974.61	0.0439024
1976.09	0.0734444
1977.57	0.511917
1979.04	0.183938
1980.52	0.281632
1982	-0.113934
1983.47	0.340107
1984.95	-0.00462341
1986.42	0.227587
1987.9	0.374674
1989.37	0.318639
1990.85	-0.0581884
1992.32	-0.196854
1993.8	-0.249881
1995.27	0.492196
1996.75	0.474003
1998.22	-0.0339565
1999.69	0.0657978
2001.17	0.586759
2002.64	0.31399
2004.11	0.260499
2005.58	0.0725813
2007.05	0.222416
2008.53	0.288899
2010	0.0531893
2011.47	-0.181908
2012.94	-0.265388
2014.41	-0.265079
2015.88	-0.130886
2017.35	0.45646
2018.82	-0.0333986
2020.29	0.753654
2021.76	-0.0556602
2023.23	0.395056
2024.7	-0.0431137
2026.16	-0.278561
2027.63	-0.244213
2029.1	-0.51037
2030.57	-0.3224
2032.03	0.437145
2033.5	0.0897589
2034.97	0.329894
2036.44	0.452238
2037.9	0.103637
2039.37	-0.0942554
2040.83	0.0943336
2042.3	0.199301
2043.76	0.0695801
2045.23	-0.0256977
2046.69	0.620435
2048.16	0.138993
2049.62	0.53314
2051.08	0.066762
2052.55	0.273184
2054.01	0.427277
2055.47	-0.179229
2056.94	0.646118
2058.4	0.189382
2059.86	0.0865526
2061.32	0.219917
2062.79	0.252995
2064.25	0.505845
2065.71	0.036027
2067.17	0.40852
2068.63	0.377731
2070.09	0.111609
2071.55	0.35055
2073.01	0.202163
2074.47	0.188204
2075.93	0.780169
2077.39	0.39506
2078.85	0.464242
2080.31	0.431935
2081.76	0.584285
2083.22	0.348759
2084.68	0.348207
2086.13	0.616076
2087.59	0.714948
2089.05	0.662042
2090.51	0.205838
2091.96	0.253699
2093.42	0.502794
2094.87	0.483041
2096.33	0.429312
2097.78	0.408494
2099.24	0.604648
2100.69	0.331916
2102.15	0.878611
2103.6	0.456827
2105.06	1.20513
2106.51	0.886525
2107.96	0.869481
2109.42	0.569366
2110.87	1.28579
2112.32	0.917196
2113.77	1.22999
2115.23	0.608782
2116.68	0.785672
2118.13	1.1951
2119.58	1.27329
2121.03	0.822559
2122.48	1.00444
2123.93	0.939049
2125.38	1.18943
2126.83	0.809518
2128.28	1.43988
2129.73	1.32275
2131.18	1.17119
2132.63	1.49897
2134.08	1.18112
2135.53	1.26126
2136.97	1.17757
2138.42	1.40984
2139.87	1.54497
2141.32	1.21907
2142.76	1.57223
2144.21	1.82714
2145.66	1.76799
2147.1	1.98995
2148.55	2.37701
2150	1.63678
2151.44	1.87276
2152.89	1.9917
2154.33	2.0103
2155.78	2.22718
2157.22	2.12934
2158.66	2.33046
2160.11	1.98639
2161.55	1.77668
2163	2.24856
2164.44	2.02594
2165.88	2.16924
2167.32	2.22962
2168.77	1.67385
2170.21	2.01373
2171.65	2.18517
2173.09	2.28792
2174.53	2.57204
2175.97	2.04048
2177.41	2.70647
2178.85	1.95998
2180.29	2.01266
2181.73	2.41549
2183.17	1.95437
2184.61	2.0922
2186.05	2.09709
2187.49	1.83579
2188.93	1.39137
2190.37	1.89556
2191.81	1.73372
2193.24	1.93738
2194.68	2.15627
2196.12	1.77387
2197.56	2.105
2198.99	1.30318
2200.43	1.34872
2201.87	1.11176
2203.3	1.29055
2204.74	1.43709
2206.17	1.89947
2207.61	1.28522
2209.04	1.61524
2210.48	1.58001
2211.91	1.42797
2213.35	0.895151
2214.78	1.30444
2216.21	1.03698
2217.65	1.41441
2219.08	1.29806
2220.51	1.89163
2221.95	1.15004
2223.38	1.01784
2224.81	0.587975
2226.24	1.50629
2227.67	0.64578
2229.1	1.11595
2230.54	1.12494
2231.97	0.527353
2233.4	0.487897
2234.83	0.383843
2236.26	0.542499
2237.69	0.80039
2239.11	0.554029
2240.54	0.456647
2241.97	0.589405
2243.4	0.364581
2244.83	1.11879
2246.26	0.583834
2247.69	0.699796
2249.11	0.210406
2250.54	0.648037
2251.97	1.08326
2253.4	0.264604
2254.82	0.503783
2256.25	0.79264
2257.67	0.109871
2259.1	0.874123
2260.53	0.456834
2261.95	0.788385
2263.38	0.244893
2264.8	0.107369
2266.23	0.587257
2267.65	0.497506
2269.07	0.26032
2270.5	0.315221
2271.92	0.483637
2273.34	0.342509
2274.77	0.576068
2276.19	0.744751
2277.61	0.0499153
2279.03	0.724176
2280.46	0.0452919
2281.88	0.752366
2283.3	0.627645
2284.72	0.470265
2286.14	0.329335
2287.56	0.0743818
2288.98	0.538343
2290.4	0.333125
2291.82	0.242435
2293.24	0.364393
2294.66	0.666421
2296.08	0.297527
2297.5	0.124771
2298.92	0.00105762
2300.34	0.0576897
2301.76	-0.000135422
2303.17	0.253947
2304.59	0.344309
2306.01	-0.0744104
2307.43	-0.0502195
2308.84	0.43376
2310.26	-0.249954
2311.68	0.0195417
2313.09	0.338517
2314.51	0.295961
2315.92	-0.157602
2317.34	-0.10016
2318.75	0.155581
2320.17	0.262972
2321.58	0.484958
2323	0.424717
2324.41	0.494254
2325.82	0.512069
2327.24	0.610657
2328.65	0.477621
2330.06	0.196643
2331.48	0.229581
2332.89	0.000212669
2334.3	-0.0965805
2335.71	-0.0121212
2337.12	-0.0267668
2338.54	0.582454
2339.95	-0.436754
2341.36	0.0715828
2342.77	0.431083
2344.18	0.298055
2345.59	0.263789
2347	0.0988111
2348.41	-0.360571
2349.82	-0.165345
2351.23	-0.183582
2352.64	0.156656
2354.04	-0.0104408
2355.45	-0.0148439
2356.86	-0.166106
2358.27	-0.105631
2359.68	0.11731
2361.08	0.128871
2362.49	0.156612
2363.9	-0.0911341
2365.3	0.308759
2366.71	0.174632
2368.12	0.0251856
2369.52	0.167332
2370.93	-0.173117
2372.33	0.10029
2373.74	0.213333
2375.14	0.00473881
2376.55	0.0695267
2377.95	-0.0436039
2379.36	0.25979
2380.76	0.223986
2382.16	0.0425892
2383.57	-0.235342
2384.97	0.207003
2386.37	0.00156116
2387.78	-0.202606
2389.18	0.00129032
2390.58	-0.128575
2391.98	0.188599
2393.38	-0.0983148
2394.79	0.140676
2396.19	0.189349
2397.59	0.318052
2398.99	-0.0453291
2400.39	-0.185689
2401.79	-0.0556889
2403.19	0.106078
2404.59	0.553274
2405.99	0.110513
2407.39	0.381221
2408.78	0.127556
2410.18	0.14329
2411.58	-0.0309286
2412.98	0.302508
2414.38	0.1461
2415.77	0.196914
2417.17	0.565609
2418.57	0.20692
2419.97	0.29191
2421.36	-0.130055
2422.76	0.477296
2424.15	0.0863285
2425.55	0.0122361
2426.95	0.0653677
2428.34	-0.0392404
2429.74	0.0948339
2431.13	-0.103527
2432.52	-0.0479383
2433.92	0.150187
2435.31	0.26801
2436.71	0.130281
2438.1	0.435985
2439.49	0.23205
2440.89	0.122622
2442.28	0.0286207
2443.67	0.331122
2445.06	-0.032979
2446.46	0.110433
2447.85	0.206047
2449.24	0.285713
2450.63	0.207176
2452.02	-0.187374
2453.41	0.05194
2454.8	-0.00866365
2456.19	0.405945
2457.58	0.0615482
2458.97	0.0650344
2460.36	0.14708
2461.75	0.244169
2463.14	0.324647
2464.53	0.0727172
2465.92	0.531368
2467.31	0.0108123
2468.69	-0.114872
2470.08	-0.0829082
2471.47	0.311168
2472.86	0.0582795
2474.24	-0.132015
2475.63	-0.0237417
2477.02	-0.0731649
2478.4	-0.263915
2479.79	0.0950084
2481.17	-0.189365
2482.56	0.310044
2483.94	-0.193686
2485.33	0.303674
2486.72	0.111555
2488.1	0.371397
2489.48	0.162329
2490.87	-0.0152335
2492.25	0.0568199
2493.64	0.253873
2495.02	0.327651
2496.4	0.309478
2497.79	-0.00214672
2499.17	0.104848
2500.55	-0.14435
2501.93	0.100716
2503.31	0.529767
2504.69	-0.0609579
2506.08	-0.127117
2507.46	-0.208757
2508.84	0.0481086
2510.22	-0.386314
2511.6	0.16262
2512.98	0.373994
2514.36	0.0344095
2515.74	-0.242664
2517.12	0.292039
2518.5	0.123356
2519.88	0.107828
2521.25	0.107357
2522.63	-0.15318
2524.01	0.180745
2525.39	0.132484
2526.77	0.281999
2528.14	-0.35962
2529.52	-0.208694
2530.9	0.171401
2532.27	-0.0246568
2533.65	0.0388656
2535.03	0.0118852
2536.4	-0.0910759
2537.78	0.291508
2539.15	0.0200262
2540.53	-0.14579
2541.9	0.173836
2543.28	0.0382905
2544.65	0.267612
2546.03	0.406969
2547.4	0.426117
2548.77	0.0364447
2550.15	0.223351
2551.52	-0.0453911
2552.89	0.185839
2554.27	-0.0846796
2555.64	0.20543
2557.01	-0.0815015
2558.38	0.253283
2559.75	0.0423694
2561.12	0.0745149
2562.5	-0.0291729
2563.87	0.064672
2565.24	-0.189646
2566.61	0.162419
2567.98	-0.258329
2569.35	0.215087
2570.72	-0.1754
2572.09	-0.353695
2573.46	0.0137534
2574.83	-0.209901
2576.19	0.112226
2577.56	0.540469
2578.93	-0.0473742
2580.3	0.289386
2581.67	-0.056572
2583.04	-0.0692773
2584.4	0.0390701
2585.77	-0.216464
2587.14	0.104095
2588.5	0.167113
2589.87	0.169605
2591.23	-0.237165
2592.6	-0.189701
2593.97	0.190318
2595.33	0.175464
2596.7	0.386717
2598.06	0.324688
2599.43	0.0658021
2600.79	0.00372219
2602.15	0.0629525
2603.52	0.424627
2604.88	0.36401
2606.25	0.741081
2607.61	-0.0284209
2608.97	0.0912328
2610.33	0.28498
2611.7	0.176219
2613.06	0.502626
2614.42	0.166702
2615.78	-0.00374031
2617.15	0.0212212
2618.51	-0.0581808
2619.87	0.342081
2621.23	0.413413
2622.59	-0.366587
2623.95	0.153795
2625.31	0.106377
2626.67	-0.105246
2628.03	0.115274
2629.39	0.454297
2630.75	-0.0257297
2632.1	-0.445638
2633.46	0.0857606
2634.82	0.0225654
2636.18	0.107737
2637.54	0.385386
2638.89	0.396103
2640.25	-0.036921
2641.61	0.107504
2642.97	0.237185
2644.32	0.411123
2645.68	0.304443
2647.03	0.168066
2648.39	0.399515
2649.75	0.261887
2651.1	0.359095
2652.46	0.250179
2653.81	0.024281
2655.17	0.312478
2656.52	0.366828
2657.88	0.65635
2659.23	0.288091
2660.58	0.110676
2661.94	-0.198216
2663.29	0.252234
2664.64	-0.159816
2666	-0.251073
2667.35	0.429787
2668.7	0.352211
2670.05	0.478689
2671.4	0.241957
2672.76	0.122353
2674.11	0.264843
2675.46	0.0593376
2676.81	-0.305081
2678.16	0.216038
2679.51	-0.175917
2680.86	-0.204399
2682.21	0.0870924
2683.56	0.176673
2684.91	0.35418
2686.26	0.0243979
2687.61	-0.0299363
2688.96	0.321163
2690.3	0.220747
2691.65	-0.142565
2693	-0.0427284
2694.35	0.549148
2695.7	0.21264
2697.04	0.239141
2698.39	0.00609064
2699.74	0.295859
2701.08	0.283105
2702.43	0.242738
2703.77	0.014926
2705.12	-0.00966072
2706.47	0.284865
2707.81	0.202141
2709.16	0.00283813
2710.5	0.0934682
2711.85	0.0386348
2713.19	0.0417528
2714.53	0.262831
2715.88	-0.0394583
2717.22	0.428776
2718.57	0.489681
2719.91	0.186492
2721.25	0.610436
2722.59	0.233506
2723.94	0.467409
2725.28	0.32246
2726.62	0.293595
2727.96	0.191662
2729.3	0.467873
2730.65	0.205501
2731.99	0.626934
2733.33	0.233701
2734.67	0.233424
2736.01	0.320585
2737.35	0.422396
2738.69	-0.0430136
2740.03	0.218522
2741.37	0.188767
2742.71	0.172974
2744.05	-0.0614462
2745.38	0.328417
2746.72	0.514263
2748.06	-0.0115051
2749.4	0.217679
2750.74	0.12776
2752.07	0.125116
2753.41	0.0936828
2754.75	0.3232
2756.09	0.205075
2757.42	-0.0721264
2758.76	0.143213
2760.09	0.242999
2761.43	0.328706
2762.77	-0.00479984
2764.1	0.0816188
2765.44	-0.0634732
2766.77	0.0804057
2768.11	-0.00799704
2769.44	0.090487
2770.77	0.0575123
2772.11	-0.323242
2773.44	-0.141566
2774.77	-0.148124
2776.11	0.147746
2777.44	-0.00273466
2778.77	0.163875
2780.11	-0.258491
2781.44	0.124203
2782.77	0.305547
2784.1	0.171067
2785.43	0.00806284
2786.77	0.0459366
2788.1	-0.41683
2789.43	-0.0915418
2790.76	0.0340109
2792.09	-0.254479
2793.42	0.200921
2794.75	-0.0584393
2796.08	0.0821071
2797.41	-0.00646544
2798.74	0.0758576
2800.07	0.0149894
2801.4	0.0537872
2802.72	0.206432
2804.05	0.159169
2805.38	0.0973172
2806.71	0.0207567
2808.04	0.0717354
2809.36	0.20751
2810.69	0.158454
2812.02	0.0248384
2813.34	0.0342064
2814.67	0.243331
2816	-0.297611
2817.32	-0.0578856
2818.65	0.210694
2819.97	0.280867
2821.3	-0.0178618
2822.62	0.00880623
2823.95	-0.347638
2825.27	0.230633
2826.6	0.426291
2827.92	0.070147
2829.25	0.365817
2830.57	0.336278
2831.89	0.887317
2833.22	0.164323
2834.54	0.545136
2835.86	0.35934
2837.18	0.0174775
2838.51	0.283647
2839.83	0.59191
2841.15	0.857675
2842.47	1.26504
2843.79	1.13583
2845.11	1.07799
2846.43	1.21859
2847.76	1.99555
2849.08	1.54297
2850.4	1.75439
2851.72	2.036
2853.04	1.87895
2854.36	1.87698
2855.67	1.63464
2856.99	2.21169
2858.31	2.22364
2859.63	2.19321
2860.95	2.03555
2862.27	2.23056
2863.58	2.48159
2864.9	2.74633
2866.22	2.54539
2867.54	2.55634
2868.85	2.45491
2870.17	2.59359
2871.49	2.81698
2872.8	3.12461
2874.12	3.10732
2875.43	2.8777
2876.75	2.71759
2878.07	3.35891
2879.38	3.47887
2880.7	3.3741
2882.01	3.481
2883.32	3.7153
2884.64	3.54327
2885.95	3.17545
2887.27	3.66402
2888.58	3.78712
2889.89	3.26409
2891.21	3.28746
2892.52	3.94089
2893.83	3.58489
2895.14	3.74767
2896.46	3.98113
2897.77	3.68379
2899.08	3.7374
2900.39	4.32344
2901.7	4.14052
2903.01	4.33553
2904.32	4.99227
2905.63	4.82404
2906.94	4.40463
2908.25	4.72742
2909.56	4.93928
2910.87	5.08189
2912.18	4.95862
2913.49	5.40855
2914.8	5.61908
2916.11	5.68775
2917.42	5.58673
2918.72	5.76451
2920.03	5.9
2921.34	6.10603
2922.65	6.03373
2923.95	6.18663
2925.26	6.25694
2926.57	6.45378
2927.88	6.3991
2929.18	6.26015
2930.49	6.42818
2931.79	6.7215
2933.1	6.53924
2934.4	6.37098
2935.71	6.1889
2937.01	6.00705
2938.32	6.16081
2939.62	5.6162
2940.93	6.34373
2942.23	6.48533
2943.54	6.11117
2944.84	5.12322
2946.14	5.56238
2947.45	5.35898
2948.75	5.21122
2950.05	5.41226
2951.35	4.91141
2952.66	5.01069
2953.96	4.89848
2955.26	4.91187
2956.56	4.52024
2957.86	4.70457
2959.16	4.94776
2960.46	4.5217
2961.77	4.13935
2963.07	3.95373
2964.37	4.20259
2965.66	4.02895
2966.96	3.81135
2968.26	3.73285
2969.56	3.51294
2970.86	4.0242
2972.16	3.90295
2973.46	3.40207
2974.76	3.35141
2976.06	3.38464
2977.35	3.44482
2978.65	2.77117
2979.95	3.25035
2981.25	2.75699
2982.54	2.7417
2983.84	2.58615
2985.14	2.23502
2986.43	2.09632
2987.73	2.05743
2989.02	2.27251
2990.32	2.06634
2991.62	1.77542
2992.91	1.98952
2994.21	1.542
2995.5	1.71171
2996.8	1.59982
2998.09	1.10895
2999.38	1.43235
3000.68	1.44755
3001.97	1.14096
3003.26	0.750932
3004.56	0.823586
3005.85	0.559922
3007.14	0.785918
3008.43	0.941052
3009.73	0.773629
3011.02	0.284414
3012.31	0.298223
3013.6	0.423655
3014.89	0.312326
3016.19	0.870509
3017.48	0.607328
3018.77	0.414574
3020.06	0.194368
3021.35	0.265989
3022.64	0.031281
3023.93	0.254109
3025.22	0.406589
3026.5	0.0876966
3027.79	-0.0779095
3029.08	-0.145432
3030.37	0.147727
3031.66	0.262412
3032.95	-0.118939
3034.24	0.0385766
3035.52	0.0576754
3036.81	0.0895052
3038.1	-0.155707
3039.39	0.231061
3040.67	0.203257
3041.96	0.188483
3043.25	-0.141496
3044.53	-0.072825
3045.82	-0.00283861
3047.1	-0.0539689
3048.39	0.224758
3049.67	-0.218126
3050.96	-0.127131
3052.24	0.428592
3053.53	0.220299
3054.81	0.420865
3056.1	0.37499
3057.38	0.0965123
3058.67	-0.386651
3059.95	0.233504
3061.23	0.281784
3062.52	0.19495
3063.8	0.0686955
3065.08	0.229426
3066.36	0.201159
3067.65	0.214695
3068.93	0.133504
3070.21	0.160993
3071.49	0.215068
3072.77	-0.0853786
3074.05	-0.0739455
3075.33	-0.470848
3076.61	-0.283561
3077.89	0.066843
3079.17	0.0516248
3080.45	0.254861
3081.73	-0.0830207
3083.01	-0.121294
3084.29	-0.0774398
3085.57	0.183772
3086.85	0.281927
3088.13	0.230287
3089.41	-0.106854
3090.68	0.234313
3091.96	-0.00802708
3093.24	-0.0601149
3094.52	0.145864
3095.79	-0.163082
3097.07	-0.0650082
3098.35	0.236417
3099.62	0.198979
3100.9	0.391909
3102.18	0.124478
3103.45	0.223113
3104.73	0.0245028
3106	0.0297251
3107.28	0.17119
3108.55	0.151283
3109.83	0.200105
3111.1	0.277022
3112.38	0.219357
3113.65	0.243474
3114.93	0.389765
3116.2	0.251147
3117.47	0.152585
3118.75	0.351627
3120.02	0.18372
3121.29	0.150845
3122.57	0.348051
3123.84	0.572172
3125.11	0.45792
3126.38	0.317226
3127.65	0.204381
3128.92	0.430356
3130.2	0.480918
3131.47	0.653358
3132.74	0.704171
3134.01	0.592729
3135.28	0.778132
3136.55	0.625699
3137.82	0.648508
3139.09	0.927112
3140.36	0.895718
3141.63	0.958744
3142.9	0.363754
3144.17	0.830986
3145.43	0.707924
3146.7	0.974635
3147.97	0.973843
3149.24	0.572077
