200.423	1.0817
202.238	1.10823
204.052	1.13599
205.868	1.1405
207.682	0.902127
209.495	1.10068
211.308	1.54052
213.12	0.885873
214.935	0.473276
216.746	0.496729
218.558	0.689623
220.369	1.22169
222.18	0.278575
223.992	0.256151
225.802	0.161774
227.612	-0.246573
229.421	0.600533
231.23	0.963442
233.039	0.939558
234.849	-0.193172
236.657	0.243011
238.465	0.0545568
240.272	-0.155342
242.079	-0.073616
243.885	-0.617641
245.691	-0.0762424
247.497	0.51214
249.305	0.542352
251.11	0.0860014
252.915	-0.156076
254.719	0.733803
256.523	0.32021
258.327	0.462106
260.13	-0.141177
261.933	-0.501334
263.736	0.489298
265.538	0.686176
267.34	0.184568
269.141	0.477816
270.943	0.529085
272.744	0.217318
274.544	0.506646
276.344	0.408299
278.144	0.115073
279.944	0.277419
281.743	0.846381
283.542	0.426229
285.34	0.341475
287.138	-0.0800943
288.936	0.81783
290.733	0.0858793
292.53	0.481528
294.327	0.160714
296.123	-0.0147028
297.919	-0.0693312
299.715	-0.314555
301.508	0.323851
303.303	-0.161305
305.098	0.712841
306.892	0.416229
308.686	0.405662
310.479	0.205043
312.273	0.601275
314.065	0.689554
315.858	0.422737
317.648	0.038765
319.44	0.775965
321.231	0.299532
323.022	0.0380869
324.813	0.182427
326.604	0.518054
328.392	-0.00633812
330.181	0.232893
331.971	0.566719
333.76	0.683513
335.548	0.127852
337.335	-0.239016
339.123	-0.273128
340.91	-0.189371
342.698	0.251931
344.483	0.429887
346.269	0.464906
348.055	0.643929
349.841	0.727928
351.625	0.597091
353.41	0.0838928
355.195	0.142309
356.977	0.127661
358.762	-0.150596
360.545	1.21339
362.329	-0.305087
364.11	0.0325756
365.893	0.297589
367.675	0.181459
369.455	0.277964
371.237	0.231153
373.017	-0.336888
374.798	-0.0769434
376.578	0.158822
378.357	0.11164
380.137	0.0184031
381.917	0.303181
383.694	-0.493049
385.473	-0.135056
387.249	0.999311
389.028	0.137444
390.806	0.521862
392.581	0.390428
394.359	0.0718365
396.134	0.481654
397.91	0.774205
399.684	0.244509
401.46	0.27801
403.234	-0.088501
405.009	0.295765
406.784	0.326861
408.557	0.638977
410.331	0.0116625
412.103	-0.146024
413.876	0.564978
415.647	0.220757
417.42	0.487514
419.191	0.42649
420.961	0.177979
422.733	0.0699844
424.502	-0.719606
426.273	0.109667
428.042	0.0224361
429.812	0.216355
431.58	0.38671
433.35	0.275753
435.118	-0.304215
436.885	-0.180122
438.653	-0.26797
440.42	0.370083
442.188	0.231511
443.954	0.723619
445.719	-0.0286245
447.486	-0.289495
449.251	0.431696
451.015	-0.15666
452.781	-0.0900421
454.545	0.209972
456.308	0.020051
458.073	0.109723
459.836	0.106233
461.598	0.0104494
463.362	-0.478678
465.124	0.127116
466.885	-0.402675
468.648	0.0696697
470.408	0.288693
472.169	-0.212662
473.929	-0.133288
475.69	0.386827
477.45	1.02126
479.208	-0.0702257
480.967	0.118383
482.727	0.330378
484.485	0.47377
486.243	0.479602
488	0.114952
489.759	-0.247852
491.515	0.183582
493.272	-0.247973
495.028	0.348911
496.783	0.572309
498.54	0.467798
500.295	0.620547
502.05	0.42078
503.804	0.431109
505.558	0.5342
507.311	0.823997
509.064	0.194835
510.819	0.198849
512.572	0.0364094
514.324	0.766473
516.076	-0.0108204
517.827	0.480922
519.578	0.689087
521.329	1.01368
523.08	0.421518
524.83	0.15834
526.58	0.575728
528.329	0.289322
530.08	0.823311
531.829	0.325736
533.578	0.202393
535.326	0.0545578
537.074	0.723395
538.821	0.805724
540.568	-0.512716
542.315	0.174217
544.062	0.393787
545.808	0.450135
547.554	-0.120082
549.299	-0.549604
551.044	0.0872698
552.789	-0.0172415
554.533	-0.0519896
556.278	0.190629
558.019	0.0411844
559.763	0.583744
561.506	-0.0710258
563.249	0.472004
564.991	-0.203322
566.733	0.225555
568.475	0.126786
570.217	0.419404
571.958	0.323366
573.699	-0.000174522
575.439	0.412339
577.177	0.735116
578.917	0.210305
580.656	0.283064
582.396	-0.356297
584.134	0.152679
585.873	-0.074955
587.609	-0.143034
589.347	0.0176458
591.084	0.6375
592.822	-0.376772
594.558	-0.194802
596.295	0.309312
598.029	0.514318
599.765	0.534891
601.5	0.255507
603.235	-0.324122
604.968	-0.284198
606.703	-0.153775
608.437	-0.00140381
610.171	0.517835
611.902	0.119506
613.635	0.295631
615.368	-0.261014
617.099	0.46598
618.831	0.115505
620.563	0.222002
622.294	0.487162
624.024	0.568124
625.755	0.397656
627.485	-0.159534
629.213	0.792112
630.943	0.308455
632.673	0.625825
634.4	0.716313
636.129	0.395643
637.855	-0.246508
639.584	0.477981
641.312	-0.557672
643.037	0.45667
644.764	0.238307
646.491	0.339113
648.216	0.646399
649.942	0.729658
651.666	0.521897
653.392	0.909469
655.115	0.00477409
656.84	-0.0109272
658.563	0.886164
660.287	-0.200384
662.011	0.0339556
663.732	0.31192
665.456	0.518953
667.177	0.312356
668.899	0.242039
670.62	0.0122681
672.342	0.0819292
674.061	-0.00601959
675.781	0.412457
677.502	0.51195
679.22	0.152506
680.941	0.43504
682.659	0.73911
684.379	0.32759
686.096	0.489189
687.815	0.948542
689.532	0.324164
691.248	0.297825
692.966	0.109571
694.682	0.957005
696.4	0.720768
698.115	0.230108
699.829	0.935018
701.546	0.625994
703.26	0.707011
704.974	0.993832
706.689	0.246877
708.402	0.945352
710.115	1.04653
711.83	0.94108
713.542	1.29294
715.254	0.706985
716.967	0.190518
718.679	0.770049
720.39	0.824551
722.102	0.87914
723.812	0.319396
725.522	1.23816
727.232	0.474225
728.943	0.664289
730.652	0.604147
732.361	0.951384
734.069	1.13932
735.779	1.1009
737.487	0.972663
739.194	0.597262
740.901	1.17031
742.608	1.31588
744.316	0.404673
746.022	1.22868
747.728	1.08631
749.433	1.19294
751.138	0.89616
752.843	0.983196
754.549	0.959299
756.254	0.959532
757.957	1.18663
759.661	1.05513
761.364	0.924733
763.067	0.636802
764.769	1.54492
766.471	0.803661
768.175	0.602157
769.877	1.41575
771.578	1.14189
773.279	1.11518
774.98	1.17838
776.68	1.46824
778.38	1.14902
780.079	1.48727
781.779	1.64597
783.478	1.5108
785.176	1.80444
786.875	2.02762
788.573	1.63607
790.27	1.309
791.968	1.56699
793.665	1.61948
795.361	1.46849
797.058	1.40891
798.754	1.44131
800.45	1.70077
802.145	1.9391
803.84	1.211
805.535	1.47247
807.23	1.10369
808.922	1.29547
810.616	1.77745
812.309	1.83161
814.002	1.84022
815.695	1.96045
817.388	0.760734
819.08	1.64157
820.772	1.20361
822.464	1.39154
824.153	1.66924
825.844	1.41333
827.535	1.24908
829.225	1.8228
830.915	1.08584
832.605	1.8889
834.292	1.6251
835.981	1.40679
837.67	1.63439
839.359	1.99496
841.047	1.28186
842.732	0.767951
844.42	1.25886
846.107	0.677804
847.794	0.836058
849.479	1.24311
851.165	1.47432
852.851	2.1788
854.534	1.22543
856.22	1.32559
857.905	0.592872
859.589	0.824729
861.272	1.55037
862.956	1.82447
864.639	1.24093
866.321	0.881402
868.004	1.08471
869.687	1.24249
871.367	0.948837
873.049	1.10608
874.731	1.1279
876.41	0.901487
878.092	1.21671
879.771	0.290408
881.451	1.21468
883.131	0.693449
884.809	0.825747
886.489	1.20479
888.166	1.04044
889.845	0.829386
891.522	0.324009
893.2	0.133221
894.878	0.931596
896.554	0.603402
898.231	0.679003
899.906	0.775898
901.583	1.92471
903.258	1.36943
904.934	1.12818
906.608	0.977074
908.283	0.782397
909.956	1.54671
911.631	0.619644
913.304	1.18426
914.976	0.948862
916.65	1.02452
918.322	1.1443
919.995	1.35252
921.666	1.4725
923.339	0.819863
925.009	0.722158
926.679	0.847308
928.351	0.576873
930.021	0.572717
931.692	0.856116
933.361	0.830893
935.029	0.982324
936.699	0.626897
938.367	0.492962
940.035	0.713176
941.704	0.625892
943.371	0.82622
945.038	1.42379
946.706	1.11529
948.372	0.51781
950.038	0.845358
951.705	1.17138
953.37	1.10023
955.035	1.22923
956.7	0.19249
958.366	0.195424
960.03	0.39988
961.693	0.473722
963.357	1.01179
965.021	1.26122
966.684	1.48578
968.346	0.667314
970.008	0.886402
971.67	1.7901
973.334	1.05743
974.995	0.30438
976.655	0.924362
978.316	1.25863
979.976	1.02958
981.638	0.799989
983.297	0.934142
984.957	0.911236
986.616	0.908196
988.274	1.08017
989.932	1.09578
991.59	1.42003
993.248	1.12525
994.907	1.16201
996.565	0.779693
998.221	1.14745
999.878	0.456801
1001.53	0.757574
1003.19	0.837412
1004.85	1.18067
1006.5	0.973901
1008.16	1.38242
1009.81	0.759338
1011.46	0.641952
1013.12	1.18269
1014.77	0.781373
1016.43	0.950119
1018.08	0.90044
1019.73	0.698585
1021.38	1.02273
1023.04	0.823312
1024.69	1.08397
1026.34	1.10486
1027.99	1.23503
1029.64	1.47368
1031.29	2.08212
1032.94	1.35654
1034.59	2.46247
1036.24	2.12631
1037.89	3.18385
1039.54	4.15247
1041.19	4.38094
1042.84	4.89349
1044.48	5.99463
1046.13	6.01191
1047.78	6.42304
1049.42	5.92461
1051.07	4.9285
1052.72	4.69364
1054.36	3.17715
1056.01	2.46416
1057.66	3.18527
1059.3	1.97092
1060.94	1.38609
1062.59	1.60485
1064.23	1.62682
1065.88	1.6693
1067.52	0.471668
1069.16	0.924883
1070.81	0.768943
1072.45	1.11222
1074.09	0.869888
1075.73	0.672221
1077.38	1.17006
1079.02	1.17042
1080.66	0.391005
1082.3	0.609098
1083.94	0.392603
1085.58	0.629693
1087.22	0.734422
1088.86	0.165519
1090.5	0.937023
1092.13	1.2303
1093.77	0.658608
1095.41	1.21008
1097.05	0.705189
1098.68	0.784181
1100.32	0.262197
1101.96	0.581964
1103.6	0.967969
1105.23	0.580953
1106.87	0.839891
1108.5	0.0662231
1110.14	0.818233
1111.77	0.643899
1113.41	0.768696
1115.04	0.48406
1116.67	0.520929
1118.31	0.60071
1119.94	0.852499
1121.58	0.762475
1123.21	0.545297
1124.84	0.521915
1126.47	0.67059
1128.1	0.926963
1129.73	0.392927
1131.37	0.394112
1133	0.331483
1134.63	-0.222903
1136.26	-0.115243
1137.89	0.589594
1139.52	0.203366
1141.14	0.328772
1142.77	0.517505
1144.4	0.258278
1146.03	-0.341097
1147.66	-0.321021
1149.29	-0.40661
1150.91	0.104739
1152.54	0.168665
1154.17	-0.0658484
1155.79	0.380402
1157.42	0.0602856
1159.04	-0.0678492
1160.67	0.208967
1162.3	-0.0447016
1163.92	0.701997
1165.55	-0.102866
1167.17	0.303938
1168.79	0.156839
1170.42	0.178072
1172.04	0.409695
1173.66	0.320687
1175.28	0.0819435
1176.91	0.39416
1178.53	-0.501315
1180.15	-0.484594
1181.77	0.0195198
1183.39	0.396873
1185.01	-0.113597
1186.63	0.156912
1188.25	0.678513
1189.87	-0.38381
1191.49	0.217432
1193.11	0.773495
1194.73	-0.184551
1196.35	0.390601
1197.97	0.0648079
1199.59	0.369023
1201.2	0.298988
1202.82	0.77475
1204.44	0.564112
1206.05	0.126443
1207.67	0.0658512
1209.29	0.589663
1210.9	0.945629
1212.52	0.257092
1214.13	0.587885
1215.75	0.395274
1217.36	0.700308
1218.97	0.650327
1220.59	0.807874
1222.2	0.799915
1223.82	1.06269
1225.43	0.457096
1227.04	0.992028
1228.65	0.411049
1230.26	0.824317
1231.88	1.54871
1233.49	0.600093
1235.1	1.57504
1236.71	0.732517
1238.32	1.11059
1239.93	0.9933
1241.54	1.18642
1243.15	1.54478
1244.76	1.69548
1246.37	1.20356
1247.97	1.28988
1249.58	1.37532
1251.19	1.31556
1252.8	1.27672
1254.41	1.38346
1256.01	1.24317
1257.62	1.45591
1259.23	0.966482
1260.83	1.20223
1262.44	1.27302
1264.04	1.34388
1265.65	1.02064
1267.25	1.62916
1268.86	1.09663
1270.46	1.7654
1272.07	0.815744
1273.67	1.54437
1275.27	1.79491
1276.88	1.07032
1278.48	1.54673
1280.08	1.19382
1281.68	2.35173
1283.28	1.66752
1284.89	1.10856
1286.49	1.74998
1288.09	1.93753
1289.69	1.94009
1291.29	1.57131
1292.89	1.69839
1294.49	1.84526
1296.09	1.9906
1297.69	2.21655
1299.29	1.86263
1300.88	1.83728
1302.48	1.13076
1304.08	1.5769
1305.68	2.39143
1307.27	1.8071
1308.87	1.73656
1310.47	1.39973
1312.06	1.86243
1313.66	1.85464
1315.25	1.78669
1316.85	1.65869
1318.44	1.87836
1320.04	2.01605
1321.63	1.3988
1323.23	1.53394
1324.82	1.84978
1326.41	1.53393
1328.01	1.68453
1329.6	1.38988
1331.19	1.44146
1332.78	1.91969
1334.38	1.34979
1335.97	1.81157
1337.56	1.82979
1339.15	2.14962
1340.74	1.43989
1342.33	1.15157
1343.92	1.82652
1345.51	1.43456
1347.1	0.722806
1348.69	1.77707
1350.28	1.43116
1351.87	1.56862
1353.46	0.94854
1355.04	1.26971
1356.63	0.811822
1358.22	1.21273
1359.81	1.45259
1361.39	0.313878
1362.98	0.631672
1364.57	0.988582
1366.15	0.926904
1367.74	1.04536
1369.32	0.627527
1370.91	0.35075
1372.49	0.373956
1374.07	0.656975
1375.66	0.801426
1377.24	0.667412
1378.83	0.731869
1380.41	1.15341
1381.99	1.77231
1383.57	0.579769
1385.16	0.659227
1386.74	0.698376
1388.32	0.956064
1389.9	0.638582
1391.48	0.639759
1393.06	0.443389
1394.64	1.17969
1396.22	0.547277
1397.8	1.08403
1399.38	0.648383
1400.96	1.14296
1402.54	1.00294
1404.12	0.882797
1405.7	1.00061
1407.28	1.21805
1408.85	0.922547
1410.43	0.983339
1412.01	0.905835
1413.58	1.12385
1415.16	0.867166
1416.74	1.31975
1418.31	1.21953
1419.89	1.59252
1421.46	1.96634
1423.04	1.67241
1424.61	1.93158
1426.19	0.814454
1427.76	1.58743
1429.33	1.63189
1430.91	1.99024
1432.48	1.34358
1434.05	1.7388
1435.63	1.42526
1437.2	2.07549
1438.77	2.01859
1440.34	2.13973
1441.91	2.00648
1443.49	2.2278
1445.05	2.03685
1446.63	2.55369
1448.2	1.98963
1449.77	1.7993
1451.34	2.53358
1452.91	2.02976
1454.47	1.91958
1456.04	2.89147
1457.61	2.19027
1459.18	1.58586
1460.75	1.55026
1462.31	2.10281
1463.88	1.02088
1465.45	1.806
1467.01	1.80408
1468.58	1.78291
1470.15	1.38989
1471.71	1.25343
1473.28	1.37318
1474.84	1.57218
1476.41	1.37945
1477.97	1.32413
1479.54	1.17074
1481.1	0.742877
1482.66	1.13811
1484.23	0.866889
1485.79	1.10473
1487.35	0.832438
1488.91	0.891751
1490.48	1.24254
1492.04	1.08212
1493.6	0.861009
1495.16	1.04813
1496.72	0.532126
1498.28	0.484199
1499.84	0.534126
1501.4	0.0220432
1502.96	0.695245
1504.52	0.689943
1506.08	0.607515
1507.64	0.679315
1509.2	0.807845
1510.76	0.0665216
1512.31	0.694394
1513.87	0.531137
1515.43	1.31032
1516.99	0.533167
1518.54	0.44899
1520.1	0.652984
1521.66	0.608
1523.21	1.05975
1524.77	0.822329
1526.32	0.393719
1527.88	0.0604868
1529.43	1.22973
1530.99	0.70575
1532.54	0.183742
1534.09	0.970671
1535.65	0.754309
1537.2	0.841747
1538.75	0.948638
1540.31	0.244893
1541.86	1.25692
1543.41	0.817733
1544.96	1.03723
1546.51	0.0915546
1548.06	0.667444
1549.62	0.604808
1551.17	0.991884
1552.72	0.611763
1554.27	1.24257
1555.82	0.715938
1557.36	0.845127
1558.91	0.453808
1560.46	1.10935
1562.01	1.31877
1563.56	0.522004
1565.11	-0.0317726
1566.66	1.37387
1568.2	1.26786
1569.75	1.08675
1571.3	1.27852
1572.84	0.965986
1574.39	0.690618
1575.93	1.2553
1577.48	0.494767
1579.02	0.817406
1580.57	0.916676
1582.11	0.81135
1583.66	1.49147
1585.2	0.603016
1586.75	1.26615
1588.29	1.20054
1589.83	1.8457
1591.38	1.42391
1592.92	1.39452
1594.46	1.75813
1596	1.07277
1597.54	1.0996
1599.09	1.22088
1600.63	0.967845
1602.17	1.59716
1603.71	1.47598
1605.25	1.35397
1606.79	1.73784
1608.33	1.25513
1609.87	1.03307
1611.41	1.33476
1612.95	1.22094
1614.48	1.55627
1616.02	1.21546
1617.56	1.38165
1619.1	0.986837
1620.64	1.1183
1622.17	1.53199
1623.71	1.12271
1625.25	1.29387
1626.78	1.33318
1628.32	0.940791
1629.86	1.08957
1631.39	1.19971
1632.92	1.19719
1634.46	1.62432
1635.99	1.24957
1637.53	0.838842
1639.06	0.951089
1640.59	1.75288
1642.13	1.75233
1643.66	1.84369
1645.19	1.93359
1646.73	1.63184
1648.26	1.86903
1649.79	2.34766
1651.32	2.19583
1652.85	1.80447
1654.38	2.34172
1655.92	2.71254
1657.45	2.13809
1658.98	2.06327
1660.51	2.24624
1662.04	1.77984
1663.57	1.57163
1665.09	1.71404
1666.62	1.37673
1668.15	2.18451
1669.68	1.29716
1671.21	1.42563
1672.73	1.57361
1674.26	1.22481
1675.79	1.53875
1677.31	1.94366
1678.84	1.1881
1680.37	1.24114
1681.89	1.42192
1683.42	1.01449
1684.94	1.54353
1686.47	1.32036
1687.99	0.676379
1689.52	0.986088
1691.04	1.20419
1692.57	0.562035
1694.09	0.688686
1695.61	0.668782
1697.14	0.411095
1698.66	0.792496
1700.18	0.862736
1701.7	0.877621
1703.22	0.636731
1704.75	0.304564
1706.27	0.500131
1707.79	0.167854
1709.31	0.562605
1710.83	0.303419
1712.35	0.697624
1713.87	0.62028
1715.39	0.615535
1716.91	-0.203227
1718.43	0.190114
1719.95	-0.0492973
1721.46	0.090745
1722.98	-0.0213041
1724.5	0.0119162
1726.02	0.424526
1727.53	0.442111
1729.05	0.172779
1730.57	0.137968
1732.08	0.315961
1733.6	-0.0195694
1735.12	0.311123
1736.63	0.240453
1738.15	0.505077
1739.66	-0.0275745
1741.18	0.5317
1742.69	0.0677795
1744.21	0.476965
1745.72	0.145119
1747.23	0.0790424
1748.74	0.27372
1750.26	-0.167192
1751.77	0.0757208
1753.28	-0.0790939
1754.8	0.0773554
1756.31	0.113544
1757.82	0.43961
1759.33	0.369784
1760.84	0.114638
1762.35	-0.138504
1763.86	-0.0114317
1765.37	0.217097
1766.88	-0.0315161
1768.39	0.33719
1769.9	0.269385
1771.41	0.169331
1772.92	0.373738
1774.43	0.176041
1775.93	0.576397
1777.44	0.0517254
1778.95	0.124481
1780.46	0.313374
1781.96	0.0132065
1783.47	0.248962
1784.98	-0.0653763
1786.48	-0.242554
1787.99	-0.0840025
1789.49	0.0844097
1791	-0.0370045
1792.5	-0.0648537
1794.01	0.185022
1795.51	-0.274887
1797.02	-0.064045
1798.52	-0.0801277
1800.03	-0.00450134
1801.53	0.161834
1803.03	-0.295716
1804.53	-0.0176735
1806.04	-0.0503244
1807.54	0.257265
1809.04	0.271842
1810.54	0.314624
1812.04	0.338495
1813.54	-0.141344
1815.05	0.167659
1816.55	-0.0686941
1818.05	-0.135786
1819.55	0.231626
1821.05	0.287372
1822.55	0.0472479
1824.05	-0.0204067
1825.54	0.017993
1827.04	0.0711393
1828.54	0.505271
1830.04	0.245169
1831.54	0.0962057
1833.03	-0.0244703
1834.53	0.031888
1836.03	-0.0359478
1837.52	0.23399
1839.02	0.256825
1840.52	-0.258242
1842.01	0.0961561
1843.51	0.0236998
1845	0.299978
1846.5	0.167094
1847.99	0.146525
1849.49	-0.0205593
1850.98	0.170009
1852.47	-0.282276
1853.97	0.0593462
1855.46	0.417587
1856.95	0.143941
1858.45	0.0556993
1859.94	0.216969
1861.43	0.169436
1862.92	0.418296
1864.41	0.235168
1865.91	0.0296402
1867.4	0.227121
1868.89	0.177083
1870.38	-0.0372648
1871.87	0.0808535
1873.36	0.273257
1874.85	0.523767
1876.34	0.168411
1877.83	0.272714
1879.31	0.131632
1880.8	0.137376
1882.29	0.226758
1882.56	0.246525
1884.05	0.106514
1885.54	0.279478
1887.04	0.172737
1888.53	0.239681
1890.03	0.341558
1891.52	0.305232
1893.01	-0.0597839
1894.5	0.0291119
1895.99	0.10214
1897.49	0.0542669
1898.98	0.110614
1900.47	0.287733
1901.96	0.271856
1903.45	0.132465
1904.94	0.235106
1906.43	0.14575
1907.92	0.299579
1909.41	0.384452
1910.9	0.175244
1912.39	0.539504
1913.88	0.0716925
1915.37	0.453815
1916.86	0.24599
1918.35	-0.135596
1919.84	0.27963
1921.32	0.244164
1922.81	0.295716
1924.3	0.365452
1925.78	0.245903
1927.27	0.248609
1928.76	-0.163595
1930.24	0.18598
1931.73	0.240399
1933.21	-0.070261
1934.7	0.154086
1936.18	-0.177035
1937.67	0.0443611
1939.15	-0.253319
1940.64	0.399371
1942.12	0.0857363
1943.6	0.256446
1945.09	-0.399828
1946.57	0.168618
1948.05	0.185002
1949.54	0.286755
1951.02	0.61123
1952.5	-0.18406
1953.98	0.482713
1955.46	0.478358
1956.94	-0.263992
1958.42	0.248066
1959.91	-0.183158
1961.39	0.278163
1962.87	0.190819
1964.34	-0.0337038
1965.82	-0.446892
1967.3	-0.0901222
1968.78	0.214277
1970.26	0.227117
1971.74	-0.0336027
1973.22	-0.0721283
1974.7	0.196498
1976.17	-0.0123014
1977.65	0.000770569
1979.13	-0.122246
1980.6	-0.245131
1982.08	0.702849
1983.56	0.341282
1985.03	0.234499
1986.51	0.00890732
1987.98	0.0886879
1989.46	0.371875
1990.93	0.435353
1992.41	0.043066
1993.88	-0.111162
1995.36	-0.196883
1996.83	0.021945
1998.3	0.139262
1999.78	-0.115342
2001.25	-0.37033
2002.72	-0.0520878
2004.2	0.0128412
2005.67	-0.00620842
2007.14	0.261822
2008.61	0.379075
2010.08	0.446638
2011.55	0.144382
2013.02	-0.0736027
2014.49	0.398018
2015.97	0.262985
2017.43	0.160759
2018.9	0.24271
2020.37	0.223229
2021.84	-0.0482674
2023.31	0.402587
2024.78	0.0820494
2026.25	0.517709
2027.72	0.116082
2029.19	0.20236
2030.65	0.357078
2032.12	-0.10807
2033.59	0.316656
2035.05	0.607313
2036.52	0.377003
2037.98	0.700521
2039.45	0.217054
2040.92	0.271255
2042.38	0.191354
2043.85	0.0280418
2045.31	-0.117685
2046.78	0.208566
2048.24	-0.306805
2049.71	0.525283
2051.17	0.294849
2052.63	-0.0721998
2054.1	0.233512
2055.56	0.18335
2057.02	0.300434
2058.48	0.366102
2059.95	0.465255
2061.41	0.564752
2062.87	0.64819
2064.33	0.362372
2065.79	0.599317
2067.25	0.651987
2068.71	0.839913
2070.17	0.354883
2071.63	0.425343
2073.09	0.360975
2074.55	0.127936
2076.01	0.601813
2077.47	0.351214
2078.93	0.571733
2080.39	0.118218
2081.85	0.674426
2083.3	0.18613
2084.76	0.875284
2086.22	0.621213
2087.68	0.148138
2089.13	0.649821
2090.59	0.613289
2092.05	0.811749
2093.5	0.321946
2094.96	0.301976
2096.41	0.432371
2097.87	0.561934
2099.32	0.991916
2100.78	0.802176
2102.23	0.729939
2103.69	1.00932
2105.14	0.722289
2106.59	0.753915
2108.05	1.42037
2109.5	0.819573
2110.95	0.885306
2112.41	0.782988
2113.86	0.445902
2115.31	0.756627
2116.76	1.11579
2118.21	1.14248
2119.67	1.10417
2121.12	1.11771
2122.57	1.03378
2124.02	0.868473
2125.47	1.54949
2126.92	1.53375
2128.37	1.53347
2129.82	1.39912
2131.27	1.51191
2132.71	1.02784
2134.16	1.22256
2135.61	1.73206
2137.06	1.51551
2138.51	1.30107
2139.95	1.63404
2141.4	1.6052
2142.85	1.49494
2144.29	1.26947
2145.74	1.49081
2147.19	1.38086
2148.63	1.84985
2150.08	1.35727
2151.52	1.4765
2152.97	1.97579
2154.42	1.96053
2155.86	1.66313
2157.3	2.22726
2158.75	2.03017
2160.19	2.199
2161.64	2.32017
2163.08	1.92957
2164.52	1.98812
2165.96	2.11409
2167.41	2.42287
2168.85	2.46485
2170.29	2.83743
2171.73	2.30943
2173.17	2.04527
2174.61	2.262
2176.06	2.19529
2177.5	2.67754
2178.94	2.14639
2180.38	1.99878
2181.82	2.01838
2183.26	1.87232
2184.7	2.62469
2186.14	1.66392
2187.57	2.43327
2189.01	2.13784
2190.45	2.20849
2191.89	1.91257
2193.33	1.9321
2194.76	1.65048
2196.2	2.06607
2197.64	2.11313
2199.08	1.94204
2200.51	1.60392
2201.95	2.01323
2203.38	1.82543
2204.82	1.85462
2206.25	1.86834
2207.69	1.17027
2209.12	1.41646
2210.56	1.49606
2211.99	1.7399
2213.43	1.60244
2214.86	1.3329
2216.3	1.52655
2217.73	1.77069
2219.16	1.37281
2220.59	1.56961
2222.03	1.53568
2223.46	1.81401
2224.89	1.31662
2226.32	1.18003
2227.75	1.32138
2229.19	1.06694
2230.62	1.56685
2232.05	0.967543
2233.48	0.860902
2234.91	1.01688
2236.34	1.07575
2237.77	0.515849
2239.2	1.14959
2240.63	1.03459
2242.06	0.334355
2243.48	0.760765
2244.91	0.437234
2246.34	0.830719
2247.77	0.89634
2249.2	0.878193
2250.62	0.743747
2252.05	0.982101
2253.48	0.877673
2254.9	0.611293
2256.33	0.606562
2257.76	0.880043
2259.18	0.296432
2260.61	0.608068
2262.03	0.906062
2263.46	0.312696
2264.88	0.758973
2266.31	1.07531
2267.73	0.301158
2269.16	0.160153
2270.58	0.376432
2272	0.576051
2273.43	0.498717
2274.85	0.307409
2276.27	0.539842
2277.69	0.593288
2279.12	0.206653
2280.54	0.667711
2281.96	0.411191
2283.38	0.872308
2284.8	-0.167635
2286.22	0.52234
2287.64	0.102765
2289.07	-0.0389929
2290.49	0.407763
2291.91	0.397431
2293.32	0.534397
2294.74	0.0824356
2296.16	0.628492
2297.58	0.126913
2299	0.116436
2300.42	0.122522
2301.84	-0.0187073
2303.26	0.611285
2304.67	0.37209
2306.09	0.510305
2307.51	0.368977
2308.92	0.194101
2310.34	0.182967
2311.76	0.0234013
2313.17	0.554779
2314.59	0.461437
2316	-0.191128
2317.42	0.326162
2318.83	0.168559
2320.25	0.224962
2321.66	0.610353
2323.08	0.416434
2324.49	0.137673
2325.91	0.879736
2327.32	1.04233
2328.73	0.824917
2330.15	0.706784
2331.56	0.556754
2332.97	0.144634
2334.38	0.622073
2335.79	0.0467043
2337.21	0.342814
2338.62	0.259653
2340.03	0.224742
2341.44	-0.00810623
2342.85	-0.027792
2344.26	0.00171947
2345.67	-0.00132179
2347.08	0.225211
2348.49	-0.121423
2349.9	0.268133
2351.31	0.0515776
2352.72	-0.165565
2354.13	0.0410261
2355.53	0.39325
2356.94	0.174532
2358.35	0.151429
2359.76	-0.017725
2361.17	0.154388
2362.57	0.0829306
2363.98	0.0762987
2365.39	-0.43188
2366.79	0.321731
2368.2	0.380168
2369.6	0.100782
2371.01	-0.064065
2372.42	0.207521
2373.82	-0.0838013
2375.22	0.124462
2376.63	-0.102229
2378.03	-0.217145
2379.44	0.180819
2380.84	-0.322427
2382.25	0.264404
2383.65	-0.0958662
2385.05	0.216316
2386.45	0.248566
2387.86	0.281615
2389.26	0.164299
2390.66	0.382957
2392.06	0.363646
2393.46	0.186236
2394.87	0.0416164
2396.27	-0.0386209
2397.67	0.263224
2399.07	0.39068
2400.47	0.327939
2401.87	0.122576
2403.27	-0.0668097
2404.67	0.140469
2406.07	0.759514
2407.47	0.0919418
2408.86	0.248895
2410.26	0.16761
2411.66	-0.166857
2413.06	0.164869
2414.46	0.418447
2415.85	0.0559902
2417.25	-0.0518837
2418.65	-0.158935
2420.05	0.193592
2421.44	0.245164
2422.84	0.502367
2424.23	-0.0962477
2425.63	0.16077
2427.03	-0.120504
2428.42	0.201335
2429.82	0.445007
2431.21	0.261162
2432.6	0.585275
2434	0.289762
2435.39	0.358313
2436.79	-0.0035553
2438.18	0.45928
2439.57	0.364749
2440.97	0.285254
2442.36	0.364029
2443.75	0.23618
2445.14	0.0924072
2446.54	0.297398
2447.93	0.391145
2449.32	0.183839
2450.71	-0.00723267
2452.1	0.372143
2453.49	0.308999
2454.88	0.199263
2456.27	0.406599
2457.66	0.234589
2459.05	0.442039
2460.44	0.490726
2461.83	0.380479
2463.22	0.380149
2464.61	0.300252
2466	0.0464163
2467.39	0.0926342
2468.77	0.0756474
2470.16	0.0427084
2471.55	0.198518
2472.94	-0.386891
2474.32	0.14544
2475.71	0.377507
2477.1	0.593126
2478.48	0.368632
2479.87	0.191741
2481.25	0.172087
2482.64	-0.129616
2484.02	0.805399
2485.41	0.142619
2486.8	0.089366
2488.18	0.284846
2489.56	-0.0974751
2490.95	0.159163
2492.33	0.275764
2493.72	0.0981331
2495.1	-0.0778484
2496.48	-0.624333
2497.86	-0.0385828
2499.25	0.175124
2500.63	-0.323274
2502.01	-0.00254154
2503.39	0.332157
2504.77	0.0329218
2506.16	-0.173816
2507.54	0.312245
2508.92	-0.048172
2510.3	0.0225878
2511.68	-0.0902853
2513.06	-0.110249
2514.44	0.192268
2515.82	0.00540447
2517.2	0.247812
2518.58	-0.212794
2519.95	0.13711
2521.33	0.180939
2522.71	-0.126967
2524.09	-0.0691891
2525.47	-0.0426445
2526.84	0.242481
2528.22	0.101521
2529.6	0.387576
2530.98	0.477303
2532.35	0.0824232
2533.73	0.114384
2535.11	0.101446
2536.48	0.422681
2537.86	0.515355
2539.23	0.0451088
2540.61	0.166451
2541.98	0.484681
2543.36	-0.213563
2544.73	-0.0763483
2546.1	0.137818
2547.48	-0.101909
2548.85	-0.189188
2550.23	0.254643
2551.6	-0.075839
2552.97	0.381953
2554.34	0.155828
2555.72	0.399239
2557.09	-0.0860395
2558.46	0.171832
2559.83	0.126641
2561.2	0.218392
2562.58	0.538053
2563.95	-0.0509825
2565.32	0.557572
2566.69	0.363214
2568.06	0.275015
2569.43	-0.176921
2570.8	0.310819
2572.17	0.207507
2573.54	0.452915
2574.91	-0.332413
2576.27	0.36795
2577.64	0.264755
2579.01	0.252305
2580.38	0.103054
2581.75	-0.0314188
2583.11	0.425077
2584.48	0.335506
2585.85	-0.0420885
2587.21	0.186772
2588.58	-0.266219
2589.95	0.0841494
2591.31	-0.020257
2592.68	0.450683
2594.04	0.481362
2595.41	0.11729
2596.78	0.221756
2598.14	0.234593
2599.51	-0.236732
2600.87	-0.0274544
2602.23	0.272678
2603.6	0.0146513
2604.96	0.300588
2606.32	0.0887213
2607.69	-0.198695
2609.05	0.0257902
2610.41	-0.263207
2611.77	0.0490046
2613.14	-0.0764532
2614.5	-0.367597
2615.86	-0.133189
2617.22	0.115951
2618.58	0.110601
2619.94	-0.0735545
2621.3	-0.0922594
2622.67	0.143563
2624.03	0.155303
2625.39	0.181904
2626.75	-0.432976
2628.1	-0.12342
2629.46	0.170508
2630.82	0.315004
2632.18	-0.32871
2633.54	0.157458
2634.9	0.0788298
2636.26	-0.0441852
2637.61	-0.137372
2638.97	-0.0378809
2640.33	-0.0123696
2641.69	0.205538
2643.04	-0.0493312
2644.4	0.0653806
2645.76	0.297879
2647.11	0.146378
2648.47	-0.211748
2649.82	0.151069
2651.18	0.24793
2652.53	0.197452
2653.89	0.117961
2655.24	0.200574
2656.6	0.298751
2657.95	0.295458
2659.31	0.307665
2660.66	-0.103767
2662.01	0.17193
2663.37	-0.0352225
2664.72	0.0344524
2666.07	0.497118
2667.43	0.419392
2668.78	-0.0660014
2670.13	0.104384
2671.48	0.26048
2672.83	-0.0043869
2674.18	0.210871
2675.53	0.281311
2676.89	-0.0249782
2678.24	0.0466781
2679.59	0.38008
2680.94	0.00398159
2682.29	0.0204959
2683.64	0.154134
2684.99	-0.233447
2686.34	0.365832
2687.68	-0.166815
2689.03	-0.149143
2690.38	0.302513
2691.73	-0.0314341
2693.08	0.402349
2694.43	-0.107715
2695.77	0.121719
2697.12	0.177692
2698.47	0.147969
2699.81	-0.0249448
2701.16	-0.0224743
2702.51	-0.482144
2703.85	0.218054
2705.2	0.252465
2706.54	0.577044
2707.89	0.0164909
2709.23	0.079318
2710.58	0.112793
2711.92	0.0879407
2713.27	-0.0823684
2714.61	-0.310987
2715.96	0.33261
2717.3	0.438313
2718.64	-0.0962896
2719.99	-0.151288
2721.33	0.200783
2722.67	-0.0733743
2724.01	0.394334
2725.36	0.381311
2726.7	0.105938
2728.04	0.310581
2729.38	0.238468
2730.72	-0.0811186
2732.06	0.108551
2733.41	0.181882
2734.75	0.21173
2736.09	0.227224
2737.43	0.141038
2738.77	0.47659
2740.11	-0.235166
2741.44	0.259626
2742.78	-0.0604324
2744.12	0.185811
2745.46	0.169816
2746.8	-0.0208201
2748.14	0.122383
2749.48	-0.068192
2750.81	0.162163
2752.15	0.262101
2753.49	0.333209
2754.83	0.100189
2756.16	0.446791
2757.5	-0.11886
2758.84	0.372773
2760.17	0.213277
2761.51	-0.104882
2762.84	0.185198
2764.18	0.272967
2765.51	0.288368
2766.85	0.230994
2768.18	0.331859
2769.52	0.272385
2770.85	0.52949
2772.19	0.308398
2773.52	-0.158634
2774.85	0.167529
2776.19	0.219418
2777.52	0.0700932
2778.85	0.30979
2780.18	-0.211977
2781.52	-0.388086
2782.85	0.182355
2784.18	-0.137169
2785.51	0.331965
2786.84	-0.101651
2788.17	0.238701
2789.51	-0.0787048
2790.84	0.0626554
2792.17	0.161754
2793.5	0.447065
2794.83	-0.0251799
2796.16	-0.268901
2797.48	-0.0701795
2798.81	0.213558
2800.14	0.196951
2801.47	-0.26211
2802.8	0.0490274
2804.13	-0.0536604
2805.46	0.0427489
2806.79	0.0530767
2808.11	0.190809
2809.44	-0.155252
2810.77	-0.0321221
2812.09	-0.149852
2813.42	0.23
2814.75	-0.282308
2816.07	0.355107
2817.4	-0.0412569
2818.73	-0.181939
2820.05	-0.0249777
2821.38	0.0181813
2822.7	0.145741
2824.03	-0.223201
2825.35	0.115941
2826.67	0.228384
2828	0.00146723
2829.32	0.256463
2830.65	0.51185
2831.97	0.342755
2833.29	0.216074
2834.62	0.655261
2835.94	0.697617
2837.26	0.399857
2838.58	0.526187
2839.9	0.779534
2841.23	0.778366
2842.55	0.862414
2843.87	0.763329
2845.19	0.975854
2846.51	1.1607
2847.83	1.26109
2849.15	0.951629
2850.47	1.24963
2851.79	0.868733
2853.11	1.12337
2854.43	0.812373
2855.75	1.51855
2857.07	1.37691
2858.39	1.33423
2859.71	1.3904
2861.02	1.6017
2862.34	1.62909
2863.66	1.76903
2864.98	1.78165
2866.3	1.6955
2867.61	1.9481
2868.93	1.9472
2870.25	1.63655
2871.56	2.15777
2872.88	2.32622
2874.19	2.36707
2875.51	2.33645
2876.83	2.5019
2878.14	2.66641
2879.46	2.35231
2880.77	2.36214
2882.09	2.82231
2883.4	2.56688
2884.71	2.01767
2886.03	2.47998
2887.34	2.64742
2888.65	2.84241
2889.97	2.67181
2891.28	2.71084
2892.59	2.60909
2893.91	2.57733
2895.22	2.25189
2896.53	2.54334
2897.84	2.63967
2899.15	3.03072
2900.46	2.83486
2901.78	3.01716
2903.09	3.43742
2904.4	3.13043
2905.71	3.14542
2907.02	3.35677
2908.33	3.65285
2909.64	3.29224
2910.95	3.49179
2912.26	3.59341
2913.57	3.93233
2914.87	4.07392
2916.18	4.29778
2917.49	4.56198
2918.8	4.68512
2920.11	4.41642
2921.42	4.568
2922.72	4.6788
2924.03	4.66515
2925.34	5.05798
2926.64	4.76647
2927.95	5.02017
2929.26	5.13369
2930.56	4.5756
2931.87	5.91824
2933.17	5.66692
2934.48	5.59731
2935.78	5.30421
2937.09	5.62619
2938.39	5.29153
2939.7	5.61393
2941	5.46175
2942.31	5.28249
2943.61	4.92272
2944.91	4.82978
2946.22	5.01766
2947.52	4.88448
2948.82	4.10707
2950.13	4.61608
2951.43	4.50737
2952.73	4.66277
2954.03	4.50868
2955.33	4.50822
2956.64	4.04678
2957.94	4.11928
2959.24	4.13849
2960.54	4.14648
2961.84	3.72193
2963.14	3.99895
2964.44	3.50358
2965.74	3.58216
2967.04	3.5608
2968.34	3.18665
2969.64	2.55842
2970.94	3.42069
2972.24	3.28476
2973.53	2.75504
2974.83	2.56283
2976.13	2.89086
2977.43	2.54183
2978.73	2.74027
2980.02	2.35982
2981.32	2.56932
2982.62	2.79214
2983.91	2.21374
2985.21	2.08653
2986.51	1.98888
2987.8	2.17365
2989.1	2.07831
2990.4	1.91291
2991.69	1.84538
2992.99	1.7206
2994.28	1.34171
2995.57	1.28501
2996.87	1.38208
2998.16	1.12801
2999.46	1.21101
3000.75	0.761612
3002.05	1.02788
3003.34	1.22429
3004.63	1.23853
3005.92	0.580297
3007.22	0.999804
3008.51	0.774515
3009.8	0.828252
3011.09	0.755433
3012.39	1.01735
3013.68	0.692917
3014.97	0.759659
3016.26	0.464756
3017.55	0.532862
3018.84	0.364792
3020.13	0.322102
3021.42	0.459694
3022.71	0.179616
3024	0.245974
3025.29	0.214438
3026.58	0.556678
3027.87	0.345214
3029.16	0.0936637
3030.45	0.10632
3031.73	-0.00401354
3033.02	0.0108986
3034.31	0.136449
3035.6	0.606244
3036.89	0.536574
3038.17	0.175948
3039.46	0.405944
3040.75	0.358997
3042.03	0.640671
3043.32	-0.174961
3044.61	0.298964
3045.89	0.49983
3047.18	0.142286
3048.46	0.319845
3049.75	0.171661
3051.03	-0.0159607
3052.32	0.233806
3053.6	0.469868
3054.89	0.609718
3056.17	0.421133
3057.45	0.367931
3058.74	0.12326
3060.02	0.355142
3061.31	0.0291581
3062.59	0.357215
3063.87	-0.00714636
3065.15	0.513681
3066.44	0.179269
3067.72	0.212816
3069	0.301087
3070.28	0.198678
3071.56	0.530639
3072.84	0.426165
3074.13	0.279726
3075.41	-0.0169735
3076.69	0.107269
3077.97	-0.0397282
3079.25	0.329929
3080.53	0.13103
3081.81	-0.229187
3083.09	-0.208495
3084.37	-0.010829
3085.64	-0.0845051
3086.92	0.0720921
3088.2	-0.0706019
3089.48	0.152486
3090.76	0.0493746
3092.04	0.000397205
3093.31	0.114304
3094.59	-0.3954
3095.87	0.193528
3097.14	0.00958824
3098.42	-0.269255
3099.7	-0.100986
3100.97	0.270261
3102.25	-0.252467
3103.53	0.0105376
3104.8	0.300914
3106.08	0.145249
3107.35	-0.212552
3108.63	-0.109324
3109.9	0.346807
3111.18	0.384318
3112.45	0.327736
3113.73	-0.0131054
3115	0.120188
3116.27	-0.00457144
3117.55	0.23596
3118.82	-0.189143
3120.09	-0.181269
3121.37	0.0290809
3122.64	0.0896182
3123.91	0.244695
3125.18	0.0206399
3126.45	0.203167
3127.73	0.0478096
3129	0.190535
3130.27	0.225286
3131.54	-0.104892
3132.81	0.105446
3134.08	0.247688
3135.35	0.281246
3136.62	0.327643
3137.89	-0.0579729
3139.16	0.122356
3140.43	0.0599113
3141.7	0.575804
3142.97	0.674521
3144.24	0.182794
3145.51	0.577718
3146.78	-0.0461235
3148.04	0.215594
3149.31	0.597981
