200.423	-0.160942
202.238	-0.134158
204.052	-0.106497
205.868	0.651733
207.682	0.85037
209.495	-0.0938883
211.308	-0.552647
213.12	0.104305
214.935	0.20133
216.746	0.879187
218.558	-0.0182362
220.369	-0.06674
222.18	0.780673
223.992	0.395105
225.802	-0.182921
227.612	0.688963
229.421	-0.516934
231.23	0.691153
233.039	-0.128692
234.849	0.716314
236.657	0.766447
238.465	0.0715694
240.272	0.536219
242.079	0.472939
243.885	-0.33683
245.691	0.131693
247.497	-0.00460339
249.305	-0.240275
251.11	0.0520086
252.915	-0.262111
254.719	0.435368
256.523	0.384175
258.327	-0.075881
260.13	0.23693
261.933	-0.532489
263.736	-0.384869
265.538	-0.0675573
267.34	0.659895
269.141	-0.0108442
270.943	-0.321059
272.744	0.452457
274.544	-0.198013
276.344	-0.0545282
278.144	-0.0335073
279.944	0.00951099
281.743	0.363259
283.542	0.137302
285.34	0.679049
287.138	-0.245253
288.936	-0.184697
290.733	-0.171505
292.53	0.41735
294.327	-0.50004
296.123	0.354213
297.919	0.0138388
299.715	0.0325584
301.508	-0.259469
303.303	-0.026865
305.098	0.705419
306.892	-0.162127
308.686	0.234393
310.479	0.488037
312.273	0.00432301
314.065	0.117785
315.858	0.209231
317.648	0.159567
319.44	0.349656
321.231	0.135884
323.022	-0.0534954
324.813	-0.0756702
326.604	0.212597
328.392	0.262005
330.181	0.21517
331.971	0.119223
333.76	0.117149
335.548	0.112905
337.335	-0.132986
339.123	0.217188
340.91	0.254626
342.698	-0.0435143
344.483	0.016881
346.269	0.0299091
348.055	-0.672757
349.841	0.177088
351.625	0.764019
353.41	0.848999
355.195	0.0263376
356.977	0.132855
358.762	0.976638
360.545	0.389251
362.329	0.658372
364.11	0.973795
365.893	-0.113774
367.675	0.200169
369.455	0.228062
371.237	0.302365
373.017	-0.0028019
374.798	-0.0477266
376.578	0.190736
378.357	0.382
380.137	0.102623
381.917	0.625169
383.694	0.301465
385.473	-0.0440397
387.249	0.434398
389.028	-0.401869
390.806	-0.0390034
392.581	0.160135
394.359	-0.203753
396.134	0.231158
397.91	0.36089
399.684	0.607868
401.46	0.0558157
403.234	0.160761
405.009	0.0535736
406.784	0.485744
408.557	0.0953798
410.331	0.0334501
412.103	0.393966
413.876	0.707838
415.647	-0.338531
417.42	0.469559
419.191	0.128518
420.961	0.0692759
422.733	0.385365
424.502	0.512995
426.273	0.592747
428.042	0.788975
429.812	0.256997
431.58	0.757756
433.35	0.460806
435.118	-0.117437
436.885	0.524708
438.653	-0.382801
440.42	-0.0713139
442.188	0.308433
443.954	0.498089
445.719	0.193637
447.486	0.192698
449.251	0.0275726
451.015	-0.394197
452.781	-0.254704
454.545	0.257971
456.308	-0.302311
458.073	-0.000188828
459.836	0.604014
461.598	-0.024478
463.362	0.232463
465.124	0.23596
466.885	0.35847
468.648	0.0886269
470.408	0.773902
472.169	0.599651
473.929	0.0519447
475.69	0.666577
477.45	-0.281484
479.208	0.515622
480.967	-0.272285
482.727	-0.105049
484.485	0.319454
486.243	0.233462
488	0.872074
489.759	0.394063
491.515	0.476612
493.272	0.770266
495.028	0.526793
496.783	0.610493
498.54	0.670631
500.295	1.22286
502.05	1.04776
503.804	0.589574
505.558	0.364609
507.311	0.467224
509.064	0.63895
510.819	0.173836
512.572	0.460019
514.324	0.556448
516.076	0.722022
517.827	0.227774
519.578	1.11983
521.329	0.929442
523.08	0.62131
524.83	0.54799
526.58	0.545094
528.329	1.50354
530.08	0.539249
531.829	-0.0730867
533.578	0.25082
535.326	-0.105168
537.074	0.566347
538.821	-0.375716
540.568	0.128974
542.315	0.608413
544.062	0.737332
545.808	0.424404
547.554	0.344488
549.299	0.288183
551.044	0.440635
552.789	0.754852
554.533	0.167443
556.278	0.389421
558.019	0.680532
559.763	0.142182
561.506	0.480077
563.249	0.311973
564.991	0.121718
566.733	-0.159534
568.475	-0.439704
570.217	0.17634
571.958	0.242684
573.699	0.0353508
575.439	0.127963
577.177	0.336973
578.917	0.845886
580.656	0.138811
582.396	0.603086
584.134	0.331613
585.873	0.748863
587.609	0.428947
589.347	0.383779
591.084	0.107583
592.822	0.613112
594.558	0.428244
596.295	0.519502
598.029	-0.171495
599.765	0.218489
601.5	0.377581
603.235	-0.223558
604.968	0.346764
606.703	-0.210628
608.437	0.517802
610.171	0.350142
611.902	0.0455093
613.635	0.0399876
615.368	-0.812871
617.099	0.145022
618.831	-0.34109
620.563	0.0420818
622.294	0.606642
624.024	0.3009
625.755	0.041235
627.485	0.0796862
629.213	0.0743265
630.943	-0.0428686
632.673	0.207019
634.4	0.184154
636.129	0.891487
637.855	0.0221205
639.584	0.0632915
641.312	0.329672
643.037	0.798383
644.764	-0.283305
646.491	0.0248413
648.216	-0.0749226
649.942	-0.171671
651.666	-0.105766
653.392	0.57755
655.115	0.355088
656.84	0.544388
658.563	0.461533
660.287	0.651951
662.011	0.54429
663.732	0.411326
665.456	0.710225
667.177	0.550013
668.899	0.0687475
670.62	0.205557
672.342	0.229873
674.061	0.348154
675.781	0.262425
677.502	-0.418756
679.22	0.162034
680.941	0.674099
682.659	0.771138
684.379	0.382755
686.096	0.314439
687.815	0.405771
689.532	0.864614
691.248	0.654747
692.966	0.306046
694.682	0.186996
696.4	1.21842
698.115	0.935928
699.829	0.261186
701.546	0.988853
703.26	0.542544
704.974	0.601409
706.689	0.705557
708.402	1.17605
710.115	0.614293
711.83	0.556766
713.542	0.865012
715.254	0.829715
716.967	1.04556
718.679	1.28394
720.39	0.496454
722.102	1.19066
723.812	1.13291
725.522	0.961482
727.232	0.653785
728.943	1.11776
730.652	1.51241
732.361	0.932019
734.069	0.918212
735.779	0.768851
737.487	0.913692
739.194	1.35221
740.901	2.06147
742.608	1.41941
744.316	1.00468
746.022	1.40192
747.728	1.21538
749.433	1.03028
751.138	0.621595
752.843	0.686496
754.549	1.31517
756.254	1.29303
757.957	1.2274
759.661	1.11809
761.364	1.77633
763.067	1.26283
764.769	1.5612
766.471	1.18102
768.175	1.38636
769.877	1.16005
771.578	1.81358
773.279	1.51591
774.98	1.60216
776.68	1.8924
778.38	1.48301
780.079	1.77614
781.779	1.73125
783.478	2.27492
785.176	1.9802
786.875	1.29817
788.573	1.81269
790.27	1.87105
791.968	1.8587
793.665	1.82209
795.361	1.64988
797.058	1.72679
798.754	2.77364
800.45	1.93043
802.145	1.44954
803.84	1.55448
805.535	1.29952
807.23	1.65068
808.922	1.61854
810.616	1.51792
812.309	1.39409
814.002	1.76281
815.695	1.39189
817.388	1.62547
819.08	1.54583
820.772	1.37717
822.464	1.54384
824.153	1.64415
825.844	2.28051
827.535	2.20568
829.225	2.04467
830.915	0.773214
832.605	1.59811
834.292	1.44504
835.981	2.11809
837.67	1.60894
839.359	1.74564
841.047	1.94787
842.732	1.41154
844.42	1.16497
846.107	1.96942
847.794	1.90412
849.479	1.17002
851.165	1.44491
852.851	1.6774
854.534	1.41769
856.22	1.78622
857.905	1.1876
859.589	1.59889
861.272	0.860613
862.956	1.13369
864.639	1.4283
866.321	1.63199
868.004	1.31651
869.687	1.83491
871.367	0.864374
873.049	1.13417
874.731	0.659361
876.41	0.635757
878.092	0.6573
879.771	0.678756
881.451	0.857901
883.131	1.42017
884.809	0.8075
886.489	1.32214
888.166	1.04529
889.845	0.947529
891.522	1.20904
893.2	0.995938
894.878	0.737032
896.554	1.46669
898.231	1.0935
899.906	1.10155
901.583	0.638262
903.258	0.802139
904.934	1.5688
906.608	1.37399
908.283	1.04648
909.956	1.32186
911.631	1.06362
913.304	1.29553
914.976	0.972268
916.65	1.33733
918.322	1.16976
919.995	0.604038
921.666	0.991112
923.339	0.671258
925.009	0.994006
926.679	1.22985
928.351	1.18023
930.021	1.63943
931.692	1.28281
933.361	0.948643
935.029	0.504454
936.699	1.11939
938.367	0.477978
940.035	1.09485
941.704	0.455637
943.371	0.787736
945.038	0.877094
946.706	1.16408
948.372	0.63259
950.038	1.09253
951.705	1.10974
953.37	1.34752
955.035	0.792861
956.7	0.59371
958.366	1.14753
960.03	1.50599
961.693	0.806291
963.357	0.812846
965.021	0.795716
966.684	0.289281
968.346	0.864245
970.008	1.14952
971.67	0.969292
973.334	1.16549
974.995	0.323703
976.655	1.56246
978.316	0.591044
979.976	0.770424
981.638	0.94956
983.297	1.01678
984.957	0.617227
986.616	1.10109
988.274	0.476672
989.932	0.647669
991.59	0.79574
993.248	1.14224
994.907	1.04693
996.565	0.66504
998.221	0.768645
999.878	0.585442
1001.53	0.776464
1003.19	1.27491
1004.85	1.20055
1006.5	0.840487
1008.16	1.13984
1009.81	0.649082
1011.46	0.861159
1013.12	0.481668
1014.77	1.08867
1016.43	0.381875
1018.08	1.01102
1019.73	0.721777
1021.38	0.783572
1023.04	0.824546
1024.69	0.910157
1026.34	0.428181
1027.99	1.25732
1029.64	1.25545
1031.29	1.51443
1032.94	2.01171
1034.59	1.78669
1036.24	2.78141
1037.89	3.42509
1039.54	3.98052
1041.19	4.03562
1042.84	5.52692
1044.48	5.60675
1046.13	6.23224
1047.78	5.94809
1049.42	4.90623
1051.07	4.08313
1052.72	3.58667
1054.36	3.41641
1056.01	2.22454
1057.66	2.74923
1059.3	1.72982
1060.94	0.796457
1062.59	1.42785
1064.23	0.775406
1065.88	0.535144
1067.52	1.44582
1069.16	0.725471
1070.81	0.938846
1072.45	0.522392
1074.09	0.909548
1075.73	0.885299
1077.38	0.753931
1079.02	0.472022
1080.66	0.0824594
1082.3	0.560285
1083.94	0.451819
1085.58	0.0384064
1087.22	-0.051568
1088.86	0.766129
1090.5	0.693839
1092.13	0.793428
1093.77	0.179657
1095.41	0.667534
1097.05	1.11219
1098.68	0.286614
1100.32	1.14291
1101.96	-0.216112
1103.6	0.105367
1105.23	0.105294
1106.87	0.794011
1108.5	0.062974
1110.14	0.406222
1111.77	0.33943
1113.41	1.0445
1115.04	1.0605
1116.67	-0.0182304
1118.31	0.340945
1119.94	0.271794
1121.58	0.225055
1123.21	0.350582
1124.84	0.733682
1126.47	0.775161
1128.1	0.902924
1129.73	0.304383
1131.37	0.412046
1133	0.584109
1134.63	0.349892
1136.26	0.606701
1137.89	0.841037
1139.52	0.51869
1141.14	0.195625
1142.77	0.491199
1144.4	0.573302
1146.03	0.655973
1147.66	0.185425
1149.29	0.142087
1150.91	0.0779343
1152.54	0.439726
1154.17	-0.00798416
1155.79	0.438066
1157.42	0.585835
1159.04	0.691308
1160.67	0.69122
1162.3	0.203186
1163.92	-0.326357
1165.55	0.39903
1167.17	0.167409
1168.79	0.360034
1170.42	0.104668
1172.04	0.293816
1173.66	0.2263
1175.28	0.242554
1176.91	0.194667
1178.53	-0.0224323
1180.15	-0.683098
1181.77	-0.242113
1183.39	0.325794
1185.01	0.322602
1186.63	-0.061533
1188.25	0.0175953
1189.87	0.47417
1191.49	0.0436888
1193.11	0.348737
1194.73	-0.0616827
1196.35	0.682174
1197.97	0.252349
1199.59	-0.0493126
1201.2	0.341298
1202.82	0.316192
1204.44	0.314439
1206.05	0.252125
1207.67	-0.35132
1209.29	1.02733
1210.9	0.360905
1212.52	0.485502
1214.13	0.316154
1215.75	0.415595
1217.36	0.513142
1218.97	0.131536
1220.59	0.331837
1222.2	0.905645
1223.82	0.236383
1225.43	0.74979
1227.04	0.581125
1228.65	0.724228
1230.26	0.847762
1231.88	0.827699
1233.49	0.746812
1235.1	0.481123
1236.71	1.08467
1238.32	1.08988
1239.93	0.599481
1241.54	0.853637
1243.15	0.714526
1244.76	1.09192
1246.37	0.619987
1247.97	0.602308
1249.58	0.645977
1251.19	1.22719
1252.8	1.00175
1254.41	1.5837
1256.01	1.62894
1257.62	1.01346
1259.23	1.24727
1260.83	1.19231
1262.44	1.13779
1264.04	1.06255
1265.65	1.50493
1267.25	0.765321
1268.86	1.55867
1270.46	1.19006
1272.07	1.23506
1273.67	1.19609
1275.27	1.65362
1276.88	1.09459
1278.48	1.40511
1280.08	1.54911
1281.68	1.54779
1283.28	1.33969
1284.89	1.19433
1286.49	1.44272
1288.09	1.36133
1289.69	1.61153
1291.29	1.73822
1292.89	1.80283
1294.49	1.61877
1296.09	2.17697
1297.69	1.24675
1299.29	0.976024
1300.88	1.38453
1302.48	1.64695
1304.08	2.09313
1305.68	1.38638
1307.27	1.4815
1308.87	1.71973
1310.47	1.38362
1312.06	1.39661
1313.66	1.59437
1315.25	1.81319
1316.85	1.54262
1318.44	1.41585
1320.04	1.1057
1321.63	1.46737
1323.23	1.21638
1324.82	1.51303
1326.41	1.46244
1328.01	1.43165
1329.6	1.6242
1331.19	1.75717
1332.78	1.22535
1334.38	0.81776
1335.97	1.48175
1337.56	1.94389
1339.15	1.43735
1340.74	1.6751
1342.33	1.30659
1343.92	1.72079
1345.51	1.77149
1347.1	1.06018
1348.69	1.05315
1350.28	0.58818
1351.87	1.28632
1353.46	1.44599
1355.04	1.427
1356.63	1.42838
1358.22	1.62912
1359.81	0.550766
1361.39	0.629972
1362.98	0.967623
1364.57	0.566898
1366.15	0.625113
1367.74	0.843307
1369.32	0.982822
1370.91	0.148459
1372.49	0.708534
1374.07	0.473671
1375.66	0.338933
1377.24	0.24408
1378.83	1.06413
1380.41	1.56477
1381.99	0.691339
1383.57	1.50745
1385.16	1.20878
1386.74	0.572178
1388.32	0.730621
1389.9	1.04833
1391.48	0.890449
1393.06	0.991314
1394.64	0.775175
1396.22	0.63829
1397.8	0.956749
1399.38	0.956981
1400.96	0.896859
1402.54	1.43005
1404.12	1.30976
1405.7	0.616661
1407.28	0.834196
1408.85	1.5661
1410.43	1.03391
1412.01	1.01541
1413.58	0.601577
1415.16	1.03565
1416.74	1.15295
1418.31	1.38797
1419.89	1.01237
1421.46	0.992565
1423.04	1.17113
1424.61	0.878865
1426.19	1.49323
1427.76	1.28149
1429.33	0.754567
1430.91	1.52582
1432.48	0.780509
1434.05	1.0576
1435.63	1.60942
1437.2	1.49261
1438.77	1.41589
1440.34	1.75292
1441.91	1.83538
1443.49	2.21335
1445.05	1.72697
1446.63	2.00729
1448.2	2.09124
1449.77	1.99855
1451.34	2.00463
1452.91	2.34559
1454.47	2.09697
1456.04	1.6711
1457.61	1.85451
1459.18	2.01701
1460.75	1.56768
1462.31	1.35274
1463.88	1.31331
1465.45	2.39316
1467.01	1.03561
1468.58	1.76097
1470.15	2.05479
1471.71	1.27058
1473.28	1.05665
1474.84	0.941611
1476.41	1.14072
1477.97	0.849771
1479.54	0.892071
1481.1	1.14985
1482.66	1.48587
1484.23	0.998709
1485.79	1.31457
1487.35	0.983234
1488.91	1.33606
1490.48	1.15842
1492.04	0.724698
1493.6	1.03188
1495.16	1.12204
1496.72	1.1719
1498.28	0.793272
1499.84	0.84369
1501.4	0.836755
1502.96	0.346149
1504.52	0.535455
1506.08	0.473022
1507.64	0.332783
1509.2	0.558949
1510.76	0.609852
1512.31	0.00456142
1513.87	0.439783
1515.43	0.124368
1516.99	0.00226498
1518.54	0.302995
1520.1	0.641936
1521.66	0.69332
1523.21	0.534044
1524.77	0.794417
1526.32	0.385819
1527.88	0.224981
1529.43	0.311249
1530.99	0.62509
1532.54	0.274865
1534.09	0.645985
1535.65	0.506469
1537.2	0.538197
1538.75	0.438394
1540.31	0.885984
1541.86	0.861849
1543.41	0.818845
1544.96	0.55011
1546.51	0.431974
1548.06	0.407737
1549.62	0.739633
1551.17	0.20969
1552.72	1.12165
1554.27	0.425476
1555.82	0.422705
1557.36	0.664189
1558.91	1.11251
1560.46	0.275209
1562.01	0.241684
1563.56	0.75019
1565.11	0.792884
1566.66	0.518448
1568.2	1.21425
1569.75	0.883213
1571.3	1.05577
1572.84	1.11605
1574.39	0.914846
1575.93	0.974998
1577.48	0.904663
1579.02	1.15208
1580.57	1.0267
1582.11	1.20082
1583.66	0.759355
1585.2	1.06581
1586.75	0.756001
1588.29	1.00719
1589.83	0.828023
1591.38	0.798059
1592.92	0.992334
1594.46	0.699457
1596	1.13713
1597.54	1.42552
1599.09	1.30228
1600.63	1.38594
1602.17	1.54521
1603.71	1.1413
1605.25	1.09331
1606.79	1.30712
1608.33	1.06806
1609.87	1.44704
1611.41	1.3539
1612.95	1.20257
1614.48	0.975065
1616.02	0.634889
1617.56	1.47642
1619.1	1.02544
1620.64	1.32536
1622.17	0.840035
1623.71	1.02962
1625.25	1.18177
1626.78	1.015
1628.32	0.847116
1629.86	0.939881
1631.39	1.06895
1632.92	1.47762
1634.46	1.0834
1635.99	1.11948
1637.53	1.51074
1639.06	1.32438
1640.59	1.10092
1642.13	1.64088
1643.66	1.22964
1645.19	1.24571
1646.73	1.53981
1648.26	1.66592
1649.79	1.55082
1651.32	1.47391
1652.85	1.80635
1654.38	1.47215
1655.92	1.34271
1657.45	1.67651
1658.98	1.58334
1660.51	1.56304
1662.04	1.57834
1663.57	1.61097
1665.09	1.64297
1666.62	1.45377
1668.15	1.43186
1669.68	1.37454
1671.21	1.0976
1672.73	0.692959
1674.26	1.32021
1675.79	1.37622
1677.31	1.52346
1678.84	0.933682
1680.37	1.17087
1681.89	1.16818
1683.42	1.34877
1684.94	1.14384
1686.47	1.17788
1687.99	1.37728
1689.52	1.24709
1691.04	0.86095
1692.57	0.914483
1694.09	0.474031
1695.61	0.582331
1697.14	0.379655
1698.66	0.396033
1700.18	0.13825
1701.7	0.245096
1703.22	0.879787
1704.75	0.201848
1706.27	0.143225
1707.79	0.157153
1709.31	0.370774
1710.83	0.420758
1712.35	0.561477
1713.87	-0.0407171
1715.39	-0.0263748
1716.91	0.024065
1718.43	0.0923681
1719.95	0.539701
1721.46	0.2106
1722.98	0.297171
1724.5	0.564685
1726.02	0.454929
1727.53	0.706505
1729.05	0.167059
1730.57	0.203095
1732.08	0.166403
1733.6	0.324086
1735.12	0.16987
1736.63	0.161717
1738.15	0.585876
1739.66	0.299909
1741.18	0.0325928
1742.69	-0.0140514
1744.21	0.392117
1745.72	0.217552
1747.23	0.241677
1748.74	0.317559
1750.26	0.231201
1751.77	0.0840149
1753.28	0.29737
1754.8	0.246417
1756.31	-0.139071
1757.82	0.381053
1759.33	0.382911
1760.84	0.0739088
1762.35	0.406304
1763.86	0.0249939
1765.37	0.253552
1766.88	0.450332
1768.39	0.230917
1769.9	0.269145
1771.41	0.100723
1772.92	0.0149345
1774.43	0.251277
1775.93	0.175028
1777.44	-0.268607
1778.95	-0.0353661
1780.46	-0.013463
1781.96	0.0195475
1783.47	0.0536032
1784.98	0.392565
1786.48	-0.0587969
1787.99	0.0592146
1789.49	0.0816422
1791	0.116624
1792.5	0.0771942
1794.01	-0.0279112
1795.51	0.0183964
1797.02	0.194888
1798.52	-0.185281
1800.03	-0.150446
1801.53	-0.0555096
1803.03	0.311305
1804.53	-0.14985
1806.04	0.0240574
1807.54	-0.283152
1809.04	-0.0368805
1810.54	0.076539
1812.04	0.00106621
1813.54	-0.227866
1815.05	0.158724
1816.55	0.297217
1818.05	0.283061
1819.55	0.17558
1821.05	-0.0636024
1822.55	0.380628
1824.05	-0.117633
1825.54	0.340166
1827.04	-0.141547
1828.54	-0.165488
1830.04	-0.119053
1831.54	0.233767
1833.03	0.209165
1834.53	-0.0390816
1836.03	0.187729
1837.52	0.238585
1839.02	0.182298
1840.52	0.11785
1842.01	0.132718
1843.51	0.258365
1845	0.142817
1846.5	-0.133717
1847.99	0.367569
1849.49	-0.0251427
1850.98	0.157527
1852.47	0.36514
1853.97	-0.0426383
1855.46	-0.0350461
1856.95	-0.0623641
1858.45	0.18251
1859.94	0.0194559
1861.43	0.050437
1862.92	-0.0748334
1864.41	-0.0750356
1865.91	0.2409
1867.4	0.239675
1868.89	0.311763
1870.38	0.154078
1871.87	0.273207
1873.36	0.212785
1874.85	0.117133
1876.34	0.183284
1877.83	0.208573
1879.31	0.121542
1880.8	-0.113018
1882.29	-0.137373
1882.56	-0.132016
1884.05	0.0420399
1885.54	0.145596
1887.04	-0.0651956
1888.53	0.0893698
1890.03	-0.208404
1891.52	0.520982
1893.01	0.31246
1894.5	0.157754
1895.99	0.178239
1897.49	0.112484
1898.98	-0.075181
1900.47	0.171159
1901.96	0.13777
1903.45	0.22461
1904.94	-0.054904
1906.43	0.0474234
1907.92	0.0975342
1909.41	0.00926352
1910.9	0.355631
1912.39	-0.112716
1913.88	0.373498
1915.37	-0.23284
1916.86	0.0622892
1918.35	-0.0764823
1919.84	0.0616803
1921.32	0.286285
1922.81	0.0435896
1924.3	0.321132
1925.78	-0.144788
1927.27	0.221167
1928.76	0.397275
1930.24	0.019248
1931.73	0.350479
1933.21	0.0570588
1934.7	0.298857
1936.18	-0.0146251
1937.67	0.172661
1939.15	-0.020803
1940.64	0.476925
1942.12	0.301782
1943.6	0.179479
1945.09	-0.0454564
1946.57	0.0575962
1948.05	-0.0119543
1949.54	0.00404596
1951.02	0.0191917
1952.5	0.205609
1953.98	-0.468455
1955.46	0.404836
1956.94	-0.165152
1958.42	-0.0988755
1959.91	-0.392298
1961.39	-0.10203
1962.87	0.0853162
1964.34	-0.0017767
1965.82	0.013526
1967.3	-0.0402284
1968.78	0.110782
1970.26	0.243999
1971.74	0.684245
1973.22	0.133873
1974.7	0.334818
1976.17	-0.00976133
1977.65	-0.115275
1979.13	0.000705719
1980.6	0.0824857
1982.08	0.113009
1983.56	-0.400312
1985.03	0.376801
1986.51	0.287555
1987.98	0.06286
1989.46	-0.0257454
1990.93	0.140176
1992.41	0.120654
1993.88	-0.100855
1995.36	0.0671692
1996.83	-0.27137
1998.3	0.302234
1999.78	0.28419
2001.25	0.282501
2002.72	0.31412
2004.2	0.413021
2005.67	-0.111314
2007.14	0.274954
2008.61	0.12295
2010.08	-0.247113
2011.55	-0.027472
2013.02	0.10799
2014.49	0.158904
2015.97	0.394196
2017.43	0.241731
2018.9	0.122296
2020.37	0.00251341
2021.84	0.504083
2023.31	0.216555
2024.78	0.215193
2026.25	-0.120626
2027.72	0.249286
2029.19	0.217914
2030.65	0.456089
2032.12	0.242138
2033.59	0.263469
2035.05	0.0832686
2036.52	-0.0637774
2037.98	0.443971
2039.45	0.481023
2040.92	0.181834
2042.38	0.336831
2043.85	0.105703
2045.31	-0.0406961
2046.78	-0.11928
2048.24	0.189742
2049.71	0.380829
2051.17	0.149675
2052.63	0.355537
2054.1	0.0707784
2055.56	0.0206752
2057.02	0.559459
2058.48	0.777005
2059.95	0.118379
2061.41	0.437179
2062.87	0.621829
2064.33	0.38655
2065.79	0.37097
2067.25	0.372942
2068.71	-0.0285234
2070.17	0.344501
2071.63	0.22944
2073.09	0.383629
2074.55	0.234514
2076.01	0.43873
2077.47	0.440557
2078.93	0.509393
2080.39	0.325242
2081.85	0.376353
2083.3	0.713021
2084.76	0.661819
2086.22	0.828666
2087.68	0.288638
2089.13	0.370564
2090.59	0.704183
2092.05	0.634473
2093.5	0.766099
2094.96	0.712879
2096.41	0.910666
2097.87	0.772624
2099.32	0.533804
2100.78	0.780028
2102.23	0.691887
2103.69	0.688102
2105.14	0.818984
2106.59	1.00104
2108.05	0.933759
2109.5	0.766758
2110.95	0.832723
2112.41	0.880784
2113.86	1.3269
2115.31	1.02212
2116.76	0.916533
2118.21	1.14362
2119.67	1.10604
2121.12	1.10346
2122.57	1.35144
2124.02	1.15296
2125.47	1.76758
2126.92	1.35388
2128.37	0.65757
2129.82	1.66717
2131.27	1.44906
2132.71	1.26354
2134.16	1.27673
2135.61	1.42293
2137.06	1.15718
2138.51	1.68651
2139.95	2.00276
2141.4	1.42807
2142.85	2.02825
2144.29	1.71964
2145.74	1.72535
2147.19	1.66454
2148.63	2.51402
2150.08	1.59044
2151.52	2.04077
2152.97	1.76115
2154.42	1.62985
2155.86	1.94545
2157.3	2.1451
2158.75	2.19638
2160.19	2.28212
2161.64	2.28681
2163.08	2.30995
2164.52	1.62125
2165.96	2.04475
2167.41	2.08663
2168.85	2.42676
2170.29	2.41614
2171.73	2.1871
2173.17	1.95607
2174.61	2.62194
2176.06	2.13952
2177.5	1.95677
2178.94	2.00758
2180.38	2.09258
2181.82	2.19508
2183.26	1.89906
2184.7	1.9026
2186.14	2.15575
2187.57	1.8932
2189.01	2.1465
2190.45	2.10025
2191.89	2.07036
2193.33	1.82327
2194.76	1.64149
2196.2	1.45803
2197.64	2.42084
2199.08	1.78466
2200.51	1.68003
2201.95	1.69163
2203.38	1.55454
2204.82	1.76685
2206.25	1.38329
2207.69	1.76261
2209.12	1.29689
2210.56	1.06259
2211.99	1.52236
2213.43	1.10479
2214.86	1.06759
2216.3	1.55919
2217.73	1.06144
2219.16	1.12595
2220.59	0.746074
2222.03	1.09168
2223.46	1.2387
2224.89	0.989123
2226.32	1.33067
2227.75	1.32488
2229.19	1.12083
2230.62	0.80168
2232.05	0.630531
2233.48	1.13109
2234.91	0.650208
2236.34	0.71037
2237.77	0.788147
2239.2	0.900123
2240.63	0.932239
2242.06	0.98226
2243.48	1.06601
2244.91	0.611795
2246.34	0.662624
2247.77	0.25543
2249.2	0.710671
2250.62	0.723625
2252.05	0.279284
2253.48	0.95708
2254.9	0.626618
2256.33	0.720063
2257.76	0.880372
2259.18	0.68621
2260.61	0.62441
2262.03	0.515983
2263.46	0.457526
2264.88	1.03303
2266.31	0.942187
2267.73	0.557696
2269.16	0.709136
2270.58	0.452994
2272	-0.194496
2273.43	0.411639
2274.85	0.333934
2276.27	0.272652
2277.69	0.244081
2279.12	0.753531
2280.54	0.382626
2281.96	0.647547
2283.38	0.325183
2284.8	0.182207
2286.22	0.594321
2287.64	0.255898
2289.07	0.668976
2290.49	0.347394
2291.91	0.401767
2293.32	0.668894
2294.74	0.445383
2296.16	0.172495
2297.58	0.636233
2299	0.215746
2300.42	0.77845
2301.84	0.17767
2303.26	0.544498
2304.67	-0.0894742
2306.09	0.244808
2307.51	0.365525
2308.92	0.255749
2310.34	0.622274
2311.76	0.232035
2313.17	0.0883408
2314.59	0.224702
2316	0.0653729
2317.42	0.285459
2318.83	0.159965
2320.25	0.413486
2321.66	0.105275
2323.08	0.38947
2324.49	0.17664
2325.91	0.62195
2327.32	0.851079
2328.73	0.584884
2330.15	0.846237
2331.56	0.44959
2332.97	-0.159742
2334.38	0.383719
2335.79	0.236215
2337.21	0.170624
2338.62	0.137143
2340.03	0.267063
2341.44	0.00192738
2342.85	0.327503
2344.26	0.226232
2345.67	0.108938
2347.08	-0.581235
2348.49	-0.190208
2349.9	0.0364366
2351.31	0.115012
2352.72	0.176322
2354.13	0.269366
2355.53	-0.013238
2356.94	0.339476
2358.35	0.122157
2359.76	0.344073
2361.17	-0.294581
2362.57	0.00842762
2363.98	-0.142766
2365.39	0.126947
2366.79	0.169989
2368.2	-0.157888
2369.6	0.0963774
2371.01	-0.0355425
2372.42	0.139871
2373.82	-0.247671
2375.22	0.347281
2376.63	0.378278
2378.03	0.199278
2379.44	-0.125375
2380.84	-0.0495009
2382.25	0.0892138
2383.65	-0.029355
2385.05	0.220062
2386.45	0.245556
2387.86	0.271743
2389.26	0.107553
2390.66	0.358893
2392.06	0.181008
2393.46	0.0996413
2394.87	0.225788
2396.27	0.352415
2397.67	-0.0449772
2399.07	0.352763
2400.47	0.226512
2401.87	0.243515
2403.27	0.292304
2404.67	-0.119703
2406.07	0.483691
2407.47	0.308379
2408.86	0.402169
2410.26	0.0517607
2411.66	0.351457
2413.06	-0.187755
2414.46	-0.0289788
2415.85	-0.154036
2417.25	0.149417
2418.65	0.152826
2420.05	-0.112705
2421.44	0.0492477
2422.84	0.306024
2424.23	0.245739
2425.63	0.122111
2427.03	0.173219
2428.42	0.256769
2429.82	0.182568
2431.21	0.156479
2432.6	0.336852
2434	0.326362
2435.39	0.124263
2436.79	-0.142691
2438.18	0.383521
2439.57	0.193694
2440.97	0.130248
2442.36	-0.203455
2443.75	0.272126
2445.14	0.239615
2446.54	-0.110085
2447.93	0.221841
2449.32	0.141618
2450.71	-0.0016799
2452.1	0.251254
2453.49	0.0774531
2454.88	0.173373
2456.27	0.0167356
2457.66	0.572177
2459.05	0.494734
2460.44	0.116336
2461.83	-0.183528
2463.22	0.259002
2464.61	-0.0260291
2466	0.399581
2467.39	0.445897
2468.77	0.302786
2470.16	0.0334682
2471.55	-0.0783305
2472.94	0.140258
2474.32	0.357929
2475.71	0.118572
2477.1	-0.0735626
2478.48	-0.108381
2479.87	0.0295973
2481.25	-0.0363383
2482.64	-0.0395632
2484.02	-0.0588169
2485.41	0.171477
2486.8	-0.0526795
2488.18	0.253319
2489.56	0.0125127
2490.95	0.534822
2492.33	0.0925274
2493.72	0.288753
2495.1	-0.165808
2496.48	0.0943999
2497.86	-0.0942655
2499.25	-0.359855
2500.63	-0.223194
2502.01	0.0826416
2503.39	0.46435
2504.77	0.119595
2506.16	0.17566
2507.54	-0.168744
2508.92	0.10265
2510.3	-0.0869017
2511.68	-0.214186
2513.06	-0.034059
2514.44	-0.328344
2515.82	0.0825377
2517.2	0.0040288
2518.58	-0.165689
2519.95	0.184446
2521.33	-0.199089
2522.71	0.378871
2524.09	0.513038
2525.47	-0.313735
2526.84	0.398598
2528.22	0.349365
2529.6	0.270727
2530.98	-0.0192771
2532.35	0.315258
2533.73	-0.0480661
2535.11	0.333661
2536.48	0.183591
2537.86	0.215277
2539.23	0.139844
2540.61	-0.0880532
2541.98	0.488312
2543.36	0.0328155
2544.73	0.124341
2546.1	-0.0410075
2547.48	0.0980039
2548.85	0.252912
2550.23	0.134771
2551.6	0.243841
2552.97	0.0486398
2554.34	0.171289
2555.72	0.171793
2557.09	0.26285
2558.46	0.399243
2559.83	-0.0250998
2561.2	0.0664878
2562.58	0.294958
2563.95	0.0389533
2565.32	0.389463
2566.69	0.194633
2568.06	0.181724
2569.43	0.0475731
2570.8	-0.010808
2572.17	-0.00853157
2573.54	-0.0971417
2574.91	-0.185688
2576.27	0.256411
2577.64	0.319461
2579.01	-0.133215
2580.38	-0.116135
2581.75	0.112898
2583.11	-0.128401
2584.48	0.206231
2585.85	0.0556927
2587.21	0.147788
2588.58	0.164244
2589.95	0.529344
2591.31	0.151762
2592.68	0.637509
2594.04	0.107448
2595.41	0.349148
2596.78	-0.167015
2598.14	0.421051
2599.51	0.312667
2600.87	0.249837
2602.23	0.15729
2603.6	-0.161048
2604.96	0.396508
2606.32	0.335361
2607.69	-0.238691
2609.05	0.272227
2610.41	0.239346
2611.77	0.0398684
2613.14	0.245763
2614.5	-0.270366
2615.86	0.159689
2617.22	-0.220404
2618.58	-0.164979
2619.94	-0.0342274
2621.3	0.276326
2622.67	0.288031
2624.03	0.0460606
2625.39	0.207264
2626.75	0.0250702
2628.1	-0.0379262
2629.46	0.181829
2630.82	0.19278
2632.18	0.322555
2633.54	0.199568
2634.9	0.121279
2636.26	0.206219
2637.61	-0.109067
2638.97	0.153624
2640.33	0.416026
2641.69	0.101706
2643.04	0.186933
2644.4	0.0655026
2645.76	0.224467
2647.11	0.0880404
2648.47	0.01018
2649.82	0.284971
2651.18	-0.235171
2652.53	0.0532117
2653.89	0.0477777
2655.24	-0.015667
2656.6	-0.0195441
2657.95	-0.139585
2659.31	0.209322
2660.66	0.148804
2662.01	0.19052
2663.37	0.173276
2664.72	0.242963
2666.07	0.0639825
2667.43	0.336666
2668.78	-0.104663
2670.13	0.240618
2671.48	-0.0102892
2672.83	-0.173171
2674.18	0.158373
2675.53	0.185227
2676.89	0.0529318
2678.24	-0.0787268
2679.59	-0.224146
2680.94	0.240214
2682.29	0.0385914
2683.64	-0.0606112
2684.99	0.160001
2686.34	0.032886
2687.68	0.297435
2689.03	0.43048
2690.38	-0.178254
2691.73	0.184176
2693.08	0.327518
2694.43	-0.0520802
2695.77	0.0178518
2697.12	0.160644
2698.47	0.521595
2699.81	0.0585036
2701.16	0.0891633
2702.51	0.468676
2703.85	0.211734
2705.2	0.186954
2706.54	0.379754
2707.89	0.12267
2709.23	0.358615
2710.58	0.100669
2711.92	0.161924
2713.27	0.208573
2714.61	0.269729
2715.96	-0.497916
2717.3	0.231942
2718.64	0.00181532
2719.99	-0.214159
2721.33	-0.0812802
2722.67	-0.0942984
2724.01	0.241646
2725.36	0.169693
2726.7	0.432199
2728.04	-0.0187297
2729.38	0.257846
2730.72	-0.062324
2732.06	0.0685639
2733.41	-0.105994
2734.75	-0.0621977
2736.09	0.287185
2737.43	-0.119644
2738.77	0.113444
2740.11	0.375382
2741.44	0.447845
2742.78	0.098166
2744.12	0.285811
2745.46	0.0515256
2746.8	0.136552
2748.14	0.29393
2749.48	0.117509
2750.81	0.332974
2752.15	0.345516
2753.49	0.111868
2754.83	0.2552
2756.16	0.0509491
2757.5	0.0496612
2758.84	0.120959
2760.17	0.134647
2761.51	0.0329552
2762.84	-0.0393944
2764.18	-0.429811
2765.51	0.395137
2766.85	0.134554
2768.18	0.104722
2769.52	0.551
2770.85	0.12857
2772.19	-0.164473
2773.52	-0.082715
2774.85	-0.261016
2776.19	-0.222981
2777.52	0.00235653
2778.85	0.199008
2780.18	-0.164636
2781.52	-0.412649
2782.85	0.344285
2784.18	0.254035
2785.51	0.149555
2786.84	-0.0262461
2788.17	-0.0153456
2789.51	-0.232757
2790.84	0.122796
2792.17	-0.178969
2793.5	-0.0370903
2794.83	0.104753
2796.16	-0.268119
2797.48	-0.0127211
2798.81	0.370552
2800.14	0.0110188
2801.47	-0.148695
2802.8	0.133589
2804.13	-0.0263953
2805.46	-0.0583773
2806.79	-0.0481038
2808.11	-0.0525689
2809.44	0.354779
2810.77	0.207702
2812.09	0.0329623
2813.42	-0.140648
2814.75	0.0556502
2816.07	0.267162
2817.4	-0.101583
2818.73	-0.129685
2820.05	0.0264664
2821.38	0.409015
2822.7	0.0398703
2824.03	0.0953922
2825.35	0.249766
2826.67	0.191686
2828	0.332267
2829.32	0.402491
2830.65	-0.0931468
2831.97	0.274904
2833.29	0.345623
2834.62	0.472681
2835.94	-0.150749
2837.26	0.499038
2838.58	0.582351
2839.9	0.509891
2841.23	0.83342
2842.55	1.15716
2843.87	1.32589
2845.19	1.043
2846.51	1.18462
2847.83	1.31242
2849.15	1.65225
2850.47	1.51128
2851.79	1.45467
2853.11	1.2563
2854.43	1.42505
2855.75	1.66423
2857.07	1.46541
2858.39	1.42206
2859.71	1.77413
2861.02	1.43406
2862.34	2.11027
2863.66	1.76967
2864.98	1.8523
2866.3	2.11826
2867.61	1.70738
2868.93	2.46733
2870.25	2.29693
2871.56	2.26768
2872.88	2.4214
2874.19	2.51804
2875.51	2.75453
2876.83	2.73645
2878.14	2.85836
2879.46	2.37517
2880.77	3.11563
2882.09	2.61977
2883.4	2.67297
2884.71	2.79717
2886.03	2.85165
2887.34	2.59739
2888.65	2.52527
2889.97	2.67694
2891.28	2.70157
2892.59	2.73967
2893.91	2.66553
2895.22	2.84381
2896.53	2.54676
2897.84	2.8665
2899.15	2.92114
2900.46	2.80859
2901.78	3.10211
2903.09	3.33982
2904.4	3.26991
2905.71	3.56392
2907.02	3.52273
2908.33	3.4263
2909.64	3.94621
2910.95	3.33326
2912.26	3.74186
2913.57	3.96792
2914.87	3.88475
2916.18	4.37401
2917.49	4.7217
2918.8	4.18684
2920.11	4.39346
2921.42	4.60056
2922.72	4.59901
2924.03	4.58475
2925.34	4.97688
2926.64	5.15991
2927.95	5.39891
2929.26	5.17621
2930.56	4.96696
2931.87	5.38635
2933.17	5.66565
2934.48	5.46967
2935.78	5.27383
2937.09	5.06419
2938.39	5.24601
2939.7	4.98092
2941	5.33113
2942.31	4.8577
2943.61	4.7207
2944.91	4.68275
2946.22	4.43605
2947.52	4.73535
2948.82	4.36281
2950.13	4.33898
2951.43	4.28551
2952.73	3.57219
2954.03	3.68382
2955.33	4.00506
2956.64	3.9491
2957.94	3.97897
2959.24	3.35322
2960.54	3.54184
2961.84	3.67639
2963.14	3.44703
2964.44	3.06237
2965.74	2.7603
2967.04	3.14521
2968.34	2.74199
2969.64	2.84413
2970.94	2.72118
2972.24	2.80944
2973.53	2.30698
2974.83	2.24059
2976.13	2.27221
2977.43	2.09155
2978.73	2.06437
2980.02	2.00763
2981.32	1.89355
2982.62	1.93382
2983.91	1.93216
2985.21	1.74869
2986.51	1.76327
2987.8	1.49801
2989.1	1.96427
2990.4	1.57353
2991.69	1.098
2992.99	1.04326
2994.28	1.14209
2995.57	1.21184
2996.87	0.929948
2998.16	1.34978
2999.46	0.885739
3000.75	0.78706
3002.05	1.01129
3003.34	0.633178
3004.63	0.423461
3005.92	0.703784
3007.22	0.57745
3008.51	0.324631
3009.8	0.365018
3011.09	0.125317
3012.39	0.304473
3013.68	0.58099
3014.97	0.202252
3016.26	0.144989
3017.55	0.102296
3018.84	0.18527
3020.13	0.115225
3021.42	0.183884
3022.71	0.321207
3024	-0.11143
3025.29	0.079978
3026.58	-0.130802
3027.87	0.240325
3029.16	0.224589
3030.45	0.23771
3031.73	0.348673
3033.02	-0.00897312
3034.31	0.0340724
3035.6	0.131829
3036.89	-0.212744
3038.17	0.199451
3039.46	-0.0924678
3040.75	-0.0550904
3042.03	0.159895
3043.32	0.113834
3044.61	0.260201
3045.89	-0.344403
3047.18	0.119332
3048.46	0.0518312
3049.75	-0.245942
3051.03	0.09899
3052.32	0.253458
3053.6	0.216884
3054.89	0.207071
3056.17	0.291869
3057.45	0.116702
3058.74	0.0909362
3060.02	-0.0167084
3061.31	-0.0967145
3062.59	-0.230293
3063.87	-0.158766
3065.15	0.240185
3066.44	0.259561
3067.72	-0.168945
3069	0.0418706
3070.28	-0.087492
3071.56	0.612098
3072.84	0.317822
3074.13	-0.208431
3075.41	0.161783
3076.69	0.205435
3077.97	-0.198532
3079.25	-0.207845
3080.53	0.109563
3081.81	-0.00592041
3083.09	-0.161117
3084.37	-0.397254
3085.64	0.099432
3086.92	0.134406
3088.2	0.0737882
3089.48	0.202617
3090.76	0.168195
3092.04	-0.0562649
3093.31	-0.19913
3094.59	-0.0976095
3095.87	0.0176468
3097.14	0.11937
3098.42	-0.0500689
3099.7	0.159853
3100.97	0.0715737
3102.25	-0.070776
3103.53	-0.172212
3104.8	-0.0295601
3106.08	0.113626
3107.35	-0.175517
3108.63	0.0910192
3109.9	0.0877647
3111.18	0.0582194
3112.45	0.0428138
3113.73	0.0277309
3115	0.121067
3116.27	-0.0571346
3117.55	0.184339
3118.82	0.0587664
3120.09	0.29847
3121.37	0.0356703
3122.64	0.0165133
3123.91	0.308769
3125.18	0.0728574
3126.45	-0.216619
3127.73	0.373951
3129	0.180116
3130.27	0.108367
3131.54	0.104322
3132.81	-0.0619788
3134.08	0.136232
3135.35	0.320332
3136.62	0.00457239
3137.89	-0.0954599
3139.16	0.0333691
3140.43	0.0676436
3141.7	0.397742
3142.97	0.445365
3144.24	0.224811
3145.51	0.0453339
3146.78	0.161582
3148.04	0.104044
3149.31	0.194316
