200.423	0.361886
202.238	0.40287
204.052	0.445012
205.868	0.58532
207.682	0.992922
209.495	0.354285
211.308	0.0546217
213.12	1.01556
214.935	-0.136701
216.746	-0.100744
218.558	0.661461
220.369	0.430718
222.18	0.249463
223.992	-0.390123
225.802	-0.231306
227.612	-0.338561
229.421	0.95402
231.23	-0.651781
233.039	0.831079
234.849	-0.0503311
236.657	-0.592478
238.465	-0.529784
240.272	0.065753
242.079	0.519276
243.885	0.00960064
245.691	0.512783
247.497	-0.675801
249.305	0.522304
251.11	0.0745049
252.915	0.492203
254.719	1.00358
256.523	0.356322
258.327	0.45746
260.13	-0.210686
261.933	-0.442996
263.736	-0.0713806
265.538	0.566374
267.34	-0.169148
269.141	0.540735
270.943	0.0924025
272.744	-0.212972
274.544	-0.49611
276.344	-0.130421
278.144	0.545973
279.944	0.014864
281.743	0.444508
283.542	-0.283328
285.34	0.0934429
287.138	0.708317
288.936	1.05796
290.733	0.281771
292.53	0.633231
294.327	-0.0426741
296.123	0.120507
297.919	0.953826
299.715	-0.0526571
301.508	0.0636539
303.303	0.0593662
305.098	0.148911
306.892	0.737929
308.686	0.419958
310.479	0.55547
312.273	0.835015
314.065	0.42571
315.858	0.828137
317.648	0.875434
319.44	0.733951
321.231	1.04649
323.022	0.143984
324.813	0.433871
326.604	0.0794268
328.392	1.03812
330.181	0.969093
331.971	0.970139
333.76	0.442542
335.548	0.151282
337.335	0.933926
339.123	0.684913
340.91	0.840513
342.698	0.0864553
344.483	-0.022069
346.269	0.825313
348.055	-0.261254
349.841	0.68235
351.625	0.264999
353.41	1.37424
355.195	0.0959864
356.977	0.462241
358.762	-0.198285
360.545	0.188362
362.329	0.478048
364.11	0.3858
365.893	0.625318
367.675	0.554774
369.455	0.222367
371.237	0.955379
373.017	0.479141
374.798	0.310628
376.578	0.827003
378.357	0.446723
380.137	0.303764
381.917	0.703716
383.694	0.210729
385.473	1.13028
387.249	0.523027
389.028	0.669207
390.806	0.44066
392.581	0.917608
394.359	0.455859
396.134	0.464166
397.91	1.05969
399.684	0.316204
401.46	0.722996
403.234	0.729647
405.009	-0.0162249
406.784	0.105968
408.557	0.955136
410.331	1.05234
412.103	0.421958
413.876	0.848143
415.647	0.477288
417.42	0.36547
419.191	0.207416
420.961	0.612868
422.733	0.736425
424.502	0.506963
426.273	0.440659
428.042	0.654982
429.812	0.680836
431.58	-0.0444736
433.35	-0.0653019
435.118	-0.085784
436.885	0.50388
438.653	0.130445
440.42	0.412369
442.188	0.480574
443.954	0.874233
445.719	0.117137
447.486	0.881068
449.251	-0.0874195
451.015	0.18412
452.781	0.525553
454.545	-0.276257
456.308	-0.261113
458.073	0.00995445
459.836	-0.417492
461.598	0.016798
463.362	0.336096
465.124	0.355928
466.885	-0.155236
468.648	0.475496
470.408	0.783519
472.169	-0.280208
473.929	0.260485
475.69	0.659811
477.45	0.7305
479.208	0.659071
480.967	0.726106
482.727	0.583647
484.485	0.745384
486.243	0.327153
488	0.354069
489.759	0.360209
491.515	0.297613
493.272	0.796481
495.028	0.57157
496.783	0.697272
498.54	0.846295
500.295	0.338395
502.05	0.720712
503.804	0.491849
505.558	0.284769
507.311	0.405009
509.064	0.923397
510.819	0.35769
512.572	0.942915
514.324	0.655628
516.076	1.66056
517.827	0.264585
519.578	0.302352
521.329	0.0337067
523.08	-0.164814
524.83	0.810176
526.58	0.141973
528.329	0.764071
530.08	0.916692
531.829	0.0615301
533.578	0.938544
535.326	0.713553
537.074	0.790961
538.821	0.399515
540.568	1.05684
542.315	0.77988
544.062	0.479815
545.808	0.226896
547.554	0.879935
549.299	0.650854
551.044	0.0520773
552.789	0.195037
554.533	0.12997
556.278	0.942518
558.019	0.37035
559.763	0.606244
561.506	0.589223
563.249	0.572983
564.991	0.235727
566.733	0.0835018
568.475	0.57527
570.217	-0.377825
571.958	0.414948
573.699	0.10841
575.439	0.285836
577.177	0.0294466
578.917	-0.0877237
580.656	0.094552
582.396	0.300178
584.134	0.160546
585.873	0.456557
587.609	0.383144
589.347	-0.0829115
591.084	0.416166
592.822	0.500472
594.558	0.423538
596.295	0.645775
598.029	0.131798
599.765	0.169577
601.5	0.0223408
603.235	0.40261
604.968	0.137149
606.703	-0.0607529
608.437	-0.0068264
610.171	-0.0219841
611.902	-0.17416
613.635	0.225034
615.368	-0.154469
617.099	0.337196
618.831	0.782082
620.563	-0.193978
622.294	0.636789
624.024	0.29952
625.755	-0.334284
627.485	0.198324
629.213	-0.0430632
630.943	-0.190166
632.673	0.258565
634.4	-0.477998
636.129	0.15452
637.855	0.419871
639.584	-0.162577
641.312	0.187037
643.037	0.555943
644.764	0.330578
646.491	0.219716
648.216	0.384143
649.942	-0.492923
651.666	-0.115377
653.392	-0.255753
655.115	0.221963
656.84	0.407417
658.563	-0.294409
660.287	0.302481
662.011	0.00796223
663.732	-0.129797
665.456	0.529585
667.177	0.455214
668.899	0.17399
670.62	0.076498
672.342	-0.0644302
674.061	0.00358868
675.781	0.395274
677.502	0.032217
679.22	0.334739
680.941	0.383833
682.659	0.637884
684.379	0.452216
686.096	-0.196675
687.815	0.441988
689.532	0.112058
691.248	0.264948
692.966	-0.181814
694.682	0.199785
696.4	0.649162
698.115	-0.215324
699.829	0.944281
701.546	0.928348
703.26	0.773336
704.974	1.21478
706.689	0.805741
708.402	0.786674
710.115	1.38582
711.83	1.02195
713.542	0.383873
715.254	0.477981
716.967	0.366368
718.679	0.871018
720.39	0.873616
722.102	0.238802
723.812	0.46979
725.522	1.01854
727.232	1.02087
728.943	0.568807
730.652	1.11458
732.361	0.866139
734.069	0.912082
735.779	1.83948
737.487	1.0043
739.194	1.34471
740.901	1.39278
742.608	0.856712
744.316	0.593209
746.022	0.601817
747.728	0.63468
749.433	1.25404
751.138	0.547957
752.843	1.35055
754.549	1.68272
756.254	1.13939
757.957	1.13801
759.661	1.16106
761.364	1.27582
763.067	0.80486
764.769	0.649038
766.471	1.35027
768.175	1.6657
769.877	1.00626
771.578	1.36164
773.279	1.08207
774.98	0.46277
776.68	1.29122
778.38	1.37517
780.079	1.37065
781.779	1.91059
783.478	1.68169
785.176	1.47393
786.875	1.17263
788.573	1.79541
790.27	1.55389
791.968	0.744164
793.665	1.83056
795.361	1.49334
797.058	1.65373
798.754	1.11782
800.45	1.44023
802.145	1.13422
803.84	1.09924
805.535	2.0308
807.23	1.76963
808.922	0.811091
810.616	1.28857
812.309	1.74177
814.002	1.14045
815.695	0.875626
817.388	1.6625
819.08	1.24131
820.772	1.24532
822.464	1.74069
824.153	1.07695
825.844	1.03975
827.535	0.849293
829.225	1.35266
830.915	1.30304
832.605	1.1456
834.292	0.856977
835.981	1.75147
837.67	1.17388
839.359	1.59907
841.047	1.06214
842.732	1.08179
844.42	0.765636
846.107	1.29949
847.794	1.47814
849.479	0.966498
851.165	1.15139
852.851	0.554595
854.534	0.451385
856.22	0.819524
857.905	2.08644
859.589	0.7657
861.272	1.30969
862.956	1.15388
864.639	1.15407
866.321	0.544415
868.004	0.835618
869.687	0.675328
871.367	0.988308
873.049	1.14322
874.731	1.74937
876.41	0.618058
878.092	0.344134
879.771	0.67951
881.451	0.721057
883.131	0.716599
884.809	0.597959
886.489	0.613073
888.166	0.897022
889.845	0.682633
891.522	1.14277
893.2	0.452036
894.878	0.548513
896.554	0.643525
898.231	0.871837
899.906	0.874191
901.583	-0.0654898
903.258	0.876143
904.934	0.518923
906.608	1.36824
908.283	0.744851
909.956	1.63836
911.631	1.19634
913.304	0.889491
914.976	0.872358
916.65	1.18808
918.322	0.439358
919.995	0.887812
921.666	0.67251
923.339	1.23261
925.009	1.02087
926.679	0.546769
928.351	0.671103
930.021	0.708687
931.692	0.0190487
933.361	0.69771
935.029	0.736761
936.699	1.26154
938.367	0.883148
940.035	0.616557
941.704	0.417597
943.371	0.396015
945.038	1.2792
946.706	1.05758
948.372	0.921897
950.038	0.12176
951.705	0.93106
953.37	0.372485
955.035	0.874491
956.7	0.255254
958.366	0.477974
960.03	1.12377
961.693	1.55159
963.357	0.896841
965.021	0.70361
966.684	0.816607
968.346	0.77121
970.008	0.479765
971.67	0.452712
973.334	0.713684
974.995	0.379336
976.655	0.644355
978.316	0.181366
979.976	0.526664
981.638	0.871719
983.297	0.694992
984.957	1.48984
986.616	0.26767
988.274	0.349324
989.932	0.141876
991.59	0.663143
993.248	0.498877
994.907	0.401127
996.565	0.877258
998.221	1.44102
999.878	1.03424
1001.53	1.42024
1003.19	0.374722
1004.85	0.781662
1006.5	0.528601
1008.16	0.495648
1009.81	0.967867
1011.46	0.343524
1013.12	0.487619
1014.77	0.478724
1016.43	0.470345
1018.08	0.593904
1019.73	0.215335
1021.38	1.01897
1023.04	0.162374
1024.69	0.662309
1026.34	0.769538
1027.99	1.66338
1029.64	1.48568
1031.29	1.65587
1032.94	2.43502
1034.59	2.97099
1036.24	3.74403
1037.89	4.36208
1039.54	5.54492
1041.19	6.98802
1042.84	8.14892
1044.48	8.33421
1046.13	7.915
1047.78	8.04256
1049.42	7.32633
1051.07	6.02593
1052.72	5.72589
1054.36	3.70973
1056.01	3.49663
1057.66	2.58735
1059.3	2.02492
1060.94	1.76586
1062.59	1.3535
1064.23	1.33129
1065.88	1.43811
1067.52	0.934871
1069.16	0.604465
1070.81	0.295183
1072.45	0.724019
1074.09	0.393659
1075.73	0.650476
1077.38	0.626934
1079.02	-0.0889168
1080.66	1.16955
1082.3	0.628206
1083.94	0.671242
1085.58	1.2758
1087.22	1.03219
1088.86	0.894378
1090.5	0.45153
1092.13	0.505083
1093.77	0.493085
1095.41	0.351845
1097.05	1.05258
1098.68	0.784663
1100.32	0.411722
1101.96	0.794726
1103.6	-0.175512
1105.23	0.512497
1106.87	0.362306
1108.5	0.233301
1110.14	0.146002
1111.77	0.121283
1113.41	0.266423
1115.04	0.96795
1116.67	1.02415
1118.31	0.222863
1119.94	0.45184
1121.58	0.146486
1123.21	1.44798
1124.84	1.05956
1126.47	1.07893
1128.1	0.778562
1129.73	1.12067
1131.37	0.308987
1133	0.246041
1134.63	0.182953
1136.26	-0.222861
1137.89	0.588149
1139.52	0.329145
1141.14	0.303904
1142.77	0.299349
1144.4	0.529549
1146.03	-0.00708103
1147.66	0.139853
1149.29	0.415609
1150.91	0.351057
1152.54	0.0948982
1154.17	0.434544
1155.79	-0.0778418
1157.42	0.0481968
1159.04	0.110778
1160.67	-0.16587
1162.3	0.133014
1163.92	0.539417
1165.55	0.223583
1167.17	-0.135085
1168.79	0.461688
1170.42	0.163421
1172.04	0.372795
1173.66	0.346118
1175.28	-0.0640116
1176.91	0.56454
1178.53	0.620418
1180.15	-0.0214291
1181.77	0.544456
1183.39	0.412848
1185.01	0.260327
1186.63	-0.0198574
1188.25	-0.343834
1189.87	-0.12159
1191.49	-0.407454
1193.11	-0.210894
1194.73	0.886911
1196.35	-0.114958
1197.97	0.499246
1199.59	0.695859
1201.2	0.310061
1202.82	0.283215
1204.44	0.217943
1206.05	-0.199278
1207.67	0.303223
1209.29	-0.153563
1210.9	0.327347
1212.52	1.07691
1214.13	0.447594
1215.75	0.107731
1217.36	1.07672
1218.97	0.629305
1220.59	1.46968
1222.2	0.525736
1223.82	0.994103
1225.43	0.759719
1227.04	1.21047
1228.65	1.04211
1230.26	1.10298
1231.88	1.1654
1233.49	0.650672
1235.1	0.736962
1236.71	1.23819
1238.32	1.12071
1239.93	0.776603
1241.54	1.28061
1243.15	1.37066
1244.76	0.632051
1246.37	1.69228
1247.97	1.0337
1249.58	1.16043
1251.19	0.935009
1252.8	1.45455
1254.41	1.12691
1256.01	1.21435
1257.62	1.01378
1259.23	1.22847
1260.83	0.32668
1262.44	1.06074
1264.04	1.5468
1265.65	1.92906
1267.25	1.41924
1268.86	0.762804
1270.46	1.82581
1272.07	1.45681
1273.67	2.10233
1275.27	1.41969
1276.88	1.73079
1278.48	1.81271
1280.08	1.64522
1281.68	2.07766
1283.28	2.0754
1284.89	2.30133
1286.49	1.82545
1288.09	1.51655
1289.69	1.41564
1291.29	1.00548
1292.89	1.83498
1294.49	1.21722
1296.09	1.94046
1297.69	1.62885
1299.29	1.27407
1300.88	2.1135
1302.48	1.50798
1304.08	2.07527
1305.68	1.63308
1307.27	1.70452
1308.87	1.65231
1310.47	1.57968
1312.06	2.03997
1313.66	1.84585
1315.25	2.65467
1316.85	1.80967
1318.44	2.12965
1320.04	2.14321
1321.63	1.07593
1323.23	1.65697
1324.82	1.76694
1326.41	2.11835
1328.01	2.04229
1329.6	2.53407
1331.19	1.4493
1332.78	1.72346
1334.38	2.16166
1335.97	2.68227
1337.56	2.11402
1339.15	1.58586
1340.74	1.53962
1342.33	2.03397
1343.92	1.27837
1345.51	2.83176
1347.1	1.73467
1348.69	1.42347
1350.28	2.05668
1351.87	2.03244
1353.46	1.57121
1355.04	1.17202
1356.63	1.41298
1358.22	1.59332
1359.81	1.5127
1361.39	1.13132
1362.98	1.4474
1364.57	1.32403
1366.15	0.822531
1367.74	1.2187
1369.32	1.21794
1370.91	0.92049
1372.49	1.42085
1374.07	1.28588
1375.66	0.813547
1377.24	2.21181
1378.83	1.20166
1380.41	1.78206
1381.99	0.868574
1383.57	2.10157
1385.16	0.986713
1386.74	1.22324
1388.32	1.59871
1389.9	1.22043
1391.48	0.903123
1393.06	0.80523
1394.64	1.32272
1396.22	0.887953
1397.8	1.40402
1399.38	1.30413
1400.96	1.63876
1402.54	0.428261
1404.12	1.71174
1405.7	1.49176
1407.28	0.482502
1408.85	1.35211
1410.43	1.7873
1412.01	0.978146
1413.58	1.96507
1415.16	1.7069
1416.74	1.21117
1418.31	2.23306
1419.89	1.93442
1421.46	1.65719
1423.04	1.57909
1424.61	2.21178
1426.19	1.86206
1427.76	2.43816
1429.33	2.71869
1430.91	0.891981
1432.48	2.54729
1434.05	2.42991
1435.63	2.0366
1437.2	2.6858
1438.77	1.94007
1440.34	3.33821
1441.91	2.33987
1443.49	2.6986
1445.05	3.17582
1446.63	2.31678
1448.2	3.14834
1449.77	2.56497
1451.34	2.11972
1452.91	2.52069
1454.47	1.84044
1456.04	2.69454
1457.61	2.36736
1459.18	2.31389
1460.75	2.47453
1462.31	2.49479
1463.88	2.47339
1465.45	2.2539
1467.01	2.56449
1468.58	1.73649
1470.15	1.59731
1471.71	2.3229
1473.28	1.81393
1474.84	2.12983
1476.41	1.52469
1477.97	1.74324
1479.54	1.80483
1481.1	1.70945
1482.66	1.59438
1484.23	1.85145
1485.79	1.77491
1487.35	1.09023
1488.91	1.0112
1490.48	1.14509
1492.04	1.39324
1493.6	1.85288
1495.16	1.58719
1496.72	1.71029
1498.28	2.04677
1499.84	1.06156
1501.4	1.84663
1502.96	1.27414
1504.52	0.878321
1506.08	1.04496
1507.64	0.727005
1509.2	0.949304
1510.76	1.61337
1512.31	1.29175
1513.87	0.95118
1515.43	0.727001
1516.99	1.46406
1518.54	0.72382
1520.1	0.637321
1521.66	0.933957
1523.21	1.40157
1524.77	1.21796
1526.32	0.690207
1527.88	1.03856
1529.43	1.21403
1530.99	0.838333
1532.54	0.824559
1534.09	1.6452
1535.65	0.876397
1537.2	0.99858
1538.75	1.3668
1540.31	1.05596
1541.86	1.29218
1543.41	1.09494
1544.96	1.21743
1546.51	0.832256
1548.06	1.06683
1549.62	1.41331
1551.17	1.02906
1552.72	0.889402
1554.27	1.12498
1555.82	0.689631
1557.36	0.854362
1558.91	1.30131
1560.46	0.631197
1562.01	1.86603
1563.56	1.03163
1565.11	1.41062
1566.66	1.24869
1568.2	0.993077
1569.75	1.24089
1571.3	0.965567
1572.84	0.98852
1574.39	1.3473
1575.93	1.5941
1577.48	1.07577
1579.02	1.11799
1580.57	1.70249
1582.11	0.812818
1583.66	1.21278
1585.2	1.29625
1586.75	1.23085
1588.29	0.885032
1589.83	1.26842
1591.38	1.59539
1592.92	2.0343
1594.46	1.53656
1596	1.78799
1597.54	1.87144
1599.09	1.16833
1600.63	1.40344
1602.17	1.58307
1603.71	1.87556
1605.25	1.99836
1606.79	1.83755
1608.33	2.12516
1609.87	1.0001
1611.41	1.92051
1612.95	1.33516
1614.48	1.51824
1616.02	1.51292
1617.56	1.22701
1619.1	2.04824
1620.64	1.31635
1622.17	1.74754
1623.71	1.59934
1625.25	1.95664
1626.78	1.69522
1628.32	1.80642
1629.86	1.37336
1631.39	1.72433
1632.92	0.654794
1634.46	1.71491
1635.99	1.52487
1637.53	1.69054
1639.06	1.53999
1640.59	2.43329
1642.13	1.55527
1643.66	1.62626
1645.19	0.690713
1646.73	1.89374
1648.26	1.58948
1649.79	1.7689
1651.32	1.74522
1652.85	1.85304
1654.38	1.85101
1655.92	2.12786
1657.45	2.0339
1658.98	2.19828
1660.51	2.50886
1662.04	2.22506
1663.57	1.69978
1665.09	1.59937
1666.62	1.66564
1668.15	1.56722
1669.68	1.52615
1671.21	1.39493
1672.73	1.8915
1674.26	1.33878
1675.79	1.54088
1677.31	0.619192
1678.84	1.33414
1680.37	1.36673
1681.89	0.957297
1683.42	1.66804
1684.94	1.36866
1686.47	1.29017
1687.99	1.13904
1689.52	0.255829
1691.04	0.582262
1692.57	0.524161
1694.09	0.795276
1695.61	0.937927
1697.14	0.824284
1698.66	0.856424
1700.18	0.760212
1701.7	1.15588
1703.22	0.803026
1704.75	0.286086
1706.27	0.297069
1707.79	-0.383159
1709.31	0.608728
1710.83	0.619002
1712.35	0.75641
1713.87	0.585794
1715.39	0.451737
1716.91	0.480618
1718.43	1.01531
1719.95	0.555833
1721.46	0.94534
1722.98	0.289262
1724.5	0.229931
1726.02	0.424385
1727.53	0.350339
1729.05	0.277591
1730.57	0.366848
1732.08	0.471381
1733.6	0.309667
1735.12	0.895388
1736.63	0.532997
1738.15	0.373625
1739.66	0.246358
1741.18	0.51128
1742.69	0.645835
1744.21	0.172719
1745.72	-0.197523
1747.23	0.314187
1748.74	0.132283
1750.26	0.425231
1751.77	0.565578
1753.28	-0.0616655
1754.8	0.0118103
1756.31	-0.0557098
1757.82	0.137754
1759.33	0.406192
1760.84	0.0796118
1762.35	0.366126
1763.86	0.0662146
1765.37	0.0377922
1766.88	-0.0782032
1768.39	-0.0250359
1769.9	0.123842
1771.41	0.0498123
1772.92	0.473948
1774.43	0.46372
1775.93	0.092329
1777.44	0.469426
1778.95	0.0555115
1780.46	0.122692
1781.96	0.178495
1783.47	0.187493
1784.98	0.270261
1786.48	0.0365896
1787.99	0.0282526
1789.49	0.58593
1791	0.557585
1792.5	0.2797
1794.01	0.217112
1795.51	0.169637
1797.02	-0.0980577
1798.52	0.0427866
1800.03	0.00277424
1801.53	0.472412
1803.03	0.13916
1804.53	0.291742
1806.04	0.161613
1807.54	0.324126
1809.04	0.245654
1810.54	0.2925
1812.04	0.273314
1813.54	0.225825
1815.05	-0.0492039
1816.55	0.278483
1818.05	0.0874166
1819.55	0.0297394
1821.05	0.195514
1822.55	0.215248
1824.05	-0.0237885
1825.54	0.504104
1827.04	0.634775
1828.54	0.39762
1830.04	0.227125
1831.54	0.0643902
1833.03	0.333398
1834.53	0.046072
1836.03	0.190875
1837.52	0.182637
1839.02	0.0674267
1840.52	0.131357
1842.01	0.386161
1843.51	0.223696
1845	0.148101
1846.5	0.409957
1847.99	-0.423918
1849.49	-0.0885687
1850.98	-0.0445595
1852.47	-0.0595808
1853.97	0.0212069
1855.46	0.0130806
1856.95	0.448712
1858.45	0.142253
1859.94	-0.25295
1861.43	0.383939
1862.92	0.383404
1864.41	0.493528
1865.91	0.490553
1867.4	0.345965
1868.89	0.230233
1870.38	0.0675192
1871.87	0.420524
1873.36	0.232578
1874.85	0.45373
1876.34	0.134141
1877.83	0.454492
1879.31	0.112505
1880.8	0.203808
1882.29	0.0380497
1882.56	-0.00112152
1884.05	0.328431
1885.54	-0.0751467
1887.04	-0.0266027
1888.53	-0.0483618
1890.03	0.15635
1891.52	-0.0552263
1893.01	0.622083
1894.5	0.0150738
1895.99	0.24459
1897.49	0.301335
1898.98	0.427523
1900.47	0.465425
1901.96	0.309855
1903.45	0.360745
1904.94	0.218528
1906.43	-0.0287914
1907.92	0.436096
1909.41	0.293845
1910.9	-0.10734
1912.39	-0.455119
1913.88	0.568079
1915.37	0.776019
1916.86	-0.160791
1918.35	0.254086
1919.84	-0.0249033
1921.32	-0.0266743
1922.81	0.19719
1924.3	-0.131905
1925.78	-0.0786428
1927.27	-0.110603
1928.76	-0.262974
1930.24	0.104065
1931.73	0.504763
1933.21	0.158977
1934.7	-0.292768
1936.18	0.620574
1937.67	-0.301394
1939.15	0.332328
1940.64	-0.0185938
1942.12	-0.109157
1943.6	-0.319057
1945.09	0.110295
1946.57	-0.115232
1948.05	0.279484
1949.54	0.517914
1951.02	-0.226568
1952.5	0.147099
1953.98	0.0209122
1955.46	-0.191098
1956.94	0.0441446
1958.42	-0.423681
1959.91	-0.186799
1961.39	-0.103775
1962.87	-0.07199
1964.34	0.199397
1965.82	0.487016
1967.3	0.123075
1968.78	0.288965
1970.26	0.214594
1971.74	0.174167
1973.22	-0.20763
1974.7	-0.00885677
1976.17	0.56483
1977.65	0.0819712
1979.13	0.0254173
1980.6	-0.337268
1982.08	-0.257725
1983.56	0.483789
1985.03	0.22238
1986.51	0.0458536
1987.98	0.361037
1989.46	0.100424
1990.93	-0.0574217
1992.41	0.394982
1993.88	-0.081543
1995.36	0.0855093
1996.83	0.185429
1998.3	0.183905
1999.78	0.148067
2001.25	0.145239
2002.72	0.34419
2004.2	0.30677
2005.67	0.135042
2007.14	-0.119793
2008.61	0.131883
2010.08	-0.373049
2011.55	0.604147
2013.02	-0.169279
2014.49	0.571542
2015.97	-0.0517101
2017.43	0.535188
2018.9	0.548984
2020.37	0.360438
2021.84	0.339849
2023.31	0.118304
2024.78	0.166425
2026.25	0.769571
2027.72	-0.118286
2029.19	0.10278
2030.65	0.0403881
2032.12	0.348381
2033.59	0.338223
2035.05	0.579939
2036.52	0.0653744
2037.98	0.104352
2039.45	0.226898
2040.92	0.416675
2042.38	0.270761
2043.85	0.579871
2045.31	0.503395
2046.78	0.512
2048.24	0.234648
2049.71	0.0408535
2051.17	0.199679
2052.63	0.390371
2054.1	0.47758
2055.56	0.275867
2057.02	0.493945
2058.48	0.609756
2059.95	0.405269
2061.41	0.773952
2062.87	0.0325413
2064.33	0.25202
2065.79	0.035183
2067.25	0.34111
2068.71	0.698325
2070.17	0.163881
2071.63	0.370131
2073.09	0.862499
2074.55	0.394797
2076.01	-0.0565596
2077.47	0.114703
2078.93	0.975904
2080.39	0.842935
2081.85	0.187341
2083.3	0.170784
2084.76	0.456211
2086.22	0.774156
2087.68	0.283976
2089.13	0.314711
2090.59	0.630713
2092.05	0.459442
2093.5	0.909066
2094.96	0.435522
2096.41	0.866923
2097.87	0.292007
2099.32	0.420035
2100.78	0.781592
2102.23	0.4411
2103.69	0.786794
2105.14	1.18384
2106.59	1.16532
2108.05	0.914718
2109.5	0.798079
2110.95	1.41425
2112.41	0.828475
2113.86	1.27353
2115.31	1.43296
2116.76	0.892707
2118.21	1.3172
2119.67	0.979367
2121.12	1.44078
2122.57	1.47327
2124.02	1.37506
2125.47	1.0456
2126.92	1.09716
2128.37	1.24685
2129.82	1.42775
2131.27	1.20927
2132.71	1.63554
2134.16	1.87932
2135.61	1.49566
2137.06	1.49448
2138.51	1.54538
2139.95	1.89632
2141.4	1.62145
2142.85	1.41417
2144.29	1.53846
2145.74	1.96093
2147.19	2.01909
2148.63	1.62922
2150.08	1.76809
2151.52	2.18733
2152.97	2.19103
2154.42	2.16046
2155.86	1.7151
2157.3	2.28041
2158.75	2.10127
2160.19	1.85769
2161.64	1.81525
2163.08	2.25607
2164.52	2.00271
2165.96	2.13199
2167.41	2.02872
2168.85	1.70774
2170.29	2.11585
2171.73	2.43815
2173.17	1.7264
2174.61	2.27706
2176.06	1.76243
2177.5	2.4288
2178.94	2.24817
2180.38	1.76966
2181.82	2.52269
2183.26	2.14589
2184.7	2.91703
2186.14	1.84197
2187.57	1.83144
2189.01	2.22038
2190.45	2.20996
2191.89	1.84954
2193.33	1.83768
2194.76	2.05711
2196.2	1.85785
2197.64	1.30668
2199.08	1.66835
2200.51	1.89526
2201.95	1.7398
2203.38	1.36979
2204.82	1.36647
2206.25	1.72912
2207.69	2.04245
2209.12	1.04708
2210.56	1.40881
2211.99	1.48762
2213.43	1.56535
2214.86	1.65933
2216.3	1.15979
2217.73	1.56969
2219.16	1.10685
2220.59	1.37082
2222.03	1.4535
2223.46	0.991503
2224.89	1.12092
2226.32	0.491054
2227.75	0.534184
2229.19	1.26541
2230.62	1.059
2232.05	0.918327
2233.48	0.974761
2234.91	0.933951
2236.34	0.845735
2237.77	1.20047
2239.2	1.57359
2240.63	0.464772
2242.06	0.712347
2243.48	0.390606
2244.91	0.738021
2246.34	0.301678
2247.77	0.776736
2249.2	0.0587702
2250.62	0.723626
2252.05	0.815588
2253.48	0.288401
2254.9	0.656139
2256.33	0.57056
2257.76	0.277112
2259.18	0.425382
2260.61	0.187844
2262.03	0.358922
2263.46	0.580841
2264.88	0.234569
2266.31	0.521603
2267.73	-0.0868149
2269.16	0.230805
2270.58	0.466272
2272	0.603546
2273.43	0.577806
2274.85	0.258957
2276.27	0.510489
2277.69	0.501605
2279.12	0.362375
2280.54	0.239313
2281.96	0.328073
2283.38	0.482029
2284.8	0.0486441
2286.22	0.0233831
2287.64	-0.311683
2289.07	0.496919
2290.49	0.244502
2291.91	0.515334
2293.32	-0.211078
2294.74	0.747107
2296.16	0.0364008
2297.58	0.340319
2299	-0.141806
2300.42	0.0806513
2301.84	0.00848484
2303.26	-0.276692
2304.67	0.0453663
2306.09	0.0720482
2307.51	0.213358
2308.92	-0.139019
2310.34	0.560063
2311.76	-0.418697
2313.17	0.576407
2314.59	0.272346
2316	-0.0310507
2317.42	0.160457
2318.83	0.0230064
2320.25	-0.263332
2321.66	0.224287
2323.08	0.396336
2324.49	0.103452
2325.91	0.434897
2327.32	0.69806
2328.73	0.663358
2330.15	0.431302
2331.56	0.184134
2332.97	0.349967
2334.38	0.00667572
2335.79	-0.0565138
2337.21	0.192259
2338.62	0.242406
2340.03	-0.267559
2341.44	-0.104766
2342.85	0.254158
2344.26	0.415778
2345.67	-0.0780163
2347.08	0.117063
2348.49	0.131878
2349.9	-0.311816
2351.31	0.15958
2352.72	0.22074
2354.13	-0.143584
2355.53	0.0950994
2356.94	0.0723724
2358.35	0.293633
2359.76	-0.167788
2361.17	0.378129
2362.57	-0.325494
2363.98	0.203098
2365.39	0.148102
2366.79	0.141939
2368.2	-0.170228
2369.6	-0.157969
2371.01	-0.0152197
2372.42	0.418916
2373.82	0.322457
2375.22	-0.0792818
2376.63	-0.0145493
2378.03	-0.144126
2379.44	0.36735
2380.84	0.121459
2382.25	0.114887
2383.65	-0.405203
2385.05	0.0514212
2386.45	0.10804
2387.86	0.165617
2389.26	0.288301
2390.66	-0.208986
2392.06	-0.767852
2393.46	0.218474
2394.87	0.425508
2396.27	-0.177546
2397.67	-0.0801516
2399.07	-0.0297966
2400.47	0.132323
2401.87	-0.213506
2403.27	0.0760603
2404.67	-0.158893
2406.07	0.176692
2407.47	-0.250685
2408.86	0.00336361
2410.26	0.0190115
2411.66	0.114131
2413.06	0.384354
2414.46	0.291825
2415.85	0.232775
2417.25	0.00118828
2418.65	-0.0710411
2420.05	0.538134
2421.44	0.038559
2422.84	-0.0338421
2424.23	0.210296
2425.63	0.169341
2427.03	-0.283074
2428.42	0.216513
2429.82	-0.24988
2431.21	0.42658
2432.6	0.405343
2434	0.367566
2435.39	0.0424137
2436.79	-0.12574
2438.18	-0.0891304
2439.57	0.120694
2440.97	-0.115298
2442.36	0.0292253
2443.75	0.109835
2445.14	0.206032
2446.54	0.0641479
2447.93	-0.0777645
2449.32	-0.425483
2450.71	-0.0601406
2452.1	0.258061
2453.49	0.0390167
2454.88	-0.0207129
2456.27	0.157663
2457.66	-0.0906944
2459.05	0.04039
2460.44	0.234023
2461.83	0.442422
2463.22	0.0333281
2464.61	0.129419
2466	0.130326
2467.39	-0.042511
2468.77	-0.0574741
2470.16	0.0219641
2471.55	-0.245984
2472.94	-0.136343
2474.32	0.2084
2475.71	0.394573
2477.1	-0.111543
2478.48	0.231142
2479.87	0.369484
2481.25	0.0844746
2482.64	0.050499
2484.02	0.313454
2485.41	-0.113256
2486.8	-0.118604
2488.18	0.108855
2489.56	0.0543776
2490.95	-0.202439
2492.33	0.428021
2493.72	-0.0130367
2495.1	0.153356
2496.48	-0.159541
2497.86	0.0866003
2499.25	0.100538
2500.63	0.175923
2502.01	0.0802603
2503.39	0.276985
2504.77	0.00952339
2506.16	-0.134823
2507.54	-0.26373
2508.92	0.0843716
2510.3	0.0943766
2511.68	-0.0329552
2513.06	-0.0211821
2514.44	0.282581
2515.82	0.25022
2517.2	0.21882
2518.58	0.0810804
2519.95	-0.0563192
2521.33	-0.0411596
2522.71	-0.255727
2524.09	-0.074398
2525.47	0.242996
2526.84	0.148436
2528.22	-0.219362
2529.6	-0.0227728
2530.98	0.129837
2532.35	0.390676
2533.73	0.197262
2535.11	-0.223181
2536.48	0.222284
2537.86	-0.259727
2539.23	0.27489
2540.61	0.0491142
2541.98	0.217685
2543.36	-0.144549
2544.73	-0.12639
2546.1	0.105517
2547.48	0.00513554
2548.85	0.239483
2550.23	0.0642529
2551.6	-0.111588
2552.97	0.409617
2554.34	0.170796
2555.72	0.0978985
2557.09	-0.142442
2558.46	-0.276649
2559.83	-0.00118065
2561.2	0.289934
2562.58	-0.479102
2563.95	0.434704
2565.32	-0.0148773
2566.69	0.157143
2568.06	0.0110168
2569.43	-0.150265
2570.8	-0.190314
2572.17	0.148621
2573.54	0.26031
2574.91	0.19021
2576.27	0.635609
2577.64	0.110603
2579.01	-0.293433
2580.38	0.105767
2581.75	-0.0868616
2583.11	-0.219238
2584.48	-0.0335045
2585.85	-0.33292
2587.21	0.155997
2588.58	0.17523
2589.95	0.179437
2591.31	0.395634
2592.68	0.0657749
2594.04	-0.174012
2595.41	-0.187661
2596.78	0.17595
2598.14	0.387002
2599.51	-0.00736713
2600.87	0.142809
2602.23	-0.159657
2603.6	-0.189363
2604.96	0.551147
2606.32	0.0845966
2607.69	-0.00502872
2609.05	0.341525
2610.41	-0.247556
2611.77	-0.129924
2613.14	0.286922
2614.5	-0.274271
2615.86	-0.23439
2617.22	-0.104385
2618.58	0.130888
2619.94	0.366643
2621.3	0.109466
2622.67	0.0475025
2624.03	-0.0738459
2625.39	0.0287361
2626.75	-0.00331688
2628.1	-0.378419
2629.46	-0.0237074
2630.82	-0.235134
2632.18	0.0590916
2633.54	0.29338
2634.9	0.349155
2636.26	-0.0994072
2637.61	-0.0138159
2638.97	0.530682
2640.33	0.0832825
2641.69	-0.0970306
2643.04	0.0482292
2644.4	0.0901375
2645.76	0.235161
2647.11	0.202608
2648.47	0.375512
2649.82	0.193986
2651.18	0.159035
2652.53	-0.272698
2653.89	0.35299
2655.24	-0.0769596
2656.6	0.359149
2657.95	0.473986
2659.31	0.150886
2660.66	0.267213
2662.01	0.0909681
2663.37	0.22095
2664.72	0.291451
2666.07	0.375567
2667.43	-0.0219154
2668.78	-0.0111361
2670.13	-6.00815e-005
2671.48	-0.177416
2672.83	-0.0487041
2674.18	-0.297013
2675.53	0.428035
2676.89	0.181026
2678.24	0.471585
2679.59	0.197466
2680.94	-0.466805
2682.29	0.189612
2683.64	0.238471
2684.99	0.230412
2686.34	0.309934
2687.68	0.432834
2689.03	0.264064
2690.38	0.282055
2691.73	0.123784
2693.08	0.167014
2694.43	0.267117
2695.77	0.3959
2697.12	0.380423
2698.47	-0.24175
2699.81	0.397877
2701.16	0.185131
2702.51	0.36508
2703.85	-0.0767565
2705.2	0.496424
2706.54	0.446487
2707.89	0.0914669
2709.23	0.388947
2710.58	0.0472336
2711.92	0.227952
2713.27	0.248779
2714.61	0.284068
2715.96	0.246603
2717.3	0.543467
2718.64	0.243712
2719.99	0.23442
2721.33	0.748529
2722.67	0.476222
2724.01	-0.0441227
2725.36	0.104578
2726.7	0.587612
2728.04	0.400736
2729.38	-0.252053
2730.72	0.739343
2732.06	0.639311
2733.41	0.437574
2734.75	0.236075
2736.09	0.165732
2737.43	0.095542
2738.77	0.301645
2740.11	0.449261
2741.44	0.276411
2742.78	0.291867
2744.12	0.524508
2745.46	-0.0427313
2746.8	0.261281
2748.14	0.27452
2749.48	0.447396
2750.81	-0.0322809
2752.15	0.286055
2753.49	-0.221659
2754.83	-0.10587
2756.16	0.082407
2757.5	0.32867
2758.84	0.271099
2760.17	-0.567554
2761.51	0.186382
2762.84	0.0724936
2764.18	-0.243611
2765.51	0.091362
2766.85	-0.0516376
2768.18	0.151518
2769.52	-0.0517273
2770.85	0.162687
2772.19	0.331993
2773.52	-0.236008
2774.85	0.00368118
2776.19	-0.045166
2777.52	-0.00718307
2778.85	0.189525
2780.18	0.372147
2781.52	0.224589
2782.85	0.0342646
2784.18	0.0162239
2785.51	0.0841713
2786.84	0.252498
2788.17	0.0347004
2789.51	0.132757
2790.84	0.360446
2792.17	0.174221
2793.5	0.374556
2794.83	0.546251
2796.16	0.403128
2797.48	-0.32617
2798.81	0.100968
2800.14	0.227569
2801.47	0.0113859
2802.8	-0.347383
2804.13	-0.0790567
2805.46	0.0887909
2806.79	0.0564919
2808.11	0.108872
2809.44	0.459152
2810.77	0.425513
2812.09	0.19395
2813.42	0.474533
2814.75	0.0476418
2816.07	0.118689
2817.4	0.375197
2818.73	0.348864
2820.05	0.435912
2821.38	0.409054
2822.7	0.664847
2824.03	0.239766
2825.35	0.437725
2826.67	0.253287
2828	0.324349
2829.32	0.339391
2830.65	0.425725
2831.97	0.271637
2833.29	0.59875
2834.62	0.656527
2835.94	0.756177
2837.26	0.331656
2838.58	0.6707
2839.9	1.30631
2841.23	1.07928
2842.55	1.29104
2843.87	1.6024
2845.19	1.70258
2846.51	1.45017
2847.83	1.67868
2849.15	2.31711
2850.47	2.03649
2851.79	2.13688
2853.11	1.68546
2854.43	2.09567
2855.75	1.33287
2857.07	2.20895
2858.39	1.84188
2859.71	1.99741
2861.02	2.06796
2862.34	2.44869
2863.66	2.37716
2864.98	2.41824
2866.3	2.38874
2867.61	3.17751
2868.93	2.37315
2870.25	3.14849
2871.56	2.93708
2872.88	2.80995
2874.19	2.72428
2875.51	2.83465
2876.83	2.81698
2878.14	3.19239
2879.46	2.92015
2880.77	2.97186
2882.09	3.13683
2883.4	3.54164
2884.71	3.41377
2886.03	3.53934
2887.34	3.49649
2888.65	3.15847
2889.97	3.60526
2891.28	3.2515
2892.59	3.3318
2893.91	3.56594
2895.22	3.40823
2896.53	3.30757
2897.84	3.0962
2899.15	3.65556
2900.46	3.83795
2901.78	3.85297
2903.09	3.78429
2904.4	3.71576
2905.71	3.77344
2907.02	3.78978
2908.33	3.93293
2909.64	4.13302
2910.95	3.94197
2912.26	4.15674
2913.57	4.56671
2914.87	4.66712
2916.18	4.76554
2917.49	4.82013
2918.8	4.90154
2920.11	4.9967
2921.42	5.24638
2922.72	5.11993
2924.03	5.35854
2925.34	5.24897
2926.64	5.18203
2927.95	4.84949
2929.26	5.1456
2930.56	5.81853
2931.87	5.56823
2933.17	5.20585
2934.48	5.23484
2935.78	5.79502
2937.09	5.69849
2938.39	5.19693
2939.7	5.40837
2941	5.20118
2942.31	4.6875
2943.61	4.98565
2944.91	4.94992
2946.22	4.62179
2947.52	4.19611
2948.82	4.55362
2950.13	4.40605
2951.43	4.38247
2952.73	4.39878
2954.03	4.0635
2955.33	4.25984
2956.64	3.81328
2957.94	3.91485
2959.24	4.22945
2960.54	3.53878
2961.84	3.67654
2963.14	3.78726
2964.44	3.43416
2965.74	3.12121
2967.04	3.15755
2968.34	2.64422
2969.64	2.8329
2970.94	3.06375
2972.24	2.87295
2973.53	2.73869
2974.83	2.64656
2976.13	2.63817
2977.43	2.61432
2978.73	2.20845
2980.02	2.40617
2981.32	2.16615
2982.62	1.95386
2983.91	2.50127
2985.21	1.77054
2986.51	1.92701
2987.8	1.53697
2989.1	1.56953
2990.4	1.70074
2991.69	1.35357
2992.99	1.55338
2994.28	1.38646
2995.57	1.12008
2996.87	0.923331
2998.16	0.965086
2999.46	1.0351
3000.75	1.06355
3002.05	1.0926
3003.34	0.575571
3004.63	0.871427
3005.92	0.984743
3007.22	0.901313
3008.51	0.747072
3009.8	0.494153
3011.09	0.757732
3012.39	0.545756
3013.68	0.543349
3014.97	0.34623
3016.26	0.122257
3017.55	0.386606
3018.84	0.12244
3020.13	0.44271
3021.42	0.20617
3022.71	0.344016
3024	0.216919
3025.29	0.491266
3026.58	0.280093
3027.87	-0.0131903
3029.16	0.179093
3030.45	0.483222
3031.73	0.291471
3033.02	-0.188904
3034.31	0.242188
3035.6	0.382668
3036.89	0.287182
3038.17	0.0107851
3039.46	0.0906954
3040.75	0.196221
3042.03	0.369103
3043.32	0.0891638
3044.61	0.153074
3045.89	-0.000145912
3047.18	0.218069
3048.46	0.233716
3049.75	-0.212389
3051.03	-0.0289392
3052.32	-0.30862
3053.6	0.14853
3054.89	0.495736
3056.17	0.186985
3057.45	0.504346
3058.74	0.425399
3060.02	0.591318
3061.31	0.1179
3062.59	0.122047
3063.87	0.236436
3065.15	0.311644
3066.44	0.0620747
3067.72	0.248629
3069	0.150055
3070.28	0.0783577
3071.56	0.0737362
3072.84	0.0406179
3074.13	-0.156927
3075.41	0.147444
3076.69	0.179556
3077.97	-0.249404
3079.25	0.232174
3080.53	-0.451501
3081.81	-0.197479
3083.09	0.0443096
3084.37	0.0562134
3085.64	0.176751
3086.92	0.188239
3088.2	-0.0046463
3089.48	-0.0489626
3090.76	-0.202308
3092.04	-0.138674
3093.31	0.0200367
3094.59	0.0976343
3095.87	0.0805855
3097.14	0.253414
3098.42	0.155032
3099.7	0.28689
3100.97	-0.218088
3102.25	-0.167486
3103.53	-0.0895424
3104.8	0.0971899
3106.08	0.122248
3107.35	0.0264978
3108.63	0.0130568
3109.9	0.203792
3111.18	0.0842609
3112.45	0.155105
3113.73	-0.125872
3115	0.135159
3116.27	0.165331
3117.55	0.0182419
3118.82	0.209074
3120.09	-0.0352855
3121.37	0.221108
3122.64	0.314062
3123.91	0.433816
3125.18	0.133923
3126.45	0.362607
3127.73	0.334679
3129	0.158566
3130.27	0.280395
3131.54	0.321157
3132.81	0.253643
3134.08	0.442399
3135.35	0.427909
3136.62	0.223918
3137.89	0.289287
3139.16	0.32721
3140.43	0.122629
3141.7	-0.0546479
3142.97	0.198658
3144.24	0.438636
3145.51	0.26304
3146.78	0.477199
3148.04	0.383669
3149.31	0.612214
