200.423	0.322274
202.238	0.326536
204.052	0.332371
205.868	0.436643
207.682	0.44407
209.495	-0.496512
211.308	0.53033
213.12	0.414076
214.935	0.85495
216.746	0.761534
218.558	0.910669
220.369	0.16489
222.18	0.340294
223.992	0.685827
225.802	0.524313
227.612	0.435669
229.421	0.371055
231.23	0.450937
233.039	0.458223
234.849	-0.016243
236.657	0.113624
238.465	0.0527906
240.272	-0.367028
242.079	-0.181927
243.885	0.511382
245.691	0.264232
247.497	-0.201734
249.305	0.416326
251.11	0.0415239
252.915	0.0746441
254.719	-0.159204
256.523	-0.103793
258.327	-0.192131
260.13	0.275418
261.933	0.166699
263.736	0.565704
265.538	0.146833
267.34	0.523629
269.141	0.273685
270.943	0.239975
272.744	0.0605917
274.544	0.627358
276.344	0.758563
278.144	0.695128
279.944	-0.0686789
281.743	-0.255808
283.542	-0.0836067
285.34	-0.177297
287.138	-0.175464
288.936	-0.00571156
290.733	0.380128
292.53	-0.0470781
294.327	-0.232825
296.123	0.276531
297.919	-0.456108
299.715	0.174214
301.508	0.27862
303.303	0.286737
305.098	0.0789404
306.892	0.705309
308.686	0.520339
310.479	0.145617
312.273	0.153581
314.065	-0.336764
315.858	0.722629
317.648	0.379067
319.44	-0.344119
321.231	0.363405
323.022	0.0948315
324.813	0.303736
326.604	0.441499
328.392	0.220911
330.181	-0.048295
331.971	-0.390594
333.76	0.102695
335.548	-0.147618
337.335	0.174169
339.123	0.422076
340.91	0.237833
342.698	-0.0187454
344.483	0.0355167
346.269	0.138074
348.055	-0.0213108
349.841	0.0109587
351.625	-0.123744
353.41	-0.0440731
355.195	-0.108525
356.977	0.183496
358.762	0.283314
360.545	-0.332536
362.329	0.455641
364.11	-0.184774
365.893	0.481874
367.675	-0.324998
369.455	0.173038
371.237	0.171817
373.017	0.0516443
374.798	0.14411
376.578	-0.259244
378.357	0.399968
380.137	-0.331064
381.917	0.682207
383.694	-0.0687408
385.473	-0.276708
387.249	0.480201
389.028	-0.453547
390.806	0.187767
392.581	0.0313196
394.359	0.0634594
396.134	0.18997
397.91	0.316674
399.684	-0.519716
401.46	-0.158628
403.234	-0.150419
405.009	0.303349
406.784	0.122277
408.557	1.2085
410.331	0.0875311
412.103	0.328249
413.876	0.569368
415.647	0.154248
417.42	0.397016
419.191	0.452802
420.961	0.0629892
422.733	-0.256692
424.502	0.502829
426.273	0.0642357
428.042	0.0239344
429.812	0.382235
431.58	0.106761
433.35	0.559235
435.118	0.331479
436.885	0.596619
438.653	0.250906
440.42	0.326215
442.188	0.657498
443.954	-0.0921526
445.719	-0.0227413
447.486	0.443254
449.251	0.416895
451.015	0.414068
452.781	-0.125291
454.545	0.199534
456.308	0.384028
458.073	-0.15383
459.836	-0.062458
461.598	-0.0403013
463.362	0.285517
465.124	0.474127
466.885	0.247458
468.648	0.000284195
470.408	-0.314924
472.169	0.487103
473.929	-0.340414
475.69	0.273708
477.45	0.606426
479.208	0.0753536
480.967	0.28869
482.727	0.292524
484.485	0.460588
486.243	0.257971
488	0.267192
489.759	-0.141276
491.515	0.571162
493.272	-0.139669
495.028	0.949175
496.783	0.190746
498.54	0.438136
500.295	0.193049
502.05	0.815315
503.804	0.639056
505.558	0.367362
507.311	0.799439
509.064	0.148168
510.819	0.64788
512.572	0.604867
514.324	0.372072
516.076	0.679024
517.827	0.749388
519.578	0.818652
521.329	0.464131
523.08	0.132962
524.83	1.09286
526.58	0.644197
528.329	0.242944
530.08	0.591921
531.829	0.214062
533.578	0.538079
535.326	0.252332
537.074	0.549891
538.821	-0.0183601
540.568	0.416211
542.315	0.662623
544.062	0.419492
545.808	0.362812
547.554	0.399293
549.299	0.389594
551.044	0.333847
552.789	0.764176
554.533	0.084691
556.278	-0.0160322
558.019	0.229752
559.763	0.0839033
561.506	-0.567557
563.249	-0.343343
564.991	0.386777
566.733	0.634198
568.475	-0.0591087
570.217	-0.314682
571.958	0.257132
573.699	-0.247754
575.439	0.029068
577.177	0.238802
578.917	-0.192742
580.656	0.225881
582.396	0.0705786
584.134	0.604308
585.873	-0.150461
587.609	-0.147777
589.347	0.267864
591.084	-0.237685
592.822	-0.168576
594.558	-0.145644
596.295	0.199421
598.029	0.291381
599.765	-0.0541229
601.5	0.151711
603.235	0.655207
604.968	0.375246
606.703	-0.0436687
608.437	-0.233296
610.171	0.242712
611.902	-0.588824
613.635	-0.0660915
615.368	0.502708
617.099	0.0174017
618.831	0.104517
620.563	0.327848
622.294	0.160787
624.024	0.198825
625.755	0.350984
627.485	0.503983
629.213	0.864218
630.943	0.0402117
632.673	0.131063
634.4	0.0632515
636.129	-0.0961647
637.855	0.473248
639.584	0.446445
641.312	0.393849
643.037	0.612324
644.764	0.487548
646.491	0.022048
648.216	0.559266
649.942	0.19015
651.666	0.302113
653.392	-0.26394
655.115	0.0369186
656.84	0.0445251
658.563	0.121476
660.287	-0.00713444
662.011	1.11858
663.732	0.575336
665.456	0.234791
667.177	0.280865
668.899	0.440516
670.62	0.715231
672.342	0.831896
674.061	0.722195
675.781	0.408243
677.502	0.553854
679.22	0.791796
680.941	1.25911
682.659	0.413932
684.379	0.532324
686.096	0.556678
687.815	0.694592
689.532	0.462872
691.248	0.253411
692.966	0.504015
694.682	0.638674
696.4	0.380818
698.115	0.720451
699.829	0.874464
701.546	0.728135
703.26	0.374156
704.974	0.961594
706.689	1.57056
708.402	0.985672
710.115	0.607536
711.83	1.09959
713.542	0.561175
715.254	1.28039
716.967	0.947966
718.679	0.867153
720.39	1.51598
722.102	0.934145
723.812	1.65027
725.522	1.45571
727.232	1.19303
728.943	0.771519
730.652	0.826432
732.361	1.35645
734.069	1.13855
735.779	1.39576
737.487	1.29155
739.194	0.827259
740.901	1.51435
742.608	0.805037
744.316	0.908427
746.022	1.73324
747.728	0.826679
749.433	1.54136
751.138	1.60496
752.843	1.48998
754.549	1.37639
756.254	1.62435
757.957	1.1311
759.661	0.909129
761.364	0.8007
763.067	0.940825
764.769	1.50993
766.471	1.78494
768.175	1.19934
769.877	1.71907
771.578	1.24184
773.279	1.50934
774.98	2.13805
776.68	2.0211
778.38	1.43063
780.079	1.54264
781.779	1.81423
783.478	1.49776
785.176	2.08547
786.875	1.92383
788.573	2.07576
790.27	1.70384
791.968	1.57818
793.665	1.36072
795.361	1.82009
797.058	1.94143
798.754	1.97418
800.45	1.26602
802.145	1.79739
803.84	2.1716
805.535	1.73608
807.23	1.68209
808.922	1.67186
810.616	1.59309
812.309	2.02922
814.002	1.47818
815.695	1.46505
817.388	1.96635
819.08	1.90813
820.772	1.82783
822.464	1.88191
824.153	1.55768
825.844	1.88147
827.535	1.33842
829.225	2.04549
830.915	2.26568
832.605	1.70922
834.292	1.64485
835.981	1.33612
837.67	1.27233
839.359	1.22968
841.047	1.76618
842.732	1.72071
844.42	1.40652
846.107	1.58454
847.794	1.67498
849.479	1.76797
851.165	1.41581
852.851	2.00634
854.534	1.09573
856.22	1.21628
857.905	0.526593
859.589	1.43176
861.272	1.48079
862.956	1.25787
864.639	1.1912
866.321	1.14608
868.004	2.0248
869.687	1.43741
871.367	1.36829
873.049	1.86294
874.731	1.43251
876.41	1.06966
878.092	0.796986
879.771	0.840158
881.451	0.973275
883.131	0.834797
884.809	1.39506
886.489	1.45721
888.166	1.60798
889.845	0.832364
891.522	1.0027
893.2	1.73447
894.878	0.798746
896.554	0.942682
898.231	1.13023
899.906	0.710788
901.583	0.941238
903.258	1.01394
904.934	0.639243
906.608	0.868368
908.283	1.05292
909.956	1.23791
911.631	1.04519
913.304	0.453513
914.976	1.17334
916.65	0.960141
918.322	1.30135
919.995	1.26558
921.666	1.11982
923.339	0.97539
925.009	0.722314
926.679	0.736241
928.351	0.729706
930.021	0.878853
931.692	1.5802
933.361	0.605039
935.029	1.24049
936.699	1.21454
938.367	1.21151
940.035	0.834733
941.704	1.36351
943.371	0.392788
945.038	0.613317
946.706	1.473
948.372	0.829893
950.038	1.04574
951.705	0.708657
953.37	1.14373
955.035	1.16112
956.7	0.475598
958.366	1.07231
960.03	0.745357
961.693	1.34723
963.357	0.712044
965.021	1.35722
966.684	0.40727
968.346	0.936708
970.008	0.910908
971.67	1.17174
973.334	0.50406
974.995	0.70032
976.655	0.500265
978.316	0.544924
979.976	0.623457
981.638	0.701678
983.297	1.27672
984.957	1.09718
986.616	0.517177
988.274	0.599482
989.932	0.768917
991.59	0.296595
993.248	0.597685
994.907	0.457002
996.565	0.978446
998.221	0.5732
999.878	0.961493
1001.53	0.974533
1003.19	0.789051
1004.85	0.999327
1006.5	0.813604
1008.16	0.14515
1009.81	0.904305
1011.46	0.939178
1013.12	0.536134
1014.77	0.725349
1016.43	0.126644
1018.08	0.579305
1019.73	0.966703
1021.38	1.07062
1023.04	1.11003
1024.69	0.713323
1026.34	1.25695
1027.99	1.3198
1029.64	1.5349
1031.29	0.962379
1032.94	1.74212
1034.59	1.77746
1036.24	2.90134
1037.89	3.0204
1039.54	3.90098
1041.19	5.02026
1042.84	5.68328
1044.48	6.4567
1046.13	7.0804
1047.78	5.94767
1049.42	5.77308
1051.07	5.53514
1052.72	4.38585
1054.36	3.21484
1056.01	2.91268
1057.66	2.197
1059.3	1.6327
1060.94	1.41548
1062.59	1.02345
1064.23	1.21754
1065.88	1.12789
1067.52	1.01539
1069.16	0.880223
1070.81	0.592465
1072.45	0.717238
1074.09	0.14803
1075.73	0.664744
1077.38	0.445166
1079.02	1.00753
1080.66	0.139452
1082.3	0.832673
1083.94	0.48421
1085.58	0.958004
1087.22	0.216027
1088.86	0.295682
1090.5	-0.0375843
1092.13	0.968803
1093.77	0.374686
1095.41	0.817455
1097.05	0.656654
1098.68	0.432853
1100.32	0.899929
1101.96	0.271058
1103.6	0.762997
1105.23	-0.163548
1106.87	-0.637662
1108.5	0.264404
1110.14	0.305117
1111.77	0.215325
1113.41	0.575157
1115.04	0.71862
1116.67	0.62529
1118.31	0.253478
1119.94	0.247021
1121.58	0.113048
1123.21	0.493901
1124.84	0.768453
1126.47	0.872602
1128.1	0.742272
1129.73	1.21139
1131.37	0.975491
1133	0.54755
1134.63	0.0340557
1136.26	0.37499
1137.89	0.543827
1139.52	0.455049
1141.14	0.429379
1142.77	0.0191059
1144.4	0.227875
1146.03	0.138636
1147.66	0.56186
1149.29	0.666115
1150.91	0.38742
1152.54	0.534777
1154.17	0.149487
1155.79	-0.406237
1157.42	0.336092
1159.04	-0.0489817
1160.67	0.0135021
1162.3	0.417225
1163.92	-0.028573
1165.55	0.142735
1167.17	0.122459
1168.79	-0.153935
1170.42	-0.00672054
1172.04	0.138538
1173.66	-0.503646
1175.28	0.296558
1176.91	0.331835
1178.53	-0.501234
1180.15	0.276272
1181.77	0.186297
1183.39	0.0336695
1185.01	-0.034214
1186.63	-0.187341
1188.25	-0.109674
1189.87	0.092454
1191.49	0.165972
1193.11	0.00653076
1194.73	0.140661
1196.35	-0.0610352
1197.97	0.492453
1199.59	0.0215158
1201.2	0.494051
1202.82	0.383851
1204.44	0.00505447
1206.05	-0.0167093
1207.67	-0.141485
1209.29	-0.516254
1210.9	0.443165
1212.52	0.545616
1214.13	0.0414743
1215.75	0.660213
1217.36	0.568787
1218.97	0.102432
1220.59	0.21816
1222.2	0.00248051
1223.82	0.389274
1225.43	-0.444676
1227.04	0.462066
1228.65	0.893522
1230.26	0.540243
1231.88	0.250382
1233.49	0.850533
1235.1	0.749155
1236.71	0.73167
1238.32	0.777239
1239.93	0.244527
1241.54	0.766614
1243.15	0.357658
1244.76	0.465107
1246.37	0.571594
1247.97	0.263248
1249.58	0.512848
1251.19	0.989633
1252.8	0.908015
1254.41	0.578931
1256.01	1.0576
1257.62	0.523943
1259.23	1.04653
1260.83	0.638874
1262.44	0.811225
1264.04	0.652294
1265.65	1.28032
1267.25	0.850847
1268.86	0.772684
1270.46	1.39843
1272.07	0.903497
1273.67	1.23685
1275.27	0.988693
1276.88	1.07126
1278.48	0.697217
1280.08	0.592027
1281.68	0.755685
1283.28	1.66405
1284.89	1.20738
1286.49	1.04138
1288.09	0.690503
1289.69	0.712648
1291.29	1.08659
1292.89	1.1298
1294.49	1.87464
1296.09	1.02756
1297.69	1.02584
1299.29	1.27
1300.88	1.2649
1302.48	1.5469
1304.08	1.16883
1305.68	1.16081
1307.27	1.02905
1308.87	0.733153
1310.47	1.48304
1312.06	1.679
1313.66	0.995908
1315.25	1.15287
1316.85	1.08597
1318.44	1.24417
1320.04	1.40205
1321.63	1.55874
1323.23	1.20482
1324.82	0.240087
1326.41	1.0425
1328.01	0.909653
1329.6	0.818179
1331.19	1.55766
1332.78	0.984603
1334.38	1.02048
1335.97	1.11851
1337.56	1.41871
1339.15	1.35512
1340.74	1.02808
1342.33	1.22264
1343.92	0.93236
1345.51	1.30412
1347.1	1.37429
1348.69	1.44605
1350.28	1.24004
1351.87	0.856962
1353.46	0.796245
1355.04	0.716908
1356.63	1.13756
1358.22	0.938306
1359.81	0.977867
1361.39	0.896562
1362.98	0.854386
1364.57	1.07106
1366.15	0.590366
1367.74	0.668566
1369.32	0.986761
1370.91	1.10717
1372.49	0.970287
1374.07	0.436627
1375.66	0.818956
1377.24	0.843246
1378.83	0.230289
1380.41	1.34749
1381.99	0.712431
1383.57	0.891749
1385.16	-0.00343227
1386.74	0.691152
1388.32	0.78948
1389.9	0.670033
1391.48	0.273767
1393.06	1.0291
1394.64	0.455634
1396.22	0.834058
1397.8	0.200623
1399.38	0.577253
1400.96	0.338647
1402.54	0.159101
1404.12	0.790836
1405.7	1.10604
1407.28	1.24396
1408.85	0.612087
1410.43	0.652731
1412.01	0.535357
1413.58	0.772812
1415.16	1.06837
1416.74	0.554235
1418.31	0.769513
1419.89	1.37885
1421.46	1.79179
1423.04	1.04475
1424.61	0.890167
1426.19	0.874674
1427.76	1.46991
1429.33	1.10046
1430.91	1.00566
1432.48	1.63782
1434.05	2.15063
1435.63	1.32529
1437.2	1.4837
1438.77	1.54449
1440.34	1.68494
1441.91	1.98362
1443.49	1.83104
1445.05	1.30544
1446.63	1.95931
1448.2	1.86647
1449.77	2.08847
1451.34	1.91779
1452.91	2.43595
1454.47	1.7155
1456.04	2.05717
1457.61	1.7489
1459.18	2.34455
1460.75	1.65915
1462.31	1.68028
1463.88	1.71933
1465.45	2.28783
1467.01	1.73561
1468.58	1.4985
1470.15	1.16441
1471.71	0.812129
1473.28	1.53981
1474.84	0.895376
1476.41	1.82011
1477.97	1.68611
1479.54	1.06201
1481.1	1.61395
1482.66	1.14663
1484.23	1.11037
1485.79	0.740745
1487.35	1.78065
1488.91	1.31102
1490.48	1.93562
1492.04	1.32524
1493.6	1.02613
1495.16	1.48669
1496.72	1.32142
1498.28	1.05901
1499.84	0.506297
1501.4	1.15955
1502.96	0.629655
1504.52	0.779824
1506.08	1.00744
1507.64	0.808547
1509.2	0.261299
1510.76	0.505293
1512.31	0.535837
1513.87	0.989347
1515.43	0.28854
1516.99	0.396399
1518.54	0.926623
1520.1	0.632638
1521.66	0.320362
1523.21	-0.259124
1524.77	-0.322526
1526.32	0.0709295
1527.88	0.462484
1529.43	-0.00325298
1530.99	0.0449657
1532.54	0.415853
1534.09	0.0859613
1535.65	0.419877
1537.2	0.224926
1538.75	0.804944
1540.31	0.384801
1541.86	0.606089
1543.41	0.318719
1544.96	0.257339
1546.51	0.289795
1548.06	0.941214
1549.62	0.429134
1551.17	0.292783
1552.72	0.493905
1554.27	0.97591
1555.82	0.58075
1557.36	-0.110835
1558.91	0.46881
1560.46	0.490306
1562.01	0.494695
1563.56	0.164362
1565.11	0.41293
1566.66	0.736334
1568.2	0.835631
1569.75	0.430601
1571.3	0.37982
1572.84	0.664772
1574.39	1.30428
1575.93	0.114394
1577.48	0.660789
1579.02	0.740895
1580.57	0.933649
1582.11	0.641661
1583.66	0.574519
1585.2	0.545414
1586.75	1.20852
1588.29	0.675268
1589.83	0.534328
1591.38	0.261835
1592.92	1.03731
1594.46	0.951377
1596	0.659328
1597.54	1.13591
1599.09	1.14476
1600.63	1.04176
1602.17	1.37081
1603.71	0.667387
1605.25	1.0335
1606.79	1.24825
1608.33	0.953658
1609.87	1.31462
1611.41	1.12824
1612.95	0.771012
1614.48	0.656898
1616.02	0.711302
1617.56	0.428662
1619.1	0.840594
1620.64	0.485761
1622.17	1.29331
1623.71	1.07174
1625.25	0.588223
1626.78	1.09606
1628.32	1.0411
1629.86	1.13442
1631.39	0.96494
1632.92	0.832604
1634.46	0.868703
1635.99	1.11076
1637.53	0.812669
1639.06	0.944212
1640.59	1.05708
1642.13	1.00162
1643.66	1.07549
1645.19	1.11087
1646.73	1.31267
1648.26	1.14221
1649.79	1.43657
1651.32	1.58305
1652.85	1.91613
1654.38	1.26745
1655.92	1.25006
1657.45	1.69586
1658.98	1.19596
1660.51	1.58383
1662.04	0.952274
1663.57	1.63297
1665.09	1.42542
1666.62	1.23699
1668.15	1.5294
1669.68	1.34372
1671.21	0.348996
1672.73	0.940079
1674.26	1.38399
1675.79	0.870114
1677.31	0.539844
1678.84	0.760711
1680.37	0.722947
1681.89	0.721246
1683.42	0.719216
1684.94	0.515393
1686.47	0.862318
1687.99	1.0993
1689.52	0.512062
1691.04	0.89608
1692.57	0.181767
1694.09	0.218052
1695.61	0.491809
1697.14	0.472682
1698.66	0.471517
1700.18	0.761942
1701.7	0.504349
1703.22	0.611056
1704.75	0.462114
1706.27	0.494926
1707.79	-0.181597
1709.31	0.378092
1710.83	0.374299
1712.35	0.116823
1713.87	0.0592222
1715.39	-0.0163326
1716.91	0.32421
1718.43	0.356815
1719.95	-0.098258
1721.46	-0.335911
1722.98	0.0583076
1724.5	0.110559
1726.02	0.344027
1727.53	-0.501475
1729.05	0.741894
1730.57	-0.36802
1732.08	0.0841093
1733.6	0.103683
1735.12	1.87064
1736.63	1.30357
1738.15	1.05459
1739.66	-0.0520439
1741.18	-0.0896435
1742.69	0.196344
1744.21	0.107002
1745.72	-0.0371017
1747.23	0.193314
1748.74	-0.16331
1750.26	0.186131
1751.77	-0.242412
1753.28	-0.0930796
1754.8	0.153788
1756.31	0.0879717
1757.82	0.188815
1759.33	0.134618
1760.84	0.313419
1762.35	0.328639
1763.86	-0.0418434
1765.37	0.121326
1766.88	0.0702906
1768.39	-0.214114
1769.9	-0.0391407
1771.41	-0.233771
1772.92	0.0604849
1774.43	-0.060854
1775.93	0.00517368
1777.44	0.282649
1778.95	0.263472
1780.46	0.22451
1781.96	-0.208502
1783.47	-0.160163
1784.98	0.244668
1786.48	-0.0411873
1787.99	-0.145559
1789.49	-0.222542
1791	0.259442
1792.5	0.183973
1794.01	0.194235
1795.51	0.0919743
1797.02	0.200444
1798.52	0.0117836
1800.03	-0.129021
1801.53	-0.193828
1803.03	-0.182961
1804.53	0.175106
1806.04	0.0154858
1807.54	0.0232821
1809.04	0.299694
1810.54	-0.227096
1812.04	0.0416059
1813.54	0.039113
1815.05	-0.0349674
1816.55	-0.187915
1818.05	0.123022
1819.55	-0.0601625
1821.05	0.187746
1822.55	-0.163572
1824.05	0.208307
1825.54	-0.159403
1827.04	0.10859
1828.54	-0.156911
1830.04	-0.356374
1831.54	0.373866
1833.03	-0.0423174
1834.53	0.214776
1836.03	0.341594
1837.52	0.0637512
1839.02	-0.0164995
1840.52	0.218597
1842.01	-0.117037
1843.51	0.0851812
1845	0.196181
1846.5	0.130119
1847.99	0.0817118
1849.49	0.0658865
1850.98	0.0161629
1852.47	-0.0553522
1853.97	-0.231856
1855.46	0.0653648
1856.95	0.280827
1858.45	-0.0389442
1859.94	0.248857
1861.43	0.328727
1862.92	0.231053
1864.41	0.286468
1865.91	0.267845
1867.4	0.00500393
1868.89	0.0677614
1870.38	0.404606
1871.87	0.358947
1873.36	-0.157281
1874.85	-0.427866
1876.34	0.193177
1877.83	0.236015
1879.31	0.0740213
1880.8	0.090951
1882.29	0.219503
1882.56	0.247294
1884.05	0.00337505
1885.54	-0.153996
1887.04	0.593637
1888.53	-0.104825
1890.03	0.0501671
1891.52	-0.0722857
1893.01	0.0328894
1894.5	0.365789
1895.99	0.109046
1897.49	-0.0774269
1898.98	-0.351081
1900.47	0.348466
1901.96	0.507149
1903.45	-0.0316315
1904.94	0.158696
1906.43	-0.19051
1907.92	0.15523
1909.41	-0.0889168
1910.9	0.310002
1912.39	0.397322
1913.88	0.103598
1915.37	0.399632
1916.86	0.400488
1918.35	0.418139
1919.84	-0.119111
1921.32	0.244584
1922.81	0.0716724
1924.3	0.3325
1925.78	0.00578976
1927.27	-0.371848
1928.76	0.203317
1930.24	0.380288
1931.73	0.0196428
1933.21	0.384876
1934.7	0.107741
1936.18	0.192546
1937.67	0.137791
1939.15	0.29001
1940.64	0.0106544
1942.12	-0.0259552
1943.6	0.352458
1945.09	0.317564
1946.57	0.127897
1948.05	0.265546
1949.54	0.109513
1951.02	0.486402
1952.5	0.483393
1953.98	0.0671396
1955.46	0.287162
1956.94	0.0436258
1958.42	0.315907
1959.91	-0.251934
1961.39	0.587275
1962.87	0.00336647
1964.34	0.344922
1965.82	0.531543
1967.3	0.0326805
1968.78	-0.295177
1970.26	-0.212924
1971.74	-0.0968685
1973.22	-0.0322437
1974.7	0.509933
1976.17	-0.0733614
1977.65	-0.19583
1979.13	0.345769
1980.6	0.172211
1982.08	0.0837011
1983.56	0.436657
1985.03	0.381408
1986.51	0.0376759
1987.98	-0.33943
1989.46	0.435832
1990.93	0.398385
1992.41	0.328083
1993.88	0.292644
1995.36	-0.147554
1996.83	0.105581
1998.3	0.662498
1999.78	0.171897
2001.25	0.204215
2002.72	0.151693
2004.2	0.217096
2005.67	-0.273279
2007.14	0.113294
2008.61	0.551022
2010.08	0.14763
2011.55	0.451857
2013.02	0.385759
2014.49	0.319252
2015.97	0.437077
2017.43	-0.0347004
2018.9	0.0310612
2020.37	0.0458384
2021.84	0.178018
2023.31	0.209673
2024.78	-0.0263929
2026.25	-0.00958824
2027.72	0.74652
2029.19	0.162269
2030.65	0.350835
2032.12	0.238366
2033.59	0.478805
2035.05	0.400308
2036.52	0.270982
2037.98	0.359498
2039.45	0.750196
2040.92	-0.187019
2042.38	0.422623
2043.85	0.141881
2045.31	0.316124
2046.78	0.238703
2048.24	0.0772572
2049.71	0.437794
2051.17	0.342408
2052.63	0.228586
2054.1	0.332232
2055.56	0.518492
2057.02	0.23131
2058.48	0.516494
2059.95	0.17809
2061.41	0.379132
2062.87	0.362014
2064.33	0.480507
2065.79	0.532635
2067.25	0.703384
2068.71	0.605443
2070.17	0.777113
2071.63	0.561661
2073.09	0.143954
2074.55	-0.0215082
2076.01	0.553652
2077.47	0.438031
2078.93	0.456739
2080.39	0.660217
2081.85	0.408515
2083.3	0.846382
2084.76	0.660652
2086.22	0.356563
2087.68	0.623794
2089.13	0.772723
2090.59	0.921293
2092.05	0.616345
2093.5	0.764658
2094.96	1.16409
2096.41	0.640755
2097.87	0.70362
2099.32	0.682095
2100.78	0.710458
2102.23	0.839258
2103.69	0.684834
2105.14	1.36633
2106.59	1.24789
2108.05	0.813704
2109.5	0.69688
2110.95	1.12967
2112.41	1.44413
2113.86	0.85723
2115.31	1.63395
2116.76	1.24472
2118.21	1.03922
2119.67	1.08437
2121.12	1.69547
2122.57	1.21359
2124.02	1.04846
2125.47	1.29853
2126.92	1.23325
2128.37	1.33271
2129.82	1.31468
2131.27	1.0469
2132.71	1.45725
2134.16	1.50316
2135.61	1.20263
2137.06	1.81293
2138.51	1.64819
2139.95	1.55158
2141.4	1.55582
2142.85	1.28017
2144.29	1.65015
2145.74	1.82197
2147.19	2.27506
2148.63	1.60151
2150.08	1.78812
2151.52	1.9406
2152.97	1.54523
2154.42	1.69579
2155.86	1.92867
2157.3	2.24441
2158.75	2.13022
2160.19	2.1003
2161.64	1.72427
2163.08	1.97988
2164.52	2.33695
2165.96	2.66221
2167.41	2.35646
2168.85	2.4315
2170.29	2.20523
2171.73	2.00978
2173.17	2.2281
2174.61	2.32845
2176.06	2.4115
2177.5	1.8463
2178.94	2.44583
2180.38	2.19849
2181.82	2.45089
2183.26	2.33813
2184.7	2.30879
2186.14	2.47916
2187.57	2.16707
2189.01	2.20438
2190.45	1.89213
2191.89	1.97903
2193.33	1.88199
2194.76	1.91672
2196.2	2.18252
2197.64	2.14647
2199.08	1.74279
2200.51	1.53796
2201.95	1.36649
2203.38	1.80978
2204.82	1.92206
2206.25	1.63756
2207.69	1.81771
2209.12	1.10329
2210.56	1.2494
2211.99	1.55973
2213.43	1.40605
2214.86	1.21944
2216.3	1.13272
2217.73	1.55867
2219.16	1.32587
2220.59	1.7865
2222.03	1.07683
2223.46	1.05885
2224.89	1.17122
2226.32	1.46271
2227.75	1.58759
2229.19	1.39884
2230.62	1.39014
2232.05	1.10267
2233.48	1.24168
2234.91	1.0378
2236.34	1.04786
2237.77	0.830949
2239.2	0.355094
2240.63	0.338212
2242.06	1.10587
2243.48	0.847162
2244.91	1.01286
2246.34	0.786411
2247.77	0.623682
2249.2	0.621982
2250.62	0.504106
2252.05	0.51496
2253.48	0.459956
2254.9	0.762766
2256.33	0.563238
2257.76	0.609613
2259.18	0.837153
2260.61	0.710602
2262.03	0.44025
2263.46	0.820783
2264.88	0.519474
2266.31	0.298755
2267.73	0.630181
2269.16	0.749426
2270.58	0.281915
2272	0.644119
2273.43	0.631729
2274.85	0.440227
2276.27	0.59099
2277.69	0.530124
2279.12	0.518187
2280.54	0.571411
2281.96	0.559288
2283.38	0.26972
2284.8	0.0616436
2286.22	0.359673
2287.64	0.233685
2289.07	0.614369
2290.49	0.521852
2291.91	0.118918
2293.32	0.451695
2294.74	0.375696
2296.16	0.23407
2297.58	0.681793
2299	0.343575
2300.42	0.595282
2301.84	0.519527
2303.26	0.673656
2304.67	0.483378
2306.09	0.177855
2307.51	-0.013279
2308.92	-0.369467
2310.34	0.0299873
2311.76	0.199056
2313.17	0.351743
2314.59	0.521371
2316	0.131958
2317.42	0.0394459
2318.83	0.0955915
2320.25	-0.145315
2321.66	0.206574
2323.08	-0.0537224
2324.49	0.112928
2325.91	0.359946
2327.32	0.374331
2328.73	0.931841
2330.15	0.863019
2331.56	0.482354
2332.97	0.349927
2334.38	0.382912
2335.79	0.136445
2337.21	0.235036
2338.62	0.283325
2340.03	-0.0802979
2341.44	-0.230887
2342.85	0.0777655
2344.26	-0.0240078
2345.67	-0.07623
2347.08	-0.0626187
2348.49	0.016469
2349.9	0.405903
2351.31	0.107512
2352.72	-0.142314
2354.13	0.145901
2355.53	-0.0886765
2356.94	0.311929
2358.35	-0.0365109
2359.76	0.0708227
2361.17	-0.146585
2362.57	0.139036
2363.98	0.083847
2365.39	-0.00362873
2366.79	-0.0907488
2368.2	0.0811672
2369.6	0.302116
2371.01	0.0726185
2372.42	0.0218468
2373.82	0.0525522
2375.22	0.164054
2376.63	0.0176754
2378.03	-0.0169907
2379.44	-0.0851517
2380.84	0.326859
2382.25	0.415994
2383.65	0.26385
2385.05	0.351779
2386.45	0.288118
2387.86	0.113735
2389.26	0.156045
2390.66	0.215388
2392.06	0.259814
2393.46	0.19375
2394.87	0.176233
2396.27	0.0957994
2397.67	0.127251
2399.07	0.127439
2400.47	0.175742
2401.87	0.383152
2403.27	-0.0605917
2404.67	0.11472
2406.07	0.0510397
2407.47	0.161089
2408.86	0.159298
2410.26	-0.112257
2411.66	-0.256586
2413.06	0.0275235
2414.46	0.375942
2415.85	0.155723
2417.25	0.221715
2418.65	0.526079
2420.05	-0.0559964
2421.44	0.422891
2422.84	0.156996
2424.23	0.112594
2425.63	0.131633
2427.03	0.0402164
2428.42	0.250769
2429.82	0.319612
2431.21	0.293969
2432.6	-0.0490732
2434	0.0835528
2435.39	0.421755
2436.79	0.13903
2438.18	0.124968
2439.57	0.236794
2440.97	-0.0969195
2442.36	0.204072
2443.75	0.203078
2445.14	0.201925
2446.54	0.232334
2447.93	0.183351
2449.32	-0.214074
2450.71	0.0540466
2452.1	0.274967
2453.49	0.369896
2454.88	0.165012
2456.27	0.229747
2457.66	0.0258617
2459.05	0.138188
2460.44	0.0601821
2461.83	0.313485
2463.22	-0.540471
2464.61	0.0592093
2466	-0.336786
2467.39	-0.180034
2468.77	0.197424
2470.16	-0.166875
2471.55	0.0992751
2472.94	-0.218358
2474.32	-0.0167775
2475.71	0.042356
2477.1	-0.0403943
2478.48	0.520819
2479.87	0.422242
2481.25	0.182869
2482.64	0.17881
2484.02	0.0490861
2485.41	0.231561
2486.8	0.131407
2488.18	0.0772762
2489.56	-0.0241466
2490.95	0.24809
2492.33	0.0227203
2493.72	0.171511
2495.1	0.0265155
2496.48	-0.148074
2497.86	-0.182244
2499.25	0.325599
2500.63	0.0435953
2502.01	0.0394812
2503.39	-0.0581608
2504.77	0.26004
2506.16	-0.00849915
2507.54	-0.0919738
2508.92	0.0862017
2510.3	0.11082
2511.68	-0.0788012
2513.06	-0.0987501
2514.44	0.402862
2515.82	0.108684
2517.2	-0.077333
2518.58	-0.186208
2519.95	0.331692
2521.33	0.161532
2522.71	-0.299039
2524.09	0.0333843
2525.47	-0.0468245
2526.84	-0.0662246
2528.22	0.0821528
2529.6	-0.0727715
2530.98	-0.0437088
2532.35	0.138804
2533.73	0.0946136
2535.11	-0.374309
2536.48	0.2202
2537.86	0.206383
2539.23	0.0701804
2540.61	0.00921059
2541.98	-0.188632
2543.36	0.069087
2544.73	0.236442
2546.1	-0.0804691
2547.48	0.14981
2548.85	0.214048
2550.23	0.217655
2551.6	0.20564
2552.97	0.253483
2554.34	-0.0638356
2555.72	0.118809
2557.09	0.300866
2558.46	0.0278163
2559.83	-0.0629244
2561.2	0.22577
2562.58	0.0906472
2563.95	-0.119683
2565.32	-0.0416946
2566.69	-0.130174
2568.06	0.0239058
2569.43	0.420511
2570.8	-0.0164618
2572.17	0.152866
2573.54	0.27682
2574.91	0.446366
2576.27	-0.11176
2577.64	-0.200007
2579.01	0.33322
2580.38	0.244466
2581.75	0.276638
2583.11	-0.297991
2584.48	-0.0844073
2585.85	0.220043
2587.21	0.191101
2588.58	0.283588
2589.95	0.194318
2591.31	-0.0465941
2592.68	0.0151567
2594.04	0.273085
2595.41	-0.0455217
2596.78	-0.122615
2598.14	0.238377
2599.51	-0.24803
2600.87	0.0821729
2602.23	-0.131193
2603.6	-0.0267515
2604.96	0.0328436
2606.32	-0.118608
2607.69	0.272583
2609.05	-0.0607667
2610.41	0.0871439
2611.77	0.293843
2613.14	-0.252695
2614.5	0.192534
2615.86	0.0364132
2617.22	0.0906925
2618.58	0.175386
2619.94	0.14095
2621.3	0.18201
2622.67	-0.224757
2624.03	0.175557
2625.39	0.291777
2626.75	0.243577
2628.1	-0.0581717
2629.46	-0.0172791
2630.82	0.0233665
2632.18	0.0489912
2633.54	0.0448337
2634.9	-0.00386524
2636.26	-0.00801802
2637.61	0.224916
2638.97	0.339085
2640.33	0.0685716
2641.69	0.3457
2643.04	0.0317845
2644.4	0.0137177
2645.76	0.0988741
2647.11	0.434141
2648.47	0.532558
2649.82	-0.0468855
2651.18	0.226819
2652.53	0.161925
2653.89	0.141395
2655.24	0.282835
2656.6	0.337197
2657.95	0.143757
2659.31	-0.194916
2660.66	-0.094244
2662.01	0.0792704
2663.37	0.164424
2664.72	0.0589848
2666.07	-0.178247
2667.43	0.283989
2668.78	0.133831
2670.13	0.0569263
2671.48	-0.237465
2672.83	-0.0804691
2674.18	0.164034
2675.53	-0.0556526
2676.89	0.146121
2678.24	0.0147762
2679.59	0.275766
2680.94	-0.0567775
2682.29	-0.025754
2683.64	-0.21117
2684.99	0.0538211
2686.34	0.4645
2687.68	0.0914874
2689.03	0.21081
2690.38	0.168918
2691.73	-0.0923309
2693.08	-0.137129
2694.43	0.252284
2695.77	-0.0255165
2697.12	-0.0707002
2698.47	0.218371
2699.81	0.393039
2701.16	0.337655
2702.51	-0.00605536
2703.85	0.172611
2705.2	0.105449
2706.54	-0.0922747
2707.89	-0.058229
2709.23	0.294866
2710.58	-0.0201383
2711.92	0.08569
2713.27	-0.142755
2714.61	0.311783
2715.96	0.373962
2717.3	0.0433536
2718.64	0.177872
2719.99	0.195717
2721.33	0.431462
2722.67	0.186503
2724.01	0.130304
2725.36	0.131935
2726.7	0.162339
2728.04	0.396209
2729.38	0.193251
2730.72	0.252121
2732.06	0.194566
2733.41	0.442595
2734.75	0.428923
2736.09	0.299091
2737.43	-0.00512505
2738.77	-0.0620942
2740.11	0.171566
2741.44	0.273887
2742.78	0.113918
2744.12	0.127798
2745.46	0.388079
2746.8	0.124994
2748.14	0.239362
2749.48	-0.154129
2750.81	0.163532
2752.15	0.00276041
2753.49	0.146661
2754.83	0.392043
2756.16	0.304282
2757.5	0.0140157
2758.84	0.288702
2760.17	0.143909
2761.51	-0.0438013
2762.84	0.231988
2764.18	-0.331176
2765.51	-0.170883
2766.85	-0.0688777
2768.18	0.191383
2769.52	0.0310235
2770.85	0.158527
2772.19	0.226882
2773.52	0.0633326
2774.85	-0.0427575
2776.19	-0.0190568
2777.52	0.40789
2778.85	-0.114417
2780.18	-0.0175853
2781.52	-0.437572
2782.85	0.319842
2784.18	-0.0424147
2785.51	-0.131899
2786.84	-0.163805
2788.17	0.0481181
2789.51	0.48944
2790.84	-0.0985084
2792.17	0.115306
2793.5	0.343721
2794.83	0.314818
2796.16	0.257041
2797.48	-0.0440221
2798.81	0.411368
2800.14	0.366474
2801.47	0.192987
2802.8	0.0480103
2804.13	0.102452
2805.46	0.227646
2806.79	0.45176
2808.11	0.290966
2809.44	-0.0689321
2810.77	0.0829849
2812.09	-0.275635
2813.42	0.161415
2814.75	0.34418
2816.07	0.145461
2817.4	0.443882
2818.73	0.147532
2820.05	0.233872
2821.38	0.206417
2822.7	0.490116
2824.03	0.234756
2825.35	0.0500255
2826.67	0.233613
2828	0.587493
2829.32	0.375538
2830.65	0.164048
2831.97	0.0518532
2833.29	0.647357
2834.62	0.619718
2835.94	0.506711
2837.26	0.775273
2838.58	0.505774
2839.9	1.01402
2841.23	1.12624
2842.55	1.26709
2843.87	1.73358
2845.19	1.77675
2846.51	1.43897
2847.83	1.82231
2849.15	1.76755
2850.47	2.13651
2851.79	2.03854
2853.11	1.77048
2854.43	2.18038
2855.75	2.09548
2857.07	2.09534
2858.39	1.88339
2859.71	2.20813
2861.02	2.36315
2862.34	2.23545
2863.66	2.70022
2864.98	2.60008
2866.3	2.3448
2867.61	2.48478
2868.93	2.61103
2870.25	2.31471
2871.56	2.76569
2872.88	2.73707
2874.19	2.63729
2875.51	2.64922
2876.83	3.43442
2878.14	3.65517
2879.46	2.8769
2880.77	3.02746
2882.09	3.51586
2883.4	3.28869
2884.71	3.3013
2886.03	3.06182
2887.34	3.28563
2888.65	3.14408
2889.97	3.29641
2891.28	3.11127
2892.59	3.43022
2893.91	3.39852
2895.22	3.63325
2896.53	3.37872
2897.84	3.4892
2899.15	3.75454
2900.46	3.83873
2901.78	3.68556
2903.09	4.09212
2904.4	4.14909
2905.71	3.87065
2907.02	3.99839
2908.33	3.97307
2909.64	4.49423
2910.95	4.41439
2912.26	4.32049
2913.57	4.77177
2914.87	4.26966
2916.18	4.52184
2917.49	4.6884
2918.8	5.17566
2920.11	4.66944
2921.42	5.47848
2922.72	4.91847
2924.03	5.29652
2925.34	5.06064
2926.64	5.25868
2927.95	5.55463
2929.26	4.75975
2930.56	5.79568
2931.87	5.7127
2933.17	5.41979
2934.48	5.67199
2935.78	5.51896
2937.09	5.8133
2938.39	5.92612
2939.7	5.32655
2941	5.49606
2942.31	5.45682
2943.61	5.39083
2944.91	4.61318
2946.22	5.10885
2947.52	5.1018
2948.82	4.95449
2950.13	4.41389
2951.43	4.65546
2952.73	4.46109
2954.03	4.51737
2955.33	4.27929
2956.64	4.26608
2957.94	3.86294
2959.24	3.82626
2960.54	4.22645
2961.84	3.67584
2963.14	3.86869
2964.44	3.38732
2965.74	3.47997
2967.04	3.4587
2968.34	3.60485
2969.64	3.6519
2970.94	3.07997
2972.24	3.2818
2973.53	2.41451
2974.83	2.71507
2976.13	2.6491
2977.43	2.31437
2978.73	2.62575
2980.02	2.30197
2981.32	2.27267
2982.62	2.20067
2983.91	2.07278
2985.21	1.66488
2986.51	1.91892
2987.8	1.92127
2989.1	1.23592
2990.4	1.61878
2991.69	1.55147
2992.99	1.70805
2994.28	1.45593
2995.57	1.0484
2996.87	1.35654
2998.16	1.48176
2999.46	1.20029
3000.75	0.695164
3002.05	1.24213
3003.34	0.780204
3004.63	0.766883
3005.92	0.921346
3007.22	0.781151
3008.51	0.850164
3009.8	0.317029
3011.09	0.538434
3012.39	0.800983
3013.68	0.686437
3014.97	0.516659
3016.26	0.291992
3017.55	0.471972
3018.84	0.554771
3020.13	0.623605
3021.42	0.27496
3022.71	0.314874
3024	0.353828
3025.29	0.350412
3026.58	0.429879
3027.87	-0.0438781
3029.16	0.3413
3030.45	-0.129398
3031.73	0.520253
3033.02	0.25916
3034.31	0.260695
3035.6	0.123763
3036.89	0.275311
3038.17	0.42501
3039.46	0.0772805
3040.75	0.031312
3042.03	0.149343
3043.32	-0.157898
3044.61	-0.340426
3045.89	-0.0152979
3047.18	0.010509
3048.46	0.188462
3049.75	0.177032
3051.03	0.303435
3052.32	-0.0470748
3053.6	-0.015521
3054.89	0.165498
3056.17	0.113631
3057.45	-0.00733805
3058.74	0.18445
3060.02	0.280436
3061.31	0.335786
3062.59	0.487126
3063.87	0.490019
3065.15	0.263183
3066.44	-0.0575738
3067.72	0.207112
3069	0.200197
3070.28	0.138597
3071.56	0.116999
3072.84	0.0399032
3074.13	0.0296946
3075.41	-0.348205
3076.69	0.210984
3077.97	-0.139461
3079.25	-0.135943
3080.53	0.0180392
3081.81	-0.0301585
3083.09	0.207598
3084.37	0.10677
3085.64	-0.184086
3086.92	0.176062
3088.2	0.00621748
3089.48	0.175038
3090.76	0.00412464
3092.04	-0.112619
3093.31	0.123433
3094.59	-0.00652933
3095.87	0.256954
3097.14	0.140808
3098.42	-0.260011
3099.7	-0.132358
3100.97	0.157666
3102.25	-0.148315
3103.53	0.128229
3104.8	0.134347
3106.08	-0.0348482
3107.35	0.0403447
3108.63	-0.113652
3109.9	0.0174584
3111.18	0.190082
3112.45	-0.151252
3113.73	-0.153759
3115	0.196142
3116.27	0.301722
3117.55	0.067421
3118.82	0.103339
3120.09	0.260265
3121.37	0.294204
3122.64	-0.0248189
3123.91	-0.167691
3125.18	0.0146232
3126.45	0.1836
3127.73	0.0687933
3129	0.387271
3130.27	0.259638
3131.54	0.226737
3132.81	0.126115
3134.08	0.160248
3135.35	0.153329
3136.62	0.159335
3137.89	-0.131762
3139.16	0.2642
3140.43	0.242072
3141.7	0.0317068
3142.97	0.0637598
3144.24	0.163257
3145.51	0.28991
3146.78	0.0415969
3148.04	0.584542
3149.31	0.123148
