200.423	1.06646
202.238	1.08286
204.052	1.10052
205.868	0.85158
207.682	0.360009
209.495	0.621743
211.308	0.663653
213.12	0.534417
214.935	0.549908
216.746	0.370917
218.558	0.555515
220.369	0.44996
222.18	0.055088
223.992	0.241687
225.802	0.96027
227.612	0.228927
229.421	-0.236517
231.23	0.046174
233.039	0.30419
234.849	-0.112885
236.657	-0.191154
238.465	-0.0748472
240.272	0.139983
242.079	-0.0289288
243.885	0.020298
245.691	0.81772
247.497	0.0209465
249.305	0.211538
251.11	-0.276636
252.915	0.0536938
254.719	-0.220865
256.523	-0.109776
258.327	0.50794
260.13	0.0666199
261.933	0.205272
263.736	-0.0641708
265.538	0.871997
267.34	0.652059
269.141	0.33533
270.943	0.13832
272.744	0.615373
274.544	0.343757
276.344	0.263607
278.144	0.760216
279.944	-0.142379
281.743	-0.323572
283.542	0.0470715
285.34	0.079443
287.138	0.111054
288.936	0.118597
290.733	-0.0169802
292.53	-0.462393
294.327	0.648913
296.123	-0.00891399
297.919	-0.019949
299.715	0.399526
301.508	0.0781517
303.303	-0.219821
305.098	-0.017415
306.892	0.136269
308.686	0.0511799
310.479	-0.128671
312.273	0.00223827
314.065	-0.246529
315.858	-0.231786
317.648	0.522711
319.44	0.278416
321.231	0.320974
323.022	0.221196
324.813	0.909128
326.604	0.69072
328.392	-0.26884
330.181	0.323793
331.971	0.198512
333.76	0.454467
335.548	0.134349
337.335	-0.211723
339.123	-0.0092001
340.91	0.167945
342.698	0.00955868
344.483	0.281322
346.269	0.314449
348.055	0.0616331
349.841	0.191348
351.625	0.846126
353.41	0.593375
355.195	0.101295
356.977	0.0853262
358.762	0.75931
360.545	0.145435
362.329	0.388289
364.11	0.558758
365.893	0.371943
367.675	0.232235
369.455	-0.00280571
371.237	0.0935087
373.017	-0.0239372
374.798	0.189412
376.578	0.378712
378.357	0.426567
380.137	0.333787
381.917	0.359894
383.694	0.293011
385.473	-0.17228
387.249	-0.0721474
389.028	0.498686
390.806	0.201131
392.581	0.256632
394.359	-0.415318
396.134	-0.0771379
397.91	0.0263109
399.684	-0.152228
401.46	0.443982
403.234	0.335008
405.009	-0.314765
406.784	-0.166599
408.557	0.0749121
410.331	0.222158
412.103	-0.405092
413.876	0.399567
415.647	-0.343915
417.42	0.0864964
419.191	0.21245
420.961	0.315199
422.733	-0.0986366
424.502	-0.207955
426.273	0.268888
428.042	0.134626
429.812	0.0938673
431.58	-0.181627
433.35	-0.0109072
435.118	0.324378
436.885	0.260677
438.653	0.337221
440.42	0.271715
442.188	0.0872469
443.954	0.0886574
445.719	0.510137
447.486	0.438338
449.251	0.600082
451.015	0.270988
452.781	0.409623
454.545	0.151719
456.308	-0.0358572
458.073	-0.130104
459.836	0.0318203
461.598	0.240574
463.362	0.706057
465.124	0.0580349
466.885	-0.0297394
468.648	0.0242043
470.408	0.0332966
472.169	0.182568
473.929	-0.27393
475.69	0.199389
477.45	0.344969
479.208	0.535535
480.967	0.445668
482.727	0.705284
484.485	0.406952
486.243	-0.425605
488	0.304564
489.759	0.104428
491.515	0.745242
493.272	1.01396
495.028	0.605178
496.783	0.523288
498.54	0.253571
500.295	-0.25154
502.05	0.43895
503.804	-0.162074
505.558	0.19877
507.311	0.135596
509.064	0.165174
510.819	0.381659
512.572	0.290927
514.324	0.881266
516.076	0.458632
517.827	0.552545
519.578	0.833564
521.329	0.126808
523.08	0.383192
524.83	0.615652
526.58	0.402131
528.329	0.587461
530.08	-0.0242615
531.829	0.32464
533.578	0.251134
535.326	0.293694
537.074	0.755651
538.821	0.00147724
540.568	0.204057
542.315	0.894635
544.062	0.443248
545.808	-0.0767813
547.554	0.727485
549.299	0.231912
551.044	0.270255
552.789	-0.084547
554.533	0.300989
556.278	0.178138
558.019	0.88605
559.763	0.694553
561.506	0.411834
563.249	0.544126
564.991	0.400925
566.733	0.212548
568.475	0.599036
570.217	-0.643225
571.958	-0.598818
573.699	0.0432482
575.439	-0.0473299
577.177	0.276489
578.917	0.119601
580.656	0.307752
582.396	0.0596027
584.134	0.0406866
585.873	0.296901
587.609	0.529202
589.347	-0.343801
591.084	0.116759
592.822	-0.13635
594.558	-0.0904884
596.295	0.116452
598.029	0.208344
599.765	0.207918
601.5	0.0457869
603.235	-0.347298
604.968	0.247252
606.703	-0.124893
608.437	-0.0150557
610.171	-0.0202246
611.902	0.548452
613.635	0.154295
615.368	0.0819149
617.099	0.353424
618.831	0.601408
620.563	0.413328
622.294	-0.164495
624.024	0.0121279
625.755	0.462598
627.485	-0.296616
629.213	-0.14069
630.943	-0.1655
632.673	0.244925
634.4	0.199912
636.129	0.200315
637.855	0.769996
639.584	0.241737
641.312	0.441289
643.037	0.364986
644.764	0.0827961
646.491	0.210803
648.216	0.544735
649.942	0.131148
651.666	0.675234
653.392	-0.0727043
655.115	-0.0453587
656.84	-0.0160828
658.563	0.173612
660.287	-0.229852
662.011	0.552252
663.732	0.762268
665.456	0.353094
667.177	0.0334949
668.899	0.42213
670.62	0.216673
672.342	0.218654
674.061	0.360051
675.781	0.0909061
677.502	-0.0400295
679.22	0.288254
680.941	0.547434
682.659	0.529455
684.379	0.900967
686.096	1.06378
687.815	0.787624
689.532	0.556498
691.248	0.693274
692.966	0.460958
694.682	0.82688
696.4	0.846417
698.115	0.312419
699.829	0.399063
701.546	0.507644
703.26	0.730216
704.974	1.29638
706.689	0.874388
708.402	0.957186
710.115	0.764559
711.83	0.297207
713.542	1.20282
715.254	1.35249
716.967	0.383074
718.679	0.647304
720.39	1.11634
722.102	1.19759
723.812	0.93746
725.522	1.10961
727.232	1.62192
728.943	1.13444
730.652	0.692831
732.361	1.13504
734.069	0.942676
735.779	0.931548
737.487	0.965923
739.194	1.0685
740.901	0.427859
742.608	1.18578
744.316	1.42613
746.022	0.474827
747.728	1.07764
749.433	0.804109
751.138	0.734149
752.843	1.11514
754.549	1.29494
756.254	0.891006
757.957	1.11849
759.661	1.61783
761.364	1.53268
763.067	1.40277
764.769	1.36276
766.471	1.57027
768.175	0.985209
769.877	1.37018
771.578	1.7535
773.279	1.70589
774.98	1.3639
776.68	1.65547
778.38	1.49595
780.079	1.56388
781.779	1.7686
783.478	1.09099
785.176	1.67974
786.875	1.02156
788.573	1.51514
790.27	2.05069
791.968	1.76937
793.665	1.80317
795.361	1.7464
797.058	1.75812
798.754	1.34337
800.45	1.47092
802.145	1.3521
803.84	2.02111
805.535	1.34065
807.23	1.46902
808.922	1.32676
810.616	2.014
812.309	1.75758
814.002	2.1284
815.695	1.46857
817.388	1.57032
819.08	1.40377
820.772	2.0192
822.464	1.4737
824.153	1.57632
825.844	1.88054
827.535	1.56267
829.225	1.91545
830.915	1.64729
832.605	1.87164
834.292	1.5631
835.981	1.81273
837.67	1.12517
839.359	1.61935
841.047	1.64349
842.732	1.39836
844.42	0.951565
846.107	1.15328
847.794	1.46837
849.479	1.5621
851.165	2.08357
852.851	1.0836
854.534	1.24914
856.22	0.920752
857.905	1.46767
859.589	1.7441
861.272	1.23124
862.956	1.50488
864.639	1.3945
866.321	1.12543
868.004	1.21644
869.687	1.39732
871.367	0.83358
873.049	1.1268
874.731	1.44259
876.41	0.742955
878.092	1.23935
879.771	0.878014
881.451	1.5096
883.131	0.921551
884.809	0.738969
886.489	0.893847
888.166	1.20529
889.845	0.658187
891.522	0.92182
893.2	1.16146
894.878	1.66972
896.554	1.05213
898.231	1.24333
899.906	1.29874
901.583	0.793182
903.258	1.04922
904.934	0.522219
906.608	1.38062
908.283	0.922086
909.956	0.843923
911.631	0.788895
913.304	0.490086
914.976	0.813846
916.65	1.1814
918.322	1.32659
919.995	0.918045
921.666	1.04163
923.339	0.989088
925.009	1.0926
926.679	0.998837
928.351	1.03898
930.021	1.08016
931.692	0.967456
933.361	1.00944
935.029	1.07362
936.699	0.498526
938.367	0.674028
940.035	0.585832
941.704	0.741245
943.371	0.742867
945.038	0.634031
946.706	0.656704
948.372	0.964865
950.038	1.11687
951.705	1.24567
953.37	0.624526
955.035	0.644381
956.7	1.08541
958.366	0.691085
960.03	0.982911
961.693	0.613789
963.357	1.10614
965.021	1.42079
966.684	0.936904
968.346	1.1585
970.008	0.935799
971.67	1.19901
973.334	1.2192
974.995	0.931015
976.655	0.754901
978.316	0.402986
979.976	0.339087
981.638	0.274866
983.297	0.408821
984.957	1.29392
986.616	0.871182
988.274	1.0224
989.932	0.398459
991.59	0.503953
993.248	0.498734
994.907	0.537729
996.565	0.223785
998.221	0.836241
999.878	0.874851
1001.53	1.15532
1003.19	0.488754
1004.85	0.196691
1006.5	0.783951
1008.16	0.931264
1009.81	0.837245
1011.46	0.54634
1013.12	0.584914
1014.77	0.470435
1016.43	0.947473
1018.08	1.13999
1019.73	0.326936
1021.38	0.236826
1023.04	0.71594
1024.69	1.10823
1026.34	1.21685
1027.99	1.10698
1029.64	0.952907
1031.29	1.47491
1032.94	1.64582
1034.59	2.18595
1036.24	2.02637
1037.89	3.15153
1039.54	3.49114
1041.19	3.11311
1042.84	5.10631
1044.48	4.49217
1046.13	4.66269
1047.78	5.18285
1049.42	3.90239
1051.07	4.3608
1052.72	2.47402
1054.36	2.95534
1056.01	2.24147
1057.66	1.0705
1059.3	1.48587
1060.94	0.922273
1062.59	1.7496
1064.23	1.07576
1065.88	0.575094
1067.52	0.943086
1069.16	0.52788
1070.81	-0.278434
1072.45	0.457013
1074.09	1.14881
1075.73	0.582901
1077.38	-0.0683908
1079.02	0.582539
1080.66	-0.327251
1082.3	0.432673
1083.94	0.47631
1085.58	-0.0883045
1087.22	0.0826101
1088.86	0.619847
1090.5	0.787043
1092.13	0.607073
1093.77	0.232643
1095.41	-0.270412
1097.05	-0.0174799
1098.68	0.386855
1100.32	0.576755
1101.96	0.337654
1103.6	0.444334
1105.23	0.293925
1106.87	-0.0710592
1108.5	0.445527
1110.14	1.17607
1111.77	0.744223
1113.41	0.590652
1115.04	0.586482
1116.67	0.302925
1118.31	0.577203
1119.94	0.144667
1121.58	0.976735
1123.21	0.909969
1124.84	0.352008
1126.47	0.843159
1128.1	1.16364
1129.73	-0.290012
1131.37	0.0743427
1133	0.182333
1134.63	0.482591
1136.26	0.525795
1137.89	0.696331
1139.52	0.588086
1141.14	0.137488
1142.77	0.433764
1144.4	0.537873
1146.03	0.940887
1147.66	0.257535
1149.29	0.448811
1150.91	0.235684
1152.54	0.0865536
1154.17	0.299147
1155.79	0.383591
1157.42	-0.0853062
1159.04	0.488551
1160.67	0.616229
1162.3	-0.0844498
1163.92	0.172511
1165.55	-0.144194
1167.17	0.516956
1168.79	0.22049
1170.42	0.47541
1172.04	-0.269927
1173.66	0.491618
1175.28	0.0418043
1176.91	-0.322958
1178.53	-0.030364
1180.15	0.24115
1181.77	0.174535
1183.39	0.319945
1185.01	0.465229
1186.63	-0.045001
1188.25	0.0139389
1189.87	-0.518923
1191.49	0.274308
1193.11	0.0130796
1194.73	-0.122113
1196.35	0.183356
1197.97	0.0908737
1199.59	0.0208693
1201.2	0.224436
1202.82	0.367127
1204.44	0.282168
1206.05	-0.155723
1207.67	-0.11261
1209.29	0.0767384
1210.9	0.515696
1212.52	-0.00599289
1214.13	0.825524
1215.75	0.4464
1217.36	0.503291
1218.97	0.64234
1220.59	0.448826
1222.2	0.339188
1223.82	0.0442467
1225.43	0.372084
1227.04	1.42494
1228.65	-0.0661182
1230.26	0.512588
1231.88	0.864529
1233.49	0.0392551
1235.1	0.765123
1236.71	0.933951
1238.32	1.10368
1239.93	1.60491
1241.54	1.1758
1243.15	0.746198
1244.76	1.39177
1246.37	1.08471
1247.97	0.56986
1249.58	1.0269
1251.19	0.656048
1252.8	0.988738
1254.41	0.494608
1256.01	0.683913
1257.62	0.708742
1259.23	0.775895
1260.83	1.19571
1262.44	1.26421
1264.04	1.22921
1265.65	0.447822
1267.25	1.55165
1268.86	1.05878
1270.46	0.855183
1272.07	1.12758
1273.67	0.79784
1275.27	1.37941
1276.88	1.23462
1278.48	1.2135
1280.08	1.46103
1281.68	1.33553
1283.28	1.39641
1284.89	1.06477
1286.49	1.00285
1288.09	1.29318
1289.69	1.25353
1291.29	0.925043
1292.89	0.9478
1294.49	1.42443
1296.09	1.19757
1297.69	2.08424
1299.29	0.884735
1300.88	0.881297
1302.48	1.5154
1304.08	1.40666
1305.68	1.54422
1307.27	1.02382
1308.87	1.50954
1310.47	0.949026
1312.06	1.29077
1313.66	1.1825
1315.25	1.03439
1316.85	0.928142
1318.44	0.924532
1320.04	1.41012
1321.63	1.50715
1323.23	1.25674
1324.82	1.24929
1326.41	0.97677
1328.01	0.86665
1329.6	0.676246
1331.19	0.629093
1332.78	1.77591
1334.38	1.95364
1335.97	1.97121
1337.56	1.10186
1339.15	1.54315
1340.74	1.57958
1342.33	1.37261
1343.92	1.46588
1345.51	0.714745
1347.1	1.14853
1348.69	1.32232
1350.28	0.637282
1351.87	1.01532
1353.46	1.13478
1355.04	1.29523
1356.63	1.27609
1358.22	1.1767
1359.81	0.797015
1361.39	0.975638
1362.98	1.05363
1364.57	0.772368
1366.15	0.651015
1367.74	0.550327
1369.32	0.470577
1370.91	0.551185
1372.49	1.22979
1374.07	1.31231
1375.66	1.23623
1377.24	0.423974
1378.83	0.825136
1380.41	0.0316215
1381.99	0.808905
1383.57	1.44548
1385.16	1.34522
1386.74	1.00623
1388.32	1.1244
1389.9	0.945269
1391.48	0.568578
1393.06	0.549819
1394.64	1.32472
1396.22	0.671433
1397.8	0.810853
1399.38	0.35491
1400.96	1.08693
1402.54	1.16447
1404.12	0.984696
1405.7	1.02303
1407.28	0.567913
1408.85	0.291643
1410.43	0.885055
1412.01	0.727717
1413.58	0.412094
1415.16	1.08256
1416.74	1.19948
1418.31	0.882306
1419.89	0.940008
1421.46	1.19542
1423.04	0.428354
1424.61	1.69015
1426.19	0.866613
1427.76	1.51971
1429.33	1.32625
1430.91	0.856486
1432.48	1.9208
1434.05	1.33123
1435.63	1.48893
1437.2	1.62703
1438.77	1.07771
1440.34	1.59071
1441.91	1.86862
1443.49	1.5772
1445.05	2.13124
1446.63	1.70272
1448.2	1.47084
1449.77	1.49472
1451.34	1.46
1452.91	1.77973
1454.47	1.8442
1456.04	1.67256
1457.61	1.34287
1459.18	1.52375
1460.75	1.48668
1462.31	1.42834
1463.88	1.34897
1465.45	1.20977
1467.01	1.5222
1468.58	1.32411
1470.15	1.44094
1471.71	0.656233
1473.28	1.12805
1474.84	0.855159
1476.41	0.52387
1477.97	0.839704
1479.54	1.21421
1481.1	0.902546
1482.66	1.00242
1484.23	0.475162
1485.79	0.790176
1487.35	0.849827
1488.91	0.555975
1490.48	0.417477
1492.04	0.922645
1493.6	1.15166
1495.16	0.578754
1496.72	0.668813
1498.28	0.485996
1499.84	1.06204
1501.4	0.686355
1502.96	0.894247
1504.52	0.501842
1506.08	0.710467
1507.64	1.0149
1509.2	1.12466
1510.76	0.808664
1512.31	0.222897
1513.87	0.177226
1515.43	0.208668
1516.99	0.24049
1518.54	0.0427036
1520.1	0.612042
1521.66	0.9507
1523.21	0.581147
1524.77	0.498177
1526.32	0.567129
1527.88	1.13023
1529.43	0.702509
1530.99	0.522812
1532.54	0.306075
1534.09	0.696585
1535.65	-0.199224
1537.2	-0.0531421
1538.75	0.319656
1540.31	0.710864
1541.86	0.536244
1543.41	0.964128
1544.96	0.544926
1546.51	0.764994
1548.06	0.233948
1549.62	0.359984
1551.17	0.748047
1552.72	0.68679
1554.27	0.757216
1555.82	0.212321
1557.36	0.696087
1558.91	0.415948
1560.46	0.622482
1562.01	0.625046
1563.56	0.441942
1565.11	0.4645
1566.66	0.225886
1568.2	0.770917
1569.75	0.849114
1571.3	0.927007
1572.84	0.537985
1574.39	0.708857
1575.93	0.749067
1577.48	1.27481
1579.02	1.24087
1580.57	0.927342
1582.11	0.296844
1583.66	0.862284
1585.2	0.849344
1586.75	0.724613
1588.29	1.0675
1589.83	0.980128
1591.38	1.21055
1592.92	0.935167
1594.46	1.37112
1596	0.926768
1597.54	0.613644
1599.09	1.01329
1600.63	1.28255
1602.17	0.989405
1603.71	1.27808
1605.25	1.6792
1606.79	0.970675
1608.33	0.485793
1609.87	0.750908
1611.41	0.48802
1612.95	0.787209
1614.48	1.16009
1616.02	0.44429
1617.56	0.573215
1619.1	1.0401
1620.64	0.908504
1622.17	0.890426
1623.71	1.07896
1625.25	1.32364
1626.78	1.36174
1628.32	0.332344
1629.86	0.723917
1631.39	1.17032
1632.92	1.03683
1634.46	0.754386
1635.99	0.79005
1637.53	1.2367
1639.06	1.27339
1640.59	0.620519
1642.13	1.23448
1643.66	1.38148
1645.19	1.67616
1646.73	1.37459
1648.26	1.81644
1649.79	1.2367
1651.32	1.90184
1652.85	1.1948
1654.38	1.13823
1655.92	1.45293
1657.45	1.67473
1658.98	1.24748
1660.51	1.02318
1662.04	1.14946
1663.57	1.38553
1665.09	1.45449
1666.62	1.32061
1668.15	0.800514
1669.68	1.14855
1671.21	1.23953
1672.73	1.53398
1674.26	0.944744
1675.79	1.11047
1677.31	0.815342
1678.84	2.21201
1680.37	1.58387
1681.89	0.919051
1683.42	0.824021
1684.94	0.784214
1686.47	0.873095
1687.99	1.10886
1689.52	0.410431
1691.04	0.848107
1692.57	0.187382
1694.09	1.19177
1695.61	0.750731
1697.14	0.620568
1698.66	0.928551
1700.18	0.414551
1701.7	0.593843
1703.22	0.6813
1704.75	0.258279
1706.27	0.617976
1707.79	0.249645
1709.31	0.699241
1710.83	0.40405
1712.35	0.163897
1713.87	0.0692048
1715.39	0.191945
1716.91	0.223998
1718.43	-0.0152092
1719.95	-0.0373764
1721.46	0.788622
1722.98	0.441873
1724.5	0.204515
1726.02	-0.0495725
1727.53	0.147572
1729.05	0.399325
1730.57	0.0402164
1732.08	0.200765
1733.6	-0.0801406
1735.12	0.444427
1736.63	0.12571
1738.15	0.95923
1739.66	-0.442571
1741.18	-0.396861
1742.69	0.082253
1744.21	-0.123582
1745.72	0.124942
1747.23	0.217141
1748.74	0.318897
1750.26	-0.128953
1751.77	0.0919437
1753.28	0.11801
1754.8	-0.216922
1756.31	0.0918169
1757.82	0.1688
1759.33	0.253328
1760.84	-0.0671949
1762.35	0.233847
1763.86	-0.0565896
1765.37	0.357644
1766.88	0.292009
1768.39	0.19986
1769.9	-0.0520101
1771.41	0.156425
1772.92	0.256017
1774.43	0.0900936
1775.93	0.0530949
1777.44	-0.0394249
1778.95	-0.0838428
1780.46	0.0674448
1781.96	-0.277998
1783.47	0.0052104
1784.98	-0.0246563
1786.48	0.00105715
1787.99	0.305403
1789.49	0.263399
1791	0.0208564
1792.5	0.29538
1794.01	-0.0174165
1795.51	0.111389
1797.02	0.132371
1798.52	0.0742044
1800.03	0.10822
1801.53	0.0449848
1803.03	0.158072
1804.53	0.0651679
1806.04	-0.0136895
1807.54	0.230994
1809.04	0.164293
1810.54	-0.176713
1812.04	-0.26451
1813.54	0.177764
1815.05	0.11678
1816.55	-0.159544
1818.05	0.0747194
1819.55	-0.134811
1821.05	0.00607252
1822.55	0.257674
1824.05	0.0837331
1825.54	0.158939
1827.04	0.0454764
1828.54	0.150712
1830.04	0.0198526
1831.54	0.0846448
1833.03	0.136127
1834.53	0.177048
1836.03	0.350133
1837.52	0.210253
1839.02	0.168743
1840.52	-0.18606
1842.01	0.0271239
1843.51	0.0825
1845	-0.176658
1846.5	0.138381
1847.99	0.0486832
1849.49	-0.0750713
1850.98	-0.046555
1852.47	0.379676
1853.97	0.265193
1855.46	-0.00470352
1856.95	0.157801
1858.45	0.0802679
1859.94	-0.156552
1861.43	0.380663
1862.92	0.167086
1864.41	0.154264
1865.91	0.121357
1867.4	0.284585
1868.89	0.459983
1870.38	-0.137584
1871.87	-0.0254774
1873.36	-0.161245
1874.85	0.0455956
1876.34	-0.0417166
1877.83	0.216871
1879.31	0.193486
1880.8	0.0321174
1882.29	0.185546
1882.56	0.225269
1884.05	0.102105
1885.54	0.274636
1887.04	0.219884
1888.53	-0.218174
1890.03	-0.238042
1891.52	0.0732965
1893.01	0.490033
1894.5	-0.0132675
1895.99	0.0931826
1897.49	0.0264111
1898.98	-0.0404892
1900.47	-0.264785
1901.96	0.0663414
1903.45	0.100307
1904.94	0.133103
1906.43	0.0436287
1907.92	-0.132589
1909.41	-0.186659
1910.9	0.367325
1912.39	0.141117
1913.88	0.0542054
1915.37	0.0367565
1916.86	0.105732
1918.35	-0.137727
1919.84	0.121084
1921.32	0.10253
1922.81	-0.0368857
1924.3	0.0148973
1925.78	0.257992
1927.27	0.553893
1928.76	0.192433
1930.24	0.0213308
1931.73	0.247855
1933.21	0.248085
1934.7	0.0564704
1936.18	0.140504
1937.67	0.137052
1939.15	0.0122981
1940.64	-0.215643
1942.12	-0.132027
1943.6	-0.0304279
1945.09	0.0890107
1946.57	-0.101632
1948.05	-0.120008
1949.54	0.0849905
1951.02	0.047967
1952.5	0.0790849
1953.98	0.23008
1955.46	-0.203414
1956.94	0.222578
1958.42	-0.140858
1959.91	0.114206
1961.39	0.112269
1962.87	-0.112328
1964.34	-0.0970254
1965.82	0.0377398
1967.3	0.0520182
1968.78	0.151284
1970.26	-0.0406218
1971.74	0.00666475
1973.22	0.0709047
1974.7	0.0498576
1976.17	0.199419
1977.65	0.502209
1979.13	0.0898027
1980.6	0.137178
1982.08	-0.206603
1983.56	-0.159456
1985.03	-0.384202
1986.51	0.171361
1987.98	0.285437
1989.46	0.0270638
1990.93	-0.0104156
1992.41	-0.0471067
1993.88	0.305849
1995.36	0.23671
1996.83	0.438266
1998.3	-0.120308
1999.78	0.0302091
2001.25	0.163251
2002.72	0.143982
2004.2	0.0740538
2005.67	0.324615
2007.14	0.0365977
2008.61	0.45674
2010.08	0.10298
2011.55	0.439913
2013.02	-0.0815916
2014.49	-0.132081
2015.97	0.254279
2017.43	-0.13396
2018.9	-0.0686374
2020.37	0.281837
2021.84	-0.123851
2023.31	0.0586081
2024.78	0.0569763
2026.25	0.173702
2027.72	0.308316
2029.19	-0.0590425
2030.65	0.128154
2032.12	0.0309343
2033.59	0.152256
2035.05	0.357617
2036.52	0.428415
2037.98	0.34758
2039.45	0.434459
2040.92	0.151504
2042.38	0.0536938
2043.85	-0.0940428
2045.31	0.0953622
2046.78	-0.0511851
2048.24	0.49301
2049.71	0.127389
2051.17	0.232725
2052.63	0.0501766
2054.1	-0.116982
2055.56	0.439634
2057.02	0.0508585
2058.48	0.217813
2059.95	0.3003
2061.41	0.366225
2062.87	0.399117
2064.33	0.146717
2065.79	0.33272
2067.25	0.0986667
2068.71	0.285822
2070.17	0.23761
2071.63	0.492468
2073.09	0.1748
2074.55	0.345191
2076.01	0.111173
2077.47	0.230501
2078.93	0.164272
2080.39	0.131366
2081.85	0.434752
2083.3	0.350336
2084.76	0.315849
2086.22	0.51629
2087.68	0.346156
2089.13	0.259877
2090.59	0.543056
2092.05	0.490117
2093.5	0.521051
2094.96	0.417582
2096.41	0.481425
2097.87	0.427406
2099.32	0.607257
2100.78	0.585905
2102.23	0.748588
2103.69	0.56108
2105.14	1.00907
2106.59	0.490237
2108.05	0.606385
2109.5	0.806121
2110.95	0.538528
2112.41	0.903219
2113.86	0.982978
2115.31	0.894856
2116.76	0.689758
2118.21	0.468687
2119.67	0.282253
2121.12	0.711384
2122.57	0.727169
2124.02	0.976308
2125.47	0.728504
2126.92	0.530253
2128.37	0.712496
2129.82	0.910063
2131.27	0.841376
2132.71	0.838313
2134.16	0.620189
2135.61	0.965118
2137.06	1.14573
2138.51	1.21218
2139.95	1.3629
2141.4	0.953074
2142.85	1.50312
2144.29	1.50824
2145.74	1.66243
2147.19	1.36943
2148.63	1.34065
2150.08	1.60929
2151.52	1.38007
2152.97	1.41505
2154.42	1.53215
2155.86	1.30093
2157.3	1.50052
2158.75	1.28662
2160.19	1.60397
2161.64	1.62474
2163.08	1.71351
2164.52	1.72079
2165.96	1.87826
2167.41	1.80325
2168.85	1.97655
2170.29	1.81573
2171.73	1.95231
2173.17	1.68788
2174.61	1.73828
2176.06	1.57196
2177.5	1.82157
2178.94	1.6728
2180.38	1.39191
2181.82	2.1759
2183.26	1.92959
2184.7	1.61692
2186.14	1.96965
2187.57	1.82335
2189.01	1.52725
2190.45	1.64716
2191.89	1.96665
2193.33	1.51962
2194.76	1.55423
2196.2	0.771596
2197.64	1.53518
2199.08	1.46507
2200.51	1.4606
2201.95	1.40621
2203.38	1.30272
2204.82	1.48219
2206.25	0.667997
2207.69	1.21338
2209.12	1.02953
2210.56	0.894843
2211.99	1.18952
2213.43	1.16913
2214.86	1.11562
2216.3	0.683072
2217.73	0.812876
2219.16	0.894106
2220.59	0.547364
2222.03	1.37107
2223.46	0.925023
2224.89	0.972191
2226.32	0.754578
2227.75	0.815417
2229.19	0.990033
2230.62	1.13081
2232.05	0.76312
2233.48	0.445593
2234.91	0.865149
2236.34	0.778461
2237.77	0.676917
2239.2	0.887062
2240.63	0.854061
2242.06	0.643177
2243.48	0.743214
2244.91	0.43576
2246.34	0.470289
2247.77	0.242607
2249.2	0.453523
2250.62	0.662431
2252.05	0.446395
2253.48	0.457742
2254.9	0.404333
2256.33	0.400883
2257.76	0.52913
2259.18	0.400028
2260.61	0.192128
2262.03	0.472956
2263.46	0.381777
2264.88	0.45322
2266.31	0.475667
2267.73	0.237202
2269.16	0.518596
2270.58	0.0181336
2272	-0.124744
2273.43	0.155635
2274.85	0.354756
2276.27	0.505245
2277.69	0.44408
2279.12	0.203602
2280.54	-0.0533538
2281.96	0.407142
2283.38	0.39466
2284.8	0.137428
2286.22	0.59845
2287.64	0.243635
2289.07	0.0359364
2290.49	0.187872
2291.91	0.421883
2293.32	-0.0306973
2294.74	-0.205546
2296.16	0.405092
2297.58	0.0664177
2299	-0.0922966
2300.42	0.486547
2301.84	0.164268
2303.26	0.0223589
2304.67	0.175887
2306.09	0.017467
2307.51	0.28584
2308.92	0.175939
2310.34	0.14772
2311.76	-0.0288672
2313.17	0.189313
2314.59	0.161057
2316	-0.0313234
2317.42	0.238015
2318.83	-0.0360136
2320.25	0.167789
2321.66	0.486423
2323.08	0.424129
2324.49	0.574493
2325.91	0.574477
2327.32	0.441176
2328.73	0.669982
2330.15	0.701045
2331.56	0.354165
2332.97	0.0413632
2334.38	-0.0402575
2335.79	-0.0887618
2337.21	-0.00602055
2338.62	0.0430455
2340.03	-0.270302
2341.44	-0.222715
2342.85	0.0213685
2344.26	0.00271463
2345.67	0.394019
2347.08	0.0971494
2348.49	-0.0192823
2349.9	0.273091
2351.31	-0.0403652
2352.72	-0.158077
2354.13	0.147944
2355.53	-0.0850549
2356.94	0.170641
2358.35	0.181801
2359.76	0.0468168
2361.17	-0.266339
2362.57	0.118293
2363.98	0.2429
2365.39	0.189244
2366.79	0.00656271
2368.2	0.0345964
2369.6	-0.162456
2371.01	-0.454933
2372.42	0.0271955
2373.82	0.123124
2375.22	0.13878
2376.63	0.105854
2378.03	0.281155
2379.44	0.181852
2380.84	-0.0630536
2382.25	0.140439
2383.65	0.0064621
2385.05	0.288506
2386.45	0.170794
2387.86	-0.00978565
2389.26	0.0341182
2390.66	0.047049
2392.06	0.204135
2393.46	-0.210993
2394.87	0.281435
2396.27	0.122193
2397.67	0.0906916
2399.07	0.377429
2400.47	0.0607719
2401.87	0.220966
2403.27	0.317616
2404.67	0.048738
2406.07	0.0174236
2407.47	0.397968
2408.86	0.0480175
2410.26	0.126149
2411.66	-0.160011
2413.06	-0.0335565
2414.46	0.362926
2415.85	0.127206
2417.25	0.177491
2418.65	0.275988
2420.05	-0.0211334
2421.44	-0.223426
2422.84	-0.156718
2424.23	0.226688
2425.63	0.404234
2427.03	0.233571
2428.42	-0.0157666
2429.82	0.0843611
2431.21	-0.0846395
2432.6	0.174923
2434	0.116678
2435.39	-0.00603294
2436.79	0.0448594
2438.18	0.444128
2439.57	-0.317324
2440.97	-0.0944986
2442.36	-0.0627108
2443.75	0.0957808
2445.14	0.190563
2446.54	0.205869
2447.93	0.0625834
2449.32	0.141177
2450.71	-0.0492883
2452.1	0.25145
2453.49	-0.143609
2454.88	0.284796
2456.27	0.349796
2457.66	0.130313
2459.05	0.0530806
2460.44	0.086123
2461.83	0.102723
2463.22	0.245145
2464.61	-0.11856
2466	-0.118967
2467.39	0.354112
2468.77	0.116712
2470.16	0.037076
2471.55	0.225129
2472.94	0.0658731
2474.32	0.0636549
2475.71	0.0609455
2477.1	0.0893912
2478.48	0.0863452
2479.87	0.208963
2481.25	-0.232941
2482.64	-0.0631914
2484.02	0.152889
2485.41	0.430451
2486.8	-0.0433354
2488.18	-0.0019474
2489.56	0.272536
2490.95	0.157114
2492.33	0.322186
2493.72	-0.0246634
2495.1	-0.0130124
2496.48	0.170057
2497.86	0.167641
2499.25	0.0880346
2500.63	-0.0535908
2502.01	0.128952
2503.39	0.156022
2504.77	0.120649
2506.16	0.177319
2507.54	0.0951662
2508.92	0.1824
2510.3	0.0394225
2511.68	0.311452
2513.06	-0.213477
2514.44	0.136122
2515.82	0.240987
2517.2	-0.280844
2518.58	0.390803
2519.95	-0.0536098
2521.33	-0.085403
2522.71	-0.148179
2524.09	-0.28775
2525.47	0.41057
2526.84	0.483227
2528.22	-0.356828
2529.6	0.234427
2530.98	0.00553799
2532.35	0.188334
2533.73	0.11383
2535.11	0.115839
2536.48	0.163377
2537.86	0.392679
2539.23	0.0592089
2540.61	-0.183617
2541.98	-0.0622892
2543.36	0.241236
2544.73	0.0295167
2546.1	-0.0447025
2547.48	-0.0573335
2548.85	0.00651932
2550.23	0.0704231
2551.6	0.255387
2552.97	-0.137039
2554.34	0.107148
2555.72	0.0774889
2557.09	0.168766
2558.46	0.0779376
2559.83	-0.270346
2561.2	-0.0118389
2562.58	0.0652103
2563.95	0.0820694
2565.32	0.265944
2566.69	0.0256906
2568.06	-0.0175004
2569.43	-0.272875
2570.8	0.320502
2572.17	0.322825
2573.54	0.264578
2574.91	0.085115
2576.27	0.102737
2577.64	0.241601
2579.01	-0.0442629
2580.38	0.0335121
2581.75	0.00483418
2583.11	0.203302
2584.48	0.234791
2585.85	0.23592
2587.21	0.161355
2588.58	0.329433
2589.95	0.300564
2591.31	0.104906
2592.68	0.211958
2594.04	0.166864
2595.41	-0.060709
2596.78	0.225763
2598.14	0.193652
2599.51	0.252002
2600.87	0.0988321
2602.23	0.218046
2603.6	0.322567
2604.96	0.0501966
2606.32	-0.191669
2607.69	0.0639901
2609.05	0.0022893
2610.41	0.150613
2611.77	-0.123681
2613.14	0.127895
2614.5	0.288281
2615.86	-0.137065
2617.22	0.0682092
2618.58	0.273547
2619.94	-0.104448
2621.3	0.31116
2622.67	0.0691333
2624.03	0.0665116
2625.39	-0.0704474
2626.75	0.150471
2628.1	0.147304
2629.46	0.188577
2630.82	0.289131
2632.18	-0.0268006
2633.54	0.207329
2634.9	0.0700116
2636.26	-0.185749
2637.61	0.00342655
2638.97	-0.163007
2640.33	-0.047976
2641.69	-0.0511928
2643.04	-0.113293
2644.4	-0.381862
2645.76	0.367785
2647.11	0.305258
2648.47	0.227553
2649.82	0.00219774
2651.18	0.188383
2652.53	0.0949306
2653.89	0.163218
2655.24	-0.00256586
2656.6	-0.152606
2657.95	-0.0527773
2659.31	0.223131
2660.66	-0.0273056
2662.01	-0.0584006
2663.37	-0.250568
2664.72	0.0823703
2666.07	0.0642266
2667.43	-0.0125394
2668.78	0.0709229
2670.13	0.270859
2671.48	-0.0670481
2672.83	-0.113432
2674.18	0.189217
2675.53	0.245236
2676.89	0.330659
2678.24	0.184481
2679.59	0.300025
2680.94	-0.134584
2682.29	-0.263817
2683.64	-0.0877128
2684.99	-0.287968
2686.34	0.150416
2687.68	0.342198
2689.03	0.402493
2690.38	0.0404668
2691.73	0.185153
2693.08	-0.0486164
2694.43	-0.123373
2695.77	-0.227162
2697.12	-0.0117164
2698.47	0.103149
2699.81	0.0309978
2701.16	0.0470266
2702.51	0.00623083
2703.85	0.0965958
2705.2	0.172928
2706.54	0.17684
2707.89	-0.00809097
2709.23	0.387197
2710.58	0.0273347
2711.92	0.320733
2713.27	0.178268
2714.61	-0.0515542
2715.96	-0.0489225
2717.3	0.244489
2718.64	0.334185
2719.99	0.278125
2721.33	0.454547
2722.67	0.19398
2724.01	0.107678
2725.36	0.152043
2726.7	0.370776
2728.04	0.0944047
2729.38	-0.0947838
2730.72	0.29798
2732.06	0.0359354
2733.41	-0.0223274
2734.75	0.0795488
2736.09	-0.036612
2737.43	-0.0508566
2738.77	0.0657659
2740.11	0.182184
2741.44	0.283672
2742.78	-0.0369477
2744.12	0.208855
2745.46	0.439491
2746.8	0.277534
2748.14	0.231687
2749.48	0.113371
2750.81	0.0533123
2752.15	0.0369778
2753.49	0.00633478
2754.83	0.106228
2756.16	0.206161
2757.5	0.0744848
2758.84	-0.172736
2760.17	0.130406
2761.51	0.173332
2762.84	0.0429726
2764.18	-0.0582018
2765.51	0.375944
2766.85	0.0718489
2768.18	-0.146066
2769.52	0.242471
2770.85	0.181555
2772.19	-0.327986
2773.52	-0.0871749
2774.85	0.00866413
2776.19	0.104302
2777.52	0.315184
2778.85	0.0803676
2780.18	-0.0818634
2781.52	-0.0569549
2782.85	-0.29034
2784.18	0.222296
2785.51	0.0606375
2786.84	0.157141
2788.17	-0.146893
2789.51	0.193798
2790.84	-0.0515013
2792.17	0.00419188
2793.5	0.00301218
2794.83	-0.0981855
2796.16	0.171906
2797.48	0.0986161
2798.81	-0.160659
2800.14	-0.148868
2801.47	-0.123023
2802.8	0.0594926
2804.13	0.0848651
2805.46	0.0101786
2806.79	0.00629187
2808.11	0.0588288
2809.44	-0.102201
2810.77	0.276669
2812.09	-0.054081
2813.42	0.141191
2814.75	0.167251
2816.07	0.0809979
2817.4	-0.103611
2818.73	0.165768
2820.05	0.222541
2821.38	0.123065
2822.7	-0.189462
2824.03	0.248569
2825.35	0.133729
2826.67	0.0614605
2828	-0.166133
2829.32	0.58356
2830.65	0.0311527
2831.97	-0.0256076
2833.29	0.370544
2834.62	0.398401
2835.94	0.567389
2837.26	0.226531
2838.58	0.776669
2839.9	0.718262
2841.23	1.16894
2842.55	1.18158
2843.87	1.12409
2845.19	1.30745
2846.51	1.34999
2847.83	1.26563
2849.15	1.06821
2850.47	1.26629
2851.79	1.09649
2853.11	1.59054
2854.43	1.19394
2855.75	1.65914
2857.07	1.65802
2858.39	1.37446
2859.71	1.57112
2861.02	1.66874
2862.34	1.69548
2863.66	1.80659
2864.98	1.55056
2866.3	2.23978
2867.61	1.92757
2868.93	1.74274
2870.25	2.09403
2871.56	2.17752
2872.88	2.30302
2874.19	2.23061
2875.51	2.22781
2876.83	2.13965
2878.14	2.30422
2879.46	2.39807
2880.77	2.43586
2882.09	2.48833
2883.4	2.52758
2884.71	2.5676
2886.03	2.53791
2887.34	2.63458
2888.65	2.15555
2889.97	2.4617
2891.28	2.07989
2892.59	2.39869
2893.91	2.33885
2895.22	2.26536
2896.53	2.57049
2897.84	2.51245
2899.15	2.5252
2900.46	2.6505
2901.78	2.69221
2903.09	2.70611
2904.4	3.01385
2905.71	2.70637
2907.02	3.14068
2908.33	2.93221
2909.64	3.18608
2910.95	3.60845
2912.26	3.00915
2913.57	3.54301
2914.87	3.99181
2916.18	3.69717
2917.49	3.52729
2918.8	3.66452
2920.11	3.77356
2921.42	4.24662
2922.72	3.7979
2924.03	3.96546
2925.34	4.13394
2926.64	3.8696
2927.95	4.54189
2929.26	4.48695
2930.56	4.61328
2931.87	4.48757
2933.17	4.781
2934.48	4.69699
2935.78	4.24974
2937.09	4.50142
2938.39	3.62134
2939.7	4.50221
2941	4.33549
2942.31	4.16947
2943.61	3.82272
2944.91	4.06411
2946.22	3.85908
2947.52	3.89224
2948.82	3.75725
2950.13	4.02726
2951.43	3.80577
2952.73	3.62469
2954.03	3.30249
2955.33	2.92411
2956.64	3.26036
2957.94	3.10833
2959.24	2.97241
2960.54	3.10472
2961.84	2.67807
2963.14	2.65823
2964.44	2.79235
2965.74	2.41981
2967.04	2.84675
2968.34	2.66843
2969.64	2.48942
2970.94	2.08519
2972.24	2.34223
2973.53	2.5856
2974.83	2.01265
2976.13	1.88949
2977.43	1.66678
2978.73	1.97784
2980.02	1.61181
2981.32	1.90638
2982.62	1.60957
2983.91	1.41168
2985.21	1.91747
2986.51	1.44057
2987.8	1.2459
2989.1	1.34707
2990.4	1.44846
2991.69	1.24028
2992.99	0.932953
2994.28	1.0182
2995.57	1.06042
2996.87	0.723
2998.16	0.778651
2999.46	0.680143
3000.75	0.680264
3002.05	0.624753
3003.34	0.401439
3004.63	0.430486
3005.92	0.683381
3007.22	0.249726
3008.51	0.571376
3009.8	0.276783
3011.09	0.373261
3012.39	0.455325
3013.68	0.202462
3014.97	0.382428
3016.26	0.144762
3017.55	0.116778
3018.84	0.22835
3020.13	0.145162
3021.42	-0.105033
3022.71	0.17227
3024	0.143135
3025.29	0.0164557
3026.58	0.111472
3027.87	0.151321
3029.16	-0.0569143
3030.45	-0.0150585
3031.73	0.0830708
3033.02	-0.0803938
3034.31	0.184297
3035.6	0.144907
3036.89	-0.129789
3038.17	-0.0472031
3039.46	0.254051
3040.75	-0.120018
3042.03	0.123874
3043.32	0.0244288
3044.61	0.035398
3045.89	0.143285
3047.18	0.225287
3048.46	0.158789
3049.75	0.24409
3051.03	0.0576439
3052.32	-0.223669
3053.6	0.491108
3054.89	-0.199909
3056.17	0.486094
3057.45	0.611834
3058.74	0.178242
3060.02	-0.0507913
3061.31	0.27865
3062.59	0.282073
3063.87	0.232174
3065.15	0.020339
3066.44	0.0950665
3067.72	-0.0605831
3069	0.0967903
3070.28	0.213221
3071.56	-0.242197
3072.84	0.103936
3074.13	-0.189912
3075.41	-0.0901308
3076.69	0.0229182
3077.97	0.136178
3079.25	-0.00762367
3080.53	-0.0823965
3081.81	-0.156004
3083.09	0.042634
3084.37	-0.00239325
3085.64	0.0611973
3086.92	-0.0519619
3088.2	-0.00274897
3089.48	0.0866866
3090.76	0.0807915
3092.04	0.0205498
3093.31	-0.107347
3094.59	-0.112906
3095.87	0.193607
3097.14	-0.286153
3098.42	0.521807
3099.7	-0.0663261
3100.97	-0.0988002
3102.25	-0.17181
3103.53	0.107448
3104.8	-0.0461555
3106.08	0.179798
3107.35	0.122238
3108.63	0.200815
3109.9	0.117808
3111.18	-0.045723
3112.45	0.0621243
3113.73	0.414311
3115	0.0618496
3116.27	0.102076
3117.55	0.046752
3118.82	0.0449176
3120.09	0.299963
3121.37	-0.0965323
3122.64	0.211555
3123.91	0.00453186
3125.18	0.190499
3126.45	0.0383334
3127.73	0.103193
3129	0.0196505
3130.27	0.274467
3131.54	0.448133
3132.81	-0.0269713
3134.08	0.45701
3135.35	0.346192
3136.62	0.383485
3137.89	0.069869
3139.16	0.389605
3140.43	0.00885296
3141.7	0.207065
3142.97	0.163357
3144.24	0.227516
3145.51	0.385954
3146.78	0.424075
3148.04	0.476075
3149.31	0.608818
