200.423	1.29269
202.238	1.30882
204.052	1.3261
205.868	0.663437
207.682	0.269076
209.495	0.627916
211.308	1.00964
213.12	0.807072
214.935	0.385398
216.746	0.884758
218.558	-0.0697222
220.369	0.623522
222.18	0.0831842
223.992	0.342163
225.802	0.166462
227.612	0.208413
229.421	0.394869
231.23	0.580629
233.039	0.404056
234.849	0.927283
236.657	0.101475
238.465	-0.191745
240.272	0.240498
242.079	0.216985
243.885	0.677252
245.691	0.824188
247.497	-0.406431
249.305	0.412432
251.11	0.0452118
252.915	0.230655
254.719	0.414233
256.523	-0.560092
258.327	-0.0386181
260.13	0.0985374
261.933	0.309744
263.736	0.209394
265.538	0.302836
267.34	-0.109426
269.141	0.225132
270.943	0.00453568
272.744	0.891913
274.544	0.403637
276.344	-0.592317
278.144	-0.0712671
279.944	-0.467762
281.743	0.145255
283.542	-0.013999
285.34	0.0178757
287.138	-0.311086
288.936	0.823195
290.733	-0.104079
292.53	-0.0471792
294.327	0.752638
296.123	0.835814
297.919	0.442064
299.715	-0.0942402
301.508	0.707172
303.303	0.0985641
305.098	-0.176583
306.892	-0.571581
308.686	-0.0605326
310.479	0.0692606
312.273	-0.109555
314.065	1.11817
315.858	0.418849
317.648	0.959594
319.44	0.239611
321.231	0.497411
323.022	0.398565
324.813	-0.201036
326.604	0.368697
328.392	0.222162
330.181	0.361725
331.971	0.691656
333.76	0.589504
335.548	0.150183
337.335	0.258982
339.123	-0.232338
340.91	0.327419
342.698	0.360027
344.483	0.273065
346.269	-0.147736
348.055	1.74856
349.841	1.42432
351.625	0.5036
353.41	0.322498
355.195	-0.050333
356.977	0.458096
358.762	-0.202955
360.545	0.516957
362.329	0.306873
364.11	0.191483
365.893	0.146869
367.675	0.315205
369.455	-0.157835
371.237	0.174631
373.017	0.387393
374.798	-0.298734
376.578	0.244245
378.357	0.244179
380.137	-0.179046
381.917	-0.247358
383.694	1.09689
385.473	0.301591
387.249	0.236713
389.028	0.24346
390.806	0.673929
392.581	0.518002
394.359	0.339252
396.134	0.0199623
397.91	0.475809
399.684	0.555746
401.46	0.235988
403.234	0.620256
405.009	0.886339
406.784	0.376692
408.557	0.101397
410.331	0.224951
412.103	0.0668564
413.876	0.824355
415.647	1.20701
417.42	0.581566
419.191	0.778031
420.961	0.247245
422.733	0.18558
424.502	0.0528202
426.273	0.15397
428.042	0.254313
429.812	-0.209161
431.58	-0.367471
433.35	0.0847311
435.118	-0.284192
436.885	0.520358
438.653	0.338552
440.42	0.812417
442.188	-0.0764399
443.954	0.393206
445.719	0.345057
447.486	0.366011
449.251	0.176003
451.015	0.663959
452.781	0.100935
454.545	-0.0410824
456.308	-0.136263
458.073	0.141191
459.836	0.604435
461.598	-0.327592
463.362	-0.118238
465.124	-0.208912
466.885	0.121307
468.648	-0.382524
470.408	0.161446
472.169	0.101649
473.929	0.320506
475.69	0.165237
477.45	-0.20184
479.208	0.151448
480.967	0.457141
482.727	0.297102
484.485	0.301215
486.243	0.982797
488	0.361867
489.759	0.0920944
491.515	0.219746
493.272	0.324906
495.028	0.477253
496.783	0.653229
498.54	-0.0376387
500.295	0.653411
502.05	0.265386
503.804	0.134275
505.558	0.166436
507.311	0.714689
509.064	1.02667
510.819	0.466596
512.572	0.28132
514.324	0.541675
516.076	0.424224
517.827	1.12877
519.578	0.468319
521.329	0.41863
523.08	0.767746
524.83	0.107018
526.58	0.572998
528.329	0.0537663
530.08	-0.207243
531.829	1.31172
533.578	0.487375
535.326	0.107428
537.074	0.451243
538.821	-0.234179
540.568	0.783164
542.315	1.14516
544.062	0.226349
545.808	1.09892
547.554	0.34499
549.299	1.03035
551.044	0.556599
552.789	-0.0547075
554.533	0.652559
556.278	-0.0725107
558.019	-0.173129
559.763	0.325912
561.506	0.341208
563.249	0.633072
564.991	0.442402
566.733	0.413424
568.475	-0.37235
570.217	0.6106
571.958	0.332424
573.699	0.767063
575.439	0.217031
577.177	0.448611
578.917	0.199585
580.656	0.456371
582.396	0.162052
584.134	0.326759
585.873	-0.0383205
587.609	-0.381774
589.347	0.193843
591.084	0.0554247
592.822	0.468684
594.558	0.260584
596.295	-0.0855103
598.029	-0.477631
599.765	0.487313
601.5	-0.181915
603.235	-0.484075
604.968	0.109257
606.703	0.287236
608.437	-0.615085
610.171	0.617919
611.902	0.634271
613.635	0.261617
615.368	0.577502
617.099	0.137307
618.831	-0.00529861
620.563	-0.217422
622.294	-0.17879
624.024	0.224762
625.755	0.376431
627.485	0.300594
629.213	0.363626
630.943	0.406059
632.673	0.678683
634.4	0.199293
636.129	0.472784
637.855	0.470773
639.584	0.85414
641.312	-0.0202322
643.037	0.631247
644.764	0.255738
646.491	-0.141577
648.216	-0.104681
649.942	0.253096
651.666	-0.0218811
653.392	-0.24793
655.115	0.506906
656.84	0.673267
658.563	-0.139194
660.287	0.278448
662.011	-0.149553
663.732	-0.260336
665.456	1.29556
667.177	0.495105
668.899	1.08871
670.62	0.791017
672.342	0.197532
674.061	0.567497
675.781	0.963034
677.502	0.488752
679.22	0.725662
680.941	0.732226
682.659	0.322946
684.379	0.670766
686.096	0.280065
687.815	1.22352
689.532	0.530696
691.248	0.66634
692.966	-0.0509005
694.682	0.843533
696.4	0.516268
698.115	0.441269
699.829	0.779329
701.546	0.425975
703.26	0.991482
704.974	0.636829
706.689	1.47558
708.402	0.707369
710.115	0.902377
711.83	0.844856
713.542	0.718521
715.254	1.27779
716.967	0.808543
718.679	0.613976
720.39	0.807371
722.102	0.681768
723.812	0.738465
725.522	1.04502
727.232	0.964643
728.943	1.31514
730.652	0.576345
732.361	0.744558
734.069	1.36474
735.779	0.853577
737.487	0.682484
739.194	1.25683
740.901	1.44793
742.608	0.964173
744.316	1.20275
746.022	1.08243
747.728	0.918562
749.433	1.02596
751.138	1.13459
752.843	1.17699
754.549	0.793298
756.254	0.298258
757.957	1.3803
759.661	0.595002
761.364	1.23009
763.067	0.806177
764.769	0.991058
766.471	1.12996
768.175	1.56116
769.877	1.40262
771.578	1.01588
773.279	1.71317
774.98	1.95765
776.68	1.36606
778.38	1.40879
780.079	1.54348
781.779	1.49837
783.478	1.43077
785.176	2.24492
786.875	1.26854
788.573	1.21729
790.27	1.16297
791.968	2.05538
793.665	1.61235
795.361	0.966819
797.058	1.38258
798.754	2.00191
800.45	1.902
802.145	2.1636
803.84	1.3912
805.535	2.21537
807.23	1.7797
808.922	1.65773
810.616	1.93867
812.309	1.5904
814.002	1.62299
815.695	2.23732
817.388	1.82165
819.08	1.31733
820.772	1.48393
822.464	2.07455
824.153	1.43876
825.844	1.94158
827.535	1.2432
829.225	2.32939
830.915	1.28051
832.605	2.28356
834.292	1.06058
835.981	1.73307
837.67	2.00448
839.359	1.04695
841.047	1.33801
842.732	1.9184
844.42	1.02366
846.107	1.35844
847.794	1.40441
849.479	0.938127
851.165	1.68264
852.851	1.3097
854.534	1.31835
856.22	1.21457
857.905	1.67165
859.589	1.38534
861.272	1.45711
862.956	0.919124
864.639	1.52882
866.321	1.43917
868.004	1.14589
869.687	1.10012
871.367	1.4375
873.049	1.66197
874.731	1.29976
876.41	1.00515
878.092	1.34243
879.771	0.641343
881.451	1.31684
883.131	1.13386
884.809	1.01757
886.489	1.03542
888.166	1.05178
889.845	0.998963
891.522	1.05749
893.2	0.303926
894.878	1.14809
896.554	0.640927
898.231	1.48123
899.906	1.66828
901.583	0.845853
903.258	0.852853
904.934	1.26189
906.608	1.15675
908.283	0.584255
909.956	1.10508
911.631	1.04722
913.304	1.16794
914.976	1.06674
916.65	0.921401
918.322	1.41899
919.995	0.764352
921.666	0.399008
923.339	0.388923
925.009	0.932552
926.679	0.660347
928.351	1.14036
930.021	0.937217
931.692	0.800999
933.361	1.63573
935.029	1.14697
936.699	1.03364
938.367	1.05346
940.035	0.787689
941.704	1.03036
943.371	0.876661
945.038	1.49526
946.706	0.920968
948.372	0.786372
950.038	1.0252
951.705	0.865578
953.37	1.43389
955.035	0.592146
956.7	1.16433
958.366	1.76191
960.03	0.994415
961.693	0.823803
963.357	0.0118456
965.021	-0.0727215
966.684	0.349206
968.346	0.857288
970.008	0.0359392
971.67	1.5144
973.334	0.80333
974.995	0.867735
976.655	0.712689
978.316	0.205043
979.976	0.505414
981.638	0.805626
983.297	0.650885
984.957	1.11416
986.616	0.822808
988.274	0.441419
989.932	1.12061
991.59	0.759704
993.248	0.354858
994.907	0.701078
996.565	0.67196
998.221	0.179818
999.878	0.150801
1001.53	0.782123
1003.19	0.509921
1004.85	0.0838442
1006.5	0.713073
1008.16	0.528994
1009.81	0.389351
1011.46	0.557303
1013.12	0.637794
1014.77	1.04711
1016.43	0.952834
1018.08	0.180849
1019.73	0.635072
1021.38	0.783818
1023.04	0.824231
1024.69	0.537732
1026.34	0.710753
1027.99	0.774516
1029.64	1.03429
1031.29	1.3146
1032.94	1.76776
1034.59	1.89146
1036.24	2.51498
1037.89	2.67913
1039.54	3.82241
1041.19	3.92065
1042.84	5.08545
1044.48	4.1003
1046.13	5.68135
1047.78	4.76683
1049.42	3.96317
1051.07	3.92117
1052.72	3.44567
1054.36	2.57929
1056.01	2.51669
1057.66	2.60591
1059.3	1.43355
1060.94	1.19526
1062.59	1.04314
1064.23	0.759661
1065.88	0.823081
1067.52	0.885416
1069.16	0.577421
1070.81	0.877095
1072.45	0.937588
1074.09	0.564513
1075.73	-0.241166
1077.38	0.516153
1079.02	0.602189
1080.66	0.0167274
1082.3	0.558867
1083.94	0.623132
1085.58	0.252332
1087.22	0.616614
1088.86	0.263986
1090.5	0.104961
1092.13	0.571997
1093.77	0.368197
1095.41	0.402245
1097.05	0.436974
1098.68	0.32212
1100.32	0.596505
1101.96	0.463566
1103.6	0.698088
1105.23	0.0303793
1106.87	0.524768
1108.5	0.266109
1110.14	0.651568
1111.77	0.712919
1113.41	0.214147
1115.04	0.659359
1116.67	0.867406
1118.31	-0.0609617
1119.94	0.233672
1121.58	0.892862
1123.21	0.225463
1124.84	0.565074
1126.47	0.306394
1128.1	1.03224
1129.73	0.539799
1131.37	0.347325
1133	0.28343
1134.63	0.304935
1136.26	0.28311
1137.89	0.0680285
1139.52	0.279181
1141.14	0.510566
1142.77	0.0583782
1144.4	0.225266
1146.03	0.00886822
1147.66	0.198413
1149.29	-0.058774
1150.91	0.131912
1152.54	0.386409
1154.17	-0.594324
1155.79	0.0639353
1157.42	0.168478
1159.04	-0.0245037
1160.67	-0.301698
1162.3	-0.173849
1163.92	0.422626
1165.55	0.466772
1167.17	0.213024
1168.79	0.298496
1170.42	0.48865
1172.04	0.761809
1173.66	-0.134784
1175.28	0.326515
1176.91	0.38381
1178.53	0.186999
1180.15	0.245111
1181.77	-0.224885
1183.39	-0.186318
1185.01	-0.23227
1186.63	-0.110041
1188.25	0.221555
1189.87	0.276724
1191.49	0.0773563
1193.11	0.234504
1194.73	0.264477
1196.35	-0.292681
1197.97	0.0528069
1199.59	0.231684
1201.2	-0.110019
1202.82	0.28199
1204.44	0.342033
1206.05	0.570955
1207.67	0.0708961
1209.29	0.134447
1210.9	0.176413
1212.52	0.112579
1214.13	0.0884714
1215.75	-0.104211
1217.36	0.325883
1218.97	0.650257
1220.59	0.288763
1222.2	0.36412
1223.82	0.419761
1225.43	0.663055
1227.04	0.969549
1228.65	0.904791
1230.26	0.986044
1231.88	0.737683
1233.49	0.511235
1235.1	0.182635
1236.71	1.01259
1238.32	0.789437
1239.93	0.401407
1241.54	0.820029
1243.15	1.01098
1244.76	1.28402
1246.37	0.39731
1247.97	0.399415
1249.58	0.173225
1251.19	1.02254
1252.8	0.46526
1254.41	0.96359
1256.01	1.21472
1257.62	0.246554
1259.23	0.830984
1260.83	0.940521
1262.44	1.0506
1264.04	0.394322
1265.65	0.939121
1267.25	0.840981
1268.86	0.244337
1270.46	0.455233
1272.07	0.644448
1273.67	0.189994
1275.27	1.31011
1276.88	1.144
1278.48	1.26719
1280.08	0.789194
1281.68	0.932218
1283.28	0.661449
1284.89	1.61148
1286.49	0.866554
1288.09	0.949739
1289.69	1.40574
1291.29	1.69685
1292.89	1.59526
1294.49	1.55494
1296.09	1.26553
1297.69	0.892194
1299.29	1.03343
1300.88	0.946267
1302.48	1.579
1304.08	1.5305
1305.68	1.66641
1307.27	1.22644
1308.87	1.13589
1310.47	1.10698
1312.06	0.996616
1313.66	0.805355
1315.25	1.02404
1316.85	1.16161
1318.44	1.2383
1320.04	0.968213
1321.63	1.69581
1323.23	1.01644
1324.82	1.33283
1326.41	0.692953
1328.01	0.804305
1329.6	0.834867
1331.19	1.45331
1332.78	0.496634
1334.38	1.21941
1335.97	1.1155
1337.56	0.487889
1339.15	1.15043
1340.74	1.10556
1342.33	1.13921
1343.92	1.23118
1345.51	1.12106
1347.1	0.530043
1348.69	0.863274
1350.28	0.457666
1351.87	0.43499
1353.46	0.614141
1355.04	0.954289
1356.63	1.05484
1358.22	1.37467
1359.81	0.714899
1361.39	0.613544
1362.98	0.611245
1364.57	0.967448
1366.15	0.307318
1367.74	0.684138
1369.32	1.12146
1370.91	0.325999
1372.49	0.984675
1374.07	0.430573
1375.66	0.334756
1377.24	0.199234
1378.83	0.779633
1380.41	0.463666
1381.99	0.743392
1383.57	0.604128
1385.16	0.364655
1386.74	0.0852365
1388.32	0.441654
1389.9	1.01669
1391.48	0.401594
1393.06	0.481906
1394.64	0.423709
1396.22	0.821446
1397.8	0.623625
1399.38	0.266493
1400.96	0.2455
1402.54	0.303166
1404.12	0.855314
1405.7	0.89325
1407.28	1.05056
1408.85	0.971473
1410.43	0.636163
1412.01	0.814436
1413.58	0.834127
1415.16	0.635903
1416.74	1.20617
1418.31	0.908209
1419.89	0.709352
1421.46	0.354146
1423.04	1.162
1424.61	1.36099
1426.19	1.48248
1427.76	1.30931
1429.33	1.11619
1430.91	0.981266
1432.48	1.19948
1434.05	1.27894
1435.63	1.20057
1437.2	1.39767
1438.77	1.53641
1440.34	1.87263
1441.91	1.48263
1443.49	2.0367
1445.05	1.35299
1446.63	1.25904
1448.2	1.71564
1449.77	1.28792
1451.34	1.47008
1452.91	1.35783
1454.47	1.71801
1456.04	1.56676
1457.61	1.17868
1459.18	1.85207
1460.75	1.42168
1462.31	1.63885
1463.88	1.57889
1465.45	0.79066
1467.01	1.37799
1468.58	1.14041
1470.15	1.21791
1471.71	0.982545
1473.28	0.689501
1474.84	0.809108
1476.41	0.7134
1477.97	0.71585
1479.54	0.894661
1481.1	0.994926
1482.66	0.467989
1484.23	0.195807
1485.79	1.25553
1487.35	0.688485
1488.91	1.27565
1490.48	1.07777
1492.04	1.03444
1493.6	0.324957
1495.16	0.824935
1496.72	0.699118
1498.28	0.456621
1499.84	0.798295
1501.4	0.713073
1502.96	0.667956
1504.52	0.0812683
1506.08	0.27022
1507.64	-0.199266
1509.2	0.200659
1510.76	0.232013
1512.31	0.0504999
1513.87	0.0808163
1515.43	0.0535212
1516.99	-0.126755
1518.54	0.154284
1520.1	-0.292634
1521.66	0.0843821
1523.21	0.651451
1524.77	-0.00535774
1526.32	0.0630922
1527.88	0.14958
1529.43	0.273334
1530.99	0.2638
1532.54	0.463305
1534.09	0.246497
1535.65	0.258139
1537.2	0.610709
1538.75	0.812209
1540.31	0.6554
1541.86	0.461325
1543.41	0.625118
1544.96	1.08922
1546.51	0.838449
1548.06	0.306584
1549.62	0.675468
1551.17	0.126264
1552.72	0.92547
1554.27	0.621369
1555.82	0.804635
1557.36	0.672008
1558.91	0.448035
1560.46	0.412486
1562.01	0.788813
1563.56	0.550568
1565.11	0.611355
1566.66	0.336359
1568.2	0.266382
1569.75	0.177385
1571.3	0.722708
1572.84	0.651788
1574.39	0.954082
1575.93	0.360349
1577.48	0.382823
1579.02	0.723047
1580.57	-0.0564251
1582.11	0.733293
1583.66	0.440654
1585.2	0.690449
1586.75	0.623058
1588.29	0.967242
1589.83	0.825017
1591.38	0.551245
1592.92	0.763702
1594.46	0.657601
1596	0.139275
1597.54	0.670529
1599.09	0.771531
1600.63	0.967061
1602.17	0.63771
1603.71	1.15303
1605.25	0.991901
1606.79	0.5475
1608.33	0.552242
1609.87	0.968415
1611.41	1.00649
1612.95	0.554408
1614.48	0.664678
1616.02	0.568081
1617.56	1.05307
1619.1	0.658072
1620.64	0.470771
1622.17	0.846525
1623.71	0.567677
1625.25	1.07514
1626.78	0.739556
1628.32	1.00166
1629.86	0.383355
1631.39	0.568396
1632.92	1.07036
1634.46	0.321304
1635.99	0.357374
1637.53	0.879116
1639.06	0.897676
1640.59	1.28902
1642.13	1.02745
1643.66	0.988553
1645.19	1.52544
1646.73	1.39127
1648.26	1.034
1649.79	1.69884
1651.32	1.26891
1652.85	1.17449
1654.38	0.951448
1655.92	0.432607
1657.45	1.08137
1658.98	1.13627
1660.51	1.13438
1662.04	0.983136
1663.57	0.627695
1665.09	1.21427
1666.62	1.46801
1668.15	0.855603
1669.68	1.22224
1671.21	1.16617
1672.73	1.24014
1674.26	1.00146
1675.79	0.652251
1677.31	0.468184
1678.84	0.853581
1680.37	0.980216
1681.89	0.297511
1683.42	0.551849
1684.94	0.769212
1686.47	0.39976
1687.99	0.177779
1689.52	0.560904
1691.04	-0.319499
1692.57	-0.137523
1694.09	0.318586
1695.61	0.0793734
1697.14	0.205627
1698.66	0.367964
1700.18	0.219463
1701.7	0.471926
1703.22	0.687057
1704.75	-0.00917244
1706.27	0.314244
1707.79	0.127824
1709.31	0.377574
1710.83	-0.17155
1712.35	-0.17561
1713.87	0.237185
1715.39	0.269197
1716.91	-0.024477
1718.43	-0.444301
1719.95	0.274156
1721.46	0.125511
1722.98	0.157879
1724.5	0.119025
1726.02	0.819684
1727.53	0.134953
1729.05	0.279357
1730.57	-0.0792379
1732.08	0.258785
1733.6	-0.0782337
1735.12	0.28314
1736.63	0.604442
1738.15	0.0689325
1739.66	-0.119868
1741.18	-0.25349
1742.69	0.169875
1744.21	0.737058
1745.72	0.231172
1747.23	0.131667
1748.74	0.0586348
1750.26	-0.0632191
1751.77	-0.159555
1753.28	-0.11752
1754.8	-0.191589
1756.31	0.273988
1757.82	0.166144
1759.33	0.0552464
1760.84	-0.091753
1762.35	-0.119644
1763.86	0.207238
1765.37	0.158561
1766.88	0.076911
1768.39	0.00462437
1769.9	-0.0909462
1771.41	-0.182226
1772.92	0.168859
1774.43	-0.200435
1775.93	-0.128737
1777.44	0.0244617
1778.95	0.148386
1780.46	-0.293036
1781.96	0.245687
1783.47	0.0391283
1784.98	-0.130209
1786.48	0.0279875
1787.99	-0.0902357
1789.49	-0.0353251
1791	0.0156002
1792.5	-0.0270548
1794.01	0.0828047
1795.51	0.105943
1797.02	0.0809174
1798.52	0.191622
1800.03	-0.0280132
1801.53	-0.142978
1803.03	-0.303252
1804.53	0.272489
1806.04	0.183398
1807.54	0.349188
1809.04	0.00235653
1810.54	0.313502
1812.04	-0.0147972
1813.54	-0.0591316
1815.05	0.0888176
1816.55	0.285701
1818.05	-0.0915518
1819.55	-0.181337
1821.05	0.0966768
1822.55	0.123571
1824.05	-0.0895805
1825.54	0.267576
1827.04	-0.194077
1828.54	-0.238151
1830.04	0.118362
1831.54	0.146718
1833.03	0.0204878
1834.53	0.109628
1836.03	0.0340385
1837.52	-0.00842953
1839.02	0.0917377
1840.52	0.0842342
1842.01	-0.0585985
1843.51	0.150496
1845	-0.170704
1846.5	0.171054
1847.99	0.0672102
1849.49	-0.209599
1850.98	0.154533
1852.47	-0.0362415
1853.97	-0.100015
1855.46	0.0943747
1856.95	0.188609
1858.45	0.112342
1859.94	-0.0343266
1861.43	-0.473519
1862.92	0.0864668
1864.41	0.0883684
1865.91	0.00681686
1867.4	0.129826
1868.89	-0.0583096
1870.38	0.3379
1871.87	0.480715
1873.36	0.360557
1874.85	-0.088356
1876.34	0.202534
1877.83	-0.0927372
1879.31	-0.0179281
1880.8	0.0904322
1882.29	0.594325
1882.56	0.703706
1884.05	0.197788
1885.54	0.405981
1887.04	0.264857
1888.53	-0.207303
1890.03	0.0519476
1891.52	0.0683603
1893.01	-0.139845
1894.5	-0.1378
1895.99	0.16116
1897.49	0.130513
1898.98	-0.004632
1900.47	0.485578
1901.96	0.382846
1903.45	0.382889
1904.94	0.0165825
1906.43	-0.00257206
1907.92	-0.00435257
1909.41	0.324192
1910.9	0.150142
1912.39	-0.248513
1913.88	-0.143559
1915.37	0.308238
1916.86	0.0660868
1918.35	0.170225
1919.84	0.204604
1921.32	0.134967
1922.81	-0.33252
1924.3	-0.0372953
1925.78	0.0511036
1927.27	-0.153878
1928.76	0.247655
1930.24	0.250961
1931.73	-0.196707
1933.21	0.047039
1934.7	-0.0743647
1936.18	0.131615
1937.67	0.474643
1939.15	0.125689
1940.64	0.122812
1942.12	-0.0518818
1943.6	0.205753
1945.09	-0.191319
1946.57	-0.105137
1948.05	-0.656842
1949.54	0.272717
1951.02	-0.0391207
1952.5	0.00994587
1953.98	0.144434
1955.46	-0.116532
1956.94	0.0696621
1958.42	-0.0526896
1959.91	0.734891
1961.39	-0.0723896
1962.87	0.0981445
1964.34	0.165577
1965.82	-0.520973
1967.3	0.00779152
1968.78	0.176178
1970.26	0.292548
1971.74	0.186485
1973.22	-0.209627
1974.7	-0.195749
1976.17	-0.0283461
1977.65	0.138981
1979.13	0.272132
1980.6	-0.343341
1982.08	-0.295207
1983.56	-0.128488
1985.03	0.0546784
1986.51	-8.7738e-005
1987.98	0.250257
1989.46	0.331174
1990.93	0.29413
1992.41	0.291803
1993.88	0.0368032
1995.36	0.0024085
1996.83	0.00219679
1998.3	0.0188379
1999.78	0.355846
2001.25	0.253298
2002.72	-0.271246
2004.2	-0.0199208
2005.67	0.265157
2007.14	-0.493625
2008.61	0.331691
2010.08	0.281952
2011.55	-0.238635
2013.02	-0.186794
2014.49	-0.0175314
2015.97	0.25194
2017.43	0.268172
2018.9	0.771163
2020.37	0.433071
2021.84	0.380685
2023.31	-0.174891
2024.78	-0.142066
2026.25	-0.0747128
2027.72	0.195102
2029.19	0.197849
2030.65	-0.40219
2032.12	0.592498
2033.59	0.0270343
2035.05	0.200063
2036.52	-0.0638962
2037.98	0.293255
2039.45	0.112412
2040.92	0.065928
2042.38	0.557824
2043.85	0.125586
2045.31	-0.323019
2046.78	0.592279
2048.24	0.565492
2049.71	0.100167
2051.17	0.358543
2052.63	0.0760307
2054.1	0.230371
2055.56	0.113371
2057.02	0.298678
2058.48	0.078753
2059.95	0.195753
2061.41	0.245677
2062.87	0.161627
2064.33	0.347764
2065.79	0.0467114
2067.25	0.318578
2068.71	0.355362
2070.17	0.3756
2071.63	0.227531
2073.09	0.247681
2074.55	0.50335
2076.01	0.0177908
2077.47	0.1213
2078.93	0.544423
2080.39	0.663995
2081.85	0.00856876
2083.3	0.345929
2084.76	0.61516
2086.22	0.44619
2087.68	0.411322
2089.13	0.0232062
2090.59	0.458357
2092.05	0.238253
2093.5	0.320325
2094.96	0.536242
2096.41	0.349229
2097.87	0.26237
2099.32	0.258777
2100.78	0.505757
2102.23	0.0173411
2103.69	0.682508
2105.14	0.680468
2106.59	0.629636
2108.05	0.7132
2109.5	0.596923
2110.95	0.646909
2112.41	0.329096
2113.86	0.459758
2115.31	0.33926
2116.76	0.866535
2118.21	0.778637
2119.67	0.526124
2121.12	0.44151
2122.57	0.541079
2124.02	0.757949
2125.47	0.544233
2126.92	0.894015
2128.37	1.29249
2129.82	0.894062
2131.27	1.12414
2132.71	1.25393
2134.16	0.986528
2135.61	1.01777
2137.06	0.818937
2138.51	1.16722
2139.95	1.20322
2141.4	0.877077
2142.85	0.899064
2144.29	0.888556
2145.74	0.994007
2147.19	1.3973
2148.63	1.53527
2150.08	1.70562
2151.52	1.57682
2152.97	0.867118
2154.42	0.902288
2155.86	1.55001
2157.3	1.36944
2158.75	1.43803
2160.19	1.29251
2161.64	1.61255
2163.08	1.25484
2164.52	1.51195
2165.96	0.840455
2167.41	1.64658
2168.85	1.50516
2170.29	1.04589
2171.73	0.667625
2173.17	1.36893
2174.61	1.75285
2176.06	1.43763
2177.5	1.00633
2178.94	1.32398
2180.38	1.50949
2181.82	1.14714
2183.26	1.68323
2184.7	0.905768
2186.14	1.4756
2187.57	1.61304
2189.01	1.23466
2190.45	1.28891
2191.89	1.34291
2193.33	1.42954
2194.76	1.31513
2196.2	1.41546
2197.64	1.41403
2199.08	1.4775
2200.51	0.825503
2201.95	0.971245
2203.38	1.49895
2204.82	0.916113
2206.25	1.34576
2207.69	0.880923
2209.12	0.714374
2210.56	0.894862
2211.99	0.677281
2213.43	1.07091
2214.86	1.03443
2216.3	1.1471
2217.73	1.02973
2219.16	0.864119
2220.59	1.21044
2222.03	0.798533
2223.46	0.518063
2224.89	0.763566
2226.32	0.941432
2227.75	0.854478
2229.19	0.832233
2230.62	0.907773
2232.05	0.507762
2233.48	0.583558
2234.91	1.03593
2236.34	0.295943
2237.77	0.440027
2239.2	0.569231
2240.63	0.667447
2242.06	0.522552
2243.48	0.476593
2244.91	0.855012
2246.34	0.906625
2247.77	0.793703
2249.2	0.369191
2250.62	0.448258
2252.05	0.281559
2253.48	0.358383
2254.9	0.354097
2256.33	0.448464
2257.76	0.46361
2259.18	0.400082
2260.61	0.225464
2262.03	0.344951
2263.46	0.238511
2264.88	0.180923
2266.31	0.318081
2267.73	0.145609
2269.16	0.134971
2270.58	0.319013
2272	0.063087
2273.43	0.45836
2274.85	0.381473
2276.27	0.500242
2277.69	0.228067
2279.12	0.836137
2280.54	0.498676
2281.96	0.454525
2283.38	0.0676613
2284.8	0.284441
2286.22	0.338282
2287.64	0.0822296
2289.07	0.349054
2290.49	0.191565
2291.91	0.328424
2293.32	0.318309
2294.74	0.0790977
2296.16	0.166981
2297.58	0.238515
2299	0.0971761
2300.42	-0.0605192
2301.84	0.421375
2303.26	0.477425
2304.67	0.664981
2306.09	0.376379
2307.51	0.366522
2308.92	0.175363
2310.34	0.180894
2311.76	0.399934
2313.17	0.0925488
2314.59	0.361391
2316	0.153523
2317.42	0.325037
2318.83	0.480618
2320.25	0.025888
2321.66	0.394841
2323.08	-0.112308
2324.49	0.203758
2325.91	0.237369
2327.32	0.665311
2328.73	0.202203
2330.15	0.826873
2331.56	0.612079
2332.97	0.102194
2334.38	0.136275
2335.79	0.236339
2337.21	-0.00940418
2338.62	-0.157147
2340.03	-0.420693
2341.44	0.317039
2342.85	0.38057
2344.26	-0.097188
2345.67	0.245347
2347.08	0.17822
2348.49	0.14393
2349.9	0.403805
2351.31	0.499182
2352.72	0.10359
2354.13	-0.0636377
2355.53	0.43719
2356.94	-0.137931
2358.35	0.247755
2359.76	0.161561
2361.17	0.0269356
2362.57	0.265468
2363.98	-0.192997
2365.39	0.0127721
2366.79	-0.088799
2368.2	-0.012085
2369.6	0.21051
2371.01	0.0953512
2372.42	-0.131337
2373.82	0.14219
2375.22	0.528461
2376.63	0.222236
2378.03	0.397799
2379.44	-0.0387578
2380.84	-0.251191
2382.25	0.048799
2383.65	0.443461
2385.05	-0.0107889
2386.45	0.0875759
2387.86	0.186456
2389.26	0.214381
2390.66	0.036211
2392.06	0.209501
2393.46	0.208389
2394.87	-0.0305891
2396.27	0.287625
2397.67	-0.22028
2399.07	0.0669966
2400.47	0.211576
2401.87	0.372248
2403.27	-0.0229397
2404.67	0.248582
2406.07	-0.0204597
2407.47	0.0907435
2408.86	0.169485
2410.26	0.200324
2411.66	0.231317
2413.06	0.215459
2414.46	0.216508
2415.85	-0.224486
2417.25	0.475456
2418.65	0.606292
2420.05	0.0248032
2421.44	0.108276
2422.84	0.20733
2424.23	0.464617
2425.63	0.611097
2427.03	0.171656
2428.42	0.0339422
2429.82	0.420279
2431.21	0.172844
2432.6	0.401532
2434	0.121759
2435.39	0.571629
2436.79	-0.012362
2438.18	0.403306
2439.57	0.563613
2440.97	0.43721
2442.36	0.42155
2443.75	0.294581
2445.14	0.278594
2446.54	0.0563798
2447.93	0.0561104
2449.32	0.119188
2450.71	-0.0234351
2452.1	0.230169
2453.49	0.151973
2454.88	-0.0520473
2456.27	0.282374
2457.66	0.253193
2459.05	0.239692
2460.44	0.225711
2461.83	0.464026
2463.22	0.195756
2464.61	0.369569
2466	0.321893
2467.39	0.100542
2468.77	0.258015
2470.16	-0.0264082
2471.55	-0.0902448
2472.94	-0.107298
2474.32	0.126931
2475.71	0.202989
2477.1	0.545807
2478.48	0.0400009
2479.87	0.209884
2481.25	0.191484
2482.64	0.204385
2484.02	0.216872
2485.41	0.244234
2486.8	-0.119963
2488.18	0.202362
2489.56	0.289521
2490.95	0.0961952
2492.33	0.0903187
2493.72	0.19402
2495.1	-0.0116291
2496.48	0.264576
2497.86	0.308738
2499.25	-0.358941
2500.63	-0.0824623
2502.01	-0.131579
2503.39	0.0347819
2504.77	-0.447732
2506.16	-0.0668659
2507.54	0.389915
2508.92	-0.0612307
2510.3	-0.234636
2511.68	0.0990915
2513.06	0.0802794
2514.44	0.108145
2515.82	0.350961
2517.2	0.334069
2518.58	0.0883207
2519.95	-0.0653543
2521.33	0.315451
2522.71	0.344208
2524.09	0.43323
2525.47	-0.25573
2526.84	-0.106269
2528.22	0.210646
2529.6	-0.0497932
2530.98	0.451242
2532.35	0.178427
2533.73	0.256259
2535.11	0.395438
2536.48	-0.0275545
2537.86	0.338887
2539.23	-0.328334
2540.61	0.20359
2541.98	0.112601
2543.36	0.249489
2544.73	0.129136
2546.1	-0.0660224
2547.48	-0.0326796
2548.85	0.486833
2550.23	0.36924
2551.6	0.402966
2552.97	0.0413375
2554.34	0.149328
2555.72	0.0289817
2557.09	-0.319256
2558.46	-0.167015
2559.83	0.227898
2561.2	0.107758
2562.58	-0.117911
2563.95	-0.10063
2565.32	0.0533676
2566.69	0.192414
2568.06	-0.183737
2569.43	0.0311651
2570.8	0.155144
2572.17	0.173067
2573.54	-0.127277
2574.91	-0.245676
2576.27	-0.273106
2577.64	0.184591
2579.01	0.278244
2580.38	-0.250078
2581.75	0.297842
2583.11	0.390549
2584.48	0.255641
2585.85	-0.0460162
2587.21	0.258744
2588.58	0.290807
2589.95	0.0350194
2591.31	0.173147
2592.68	-0.0527735
2594.04	-0.0368848
2595.41	0.311334
2596.78	0.0681114
2598.14	-0.0242195
2599.51	0.0495663
2600.87	0.198903
2602.23	0.333382
2603.6	0.106002
2604.96	0.362121
2606.32	0.286354
2607.69	0.0143447
2609.05	0.4201
2610.41	0.342409
2611.77	0.173427
2613.14	-0.0864301
2614.5	0.0141172
2615.86	0.159269
2617.22	-0.0554466
2618.58	-0.269264
2619.94	-0.0781002
2621.3	0.00866508
2622.67	0.0359511
2624.03	-0.0411472
2625.39	0.0907216
2626.75	0.147646
2628.1	0.085012
2629.46	0.364684
2630.82	0.316435
2632.18	-0.192664
2633.54	0.279366
2634.9	0.171779
2636.26	0.301616
2637.61	-0.0873899
2638.97	0.27937
2640.33	0.0834908
2641.69	0.242921
2643.04	0.298935
2644.4	0.251669
2645.76	0.13064
2647.11	0.363243
2648.47	0.241404
2649.82	-0.1752
2651.18	0.24641
2652.53	0.329145
2653.89	0.0451355
2655.24	0.0407581
2656.6	0.125134
2657.95	0.0932274
2659.31	-0.245131
2660.66	0.0458784
2662.01	0.0734243
2663.37	0.158885
2664.72	-0.208893
2666.07	0.269199
2667.43	0.279815
2668.78	0.363146
2670.13	0.0973811
2671.48	0.355852
2672.83	0.396548
2674.18	-0.0995836
2675.53	-0.0722251
2676.89	0.187685
2678.24	0.215877
2679.59	-0.0307636
2680.94	-0.0155296
2682.29	0.0586343
2683.64	0.104751
2684.99	0.383726
2686.34	0.184425
2687.68	0.202562
2689.03	-0.0560794
2690.38	0.264607
2691.73	-0.0403619
2693.08	0.292026
2694.43	0.289812
2695.77	0.243982
2697.12	0.329079
2698.47	-0.236476
2699.81	0.198563
2701.16	-0.23386
2702.51	0.0444431
2703.85	0.410702
2705.2	0.415267
2706.54	-0.0877934
2707.89	0.496811
2709.23	0.167006
2710.58	0.359437
2711.92	0.333879
2713.27	0.148343
2714.61	0.180671
2715.96	0.48923
2717.3	0.128813
2718.64	0.204431
2719.99	0.00331831
2721.33	0.267484
2722.67	0.138339
2724.01	0.503687
2725.36	0.0826845
2726.7	-0.0329447
2728.04	0.273251
2729.38	0.171732
2730.72	0.259276
2732.06	-0.118781
2733.41	0.405225
2734.75	0.027442
2736.09	0.318926
2737.43	0.072361
2738.77	0.16029
2740.11	0.248006
2741.44	0.131756
2742.78	0.000494957
2744.12	0.21754
2745.46	0.404886
2746.8	0.0980058
2748.14	0.0379949
2749.48	-0.355631
2750.81	0.280927
2752.15	-0.0976353
2753.49	0.263374
2754.83	0.392476
2756.16	0.130551
2757.5	0.317775
2758.84	0.186641
2760.17	0.258499
2761.51	0.041307
2762.84	-0.0741739
2764.18	0.0421028
2765.51	0.187287
2766.85	-0.116395
2768.18	-0.24713
2769.52	0.112833
2770.85	-0.135623
2772.19	0.135056
2773.52	-0.187082
2774.85	-0.00451803
2776.19	-0.268814
2777.52	0.374273
2778.85	0.585375
2780.18	0.293655
2781.52	0.0744004
2782.85	0.02771
2784.18	0.396939
2785.51	-0.00825787
2786.84	0.231742
2788.17	0.271461
2789.51	0.225928
2790.84	0.309884
2792.17	0.165651
2793.5	0.0504432
2794.83	-0.0789776
2796.16	0.220043
2797.48	0.304194
2798.81	0.0737128
2800.14	-0.142644
2801.47	-0.14504
2802.8	0.308674
2804.13	0.547949
2805.46	0.159929
2806.79	-0.185405
2808.11	-0.104067
2809.44	-0.108441
2810.77	0.384243
2812.09	-0.0882592
2813.42	-0.190535
2814.75	-0.0222406
2816.07	-0.193114
2817.4	0.175499
2818.73	0.431158
2820.05	0.289957
2821.38	0.0633612
2822.7	0.0771866
2824.03	0.118855
2825.35	0.160235
2826.67	-0.12407
2828	-0.096374
2829.32	0.441385
2830.65	0.356578
2831.97	-0.0253162
2833.29	0.31467
2834.62	0.272203
2835.94	0.639759
2837.26	0.638869
2838.58	0.764929
2839.9	0.77762
2841.23	0.507635
2842.55	0.930732
2843.87	0.492111
2845.19	0.817287
2846.51	0.690712
2847.83	0.677478
2849.15	1.07414
2850.47	0.933482
2851.79	0.919635
2853.11	1.06084
2854.43	0.947359
2855.75	0.833763
2857.07	0.988594
2858.39	1.0728
2859.71	1.3688
2861.02	1.32569
2862.34	1.29645
2863.66	1.28105
2864.98	1.42065
2866.3	1.56017
2867.61	1.69983
2868.93	1.78338
2870.25	1.75447
2871.56	1.44377
2872.88	1.62623
2874.19	1.70939
2875.51	1.98885
2876.83	1.54921
2878.14	1.96771
2879.46	2.16052
2880.77	1.83334
2882.09	2.04099
2883.4	2.06676
2884.71	2.23369
2886.03	1.88164
2887.34	2.07714
2888.65	1.6969
2889.97	2.04569
2891.28	1.6364
2892.59	1.94176
2893.91	1.93855
2895.22	2.13166
2896.53	1.82137
2897.84	1.66601
2899.15	2.04314
2900.46	2.46275
2901.78	2.02937
2903.09	2.29558
2904.4	2.17024
2905.71	2.38082
2907.02	2.49393
2908.33	2.22999
2909.64	2.10654
2910.95	2.31933
2912.26	2.74217
2913.57	2.78657
2914.87	2.94188
2916.18	2.63385
2917.49	3.27642
2918.8	2.6307
2920.11	2.93634
2921.42	3.13046
2922.72	3.39536
2924.03	2.87855
2925.34	3.22928
2926.64	3.39878
2927.95	3.23282
2929.26	3.54188
2930.56	4.07418
2931.87	3.48771
2933.17	3.51617
2934.48	3.12531
2935.78	3.18182
2937.09	3.69963
2938.39	4.03586
2939.7	3.60375
2941	3.61923
2942.31	3.41181
2943.61	2.75805
2944.91	3.05569
2946.22	2.94885
2947.52	2.88436
2948.82	2.86162
2950.13	2.64197
2951.43	2.85498
2952.73	2.50645
2954.03	2.87096
2955.33	2.9831
2956.64	2.81601
2957.94	2.58055
2959.24	2.3331
2960.54	2.29767
2961.84	2.64225
2963.14	2.51092
2964.44	2.14026
2965.74	2.2176
2967.04	2.06892
2968.34	1.83478
2969.64	1.89525
2970.94	1.88536
2972.24	1.69279
2973.53	1.69739
2974.83	1.50492
2976.13	1.73428
2977.43	1.66705
2978.73	1.683
2980.02	1.23312
2981.32	1.5846
2982.62	1.41499
2983.91	1.16143
2985.21	1.6116
2986.51	1.09315
2987.8	1.36278
2989.1	1.04299
2990.4	0.920101
2991.69	1.1482
2992.99	1.06631
2994.28	0.941323
2995.57	0.703179
2996.87	0.661233
2998.16	0.661271
2999.46	0.535257
3000.75	0.451818
3002.05	0.593141
3003.34	0.342347
3004.63	0.512033
3005.92	0.471354
3007.22	0.29026
3008.51	0.4305
3009.8	0.192386
3011.09	0.317313
3012.39	0.260241
3013.68	0.328814
3014.97	0.300031
3016.26	0.216115
3017.55	0.188569
3018.84	0.244937
3020.13	0.106608
3021.42	0.0514936
3022.71	0.051374
3024	0.0782766
3025.29	-0.0895238
3026.58	0.227593
3027.87	-0.105845
3029.16	-0.06457
3030.45	-0.146574
3031.73	-0.0616689
3033.02	0.175816
3034.31	0.08217
3035.6	0.0157762
3036.89	0.251769
3038.17	0.23807
3039.46	-0.368798
3040.75	0.426484
3042.03	0.120967
3043.32	0.0903835
3044.61	0.142683
3045.89	0.264521
3047.18	0.100985
3048.46	0.171604
3049.75	0.21653
3051.03	0.126227
3052.32	0.213968
3053.6	0.0288277
3054.89	0.157022
3056.17	0.0797858
3057.45	0.110845
3058.74	0.0731611
3060.02	0.157871
3061.31	0.133927
3062.59	0.355593
3063.87	-0.0472546
3065.15	0.122236
3066.44	0.00729752
3067.72	0.328218
3069	0.20077
3070.28	-0.158124
3071.56	-0.0416503
3072.84	0.27788
3074.13	0.120503
3075.41	-0.0238624
3076.69	-0.358424
3077.97	0.108491
3079.25	-0.197522
3080.53	0.230284
3081.81	0.035253
3083.09	-0.267348
3084.37	0.12249
3085.64	0.498963
3086.92	0.101515
3088.2	0.273563
3089.48	-0.0978127
3090.76	0.304048
3092.04	0.0137653
3093.31	-0.249128
3094.59	0.0850058
3095.87	0.0124936
3097.14	-0.073463
3098.42	0.00322485
3099.7	-0.1099
3100.97	0.0614586
3102.25	0.0296593
3103.53	0.377188
3104.8	-0.0736079
3106.08	0.125943
3107.35	0.136729
3108.63	0.0130053
3109.9	0.39092
3111.18	0.174058
3112.45	0.0118437
3113.73	0.161514
3115	0.162187
3116.27	-0.0273347
3117.55	0.189308
3118.82	0.364497
3120.09	0.0912743
3121.37	0.14287
3122.64	0.356625
3123.91	0.312702
3125.18	0.499149
3126.45	0.198609
3127.73	0.277575
3129	0.343396
3130.27	0.220186
3131.54	0.2188
3132.81	0.392994
3134.08	0.269646
3135.35	0.375528
3136.62	0.561799
3137.89	0.316042
3139.16	0.474506
3140.43	0.498016
3141.7	0.548443
3142.97	0.222854
3144.24	0.35466
3145.51	0.379435
3146.78	0.297506
3148.04	0.0152736
3149.31	0.2694
