200.554	0.503672
202.369	0.498889
204.183	0.494634
205.999	0.224135
207.813	1.31583
209.626	0.802528
211.439	1.18746
213.253	1.13394
215.065	0.86132
216.877	0.249491
218.688	0.195958
220.5	0.675878
222.312	0.479212
224.123	0.622451
225.933	0.76644
227.742	0.475842
229.552	-0.0802469
231.361	0.763674
233.171	0.3765
234.98	0.448501
236.787	0.498005
238.595	-0.0525331
240.402	0.460399
242.209	0.30107
244.015	0.167388
245.822	0.468172
247.627	0.888475
249.435	0.412821
251.24	0.465233
253.045	0.394262
254.849	0.876579
256.653	-0.160622
258.457	0.828571
260.26	0.108668
262.063	0.065814
263.866	-0.215972
265.668	-0.207376
267.47	0.0909996
269.271	0.22065
271.073	-0.0601635
272.873	0.0678616
274.674	0.266938
276.474	0.946517
278.274	0.900942
280.073	-0.519468
281.872	0.346372
283.671	-0.113543
285.47	0.627274
287.268	0.477995
289.065	0.0655165
290.863	0.325541
292.66	0.658574
294.456	0.395124
296.253	0.0859804
298.049	0.352017
299.844	0.666393
301.637	0.67003
303.432	0.195379
305.227	0.316553
307.021	-0.135628
308.815	0.771362
310.609	0.510828
312.402	0.204444
314.195	0.400298
315.987	0.384076
317.777	0.417667
319.569	0.191131
321.36	0.204222
323.151	0.194517
324.942	1.09225
326.733	0.415471
328.521	0.239478
330.31	0.134435
332.1	1.03271
333.889	0.901007
335.677	0.360091
337.464	0.630286
339.252	-0.0587368
341.039	0.709887
342.826	1.02297
344.611	0.714689
346.398	0.622379
348.184	0.268436
349.97	0.679291
351.754	0.779853
353.539	0.521924
355.324	0.930958
357.106	1.00444
358.89	0.0994148
360.674	0.932723
362.455	-0.0207539
364.239	0.405558
366.021	0.35535
367.804	0.320569
369.584	0.38563
371.366	0.50829
373.145	0.313034
374.926	0.566903
376.707	0.489955
378.485	0.861918
380.265	0.245002
382.045	0.830998
383.822	-0.2992
385.601	0.148492
387.378	0.691228
389.156	0.694739
390.934	0.652556
392.71	0.188736
394.487	0.594681
396.262	-0.0791302
398.038	-0.0247135
399.813	-0.0878325
401.588	0.318432
403.362	0.0194359
405.137	0.00158215
406.912	0.570065
408.685	0.433431
410.459	0.0618706
412.23	0.605868
414.004	0.657549
415.775	-0.0641289
417.548	0.576144
419.318	-0.026412
421.089	-0.394063
422.86	-0.104731
424.63	-0.355991
426.401	-0.0916901
428.17	-0.109941
429.94	1.35016
431.708	-0.288021
433.478	-0.493907
435.245	0.215964
437.012	-0.341475
438.781	-0.125125
440.547	0.770081
442.315	0.278586
444.081	-0.0976181
445.846	0.578807
447.613	-0.245002
449.378	0.00783539
451.142	0.353873
452.908	0.513031
454.672	-0.400637
456.435	-0.590344
458.2	0.384521
459.963	-0.36388
461.725	0.3081
463.489	0.330413
465.251	0.00701904
467.012	-0.220115
468.775	-0.653553
470.536	0.263473
472.296	-0.0278339
474.056	0.0988197
475.817	0.386703
477.576	0.22971
479.335	0.11729
481.094	0.632758
482.854	-0.388717
484.612	0.0352297
486.37	0.135359
488.127	0.70418
489.886	0.389786
491.642	0.35629
493.398	-0.213898
495.154	0.174029
496.91	-0.139669
498.667	0.155005
500.422	0.684243
502.176	0.509521
503.93	0.333532
505.684	0.391071
507.438	0.0943975
509.191	1.04261
510.946	0.718869
512.698	0.628535
514.45	0.983561
516.202	0.772312
517.954	-0.00459003
519.705	-0.147291
521.456	0.367233
523.206	0.69288
524.956	0.243464
526.706	0.709409
528.456	-0.161478
530.207	0.304163
531.956	0.417555
533.704	0.529913
535.452	0.59401
537.2	0.960198
538.947	-0.169996
540.694	0.263317
542.441	0.135799
544.188	0.380412
545.934	0.461803
547.68	0.868146
549.425	0.0916815
551.17	0.822288
552.915	0.210041
554.659	-0.40064
556.403	0.906012
558.145	0.0661058
559.889	0.126836
561.632	0.44132
563.375	0.20398
565.117	0.588259
566.859	-0.198646
568.601	0.531459
570.342	0.160649
572.083	0.250509
573.824	0.158721
575.565	0.137769
577.303	0.16458
579.043	0.0322008
580.782	1.18676
582.521	0.435266
584.26	0.44111
585.998	0.0548038
587.734	0.311008
589.472	-0.423344
591.21	0.543814
592.947	0.636133
594.684	-0.0539417
596.418	-0.0307169
598.154	-0.191576
599.89	-0.605886
601.626	0.42819
603.361	0.0576019
605.094	0.214384
606.828	-0.0899487
608.562	0.0874376
610.296	0.080905
612.027	-0.154424
613.761	0.505502
615.493	0.0885019
617.224	-0.213467
618.956	-0.103562
620.688	0.119507
622.419	0.386708
624.149	0.78977
625.879	0.552716
627.61	-0.207825
629.338	0.266835
631.068	0.857988
632.797	0.105151
634.525	0.699844
636.254	0.38121
637.98	0.950793
639.708	0.033659
641.436	-0.0876608
643.162	0.586189
644.889	0.824907
646.614	0.472241
648.34	0.326904
650.067	0.435223
651.791	0.820524
653.516	1.23326
655.239	-0.0102139
656.964	0.0445366
658.687	0.510675
660.411	0.84035
662.133	0.346552
663.857	-0.264845
665.58	0.446615
667.301	-0.0556049
669.024	0.630545
670.744	0.791729
672.464	0.0855589
674.186	-0.160738
675.905	0.557515
677.626	1.04903
679.345	-0.0891457
681.065	-0.0351315
682.783	0.661243
684.503	0.619473
686.22	0.345139
687.939	1.01326
689.656	0.828049
691.372	0.342517
693.09	0.293937
694.806	0.958511
696.523	0.378251
698.239	0.349457
699.953	0.871538
701.67	0.56388
703.384	0.784134
705.098	1.27888
706.813	0.762533
708.526	0.682191
710.239	0.830656
711.954	1.04711
713.666	0.988379
715.378	0.838115
717.091	0.505404
718.802	0.69803
720.513	0.297951
722.226	0.809533
723.936	0.933525
725.646	0.625248
727.355	0.589709
729.067	0.440291
730.776	0.857398
732.484	1.22797
734.192	0.760494
735.902	1.44665
737.61	0.867475
739.317	1.10225
741.024	1.42788
742.731	0.785837
744.439	1.20416
746.145	1.21861
747.851	0.739697
749.556	1.3196
751.262	0.776251
752.966	1.06655
754.673	0.32353
756.377	1.15705
758.081	0.664481
759.784	0.938937
761.487	0.786554
763.19	1.76268
764.892	1.22697
766.594	1.48006
768.296	1.6861
770	1.93499
771.701	1.14137
773.402	1.70294
775.102	1.3595
776.803	1.69503
778.503	1.82854
780.202	1.82811
781.901	1.69316
783.6	1.60348
785.299	1.15023
786.997	1.44128
788.695	1.66085
790.393	1.67296
792.09	2.11142
793.787	2.23118
795.484	2.05718
797.18	2.01981
798.877	1.06108
800.572	1.97361
802.268	2.23439
803.963	1.866
805.658	1.38528
807.35	1.62305
809.044	1.88167
810.738	1.51028
812.432	1.51959
814.125	0.699289
815.818	1.44706
817.51	1.41068
819.202	1.37441
820.894	0.891794
822.584	1.54825
824.275	1.37966
825.966	1.34654
827.657	1.80581
829.347	1.44393
831.037	1.77582
832.725	1.93277
834.414	1.42344
836.103	1.56143
837.792	1.67696
839.481	1.36701
841.167	1.79217
842.854	1.36708
844.542	1.12006
846.229	1.74542
847.914	2.28375
849.6	1.90813
851.287	1.37801
852.973	1.7232
854.656	1.8681
856.341	1.60871
858.026	0.740407
859.711	1.80405
861.393	2.1691
863.077	1.76667
864.761	1.70048
866.442	1.40774
868.125	1.49745
869.808	2.10542
871.489	0.886043
873.171	1.10995
874.85	1.19843
876.532	1.60287
878.213	1.9397
879.892	1.23811
881.572	0.897122
883.251	1.50346
884.931	1.4087
886.61	0.996411
888.287	1.46251
889.966	0.641055
891.643	0.810521
893.321	0.910754
894.997	0.469556
896.675	0.949613
898.352	1.36024
900.028	1.47733
901.704	1.41399
903.379	0.835555
905.055	0.951081
906.729	1.60225
908.404	1.96272
910.077	0.452912
911.75	1.17172
913.425	1.20089
915.097	1.11935
916.771	0.195072
918.443	1.22261
920.116	1.09702
921.787	1.37048
923.46	1.35739
925.13	1.01483
926.8	1.00583
928.472	1.28556
930.141	0.904489
931.813	1.42884
933.481	1.33563
935.15	1.61759
936.82	1.32655
938.488	1.16883
940.156	1.18891
941.825	1.05588
943.492	1.32074
945.158	1.49721
946.827	0.590735
948.493	0.785867
950.158	1.42025
951.824	0.464495
953.491	0.965048
955.156	0.232286
956.82	1.09023
958.486	0.84911
960.15	0.610749
961.814	0.837519
963.477	0.312795
965.142	0.802984
966.804	-0.0368443
968.467	0.757486
970.129	0.620335
971.79	1.01317
973.454	0.234334
975.115	0.231163
976.776	0.672204
978.436	0.960133
980.096	0.762059
981.756	0.563375
983.417	0.828
985.077	0.249275
986.736	0.421
988.394	0.767694
990.052	0.670477
991.71	1.52293
993.368	0.629376
995.025	0.44331
996.682	0.853205
998.341	0.424732
999.998	1.64911
1001.65	1.35205
1003.31	0.482708
1004.97	0.317899
1006.62	0.197139
1008.28	0.625628
1009.93	0.0664158
1011.58	0.297831
1013.24	0.836235
1014.89	-0.00545788
1016.54	0.620883
1018.2	0.568843
1019.85	-0.466439
1021.5	-0.0569487
1023.16	0.593863
1024.81	0.305704
1026.46	1.00154
1028.11	0.692114
1029.76	0.928179
1031.41	0.616748
1033.06	0.696704
1034.71	0.818387
1036.36	0.61136
1038.01	0.904782
1039.66	0.653507
1041.31	0.925361
1042.95	1.08963
1044.6	0.777731
1046.25	1.38045
1047.9	1.26843
1049.54	0.224422
1051.19	1.15814
1052.84	1.57166
1054.48	0.768869
1056.13	0.704679
1057.77	0.835766
1059.42	1.14027
1061.06	0.0524511
1062.71	0.551043
1064.35	1.07031
1066	0.805624
1067.64	0.909285
1069.28	0.0124226
1070.93	0.657405
1072.57	0.151283
1074.21	0.36212
1075.85	0.270256
1077.49	-0.0370083
1079.13	0.264257
1080.78	0.241002
1082.42	1.12841
1084.06	0.800459
1085.7	0.904293
1087.34	-0.0775881
1088.97	0.303535
1090.61	0.141342
1092.25	0.367249
1093.89	0.570612
1095.53	0.256023
1097.17	0.503347
1098.8	-0.38981
1100.44	-0.268246
1102.08	-0.360017
1103.71	0.668708
1105.35	0.429402
1106.99	0.534842
1108.62	0.0592394
1110.26	-0.159388
1111.89	0.394155
1113.52	0.709136
1115.16	-0.244177
1116.79	0.283353
1118.43	0.295795
1120.06	0.287559
1121.69	0.13052
1123.32	0.145989
1124.96	0.0769053
1126.59	0.757385
1128.22	0.347809
1129.85	1.17924
1131.48	0.728388
1133.11	0.534444
1134.75	0.212097
1136.37	0.209692
1138	0.462527
1139.63	0.457551
1141.26	0.0458374
1142.89	0.892931
1144.52	0.289089
1146.15	-0.0149689
1147.78	0.555954
1149.4	0.488337
1151.03	0.293461
1152.66	0.588428
1154.28	0.797675
1155.91	0.389147
1157.54	0.257324
1159.16	0.742803
1160.79	0.0169373
1162.41	0.228038
1164.04	0.142528
1165.66	-0.13383
1167.29	0.865198
1168.91	0.353408
1170.53	0.0524559
1172.16	1.25791
1173.78	0.549213
1175.4	-0.181101
1177.02	-0.2113
1178.65	-0.0505962
1180.27	-0.164531
1181.89	0.187995
1183.51	-0.389398
1185.13	0.0268984
1186.75	-0.107378
1188.37	0.51628
1189.99	-0.0858402
1191.61	0.258608
1193.23	0.0329218
1194.85	0.0588894
1196.47	0.273538
1198.08	-0.0766249
1199.7	0.245157
1201.32	0.819589
1202.94	-0.837861
1204.55	0.0134649
1206.17	-0.135021
1207.79	0.155994
1209.4	0.280311
1211.02	0.925036
1212.63	0.504136
1214.25	0.435339
1215.86	0.426602
1217.48	-0.0209188
1219.09	0.715796
1220.71	0.246945
1222.32	0.588561
1223.93	0.475141
1225.54	0.342875
1227.16	0.150365
1228.77	-0.0404463
1230.38	0.390494
1231.99	0.057683
1233.6	0.573676
1235.22	0.408938
1236.83	0.906937
1238.44	0.0831099
1240.05	0.107446
1241.66	0.793859
1243.26	0.65265
1244.87	0.862269
1246.48	0.512068
1248.09	1.00913
1249.7	0.636283
1251.31	0.325267
1252.92	0.676501
1254.52	0.821657
1256.13	-0.00413513
1257.74	0.515903
1259.34	0.189007
1260.95	0.0698442
1262.55	0.551615
1264.16	-0.126345
1265.76	0.645379
1267.37	0.670529
1268.97	0.176322
1270.58	0.696851
1272.18	0.532026
1273.78	1.0295
1275.39	0.510036
1276.99	0.238464
1278.59	0.815469
1280.2	0.376781
1281.8	1.17992
1283.4	0.761951
1285	0.634462
1286.6	-0.132792
1288.2	0.899552
1289.8	1.56058
1291.4	0.69293
1293	1.20962
1294.6	0.878322
1296.2	0.958739
1297.8	0.397356
1299.4	0.804375
1301	1.08549
1302.6	0.870406
1304.19	0.490024
1305.79	0.644079
1307.39	1.14636
1308.99	1.36007
1310.58	0.917577
1312.18	0.578826
1313.77	0.895998
1315.37	1.5815
1316.96	0.776551
1318.56	0.932295
1320.15	1.20994
1321.75	1.07868
1323.34	1.21042
1324.94	0.323639
1326.53	1.24411
1328.12	0.560113
1329.72	1.31601
1331.31	0.696801
1332.9	0.808703
1334.49	0.640247
1336.08	0.473749
1337.67	1.21552
1339.27	1.12925
1340.86	0.678625
1342.45	1.09161
1344.04	0.0945845
1345.63	0.604354
1347.22	0.912631
1348.8	0.801556
1350.39	0.753469
1351.98	0.548277
1353.57	0.705383
1355.16	0.923746
1356.75	1.14237
1358.33	1.10066
1359.92	0.538717
1361.51	0.534925
1363.09	0.530231
1364.68	1.04349
1366.27	0.918903
1367.85	0.875037
1369.44	0.713162
1371.02	1.26941
1372.61	0.49387
1374.19	0.833938
1375.77	0.438511
1377.36	0.719697
1378.94	1.15949
1380.52	0.583305
1382.11	0.721975
1383.69	0.620487
1385.27	0.855888
1386.85	0.613782
1388.43	1.16639
1390.02	0.885637
1391.6	0.903753
1393.18	1.0021
1394.76	0.942148
1396.34	0.584558
1397.92	0.939957
1399.5	1.33358
1401.08	0.81472
1402.65	0.869775
1404.23	0.904976
1405.81	1.17803
1407.39	0.799607
1408.97	0.639769
1410.54	0.776863
1412.12	0.696591
1413.7	1.30655
1415.27	0.533826
1416.85	0.825798
1418.43	1.27471
1420	0.246191
1421.58	0.479992
1423.15	0.931909
1424.73	1.01156
1426.3	0.935164
1427.87	1.84348
1429.45	1.15716
1431.02	1.49325
1432.6	1.31626
1434.17	0.882504
1435.74	1.68751
1437.31	1.74519
1438.89	2.47207
1440.46	1.60803
1442.03	1.15797
1443.6	1.73069
1445.17	1.30153
1446.74	1.67842
1448.31	2.01625
1449.88	1.56812
1451.45	1.25807
1453.02	1.36152
1454.59	1.38675
1456.16	1.72674
1457.72	2.10543
1459.29	1.47891
1460.86	1.49978
1462.43	1.10531
1463.99	1.35819
1465.56	1.51131
1467.13	0.99602
1468.69	1.14924
1470.26	0.832374
1471.83	0.968234
1473.39	0.556072
1474.95	0.752814
1476.52	1.04799
1478.08	0.69627
1479.65	1.18745
1481.21	1.1296
1482.78	0.522962
1484.34	1.15074
1485.9	0.837551
1487.47	1.05237
1489.03	-0.0853195
1490.59	0.145684
1492.15	0.706324
1493.71	0.697089
1495.27	0.685856
1496.84	0.751357
1498.39	1.4002
1499.96	0.512836
1501.52	1.04585
1503.07	0.667696
1504.64	0.446253
1506.19	0.612616
1507.75	0.816589
1509.31	0.690534
1510.87	0.196823
1512.43	0.531972
1513.98	0.403968
1515.54	0.257308
1517.1	0.322853
1518.65	0.312423
1520.21	0.015378
1521.77	0.484511
1523.32	0.187719
1524.88	0.558859
1526.44	0.584727
1527.99	0.495242
1529.54	0.253277
1531.1	0.71447
1532.65	0.473497
1534.21	0.101628
1535.76	0.545095
1537.31	0.572995
1538.87	0.469512
1540.42	0.347797
1541.97	-0.0184803
1543.52	0.274502
1545.07	0.322281
1546.63	0.726549
1548.18	0.679531
1549.73	0.295213
1551.28	0.660823
1552.83	0.502584
1554.38	0.084074
1555.93	0.694918
1557.48	0.821735
1559.03	0.614861
1560.57	1.1005
1562.12	0.487301
1563.67	0.920049
1565.22	0.327291
1566.77	0.536908
1568.31	0.522352
1569.86	0.582016
1571.41	0.659929
1572.95	0.793534
1574.5	0.665648
1576.05	0.743144
1577.59	0.820892
1579.14	0.805782
1580.68	1.16484
1582.23	0.833928
1583.77	0.541168
1585.31	1.23955
1586.86	0.499413
1588.4	0.43215
1589.95	0.214887
1591.49	0.745744
1593.03	0.976834
1594.57	1.30141
1596.11	0.108602
1597.66	0.396162
1599.2	0.834682
1600.74	1.44322
1602.28	1.28337
1603.82	0.86039
1605.36	0.999827
1606.9	1.0626
1608.44	0.991563
1609.98	1.36893
1611.52	1.23614
1613.06	1.42041
1614.6	1.37776
1616.13	0.678281
1617.67	1.38601
1619.21	1.02653
1620.75	1.38074
1622.28	1.00615
1623.82	0.932135
1625.36	0.539921
1626.89	0.521256
1628.43	0.0708723
1629.96	0.83483
1631.5	0.26994
1633.04	0.471079
1634.57	0.672346
1636.11	1.24746
1637.64	0.853363
1639.17	0.982258
1640.71	0.45879
1642.24	0.81057
1643.77	1.62625
1645.31	0.876513
1646.84	1.01929
1648.37	0.771343
1649.9	0.654203
1651.43	0.928001
1652.96	1.27711
1654.5	0.514809
1656.03	1.31059
1657.56	0.79022
1659.09	0.843483
1660.62	0.710107
1662.15	1.13023
1663.67	0.901506
1665.2	0.432431
1666.73	0.813438
1668.26	0.936961
1669.79	0.6934
1671.32	0.580705
1672.84	0.653482
1674.37	0.800368
1675.9	0.523443
1677.43	0.466626
1678.95	0.427042
1680.48	-0.257132
1682	0.767463
1683.53	0.670333
1685.05	0.628482
1686.58	1.00887
1688.1	0.619568
1689.63	0.560861
1691.15	0.0996904
1692.68	0.114852
1694.2	0.733513
1695.72	0.583529
1697.25	-0.114728
1698.77	0.374362
1700.29	-0.104836
1701.81	0.163721
1703.33	-0.170115
1704.86	0.333568
1706.38	0.63579
1707.9	0.682672
1709.42	0.729386
1710.94	0.104693
1712.46	0.27904
1713.98	0.145302
1715.5	0.192858
1717.02	-0.12148
1718.54	0.341637
1720.06	0.352477
1721.57	0.471762
1723.09	0.248999
1724.61	-0.242544
1726.13	0.0962496
1727.64	0.400236
1729.16	0.237268
1730.68	-0.300923
1732.19	-0.0319643
1733.71	0.0744314
1735.23	0.716765
1736.74	0.295977
1738.26	0.0482416
1739.77	0.434441
1741.29	0.271798
1742.8	-0.0542917
1744.31	0.221685
1745.83	-0.260449
1747.34	0.0503616
1748.85	0.0516071
1750.37	0.197038
1751.88	-0.0192862
1753.39	0.229183
1754.91	0.114334
1756.42	-0.0495205
1757.93	0.112181
1759.44	-0.250309
1760.95	0.247169
1762.46	0.301444
1763.97	-0.191684
1765.48	-0.2595
1766.99	0.254376
1768.5	0.0951614
1770.01	0.143635
1771.52	-0.246342
1773.03	0.0402136
1774.54	0.358417
1776.04	0.109874
1777.55	-0.0531931
1779.06	0.137815
1780.57	0.12236
1782.07	0.237224
1783.58	0.236106
1785.09	0.0637913
1786.59	-0.187952
1788.1	0.180139
1789.6	-0.112949
1791.11	0.241969
1792.61	-0.0662222
1794.12	-0.0725641
1795.62	0.22467
1797.13	0.373981
1798.63	0.0920706
1800.13	0.368719
1801.64	-0.0382929
1803.14	-0.144058
1804.64	-0.0378294
1806.15	0.0221272
1807.65	0.0699501
1809.15	-0.128445
1810.65	0.0471458
1812.15	-0.137888
1813.65	0.0311956
1815.16	0.145771
1816.66	0.109019
1818.15	0.0695505
1819.66	0.0714169
1821.16	0.145912
1822.65	0.0218916
1824.15	-0.021121
1825.65	0.040822
1827.15	0.0568705
1828.65	0.228148
1830.15	0.151655
1831.64	0.245774
1833.14	-0.000627518
1834.64	0.258368
1836.14	0.0929174
1837.63	0.0861578
1839.13	-0.0403643
1840.62	-0.178357
1842.12	-0.00443649
1843.62	0.0244541
1845.11	0.036622
1846.61	0.182971
1848.1	0.0112619
1849.6	-0.0413246
1851.09	0.144575
1852.58	0.0463018
1854.08	0.172869
1855.57	0.281075
1857.06	-0.0124168
1858.55	-0.0542536
1860.05	0.439316
1861.54	0.276001
1863.03	-0.176592
1864.52	0.236496
1866.01	0.239376
1867.5	0.0426674
1869	0.195599
1870.49	-0.105034
1871.98	-0.23463
1873.47	0.0113077
1874.96	0.0930071
1876.44	-0.19642
1877.93	-0.631717
1879.42	-0.120675
1880.91	0.53686
1882.4	0.169267
1882.47	0.152312
1883.96	0.465139
1885.46	0.445844
1886.95	0.00763988
1888.44	0.283094
1889.94	0.314831
1891.43	0.260557
1892.93	0.260082
1894.42	0.052825
1895.91	0.316574
1897.4	0.337814
1898.89	0.272021
1900.39	-0.107937
1901.88	0.362927
1903.37	-0.0377293
1904.86	-0.0223331
1906.35	-0.424746
1907.84	0.0241175
1909.33	-0.0302505
1910.82	-0.0142584
1912.31	0.45364
1913.8	-0.153378
1915.29	0.193667
1916.77	-0.222568
1918.26	0.0888405
1919.75	0.0877304
1921.24	0.06919
1922.73	0.605157
1924.21	0.137636
1925.7	0.156085
1927.19	0.417981
1928.67	0.265063
1930.16	0.216002
1931.64	0.21811
1933.13	-0.00630951
1934.61	0.0619097
1936.1	0.284122
1937.58	0.107179
1939.07	-0.225528
1940.55	-0.194924
1942.04	0.0953121
1943.52	-0.355463
1945	-0.0980377
1946.49	0.228564
1947.97	0.261785
1949.45	0.156434
1950.93	0.23959
1952.42	0.338921
1953.9	0.21398
1955.38	-0.0139999
1956.86	-0.378693
1958.34	0.115842
1959.82	0.318954
1961.3	0.282384
1962.78	0.1775
1964.26	0.398064
1965.74	-0.152698
1967.22	0.54588
1968.7	0.14824
1970.18	-0.0956373
1971.65	0.00218678
1973.13	-0.0879536
1974.61	0.112079
1976.09	-0.19933
1977.57	-0.0672865
1979.04	-0.156607
1980.52	0.281489
1982	0.769817
1983.47	-0.526425
1984.95	-0.2595
1986.42	0.159423
1987.9	-0.439175
1989.37	0.148848
1990.85	0.787456
1992.32	0.309961
1993.8	0.188994
1995.27	-0.150738
1996.75	-0.05056
1998.22	0.539304
1999.69	0.486802
2001.17	-0.00503063
2002.64	0.245241
2004.11	0.208519
2005.58	0.172148
2007.05	0.136527
2008.53	0.118701
2010	0.0512304
2011.47	0.590315
2012.94	0.0184689
2014.41	0.0185642
2015.88	-0.251268
2017.35	-0.0340652
2018.82	0.0308666
2020.29	0.0951881
2021.76	-0.378112
2023.23	0.223622
2024.7	0.221555
2026.16	0.203876
2027.63	0.120535
2029.1	0.441214
2030.57	0.377485
2032.03	0.029438
2033.5	0.621737
2034.97	0.576317
2036.44	0.27851
2037.9	0.148026
2039.37	0.050703
2040.83	0.138173
2042.3	0.00745678
2043.76	0.112848
2045.23	0.505264
2046.69	-0.0608091
2048.16	0.332985
2049.62	0.221296
2051.08	0.648053
2052.55	0.0616426
2054.01	0.114181
2055.47	0.0132351
2056.94	-0.358731
2058.4	0.27985
2059.86	0.193438
2061.32	0.0064497
2062.79	0.476839
2064.25	0.0223827
2065.71	-0.0775871
2067.17	0.344967
2068.63	0.0276165
2070.09	0.0471735
2071.55	0.588696
2073.01	-0.11575
2074.47	-0.0123281
2075.93	0.326552
2077.39	0.463008
2078.85	0.178063
2080.31	0.498894
2081.76	0.196148
2083.22	0.465172
2084.68	0.548202
2086.13	0.832283
2087.59	0.493347
2089.05	0.473609
2090.51	0.0673323
2091.96	0.265793
2093.42	0.49752
2094.87	0.292708
2096.33	-0.0799475
2097.78	0.0162144
2099.24	0.697399
2100.69	0.691535
2102.15	-0.116212
2103.6	-0.0870924
2105.06	0.944588
2106.51	0.391863
2107.96	0.274222
2109.42	0.540528
2110.87	0.389434
2112.32	0.437117
2113.77	0.333183
2115.23	0.643785
2116.68	0.304547
2118.13	0.364826
2119.58	0.758248
2121.03	0.257275
2122.48	0.687355
2123.93	0.870002
2125.38	0.489552
2126.83	0.307898
2128.28	0.257962
2129.73	1.20096
2131.18	0.485543
2132.63	0.564609
2134.08	0.27957
2135.53	0.574282
2136.97	0.903222
2138.42	0.903342
2139.87	0.376536
2141.32	0.363626
2142.76	0.748734
2144.21	0.539254
2145.66	0.842803
2147.1	0.748955
2148.55	0.80348
2150	0.923438
2151.44	0.661358
2152.89	1.01132
2154.33	1.04562
2155.78	0.714964
2157.22	1.24581
2158.66	1.14783
2160.11	0.570763
2161.55	1.15512
2163	0.548108
2164.44	0.439587
2165.88	0.879618
2167.32	0.904885
2168.77	1.06217
2170.21	1.0848
2171.65	0.689427
2173.09	1.00739
2174.53	0.774991
2175.97	1.0576
2177.41	0.974473
2178.85	0.659348
2180.29	0.97697
2181.73	0.780066
2183.17	0.883029
2184.61	0.969684
2186.05	0.873453
2187.49	0.74393
2188.93	0.614395
2190.37	0.917579
2191.81	0.904293
2193.24	0.956889
2194.68	0.575302
2196.12	0.508348
2197.56	0.140048
2198.99	0.552028
2200.43	0.646724
2201.87	0.342624
2203.3	0.421145
2204.74	0.765906
2206.17	0.879302
2207.61	0.678383
2209.04	0.874912
2210.48	0.904982
2211.91	0.636269
2213.35	0.532441
2214.78	0.544233
2216.21	0.341969
2217.65	0.668947
2219.08	0.732981
2220.51	0.731902
2221.95	0.434322
2223.38	0.828238
2224.81	0.331235
2226.24	0.228117
2227.67	0.452387
2229.1	0.477865
2230.54	0.682961
2231.97	0.494068
2233.4	0.453162
2234.83	0.42942
2236.26	0.749929
2237.69	0.8756
2239.11	0.024024
2240.54	0.365793
2241.97	0.464528
2243.4	0.287226
2244.83	-0.0691376
2246.26	0.177423
2247.69	0.210463
2249.11	0.176233
2250.54	0.074748
2251.97	0.183342
2253.4	-0.0506096
2254.82	0.31725
2256.25	0.068922
2257.67	0.163857
2259.1	0.537226
2260.53	0.410483
2261.95	0.46464
2263.38	-0.340308
2264.8	-0.284596
2266.23	0.421281
2267.65	0.297468
2269.07	0.530685
2270.5	0.453949
2271.92	0.0510035
2273.34	0.0548506
2274.77	0.25425
2276.19	0.144347
2277.61	0.21384
2279.03	0.462762
2280.46	0.157333
2281.88	0.19416
2283.3	0.34511
2284.72	-0.205529
2286.14	0.5006
2287.56	0.195168
2288.98	-0.0283775
2290.4	0.483595
2291.82	0.162572
2293.24	0.364725
2294.66	0.0434761
2296.08	0.131077
2297.5	0.382451
2298.92	0.486637
2300.34	0.017458
2301.76	0.154822
2303.17	0.112123
2304.59	-0.0289526
2306.01	0.191068
2307.43	-0.114804
2308.84	0.466185
2310.26	0.159082
2311.68	0.476432
2313.09	0.0205927
2314.51	0.486555
2315.92	0.508996
2317.34	-0.324462
2318.75	-0.152854
2320.17	-0.294621
2321.58	-0.255993
2323	0.292581
2324.41	0.112851
2325.82	0.458961
2327.24	0.605215
2328.65	0.783463
2330.06	0.648703
2331.48	0.366779
2332.89	-0.177154
2334.3	0.234381
2335.71	-0.0449381
2337.12	0.563581
2338.54	0.0363703
2339.95	0.543748
2341.36	0.162798
2342.77	0.257744
2344.18	-0.0738878
2345.59	0.349075
2347	0.296786
2348.41	0.0154305
2349.82	0.290276
2351.23	0.253402
2352.64	0.0523024
2354.04	0.225951
2355.45	0.121461
2356.86	-0.162264
2358.27	-0.299033
2359.68	0.214516
2361.08	0.158992
2362.49	-0.155845
2363.9	-0.30815
2365.3	-0.00716972
2366.71	0.390302
2368.12	0.0771255
2369.52	-0.089304
2370.93	0.13264
2372.33	-0.0471802
2373.74	0.112318
2375.14	0.465235
2376.55	0.0291224
2377.95	0.364297
2379.36	0.665379
2380.76	0.354227
2382.16	-0.310488
2383.57	0.146599
2384.97	0.458344
2386.37	0.274422
2387.78	0.0917778
2389.18	0.101974
2390.58	-0.300852
2391.98	-0.574631
2393.38	-0.00384331
2394.79	-0.164447
2396.19	0.327579
2397.59	0.168269
2398.99	0.0731678
2400.39	0.359856
2401.79	0.757949
2403.19	-0.416271
2404.59	0.108563
2405.99	0.28312
2407.39	0.091691
2408.78	0.105838
2410.18	0.103776
2411.58	-0.119902
2412.98	0.496716
2414.38	-0.00993061
2415.77	0.213225
2417.17	-0.00561047
2418.57	0.06141
2419.97	0.477245
2421.36	-0.199836
2422.76	0.35826
2424.15	0.0764618
2425.55	-0.173663
2426.95	-0.0271702
2428.34	-0.323708
2429.74	0.490596
2431.13	0.576435
2432.52	0.122786
2433.92	0.144693
2435.31	0.102017
2436.71	0.439227
2438.1	-0.162439
2439.49	0.172025
2440.89	0.0766563
2442.28	0.0601873
2443.67	0.36081
2445.06	0.34378
2446.46	-0.212451
2447.85	0.356857
2449.24	0.117773
2450.63	0.338284
2452.02	0.0526447
2453.41	0.353387
2454.8	0.0694847
2456.19	0.324177
2457.58	0.531706
2458.97	0.391104
2460.36	-0.0504951
2461.75	-0.160656
2463.14	-0.208275
2464.53	0.517757
2465.92	0.0900164
2467.31	-0.132236
2468.69	0.213684
2470.08	-0.0559759
2471.47	0.162861
2472.86	0.0972404
2474.24	-0.157941
2475.63	-0.130216
2477.02	0.0857172
2478.4	0.175599
2479.79	0.202716
2481.17	-0.0052433
2482.56	0.116096
2483.94	0.0646
2485.33	0.231322
2486.72	0.334126
2488.1	0.560445
2489.48	-0.149658
2490.87	0.34038
2492.25	-0.103056
2493.64	0.045598
2495.02	0.0245762
2496.4	0.128798
2497.79	-0.199992
2499.17	0.0756207
2500.55	0.319619
2501.93	0.207018
2503.31	0.340726
2504.69	-0.190008
2506.08	0.0193958
2507.46	0.0280046
2508.84	0.00595093
2510.22	-0.199956
2511.6	0.0554295
2512.98	0.295752
2514.36	0.000425339
2515.74	0.670668
2517.12	0.254748
2518.5	-0.0531292
2519.88	-0.177131
2521.25	0.401324
2522.63	0.459516
2524.01	0.242249
2525.39	-0.188767
2526.77	0.309561
2528.14	0.00100708
2529.52	-0.214852
2530.9	0.45252
2532.27	-0.185671
2533.65	0.377917
2535.03	0.380043
2536.4	0.00235081
2537.78	-0.148036
2539.15	0.0196848
2540.53	0.201712
2541.9	-0.102435
2543.28	-0.0116539
2544.65	0.155709
2546.03	-0.373528
2547.4	-0.249382
2548.77	0.376243
2550.15	0.486284
2551.52	-0.0263128
2552.89	0.0368662
2554.27	0.205278
2555.64	0.387929
2557.01	0.145232
2558.38	-0.491716
2559.75	-0.112411
2561.12	-0.0359116
2562.5	0.601892
2563.87	-0.017581
2565.24	-0.0910664
2566.61	-0.179465
2567.98	0.338424
2569.35	0.325922
2570.72	-0.747555
2572.09	0.240321
2573.46	0.273409
2574.83	0.124681
2576.19	0.112416
2577.56	0.145572
2578.93	0.436295
2580.3	-0.0769529
2581.67	0.28886
2583.04	-0.0279989
2584.4	0.261367
2585.77	0.217134
2587.14	0.14271
2588.5	0.098794
2589.87	0.070159
2591.23	0.132343
2592.6	0.13348
2593.97	-0.21456
2595.33	0.375547
2596.7	-0.0953913
2598.06	0.26544
2599.43	0.428922
2600.79	0.682961
2602.15	0.182106
2603.52	0.240927
2604.88	-0.0166273
2606.25	-0.0324335
2607.61	0.102278
2608.97	-0.231131
2610.33	-0.128465
2611.7	-0.147579
2613.06	-0.0624971
2614.42	0.18692
2615.78	-0.0296326
2617.15	0.294127
2618.51	-0.265781
2619.87	0.433007
2621.23	0.488448
2622.59	-0.157944
2623.95	0.495902
2625.31	-0.0300474
2626.67	-0.555514
2628.03	-0.201339
2629.39	0.434938
2630.75	0.0434093
2632.1	0.395719
2633.46	0.07897
2634.82	0.207978
2636.18	0.336752
2637.54	0.154117
2638.89	0.0754709
2640.25	0.500125
2641.61	0.303466
2642.97	-0.0255842
2644.32	-0.176845
2645.68	-0.121412
2647.03	0.213677
2648.39	0.297175
2649.75	0.320868
2651.1	0.226219
2652.46	0.204872
2653.81	0.0957355
2655.17	0.339299
2656.52	0.773924
2657.88	0.404103
2659.23	0.650049
2660.58	0.121231
2661.94	-0.187963
2663.29	0.335196
2664.64	0.419023
2666	0.487387
2667.35	0.336548
2668.7	0.0402298
2670.05	0.195698
2671.4	-0.0556774
2672.76	0.144329
2674.11	0.0542545
2675.46	-0.122259
2676.81	0.0936537
2678.16	0.41155
2679.51	0.353078
2680.86	0.716095
2682.21	0.0509138
2683.56	-0.14923
2684.91	-0.0439653
2686.26	0.206929
2687.61	0.428862
2688.96	0.330385
2690.3	0.375425
2691.65	0.462199
2693	0.199188
2694.35	0.544483
2695.7	0.352963
2697.04	0.278104
2698.39	0.30591
2699.74	0.451173
2701.08	-0.0824232
2702.43	0.514997
2703.77	0.0995626
2705.12	0.365655
2706.47	0.443507
2707.81	-0.0447359
2709.16	0.0323782
2710.5	0.283451
2711.85	0.18579
2713.19	0.436679
2714.53	0.498693
2715.88	0.40075
2717.22	0.288074
2718.57	0.204188
2719.91	0.207222
2721.25	0.282594
2722.59	0.255629
2723.94	0.242761
2725.28	0.607919
2726.62	0.332256
2727.96	0.798564
2729.3	-0.147036
2730.65	0.420693
2731.99	0.551788
2733.33	0.566559
2734.67	0.436044
2736.01	0.291208
2737.35	0.670106
2738.69	0.103648
2740.03	0.176889
2741.37	0.147889
2742.71	0.37996
2744.05	0.349638
2745.38	0.0281668
2746.72	-0.0320759
2748.06	-0.019877
2749.4	0.0503836
2750.74	0.120768
2752.07	-0.0841188
2753.41	-0.274149
2754.75	0.173588
2756.09	-0.0161142
2757.42	0.446032
2758.76	0.31466
2760.09	0.241612
2761.43	0.34271
2762.77	0.371909
2764.1	0.647398
2765.44	0.402004
2766.77	0.214084
2768.11	0.0108867
2769.44	0.500638
2770.77	-0.0375414
2772.11	0.203488
2773.44	0.269986
2774.77	0.13398
2776.11	0.329446
2777.44	0.28026
2778.77	0.0878806
2780.11	-0.161197
2781.44	0.00683641
2782.77	-0.0405312
2784.1	-0.130916
2785.43	-0.00622511
2786.77	-0.39717
2788.1	0.286409
2789.43	-0.0172319
2790.76	-0.105227
2792.09	-0.206731
2793.42	0.421302
2794.75	0.191592
2796.08	0.190292
2797.41	0.317022
2798.74	0.157546
2800.07	0.254673
2801.4	0.123202
2802.72	-0.307751
2804.05	-0.282473
2805.38	-0.0297337
2806.71	0.207898
2808.04	0.10323
2809.36	0.595212
2810.69	0.20596
2812.02	0.243575
2813.34	-0.0581775
2814.67	-0.00385523
2816	0.264413
2817.32	0.377796
2818.65	0.250813
2819.97	0.577414
2821.3	0.067359
2822.62	-0.0889549
2823.95	0.349252
2825.27	0.475284
2826.6	0.657926
2827.92	0.444557
2829.25	0.10439
2830.57	0.288493
2831.89	0.670968
2833.22	0.855195
2834.54	0.472929
2835.86	0.528983
2837.18	0.697688
2838.51	0.65369
2839.83	0.708493
2841.15	1.15922
2842.47	1.11541
2843.79	1.36906
2845.11	1.65165
2846.43	1.53918
2847.76	1.80867
2849.08	1.38566
2850.4	1.92345
2851.72	1.48551
2853.04	1.32974
2854.36	1.80952
2855.67	1.31407
2856.99	1.2708
2858.31	1.5242
2859.63	1.79163
2860.95	2.00232
2862.27	1.94439
2863.58	1.99902
2864.9	2.42021
2866.22	2.19225
2867.54	2.26079
2868.85	2.25924
2870.17	2.8784
2871.49	2.45445
2872.8	2.49547
2874.12	2.5921
2875.43	2.91298
2876.75	2.55671
2878.07	2.76281
2879.38	2.47615
2880.7	2.56959
2882.01	2.79015
2883.32	2.75878
2884.64	2.81262
2885.95	2.81089
2887.27	2.68293
2888.58	2.47042
2889.89	2.88851
2891.21	3.16525
2892.52	2.90852
2893.83	2.48373
2895.14	3.17985
2896.46	3.24632
2897.77	2.93597
2899.08	3.06048
2900.39	3.07383
2901.7	3.40938
2903.01	3.5073
2904.32	2.94794
2905.63	3.06025
2906.94	3.34092
2908.25	3.4965
2909.56	3.69492
2910.87	3.40417
2912.18	4.12113
2913.49	3.81562
2914.8	4.19472
2916.11	4.0401
2917.42	3.71602
2918.72	3.71293
2920.03	4.52084
2921.34	4.67171
2922.65	4.25059
2923.95	3.64921
2925.26	3.87365
2926.57	4.42021
2927.88	3.94637
2929.18	4.64646
2930.49	4.29752
2931.79	4.21374
2933.1	4.46518
2934.4	4.22734
2935.71	3.89181
2937.01	4.46483
2938.32	4.14361
2939.62	4.49339
2940.93	4.46634
2942.23	3.67152
2943.54	3.38075
2944.84	3.67824
2946.14	3.40359
2947.45	3.01738
2948.75	3.33049
2950.05	3.36279
2951.35	3.36547
2952.66	3.39439
2953.96	2.73593
2955.26	2.7212
2956.56	2.56722
2957.86	2.48498
2959.16	2.76907
2960.46	2.4395
2961.77	2.79825
2963.07	2.77951
2964.37	2.2689
2965.66	2.06542
2966.96	2.52082
2968.26	1.78037
2969.56	2.13563
2970.86	2.20962
2972.16	1.93218
2973.46	1.93634
2974.76	1.99681
2976.06	1.73293
2977.35	1.87619
2978.65	1.73631
2979.95	2.00311
2981.25	1.4242
2982.54	1.45
2983.84	1.3495
2985.14	1.54515
2986.43	1.25022
2987.73	1.46253
2989.02	1.74604
2990.32	0.961757
2991.62	1.48403
2992.91	1.17613
2994.21	1.37295
2995.5	1.10503
2996.8	0.934866
2998.09	0.357643
2999.38	0.917314
3000.68	0.705794
3001.97	0.536999
3003.26	0.999246
3004.56	1.04106
3005.85	0.592435
3007.14	0.815476
3008.43	0.449857
3009.73	0.67106
3011.02	0.0947781
3012.31	0.524171
3013.6	0.38086
3014.89	0.489045
3016.19	-0.00132036
3017.48	-0.0588083
3018.77	0.287757
3020.06	0.0499034
3021.35	0.326174
3022.64	0.517919
3023.93	0.416954
3025.22	0.467882
3026.5	-0.0909839
3027.79	-0.0395551
3029.08	0.261628
3030.37	0.204516
3031.66	0.0936189
3032.95	0.34274
3034.24	0.15038
3035.52	0.123206
3036.81	0.0672531
3038.1	-0.389825
3039.39	0.00548792
3040.67	-0.055202
3041.96	0.226501
3043.25	0.370221
3044.53	0.103666
3045.82	0.263124
3047.1	0.0281501
3048.39	0.0824094
3049.67	-0.0524573
3050.96	0.223603
3052.24	-0.181868
3053.53	-0.109706
3054.81	0.616669
3056.1	0.0460134
3057.38	0.292651
3058.67	0.374725
3059.95	-0.061029
3061.23	0.238857
3062.52	0.675313
3063.8	0.106597
3065.08	-0.256496
3066.36	0.578083
3067.65	-0.122656
3068.93	-0.0480947
3070.21	0.13505
3071.49	-0.226631
3072.77	0.308126
3074.05	0.256818
3075.33	-0.25739
3076.61	0.477944
3077.89	-0.0766187
3079.17	0.333602
3080.45	-0.150291
3081.73	0.0184774
3083.01	-0.0828915
3084.29	0.169151
3085.57	0.0277715
3086.85	-0.168385
3088.13	-0.365244
3089.41	-0.128446
3090.68	0.447057
3091.96	0.0453405
3093.24	0.281393
3094.52	-0.187565
3095.79	-0.168005
3097.07	0.312519
3098.35	-0.14242
3099.62	0.0937405
3100.9	-0.117371
3102.18	0.105009
3103.45	0.246255
3104.73	0.103645
3106	-0.173577
3107.28	0.0101924
3108.55	-0.170486
3109.83	-0.214878
3111.1	0.229038
3112.38	0.199911
3113.65	0.0492039
3114.93	0.155915
3116.2	0.27579
3117.47	0.164287
3118.75	0.0652232
3120.02	0.236308
3121.29	-0.366421
3122.57	-0.142638
3123.84	-0.163104
3125.11	-0.048028
3126.38	0.189127
3127.65	-0.0469112
3128.92	0.3804
3130.2	0.185808
3131.47	-0.319489
3132.74	0.33746
3134.01	0.183105
3135.28	-0.160642
3136.55	0.0620646
3137.82	0.405284
3139.09	0.262596
3140.36	0.7256
3141.63	-0.210793
3142.9	0.171434
3144.17	0.298353
3145.43	0.43903
3146.7	0.057312
3147.97	0.493926
3149.24	0.167355
