200.423	0.503673
202.238	0.516925
204.052	0.531508
205.868	0.449844
207.682	0.636036
209.495	0.38426
211.308	-0.135389
213.12	0.169696
214.935	0.303632
216.746	0.242964
218.558	0.763759
220.369	0.34058
222.18	0.281722
223.992	-0.162951
225.802	-0.413293
227.612	0.834437
229.421	-0.164788
231.23	-0.029211
233.039	0.250745
234.849	-0.457788
236.657	0.619155
238.465	0.227489
240.272	0.585527
242.079	-0.30782
243.885	0.00561905
245.691	-0.0909023
247.497	-0.092267
249.305	-0.409912
251.11	0.549275
252.915	0.491668
254.719	0.0705862
256.523	-0.446877
258.327	0.193678
260.13	0.305347
261.933	0.274346
263.736	0.100471
265.538	0.698684
267.34	-0.63048
269.141	0.112647
270.943	0.783007
272.744	-0.235342
274.544	-0.314668
276.344	-0.298986
278.144	0.775336
279.944	-0.22453
281.743	0.098732
283.542	0.155238
285.34	-0.414362
287.138	0.144535
288.936	-0.352674
290.733	0.133922
292.53	-0.0731831
294.327	0.415195
296.123	-0.00400543
297.919	0.056222
299.715	0.0930557
301.508	0.965706
303.303	0.380552
305.098	0.510682
306.892	-0.123452
308.686	-0.256487
310.479	0.0400057
312.273	0.385019
314.065	0.445729
315.858	0.460661
317.648	0.310684
319.44	0.28131
321.231	0.253087
323.022	0.845675
324.813	0.628154
326.604	0.267268
328.392	0.574696
330.181	-0.0265093
331.971	0.757809
333.76	0.249112
335.548	-0.0943336
337.335	0.445437
339.123	0.45674
340.91	0.370865
342.698	0.188657
344.483	0.126023
346.269	0.37444
348.055	-0.164568
349.841	-0.464075
351.625	0.0958366
353.41	-0.108554
355.195	0.282585
356.977	-0.0431271
358.762	-0.179082
360.545	0.493767
362.329	0.926813
364.11	0.383556
365.893	-0.0881977
367.675	0.413323
369.455	0.178
371.237	0.226596
373.017	0.747618
374.798	0.321798
376.578	-0.24461
378.357	-0.0311317
380.137	-0.147032
381.917	0.0208254
383.694	0.260214
385.473	0.383039
387.249	1.04742
389.028	0.56146
390.806	0.100241
392.581	0.180083
394.359	0.589325
396.134	0.482301
397.91	-0.0708265
399.684	-0.389291
401.46	0.0199957
403.234	-0.0410461
405.009	0.0381718
406.784	0.257586
408.557	-0.134075
410.331	0.31916
412.103	0.396756
413.876	0.0993147
415.647	-0.00968838
417.42	0.586018
419.191	-0.131687
420.961	0.558915
422.733	-0.0180712
424.502	-0.548867
426.273	0.468948
428.042	0.171305
429.812	-0.173678
431.58	0.138546
433.35	0.169407
435.118	0.857744
436.885	0.372615
438.653	0.285847
440.42	-0.248088
442.188	0.389291
443.954	0.109726
445.719	0.437843
447.486	0.553604
449.251	0.551777
451.015	0.0827808
452.781	0.4086
454.545	0.0110474
456.308	0.732864
458.073	0.498583
459.836	-0.0610485
461.598	-0.200664
463.362	-0.0133286
465.124	0.152829
466.885	0.0428123
468.648	0.144501
470.408	0.131806
472.169	-0.0198975
473.929	0.921844
475.69	0.441947
477.45	0.728419
479.208	0.570484
480.967	0.830831
482.727	0.509012
484.485	-0.0678692
486.243	0.00915241
488	0.531068
489.759	0.589152
491.515	0.438271
493.272	0.287792
495.028	0.488046
496.783	0.829059
498.54	0.373824
500.295	0.0111275
502.05	0.586032
503.804	0.0335703
505.558	0.325406
507.311	0.381136
509.064	0.411936
510.819	0.205937
512.572	0.586675
514.324	0.707132
516.076	0.873263
517.827	0.99107
519.578	0.661137
521.329	-0.0216827
523.08	0.798706
524.83	0.984295
526.58	0.77087
528.329	0.276346
530.08	0.579015
531.829	0.365711
533.578	1.04138
535.326	0.171234
537.074	0.726737
538.821	0.0424719
540.568	0.664512
542.315	0.515673
544.062	0.366817
545.808	-0.107019
547.554	0.604089
549.299	1.22106
551.044	0.215944
552.789	0.300381
554.533	-0.00798512
556.278	0.792519
558.019	0.646351
559.763	0.708298
561.506	0.839756
563.249	0.327542
564.991	0.460245
566.733	0.271806
568.475	0.405758
570.217	0.357004
571.958	0.676654
573.699	0.0114155
575.439	0.403096
577.177	0.108104
578.917	0.388058
580.656	0.255599
582.396	0.743564
584.134	0.541804
585.873	0.867868
587.609	0.663795
589.347	0.366435
591.084	0.574306
592.822	0.0684252
594.558	-0.161508
596.295	0.25279
598.029	0.436991
599.765	0.137731
601.5	0.0217876
603.235	0.89366
604.968	0.131316
606.703	0.586247
608.437	0.580597
610.171	0.115792
611.902	0.0877647
613.635	0.564885
615.368	0.148433
617.099	1.15294
618.831	-0.546208
620.563	0.45631
622.294	-0.213417
624.024	0.419984
625.755	0.73264
627.485	0.634956
629.213	0.790282
630.943	0.331743
632.673	0.719489
634.4	-0.192544
636.129	-0.192045
637.855	0.217863
639.584	-0.470201
641.312	-0.293514
643.037	0.0175343
644.764	0.645621
646.491	0.294654
648.216	0.559708
649.942	0.94102
651.666	-0.355486
653.392	0.55577
655.115	0.0836143
656.84	-0.318941
658.563	0.532188
660.287	-0.00710869
662.011	0.11347
663.732	0.506392
665.456	0.348769
667.177	0.669468
668.899	0.440618
670.62	0.166513
672.342	1.24422
674.061	0.653775
675.781	0.0873899
677.502	-0.0429831
679.22	0.239934
680.941	0.982321
682.659	1.08004
684.379	0.968617
686.096	0.30245
687.815	1.13154
689.532	0.71593
691.248	0.8524
692.966	0.32026
694.682	0.570598
696.4	0.750852
698.115	0.975926
699.829	0.509297
701.546	0.409997
703.26	1.02243
704.974	1.31179
706.689	1.2789
708.402	1.03925
710.115	0.432997
711.83	0.972081
713.542	0.823736
715.254	0.835421
716.967	1.121
718.679	1.20085
720.39	0.619765
722.102	0.72298
723.812	1.14462
725.522	0.815219
727.232	0.985812
728.943	1.0876
730.652	1.09809
732.361	1.04025
734.069	1.07281
735.779	0.65328
737.487	1.22845
739.194	0.991024
740.901	1.09303
742.608	1.01581
744.316	0.444655
746.022	1.18054
747.728	0.88235
749.433	1.19284
751.138	0.649806
752.843	0.850202
754.549	1.34438
756.254	1.36762
757.957	1.23475
759.661	0.517339
761.364	1.15272
763.067	0.796769
764.769	1.04971
766.471	1.50533
768.175	2.34399
769.877	1.80171
771.578	1.23459
773.279	1.07311
774.98	1.1599
776.68	1.36019
778.38	1.78779
780.079	1.47065
781.779	2.05936
783.478	2.42232
785.176	1.58463
786.875	1.94427
788.573	1.48601
790.27	1.72619
791.968	1.85039
793.665	2.08565
795.361	1.66596
797.058	1.36056
798.754	1.39499
800.45	1.09343
802.145	2.30085
803.84	1.43895
805.535	1.65665
807.23	1.85091
808.922	1.81927
810.616	1.65186
812.309	1.5959
814.002	1.92036
815.695	1.61719
817.388	2.4776
819.08	1.28051
820.772	1.91666
822.464	1.65961
824.153	2.02802
825.844	1.59508
827.535	2.23372
829.225	1.93935
830.915	1.33615
832.605	1.33685
834.292	1.42867
835.981	1.83382
837.67	1.59208
839.359	1.39365
841.047	2.1764
842.732	1.23792
844.42	2.0639
846.107	1.54976
847.794	2.37852
849.479	1.55491
851.165	1.18031
852.851	1.2775
854.534	1.44307
856.22	1.78856
857.905	1.3018
859.589	1.28516
861.272	0.703892
862.956	0.818872
864.639	1.51875
866.321	1.65462
868.004	1.67718
869.687	1.09034
871.367	1.49551
873.049	0.862803
874.731	1.10982
876.41	0.521923
878.092	1.76204
879.771	1.26426
881.451	0.653156
883.131	0.96694
884.809	0.692801
886.489	0.914019
888.166	1.49468
889.845	1.01345
891.522	1.07227
893.2	0.949584
894.878	1.18603
896.554	1.19625
898.231	1.20549
899.906	1.52787
901.583	1.24377
903.258	1.09409
904.934	0.519948
906.608	0.550104
908.283	0.915116
909.956	0.834696
911.631	0.732988
913.304	1.56556
914.976	1.30889
916.65	1.0971
918.322	1.06295
919.995	1.16178
921.666	1.08397
923.339	1.22834
925.009	1.10893
926.679	1.0576
928.351	0.853351
930.021	0.606217
931.692	0.734866
933.361	0.775481
935.029	1.36767
936.699	1.16611
938.367	1.31825
940.035	0.65544
941.704	0.721521
943.371	0.457307
945.038	1.49505
946.706	1.42839
948.372	0.852275
950.038	0.804207
951.705	1.461
953.37	0.727924
955.035	0.613991
956.7	1.31841
958.366	0.570249
960.03	0.795062
961.693	0.800717
963.357	0.673683
965.021	0.854642
966.684	1.07757
968.346	1.14308
970.008	1.20657
971.67	0.694082
973.334	0.42541
974.995	0.932025
976.655	0.666265
978.316	0.888442
979.976	0.890085
981.638	0.891389
983.297	1.00215
984.957	0.889745
986.616	0.576249
988.274	0.615295
989.932	0.586818
991.59	0.557758
993.248	0.572731
994.907	0.521523
996.565	0.360171
998.221	0.397417
999.878	0.478483
1001.53	0.140681
1003.19	0.441145
1004.85	0.63093
1006.5	0.468715
1008.16	0.658176
1009.81	0.93543
1011.46	0.883757
1013.12	0.569568
1014.77	1.17606
1016.43	1.01603
1018.08	0.200221
1019.73	0.96058
1021.38	0.0815516
1023.04	0.318748
1024.69	0.600404
1026.34	0.838815
1027.99	0.44356
1029.64	1.33677
1031.29	1.09273
1032.94	1.63323
1034.59	1.77879
1036.24	1.3559
1037.89	2.69738
1039.54	2.38226
1041.19	3.65614
1042.84	3.60379
1044.48	4.87888
1046.13	4.02687
1047.78	3.85078
1049.42	3.54639
1051.07	2.98278
1052.72	2.41991
1054.36	1.70509
1056.01	2.14188
1057.66	1.38291
1059.3	1.12326
1060.94	0.623733
1062.59	1.2759
1064.23	1.03567
1065.88	-0.16204
1067.52	0.400263
1069.16	0.765791
1070.81	0.891525
1072.45	0.235568
1074.09	0.75225
1075.73	0.336781
1077.38	0.529925
1079.02	0.247079
1080.66	0.507056
1082.3	0.463451
1083.94	0.657577
1085.58	0.741776
1087.22	0.412354
1088.86	0.492831
1090.5	0.33358
1092.13	0.173516
1093.77	0.855525
1095.41	0.177118
1097.05	0.470694
1098.68	0.226508
1100.32	0.0272322
1101.96	-0.105632
1103.6	0.430003
1105.23	0.622465
1106.87	-0.0233736
1108.5	0.16938
1110.14	0.404124
1111.77	0.529851
1113.41	0.439169
1115.04	0.411835
1116.67	0.512691
1118.31	0.399098
1119.94	0.564772
1121.58	0.153009
1123.21	0.106446
1124.84	0.467289
1126.47	0.16563
1128.1	0.356646
1129.73	0.697901
1131.37	0.783054
1133	0.184394
1134.63	0.76138
1136.26	0.610978
1137.89	-0.309551
1139.52	0.0510368
1141.14	0.495832
1142.77	0.470249
1144.4	0.359483
1146.03	0.334693
1147.66	0.39603
1149.29	0.266369
1150.91	0.328918
1152.54	0.0933189
1154.17	0.3259
1155.79	-0.442311
1157.42	0.19405
1159.04	-0.0629988
1160.67	-0.106544
1162.3	0.658847
1163.92	0.106842
1165.55	-0.402173
1167.17	-0.273538
1168.79	0.21561
1170.42	-0.104576
1172.04	-0.277499
1173.66	0.270106
1175.28	0.370304
1176.91	-0.12373
1178.53	-0.0660877
1180.15	0.838747
1181.77	0.431665
1183.39	0.363959
1185.01	0.592188
1186.63	0.798172
1188.25	-0.115914
1189.87	0.318913
1191.49	0.119468
1193.11	0.339646
1194.73	0.432489
1196.35	0.231547
1197.97	0.366967
1199.59	-0.207457
1201.2	-0.0891705
1202.82	-0.0522957
1204.44	0.237238
1206.05	-0.0974464
1207.67	0.299328
1209.29	0.550262
1210.9	0.0704451
1212.52	0.756941
1214.13	0.503057
1215.75	0.455656
1217.36	0.614689
1218.97	0.460725
1220.59	0.0163116
1222.2	0.568828
1223.82	0.416956
1225.43	0.47374
1227.04	-0.151037
1228.65	0.17747
1230.26	0.134655
1231.88	0.589013
1233.49	0.341586
1235.1	0.736002
1236.71	0.759508
1238.32	0.370504
1239.93	0.829756
1241.54	0.772329
1243.15	0.818021
1244.76	0.73887
1246.37	0.948468
1247.97	0.701888
1249.58	0.558087
1251.19	0.786396
1252.8	0.53908
1254.41	0.540646
1256.01	1.51534
1257.62	0.753682
1259.23	0.758409
1260.83	1.75755
1262.44	0.790681
1264.04	1.21104
1265.65	0.698807
1267.25	1.05618
1268.86	1.59943
1270.46	0.400135
1272.07	0.692652
1273.67	1.19151
1275.27	1.15035
1276.88	1.58492
1278.48	1.14838
1280.08	0.918641
1281.68	1.24762
1283.28	0.562699
1284.89	0.892116
1286.49	1.3875
1288.09	1.13955
1289.69	0.830572
1291.29	0.935411
1292.89	0.87487
1294.49	0.91697
1296.09	1.61874
1297.69	1.38949
1299.29	1.0557
1300.88	0.535382
1302.48	1.41548
1304.08	1.20236
1305.68	1.27678
1307.27	1.49431
1308.87	1.15717
1310.47	0.964192
1312.06	0.587719
1313.66	0.969378
1315.25	0.983428
1316.85	0.467489
1318.44	1.07497
1320.04	1.35525
1321.63	0.575019
1323.23	1.34142
1324.82	1.0069
1326.41	1.05759
1328.01	0.722384
1329.6	1.36041
1331.19	0.784912
1332.78	1.2229
1334.38	0.995978
1335.97	1.09375
1337.56	1.01045
1339.15	-0.363364
1340.74	1.54643
1342.33	0.834965
1343.92	0.484958
1345.51	1.43969
1347.1	1.22918
1348.69	0.980664
1350.28	0.714875
1351.87	1.01183
1353.46	1.1105
1355.04	1.19036
1356.63	0.4313
1358.22	0.850895
1359.81	0.730186
1361.39	0.588644
1362.98	0.785594
1364.57	0.842421
1366.15	0.879469
1367.74	0.917203
1369.32	0.478271
1370.91	0.996134
1372.49	0.639565
1374.07	0.204491
1375.66	1.0634
1377.24	0.449944
1378.83	0.433001
1380.41	0.216202
1381.99	1.21179
1383.57	0.455611
1385.16	0.434574
1386.74	0.830341
1388.32	0.828699
1389.9	0.84751
1391.48	0.132953
1393.06	0.133666
1394.64	1.02723
1396.22	0.393403
1397.8	0.512568
1399.38	0.155196
1400.96	0.668733
1402.54	0.527971
1404.12	0.486241
1405.7	0.603195
1407.28	0.977761
1408.85	1.05647
1410.43	0.602312
1412.01	1.05674
1413.58	1.03657
1415.16	0.384169
1416.74	1.17124
1418.31	0.715364
1419.89	0.614849
1421.46	1.18486
1423.04	0.732338
1424.61	1.10817
1426.19	0.875026
1427.76	0.721125
1429.33	1.68892
1430.91	1.02219
1432.48	1.55491
1434.05	1.71265
1435.63	0.847164
1437.2	1.90914
1438.77	1.98847
1440.34	1.53814
1441.91	1.28536
1443.49	1.01361
1445.05	1.60698
1446.63	1.41439
1448.2	1.67403
1449.77	1.97331
1451.34	1.56529
1452.91	1.60997
1454.47	1.69439
1456.04	1.30659
1457.61	1.42972
1459.18	1.65009
1460.75	1.45551
1462.31	1.47561
1463.88	1.53343
1465.45	1.57046
1467.01	1.19455
1468.58	1.54581
1470.15	0.896734
1471.71	1.132
1473.28	1.17202
1474.84	0.840183
1476.41	1.25391
1477.97	1.60882
1479.54	0.846267
1481.1	1.69098
1482.66	0.967625
1484.23	0.322742
1485.79	1.04908
1487.35	0.638437
1488.91	0.50096
1490.48	1.37941
1492.04	1.29652
1493.6	0.41082
1495.16	1.59338
1496.72	1.07678
1498.28	0.794762
1499.84	1.01928
1501.4	0.157132
1502.96	0.926932
1504.52	0.494816
1506.08	1.01228
1507.64	0.0390778
1509.2	0.805637
1510.76	0.488813
1512.31	0.942809
1513.87	0.644657
1515.43	0.405076
1516.99	0.28183
1518.54	0.562247
1520.1	0.40205
1521.66	0.529406
1523.21	0.178357
1524.77	0.36198
1526.32	0.773044
1527.88	0.725163
1529.43	-0.311873
1530.99	0.628687
1532.54	-0.0636034
1534.09	0.496551
1535.65	0.318601
1537.2	0.141897
1538.75	0.532438
1540.31	0.111717
1541.86	0.351255
1543.41	0.684343
1544.96	0.132916
1546.51	0.483966
1548.06	0.515173
1549.62	0.752451
1551.17	0.596198
1552.72	0.964499
1554.27	0.884432
1555.82	0.675056
1557.36	0.896878
1558.91	0.803124
1560.46	0.692538
1562.01	0.602108
1563.56	-0.158924
1565.11	0.703688
1566.66	0.801526
1568.2	0.656548
1569.75	0.996498
1571.3	0.757468
1572.84	0.779497
1574.39	0.297375
1575.93	0.431285
1577.48	0.378696
1579.02	0.513156
1580.57	0.928271
1582.11	0.242353
1583.66	0.73376
1585.2	0.983211
1586.75	0.522862
1588.29	0.698201
1589.83	1.19161
1591.38	1.08599
1592.92	1.37307
1594.46	0.967026
1596	0.898013
1597.54	1.11046
1599.09	1.52993
1600.63	0.749887
1602.17	0.945458
1603.71	0.352543
1605.25	0.679037
1606.79	1.73752
1608.33	0.933806
1609.87	0.353477
1611.41	0.541708
1612.95	1.329
1614.48	0.969304
1616.02	1.17232
1617.56	0.869396
1619.1	1.01749
1620.64	0.867189
1622.17	1.01781
1623.71	0.682407
1625.25	1.26436
1626.78	0.890948
1628.32	1.26491
1629.86	0.664871
1631.39	1.03635
1632.92	0.884007
1634.46	0.956112
1635.99	0.394505
1637.53	0.766705
1639.06	1.25105
1640.59	1.43692
1642.13	1.02594
1643.66	1.21016
1645.19	1.0581
1646.73	0.849598
1648.26	1.38437
1649.79	1.30594
1651.32	1.19142
1652.85	1.18946
1654.38	1.24418
1655.92	1.52189
1657.45	1.15087
1658.98	0.686815
1660.51	0.906984
1662.04	1.10708
1663.57	1.49068
1665.09	0.931124
1666.62	1.22172
1668.15	0.775175
1669.68	0.86505
1671.21	0.919335
1672.73	0.753555
1674.26	0.735617
1675.79	0.80955
1677.31	0.588269
1678.84	1.04686
1680.37	0.842121
1681.89	0.783919
1683.42	0.835648
1684.94	0.70386
1686.47	0.920984
1687.99	0.258496
1689.52	0.586294
1691.04	0.181594
1692.57	0.527691
1694.09	0.544141
1695.61	0.798086
1697.14	0.521639
1698.66	-0.266123
1700.18	0.224201
1701.7	0.202782
1703.22	0.217338
1704.75	0.176743
1706.27	0.463325
1707.79	0.331025
1709.31	0.634802
1710.83	0.266646
1712.35	0.00806999
1713.87	0.384181
1715.39	0.270951
1716.91	0.230208
1718.43	0.388208
1719.95	-0.0319653
1721.46	-0.180658
1722.98	-0.0942783
1724.5	0.0468826
1726.02	-0.297197
1727.53	0.0801659
1729.05	0.188213
1730.57	0.064806
1732.08	0.0159035
1733.6	-0.192945
1735.12	-0.00794125
1736.63	-0.149167
1738.15	0.217645
1739.66	0.206146
1741.18	0.419784
1742.69	-0.088623
1744.21	0.0534229
1745.72	0.317819
1747.23	0.224645
1748.74	0.342002
1750.26	0.591143
1751.77	0.440089
1753.28	0.223901
1754.8	-0.342445
1756.31	-0.000821114
1757.82	0.0557299
1759.33	0.0842543
1760.84	0.0489044
1762.35	0.319561
1763.86	0.0832262
1765.37	0.0509605
1766.88	-0.221597
1768.39	-0.0273361
1769.9	0.214342
1771.41	0.309789
1772.92	0.193627
1774.43	0.277947
1775.93	0.367163
1777.44	0.632002
1778.95	0.239356
1780.46	0.358116
1781.96	0.109642
1783.47	0.00541019
1784.98	0.0913916
1786.48	0.00909233
1787.99	0.368991
1789.49	-0.136214
1791	0.0557461
1792.5	0.260073
1794.01	0.375628
1795.51	-0.00123024
1797.02	0.20476
1798.52	-0.124684
1800.03	-0.306393
1801.53	0.175061
1803.03	-0.184029
1804.53	0.391401
1806.04	0.25717
1807.54	0.183781
1809.04	0.289586
1810.54	-0.127023
1812.04	0.0802717
1813.54	0.0513105
1815.05	0.237748
1816.55	0.132585
1818.05	0.00901794
1819.55	0.0331001
1821.05	0.168133
1822.55	0.200912
1824.05	0.0826302
1825.54	0.104864
1827.04	-0.0290518
1828.54	0.0674553
1830.04	0.151481
1831.54	0.381189
1833.03	0.331257
1834.53	0.25733
1836.03	-0.0555897
1837.52	0.436197
1839.02	0.203491
1840.52	-0.0500546
1842.01	0.120544
1843.51	0.55873
1845	0.131557
1846.5	0.0956259
1847.99	0.116646
1849.49	0.3563
1850.98	0.0903492
1852.47	0.288589
1853.97	0.355132
1855.46	0.163448
1856.95	0.324862
1858.45	0.382571
1859.94	0.0159283
1861.43	0.00542164
1862.92	-0.251337
1864.41	0.162181
1865.91	0.0966988
1867.4	0.298874
1868.89	0.39923
1870.38	0.300447
1871.87	0.345193
1873.36	-0.0587931
1874.85	0.0547581
1876.34	0.135552
1877.83	0.174667
1879.31	0.182417
1880.8	0.0292206
1882.29	0.186514
1882.56	0.2246
1884.05	0.188888
1885.54	0.0304995
1887.04	0.289479
1888.53	0.0603237
1890.03	0.0577812
1891.52	0.386574
1893.01	-0.170054
1894.5	0.1096
1895.99	-0.113576
1897.49	0.046524
1898.98	0.102201
1900.47	-0.0170059
1901.96	-0.259433
1903.45	0.192318
1904.94	0.242624
1906.43	-0.15956
1907.92	0.185356
1909.41	0.200719
1910.9	-0.147444
1912.39	-0.199709
1913.88	0.407592
1915.37	-0.112376
1916.86	0.0957041
1918.35	-0.30342
1919.84	0.458179
1921.32	-0.356972
1922.81	0.577625
1924.3	0.110322
1925.78	0.0942659
1927.27	0.0272379
1928.76	0.37632
1930.24	0.223261
1931.73	0.104064
1933.21	0.364492
1934.7	0.173106
1936.18	0.482075
1937.67	0.461073
1939.15	0.0250015
1940.64	0.159597
1942.12	0.398357
1943.6	0.103125
1945.09	-0.139368
1946.57	0.170262
1948.05	0.358848
1949.54	0.0642614
1951.02	0.35444
1952.5	-0.0104227
1953.98	-0.168976
1955.46	0.136575
1956.94	0.0986357
1958.42	-0.0244455
1959.91	-0.421208
1961.39	-0.199862
1962.87	-0.167068
1964.34	-0.0316687
1965.82	0.257273
1967.3	-0.207772
1968.78	0.319205
1970.26	0.00741768
1971.74	0.208244
1973.22	0.0161695
1974.7	-0.00498295
1976.17	0.195624
1977.65	0.447213
1979.13	0.119852
1980.6	0.133089
1982.08	0.503106
1983.56	-0.0279236
1985.03	0.290179
1986.51	0.30229
1987.98	0.297421
1989.46	0.106591
1990.93	-0.0156641
1992.41	0.268982
1993.88	0.537364
1995.36	0.282432
1996.83	0.112541
1998.3	0.364926
1999.78	0.481674
2001.25	0.0746412
2002.72	-0.416785
2004.2	0.238492
2005.67	0.168907
2007.14	0.268498
2008.61	0.200512
2010.08	0.23436
2011.55	0.50434
2013.02	0.202035
2014.49	0.320135
2015.97	0.117812
2017.43	0.301607
2018.9	0.198717
2020.37	0.313857
2021.84	0.244029
2023.31	-0.127547
2024.78	0.0891438
2026.25	0.474497
2027.72	0.626256
2029.19	0.410433
2030.65	0.397108
2032.12	0.166519
2033.59	0.389463
2035.05	0.44461
2036.52	0.449041
2037.98	0.268138
2039.45	0.37251
2040.92	-0.145108
2042.38	0.211735
2043.85	0.0312223
2045.31	-0.0644779
2046.78	0.160268
2048.24	0.368684
2049.71	0.0545397
2051.17	0.329322
2052.63	0.214959
2054.1	0.267566
2055.56	0.267992
2057.02	-0.204828
2058.48	0.349895
2059.95	0.247138
2061.41	0.279539
2062.87	0.581992
2064.33	0.19524
2065.79	0.364833
2067.25	0.383725
2068.71	0.520981
2070.17	-0.0821028
2071.63	0.409009
2073.09	0.19294
2074.55	0.161817
2076.01	0.349308
2077.47	0.519638
2078.93	0.285439
2080.39	0.252913
2081.85	0.472429
2083.3	0.472427
2084.76	0.337121
2086.22	0.470372
2087.68	0.317114
2089.13	0.466124
2090.59	0.581201
2092.05	-0.0761676
2093.5	0.340947
2094.96	0.589674
2096.41	0.737084
2097.87	0.632452
2099.32	0.493917
2100.78	0.773366
2102.23	0.484479
2103.69	0.9315
2105.14	0.478004
2106.59	0.693518
2108.05	0.159335
2109.5	0.926333
2110.95	0.858902
2112.41	0.440347
2113.86	0.270469
2115.31	0.715049
2116.76	0.775699
2118.21	0.703678
2119.67	0.74922
2121.12	0.896056
2122.57	1.11096
2124.02	0.796536
2125.47	1.17919
2126.92	0.467257
2128.37	0.732621
2129.82	0.814278
2131.27	1.10996
2132.71	0.65971
2134.16	1.0371
2135.61	1.26604
2137.06	1.00037
2138.51	1.05059
2139.95	0.970394
2141.4	0.875182
2142.85	0.92984
2144.29	1.13403
2145.74	1.02406
2147.19	1.44353
2148.63	1.13393
2150.08	1.37001
2151.52	1.37325
2152.97	1.39209
2154.42	1.21131
2155.86	1.4443
2157.3	1.26319
2158.75	1.34783
2160.19	1.6657
2161.64	1.45516
2163.08	1.32915
2164.52	1.27081
2165.96	1.67805
2167.41	1.68703
2168.85	1.76146
2170.29	1.23542
2171.73	1.70517
2173.17	1.62412
2174.61	1.35877
2176.06	1.65837
2177.5	1.67541
2178.94	1.4937
2180.38	1.19658
2181.82	1.4157
2183.26	1.50239
2184.7	1.50621
2186.14	1.60993
2187.57	1.28108
2189.01	1.31828
2190.45	1.40542
2191.89	1.22594
2193.33	1.1456
2194.76	1.53018
2196.2	1.51338
2197.64	1.64437
2199.08	1.35783
2200.51	1.20362
2201.95	1.11591
2203.38	1.1119
2204.82	1.02604
2206.25	1.02409
2207.69	1.12204
2209.12	1.20315
2210.56	1.03517
2211.99	1.0153
2213.43	1.06087
2214.86	1.40357
2216.3	1.15218
2217.73	0.737201
2219.16	1.04934
2220.59	0.603716
2222.03	0.78474
2223.46	0.602534
2224.89	0.863818
2226.32	0.695364
2227.75	0.755816
2229.19	0.634316
2230.62	0.495966
2232.05	0.144722
2233.48	0.972999
2234.91	0.819164
2236.34	0.748406
2237.77	0.287444
2239.2	0.399783
2240.63	0.513816
2242.06	0.450014
2243.48	0.860315
2244.91	0.47172
2246.34	0.555525
2247.77	0.686792
2249.2	0.34325
2250.62	1.25248
2252.05	0.221696
2253.48	0.574248
2254.9	0.585254
2256.33	0.597579
2257.76	0.384884
2259.18	0.726469
2260.61	0.275698
2262.03	0.118995
2263.46	0.743095
2264.88	0.393104
2266.31	0.107412
2267.73	0.357587
2269.16	0.411861
2270.58	0.644524
2272	0.632603
2273.43	0.164502
2274.85	0.282714
2276.27	0.743326
2277.69	0.422025
2279.12	0.508171
2280.54	0.219253
2281.96	0.452021
2283.38	0.358525
2284.8	0.134474
2286.22	0.07373
2287.64	0.421469
2289.07	0.27982
2290.49	0.105734
2291.91	0.176954
2293.32	-0.0133367
2294.74	0.254315
2296.16	0.358433
2297.58	0.282458
2299	0.206463
2300.42	0.0486212
2301.84	0.169632
2303.26	-0.0863328
2304.67	0.0843525
2306.09	0.353687
2307.51	-0.0507064
2308.92	-0.0285387
2310.34	0.0260353
2311.76	0.623124
2313.17	-0.0464163
2314.59	0.320924
2316	-0.150612
2317.42	0.16888
2318.83	-0.0878711
2320.25	0.199179
2321.66	0.205012
2323.08	0.0111418
2324.49	-0.102233
2325.91	0.458952
2327.32	0.539976
2328.73	0.653192
2330.15	0.634698
2331.56	0.649978
2332.97	-0.0249534
2334.38	0.35428
2335.79	-0.00672007
2337.21	-0.0883579
2338.62	0.355303
2340.03	0.0745521
2341.44	0.0396209
2342.85	-0.0121069
2344.26	0.083806
2345.67	-0.262664
2347.08	0.0139318
2348.49	-0.00442982
2349.9	0.30406
2351.31	-0.107804
2352.72	0.329425
2354.13	0.373419
2355.53	0.204818
2356.94	0.0688419
2358.35	-0.00180674
2359.76	-0.0559473
2361.17	-0.207273
2362.57	-0.0988941
2363.98	0.122529
2365.39	0.246367
2366.79	0.192339
2368.2	-0.0870748
2369.6	-0.0747285
2371.01	-0.0935206
2372.42	0.243262
2373.82	0.226323
2375.22	0.225825
2376.63	0.0158315
2378.03	0.0623899
2379.44	0.123616
2380.84	0.151179
2382.25	0.321754
2383.65	0.0747581
2385.05	-0.123855
2386.45	0.0378289
2387.86	0.199921
2389.26	-0.0119419
2390.66	-0.0152497
2392.06	-0.00163317
2393.46	-0.0189943
2394.87	-0.433229
2396.27	0.0755315
2397.67	0.0282335
2399.07	0.203903
2400.47	-0.0807629
2401.87	0.460876
2403.27	0.25597
2404.67	0.336607
2406.07	-0.0597777
2407.47	-0.250405
2408.86	0.0818443
2410.26	0.159861
2411.66	-0.0471754
2413.06	0.300951
2414.46	0.444161
2415.85	0.177049
2417.25	0.196079
2418.65	0.120897
2420.05	-0.001513
2421.44	-0.124082
2422.84	0.14908
2424.23	0.105178
2425.63	0.0771723
2427.03	0.097158
2428.42	0.213021
2429.82	0.187053
2431.21	0.367947
2432.6	0.0887551
2434	0.126492
2435.39	0.290359
2436.79	0.389429
2438.18	-0.0689316
2439.57	-0.0358481
2440.97	0.107607
2442.36	0.425118
2443.75	0.123288
2445.14	-0.273616
2446.54	0.296797
2447.93	-0.258559
2449.32	-0.0847878
2450.71	0.532353
2452.1	0.104889
2453.49	0.327116
2454.88	0.0437574
2456.27	-0.0332894
2457.66	0.237933
2459.05	0.461523
2460.44	-0.0429182
2461.83	0.226862
2463.22	-0.0415859
2464.61	-0.294532
2466	-0.105333
2467.39	-0.153153
2468.77	0.256587
2470.16	0.460749
2471.55	-0.123823
2472.94	-0.0309386
2474.32	0.234333
2475.71	0.0582166
2477.1	0.0549464
2478.48	0.192979
2479.87	0.236786
2481.25	0.155238
2482.64	0.324426
2484.02	-0.117586
2485.41	0.238042
2486.8	-0.0485597
2488.18	0.132671
2489.56	0.219314
2490.95	0.0254674
2492.33	0.190081
2493.72	0.153399
2495.1	-0.362914
2496.48	0.0216727
2497.86	0.205047
2499.25	0.218135
2500.63	0.0917034
2502.01	-0.514307
2503.39	-0.00834322
2504.77	0.0794148
2506.16	0.0123816
2507.54	0.0222445
2508.92	-0.06004
2510.3	0.0271411
2511.68	0.0840101
2513.06	-0.0884767
2514.44	0.0157409
2515.82	0.181775
2517.2	0.409452
2518.58	-0.0659132
2519.95	0.0247436
2521.33	-0.0223784
2522.71	-0.161583
2524.09	-0.270794
2525.47	-0.182305
2526.84	0.0733271
2528.22	0.313688
2529.6	0.0529017
2530.98	0.112931
2532.35	-0.327052
2533.73	-0.0517068
2535.11	0.0418887
2536.48	0.241775
2537.86	0.106855
2539.23	0.016715
2540.61	0.199208
2541.98	0.275032
2543.36	0.32071
2544.73	0.321616
2546.1	0.323609
2547.48	-0.14355
2548.85	0.0877719
2550.23	-0.0297966
2551.6	-0.102279
2552.97	0.127993
2554.34	-0.355858
2555.72	-0.021008
2557.09	-0.0507989
2558.46	0.0709538
2559.83	0.101916
2561.2	0.118166
2562.58	0.165269
2563.95	0.288638
2565.32	0.200221
2566.69	0.354488
2568.06	0.0693421
2569.43	-0.124886
2570.8	-0.000840664
2572.17	0.274829
2573.54	-0.025424
2574.91	0.447511
2576.27	-0.125567
2577.64	0.104801
2579.01	0.0165777
2580.38	0.534581
2581.75	-0.418572
2583.11	0.326168
2584.48	0.0245376
2585.85	0.101885
2587.21	0.0883784
2588.58	-0.0462093
2589.95	0.39519
2591.31	0.0029707
2592.68	0.0346789
2594.04	-0.0251994
2595.41	0.262389
2596.78	0.155313
2598.14	-0.0128417
2599.51	-0.181114
2600.87	0.14953
2602.23	0.46514
2603.6	0.101761
2604.96	0.538903
2606.32	-0.0196671
2607.69	0.281368
2609.05	0.0237703
2610.41	0.217286
2611.77	0.0481882
2613.14	0.0738616
2614.5	0.369214
2615.86	0.318618
2617.22	-0.166376
2618.58	-0.0209317
2619.94	0.0351276
2621.3	-0.0129485
2622.67	0.0889025
2624.03	0.0414863
2625.39	0.083622
2626.75	-0.00872231
2628.1	0.0775962
2629.46	0.461317
2630.82	0.159882
2632.18	0.0966864
2633.54	0.0929708
2634.9	-0.0146575
2636.26	0.159628
2637.61	0.0669031
2638.97	0.0780139
2640.33	0.39992
2641.69	0.351987
2643.04	0.0975513
2644.4	0.360305
2645.76	0.312826
2647.11	0.058681
2648.47	0.290406
2649.82	-0.0823178
2651.18	0.206641
2652.53	0.0395017
2653.89	0.0636163
2655.24	0.366813
2656.6	0.231092
2657.95	0.184382
2659.31	-0.0516787
2660.66	0.429284
2662.01	-0.157189
2663.37	0.0159726
2664.72	0.261219
2666.07	-0.340461
2667.43	0.195123
2668.78	0.234682
2670.13	-0.0893216
2671.48	-0.136156
2672.83	0.427852
2674.18	0.0623479
2675.53	0.205723
2676.89	0.0592904
2678.24	-0.0284567
2679.59	-0.202454
2680.94	-0.433529
2682.29	0.365745
2683.64	0.151153
2684.99	0.256383
2686.34	0.187957
2687.68	0.162871
2689.03	0.136765
2690.38	-0.137568
2691.73	-0.224637
2693.08	0.15138
2694.43	-0.0102768
2695.77	0.0599737
2697.12	0.130681
2698.47	-0.0871916
2699.81	-0.100878
2701.16	-0.24347
2702.51	0.324844
2703.85	0.169909
2705.2	0.0442719
2706.54	-0.0379357
2707.89	0.213319
2709.23	0.29024
2710.58	0.337842
2711.92	0.1964
2713.27	0.0256853
2714.61	0.145521
2715.96	-0.0254264
2717.3	0.18156
2718.64	0.097476
2719.99	-0.103364
2721.33	0.204721
2722.67	0.279593
2724.01	0.15029
2725.36	0.166169
2726.7	0.356387
2728.04	0.255229
2729.38	0.226646
2730.72	0.125196
2732.06	0.227426
2733.41	0.227874
2734.75	-0.0188003
2736.09	-0.047102
2737.43	0.113778
2738.77	0.201905
2740.11	0.217095
2741.44	0.406356
2742.78	0.391469
2744.12	0.114395
2745.46	0.374492
2746.8	0.0241194
2748.14	-0.0793552
2749.48	-0.0811381
2750.81	0.178295
2752.15	-0.0406804
2753.49	0.0595307
2754.83	-0.0719905
2756.16	0.245676
2757.5	0.0854702
2758.84	0.012423
2760.17	-0.00237799
2761.51	0.200292
2762.84	0.388853
2764.18	-0.131325
2765.51	0.260035
2766.85	0.0722642
2768.18	0.418939
2769.52	0.214854
2770.85	-0.163701
2772.19	-0.254071
2773.52	-0.0276875
2774.85	0.154613
2776.19	0.365366
2777.52	0.0148182
2778.85	-0.176524
2780.18	0.322591
2781.52	0.246882
2782.85	0.0708861
2784.18	-0.0618973
2785.51	0.0061245
2786.84	0.0598941
2788.17	-0.000494003
2789.51	-0.103092
2790.84	-0.0761471
2792.17	0.108696
2793.5	-0.163611
2794.83	0.0358591
2796.16	0.306391
2797.48	0.0478029
2798.81	-0.425238
2800.14	-0.027648
2801.47	-0.0871229
2802.8	0.26678
2804.13	-0.277682
2805.46	0.274749
2806.79	-0.0849309
2808.11	-0.0464005
2809.44	0.105422
2810.77	-0.254181
2812.09	0.125152
2813.42	-0.289271
2814.75	-0.0216341
2816.07	0.261208
2817.4	-0.0645413
2818.73	0.418099
2820.05	0.177886
2821.38	-0.119386
2822.7	0.178032
2824.03	-0.19107
2825.35	0.0346298
2826.67	0.175289
2828	-0.278326
2829.32	-0.108467
2830.65	0.0617375
2831.97	0.302875
2833.29	0.105139
2834.62	0.416696
2835.94	-0.0930457
2837.26	0.00536728
2838.58	0.0185142
2839.9	0.328467
2841.23	0.468688
2842.55	0.552655
2843.87	0.580609
2845.19	0.439573
2846.51	0.680622
2847.83	0.936115
2849.15	0.908967
2850.47	0.853295
2851.79	0.585203
2853.11	0.867904
2854.43	0.938265
2855.75	1.05084
2857.07	0.894965
2858.39	0.583812
2859.71	0.66816
2861.02	0.921782
2862.34	0.963295
2863.66	0.976265
2864.98	0.989018
2866.3	0.973536
2867.61	0.986472
2868.93	1.49324
2870.25	1.42217
2871.56	1.67544
2872.88	1.39285
2874.19	1.26478
2875.51	1.30497
2876.83	1.21756
2878.14	1.45325
2879.46	1.54784
2880.77	1.29118
2882.09	1.4288
2883.4	1.46882
2884.71	1.24279
2886.03	1.21386
2887.34	1.32533
2888.65	1.53463
2889.97	1.50473
2891.28	1.60039
2892.59	1.59739
2893.91	1.28608
2895.22	1.46542
2896.53	1.8132
2897.84	1.53191
2899.15	1.78317
2900.46	1.78318
2901.78	2.27315
2903.09	1.95194
2904.4	2.14839
2905.71	1.53381
2907.02	2.16452
2908.33	2.04056
2909.64	2.19705
2910.95	2.32605
2912.26	2.81903
2913.57	2.35956
2914.87	2.43093
2916.18	2.68293
2917.49	2.40177
2918.8	2.79157
2920.11	2.80337
2921.42	3.06739
2922.72	3.06667
2924.03	2.60581
2925.34	2.90066
2926.64	3.19602
2927.95	3.43551
2929.26	3.47899
2930.56	3.43813
2931.87	3.31302
2933.17	3.2017
2934.48	3.20219
2935.78	3.37049
2937.09	3.39915
2938.39	3.49782
2939.7	2.96791
2941	3.05325
2942.31	3.05543
2943.61	3.05857
2944.91	3.11871
2946.22	2.87216
2947.52	3.15755
2948.82	3.03706
2950.13	2.94354
2951.43	2.91856
2952.73	3.07408
2954.03	2.54238
2955.33	2.57048
2956.64	2.33336
2957.94	2.43378
2959.24	2.36837
2960.54	2.15098
2961.84	2.32742
2963.14	2.01368
2964.44	1.89557
2965.74	2.26792
2967.04	1.95068
2968.34	1.70248
2969.64	1.72074
2970.94	1.82331
2972.24	1.98245
2973.53	1.53681
2974.83	1.61174
2976.13	1.57358
2977.43	1.66113
2978.73	1.62062
2980.02	1.90249
2981.32	1.26849
2982.62	1.52066
2983.91	1.44953
2985.21	1.18257
2986.51	0.973124
2987.8	1.22855
2989.1	0.810241
2990.4	0.771528
2991.69	0.943251
2992.99	0.776854
2994.28	0.483064
2995.57	0.834674
2996.87	0.904636
2998.16	0.609505
2999.46	0.70758
3000.75	0.455467
3002.05	0.302108
3003.34	0.583546
3004.63	0.318574
3005.92	0.445654
3007.22	-0.0857587
3008.51	0.152181
3009.8	0.235352
3011.09	0.723003
3012.39	0.218316
3013.68	0.37007
3014.97	-0.0217175
3016.26	0.144807
3017.55	0.0889621
3018.84	0.00575542
3020.13	-0.132934
3021.42	0.242427
3022.71	0.102717
3024	0.00406456
3025.29	0.223841
3026.58	-0.0832748
3027.87	-0.0711784
3029.16	0.121515
3030.45	0.0664492
3031.73	-0.0149837
3033.02	-0.17834
3034.31	0.127869
3035.6	0.102329
3036.89	0.0205941
3038.17	0.199262
3039.46	-0.105599
3040.75	-0.0811548
3042.03	0.0934777
3043.32	0.10312
3044.61	-0.0644975
3045.89	-0.107328
3047.18	0.138531
3048.46	-0.0645638
3049.75	0.116372
3051.03	0.0801816
3052.32	-0.269181
3053.6	-0.154583
3054.89	0.0276966
3056.17	0.277232
3057.45	0.0758266
3058.74	-0.0715175
3060.02	0.3938
3061.31	-0.0664296
3062.59	-0.0765605
3063.87	0.118368
3065.15	-0.0525928
3066.44	-0.0864635
3067.72	-0.11954
3069	0.378042
3070.28	0.168292
3071.56	-0.0149884
3072.84	-0.0904241
3074.13	0.145853
3075.41	0.0279036
3076.69	-0.0901861
3077.97	-0.153522
3079.25	-0.16167
3080.53	0.211201
3081.81	0.0426989
3083.09	0.0515766
3084.37	0.0881491
3085.64	-0.214507
3086.92	0.0253248
3088.2	0.0745864
3089.48	-0.107442
3090.76	0.158009
3092.04	-0.146547
3093.31	-0.342334
3094.59	0.0724378
3095.87	0.297468
3097.14	0.102254
3098.42	-0.0522728
3099.7	0.131911
3100.97	-0.198817
3102.25	-0.0959525
3103.53	-0.019989
3104.8	-0.160204
3106.08	-0.137371
3107.35	0.332774
3108.63	-0.035265
3109.9	-0.05059
3111.18	-0.200528
3112.45	0.300224
3113.73	-0.011332
3115	0.191991
3116.27	-0.0117512
3117.55	0.0820928
3118.82	0.1344
3120.09	0.0230575
3121.37	-0.2381
3122.64	-0.0523057
3123.91	0.241556
3125.18	0.115577
3126.45	-0.253515
3127.73	0.311631
3129	0.241175
3130.27	0.360352
3131.54	0.195694
3132.81	0.247231
3134.08	0.39297
3135.35	0.497638
3136.62	0.210453
3137.89	0.422053
3139.16	0.242376
3140.43	0.130163
3141.7	0.166116
3142.97	0.135091
3144.24	0.426723
3145.51	0.544016
3146.78	0.474065
3148.04	0.244011
3149.31	0.215558
