200.388	2.07468
202.204	2.11453
204.019	2.15749
205.832	2.49475
207.646	1.59285
209.459	1.49293
211.274	1.56114
213.087	1.09268
214.899	0.816807
216.711	0.588783
218.524	1.49977
220.335	1.346
222.146	1.21881
223.956	0.537849
225.766	0.608122
227.576	1.30683
229.388	1.13517
231.197	2.5073
233.005	1.07925
234.813	0.762575
236.621	0.689899
238.429	0.742197
240.236	0.775723
242.045	0.50079
243.852	0.0838375
245.658	1.33193
247.464	0.21199
249.269	-0.0444565
251.074	0.441408
252.879	-0.0680904
254.683	0.939083
256.487	0.859354
258.291	-0.158466
260.094	-0.0880566
261.897	0.998013
263.702	-0.0322933
265.504	0.288696
267.306	0.490145
269.108	1.05274
270.909	0.432581
272.71	0.316339
274.511	0.703608
276.311	0.436646
278.111	-0.098938
279.91	0.542152
281.709	-0.410217
283.508	0.486975
285.306	0.298445
287.105	0.0606728
288.9	0.254892
290.698	-0.172611
292.495	0.38455
294.291	0.0351009
296.088	-0.191433
297.884	-0.248291
299.679	-0.112925
301.475	-0.264568
303.27	0.107557
305.064	0.190542
306.858	1.22556
308.652	1.25768
310.444	-0.281742
312.237	1.11197
314.03	0.508038
315.822	1.59856
317.615	1.3594
319.406	1.59981
321.198	1.5569
322.987	1.18167
324.778	2.45341
326.568	1.72134
328.358	1.05951
330.148	1.51904
331.935	1.01982
333.724	1.52158
335.513	1.51657
337.301	1.45883
339.089	0.39184
340.875	0.278778
342.662	1.67003
344.449	0.57486
346.236	1.03397
348.02	0.706116
349.806	0.212328
351.592	0.387068
353.375	0.0594578
355.16	0.326313
356.944	0.566429
358.728	-0.602449
360.51	1.06169
362.294	-0.0389347
364.077	0.738993
365.858	-0.434059
367.64	0.71949
369.422	1.01535
371.202	1.02448
372.983	1.26865
374.764	2.33851
376.543	4.25576
378.324	4.04763
380.102	5.65592
381.881	5.2634
383.661	6.05068
385.438	6.11144
387.216	6.36323
388.993	6.42973
390.771	5.81763
392.548	5.01985
394.324	5.13947
396.101	4.5085
397.875	3.64277
399.651	3.43418
401.425	2.6138
403.201	1.97989
404.974	2.07239
406.749	1.22389
408.524	1.64211
410.296	2.36445
412.07	1.60794
413.841	1.7206
415.614	0.989904
417.385	1.19927
419.156	1.38641
420.928	0.916885
422.698	0.376194
424.469	0.984282
426.238	0.346197
428.009	-0.0119076
429.777	0.497408
431.548	0.65436
433.315	1.02295
435.083	0.406357
436.852	0.658014
438.618	0.532703
440.387	-0.0412979
442.153	0.084753
443.919	-0.239006
445.686	0.113308
447.451	-0.30986
449.218	0.0616856
450.982	0.198923
452.746	0.149652
454.512	-0.482372
456.275	0.238274
458.038	-0.207083
459.803	0.0695992
461.565	-0.118124
463.327	0.557058
465.091	0.887655
466.852	-0.147215
468.613	0.54258
470.374	0.259895
472.136	1.09503
473.896	0.555956
475.655	1.01437
477.415	0.233906
479.176	0.451199
480.934	0.573111
482.692	1.16085
484.45	0.492992
486.21	1.50592
487.967	1.07879
489.724	0.701845
491.481	1.54014
493.237	1.91389
494.995	1.84437
496.75	1.51693
498.506	1.25848
500.26	1.77238
502.015	2.80207
503.771	2.21074
505.525	3.07323
507.279	3.25167
509.032	3.63849
510.785	4.42182
512.537	5.24863
514.289	5.3423
516.041	5.78537
517.793	5.44905
519.546	5.90965
521.297	6.13287
523.047	4.99248
524.797	5.44872
526.547	4.19179
528.297	4.27264
530.046	3.65002
531.795	3.84687
533.543	3.24574
535.291	2.82987
537.039	2.83217
538.787	2.76125
540.534	1.80156
542.281	1.37798
544.027	1.34998
545.773	1.8098
547.519	0.876205
549.264	1.35929
551.01	1.84163
552.754	1.00468
554.499	0.932337
556.243	0.398886
557.987	0.305286
559.73	1.80244
561.474	0.512594
563.216	0.652008
564.959	0.286583
566.701	1.07133
568.441	-0.393234
570.182	0.692734
571.923	-0.238354
573.664	0.875509
575.405	0.0198803
577.145	0.475067
578.885	-0.0999012
580.624	0.520342
582.361	0.566931
584.1	1.78495
585.839	-0.148932
587.577	0.719995
589.315	0.183321
591.052	0.311844
592.787	1.45156
594.524	0.566156
596.26	1.24524
597.997	1.6711
599.732	1.54403
601.466	0.633116
603.201	1.76677
604.936	1.93103
606.67	0.920404
608.403	1.21809
610.136	1.12479
611.87	1.00949
613.603	0.597744
615.334	0.39394
617.067	0.442612
618.799	0.0779915
620.529	0.238081
622.26	0.281082
623.991	0.482216
625.72	0.568695
627.451	0.839594
629.181	0.748896
630.909	2.10044
632.638	1.1743
634.368	1.30007
636.095	0.32962
637.823	0.200306
639.551	0.0429592
641.277	-0.00599289
643.005	-0.0369854
644.73	0.157171
646.457	0.237558
648.184	0.54859
649.908	0.342749
651.634	-0.537256
653.357	-0.296463
655.083	-0.708714
656.806	0.430973
658.53	0.572069
660.253	0.53019
661.977	-0.17709
663.7	-0.0214691
665.422	0.44968
667.145	0.665703
668.865	-0.514996
670.588	0.706877
672.308	-0.355196
674.027	-0.955805
675.749	0.257339
677.468	0.259302
679.188	0.192759
680.907	-0.0136871
682.627	0.328236
684.345	0.36717
686.064	0.517254
687.781	0.27268
689.498	0.00279999
691.216	-0.49896
692.932	0.218918
694.65	0.727903
696.366	0.682112
698.081	-0.355944
699.797	0.399139
701.512	0.806211
703.228	0.912008
704.942	0.166401
706.655	1.00437
708.371	1.03749
710.083	0.748966
711.796	0.986717
713.51	1.01746
715.222	1.84759
716.934	0.849464
718.645	0.902615
720.358	1.0471
722.068	1.32831
723.779	1.38159
725.49	0.979809
727.2	1.53213
728.909	0.834473
730.618	1.18005
732.329	1.45614
734.037	0.780979
735.745	0.943531
737.453	0.587061
739.16	1.5636
740.869	1.30054
742.576	0.792547
744.282	2.49418
745.988	1.40664
747.694	1.44758
749.401	2.21096
751.107	1.67241
752.811	1.74383
754.516	1.95308
756.22	3.4483
757.924	3.97998
759.627	4.15508
761.332	4.15268
763.035	6.34018
764.738	7.28857
766.44	8.3711
768.142	9.63096
769.843	9.93616
771.544	10.7559
773.245	11.1192
774.946	10.2827
776.646	10.5782
778.346	9.43003
780.046	9.55226
781.745	9.54197
783.444	6.68075
785.143	6.16952
786.841	6.12804
788.539	4.92489
790.237	4.30323
791.934	3.94743
793.631	2.59499
795.328	2.41744
797.024	1.74615
798.72	2.58819
800.416	2.0824
802.112	1.7826
803.807	2.18171
805.502	1.27641
807.196	1.8309
808.89	2.5172
810.584	1.47219
812.278	1.70499
813.971	1.28648
815.664	1.40543
817.354	1.85966
819.047	1.53099
820.739	1.85079
822.43	2.14852
824.122	1.66702
825.813	0.475872
827.503	1.13872
829.192	1.13846
830.882	2.03503
832.571	1.31148
834.261	1.77306
835.95	0.497644
837.637	1.38529
839.325	0.909672
841.013	1.45811
842.701	1.49032
844.389	0.426544
846.074	1.75515
847.761	2.03719
849.447	1.87707
851.131	1.78909
852.817	0.853319
854.503	1.37608
856.188	1.06872
857.871	1.61302
859.556	1.74997
861.24	1.18544
862.922	0.707121
864.606	0.834335
866.289	1.18525
867.97	1.06157
869.653	0.440767
871.336	0.992119
873.016	0.640873
874.698	0.627853
876.379	0.456924
878.058	0.805162
879.739	-0.0655937
881.418	1.63639
883.098	0.266886
884.778	0.927038
886.456	0.523518
888.135	0.342754
889.812	0.790501
891.49	0.941776
893.167	1.06768
894.845	0.470919
896.523	0.794794
898.198	0.509727
899.875	0.986061
901.55	0.518694
903.226	0.073679
904.901	0.67985
906.576	0.459036
908.25	0.998085
909.925	0.134663
911.598	0.632027
913.271	0.663136
914.945	0.49511
916.617	0.105774
918.291	0.404102
919.962	0.790718
921.635	0.624672
923.306	0.881222
924.978	0.522192
926.648	0.123201
928.318	0.544657
929.989	0.527132
931.659	0.511141
933.328	0.341389
934.998	0.017683
936.666	-0.0844994
938.336	0.763393
940.004	0.224333
941.671	0.437696
943.34	-0.406401
945.007	0.40431
946.673	0.37438
948.339	0.0759792
950.007	0.766983
951.672	-0.24369
953.337	0.643066
955.004	0.165306
956.669	-0.0201759
958.333	0.330206
959.997	0.179071
961.662	-0.322325
963.326	-0.64761
964.989	-0.66675
966.651	0.503746
968.315	-0.477188
969.977	0.772213
971.639	1.53271
973.301	0.900597
974.962	0.890827
976.624	0.531044
978.285	0.727415
979.945	0.516079
981.605	0.303989
983.264	1.51709
984.924	1.90719
986.583	1.73939
988.243	1.39078
989.901	0.177395
991.56	0.975109
993.217	0.578838
994.875	0.75721
996.532	0.362074
998.188	1.90777
999.845	2.2833
1001.5	3.64857
1003.16	3.36055
1004.81	2.91826
1006.47	1.88302
1008.12	1.72797
1009.78	2.84666
1011.43	3.17543
1013.09	3.63643
1014.74	3.02459
1016.39	3.77173
1018.05	3.81916
1019.7	4.15285
1021.35	5.27595
1023	5.59249
1024.65	6.4141
1026.31	8.70125
1027.96	8.58461
1029.61	9.27467
1031.26	8.47589
1032.91	8.91758
1034.56	8.85231
1036.21	9.32821
1037.86	6.85996
1039.51	7.46461
1041.16	6.39524
1042.8	6.56983
1044.45	5.64079
1046.1	5.08678
1047.75	4.6682
1049.39	3.75436
1051.04	2.95215
1052.69	3.91139
1054.33	3.06851
1055.98	2.48616
1057.62	2.59865
1059.27	2.47097
1060.91	2.88548
1062.56	2.49376
1064.2	1.86084
1065.85	1.89973
1067.49	1.76237
1069.13	1.86194
1070.77	3.15439
1072.42	2.70886
1074.06	3.50162
1075.7	2.71284
1077.34	3.55411
1078.98	3.74768
1080.62	4.9407
1082.27	5.89529
1083.91	6.58745
1085.55	5.43267
1087.18	5.98526
1088.82	7.22476
1090.46	6.81332
1092.1	7.24242
1093.74	6.09273
1095.38	5.35565
1097.02	5.95852
1098.65	5.25001
1100.29	5.08519
1101.93	3.50523
1103.56	2.55461
1105.2	3.26381
1106.84	2.92049
1108.47	1.97456
1110.11	1.62864
1111.74	1.83833
1113.38	1.16349
1115.01	2.44028
1116.64	2.21226
1118.28	1.34168
1119.91	1.39501
1121.54	1.92163
1123.18	1.20884
1124.81	1.39749
1126.44	1.26719
1128.07	2.67844
1129.7	1.28996
1131.33	0.972153
1132.97	1.70265
1134.6	0.936558
1136.23	0.682325
1137.86	0.703821
1139.49	1.21406
1141.11	1.03849
1142.74	0.264507
1144.37	0.728619
1146	0.191826
1147.63	-0.321142
1149.26	0.574242
1150.88	-0.489277
1152.51	0.236626
1154.14	0.471872
1155.76	0.408222
1157.39	0.833723
1159.01	1.11087
1160.64	0.496647
1162.27	0.671778
1163.89	-0.320244
1165.51	1.07026
1167.14	0.738157
1168.76	-0.233845
1170.39	0.087635
1172.01	0.851021
1173.63	0.569429
1175.25	0.476501
1176.88	0.658184
1178.5	0.903564
1180.12	0.599756
1181.74	0.721416
1183.36	0.992481
1184.98	0.777491
1186.6	0.0963478
1188.22	0.78434
1189.84	1.27719
1191.46	0.459515
1193.08	1.34373
1194.7	1.40486
1196.32	0.899767
1197.94	0.816833
1199.55	0.633284
1201.17	0.977568
1202.79	1.32714
1204.41	1.05602
1206.02	0.831615
1207.64	1.2153
1209.25	0.765285
1210.87	0.835243
1212.48	1.36033
1214.1	1.005
1215.71	0.853561
1217.33	1.55141
1218.94	2.26638
1220.56	2.54362
1222.17	0.893148
1223.79	1.75566
1225.4	2.26819
1227.01	1.37642
1228.62	1.31605
1230.23	2.49912
1231.85	2.09259
1233.46	3.13573
1235.07	3.0036
1236.68	2.35756
1238.29	3.24354
1239.9	2.49798
1241.51	2.72469
1243.12	2.33021
1244.73	2.78231
1246.34	2.03208
1247.94	2.33496
1249.55	2.61544
1251.16	3.39164
1252.77	2.78226
1254.37	2.02982
1255.98	3.14139
1257.59	2.99409
1259.2	2.89081
1260.8	3.90733
1262.41	2.7722
1264.01	3.04501
1265.62	2.73695
1267.22	2.6137
1268.83	2.98592
1270.43	2.52659
1272.03	3.06018
1273.64	3.25971
1275.24	4.09953
1276.85	3.79708
1278.45	2.99578
1280.05	2.93917
1281.65	3.95819
1283.25	3.71459
1284.85	3.74128
1286.46	3.8734
1288.06	3.84255
1289.66	3.87588
1291.26	3.49723
1292.86	3.73839
1294.46	4.65962
1296.06	4.2351
1297.66	3.82784
1299.25	4.4694
1300.85	4.38502
1302.45	3.84469
1304.05	4.66142
1305.65	3.25447
1307.24	3.20478
1308.84	3.48281
1310.43	4.96942
1312.03	3.44434
1313.63	4.0511
1315.22	3.35127
1316.82	4.14531
1318.41	3.30732
1320.01	3.65291
1321.6	3.38493
1323.2	3.76531
1324.79	2.90107
1326.38	3.5584
1327.98	4.21275
1329.57	2.74052
1331.16	3.11575
1332.76	3.37386
1334.35	2.7684
1335.94	2.99476
1337.53	3.46425
1339.12	3.08533
1340.71	2.7437
1342.3	3.36401
1343.89	2.22988
1345.48	2.36082
1347.07	1.93007
1348.66	2.98608
1350.25	2.48441
1351.84	2.60908
1353.43	1.91845
1355.01	2.2905
1356.6	1.6042
1358.19	1.89633
1359.77	1.38758
1361.36	1.97486
1362.95	1.94136
1364.53	1.42869
1366.12	2.35166
1367.71	1.74192
1369.29	0.856569
1370.88	1.30803
1372.46	2.16015
1374.04	2.17884
1375.63	2.61689
1377.21	1.76184
1378.8	1.62217
1380.38	0.863651
1381.96	0.580238
1383.54	1.38815
1385.13	1.73621
1386.71	0.513445
1388.29	0.920477
1389.87	0.951326
1391.45	1.42052
1393.03	0.700834
1394.61	1.54919
1396.19	1.34591
1397.77	0.962959
1399.35	1.01424
1400.93	1.02395
1402.51	-0.0166569
1404.09	1.95092
1405.67	0.911877
1407.24	2.22759
1408.82	1.27191
1410.4	1.18707
1411.98	1.87238
1413.55	1.68754
1415.13	1.38261
1416.71	1.51013
1418.28	2.24767
1419.86	2.49256
1421.43	2.48345
1423.01	2.65483
1424.58	2.7903
1426.16	3.06629
1427.73	3.50101
1429.31	3.54158
1430.88	4.17067
1432.45	4.9938
1434.02	4.55521
1435.6	5.76782
1437.17	5.95775
1438.74	5.02888
1440.31	4.53506
1441.88	6.46081
1443.45	4.65415
1445.03	6.24844
1446.6	5.60264
1448.17	5.17331
1449.74	5.94375
1451.3	5.96829
1452.87	4.75514
1454.44	5.19471
1456.01	5.26061
1457.58	5.20706
1459.15	4.71769
1460.72	3.90962
1462.28	4.94713
1463.85	4.95757
1465.42	4.04167
1466.98	3.06697
1468.55	3.38985
1470.12	2.85081
1471.68	3.2562
1473.25	3.25175
1474.81	2.89605
1476.38	2.83546
1477.94	2.34384
1479.51	2.55787
1481.07	2.14446
1482.63	2.59325
1484.2	2.27747
1485.76	2.17661
1487.32	2.38763
1488.88	2.34133
1490.45	1.56736
1492.01	1.96319
1493.57	1.51399
1495.13	2.27176
1496.69	1.8368
1498.25	1.57755
1499.81	1.18397
1501.37	0.541033
1502.93	1.25932
1504.49	0.718596
1506.05	0.431095
1507.61	1.18736
1509.17	0.819614
1510.73	0.546961
1512.28	0.697281
1513.84	0.134314
1515.4	0.380432
1516.96	0.26227
1518.51	0.337605
1520.07	0.528889
1521.63	0.911554
1523.18	1.06345
1524.74	1.00352
1526.29	1.51383
1527.85	1.14504
1529.4	0.795185
1530.96	0.446238
1532.51	0.156076
1534.06	0.493246
1535.62	0.963942
1537.17	0.528475
1538.72	0.227383
1540.28	0.399044
1541.83	0.721298
1543.38	1.13686
1544.93	0.723946
1546.48	0.386587
1548.03	1.15666
1549.59	1.02534
1551.14	1.71853
1552.69	1.43856
1554.24	1.14218
1555.79	1.48388
1557.34	1.23118
1558.88	1.00105
1560.43	0.755949
1561.98	1.14813
1563.53	1.82231
1565.08	1.88201
1566.62	0.803564
1568.17	1.72144
1569.72	1.35085
1571.27	1.7821
1572.81	2.25014
1574.36	2.26985
1575.9	1.71087
1577.45	2.01096
1579	2.06914
1580.54	1.64297
1582.09	1.57294
1583.63	2.19562
1585.17	1.49324
1586.72	1.98777
1588.26	2.42685
1589.8	2.79105
1591.35	2.49951
1592.89	3.53623
1594.43	2.5688
1595.97	3.64302
1597.52	3.68787
1599.06	3.80906
1600.6	4.26941
1602.14	4.13059
1603.68	3.65358
1605.22	3.75715
1606.76	3.33183
1608.3	3.0716
1609.84	3.67133
1611.38	2.59391
1612.92	3.27874
1614.46	2.85282
1615.99	2.1639
1617.53	2.62005
1619.07	3.02166
1620.61	2.69542
1622.14	1.82902
1623.68	1.65718
1625.22	3.67555
1626.75	3.22138
1628.29	2.03527
1629.82	3.14759
1631.36	2.96705
1632.9	3.06602
1634.43	2.53069
1635.96	3.88184
1637.5	4.35705
1639.03	3.99425
1640.57	3.76226
1642.1	3.84595
1643.63	5.13767
1645.16	5.15994
1646.7	4.43636
1648.23	4.75366
1649.76	5.47972
1651.29	5.24187
1652.82	5.34076
1654.36	5.18241
1655.89	5.30356
1657.42	4.77602
1658.95	4.61772
1660.48	5.34547
1662.01	4.55226
1663.53	4.95931
1665.06	4.49632
1666.59	4.6991
1668.12	4.57178
1669.65	4.6135
1671.18	4.52926
1672.7	4.37367
1674.23	3.6851
1675.76	3.80651
1677.29	3.33735
1678.81	2.92162
1680.34	2.87195
1681.86	2.71058
1683.39	3.00776
1684.91	2.93763
1686.44	2.70313
1687.96	2.39643
1689.49	2.03582
1691.01	1.69432
1692.54	1.90231
1694.06	2.29286
1695.58	1.09213
1697.11	0.970234
1698.63	1.46874
1700.15	0.925581
1701.67	1.49469
1703.2	0.767967
1704.72	1.22501
1706.24	0.406784
1707.76	1.02559
1709.28	0.171858
1710.8	0.118216
1712.32	0.445711
1713.84	1.13527
1715.36	0.212606
1716.88	0.503233
1718.4	0.196699
1719.91	0.215563
1721.43	1.08265
1722.95	0.0742664
1724.47	-0.0301952
1725.99	0.713951
1727.5	0.271662
1729.02	-0.0247021
1730.54	-0.3741
1732.05	0.82296
1733.57	0.368177
1735.09	-0.183733
1736.6	0.207127
1738.12	-0.249788
1739.63	0.0796013
1741.15	0.659369
1742.66	-0.294556
1744.18	0.0701656
1745.69	0.634897
1747.2	-0.239164
1748.72	0.271397
1750.23	0.0131035
1751.74	0.0822735
1753.25	0.200171
1754.77	0.610338
1756.28	-0.325622
1757.79	0.0787067
1759.3	-0.137926
1760.81	0.319139
1762.32	0.498064
1763.83	-0.0914555
1765.34	-0.0336018
1766.85	0.131773
1768.36	0.0741005
1769.87	-0.034071
1771.38	-0.320438
1772.89	-0.169355
1774.4	0.596697
1775.91	-0.0779839
1777.41	-0.553048
1778.92	-0.000843048
1780.43	0.273756
1781.94	0.141994
1783.44	0.422709
1784.95	0.0563135
1786.45	-0.0668316
1787.96	-0.344677
1789.47	-0.187814
1790.97	0.303166
1792.48	-0.446671
1793.98	-0.00357628
1795.48	0.0836229
1796.99	0.216648
1798.49	0.222312
1800	0.0154963
1801.5	-0.176998
1803	-0.0645857
1804.51	0.283771
1806.01	-0.122549
1807.51	-0.253112
1809.01	-0.0601082
1810.51	0.194558
1812.02	0.139235
1813.52	-0.133988
1815.02	-0.317662
1816.52	0.0993242
1818.02	0.165932
1819.52	-0.252655
1821.02	-0.205617
1822.52	-0.0593939
1824.02	-0.189771
1825.51	-0.296782
1827.01	-0.0746374
1828.51	0.448606
1830.01	0.56068
1831.51	-0.257239
1833	0.234164
1834.5	0.594922
1836	0.116725
1837.5	-0.109917
1838.99	0.140179
1840.49	0.143783
1841.98	0.0875921
1843.48	0.618484
1844.97	-0.168149
1846.47	0.377318
1847.96	0.174659
1849.46	0.417744
1850.95	-0.122367
1852.45	-0.57051
1853.94	0.0837965
1855.43	0.726683
1856.92	0.50609
1858.42	0.712965
1859.91	0.129889
1861.4	0.254267
1862.89	-0.295686
1864.39	-0.112676
1865.88	0.308986
1867.37	0.336817
1868.86	0.618408
1870.35	0.664425
1871.84	0.859734
1873.33	0.0394936
1874.82	0.142223
1876.31	0.221065
1877.8	-1.23978e-005
1879.29	-0.13986
1880.77	-0.146796
1882.26	-0.159587
1882.51	-0.166045
1884	0.900703
1885.5	0.989404
1886.99	0.362323
1888.48	0.936104
1889.98	0.396052
1891.47	0.901614
1892.97	0.1578
1894.46	-0.0264072
1895.95	0.730874
1897.44	0.307219
1898.93	1.30959
1900.42	-0.177362
1901.92	0.21167
1903.41	0.33667
1904.9	0.841496
1906.39	-0.0455523
1907.88	-0.0287857
1909.37	0.596438
1910.86	0.26842
1912.35	0.0114822
1913.84	0.414636
1915.32	0.141487
1916.81	1.02942
1918.3	0.668023
1919.79	0.79116
1921.28	0.342419
1922.76	-0.0188179
1924.25	0.227471
1925.74	0.302457
1927.22	-0.00165367
1928.71	-0.166255
1930.2	0.15389
1931.68	-0.289242
1933.17	0.200304
1934.65	-0.230782
1936.14	0.944703
1937.62	0.526023
1939.11	0.746349
1940.59	0.984112
1942.08	0.429194
1943.56	0.187091
1945.04	0.205258
1946.53	-0.120753
1948.01	0.880011
1949.49	1.13798
1950.97	0.464165
1952.45	0.925156
1953.94	0.077652
1955.42	0.622993
1956.9	0.240923
1958.38	0.255173
1959.86	0.373536
1961.34	1.10998
1962.82	0.73204
1964.3	0.388334
1965.78	0.472173
1967.26	0.280884
1968.74	0.721554
1970.22	0.647801
1971.69	1.22272
1973.17	0.533628
1974.65	0.118554
1976.13	0.300874
1977.61	0.415071
1979.08	0.222871
1980.56	0.898359
1982.03	0.688699
1983.51	1.17522
1984.99	0.302525
1986.46	0.126084
1987.94	0.288799
1989.41	1.45087
1990.89	0.42942
1992.36	0.476325
1993.84	0.305079
1995.31	1.03098
1996.78	0.861761
1998.26	0.608126
1999.73	0.0500288
2001.2	1.01009
2002.68	0.568436
2004.15	1.05414
2005.62	0.54577
2007.09	0.291709
2008.56	0.376138
2010.04	0.158911
2011.51	0.935776
2012.98	0.382841
2014.45	1.07465
2015.92	0.116023
2017.39	-0.103538
2018.86	0.533051
2020.33	5.92308
2021.8	6.18523
2023.27	6.71639
2024.74	6.89656
2026.2	1.35948
2027.67	0.623849
2029.14	0.595234
2030.61	1.8774
2032.07	0.141319
2033.54	0.318628
2035.01	0.311289
2036.47	0.55528
2037.94	0.512829
2039.41	0.856215
2040.87	0.880227
2042.34	0.518132
2043.8	0.426172
2045.27	0.100035
2046.73	1.13851
2048.2	1.03314
2049.66	0.825957
2051.12	1.19012
2052.59	1.07957
2054.05	0.544203
2055.51	1.22004
2056.98	2.02798
2058.44	1.26673
2059.9	1.07845
2061.36	1.27827
2062.82	1.59718
2064.29	1.86724
2065.75	1.63419
2067.21	1.97483
2068.67	1.10476
2070.13	1.46383
2071.59	1.62107
2073.05	1.71072
2074.51	2.25455
2075.97	1.50114
2077.43	1.97635
2078.88	1.92877
2080.34	1.44254
2081.8	1.67938
2083.26	1.84759
2084.72	1.99754
2086.17	1.47316
2087.63	1.90649
2089.09	1.9353
2090.54	1.275
2092	2.24371
2093.46	2.37224
2094.91	2.28213
2096.37	2.25823
2097.82	2.01539
2099.28	2.47464
2100.73	2.56467
2102.19	2.37086
2103.64	2.46271
2105.09	2.75709
2106.55	2.85361
2108	3.20224
2109.46	3.50133
2110.91	3.83256
2112.36	3.29445
2113.81	3.00337
2115.27	3.10896
2116.72	3.4121
2118.17	2.71869
2119.62	3.53925
2121.07	3.2842
2122.52	4.2106
2123.97	3.9456
2125.42	4.03016
2126.87	4.69448
2128.32	4.11333
2129.77	4.42452
2131.22	5.04747
2132.67	4.87353
2134.12	4.28611
2135.57	4.72601
2137.01	5.01976
2138.46	5.54855
2139.91	5.22191
2141.36	6.28718
2142.8	5.58628
2144.25	6.1766
2145.7	5.874
2147.14	6.18312
2148.59	6.57388
2150.03	6.41623
2151.48	6.96879
2152.92	6.77357
2154.37	6.92444
2155.81	6.61035
2157.26	7.15784
2158.7	7.06082
2160.15	6.66854
2161.59	7.40679
2163.03	7.32084
2164.48	7.08896
2165.92	7.68877
2167.36	7.90714
2168.8	6.94302
2170.25	7.88661
2171.69	7.97751
2173.13	7.03245
2174.57	7.94733
2176.01	7.87934
2177.45	7.57903
2178.89	7.24724
2180.33	7.48295
2181.77	7.65418
2183.21	7.19487
2184.65	6.56971
2186.09	7.50823
2187.53	7.16596
2188.97	6.82363
2190.41	6.33131
2191.84	6.82049
2193.28	6.57556
2194.72	6.7273
2196.16	5.79305
2197.59	5.77028
2199.03	6.675
2200.47	6.01433
2201.9	4.90602
2203.34	5.54266
2204.78	6.13102
2206.21	5.52772
2207.65	4.94265
2209.08	5.63278
2210.51	5.12895
2211.95	5.02058
2213.38	5.35708
2214.82	4.93299
2216.25	4.82432
2217.68	3.7942
2219.12	4.74637
2220.55	4.94129
2221.98	4.32879
2223.42	4.12718
2224.85	4.23587
2226.28	4.07772
2227.71	4.01516
2229.14	3.60525
2230.57	2.99782
2232	3.30895
2233.43	3.76723
2234.86	3.22852
2236.29	3.77132
2237.72	2.37363
2239.15	2.97174
2240.58	2.88803
2242.01	2.35106
2243.44	2.3057
2244.87	2.45675
2246.3	2.19886
2247.73	2.49267
2249.15	1.96731
2250.58	2.36713
2252.01	2.55152
2253.43	1.51438
2254.86	1.63317
2256.29	1.60813
2257.71	1.73324
2259.14	1.74969
2260.56	1.05735
2261.99	2.04066
2263.41	1.51734
2264.84	1.33525
2266.26	1.7052
2267.69	1.66744
2269.11	1.20489
2270.54	1.71743
2271.96	1.17095
2273.38	1.25908
2274.81	1.23335
2276.23	1.6479
2277.65	1.60663
2279.07	1.76109
2280.49	0.806661
2281.92	1.02592
2283.34	1.08199
2284.76	1.33398
2286.18	0.835619
2287.6	1.05601
2289.02	1.09761
2290.44	1.25432
2291.86	1.0847
2293.28	0.489943
2294.7	0.0582399
2296.12	0.10072
2297.54	0.634414
2298.96	0.72632
2300.38	0.654716
2301.79	0.731091
2303.21	0.0861549
2304.63	1.0002
2306.05	0.831157
2307.46	1.08858
2308.88	0.441243
2310.3	0.499526
2311.71	0.820372
2313.13	0.68064
2314.55	0.541475
2315.96	0.650401
2317.38	0.151135
2318.79	0.542228
2320.21	-0.0727186
2321.62	0.151563
2323.03	0.27398
2324.45	0.574222
2325.86	1.03564
2327.27	1.29596
2328.69	1.0273
2330.1	0.314512
2331.51	0.229492
2332.93	0.475497
2334.34	0.229151
2335.75	0.147836
2337.16	0.180988
2338.57	0.656453
2339.99	0.24229
2341.4	0.336141
2342.81	0.100815
2344.22	-0.478646
2345.63	0.123096
2347.04	0.11852
2348.45	0.2777
2349.86	-0.234615
2351.26	-0.0118341
2352.67	0.454026
2354.08	-0.0125608
2355.49	-0.47931
2356.9	-0.0826159
2358.31	0.345686
2359.71	-0.234071
2361.12	-0.146993
2362.53	0.280374
2363.94	0.236971
2365.34	-0.243241
2366.75	-0.140323
2368.15	0.286241
2369.56	0.181342
2370.97	-0.146935
2372.37	-0.0699244
2373.78	0.330674
2375.18	0.522322
2376.59	-0.123424
2377.99	-0.336018
2379.39	0.316944
2380.8	0.0350637
2382.2	0.0240803
2383.61	0.412072
2385.01	-0.256993
2386.41	0.00281906
2387.81	0.263471
2389.22	-0.128186
2390.62	0.0882196
2392.02	-0.044055
2393.42	-0.381412
2394.82	-0.414945
2396.22	0.252166
2397.63	0.26823
2399.02	0.301118
2400.43	0.191832
2401.82	-0.0598526
2403.23	0.323873
2404.62	-0.134661
2406.02	0.27874
2407.42	0.499953
2408.82	0.0377178
2410.22	-0.0600061
2411.62	0.349691
2413.02	0.0951939
2414.41	0.571189
2415.81	0.875301
2417.21	0.690867
2418.61	0.539612
2420	0.753168
2421.4	0.0479078
2422.79	0.181507
2424.19	-0.255691
2425.59	-0.280898
2426.98	0.566381
2428.38	0.0520744
2429.77	0.25262
2431.17	0.01019
2432.56	0.275794
2433.96	0.0326014
2435.35	0.232289
2436.74	0.0166082
2438.14	0.100356
2439.53	0.118488
2440.92	0.262189
2442.32	0.341419
2443.71	0.118634
2445.1	0.292284
2446.49	0.132595
2447.88	-0.3758
2449.28	-0.0442295
2450.67	0.714909
2452.06	0.587985
2453.45	0.430779
2454.84	0.243407
2456.23	-0.385706
2457.62	-0.0335073
2459.01	0.650561
2460.4	0.447941
2461.79	0.323144
2463.18	0.892581
2464.57	0.923448
2465.96	0.385252
2467.34	0.0683718
2468.73	-0.532321
2470.12	0.475869
2471.51	0.426233
2472.89	0.10775
2474.28	0.339434
2475.67	-0.40553
2477.05	0.594734
2478.44	0.0542383
2479.83	-0.343896
2481.21	0.183977
2482.6	0.0372238
2483.98	-0.141325
2485.37	-0.195799
2486.75	0.294886
2488.14	-0.325213
2489.52	0.37974
2490.9	-0.100245
2492.29	0.0746717
2493.67	0.0955906
2495.06	-0.31575
2496.44	0.267582
2497.82	-0.0314503
2499.2	0.181167
2500.59	-0.0401182
2501.97	0.541374
2503.35	-0.0995407
2504.73	0.231151
2506.11	0.590957
2507.49	0.34932
2508.88	0.46202
2510.26	-0.346281
2511.63	-0.200714
2513.01	-0.0542107
2514.39	-0.595843
2515.77	-0.308833
2517.15	-0.235145
2518.53	0.0227814
2519.91	-0.0707407
2521.29	-0.0271091
2522.67	-0.579811
2524.05	-0.0196161
2525.42	0.340487
2526.8	-0.000902176
2528.18	-0.158522
2529.56	0.278795
2530.93	0.307788
2532.31	0.476225
2533.69	0.555673
2535.06	-0.153721
2536.44	0.504183
2537.81	0.371018
2539.19	0.0085516
2540.56	-0.734597
2541.94	0.540787
2543.31	0.35919
2544.69	-0.185011
2546.06	0.395277
2547.44	-0.372498
2548.81	-0.486779
2550.18	0.142577
2551.56	-0.245422
2552.93	0.457815
2554.3	0.370238
2555.68	-0.189095
2557.05	0.449212
2558.42	0.268132
2559.79	0.026926
2561.16	0.301981
2562.53	0.123337
2563.9	0.142647
2565.28	0.450575
2566.64	0.304276
2568.02	-0.0995159
2569.38	0.315082
2570.76	-0.240306
2572.12	-0.325815
2573.49	0.558949
2574.86	0.0796022
2576.23	-0.445244
2577.6	0.318492
2578.97	0.55127
2580.34	0.161798
2581.7	-0.258631
2583.07	-0.0579777
2584.44	0.0513096
2585.81	-0.294264
2587.17	0.0273066
2588.54	0.288492
2589.91	0.443741
2591.27	-0.17406
2592.64	0.101495
2594	0.239362
2595.37	0.0726604
2596.73	0.0104189
2598.1	-0.143779
2599.46	-0.086729
2600.83	-0.180704
2602.19	-0.0170765
2603.55	-0.0186138
2604.92	0.3127
2606.28	0.613926
2607.64	-0.186336
2609.01	-0.233621
2610.37	-0.222456
2611.73	0.644525
2613.09	0.455569
2614.46	0.49102
2615.82	0.961128
2617.18	0.39631
2618.54	0.0731716
2619.9	0.1708
2621.26	0.149819
2622.62	0.5182
2623.98	-0.0841398
2625.34	0.105113
2626.7	0.368279
2628.06	0.034482
2629.42	0.698314
2630.78	-0.350205
2632.14	0.267764
2633.5	0.468735
2634.86	0.580283
2636.22	0.721255
2637.57	-0.19012
2638.93	0.202991
2640.29	0.388597
2641.64	0.589104
2643	-0.20003
2644.36	0.237521
2645.72	0.305514
2647.07	-0.0399876
2648.43	0.335718
2649.78	0.00309849
2651.14	0.434484
2652.49	0.394528
2653.85	0.457682
2655.2	0.639156
2656.56	0.6317
2657.91	0.509036
2659.27	0.665913
2660.62	-0.0686188
2661.97	-0.0573168
2663.33	-0.0907698
2664.68	0.356235
2666.03	0.392995
2667.38	0.254031
2668.74	0.318993
2670.09	0.660709
2671.44	0.552033
2672.79	0.415455
2674.14	-0.431544
2675.49	0.102115
2676.84	-0.408455
2678.2	-0.0184383
2679.55	0.0971212
2680.89	0.576703
2682.24	-0.174211
2683.59	0.918148
2684.94	0.67813
2686.29	0.888528
2687.64	0.373084
2688.99	0.421676
2690.34	0.264347
2691.69	-0.0554962
2693.04	0.420438
2694.38	0.154823
2695.73	0.483373
2697.08	0.131709
2698.43	0.318111
2699.77	0.405712
2701.12	0.77121
2702.46	0.255718
2703.81	0.205223
2705.16	0.227977
2706.5	0.352366
2707.85	0.316825
2709.19	0.643507
2710.54	0.083972
2711.88	0.831018
2713.23	0.168755
2714.57	0.479862
2715.92	0.383916
2717.26	0.476743
2718.6	0.685588
2719.95	0.573797
2721.29	0.606755
2722.63	0.449709
2723.97	0.612087
2725.32	0.831979
2726.66	0.643679
2728	0.702284
2729.34	-0.301844
2730.68	0.425521
2732.02	0.570688
2733.36	1.10871
2734.7	0.119596
2736.04	0.425409
2737.39	0.367789
2738.72	0.441013
2740.06	0.0339355
2741.4	0.527682
2742.74	0.72947
2744.08	0.59575
2745.42	0.214123
2746.76	0.22417
2748.1	0.770956
2749.44	0.475786
2750.77	0.282687
2752.11	0.51055
2753.45	-0.159949
2754.78	0.474175
2756.12	0.77497
2757.46	0.540087
2758.79	0.450478
2760.13	-0.116105
2761.47	0.128606
2762.8	0.634439
2764.14	-0.21939
2765.47	0.0408993
2766.81	0.0110941
2768.14	0.08111
2769.48	0.394874
2770.81	0.359197
2772.14	0.220279
2773.48	0.123186
2774.81	0.414622
2776.14	-0.187586
2777.48	-0.255744
2778.81	-0.30861
2780.14	0.300412
2781.47	-0.498253
2782.81	0.354641
2784.14	-0.22788
2785.47	-0.293727
2786.8	0.142068
2788.13	-0.180586
2789.46	0.0276556
2790.79	0.136975
2792.12	0.290328
2793.46	0.301369
2794.79	0.341043
2796.11	-0.148515
2797.44	0.304073
2798.77	0.184301
2800.1	0.135287
2801.43	0.556618
2802.76	0.307073
2804.09	0.456365
2805.42	-0.121597
2806.74	0.111484
2808.07	-0.0834599
2809.4	0.0622787
2810.73	0.293016
2812.05	0.141179
2813.38	0.161483
2814.71	0.0280628
2816.03	0.322195
2817.36	0.263671
2818.68	0.447021
2820.01	0.389428
2821.33	0.302768
2822.66	0.484296
2823.98	1.48648
2825.31	0.207089
2826.63	0.981724
2827.96	0.879032
2829.28	1.04626
2830.61	1.10096
2831.93	1.49574
2833.25	0.927843
2834.57	1.94471
2835.9	1.50283
2837.22	1.54125
2838.54	2.71055
2839.86	2.90306
2841.18	2.68562
2842.51	3.68462
2843.83	3.9354
2845.15	4.13096
2846.47	4.76577
2847.79	4.90666
2849.11	4.87799
2850.43	5.65438
2851.75	5.68068
2853.07	5.83313
2854.39	5.30647
2855.71	5.45775
2857.03	5.46767
2858.35	5.52003
2859.67	5.30401
2860.98	6.04788
2862.3	5.83087
2863.62	6.14955
2864.94	5.98778
2866.25	6.616
2867.57	7.21614
2868.89	7.11188
2870.21	6.75472
2871.52	7.63839
2872.84	7.90112
2874.15	8.13406
2875.47	8.19569
2876.78	8.17057
2878.1	8.60814
2879.42	8.62272
2880.73	8.73627
2882.04	8.68277
2883.36	8.96851
2884.67	8.18896
2885.99	7.64961
2887.3	9.03343
2888.61	8.33903
2889.93	8.77966
2891.24	8.97988
2892.55	9.01047
2893.87	8.74648
2895.18	9.46361
2896.49	8.79607
2897.8	9.41846
2899.11	8.93737
2900.42	9.56317
2901.74	9.30854
2903.05	10.4252
2904.36	11.1783
2905.67	9.98775
2906.98	11.372
2908.29	11.751
2909.6	11.7961
2910.91	12.7241
2912.22	12.6026
2913.53	13.1934
2914.83	13.7393
2916.14	13.8473
2917.45	14.4975
2918.76	15.3128
2920.07	16.0853
2921.37	16.2716
2922.68	17.0199
2923.99	17.3241
2925.3	17.5332
2926.6	18.0933
2927.91	18.2622
2929.22	18.5559
2930.52	17.8137
2931.83	18.6501
2933.13	18.7308
2934.44	19.1469
2935.74	19.1858
2937.05	18.6382
2938.35	18.2169
2939.66	17.936
2940.96	17.5445
2942.27	17.1272
2943.57	16.5449
2944.87	16.0215
2946.18	15.2209
2947.48	15.5543
2948.78	14.9637
2950.09	14.972
2951.39	14.1361
2952.69	13.4639
2953.99	13.3065
2955.29	13.1064
2956.6	12.3063
2957.9	12.7984
2959.2	12.4566
2960.5	12.4847
2961.8	12.1109
2963.1	10.8264
2964.4	11.8975
2965.7	11.1548
2967	10.6748
2968.3	10.5852
2969.6	10.0862
2970.9	10.0367
2972.2	9.42513
2973.49	9.53161
2974.79	9.27216
2976.09	8.80011
2977.39	8.94491
2978.69	8.11468
2979.98	8.42141
2981.28	8.0498
2982.58	8.05706
2983.88	7.82596
2985.17	7.20372
2986.47	7.10471
2987.76	5.95479
2989.06	5.93098
2990.36	6.11854
2991.65	5.40572
2992.95	5.43581
2994.24	5.16841
2995.54	4.35121
2996.83	4.41779
2998.12	4.1471
2999.42	3.75087
3000.71	2.94932
3002	3.17262
3003.3	3.48063
3004.59	2.80809
3005.88	1.9815
3007.18	2.55434
3008.47	2.20181
3009.76	1.90409
3011.05	2.05263
3012.35	1.61384
3013.64	2.52895
3014.93	1.15725
3016.22	1.08423
3017.51	1.44418
3018.8	0.85844
3020.09	0.801997
3021.38	1.49549
3022.67	1.28389
3023.96	1.02937
3025.25	0.677028
3026.54	0.560493
3027.83	0.597183
3029.12	0.45593
3030.41	0.441692
3031.69	0.31944
3032.98	0.682239
3034.27	0.465768
3035.56	0.524583
3036.85	0.291782
3038.13	-0.191428
3039.42	0.465631
3040.71	0.48646
3041.99	0.423424
3043.28	0.360529
3044.57	0.518233
3045.85	0.322818
3047.14	0.759757
3048.42	0.640276
3049.71	0.265182
3050.99	0.193122
3052.28	0.327192
3053.56	0.420442
3054.85	0.280818
3056.13	0.576129
3057.42	1.14216
3058.7	0.970634
3059.98	1.1121
3061.27	1.02276
3062.55	1.08482
3063.83	1.05408
3065.11	0.591034
3066.4	1.08209
3067.68	0.0929527
3068.96	0.70898
3070.24	-0.143986
3071.52	0.769838
3072.8	0.199393
3074.09	0.18472
3075.37	0.10075
3076.65	0.0300493
3077.93	-0.419893
3079.21	-0.012907
3080.49	-0.159859
3081.77	0.129851
3083.05	0.353876
3084.32	0.117898
3085.61	-0.443607
3086.88	0.08002
3088.16	0.100528
3089.44	0.377947
3090.72	0.139042
3092	-0.452592
3093.27	0.0143747
3094.55	-0.182706
3095.83	0.393707
3097.11	-0.0871592
3098.38	-0.676187
3099.66	0.00871754
3100.94	0.273361
3102.21	0.362066
3103.49	-0.0902176
3104.76	0.162531
3106.04	0.199986
3107.31	0.387908
3108.59	-0.180209
3109.86	0.200871
3111.14	-0.214998
3112.41	-0.0337934
3113.69	0.0806017
3114.96	-0.021594
3116.23	-0.0158978
3117.51	0.300636
3118.78	-0.198074
3120.05	-0.318468
3121.33	0.631043
3122.6	0.0342216
3123.87	0.128616
3125.14	0.0203581
3126.42	0.373256
3127.69	-0.0171232
3128.96	-0.108664
3130.23	0.192702
3131.5	0.142898
3132.77	0.403931
3134.04	0.637414
3135.31	0.478577
3136.58	0.143929
3137.85	0.254092
3139.12	0.862168
3140.39	0.352117
3141.66	0.273634
3142.93	0.249743
3144.2	0.656466
3145.47	0.580873
3146.74	0.694395
3148	0.541091
3149.27	0.750719
