200.388	1.96932
202.204	1.96661
204.019	1.96555
205.832	2.30742
207.646	2.40713
209.459	1.51025
211.274	2.3132
213.087	1.99696
214.899	1.99511
216.711	2.11399
218.524	1.89426
220.335	2.06375
222.146	0.783913
223.956	1.27251
225.766	1.42393
227.576	1.16529
229.388	1.17243
231.197	1.20328
233.005	0.94458
234.813	0.783648
236.621	0.480795
238.429	0.0615368
240.236	1.21371
242.045	0.634842
243.852	0.709719
245.658	0.42317
247.464	-0.0346146
249.269	0.517666
251.074	0.461552
252.879	-0.0815086
254.683	0.700108
256.487	-0.231314
258.291	0.912378
260.094	-0.0857372
261.897	0.702772
263.702	0.434586
265.504	0.0722218
267.306	0.120457
269.108	0.120417
270.909	0.21586
272.71	1.63587
274.511	-0.44216
276.311	0.659891
278.111	0.14403
279.91	0.13134
281.709	0.0673943
283.508	-0.071455
285.306	-0.428436
287.105	0.48633
288.9	-0.854427
290.698	-0.178928
292.495	0.473879
294.291	0.291506
296.088	0.638159
297.884	0.221937
299.679	0.332823
301.475	0.300346
303.27	-0.0197487
305.064	-0.317509
306.858	-0.30625
308.652	-0.223698
310.444	0.574625
312.237	0.255127
314.03	0.510342
315.822	-0.183514
317.615	0.483257
319.406	0.152716
321.198	0.563023
322.987	1.07071
324.778	1.31759
326.568	0.848948
328.358	0.475101
330.148	0.67362
331.935	1.58802
333.724	0.418768
335.513	-0.180241
337.301	0.533094
339.089	0.548946
340.875	-0.0835381
342.662	0.239378
344.449	-0.250387
346.236	-0.237234
348.02	0.445778
349.806	0.365582
351.592	-0.072361
353.375	-0.248402
355.16	0.122725
356.944	0.825258
358.728	-0.214769
360.51	0.0305977
362.294	0.155151
364.077	-0.625257
365.858	-0.0988083
367.64	0.0219765
369.422	1.18447
371.202	-0.262444
372.983	1.10825
374.764	1.57716
376.543	1.57306
378.324	2.72546
380.102	2.36967
381.881	3.57038
383.661	3.69002
385.438	2.63688
387.216	3.25569
388.993	3.35964
390.771	2.83153
392.548	2.93941
394.324	2.74332
396.101	3.08826
397.875	1.83648
399.651	2.48685
401.425	2.22047
403.201	1.43628
404.974	1.00313
406.749	0.780148
408.524	0.579678
410.296	-0.32547
412.07	-0.385309
413.841	-0.256723
415.614	0.623892
417.385	0.332699
419.156	0.957844
420.928	0.222418
422.698	0.120195
424.469	0.744606
426.238	-0.510626
428.009	-0.335173
429.777	-0.230999
431.548	0.107809
433.315	0.212385
435.083	0.0828724
436.852	-0.46908
438.618	0.386019
440.387	0.159136
442.153	0.0462532
443.919	-0.163961
445.686	-0.00225639
447.451	-0.0769749
449.218	0.619259
450.982	0.263016
452.746	0.188068
454.512	0.136965
456.275	-0.170444
458.038	-0.104998
459.803	-0.179211
461.565	-0.0661983
463.327	-0.438869
465.091	0.679735
466.852	0.246254
468.613	0.189205
470.374	0.205204
472.136	0.106064
473.896	0.704077
475.655	-0.0745811
477.415	0.936342
479.176	0.569649
480.934	0.340893
482.692	-0.260311
484.45	0.444658
486.21	-0.128155
487.967	-0.185026
489.724	-0.168545
491.481	0.573359
493.237	0.406532
494.995	0.263176
496.75	0.259817
498.506	0.982265
500.26	1.58795
502.015	0.691402
503.771	1.76485
505.525	1.28646
507.279	2.0043
509.032	2.41406
510.785	3.03273
512.537	3.3425
514.289	3.31981
516.041	2.56507
517.793	3.38401
519.546	3.28348
521.297	3.53392
523.047	3.43083
524.797	2.71712
526.547	2.59057
528.297	2.53454
530.046	2.31431
531.795	2.09355
533.543	2.3865
535.291	2.46629
537.039	1.3981
538.787	1.54332
540.534	1.07965
542.281	1.22116
544.027	0.547277
545.773	1.29236
547.519	0.0399323
549.264	0.923607
551.01	0.763584
552.754	1.5526
554.499	0.630335
556.243	-0.520422
557.987	0.384121
559.73	0.204905
561.474	0.257128
563.216	0.264225
564.959	0.0424271
566.701	0.580025
568.441	0.383694
570.182	0.648291
571.923	-0.0484886
573.664	0.771729
575.405	0.126823
577.145	-0.721966
578.885	-0.12294
580.624	0.202326
582.361	-0.528909
584.1	0.43951
585.839	0.303057
587.577	0.739424
589.315	0.66761
591.052	-0.0501499
592.787	0.496521
594.524	0.352623
596.26	0.829943
597.997	0.43292
599.732	1.32363
601.466	0.556456
603.201	1.35119
604.936	0.441521
606.67	0.242624
608.403	-0.393858
610.136	0.920879
611.87	0.308067
613.603	0.0411091
615.334	0.554775
617.067	0.0832119
618.799	0.504322
620.529	-0.358673
622.26	0.424269
623.991	0.31304
625.72	1.16131
627.451	-0.0444851
629.181	0.100605
630.909	0.0670643
632.638	0.242399
634.368	0.762032
636.095	0.459608
637.823	0.0172615
639.551	-0.315403
641.277	-0.607125
643.005	0.282511
644.73	0.0981808
646.457	-0.403961
648.184	0.59796
649.908	-0.0318737
651.634	0.208401
653.357	-0.0219021
655.083	-0.269531
656.806	0.237686
658.53	-0.00449562
660.253	0.162889
661.977	0.122463
663.7	-0.0361919
665.422	-0.0619564
667.145	0.755062
668.865	-0.258762
670.588	0.123409
672.308	0.394632
674.027	-0.0624752
675.749	-0.677076
677.468	-0.327127
679.188	0.0238724
680.907	0.304993
682.627	0.353502
684.345	0.37538
686.064	-0.550354
687.781	0.0639114
689.498	0.400063
691.216	0.136028
692.932	-0.0139046
694.65	-0.211164
696.366	0.603224
698.081	0.241066
699.797	0.682364
701.512	0.54624
703.228	0.109768
704.942	0.775101
706.655	0.63525
708.371	0.815882
710.083	0.124828
711.796	0.762135
713.51	1.21473
715.222	0.112148
716.934	1.06634
718.645	0.262421
720.358	0.371836
722.068	1.05066
723.779	-0.114597
725.49	0.108644
727.2	-0.350372
728.909	0.416145
730.618	0.658993
732.329	1.12714
734.037	0.485323
735.745	0.274302
737.453	0.877171
739.16	1.02883
740.869	0.798626
742.576	0.706005
744.282	0.255577
745.988	1.3382
747.694	0.937683
749.401	0.92202
751.107	1.51588
752.811	1.34728
754.516	1.541
756.22	1.64742
757.924	1.86926
759.627	2.27421
761.332	2.59163
763.035	3.27157
764.738	4.15534
766.44	4.78963
768.142	5.08187
769.843	6.52303
771.544	6.46771
773.245	5.88908
774.946	6.39473
776.646	7.10488
778.346	6.37073
780.046	5.73016
781.745	4.97857
783.444	4.67955
785.143	3.63125
786.841	4.16288
788.539	2.69671
790.237	2.87686
791.934	2.98386
793.631	2.41015
795.328	1.5662
797.024	1.6719
798.72	2.18563
800.416	2.29677
802.112	1.17301
803.807	1.5807
805.502	1.17858
807.196	1.96637
808.89	1.6958
810.584	1.62549
812.278	1.59849
813.971	1.14479
815.664	1.51972
817.354	0.999224
819.047	1.6642
820.739	0.921503
822.43	1.05084
824.122	2.22924
825.813	1.58129
827.503	1.85088
829.192	1.1452
830.882	1.13514
832.571	1.30815
834.261	1.37356
835.95	1.4855
837.637	1.53041
839.325	1.39483
841.013	1.3458
842.701	0.936949
844.389	1.08568
846.074	1.72726
847.761	1.4555
849.447	1.29954
851.131	2.15529
852.817	1.08857
854.503	1.592
856.188	1.28771
857.871	0.868567
859.556	1.03097
861.24	1.25809
862.922	1.23485
864.606	1.47978
866.289	1.40765
867.97	0.770638
869.653	1.3279
871.336	1.18554
873.016	0.478788
874.698	0.584
876.379	1.05034
878.058	0.252956
879.739	1.03531
881.418	0.665936
883.098	0.363071
884.778	1.05169
886.456	1.10581
888.135	1.31513
889.812	0.732222
891.49	0.124855
893.167	0.642159
894.845	1.24661
896.523	0.634161
898.198	0.58267
899.875	0.305338
901.55	0.878725
903.226	0.823135
904.901	0.543869
906.576	0.756718
908.25	0.0114708
909.925	0.917343
911.598	0.554811
913.271	-0.339176
914.945	1.05621
916.617	0.585703
918.291	0.647873
919.962	-0.064827
921.635	0.706848
923.306	1.23603
924.978	0.949944
926.648	0.601206
928.318	0.78544
929.989	1.74413
931.659	0.696003
933.328	0.266424
934.998	1.49158
936.666	0.467602
938.336	1.0552
940.004	0.365725
941.671	0.295868
943.34	0.624487
945.007	0.0923557
946.673	1.19172
948.339	-0.206295
950.007	0.0480442
951.672	0.211908
953.337	0.15513
955.004	0.255268
956.669	0.668772
958.333	0.735128
959.997	0.585806
961.662	0.483313
963.326	-0.857191
964.989	0.120264
966.651	0.364077
968.315	-0.458857
969.977	-0.223351
971.639	1.1386
973.301	0.908497
974.962	0.437719
976.624	0.722027
978.285	0.21278
979.945	0.44581
981.605	0.678417
983.264	1.47337
984.924	1.22449
986.583	0.772749
988.243	0.229578
989.901	0.679798
991.56	0.774754
993.217	1.24478
994.875	1.80272
996.532	1.74254
998.188	1.39579
999.845	2.70176
1001.5	3.10249
1003.16	3.0177
1004.81	2.75646
1006.47	2.75906
1008.12	3.02541
1009.78	3.7748
1011.43	3.07672
1013.09	2.09555
1014.74	1.86107
1016.39	1.80278
1018.05	2.09562
1019.7	2.54283
1021.35	2.86055
1023	3.53004
1024.65	3.50191
1026.31	4.65509
1027.96	5.21819
1029.61	5.56138
1031.26	4.94081
1032.91	5.51795
1034.56	5.15265
1036.21	4.69756
1037.86	4.65525
1039.51	4.0468
1041.16	3.46239
1042.8	3.35965
1044.45	3.97756
1046.1	3.33927
1047.75	2.72688
1049.39	1.68352
1051.04	2.7059
1052.69	1.81852
1054.33	1.60515
1055.98	2.39154
1057.62	1.5256
1059.27	1.74559
1060.91	2.20366
1062.56	1.61656
1064.2	1.44093
1065.85	2.28518
1067.49	1.38827
1069.13	3.2493
1070.77	1.63288
1072.42	2.18827
1074.06	1.85448
1075.7	2.62914
1077.34	3.23253
1078.98	2.55892
1080.62	2.01709
1082.27	4.53283
1083.91	3.46896
1085.55	4.02797
1087.18	4.6907
1088.82	3.63759
1090.46	3.05832
1092.1	3.55846
1093.74	3.34386
1095.38	3.45366
1097.02	2.68107
1098.65	3.05408
1100.29	2.935
1101.93	2.64777
1103.56	2.12768
1105.2	2.12667
1106.84	1.76124
1108.47	2.44917
1110.11	1.8233
1111.74	1.34529
1113.38	0.778755
1115.01	1.28399
1116.64	0.779089
1118.28	1.34697
1119.91	1.3369
1121.54	1.56426
1123.18	2.13589
1124.81	1.31833
1126.44	1.31574
1128.07	1.22913
1129.7	1.72119
1131.33	0.760496
1132.97	1.04047
1134.6	0.721693
1136.23	0.872114
1137.86	0.614637
1139.49	0.953236
1141.11	1.2897
1142.74	0.472563
1144.37	0.680204
1146	-0.0917683
1147.63	0.822151
1149.26	0.224457
1150.88	0.139212
1152.51	0.288336
1154.14	0.223919
1155.76	0.584505
1157.39	0.604212
1159.01	1.0712
1160.64	0.369957
1162.27	0.351358
1163.89	0.589746
1165.51	0.552725
1167.14	1.17445
1168.76	1.4328
1170.39	0.561474
1172.01	-0.248985
1173.63	0.445776
1175.25	1.01005
1176.88	0.0673008
1178.5	-0.216978
1180.12	-0.139786
1181.74	0.827349
1183.36	0.335812
1184.98	-0.260647
1186.6	0.240141
1188.22	0.631872
1189.84	0.218376
1191.46	0.897173
1193.08	0.330963
1194.7	0.26869
1196.32	1.10815
1197.94	0.606918
1199.55	0.361013
1201.17	1.26903
1202.79	1.11569
1204.41	0.466496
1206.02	0.322445
1207.64	-0.194614
1209.25	1.37502
1210.87	1.10748
1212.48	0.0239182
1214.1	0.729532
1215.71	0.847166
1217.33	1.00289
1218.94	0.969339
1220.56	0.790281
1222.17	0.550573
1223.79	1.43245
1225.4	1.23905
1227.01	1.25567
1228.62	1.15079
1230.23	1.23443
1231.85	1.23755
1233.46	0.891537
1235.07	1.70523
1236.68	0.971039
1238.29	2.01643
1239.9	1.63679
1241.51	2.27087
1243.12	1.58062
1244.73	1.57156
1246.34	0.712238
1247.94	2.33419
1249.55	1.63716
1251.16	1.62238
1252.77	1.58728
1254.37	1.49144
1255.98	1.33551
1257.59	1.94724
1259.2	1.46469
1260.8	2.2048
1262.41	1.41401
1264.01	1.67921
1265.62	2.08897
1267.22	1.25395
1268.83	1.88886
1270.43	2.04515
1272.03	2.26171
1273.64	1.72997
1275.24	1.94277
1276.85	1.92581
1278.45	2.79807
1280.05	2.36396
1281.65	2.77821
1283.25	1.7855
1284.85	2.63508
1286.46	2.8242
1288.06	2.91189
1289.66	2.27804
1291.26	3.25712
1292.86	2.76893
1294.46	3.6636
1296.06	3.27495
1297.66	3.8124
1299.25	3.99524
1300.85	3.28827
1302.45	3.38333
1304.05	3.33225
1305.65	3.95831
1307.24	3.69892
1308.84	3.72669
1310.43	2.34032
1312.03	2.59536
1313.63	2.29907
1315.22	2.31169
1316.82	2.18315
1318.41	2.15792
1320.01	2.90729
1321.6	3.26678
1323.2	2.3203
1324.79	1.88078
1326.38	3.1044
1327.98	1.36372
1329.57	2.11894
1331.16	1.62125
1332.76	2.7046
1334.35	2.25588
1335.94	1.89155
1337.53	1.83127
1339.12	2.15296
1340.71	1.3433
1342.3	1.07459
1343.89	2.59195
1345.48	1.27285
1347.07	1.56114
1348.66	1.53126
1350.25	1.62588
1351.84	1.32495
1353.43	1.78778
1355.01	0.673712
1356.6	0.540102
1358.19	2.48343
1359.77	1.24865
1361.36	1.68962
1362.95	1.11122
1364.53	1.15085
1366.12	0.632936
1367.71	1.2122
1369.29	1.29539
1370.88	1.58004
1372.46	1.13084
1374.04	0.962278
1375.63	0.894411
1377.21	0.587973
1378.8	1.25576
1380.38	0.509027
1381.96	1.59044
1383.54	1.33654
1385.13	0.862379
1386.71	0.348072
1388.29	1.14509
1389.87	0.672165
1391.45	0.736887
1393.03	0.743437
1394.61	0.393692
1396.19	0.380913
1397.77	0.96167
1399.35	0.688229
1400.93	0.908503
1402.51	1.22645
1404.09	0.495413
1405.67	0.0230465
1407.24	1.09422
1408.82	1.6721
1410.4	1.30246
1411.98	1.42666
1413.55	1.68794
1415.13	1.31598
1416.71	1.23866
1418.28	1.00299
1419.86	1.29996
1421.43	1.83475
1423.01	2.09638
1424.58	1.90822
1426.16	3.1592
1427.73	3.11226
1429.31	3.30104
1430.88	4.17695
1432.45	5.26677
1434.02	4.64247
1435.6	5.19754
1437.17	5.69365
1438.74	5.8372
1440.31	5.09842
1441.88	5.3051
1443.45	4.8647
1445.03	5.09333
1446.6	5.04717
1448.17	4.68677
1449.74	4.4448
1451.3	4.87218
1452.87	5.00581
1454.44	4.05837
1456.01	4.70417
1457.58	4.75862
1459.15	4.77119
1460.72	3.56017
1462.28	3.72316
1463.85	3.48949
1465.42	3.25388
1466.98	2.07485
1468.55	2.58616
1470.12	2.09771
1471.68	2.25904
1473.25	1.93188
1474.81	1.56706
1476.38	1.34033
1477.94	0.682554
1479.51	1.25975
1481.07	1.24862
1482.63	1.82523
1484.2	1.85279
1485.76	1.17447
1487.32	0.926023
1488.88	1.1062
1490.45	1.22433
1492.01	0.282706
1493.57	0.823538
1495.13	-0.00561142
1496.69	0.412446
1498.25	0.284072
1499.81	0.351233
1501.37	-0.0265112
1502.93	0.277266
1504.49	0.36883
1506.05	0.112249
1507.61	0.512702
1509.17	-0.828097
1510.73	-0.431061
1512.28	0.0599327
1513.84	0.0678024
1515.4	0.114335
1516.96	0.0273037
1518.51	-0.250027
1520.07	-0.0851669
1521.63	0.30932
1523.18	-0.100366
1524.74	-0.185839
1526.29	0.661574
1527.85	-0.246701
1529.4	0.519906
1530.96	-0.0639095
1532.51	-0.436729
1534.06	0.272245
1535.62	0.073266
1537.17	-0.407128
1538.72	0.265988
1540.28	0.429271
1541.83	0.102595
1543.38	0.79268
1544.93	0.258942
1546.48	0.439638
1548.03	0.507078
1549.59	0.386847
1551.14	0.69781
1552.69	0.728362
1554.24	1.15289
1555.79	0.90671
1557.34	1.3171
1558.88	0.517632
1560.43	0.82242
1561.98	1.07387
1563.53	1.28995
1565.08	1.07792
1566.62	0.996626
1568.17	0.728274
1569.72	1.29918
1571.27	1.19746
1572.81	0.535186
1574.36	1.23534
1575.9	1.48749
1577.45	1.57195
1579	1.84379
1580.54	1.64992
1582.09	1.02773
1583.63	1.50882
1585.17	1.11312
1586.72	0.979676
1588.26	1.35135
1589.8	1.29261
1591.35	2.01927
1592.89	1.86549
1594.43	2.81614
1595.97	2.98046
1597.52	3.16433
1599.06	3.64952
1600.6	2.5232
1602.14	2.57899
1603.68	2.50337
1605.22	2.12591
1606.76	2.19682
1608.3	2.15158
1609.84	1.93315
1611.38	1.76712
1612.92	2.02971
1614.46	1.76414
1615.99	1.40428
1617.53	1.00807
1619.07	1.79446
1620.61	1.30918
1622.14	1.68777
1623.68	1.63707
1625.22	1.51158
1626.75	1.75918
1628.29	1.89219
1629.82	1.57385
1631.36	1.34744
1632.9	1.19525
1634.43	1.82768
1635.96	2.18088
1637.5	1.34173
1639.03	1.92119
1640.57	2.33259
1642.1	1.92291
1643.63	2.05172
1645.16	2.2527
1646.7	1.8753
1648.23	2.37116
1649.76	2.47695
1651.29	2.91828
1652.82	3.76938
1654.36	3.02732
1655.89	3.12104
1657.42	2.41787
1658.95	2.56586
1660.48	3.19275
1662.01	2.46573
1663.53	3.08712
1665.06	2.46887
1666.59	2.27663
1668.12	2.16026
1669.65	1.89908
1671.18	2.39613
1672.7	1.99217
1674.23	1.6261
1675.76	1.81216
1677.29	1.48145
1678.81	1.77462
1680.34	2.19437
1681.86	1.62001
1683.39	1.96387
1684.91	1.84857
1686.44	1.12878
1687.96	1.54694
1689.49	1.28748
1691.01	0.955448
1692.54	0.751967
1694.06	1.00585
1695.58	1.00321
1697.11	0.561588
1698.63	0.777289
1700.15	0.188983
1701.67	0.731322
1703.2	0.360688
1704.72	1.15514
1706.24	0.237116
1707.76	0.301845
1709.28	1.07466
1710.8	1.33809
1712.32	0.22322
1713.84	0.541776
1715.36	0.479725
1716.88	0.79749
1718.4	0.0843105
1719.91	0.852923
1721.43	0.321383
1722.95	0.206234
1724.47	0.00273514
1725.99	0.395773
1727.5	0.808622
1729.02	0.449053
1730.54	0.770445
1732.05	1.06482
1733.57	0.0541859
1735.09	1.49699
1736.6	0.561646
1738.12	0.880991
1739.63	0.674624
1741.15	0.416978
1742.66	-0.107605
1744.18	0.118484
1745.69	0.13871
1747.2	0.735044
1748.72	-0.00167751
1750.23	0.315869
1751.74	0.383638
1753.25	0.47063
1754.77	-0.31202
1756.28	0.243
1757.79	0.259947
1759.3	0.654699
1760.81	0.443857
1762.32	-0.0718021
1763.83	0.239869
1765.34	0.335814
1766.85	0.49256
1768.36	0.43879
1769.87	0.310057
1771.38	-0.139127
1772.89	-0.252965
1774.4	-0.0188179
1775.91	0.347172
1777.41	-0.278937
1778.92	-0.0545788
1780.43	0.281528
1781.94	0.552016
1783.44	0.160435
1784.95	0.0400324
1786.45	0.163416
1787.96	-0.151489
1789.47	0.162247
1790.97	-0.0458336
1792.48	0.218094
1793.98	0.359034
1795.48	-0.0101824
1796.99	-0.2414
1798.49	-0.286696
1800	0.362103
1801.5	0.242501
1803	-0.264134
1804.51	-0.178906
1806.01	-0.157846
1807.51	0.352735
1809.01	0.332818
1810.51	-0.0716476
1812.02	0.0954208
1813.52	-0.365164
1815.02	-0.146202
1816.52	0.106869
1818.02	0.333172
1819.52	0.29132
1821.02	0.0407791
1822.52	-0.211273
1824.02	0.291863
1825.51	0.433509
1827.01	0.20437
1828.51	0.158601
1830.01	-0.0875864
1831.51	-0.00692558
1833	0.10854
1834.5	0.105501
1836	-0.0445147
1837.5	0.285038
1838.99	0.215607
1840.49	-0.286549
1841.98	0.267946
1843.48	-0.0401402
1844.97	-0.553952
1846.47	0.409222
1847.96	-0.0892773
1849.46	-0.091176
1850.95	0.26595
1852.45	0.558646
1853.94	0.0142937
1855.43	-0.225729
1856.92	0.113235
1858.42	0.165193
1859.91	0.0330009
1861.4	0.16242
1862.89	-0.136102
1864.39	0.0859318
1865.88	0.0231419
1867.37	-0.00230026
1868.86	-0.268578
1870.35	0.18776
1871.84	-0.132133
1873.33	0.107817
1874.82	-0.0757904
1876.31	0.0449181
1877.8	0.0735292
1879.29	0.094512
1880.77	0.180402
1882.26	0.445629
1882.51	0.494179
1884	0.178035
1885.5	-0.348169
1886.99	0.431131
1888.48	-0.0793371
1889.98	-0.310629
1891.47	0.155313
1892.97	0.119081
1894.46	0.172462
1895.95	0.315074
1897.44	0.667686
1898.93	-0.110405
1900.42	0.101432
1901.92	0.519628
1903.41	0.361083
1904.9	0.235228
1906.39	0.264655
1907.88	0.363444
1909.37	-0.127124
1910.86	0.529226
1912.35	-0.58284
1913.84	0.127452
1915.32	0.508145
1916.81	0.316068
1918.3	0.175267
1919.79	0.207136
1921.28	0.360076
1922.76	0.3923
1924.25	0.0449371
1925.74	0.218658
1927.22	-0.0734749
1928.71	0.016201
1930.2	0.0539074
1931.68	0.0904474
1933.17	0.124863
1934.65	-0.120304
1936.14	0.0994186
1937.62	-0.288036
1939.11	0.136419
1940.59	0.647058
1942.08	-0.0324106
1943.56	0.187328
1945.04	0.373689
1946.53	0.232957
1948.01	-0.252696
1949.49	-0.153358
1950.97	-0.606513
1952.45	0.00637245
1953.94	-0.190575
1955.42	0.145306
1956.9	-0.171256
1958.38	0.457494
1959.86	0.143195
1961.34	-0.118565
1962.82	-0.0198774
1964.3	-0.0757332
1965.78	0.0218506
1967.26	0.221013
1968.74	-0.0599613
1970.22	-0.204703
1971.69	-0.281311
1973.17	0.444298
1974.65	0.0944843
1976.13	-0.101181
1977.61	-0.313375
1979.08	0.0535803
1980.56	0.402997
1982.03	0.122746
1983.51	-0.293451
1984.99	0.37677
1986.46	0.740302
1987.94	-0.26946
1989.41	0.331507
1990.89	-0.404286
1992.36	0.0630035
1993.84	0.379128
1995.31	0.527236
1996.78	-0.439075
1998.26	-0.0199671
1999.73	-0.29394
2001.2	0.258312
2002.68	-0.0846233
2004.15	0.0108833
2005.62	0.0899334
2007.09	-0.0152855
2008.56	0.0661736
2010.04	0.148861
2011.51	-0.272684
2012.98	0.55147
2014.45	-0.0220051
2015.92	0.228029
2017.39	-0.196164
2018.86	0.320195
2020.33	0.112738
2021.8	0.106797
2023.27	-0.116864
2024.74	-0.406311
2026.2	-0.391959
2027.67	0.446246
2029.14	0.0286827
2030.61	0.334352
2032.07	-0.24778
2033.54	1.13453
2035.01	0.485826
2036.47	0.0712996
2037.94	0.210259
2039.41	-0.575669
2040.87	-0.302965
2042.34	0.441201
2043.8	0.127271
2045.27	0.285587
2046.73	-0.043046
2048.2	-0.0346708
2049.66	0.394598
2051.12	0.165218
2052.59	0.388763
2054.05	0.322963
2055.51	0.203979
2056.98	0.723598
2058.44	1.37642
2059.9	0.0914259
2061.36	0.660154
2062.82	0.876261
2064.29	0.942375
2065.75	0.538834
2067.21	0.237572
2068.67	0.576731
2070.13	1.26995
2071.59	0.178905
2073.05	0.63643
2074.51	-0.0345621
2075.97	0.725276
2077.43	0.743649
2078.88	1.09822
2080.34	0.64379
2081.8	0.441172
2083.26	0.0861425
2084.72	0.824026
2086.17	1.1734
2087.63	0.546309
2089.09	0.927517
2090.54	1.35843
2092	1.10045
2093.46	1.64804
2094.91	1.37288
2096.37	0.89615
2097.82	1.27319
2099.28	1.06295
2100.73	0.869258
2102.19	1.59525
2103.64	1.28621
2105.09	1.53032
2106.55	1.44279
2108	1.69058
2109.46	0.788261
2110.91	1.05253
2112.36	2.09774
2113.81	1.34058
2115.27	1.51376
2116.72	1.78495
2118.17	1.50804
2119.62	1.9308
2121.07	2.04096
2122.52	1.83911
2123.97	2.26986
2125.42	1.2259
2126.87	2.96712
2128.32	2.38543
2129.77	2.69659
2131.22	2.44217
2132.67	2.17013
2134.12	2.56006
2135.57	2.62019
2137.01	2.33563
2138.46	2.3352
2139.91	3.14772
2141.36	3.50045
2142.8	2.69795
2144.25	2.95472
2145.7	2.71545
2147.14	3.27024
2148.59	3.29436
2150.03	3.35013
2151.48	2.90716
2152.92	3.72172
2154.37	3.34189
2155.81	3.88907
2157.26	3.90617
2158.7	3.11288
2160.15	3.71334
2161.59	3.83654
2163.03	3.99627
2164.48	3.89348
2165.92	3.85849
2167.36	4.1556
2168.8	4.18526
2170.25	4.07875
2171.69	4.25123
2173.13	3.67163
2174.57	4.1376
2176.01	3.35511
2177.45	2.98892
2178.89	3.17275
2180.33	3.75723
2181.77	3.27918
2183.21	3.05149
2184.65	3.73901
2186.09	3.79475
2187.53	4.23328
2188.97	3.35732
2190.41	3.24669
2191.84	3.88477
2193.28	3.17309
2194.72	3.225
2196.16	3.19062
2197.59	3.13624
2199.03	2.96262
2200.47	2.37209
2201.9	2.81153
2203.34	2.65416
2204.78	2.61487
2206.21	2.31218
2207.65	2.98806
2209.08	2.86824
2210.51	2.58175
2211.95	2.60819
2213.38	2.56725
2214.82	2.55917
2216.25	1.85883
2217.68	2.72839
2219.12	2.49434
2220.55	1.93219
2221.98	2.7715
2223.42	2.06045
2224.85	2.12175
2226.28	1.55492
2227.71	1.51248
2229.14	1.82942
2230.57	2.42334
2232	1.62268
2233.43	2.18286
2234.86	1.48398
2236.29	1.91555
2237.72	1.07561
2239.15	1.52864
2240.58	1.57666
2242.01	0.975133
2243.44	1.48466
2244.87	1.24452
2246.3	1.1828
2247.73	0.890385
2249.15	1.13288
2250.58	0.589746
2252.01	1.03773
2253.43	0.703068
2254.86	1.10057
2256.29	0.42811
2257.71	0.279188
2259.14	0.686084
2260.56	0.140019
2261.99	0.830797
2263.41	0.939985
2264.84	0.562276
2266.26	0.525099
2267.69	1.02356
2269.11	1.13047
2270.54	0.454847
2271.96	0.852787
2273.38	0.420047
2274.81	0.475943
2276.23	0.613644
2277.65	0.507232
2279.07	0.971453
2280.49	0.0334597
2281.92	0.905323
2283.34	0.635462
2284.76	0.855104
2286.18	0.242719
2287.6	0.936754
2289.02	0.58657
2290.44	0.220398
2291.86	0.524576
2293.28	0.502134
2294.7	0.299668
2296.12	0.162391
2297.54	0.303306
2298.96	0.116776
2300.38	0.241762
2301.79	-0.239432
2303.21	-0.851941
2304.63	-0.0532026
2306.05	-0.239109
2307.46	0.149422
2308.88	0.553977
2310.3	0.283778
2311.71	-0.102323
2313.13	-0.225443
2314.55	0.310306
2315.96	0.0736017
2317.38	0.34853
2318.79	-0.216288
2320.21	0.224066
2321.62	0.0362616
2323.03	0.0107212
2324.45	0.427473
2325.86	-0.0831165
2327.27	0.624591
2328.69	0.325089
2330.1	0.25679
2331.51	0.206303
2332.93	0.28914
2334.34	0.554185
2335.75	0.128572
2337.16	-0.215226
2338.57	0.294733
2339.99	0.490383
2341.4	0.50378
2342.81	0.0568962
2344.22	-0.241837
2345.63	-0.146448
2347.04	-0.0999022
2348.45	-0.0533562
2349.86	-0.301843
2351.26	-0.354897
2352.67	0.22775
2354.08	0.236888
2355.49	0.473209
2356.9	0.203793
2358.31	-4.1008e-005
2359.71	0.0079565
2361.12	0.486769
2362.53	-0.024436
2363.94	-0.469924
2365.34	0.331206
2366.75	0.0804319
2368.15	0.218521
2369.56	0.0190849
2370.97	-0.0814247
2372.37	-0.00269699
2373.78	0.157908
2375.18	0.0131226
2376.59	-0.469921
2377.99	0.219901
2379.39	-0.0414104
2380.8	0.0164251
2382.2	0.472985
2383.61	-0.161901
2385.01	0.51608
2386.41	0.410137
2387.81	0.305753
2389.22	0.251155
2390.62	0.325934
2392.02	0.0202312
2393.42	-0.04498
2394.82	-0.172548
2396.22	0.241517
2397.63	-0.106646
2399.02	-0.263127
2400.43	0.391345
2401.82	0.15657
2403.23	-0.0304136
2404.62	-0.535414
2406.02	0.371422
2407.42	0.022768
2408.82	0.688304
2410.22	-0.248306
2411.62	0.194695
2413.02	0.195028
2414.41	0.529669
2415.81	0.24895
2417.21	-0.203982
2418.61	0.325997
2420	0.0648279
2421.4	0.151897
2422.79	0.254324
2424.19	0.435605
2425.59	0.284225
2426.98	0.688251
2428.38	0.301074
2429.77	0.0101576
2431.17	0.51333
2432.56	-0.316257
2433.96	0.409079
2435.35	0.148355
2436.74	-0.289353
2438.14	0.351151
2439.53	-0.0428867
2440.92	0.117776
2442.32	0.182298
2443.71	0.230481
2445.1	-0.197474
2446.49	0.35769
2447.88	0.468435
2449.28	0.594892
2450.67	0.357397
2452.06	-0.41729
2453.45	-0.0195141
2454.84	-0.0478687
2456.23	0.0196743
2457.62	0.404014
2459.01	0.297762
2460.4	0.253963
2461.79	0.477798
2463.18	0.49487
2464.57	0.274075
2465.96	-0.247043
2467.34	0.100348
2468.73	0.194888
2470.12	0.620238
2471.51	0.902626
2472.89	0.0494423
2474.28	0.613064
2475.67	0.262548
2477.05	0.336403
2478.44	0.143071
2479.83	0.279801
2481.21	-0.194955
2482.6	0.239644
2483.98	-0.297705
2485.37	0.243835
2486.75	0.0639992
2488.14	0.226304
2489.52	-0.111572
2490.9	-0.0441418
2492.29	0.334716
2493.67	0.667618
2495.06	0.55194
2496.44	0.205804
2497.82	0.388042
2499.2	0.493023
2500.59	0.102413
2501.97	0.113116
2503.35	-0.0011158
2504.73	-0.239801
2506.11	-0.0320206
2507.49	-0.225224
2508.88	-0.125745
2510.26	-0.225554
2511.63	-0.24758
2513.01	0.206676
2514.39	0.201883
2515.77	-0.184324
2517.15	-0.0335894
2518.53	0.224751
2519.91	0.284408
2521.29	0.175614
2522.67	0.279698
2524.05	-0.0293922
2525.42	0.102936
2526.8	0.234647
2528.18	-0.33323
2529.56	-0.0625172
2530.93	0.331652
2532.31	-0.0166044
2533.69	0.351233
2535.06	-0.115551
2536.44	0.359549
2537.81	0.529811
2539.19	0.637864
2540.56	0.395415
2541.94	-0.0750856
2543.31	0.0619774
2544.69	0.291138
2546.06	0.385449
2547.44	-0.00390339
2548.81	1.09462
2550.18	0.114783
2551.56	0.621216
2552.93	0.306837
2554.3	0.597984
2555.68	0.478062
2557.05	0.888223
2558.42	0.115202
2559.79	0.737597
2561.16	0.951255
2562.53	0.317126
2563.9	0.153686
2565.28	-0.266773
2566.64	-0.247458
2568.02	0.438798
2569.38	0.15512
2570.76	0.371566
2572.12	-0.109187
2573.49	0.0467577
2574.86	0.354416
2576.23	1.02603
2577.6	0.317834
2578.97	0.428022
2580.34	-0.0385208
2581.7	0.267653
2583.07	0.618712
2584.44	0.150702
2585.81	0.31933
2587.17	0.336496
2588.54	0.156878
2589.91	0.492678
2591.27	0.0705509
2592.64	0.60239
2594	0.148211
2595.37	0.434834
2596.73	-0.203603
2598.1	0.624894
2599.46	0.847093
2600.83	0.374077
2602.19	0.325131
2603.55	0.41302
2604.92	0.456349
2606.28	0.122797
2607.64	0.558028
2609.01	0.599776
2610.37	-0.068224
2611.73	0.466875
2613.09	0.142267
2614.46	0.147611
2615.82	0.722752
2617.18	-0.366926
2618.54	0.642993
2619.9	-0.0536594
2621.26	0.343329
2622.62	0.456569
2623.98	0.555034
2625.34	0.324961
2626.7	0.557088
2628.06	0.386036
2629.42	0.125428
2630.78	0.236844
2632.14	0.585746
2633.5	0.592327
2634.86	0.361356
2636.22	0.590411
2637.57	0.43377
2638.93	0.603153
2640.29	0.299031
2641.64	0.527913
2643	0.254549
2644.36	0.0998821
2645.72	0.314094
2647.07	0.276794
2648.43	0.400558
2649.78	0.478746
2651.14	0.614548
2652.49	-0.102211
2653.85	1.10466
2655.2	0.404804
2656.56	0.425341
2657.91	0.813394
2659.27	0.412346
2660.62	0.421676
2661.97	0.79612
2663.33	0.438951
2664.68	0.781633
2666.03	0.320473
2667.38	0.806576
2668.74	0.243282
2670.09	0.379626
2671.44	0.501942
2672.79	0.654033
2674.14	-0.151628
2675.49	0.350651
2676.84	0.679143
2678.2	0.515196
2679.55	0.729514
2680.89	0.901763
2682.24	0.553805
2683.59	0.526505
2684.94	0.268479
2686.29	0.808981
2687.64	0.30454
2688.99	1.04663
2690.34	0.21841
2691.69	0.723041
2693.04	0.13695
2694.38	0.492507
2695.73	0.600997
2697.08	0.319101
2698.43	0.357811
2699.77	0.673982
2701.12	0.123827
2702.46	0.415675
2703.81	0.520831
2705.16	0.728291
2706.5	0.442857
2707.85	0.853272
2709.19	0.392389
2710.54	0.598583
2711.88	0.572062
2713.23	0.574338
2714.57	0.285777
2715.92	0.360415
2717.26	0.478488
2718.6	0.217984
2719.95	0.480635
2721.29	0.946443
2722.63	0.960405
2723.97	0.915401
2725.32	0.884256
2726.66	0.852509
2728	0.98034
2729.34	0.292819
2730.68	0.667399
2732.02	0.939954
2733.36	0.703394
2734.7	1.06347
2736.04	0.638359
2737.39	0.678864
2738.72	0.617504
2740.06	0.483044
2741.4	0.755016
2742.74	0.706082
2744.08	0.191055
2745.42	0.459924
2746.76	0.451999
2748.1	0.71956
2749.44	0.522614
2750.77	0.442121
2752.11	0.144551
2753.45	0.253292
2754.78	0.478086
2756.12	0.529088
2757.46	0.203796
2758.79	-0.0196581
2760.13	-0.0833035
2761.47	0.287856
2762.8	0.370193
2764.14	-0.0679369
2765.47	0.246294
2766.81	-0.0478125
2768.14	0.0618382
2769.48	-0.0328503
2770.81	-0.143987
2772.14	0.161849
2773.48	-0.125928
2774.81	0.450971
2776.14	0.335363
2777.48	-0.0242176
2778.81	-0.353724
2780.14	0.0220976
2781.47	0.383472
2782.81	-0.202709
2784.14	-0.357994
2785.47	0.060154
2786.8	-0.066288
2788.13	-0.00580692
2789.46	-0.101697
2790.79	0.1756
2792.12	-0.0752096
2793.46	0.00352192
2794.79	-0.532285
2796.11	0.560543
2797.44	0.209249
2798.77	0.228587
2800.1	0.618322
2801.43	0.165625
2802.76	0.0552492
2804.09	0.229596
2805.42	-0.138127
2806.74	0.0630407
2808.07	-0.00724983
2809.4	0.277208
2810.73	0.20622
2812.05	0.150371
2813.38	0.167131
2814.71	-0.0834112
2816.03	0.348635
2817.36	0.668815
2818.68	0.068574
2820.01	0.0919847
2821.33	0.511577
2822.66	0.136507
2823.98	0.554043
2825.31	0.361773
2826.63	0.608631
2827.96	0.219015
2829.28	1.11859
2830.61	1.09859
2831.93	1.1214
2833.25	1.29982
2834.57	1.66171
2835.9	2.34822
2837.22	2.1705
2838.54	2.79842
2839.86	3.62363
2841.18	4.1941
2842.51	4.65197
2843.83	5.57729
2845.15	6.20708
2846.47	6.65438
2847.79	6.96113
2849.11	7.64958
2850.43	7.95583
2851.75	7.80874
2853.07	7.8867
2854.39	8.61383
2855.71	7.33407
2857.03	8.103
2858.35	7.55825
2859.67	8.29875
2860.98	7.95143
2862.3	8.04122
2863.62	8.42658
2864.94	8.64188
2866.25	9.05452
2867.57	8.32513
2868.89	8.62626
2870.21	9.29471
2871.52	8.94841
2872.84	9.56004
2874.15	9.64854
2875.47	10.2418
2876.78	9.39631
2878.1	9.61934
2879.42	10.1509
2880.73	10.4858
2882.04	10.9485
2883.36	11.0761
2884.67	10.5038
2885.99	10.8174
2887.3	10.3872
2888.61	10.5035
2889.93	10.7163
2891.24	10.4084
2892.55	10.59
2893.87	10.7711
2895.18	11.1068
2896.49	11.598
2897.8	11.5594
2899.11	11.2293
2900.42	11.2088
2901.74	11.5391
2903.05	12.0097
2904.36	11.963
2905.67	11.917
2906.98	12.4457
2908.29	12.5006
2909.6	11.8859
2910.91	12.7975
2912.22	13.3456
2913.53	13.1363
2914.83	13.6801
2916.14	13.7161
2917.45	14.4065
2918.76	14.6886
2920.07	14.7184
2921.37	15.1691
2922.68	15.3988
2923.99	15.6735
2925.3	15.4896
2926.6	16.1179
2927.91	15.7259
2929.22	15.9062
2930.52	16.1832
2931.83	15.942
2933.13	16.4271
2934.44	16.1434
2935.74	16.447
2937.05	15.9125
2938.35	15.4624
2939.66	14.4122
2940.96	14.5089
2942.27	13.839
2943.57	13.7585
2944.87	13.0657
2946.18	12.3611
2947.48	11.7412
2948.78	11.6942
2950.09	11.7851
2951.39	11.0184
2952.69	10.9761
2953.99	10.6931
2955.29	10.9414
2956.6	10.4635
2957.9	10.3537
2959.2	9.14304
2960.5	9.46358
2961.8	9.70439
2963.1	9.59644
2964.4	9.26278
2965.7	8.09729
2967	8.61419
2968.3	7.80758
2969.6	7.98356
2970.9	7.55469
2972.2	7.02776
2973.49	7.33156
2974.79	7.01627
2976.09	6.5731
2977.39	6.76132
2978.69	6.08773
2979.98	6.19969
2981.28	5.97162
2982.58	5.09585
2983.88	5.43056
2985.17	5.0643
2986.47	4.70093
2987.76	4.35431
2989.06	3.89708
2990.36	4.21335
2991.65	3.99492
2992.95	3.47978
2994.24	3.01905
2995.54	2.8378
2996.83	2.5714
2998.12	2.22083
2999.42	2.68466
3000.71	1.85914
3002	2.17064
3003.3	1.59998
3004.59	2.03861
3005.88	1.14634
3007.18	1.52782
3008.47	0.984412
3009.76	1.54505
3011.05	0.860398
3012.35	0.860398
3013.64	1.02797
3014.93	1.02882
3016.22	0.613008
3017.51	0.0876694
3018.8	0.412686
3020.09	0.50125
3021.38	0.603168
3022.67	0.217766
3023.96	0.0260191
3025.25	0.194174
3026.54	0.431127
3027.83	0.156568
3029.12	0.0364246
3030.41	0.112305
3031.69	-0.292851
3032.98	0.146211
3034.27	-0.269958
3035.56	-0.0931215
3036.85	0.0819063
3038.13	0.14413
3039.42	0.189954
3040.71	0.0274296
3041.99	0.152468
3043.28	-0.0242147
3044.57	0.198039
3045.85	0.572845
3047.14	0.281108
3048.42	0.130109
3049.71	0.0099411
3050.99	0.192635
3052.28	0.363179
3053.56	0.465776
3054.85	0.635888
3056.13	0.300048
3057.42	0.303925
3058.7	0.443151
3059.98	0.799971
3061.27	0.680928
3062.55	0.468549
3063.83	0.788978
3065.11	0.785666
3066.4	0.18659
3067.68	-0.00289917
3068.96	0.379619
3070.24	0.109391
3071.52	0.25983
3072.8	-0.0399246
3074.09	0.461082
3075.37	0.59377
3076.65	-0.102181
3077.93	-0.0771427
3079.21	0.19396
3080.49	0.168989
3081.77	0.526441
3083.05	0.0450163
3084.32	-0.0145531
3085.61	-0.738635
3086.88	0.233457
3088.16	-0.0165634
3089.44	0.0314388
3090.72	-0.260068
3092	0.127056
3093.27	-0.122854
3094.55	0.4147
3095.83	0.180017
3097.11	0.176414
3098.38	-0.165675
3099.66	-0.100865
3100.94	0.235149
3102.21	0.368358
3103.49	0.285701
3104.76	0.177175
3106.04	0.449092
3107.31	0.533229
3108.59	0.483954
3109.86	0.653192
3111.14	0.607717
3112.41	0.617933
3113.69	0.845944
3114.96	0.762838
3116.23	0.842194
3117.51	0.71738
3118.78	0.903445
3120.05	1.10195
3121.33	0.648751
3122.6	0.900268
3123.87	0.90792
3125.14	1.26844
3126.42	0.736568
3127.69	1.04523
3128.96	0.895123
3130.23	0.786656
3131.5	1.04397
3132.77	0.896132
3134.04	0.99159
3135.31	1.46476
3136.58	1.41106
3137.85	1.53257
3139.12	1.4788
3140.39	1.3717
3141.66	1.56137
3142.93	2.03391
3144.2	1.86251
3145.47	1.94786
3146.74	1.82021
3148	1.72102
3149.27	2.57414
