200.388	0.261971
202.204	0.279525
204.019	0.298158
205.832	0.147494
207.646	0.021596
209.459	-0.274723
211.274	0.0354948
213.087	0.0771208
214.899	0.796808
216.711	-0.0363445
218.524	0.221683
220.335	0.479911
222.146	0.158192
223.956	-0.259011
225.766	0.170563
227.576	-0.0281982
229.388	0.0626593
231.197	0.0563545
233.005	-0.143236
234.813	0.0916939
236.621	0.134759
238.429	-0.543303
240.236	-0.0138874
242.045	0.011569
243.852	0.303687
245.658	0.330608
247.464	-0.126741
249.269	0.379096
251.074	0.519766
252.879	0.512819
254.683	0.407611
256.487	0.0127182
258.291	-0.236471
260.094	-0.291249
261.897	0.16163
263.702	0.158391
265.504	0.156179
267.306	0.419433
269.108	0.0557795
270.909	0.221641
272.71	-0.0957747
274.511	0.573994
276.311	0.518842
278.111	0.172742
279.91	-0.0786486
281.709	0.0775156
283.508	0.832883
285.306	-0.144466
287.105	-0.592615
288.9	0.470668
290.698	0.310879
292.495	0.0807972
294.291	-0.051796
296.088	-0.0633135
297.884	-0.0498905
299.679	0.561323
301.475	-0.189429
303.27	0.0623636
305.064	-0.116783
306.858	-0.105836
308.652	0.333924
310.444	0.27335
312.237	-0.429103
314.03	0.489531
315.822	0.647799
317.615	1.02223
319.406	0.922005
321.198	0.870589
322.987	0.533754
324.778	0.57879
326.568	0.815019
328.358	0.66906
330.148	0.665713
331.935	0.58943
333.724	0.559281
335.513	0.479163
337.301	0.803573
339.089	0.00135517
340.875	0.561233
342.662	0.761252
344.449	-0.0425396
346.236	0.372878
348.02	0.191725
349.806	0.631853
351.592	0.403543
353.375	0.222528
355.16	0.159901
356.944	0.835213
358.728	0.0548401
360.51	0.869872
362.294	0.278785
364.077	-0.00303555
365.858	0.332611
367.64	0.287122
369.422	0.454276
371.202	0.359669
372.983	1.04535
374.764	0.712834
376.543	0.853239
378.324	0.616547
380.102	1.37066
381.881	1.20667
383.661	1.67936
385.438	1.21257
387.216	0.489062
388.993	1.27062
390.771	1.13688
392.548	0.816174
394.324	1.05975
396.101	0.50526
397.875	0.537973
399.651	0.73495
401.425	0.767089
403.201	0.422804
404.974	0.289187
406.749	0.648009
408.524	0.254797
410.296	0.42475
412.07	0.266094
413.841	0.530235
415.614	0.489987
417.385	0.262802
419.156	0.317807
420.928	-0.119785
422.698	0.287331
424.469	0.224372
426.238	-0.121195
428.009	0.00197601
429.777	-0.0866127
431.548	0.317647
433.315	0.48743
435.083	-0.140421
436.852	0.287848
438.618	0.199145
440.387	0.320297
442.153	0.0406971
443.919	0.509499
445.686	-0.148605
447.451	-0.432326
449.218	-0.271716
450.982	-0.111339
452.746	0.305838
454.512	-0.187156
456.275	0.18299
458.038	0.552406
459.803	0.758387
461.565	0.476374
463.327	0.614547
465.091	0.127601
466.852	0.317323
468.613	-0.210806
470.374	0.541444
472.136	0.550606
473.896	0.628942
475.655	0.239806
477.415	0.40744
479.176	0.852783
480.934	0.435194
482.692	0.343838
484.45	0.276865
486.21	0.467981
487.967	0.0786552
489.724	0.670424
491.481	0.143695
493.237	0.831644
494.995	-0.303002
496.75	0.947742
498.506	0.419887
500.26	0.828652
502.015	0.697668
503.771	0.448167
505.525	0.0796804
507.279	1.16743
509.032	0.584336
510.785	1.08166
512.537	0.706834
514.289	1.38933
516.041	0.964502
517.793	1.07955
519.546	1.16995
521.297	1.11848
523.047	1.3014
524.797	1.10834
526.547	0.93892
528.297	0.58213
530.046	0.764612
531.795	0.571758
533.543	1.01035
535.291	0.558331
537.039	0.783385
538.787	0.539663
540.534	0.411872
542.281	0.539796
544.027	0.62048
545.773	0.166472
547.519	0.479618
549.264	0.653176
551.01	0.548686
552.754	0.444611
554.499	0.710657
556.243	0.491668
557.987	0.227372
559.73	0.0331688
561.474	0.576475
563.216	-0.00762463
564.959	0.0303087
566.701	-0.229829
568.441	0.337574
570.182	0.0104465
571.923	0.212489
573.664	-0.157452
575.405	0.208363
577.145	-0.181324
578.885	0.0268269
580.624	-0.0167208
582.361	0.422375
584.1	0.332651
585.839	0.0119047
587.577	0.310894
589.315	0.608818
591.052	0.146588
592.787	-0.155123
594.524	0.210222
596.26	0.368529
597.997	0.158706
599.732	0.132618
601.466	0.312806
603.201	0.652708
604.936	0.0253925
606.67	0.362455
608.403	0.560557
610.136	0.115622
611.87	-0.488948
613.603	-0.381458
615.334	0.0703573
617.067	0.132544
618.799	0.0110178
620.529	0.735568
622.26	0.131227
623.991	0.486964
625.72	0.545194
627.451	-0.012084
629.181	-0.0649366
630.909	0.249518
632.638	0.520302
634.368	0.404267
636.095	-0.12293
637.823	0.124392
639.551	0.118104
641.277	0.200262
643.005	0.234353
644.73	-0.0971632
646.457	-0.427877
648.184	-0.301812
649.908	0.0768528
651.634	-0.0409479
653.357	0.481304
655.083	0.507003
656.806	0.671667
658.53	0.131109
660.253	-0.159933
661.977	0.323555
663.7	0.417117
665.422	-0.406051
667.145	0.209163
668.865	0.549385
670.588	-0.0476036
672.308	-0.185483
674.027	0.80082
675.749	0.278097
677.468	0.00801182
679.188	0.633292
680.907	0.339339
682.627	0.411307
684.345	0.0439558
686.064	-0.210472
687.781	0.569959
689.498	0.72762
691.216	0.723315
692.932	0.649296
694.65	0.390297
696.366	0.544946
698.081	0.560242
699.797	1.0115
701.512	0.518211
703.228	0.668104
704.942	1.04678
706.655	1.37847
708.371	0.998288
710.083	0.0225973
711.796	0.604988
713.51	0.888687
715.222	0.806041
716.934	0.883314
718.645	0.39024
720.358	0.855447
722.068	1.11508
723.779	0.873764
725.49	0.769139
727.2	1.02786
728.909	0.582214
730.618	0.567728
732.329	0.91526
734.037	0.492636
735.745	0.387341
737.453	0.68904
739.16	0.539604
740.869	0.864711
742.576	0.785041
744.282	0.954437
745.988	1.05755
747.694	0.59955
749.401	0.840324
751.107	1.17228
752.811	0.988199
754.516	0.535455
756.22	0.871539
757.924	0.826629
759.627	1.52655
761.332	1.80023
763.035	1.30778
764.738	1.78528
766.44	2.23973
768.142	1.83375
769.843	2.7819
771.544	2.84617
773.245	2.20779
774.946	2.42815
776.646	2.64902
778.346	2.71303
780.046	1.94195
781.745	2.57433
783.444	1.62318
785.143	2.20971
786.841	1.73004
788.539	1.67729
790.237	1.96055
791.934	1.92415
793.631	1.59253
795.328	1.75749
797.024	1.51732
798.72	1.34674
800.416	1.15566
802.112	1.84362
803.807	1.60967
805.502	1.21844
807.196	1.56829
808.89	0.838686
810.584	1.1412
812.278	1.48723
813.971	0.801444
815.664	2.08662
817.354	1.8933
819.047	1.74505
820.739	1.23992
822.43	2.05245
824.122	1.57132
825.813	1.1145
827.503	1.59567
829.192	1.47798
830.882	1.6751
832.571	1.16224
834.261	1.23059
835.95	1.65692
837.637	1.41411
839.325	1.72816
841.013	1.21443
842.701	1.23529
844.389	1.43441
846.074	1.38836
847.761	1.18745
849.447	1.727
851.131	1.21745
852.817	1.62786
854.503	0.940676
856.188	1.15037
857.871	1.15711
859.556	0.802262
861.24	0.78293
862.922	0.762034
864.606	0.672294
866.289	1.16775
867.97	0.873624
869.653	0.624039
871.336	0.802649
873.016	0.98113
874.698	0.640615
876.379	0.90932
878.058	0.433315
879.739	0.702003
881.418	0.925276
883.098	0.92215
884.778	1.00829
886.456	0.935084
888.135	1.17628
889.812	0.874496
891.49	1.08995
893.167	1.28131
894.845	1.06614
896.523	0.872773
898.198	1.15044
899.875	0.686303
901.55	0.939459
903.226	0.855766
904.901	0.92854
906.576	1.06829
908.25	0.695537
909.925	0.591694
911.598	0.666916
913.271	0.609309
914.945	1.15167
916.617	0.872308
918.291	0.881511
919.962	0.514396
921.635	0.502396
923.306	0.469359
924.978	0.437861
926.648	0.297718
928.318	0.865564
929.989	0.684029
931.659	0.900393
933.328	0.609594
934.998	0.804303
936.666	0.889094
938.336	1.06291
940.004	0.70858
941.671	0.950952
943.34	0.774927
945.007	0.245588
946.673	0.818767
948.339	0.81636
950.007	0.503138
951.672	0.277145
953.337	0.360064
955.004	0.378161
956.669	0.905972
958.333	0.0915203
959.997	0.536996
961.662	1.02877
963.326	1.01282
964.989	0.951025
966.651	0.222863
968.315	0.598122
969.977	0.639472
971.639	0.945341
973.301	0.344774
974.962	0.453296
976.624	0.718341
978.285	0.122215
979.945	0.566453
981.605	0.944219
983.264	0.590318
984.924	0.920794
986.583	0.0539942
988.243	0.778983
989.901	0.661803
991.56	0.433591
993.217	0.249639
994.875	0.419173
996.532	1.14018
998.188	0.69173
999.845	0.463957
1001.5	0.566436
1003.16	0.734391
1004.81	0.747849
1006.47	0.43153
1008.12	0.730646
1009.78	0.744367
1011.43	0.385688
1013.09	0.466237
1014.74	0.744208
1016.39	0.890905
1018.05	0.315892
1019.7	0.332693
1021.35	1.44364
1023	1.26545
1024.65	1.76583
1026.31	0.846343
1027.96	1.43474
1029.61	1.34512
1031.26	1.88766
1032.91	2.01332
1034.56	1.78795
1036.21	1.60496
1037.86	1.11636
1039.51	1.17259
1041.16	1.09888
1042.8	1.17873
1044.45	1.34717
1046.1	0.605233
1047.75	1.12508
1049.39	1.19049
1051.04	0.583884
1052.69	0.673084
1054.33	0.762707
1055.98	0.635046
1057.62	0.420109
1059.27	0.726454
1060.91	0.836555
1062.56	1.03288
1064.2	0.162857
1065.85	0.0746956
1067.49	0.224635
1069.13	0.417016
1070.77	0.6086
1072.42	0.604502
1074.06	0.991418
1075.7	0.663265
1077.34	0.683565
1078.98	1.00868
1080.62	0.445511
1082.27	0.728068
1083.91	1.20491
1085.55	0.834564
1087.18	1.00414
1088.82	1.08482
1090.46	0.687577
1092.1	1.04641
1093.74	0.777721
1095.38	0.919644
1097.02	0.58785
1098.65	0.925665
1100.29	0.145337
1101.93	0.55111
1103.56	0.764737
1105.2	0.82904
1106.84	0.872433
1108.47	0.356424
1110.11	0.205095
1111.74	0.396274
1113.38	0.95091
1115.01	0.687845
1116.64	0.531766
1118.28	0.354548
1119.91	0.949468
1121.54	0.688183
1123.18	0.578033
1124.81	0.38337
1126.44	0.424952
1128.07	0.253428
1129.7	0.424747
1131.33	0.275898
1132.97	-0.000888824
1134.6	0.363541
1136.23	0.0861254
1137.86	0.192472
1139.49	0.618016
1141.11	0.615211
1142.74	-0.0709648
1144.37	-0.159162
1146	-0.0334768
1147.63	-0.0774994
1149.26	0.34803
1150.88	0.283932
1152.51	0.198596
1154.14	0.347172
1155.76	-0.632716
1157.39	0.0899687
1159.01	0.00427628
1160.64	0.174581
1162.27	0.430924
1163.89	0.539383
1165.51	0.371959
1167.14	-0.178391
1168.76	0.0569954
1170.39	0.0356979
1172.01	-0.0511236
1173.63	0.433745
1175.25	0.0256605
1176.88	0.296055
1178.5	-0.00574684
1180.12	-0.369972
1181.74	0.0709438
1183.36	-0.0588579
1184.98	-0.272955
1186.6	0.103656
1188.22	-0.175858
1189.84	-0.0351028
1191.46	0.0404177
1193.08	0.19842
1194.7	0.313187
1196.32	0.134088
1197.94	0.165702
1199.55	-0.0312157
1201.17	0.00428772
1202.79	0.334518
1204.41	0.103368
1206.02	-0.229911
1207.64	-0.019412
1209.25	-0.49703
1210.87	0.714167
1212.48	-0.266054
1214.1	0.669686
1215.71	0.144459
1217.33	0.284088
1218.94	0.422428
1220.56	0.207425
1222.17	0.366773
1223.79	0.133299
1225.4	0.31571
1227.01	0.789022
1228.62	0.291101
1230.23	0.704527
1231.85	0.457406
1233.46	0.521549
1235.07	-0.0538263
1236.68	0.529345
1238.29	0.638174
1239.9	0.830429
1241.51	0.567947
1243.12	0.0774698
1244.73	0.558625
1246.34	0.976851
1247.94	0.711235
1249.55	0.796642
1251.16	0.219708
1252.77	0.615287
1254.37	0.494367
1255.98	0.705408
1257.59	1.10385
1259.2	0.696608
1260.8	0.869575
1262.41	0.898186
1264.01	0.636855
1265.62	0.830862
1267.22	0.050066
1268.83	0.76078
1270.43	1.18042
1272.03	0.686759
1273.64	1.39461
1275.24	0.650287
1276.85	1.31453
1278.45	1.04535
1280.05	0.982816
1281.65	0.713055
1283.25	0.85737
1284.85	0.877992
1286.46	1.10618
1288.06	1.93464
1289.66	1.19321
1291.26	1.403
1292.86	1.96393
1294.46	1.34645
1296.06	1.14102
1297.66	1.73926
1299.25	1.34486
1300.85	1.5267
1302.45	1.41858
1304.05	0.980397
1305.65	1.67311
1307.24	1.52182
1308.84	1.37053
1310.43	1.44499
1312.03	0.92594
1313.63	1.04267
1315.22	0.587996
1316.82	0.972101
1318.41	0.927729
1320.01	1.29107
1321.6	1.14373
1323.2	0.771326
1324.79	1.04852
1326.38	1.36426
1327.98	1.25284
1329.57	0.8992
1331.16	1.29623
1332.76	0.886365
1334.35	0.842789
1335.94	1.16408
1337.53	0.981391
1339.12	1.06036
1340.71	0.654249
1342.3	1.47436
1343.89	0.682692
1345.48	0.835389
1347.07	0.265851
1348.66	0.82082
1350.25	0.516464
1351.84	0.694962
1353.43	0.575346
1355.01	0.497044
1356.6	0.658951
1358.19	0.740483
1359.77	1.0607
1361.36	0.700968
1362.95	0.580172
1364.53	0.060442
1366.12	0.916297
1367.71	0.616941
1369.29	0.358795
1370.88	0.619534
1372.46	0.244729
1374.04	0.268966
1375.63	-0.0444393
1377.21	0.298908
1378.8	0.184162
1380.38	0.924094
1381.96	0.230266
1383.54	0.311181
1385.13	0.430856
1386.71	0.510231
1388.29	0.669077
1389.87	0.788691
1391.45	0.710638
1393.03	0.296151
1394.61	0.556576
1396.19	0.301174
1397.77	0.639969
1399.35	0.581278
1400.93	0.383091
1402.51	0.342896
1404.09	0.797283
1405.67	0.717773
1407.24	0.639145
1408.82	0.640421
1410.4	0.582944
1411.98	0.801931
1413.55	0.566214
1415.13	0.527142
1416.71	0.250651
1418.28	0.742755
1419.86	0.348128
1421.43	0.466784
1423.01	0.724578
1424.58	1.4562
1426.16	1.20491
1427.73	1.1707
1429.31	1.15593
1430.88	1.17965
1432.45	1.51708
1434.02	1.59761
1435.6	1.34326
1437.17	1.97399
1438.74	1.70093
1440.31	1.62552
1441.88	1.84589
1443.45	1.1433
1445.03	1.4434
1446.6	1.40956
1448.17	2.04421
1449.74	1.51937
1451.3	1.58469
1452.87	1.86692
1454.44	1.28413
1456.01	1.13391
1457.58	1.57343
1459.15	1.16554
1460.72	1.20862
1462.28	1.09248
1463.85	1.26981
1465.42	1.58345
1466.98	0.324841
1468.55	1.50243
1470.12	1.24715
1471.68	1.07164
1473.25	0.759965
1474.81	0.841359
1476.38	0.903527
1477.94	0.671719
1479.51	1.08677
1481.07	0.678436
1482.63	0.975613
1484.2	0.665158
1485.76	0.785473
1487.32	0.454564
1488.88	0.729577
1490.45	0.728658
1492.01	0.686563
1493.57	0.564336
1495.13	0.0114374
1496.69	0.939746
1498.25	0.658886
1499.81	0.554148
1501.37	0.237103
1502.93	0.232117
1504.49	0.266718
1506.05	0.514454
1507.61	0.374383
1509.17	0.388198
1510.73	0.0921612
1512.28	0.0273094
1513.84	-0.0377541
1515.4	0.37804
1516.96	0.255759
1518.51	0.556355
1520.07	-0.100924
1521.63	0.468068
1523.18	0.156284
1524.74	0.111787
1526.29	0.390647
1527.85	0.210891
1529.4	0.297318
1530.96	0.250524
1532.51	0.507695
1534.06	0.177931
1535.62	-0.168998
1537.17	0.354836
1538.72	0.160948
1540.28	0.250655
1541.83	0.792416
1543.38	0.617847
1544.93	1.00749
1546.48	0.36308
1548.03	0.526647
1549.59	0.502392
1551.14	0.665595
1552.69	0.436085
1554.24	0.450818
1555.79	0.504129
1557.34	0.745637
1558.88	0.373004
1560.43	0.282141
1561.98	0.64046
1563.53	0.757324
1565.08	0.389637
1566.62	0.357853
1568.17	0.344518
1569.72	0.349504
1571.27	0.615466
1572.81	0.787838
1574.36	0.549384
1575.9	0.796293
1577.45	1.04339
1579	0.656131
1580.54	0.250664
1582.09	0.816889
1583.63	0.86109
1585.17	0.663063
1586.72	0.727081
1588.26	0.809995
1589.8	0.78052
1591.35	0.563435
1592.89	0.982394
1594.43	0.57719
1595.97	1.07108
1597.52	1.0971
1599.06	0.88
1600.6	1.26364
1602.14	0.91614
1603.68	1.01895
1605.22	0.670373
1606.76	1.18477
1608.3	0.926956
1609.84	1.23081
1611.38	0.649247
1612.92	0.836291
1614.46	0.665294
1615.99	1.038
1617.53	0.960755
1619.07	0.191458
1620.61	0.903636
1622.14	0.830268
1623.68	1.50656
1625.22	0.610346
1626.75	0.874101
1628.29	0.593979
1629.82	1.45352
1631.36	0.928094
1632.9	1.07528
1634.43	0.886537
1635.96	1.09053
1637.5	1.68685
1639.03	1.2766
1640.57	0.810786
1642.1	1.40666
1643.63	1.4982
1645.16	1.42097
1646.7	1.15697
1648.23	1.33898
1649.76	0.926863
1651.29	1.57392
1652.82	1.10859
1654.36	1.21949
1655.89	1.33094
1657.42	1.42374
1658.95	1.77506
1660.48	1.45834
1662.01	1.14058
1663.53	1.13643
1665.06	1.27946
1666.59	1.09036
1668.12	0.754974
1669.65	1.06647
1671.18	0.936866
1672.7	0.918889
1674.23	1.39859
1675.76	1.28871
1677.29	1.43581
1678.81	1.01146
1680.34	1.13811
1681.86	0.896369
1683.39	0.764776
1684.91	0.468237
1686.44	1.03431
1687.96	1.10526
1689.49	0.571966
1691.01	0.826775
1692.54	1.1912
1694.06	0.841836
1695.58	0.821733
1697.11	0.600416
1698.63	0.3425
1700.15	0.577257
1701.67	0.9936
1703.2	0.297094
1704.72	0.329548
1706.24	0.0703917
1707.76	-0.11587
1709.28	0.38832
1710.8	0.274664
1712.32	0.0525465
1713.84	0.229534
1715.36	-0.0281897
1716.88	0.474152
1718.4	-0.090785
1719.91	-0.0228195
1721.43	0.315805
1722.95	0.09548
1724.47	0.236681
1725.99	0.0187178
1727.5	-0.161873
1729.02	0.0184212
1730.54	0.199429
1732.05	0.537193
1733.57	-0.466282
1735.09	0.110305
1736.6	0.671329
1738.12	0.126514
1739.63	0.0808363
1741.15	-0.0863924
1742.66	0.445115
1744.18	-0.0897284
1745.69	0.364163
1747.2	-0.339387
1748.72	-0.107472
1750.23	0.463238
1751.74	0.0713453
1753.25	0.554096
1754.77	-0.00600243
1756.28	0.115129
1757.79	0.336075
1759.3	0.0156622
1760.81	-0.0997
1762.32	-0.230541
1763.83	-0.188004
1765.34	0.270981
1766.85	0.477228
1768.36	0.0869846
1769.87	0.129258
1771.38	0.151556
1772.89	0.0106211
1774.4	-0.166538
1775.91	-0.0377712
1777.41	-0.0240231
1778.92	0.160661
1780.43	-0.101025
1781.94	0.0806646
1783.44	0.0769405
1784.95	0.199301
1786.45	-0.21553
1787.96	0.253329
1789.47	0.0254889
1790.97	0.426877
1792.48	0.122899
1793.98	0.0284548
1795.48	0.333701
1796.99	0.047122
1798.49	0.304398
1800	0.233171
1801.5	-0.0647993
1803	-0.0550842
1804.51	0.0268965
1806.01	-0.0701923
1807.51	-0.0870972
1809.01	0.223182
1810.51	0.0638723
1812.02	0.0657282
1813.52	0.10607
1815.02	-0.0431852
1816.52	0.267057
1818.02	0.0138454
1819.52	0.0828934
1821.02	0.120568
1822.52	0.271393
1824.02	-0.0758171
1825.51	0.0299873
1827.01	-0.266511
1828.51	-0.29104
1830.01	-0.130064
1831.51	0.0686769
1833	-0.114058
1834.5	0.153165
1836	-0.0168257
1837.5	0.419713
1838.99	0.0741282
1840.49	0.162752
1841.98	0.193481
1843.48	0.141841
1844.97	0.0552254
1846.47	0.0451584
1847.96	0.179675
1849.46	-0.123764
1850.95	-0.0879536
1852.45	0.175427
1853.94	0.10149
1855.43	0.398549
1856.92	0.174359
1858.42	0.682745
1859.91	0.221076
1861.4	0.0206823
1862.89	0.297308
1864.39	0.328615
1865.88	0.0999479
1867.37	0.171188
1868.86	0.104244
1870.35	0.11059
1871.84	-0.272217
1873.33	0.188161
1874.82	0.370811
1876.31	-0.435162
1877.8	-0.181472
1879.29	0.132166
1880.77	-0.0418539
1882.26	-0.204821
1882.51	-0.23314
1884	0.14947
1885.5	0.182579
1886.99	0.441286
1888.48	-0.0144701
1889.98	0.452535
1891.47	0.189587
1892.97	0.241226
1894.46	-0.348762
1895.95	0.157968
1897.44	0.109097
1898.93	-0.0268574
1900.42	0.184196
1901.92	0.0284786
1903.41	-0.250497
1904.9	0.060504
1906.39	0.162001
1907.88	0.159164
1909.37	-0.0340576
1910.86	0.0513201
1912.35	0.397653
1913.84	0.206716
1915.32	0.345405
1916.81	0.0676498
1918.3	0.344176
1919.79	0.0136919
1921.28	-0.316668
1922.76	0.0807848
1924.25	0.0460138
1925.74	0.254623
1927.22	0.0487118
1928.71	0.0857477
1930.2	-0.17161
1931.68	0.297625
1933.17	0.0902081
1934.65	0.175561
1936.14	-0.0693951
1937.62	0.0133829
1939.11	0.147467
1940.59	-0.270923
1942.08	-0.0668097
1943.56	0.310525
1945.04	0.136551
1946.53	-0.0369663
1948.01	-0.210573
1949.49	-0.0573893
1950.97	-0.0946102
1952.45	0.194326
1953.94	0.293213
1955.42	-0.0892572
1956.9	0.233191
1958.38	-0.11348
1959.86	0.655892
1961.34	0.32768
1962.82	0.394146
1964.3	0.271932
1965.78	0.166492
1967.26	0.0605392
1968.74	0.0225449
1970.22	-0.494528
1971.69	0.252856
1973.17	-0.127387
1974.65	0.0899553
1976.13	0.613946
1977.61	0.200589
1979.08	0.38362
1980.56	0.00505543
1982.03	-0.135172
1983.51	0.0472698
1984.99	-0.0933504
1986.46	-0.369658
1987.94	-0.306608
1989.41	-0.0740538
1990.89	-0.0781641
1992.36	0.493604
1993.84	-0.100753
1995.31	0.134162
1996.78	0.284845
1998.26	0.418516
1999.73	-0.0898237
2001.2	0.279206
2002.68	0.225775
2004.15	0.0542593
2005.62	0.119109
2007.09	0.319309
2008.56	0.621274
2010.04	0.183159
2011.51	0.317997
2012.98	0.166723
2014.45	0.31803
2015.92	0.233033
2017.39	-0.239553
2018.86	0.29617
2020.33	0.259604
2021.8	0.0885925
2023.27	0.0858955
2024.74	0.335576
2026.2	-0.000915527
2027.67	-0.168296
2029.14	0.202355
2030.61	-0.0128632
2032.07	0.0411701
2033.54	0.196399
2035.01	-0.168867
2036.47	0.154048
2037.94	0.359049
2039.41	0.278067
2040.87	0.264239
2042.34	0.200301
2043.8	0.120177
2045.27	0.343685
2046.73	0.214551
2048.2	0.11925
2049.66	0.0404167
2051.12	0.179823
2052.59	0.638359
2054.05	0.589353
2055.51	0.30263
2056.98	0.621649
2058.44	0.0465946
2059.9	0.0782299
2061.36	0.665833
2062.82	0.328024
2064.29	0.226907
2065.75	0.530608
2067.21	0.229242
2068.67	0.315482
2070.13	-0.102965
2071.59	0.2698
2073.05	-0.0983138
2074.51	0.206827
2075.97	0.444358
2077.43	-0.177283
2078.88	0.396372
2080.34	0.245493
2081.8	0.548727
2083.26	0.43042
2084.72	0.244185
2086.17	0.562055
2087.63	0.727762
2089.09	0.439158
2090.54	0.604181
2092	0.987212
2093.46	0.312641
2094.91	0.66156
2096.37	0.305691
2097.82	0.820601
2099.28	0.748421
2100.73	0.592428
2102.19	0.871335
2103.64	0.616273
2105.09	0.763266
2106.55	1.09495
2108	0.476784
2109.46	0.692987
2110.91	0.691877
2112.36	0.822845
2113.81	0.785538
2115.27	0.480538
2116.72	0.989819
2118.17	0.468675
2119.62	1.27741
2121.07	0.992128
2122.52	1.02406
2123.97	0.178513
2125.42	1.07476
2126.87	0.660829
2128.32	0.975462
2129.77	1.5206
2131.22	1.05366
2132.67	1.46374
2134.12	1.45973
2135.57	1.4565
2137.01	0.909282
2138.46	1.19038
2139.91	1.34106
2141.36	1.75788
2142.8	1.59739
2144.25	1.3878
2145.7	1.44299
2147.14	1.48138
2148.59	1.43636
2150.03	1.523
2151.48	2.02291
2152.92	1.57742
2154.37	1.57847
2155.81	1.6122
2157.26	1.97728
2158.7	1.59764
2160.15	1.58373
2161.59	1.48867
2163.03	2.24089
2164.48	1.91723
2165.92	1.6438
2167.36	1.80187
2168.8	1.57673
2170.25	1.91511
2171.69	1.6028
2173.13	1.75428
2174.57	1.8212
2176.01	1.87086
2177.45	1.92071
2178.89	1.55565
2180.33	1.80675
2181.77	1.39366
2183.21	1.47994
2184.65	1.56652
2186.09	1.55339
2187.53	1.57356
2188.97	1.94327
2190.41	1.3976
2191.84	1.55071
2193.28	1.4201
2194.72	1.52129
2196.16	1.72055
2197.59	1.41855
2199.03	1.38124
2200.47	1.12697
2201.9	1.53701
2203.34	1.66505
2204.78	0.882054
2206.21	0.995799
2207.65	1.12651
2209.08	1.37287
2210.51	1.6348
2211.95	1.01876
2213.38	0.981352
2214.82	0.94386
2216.25	1.27012
2217.68	0.871183
2219.12	1.59516
2220.55	1.11603
2221.98	1.16472
2223.42	1.26213
2224.85	1.22638
2226.28	0.646011
2227.71	0.574697
2229.14	0.896512
2230.57	0.609917
2232	1.02837
2233.43	1.03694
2234.86	0.702816
2236.29	0.84419
2237.72	0.643979
2239.15	0.5926
2240.58	0.820385
2242.01	0.642021
2243.44	0.562676
2244.87	0.418425
2246.3	0.501947
2247.73	0.665586
2249.15	0.696746
2250.58	0.856149
2252.01	0.42767
2253.43	0.145549
2254.86	0.757782
2256.29	0.591052
2257.71	0.134602
2259.14	0.200073
2260.56	0.560151
2261.99	0.386992
2263.41	0.377507
2264.84	0.465807
2266.26	0.553905
2267.69	0.0557184
2269.11	-0.0205607
2270.54	0.341972
2271.96	0.573973
2273.38	-0.089829
2274.81	0.0932202
2276.23	0.439469
2277.65	-0.159227
2279.07	0.611218
2280.49	0.843899
2281.92	0.538325
2283.34	0.477241
2284.76	0.30194
2286.18	0.0287995
2287.6	0.555884
2289.02	0.38137
2290.44	0.027348
2291.86	0.180038
2293.28	0.0222425
2294.7	0.420579
2296.12	0.164448
2297.54	0.284683
2298.96	0.0937986
2300.38	0.263483
2301.79	0.023633
2303.21	0.308783
2304.63	-0.0786285
2306.05	0.141155
2307.46	-0.115643
2308.88	0.070703
2310.3	0.0264692
2311.71	-0.18263
2313.13	0.200453
2314.55	0.337238
2315.96	0.128979
2317.38	-0.0128994
2318.79	0.339995
2320.21	0.231262
2321.62	0.170968
2323.03	0.108999
2324.45	0.177035
2325.86	-0.00439548
2327.27	0.406519
2328.69	0.519647
2330.1	0.138669
2331.51	-0.0765181
2332.93	0.186695
2334.34	0.269517
2335.75	0.35253
2337.16	0.0732913
2338.57	0.0728765
2339.99	0.170062
2341.4	0.660433
2342.81	0.0337548
2344.22	0.113075
2345.63	0.0122461
2347.04	0.222996
2348.45	0.106137
2349.86	0.218119
2351.26	0.0677199
2352.67	-0.0179615
2354.08	0.434155
2355.49	0.216447
2356.9	-0.00109529
2358.31	0.22094
2359.71	-0.142302
2361.12	0.047142
2362.53	0.155116
2363.94	-0.0287647
2365.34	0.0465546
2366.75	0.428943
2368.15	0.16528
2369.56	-0.258307
2370.97	-0.0998163
2372.37	0.124043
2373.78	0.268042
2375.18	-0.344263
2376.59	0.0411868
2377.99	0.361002
2379.39	-0.0922441
2380.8	0.224394
2382.2	-0.198484
2383.61	0.227678
2385.01	0.252693
2386.41	0.054316
2387.81	-0.142836
2389.22	0.347019
2390.62	0.136166
2392.02	0.260989
2393.42	0.322906
2394.82	-0.0439019
2396.22	0.0989456
2397.63	-0.0438275
2399.02	-0.217805
2400.43	-0.232429
2401.82	-0.151483
2403.23	0.358272
2404.62	0.359423
2406.02	0.423304
2407.42	0.184822
2408.82	0.374058
2410.22	0.293329
2411.62	0.371303
2413.02	-0.136024
2414.41	0.3555
2415.81	0.104114
2417.21	0.265521
2418.61	0.0794301
2420	0.748803
2421.4	0.00855494
2422.79	0.297523
2424.19	0.0792999
2425.59	0.0195332
2426.98	0.150373
2428.38	0.202761
2429.77	-0.362517
2431.17	0.230592
2432.56	-0.255076
2433.96	0.433625
2435.35	0.406931
2436.74	0.220017
2438.14	0.222389
2439.53	-0.125844
2440.92	-0.0300388
2442.32	0.0176125
2443.71	0.160185
2445.1	0.254902
2446.49	-0.475032
2447.88	0.380302
2449.28	0.284441
2450.67	-0.206973
2452.06	-0.222732
2453.45	0.0628014
2454.84	0.19074
2456.23	0.161066
2457.62	0.0525918
2459.01	0.14962
2460.4	-0.117599
2461.79	0.0889263
2463.18	-0.226932
2464.57	0.120518
2465.96	-0.606469
2467.34	-0.0384955
2468.73	0.0240178
2470.12	0.275552
2471.51	-0.230166
2472.89	-0.058495
2474.28	0.332692
2475.67	0.156444
2477.05	0.168752
2478.44	-0.0231686
2479.83	-0.0263391
2481.21	0.237197
2482.6	0.186915
2483.98	0.449398
2485.37	-0.196482
2486.75	-0.107724
2488.14	0.026721
2489.52	0.0355148
2490.9	-0.0336699
2492.29	-0.335418
2493.67	0.31158
2495.06	0.0742111
2496.44	-0.130651
2497.82	-0.00921154
2499.2	0.158731
2500.59	0.109612
2501.97	-0.202837
2503.35	0.00942707
2504.73	0.00455999
2506.11	-0.0932789
2507.49	-0.067986
2508.88	0.126461
2510.26	-0.185942
2511.63	0.131862
2513.01	0.219811
2514.39	-0.227712
2515.77	0.244509
2517.15	-0.0786328
2518.53	0.103582
2519.91	0.148232
2521.29	0.238429
2522.67	0.0532098
2524.05	-0.193495
2525.42	0.260631
2526.8	-0.276021
2528.18	0.116681
2529.56	-0.0224533
2530.93	0.11348
2532.31	-0.26585
2533.69	0.115734
2535.06	-0.0186572
2536.44	-0.456911
2537.81	0.167713
2539.19	0.229378
2540.56	0.0625405
2541.94	0.00173664
2543.31	0.183958
2544.69	0.0179205
2546.06	-0.0105119
2547.44	-0.0227399
2548.81	-0.0190802
2550.18	-0.394696
2551.56	0.276342
2552.93	0.476204
2554.3	0.250222
2555.68	0.372464
2557.05	0.236297
2558.42	0.206228
2559.79	0.115762
2561.16	0.101576
2562.53	0.0879421
2563.9	0.286966
2565.28	-0.0743303
2566.64	-0.253583
2568.02	0.431075
2569.38	-0.187612
2570.76	0.209143
2572.12	0.0754533
2573.49	0.0782485
2574.86	0.308514
2576.23	-0.0979133
2577.6	0.0262032
2578.97	0.362432
2580.34	0.258634
2581.7	-0.0577941
2583.07	0.00452948
2584.44	0.0514803
2585.81	0.234793
2587.17	-0.339664
2588.54	-0.337963
2589.91	-0.0179248
2591.27	0.0443573
2592.64	0.197143
2594	0.18255
2595.37	0.575944
2596.73	0.408035
2598.1	0.17907
2599.46	0.116341
2600.83	-0.0671139
2602.19	0.399441
2603.55	0.262323
2604.92	0.26162
2606.28	-0.221611
2607.64	-0.192073
2609.01	0.138177
2610.37	0.165784
2611.73	0.282507
2613.09	-0.0380516
2614.46	0.302276
2615.82	0.10147
2617.18	0.0511727
2618.54	0.30101
2619.9	-0.0175424
2621.26	0.278091
2622.62	0.200206
2623.98	0.271954
2625.34	-0.119038
2626.7	0.280634
2628.06	0.143001
2629.42	0.139315
2630.78	0.284233
2632.14	0.280159
2633.5	0.320604
2634.86	-0.0100918
2636.22	-0.01402
2637.57	0.189498
2638.93	0.0966043
2640.29	0.0927577
2641.64	0.133484
2643	-0.268803
2644.36	0.2892
2645.72	-0.0535479
2647.07	0.237752
2648.43	-0.031724
2649.78	0.169491
2651.14	-0.0125117
2652.49	0.58394
2653.85	0.504494
2655.2	0.381895
2656.56	0.157953
2657.91	-0.050036
2659.27	0.37201
2660.62	0.384587
2661.97	0.426257
2663.33	-0.204522
2664.68	0.0113955
2666.03	0.182606
2667.38	0.0616598
2668.74	-0.0154877
2670.09	0.256909
2671.44	0.209481
2672.79	0.337025
2674.14	0.377835
2675.49	0.0707574
2676.84	0.286753
2678.2	-0.178508
2679.55	0.430179
2680.89	-0.0912886
2682.24	0.229196
2683.59	0.231753
2684.94	0.220641
2686.29	0.0938501
2687.64	0.315202
2688.99	0.158188
2690.34	0.449739
2691.69	0.37674
2693.04	0.142847
2694.38	0.183834
2695.73	0.10867
2697.08	-0.110766
2698.43	-0.140718
2699.77	-0.0100088
2701.12	0.165595
2702.46	-0.0340519
2703.81	-0.0590677
2705.16	0.409239
2706.5	0.138319
2707.85	0.44736
2709.19	0.262727
2710.54	0.368063
2711.88	-0.078783
2713.23	0.360363
2714.57	0.218298
2715.92	0.236029
2717.26	-0.168135
2718.6	-0.165385
2719.95	-0.0465283
2721.29	-0.0589852
2722.63	0.161029
2723.97	0.220556
2725.32	-0.142404
2726.66	-0.258227
2728	0.149641
2729.34	0.193417
2730.68	0.164302
2732.02	0.0478725
2733.36	0.0915532
2734.7	0.397191
2736.04	0.426608
2737.39	0.267073
2738.72	0.471109
2740.06	0.224101
2741.4	0.223918
2742.74	0.106881
2744.08	0.0474401
2745.42	0.278062
2746.76	-0.0872593
2748.1	-0.08955
2749.44	0.299933
2750.77	-0.166421
2752.11	-0.00880766
2753.45	0.177872
2754.78	0.132765
2756.12	-0.0135875
2757.46	0.158831
2758.79	0.360324
2760.13	-0.0602789
2761.47	0.214274
2762.8	0.170838
2764.14	0.344718
2765.47	0.0555854
2766.81	0.0699201
2768.14	-0.176878
2769.48	0.124851
2770.81	0.323915
2772.14	-0.157201
2773.48	-0.133425
2774.81	-0.0813122
2776.14	-0.245388
2777.48	0.0804205
2778.81	0.190455
2780.14	0.22893
2781.47	0.0235033
2782.81	-0.0667682
2784.14	-0.013556
2785.47	0.0682292
2786.8	-0.19369
2788.13	-0.0397601
2789.46	-0.371806
2790.79	0.241098
2792.12	-0.0608077
2793.46	0.338282
2794.79	-0.220322
2796.11	-0.164536
2797.44	0.362129
2798.77	0.345356
2800.1	0.171225
2801.43	-0.00298262
2802.76	-0.319768
2804.09	-0.0949154
2805.42	0.115084
2806.74	-0.173855
2808.07	0.205558
2809.4	0.285578
2810.73	0.266088
2812.05	-0.107632
2813.38	0.18666
2814.71	0.0849466
2816.03	-0.043828
2817.36	0.126019
2818.68	0.0837569
2820.01	0.324981
2821.33	0.0272398
2822.66	0.536737
2823.98	0.507113
2825.31	0.321376
2826.63	0.234894
2827.96	0.248
2829.28	0.388997
2830.61	0.0773916
2831.93	0.318063
2833.25	0.218951
2834.57	0.232817
2835.9	0.232115
2837.22	0.429053
2838.54	0.696252
2839.86	1.00555
2841.18	1.03202
2842.51	1.14367
2843.83	1.1852
2845.15	1.38285
2846.47	1.49627
2847.79	1.76551
2849.11	0.932352
2850.43	2.02114
2851.75	2.09182
2853.07	1.73801
2854.39	1.79372
2855.71	1.36886
2857.03	1.56568
2858.35	2.07323
2859.67	1.73328
2860.98	1.81689
2862.3	1.74489
2863.62	1.85607
2864.94	1.6001
2866.25	1.83797
2867.57	2.30159
2868.89	2.3424
2870.21	2.3695
2871.52	2.38264
2872.84	2.33917
2874.15	2.59094
2875.47	2.3768
2876.78	2.66869
2878.1	2.18562
2879.42	2.37787
2880.73	2.2469
2882.04	3.05809
2883.36	2.5073
2884.67	2.53339
2885.99	2.71444
2887.3	2.50251
2888.61	2.94978
2889.93	2.5264
2891.24	2.42508
2892.55	2.72976
2893.87	2.93594
2895.18	2.76421
2896.49	2.91528
2897.8	3.12318
2899.11	2.61841
2900.42	3.06577
2901.74	3.02389
2903.05	3.03817
2904.36	3.17846
2905.67	3.33299
2906.98	3.13834
2908.29	3.46199
2909.6	3.43671
2910.91	3.55189
2912.22	3.76511
2913.53	3.65574
2914.83	3.5451
2916.14	4.2169
2917.45	3.89333
2918.76	3.84886
2920.07	3.81827
2921.37	4.24969
2922.68	4.36051
2923.99	4.47259
2925.3	4.37606
2926.6	4.5457
2927.91	5.16278
2929.22	4.77298
2930.52	4.66227
2931.83	4.77481
2933.13	4.83119
2934.44	4.90153
2935.74	4.49679
2937.05	4.09228
2938.35	4.55437
2939.66	4.48569
2940.96	4.43146
2942.27	4.36404
2943.57	3.97624
2944.87	4.27451
2946.18	3.94471
2947.48	3.72715
2948.78	4.0131
2950.09	3.72422
2951.39	3.83974
2952.69	3.50551
2953.99	3.33812
2955.29	3.29643
2956.6	3.03157
2957.9	3.07639
2959.2	3.16554
2960.5	3.32723
2961.8	3.23862
2963.1	2.91209
2964.4	2.92159
2965.7	2.73323
2967	2.97897
2968.3	2.94257
2969.6	2.55394
2970.9	2.53072
2972.2	2.07163
2973.49	2.18957
2974.79	2.60321
2976.09	2.45333
2977.39	2.14744
2978.69	2.33292
2979.98	1.91155
2981.28	1.86926
2982.58	1.95312
2983.88	1.48889
2985.17	1.48971
2986.47	1.44963
2987.76	1.18597
2989.06	1.42903
2990.36	1.44753
2991.65	1.24078
2992.95	1.34237
2994.24	1.21807
2995.54	1.30357
2996.83	0.981247
2998.12	1.066
2999.42	0.730092
3000.71	1.06795
3002	0.817376
3003.3	0.679446
3004.59	0.737831
3005.88	0.41788
3007.18	0.545638
3008.47	0.532702
3009.76	0.309326
3011.05	0.602638
3012.35	0.308785
3013.64	0.33627
3014.93	0.322257
3016.22	0.364588
3017.51	0.254376
3018.8	0.172579
3020.09	0.647255
3021.38	0.217616
3022.67	0.273982
3023.96	0.46824
3025.25	0.204009
3026.54	0.424881
3027.83	0.036921
3029.12	0.231259
3030.41	0.122623
3031.69	0.27776
3032.98	0.295651
3034.27	0.369041
3035.56	0.386788
3036.85	-0.230765
3038.13	0.32214
3039.42	0.00547552
3040.71	0.279301
3041.99	0.0987148
3043.28	0.124205
3044.57	0.109299
3045.85	0.0821519
3047.14	0.316442
3048.42	0.1292
3049.71	0.216898
3050.99	0.155823
3052.28	0.5458
3053.56	0.267211
3054.85	0.0291185
3056.13	0.64954
3057.42	0.0553317
3058.7	0.292188
3059.98	0.147341
3061.27	0.0302215
3062.55	0.30848
3063.83	0.0846381
3065.11	0.0389485
3066.4	0.483866
3067.68	0.181932
3068.96	0.369862
3070.24	-0.0951447
3071.52	0.296008
3072.8	0.0877972
3074.09	0.0962267
3075.37	-0.1814
3076.65	0.138577
3077.93	-0.206494
3079.21	-0.0619206
3080.49	0.00242949
3081.77	0.0138187
3083.05	-0.0415525
3084.32	0.188635
3085.61	0.201895
3086.88	-0.0702062
3088.16	0.498696
3089.44	-0.276617
3090.72	0.264229
3092	-0.131296
3093.27	0.341602
3094.55	0.231502
3095.83	0.0268211
3097.11	-0.0149736
3098.38	0.526059
3099.66	0.389288
3100.94	0.0222912
3102.21	0.332728
3103.49	0.169438
3104.76	0.439847
3106.04	0.386045
3107.31	0.0218387
3108.59	0.497605
3109.86	0.175841
3111.14	0.328695
3112.41	0.306279
3113.69	-0.135839
3114.96	0.384271
3116.23	0.565418
3117.51	0.257719
3118.78	0.518805
3120.05	0.629807
3121.33	0.30619
3122.6	0.524466
3123.87	0.281883
3125.14	0.445957
3126.42	0.217851
3127.69	0.125751
3128.96	0.575212
3130.23	0.375762
3131.5	0.703785
3132.77	0.680239
3134.04	0.575438
3135.31	0.726861
3136.58	0.621394
3137.85	0.758387
3139.12	0.719803
3140.39	0.735075
3141.66	0.73702
3142.93	0.631809
3144.2	0.607806
3145.47	0.62471
3146.74	0.642253
3148	0.727383
3149.27	0.879974
