200.388	0.234362
202.204	0.249026
204.019	0.264534
205.832	-0.424208
207.646	-0.552835
209.459	0.0229158
211.274	0.281259
213.087	0.367989
214.899	0.429151
216.711	-0.140597
218.524	0.0898113
220.335	0.465756
222.146	-0.0769196
223.956	-0.134483
225.766	0.146985
227.576	-0.248047
229.388	0.58839
231.197	0.023613
233.005	0.134503
234.813	-0.79121
236.621	0.117018
238.429	0.448619
240.236	-0.0606613
242.045	0.372714
243.852	-0.518811
245.658	0.350688
247.464	0.181148
249.269	-0.522542
251.074	1.98167
252.879	2.47806
254.683	1.1625
256.487	-0.321007
258.291	0.896869
260.094	0.164274
261.897	-0.228654
263.702	-0.210197
265.504	0.0744743
267.306	0.793498
269.108	-0.00611019
270.909	-0.0594635
272.71	0.874512
274.511	-0.314739
276.311	0.0132256
278.111	0.266765
279.91	-0.782714
281.709	0.28506
283.508	0.507435
285.306	0.415435
287.105	0.178708
288.9	0.493899
290.698	-0.0530863
292.495	0.168219
294.291	0.0321264
296.088	-0.12609
297.884	0.41013
299.679	0.30151
301.475	-0.141577
303.27	0.154938
305.064	-0.337661
306.858	-0.115218
308.652	0.63114
310.444	0.972258
312.237	0.623792
314.03	0.920349
315.822	0.552321
317.615	0.472112
319.406	1.13217
321.198	1.72271
322.987	0.90789
324.778	1.23808
326.568	0.446682
328.358	1.32648
330.148	0.676643
331.935	0.885813
333.724	0.686494
335.513	0.17357
337.301	0.495582
339.089	0.647653
340.875	1.22828
342.662	1.0664
344.449	0.0205069
346.236	0.647937
348.02	0.941474
349.806	0.543201
351.592	0.861219
353.375	-0.205506
355.16	0.182395
356.944	0.854672
358.728	0.523852
360.51	1.35902
362.294	0.549896
364.077	1.1916
365.858	0.88108
367.64	0.427785
369.422	0.25892
371.202	0.563171
372.983	0.865935
374.764	0.931229
376.543	0.642347
378.324	1.03854
380.102	1.7884
381.881	2.06764
383.661	1.619
385.438	2.65362
387.216	2.34954
388.993	2.49358
390.771	1.51156
392.548	2.19831
394.324	2.2283
396.101	1.81264
397.875	1.98428
399.651	1.40418
401.425	1.26982
403.201	0.101274
404.974	0.669978
406.749	1.02637
408.524	0.654104
410.296	0.563286
412.07	0.0266504
413.841	1.20361
415.614	0.339878
417.385	0.462613
419.156	0.914679
420.928	-0.299178
422.698	0.411242
424.469	0.275945
426.238	0.327427
428.009	0.565777
429.777	0.334069
431.548	0.595258
433.315	-0.175879
435.083	-0.359849
436.852	-0.0274744
438.618	0.327641
440.387	0.117941
442.153	0.0703306
443.919	0.465784
445.686	0.413464
447.451	0.125754
449.218	0.60967
450.982	-0.0753632
452.746	0.478396
454.512	0.0985031
456.275	0.208681
458.038	0.271958
459.803	0.311928
461.565	0.259581
463.327	1.04576
465.091	0.556248
466.852	-0.115658
468.613	0.540112
470.374	0.105729
472.136	0.858403
473.896	0.284067
475.655	0.475847
477.415	0.385678
479.176	0.968869
480.934	0.479307
482.692	0.572223
484.45	0.57332
486.21	0.343735
487.967	0.233027
489.724	0.63771
491.481	0.250632
493.237	0.658084
494.995	0.131155
496.75	0.164953
498.506	0.831121
500.26	0.536521
502.015	0.968261
503.771	0.953396
505.525	1.17218
507.279	1.15442
509.032	0.734878
510.785	1.30143
512.537	1.60736
514.289	1.58198
516.041	1.39021
517.793	1.62034
519.546	1.61395
521.297	2.05304
523.047	0.870667
524.797	1.19146
526.547	1.04273
528.297	0.894199
530.046	0.792597
531.795	1.39331
533.543	1.45399
535.291	1.53654
537.039	1.66395
538.787	0.645324
540.534	0.60692
542.281	0.61423
544.027	0.527993
545.773	0.627821
547.519	-0.10791
549.264	0.247944
551.01	-0.1146
552.754	-0.106021
554.499	0.364902
556.243	0.327335
557.987	-0.263159
559.73	0.138727
561.474	0.241295
563.216	0.0223522
564.959	0.149199
566.701	-0.0909071
568.441	-0.215018
570.182	-0.911552
571.923	-0.160835
573.664	0.293216
575.405	0.405215
577.145	0.197999
578.885	0.382469
580.624	0.315428
582.361	0.616161
584.1	-0.0719385
585.839	0.0892096
587.577	0.15704
589.315	0.246519
591.052	0.42696
592.787	0.00858974
594.524	0.717395
596.26	0.805058
597.997	0.731663
599.732	0.887942
601.466	0.307132
603.201	0.300033
604.936	0.153324
606.67	0.55671
608.403	0.614218
610.136	1.42883
611.87	0.293344
613.603	0.512666
615.334	0.136753
617.067	0.173759
618.799	0.141495
620.529	-0.349731
622.26	0.11903
623.991	-0.0996408
625.72	0.161689
627.451	0.172698
629.181	0.185925
630.909	0.224691
632.638	0.0148478
634.368	0.468124
636.095	0.236468
637.823	0.322463
639.551	0.0173998
641.277	0.393507
643.005	0.333186
644.73	-0.0245342
646.457	-0.404099
648.184	-0.167314
649.908	0.0272121
651.634	0.316865
653.357	0.292946
655.083	-4.95911e-005
656.806	0.483272
658.53	0.558525
660.253	0.0174685
661.977	-0.0238972
663.7	-0.0907269
665.422	-0.046011
667.145	0.453914
668.865	0.152599
670.588	-0.0566511
672.308	0.0565224
674.027	0.0580769
675.749	0.337154
677.468	-0.23063
679.188	0.0963917
680.907	1.04369
682.627	0.149988
684.345	0.564771
686.064	0.17161
687.781	0.559507
689.498	0.0248594
691.216	0.203399
692.932	0.450345
694.65	0.0975637
696.366	0.0892191
698.081	0.447879
699.797	-0.023572
701.512	1.02204
703.228	0.410417
704.942	0.786405
706.655	0.449762
708.371	0.640579
710.083	0.693174
711.796	0.493422
713.51	-0.278202
715.222	0.55105
716.934	-0.128187
718.645	0.151992
720.358	-0.320282
722.068	0.597578
723.779	-0.0787735
725.49	1.01912
727.2	0.206841
728.909	0.484815
730.618	0.807096
732.329	0.743253
734.037	0.453056
735.745	0.59295
737.453	0.303928
739.16	0.489968
740.869	0.135747
742.576	0.864677
744.282	1.07645
745.988	0.997148
747.694	0.537109
749.401	1.31592
751.107	0.814104
752.811	0.561212
754.516	1.45719
756.22	0.84761
757.924	0.554547
759.627	0.893647
761.332	1.34727
763.035	2.27606
764.738	2.28021
766.44	2.66709
768.142	2.3513
769.843	4.18059
771.544	3.56534
773.245	3.15156
774.946	4.29728
776.646	3.29562
778.346	3.51667
780.046	3.12925
781.745	2.9694
783.444	3.35287
785.143	3.16923
786.841	2.39394
788.539	3.04067
790.237	2.16704
791.934	1.9692
793.631	1.85996
795.328	2.22425
797.024	1.86769
798.72	1.15335
800.416	1.43241
802.112	1.98288
803.807	1.56672
805.502	1.443
807.196	1.38587
808.89	1.59692
810.584	1.76142
812.278	1.09484
813.971	1.45932
815.664	2.4721
817.354	1.87262
819.047	1.5871
820.739	1.54789
822.43	1.5538
824.122	1.58291
825.813	1.21251
827.503	1.51313
829.192	1.19321
830.882	0.988155
832.571	1.83337
834.261	0.854069
835.95	1.32465
837.637	0.769024
839.325	1.08237
841.013	1.70691
842.701	1.10139
844.389	0.964261
846.074	1.47596
847.761	0.693118
849.447	1.38883
851.131	0.409094
852.817	1.24524
854.503	1.32138
856.188	0.858475
857.871	0.933014
859.556	1.20834
861.24	1.41441
862.922	1.01052
864.606	0.785069
866.289	0.626024
867.97	0.691648
869.653	1.00487
871.336	1.49828
873.016	0.615407
874.698	0.770117
876.379	1.03771
878.058	0.673438
879.739	0.85071
881.418	1.16307
883.098	0.9554
884.778	0.904514
886.456	0.220108
888.135	1.18137
889.812	1.14773
891.49	0.639073
893.167	1.12051
894.845	0.812207
896.523	0.885381
898.198	-0.23297
899.875	1.43163
901.55	0.582027
903.226	0.561785
904.901	0.742508
906.576	0.476572
908.25	0.0336246
909.925	1.39648
911.598	0.332604
913.271	0.382905
914.945	-0.299238
916.617	0.816857
918.291	0.0469284
919.962	0.496383
921.635	0.171312
923.306	0.489061
924.978	0.410517
926.648	0.378291
928.318	0.61286
929.989	0.473586
931.659	0.00423241
933.328	0.219205
934.998	1.25043
936.666	0.407222
938.336	1.21915
940.004	0.554797
941.671	1.14909
943.34	0.883982
945.007	0.883476
946.673	0.859627
948.339	0.944034
950.007	-0.209703
951.672	0.180149
953.337	0.128641
955.004	0.608008
956.669	0.3186
958.333	0.672417
959.997	0.169009
961.662	0.395653
963.326	0.710995
964.989	0.715231
966.651	0.141188
968.315	-0.303458
969.977	0.53276
971.639	0.151098
973.301	0.49981
974.962	-0.0344992
976.624	-0.257234
978.285	0.251621
979.945	-0.0571976
981.605	-0.36657
983.264	0.0973539
984.924	0.160729
986.583	0.266027
988.243	0.280702
989.901	-0.104113
991.56	0.0632372
993.217	0.0976534
994.875	0.198343
996.532	-0.29663
998.188	-0.283916
999.845	-0.161282
1001.5	0.445265
1003.16	0.14822
1004.81	-0.0608273
1006.47	0.345594
1008.12	0.334311
1009.78	-0.356884
1011.43	0.400714
1013.09	0.829125
1014.74	0.074687
1016.39	0.175327
1018.05	0.0795069
1019.7	0.903255
1021.35	0.546969
1023	0.869783
1024.65	1.28104
1026.31	1.88961
1027.96	2.06111
1029.61	1.8167
1031.26	2.37893
1032.91	1.97809
1034.56	2.01184
1036.21	1.82569
1037.86	1.61693
1039.51	1.03829
1041.16	2.28842
1042.8	1.06043
1044.45	1.37854
1046.1	0.829994
1047.75	0.957209
1049.39	1.02127
1051.04	1.02172
1052.69	0.523531
1054.33	0.894764
1055.98	1.07058
1057.62	0.963513
1059.27	0.486211
1060.91	0.921302
1062.56	-0.275345
1064.2	0.462195
1065.85	-0.192985
1067.49	0.672257
1069.13	0.558126
1070.77	0.443278
1072.42	0.545407
1074.06	0.713077
1075.7	0.881829
1077.34	0.835216
1078.98	1.22383
1080.62	0.876113
1082.27	1.13559
1083.91	1.43737
1085.55	1.82374
1087.18	1.03719
1088.82	1.85128
1090.46	1.70989
1092.1	1.32938
1093.74	1.27282
1095.38	1.28129
1097.02	1.01047
1098.65	1.3018
1100.29	0.389359
1101.93	0.792712
1103.56	1.26249
1105.2	0.937896
1106.84	-0.117138
1108.47	0.35462
1110.11	0.652978
1111.74	0.175567
1113.38	0.384093
1115.01	-0.0531492
1116.64	-0.0829353
1118.28	0.33761
1119.91	0.801202
1121.54	-0.019311
1123.18	-0.0886898
1124.81	-0.0926952
1126.44	0.182344
1128.07	-0.311685
1129.7	0.606424
1131.33	0.370526
1132.97	0.669471
1134.6	0.0704575
1136.23	-0.294024
1137.86	0.237912
1139.49	-0.214422
1141.11	-0.518091
1142.74	-0.0751925
1144.37	0.49533
1146	-0.0424643
1147.63	0.209768
1149.26	0.100673
1150.88	-0.220777
1152.51	-0.180031
1154.14	0.0519238
1155.76	0.538667
1157.39	0.19516
1159.01	0.00114536
1160.64	-0.000429153
1162.27	0.381988
1163.89	0.0639172
1165.51	-0.296055
1167.14	0.0666237
1168.76	0.0666628
1170.39	0.702398
1172.01	0.315578
1173.63	0.203054
1175.25	-0.0593185
1176.88	0.35644
1178.5	-0.414493
1180.12	0.869727
1181.74	0.0378857
1183.36	0.222662
1184.98	-0.22658
1186.6	-0.570705
1188.22	-0.0299358
1189.84	0.275723
1191.46	0.0100212
1193.08	0.205758
1194.7	0.0220222
1196.32	0.258106
1197.94	-0.028882
1199.55	-0.313204
1201.17	0.178797
1202.79	0.380778
1204.41	0.147345
1206.02	0.626009
1207.64	0.563721
1209.25	-0.249113
1210.87	-0.0197649
1212.48	0.0199184
1214.1	-0.00547981
1215.71	-0.387403
1217.33	0.435831
1218.94	0.674297
1220.56	0.538407
1222.17	0.23766
1223.79	0.125385
1225.4	0.346313
1227.01	0.713587
1228.62	0.254825
1230.23	0.0253506
1231.85	0.169456
1233.46	0.666254
1235.07	0.358417
1236.68	0.734057
1238.29	0.449495
1239.9	0.785971
1241.51	0.233472
1243.12	0.900961
1244.73	0.181458
1246.34	0.102128
1247.94	0.0837173
1249.55	-0.183846
1251.16	-0.0793457
1252.77	0.397671
1254.37	0.751304
1255.98	0.48567
1257.59	0.20073
1259.2	0.703326
1260.8	0.5242
1262.41	0.0141983
1264.01	0.29105
1265.62	0.526218
1267.22	0.594869
1268.83	0.517331
1270.43	0.189757
1272.03	-0.0768337
1273.64	0.899375
1275.24	0.526783
1276.85	0.588446
1278.45	0.835534
1280.05	0.398377
1281.65	-0.0801668
1283.25	0.455513
1284.85	0.412313
1286.46	0.556211
1288.06	0.90792
1289.66	0.929954
1291.26	1.03527
1292.86	1.11984
1294.46	0.542465
1296.06	0.893243
1297.66	1.1593
1299.25	0.783493
1300.85	0.839327
1302.45	1.12018
1304.05	1.19355
1305.65	0.690228
1307.24	0.700768
1308.84	1.42897
1310.43	0.946465
1312.03	-0.0668869
1313.63	0.783784
1315.22	0.387546
1316.82	0.564756
1318.41	0.905593
1320.01	0.654584
1321.6	0.830739
1323.2	0.536737
1324.79	0.729204
1326.38	0.818022
1327.98	0.946459
1329.57	0.892897
1331.16	0.63905
1332.76	0.812599
1334.35	0.322209
1335.94	0.903852
1337.53	0.577981
1339.12	0.271931
1340.71	0.729856
1342.3	0.560719
1343.89	0.771531
1345.48	0.317981
1347.07	-0.314929
1348.66	0.397446
1350.25	0.871085
1351.84	1.34709
1353.43	0.80553
1355.01	1.06544
1356.6	0.286633
1358.19	-0.0527248
1359.77	-0.213167
1361.36	-0.115185
1362.95	0.360757
1364.53	0.217695
1366.12	0.792324
1367.71	0.212222
1369.29	0.350635
1370.88	0.152256
1372.46	0.492786
1374.04	0.575911
1375.63	0.878725
1377.21	0.166867
1378.8	-0.366466
1380.38	0.432272
1381.96	0.712044
1383.54	0.512843
1385.13	0.193346
1386.71	0.191463
1388.29	0.0904379
1389.87	-0.0494661
1391.45	0.387179
1393.03	0.229363
1394.61	0.0919228
1396.19	0.588889
1397.77	0.0341635
1399.35	0.251485
1400.93	-0.443542
1402.51	0.148134
1404.09	0.679744
1405.67	1.03341
1407.24	-0.0155344
1408.82	0.853854
1410.4	0.0443621
1411.98	0.439878
1413.55	0.617332
1415.13	0.635732
1416.71	0.377002
1418.28	0.492548
1419.86	0.588605
1421.43	0.114759
1423.01	0.568202
1424.58	1.0037
1426.16	0.732156
1427.73	1.18954
1429.31	1.21363
1430.88	1.00046
1432.45	0.608841
1434.02	1.27859
1435.6	1.21969
1437.17	1.41664
1438.74	0.808439
1440.31	1.22363
1441.88	1.46305
1443.45	1.15305
1445.03	1.33487
1446.6	0.927259
1448.17	2.112
1449.74	1.31172
1451.3	1.33761
1452.87	1.22649
1454.44	1.27317
1456.01	0.690221
1457.58	1.5626
1459.15	1.13474
1460.72	1.2165
1462.28	1.1976
1463.85	1.05872
1465.42	1.01691
1466.98	1.28897
1468.55	0.638355
1470.12	0.480005
1471.68	1.14702
1473.25	0.304741
1474.81	-0.104868
1476.38	0.348829
1477.94	0.606502
1479.51	1.02085
1481.07	0.2982
1482.63	0.633875
1484.2	0.597013
1485.76	0.834028
1487.32	0.462903
1488.88	0.893187
1490.45	0.714287
1492.01	0.669877
1493.57	0.876857
1495.13	1.23724
1496.69	0.621097
1498.25	0.687278
1499.81	0.520683
1501.37	0.258677
1502.93	-0.0983601
1504.49	0.0307207
1506.05	-0.149838
1507.61	-0.156666
1509.17	0.569492
1510.73	0.17345
1512.28	0.355506
1513.84	0.0939217
1515.4	0.563636
1516.96	0.572086
1518.51	0.370502
1520.07	0.11263
1521.63	0.0660658
1523.18	-0.267464
1524.74	0.0289259
1526.29	-0.248581
1527.85	0.311419
1529.4	-0.0815449
1530.96	0.191103
1532.51	0.0464048
1534.06	0.0167007
1535.62	-0.0873995
1537.17	-0.360237
1538.72	-0.518477
1540.28	0.078311
1541.83	0.391485
1543.38	0.0828552
1544.93	0.207054
1546.48	-0.026125
1548.03	0.266349
1549.59	0.689377
1551.14	0.400194
1552.69	0.523709
1554.24	0.666774
1555.79	0.362989
1557.34	0.22962
1558.88	0.32252
1560.43	0.286978
1561.98	0.906219
1563.53	-0.189507
1565.08	0.562407
1566.62	0.549546
1568.17	0.611078
1569.72	0.765514
1571.27	0.564841
1572.81	0.886487
1574.36	0.199925
1575.9	0.278735
1577.45	0.749808
1579	0.381272
1580.54	0.125381
1582.09	0.505249
1583.63	1.44671
1585.17	0.707777
1586.72	0.641909
1588.26	0.351715
1589.8	0.323025
1591.35	0.275109
1592.89	0.788358
1594.43	1.20791
1595.97	0.616014
1597.52	0.755136
1599.06	1.27011
1600.6	0.961018
1602.14	0.708484
1603.68	0.812472
1605.22	0.370996
1606.76	1.24318
1608.3	0.722567
1609.84	0.85707
1611.38	0.800921
1612.92	0.498344
1614.46	0.813933
1615.99	0.603395
1617.53	0.356118
1619.07	0.485095
1620.61	0.484552
1622.14	0.691547
1623.68	0.880729
1625.22	0.732998
1626.75	0.921338
1628.29	0.359728
1629.82	1.0125
1631.36	1.00918
1632.9	0.557076
1634.43	0.441824
1635.96	0.420871
1637.5	0.662075
1639.03	0.698756
1640.57	0.120461
1642.1	1.05095
1643.63	0.787624
1645.16	0.541801
1646.7	1.07626
1648.23	-0.00708866
1649.76	0.656956
1651.29	1.11708
1652.82	1.33703
1654.36	0.649657
1655.89	0.79759
1657.42	0.27835
1658.95	0.85143
1660.48	0.126674
1662.01	0.54817
1663.53	1.07865
1665.06	1.18276
1666.59	1.3978
1668.12	0.580997
1669.65	0.301422
1671.18	1.11087
1672.7	0.263279
1674.23	0.521624
1675.76	0.816428
1677.29	0.778874
1678.81	0.942451
1680.34	0.258862
1681.86	1.11866
1683.39	1.04044
1684.91	-0.193717
1686.44	0.334626
1687.96	0.661224
1689.49	0.713138
1691.01	0.545578
1692.54	0.414881
1694.06	-0.0450039
1695.58	0.738564
1697.11	0.0592337
1698.63	0.603794
1700.15	0.179935
1701.67	0.376107
1703.2	-0.139423
1704.72	0.128242
1706.24	-0.0235567
1707.76	0.0427227
1709.28	-0.0183811
1710.8	0.319968
1712.32	0.639794
1713.84	-0.327086
1715.36	0.192149
1716.88	0.276332
1718.4	0.161416
1719.91	0.335528
1721.43	-0.2122
1722.95	0.179076
1724.47	-0.149756
1725.99	0.171525
1727.5	-0.15396
1729.02	0.493646
1730.54	0.0259171
1732.05	0.0963583
1733.57	-0.152258
1735.09	0.246168
1736.6	-0.166502
1738.12	0.262498
1739.63	0.245494
1741.15	0.0524225
1742.66	0.141394
1744.18	0.0352459
1745.69	0.108501
1747.2	-0.0175495
1748.72	0.050806
1750.23	0.354678
1751.74	-0.327503
1753.25	0.110934
1754.77	0.172401
1756.28	-0.366945
1757.79	0.0073452
1759.3	-0.0647545
1760.81	0.432689
1762.32	-0.0143843
1763.83	0.392568
1765.34	0.441498
1766.85	0.0992861
1768.36	0.0992832
1769.87	0.165928
1771.38	-0.097496
1772.89	-0.280935
1774.4	0.717562
1775.91	-0.0455265
1777.41	0.464884
1778.92	-0.0451231
1780.43	-0.113914
1781.94	0.513159
1783.44	0.040781
1784.95	-0.0125647
1786.45	0.287342
1787.96	-0.143826
1789.47	-0.0621529
1790.97	-0.00882626
1792.48	0.186468
1793.98	0.0653181
1795.48	-0.207898
1796.99	-0.266952
1798.49	-0.016036
1800	0.383649
1801.5	0.0391741
1803	0.104778
1804.51	-0.06322
1806.01	-0.201148
1807.51	0.379683
1809.01	0.139541
1810.51	0.00742245
1812.02	0.19646
1813.52	0.152517
1815.02	0.380914
1816.52	0.256994
1818.02	-0.410497
1819.52	-0.0108204
1821.02	-0.158685
1822.52	-0.0416451
1824.02	-0.0272045
1825.51	0.283204
1827.01	0.273074
1828.51	0.00115967
1830.01	-0.168483
1831.51	-0.351412
1833	-0.0480423
1834.5	0.288557
1836	-0.117728
1837.5	0.243482
1838.99	-0.0712461
1840.49	-0.385017
1841.98	0.0162821
1843.48	-0.145881
1844.97	0.216018
1846.47	0.223431
1847.96	0.311246
1849.46	0.14457
1850.95	0.31609
1852.45	0.142155
1853.94	-0.365425
1855.43	-0.0169392
1856.92	-0.15343
1858.42	0.0291061
1859.91	-0.0685472
1861.4	0.199811
1862.89	0.389383
1864.39	0.35195
1865.88	0.283519
1867.37	-0.0398035
1868.86	-0.118735
1870.35	0.066637
1871.84	-0.100247
1873.33	0.293908
1874.82	0.470236
1876.31	0.168224
1877.8	0.20274
1879.29	-0.0967178
1880.77	-0.115516
1882.26	0.131892
1882.51	0.181129
1884	0.580825
1885.5	0.0383301
1886.99	0.383633
1888.48	-0.281654
1889.98	-0.163104
1891.47	-0.0783987
1892.97	0.390497
1894.46	0.304984
1895.95	-0.109151
1897.44	0.173159
1898.93	0.0553885
1900.42	0.0234585
1901.92	-0.0276461
1903.41	0.0932388
1904.9	0.0385971
1906.39	0.469603
1907.88	0.587542
1909.37	0.341557
1910.86	0.114178
1912.35	0.720587
1913.84	-0.0253983
1915.32	-0.112067
1916.81	0.286372
1918.3	-0.0439367
1919.79	0.769009
1921.28	0.351525
1922.76	0.159863
1924.25	0.0212002
1925.74	0.316601
1927.22	0.0592136
1928.71	0.512393
1930.2	0.0998268
1931.68	0.465589
1933.17	-0.226549
1934.65	0.516423
1936.14	0.201493
1937.62	0.0757685
1939.11	-0.188544
1940.59	-0.348598
1942.08	0.476118
1943.56	0.69747
1945.04	-0.0632534
1946.53	-0.426574
1948.01	0.209634
1949.49	0.121042
1950.97	0.530741
1952.45	0.285036
1953.94	0.0217953
1955.42	0.136855
1956.9	-0.108439
1958.38	0.19651
1959.86	0.0387878
1961.34	-0.08389
1962.82	-0.360511
1964.3	0.236686
1965.78	0.130666
1967.26	0.195146
1968.74	0.515383
1970.22	-0.173961
1971.69	0.213445
1973.17	-0.236118
1974.65	0.0825815
1976.13	0.401031
1977.61	0.157159
1979.08	0.254148
1980.56	-0.312412
1982.03	0.617464
1983.51	0.11885
1984.99	0.0109787
1986.46	0.191319
1987.94	0.642506
1989.41	0.348251
1990.89	0.0382452
1992.36	0.626055
1993.84	0.386051
1995.31	0.180978
1996.78	0.635398
1998.26	0.599724
1999.73	0.124643
2001.2	-0.232602
2002.68	0.0508747
2004.15	0.553063
2005.62	0.0272913
2007.09	0.378632
2008.56	0.377192
2010.04	-0.0273218
2011.51	-0.0776243
2012.98	-0.077364
2014.45	-0.161695
2015.92	-0.011281
2017.39	-0.147857
2018.86	0.0678129
2020.33	0.148247
2021.8	0.530712
2023.27	0.459962
2024.74	0.625063
2026.2	0.724319
2027.67	0.221415
2029.14	0.424664
2030.61	-0.444201
2032.07	0.0300169
2033.54	0.353997
2035.01	0.493467
2036.47	0.111841
2037.94	0.250302
2039.41	0.186702
2040.87	0.492831
2042.34	0.21102
2043.8	0.367188
2045.27	0.0533247
2046.73	0.53128
2048.2	0.437363
2049.66	0.359836
2051.12	-0.00551033
2052.59	0.521049
2054.05	0.640923
2055.51	0.370921
2056.98	0.419779
2058.44	-0.0546837
2059.9	0.279548
2061.36	0.748665
2062.82	0.763931
2064.29	0.814026
2065.75	0.49505
2067.21	0.278025
2068.67	0.330922
2070.13	0.670346
2071.59	0.572212
2073.05	0.153976
2074.51	0.644668
2075.97	0.747726
2077.43	0.850369
2078.88	0.9357
2080.34	0.818419
2081.8	1.05407
2083.26	0.396719
2084.72	0.630733
2086.17	0.443207
2087.63	0.456903
2089.09	0.68858
2090.54	0.348681
2092	0.93241
2093.46	0.558985
2094.91	0.739091
2096.37	1.20333
2097.82	0.611012
2099.28	0.537638
2100.73	0.664678
2102.19	0.87531
2103.64	0.769318
2105.09	0.297754
2106.55	0.995978
2108	0.961126
2109.46	0.326408
2110.91	0.958356
2112.36	0.521898
2113.81	0.999876
2115.27	0.676608
2116.72	1.03445
2118.17	1.07642
2119.62	1.21946
2121.07	1.58028
2122.52	1.51197
2123.97	1.18016
2125.42	0.749703
2126.87	1.77804
2128.32	1.01461
2129.77	0.846542
2131.22	1.2568
2132.67	1.03667
2134.12	1.4619
2135.57	1.11049
2137.01	1.30651
2138.46	1.25672
2139.91	1.17609
2141.36	1.08082
2142.8	1.79714
2144.25	1.88617
2145.7	1.52859
2147.14	1.9651
2148.59	1.55645
2150.03	1.72636
2151.48	1.74601
2152.92	2.06272
2154.37	1.71565
2155.81	2.13014
2157.26	1.63354
2158.7	1.93295
2160.15	2.01862
2161.59	2.15617
2163.03	1.94795
2164.48	2.27225
2165.92	2.03359
2167.36	1.69479
2168.8	1.68679
2170.25	1.57689
2171.69	2.0134
2173.13	1.58258
2174.57	1.7656
2176.01	1.91459
2177.45	1.69795
2178.89	2.13066
2180.33	1.61686
2181.77	1.8024
2183.21	1.83902
2184.65	1.94253
2186.09	2.12933
2187.53	1.83371
2188.97	1.33831
2190.41	1.60838
2191.84	1.41209
2193.28	1.84759
2194.72	1.86528
2196.16	1.66438
2197.59	1.54443
2199.03	1.28955
2200.47	1.00055
2201.9	1.55852
2203.34	1.56895
2204.78	1.58065
2206.21	1.56043
2207.65	1.3752
2209.08	0.991203
2210.51	1.517
2211.95	0.998929
2213.38	1.52202
2214.82	1.36698
2216.25	1.3284
2217.68	1.1592
2219.12	1.38738
2220.55	0.924009
2221.98	1.20272
2223.42	1.43101
2224.85	0.356614
2226.28	1.17397
2227.71	0.705745
2229.14	0.417611
2230.57	0.457337
2232	0.791663
2233.43	0.699981
2234.86	0.740125
2236.29	0.242396
2237.72	0.889925
2239.15	0.217163
2240.58	0.868352
2242.01	0.787394
2243.44	0.691547
2244.87	0.00890827
2246.3	0.499953
2247.73	0.614084
2249.15	0.660535
2250.58	0.54152
2252.01	0.63231
2253.43	0.429263
2254.86	0.633073
2256.29	0.968013
2257.71	0.380344
2259.14	0.753385
2260.56	0.48071
2261.99	0.437849
2263.41	0.299269
2264.84	0.550901
2266.26	-0.0105667
2267.69	0.0447178
2269.11	0.0339632
2270.54	0.510726
2271.96	0.889465
2273.38	0.714428
2274.81	-0.0633211
2276.23	0.348228
2277.65	0.48312
2279.07	0.357312
2280.49	0.443357
2281.92	0.871834
2283.34	0.0604973
2284.76	0.391121
2286.18	0.460974
2287.6	0.596583
2289.02	0.634773
2290.44	0.493708
2291.86	0.173023
2293.28	0.408245
2294.7	0.0382681
2296.12	0.45357
2297.54	0.590777
2298.96	0.384125
2300.38	0.128322
2301.79	0.11855
2303.21	-0.202639
2304.63	0.378811
2306.05	0.665173
2307.46	-0.264473
2308.88	0.251029
2310.3	-0.0723562
2311.71	0.195776
2313.13	-0.0460463
2314.55	0.403699
2315.96	0.0971317
2317.38	0.15357
2318.79	0.111653
2320.21	-0.0789976
2321.62	0.422031
2323.03	0.29414
2324.45	0.229685
2325.86	0.872203
2327.27	0.539332
2328.69	1.11236
2330.1	0.564904
2331.51	0.167165
2332.93	0.39636
2334.34	0.0669422
2335.75	0.511126
2337.16	0.296748
2338.57	0.114316
2339.99	0.0293894
2341.4	0.304813
2342.81	1.12086
2344.22	0.26299
2345.63	0.242392
2347.04	0.779023
2348.45	0.201934
2349.86	-0.489347
2351.26	0.470523
2352.67	0.121158
2354.08	0.0977259
2355.49	-0.0731153
2356.9	-0.113695
2358.31	0.0897312
2359.71	-0.0158548
2361.12	0.0411921
2362.53	0.325094
2363.94	0.656845
2365.34	0.308326
2366.75	-0.0392466
2368.15	0.211909
2369.56	0.254014
2370.97	-0.186081
2372.37	0.0363283
2373.78	-0.255694
2375.18	0.000226974
2376.59	-0.211053
2377.99	0.0109177
2379.39	-0.267172
2380.8	0.223996
2382.2	0.00704288
2383.61	0.157964
2385.01	0.5002
2386.41	0.147052
2387.81	-0.204317
2389.22	0.187693
2390.62	0.0865211
2392.02	-0.12466
2393.42	-0.127661
2394.82	-0.113864
2396.22	0.250435
2397.63	-0.386081
2399.02	0.249488
2400.43	0.122796
2401.82	-0.0829239
2403.23	-0.383816
2404.62	0.204192
2406.02	0.283025
2407.42	-0.337386
2408.82	0.0569305
2410.22	0.656544
2411.62	0.321034
2413.02	-0.0607777
2414.41	0.508968
2415.81	-0.249613
2417.21	-0.0410309
2418.61	-0.401441
2420	-0.175621
2421.4	0.176899
2422.79	0.307351
2424.19	0.00973129
2425.59	0.0448732
2426.98	0.31831
2428.38	0.339179
2429.77	0.0756435
2431.17	-0.314295
2432.56	0.200438
2433.96	0.778599
2435.35	0.212061
2436.74	0.199758
2438.14	0.138103
2439.53	0.567474
2440.92	-0.163659
2442.32	0.26393
2443.71	0.040287
2445.1	0.149719
2446.49	0.147906
2447.88	0.145946
2449.28	-0.0777931
2450.67	-0.269431
2452.06	0.0936022
2453.45	0.346484
2454.84	0.0306759
2456.23	0.601565
2457.62	-0.0768709
2459.01	0.494142
2460.4	-0.0268078
2461.79	0.163056
2463.18	0.178081
2464.57	0.0976534
2465.96	0.30122
2467.34	0.599213
2468.73	-0.128711
2470.12	0.011219
2471.51	0.134763
2472.89	0.0211258
2474.28	-0.423783
2475.67	0.263856
2477.05	0.054101
2478.44	0.158717
2479.83	-0.0661898
2481.21	-0.0867214
2482.6	0.45674
2483.98	0.341313
2485.37	0.115637
2486.75	-0.110826
2488.14	0.317432
2489.52	0.0580807
2490.9	-0.278593
2492.29	0.0856352
2493.67	-0.326208
2495.06	0.210464
2496.44	0.344582
2497.82	-0.0316725
2499.2	0.428733
2500.59	0.0992928
2501.97	0.27952
2503.35	0.381151
2504.73	0.558696
2506.11	0.257499
2507.49	0.00286293
2508.88	-0.158831
2510.26	-0.058651
2511.63	-0.126745
2513.01	0.174
2514.39	0.291392
2515.77	0.179996
2517.15	0.390835
2518.53	0.403304
2519.91	0.263154
2521.29	0.229778
2522.67	-0.0179625
2524.05	0.328564
2525.42	0.20132
2526.8	-0.0326109
2528.18	-0.159222
2529.56	-0.314916
2530.93	0.0479689
2532.31	0.351642
2533.69	0.185754
2535.06	-0.0856571
2536.44	0.311376
2537.81	-0.112668
2539.19	-0.188277
2540.56	0.175576
2541.94	0.15935
2543.31	0.173777
2544.69	0.113276
2546.06	0.0389681
2547.44	0.0721769
2548.81	0.212523
2550.18	0.155761
2551.56	0.235051
2552.93	0.267818
2554.3	0.481541
2555.68	0.102478
2557.05	0.0870104
2558.42	0.132061
2559.79	-0.156132
2561.16	-0.0798731
2562.53	-0.109035
2563.9	-0.00117588
2565.28	-0.105
2566.64	0.488545
2568.02	0.0365419
2569.38	-0.112373
2570.76	-0.29161
2572.12	0.029376
2573.49	0.123123
2574.86	-0.192331
2576.23	0.00768757
2577.6	0.480577
2578.97	0.498396
2580.34	0.424839
2581.7	0.184045
2583.07	0.18545
2584.44	-0.253037
2585.81	0.233162
2587.17	0.173755
2588.54	0.22066
2589.91	0.23738
2591.27	-0.4734
2592.64	0.70945
2594	0.16406
2595.37	0.238728
2596.73	0.0851536
2598.1	0.203171
2599.46	-0.0573368
2600.83	0.377631
2602.19	0.314313
2603.55	0.131044
2604.92	0.340883
2606.28	-0.0374918
2607.64	-0.219904
2609.01	-0.0262461
2610.37	0.000226021
2611.73	0.220892
2613.09	0.0489511
2614.46	0.267041
2615.82	-0.0558052
2617.18	0.0719719
2618.54	-0.383923
2619.9	-0.000231743
2621.26	-0.229401
2622.62	0.259551
2623.98	-0.0134382
2625.34	0.116786
2626.7	-0.0964079
2628.06	0.0330763
2629.42	0.0578136
2630.78	0.156681
2632.14	0.240405
2633.5	0.115983
2634.86	0.481532
2636.22	0.149445
2637.57	0.306883
2638.93	0.316067
2640.29	0.221853
2641.64	-0.0197659
2643	0.0199652
2644.36	0.296041
2645.72	0.0258055
2647.07	0.0798559
2648.43	-0.0584059
2649.78	0.0528765
2651.14	0.427817
2652.49	0.390441
2653.85	0.089303
2655.2	0.405177
2656.56	0.209139
2657.91	0.16103
2659.27	-0.281001
2660.62	0.0381851
2661.97	-0.0669003
2663.33	0.499377
2664.68	0.144478
2666.03	0.183055
2667.38	0.0170193
2668.74	0.27344
2670.09	0.3988
2671.44	0.0302229
2672.79	-0.0901508
2674.14	0.196911
2675.49	0.0488663
2676.84	0.336837
2678.2	0.190223
2679.55	-0.0278826
2680.89	-0.273787
2682.24	0.351494
2683.59	0.369192
2684.94	0.0253601
2686.29	0.305758
2687.64	0.237838
2688.99	-0.04916
2690.34	-0.178302
2691.69	-0.178702
2693.04	0.428631
2694.38	0.439784
2695.73	-0.0855093
2697.08	-0.015708
2698.43	0.0119743
2699.77	-0.01647
2701.12	0.130727
2702.46	0.395504
2703.81	0.284889
2705.16	0.18926
2706.5	0.441723
2707.85	0.316849
2709.19	0.380139
2710.54	-0.152333
2711.88	0.374994
2713.23	-0.0274963
2714.57	0.238347
2715.92	-0.00461388
2717.26	0.0430174
2718.6	0.0322227
2719.95	-0.139028
2721.29	0.547833
2722.63	-0.0755997
2723.97	0.217375
2725.32	0.131447
2726.66	0.394435
2728	0.045784
2729.34	0.177169
2730.68	0.38112
2732.02	0.0903358
2733.36	-0.0693588
2734.7	0.425721
2736.04	0.164635
2737.39	0.0782604
2738.72	0.282741
2740.06	0.312432
2741.4	0.0798798
2742.74	0.210148
2744.08	0.150666
2745.42	0.439215
2746.76	-0.245888
2748.1	0.274165
2749.44	-0.294359
2750.77	-0.137041
2752.11	-0.255032
2753.45	-0.0828323
2754.78	0.118419
2756.12	0.276244
2757.46	0.303843
2758.79	-0.0012331
2760.13	0.17186
2761.47	-0.0163469
2762.8	0.360323
2764.14	0.187483
2765.47	0.202744
2766.81	0.0728502
2768.14	0.216833
2769.48	-0.0744305
2770.81	0.35559
2772.14	0.20592
2773.48	-0.146673
2774.81	-0.297412
2776.14	-0.188657
2777.48	0.136162
2778.81	0.374772
2780.14	-0.133631
2781.47	-0.0809164
2782.81	0.330609
2784.14	0.311279
2785.47	-0.109343
2786.8	-0.0708847
2788.13	-0.0605679
2789.46	-0.120965
2790.79	0.0198774
2792.12	-0.0815964
2793.46	0.189155
2794.79	0.0310831
2796.11	-0.0986853
2797.44	0.0424356
2798.77	0.16858
2800.1	0.108622
2801.43	0.105488
2802.76	0.0451202
2804.09	-0.385979
2805.42	-0.161894
2806.74	-0.223379
2808.07	0.240809
2809.4	0.263263
2810.73	-0.05511
2812.05	-0.0459824
2813.38	0.276372
2814.71	-0.0379744
2816.03	0.103001
2817.36	-0.2084
2818.68	0.402132
2820.01	-0.135372
2821.33	0.573901
2822.66	0.120273
2823.98	-0.0788488
2825.31	-0.0799456
2826.63	0.117258
2827.96	0.116715
2829.28	0.0743093
2830.61	0.301376
2831.93	0.0473804
2833.25	0.14722
2834.57	0.784563
2835.9	0.246614
2837.22	0.330836
2838.54	0.72576
2839.86	0.568717
2841.18	0.680498
2842.51	0.707867
2843.83	1.07513
2845.15	1.06155
2846.47	1.11933
2847.79	0.739384
2849.11	0.882389
2850.43	0.95443
2851.75	1.54891
2853.07	1.59157
2854.39	1.54902
2855.71	1.33672
2857.03	1.16686
2858.35	1.49146
2859.67	1.33579
2860.98	1.27883
2862.3	1.51803
2863.62	1.85553
2864.94	1.5294
2866.25	1.66892
2867.57	2.14711
2868.89	2.13207
2870.21	1.97651
2871.52	1.84937
2872.84	2.04614
2874.15	1.74891
2875.47	1.54939
2876.78	2.01064
2878.1	1.9781
2879.42	2.45158
2880.73	1.94095
2882.04	2.62587
2883.36	1.9631
2884.67	2.25651
2885.99	2.08716
2887.3	2.32498
2888.61	2.4079
2889.93	2.36371
2891.24	2.51498
2892.55	2.37116
2893.87	2.33936
2895.18	2.13994
2896.49	2.64136
2897.8	2.73775
2899.11	2.03771
2900.42	2.4858
2901.74	2.44469
2903.05	2.44578
2904.36	2.74074
2905.67	2.60237
2906.98	2.9821
2908.29	3.05496
2909.6	2.80692
2910.91	3.28707
2912.22	3.55746
2913.53	3.15518
2914.83	3.60543
2916.14	3.04595
2917.45	3.73071
2918.76	3.60256
2920.07	3.68411
2921.37	4.40946
2922.68	4.26907
2923.99	4.71728
2925.3	4.32801
2926.6	3.84153
2927.91	4.17986
2929.22	4.43395
2930.52	5.02298
2931.83	4.92647
2933.13	4.5082
2934.44	4.60711
2935.74	4.45457
2937.05	4.30221
2938.35	4.48545
2939.66	4.15194
2940.96	4.68531
2942.27	4.3672
2943.57	4.38573
2944.87	4.46161
2946.18	4.03533
2947.48	3.91717
2948.78	3.85467
2950.09	3.42693
2951.39	3.80939
2952.69	3.43377
2953.99	3.11277
2955.29	3.47737
2956.6	3.32489
2957.9	3.17449
2959.2	3.51683
2960.5	2.76967
2961.8	2.86477
2963.1	2.77843
2964.4	2.7195
2965.7	2.54671
2967	2.89209
2968.3	2.26632
2969.6	2.20191
2970.9	2.46084
2972.2	2.79053
2973.49	2.06532
2974.79	2.14206
2976.09	2.65467
2977.39	2.25086
2978.69	2.49295
2979.98	2.04337
2981.28	2.05704
2982.58	2.50611
2983.88	1.84447
2985.17	1.73255
2986.47	1.65033
2987.76	1.11997
2989.06	1.67265
2990.36	1.14354
2991.65	1.11985
2992.95	1.34808
2994.24	1.35012
2995.54	1.12622
2996.83	1.05614
2998.12	0.999927
2999.42	0.915944
3000.71	0.860611
3002	0.763865
3003.3	1.18608
3004.59	1.04781
3005.88	0.419209
3007.18	0.434358
3008.47	0.966296
3009.76	0.378069
3011.05	0.502427
3012.35	0.709901
3013.64	0.526414
3014.93	0.566669
3016.22	0.565804
3017.51	0.329055
3018.8	0.594044
3020.09	0.302539
3021.38	0.14989
3022.67	0.329889
3023.96	-0.129784
3025.25	0.0621843
3026.54	0.281233
3027.83	-0.0393095
3029.12	0.485204
3030.41	0.0433798
3031.69	0.0731277
3032.98	0.462886
3034.27	-0.361732
3035.56	0.207036
3036.85	0.0983038
3038.13	0.139391
3039.42	-0.275719
3040.71	0.105709
3041.99	-0.269752
3043.28	-0.0137644
3044.57	0.0644398
3045.85	0.0347786
3047.14	0.0210848
3048.42	-0.0857239
3049.71	0.150951
3050.99	0.198136
3052.28	0.164329
3053.56	0.0623188
3054.85	0.218862
3056.13	-0.00763035
3057.42	-0.112399
3058.7	0.0137224
3059.98	0.343639
3061.27	0.19726
3062.55	0.324055
3063.83	0.41142
3065.11	0.0245886
3066.4	0.0335026
3067.68	0.138629
3068.96	0.420995
3070.24	0.00953102
3071.52	0.372363
3072.8	0.353064
3074.09	0.0877228
3075.37	0.337921
3076.65	-0.281631
3077.93	0.0771151
3079.21	-0.0246611
3080.49	0.25499
3081.77	0.142857
3083.05	-0.225728
3084.32	-0.0916615
3085.61	0.178258
3086.88	0.0134201
3088.16	-0.0978909
3089.44	0.142955
3090.72	0.342523
3092	0.0670052
3093.27	0.293604
3094.55	-0.0898199
3095.83	0.0695171
3097.11	-0.00156879
3098.38	0.089941
3099.66	0.343855
3100.94	0.394331
3102.21	0.106271
3103.49	0.278959
3104.76	0.46563
3106.04	0.11169
3107.31	-0.0923676
3108.59	-0.308902
3109.86	0.165915
3111.14	-0.11625
3112.41	0.0356307
3113.69	0.0118861
3114.96	-0.0932093
3116.23	0.0994754
3117.51	0.101472
3118.78	0.360029
3120.05	0.522409
3121.33	0.263393
3122.6	0.288496
3123.87	0.313335
3125.14	0.40604
3126.42	0.431458
3127.69	0.268043
3128.96	0.362255
3130.23	0.253956
3131.5	0.037715
3132.77	0.726777
3134.04	0.428905
3135.31	0.400715
3136.58	0.210053
3137.85	0.383092
3139.12	0.568913
3140.39	0.511959
3141.66	0.616525
3142.93	0.45248
3144.2	0.597977
3145.47	0.636588
3146.74	0.783107
3148	0.528223
3149.27	0.595632
