200.419	0.00347996
202.234	0.00841236
204.048	0.0147638
205.862	0.484393
207.678	-0.0669441
209.491	-0.132107
211.304	0.287646
213.116	0.123198
214.928	0.0550289
216.742	-0.231615
218.554	0.499578
220.365	-0.124821
222.176	-0.336128
223.986	-0.11096
225.798	0.259772
227.608	0.485504
229.417	-0.641376
231.226	-0.44019
233.035	0.508471
234.843	0.275241
236.653	0.0436544
238.46	0.0313787
240.268	0.672674
242.074	-0.0575132
243.881	0.395363
245.687	-0.309657
247.493	-0.219886
249.298	0.374472
251.103	-7.43866e-005
252.908	0.733029
254.715	0.354044
256.519	0.0956402
258.322	-0.18565
260.126	0.57104
261.929	0.125199
263.731	-0.125982
265.534	0.660137
267.336	1.03742
269.137	0.450456
270.938	0.103649
272.739	0.020915
274.54	0.177935
276.34	0.0681658
278.14	0.221713
279.939	0.276769
281.739	0.642575
283.537	0.236303
285.336	0.574114
287.134	0.118441
288.932	0.191264
290.729	0.52833
292.526	0.267965
294.323	0.153292
296.117	0.112169
297.913	0.120173
299.709	-0.325102
301.504	0.471851
303.299	-0.0218296
305.093	0.295112
306.888	0.753907
308.682	0.282344
310.475	-0.45013
312.268	0.486521
314.059	0.376804
315.852	0.0311499
317.644	0.0685196
319.436	-0.130565
321.227	0.434235
323.018	0.499805
324.807	0.351289
326.597	0.417744
328.387	0.6275
330.177	1.12376
331.967	0.758276
333.753	0.342797
335.542	0.451359
337.331	0.748928
339.119	0.828812
340.906	1.00259
342.691	0.55383
344.478	-0.300726
346.265	0.0163422
348.051	0.357904
349.835	0.413468
351.621	0.707834
353.406	0.906097
355.189	0.19668
356.973	0.082552
358.757	0.372288
360.541	0.231801
362.323	0.257132
364.106	-0.0512238
365.889	0.305426
367.669	-0.122618
369.451	0.160653
371.233	0.087162
373.012	-0.0815086
374.793	0.293396
376.574	0.313478
378.353	-0.019557
380.133	0.167379
381.91	0.143472
383.69	-0.819787
385.469	0.123677
387.245	0.245175
389.024	-0.125419
390.8	0.209879
392.577	-0.0175638
394.353	0.413297
396.129	0.445425
397.906	0.24289
399.68	1.12063
401.456	0.353856
403.23	-0.343101
405.005	0.368449
406.778	0.116288
408.552	-0.136385
410.325	0.17408
412.099	0.531442
413.87	0.232183
415.643	-0.300814
417.414	0.340307
419.187	-0.355315
420.957	0.263559
422.728	-0.267799
424.498	0.0686626
426.269	0.263375
428.038	-0.0357733
429.806	0.486187
431.576	-0.0481081
433.344	-0.276858
435.114	0.504001
436.881	0.416524
438.649	0.375297
440.416	0.590653
442.182	0.170369
443.949	0.123243
445.715	0.402139
447.48	-0.11652
449.247	-0.30738
451.011	0.319946
452.777	-0.0571957
454.541	0.219685
456.304	0.21647
458.069	0.539182
459.832	0.0702944
461.594	0.114443
463.358	0.439137
465.119	0.16215
466.881	0.678426
468.642	0.245056
470.404	0.604192
472.165	0.0569992
473.925	0.137073
475.684	0.192067
477.445	0.594177
479.204	0.0857668
480.963	-0.167453
482.721	0.487837
484.481	-0.0434113
486.239	-0.130102
487.996	0.834311
489.753	0.0996218
491.511	0.648899
493.268	0.0316992
495.023	0.442628
496.779	0.71382
498.534	0.282331
500.289	0.506214
502.046	0.119582
503.8	0.295106
505.554	-0.0474157
507.307	0.125572
509.06	0.344132
510.813	0.466966
512.566	0.305721
514.32	0.189912
516.072	-0.0449553
517.823	0.448067
519.574	0.540005
521.325	0.842492
523.076	0.392657
524.826	0.248202
526.576	-0.0133963
528.325	0.381835
530.074	0.167269
531.823	-0.16458
533.572	0.228769
535.32	1.46239
537.068	1.00975
538.815	0.556336
540.562	0.522336
542.309	0.580693
544.056	0.615223
545.802	0.0687313
547.547	0.498528
549.293	1.06672
551.038	0.406621
552.783	0.511534
554.527	-0.00741959
556.271	0.144421
558.015	-0.00339603
559.759	0.448639
561.502	0.232945
563.245	0.409292
564.987	-0.310384
566.729	0.717367
568.471	1.62125e-005
570.213	0.317182
571.954	0.245629
573.693	0.0153456
575.433	0.566971
577.173	0.569969
578.913	0.482671
580.652	-0.223927
582.392	0.194886
584.13	0.0158262
585.867	0.272518
587.605	0.666036
589.343	-0.0459919
591.08	0.667352
592.817	-0.345462
594.552	-0.461124
596.289	0.251505
598.025	-0.140217
599.761	-0.394245
601.496	0.547112
603.229	0.0148888
604.964	0.332047
606.699	0.0041151
608.433	0.20384
610.165	0.0130119
611.898	-0.0853624
613.631	-0.343297
615.364	0.522725
617.095	-0.238324
618.827	0.489304
620.559	-0.112524
622.288	0.291576
624.02	0.419862
625.75	0.616466
627.479	0.357378
629.209	0.237597
630.939	0.257337
632.667	0.00548935
634.396	0.507929
636.125	1.28417
637.851	0.711758
639.58	-0.137348
641.305	0.63055
643.033	0.186784
644.76	0.288838
646.485	0.413748
648.212	0.0630856
649.936	0.738614
651.662	-0.081502
653.388	0.170506
655.111	0.0169191
656.836	0.0932159
658.558	0.307478
660.283	0.56743
662.005	0.483607
663.728	0.351456
665.45	0.948133
667.173	0.491085
668.893	0.467534
670.616	-0.0128698
672.336	0.790012
674.057	0.657561
675.777	0.962779
677.498	0.581727
679.216	0.291963
680.937	0.322457
682.655	0.67319
684.375	0.492595
686.092	0.655049
687.809	0.493388
689.528	0.814199
691.244	0.581384
692.962	1.01587
694.678	0.251792
696.393	0.408001
698.111	0.539824
699.825	0.279016
701.54	0.316198
703.256	0.375287
704.97	0.157931
706.685	1.29437
708.398	0.295917
710.111	0.810921
711.826	0.225748
713.538	0.258849
715.25	0.520194
716.961	0.575514
718.675	0.630805
720.386	0.708983
722.096	0.172352
723.808	0.751557
725.518	1.12506
727.228	0.271069
728.937	1.21088
730.648	1.0602
732.357	0.365844
734.065	0.328784
735.773	1.24115
737.483	0.616595
739.19	0.625616
740.897	0.973765
742.604	0.73701
744.31	0.547015
746.018	0.763741
747.724	0.846822
749.429	1.40364
751.134	1.12958
752.839	0.879423
754.544	0.968131
756.248	0.608367
757.953	1.12803
759.657	0.793717
761.36	0.572881
763.063	0.871227
764.765	0.785902
766.468	0.993021
768.169	1.22104
769.871	1.46948
771.572	1.19562
773.273	0.897569
774.976	1.05122
776.676	1.25061
778.376	1.1348
780.075	1.40505
781.775	1.40519
783.474	1.63184
785.172	1.15568
786.871	1.33342
788.569	1.68879
790.266	1.24856
791.964	1.23539
793.661	1.55917
795.358	1.38569
797.054	1.88959
798.75	1.89904
800.446	1.3928
802.141	1.22611
803.834	1.84742
805.529	1.45647
807.224	1.08746
808.918	2.04253
810.612	2.07495
812.305	1.56807
813.998	2.42808
815.691	1.38347
817.384	1.7721
819.076	1.57905
820.766	2.34673
822.458	2.17641
824.149	1.27145
825.84	0.859381
827.531	2.27635
829.221	1.66902
830.909	1.77775
832.599	2.11245
834.288	2.04862
835.977	1.36137
837.666	1.49886
839.353	1.12169
841.041	1.0776
842.729	1.09908
844.416	1.29876
846.103	1.18628
847.788	1.6569
849.475	1.32518
851.161	1.08522
852.845	1.78824
854.53	1.23725
856.216	1.92033
857.901	1.50186
859.583	1.68837
861.268	1.69301
862.952	1.35789
864.633	1.17881
866.317	1.33674
868	0.885217
869.681	0.974277
871.363	1.46904
873.045	0.632648
874.725	0.585648
876.406	0.877126
878.088	0.672148
879.767	0.62501
881.447	0.464607
883.125	1.63541
884.805	0.976449
886.483	1.06098
888.162	1.32427
889.841	1.11202
891.518	0.740643
893.196	1.13404
894.872	0.940502
896.55	1.26318
898.225	1.09007
899.902	1.36493
901.577	1.57103
903.254	0.6795
904.928	0.572185
906.604	1.20192
908.277	0.604612
909.952	1.43479
911.625	0.573453
913.3	0.292374
914.972	0.833758
916.646	0.952673
918.318	0.628051
919.991	1.38906
921.662	1.22015
923.333	1.22955
925.005	1.26276
926.675	1.29795
928.347	0.805204
930.017	0.954002
931.686	0.949032
933.357	0.525207
935.025	1.46922
936.693	1.17838
938.363	0.954639
940.031	1.21741
941.698	0.577078
943.367	0.908137
945.034	0.687441
946.7	0.575864
948.368	0.8597
950.034	0.391083
951.699	0.892139
953.367	0.466563
955.031	0.130954
956.696	0.54786
958.36	0.593258
960.026	1.10514
961.689	-0.081399
963.353	0.830181
965.016	0.325693
966.68	0.680878
968.343	0.789853
970.005	0.144349
971.666	0.272274
973.328	1.21881
974.991	0.530257
976.652	0.241636
978.312	0.441119
979.972	0.707806
981.632	0.974252
983.292	0.663782
984.953	0.616861
986.612	0.612016
988.27	0.671622
989.929	0.309669
991.587	0.5883
993.244	0.535092
994.902	0.548243
996.559	0.274683
998.216	0.1337
999.872	0.763894
1001.53	1.0185
1003.19	0.37
1004.84	-0.277949
1006.5	0.657107
1008.15	0.0317984
1009.81	0.482949
1011.46	-0.206421
1013.11	0.289011
1014.77	-0.267129
1016.42	-0.0779438
1018.07	0.571032
1019.73	-0.441962
1021.38	0.536399
1023.03	0.203858
1024.68	-0.214972
1026.34	-0.108653
1027.99	0.34726
1029.64	-0.0277443
1031.29	0.644508
1032.94	0.354025
1034.59	-0.221539
1036.24	0.488572
1037.89	0.69566
1039.53	0.0751209
1041.18	0.826501
1042.83	0.0783558
1044.48	0.223612
1046.13	-0.0419321
1047.77	0.889005
1049.42	0.453411
1051.07	0.105972
1052.71	0.258932
1054.36	0.825212
1056	-0.0210047
1057.65	0.632113
1059.3	-0.150059
1060.94	-0.345979
1062.59	0.153133
1064.23	0.607774
1065.87	0.408989
1067.52	-0.421147
1069.16	-0.0350971
1070.8	-0.171227
1072.44	0.191846
1074.09	0.142819
1075.73	-0.0569677
1077.37	-0.0384474
1079.01	0.588508
1080.65	-0.345057
1082.29	-0.151004
1083.93	-0.261393
1085.57	0.580421
1087.21	-0.205562
1088.85	0.587886
1090.49	0.0801144
1092.13	0.414999
1093.77	0.338348
1095.41	0.132544
1097.04	0.337526
1098.68	-0.124176
1100.32	0.169969
1101.95	0.0999899
1103.59	0.440638
1105.23	0.137275
1106.86	-0.208419
1108.5	0.628454
1110.13	0.367353
1111.77	-0.647505
1113.4	-0.309722
1115.04	0.198122
1116.67	-0.754147
1118.31	0.267249
1119.94	0.259629
1121.57	0.338697
1123.2	0.311801
1124.84	0.735264
1126.47	0.368014
1128.1	0.215613
1129.73	0.51302
1131.36	-0.00144005
1132.99	0.296846
1134.62	-0.153198
1136.25	-0.197702
1137.88	-0.307349
1139.51	0.607098
1141.14	-0.679345
1142.77	0.659597
1144.4	0.248404
1146.03	0.392582
1147.66	-0.101671
1149.28	-0.0194769
1150.91	0.105789
1152.54	0.443954
1154.16	-0.282891
1155.79	-0.456387
1157.42	-0.0341969
1159.04	0.473162
1160.67	0.173093
1162.29	-0.168231
1163.92	0.0655947
1165.54	-0.359162
1167.17	0.42776
1168.79	0.235515
1170.41	0.551649
1172.04	0.270568
1173.66	0.115261
1175.28	-0.189692
1176.9	0.183616
1178.53	-0.100151
1180.15	1.14126
1181.77	0.0339279
1183.39	-0.141127
1185.01	-0.0201092
1186.63	0.142018
1188.25	0.534283
1189.87	0.586421
1191.49	-0.0373697
1193.11	0.0536375
1194.73	0.33245
1196.35	0.170165
1197.96	-0.158223
1199.58	0.540753
1201.2	-0.409826
1202.82	-0.312187
1204.43	-0.128539
1206.05	0.537091
1207.66	0.348592
1209.28	0.160462
1210.9	-0.00758076
1212.51	-0.344083
1214.13	0.0259466
1215.74	-0.460554
1217.36	0.279271
1218.97	0.538552
1220.58	0.693327
1222.2	0.599644
1223.81	0.569641
1225.42	0.0443935
1227.04	0.0594406
1228.65	-0.00680351
1230.26	1.02413
1231.87	0.154082
1233.48	0.567043
1235.1	0.505921
1236.71	0.797476
1238.32	0.5734
1239.93	0.184544
1241.53	0.374835
1243.14	0.544195
1244.75	0.319658
1246.36	0.549246
1247.97	0.550132
1249.58	0.860535
1251.19	0.611944
1252.8	0.653213
1254.4	0.322927
1256.01	0.67635
1257.62	0.88636
1259.22	1.03566
1260.83	1.06183
1262.43	1.00575
1264.04	0.22461
1265.64	0.789461
1267.25	0.462558
1268.85	0.943056
1270.46	1.07007
1272.06	0.884896
1273.66	-0.00628185
1275.27	0.4491
1276.87	0.882546
1278.48	0.569079
1280.08	-0.117528
1281.68	0.976051
1283.28	0.599941
1284.88	0.576256
1286.48	0.656885
1288.08	0.759251
1289.68	0.759246
1291.28	1.25573
1292.88	0.88425
1294.48	0.966552
1296.08	0.82025
1297.68	0.878736
1299.28	0.852818
1300.88	1.13451
1302.48	0.961178
1304.07	1.17811
1305.67	0.694771
1307.27	1.77272
1308.87	1.37089
1310.46	1.42076
1312.06	0.877259
1313.65	1.21508
1315.25	1.41034
1316.85	1.36133
1318.44	1.27225
1320.03	1.3055
1321.63	1.09326
1323.22	1.04251
1324.82	1.17286
1326.41	0.326909
1328	1.36795
1329.6	0.706074
1331.19	1.18004
1332.78	1.35238
1334.37	1.36547
1335.96	1.23914
1337.56	1.2548
1339.15	1.1891
1340.74	0.900095
1342.33	0.89096
1343.92	1.00027
1345.51	0.887231
1347.1	1.07528
1348.69	1.10451
1350.28	0.79618
1351.86	0.911117
1353.45	1.22815
1355.04	1.56646
1356.63	0.965869
1358.21	1.54376
1359.8	1.00191
1361.39	0.998222
1362.97	1.03348
1364.56	1.3075
1366.15	0.943873
1367.73	1.2586
1369.32	0.499464
1370.9	0.797094
1372.49	1.57369
1374.07	0.75966
1375.65	0.622931
1377.24	0.924092
1378.82	1.18492
1380.41	0.94716
1381.99	1.14566
1383.57	0.865287
1385.15	1.06106
1386.73	0.342216
1388.32	0.775953
1389.9	0.77333
1391.48	0.970121
1393.06	0.116288
1394.64	1.36563
1396.22	1.08738
1397.8	0.927423
1399.38	1.2222
1400.96	0.584761
1402.54	0.7193
1404.11	0.754715
1405.69	0.553359
1407.27	0.906545
1408.85	0.924521
1410.43	0.646788
1412	0.961587
1413.58	0.643861
1415.16	1.39086
1416.73	1.13039
1418.31	0.948558
1419.88	1.04306
1421.46	1.17802
1423.03	0.999711
1424.61	1.09888
1426.18	1.06171
1427.76	1.20232
1429.33	1.38202
1430.9	0.517551
1432.48	1.56084
1434.05	1.69756
1435.62	1.53865
1437.2	1.47835
1438.77	1.242
1440.34	1.71441
1441.91	1.4214
1443.48	1.75811
1445.05	1.30915
1446.62	1.76449
1448.19	1.57138
1449.76	2.04699
1451.33	2.07103
1452.9	2.09572
1454.47	2.00286
1456.04	1.31965
1457.61	1.59975
1459.17	2.01624
1460.74	1.70254
1462.31	1.64253
1463.88	1.36431
1465.44	1.20301
1467.01	1.9647
1468.58	1.72467
1470.14	0.936416
1471.71	1.38595
1473.27	0.659685
1474.84	1.09154
1476.4	0.778686
1477.97	1.72073
1479.53	0.878673
1481.1	0.526706
1482.66	1.72289
1484.22	1.31187
1485.78	0.880997
1487.35	0.801996
1488.91	1.60257
1490.47	1.57839
1492.03	1.55163
1493.59	1.24885
1495.16	0.866539
1496.72	1.12687
1498.28	0.024086
1499.84	1.06251
1501.4	0.896084
1502.96	0.750752
1504.52	0.606721
1506.08	-0.0787477
1507.64	0.628837
1509.19	0.792931
1510.75	0.723767
1512.31	1.01993
1513.87	0.949179
1515.42	0.552018
1516.98	0.559661
1518.54	0.625678
1520.1	-0.112291
1521.65	0.835436
1523.21	0.786814
1524.76	0.279226
1526.32	0.553518
1527.87	0.921262
1529.43	0.564756
1530.98	1.21555
1532.54	0.443011
1534.09	0.31733
1535.64	0.62814
1537.2	0.863728
1538.75	0.722136
1540.3	0.713257
1541.85	0.177023
1543.41	0.658025
1544.96	0.780622
1546.51	0.470711
1548.06	0.799202
1549.61	0.227265
1551.16	0.798883
1552.71	0.640388
1554.26	0.875712
1555.81	0.850736
1557.36	0.697126
1558.91	0.657792
1560.46	0.71388
1562.01	0.137493
1563.56	0.849564
1565.1	0.256337
1566.65	0.35354
1568.2	0.357212
1569.75	0.883112
1571.29	0.941986
1572.84	1.01921
1574.38	0.480238
1575.93	1.024
1577.48	0.559934
1579.02	1.19777
1580.57	0.697436
1582.11	0.758071
1583.65	1.24934
1585.2	0.601804
1586.74	0.870426
1588.29	0.914989
1589.83	1.1839
1591.37	0.890979
1592.92	1.06544
1594.46	0.97745
1596	0.945649
1597.54	0.876797
1599.08	0.733622
1600.62	1.34144
1602.16	0.692926
1603.7	1.6211
1605.24	1.2907
1606.78	0.864532
1608.32	1.15027
1609.86	1.2267
1611.4	1.0562
1612.94	1.09018
1614.48	1.34784
1616.02	1.45459
1617.56	1.99284
1619.09	0.845738
1620.63	1.36809
1622.17	0.431255
1623.71	1.42396
1625.24	0.582019
1626.78	1.27418
1628.31	1.21616
1629.85	1.39969
1631.39	0.703397
1632.92	0.511761
1634.46	0.712661
1635.99	1.25005
1637.52	1.1539
1639.06	0.76025
1640.59	1.29879
1642.12	1.1842
1643.66	1.60847
1645.19	1.11903
1646.72	1.4102
1648.25	0.882972
1649.79	0.858248
1651.32	1.03874
1652.85	0.478504
1654.38	0.71721
1655.91	1.43836
1657.44	0.954623
1658.97	1.17422
1660.5	0.818295
1662.03	0.886688
1663.56	0.38067
1665.09	0.890676
1666.62	0.662001
1668.15	0.674578
1669.67	1.09425
1671.2	0.722924
1672.73	0.887247
1674.26	0.978356
1675.79	1.36375
1677.31	0.846208
1678.84	0.714187
1680.36	1.0224
1681.89	1.07213
1683.42	0.533797
1684.94	0.363246
1686.47	-0.0267992
1687.99	0.372218
1689.51	0.441479
1691.04	0.181371
1692.56	-0.151595
1694.08	0.0644512
1695.61	-0.0306997
1697.13	0.294239
1698.65	0.728004
1700.18	0.704512
1701.7	0.00565529
1703.22	0.765126
1704.74	-0.00685883
1706.26	0.350007
1707.78	0.0151167
1709.3	0.116638
1710.82	0.508431
1712.35	0.228834
1713.86	0.56589
1715.39	0.23265
1716.9	0.062686
1718.42	0.0555105
1719.94	-0.258725
1721.46	0.13141
1722.98	-0.0914612
1724.5	0.515827
1726.01	0.151469
1727.53	0.274924
1729.05	0.291429
1730.56	0.431557
1732.08	0.158621
1733.6	-0.196093
1735.11	-0.363657
1736.63	0.0666142
1738.14	0.367201
1739.66	0.250827
1741.17	-0.171431
1742.69	0.323287
1744.2	-0.331629
1745.71	-0.282589
1747.23	0.149231
1748.74	0.296986
1750.25	0.233812
1751.77	0.145021
1753.28	0.0934839
1754.79	0.168772
1756.3	0.322039
1757.81	0.340811
1759.33	0.432121
1760.84	0.208475
1762.35	0.532079
1763.86	0.479338
1765.37	-0.0745354
1766.88	0.0497208
1768.39	-0.00974464
1769.9	-0.0893612
1771.41	-0.0355473
1772.91	0.117759
1774.42	-0.28176
1775.93	0.0800133
1777.44	0.18929
1778.95	-0.00807285
1780.45	-0.301841
1781.96	0.161747
1783.47	-0.138474
1784.97	0.198183
1786.48	0.451653
1787.99	0.232071
1789.49	-0.028553
1791	-0.384051
1792.5	0.462541
1794.01	0.0774403
1795.51	-0.0762587
1797.01	-0.0597248
1798.52	0.320374
1800.02	-0.0421906
1801.52	-0.0266123
1803.03	-0.0291481
1804.53	-0.208521
1806.03	0.0918484
1807.54	-0.271001
1809.04	0.0196419
1810.54	-0.0790558
1812.04	0.245154
1813.54	0.168616
1815.04	-0.0124998
1816.54	-0.0960932
1818.04	-0.151435
1819.54	0.129982
1821.04	0.066473
1822.54	-0.0549431
1824.04	0.203825
1825.54	-0.283005
1827.04	-0.0288544
1828.54	-0.111167
1830.03	-0.0687399
1831.53	-0.0921621
1833.03	0.283422
1834.53	0.112844
1836.02	-0.0931358
1837.52	-0.055995
1839.02	0.110914
1840.51	-0.0118208
1842.01	0.426807
1843.5	-0.008255
1845	0.112472
1846.49	-0.0359573
1847.99	0.237901
1849.48	0.26448
1850.98	0.333569
1852.47	0.366881
1853.96	0.323557
1855.46	0.402133
1856.95	-0.137788
1858.44	0.0842018
1859.94	0.153622
1861.43	0.259742
1862.92	0.13372
1864.41	0.0779848
1865.9	0.261557
1867.39	-0.0200281
1868.88	0.175886
1870.37	0.286234
1871.86	0.254969
1873.35	0.211829
1874.84	0.416759
1876.33	0.0179338
1877.82	0.22629
1879.31	-0.151417
1880.8	0.183595
1882.29	0.000226021
1882.58	-0.0676918
1884.08	0.0695534
1885.57	-0.282107
1887.06	-0.216393
1888.56	0.2665
1890.05	0.401166
1891.54	0.258643
1893.04	-0.125327
1894.53	-0.3333
1896.02	-0.000589371
1897.51	0.367929
1899	-0.255095
1900.5	0.355744
1901.99	0.268871
1903.48	0.440851
1904.97	0.0200186
1906.46	0.18944
1907.95	0.0287533
1909.44	-0.0269289
1910.93	-0.116209
1912.42	-0.0136213
1913.91	0.297666
1915.4	0.210103
1916.88	-0.0858526
1918.37	0.0856981
1919.86	-0.00323963
1921.35	0.0290413
1922.84	-0.00747204
1924.32	-0.0775852
1925.81	0.0613375
1927.3	0.0802755
1928.78	0.20382
1930.27	0.154163
1931.75	0.294044
1933.24	-0.225746
1934.72	-0.0894966
1936.21	0.235089
1937.69	0.0911436
1939.18	-0.00127316
1940.66	-0.317672
1942.15	0.195602
1943.63	0.261093
1945.11	0.689644
1946.6	-0.243511
1948.08	-0.0217342
1949.56	0.388523
1951.04	0.160196
1952.53	0.0687332
1954.01	0.251873
1955.49	0.280046
1956.97	0.171277
1958.45	-0.00521278
1959.93	0.454009
1961.41	0.107557
1962.89	-0.392653
1964.37	-0.0360336
1965.85	-0.15979
1967.33	-0.0616932
1968.81	0.138189
1970.29	0.320045
1971.77	0.279304
1973.24	0.187364
1974.72	-0.279542
1976.2	0.0384169
1977.68	0.134718
1979.15	0.350147
1980.63	-0.115121
1982.11	0.694882
1983.58	0.416308
1985.06	0.358389
1986.53	0.13069
1988.01	0.191412
1989.48	-0.0862484
1990.96	-0.108911
1992.43	-0.316518
1993.91	0.136484
1995.38	0.26897
1996.86	-0.392135
1998.33	0.517722
1999.8	-0.0591793
2001.27	0.190553
2002.75	0.220229
2004.22	0.131738
2005.69	0.111132
2007.16	0.226156
2008.64	0.0559511
2010.11	0.543384
2011.58	-0.07971
2013.05	0.256769
2014.52	0.239252
2015.99	0.136725
2017.46	0.352758
2018.93	0.634907
2020.4	0.0928545
2021.87	-0.062541
2023.34	0.269362
2024.8	0.266352
2026.27	0.164081
2027.74	0.0299635
2029.21	-0.219867
2030.68	0.35375
2032.14	-0.396971
2033.61	0.010664
2035.08	-0.102051
2036.54	0.238297
2038.01	0.158152
2039.48	0.363235
2040.94	0.534739
2042.41	0.168725
2043.87	0.307977
2045.34	0.111837
2046.8	0.269934
2048.27	0.260077
2049.73	0.266654
2051.19	0.322639
2052.66	0.157606
2054.12	-0.16132
2055.58	-0.094285
2057.05	0.122929
2058.51	0.0189533
2059.97	0.319159
2061.43	0.232368
2062.9	0.146576
2064.36	-0.139985
2065.82	-0.0551462
2067.28	0.0306282
2068.74	0.218053
2070.2	-0.503125
2071.66	0.593809
2073.12	-0.0265808
2074.58	0.160879
2076.04	0.230109
2077.5	0.0463257
2078.95	0.0473366
2080.41	0.300408
2081.87	0.552785
2083.33	0.282479
2084.79	0.297535
2086.24	0.177175
2087.7	0.257982
2089.16	-0.199523
2090.61	0.21664
2092.07	0.0782871
2093.53	0.0909863
2094.98	0.203995
2096.44	0.182226
2097.89	0.729163
2099.35	0.103113
2100.8	0.0964146
2102.26	0.257091
2103.71	0.0845337
2105.16	-0.136443
2106.62	-0.0220537
2108.07	0.527039
2109.53	0.209136
2110.98	0.390855
2112.43	0.35431
2113.88	0.265912
2115.33	0.159222
2116.79	0.13486
2118.24	0.576004
2119.69	0.586493
2121.14	0.549444
2122.59	0.464896
2124.04	0.0337925
2125.49	-0.015172
2126.94	0.316886
2128.39	0.730575
2129.84	0.131645
2131.29	0.757379
2132.74	0.0573721
2134.19	0.317636
2135.63	0.413188
2137.08	0.460745
2138.53	0.0145922
2139.98	0.479504
2141.43	0.219021
2142.87	0.488844
2144.32	0.842301
2145.77	0.600376
2147.21	0.738716
2148.66	0.627976
2150.1	1.04632
2151.55	0.618644
2152.99	0.20635
2154.44	0.538764
2155.88	0.671827
2157.33	0.854668
2158.77	0.54139
2160.21	0.693439
2161.66	0.665252
2163.1	0.523049
2164.55	1.0294
2165.99	1.02271
2167.43	0.91617
2168.87	0.907997
2170.31	0.748082
2171.76	0.801947
2173.2	1.00335
2174.64	1.11999
2176.08	1.08629
2177.52	0.986344
2178.96	0.970449
2180.4	0.872553
2181.84	0.875405
2183.28	0.829026
2184.72	0.66651
2186.16	1.11955
2187.6	0.873933
2189.04	0.761413
2190.47	0.981735
2191.91	0.502584
2193.35	0.422072
2194.79	1.10593
2196.23	0.838695
2197.66	1.11839
2199.1	0.597704
2200.54	0.724547
2201.97	0.535634
2203.41	0.11549
2204.84	0.642161
2206.28	0.755126
2207.71	0.586944
2209.15	0.79953
2210.58	0.464831
2212.02	0.840613
2213.45	0.553903
2214.89	0.515224
2216.32	0.625863
2217.75	0.457219
2219.19	0.685901
2220.62	0.635131
2222.05	0.7658
2223.48	0.76373
2224.92	0.430717
2226.35	0.392349
2227.78	0.43439
2229.21	0.524162
2230.64	0.776932
2232.07	0.488153
2233.5	0.756866
2234.93	0.17564
2236.36	0.331985
2237.79	0.636783
2239.22	0.682349
2240.65	0.420288
2242.08	0.731209
2243.51	0.407427
2244.94	0.491771
2246.37	0.265417
2247.79	0.249318
2249.22	0.132995
2250.65	0.437895
2252.08	-0.0572014
2253.5	0.439637
2254.93	0.302339
2256.36	0.394199
2257.78	0.342627
2259.21	0.391661
2260.63	0.362884
2262.06	0.353069
2263.48	0.133866
2264.91	0.320974
2266.33	0.198926
2267.76	0.401209
2269.18	-0.129745
2270.6	0.44508
2272.03	0.205494
2273.45	0.030757
2274.87	0.295872
2276.3	0.577636
2277.72	0.0937347
2279.14	0.245441
2280.56	-0.0920534
2281.98	0.483558
2283.41	0.716735
2284.83	0.150463
2286.25	0.171779
2287.67	-0.100386
2289.09	-0.584592
2290.51	-0.153684
2291.93	0.0326691
2293.35	0.0884724
2294.77	0.340647
2296.19	-0.0127153
2297.61	0.30497
2299.02	0.0168219
2300.44	0.367845
2301.86	0.161989
2303.28	-0.388289
2304.7	-0.16747
2306.11	0.152029
2307.53	0.339998
2308.95	0.100108
2310.36	0.0895977
2311.78	0.210235
2313.2	0.281556
2314.61	-0.255614
2316.03	-0.199601
2317.44	0.252718
2318.86	0.0960751
2320.27	0.334811
2321.69	0.374484
2323.1	0.412
2324.51	0.430328
2325.93	0.743025
2327.34	0.888604
2328.76	0.720026
2330.17	0.551901
2331.58	0.319144
2332.99	0.235967
2334.41	0.203152
2335.82	0.154155
2337.23	0.12109
2338.64	-0.0281401
2340.05	0.00223637
2341.46	0.0315342
2342.87	-0.0218086
2344.28	0.334879
2345.69	-0.0624619
2347.1	0.310808
2348.51	0.110738
2349.92	0.548438
2351.33	0.0201931
2352.74	0.0796309
2354.15	0.088954
2355.56	-0.244784
2356.97	-0.187408
2358.37	-0.276567
2359.78	0.105749
2361.19	0.0653992
2362.6	0.057539
2364	0.162925
2365.41	0.0415354
2366.82	-0.305621
2368.22	0.123535
2369.63	0.0691471
2371.03	0.193644
2372.44	0.0617323
2373.84	0.301423
2375.25	0.026247
2376.65	0.217438
2378.06	0.391094
2379.46	-0.0639029
2380.86	-0.0544596
2382.27	0.161837
2383.67	0.120398
2385.07	0.0948172
2386.48	0.0378056
2387.88	-0.0180435
2389.28	-0.0565176
2390.69	-0.0138779
2392.09	0.0300055
2393.49	-0.115989
2394.89	-0.0859833
2396.29	0.310417
2397.69	0.166911
2399.09	0.341914
2400.49	0.136145
2401.89	0.470829
2403.29	0.170208
2404.69	0.0121565
2406.09	-0.146803
2407.49	0.232806
2408.89	0.119553
2410.29	0.0853138
2411.69	0.162271
2413.08	0.366794
2414.48	0.319345
2415.88	0.0994635
2417.28	0.0393858
2418.67	0.0594711
2420.07	0.428366
2421.47	0.512128
2422.86	-0.0699015
2424.26	0.329974
2425.65	0.238798
2427.05	0.116489
2428.45	0.153649
2429.84	-0.0460024
2431.23	0.310289
2432.63	0.3972
2434.02	0.181794
2435.42	0.425656
2436.81	0.270684
2438.2	0.20928
2439.6	0.321165
2440.99	0.0032053
2442.38	-0.0928993
2443.78	0.286793
2445.17	0.126695
2446.56	0.267783
2447.95	0.218427
2449.34	0.0423841
2450.73	0.215082
2452.13	0.135021
2453.52	0.309062
2454.91	0.389086
2456.3	-0.210325
2457.69	0.013216
2459.08	-0.000716209
2460.47	0.158656
2461.85	0.222183
2463.24	-0.110353
2464.63	0.0464811
2466.02	-0.00244236
2467.41	0.0432901
2468.8	0.010025
2470.19	-0.165376
2471.57	0.147519
2472.96	0.333258
2474.35	-0.111799
2475.73	-0.494001
2477.12	-0.0901432
2478.51	0.328713
2479.89	0.0409765
2481.28	0.114501
2482.66	0.0624866
2484.05	0.072628
2485.43	0.285054
2486.82	-0.363474
2488.2	-0.0442934
2489.59	-0.0383844
2490.97	-0.312771
2492.35	0.175767
2493.74	0.0743752
2495.12	0.160842
2496.5	-0.340401
2497.89	-0.0500774
2499.27	0.410375
2500.65	0.0809641
2502.03	-0.109748
2503.42	0.409026
2504.8	0.000301361
2506.18	0.115606
2507.56	0.107274
2508.94	0.114484
2510.32	0.245028
2511.7	0.130567
2513.08	0.124501
2514.46	0.119419
2515.84	-0.144872
2517.22	-0.025569
2518.6	-0.21157
2519.98	0.0764933
2521.36	0.0432177
2522.73	-0.0976057
2524.11	-0.117156
2525.49	0.319729
2526.87	0.116078
2528.25	-0.0411158
2529.62	0.213691
2531	0.257249
2532.38	-0.0163813
2533.75	0.19776
2535.13	-0.164656
2536.5	0.141332
2537.88	0.142692
2539.25	-0.0696592
2540.63	0.127123
2542.01	0.308208
2543.38	0.474343
2544.75	0.17116
2546.13	0.400345
2547.5	0.175864
2548.88	0.134331
2550.25	-0.210656
2551.62	0.399807
2553	0.174592
2554.37	-0.173162
2555.74	0.160943
2557.11	-0.264092
2558.49	0.160111
2559.86	-0.249357
2561.23	0.130065
2562.6	0.11607
2563.97	-0.00334644
2565.34	0.332334
2566.71	-0.0591164
2568.08	0.00416088
2569.45	0.0977621
2570.82	0.00949574
2572.19	-0.0332632
2573.56	-0.227517
2574.93	0.18469
2576.3	0.0663643
2577.67	0.12987
2579.03	0.0718288
2580.4	0.286323
2581.77	0.257743
2583.14	-0.18061
2584.5	0.654286
2585.87	0.0489321
2587.24	0.368393
2588.6	0.248507
2589.97	0.14391
2591.34	0.342248
2592.7	0.00969219
2594.07	0.130794
2595.43	0.205246
2596.8	0.127116
2598.16	0.123822
2599.53	0.105012
2600.89	0.010808
2602.26	0.128695
2603.62	-0.220723
2604.98	0.200308
2606.35	0.198874
2607.71	0.0010376
2609.07	0.239484
2610.44	-0.0809994
2611.8	0.109209
2613.16	0.0421925
2614.52	0.154708
2615.88	-0.0183897
2617.25	0.138927
2618.61	0.281652
2619.97	0.30531
2621.33	0.284905
2622.69	0.324894
2624.05	0.380017
2625.41	0.0917912
2626.77	0.236101
2628.13	-0.0969915
2629.49	0.210322
2630.85	-0.107928
2632.21	-0.158213
2633.56	-0.10449
2634.92	-0.0954199
2636.28	0.432642
2637.64	-0.0329399
2639	0.0204887
2640.35	0.118394
2641.71	-0.0940008
2643.07	0.196486
2644.42	-0.0594568
2645.78	-0.138116
2647.14	0.22512
2648.49	-0.105268
2649.85	-0.141673
2651.2	0.306369
2652.56	0.0335884
2653.91	-0.150344
2655.27	0.282502
2656.62	0.0128946
2657.98	0.125487
2659.33	0.443741
2660.68	0.455077
2662.04	-0.176797
2663.39	0.330583
2664.74	0.164991
2666.1	0.68428
2667.45	0.0509377
2668.8	-0.173758
2670.15	0.489738
2671.5	0.0624342
2672.86	0.1159
2674.21	0.0393114
2675.56	0.210189
2676.91	-0.053688
2678.26	0.278005
2679.61	0.175476
2680.96	-0.0853071
2682.31	0.249689
2683.66	0.0205631
2685.01	0.271057
2686.36	0.144953
2687.71	0.0765877
2689.06	0.166561
2690.4	0.0804462
2691.75	0.0649004
2693.1	0.105721
2694.45	-0.0575495
2695.8	0.155977
2697.14	0.283095
2698.49	0.237831
2699.84	0.0931349
2701.18	-0.035141
2702.53	0.171331
2703.88	0.538507
2705.22	-0.0937576
2706.57	-0.00132656
2707.91	-0.271888
2709.26	0.269839
2710.6	0.390411
2711.95	0.089488
2713.29	0.151497
2714.64	-0.0481653
2715.98	0.537151
2717.32	0.395422
2718.67	0.326066
2720.01	0.372664
2721.35	0.273231
2722.7	0.347883
2724.04	0.218228
2725.38	0.0589695
2726.72	0.539718
2728.06	0.554324
2729.4	0.306711
2730.75	0.146301
2732.09	0.189581
2733.43	-0.043438
2734.77	0.480154
2736.11	0.262125
2737.45	0.087904
2738.79	-0.115417
2740.13	0.233608
2741.47	0.0440388
2742.81	0.75511
2744.15	-0.366117
2745.48	0.00905895
2746.82	0.122091
2748.16	0.22032
2749.5	0.0138321
2750.84	-0.250267
2752.17	-0.122457
2753.51	0.135949
2754.85	0.495796
2756.19	-0.0424013
2757.52	0.0135603
2758.86	-0.118401
2760.19	-0.105146
2761.53	0.0244064
2762.86	0.226806
2764.2	0.0967388
2765.54	0.169214
2766.87	-0.12052
2768.2	0.45665
2769.54	0.1211
2770.87	-0.446978
2772.21	0.428281
2773.54	-0.0408497
2774.88	-0.0484438
2776.21	0.0591755
2777.54	0.0662842
2778.87	-0.041048
2780.21	-0.190754
2781.54	0.34938
2782.87	-0.130007
2784.2	0.165606
2785.53	-0.313108
2786.87	0.0970211
2788.2	0.20663
2789.53	0.0737934
2790.86	-0.143738
2792.19	-0.531857
2793.52	0.0956249
2794.85	0.165484
2796.18	-0.0936975
2797.51	0.175159
2798.84	-0.0850821
2800.17	0.0825806
2801.49	0.292589
2802.82	-0.282003
2804.15	-0.0725298
2805.48	-0.0631638
2806.81	0.187477
2808.13	-0.0322742
2809.46	0.415793
2810.79	-0.0740042
2812.12	0.345804
2813.44	0.213286
2814.77	0.139253
2816.09	-0.145738
2817.42	0.0949821
2818.75	0.307973
2820.07	0.265837
2821.4	0.294054
2822.72	-0.0894451
2824.05	-0.0909481
2825.37	-0.149469
2826.7	-0.434473
2828.02	0.144854
2829.35	0.144222
2830.67	0.115802
2831.99	0.0168371
2833.31	0.158442
2834.64	0.441215
2835.96	0.256358
2837.28	0.693529
2838.61	0.479321
2839.93	0.689259
2841.25	0.277148
2842.57	0.939958
2843.89	1.06624
2845.21	1.22161
2846.53	1.09503
2847.85	1.29392
2849.17	1.04056
2850.49	1.50769
2851.81	1.42304
2853.13	1.63459
2854.45	1.20979
2855.77	1.33593
2857.09	1.49027
2858.41	1.68701
2859.73	1.75657
2861.05	1.61412
2862.36	1.73959
2863.68	1.73757
2865	1.56595
2866.32	2.36774
2867.64	1.74505
2868.95	2.27932
2870.27	2.01031
2871.59	2.20671
2872.9	2.30408
2874.22	2.37239
2875.53	2.17188
2876.85	2.50532
2878.16	2.48578
2879.48	2.91597
2880.79	2.57304
2882.11	2.79334
2883.42	2.29842
2884.74	2.82982
2886.05	2.78609
2887.36	2.79858
2888.68	2.61412
2889.99	2.84971
2891.3	3.28048
2892.62	2.54696
2893.93	2.99065
2895.24	2.83231
2896.55	2.84297
2897.86	2.99473
2899.18	2.92373
2900.49	2.92357
2901.8	3.49745
2903.11	3.40008
2904.42	3.20498
2905.73	3.38786
2907.04	3.38954
2908.35	3.76985
2909.66	3.80143
2910.97	3.87564
2912.28	3.94985
2913.59	3.99523
2914.9	4.19304
2916.21	3.73096
2917.51	4.13507
2918.82	4.07619
2920.13	4.42282
2921.44	4.43444
2922.74	4.46145
2924.05	4.19647
2925.36	5.02303
2926.67	4.71804
2927.97	5.05613
2929.28	4.89053
2930.59	4.66839
2931.89	5.00492
2933.2	4.50247
2934.5	4.51723
2935.81	4.78369
2937.11	5.24595
2938.42	4.70225
2939.72	4.9554
2941.02	5.1812
2942.33	4.38788
2943.63	4.26658
2944.94	4.00691
2946.24	3.77631
2947.54	3.46221
2948.85	3.80544
2950.15	4.02166
2951.45	3.08779
2952.75	3.23008
2954.05	3.02092
2955.36	3.3994
2956.66	3.34487
2957.96	2.69066
2959.26	3.1031
2960.56	2.91642
2961.86	2.61946
2963.16	2.96819
2964.46	2.93773
2965.76	2.62477
2967.06	2.64711
2968.36	2.52753
2969.66	2.77273
2970.96	2.24436
2972.26	2.33509
2973.56	2.384
2974.85	2.27808
2976.15	2.42487
2977.45	2.24648
2978.75	2.54498
2980.05	1.96878
2981.34	2.40467
2982.64	2.12233
2983.94	2.54357
2985.23	2.13656
2986.53	1.68925
2987.83	2.12887
2989.12	1.76859
2990.42	1.64746
2991.71	1.69443
2993.01	1.43107
2994.3	1.03998
2995.6	1.36424
2996.89	1.39265
2998.19	1.14015
2999.48	1.57548
3000.77	1.22587
3002.07	0.933242
3003.36	1.11767
3004.65	0.601701
3005.95	0.883962
3007.24	0.801397
3008.53	0.592072
3009.82	0.675645
3011.12	0.576664
3012.41	0.42154
3013.7	0.308528
3014.99	0.251918
3016.28	0.516545
3017.57	0.364015
3018.86	0.226136
3020.15	0.310993
3021.44	0.270182
3022.73	0.00629234
3024.02	0.130331
3025.31	0.128587
3026.6	0.140491
3027.89	0.000721931
3029.18	0.0144978
3030.47	0.237123
3031.76	0.0468369
3033.04	0.147738
3034.33	0.110907
3035.62	0.239038
3036.91	0.213952
3038.19	0.22827
3039.48	-0.117273
3040.77	-0.243751
3042.05	0.150717
3043.34	0.256262
3044.63	0.143524
3045.91	0.101261
3047.2	-0.0887766
3048.48	0.0789423
3049.77	0.0987062
3051.05	-0.207335
3052.34	0.156177
3053.62	-0.189854
3054.91	0.309328
3056.19	-0.161133
3057.48	0.349111
3058.76	-0.0411863
3060.04	0.344811
3061.33	0.104864
3062.61	-0.120153
3063.89	0.37712
3065.17	0.155381
3066.46	0.111954
3067.74	-0.20235
3069.02	-0.189942
3070.3	0.121413
3071.59	0.472696
3072.87	0.0202532
3074.15	0.23282
3075.43	0.267594
3076.71	0.32917
3077.99	0.32333
3079.27	0.0338039
3080.55	0.11235
3081.83	-0.0651369
3083.11	-0.214164
3084.39	0.0445776
3085.67	-0.144375
3086.94	-0.211675
3088.22	-0.00823784
3089.5	0.180911
3090.78	0.355952
3092.06	-0.093256
3093.34	0.068284
3094.61	0.230109
3095.89	-0.0552216
3097.17	0.242571
3098.44	0.269139
3099.72	0.295568
3101	-0.00318527
3102.27	0.13168
3103.55	0.104349
3104.82	0.131774
3106.1	0.268292
3107.38	0.365238
3108.65	0.260368
3109.93	0.116071
3111.2	-0.0272303
3112.47	0.0605078
3113.75	0.14879
3115.02	0.426933
3116.3	0.474228
3117.57	0.398525
3118.84	0.118175
3120.12	0.0672498
3121.39	0.46277
3122.66	0.450865
3123.93	0.289797
3125.2	0.494688
3126.48	0.415729
3127.75	0.215731
3129.02	0.395139
3130.29	0.466712
3131.56	0.714113
3132.83	0.353167
3134.1	0.626901
3135.37	0.80535
3136.64	0.780612
3137.91	0.741872
3139.18	0.770136
3140.45	0.852052
3141.72	0.409507
3142.99	0.653294
3144.26	0.575083
3145.53	0.846497
3146.8	0.729559
3148.07	0.54659
3149.33	0.926865
