200.419	0.0436115
202.234	0.0715866
204.048	0.103277
205.862	-0.0826893
207.678	-0.219576
209.491	0.396025
211.304	-0.326635
213.116	0.59996
214.928	0.917049
216.742	0.2631
218.554	0.118578
220.365	0.507462
222.176	1.30832
223.986	0.247978
225.798	-0.0614586
227.608	0.643885
229.417	0.21303
231.226	0.167736
233.035	0.459572
234.843	-0.116575
236.653	-0.112043
238.46	0.112293
240.268	-0.479319
242.074	0.378725
243.881	0.708689
245.687	0.194088
247.493	0.231955
249.298	0.120811
251.103	-0.357304
252.908	0.391485
254.715	0.654339
256.519	0.988396
258.322	-0.411877
260.126	-0.17058
261.929	-0.480705
263.731	0.151066
265.534	0.567669
267.336	0.743912
269.137	0.630405
270.938	0.29854
272.739	0.832747
274.54	0.978912
276.34	1.2188
278.14	0.274761
279.939	1.25517
281.739	0.570286
283.537	0.845381
285.336	0.0844975
287.134	0.763891
288.932	0.650541
290.729	-0.156225
292.526	0.38065
294.323	0.344995
296.117	0.0246811
297.913	-0.126448
299.709	-0.1334
301.504	0.169849
303.299	-0.555077
305.093	-0.016428
306.888	0.1147
308.682	0.0545368
310.475	0.590826
312.268	0.151943
314.059	-0.260432
315.852	-0.169958
317.644	0.971067
319.436	-0.219566
321.227	0.378155
323.018	0.23842
324.807	0.290054
326.597	0.843363
328.387	0.393543
330.177	0.850576
331.967	0.75613
333.753	0.539251
335.542	0.653975
337.331	-0.12027
339.119	0.202973
340.906	0.356165
342.691	-0.209219
344.478	-0.248591
346.265	0.739813
348.051	0.0333214
349.835	0.999039
351.621	-0.0882025
353.406	0.590001
355.189	-0.260489
356.973	-0.897709
358.757	0.703796
360.541	-0.12757
362.323	0.0878468
364.106	0.0401917
365.889	0.0865202
367.669	0.96229
369.451	-0.559911
371.233	0.927891
373.012	0.542168
374.793	0.274856
376.574	0.0554304
378.353	-0.351367
380.133	0.0920649
381.91	0.183421
383.69	-0.217322
385.469	0.536304
387.245	-0.0952368
389.024	0.661377
390.8	0.244889
392.577	-0.545917
394.353	0.0028801
396.129	0.0826015
397.906	-0.612519
399.68	-0.0866089
401.456	-0.383359
403.23	0.234984
405.005	0.499854
406.778	0.810472
408.552	-0.452986
410.325	0.607398
412.099	0.587876
413.87	0.334397
415.643	0.99719
417.414	-0.262764
419.187	0.214681
420.957	0.105932
422.728	0.137686
424.498	0.238849
426.269	0.4795
428.038	0.296295
429.806	0.229743
431.576	0.327477
433.344	-0.184491
435.114	-0.977507
436.881	0.670331
438.649	-0.0297899
440.416	-0.286079
442.182	0.486857
443.949	0.528936
445.715	-0.720386
447.48	0.30081
449.247	0.173631
451.011	0.467392
452.777	0.130901
454.541	0.425161
456.304	-0.609525
458.069	-0.222167
459.832	0.118166
461.594	-0.238569
463.358	0.104745
465.119	0.56772
466.881	0.314909
468.642	-0.352012
470.404	-0.225818
472.165	-0.377667
473.925	0.959351
475.684	-0.104178
477.445	0.016449
479.204	0.204115
480.963	0.716272
482.721	-0.029088
484.481	0.0193043
486.239	-0.138936
487.996	0.0789957
489.753	0.696976
491.511	0.570712
493.268	0.725755
495.023	0.64764
496.779	0.358643
498.534	0.654463
500.289	-0.527239
502.046	-0.327126
503.8	-0.0105515
505.554	0.28126
507.307	0.524284
509.06	0.529882
510.813	-0.38468
512.566	0.957145
514.32	0.414181
516.072	0.245639
517.823	0.968981
519.574	0.608837
521.325	0.670769
523.076	0.285704
524.826	0.722239
526.576	-0.178835
528.325	0.070013
530.074	0.740316
531.823	0.191391
533.572	0.297316
535.32	0.939281
537.068	0.316004
538.815	0.39211
540.562	0.792687
542.309	0.864958
544.056	0.959719
545.802	0.519792
547.547	0.638266
549.293	0.154175
551.038	0.736775
552.783	0.971478
554.527	0.466645
556.271	0.240342
558.015	0.730026
559.759	0.136804
561.502	0.466352
563.245	-0.123712
564.987	-0.0913267
566.729	0.493363
568.471	0.114462
570.213	0.334305
571.954	-0.0173082
573.693	-0.0908871
575.433	0.136577
577.173	0.504511
578.913	0.346926
580.652	-0.0850859
582.392	0.861471
584.13	-0.398857
585.867	0.0401516
587.605	-0.258605
589.343	0.360983
591.08	0.519057
592.817	0.101119
594.552	-0.0869331
596.289	0.369306
598.025	-0.301779
599.761	0.315015
601.496	0.0563421
603.229	0.370804
604.964	0.774735
606.699	0.234116
608.433	0.795091
610.165	0.0470257
611.898	-0.607694
613.631	-0.160005
615.364	0.150906
617.095	0.507781
618.827	-0.166939
620.559	0.0500689
622.288	-0.146819
624.02	-0.276206
625.75	0.165676
627.479	0.311871
629.209	0.301291
630.939	0.45423
632.667	-0.00559711
634.396	0.540465
636.125	-0.534414
637.851	-0.379262
639.58	0.29671
641.305	0.00953579
643.033	-0.281062
644.76	0.201021
646.485	-0.113485
648.212	0.0981798
649.936	-0.00360489
651.662	0.127834
653.388	1.06107
655.111	0.226637
656.836	0.123123
658.558	0.271723
660.283	0.739538
662.005	-0.027441
663.728	0.0236073
665.45	0.368202
667.173	-0.181837
668.893	-0.367339
670.616	0.546112
672.336	0.913998
674.057	0.187061
675.777	0.791798
677.498	0.206726
679.216	0.906948
680.937	0.618523
682.655	0.00471687
684.375	0.560841
686.092	0.930082
687.809	1.08968
689.528	0.510452
691.244	0.690168
692.962	0.17787
694.678	0.839159
696.393	0.715771
698.111	0.360352
699.825	-0.203812
701.54	0.56473
703.256	1.03208
704.97	0.257452
706.685	0.515884
708.398	1.36953
710.111	0.823503
711.826	1.44537
713.538	0.96777
715.25	0.21648
716.961	1.38437
718.675	0.611319
720.386	0.728825
722.096	0.186016
723.808	0.349552
725.518	0.671816
727.228	0.220839
728.937	0.0650692
730.648	1.01976
732.357	0.273424
734.065	0.636917
735.773	1.271
737.483	0.414072
739.19	0.66526
740.897	0.737194
742.604	0.855947
744.31	0.526411
746.018	0.919479
747.724	0.752054
749.429	0.631771
751.134	1.70558
752.839	0.982065
754.544	1.27291
756.248	1.74631
757.953	0.87166
759.657	0.98962
761.36	1.04188
763.063	1.16277
764.765	1.89313
766.468	1.01855
768.169	0.750549
769.871	1.72272
771.572	1.44824
773.273	2.23429
774.976	1.36884
776.676	1.31826
778.376	1.3601
780.075	1.44955
781.775	2.0838
783.474	1.63248
785.172	1.36032
786.871	1.96739
788.569	1.79989
790.266	1.6952
791.964	2.3096
793.661	1.88158
795.358	1.90504
797.054	1.86222
798.75	1.68694
800.446	2.30251
802.141	1.5924
803.834	1.55869
805.529	1.90697
807.224	2.34355
808.918	1.56514
810.612	2.80559
812.305	2.5627
813.998	1.91595
815.691	1.71759
817.384	2.39184
819.076	2.23815
820.766	2.28598
822.458	2.02192
824.149	1.96017
825.84	2.72519
827.531	2.11189
829.221	2.52771
830.909	2.19117
832.599	2.48283
834.288	2.1095
835.977	1.75971
837.666	2.07878
839.353	2.32941
841.041	2.22033
842.729	2.35478
844.416	2.73424
846.103	2.10908
847.788	2.24651
849.475	1.3364
851.161	2.42169
852.845	1.3379
854.53	2.02598
856.216	1.9516
857.901	2.01025
859.583	1.95384
861.268	3.65075
862.952	2.5533
864.633	2.89508
866.317	2.37885
868	3.37204
869.681	2.04186
871.363	2.28966
873.045	2.44696
874.725	1.99492
876.406	1.58789
878.088	1.63217
879.767	2.10518
881.447	1.90045
883.125	1.26563
884.805	1.32893
886.483	1.05153
888.162	0.997498
889.841	1.6627
891.518	1.06275
893.196	1.9704
894.872	1.00712
896.55	1.23532
898.225	1.23696
899.902	1.41655
901.577	1.77371
903.254	1.45775
904.928	1.00818
906.604	1.51983
908.277	1.54074
909.952	1.02847
911.625	1.25283
913.3	1.41112
914.972	0.992388
916.646	1.55056
918.318	0.179464
919.991	1.04737
921.662	1.29512
923.333	0.991562
925.005	1.0664
926.675	1.71805
928.347	1.75382
930.017	1.08543
931.686	1.21265
933.357	1.6932
935.025	1.0931
936.693	0.934853
938.363	2.52021
940.031	1.21828
941.698	1.17531
943.367	1.35413
945.034	1.66526
946.7	1.00347
948.368	1.04516
950.034	1.08389
951.699	1.56188
953.367	0.583937
955.031	1.21846
956.696	1.17349
958.36	1.26586
960.026	1.20818
961.689	1.44004
963.353	0.942659
965.016	0.198814
966.68	1.02122
968.343	0.158033
970.005	1.28283
971.666	0.260292
973.328	1.16273
974.991	0.629757
976.652	0.586037
978.312	0.832148
979.972	0.515162
981.632	0.197439
983.292	0.26503
984.953	0.0641003
986.612	0.789717
988.27	0.892645
989.929	0.573359
991.587	0.85008
993.244	0.485647
994.902	1.09302
996.559	0.133472
998.216	0.299482
999.872	1.10398
1001.53	0.717665
1003.19	0.859358
1004.84	0.978331
1006.5	1.03098
1008.15	0.271215
1009.81	0.588247
1011.46	-0.125214
1013.11	0.762779
1014.77	0.511309
1016.42	0.195036
1018.07	0.470612
1019.73	-0.215204
1021.38	0.915663
1023.03	0.430073
1024.68	0.361364
1026.34	0.555788
1027.99	0.094717
1029.64	0.856222
1031.29	0.261444
1032.94	0.909014
1034.59	1.13879
1036.24	0.602974
1037.89	1.02519
1039.53	-0.0118771
1041.18	1.34621
1042.83	1.29153
1044.48	1.56556
1046.13	1.06056
1047.77	0.819351
1049.42	0.689306
1051.07	0.257093
1052.71	0.912203
1054.36	0.0470905
1056	1.57239
1057.65	1.29353
1059.3	0.448475
1060.94	0.928625
1062.59	0.624784
1064.23	0.14559
1065.87	0.469284
1067.52	-0.317255
1069.16	0.459501
1070.8	0.626562
1072.44	0.771505
1074.09	0.634951
1075.73	0.174675
1077.37	0.73588
1079.01	-0.154049
1080.65	0.280003
1082.29	0.085207
1083.93	0.19269
1085.57	0.969692
1087.21	0.507942
1088.85	0.75803
1090.49	0.767
1092.13	0.860531
1093.77	0.758654
1095.41	0.311983
1097.04	0.535601
1098.68	0.30854
1100.32	0.235104
1101.95	-0.158159
1103.59	0.398012
1105.23	0.332197
1106.86	0.374825
1108.5	1.08366
1110.13	0.737028
1111.77	-0.192163
1113.4	0.144468
1115.04	-0.551674
1116.67	0.446968
1118.31	0.115181
1119.94	-0.086628
1121.57	-0.029808
1123.2	0.328176
1124.84	-0.275421
1126.47	-0.235685
1128.1	1.30207
1129.73	0.231888
1131.36	0.830402
1132.99	0.766573
1134.62	-0.195223
1136.25	0.16736
1137.88	0.335918
1139.51	-0.138275
1141.14	0.923565
1142.77	0.212395
1144.4	0.205931
1146.03	-0.0127144
1147.66	-0.229776
1149.28	-0.232367
1150.91	0.426073
1152.54	0.338884
1154.16	0.591833
1155.79	0.184216
1157.42	0.351078
1159.04	-0.608932
1160.67	-0.12125
1162.29	-0.355007
1163.92	-0.225807
1165.54	0.223083
1167.17	0.310156
1168.79	-0.539816
1170.41	0.308397
1172.04	0.324472
1173.66	-0.108082
1175.28	0.179379
1176.9	-0.17042
1178.53	0.751503
1180.15	-0.126093
1181.77	0.47958
1183.39	-0.0560951
1185.01	0.000547409
1186.63	-0.261021
1188.25	0.340445
1189.87	1.04316
1191.49	-0.195606
1193.11	-0.781803
1194.73	-0.107908
1196.35	0.123766
1197.96	0.251493
1199.58	0.611576
1201.2	0.452181
1202.82	0.485069
1204.43	-0.0415516
1206.05	0.0405025
1207.66	-0.0632114
1209.28	0.54278
1210.9	0.563416
1212.51	0.664814
1214.13	-0.2167
1215.74	-0.350822
1217.36	0.240673
1218.97	0.725494
1220.58	0.793875
1222.2	0.489845
1223.81	-0.143263
1225.42	0.552
1227.04	0.483034
1228.65	0.292177
1230.26	0.806368
1231.87	0.39192
1233.48	0.661501
1235.1	0.416245
1236.71	0.0694485
1238.32	0.902452
1239.93	-0.0621471
1241.53	0.607059
1243.14	0.469255
1244.75	0.040556
1246.36	1.14154
1247.97	0.647642
1249.58	0.835402
1251.19	1.25016
1252.8	0.672247
1254.4	0.343706
1256.01	0.533873
1257.62	0.539742
1259.22	1.00261
1260.83	0.473537
1262.43	0.110487
1264.04	0.120083
1265.64	1.53823
1267.25	0.841805
1268.85	0.827768
1270.46	1.10242
1272.06	0.587538
1273.66	0.610172
1275.27	0.859293
1276.87	1.12757
1278.48	0.690077
1280.08	0.107027
1281.68	1.13835
1283.28	0.638014
1284.88	0.945387
1286.48	1.04716
1288.08	1.23314
1289.68	0.883194
1291.28	1.23668
1292.88	1.38337
1294.48	1.09505
1296.08	2.12663
1297.68	1.23502
1299.28	0.960649
1300.88	1.05538
1302.48	1.58059
1304.07	1.7329
1305.67	1.36975
1307.27	1.3762
1308.87	1.19748
1310.46	0.855186
1312.06	0.964565
1313.65	1.13619
1315.25	1.10469
1316.85	1.17678
1318.44	1.20885
1320.03	1.36302
1321.63	1.25077
1323.22	1.64507
1324.82	0.775515
1326.41	1.67207
1328	1.34891
1329.6	1.12865
1331.19	1.29559
1332.78	1.1221
1334.37	0.649525
1335.96	1.10828
1337.56	1.28507
1339.15	0.755203
1340.74	0.807678
1342.33	0.997686
1343.92	0.541042
1345.51	1.00726
1347.1	0.930998
1348.69	0.757326
1350.28	1.30817
1351.86	0.62216
1353.45	1.11958
1355.04	1.19897
1356.63	1.97832
1358.21	1.75776
1359.8	1.79541
1361.39	1.61173
1362.97	1.16755
1364.56	0.484058
1366.15	0.698307
1367.73	0.993174
1369.32	0.732265
1370.9	0.453781
1372.49	0.356579
1374.07	0.858015
1375.65	0.305902
1377.24	1.04736
1378.82	0.653843
1380.41	0.855751
1381.99	0.995909
1383.57	0.656683
1385.15	0.574583
1386.73	1.20705
1388.32	0.607939
1389.9	0.923426
1391.48	0.783682
1393.06	0.665094
1394.64	0.646343
1396.22	0.468712
1397.8	0.547823
1399.38	0.823505
1400.96	0.721149
1402.54	1.31078
1404.11	0.930286
1405.69	0.906895
1407.27	1.29993
1408.85	1.06177
1410.43	1.23938
1412	1.33787
1413.58	0.823437
1415.16	1.03806
1416.73	0.97504
1418.31	1.34506
1419.88	1.55757
1421.46	2.02754
1423.03	1.53519
1424.61	2.06919
1426.18	1.50304
1427.76	1.13461
1429.33	1.1988
1430.9	1.5765
1432.48	2.09001
1434.05	1.73606
1435.62	2.46325
1437.2	2.5415
1438.77	2.52263
1440.34	1.77827
1441.91	1.84136
1443.48	2.47553
1445.05	2.54044
1446.62	1.68185
1448.19	2.67116
1449.76	2.06872
1451.33	3.15785
1452.9	2.53729
1454.47	1.70074
1456.04	2.49684
1457.61	1.50144
1459.17	2.49158
1460.74	2.19972
1462.31	1.96394
1463.88	2.11895
1465.44	1.99683
1467.01	1.38313
1468.58	1.02587
1470.14	1.08242
1471.71	1.29762
1473.27	1.22018
1474.84	1.32051
1476.4	1.04897
1477.97	1.28739
1479.53	1.01601
1481.1	1.66572
1482.66	0.375044
1484.22	1.4554
1485.78	0.419109
1487.35	1.22313
1488.91	1.35893
1490.47	1.39384
1492.03	1.22966
1493.59	1.14042
1495.16	1.36061
1496.72	0.760105
1498.28	0.705618
1499.84	0.438293
1501.4	0.658575
1502.96	0.0850925
1504.52	0.540981
1506.08	0.377037
1507.64	0.405863
1509.19	0.587629
1510.75	0.130407
1512.31	0.598019
1513.87	0.601881
1515.42	0.644444
1516.98	0.169453
1518.54	0.578884
1520.1	-0.352512
1521.65	-0.745789
1523.21	0.0272827
1524.76	0.0337944
1526.32	-0.113775
1527.87	0.632622
1529.43	-0.0690498
1530.98	0.541359
1532.54	-0.17646
1534.09	-0.0957298
1535.64	-0.373007
1537.2	0.901054
1538.75	0.569202
1540.3	-0.0253754
1541.85	-0.0346546
1543.41	0.162992
1544.96	0.359953
1546.51	0.556179
1548.06	0.376505
1549.61	0.27212
1551.16	0.9172
1552.71	0.345884
1554.26	0.300358
1555.81	0.406393
1557.36	0.813625
1558.91	0.7757
1560.46	0.610172
1562.01	0.335239
1563.56	0.323191
1565.1	0.554602
1566.65	0.804918
1568.2	0.700357
1569.75	0.688522
1571.29	0.601446
1572.84	-0.195425
1574.38	0.780878
1575.93	0.207829
1577.48	-0.0289135
1579.02	1.34052
1580.57	0.88133
1582.11	0.572594
1583.65	0.582563
1585.2	0.556293
1586.74	0.568169
1588.29	-0.261406
1589.83	1.17217
1591.37	0.696898
1592.92	1.10066
1594.46	0.961033
1596	0.409191
1597.54	0.963394
1599.08	1.16278
1600.62	0.631847
1602.16	0.551546
1603.7	0.959396
1605.24	1.06607
1606.78	1.09561
1608.32	0.840271
1609.86	0.806999
1611.4	0.601156
1612.94	0.749342
1614.48	1.21444
1616.02	0.871752
1617.56	0.886309
1619.09	1.37098
1620.63	0.640247
1622.17	0.810759
1623.71	1.71263
1625.24	1.82816
1626.78	0.857012
1628.31	1.4747
1629.85	0.986414
1631.39	0.796051
1632.92	0.54925
1634.46	0.900518
1635.99	0.468994
1637.52	0.617384
1639.06	1.15814
1640.59	0.505842
1642.12	0.654234
1643.66	1.41535
1645.19	1.18749
1646.72	1.47921
1648.25	1.32403
1649.79	1.55958
1651.32	1.5551
1652.85	1.53403
1654.38	1.68162
1655.91	0.847807
1657.44	1.40413
1658.97	1.0884
1660.5	1.08572
1662.03	0.988356
1663.56	1.53639
1665.09	0.974424
1666.62	1.76112
1668.15	1.20205
1669.67	0.830254
1671.2	0.958544
1672.73	0.333231
1674.26	0.942793
1675.79	1.01784
1677.31	1.01804
1678.84	1.16378
1680.36	1.271
1681.89	1.19314
1683.42	0.472181
1684.94	1.07349
1686.47	0.427519
1687.99	1.02934
1689.51	0.550304
1691.04	0.0904713
1692.56	0.674355
1694.08	0.507635
1695.61	0.139738
1697.13	0.447933
1698.65	0.134388
1700.18	0.386345
1701.7	-0.0558376
1703.22	0.121407
1704.74	0.406813
1706.26	-0.127699
1707.78	0.156332
1709.3	0.312614
1710.82	0.486902
1712.35	0.29851
1713.86	0.436819
1715.39	-0.112907
1716.9	0.0255451
1718.42	-0.649703
1719.94	0.319332
1721.46	0.00597763
1722.98	0.252855
1724.5	-0.490043
1726.01	-0.203735
1727.53	1.12831
1729.05	0.0317059
1730.56	-0.0698681
1732.08	0.613499
1733.6	0.715752
1735.11	0.762726
1736.63	0.642282
1738.14	-0.232742
1739.66	-0.144762
1741.17	-0.053503
1742.69	0.0916138
1744.2	-0.168482
1745.71	0.405472
1747.23	-0.0434551
1748.74	-0.130672
1750.25	0.462475
1751.77	-0.251686
1753.28	-0.0776176
1754.79	0.264112
1756.3	0.179163
1757.81	0.315199
1759.33	0.069479
1760.84	-0.197123
1762.35	0.533758
1763.86	-0.0900116
1765.37	0.237909
1766.88	-0.198332
1768.39	0.105303
1769.9	0.417465
1771.41	0.19743
1772.91	0.373028
1774.42	0.0496788
1775.93	0.355505
1777.44	-0.0743523
1778.95	0.351896
1780.45	0.279793
1781.96	0.331841
1783.47	0.390263
1784.97	0.409588
1786.48	0.17251
1787.99	0.293253
1789.49	0.183533
1791	0.13542
1792.5	0.0676975
1794.01	0.156261
1795.51	0.39994
1797.01	0.0530624
1798.52	0.264359
1800.02	0.0656452
1801.52	0.24658
1803.03	0.120338
1804.53	-0.179243
1806.03	0.319893
1807.54	0.66374
1809.04	0.196775
1810.54	0.286631
1812.04	0.34687
1813.54	0.0236645
1815.04	-0.199032
1816.54	0.381245
1818.04	0.624813
1819.54	0.667625
1821.04	0.448288
1822.54	0.261641
1824.04	0.129393
1825.54	0.72497
1827.04	0.778294
1828.54	0.137552
1830.03	0.185484
1831.53	0.357466
1833.03	0.492729
1834.53	0.345987
1836.02	0.347717
1837.52	-0.0311203
1839.02	0.487631
1840.51	0.525873
1842.01	0.86904
1843.5	0.340734
1845	0.442001
1846.49	0.598288
1847.99	0.582649
1849.48	0.230146
1850.98	0.21789
1852.47	-0.070425
1853.96	-0.0489178
1855.46	0.297785
1856.95	0.0361176
1858.44	0.412806
1859.94	-0.0794277
1861.43	0.452372
1862.92	0.558828
1864.41	0.11178
1865.9	-0.05233
1867.39	0.345856
1868.88	0.474911
1870.37	0.119673
1871.86	0.602354
1873.35	0.354675
1874.84	0.134655
1876.33	0.0447617
1877.82	0.0643997
1879.31	0.0184193
1880.8	0.359596
1882.29	0.00649452
1882.58	-0.100136
1884.08	0.334705
1885.57	-0.0163708
1887.06	0.275726
1888.56	0.409979
1890.05	0.179148
1891.54	0.680822
1893.04	0.263767
1894.53	0.371786
1896.02	0.0131931
1897.51	0.108141
1899	0.0289288
1900.5	0.748062
1901.99	-0.0144958
1903.48	-0.449553
1904.97	0.816706
1906.46	0.725149
1907.95	0.112749
1909.44	0.248449
1910.93	0.333735
1912.42	0.108398
1913.91	0.421827
1915.4	0.336466
1916.88	0.302528
1918.37	0.302282
1919.86	0.682417
1921.35	-0.16759
1922.84	0.663326
1924.32	0.526052
1925.81	-0.128383
1927.3	0.604095
1928.78	0.974288
1930.27	0.0110826
1931.75	-0.0879068
1933.24	0.2953
1934.72	0.363504
1936.21	-0.384552
1937.69	-0.113731
1939.18	0.518796
1940.66	0.0978193
1942.15	0.610828
1943.63	0.435332
1945.11	0.589204
1946.6	0.65746
1948.08	0.604574
1949.56	0.446966
1951.04	0.631992
1952.53	0.178452
1954.01	0.446664
1955.49	1.00652
1956.97	0.518919
1958.45	0.427944
1959.93	-0.0217991
1961.41	-0.161509
1962.89	0.0591736
1964.37	-0.577302
1965.85	-0.563368
1967.33	0.133939
1968.81	-0.214098
1970.29	0.274797
1971.77	-0.0231428
1973.24	0.157153
1974.72	-0.0207758
1976.2	0.654061
1977.68	-0.204581
1979.15	0.367845
1980.63	-0.0300779
1982.11	0.643089
1983.58	0.499444
1985.06	-0.0180235
1986.53	0.261977
1988.01	-0.153282
1989.48	-0.482639
1990.96	-0.911854
1992.43	0.18324
1993.91	0.39999
1995.38	0.0942116
1996.86	-0.126114
1998.33	0.802001
1999.8	0.411851
2001.27	0.392131
2002.75	0.422125
2004.22	0.435016
2005.69	-0.427639
2007.16	0.867702
2008.64	0.463309
2010.11	0.128043
2011.58	-0.0546741
2013.05	0.0656776
2014.52	0.63957
2015.99	0.0845537
2017.46	0.335492
2018.93	0.584726
2020.4	0.563889
2021.87	0.576429
2023.34	0.136405
2024.8	0.100916
2026.27	0.453408
2027.74	0.171102
2029.21	-0.0749331
2030.68	0.385957
2032.14	-0.0573788
2033.61	-0.550533
2035.08	0.601669
2036.54	0.326005
2038.01	0.603727
2039.48	0.460671
2040.94	0.804978
2042.41	0.208566
2043.87	0.0673313
2045.34	-0.122872
2046.8	0.19317
2048.27	0.543754
2049.73	0.42213
2051.19	0.349097
2052.66	0.0707817
2054.12	0.632398
2055.58	0.516229
2057.05	0.363913
2058.51	0.496748
2059.97	0.595543
2061.43	0.139421
2062.9	0.526694
2064.36	0.478077
2065.82	-0.0230913
2067.28	-0.320808
2068.74	0.173502
2070.2	0.466472
2071.66	0.439743
2073.12	0.54744
2074.58	0.233683
2076.04	-0.0301991
2077.5	-0.0926619
2078.95	0.585118
2080.41	0.588438
2081.87	0.186668
2083.33	0.457139
2084.79	-0.0815907
2086.24	0.657161
2087.7	0.351735
2089.16	0.38196
2090.61	0.495772
2092.07	0.323933
2093.53	0.101763
2094.98	-0.0535583
2096.44	-0.226337
2097.89	-0.165573
2099.35	0.52997
2100.8	0.638631
2102.26	-0.0210695
2103.71	0.774389
2105.16	0.0859032
2106.62	0.785151
2108.07	0.468435
2109.53	0.0690565
2110.98	0.352349
2112.43	0.483104
2113.88	-0.105358
2115.33	0.319245
2116.79	0.50886
2118.24	0.898088
2119.69	0.343114
2121.14	0.389445
2122.59	0.42256
2124.04	1.05515
2125.49	0.246181
2126.94	0.481346
2128.39	0.432836
2129.84	0.713313
2131.29	0.974677
2132.74	1.11848
2134.19	0.76584
2135.63	0.448097
2137.08	-0.114714
2138.53	0.796699
2139.98	0.455327
2141.43	0.563011
2142.87	0.672796
2144.32	0.634871
2145.77	0.779175
2147.21	0.691236
2148.66	1.28116
2150.1	0.643907
2151.55	0.816545
2152.99	1.03717
2154.44	1.00781
2155.88	1.50778
2157.33	0.765449
2158.77	0.803012
2160.21	1.1908
2161.66	1.23388
2163.1	0.766299
2164.55	1.09714
2165.99	0.483509
2167.43	1.23117
2168.87	1.14664
2170.31	1.20853
2171.76	0.751009
2173.2	1.60425
2174.64	1.67314
2176.08	1.19221
2177.52	1.50994
2178.96	1.36346
2180.4	0.83634
2181.84	1.45795
2183.28	0.816875
2184.72	1.55657
2186.16	1.04895
2187.6	1.20673
2189.04	1.54772
2190.47	0.34071
2191.91	1.09733
2193.35	1.03694
2194.79	1.1906
2196.23	0.658533
2197.66	0.971894
2199.1	0.89949
2200.54	0.825396
2201.97	1.29905
2203.41	0.71146
2204.84	0.673675
2206.28	-0.074935
2207.71	0.867701
2209.15	0.633471
2210.58	0.662885
2212.02	0.54163
2213.45	0.584542
2214.89	0.726295
2216.32	0.687381
2217.75	0.551519
2219.19	0.813709
2220.62	0.203447
2222.05	0.0881453
2223.48	-0.127183
2224.92	0.840873
2226.35	0.323779
2227.78	0.873233
2229.21	0.12194
2230.64	0.240396
2232.07	0.440138
2233.5	0.13256
2234.93	0.660809
2236.36	0.765412
2237.79	0.0401087
2239.22	0.934241
2240.65	0.493707
2242.08	0.88828
2243.51	0.404243
2244.94	0.246947
2246.37	1.27915
2247.79	0.742607
2249.22	0.0394983
2250.65	0.327069
2252.08	0.399566
2253.5	0.551811
2254.93	0.460674
2256.36	0.599531
2257.78	0.969603
2259.21	0.663216
2260.63	-0.0111742
2262.06	0.811547
2263.48	-0.181204
2264.91	0.0603971
2266.33	0.675621
2267.76	0.248848
2269.18	0.259497
2270.6	1.03389
2272.03	0.326036
2273.45	0.513308
2274.87	-0.0648279
2276.3	0.61174
2277.72	0.571839
2279.14	0.972172
2280.56	0.997529
2281.98	0.451769
2283.41	0.0524111
2284.83	0.925807
2286.25	0.47785
2287.67	0.160904
2289.09	0.203842
2290.51	0.0677481
2291.93	0.111826
2293.35	0.17248
2294.77	0.707637
2296.19	0.310051
2297.61	0.255909
2299.02	0.447544
2300.44	-0.147059
2301.86	1.16043
2303.28	0.468137
2304.7	0.235002
2306.11	0.559865
2307.53	-0.0357552
2308.95	-0.0904055
2310.36	-0.63943
2311.78	0.471886
2313.2	0.0371361
2314.61	0.327054
2316.03	-0.550693
2317.44	0.466698
2318.86	0.44739
2320.27	0.510037
2321.69	0.686251
2323.1	0.281503
2324.51	0.285179
2325.93	0.763355
2327.34	1.04027
2328.76	1.15074
2330.17	0.43794
2331.58	0.731704
2332.99	0.0397635
2334.41	0.814055
2335.82	0.32171
2337.23	0.651052
2338.64	0.107091
2340.05	0.120274
2341.46	0.345273
2342.87	0.339355
2344.28	-0.207773
2345.69	0.655709
2347.1	0.486755
2348.51	0.236184
2349.92	0.296029
2351.33	0.387076
2352.74	-0.0300779
2354.15	0.0576897
2355.56	0.176689
2356.97	0.148335
2358.37	-0.254095
2359.78	0.693001
2361.19	0.680717
2362.6	0.425236
2364	0.251046
2365.41	0.416848
2366.82	0.29175
2368.22	-0.4778
2369.63	0.481773
2371.03	0.281611
2372.44	0.29347
2373.84	0.516377
2375.25	0.707535
2376.65	0.785177
2378.06	-0.200514
2379.46	-0.303856
2380.86	-0.104861
2382.27	0.379891
2383.67	-0.162984
2385.07	-0.0491161
2386.48	0.256879
2387.88	0.563794
2389.28	0.330127
2390.69	-0.123948
2392.09	0.0296068
2393.49	-0.197184
2394.89	-0.0565557
2396.29	0.689264
2397.69	0.513913
2399.09	0.180784
2400.49	0.690601
2401.89	0.0254135
2403.29	0.503914
2404.69	0.965677
2406.09	-0.0982599
2407.49	0.233235
2408.89	0.35689
2410.29	-0.217582
2411.69	1.015
2413.08	-0.26998
2414.48	0.379587
2415.88	0.20832
2417.28	-0.213954
2418.67	0.33109
2420.07	-0.0891666
2421.47	0.995027
2422.86	-0.107392
2424.26	0.27881
2425.65	0.173995
2427.05	-0.516373
2428.45	-0.412919
2429.84	0.294858
2431.23	0.46494
2432.63	-0.0472155
2434.02	0.503298
2435.42	-0.0598936
2436.81	0.104999
2438.2	0.330794
2439.6	0.157149
2440.99	-0.224422
2442.38	-0.0510597
2443.78	0.232755
2445.17	0.436716
2446.56	0.243858
2447.95	0.19355
2449.34	0.650136
2450.73	0.0300817
2452.13	0.867556
2453.52	-0.0504303
2454.91	0.583839
2456.3	0.190944
2457.69	0.241533
2459.08	0.181093
2460.47	-0.212469
2461.85	-0.180387
2463.24	-0.00742912
2464.63	-0.119984
2466.02	-0.169784
2467.41	0.127572
2468.8	-0.127673
2470.19	0.263543
2471.57	0.133398
2472.96	0.206976
2474.35	0.15317
2475.73	0.46008
2477.12	0.310073
2478.51	0.490011
2479.89	0.230593
2481.28	0.504967
2482.66	0.199089
2484.05	0.268548
2485.43	0.477056
2486.82	-0.535424
2488.2	-0.299164
2489.59	0.231351
2490.97	-0.173521
2492.35	0.0763836
2493.74	0.218894
2495.12	0.301414
2496.5	0.897472
2497.89	0.348019
2499.27	0.434351
2500.65	0.458059
2502.03	-0.493309
2503.42	-0.286673
2504.8	-0.0973845
2506.18	0.105851
2507.56	-0.21503
2508.94	0.295166
2510.32	0.067915
2511.7	0.041666
2513.08	0.0781345
2514.46	0.560202
2515.84	0.00234032
2517.22	-0.308739
2518.6	-0.404528
2519.98	0.157118
2521.36	0.0609655
2522.73	0.299553
2524.11	0.124523
2525.49	0.177111
2526.87	0.320538
2528.25	-0.509284
2529.62	0.488573
2531	-0.244453
2532.38	-0.351118
2533.75	0.213018
2535.13	0.398489
2536.5	0.112873
2537.88	-0.0371857
2539.25	0.646448
2540.63	0.417283
2542.01	0.415318
2543.38	0.140787
2544.75	0.186454
2546.13	-0.175259
2547.5	-0.0191574
2548.88	0.320478
2550.25	0.705827
2551.62	0.164644
2553	0.577901
2554.37	0.154668
2555.74	-0.254807
2557.11	-0.0431366
2558.49	0.183376
2559.86	0.546684
2561.23	-0.271399
2562.6	0.457611
2563.97	0.626848
2565.34	0.0542965
2566.71	0.239865
2568.08	-0.0442009
2569.45	-0.146412
2570.82	-0.203154
2572.19	0.194898
2573.56	0.27482
2574.93	0.142671
2576.3	0.419918
2577.67	0.227028
2579.03	0.079215
2580.4	0.279534
2581.77	0.0849028
2583.14	0.496118
2584.5	0.588491
2585.87	-0.137768
2587.24	0.394333
2588.6	0.0628166
2589.97	0.413488
2591.34	-0.0241032
2592.7	0.0224266
2594.07	-0.0233536
2595.43	-0.388864
2596.8	-0.513621
2598.16	0.177332
2599.53	-0.22166
2600.89	-0.332891
2602.26	0.327044
2603.62	0.112024
2604.98	0.184838
2606.35	-0.0286865
2607.71	0.134325
2609.07	1.06433
2610.44	0.31922
2611.8	0.0393887
2613.16	0.299337
2614.52	-0.0583858
2615.88	0.109361
2617.25	-0.187467
2618.61	-0.0483732
2619.97	0.136707
2621.33	-0.0510406
2622.69	-0.207728
2624.05	0.278247
2625.41	0.256129
2626.77	0.0248289
2628.13	0.0615072
2629.49	-0.125721
2630.85	-0.521287
2632.21	-0.0690622
2633.56	0.575459
2634.92	-0.0426483
2636.28	0.45242
2637.64	0.739232
2639	-0.262407
2640.35	-0.0490618
2641.71	-0.116467
2643.07	0.599657
2644.42	-0.33831
2645.78	0.155835
2647.14	0.058918
2648.49	0.255519
2649.85	0.0383177
2651.2	-0.0620136
2652.56	0.51288
2653.91	-0.203957
2655.27	0.0639057
2656.62	-0.120775
2657.98	-0.0836782
2659.33	0.32061
2660.68	0.44738
2662.04	0.573745
2663.39	0.494422
2664.74	-0.0387106
2666.1	-0.120224
2667.45	0.453368
2668.8	0.676431
2670.15	0.215833
2671.5	0.411131
2672.86	0.244051
2674.21	0.484885
2675.56	0.378151
2676.91	0.345081
2678.26	0.414739
2679.61	0.384368
2680.96	0.587843
2682.31	0.11203
2683.66	0.116722
2685.01	0.297137
2686.36	0.043149
2687.71	0.470836
2689.06	0.678886
2690.4	0.0709925
2691.75	-0.075428
2693.1	0.457548
2694.45	0.408367
2695.8	-0.293182
2697.14	0.296269
2698.49	0.0186996
2699.84	0.294369
2701.18	0.819267
2702.53	0.695247
2703.88	0.601986
2705.22	0.495058
2706.57	0.228574
2707.91	0.599881
2709.26	0.477212
2710.6	0.499024
2711.95	0.723775
2713.29	0.0620089
2714.64	0.0683918
2715.98	0.394561
2717.32	0.327977
2718.67	0.711911
2720.01	0.0622435
2721.35	0.0664759
2722.7	-0.0611029
2724.04	0.0288353
2725.38	0.773053
2726.72	0.541389
2728.06	0.294657
2729.4	0.440478
2730.75	0.280475
2732.09	0.542381
2733.43	0.295259
2734.77	0.324874
2736.11	0.0494118
2737.45	0.64685
2738.79	0.531578
2740.13	0.226839
2741.47	0.430244
2742.81	-0.0798473
2744.15	0.106706
2745.48	0.21946
2746.82	0.433049
2748.16	-0.123127
2749.5	-0.19995
2750.84	0.419791
2752.17	0.314638
2753.51	-0.195819
2754.85	0.612772
2756.19	0.494167
2757.52	0.477301
2758.86	0.229306
2760.19	0.488667
2761.53	0.0108061
2762.86	0.503346
2764.2	0.533368
2765.54	-0.232407
2766.87	0.404442
2768.2	0.345198
2769.54	0.341567
2770.87	0.393212
2772.21	-0.337368
2773.54	-0.318254
2774.88	0.363099
2776.21	0.294252
2777.54	-0.133592
2778.87	-0.344109
2780.21	0.00699425
2781.54	0.200207
2782.87	-0.20941
2784.2	-0.245695
2785.53	0.0333395
2786.87	0.111864
2788.2	0.0766792
2789.53	-0.100168
2790.86	-0.132305
2792.19	-0.148796
2793.52	-0.135916
2794.85	0.248603
2796.18	-0.0534697
2797.51	-0.0849066
2798.84	0.710856
2800.17	0.135147
2801.49	0.187164
2802.82	0.124743
2804.15	0.346938
2805.48	-0.0300455
2806.81	-0.00907993
2808.13	-0.0887671
2809.46	0.385232
2810.79	-0.13544
2812.12	0.551929
2813.44	0.219335
2814.77	-0.167117
2816.09	0.257047
2817.42	-0.266597
2818.75	-0.46325
2820.07	0.74328
2821.4	0.035614
2822.72	0.304739
2824.05	0.445201
2825.37	0.00428581
2826.7	0.186767
2828.02	-0.0546646
2829.35	0.412783
2830.67	0.79603
2831.99	0.585094
2833.31	0.303288
2834.64	0.742814
2835.96	1.43612
2837.28	0.798208
2838.61	1.29148
2839.93	1.04879
2841.25	1.41438
2842.57	1.35651
2843.89	1.52596
2845.21	1.86625
2846.53	2.49029
2847.85	1.75824
2849.17	1.6763
2850.49	1.81998
2851.81	2.23136
2853.13	2.58526
2854.45	2.50037
2855.77	2.42932
2857.09	2.42891
2858.41	2.44273
2859.73	2.99317
2861.05	2.15937
2862.36	2.79351
2863.68	2.93276
2865	3.04329
2866.32	3.11141
2867.64	3.19407
2868.95	3.10826
2870.27	3.54482
2871.59	4.0379
2872.9	3.23373
2874.22	3.68263
2875.53	3.34069
2876.85	4.17978
2878.16	4.22869
2879.48	3.53173
2880.79	3.8481
2882.11	4.69946
2883.42	3.96502
2884.74	4.35594
2886.05	4.31252
2887.36	3.97448
2888.68	3.77613
2889.99	3.81505
2891.3	4.28717
2892.62	4.18326
2893.93	4.05118
2895.24	4.29793
2896.55	4.08399
2897.86	4.06786
2899.18	5.01882
2900.49	4.68386
2901.8	4.39171
2903.11	4.36569
2904.42	4.59167
2905.73	4.87407
2907.04	4.62591
2908.35	4.9526
2909.66	5.74251
2910.97	5.24618
2912.28	5.67342
2913.59	5.31551
2914.9	6.31324
2916.21	5.85203
2917.51	5.73827
2918.82	5.94476
2920.13	5.95509
2921.44	6.3301
2922.74	6.28763
2924.05	6.72274
2925.36	6.95004
2926.67	6.36759
2927.97	7.12717
2929.28	6.06873
2930.59	6.61707
2931.89	6.70328
2933.2	6.831
2934.5	6.97264
2935.81	6.9188
2937.11	6.73946
2938.42	6.46263
2939.72	6.70328
2941.02	6.20418
2942.33	6.40517
2943.63	5.99321
2944.94	5.58326
2946.24	5.77629
2947.54	5.71856
2948.85	4.48458
2950.15	4.64809
2951.45	4.38879
2952.75	4.82666
2954.05	4.28223
2955.36	4.82927
2956.66	4.42586
2957.96	4.03969
2959.26	3.9096
2960.56	3.7136
2961.86	4.20738
2963.16	3.79105
2964.46	3.90668
2965.76	2.89636
2967.06	3.35825
2968.36	3.38264
2969.66	3.16681
2970.96	3.69618
2972.26	2.76309
2973.56	3.08247
2974.85	2.81075
2976.15	3.11515
2977.45	2.93881
2978.75	2.50631
2980.05	2.92988
2981.34	2.88673
2982.64	2.68802
2983.94	2.74308
2985.23	2.05499
2986.53	2.46565
2987.83	2.0776
2989.12	2.3094
2990.42	1.72646
2991.71	2.1124
2993.01	2.07495
2994.3	1.75438
2995.6	1.96583
2996.89	2.16184
2998.19	1.99244
2999.48	1.48693
3000.77	1.51549
3002.07	1.1525
3003.36	0.95852
3004.65	1.14299
3005.95	0.52863
3007.24	1.10351
3008.53	1.08878
3009.82	0.387412
3011.12	0.565958
3012.41	0.645781
3013.7	0.558036
3014.99	0.331693
3016.28	0.566469
3017.57	0.579388
3018.86	0.328722
3020.15	0.342607
3021.44	-0.339253
3022.73	0.089447
3024.02	0.0717669
3025.31	0.385556
3026.6	-0.340377
3027.89	0.111934
3029.18	0.288761
3030.47	0.246738
3031.76	-0.33141
3033.04	0.597268
3034.33	0.0767183
3035.62	0.314264
3036.91	0.356267
3038.19	-0.00437832
3039.48	0.100333
3040.77	0.408293
3042.05	0.00017643
3043.34	0.360552
3044.63	-0.0177107
3045.91	0.0861597
3047.2	0.207091
3048.48	0.181564
3049.77	0.336994
3051.05	0.399416
3052.34	0.435845
3053.62	0.36303
3054.91	0.0980511
3056.19	0.0086832
3057.48	0.503668
3058.76	0.274668
3060.04	0.0862865
3061.33	0.551867
3062.61	0.73294
3063.89	0.725863
3065.17	0.136827
3066.46	0.175506
3067.74	0.106978
3069.02	0.134185
3070.3	0.24245
3071.59	0.389993
3072.87	-0.0765934
3074.15	0.542403
3075.43	0.357578
3076.71	0.213056
3077.99	0.462947
3079.27	0.266682
3080.55	0.113706
3081.83	0.0446987
3083.11	0.24901
3084.39	0.549442
3085.67	0.130677
3086.94	0.362432
3088.22	0.226412
3089.5	0.116287
3090.78	0.113873
3092.06	0.233231
3093.34	-0.447533
3094.61	0.22846
3095.89	-0.464825
3097.17	-0.208907
3098.44	0.0467043
3099.72	0.0444183
3101	0.353444
3102.27	0.553967
3103.55	-0.206464
3104.82	0.0223312
3106.1	0.414593
3107.38	0.158715
3108.65	0.702985
3109.93	0.437016
3111.2	0.294355
3112.47	0.125732
3113.75	0.784195
3115.02	0.344938
3116.3	0.406164
3117.57	0.303027
3118.84	0.550515
3120.12	0.497537
3121.39	0.280138
3122.66	0.671597
3123.93	0.439166
3125.2	0.423775
3126.48	0.51732
3127.75	0.719878
3129.02	0.192731
3130.29	0.558752
3131.56	0.397457
3132.83	0.0196619
3134.1	0.451747
3135.37	0.369419
3136.64	0.785208
3137.91	0.269173
3139.18	0.493985
3140.45	0.70453
3141.72	1.02225
3142.99	0.735182
3144.26	0.315044
3145.53	1.23792
3146.8	0.645728
3148.07	0.189301
3149.33	0.564376
