200.419	-0.0641174
202.234	-0.0323629
204.048	0.000790596
205.862	1.20229
207.678	-0.611671
209.491	-0.310785
211.304	-0.25462
213.116	1.03756
214.928	0.482927
216.742	0.194747
218.554	0.076313
220.365	0.103774
222.176	0.591697
223.986	-0.539845
225.798	0.36016
227.608	0.244672
229.417	-0.330176
231.226	-0.374418
233.035	0.256238
234.843	-0.126234
236.653	0.16784
238.46	0.656907
240.268	0.690959
242.074	0.800074
243.881	0.91085
245.687	0.997374
247.493	0.405806
249.298	0.414096
251.103	0.297574
252.908	1.19113
254.715	0.634042
256.519	0.414278
258.322	0.53292
260.126	0.894291
261.929	0.655605
263.731	0.105721
265.534	0.544774
267.336	0.40589
269.137	0.194096
270.938	0.511474
272.739	0.65854
274.54	0.803662
276.34	0.609038
278.14	0.219249
279.939	0.694219
281.739	1.31028
283.537	2.40374
285.336	1.57097
287.134	2.44272
288.932	3.4564
290.729	3.46302
292.526	4.45289
294.323	6.04179
296.117	9.42462
297.913	9.38917
299.709	9.18761
301.504	6.59736
303.299	6.18005
305.093	3.70853
306.888	2.02507
308.682	1.41574
310.475	1.61774
312.268	1.89254
314.059	2.16936
315.852	1.09142
317.644	1.08732
319.436	0.846943
321.227	0.846162
323.018	0.846334
324.807	1.20491
326.597	1.32527
328.387	0.561421
330.177	1.82773
331.967	1.10856
333.753	1.51097
335.542	1.57565
337.331	1.18249
339.119	1.55211
340.906	1.03444
342.691	0.707234
344.478	1.14474
346.265	1.15254
348.051	0.970181
349.835	0.64528
351.621	1.17977
353.406	1.30758
355.189	1.24303
356.973	1.10519
358.757	0.655867
360.541	0.967586
362.323	1.0872
364.106	0.682446
365.889	0.704996
367.669	1.05873
369.451	0.699219
371.233	-0.0870895
373.012	0.641618
374.793	0.919086
376.574	0.511364
378.353	0.906882
380.133	0.525328
381.91	0.828505
383.69	1.48567
385.469	0.545226
387.245	0.688159
389.024	0.667982
390.8	0.155847
392.577	0.701663
394.353	0.590642
396.129	0.714946
397.906	0.628011
399.68	0.893134
401.456	0.66446
403.23	1.16306
405.005	0.932549
406.778	0.560184
408.552	1.05583
410.325	0.87008
412.099	0.919116
413.87	0.640158
415.643	0.104059
417.414	0.789111
419.187	0.395631
420.957	0.495265
422.728	0.35989
424.498	0.810512
426.269	0.978263
428.038	0.299785
429.806	0.677048
431.576	0.749072
433.344	-0.211166
435.114	0.70661
436.881	0.31008
438.649	0.00658417
440.416	0.710363
442.182	0.238343
443.949	0.162536
445.715	-0.407467
447.48	-0.369521
449.247	-0.121804
451.011	0.195658
452.777	-0.117318
454.541	0.666808
456.304	0.494089
458.069	0.391315
459.832	0.172424
461.594	0.233741
463.358	0.0877476
465.119	0.944004
466.881	0.014739
468.642	0.320485
470.404	0.210398
472.165	0.240664
473.925	0.0838232
475.684	0.530231
477.445	0.0422649
479.204	0.204127
480.963	0.620885
482.721	0.641805
484.481	0.780717
486.239	0.665989
487.996	0.344289
489.753	0.2115
491.511	1.01365
493.268	0.462997
495.023	0.309227
496.779	-0.0555706
498.534	0.187805
500.289	0.524885
502.046	0.415821
503.8	0.446392
505.554	1.15716
507.307	0.408957
509.06	0.716728
510.813	0.740231
512.566	0.361635
514.32	0.287
516.072	0.187128
517.823	0.203375
519.574	1.29968
521.325	0.749253
523.076	0.480556
524.826	1.00991
526.576	0.342288
528.325	0.378832
530.074	0.649584
531.823	1.22404
533.572	1.32861
535.32	0.682982
537.068	0.620795
538.815	0.860393
540.562	0.514886
542.309	0.984374
544.056	1.40569
545.802	0.455014
547.547	0.620895
549.293	0.647655
551.038	0.304186
552.783	0.470626
554.527	0.821852
556.271	-0.235316
558.015	0.255192
559.759	0.123384
561.502	0.0616236
563.245	0.0927572
564.987	0.0786648
566.729	0.432987
568.471	0.443612
570.213	0.157346
571.954	0.194275
573.693	-0.041894
575.433	0.274828
577.173	0.387384
578.913	0.295232
580.652	0.135181
582.392	0.136041
584.13	0.458138
585.867	-0.554677
587.605	0.477742
589.343	-0.285562
591.08	0.146274
592.817	0.0712881
594.552	-0.325954
596.289	-0.354997
598.025	0.191144
599.761	0.161706
601.496	0.476309
603.229	0.0992537
604.964	-0.256435
606.699	0.167809
608.433	-0.144306
610.165	0.0257568
611.898	-0.0560789
613.631	-0.0680046
615.364	-0.0331573
617.095	0.139433
618.827	-0.307054
620.559	0.618982
622.288	0.329936
624.02	-0.371342
625.75	0.0705519
627.479	0.513255
629.209	0.182222
630.939	0.356473
632.667	-0.0141687
634.396	0.27844
636.125	0.456699
637.851	0.176275
639.58	0.736869
641.305	0.107007
643.033	0.523158
644.76	-0.0649147
646.485	0.167393
648.212	0.0380201
649.936	0.594508
651.662	0.951435
653.388	0.131914
655.111	0.0437994
656.836	-0.451272
658.558	0.0340624
660.283	0.451541
662.005	0.0456686
663.728	-0.0894766
665.45	0.0922728
667.173	0.271688
668.893	0.335817
670.616	0.194942
672.336	0.491347
674.057	0.264625
675.777	0.177931
677.498	0.414004
679.216	0.444139
680.937	-0.124578
682.655	0.683928
684.375	-0.166687
686.092	0.660436
687.809	0.150067
689.528	0.260096
691.244	0.991172
692.962	0.707907
694.678	0.0321836
696.393	0.207473
698.111	0.565333
699.825	0.599173
701.54	0.53948
703.256	0.731431
704.97	0.738484
706.685	0.538282
708.398	0.819458
710.111	1.03096
711.826	0.531927
713.538	1.22281
715.25	1.45516
716.961	0.796595
718.675	1.59928
720.386	1.76269
722.096	1.88054
723.808	2.24855
725.518	1.11544
727.228	2.39155
728.937	1.46362
730.648	0.876872
732.357	0.60789
734.065	0.542836
735.773	0.432797
737.483	0.165371
739.19	0.576142
740.897	0.423937
742.604	0.904255
744.31	0.28262
746.018	0.473539
747.724	0.936109
749.429	-0.0393047
751.134	0.876432
752.839	1.18659
754.544	0.598787
756.248	0.597729
757.953	0.688738
759.657	0.714153
761.36	1.2371
763.063	0.249873
764.765	0.999531
766.468	1.0936
768.169	0.665524
769.871	0.799699
771.572	0.976572
773.273	0.654139
774.976	1.0999
776.676	1.36543
778.376	1.02215
780.075	1.24617
781.775	0.793109
783.474	1.01896
785.172	0.926682
786.871	1.21632
788.569	1.25292
790.266	1.24003
791.964	1.06542
793.661	1.38578
795.358	0.712576
797.054	1.19117
798.75	1.71616
800.446	1.50012
802.141	1.33123
803.834	0.601206
805.529	1.17547
807.224	1.70328
808.918	1.15109
810.612	1.18159
812.305	0.784793
813.998	1.79947
815.691	1.89429
817.384	0.7363
819.076	1.50238
820.766	1.82083
822.458	1.00131
824.149	2.03467
825.84	1.84298
827.531	1.05293
829.221	2.3602
830.909	1.13256
832.599	0.955175
834.288	1.15931
835.977	1.09737
837.666	1.48154
839.353	1.15014
841.041	1.06217
842.729	1.84379
844.416	0.882061
846.103	1.12771
847.788	1.21921
849.475	1.53767
851.161	1.63597
852.845	1.4008
854.53	1.95179
856.216	1.82992
857.901	1.63891
859.583	1.71539
861.268	1.90216
862.952	2.6276
864.633	1.95459
866.317	1.75326
868	0.987224
869.681	1.21263
871.363	1.16701
873.045	1.00833
874.725	1.18796
876.406	0.622951
878.088	1.07347
879.767	0.846809
881.447	1.2066
883.125	1.20432
884.805	1.65211
886.483	1.51113
888.162	1.48094
889.841	0.614299
891.518	1.79761
893.196	0.567832
894.872	0.508608
896.55	1.43726
898.225	0.521307
899.902	0.548271
901.577	0.417353
903.254	1.11398
904.928	0.601803
906.604	0.961686
908.277	1.27693
909.952	0.701813
911.625	0.529537
913.3	1.04745
914.972	1.07639
916.646	1.26063
918.318	0.336345
919.991	0.653851
921.662	0.661783
923.333	1.0469
925.005	0.152311
926.675	0.916965
928.347	0.380928
930.017	0.883916
931.686	1.4538
933.357	0.589989
935.025	0.675105
936.693	0.804848
938.363	0.825389
940.031	0.91365
941.698	0.915268
943.367	1.09439
945.034	0.721666
946.7	1.16414
948.368	0.677208
950.034	1.09279
951.699	0.646097
953.367	0.574644
955.031	0.571293
956.696	0.637533
958.36	0.332884
960.026	-0.255482
961.689	-0.312607
963.353	0.337444
965.016	0.190085
966.68	1.01281
968.343	0.637395
970.005	0.591134
971.666	-0.363136
973.328	0.408408
974.991	0.739281
976.652	0.475366
978.312	-0.118564
979.972	-0.247278
981.632	-0.376496
983.292	0.555283
984.953	1.04198
986.612	0.640542
988.27	0.591013
989.929	0.27455
991.587	0.266993
993.244	0.0383415
994.902	-0.0354195
996.559	-0.0868845
998.216	0.302667
999.872	0.735554
1001.53	0.881107
1003.19	0.563773
1004.84	0.246459
1006.5	-0.0705614
1008.15	0.227879
1009.81	0.592129
1011.46	0.0353909
1013.11	-0.103669
1014.77	-0.439209
1016.42	0.67095
1018.07	0.402123
1019.73	0.156426
1021.38	0.17457
1023.03	0.106647
1024.68	0.804856
1026.34	0.629574
1027.99	-0.0481644
1029.64	0.518751
1031.29	0.494212
1032.94	0.576807
1034.59	0.875368
1036.24	1.14992
1037.89	0.68224
1039.53	0.998788
1041.18	0.945911
1042.83	1.0687
1044.48	1.32401
1046.13	0.93012
1047.77	1.19041
1049.42	0.779633
1051.07	0.739692
1052.71	0.461832
1054.36	1.20563
1056	1.05865
1057.65	0.628624
1059.3	0.828346
1060.94	0.766341
1062.59	0.703315
1064.23	1.16092
1065.87	0.464836
1067.52	0.702196
1069.16	0.872949
1070.8	1.19471
1072.44	0.843058
1074.09	1.44701
1075.73	1.42287
1077.37	0.988486
1079.01	1.57506
1080.65	1.42536
1082.29	1.666
1083.93	1.84037
1085.57	3.13961
1087.21	2.78818
1088.85	4.53439
1090.49	5.99391
1092.13	9.39428
1093.77	14.9251
1095.41	21.5893
1097.04	22.4021
1098.68	17.5958
1100.32	10.4975
1101.95	6.40169
1103.59	2.61306
1105.23	2.07588
1106.86	1.86227
1108.5	1.54078
1110.13	0.981418
1111.77	1.08657
1113.4	0.802788
1115.04	1.05435
1116.67	1.7338
1118.31	0.59019
1119.94	0.79868
1121.57	0.25877
1123.2	1.21893
1124.84	1.17407
1126.47	1.28013
1128.1	0.852572
1129.73	0.768193
1131.36	0.684583
1132.99	0.900661
1134.62	2.22806
1136.25	1.92994
1137.88	1.67319
1139.51	0.923639
1141.14	0.792478
1142.77	0.191282
1144.4	0.081378
1146.03	0.548006
1147.66	0.610571
1149.28	0.248119
1150.91	0.227277
1152.54	0.824015
1154.16	1.0155
1155.79	0.844508
1157.42	0.247914
1159.04	0.0136995
1160.67	0.142136
1162.29	0.37822
1163.92	0.232837
1165.54	0.321987
1167.17	-0.354589
1168.79	-0.0544214
1170.41	0.328583
1172.04	0.368921
1173.66	-0.336165
1175.28	0.570559
1176.9	-0.559914
1178.53	-0.396292
1180.15	-0.232096
1181.77	0.631033
1183.39	0.0140667
1185.01	0.412098
1186.63	0.111635
1188.25	0.65354
1189.87	0.454179
1191.49	0.421198
1193.11	0.239163
1194.73	0.51844
1196.35	0.77594
1197.96	0.657039
1199.58	0.226946
1201.2	0.343943
1202.82	0.986103
1204.43	0.817036
1206.05	0.0875521
1207.66	0.131915
1209.28	-0.261416
1210.9	0.345511
1212.51	0.824897
1214.13	1.11342
1215.74	0.586514
1217.36	0.37018
1218.97	1.19197
1220.58	1.09845
1222.2	0.715643
1223.81	0.37657
1225.42	1.01307
1227.04	1.27824
1228.65	1.4209
1230.26	0.924184
1231.87	1.52487
1233.48	1.15555
1235.1	0.725904
1236.71	0.793827
1238.32	0.490954
1239.93	0.788472
1241.53	1.06569
1243.14	0.804725
1244.75	2.05317
1246.36	1.04493
1247.97	1.33895
1249.58	1.03188
1251.19	0.910643
1252.8	1.18269
1254.4	0.835084
1256.01	1.68853
1257.62	1.03359
1259.22	0.81443
1260.83	1.05165
1262.43	0.999763
1264.04	1.73505
1265.64	1.28913
1267.25	1.1529
1268.85	1.05685
1270.46	1.10457
1272.06	1.17165
1273.66	1.73493
1275.27	1.44685
1276.87	1.34416
1278.48	1.34401
1280.08	1.19808
1281.68	1.4451
1283.28	1.75407
1284.88	1.62921
1286.48	2.2705
1288.08	1.54877
1289.68	2.33707
1291.28	1.57615
1292.88	2.26156
1294.48	2.30538
1296.08	1.99633
1297.68	2.18074
1299.28	1.393
1300.88	1.71756
1302.48	2.18412
1304.07	1.68129
1305.67	1.63072
1307.27	1.96978
1308.87	2.04098
1310.46	2.25546
1312.06	1.93771
1313.65	2.05107
1315.25	2.02252
1316.85	2.05654
1318.44	2.1321
1320.03	2.10544
1321.63	1.67024
1323.22	2.00707
1324.82	1.62941
1326.41	2.40791
1328	1.90631
1329.6	1.56869
1331.19	2.54851
1332.78	2.03415
1334.37	2.45248
1335.96	2.30752
1337.56	1.88117
1339.15	2.36149
1340.74	1.59011
1342.33	2.28619
1343.92	2.51578
1345.51	2.78338
1347.1	2.50898
1348.69	2.45787
1350.28	2.81054
1351.86	2.20629
1353.45	1.84542
1355.04	2.26609
1356.63	1.78788
1358.21	2.18831
1359.8	2.28764
1361.39	2.02611
1362.97	1.80357
1364.56	1.72032
1366.15	2.19534
1367.73	1.97393
1369.32	2.19228
1370.9	2.15371
1372.49	2.17676
1374.07	1.48504
1375.65	1.84882
1377.24	2.33217
1378.82	1.54131
1380.41	1.68435
1381.99	1.46753
1383.57	1.32862
1385.15	2.24197
1386.73	1.42534
1388.32	1.18554
1389.9	1.74076
1391.48	2.23724
1393.06	1.56409
1394.64	1.58596
1396.22	1.76621
1397.8	1.43002
1399.38	1.78625
1400.96	2.25969
1402.54	1.2076
1404.11	1.56122
1405.69	1.55921
1407.27	1.69667
1408.85	1.49929
1410.43	1.61875
1412	2.01455
1413.58	1.65918
1415.16	2.4078
1416.73	2.76006
1418.31	1.7908
1419.88	2.06403
1421.46	1.84616
1423.03	1.41402
1424.61	1.90928
1426.18	2.38651
1427.76	3.15978
1429.33	2.12186
1430.9	2.97221
1432.48	2.91548
1434.05	3.01472
1435.62	3.44756
1437.2	2.91701
1438.77	2.97745
1440.34	3.78614
1441.91	4.45855
1443.48	3.38292
1445.05	3.64427
1446.62	3.74867
1448.19	3.83363
1449.76	3.50619
1451.33	3.72987
1452.9	3.95441
1454.47	2.96002
1456.04	4.01139
1457.61	2.40554
1459.17	3.33637
1460.74	3.06427
1462.31	3.91094
1463.88	2.80766
1465.44	3.07968
1467.01	2.87938
1468.58	2.07115
1470.14	2.85446
1471.71	2.46169
1473.27	3.14935
1474.84	2.60246
1476.4	2.58573
1477.97	2.13785
1479.53	2.18004
1481.1	2.79045
1482.66	2.12678
1484.22	2.81507
1485.78	2.64066
1487.35	2.83735
1488.91	2.26848
1490.47	2.14759
1492.03	2.84497
1493.59	2.01441
1495.16	2.39268
1496.72	2.39821
1498.28	2.05309
1499.84	1.74843
1501.4	1.91186
1502.96	1.26203
1504.52	1.19591
1506.08	2.29175
1507.64	1.08331
1509.19	2.05899
1510.75	0.638134
1512.31	1.3395
1513.87	0.922207
1515.42	1.60184
1516.98	0.130347
1518.54	1.13701
1520.1	1.56756
1521.65	0.390145
1523.21	1.1836
1524.76	1.47786
1526.32	1.78908
1527.87	0.517762
1529.43	0.789398
1530.98	1.09819
1532.54	0.762072
1534.09	0.730938
1535.64	0.757948
1537.2	1.14508
1538.75	1.32471
1540.3	0.693644
1541.85	0.120435
1543.41	1.14794
1544.96	0.706634
1546.51	0.566437
1548.06	0.782815
1549.61	1.24236
1551.16	1.1207
1552.71	1.1496
1554.26	1.46
1555.81	0.520374
1557.36	0.610776
1558.91	1.89768
1560.46	0.705286
1562.01	0.839661
1563.56	1.40456
1565.1	1.39192
1566.65	1.65934
1568.2	1.32929
1569.75	0.886666
1571.29	1.05949
1572.84	1.45595
1574.38	2.18824
1575.93	1.57651
1577.48	2.02909
1579.02	1.82883
1580.57	1.29324
1582.11	1.0386
1583.65	0.840936
1585.2	1.5411
1586.74	1.6068
1588.29	1.67274
1589.83	1.28938
1591.37	1.29825
1592.92	1.40015
1594.46	1.85758
1596	2.22164
1597.54	1.91176
1599.08	1.15253
1600.62	1.83793
1602.16	2.09296
1603.7	1.50322
1605.24	2.11441
1606.78	1.07047
1608.32	1.90319
1609.86	1.75562
1611.4	2.20628
1612.94	1.50832
1614.48	1.5789
1616.02	1.14238
1617.56	1.88785
1619.09	1.37877
1620.63	1.35897
1622.17	1.11625
1623.71	1.6797
1625.24	0.745562
1626.78	1.17701
1628.31	1.5879
1629.85	1.62265
1631.39	1.20742
1632.92	0.99759
1634.46	0.265674
1635.99	1.17736
1637.52	0.597357
1639.06	1.60326
1640.59	1.17348
1642.12	0.650119
1643.66	1.2245
1645.19	1.33149
1646.72	2.36694
1648.25	1.35644
1649.79	1.53624
1651.32	1.67992
1652.85	2.15891
1654.38	1.99007
1655.91	1.61833
1657.44	2.32143
1658.97	1.76355
1660.5	1.94496
1662.03	1.92075
1663.56	1.15562
1665.09	1.46222
1666.62	1.2889
1668.15	0.80365
1669.67	1.29772
1671.2	1.57211
1672.73	1.16622
1674.26	1.05579
1675.79	1.29494
1677.31	1.47775
1678.84	1.01516
1680.36	1.01135
1681.89	1.55779
1683.42	1.35023
1684.94	0.959503
1686.47	1.15654
1687.99	0.510803
1689.51	0.745553
1691.04	0.742349
1692.56	0.922247
1694.08	0.662895
1695.61	0.239052
1697.13	1.44155
1698.65	0.359573
1700.18	0.555865
1701.7	0.0217361
1703.22	0.781606
1704.74	0.756563
1706.26	0.385276
1707.78	0.70505
1709.3	0.624564
1710.82	0.653193
1712.35	0.246797
1713.86	0.710932
1715.39	0.758008
1716.9	0.587876
1718.42	0.0383196
1719.94	0.717505
1721.46	0.0606022
1722.98	0.198682
1724.5	0.662079
1726.01	0.0281267
1727.53	0.31439
1729.05	0.313765
1730.56	0.062664
1732.08	0.0815153
1733.6	-0.0419092
1735.11	0.422289
1736.63	0.334219
1738.14	0.454184
1739.66	0.524218
1741.17	-0.529828
1742.69	0.151756
1744.2	0.546649
1745.71	0.329073
1747.23	0.293755
1748.74	0.254144
1750.25	0.306777
1751.77	0.288128
1753.28	0.504322
1754.79	0.80748
1756.3	0.155455
1757.81	0.55954
1759.33	0.571147
1760.84	0.409333
1762.35	0.194008
1763.86	0.17375
1765.37	0.316803
1766.88	0.38189
1768.39	-0.276635
1769.9	0.440385
1771.41	0.06954
1772.91	0.0733891
1774.42	0.103097
1775.93	-0.0349703
1777.44	0.125034
1778.95	0.284904
1780.45	0.106483
1781.96	-0.264152
1783.47	0.0749874
1784.97	-0.122207
1786.48	0.183933
1787.99	0.184373
1789.49	0.0224285
1791	0.159344
1792.5	0.138325
1794.01	0.31482
1795.51	-0.242135
1797.01	0.0785027
1798.52	-0.22727
1800.02	0.264219
1801.52	-0.0229588
1803.03	-0.175724
1804.53	-0.0696735
1806.03	0.42026
1807.54	0.205504
1809.04	-0.138152
1810.54	0.206213
1812.04	0.22049
1813.54	0.0623503
1815.04	-0.107879
1816.54	0.0953331
1818.04	-0.167415
1819.54	0.316371
1821.04	0.0724611
1822.54	0.233178
1824.04	-0.0756359
1825.54	0.348175
1827.04	-0.120094
1828.54	0.274977
1830.03	0.194095
1831.53	0.494001
1833.03	0.142931
1834.53	0.0928593
1836.02	0.203374
1837.52	0.0478086
1839.02	0.122921
1840.51	0.268406
1842.01	0.329401
1843.5	0.319734
1845	0.0846729
1846.49	-0.270731
1847.99	-0.0264368
1849.48	0.180832
1850.98	-0.0195913
1852.47	-0.0121574
1853.96	-0.120942
1855.46	0.190549
1856.95	0.199084
1858.44	-0.132519
1859.94	-0.0277948
1861.43	0.0276194
1862.92	-0.0692883
1864.41	-0.186086
1865.9	0.049058
1867.39	0.0792103
1868.88	-0.401552
1870.37	-0.196574
1871.86	0.338024
1873.35	0.539034
1874.84	0.48192
1876.33	0.216166
1877.82	0.427962
1879.31	-0.111365
1880.8	-0.20618
1882.29	0.107521
1882.58	0.187687
1884.08	0.150927
1885.57	-0.026228
1887.06	0.387849
1888.56	0.313462
1890.05	0.448222
1891.54	0.271164
1893.04	0.0267906
1894.53	0.271623
1896.02	0.240263
1897.51	0.366468
1899	-0.185875
1900.5	-0.113389
1901.99	-0.32128
1903.48	-0.235643
1904.97	0.300112
1906.46	-0.10383
1907.95	0.152514
1909.44	0.0796318
1910.93	0.476496
1912.42	-0.131795
1913.91	-0.201477
1915.4	0.0931129
1916.88	0.231123
1918.37	-0.134254
1919.86	-0.0494757
1921.35	0.364245
1922.84	0.154915
1924.32	0.396961
1925.81	0.155736
1927.3	0.383318
1928.78	0.16159
1930.27	0.0609474
1931.75	0.218991
1933.24	0.236607
1934.72	0.736578
1936.21	0.230454
1937.69	0.449556
1939.18	0.598687
1940.66	-0.236153
1942.15	0.397953
1943.63	-0.226409
1945.11	0.271638
1946.6	0.338862
1948.08	0.00935745
1949.56	0.0925655
1951.04	-0.0838432
1952.53	-0.0547295
1954.01	0.0768127
1955.49	0.00189972
1956.97	0.168012
1958.45	-0.0599098
1959.93	0.0907269
1961.41	0.36195
1962.89	-0.120959
1964.37	0.167251
1965.85	0.0778103
1967.33	-0.252028
1968.81	-0.00074482
1970.29	-0.0923815
1971.77	0.0207434
1973.24	-0.0199652
1974.72	0.22946
1976.2	-0.441571
1977.68	0.114829
1979.15	0.0238237
1980.63	0.222062
1982.11	0.317826
1983.58	0.158277
1985.06	-0.306989
1986.53	0.194861
1988.01	-0.0327797
1989.48	-0.310452
1990.96	-0.0961323
1992.43	-0.168389
1993.91	-0.0871639
1995.38	-0.123268
1996.86	0.145276
1998.33	0.109596
1999.8	-0.179852
2001.27	0.373891
2002.75	0.369897
2004.22	0.214032
2005.69	-0.0423222
2007.16	-0.0280056
2008.64	0.475827
2010.11	0.0209522
2011.58	0.223381
2013.05	-0.0118065
2014.52	0.122745
2015.99	0.0207024
2017.46	0.27074
2018.93	0.435464
2020.4	-0.139959
2021.87	0.343017
2023.34	0.104202
2024.8	0.235762
2026.27	0.117174
2027.74	-0.234322
2029.21	0.321801
2030.68	-0.193888
2032.14	0.264684
2033.61	-0.182361
2035.08	0.0251818
2036.54	0.0643787
2038.01	0.102927
2039.48	-0.39683
2040.94	-0.157188
2042.41	0.200757
2043.87	0.156212
2045.34	0.281072
2046.8	-0.0812197
2048.27	0.567192
2049.73	0.322552
2051.19	-0.142835
2052.66	0.148445
2054.12	-0.22026
2055.58	0.0497074
2057.05	-0.0193071
2058.51	0.112956
2059.97	0.278631
2061.43	-0.279269
2062.9	0.27515
2064.36	0.191096
2065.82	-0.0262947
2067.28	0.00981903
2068.74	0.248639
2070.2	0.386906
2071.66	0.525287
2073.12	0.613002
2074.58	0.24572
2076.04	0.248443
2077.5	-0.0692673
2078.95	-0.134873
2080.41	-0.11685
2081.87	0.422395
2083.33	0.0347958
2084.79	0.134463
2086.24	-0.0864601
2087.7	-0.0221329
2089.16	0.327316
2090.61	-0.365247
2092.07	0.101194
2093.53	0.214663
2094.98	0.595986
2096.44	0.138235
2097.89	-0.0350475
2099.35	0.109128
2100.8	0.0687637
2102.26	0.530048
2103.71	0.45743
2105.16	0.102847
2106.62	0.617828
2108.07	0.116435
2109.53	0.0492182
2110.98	0.414744
2112.43	-0.0714769
2113.88	0.140108
2115.33	0.166397
2116.79	0.690267
2118.24	0.881495
2119.69	-0.253596
2121.14	0.887771
2122.59	0.538165
2124.04	0.704604
2125.49	0.407539
2126.94	0.491488
2128.39	0.491229
2129.84	0.621773
2131.29	0.402752
2132.74	0.10023
2134.19	0.244702
2135.63	0.489235
2137.08	0.470981
2138.53	0.669915
2139.98	0.441541
2141.43	0.545754
2142.87	0.701108
2144.32	0.493429
2145.77	0.633286
2147.21	0.408607
2148.66	0.67984
2150.1	0.950127
2151.55	0.738728
2152.99	0.791143
2154.44	0.69341
2155.88	0.528863
2157.33	1.0105
2158.77	0.863569
2160.21	0.867429
2161.66	0.840388
2163.1	0.848818
2164.55	1.09145
2165.99	1.0034
2167.43	0.532919
2168.87	1.05797
2170.31	1.03241
2171.76	1.03739
2173.2	1.4225
2174.64	0.741238
2176.08	1.09057
2177.52	1.02438
2178.96	0.992447
2180.4	0.862014
2181.84	0.998704
2183.28	1.38561
2184.72	0.957993
2186.16	0.962838
2187.6	1.41698
2189.04	1.10578
2190.47	1.31045
2191.91	0.632459
2193.35	0.819148
2194.79	0.138388
2196.23	0.903756
2197.66	0.800902
2199.1	0.712623
2200.54	0.988693
2201.97	0.633332
2203.41	0.942947
2204.84	0.921968
2206.28	0.968627
2207.71	0.933065
2209.15	0.615758
2210.58	0.711514
2212.02	0.855494
2213.45	0.0562067
2214.89	0.90959
2216.32	0.541178
2217.75	0.686049
2219.19	0.749912
2220.62	0.600491
2222.05	0.632574
2223.48	0.894342
2224.92	0.363683
2226.35	0.736506
2227.78	0.761378
2229.21	0.603884
2230.64	0.609813
2232.07	0.615449
2233.5	0.0649605
2234.93	0.415855
2236.36	0.66957
2237.79	0.402529
2239.22	0.366639
2240.65	0.365917
2242.08	0.677329
2243.51	0.337874
2244.94	0.65125
2246.37	0.131878
2247.79	0.328184
2249.22	0.521644
2250.65	0.304799
2252.08	0.379068
2253.5	0.33835
2254.93	0.769274
2256.36	0.357225
2257.78	-0.0188522
2259.21	0.192843
2260.63	0.732669
2262.06	0.707812
2263.48	0.490053
2264.91	0.32111
2266.33	0.102711
2267.76	0.306054
2269.18	-0.110033
2270.6	0.319163
2272.03	0.633977
2273.45	0.394968
2274.87	0.563216
2276.3	0.373332
2277.72	0.0694885
2279.14	0.0752993
2280.56	0.439781
2281.98	0.461751
2283.41	0.4673
2284.83	0.456597
2286.25	-0.0761824
2287.67	-0.314913
2289.09	0.23075
2290.51	0.172723
2291.93	0.850623
2293.35	0.368077
2294.77	0.474104
2296.19	0.432779
2297.61	0.178457
2299.02	0.300788
2300.44	-0.0846367
2301.86	0.481011
2303.28	-0.100872
2304.7	-0.026576
2306.11	-0.0672779
2307.53	0.318756
2308.95	0.0797768
2310.36	0.201652
2311.78	0.0599184
2313.2	0.164878
2314.61	0.336269
2316.03	0.0641088
2317.44	0.369294
2318.86	0.098382
2320.27	0.420609
2321.69	0.180676
2323.1	0.383813
2324.51	0.451969
2325.93	0.269746
2327.34	0.530791
2328.76	0.708207
2330.17	0.6057
2331.58	0.372757
2332.99	0.569321
2334.41	-0.0722885
2335.82	-0.285626
2337.23	0.372195
2338.64	0.124135
2340.05	0.252771
2341.46	0.117325
2342.87	0.161941
2344.28	-0.269113
2345.69	0.48072
2347.1	0.591208
2348.51	0.0959349
2349.92	0.353255
2351.33	0.413045
2352.74	-0.247146
2354.15	0.283785
2355.56	0.0793238
2356.97	0.265643
2358.37	0.175028
2359.78	0.00352001
2361.19	-0.0539017
2362.6	0.0346804
2364	-0.0714216
2365.41	0.243244
2366.82	0.153474
2368.22	-0.225947
2369.63	0.364427
2371.03	0.262445
2372.44	-0.0471478
2373.84	-0.35521
2375.25	0.190512
2376.65	0.574364
2378.06	0.0559235
2379.46	0.419918
2380.86	0.588515
2382.27	0.209742
2383.67	0.359204
2385.07	0.204123
2386.48	0.0499277
2387.88	-0.102771
2389.28	0.128935
2390.69	0.250299
2392.09	0.229692
2393.49	0.0353432
2394.89	0.00125313
2396.29	0.0793409
2397.69	-0.0484495
2399.09	0.0946445
2400.49	0.238287
2401.89	-0.268958
2403.29	0.0656805
2404.69	0.399718
2406.09	-0.283447
2407.49	-0.0311165
2408.89	-0.144747
2410.29	-0.16355
2411.69	0.118958
2413.08	0.44976
2414.48	0.022048
2415.88	0.451171
2417.28	-0.13125
2418.67	-0.14267
2420.07	-0.327898
2421.47	0.0410557
2422.86	0.0611324
2424.26	-0.0142012
2425.65	0.195773
2427.05	0.216276
2428.45	0.428139
2429.84	0.340014
2431.23	0.0146666
2432.63	0.213052
2434.02	0.331505
2435.42	0.00375175
2436.81	0.420775
2438.2	-0.08564
2439.6	-0.275825
2440.99	-0.451132
2442.38	0.119113
2443.78	0.561624
2445.17	0.0994549
2446.56	0.271637
2447.95	0.332561
2449.34	-0.0501108
2450.73	-0.258001
2452.13	0.0255651
2453.52	0.199162
2454.91	-0.069211
2456.3	-0.0677519
2457.69	0.218798
2459.08	0.188748
2460.47	0.221211
2461.85	0.252621
2463.24	0.172363
2464.63	0.217813
2466.02	0.120718
2467.41	0.213008
2468.8	0.447136
2470.19	0.3969
2471.57	0.267299
2472.96	0.278727
2474.35	0.163216
2475.73	0.282985
2477.12	-0.399459
2478.51	0.301092
2479.89	-0.00352669
2481.28	0.0217953
2482.66	0.375978
2484.05	0.118457
2485.43	-0.0615482
2486.82	0.147943
2488.2	0.511596
2489.59	0.172129
2490.97	-0.0421295
2492.35	-0.0531178
2493.74	-0.202484
2495.12	-0.303373
2496.5	0.2174
2497.89	-0.051466
2499.27	-0.226795
2500.65	-0.0311165
2502.03	-0.269457
2503.42	-0.0608273
2504.8	0.00745773
2506.18	-0.248727
2507.56	-0.0583305
2508.94	-0.0526743
2510.32	0.199217
2511.7	-0.116246
2513.08	-0.108273
2514.46	0.467437
2515.84	0.140398
2517.22	-0.124071
2518.6	0.0557709
2519.98	0.0828171
2521.36	0.185831
2522.73	-0.0479136
2524.11	0.0683899
2525.49	0.0921717
2526.87	-0.204175
2528.25	0.0177917
2529.62	0.484108
2531	0.100866
2532.38	-0.158427
2533.75	0.358868
2535.13	0.117356
2536.5	0.301148
2537.88	0.256167
2539.25	0.0277166
2540.63	0.193094
2542.01	0.266853
2543.38	0.0678415
2544.75	0.18856
2546.13	-0.174561
2547.5	0.328433
2548.88	0.422983
2550.25	0.44174
2551.62	0.383967
2553	0.249113
2554.37	0.446794
2555.74	0.263963
2557.11	0.141191
2558.49	0.260938
2559.86	0.138421
2561.23	0.441008
2562.6	0.00174904
2563.97	0.169436
2565.34	0.170954
2566.71	-0.115169
2568.08	0.371712
2569.45	0.373647
2570.82	0.269485
2572.19	-0.00137901
2573.56	0.334172
2574.93	0.199924
2576.3	-0.0404348
2577.67	0.158761
2579.03	0.357691
2580.4	0.222578
2581.77	-0.00403404
2583.14	0.0114965
2584.5	0.4512
2585.87	0.345056
2587.24	0.254238
2588.6	0.0878935
2589.97	0.194481
2591.34	-0.168881
2592.7	0.255114
2594.07	-0.230977
2595.43	0.0239515
2596.8	0.156296
2598.16	0.105969
2599.53	0.115718
2600.89	0.0802689
2602.26	0.347524
2603.62	-0.124276
2604.98	0.174549
2606.35	0.0962687
2607.71	0.0930023
2609.07	0.22429
2610.44	0.278552
2611.8	0.28589
2613.16	0.156406
2614.52	0.461795
2615.88	0.136007
2617.25	0.0210629
2618.61	0.266521
2619.97	0.0337133
2621.33	0.131123
2622.69	0.109517
2624.05	-0.300015
2625.41	0.305602
2626.77	0.239032
2628.13	0.0827217
2629.49	0.179377
2630.85	-0.215343
2632.21	0.282354
2633.56	0.348433
2634.92	-0.0754223
2636.28	0.331825
2637.64	0.456858
2639	0.463309
2640.35	0.425571
2641.71	0.0334311
2643.07	0.454698
2644.42	0.285087
2645.78	0.115591
2647.14	0.0932217
2648.49	0.541311
2649.85	0.192902
2651.2	0.829226
2652.56	0.171551
2653.91	0.249039
2655.27	0.283382
2656.62	0.377672
2657.98	0.31232
2659.33	0.218928
2660.68	0.0968857
2662.04	0.179347
2663.39	0.626079
2664.74	0.0348644
2666.1	0.304049
2667.45	0.178724
2668.8	0.14086
2670.15	0.379854
2671.5	0.139392
2672.86	-0.187119
2674.21	0.30074
2675.56	0.25179
2676.91	0.02952
2678.26	0.112823
2679.61	0.25515
2680.96	0.384278
2682.31	0.355475
2683.66	0.386212
2685.01	0.432706
2686.36	0.000975609
2687.71	0.120255
2689.06	0.31067
2690.4	0.368276
2691.75	0.147744
2693.1	0.201077
2694.45	0.398152
2695.8	0.348433
2697.14	0.299595
2698.49	0.368325
2699.84	0.120669
2701.18	0.193802
2702.53	-0.06429
2703.88	0.200405
2705.22	0.292005
2706.57	0.514295
2707.91	0.199521
2709.26	0.246886
2710.6	0.453549
2711.95	-0.0518055
2713.29	0.227033
2714.64	0.200711
2715.98	0.348771
2717.32	0.380374
2718.67	0.455303
2720.01	0.631639
2721.35	0.632799
2722.7	0.123891
2724.04	0.269306
2725.38	0.792613
2726.72	0.296542
2728.06	0.484153
2729.4	0.685967
2730.75	0.436484
2732.09	0.230674
2733.43	0.214135
2734.77	0.372375
2736.11	0.429037
2737.45	0.15136
2738.79	0.237247
2740.13	0.395509
2741.47	0.204147
2742.81	0.0265636
2744.15	0.531215
2745.48	0.395522
2746.82	0.346503
2748.16	0.23924
2749.5	-0.0709982
2750.84	-0.03265
2752.17	0.179957
2753.51	-0.273951
2754.85	0.0260277
2756.19	-0.0795488
2757.52	0.278492
2758.86	-0.362148
2760.19	0.372904
2761.53	0.167742
2762.86	0.324979
2764.2	0.0919323
2765.54	0.220584
2766.87	-0.316866
2768.2	-0.0163937
2769.54	0.238887
2770.87	0.333099
2772.21	-0.0222368
2773.54	-0.133054
2774.88	0.015151
2776.21	0.0478334
2777.54	0.00897694
2778.87	-0.359865
2780.21	0.0771914
2781.54	-0.0172758
2782.87	0.31901
2784.2	0.339272
2785.53	0.173164
2786.87	-0.479423
2788.2	0.24358
2789.53	-0.335124
2790.86	-0.0397968
2792.19	0.184832
2793.52	0.395638
2794.85	0.0204248
2796.18	-0.0692759
2797.51	-0.045351
2798.84	0.220573
2800.17	0.357287
2801.49	-0.105594
2802.82	-0.112025
2804.15	0.023716
2805.48	-0.0548916
2806.81	-0.0772457
2808.13	-0.157255
2809.46	0.0892067
2810.79	0.00874043
2812.12	-0.368811
2813.44	0.191598
2814.77	-0.0830889
2816.09	0.168674
2817.42	0.180857
2818.75	0.392211
2820.07	0.00827408
2821.4	-0.121103
2822.72	0.230512
2824.05	0.297853
2825.37	0.279747
2826.7	0.0634727
2828.02	0.286875
2829.35	0.0721006
2830.67	0.339263
2831.99	-0.157716
2833.31	0.336105
2834.64	0.758683
2835.96	0.982388
2837.28	0.922315
2838.61	1.31435
2839.93	1.08368
2841.25	1.78641
2842.57	1.68372
2843.89	1.76573
2845.21	2.3575
2846.53	2.13047
2847.85	2.62472
2849.17	2.56782
2850.49	2.53876
2851.81	2.60794
2853.13	2.57746
2854.45	2.64537
2855.77	2.76953
2857.09	2.37098
2858.41	3.14495
2859.73	3.09958
2861.05	2.72922
2862.36	2.92324
2863.68	2.76383
2865	2.78759
2866.32	3.55894
2867.64	3.06104
2868.95	3.15619
2870.27	3.75938
2871.59	3.98204
2872.9	4.16194
2874.22	3.79119
2875.53	3.68681
2876.85	4.46794
2878.16	3.89636
2879.48	4.50633
2880.79	4.48362
2882.11	4.4481
2883.42	4.27368
2884.74	4.29732
2886.05	4.47619
2887.36	4.33228
2888.68	4.59471
2889.99	4.54728
2891.3	4.55477
2892.62	4.40725
2893.93	4.28769
2895.24	4.74288
2896.55	4.51303
2897.86	4.50871
2899.18	4.61776
2900.49	5.03566
2901.8	4.65681
2903.11	4.75388
2904.42	4.59937
2905.73	5.0747
2907.04	5.41097
2908.35	5.63654
2909.66	5.94735
2910.97	5.65732
2912.28	5.75907
2913.59	5.35577
2914.9	6.14052
2916.21	5.66287
2917.51	6.13494
2918.82	6.40953
2920.13	6.1523
2921.44	6.45549
2922.74	6.5646
2924.05	6.17245
2925.36	6.59261
2926.67	6.48245
2927.97	6.90357
2929.28	6.98866
2930.59	6.96114
2931.89	7.36633
2933.2	6.66687
2934.5	7.26735
2935.81	7.01541
2937.11	6.72183
2938.42	6.49843
2939.72	6.76452
2941.02	5.96935
2942.33	6.433
2943.63	6.11575
2944.94	6.30352
2946.24	5.65392
2947.54	5.62022
2948.85	5.65614
2950.15	4.75247
2951.45	5.12039
2952.75	4.77173
2954.05	4.89737
2955.36	4.30864
2956.66	4.44908
2957.96	4.15828
2959.26	4.20691
2960.56	4.38523
2961.86	4.13183
2963.16	3.879
2964.46	3.8918
2965.76	3.79044
2967.06	3.18095
2968.36	3.41293
2969.66	3.82694
2970.96	3.4815
2972.26	3.34732
2973.56	2.96021
2974.85	2.92479
2976.15	3.12792
2977.45	3.10417
2978.75	2.96559
2980.05	2.81077
2981.34	3.20315
2982.64	2.77877
2983.94	2.83323
2985.23	2.72048
2986.53	2.44116
2987.83	2.47294
2989.12	2.44982
2990.42	2.01946
2991.71	1.95385
2993.01	1.97122
2994.3	1.59354
2995.6	1.70624
2996.89	1.97236
2998.19	1.74684
2999.48	1.15719
3000.77	1.26977
3002.07	1.48116
3003.36	1.44076
3004.65	1.10635
3005.95	0.645775
3007.24	0.576719
3008.53	0.674577
3009.82	0.631385
3011.12	0.629239
3012.41	0.76619
3013.7	0.623953
3014.99	0.161896
3016.28	0.411831
3017.57	0.272608
3018.86	-0.116247
3020.15	0.107315
3021.44	-0.14247
3022.73	0.357011
3024.02	0.285535
3025.31	0.0607519
3026.6	0.127012
3027.89	0.346003
3029.18	0.303421
3030.47	0.0832567
3031.76	-0.0242863
3033.04	-0.102801
3034.33	0.0123425
3035.62	0.237067
3036.91	-0.105359
3038.19	0.26679
3039.48	-0.0246887
3040.77	-0.179995
3042.05	0.0483074
3043.34	-0.272243
3044.63	-0.152807
3045.91	0.282918
3047.2	0.324521
3048.48	-0.122325
3049.77	-0.0747414
3051.05	0.15221
3052.34	-0.0155258
3053.62	0.0350866
3054.91	0.234941
3056.19	-0.0302906
3057.48	0.31676
3058.76	0.0494013
3060.04	0.0543814
3061.33	-0.103396
3062.61	0.529101
3063.89	0.238397
3065.17	0.41207
3066.46	0.791526
3067.74	0.506132
3069.02	-0.0915966
3070.3	0.044631
3071.59	-0.06499
3072.87	0.0686741
3074.15	-0.139113
3075.43	-0.0489187
3076.71	-0.190024
3077.99	0.131087
3079.27	0.236264
3080.55	0.112762
3081.83	-0.00868034
3083.11	0.3056
3084.39	0.240963
3085.67	-0.244323
3086.94	-0.119485
3088.22	-0.0226336
3089.5	-0.279469
3090.78	0.0874252
3092.06	0.155581
3093.34	0.481658
3094.61	-0.263271
3095.89	0.30763
3097.17	-0.0297813
3098.44	0.10726
3099.72	-0.0133448
3101	0.109883
3102.27	0.0164967
3103.55	-0.333659
3104.82	-0.128001
3106.1	0.268021
3107.38	-0.0384874
3108.65	0.0623579
3109.93	0.0698833
3111.2	0.0786734
3112.47	0.359417
3113.75	0.180222
3115.02	0.0686655
3116.3	0.431094
3117.57	0.20938
3118.84	-0.0408535
3120.12	0.100894
3121.39	0.458353
3122.66	0.218597
3123.93	0.195587
3125.2	0.389528
3126.48	0.597471
3127.75	0.657226
3129.02	-0.107358
3130.29	0.575752
3131.56	0.569296
3132.83	0.40054
3134.1	0.636645
3135.37	0.925907
3136.64	0.229288
3137.91	0.260992
3139.18	0.251808
3140.45	0.565527
3141.72	0.717494
3142.99	0.708394
3144.26	0.673173
3145.53	0.625454
3146.8	0.860229
3148.07	0.787513
3149.33	1.0906
