200.419	-0.106944
202.234	-0.09163
204.048	-0.0752096
205.862	0.380138
207.678	0.0332823
209.491	0.949904
211.304	0.577236
213.116	1.00461
214.928	0.265966
216.742	0.230722
218.554	-0.0707655
220.365	1.27472
222.176	-0.162009
223.986	0.507273
225.798	-0.152452
227.608	0.00986862
229.417	0.123445
231.226	-0.0532255
233.035	0.15598
234.843	-0.237385
236.653	-0.291557
238.46	0.620644
240.268	0.59569
242.074	0.163507
243.881	-0.00204277
245.687	0.194334
247.493	0.799719
249.298	0.21922
251.103	0.287201
252.908	0.327974
254.715	0.366796
256.519	0.188123
258.322	-0.0617342
260.126	0.605944
261.929	0.552955
263.731	-0.00394344
265.534	-0.0296192
267.336	-0.46454
269.137	0.0402088
270.938	0.0621376
272.739	-0.423459
274.54	0.511974
276.34	0.360662
278.14	0.183311
279.939	-0.116498
281.739	0.376143
283.537	0.288795
285.336	0.272099
287.134	0.0385742
288.932	-0.410255
290.729	-0.234579
292.526	0.253398
294.323	-0.166493
296.117	0.395989
297.913	0.170614
299.709	-0.22121
301.504	0.246936
303.299	0.0692348
305.093	-0.0380287
306.888	0.0446253
308.682	0.413005
310.475	0.328948
312.268	0.555965
314.059	-0.120084
315.852	0.396677
317.644	0.177334
319.436	-0.373866
321.227	0.100667
323.018	-0.114963
324.807	-0.0917196
326.597	0.504792
328.387	0.408987
330.177	0.264553
331.967	-0.120479
333.753	0.257963
335.542	0.490699
337.331	0.888384
339.119	0.470119
340.906	0.55253
342.691	0.275374
344.478	0.691332
346.265	0.438782
348.051	0.163349
349.835	0.318363
351.621	0.330205
353.406	0.317605
355.189	-0.12551
356.973	-0.355086
358.757	-0.490513
360.541	0.182705
362.323	0.187644
364.106	0.00153351
365.889	-0.113774
367.669	0.601021
369.451	0.436142
371.233	0.602241
373.012	0.577901
374.793	-0.25031
376.574	0.386994
378.353	0.0567064
380.133	0.458398
381.91	0.366426
383.69	-0.311943
385.469	0.304904
387.245	-0.228859
389.024	0.319598
390.8	-0.0235662
392.577	0.221419
394.353	0.0678587
396.129	0.290512
397.906	0.889117
399.68	0.242772
401.456	-0.0752325
403.23	-0.417405
405.005	-0.220129
406.778	0.305058
408.552	0.0311623
410.325	-0.242988
412.099	0.116666
413.87	0.54706
415.643	0.133519
417.414	0.377895
419.187	-0.0340004
420.957	0.211473
422.728	0.339421
424.498	-0.120261
426.269	0.827629
428.038	-0.150448
429.806	0.326414
431.576	0.145993
433.344	0.0832911
435.114	-0.0963507
436.881	-0.0647755
438.649	-0.0339079
440.416	0.699347
442.182	0.280554
443.949	0.445812
445.715	-0.00032711
447.48	0.301875
449.247	0.182092
451.011	-0.311193
452.777	-0.126304
454.541	0.0585527
456.304	0.219809
458.069	0.520394
459.832	-0.0636959
461.594	0.446753
463.358	0.749153
465.119	-0.130907
466.881	-0.101437
468.642	0.0937061
470.404	-0.0344124
472.165	0.768823
473.925	-0.127434
475.684	-0.141331
477.445	0.215154
479.204	0.220188
480.963	0.224083
482.721	-0.703485
484.481	-0.115923
486.239	0.35739
487.996	-0.0755253
489.753	0.426259
491.511	0.533201
493.268	0.243906
495.023	0.679308
496.779	0.717506
498.534	0.35715
500.289	0.628811
502.046	0.618587
503.8	0.11408
505.554	0.336225
507.307	0.392499
509.06	0.000145912
510.813	-0.0647583
512.566	-0.131383
514.32	0.576862
516.072	0.765811
517.823	0.247748
519.574	0.363654
521.325	0.549099
523.076	-0.0646439
524.826	-0.0207748
526.576	0.72679
528.325	0.230936
530.074	0.415094
531.823	0.598623
533.572	0.0320148
535.32	0.143233
537.068	0.696776
538.815	0.313824
540.562	0.093605
542.309	0.315569
544.056	0.536569
545.802	0.129607
547.547	-0.229763
549.293	-0.124385
551.038	0.60622
552.783	0.595242
554.527	0.492092
556.271	-0.810843
558.015	0.979315
559.759	0.232359
561.502	0.592299
563.245	0.0552626
564.987	0.140281
566.729	0.616398
568.471	0.610759
570.213	0.262124
571.954	-0.291213
573.693	-0.0397282
575.433	-0.153387
577.173	0.12481
578.913	-0.284017
580.652	0.639729
582.392	-0.020997
584.13	-0.131169
585.867	-0.288507
587.605	0.380893
589.343	-0.308219
591.08	-0.515275
592.817	0.611544
594.552	0.0126104
596.289	0.495064
598.025	0.448331
599.761	0.516246
601.496	0.468221
603.229	0.119838
604.964	-0.160953
606.699	0.13155
608.433	-0.174241
610.165	-0.502783
611.898	0.109972
613.631	0.149784
615.364	0.465347
617.095	0.0706739
618.827	0.133802
620.559	0.378842
622.288	0.347726
624.02	0.681427
625.75	0.489216
627.479	0.458232
629.209	0.338166
630.939	0.197955
632.667	-0.190994
634.396	0.859011
636.125	0.0372305
637.851	-0.0331745
639.58	0.737967
641.305	0.159413
643.033	0.285444
644.76	-0.0683002
646.485	0.284069
648.212	-0.0895414
649.936	0.017724
651.662	0.333525
653.388	0.0172749
655.111	0.454922
656.836	0.622666
658.558	1.01981
660.283	0.459032
662.005	-0.218725
663.728	0.425555
665.45	0.907819
667.173	0.382003
668.893	-0.419351
670.616	0.449584
672.336	0.314227
674.057	0.295881
675.777	-0.0181236
677.498	-0.124861
679.216	0.43442
680.937	0.901808
682.655	0.562737
684.375	0.451056
686.092	1.02788
687.809	0.543714
689.528	-0.126095
691.244	0.147684
692.962	0.535961
694.678	0.416663
696.393	0.918078
698.111	0.635188
699.825	1.29456
701.54	0.986002
703.256	1.29726
704.97	0.252204
706.685	0.332637
708.398	0.962873
710.111	0.560571
711.826	0.570605
713.538	0.900518
715.25	0.612592
716.961	0.736098
718.675	0.768215
720.386	0.572565
722.096	1.15168
723.808	1.07003
725.518	0.715608
727.228	1.04288
728.937	1.32372
730.648	0.265922
732.357	1.18019
734.065	1.14213
735.773	0.832961
737.483	0.479616
739.19	1.39103
740.897	1.69336
742.604	1.09558
744.31	1.10795
746.018	1.45941
747.724	1.02485
749.429	1.4467
751.134	0.790322
752.839	0.922606
754.544	1.57387
756.248	1.23695
757.953	1.75708
759.657	1.4684
761.36	0.729715
763.063	0.87048
764.765	1.73375
766.468	1.03794
768.169	1.56006
769.871	1.35656
771.572	1.2864
773.273	1.23724
774.976	1.23275
776.676	1.88452
778.376	2.44732
780.075	1.85866
781.775	1.67822
783.474	2.35786
785.172	1.97269
786.871	2.26388
788.569	2.1666
790.266	1.79415
791.964	2.41353
793.661	2.17185
795.358	1.88512
797.054	1.91546
798.75	1.78995
800.446	2.18435
802.141	2.01756
803.834	1.31199
805.529	1.59595
807.224	1.76643
808.918	1.37401
810.612	2.2375
812.305	2.08956
813.998	1.87395
815.691	1.88228
817.384	1.73397
819.076	1.83181
820.766	1.99667
822.458	2.00549
824.149	1.83681
825.84	2.18242
827.531	2.08464
829.221	1.52237
830.909	1.94343
832.599	2.45699
834.288	2.28251
835.977	2.01982
837.666	1.3326
839.353	1.9608
841.041	1.35922
842.729	1.24734
844.416	1.78289
846.103	1.31355
847.788	1.04702
849.475	1.72248
851.161	1.41644
852.845	1.13437
854.53	1.52591
856.216	1.22181
857.901	1.74781
859.583	1.73283
861.268	1.26546
862.952	0.547962
864.633	1.65396
866.317	0.956184
868	1.67792
869.681	1.33943
871.363	0.639545
873.045	1.18006
874.725	1.63037
876.406	1.2007
878.088	0.838644
879.767	0.972981
881.447	0.745769
883.125	1.2402
884.805	1.32709
886.483	1.23187
888.162	1.56366
889.841	1.17176
891.518	0.823754
893.196	1.21795
894.872	1.29523
896.55	0.629319
898.225	1.15389
899.902	1.609
901.577	1.47962
903.254	0.163921
904.928	1.62256
906.604	1.31443
908.277	0.740207
909.952	1.43757
911.625	0.643942
913.3	1.34169
914.972	1.49498
916.646	1.45641
918.318	2.56398
919.991	1.2429
921.662	0.853971
923.333	1.55
925.005	1.45158
926.675	1.15662
928.347	1.39348
930.017	0.682729
931.686	1.07616
933.357	1.51389
935.025	0.848835
936.693	0.382873
938.363	1.06467
940.031	0.755276
941.698	0.535327
943.367	1.44143
945.034	0.295216
946.7	1.31071
948.368	1.55173
950.034	1.39328
951.699	1.16732
953.367	1.11796
955.031	0.761559
956.696	0.430144
958.36	0.565184
960.026	0.548788
961.689	0.843268
963.353	0.209714
965.016	0.613172
966.68	0.615969
968.343	0.505174
970.005	0.923111
971.666	0.698479
973.328	1.1157
974.991	0.605598
976.652	0.318542
978.312	0.209913
979.972	0.433859
981.632	0.65756
983.292	0.636435
984.953	0.347613
986.612	1.05266
988.27	1.35707
989.929	0.907942
991.587	0.701659
993.244	1.29055
994.902	0.973797
996.559	1.4297
998.216	0.958983
999.872	0.885221
1001.53	1.66997
1003.19	1.66094
1004.84	1.60755
1006.5	0.609146
1008.15	0.205208
1009.81	0.94327
1011.46	0.167646
1013.11	0.664627
1014.77	0.504326
1016.42	0.891917
1018.07	0.667001
1019.73	0.530632
1021.38	0.657828
1023.03	1.15772
1024.68	0.718742
1026.34	1.67906
1027.99	1.21898
1029.64	0.84573
1031.29	0.427657
1032.94	0.575792
1034.59	0.74383
1036.24	0.495905
1037.89	0.138536
1039.53	0.391108
1041.18	0.75271
1042.83	0.310923
1044.48	0.414611
1046.13	0.780903
1047.77	0.671301
1049.42	1.67109
1051.07	1.10863
1052.71	0.612081
1054.36	0.897999
1056	0.792826
1057.65	0.55687
1059.3	0.515994
1060.94	0.496173
1062.59	0.671227
1064.23	0.236471
1065.87	0.626834
1067.52	0.88545
1069.16	0.404151
1070.8	0.639173
1072.44	0.786995
1074.09	0.110671
1075.73	1.0844
1077.37	0.389216
1079.01	0.953272
1080.65	0.694121
1082.29	0.890358
1083.93	0.00153542
1085.57	1.06229
1087.21	0.278358
1088.85	0.59741
1090.49	0.3083
1092.13	0.515604
1093.77	0.613965
1095.41	0.237645
1097.04	0.380219
1098.68	0.782454
1100.32	1.16452
1101.95	0.45091
1103.59	0.363552
1105.23	0.256122
1106.86	1.09568
1108.5	0.192831
1110.13	-0.0873041
1111.77	0.125466
1113.4	0.551189
1115.04	0.266623
1116.67	0.432296
1118.31	0.0404425
1119.94	0.506763
1121.57	0.545335
1123.2	0.71343
1124.84	0.518752
1126.47	1.00958
1128.1	0.132427
1129.73	0.0260553
1131.36	0.198235
1132.99	0.178301
1134.62	1.33391
1136.25	0.287163
1137.88	0.00896168
1139.51	0.156885
1141.14	0.687921
1142.77	0.364309
1144.4	-0.3001
1146.03	0.678319
1147.66	0.357019
1149.28	0.185987
1150.91	-0.176138
1152.54	0.143369
1154.16	0.355915
1155.79	0.184817
1157.42	-0.0288715
1159.04	-0.39096
1160.67	0.0560303
1162.29	-0.0913305
1163.92	-0.407736
1165.54	0.42453
1167.17	0.0871572
1168.79	0.322748
1170.41	0.0463915
1172.04	0.320586
1173.66	0.12551
1175.28	-0.452496
1176.9	0.644561
1178.53	0.575045
1180.15	0.781549
1181.77	0.523367
1183.39	0.181657
1185.01	0.305256
1186.63	0.638891
1188.25	0.358425
1189.87	-0.155475
1191.49	0.256125
1193.11	0.181517
1194.73	-0.103731
1196.35	0.450448
1197.96	0.0199947
1199.58	0.40802
1201.2	0.23357
1202.82	0.124828
1204.43	1.14589
1206.05	0.791591
1207.66	0.751831
1209.28	0.628978
1210.9	0.0673504
1212.51	0.0672112
1214.13	1.06501
1215.74	1.10119
1217.36	0.240767
1218.97	0.35764
1220.58	0.598666
1222.2	0.902127
1223.81	0.605485
1225.42	0.248812
1227.04	0.680518
1228.65	1.21669
1230.26	0.595981
1231.87	0.927781
1233.48	1.61213
1235.1	1.28508
1236.71	1.55878
1238.32	1.19285
1239.93	1.03431
1241.53	0.565634
1243.14	1.50322
1244.75	1.28157
1246.36	1.7623
1247.97	1.41418
1249.58	2.07906
1251.19	0.922898
1252.8	0.573959
1254.4	1.34273
1256.01	1.30598
1257.62	1.33265
1259.22	1.07092
1260.83	1.3482
1262.43	1.91613
1264.04	1.44876
1265.64	1.80949
1267.25	0.718645
1268.85	1.11902
1270.46	1.58058
1272.06	1.81291
1273.66	1.44279
1275.27	1.3826
1276.87	1.38356
1278.48	1.1143
1280.08	1.19658
1281.68	1.5061
1283.28	1.4017
1284.88	0.760297
1286.48	1.36065
1288.08	1.56913
1289.68	2.02654
1291.28	1.63725
1292.88	1.41325
1294.48	1.49837
1296.08	1.37552
1297.68	1.60194
1299.28	1.64057
1300.88	1.28574
1302.48	0.847698
1304.07	0.944492
1305.67	1.53373
1307.27	1.32023
1308.87	1.74282
1310.46	1.93906
1312.06	1.4802
1313.65	1.67755
1315.25	1.7326
1316.85	2.54407
1318.44	1.92683
1320.03	1.37156
1321.63	2.03838
1323.22	0.789378
1324.82	2.04134
1326.41	2.11123
1328	1.91669
1329.6	2.51291
1331.19	1.6736
1332.78	2.77823
1334.37	2.06659
1335.96	1.92281
1337.56	2.22356
1339.15	1.97901
1340.74	2.13574
1342.33	1.76654
1343.92	2.32048
1345.51	1.62707
1347.1	1.73746
1348.69	1.34872
1350.28	1.40369
1351.86	1.5014
1353.45	1.32141
1355.04	1.16299
1356.63	1.4247
1358.21	1.04658
1359.8	1.52635
1361.39	1.62529
1362.97	1.18457
1364.56	1.30215
1366.15	1.3003
1367.73	2.15562
1369.32	1.67785
1370.9	1.75922
1372.49	1.46407
1374.07	1.09063
1375.65	1.17558
1377.24	1.59895
1378.82	1.6835
1380.41	1.07051
1381.99	0.496101
1383.57	1.29278
1385.15	0.954743
1386.73	1.47079
1388.32	0.874457
1389.9	0.537382
1391.48	1.19362
1393.06	1.43376
1394.64	1.17838
1396.22	0.982409
1397.8	1.06332
1399.38	0.766614
1400.96	1.00389
1402.54	1.10171
1404.11	1.49613
1405.69	0.66472
1407.27	1.02088
1408.85	1.19986
1410.43	1.20152
1412	1.04518
1413.58	1.42128
1415.16	1.53957
1416.73	1.06517
1418.31	1.9705
1419.88	1.04318
1421.46	1.25992
1423.03	1.12387
1424.61	1.24553
1426.18	1.38823
1427.76	1.11822
1429.33	1.65492
1430.9	1.08843
1432.48	1.0915
1434.05	1.56567
1435.62	1.66539
1437.2	1.68659
1438.77	1.55134
1440.34	1.65306
1441.91	1.95237
1443.48	1.66287
1445.05	2.06168
1446.62	1.7728
1448.19	2.34895
1449.76	2.23746
1451.33	1.92984
1452.9	2.38969
1454.47	1.80762
1456.04	1.44168
1457.61	1.72433
1459.17	1.57269
1460.74	2.54087
1462.31	1.6375
1463.88	2.20782
1465.44	1.6953
1467.01	2.34188
1468.58	1.75125
1470.14	1.1818
1471.71	1.37908
1473.27	1.10671
1474.84	1.10981
1476.4	1.17218
1477.97	1.39149
1479.53	1.8067
1481.1	1.5945
1482.66	1.61741
1484.22	1.30707
1485.78	2.25022
1487.35	1.17479
1488.91	1.88019
1490.47	0.802258
1492.03	1.0334
1493.59	1.96494
1495.16	1.58522
1496.72	1.0298
1498.28	1.52633
1499.84	0.914367
1501.4	0.596198
1502.96	0.978102
1504.52	0.914597
1506.08	0.948298
1507.64	-0.0630369
1509.19	1.09037
1510.75	0.966384
1512.31	0.591219
1513.87	0.197341
1515.42	0.57351
1516.98	0.987735
1518.54	0.596413
1520.1	0.129983
1521.65	0.870276
1523.21	0.805837
1524.76	0.778905
1526.32	0.293341
1527.87	0.169899
1529.43	0.787774
1530.98	0.416517
1532.54	0.40706
1534.09	0.474264
1535.64	0.826097
1537.2	1.02698
1538.75	0.718582
1540.3	0.373487
1541.85	0.631988
1543.41	0.28765
1544.96	1.09067
1546.51	0.727324
1548.06	0.514649
1549.61	0.639753
1551.16	0.933296
1552.71	0.871367
1554.26	0.511482
1555.81	0.956658
1557.36	1.29112
1558.91	1.04896
1560.46	0.454514
1562.01	0.88784
1563.56	1.4343
1565.1	0.656751
1566.65	0.793503
1568.2	1.19136
1569.75	1.04757
1571.29	1.76202
1572.84	1.37483
1574.38	1.26747
1575.93	1.30947
1577.48	1.10899
1579.02	0.666205
1580.57	1.15756
1582.11	1.42577
1583.65	1.30272
1585.2	1.4607
1586.74	1.39499
1588.29	1.81569
1589.83	0.982815
1591.37	1.47787
1592.92	1.13012
1594.46	1.0628
1596	1.68869
1597.54	1.17214
1599.08	1.72463
1600.62	1.22788
1602.16	1.87601
1603.7	1.36055
1605.24	0.994175
1606.78	1.45302
1608.32	1.55288
1609.86	1.08643
1611.4	1.51961
1612.94	1.25545
1614.48	0.990181
1616.02	1.66256
1617.56	1.00371
1619.09	1.50834
1620.63	1.33992
1622.17	1.41648
1623.71	1.1382
1625.24	1.72111
1626.78	0.93682
1628.31	1.21803
1629.85	0.973942
1631.39	1.4579
1632.92	1.39916
1634.46	0.930108
1635.99	1.30197
1637.52	0.779253
1639.06	1.58126
1640.59	0.649522
1642.12	1.26413
1643.66	2.54736
1645.19	1.33419
1646.72	1.57208
1648.25	1.62345
1649.79	1.82368
1651.32	1.89479
1652.85	2.56072
1654.38	1.8739
1655.91	2.2077
1657.44	2.11507
1658.97	1.892
1660.5	1.87134
1662.03	1.64562
1663.56	2.56505
1665.09	1.98624
1666.62	1.88857
1668.15	1.8291
1669.67	2.36116
1671.2	2.2127
1672.73	1.71562
1674.26	1.36667
1675.79	1.6252
1677.31	1.20178
1678.84	1.4582
1680.36	1.52937
1681.89	1.14026
1683.42	1.43067
1684.94	1.04181
1686.47	0.965545
1687.99	0.981475
1689.51	1.18098
1691.04	0.574919
1692.56	0.701561
1694.08	0.16952
1695.61	0.807892
1697.13	0.440362
1698.65	1.16858
1700.18	1.1472
1701.7	0.851716
1703.22	0.246224
1704.74	0.679069
1706.26	0.437516
1707.78	0.705087
1709.3	0.972099
1710.82	0.149849
1712.35	0.163259
1713.86	0.810925
1715.39	0.280899
1716.9	0.366671
1718.42	0.000336647
1719.94	0.465187
1721.46	-0.0990124
1722.98	0.456005
1724.5	0.308569
1726.01	-0.233552
1727.53	0.216106
1729.05	0.432508
1730.56	0.593327
1732.08	0.341705
1733.6	-0.153865
1735.11	0.289612
1736.63	0.0335693
1738.14	0.387488
1739.66	0.13578
1741.17	0.688344
1742.69	-0.186166
1744.2	0.0881062
1745.71	0.0828772
1747.23	0.364367
1748.74	0.275629
1750.25	0.0136423
1751.77	-0.32705
1753.28	0.224329
1754.79	-0.104884
1756.3	-0.15416
1757.81	0.251464
1759.33	0.350297
1760.84	-0.109245
1762.35	0.395137
1763.86	0.00511551
1765.37	0.241156
1766.88	0.112483
1768.39	0.413836
1769.9	-0.147549
1771.41	0.325366
1772.91	0.180624
1774.42	-0.0218687
1775.93	0.166131
1777.44	0.0810432
1778.95	0.191709
1780.45	-0.235858
1781.96	-0.0655479
1783.47	0.0109835
1784.97	-0.00625706
1786.48	0.0423279
1787.99	0.284246
1789.49	-0.150368
1791	0.22808
1792.5	-0.119541
1794.01	0.17872
1795.51	0.370725
1797.01	0.0609293
1798.52	-0.0995245
1800.02	0.179048
1801.52	0.161907
1803.03	-0.0250273
1804.53	0.366769
1806.03	0.345543
1807.54	-0.136432
1809.04	0.0110559
1810.54	0.153891
1812.04	-0.0482788
1813.54	0.209882
1815.04	-0.0353575
1816.54	0.0247879
1818.04	0.0401306
1819.54	-0.245431
1821.04	-0.132227
1822.54	0.681497
1824.04	0.642193
1825.54	0.0873661
1827.04	0.317855
1828.54	0.49343
1830.03	0.153589
1831.53	0.13343
1833.03	0.0487614
1834.53	0.174442
1836.02	0.0342493
1837.52	0.150537
1839.02	0.337336
1840.51	-0.121323
1842.01	-0.214633
1843.5	-0.194543
1845	0.268024
1846.49	0.486488
1847.99	0.230519
1849.48	0.255406
1850.98	0.089242
1852.47	0.25749
1853.96	0.470483
1855.46	0.520503
1856.95	0.315181
1858.44	0.253392
1859.94	0.0652323
1861.43	-0.0924129
1862.92	-0.140164
1864.41	0.218934
1865.9	0.124095
1867.39	-0.0370893
1868.88	0.0788698
1870.37	0.139459
1871.86	0.583663
1873.35	0.36504
1874.84	-0.0616188
1876.33	0.112872
1877.82	-0.0738144
1879.31	-0.0505295
1880.8	-0.252786
1882.29	-0.216513
1882.58	-0.19428
1884.08	-0.0901213
1885.57	-0.0913363
1887.06	-0.0585299
1888.56	-0.269911
1890.05	-0.0981073
1891.54	0.00491714
1893.04	0.109411
1894.53	0.285166
1896.02	0.497204
1897.51	-0.0377312
1899	0.366326
1900.5	0.264964
1901.99	-0.0119438
1903.48	-0.0643435
1904.97	0.0383987
1906.46	0.244559
1907.95	0.0163813
1909.44	0.136154
1910.93	0.100576
1912.42	0.378117
1913.91	-0.0203171
1915.4	-0.0197048
1916.88	0.327316
1918.37	-0.140959
1919.86	0.291603
1921.35	0.342758
1922.84	0.0479879
1924.32	-0.00342178
1925.81	0.10206
1927.3	0.03543
1928.78	0.350302
1930.27	0.405439
1931.75	0.0268373
1933.24	0.200964
1934.72	-0.0248127
1936.21	-0.21737
1937.69	0.0387459
1939.18	0.328671
1940.66	0.117787
1942.15	0.23587
1943.63	-0.128134
1945.11	-0.266893
1946.6	0.0429697
1948.08	0.214534
1949.56	0.0407209
1951.04	0.313767
1952.53	0.447955
1954.01	0.0311794
1955.49	0.302234
1956.97	0.332915
1958.45	0.0724812
1959.93	-0.324216
1961.41	0.0172443
1962.89	0.0158014
1964.37	0.04844
1965.85	0.23468
1967.33	-0.110497
1968.81	-0.0966854
1970.29	0.172942
1971.77	-0.0533762
1973.24	0.130203
1974.72	0.0577908
1976.2	0.156088
1977.68	0.152223
1979.15	0.0633516
1980.63	0.331766
1982.11	0.327684
1983.58	0.000585556
1985.06	-0.105707
1986.53	0.551121
1988.01	0.0884523
1989.48	0.25335
1990.96	0.0971584
1992.43	0.246494
1993.91	0.0247383
1995.38	0.209507
1996.86	-0.230502
1998.33	0.359897
1999.8	0.189769
2001.27	-0.0651808
2002.75	0.0675716
2004.22	0.166362
2005.69	0.181144
2007.16	0.550347
2008.64	0.297234
2010.11	0.162922
2011.58	0.0964823
2013.05	0.568687
2014.52	0.367187
2015.99	0.383718
2017.46	0.247986
2018.93	0.498211
2020.4	-0.0252209
2021.87	-0.161991
2023.34	0.0709572
2024.8	-0.215656
2026.27	-0.18229
2027.74	0.27169
2029.21	0.0394011
2030.68	0.177383
2032.14	-0.0696325
2033.61	0.120104
2035.08	0.360319
2036.54	0.432326
2038.01	0.100576
2039.48	0.205274
2040.94	0.0242023
2042.41	0.246964
2043.87	0.117367
2045.34	0.358731
2046.8	0.146482
2048.27	0.0521955
2049.73	-0.0425282
2051.19	0.468702
2052.66	0.0680189
2054.12	0.407598
2055.58	0.205844
2057.05	0.0871811
2058.51	-0.318579
2059.97	-0.269357
2061.43	0.436865
2062.9	-0.0853424
2064.36	-0.151985
2065.82	0.0852127
2067.28	0.104411
2068.74	-0.0441561
2070.2	0.161024
2071.66	0.147454
2073.12	0.20109
2074.58	0.372358
2076.04	0.0212889
2077.5	0.360312
2078.95	0.00850964
2080.41	0.195153
2081.87	0.21287
2083.33	0.600259
2084.79	0.313624
2086.24	0.161054
2087.7	0.226612
2089.16	0.056447
2090.61	0.591731
2092.07	0.589173
2093.53	0.603306
2094.98	0.11407
2096.44	0.513194
2097.89	0.308227
2099.35	0.471148
2100.8	-0.0687952
2102.26	0.779196
2103.71	0.0905876
2105.16	0.455425
2106.62	0.120575
2108.07	0.804283
2109.53	0.153993
2110.98	0.570378
2112.43	0.285352
2113.88	0.215508
2115.33	0.294043
2116.79	0.704106
2118.24	-0.0156441
2119.69	0.428802
2121.14	0.426639
2122.59	0.376551
2124.04	0.493658
2125.49	0.362614
2126.94	0.861343
2128.39	0.546684
2129.84	0.297167
2131.29	0.444153
2132.74	0.904739
2134.19	0.95123
2135.63	0.370183
2137.08	0.683543
2138.53	0.552332
2139.98	0.24112
2141.43	0.344571
2142.87	0.730281
2144.32	1.03418
2145.77	1.09019
2147.21	1.07971
2148.66	0.869825
2150.1	0.907483
2151.55	1.29213
2152.99	0.946795
2154.44	0.865772
2155.88	0.9003
2157.33	1.15026
2158.77	1.28496
2160.21	1.42102
2161.66	1.09493
2163.1	1.05223
2164.55	0.977778
2165.99	1.4519
2167.43	1.57768
2168.87	1.38663
2170.31	1.52623
2171.76	1.11479
2173.2	1.31688
2174.64	1.25146
2176.08	1.50149
2177.52	1.48562
2178.96	1.17129
2180.4	1.53959
2181.84	1.45989
2183.28	1.38075
2184.72	1.18542
2186.16	1.6389
2187.6	1.14414
2189.04	1.21507
2190.47	1.60228
2191.91	1.3234
2193.35	1.07699
2194.79	1.29543
2196.23	1.51198
2197.66	1.31042
2199.1	1.17386
2200.54	0.886961
2201.97	1.23124
2203.41	1.27708
2204.84	0.644159
2206.28	1.04039
2207.71	0.691291
2209.15	0.723153
2210.58	1.01904
2212.02	0.86701
2213.45	0.714475
2214.89	0.512502
2216.32	0.790066
2217.75	1.0849
2219.19	0.655107
2220.62	0.753956
2222.05	1.01765
2223.48	0.736785
2224.92	0.537153
2226.35	0.714596
2227.78	0.429869
2229.21	0.637167
2230.64	0.646458
2232.07	0.508056
2233.5	0.533927
2234.93	0.593159
2236.36	0.588074
2237.79	0.388616
2239.22	0.550133
2240.65	0.533994
2242.08	0.519561
2243.51	0.326865
2244.94	0.199703
2246.37	0.626482
2247.79	0.872252
2249.22	0.561498
2250.65	0.346713
2252.08	0.423615
2253.5	0.759798
2254.93	0.104671
2256.36	0.361065
2257.78	0.635594
2259.21	0.198862
2260.63	-0.00803089
2262.06	0.0792999
2263.48	0.509192
2264.91	0.761067
2266.33	0.297402
2267.76	0.580851
2269.18	-0.0639954
2270.6	0.608647
2272.03	-0.00518227
2273.45	0.0157309
2274.87	0.395114
2276.3	0.0579309
2277.72	0.242287
2279.14	0.345276
2280.56	0.497182
2281.98	0.09447
2283.41	0.441968
2284.83	0.300119
2286.25	-0.331297
2287.67	0.0169325
2289.09	0.00643921
2290.51	0.437488
2291.93	0.198907
2293.35	0.0747051
2294.77	0.343062
2296.19	0.284186
2297.61	0.438096
2299.02	0.297295
2300.44	0.107375
2301.86	0.425876
2303.28	0.400423
2304.7	-0.00245953
2306.11	0.251101
2307.53	-0.136241
2308.95	0.0509243
2310.36	0.122599
2311.78	-0.447558
2313.2	0.281797
2314.61	0.551146
2316.03	0.426194
2317.44	0.35128
2318.86	0.227231
2320.27	0.102796
2321.69	0.158733
2323.1	0.229473
2324.51	0.298072
2325.93	0.183088
2327.34	0.775737
2328.76	0.691349
2330.17	0.310798
2331.58	0.129032
2332.99	0.343414
2334.41	0.130656
2335.82	0.000452995
2337.23	-0.0807762
2338.64	-0.129951
2340.05	0.0499458
2341.46	-0.214584
2342.87	-0.0361261
2344.28	0.240472
2345.69	0.0089159
2347.1	-0.140197
2348.51	-0.109059
2349.92	0.265209
2351.33	0.0170803
2352.74	0.176751
2354.15	-0.366323
2355.56	0.117951
2356.97	-0.180602
2358.37	-0.071939
2359.78	0.442766
2361.19	-0.0335226
2362.6	0.0586109
2364	0.247612
2365.41	0.0640726
2366.82	-0.0704126
2368.22	0.457853
2369.63	-0.143014
2371.03	0.257624
2372.44	0.0468006
2373.84	0.15914
2375.25	0.0785599
2376.65	0.110309
2378.06	0.253579
2379.46	0.073873
2380.86	-0.0107207
2382.27	0.176172
2383.67	0.0895753
2385.07	-0.220928
2386.48	0.0128579
2387.88	0.246943
2389.28	-0.0604253
2390.69	-0.127176
2392.09	0.0141659
2393.49	0.251695
2394.89	0.0285344
2396.29	-0.00303555
2397.69	-0.161163
2399.09	0.142078
2400.49	-0.269229
2401.89	0.288757
2403.29	0.417818
2404.69	0.244787
2406.09	-0.119456
2407.49	0.00761271
2408.89	0.260743
2410.29	0.497471
2411.69	0.480694
2413.08	0.322195
2414.48	-0.0249944
2415.88	0.10417
2417.28	0.282013
2418.67	0.239048
2420.07	-0.15205
2421.47	0.185247
2422.86	-0.111388
2424.26	0.510638
2425.65	0.197947
2427.05	0.170923
2428.45	0.0178528
2429.84	0.166857
2431.23	0.284873
2432.63	0.514251
2434.02	0.314498
2435.42	-0.140642
2436.81	0.244825
2438.2	0.120505
2439.6	0.376283
2440.99	0.392895
2442.38	0.170887
2443.78	0.059866
2445.17	0.3453
2446.56	0.344966
2447.95	0.487128
2449.34	0.359873
2450.73	0.0587778
2452.13	0.296535
2453.52	0.487391
2454.91	0.0145178
2456.3	0.222586
2457.69	0.335995
2459.08	0.417589
2460.47	0.308839
2461.85	0.325861
2463.24	0.0102301
2464.63	0.0102911
2466.02	0.183799
2467.41	-0.416394
2468.8	-0.100983
2470.19	-0.101459
2471.57	0.102567
2472.96	0.494767
2474.35	-0.34212
2475.73	-0.281751
2477.12	-0.111774
2478.51	0.120704
2479.89	0.196043
2481.28	-0.0578499
2482.66	-0.139081
2484.05	-0.0953746
2485.43	-0.0368938
2486.82	0.223549
2488.2	0.107913
2489.59	0.21007
2490.97	0.265154
2492.35	-0.130181
2493.74	0.31479
2495.12	0.108586
2496.5	0.322351
2497.89	0.0874004
2499.27	0.131596
2500.65	0.206339
2502.03	-0.0906606
2503.42	-0.171852
2504.8	-0.0531464
2506.18	-0.305009
2507.56	0.166812
2508.94	0.14577
2510.32	-0.120539
2511.7	0.13586
2513.08	0.223877
2514.46	0.113423
2515.84	0.463072
2517.22	-0.120087
2518.6	-0.258768
2519.98	0.4127
2521.36	-0.260769
2522.73	-0.186149
2524.11	0.177424
2525.49	0.265481
2526.87	-0.21024
2528.25	-0.000145435
2529.62	-0.0630708
2531	0.31622
2532.38	0.423284
2533.75	0.349246
2535.13	0.1847
2536.5	0.17202
2537.88	0.219478
2539.25	0.266041
2540.63	0.068902
2542.01	0.023355
2543.38	-0.173624
2544.75	0.358353
2546.13	0.117754
2547.5	-0.0610909
2548.88	0.21589
2550.25	0.159165
2551.62	-0.125672
2553	0.226056
2554.37	0.227795
2555.74	0.152863
2557.11	0.107813
2558.49	0.153656
2559.86	0.154237
2561.23	0.231077
2562.6	-0.176482
2563.97	0.28029
2565.34	-0.0202746
2566.71	0.361304
2568.08	0.106474
2569.45	-0.0119805
2570.82	0.233315
2572.19	-0.0215387
2573.56	-0.0186548
2574.93	0.242015
2576.3	-0.315946
2577.67	0.126632
2579.03	0.159659
2580.4	-0.0502501
2581.77	0.148876
2583.14	0.48409
2584.5	0.167154
2585.87	0.471717
2587.24	0.0184965
2588.6	0.0353293
2589.97	0.325028
2591.34	0.0084219
2592.7	0.418724
2594.07	0.388825
2595.43	0.251991
2596.8	0.205146
2598.16	0.293783
2599.53	-0.313464
2600.89	0.0773339
2602.26	0.543653
2603.62	0.13463
2604.98	0.390365
2606.35	0.148292
2607.71	0.102104
2609.07	-0.291444
2610.44	0.248224
2611.8	0.108694
2613.16	0.284122
2614.52	0.248227
2615.88	-0.0129056
2617.25	-0.12339
2618.61	0.126279
2619.97	0.331304
2621.33	0.207715
2622.69	-0.139359
2624.05	0.126423
2625.41	0.600696
2626.77	0.0749974
2628.13	-0.0330334
2629.49	-0.111395
2630.85	0.00358677
2632.21	0.148015
2633.56	0.113919
2634.92	-0.38025
2636.28	0.194076
2637.64	0.204389
2639	0.288754
2640.35	0.28436
2641.71	0.280202
2643.07	0.630837
2644.42	0.0215721
2645.78	-0.100113
2647.14	-0.133541
2648.49	0.303794
2649.85	-0.0255828
2651.2	0.247795
2652.56	0.285379
2653.91	0.337768
2655.27	0.346775
2656.62	0.268897
2657.98	0.2068
2659.33	-0.0299768
2660.68	0.230941
2662.04	0.0384154
2663.39	0.35675
2664.74	0.586358
2666.1	-0.118492
2667.45	0.445186
2668.8	-0.11333
2670.15	-0.015986
2671.5	0.110747
2672.86	0.29598
2674.21	-0.0267029
2675.56	-0.392098
2676.91	0.258885
2678.26	0.199299
2679.61	0.082499
2680.96	0.677066
2682.31	0.09834
2683.66	0.376097
2685.01	-0.0559096
2686.36	0.078083
2687.71	0.400661
2689.06	0.170642
2690.4	0.534273
2691.75	-0.0908246
2693.1	0.371254
2694.45	0.107025
2695.8	0.379139
2697.14	0.637071
2698.49	-0.0742006
2699.84	0.142954
2701.18	0.303717
2702.53	0.00235701
2703.88	0.397249
2705.22	0.676956
2706.57	0.304254
2707.91	0.221179
2709.26	0.32638
2710.6	0.12635
2711.95	0.0276299
2713.29	0.103088
2714.64	-0.141257
2715.98	0.00676918
2717.32	0.489263
2718.67	0.215276
2720.01	0.23184
2721.35	0.378978
2722.7	0.394709
2724.04	0.278998
2725.38	0.774219
2726.72	0.0318761
2728.06	-0.0266299
2729.4	0.700475
2730.75	0.568799
2732.09	0.291636
2733.43	0.0291581
2734.77	0.494156
2736.11	0.144763
2737.45	0.537253
2738.79	0.217054
2740.13	0.0566244
2741.47	0.404697
2742.81	0.0106697
2744.15	0.226589
2745.48	0.107681
2746.82	0.409596
2748.16	0.464333
2749.5	0.286913
2750.84	0.47239
2752.17	0.339005
2753.51	-0.257847
2754.85	0.159989
2756.19	0.31697
2757.52	0.0251427
2758.86	-0.237359
2760.19	-0.00734138
2761.53	0.324313
2762.86	0.0485864
2764.2	0.0480676
2765.54	0.0909228
2766.87	-0.0981231
2768.2	0.0158176
2769.54	0.070714
2770.87	0.109822
2772.21	0.190991
2773.54	0.429817
2774.88	0.235265
2776.21	0.228265
2777.54	0.20721
2778.87	0.30171
2780.21	0.166621
2781.54	0.0319924
2782.87	0.0411134
2784.2	0.222259
2785.53	-0.141472
2786.87	0.0253754
2788.2	0.00637722
2789.53	0.217
2790.86	-0.615804
2792.19	0.397001
2793.52	-0.391453
2794.85	-0.25058
2796.18	-0.138646
2797.51	0.0727253
2798.84	-0.0592246
2800.17	0.308064
2801.49	-0.152593
2802.82	-0.0284142
2804.15	0.465902
2805.48	-0.251324
2806.81	0.0423307
2808.13	0.150124
2809.46	-0.154747
2810.79	0.137302
2812.12	-0.0813856
2813.44	-0.0577016
2814.77	-0.0327768
2816.09	0.149304
2817.42	0.374843
2818.75	0.260716
2820.07	0.401703
2821.4	0.0036931
2822.72	0.129484
2824.05	-0.0428462
2825.37	-0.00293064
2826.7	0.447671
2828.02	0.0207491
2829.35	0.429689
2830.67	0.343526
2831.99	0.370799
2833.31	0.412156
2834.64	0.580591
2835.96	0.677765
2837.28	0.519718
2838.61	0.573524
2839.93	0.754395
2841.25	0.963546
2842.57	0.904434
2843.89	0.860084
2845.21	1.52302
2846.53	1.53644
2847.85	1.66327
2849.17	1.63464
2850.49	1.40783
2851.81	1.73177
2853.13	1.61707
2854.45	1.7705
2855.77	1.90958
2857.09	1.65308
2858.41	2.06054
2859.73	2.21366
2861.05	2.28183
2862.36	2.26495
2863.68	2.26182
2865	2.75229
2866.32	2.56539
2867.64	2.68909
2868.95	3.15159
2870.27	3.26191
2871.59	3.13272
2872.9	3.60928
2874.22	3.33808
2875.53	3.4885
2876.85	3.65173
2878.16	3.56068
2879.48	3.51164
2880.79	3.95494
2882.11	4.00532
2883.42	3.43884
2884.74	3.82845
2886.05	3.95178
2887.36	3.73828
2888.68	3.31392
2889.99	3.59037
2891.3	3.85172
2892.62	3.94405
2893.93	3.89604
2895.24	4.08653
2896.55	3.89981
2897.86	3.65833
2899.18	4.13154
2900.49	4.39559
2901.8	4.21245
2903.11	4.26734
2904.42	4.12655
2905.73	4.54554
2907.04	4.78331
2908.35	3.9728
2909.66	4.4921
2910.97	5.08217
2912.28	5.16853
2913.59	5.5341
2914.9	5.35216
2916.21	5.30838
2917.51	5.79478
2918.82	6.09795
2920.13	6.13504
2921.44	6.06104
2922.74	6.3519
2924.05	6.2948
2925.36	6.77013
2926.67	6.72895
2927.97	6.81362
2929.28	7.16348
2930.59	7.19116
2931.89	7.24625
2933.2	7.30105
2934.5	6.83869
2935.81	6.86568
2937.11	7.01863
2938.42	6.48706
2939.72	6.8781
2941.02	6.59898
2942.33	6.67019
2943.63	6.40734
2944.94	6.08998
2946.24	5.66182
2947.54	4.94013
2948.85	5.29536
2950.15	5.3556
2951.45	5.35796
2952.75	4.85422
2954.05	4.81116
2955.36	4.93575
2956.66	5.07526
2957.96	4.41912
2959.26	4.36757
2960.56	4.09464
2961.86	4.07574
2963.16	3.98738
2964.46	4.27738
2965.76	3.65318
2967.06	3.40623
2968.36	4.14196
2969.66	3.31645
2970.96	3.43283
2972.26	3.69027
2973.56	3.526
2974.85	3.38979
2976.15	3.30919
2977.45	3.19914
2978.75	3.01699
2980.05	2.9036
2981.34	2.6061
2982.64	2.5193
2983.94	2.34859
2985.23	2.17906
2986.53	2.15157
2987.83	2.23789
2989.12	1.90358
2990.42	1.71001
2991.71	1.88139
2993.01	1.61612
2994.3	1.23737
2995.6	1.58819
2996.89	1.57306
2998.19	1.12275
2999.48	1.19207
3000.77	1.10762
3002.07	1.19198
3003.36	1.29069
3004.65	1.02525
3005.95	0.647698
3007.24	0.717827
3008.53	0.703203
3009.82	0.827623
3011.12	0.783543
3012.41	0.250532
3013.7	0.276378
3014.99	0.344404
3016.28	0.259751
3017.57	0.0784354
3018.86	-0.213522
3020.15	0.0511889
3021.44	0.162345
3022.73	0.0226374
3024.02	0.437383
3025.31	-0.355374
3026.6	-0.121869
3027.89	0.153155
3029.18	-0.234878
3030.47	0.235574
3031.76	0.113036
3033.04	0.115795
3034.33	-0.101955
3035.62	0.162815
3036.91	-0.0839276
3038.19	-0.0150118
3039.48	-0.236811
3040.77	0.0491261
3042.05	0.443348
3043.34	0.0963979
3044.63	0.0386472
3045.91	0.0098958
3047.2	0.0787959
3048.48	0.354512
3049.77	-0.0367746
3051.05	0.0784307
3052.34	0.262601
3053.62	-0.0580597
3054.91	0.0300846
3056.19	0.212785
3057.48	0.0127268
3058.76	0.0302134
3060.04	0.101969
3061.33	0.228467
3062.61	0.342155
3063.89	0.280314
3065.17	-0.0791368
3066.46	0.364834
3067.74	-0.0739923
3069.02	0.153792
3070.3	-0.10819
3071.59	-0.0172677
3072.87	0.113413
3074.15	0.0526633
3075.43	0.235776
3076.71	0.255517
3077.99	0.35713
3079.27	0.0662417
3080.55	0.0617781
3081.83	-0.239675
3083.11	-0.0923538
3084.39	-0.283566
3085.67	0.122405
3086.94	0.0123649
3088.22	0.2275
3089.5	0.00776625
3090.78	0.167685
3092.06	-0.364402
3093.34	-0.0686855
3094.61	-0.0168571
3095.89	-0.0460901
3097.17	-0.170066
3098.44	0.0719552
3099.72	0.30026
3101	-0.243683
3102.27	-0.0152903
3103.55	0.186219
3104.82	0.0227156
3106.1	0.103596
3107.38	0.117692
3108.65	0.0651135
3109.93	0.1489
3111.2	-0.0642371
3112.47	-0.0329499
3113.75	0.080102
3115.02	0.450865
3116.3	0.523179
3117.57	0.228579
3118.84	0.15004
3120.12	0.341837
3121.39	0.098948
3122.66	0.167515
3123.93	0.235949
3125.2	0.494131
3126.48	0.36011
3127.75	0.0103226
3129.02	0.445724
3130.29	0.340452
3131.56	0.411146
3132.83	0.157454
3134.1	0.457463
3135.37	0.338354
3136.64	0.245955
3137.91	0.369028
3139.18	0.424314
3140.45	0.331434
3141.72	0.534722
3142.99	0.670835
3144.26	0.391119
3145.53	0.313715
3146.8	0.612453
3148.07	0.402441
3149.33	0.541423
