200.419	0.624478
202.234	0.665359
204.048	0.707175
205.862	0.0933685
207.678	0.136711
209.491	0.835194
211.304	0.608332
213.116	-0.0814619
214.928	0.465011
216.742	0.573418
218.554	1.02052
220.365	0.184853
222.176	0.125266
223.986	0.381008
225.798	-0.450383
227.608	-0.556542
229.417	0.37499
231.226	0.41173
233.035	-0.444792
234.843	0.411693
236.653	0.907411
238.46	0.53781
240.268	0.846285
242.074	-0.0237312
243.881	0.916388
245.687	1.13308
247.493	1.61323
249.298	1.12376
251.103	0.653899
252.908	0.590619
254.715	0.476598
256.519	0.699386
258.322	0.922824
260.126	0.49766
261.929	0.966335
263.731	1.02756
265.534	0.560018
267.336	0.815603
269.137	1.0225
270.938	0.312037
272.739	0.419498
274.54	0.452598
276.34	-0.0228462
278.14	0.704293
279.939	0.271875
281.739	0.101886
283.537	-0.310913
285.336	0.548408
287.134	0.492761
288.932	0.556917
290.729	0.0947466
292.526	0.831659
294.323	0.971457
296.117	0.754318
297.913	1.13621
299.709	0.204352
301.504	1.04019
303.299	0.680393
305.093	0.891873
306.888	0.672388
308.682	0.929429
310.475	0.61495
312.268	0.349797
314.059	0.372506
315.852	0.183199
317.644	0.353267
319.436	0.668228
321.227	1.27088
323.018	0.968928
324.807	1.1443
326.597	1.22447
328.387	0.707018
330.177	0.95293
331.967	1.46051
333.753	0.697926
335.542	0.793533
337.331	1.6517
339.119	0.592697
340.906	0.943076
342.691	0.813832
344.478	1.23406
346.265	1.5112
348.051	1.00107
349.835	0.969224
351.621	0.961245
353.406	0.928582
355.189	0.560474
356.973	0.73924
358.757	0.463184
360.541	0.90028
362.323	0.550103
364.106	0.746267
365.889	0.774745
367.669	1.01565
369.451	0.922865
371.233	0.378972
373.012	0.568706
374.793	0.426558
376.574	0.756821
378.353	0.568179
380.133	-0.231477
381.91	0.148541
383.69	0.3884
385.469	0.653066
387.245	0.425548
389.024	0.270059
390.8	0.796942
392.577	0.103533
394.353	0.373741
396.129	0.362573
397.906	0.727259
399.68	1.04471
401.456	0.680412
403.23	0.268231
405.005	0.724062
406.778	0.638636
408.552	0.669776
410.325	0.489128
412.099	0.449343
413.87	0.691618
415.643	1.07551
417.414	0.967673
419.187	0.79026
420.957	0.753927
422.728	0.271231
424.498	0.257014
426.269	0.499832
428.038	0.412836
429.806	0.0434961
431.576	-0.138103
433.344	0.549008
435.114	0.626298
436.881	-0.305676
438.649	-0.0885105
440.416	0.197179
442.182	0.644329
443.949	-0.248066
445.715	0.0296278
447.48	0.305278
449.247	0.766835
451.011	0.66692
452.777	0.334121
454.541	-0.114487
456.304	-0.0263805
458.069	0.387403
459.832	-0.0837069
461.594	-0.646361
463.358	0.118239
465.119	0.257842
466.881	0.981947
468.642	0.0596876
470.404	0.0460482
472.165	-0.432206
473.925	0.717866
475.684	-0.0431967
477.445	0.310739
479.204	0.173103
480.963	0.73291
482.721	0.267984
484.481	0.0374441
486.239	1.3701
487.996	0.142866
489.753	0.479512
491.511	0.748033
493.268	0.854354
495.023	-0.605721
496.779	0.974432
498.534	0.284445
500.289	0.601002
502.046	0.823392
503.8	1.27982
505.554	0.41914
507.307	0.919575
509.06	0.383322
510.813	1.91528
512.566	4.45724
514.32	3.93782
516.072	0.922688
517.823	0.941216
519.574	-0.075963
521.325	0.786492
523.076	0.80201
524.826	1.19275
526.576	1.13733
528.325	1.082
530.074	1.30781
531.823	0.994143
533.572	0.890436
535.32	0.64497
537.068	1.02903
538.815	1.06028
540.562	1.41632
542.309	1.21137
544.056	0.959846
545.802	0.755343
547.547	1.50314
549.293	0.719512
551.038	0.841065
552.783	1.17079
554.527	0.044364
556.271	0.25944
558.015	0.981921
559.759	0.183125
561.502	-0.544476
563.245	0.408953
564.987	0.442317
566.729	0.154903
568.471	0.419864
570.213	0.0663614
571.954	-0.0786591
573.693	0.0766745
575.433	-0.0180721
577.173	0.371183
578.913	0.441083
580.652	0.443204
582.392	0.376583
584.13	-0.127558
585.867	0.240567
587.605	-0.289829
589.343	-0.292756
591.08	-0.457896
592.817	0.13556
594.552	0.383706
596.289	0.309811
598.025	0.350939
599.761	-0.413572
601.496	0.500293
603.229	0.193329
604.964	-0.138306
606.699	-0.264485
608.433	-0.0470819
610.165	0.00923443
611.898	0.134889
613.631	0.0551033
615.364	0.0908747
617.095	0.562215
618.827	0.391314
620.559	-0.0325918
622.288	0.343101
624.02	-0.380124
625.75	0.588086
627.479	0.0953112
629.209	-0.00652599
630.939	0.396696
632.667	0.209323
634.396	1.09606
636.125	0.202233
637.851	1.01818
639.58	1.30538
641.305	0.288189
643.033	0.522621
644.76	0.846027
646.485	0.168331
648.212	0.176028
649.936	-0.0167656
651.662	0.0680361
653.388	0.657953
655.111	-0.293799
656.836	-0.0830078
658.558	-0.212417
660.283	0.592995
662.005	0.370249
663.728	0.0985241
665.45	0.0749397
667.173	0.346188
668.893	0.479304
670.616	0.681946
672.336	0.315165
674.057	0.248873
675.777	0.50617
677.498	0.71979
679.216	0.497739
680.937	0.366006
682.655	0.0707426
684.375	0.324897
686.092	0.415524
687.809	0.596297
689.528	0.637498
691.244	0.60866
692.962	0.648121
694.678	0.0417347
696.393	-0.0360365
698.111	0.114966
699.825	0.701515
701.54	0.43506
703.256	0.673325
704.97	0.588834
706.685	0.503779
708.398	0.578877
710.111	0.355514
711.826	0.635712
713.538	0.754947
715.25	-0.520283
716.961	-0.103693
718.675	0.836928
720.386	0.932873
722.096	0.482362
723.808	0.191968
725.518	0.288438
727.228	0.429832
728.937	0.52509
730.648	0.392885
732.357	0.192558
734.065	0.739029
735.773	0.131757
737.483	1.03902
739.19	0.637031
740.897	0.597658
742.604	0.0868483
744.31	0.636501
746.018	0.309777
747.724	0.839954
749.429	0.876785
751.134	0.645412
752.839	0.438204
754.544	0.705136
756.248	0.163938
757.953	0.00697994
759.657	0.662699
761.36	0.0807428
763.063	0.626772
764.765	0.970133
766.468	0.521796
768.169	1.42706
769.871	1.56138
771.572	1.26341
773.273	1.34799
774.976	1.36409
776.676	1.17739
778.376	1.21847
780.075	0.944911
781.775	0.604806
783.474	0.96631
785.172	1.07769
786.871	1.1183
788.569	0.724963
790.266	0.621963
791.964	1.35201
793.661	0.769054
795.358	1.63055
797.054	0.823809
798.75	0.583462
800.446	1.89874
802.141	1.43726
803.834	0.819705
805.529	0.831944
807.224	0.865673
808.918	1.39199
810.612	1.51221
812.305	1.38439
813.998	1.32326
815.691	1.88876
817.384	1.22303
819.076	1.54189
820.766	1.88281
822.458	1.71047
824.149	0.959732
825.84	1.30363
827.531	1.47169
829.221	1.46504
830.909	1.75184
832.599	1.08451
834.288	1.26638
835.977	1.31598
837.666	1.00839
839.353	1.1903
841.041	1.3704
842.729	0.833955
844.416	0.944695
846.103	1.16805
847.788	1.66208
849.475	1.28721
851.161	1.09417
852.845	2.22566
854.53	2.23894
856.216	2.1847
857.901	2.73594
859.583	2.31827
861.268	1.98758
862.952	2.14992
864.633	1.54441
866.317	2.2448
868	2.40351
869.681	2.31358
871.363	1.63669
873.045	0.575809
874.725	0.868361
876.406	1.40926
878.088	1.40867
879.767	0.392187
881.447	0.932737
883.125	1.38218
884.805	1.01754
886.483	0.673833
888.162	1.05035
889.841	1.22158
891.518	1.00761
893.196	0.521983
894.872	0.890745
896.55	0.740453
898.225	0.993445
899.902	0.930658
901.577	0.911828
903.254	0.780438
904.928	1.05143
906.604	1.63452
908.277	0.567277
909.952	0.216194
911.625	0.423154
913.3	1.34176
914.972	1.34877
916.646	0.35759
918.318	0.897439
919.991	0.727877
921.662	1.33361
923.333	0.613523
925.005	0.382472
926.675	1.10338
928.347	0.987155
930.017	1.00502
931.686	0.648725
933.357	0.689988
935.025	1.32702
936.693	1.12638
938.363	1.36796
940.031	0.817127
941.698	0.53242
943.367	1.19737
945.034	0.163027
946.7	1.00328
948.368	0.252024
950.034	0.822774
951.699	1.12691
953.367	0.0634727
955.031	0.281353
956.696	0.326114
958.36	0.727804
960.026	0.824418
961.689	0.260528
963.353	0.4694
965.016	0.543819
966.68	0.747772
968.343	1.34653
970.005	0.415955
971.666	0.258719
973.328	0.87608
974.991	-0.340319
976.652	0.900243
978.312	0.727407
979.972	0.666008
981.632	0.604128
983.292	0.562715
984.953	0.651719
986.612	0.693826
988.27	0.246908
989.929	0.882365
991.587	0.56598
993.244	0.316004
994.902	0.132656
996.559	-0.403314
998.216	-0.166956
999.872	1.06048
1001.53	0.788415
1003.19	0.450155
1004.84	0.683736
1006.5	0.0158453
1008.15	0.930144
1009.81	0.614698
1011.46	0.782697
1013.11	0.622328
1014.77	1.11977
1016.42	0.500711
1018.07	0.736296
1019.73	0.141584
1021.38	0.641787
1023.03	0.727798
1024.68	0.683894
1026.34	0.946699
1027.99	0.313667
1029.64	1.03451
1031.29	0.312054
1032.94	1.55288
1034.59	0.848459
1036.24	0.295779
1037.89	1.09356
1039.53	1.56343
1041.18	0.945876
1042.83	1.00471
1044.48	1.17437
1046.13	1.67226
1047.77	1.84675
1049.42	1.1765
1051.07	0.790204
1052.71	1.07831
1054.36	1.10629
1056	0.373569
1057.65	-0.229363
1059.3	0.384491
1060.94	0.628051
1062.59	0.566235
1064.23	0.698953
1065.87	0.982491
1067.52	1.17756
1069.16	1.19741
1070.8	1.10779
1072.44	0.236607
1074.09	0.690311
1075.73	0.581015
1077.37	0.842122
1079.01	0.887915
1080.65	0.869659
1082.29	0.873108
1083.93	0.0732307
1085.57	0.658998
1087.21	0.678458
1088.85	0.608643
1090.49	0.66652
1092.13	0.787625
1093.77	1.23176
1095.41	0.984844
1097.04	1.06279
1098.68	1.14235
1100.32	1.00883
1101.95	1.3083
1103.59	0.405223
1105.23	0.816256
1106.86	0.0665483
1108.5	1.10159
1110.13	0.672856
1111.77	0.951641
1113.4	0.862899
1115.04	0.579412
1116.67	0.788937
1118.31	0.783903
1119.94	1.10109
1121.57	0.77683
1123.2	1.61001
1124.84	1.01038
1126.47	0.882836
1128.1	0.499749
1129.73	0.481172
1131.36	0.548842
1132.99	0.0396881
1134.62	0.62063
1136.25	0.687713
1137.88	0.411573
1139.51	0.198179
1141.14	0.474751
1142.77	0.323613
1144.4	0.471362
1146.03	1.15277
1147.66	0.172638
1149.28	0.706854
1150.91	-0.206976
1152.54	0.242535
1154.16	0.542371
1155.79	-0.0310698
1157.42	-0.285184
1159.04	-0.0920715
1160.67	-0.0681715
1162.29	-0.319363
1163.92	0.196093
1165.54	0.58461
1167.17	0.760219
1168.79	0.339196
1170.41	0.277575
1172.04	0.171111
1173.66	-0.425741
1175.28	-0.089776
1176.9	0.096633
1178.53	-0.246602
1180.15	0.0676699
1181.77	0.509522
1183.39	0.444285
1185.01	0.231288
1186.63	0.41863
1188.25	-0.0714674
1189.87	0.32222
1191.49	-0.129428
1193.11	0.826903
1194.73	0.624792
1196.35	0.17164
1197.96	0.411797
1199.58	0.0260773
1201.2	0.229022
1202.82	1.14479
1204.43	0.330678
1206.05	0.187466
1207.66	0.129391
1209.28	0.259435
1210.9	0.993323
1212.51	0.619666
1214.13	0.222736
1215.74	0.677282
1217.36	0.0262489
1218.97	0.455842
1220.58	0.510694
1222.2	1.10545
1223.81	1.14124
1225.42	0.806213
1227.04	1.57027
1228.65	1.57008
1230.26	1.61292
1231.87	0.892488
1233.48	0.959229
1235.1	1.58554
1236.71	1.44871
1238.32	1.72663
1239.93	1.46793
1241.53	1.12661
1243.14	1.55018
1244.75	1.64185
1246.36	1.54597
1247.97	1.11767
1249.58	1.32984
1251.19	1.7691
1252.8	1.69137
1254.4	1.67662
1256.01	1.16683
1257.62	1.38256
1259.22	2.11716
1260.83	1.40442
1262.43	1.74786
1264.04	2.11231
1265.64	1.48179
1267.25	1.80345
1268.85	1.25327
1270.46	2.04932
1272.06	1.74513
1273.66	1.85424
1275.27	1.13288
1276.87	1.32246
1278.48	2.44303
1280.08	1.63619
1281.68	2.3405
1283.28	2.15474
1284.88	1.63894
1286.48	1.93089
1288.08	1.89334
1289.68	1.60901
1291.28	1.69735
1292.88	2.28144
1294.48	2.49255
1296.08	2.20618
1297.68	2.1656
1299.28	1.87525
1300.88	2.01623
1302.48	2.07294
1304.07	2.68392
1305.67	1.91524
1307.27	2.33862
1308.87	2.06316
1310.46	2.52603
1312.06	2.82465
1313.65	2.06015
1315.25	2.56528
1316.85	2.37663
1318.44	2.02583
1320.03	2.22585
1321.63	2.36327
1323.22	2.27454
1324.82	2.24466
1326.41	2.25357
1328	2.22111
1329.6	2.29065
1331.19	2.30141
1332.78	2.17363
1334.37	2.57398
1335.96	2.28994
1337.56	2.69271
1339.15	2.75151
1340.74	2.06273
1342.33	2.07662
1343.92	2.69088
1345.51	2.4991
1347.1	1.8266
1348.69	1.97903
1350.28	2.13433
1351.86	2.15277
1353.45	1.45417
1355.04	1.61719
1356.63	1.54081
1358.21	1.5838
1359.8	1.80528
1361.39	1.54614
1362.97	1.62529
1364.56	1.90322
1366.15	1.26459
1367.73	1.62331
1369.32	2.62024
1370.9	1.36962
1372.49	1.21563
1374.07	1.5207
1375.65	1.94601
1377.24	1.41634
1378.82	2.15954
1380.41	1.82689
1381.99	1.03512
1383.57	1.97223
1385.15	1.69478
1386.73	1.45668
1388.32	1.35798
1389.9	1.08151
1391.48	1.71912
1393.06	1.36548
1394.64	1.74633
1396.22	1.21465
1397.8	2.20873
1399.38	1.27872
1400.96	1.4376
1402.54	2.50609
1404.11	2.20826
1405.69	1.02159
1407.27	1.83333
1408.85	1.67739
1410.43	1.91725
1412	2.03845
1413.58	1.6653
1415.16	1.48858
1416.73	1.54758
1418.31	1.94104
1419.88	1.96017
1421.46	1.98063
1423.03	2.3968
1424.61	2.28357
1426.18	1.95554
1427.76	2.67141
1429.33	3.34758
1430.9	3.31391
1432.48	2.57016
1434.05	2.632
1435.62	3.6175
1437.2	3.34434
1438.77	3.17062
1440.34	3.54862
1441.91	3.08286
1443.48	4.24928
1445.05	3.17578
1446.62	3.45862
1448.19	3.54512
1449.76	4.39874
1451.33	3.01173
1452.9	3.74891
1454.47	3.89682
1456.04	3.25772
1457.61	3.50305
1459.17	3.33336
1460.74	3.2203
1462.31	2.7899
1463.88	3.0655
1465.44	2.21896
1467.01	2.74789
1468.58	2.31465
1470.14	2.35396
1471.71	2.7282
1473.27	2.67217
1474.84	2.20542
1476.4	1.89622
1477.97	2.05773
1479.53	1.90547
1481.1	1.4787
1482.66	1.97298
1484.22	1.95749
1485.78	2.2158
1487.35	1.55248
1488.91	1.82764
1490.47	2.68714
1492.03	2.4085
1493.59	1.54142
1495.16	2.27364
1496.72	2.24266
1498.28	1.62762
1499.84	1.4035
1501.4	0.77356
1502.96	1.2906
1504.52	1.55586
1506.08	0.87246
1507.64	1.29191
1509.19	0.627381
1510.75	0.71547
1512.31	0.686647
1513.87	0.869109
1515.42	1.41649
1516.98	0.254587
1518.54	0.477006
1520.1	0.297377
1521.65	0.577617
1523.21	1.3347
1524.76	0.218117
1526.32	0.53312
1527.87	0.960433
1529.43	0.225956
1530.98	0.461868
1532.54	1.11484
1534.09	0.346857
1535.64	1.34104
1537.2	1.08713
1538.75	0.721359
1540.3	1.07332
1541.85	0.652331
1543.41	0.871925
1544.96	1.14723
1546.51	0.538918
1548.06	1.24506
1549.61	1.48109
1551.16	1.24871
1552.71	1.46637
1554.26	1.068
1555.81	0.746625
1557.36	0.894384
1558.91	1.11896
1560.46	1.47629
1562.01	1.21995
1563.56	1.39405
1565.1	1.2517
1566.65	0.94148
1568.2	1.45211
1569.75	1.30906
1571.29	1.09083
1572.84	1.58158
1574.38	1.26944
1575.93	1.424
1577.48	1.03741
1579.02	1.06198
1580.57	1.5354
1582.11	1.33758
1583.65	1.2154
1585.2	1.4304
1586.74	1.23487
1588.29	1.31989
1589.83	1.34858
1591.37	1.56394
1592.92	1.49798
1594.46	1.78746
1596	1.60875
1597.54	1.93645
1599.08	1.7402
1600.62	1.76974
1602.16	1.81865
1603.7	2.07415
1605.24	1.55879
1606.78	2.22533
1608.32	1.57399
1609.86	1.57759
1611.4	2.02926
1612.94	1.63297
1614.48	1.6296
1616.02	1.73819
1617.56	1.84716
1619.09	1.05816
1620.63	1.39527
1622.17	1.75255
1623.71	1.4555
1625.24	2.30042
1626.78	1.40359
1628.31	1.31016
1629.85	1.88832
1631.39	1.10022
1632.92	2.12428
1634.46	1.39276
1635.99	1.95036
1637.52	2.30344
1639.06	1.81811
1640.59	1.87364
1642.12	2.41273
1643.66	2.13064
1645.19	1.97757
1646.72	1.67477
1648.25	2.28249
1649.79	2.29558
1651.32	2.03151
1652.85	1.69509
1654.38	2.38007
1655.91	1.7865
1657.44	3.26846
1658.97	2.28496
1660.5	2.50397
1662.03	2.07334
1663.56	2.58461
1665.09	2.50323
1666.62	2.40394
1668.15	2.1955
1669.67	2.54216
1671.2	2.2087
1672.73	1.78478
1674.26	1.93255
1675.79	2.06155
1677.31	1.8582
1678.84	1.58007
1680.36	1.98118
1681.89	2.28896
1683.42	1.05344
1684.94	1.41608
1686.47	1.24682
1687.99	0.913332
1689.51	1.22182
1691.04	1.3655
1692.56	0.978402
1694.08	1.15864
1695.61	0.735169
1697.13	1.04272
1698.65	1.16688
1700.18	1.10786
1701.7	0.829403
1703.22	0.678219
1704.74	0.745107
1706.26	1.15703
1707.78	0.258972
1709.3	0.179708
1710.82	0.826571
1712.35	0.692819
1713.86	0.323942
1715.39	0.462609
1716.9	0.763763
1718.42	0.485909
1719.94	0.569568
1721.46	0.3285
1722.98	0.2507
1724.5	0.588522
1726.01	0.981494
1727.53	0.871711
1729.05	0.331314
1730.56	0.11423
1732.08	0.253034
1733.6	-0.222871
1735.11	0.415116
1736.63	0.676032
1738.14	-0.00750637
1739.66	0.207234
1741.17	0.541584
1742.69	-0.0989475
1744.2	-0.142314
1745.71	0.446564
1747.23	0.152571
1748.74	-0.017024
1750.25	0.156907
1751.77	0.16878
1753.28	-0.309651
1754.79	0.394207
1756.3	-0.0423098
1757.81	-0.521173
1759.33	-0.0178947
1760.84	0.0690374
1762.35	-0.00949478
1763.86	0.182277
1765.37	0.17018
1766.88	0.110565
1768.39	-0.276529
1769.9	0.202269
1771.41	-0.0143433
1772.91	0.221074
1774.42	-0.247738
1775.93	0.0719099
1777.44	-0.200108
1778.95	0.233576
1780.45	0.218994
1781.96	-0.216269
1783.47	0.2275
1784.97	0.498747
1786.48	0.426467
1787.99	0.203282
1789.49	0.271626
1791	0.435149
1792.5	-0.069643
1794.01	0.15206
1795.51	-0.0604639
1797.01	0.554568
1798.52	0.113244
1800.02	0.126369
1801.52	-0.118085
1803.03	-0.0276642
1804.53	0.570468
1806.03	0.191787
1807.54	0.187427
1809.04	0.441493
1810.54	0.426959
1812.04	0.0961208
1813.54	-0.163407
1815.04	0.175092
1816.54	0.352278
1818.04	0.177688
1819.54	-0.140392
1821.04	0.248075
1822.54	0.114495
1824.04	0.400808
1825.54	0.311356
1827.04	0.234942
1828.54	0.152453
1830.03	-0.0712528
1831.53	0.174319
1833.03	0.170981
1834.53	0.20504
1836.02	0.114155
1837.52	0.128325
1839.02	0.178792
1840.51	0.244554
1842.01	0.13666
1843.5	0.134211
1845	0.0877657
1846.49	-0.125243
1847.99	0.389894
1849.48	0.00705814
1850.98	0.1853
1852.47	0.491546
1853.96	0.155452
1855.46	0.267823
1856.95	0.144561
1858.44	0.442484
1859.94	-0.00637341
1861.43	0.0407906
1862.92	0.120531
1864.41	0.306634
1865.9	0.174769
1867.39	0.074398
1868.88	0.335864
1870.37	0.298721
1871.86	-0.130969
1873.35	-0.0383072
1874.84	0.0106163
1876.33	0.317802
1877.82	0.0368509
1879.31	0.092268
1880.8	-0.187491
1882.29	-0.388693
1882.58	-0.419143
1884.08	-0.00227165
1885.57	0.413435
1887.06	0.392365
1888.56	0.318552
1890.05	0.24506
1891.54	0.329283
1893.04	0.397882
1894.53	-0.226913
1896.02	-0.0155115
1897.51	-0.0988226
1899	0.0438147
1900.5	-0.232168
1901.99	0.238114
1903.48	0.0628099
1904.97	0.233724
1906.46	0.368876
1907.95	-0.19071
1909.44	0.188189
1910.93	0.671934
1912.42	0.445215
1913.91	-0.0756187
1915.4	0.0280724
1916.88	0.0966768
1918.37	0.181988
1919.86	0.284089
1921.35	0.212834
1922.84	0.471095
1924.32	-0.169994
1925.81	0.592518
1927.3	0.334816
1928.78	0.147031
1930.27	-0.110134
1931.75	-0.0565186
1933.24	-0.177639
1934.72	0.547559
1936.21	-0.00999546
1937.69	0.382744
1939.18	-0.0375824
1940.66	-0.232539
1942.15	0.0396004
1943.63	-0.170369
1945.11	0.586396
1946.6	0.0329418
1948.08	-0.175776
1949.56	-0.178432
1951.04	0.334359
1952.53	0.415377
1954.01	0.031394
1955.49	0.23209
1956.97	0.0208435
1958.45	-0.137906
1959.93	0.0988407
1961.41	0.301673
1962.89	0.298867
1964.37	0.175918
1965.85	0.44637
1967.33	0.270775
1968.81	0.282808
1970.29	0.123247
1971.77	-0.104696
1973.24	0.00898552
1974.72	0.429615
1976.2	0.0317755
1977.68	0.315945
1979.15	0.123263
1980.63	-0.0691948
1982.11	0.0613794
1983.58	0.41225
1985.06	0.0663338
1986.53	0.314275
1988.01	-0.0990963
1989.48	0.0473337
1990.96	-0.0764484
1992.43	-0.0299206
1993.91	0.0514612
1995.38	0.015377
1996.86	0.0811462
1998.33	0.417026
1999.8	0.0768967
2001.27	0.0569906
2002.75	0.491953
2004.22	0.353189
2005.69	0.434001
2007.16	0.465077
2008.64	0.463545
2010.11	0.530335
2011.58	0.210538
2013.05	0.00868034
2014.52	0.193459
2015.99	0.528708
2017.46	-0.163178
2018.93	-0.014863
2020.4	0.283943
2021.87	0.313615
2023.34	-0.159903
2024.8	0.173218
2026.27	-0.163509
2027.74	-0.0960369
2029.21	-0.395964
2030.68	0.261675
2032.14	0.0480728
2033.61	0.170595
2035.08	0.0580568
2036.54	0.331396
2038.01	0.419466
2039.48	0.322259
2040.94	-0.0271864
2042.41	0.767026
2043.87	0.132882
2045.34	0.576208
2046.8	0.498904
2048.27	0.0680904
2049.73	0.0240765
2051.19	0.518462
2052.66	0.471707
2054.12	0.051856
2055.58	0.490161
2057.05	0.555869
2058.51	0.384747
2059.97	0.314676
2061.43	-0.0242548
2062.9	0.15973
2064.36	0.00814724
2065.82	-0.159151
2067.28	0.667383
2068.74	-0.238901
2070.2	-0.16874
2071.66	0.339231
2073.12	0.560934
2074.58	0.193011
2076.04	0.161478
2077.5	0.0790253
2078.95	0.282421
2080.41	0.215874
2081.87	0.21608
2083.33	-0.00326824
2084.79	0.315186
2086.24	0.363484
2087.7	0.293371
2089.16	-0.247676
2090.61	0.471368
2092.07	0.131947
2093.53	0.262598
2094.98	0.409589
2096.44	0.472058
2097.89	0.232239
2099.35	0.176188
2100.8	0.40418
2102.26	-0.0529919
2103.71	0.560073
2105.16	0.723245
2106.62	0.554189
2108.07	0.336366
2109.53	0.569209
2110.98	0.834638
2112.43	0.515165
2113.88	0.410617
2115.33	0.470869
2116.79	0.264083
2118.24	1.00479
2119.69	0.418099
2121.14	0.531009
2122.59	0.463539
2124.04	0.712744
2125.49	0.763624
2126.94	0.598639
2128.39	1.11219
2129.84	1.12675
2131.29	0.825118
2132.74	0.870539
2134.19	1.08133
2135.63	1.39204
2137.08	0.563796
2138.53	0.696507
2139.98	0.847828
2141.43	0.703465
2142.87	1.02334
2144.32	0.914053
2145.77	0.986869
2147.21	1.04284
2148.66	1.04843
2150.1	1.58318
2151.55	1.57018
2152.99	1.27432
2154.44	0.927834
2155.88	1.26014
2157.33	1.12867
2158.77	1.18027
2160.21	0.852369
2161.66	1.33828
2163.1	1.71065
2164.55	1.07322
2165.99	1.76404
2167.43	0.777626
2168.87	1.56759
2170.31	1.14215
2171.76	1.42938
2173.2	1.69781
2174.64	1.94797
2176.08	1.78163
2177.52	1.00042
2178.96	1.36745
2180.4	1.61919
2181.84	2.05488
2183.28	1.8262
2184.72	1.29838
2186.16	1.5357
2187.6	1.62339
2189.04	1.04546
2190.47	1.36615
2191.91	1.53681
2193.35	1.39029
2194.79	1.2755
2196.23	0.908987
2197.66	0.989738
2199.1	1.28465
2200.54	1.32877
2201.97	0.891238
2203.41	1.05235
2204.84	0.783407
2206.28	0.880488
2207.71	1.14371
2209.15	1.22434
2210.58	0.790901
2212.02	0.902675
2213.45	1.24488
2214.89	0.843223
2216.32	1.38366
2217.75	0.835991
2219.19	0.982827
2220.62	0.553517
2222.05	0.470682
2223.48	-0.0577049
2224.92	0.318576
2226.35	0.659646
2227.78	0.883273
2229.21	0.563075
2230.64	0.68566
2232.07	0.545565
2233.5	0.70074
2234.93	0.75832
2236.36	0.261703
2237.79	0.469546
2239.22	0.842376
2240.65	0.662589
2242.08	0.419632
2243.51	0.226949
2244.94	0.589189
2246.37	0.379794
2247.79	0.331787
2249.22	0.00435066
2250.65	0.228832
2252.08	0.516217
2253.5	-0.0758972
2254.93	0.0482759
2256.36	0.319901
2257.78	0.33415
2259.21	0.0919142
2260.63	-0.0498772
2262.06	0.135419
2263.48	0.582416
2264.91	0.201401
2266.33	0.274841
2267.76	0.526436
2269.18	0.288987
2270.6	0.197047
2272.03	0.381347
2273.45	0.353823
2274.87	0.440413
2276.3	0.00586414
2277.72	-0.477606
2279.14	0.391843
2280.56	-0.0917892
2281.98	-0.070158
2283.41	-0.0322905
2284.83	0.283072
2286.25	0.451923
2287.67	0.474326
2289.09	0.00721073
2290.51	0.161102
2291.93	0.331765
2293.35	0.371863
2294.77	0.117467
2296.19	0.271971
2297.61	0.000780106
2299.02	0.237281
2300.44	-0.181411
2301.86	0.203307
2303.28	0.293393
2304.7	0.104686
2306.11	0.359124
2307.53	0.00546741
2308.95	-0.11895
2310.36	-0.0960732
2311.78	0.271841
2313.2	0.113422
2314.61	-0.0281878
2316.03	-0.218542
2317.44	0.135415
2318.86	-0.284577
2320.27	0.317312
2321.69	0.0275173
2323.1	-0.231453
2324.51	-0.0307674
2325.93	0.167491
2327.34	0.165945
2328.76	0.526182
2330.17	0.688605
2331.58	0.506152
2332.99	0.209878
2334.41	0.276667
2335.82	0.0969114
2337.23	-0.280615
2338.64	-0.132834
2340.05	-0.0521049
2341.46	-0.0873985
2342.87	-0.0411119
2344.28	0.267481
2345.69	0.444862
2347.1	-0.0655642
2348.51	-0.297082
2349.92	-0.0216141
2351.33	-0.38485
2352.74	0.0190849
2354.15	0.307076
2355.56	0.153675
2356.97	-0.081152
2358.37	0.091095
2359.78	0.00315666
2361.19	0.0778036
2362.6	-0.561066
2364	0.275048
2365.41	0.219543
2366.82	0.11589
2368.22	-0.099905
2369.63	0.00839806
2371.03	0.182408
2372.44	0.115979
2373.84	-0.0298395
2375.25	0.0501928
2376.65	-0.192044
2378.06	0.14369
2379.46	0.059556
2380.86	0.102214
2382.27	-0.0651703
2383.67	-0.169031
2385.07	-0.128904
2386.48	0.111251
2387.88	0.272053
2389.28	0.0591488
2390.69	0.166566
2392.09	-0.0433159
2393.49	0.0663271
2394.89	-0.109536
2396.29	0.2719
2397.69	0.00214863
2399.09	-0.330404
2400.49	0.417926
2401.89	-0.183759
2403.29	0.374091
2404.69	-0.307159
2406.09	-0.00483608
2407.49	0.153498
2408.89	-0.14906
2410.29	0.277491
2411.69	-0.167495
2413.08	-0.00943661
2414.48	-0.293442
2415.88	0.199857
2417.28	-0.350339
2418.67	-0.171375
2420.07	-0.197888
2421.47	0.203147
2422.86	-0.0456333
2424.26	0.133034
2425.65	-0.0684891
2427.05	0.316894
2428.45	0.196082
2429.84	-0.0348244
2431.23	0.0362606
2432.63	0.266306
2434.02	0.178319
2435.42	0.152592
2436.81	0.125269
2438.2	0.159862
2439.6	0.161302
2440.99	0.272935
2442.38	0.0981808
2443.78	0.208878
2445.17	0.255845
2446.56	-0.109611
2447.95	0.365003
2449.34	0.284776
2450.73	-0.0642929
2452.13	0.109773
2453.52	-0.0635519
2454.91	0.175413
2456.3	-0.249344
2457.69	-0.025197
2459.08	0.293629
2460.47	0.200571
2461.85	0.0592403
2463.24	-0.161877
2464.63	0.0431376
2466.02	-0.273471
2467.41	0.104642
2468.8	-0.180324
2470.19	-0.0394421
2471.57	0.211143
2472.96	0.192903
2474.35	0.173857
2475.73	0.40581
2477.12	0.244075
2478.51	0.31811
2479.89	0.298056
2481.28	0.0116615
2482.66	0.148633
2484.05	0.0187454
2485.43	-0.0805779
2486.82	-0.274626
2488.2	-0.26651
2489.59	0.0680857
2490.97	-0.0807829
2492.35	0.346401
2493.74	0.26138
2495.12	-0.163285
2496.5	0.421538
2497.89	0.01513
2499.27	0.18222
2500.65	0.333224
2502.03	0.204948
2503.42	0.631672
2504.8	-0.254498
2506.18	0.0161209
2507.56	0.270499
2508.94	-0.10584
2510.32	0.210134
2511.7	0.357381
2513.08	0.229297
2514.46	-0.0508146
2515.84	0.343825
2517.22	0.279898
2518.6	0.201324
2519.98	0.1994
2521.36	-0.123553
2522.73	0.209475
2524.11	0.11409
2525.49	-0.225752
2526.87	0.226506
2528.25	-0.0518427
2529.62	-0.0549507
2531	0.0347834
2532.38	-0.253651
2533.75	-0.0240564
2535.13	0.115067
2536.5	0.0110331
2537.88	0.0581865
2539.25	0.271363
2540.63	0.0128727
2542.01	0.255028
2543.38	0.360785
2544.75	-0.336544
2546.13	0.484359
2547.5	0.563305
2548.88	-0.0698805
2550.25	-0.0204124
2551.62	-0.123219
2553	-0.363583
2554.37	0.396565
2555.74	0.00245953
2557.11	0.411839
2558.49	-0.0737658
2559.86	0.623578
2561.23	0.245108
2562.6	-0.0416498
2563.97	-0.267153
2565.34	0.0533161
2566.71	-0.0502911
2568.08	-0.123511
2569.45	0.424652
2570.82	0.260494
2572.19	0.00540352
2573.56	-0.219321
2574.93	0.116912
2576.3	-0.0167675
2577.67	0.31946
2579.03	0.0944424
2580.4	0.187453
2581.77	-0.00807381
2583.14	0.175057
2584.5	0.312421
2585.87	0.282953
2587.24	0.268768
2588.6	0.239619
2589.97	0.301503
2591.34	-0.288378
2592.7	0.136517
2594.07	0.545241
2595.43	0.66487
2596.8	0.298893
2598.16	0.446765
2599.53	-0.0711517
2600.89	0.303124
2602.26	0.315075
2603.62	0.26735
2604.98	0.582392
2606.35	-0.0529175
2607.71	0.457833
2609.07	0.273916
2610.44	-0.167165
2611.8	-0.0822458
2613.16	0.0313969
2614.52	0.0238476
2615.88	-0.254058
2617.25	0.368239
2618.61	0.405926
2619.97	0.0852633
2621.33	-0.234141
2622.69	-0.208908
2624.05	0.145003
2625.41	0.483442
2626.77	0.165012
2628.13	-0.0192232
2629.49	0.064496
2630.85	-0.0604305
2632.21	0.156622
2633.56	0.402968
2634.92	0.767597
2636.28	0.301138
2637.64	0.235479
2639	-0.0965319
2640.35	0.341431
2641.71	0.705074
2643.07	0.196906
2644.42	0.516302
2645.78	0.333575
2647.14	0.46021
2648.49	0.0998096
2649.85	0.548491
2651.2	0.201724
2652.56	-0.100611
2653.91	0.463457
2655.27	0.059907
2656.62	0.214718
2657.98	0.253435
2659.33	0.556355
2660.68	0.23067
2662.04	0.00741577
2663.39	-0.114009
2664.74	0.522841
2666.1	0.749574
2667.45	0.232182
2668.8	-0.0223722
2670.15	0.000204086
2671.5	0.15414
2672.86	0.09058
2674.21	0.245568
2675.56	0.61871
2676.91	-0.37164
2678.26	0.046237
2679.61	-0.318242
2680.96	-0.0726299
2682.31	0.261183
2683.66	-0.027216
2685.01	-0.213236
2686.36	0.616776
2687.71	0.372995
2689.06	0.447172
2690.4	-0.04667
2691.75	0.139856
2693.1	0.237603
2694.45	-0.231267
2695.8	0.155221
2697.14	0.252276
2698.49	0.394088
2699.84	-0.0994368
2701.18	0.219759
2702.53	0.308894
2703.88	0.196318
2705.22	0.330632
2706.57	0.291057
2707.91	0.323697
2709.26	0.22526
2710.6	0.387735
2711.95	0.361176
2713.29	0.523336
2714.64	0.220371
2715.98	0.68777
2717.32	0.0208082
2718.67	0.546143
2720.01	0.562011
2721.35	0.417283
2722.7	0.25742
2724.04	0.824791
2725.38	0.60568
2726.72	0.517138
2728.06	0.515571
2729.4	0.644698
2730.75	0.424415
2732.09	0.218691
2733.43	0.478599
2734.77	0.345907
2736.11	0.518877
2737.45	-0.0643206
2738.79	0.152368
2740.13	0.368744
2741.47	0.439137
2742.81	0.029067
2744.15	0.286954
2745.48	0.180815
2746.82	0.379231
2748.16	0.635338
2749.5	0.310908
2750.84	0.248011
2752.17	0.199923
2753.51	0.210067
2754.85	0.0899906
2756.19	-0.131268
2757.52	0.0676718
2758.86	-0.514926
2760.19	0.0754204
2761.53	0.492423
2762.86	0.157422
2764.2	-0.0325317
2765.54	0.110269
2766.87	0.353802
2768.2	-0.358388
2769.54	0.085187
2770.87	0.281143
2772.21	0.663092
2773.54	-0.0244493
2774.88	-0.0770817
2776.21	-0.0432415
2777.54	-0.00908661
2778.87	-0.0175657
2780.21	-0.0973396
2781.54	0.225397
2782.87	0.318172
2784.2	0.224314
2785.53	0.0445509
2786.87	0.166004
2788.2	-0.499432
2789.53	0.0384359
2790.86	0.119123
2792.19	0.0147057
2793.52	0.0108709
2794.85	0.178556
2796.18	0.174329
2797.51	0.0837965
2798.84	0.249722
2800.17	0.0582504
2801.49	-0.304522
2802.82	-0.196648
2804.15	-0.0606728
2805.48	-0.366836
2806.81	0.180709
2808.13	0.0441303
2809.46	0.0920553
2810.79	0.0547428
2812.12	-0.0528069
2813.44	0.153008
2814.77	-0.263607
2816.09	-0.210739
2817.42	0.112559
2818.75	0.266356
2820.07	0.405969
2821.4	0.460025
2822.72	0.187385
2824.05	0.495046
2825.37	0.122299
2826.7	0.103808
2828.02	0.567266
2829.35	0.620678
2830.67	0.448111
2831.99	0.31825
2833.31	0.612965
2834.64	0.482663
2835.96	0.634876
2837.28	1.01282
2838.61	1.39009
2839.93	1.76693
2841.25	1.04094
2842.57	1.36176
2843.89	1.7963
2845.21	2.06204
2846.53	1.96108
2847.85	2.08667
2849.17	2.70696
2850.49	2.35165
2851.81	2.78724
2853.13	2.67096
2854.45	2.0314
2855.77	3.18613
2857.09	2.92786
2858.41	2.76861
2859.73	3.3861
2861.05	3.04302
2862.36	3.49021
2863.68	3.4851
2865	3.42323
2866.32	4.13721
2867.64	4.00501
2868.95	4.22594
2870.27	4.51782
2871.59	4.48561
2872.9	5.15769
2874.22	4.91263
2875.53	5.06067
2876.85	5.13672
2878.16	5.39455
2879.48	5.27202
2880.79	4.63002
2882.11	5.53515
2883.42	5.42981
2884.74	5.57859
2886.05	5.11043
2887.36	4.89518
2888.68	5.18455
2889.99	5.72521
2891.3	5.67542
2892.62	5.82106
2893.93	5.54611
2895.24	5.46798
2896.55	5.88091
2897.86	5.34348
2899.18	6.09481
2900.49	5.55999
2901.8	6.24287
2903.11	6.46436
2904.42	6.81191
2905.73	6.55842
2907.04	6.80926
2908.35	6.94937
2909.66	7.52444
2910.97	7.7227
2912.28	7.2211
2913.59	7.23625
2914.9	8.53748
2916.21	8.1842
2917.51	8.33263
2918.82	8.49357
2920.13	8.65422
2921.44	9.22126
2922.74	9.39849
2924.05	8.90684
2925.36	9.26953
2926.67	9.40948
2927.97	9.6893
2929.28	9.98254
2930.59	10.1072
2931.89	10.0634
2933.2	9.72565
2934.5	9.77932
2935.81	9.56764
2937.11	9.9851
2938.42	9.62026
2939.72	9.94058
2941.02	8.85036
2942.33	9.17275
2943.63	8.21113
2944.94	8.46732
2946.24	8.16593
2947.54	8.20093
2948.85	7.66173
2950.15	7.24656
2951.45	7.24891
2952.75	6.59056
2954.05	6.65854
2955.36	6.68406
2956.66	6.33293
2957.96	6.55843
2959.26	5.62554
2960.56	6.01227
2961.86	5.18247
2963.16	5.61505
2964.46	5.3034
2965.76	4.73672
2967.06	5.27777
2968.36	4.90376
2969.66	4.7677
2970.96	4.87059
2972.26	4.49558
2973.56	4.68371
2974.85	4.67488
2976.15	4.46813
2977.45	4.69621
2978.75	4.55604
2980.05	4.07588
2981.34	4.56529
2982.64	4.13942
2983.94	3.98152
2985.23	3.9657
2986.53	3.37572
2987.83	3.19518
2989.12	3.46555
2990.42	3.27252
2991.71	2.83994
2993.01	2.67313
2994.3	2.58917
2995.6	2.46178
2996.89	2.38979
2998.19	2.13523
2999.48	2.13371
3000.77	1.86646
3002.07	1.8244
3003.36	1.44659
3004.65	1.53142
3005.95	1.53188
3007.24	0.831757
3008.53	1.05476
3009.82	0.773194
3011.12	0.812565
3012.41	0.683921
3013.7	0.681073
3014.99	0.525419
3016.28	0.259366
3017.57	0.78805
3018.86	0.565383
3020.15	0.426516
3021.44	0.176163
3022.73	0.522457
3024.02	0.173335
3025.31	0.614282
3026.6	0.23707
3027.89	0.400806
3029.18	0.302897
3030.47	0.220668
3031.76	0.2645
3033.04	0.185249
3034.33	0.0374403
3035.62	0.234054
3036.91	-0.0672426
3038.19	-0.135793
3039.48	0.289236
3040.77	0.313049
3042.05	-0.0895929
3043.34	0.098237
3044.63	0.0128517
3045.91	-0.0431032
3047.2	-0.0145569
3048.48	0.0438585
3049.77	-0.154707
3051.05	0.453661
3052.34	0.24418
3053.62	0.294024
3054.91	0.0430698
3056.19	0.241235
3057.48	0.410856
3058.76	0.184409
3060.04	0.461801
3061.33	0.167874
3062.61	0.419441
3063.89	0.373323
3065.17	0.342628
3066.46	0.136848
3067.74	0.108933
3069.02	0.394287
3070.3	-0.571781
3071.59	-0.205857
3072.87	0.0636139
3074.15	-0.0625219
3075.43	0.204583
3076.71	0.0909348
3077.99	0.317301
3079.27	-0.106483
3080.55	-0.229894
3081.83	0.0689669
3083.11	-0.214067
3084.39	0.222789
3085.67	-0.181489
3086.94	0.431719
3088.22	-0.340181
3089.5	0.0138664
3090.78	0.258856
3092.06	0.178108
3093.34	0.206182
3094.61	0.343162
3095.89	-0.0211582
3097.17	0.0350819
3098.44	-0.0441895
3099.72	0.0120344
3101	-0.351665
3102.27	0.0569258
3103.55	-0.211205
3104.82	0.117018
3106.1	0.513707
3107.38	0.329576
3108.65	0.0655022
3109.93	0.141035
3111.2	0.0281887
3112.47	-0.0702324
3113.75	0.102848
3115.02	0.0456905
3116.3	0.137274
3117.57	0.404411
3118.84	0.0194764
3120.12	0.542159
3121.39	0.290917
3122.66	0.012279
3123.93	0.370466
3125.2	0.0517097
3126.48	0.166934
3127.75	0.648094
3129.02	0.128796
3130.29	0.259348
3131.56	0.646903
3132.83	0.128868
3134.1	0.353811
3135.37	0.645655
3136.64	0.680358
3137.91	0.458457
3139.18	0.371327
3140.45	0.849625
3141.72	1.00461
3142.99	0.756732
3144.26	0.523418
3145.53	0.277894
3146.8	0.864704
3148.07	0.942585
3149.33	1.04798
