200.533	-0.149419
202.348	-0.129775
204.162	-0.109511
205.976	0.178745
207.792	0.418205
209.605	-0.144935
211.418	0.214561
213.23	0.111506
215.044	0.250335
216.856	0.582348
218.667	-0.175999
220.478	-0.231134
222.289	0.318977
224.102	0.192082
225.912	0.113877
227.721	-0.157575
229.531	0.198641
231.34	0.312732
233.148	0.0887046
234.956	-0.0867467
236.766	0.341298
238.574	0.384817
240.381	-0.100384
242.188	0.187123
243.994	0.306738
245.801	0.474564
247.606	0.544776
249.412	1.09602
251.217	0.389441
253.024	0.501891
254.828	0.299399
256.632	0.675408
258.436	0.545503
260.239	0.802225
262.042	0.578347
263.845	0.307347
265.647	0.301943
267.449	0.296667
269.25	0.194671
271.052	0.0679164
272.852	0.470753
274.653	0.462703
276.453	0.598116
278.253	0.442963
280.052	0.768213
281.852	0.489887
283.65	0.908046
285.449	1.08414
287.247	0.56329
289.044	0.187306
290.842	0.00411177
292.639	0.659713
294.436	0.43039
296.232	0.656505
298.028	0.500725
299.821	0.106395
301.617	0.33313
303.412	1.03659
305.206	0.306682
307	0.602448
308.794	0.0395632
310.588	0.311464
312.381	0.536243
314.172	1.09532
315.964	0.679344
317.756	0.502645
319.548	0.398307
321.34	0.36611
323.131	0.525129
324.921	0.398226
326.71	0.295049
328.5	1.0278
330.29	0.37433
332.079	0.00635147
333.868	0.235107
335.654	0.223241
337.443	0.497021
339.231	0.506134
341.018	0.514175
342.804	0.641151
344.591	0.959117
346.377	0.4651
348.163	0.449389
349.947	0.505593
351.733	0.94364
353.518	0.712933
355.303	0.529305
357.085	0.654854
358.869	0.374251
360.653	0.117023
362.435	0.406838
364.218	0.410366
366.001	0.745967
367.781	0.581985
369.563	1.05788
371.345	0.77424
373.124	0.538026
374.905	0.467499
376.686	0.96366
378.464	0.398047
380.244	0.446629
382.022	0.401733
383.801	0.263657
385.58	-0.202537
387.357	-0.00964928
389.135	0.136793
390.911	0.354213
392.689	0.313767
394.466	0.438092
396.241	0.186878
398.018	0.334957
399.792	0.952659
401.568	0.46615
403.341	0.33151
405.117	0.52519
406.889	0.483489
408.664	0.723127
410.436	0.563398
412.21	0.544569
413.981	0.924922
415.755	0.273313
417.525	0.326148
419.298	0.473267
421.068	0.456273
422.84	0.603419
424.609	-0.0950389
426.38	0.0744991
428.149	0.924263
429.919	0.247843
431.688	0.29911
433.455	0.514856
435.225	0.284903
436.992	0.477366
438.76	0.293851
440.527	0.250206
442.293	0.34602
444.06	0.252792
445.826	0.228774
447.593	0.484877
449.357	0.342723
451.122	0.341061
452.888	0.573037
454.651	0.571542
456.415	0.40689
458.18	0.335549
459.942	0.473796
461.705	0.705321
463.469	0.310132
465.23	0.358271
466.991	0.826505
468.752	0.297274
470.515	0.559494
472.275	0.380247
474.035	0.130448
475.797	0.508182
477.556	0.115951
479.315	0.28159
481.073	0.656221
482.834	0.332208
484.592	0.265167
486.349	0.315826
488.106	0.764129
489.863	0.304682
491.622	0.778995
493.378	0.413401
495.134	0.444852
496.889	0.429482
498.645	0.554482
500.401	0.397984
502.156	0.851043
503.91	0.716977
505.664	0.440917
507.417	0.704512
509.171	0.849675
510.923	0.758517
512.678	0.43095
514.43	0.102416
516.182	0.690583
517.933	0.807295
519.684	0.171022
521.435	0.28671
523.186	0.519398
524.936	0.352708
526.686	0.350392
528.435	0.512218
530.184	0.298862
531.933	0.038631
533.682	0.433582
535.43	0.780452
537.18	0.448121
538.927	-0.0479059
540.674	-0.0305696
542.421	0.0328331
544.167	0.235434
545.913	0.344592
547.659	-0.0105329
549.403	0.191661
551.148	0.764006
552.893	0.363781
554.637	0.403544
556.381	0.166428
558.125	0.460392
559.868	0.477679
561.611	0.0809779
563.354	-0.176715
565.097	-0.203832
566.839	0.366686
568.581	0.523828
570.322	0.589742
572.063	0.0371304
573.802	0.540939
575.542	0.701809
577.283	0.198409
579.022	0.453067
580.762	0.547676
582.501	0.0219889
584.24	-0.0217457
585.976	0.14085
587.714	0.118732
589.452	0.417962
591.19	0.532581
592.927	0.209725
594.663	0.415955
596.398	0.0700474
598.134	0.253281
599.87	0.183211
601.605	0.112629
603.338	-0.119692
605.073	-0.329747
606.808	0.148951
608.542	-0.223014
610.274	-0.0897083
612.007	0.2043
613.74	0.338033
615.473	0.242907
617.204	0.125045
618.936	0.396265
620.668	0.231636
622.397	0.157923
624.128	0.152359
625.859	0.672207
627.588	0.301785
629.318	0.457861
631.048	0.387221
632.775	0.340718
634.505	0.363334
636.233	0.340076
637.96	0.0417767
639.688	0.700381
641.416	0.558169
643.142	0.528518
644.869	0.475353
646.594	0.286051
648.32	0.280105
650.045	0.367056
651.771	0.206486
653.496	0.639297
655.219	0.073864
656.944	0.761233
658.667	0.40204
660.391	0.612277
662.113	0.799013
663.837	0.161744
665.558	0.413964
667.281	0.0248384
669.002	0.115433
670.724	0.481068
672.444	-0.0214896
674.166	0.667735
675.885	0.396698
677.606	0.2636
679.325	0.61264
681.045	0.524898
682.763	0.757948
684.483	1.10498
686.2	0.760097
687.917	0.483079
689.636	0.435639
691.352	0.779328
693.07	0.615837
694.786	1.1198
696.501	1.1854
698.219	0.444427
699.933	0.830701
701.65	0.80187
703.364	0.47368
705.078	0.788539
706.793	0.7813
708.506	0.636219
710.219	0.81189
711.934	1.14726
713.646	0.841422
715.358	0.627408
717.071	0.938848
718.782	0.839215
720.493	0.831035
722.204	0.822973
723.916	0.974207
725.626	0.693202
727.336	0.685037
729.045	0.926218
730.756	1.05329
732.464	0.953399
734.173	0.944075
735.881	0.573196
737.59	0.767751
739.297	1.05263
741.004	0.593843
742.711	0.902359
744.417	1.03128
746.125	1.63358
747.831	1.47157
749.537	1.31058
751.242	0.993083
752.946	1.14879
754.651	0.810518
756.357	1.01315
758.061	1.3971
759.764	0.971366
761.467	1.08691
763.17	0.751679
764.872	1.43189
766.575	1.50217
768.276	1.81991
769.978	1.43534
771.679	1.36584
773.382	0.95619
775.083	1.17942
776.783	1.8778
778.483	1.69529
780.182	1.62687
781.882	1.98903
783.581	1.60467
785.279	1.73993
786.978	1.91882
788.676	1.7333
790.373	1.59086
792.071	1.15297
793.768	1.93405
795.464	1.40517
797.161	1.32863
798.857	1.456
800.552	1.38185
802.248	1.24122
803.941	1.57341
805.636	1.74784
807.33	0.910435
809.024	1.62262
810.718	1.34571
812.412	1.78613
814.105	2.11342
815.798	1.29832
817.49	1.62526
819.183	1.66117
820.873	1.89811
822.564	1.711
824.256	1.50245
825.947	1.8522
827.637	1.26763
829.328	1.28648
831.016	1.77504
832.705	1.55282
834.395	2.13433
836.084	1.93652
837.772	1.67134
839.459	1.40506
841.147	1.47254
842.835	1.69557
844.522	1.60552
846.209	1.09122
847.894	0.622449
849.581	1.74327
851.267	1.3671
852.953	1.57431
854.637	1.17668
856.322	1.54183
858.007	1.59213
859.689	1.37133
861.374	1.19402
863.058	1.15061
864.739	1.44437
866.423	0.881038
868.106	1.71505
869.787	1.73716
871.469	1.51092
873.151	1.19422
874.831	1.10301
876.512	0.808666
878.193	1.4622
879.872	1.00974
881.553	0.489205
883.231	0.916343
884.911	0.755827
886.591	0.933007
888.268	0.860908
889.947	1.01335
891.623	1.2548
893.302	0.887003
894.978	0.541543
896.656	0.780479
898.331	0.906035
900.008	1.00827
901.683	0.572075
903.359	0.852594
905.033	1.26638
906.709	1.27753
908.383	0.59802
910.058	0.699969
911.731	1.33615
913.405	0.549191
915.078	1.22933
916.752	1.50893
918.423	1.10097
920.096	1.02595
921.768	1.34961
923.438	0.966193
925.111	0.849446
926.781	0.689848
928.452	0.752134
930.122	1.03582
931.791	0.746186
933.462	0.831817
935.13	0.652848
936.799	0.385967
938.468	0.847434
940.136	0.758298
941.803	0.51547
943.472	0.736355
945.139	1.2883
946.805	0.735926
948.473	1.13149
950.139	0.378105
951.804	0.970152
953.471	0.701754
955.136	0.191935
956.801	0.698192
958.465	0.699318
960.131	0.790479
961.794	0.485101
963.458	0.665483
965.12	0.446881
966.785	0.469814
968.447	0.291903
970.109	0.223377
971.771	0.508272
973.432	0.41741
975.095	0.681276
976.756	0.50398
978.417	0.482382
980.077	0.405835
981.737	0.328976
983.396	1.08143
985.057	0.836463
986.716	0.612344
988.375	0.497853
990.033	0.714373
991.691	0.355663
993.349	0.306477
995.006	0.544356
996.663	0.00989199
998.32	0.115418
999.976	0.418991
1001.63	0.655866
1003.29	-0.0540991
1004.95	-0.0595789
1006.6	0.24252
1008.26	0.610126
1009.91	0.275231
1011.56	-0.0589557
1013.22	0.52799
1014.87	0.851641
1016.53	0.387117
1018.18	0.470388
1019.83	0.53221
1021.48	-0.236159
1023.14	0.286137
1024.79	0.67767
1026.44	0.479455
1028.09	0.303128
1029.74	0.803666
1031.39	-0.0508776
1033.04	0.20759
1034.69	0.159362
1036.34	-0.0422282
1037.99	0.387752
1039.64	0.294609
1041.29	0.22377
1042.94	0.240764
1044.58	0.432603
1046.23	0.668941
1047.88	0.124557
1049.52	0.51506
1051.17	0.385104
1052.82	-0.0268321
1054.46	-0.0910621
1056.11	0.518451
1057.75	-0.00240564
1059.4	0.172025
1061.04	0.150405
1062.69	0.128311
1064.33	0.105663
1065.98	-0.0263023
1067.62	0.188883
1069.26	0.142641
1070.9	-0.142819
1072.55	0.592084
1074.19	0.285207
1075.83	0.196087
1077.47	0.259618
1079.11	0.432301
1080.76	0.301842
1082.4	0.193046
1084.04	-0.0246968
1085.68	0.0167961
1087.32	0.187059
1088.95	0.0527472
1090.59	0.393569
1092.23	0.322388
1093.87	0.164649
1095.51	-0.0573926
1097.15	-0.0845428
1098.78	0.363006
1100.42	0.0360842
1102.06	0.184013
1103.69	-0.140368
1105.33	0.116878
1106.97	0.00875807
1108.6	-0.142545
1110.24	0.436563
1111.87	0.391057
1113.51	0.688267
1115.14	-0.0460844
1116.77	0.185538
1118.41	0.159667
1120.04	-0.144252
1121.67	-0.147479
1123.31	-0.128687
1124.94	0.147389
1126.57	0.188539
1128.2	0.550899
1129.83	0.143865
1131.47	0.186227
1133.1	0.44253
1134.72	-0.19908
1136.36	-0.242485
1137.98	0.610928
1139.62	-0.395203
1141.24	-0.0560641
1142.87	0.0904069
1144.5	0.32213
1146.13	-0.192061
1147.76	0.317612
1149.38	-0.429479
1151.01	0.357653
1152.64	0.122257
1154.27	0.120943
1155.89	-0.17857
1157.52	-0.243929
1159.14	0.265234
1160.77	0.179264
1162.39	0.200315
1164.02	-0.0756888
1165.64	-0.0324769
1167.27	0.0743508
1168.89	0.116727
1170.51	-0.0119753
1172.14	0.304373
1173.76	-0.229943
1175.38	0.275287
1177	-0.471246
1178.63	-0.453955
1180.25	0.156353
1181.87	0.554866
1183.49	-0.0614467
1185.11	0.252613
1186.73	0.206724
1188.35	-0.0510855
1189.97	0.154081
1191.59	0.357633
1193.21	-0.197106
1194.83	-0.141981
1196.45	-0.14988
1198.07	-0.0525088
1199.68	0.024755
1201.3	0.374883
1202.92	-0.17166
1204.53	0.014348
1206.15	0.118032
1207.77	0.0972867
1209.38	-0.0693259
1211	-0.298949
1212.62	-0.2167
1214.23	0.239256
1215.84	0.0477929
1217.46	0.479618
1219.07	0.141116
1220.69	0.778872
1222.3	0.233775
1223.91	0.229161
1225.53	0.0805492
1227.14	-0.14973
1228.75	0.262201
1230.36	0.0956554
1231.97	0.46736
1233.59	0.219653
1235.2	0.220747
1236.81	0.718645
1238.42	-0.126443
1240.03	0.186483
1241.64	0.437622
1243.25	-0.263012
1244.85	0.608231
1246.46	0.0718856
1248.07	0.548853
1249.68	0.259754
1251.29	0.508412
1252.9	0.24004
1254.5	0.447876
1256.11	0.449543
1257.72	1.0933
1259.32	0.662064
1260.93	0.769334
1262.54	0.752736
1264.14	0.280377
1265.75	0.53273
1267.35	-0.00290632
1268.96	0.704612
1270.56	0.603021
1272.16	0.666627
1273.77	0.646643
1275.37	0.833309
1276.97	0.894947
1278.57	0.91458
1280.18	0.126283
1281.78	0.745837
1283.38	0.74431
1284.98	0.205489
1286.58	0.267087
1288.18	0.74264
1289.78	0.701975
1291.38	0.826943
1292.99	0.848509
1294.58	1.11747
1296.18	0.786524
1297.78	0.516716
1299.38	0.452463
1300.98	0.737826
1302.58	0.671789
1304.17	0.461225
1305.77	0.538432
1307.37	0.533026
1308.97	0.671045
1310.56	0.952223
1312.16	0.68036
1313.76	0.695834
1315.35	0.752784
1316.95	0.789822
1318.54	1.05157
1320.14	1.10897
1321.73	0.880496
1323.32	0.915956
1324.92	0.421767
1326.51	0.577489
1328.1	0.935205
1329.7	0.624251
1331.29	0.921764
1332.88	0.775627
1334.47	0.893641
1336.07	0.56862
1337.66	0.889649
1339.25	0.464097
1340.84	0.904139
1342.43	0.838996
1344.02	0.652118
1345.61	0.826353
1347.2	0.619341
1348.79	0.934637
1350.37	0.450458
1351.96	0.608549
1353.55	0.667805
1355.14	0.707847
1356.73	0.588236
1358.31	1.02773
1359.9	0.208312
1361.49	0.366934
1363.07	0.465049
1364.66	0.403366
1366.25	0.52123
1367.83	0.559825
1369.42	0.459815
1371	0.340847
1372.59	0.760017
1374.17	0.463525
1375.75	0.446016
1377.34	0.448459
1378.92	0.271493
1380.5	1.00918
1382.09	0.611898
1383.67	0.711154
1385.25	0.471806
1386.83	0.391344
1388.42	1.18478
1390	0.727499
1391.58	0.568772
1393.16	0.351121
1394.74	0.193298
1396.32	0.709599
1397.9	0.194394
1399.48	0.0554342
1401.06	0.0744867
1402.64	0.469271
1404.21	0.131653
1405.79	0.209938
1407.37	0.723491
1408.95	0.604949
1410.53	0.763332
1412.1	0.210722
1413.68	0.684551
1415.26	0.111714
1416.83	0.268584
1418.41	0.267395
1419.98	0.502806
1421.56	0.403944
1423.13	0.522653
1424.71	-0.0465341
1426.28	0.546304
1427.86	0.391539
1429.43	0.6893
1431	0.494427
1432.58	0.495678
1434.15	0.35864
1435.72	0.811422
1437.29	0.399007
1438.87	0.419697
1440.44	0.460642
1442.01	0.757653
1443.58	0.858569
1445.15	0.448731
1446.72	0.491035
1448.29	0.749679
1449.86	1.10686
1451.43	1.01221
1453	1.01621
1454.57	0.804072
1456.14	1.06403
1457.71	0.575831
1459.27	0.736202
1460.84	0.659334
1462.41	0.91578
1463.98	0.895689
1465.54	0.521158
1467.11	0.303976
1468.67	0.892198
1470.24	0.440369
1471.81	0.401549
1473.37	0.402623
1474.94	0.325731
1476.5	-0.123417
1478.07	0.0745573
1479.63	0.19404
1481.19	0.529031
1482.76	0.275984
1484.32	0.80667
1485.88	0.318269
1487.45	0.240891
1489.01	-0.346234
1490.57	-0.0924816
1492.13	0.355178
1493.69	0.410101
1495.26	0.190691
1496.82	0.282912
1498.38	0.160743
1499.94	0.000355721
1501.5	0.326281
1503.06	0.0510778
1504.62	0.16441
1506.17	0.00669241
1507.73	-0.0157371
1509.29	0.502161
1510.85	0.111319
1512.41	0.202679
1513.97	0.293583
1515.52	-0.48053
1517.08	0.0146127
1518.64	-0.142896
1520.19	-0.0315471
1521.75	0.060545
1523.31	0.305135
1524.86	0.281423
1526.42	0.161815
1527.97	0.0229392
1529.52	0.492543
1531.08	-0.0264468
1532.63	0.176798
1534.19	0.41792
1535.74	0.18628
1537.29	0.295811
1538.85	0.386661
1540.4	0.138172
1541.95	0.304638
1543.5	-0.0562034
1545.06	0.0911598
1546.61	0.162976
1548.16	0.290843
1549.71	0.17478
1551.26	0.714395
1552.81	0.69213
1554.36	0.184607
1555.91	0.500464
1557.46	0.443725
1559.01	0.836064
1560.56	0.912303
1562.11	0.392634
1563.65	0.451958
1565.2	0.455665
1566.75	0.198164
1568.29	0.556372
1569.84	0.653102
1571.39	0.544269
1572.94	1.01394
1574.48	0.624841
1576.03	0.739781
1577.57	0.38816
1579.12	0.61552
1580.66	0.544566
1582.21	0.66084
1583.75	0.83375
1585.3	0.820365
1586.84	1.10643
1588.38	0.663347
1589.93	0.781124
1591.47	0.917428
1593.01	0.604123
1594.55	0.515223
1596.1	0.744823
1597.64	1.03107
1599.18	1.05547
1600.72	0.874004
1602.26	1.27449
1603.8	1.03689
1605.34	0.873755
1606.88	0.183398
1608.42	0.281024
1609.96	0.264549
1611.5	0.584929
1613.04	0.547056
1614.58	0.470918
1616.12	0.0758038
1617.65	0.618654
1619.19	0.805688
1620.73	0.300593
1622.27	0.845114
1623.8	0.865765
1625.34	0.755384
1626.87	0.850409
1628.41	0.645225
1629.95	0.701143
1631.48	0.419969
1633.02	0.419062
1634.55	0.642351
1636.09	0.828596
1637.62	0.847414
1639.15	0.624249
1640.69	0.811258
1642.22	0.811436
1643.76	0.978495
1645.29	0.176986
1646.82	0.640467
1648.35	0.954453
1649.88	0.61839
1651.42	1.02563
1652.95	0.895363
1654.48	0.228251
1656.01	0.581352
1657.54	0.378321
1659.07	0.860248
1660.6	0.674507
1662.13	0.673088
1663.66	0.929768
1665.19	0.816305
1666.72	0.906267
1668.24	0.572642
1669.77	0.166604
1671.3	0.793575
1672.83	0.720866
1674.35	0.740549
1675.88	0.612781
1677.41	0.815865
1678.93	0.815748
1680.46	0.649507
1681.99	0.666736
1683.51	0.59194
1685.04	0.425548
1686.56	0.38795
1688.09	0.259031
1689.61	0.313668
1691.13	0.569793
1692.66	0.112013
1694.18	0.422863
1695.71	0.385949
1697.23	0.586446
1698.75	0.165641
1700.27	0.128324
1701.8	0.45549
1703.32	0.162241
1704.84	0.0147862
1706.36	0.558688
1707.88	0.192576
1709.4	0.135813
1710.92	0.569174
1712.44	-0.0859914
1713.96	0.129635
1715.48	0.0553117
1717	0.48751
1718.52	0.250246
1720.04	0.121679
1721.56	-0.385443
1723.07	-0.0801854
1724.59	-0.00899792
1726.11	0.386995
1727.63	0.261454
1729.14	-0.00737524
1730.66	0.118813
1732.18	-0.360839
1733.69	0.346054
1735.21	0.135357
1736.72	0.0955896
1738.24	-0.263379
1739.75	-0.166923
1741.27	0.314144
1742.78	0.368629
1744.3	0.341367
1745.81	-0.21213
1747.32	0.293361
1748.84	-0.158523
1750.35	0.107978
1751.86	0.116206
1753.37	-0.0127616
1754.89	-0.034627
1756.4	0.36062
1757.91	-0.146114
1759.42	-0.213788
1760.93	-0.131926
1762.44	-0.00374937
1763.95	0.103826
1765.46	0.306662
1766.97	0.115964
1768.48	0.297432
1769.99	0.232726
1771.5	0.186061
1773.01	-0.0541577
1774.52	0.159049
1776.03	-0.355722
1777.53	-0.0158505
1779.04	-0.0125747
1780.55	0.0117321
1782.06	-0.0300837
1783.56	0.167304
1785.07	-0.0573816
1786.57	0.180098
1788.08	0.220588
1789.59	0.0229616
1791.09	0.0794554
1792.6	-0.0523667
1794.1	0.296882
1795.6	0.341517
1797.11	-0.0206084
1798.61	0.146892
1800.12	0.145892
1801.62	0.130007
1803.12	0.116617
1804.63	0.204707
1806.13	0.00407696
1807.63	-0.16659
1809.13	0.174698
1810.63	0.0568538
1812.14	0.16393
1813.64	0.327585
1815.14	0.069921
1816.64	0.279477
1818.14	0.308255
1819.64	0.131776
1821.14	0.203517
1822.64	0.134205
1824.14	0.228292
1825.63	0.143673
1827.13	0.211464
1828.63	0.189598
1830.13	0.13875
1831.63	0.212039
1833.12	0.283384
1834.62	0.229679
1836.12	0.161397
1837.62	0.187633
1839.11	0.341215
1840.61	0.326541
1842.1	0.06217
1843.6	-0.0475063
1845.09	0.110593
1846.59	-0.186039
1848.08	0.243838
1849.58	0.188583
1851.07	0.295322
1852.57	0.0993509
1854.06	0.288797
1855.55	0.160827
1857.04	0.272303
1858.54	0.303309
1860.03	0.205278
1861.52	0.267093
1863.01	0.322599
1864.5	0.541081
1866	0.00860453
1867.49	0.538518
1868.98	0.412534
1870.47	0.0738573
1871.96	0.255009
1873.45	0.440533
1874.94	0.0790343
1876.43	0.304585
1877.92	0.0908542
1879.41	0.107735
1880.89	-0.351566
1882.38	0.0136437
1882.48	0.0445232
1883.97	-0.164063
1885.47	-0.0418482
1886.96	0.114585
1888.46	0.183504
1889.95	-0.252112
1891.44	-0.0433083
1892.94	-0.00760126
1894.43	0.116079
1895.92	0.275467
1897.41	0.244126
1898.9	0.282301
1900.4	0.180711
1901.89	0.286898
1903.38	-0.0602002
1904.87	0.0266929
1906.36	0.026155
1907.85	0.407626
1909.34	0.112147
1910.83	0.285943
1912.32	0.165287
1913.81	0.357213
1915.29	0.184981
1916.78	-0.0220532
1918.27	0.169344
1919.76	0.221739
1921.25	-0.00310135
1922.74	0.291898
1924.22	0.466093
1925.71	0.467834
1927.2	0.245188
1928.68	0.490391
1930.17	0.112248
1931.65	0.391638
1933.14	0.410391
1934.63	0.428041
1936.11	0.288916
1937.59	0.270242
1939.08	0.251297
1940.56	0.128931
1942.05	0.386876
1943.53	0.52446
1945.01	0.0416918
1946.5	0.231785
1947.98	0.31823
1949.46	0.300805
1950.94	0.43775
1952.43	0.470718
1953.91	0.124968
1955.39	0.398244
1956.87	0.173379
1958.35	0.275279
1959.83	-0.205741
1961.31	0.445695
1962.79	-0.000257015
1964.27	0.187978
1965.75	-0.0523739
1967.23	0.391747
1968.71	-0.0545115
1970.19	0.131914
1971.67	0.215435
1973.14	0.469471
1974.62	0.211514
1976.1	0.107419
1977.58	0.105762
1979.05	0.342464
1980.53	0.0685258
1982.01	0.253816
1983.48	0.115928
1984.96	0.385408
1986.43	0.264228
1987.91	0.211008
1989.38	0.208845
1990.86	0.24092
1992.33	0.374986
1993.81	0.357371
1995.28	0.323369
1996.76	0.0531435
1998.23	0.222175
1999.7	0.306425
2001.18	0.0358663
2002.65	0.490534
2004.12	0.0511689
2005.59	0.404371
2007.06	0.302932
2008.54	0.538897
2010.01	0.674274
2011.48	0.203946
2012.95	0.508011
2014.42	0.0881057
2015.89	0.189485
2017.36	0.206174
2018.83	0.306412
2020.3	0.37261
2021.77	0.0859747
2023.24	0.571931
2024.71	-0.0662336
2026.17	0.219252
2027.64	0.471917
2029.11	0.222288
2030.58	0.141144
2032.04	0.144423
2033.51	0.181566
2034.98	0.0843787
2036.45	0.541265
2037.91	0.29235
2039.38	0.530468
2040.84	0.466051
2042.31	0.452268
2043.77	0.186619
2045.24	0.34196
2046.7	0.295872
2048.17	0.199379
2049.63	0.237432
2051.1	0.426673
2052.56	0.615101
2054.02	0.482008
2055.48	0.0105963
2056.95	0.297201
2058.41	0.566264
2059.87	0.683393
2061.33	-0.0412064
2062.8	0.548066
2064.26	0.346677
2065.72	0.263731
2067.18	0.113962
2068.64	0.267466
2070.1	0.387523
2071.56	0.255113
2073.02	0.341468
2074.48	0.343483
2075.94	0.294776
2077.4	0.279522
2078.86	0.365067
2080.31	0.332457
2081.77	0.48472
2083.23	0.249365
2084.69	0.417557
2086.14	0.198294
2087.6	0.567335
2089.06	0.414783
2090.52	0.447019
2091.97	0.311284
2093.43	0.30987
2094.88	0.52632
2096.34	0.49081
2097.79	0.387943
2099.25	0.4522
2100.7	0.382366
2102.16	0.463144
2103.61	0.427392
2105.07	0.442506
2106.52	0.575215
2107.97	0.408268
2109.43	0.558438
2110.88	0.458162
2112.33	0.523803
2113.78	0.438468
2115.24	0.601878
2116.69	0.481819
2118.14	0.594678
2119.59	0.376173
2121.04	0.507432
2122.49	0.407548
2123.94	0.308565
2125.39	0.458706
2126.84	0.757895
2128.29	-0.0542336
2129.74	0.177289
2131.19	0.424443
2132.64	0.554982
2134.09	0.552979
2135.54	0.716769
2136.98	0.782121
2138.43	0.484988
2139.88	0.750904
2141.33	0.836051
2142.77	0.67394
2144.22	0.445927
2145.67	0.797058
2147.11	0.949615
2148.56	0.671264
2150.01	0.822954
2151.45	0.725555
2152.9	0.793226
2154.34	0.810678
2155.79	0.943797
2157.23	0.778743
2158.67	0.978539
2160.12	0.880963
2161.56	1.0164
2163	0.838078
2164.45	0.743438
2165.89	0.898208
2167.33	0.887017
2168.78	0.725564
2170.22	0.74583
2171.66	0.881302
2173.1	1.13205
2174.54	1.08247
2175.98	0.816326
2177.42	1.03256
2178.86	0.833556
2180.3	0.901159
2181.74	0.90279
2183.18	0.87152
2184.62	1.23959
2186.06	0.792686
2187.5	1.07773
2188.94	0.763785
2190.38	0.69938
2191.82	0.601493
2193.25	0.686301
2194.69	0.970123
2196.13	0.653512
2197.57	0.951535
2199	0.832466
2200.44	0.546753
2201.88	0.510386
2203.31	0.441248
2204.75	0.770756
2206.18	0.537038
2207.62	0.900242
2209.05	0.435051
2210.49	0.731212
2211.92	0.232457
2213.36	0.295927
2214.79	0.458321
2216.22	0.554787
2217.66	0.651787
2219.09	0.716446
2220.52	0.74861
2221.96	0.747879
2223.39	0.73025
2224.82	0.761196
2226.25	0.59359
2227.68	0.671853
2229.11	0.272882
2230.55	0.432086
2231.98	0.0991802
2233.41	0.389166
2234.84	0.368267
2236.27	0.282712
2237.7	0.247158
2239.12	0.310599
2240.55	0.277248
2241.98	0.620058
2243.41	0.555835
2244.84	0.72019
2246.27	0.460073
2247.7	0.557869
2249.12	0.328289
2250.55	0.57011
2251.98	0.25706
2253.41	0.106688
2254.83	0.281667
2256.26	0.473385
2257.68	0.585092
2259.11	0.390176
2260.54	0.00226307
2261.96	0.670535
2263.39	0.30101
2264.81	0.516279
2266.24	0.520209
2267.66	0.165771
2269.08	0.494021
2270.51	0.13829
2271.93	0.351971
2273.35	0.614491
2274.78	-0.214251
2276.2	0.357981
2277.62	0.555745
2279.04	0.166763
2280.47	0.54395
2281.89	0.138335
2283.31	0.31979
2284.73	0.109699
2286.15	-0.214646
2287.57	-0.0328326
2288.99	0.476
2290.41	0.266491
2291.83	0.629109
2293.25	0.23982
2294.67	0.390098
2296.09	0.0330305
2297.51	0.248758
2298.93	0.399158
2300.35	0.189219
2301.76	0.29079
2303.18	0.294189
2304.6	0.199189
2306.02	0.202583
2307.44	0.0250435
2308.85	0.159361
2310.27	0.161897
2311.69	0.526073
2313.1	0.396821
2314.52	0.234789
2315.93	0.336504
2317.35	0.603514
2318.76	0.590855
2320.18	0.132728
2321.59	0.366565
2323.01	0.120845
2324.42	0.418385
2325.83	0.351516
2327.25	0.597012
2328.66	0.479176
2330.07	0.44392
2331.49	0.228109
2332.9	0.424553
2334.31	0.0125885
2335.72	0.275432
2337.13	0.307648
2338.55	0.240638
2339.96	0.435933
2341.37	0.269148
2342.78	0.266375
2344.19	0.050375
2345.6	0.441204
2347.01	0.0454993
2348.42	0.0758982
2349.83	0.0406117
2351.24	0.00494432
2352.65	0.262779
2354.05	0.291148
2355.46	0.0908442
2356.87	0.216412
2358.28	0.162768
2359.69	0.158036
2361.09	0.348132
2362.5	0.116263
2363.91	0.338318
2365.31	0.171561
2366.72	0.00525761
2368.13	0.275543
2369.53	-0.00255442
2370.94	0.107384
2372.34	0.00849199
2373.75	0.216222
2375.15	-0.0588956
2376.56	0.0843511
2377.96	0.242935
2379.37	0.11119
2380.77	0.283725
2382.17	0.262647
2383.58	0.0488806
2384.98	0.107417
2386.38	0.150048
2387.79	0.193076
2389.19	0.236696
2390.59	0.280962
2391.99	0.278084
2393.39	0.0371275
2394.8	-0.044076
2396.2	0.0500584
2397.6	0.0967994
2399	0.0485034
2400.4	0.222912
2401.8	0.159188
2403.2	0.301965
2404.6	0.412726
2406	-0.000902653
2407.4	0.219923
2408.79	0.297355
2410.19	0.406201
2411.59	0.166498
2412.99	0.0383253
2414.39	0.164261
2415.78	-0.136444
2417.18	0.291841
2418.58	-0.0709443
2419.98	0.437399
2421.37	0.201385
2422.77	0.139357
2424.16	0.378195
2425.56	0.0783424
2426.96	-0.0945272
2428.35	0.319569
2429.74	0.115973
2431.14	0.0395455
2432.53	0.312381
2433.93	0.251661
2435.32	0.460322
2436.72	-0.0150266
2438.11	0.239574
2439.5	0.398046
2440.9	0.031837
2442.29	0.189412
2443.68	-0.0976124
2445.07	0.0120349
2446.47	0.232482
2447.86	0.341722
2449.25	0.118203
2450.64	0.417511
2452.03	0.242066
2453.42	0.0513587
2454.81	0.509858
2456.2	0.30427
2457.59	0.193821
2458.98	0.099124
2460.37	0.241344
2461.76	0.193315
2463.15	0.129045
2464.54	0.0802827
2465.93	0.236684
2467.32	-0.143816
2468.7	-0.0506558
2470.09	-0.225795
2471.48	0.0718813
2472.87	0.195558
2474.25	0.176949
2475.64	0.0321426
2477.03	0.390314
2478.41	0.072557
2479.8	0.540016
2481.18	0.160122
2482.57	0.0471387
2483.95	0.106285
2485.34	0.102271
2486.72	0.394464
2488.11	0.0611434
2489.49	0.0243254
2490.88	-0.0124998
2492.26	0.215319
2493.65	0.0239668
2495.03	0.0354347
2496.41	0.0320897
2497.79	-0.249563
2499.18	0.289701
2500.56	0.37947
2501.94	0.205902
2503.32	0.0783887
2504.7	0.166562
2506.09	0.115509
2507.47	-0.089489
2508.85	0.0903826
2510.23	0.331537
2511.61	0.112299
2512.99	-0.0600891
2514.37	-0.032588
2515.75	0.102502
2517.13	0.00841141
2518.51	0.266386
2519.89	-0.0564756
2521.26	0.0332327
2522.64	-0.0606837
2524.02	-0.0634165
2525.4	0.0553799
2526.78	0.082459
2528.15	-0.0576601
2529.53	0.0767298
2530.91	-0.2593
2532.28	0.0288029
2533.66	0.150453
2535.04	-0.046525
2536.41	-0.00042057
2537.79	0.166847
2539.16	0.151268
2540.54	-0.0469737
2541.91	0.0734344
2543.29	-0.00333261
2544.66	0.223797
2546.04	-0.200642
2547.41	-0.139003
2548.78	0.0444965
2550.16	-0.105701
2551.53	-0.0437269
2552.9	-0.02777
2554.27	-0.422109
2555.65	-0.164402
2557.02	0.123214
2558.39	0.0315099
2559.76	-0.135792
2561.13	-0.0299058
2562.51	0.0763097
2563.88	0.091928
2565.25	-0.043735
2566.62	0.138989
2567.99	-0.299573
2569.36	-0.116771
2570.73	0.338876
2572.1	0.1883
2573.47	0.234823
2574.84	-0.158217
2576.2	0.100631
2577.57	-0.140865
2578.94	0.102712
2580.31	-0.063293
2581.68	0.119226
2583.05	-0.0775189
2584.41	-0.0621181
2585.78	0.165469
2587.15	0.377927
2588.51	0.181271
2589.88	-0.27291
2591.24	-0.272477
2592.61	-0.0601525
2593.98	0.0456281
2595.34	0.0902061
2596.71	0.224979
2598.07	0.1171
2599.44	0.145198
2600.8	0.15821
2602.16	0.111095
2603.53	0.0644188
2604.89	0.0181179
2606.26	-0.314628
2607.62	0.242367
2608.98	0.331181
2610.34	-0.0628057
2611.71	0.0848475
2613.07	0.0511408
2614.43	0.227363
2615.79	-0.122141
2617.15	0.188793
2618.52	-0.0696397
2619.88	-0.0727777
2621.24	-0.0904427
2622.6	0.0267062
2623.96	-0.21454
2625.32	-0.0376458
2626.68	0.183616
2628.04	0.0318427
2629.4	0.0588112
2630.75	0.14514
2632.11	0.052876
2633.47	-0.172944
2634.83	-0.116402
2636.19	0.0438547
2637.55	-0.0776954
2638.9	0.00827837
2640.26	0.242162
2641.62	-0.0120201
2642.98	0.280952
2644.33	0.175027
2645.69	-0.0635538
2647.04	-0.257773
2648.4	-0.0101538
2649.76	0.236586
2651.11	0.129618
2652.47	-0.00668621
2653.82	0.0334702
2655.18	-0.131236
2656.53	0.144337
2657.88	0.0542793
2659.24	-0.15217
2660.59	-0.0511065
2661.95	0.122869
2663.3	0.0334244
2664.65	-0.0855517
2666	-0.117258
2667.36	0.360906
2668.71	-0.0354667
2670.06	0.0927653
2671.41	0.148417
2672.76	-0.100764
2674.12	-0.0733681
2675.47	0.143024
2676.82	-0.0466828
2678.17	0.112219
2679.52	0.199015
2680.87	0.184911
2682.22	0.0120368
2683.57	0.260334
2684.92	0.14671
2686.27	0.279977
2687.62	-0.0657043
2688.97	-0.0057106
2690.31	0.0678844
2691.66	-0.207904
2693.01	0.0814857
2694.36	-0.151972
2695.71	0.281381
2697.05	0.251111
2698.4	0.192666
2699.75	0.352427
2701.09	-0.283193
2702.44	0.182602
2703.78	0.229119
2705.13	-0.100926
2706.48	-0.155658
2707.82	0.0651379
2709.17	0.14074
2710.51	0.0564456
2711.86	0.20438
2713.2	-0.0400043
2714.54	0.107893
2715.89	0.168619
2717.23	-0.0615683
2718.57	0.0425901
2719.92	0.0884032
2721.26	0.206753
2722.6	0.00465965
2723.95	0.0642815
2725.29	0.283783
2726.63	0.139187
2727.97	0.0380983
2729.31	0.300711
2730.65	0.155774
2732	0.0399609
2733.34	0.0406089
2734.68	-0.0459061
2736.02	-0.219553
2737.36	-0.0294943
2738.7	0.17509
2740.04	-0.0131106
2741.38	0.0456614
2742.72	-0.0994544
2744.05	0.103924
2745.39	0.205129
2746.73	-0.0425048
2748.07	0.000280857
2749.41	0.0430632
2750.75	-0.00108862
2752.08	0.128922
2753.42	-0.0163794
2754.76	-0.0165925
2756.09	0.0991507
2757.43	0.0846114
2758.77	0.186044
2760.1	-0.0741644
2761.44	-0.0735283
2762.78	-0.159433
2764.11	0.145522
2765.44	0.233435
2766.78	-0.112919
2768.11	0.0321288
2769.45	0.0751786
2770.78	0.088479
2772.12	-0.202274
2773.45	-0.132397
2774.78	-0.106183
2776.12	0.0351973
2777.45	0.0470176
2778.78	0.0303788
2780.12	0.258367
2781.45	-0.116906
2782.78	0.412516
2784.11	-0.0913954
2785.44	-0.250667
2786.78	-0.223428
2788.11	0.118975
2789.44	0.175309
2790.77	0.0891004
2792.1	0.0891981
2793.43	-0.196329
2794.76	0.0471144
2796.09	0.0759449
2797.42	-0.0669441
2798.75	0.318264
2800.08	0.0321245
2801.4	0.0884686
2802.73	0.0163331
2804.06	0.086648
2805.39	0.128164
2806.72	-0.200771
2808.05	0.0108929
2809.37	0.094101
2810.7	-0.0642252
2812.03	-0.00912142
2813.35	0.245107
2814.68	-0.0671654
2816.01	-0.321752
2817.33	-0.249679
2818.66	0.0778346
2819.98	-0.133225
2821.31	0.137377
2822.63	-0.0742531
2823.96	0.0822239
2825.28	-0.0165267
2826.61	0.125536
2827.93	-0.0153389
2829.25	-0.141701
2830.58	0.0436449
2831.9	0.0592375
2833.23	0.145582
2834.55	0.189291
2835.87	0.261027
2837.19	0.120207
2838.52	-0.006639
2839.84	0.333156
2841.16	0.489031
2842.48	0.404777
2843.8	0.589446
2845.12	0.322268
2846.44	0.366363
2847.77	0.269335
2849.08	0.483262
2850.4	0.470907
2851.73	0.472429
2853.05	0.643271
2854.36	0.559508
2855.68	0.885401
2857	0.773265
2858.32	0.534074
2859.64	0.407929
2860.96	0.761825
2862.28	0.536615
2863.59	0.904099
2864.91	1.11604
2866.23	0.975196
2867.55	0.947384
2868.86	1.15952
2870.18	0.906599
2871.5	1.03443
2872.81	1.1339
2874.13	0.810231
2875.44	1.28907
2876.76	1.09114
2878.07	1.11811
2879.39	1.15895
2880.7	0.792275
2882.02	1.01646
2883.33	0.946063
2884.65	1.12895
2885.96	1.24189
2887.28	1.00395
2888.59	0.906219
2889.9	1.22897
2891.21	1.17245
2892.53	1.04558
2893.84	1.10084
2895.15	1.17024
2896.46	1.43596
2897.78	1.49217
2899.09	1.31107
2900.4	1.0605
2901.71	0.866168
2903.02	1.69307
2904.33	1.58283
2905.64	1.38881
2906.95	1.34894
2908.26	1.44935
2909.57	1.22842
2910.88	1.44152
2912.19	1.72469
2913.5	1.53159
2914.81	1.64575
2916.12	1.63303
2917.43	1.73146
2918.73	2.06716
2920.04	2.06686
2921.35	1.75929
2922.66	1.91381
2923.96	2.09694
2925.27	2.11293
2926.58	2.24109
2927.88	2.24346
2929.19	2.23165
2930.5	2.4572
2931.8	2.05339
2933.11	1.88713
2934.41	2.12619
2935.72	2.28142
2937.02	1.94757
2938.33	1.79552
2939.63	2.13267
2940.94	2.21855
2942.24	2.17909
2943.54	2.05639
2944.85	2.07413
2946.15	1.92466
2947.45	2.04123
2948.76	1.6119
2950.06	1.74173
2951.36	1.56266
2952.66	1.56463
2953.97	1.53788
2955.27	1.74888
2956.57	1.6803
2957.87	1.58475
2959.17	1.60254
2960.47	1.55171
2961.77	1.88037
2963.07	1.49446
2964.37	1.78158
2965.67	1.36592
2966.97	1.51112
2968.27	1.19178
2969.57	1.4062
2970.87	1.25494
2972.17	1.44137
2973.47	1.50142
2974.77	1.27996
2976.07	0.889091
2977.36	1.63801
2978.66	1.07654
2979.96	1.33076
2981.26	1.10564
2982.55	0.894423
2983.85	1.06312
2985.15	0.923027
2986.44	0.854027
2987.74	0.940349
2989.03	0.816402
2990.33	0.819053
2991.63	0.666833
2992.92	0.738913
2994.21	0.515212
2995.51	0.810712
2996.8	0.614151
2998.1	0.501809
2999.39	0.754359
3000.69	0.558266
3001.98	0.362597
3003.27	0.447495
3004.57	0.64444
3005.86	0.659035
3007.15	0.687244
3008.44	0.239217
3009.74	0.532265
3011.03	0.503095
3012.32	0.320103
3013.61	0.332655
3014.9	0.345368
3016.19	0.274814
3017.48	0.232561
3018.78	0.496727
3020.07	0.357305
3021.36	0.42625
3022.65	0.355697
3023.94	0.229155
3025.23	0.324195
3026.51	0.321917
3027.8	0.485891
3029.09	0.0694714
3030.38	0.372885
3031.67	0.207201
3032.96	0.359717
3034.24	0.277666
3035.53	0.457454
3036.82	0.0572147
3038.11	0.221362
3039.39	0.356597
3040.68	0.353118
3041.97	0.211802
3043.25	0.153013
3044.54	0.231655
3045.83	0.406661
3047.11	0.0360646
3048.4	0.281581
3049.68	0.10492
3050.97	0.324896
3052.25	0.149535
3053.54	0.219769
3054.82	0.43965
3056.11	0.481478
3057.39	0.304465
3058.67	0.304231
3059.96	0.290155
3061.24	0.126543
3062.52	0.344391
3063.81	0.29084
3065.09	-0.0473757
3066.37	0.226909
3067.65	0.284183
3068.94	0.287257
3070.22	0.154123
3071.5	-0.0611482
3072.78	0.307662
3074.06	0.0637827
3075.34	0.21356
3076.62	0.199956
3077.9	0.159361
3079.18	0.282131
3080.46	0.161429
3081.74	0.122942
3083.02	0.193616
3084.3	0.237502
3085.58	0.213524
3086.86	-0.0143743
3088.14	0.028718
3089.42	0.329222
3090.69	-0.00847244
3091.97	0.182903
3093.25	0.0486727
3094.53	0.0230713
3095.8	0.241611
3097.08	0.216035
3098.36	0.0141611
3099.63	0.191626
3100.91	0.260493
3102.19	0.234471
3103.46	-0.0893178
3104.74	0.0609841
3106.01	0.157413
3107.29	0.159522
3108.56	0.162127
3109.84	-0.105469
3111.11	-0.399828
3112.39	0.0373583
3113.66	-0.161837
3114.94	0.113195
3116.21	0.103314
3117.48	0.052175
3118.76	0.0952892
3120.03	0.354668
3121.3	0.111652
3122.57	0.00388575
3123.85	0.0314584
3125.12	-0.0763988
3126.39	0.140798
3127.66	0.19569
3128.93	-0.0468092
3130.21	0.184174
3131.48	0.131128
3132.75	-0.124749
3134.02	-0.0835798
3135.29	-0.0833273
3136.56	-0.0969787
3137.83	0.0238199
3139.1	0.305763
3140.37	0.331285
3141.64	0.141501
3142.91	-0.088227
3144.17	0.112184
3145.44	-0.0765376
3146.71	-0.184301
3147.98	0.351377
3149.25	0.016324
