200.533	1.66883
202.348	1.68764
204.162	1.70879
205.976	1.12377
207.792	0.636999
209.605	0.368265
211.418	0.437664
213.23	1.59667
215.044	1.19967
216.856	0.656666
218.667	1.39816
220.478	0.978159
222.289	1.11682
224.102	1.16041
225.912	0.890875
227.721	1.34636
229.531	1.41436
231.34	0.733017
233.148	0.582455
234.956	1.0838
236.766	0.502663
238.574	0.648909
240.381	0.149252
242.188	0.883442
243.994	0.848856
245.801	0.983009
247.606	-0.141325
249.412	1.4573
251.217	1.0457
253.024	0.797836
254.828	0.329716
256.632	0.439989
258.436	-0.171104
260.239	0.715136
262.042	1.09902
263.845	-0.0796471
265.647	0.381933
267.449	0.796181
269.25	1.1618
271.052	0.706228
272.852	0.730524
274.653	0.414528
276.453	0.818598
278.253	0.206732
280.052	-0.0472221
281.852	0.369118
283.65	0.0597725
285.449	-0.275763
287.247	0.587938
289.044	0.251188
290.842	0.683149
292.639	0.901665
294.436	1.41015
296.232	0.438908
298.028	0.880735
299.821	0.988836
301.617	0.762178
303.412	-0.301617
305.206	0.566135
307	-0.309855
308.794	0.12583
310.588	-0.104843
312.381	0.97702
314.172	0.0139503
315.964	1.24549
317.756	-0.37681
319.548	0.790487
321.34	1.36532
323.131	0.201595
324.921	0.779448
326.71	0.737507
328.5	0.910204
330.29	0.794964
332.079	1.01214
333.868	0.316851
335.654	0.167418
337.443	-0.512882
339.231	0.549456
341.018	-0.568048
342.804	-0.562634
344.591	0.279066
346.377	-0.0491123
348.163	0.173594
349.947	0.803106
351.733	0.955154
353.518	0.604965
355.303	0.252909
357.085	-0.0299091
358.869	0.113943
360.653	0.541164
362.435	0.466299
364.218	-0.0140991
366.001	0.0275803
367.781	0.803455
369.563	0.935946
371.345	0.190105
373.124	0.627487
374.905	0.968681
376.686	-0.531761
378.464	-0.330082
380.244	0.320656
382.022	0.243101
383.801	-0.513702
385.58	0.613663
387.357	0.144754
389.135	0.665171
390.911	0.882177
392.689	0.41993
394.466	0.921961
396.241	0.62641
398.018	0.049345
399.792	0.317503
401.568	1.14864
403.341	0.498823
405.117	0.716646
406.889	0.510317
408.664	0.302944
410.436	1.08097
412.21	0.497778
413.981	-0.0138054
415.755	0.555609
417.525	-0.35144
419.298	0.737484
421.068	-0.261568
422.84	0.241049
424.609	0.343359
426.38	0.162203
428.149	0.613306
429.919	0.359316
431.688	-0.410877
433.455	0.345306
435.225	-0.54055
436.992	0.286921
438.76	-0.0838718
440.527	-0.152391
442.293	0.619572
444.06	-0.184246
445.826	0.20405
447.593	-0.206352
449.357	0.0379162
451.122	-0.115068
452.888	0.596659
454.651	-0.231571
456.415	0.106869
458.18	0.584307
459.942	0.153799
461.705	0.0277843
463.469	0.230646
465.23	-0.0727291
466.991	1.00083
468.752	0.197855
470.515	-0.0669708
472.275	-0.144663
474.035	0.474617
475.797	0.648361
477.556	0.328592
479.315	0.703955
481.073	0.86775
482.834	0.566221
484.592	-0.501295
486.349	0.438391
488.106	0.68405
489.863	0.561214
491.622	1.37433
493.378	0.110811
495.134	0.786674
496.889	-0.526087
498.645	0.243629
500.401	-0.0414181
502.156	-0.0465336
503.91	0.627832
505.664	0.14913
507.417	0.396166
509.171	1.06379
510.923	1.21083
512.678	0.483969
514.43	0.718821
516.182	-1.07224
517.933	0.992168
519.684	1.14898
521.435	0.834249
523.186	-0.537794
524.936	0.602646
526.686	0.803617
528.435	0.793524
530.184	0.00998688
531.933	0.327326
533.682	0.502272
535.43	0.674616
537.18	0.469929
538.927	0.309511
540.674	0.846676
542.421	0.659004
544.167	-0.13373
545.913	0.446346
547.659	0.445337
549.403	0.653599
551.148	0.144123
552.893	0.422649
554.637	0.285196
556.381	-0.520674
558.125	0.428425
559.868	-0.00540733
561.611	0.115221
563.354	0.0989361
565.097	0.221888
566.839	-0.251102
568.581	0.449013
570.322	-0.111336
572.063	0.249277
573.802	-0.189585
575.542	0.912291
577.283	0.159496
579.022	0.373165
580.762	-0.0314579
582.501	0.505949
584.24	0.99682
585.976	-0.146938
587.714	0.247438
589.452	0.731571
591.19	1.467
592.927	0.406822
594.663	0.427782
596.398	0.264866
598.134	0.0329361
599.87	0.0533962
601.605	0.486265
603.338	-0.417459
605.073	-0.197021
606.808	-0.438864
608.542	0.14472
610.274	0.406172
612.007	-0.386709
613.74	0.175552
615.473	0.4867
617.204	0.431467
618.936	0.535545
620.668	0.133743
622.397	0.164572
624.128	0.74229
625.859	0.679726
627.588	-0.202244
629.318	0.22147
631.048	0.102255
632.775	1.03695
634.505	-0.0115185
636.233	0.536894
637.96	0.944838
639.688	0.799274
641.416	0.442394
643.142	0.833118
644.869	0.105059
646.594	0.175274
648.32	1.0449
650.045	0.511612
651.771	0.963591
653.496	1.08306
655.219	0.00404739
656.944	0.521732
658.667	0.65486
660.391	0.627644
662.113	1.19089
663.837	0.287497
665.558	0.704309
667.281	1.02604
669.002	1.09483
670.724	0.479073
672.444	0.278854
674.166	1.38877
675.885	0.785759
677.606	0.757818
679.325	0.661158
681.045	1.25199
682.763	1.77101
684.483	0.858944
686.2	1.16244
687.917	0.242146
689.636	1.11616
691.352	0.514536
693.07	0.948208
694.786	0.804487
696.501	0.681835
698.219	1.06327
699.933	1.21176
701.65	1.28873
703.364	1.91526
705.078	1.59786
706.793	1.78469
708.506	1.71816
710.219	1.21563
711.934	1.07947
713.646	2.01793
715.358	0.532091
717.071	1.30908
718.782	1.33217
720.493	0.945389
722.204	0.992258
723.916	1.44867
725.626	1.40399
727.336	0.404903
729.045	1.51708
730.756	1.33407
732.464	1.9207
734.173	2.18903
735.881	2.36657
737.59	1.39301
739.297	1.84393
741.004	1.48467
742.711	0.745504
744.417	2.46384
746.125	1.79816
747.831	1.67577
749.537	1.60117
751.242	1.82162
752.946	1.95478
754.651	1.86586
756.357	1.82496
758.061	2.44016
759.764	2.13531
761.467	1.69705
763.17	2.45507
764.872	1.74586
766.575	2.14052
768.276	2.37359
769.978	2.55713
771.679	2.32949
773.382	2.48339
775.083	1.91283
776.783	2.29309
778.483	2.02027
780.182	2.29322
781.882	1.93505
783.581	2.8216
785.279	2.46122
786.978	3.09194
788.676	2.81067
790.373	3.69902
792.071	2.99842
793.768	3.01829
795.464	2.72181
797.161	3.17151
798.857	3.10599
800.552	3.44944
802.248	3.27805
803.941	3.33307
805.636	3.34269
807.33	3.17079
809.024	2.52506
810.718	3.65053
812.412	2.418
814.105	3.98685
815.798	2.86628
817.49	3.00004
819.183	3.82649
820.873	3.58015
822.564	4.07126
824.256	3.82763
825.947	3.43137
827.637	3.8864
829.328	3.74574
831.016	3.81195
832.705	3.08208
834.395	3.35896
836.084	2.18831
837.772	2.71199
839.459	3.0105
841.147	3.32834
842.835	2.86161
844.522	3.01941
846.209	3.26814
847.894	2.96168
849.581	2.7718
851.267	3.23608
852.953	2.943
854.637	2.33694
856.322	2.74002
858.007	3.5238
859.689	2.28011
861.374	2.85488
863.058	2.43568
864.739	2.39662
866.423	2.76144
868.106	2.76434
869.787	3.17223
871.469	3.17354
873.151	2.67807
874.831	2.54329
876.512	1.23497
878.193	2.86041
879.872	1.84498
881.553	2.3185
883.231	2.02299
884.911	3.44086
886.591	2.68867
888.268	2.2495
889.947	2.0555
891.623	2.12915
893.302	3.43853
894.978	2.11082
896.656	2.19943
898.331	2.08373
900.008	2.16821
901.683	1.60118
903.359	2.48878
905.033	2.61399
906.709	3.07412
908.383	2.2415
910.058	1.83562
911.731	2.14423
913.405	2.20909
915.078	2.62977
916.752	2.31768
918.423	2.11685
920.096	2.07156
921.768	1.76206
923.438	1.65425
925.111	2.74263
926.781	1.69194
928.452	1.63861
930.122	2.75724
931.791	1.82491
933.462	2.23901
935.13	1.83722
936.799	1.87746
938.468	2.05173
940.136	1.12563
941.803	1.90024
943.472	1.77187
945.139	1.22367
946.805	2.39477
948.473	2.17151
950.139	2.56235
951.804	1.71501
953.471	1.59618
955.136	1.96566
956.801	0.995495
958.465	1.79593
960.131	1.01337
961.794	1.38126
963.458	1.46193
965.12	1.20748
966.785	1.72186
968.447	1.43427
970.109	0.899204
971.771	1.44648
973.432	1.22049
975.095	0.997377
976.756	0.645044
978.417	0.538719
980.077	0.710115
981.737	0.880747
983.396	1.34762
985.057	1.03584
986.716	0.919247
988.375	1.08683
990.033	0.190437
991.691	1.08384
993.349	0.451895
995.006	1.43221
996.663	0.779079
998.32	0.721905
999.976	1.36942
1001.63	1.94922
1003.29	2.04323
1004.95	1.38874
1006.6	2.14128
1008.26	1.11431
1009.91	0.023571
1011.56	0.0534573
1013.22	0.938831
1014.87	0.33449
1016.53	0.256948
1018.18	0.618029
1019.83	0.914694
1021.48	0.579105
1023.14	0.311375
1024.79	0.220358
1026.44	1.20115
1028.09	0.761461
1029.74	0.997826
1031.39	0.292528
1033.04	1.37471
1034.69	1.25252
1036.34	1.25854
1037.99	1.00154
1039.64	0.418282
1041.29	0.0981979
1042.94	1.60688
1044.58	0.531971
1046.23	0.786509
1047.88	0.262741
1049.52	0.241606
1051.17	1.04818
1052.82	0.987549
1054.46	2.10098
1056.11	1.4978
1057.75	0.219818
1059.4	1.17989
1061.04	1.42131
1062.69	0.160769
1064.33	0.768406
1065.98	1.00425
1067.62	1.08566
1069.26	0.513315
1070.9	0.417919
1072.55	0.213812
1074.19	0.0975895
1075.83	0.00507545
1077.47	1.28134
1079.11	-0.562929
1080.76	0.174759
1082.4	0.868946
1084.04	-0.3034
1085.68	0.494146
1087.32	-0.771133
1088.95	0.429552
1090.59	1.14916
1092.23	0.806028
1093.87	0.613697
1095.51	-0.0309639
1097.15	-0.543552
1098.78	0.713392
1100.42	0.508255
1102.06	1.49048
1103.69	1.50754
1105.33	0.967932
1106.97	0.257429
1108.6	0.664673
1110.24	0.575075
1111.87	0.417944
1113.51	1.2674
1115.14	0.417459
1116.77	1.34802
1118.41	0.626869
1120.04	0.486435
1121.67	-0.187229
1123.31	0.0406437
1124.94	0.205978
1126.57	0.864788
1128.2	0.0278854
1129.83	1.07413
1131.47	0.752975
1133.1	0.881329
1134.72	0.090189
1136.36	0.366581
1137.98	-0.299351
1139.62	0.677479
1141.24	0.242474
1142.87	-0.0223866
1144.5	-0.0521088
1146.13	0.239275
1147.76	-0.256241
1149.38	0.0597305
1151.01	0.482914
1152.64	0.224413
1154.27	-1.03524
1155.89	-0.294386
1157.52	0.403214
1159.14	0.0801716
1160.77	0.971004
1162.39	0.758123
1164.02	0.462173
1165.64	0.677431
1167.27	0.318039
1168.89	-0.043457
1170.51	-0.471842
1172.14	-0.011343
1173.76	0.275419
1175.38	-0.183121
1177	0.375563
1178.63	-0.167652
1180.25	0.137888
1181.87	0.0428352
1183.49	0.477648
1185.11	0.214678
1186.73	-0.303251
1188.35	-0.169514
1189.97	0.487112
1191.59	0.170183
1193.21	0.692068
1194.83	0.896008
1196.45	-0.116488
1198.07	0.487709
1199.68	-0.139982
1201.3	0.84687
1202.92	1.02315
1204.53	0.828749
1206.15	0.0961857
1207.77	0.430304
1209.38	0.0764217
1211	0.909798
1212.62	0.0296993
1214.23	0.750563
1215.84	0.466648
1217.46	0.0965233
1219.07	0.577162
1220.69	1.09811
1222.3	0.706959
1223.91	0.111784
1225.53	0.410709
1227.14	0.65008
1228.75	0.726442
1230.36	1.15667
1231.97	0.989574
1233.59	0.390881
1235.2	1.03471
1236.81	0.709467
1238.42	0.696184
1240.03	0.704823
1241.64	0.610376
1243.25	1.40481
1244.85	1.39098
1246.46	0.40254
1248.07	0.488138
1249.68	0.841255
1251.29	1.77294
1252.9	0.946651
1254.5	1.23883
1256.11	1.18151
1257.72	0.836956
1259.32	0.535875
1260.93	0.670977
1262.54	1.03484
1264.14	0.839649
1265.75	0.975061
1267.35	1.48223
1268.96	1.53163
1270.56	0.832525
1272.16	0.794804
1273.77	0.941677
1275.37	0.796389
1276.97	1.91338
1278.57	1.12229
1280.18	1.44869
1281.78	1.48448
1283.38	0.982601
1284.98	1.4748
1286.58	1.61699
1288.18	1.88519
1289.78	1.57647
1291.38	1.2688
1292.99	0.981611
1294.58	1.76723
1296.18	1.00099
1297.78	1.09919
1299.38	1.91611
1300.98	1.69813
1302.58	1.08667
1304.17	1.64743
1305.77	0.889957
1307.37	1.09826
1308.97	1.73633
1310.56	0.815638
1312.16	1.92426
1313.76	2.05052
1315.35	1.99467
1316.95	1.85912
1318.54	1.45967
1320.14	1.10127
1321.73	1.41381
1323.32	1.53958
1324.92	1.80392
1326.51	1.57765
1328.1	1.33068
1329.7	1.47012
1331.29	2.05735
1332.88	1.07191
1334.47	1.86915
1336.07	2.60802
1337.66	2.21774
1339.25	1.16132
1340.84	2.58034
1342.43	1.61817
1344.02	1.8801
1345.61	0.834444
1347.2	0.954615
1348.79	1.57855
1350.37	1.04547
1351.96	1.01808
1353.55	1.29456
1355.14	1.47341
1356.73	1.09336
1358.31	1.23203
1359.9	1.42863
1361.49	1.14394
1363.07	1.4763
1364.66	1.32916
1366.25	1.78041
1367.83	0.858786
1369.42	0.418081
1371	0.875881
1372.59	0.69943
1374.17	1.30114
1375.75	1.3669
1377.34	0.318478
1378.92	1.11963
1380.5	-0.150574
1382.09	0.287964
1383.67	0.42552
1385.25	1.25677
1386.83	0.993717
1388.42	0.89011
1390	1.14519
1391.58	0.627977
1393.16	0.945755
1394.74	0.788095
1396.32	0.78875
1397.9	0.986233
1399.48	0.943842
1401.06	1.1571
1402.64	1.07211
1404.21	0.82892
1405.79	0.685881
1407.37	0.50511
1408.95	0.780535
1410.53	0.780216
1412.1	0.85877
1413.68	1.09401
1415.26	0.538063
1416.83	0.57266
1418.41	0.862736
1419.98	1.05469
1421.56	0.756348
1423.13	0.500639
1424.71	0.858307
1426.28	0.509785
1427.86	1.10701
1429.43	1.70369
1431	0.566538
1432.58	0.667206
1434.15	1.33653
1435.72	2.06363
1437.29	1.17858
1438.87	0.767181
1440.44	1.55672
1442.01	1.81738
1443.58	2.00082
1445.15	1.98851
1446.72	2.15346
1448.29	1.59144
1449.86	2.30778
1451.43	1.27528
1453	2.17079
1454.57	2.39861
1456.14	1.30813
1457.71	2.04613
1459.27	1.52217
1460.84	1.19164
1462.41	1.05438
1463.98	1.1304
1465.54	1.97079
1467.11	1.19887
1468.67	1.11568
1470.24	0.661463
1471.81	0.0332069
1473.37	0.0937138
1474.94	0.881184
1476.5	1.3163
1478.07	1.55548
1479.63	0.579145
1481.19	0.406464
1482.76	0.645208
1484.32	0.922802
1485.88	0.553127
1487.45	0.495462
1489.01	0.259077
1490.57	0.860701
1492.13	0.518801
1493.69	-0.393057
1495.26	-0.174786
1496.82	0.138386
1498.38	0.4893
1499.94	0.393448
1501.5	0.474632
1503.06	0.92639
1504.62	-1.13965
1506.17	0.940886
1507.73	0.734365
1509.29	-0.0726128
1510.85	0.0847435
1512.41	0.452061
1513.97	0.355837
1515.52	0.51013
1517.08	0.396469
1518.64	0.514708
1520.19	-0.342991
1521.75	0.198284
1523.31	-0.351702
1524.86	-0.119223
1526.42	0.720858
1527.97	0.16703
1529.52	0.355204
1531.08	0.182095
1532.63	0.105307
1534.19	0.200865
1535.74	-0.458309
1537.29	0.699497
1538.85	0.176456
1540.4	0.409414
1541.95	0.585579
1543.5	0.892958
1545.06	0.390928
1546.61	0.697075
1548.16	0.946022
1549.71	0.650871
1551.26	0.749893
1552.81	0.176386
1554.36	0.839256
1555.91	1.01827
1557.46	0.883276
1559.01	1.61057
1560.56	1.35262
1562.11	0.74349
1563.65	0.826761
1565.2	1.24702
1566.75	1.83553
1568.29	1.28522
1569.84	0.640715
1571.39	1.6194
1572.94	1.85092
1574.48	1.69016
1576.03	1.60415
1577.57	1.83595
1579.12	1.32184
1580.66	2.22798
1582.21	1.15637
1583.75	1.37492
1585.3	1.5764
1586.84	0.956369
1588.38	1.5893
1589.93	1.92292
1591.47	2.06872
1593.01	1.01527
1594.55	1.5153
1596.1	1.09767
1597.64	1.50527
1599.18	1.18326
1600.72	1.50015
1602.26	0.95488
1603.8	2.06152
1605.34	1.87151
1606.88	1.81014
1608.42	1.5193
1609.96	1.24271
1611.5	1.52541
1613.04	1.52236
1614.58	1.85462
1616.12	1.1354
1617.65	0.849155
1619.19	1.33361
1620.73	0.734404
1622.27	1.09304
1623.8	1.17229
1625.34	0.764854
1626.87	0.749086
1628.41	1.27341
1629.95	1.73852
1631.48	1.80865
1633.02	0.944088
1634.55	0.865179
1636.09	0.825243
1637.62	1.92473
1639.15	1.38404
1640.69	1.14195
1642.22	1.90479
1643.76	1.58481
1645.29	1.31867
1646.82	1.31147
1648.35	2.06554
1649.88	1.72388
1651.42	1.88566
1652.95	2.23524
1654.48	1.25187
1656.01	1.6234
1657.54	1.90188
1659.07	1.53036
1660.6	2.37839
1662.13	2.16804
1663.66	1.41971
1665.19	1.66884
1666.72	1.84451
1668.24	2.33566
1669.77	1.87079
1671.3	2.03578
1672.83	1.74237
1674.35	1.65257
1675.88	2.00416
1677.41	1.87541
1678.93	1.94695
1680.46	0.821289
1681.99	0.37536
1683.51	0.792418
1685.04	1.85133
1686.56	1.35089
1688.09	1.3468
1689.61	0.922178
1691.13	0.919594
1692.66	1.20996
1694.18	0.768288
1695.71	0.637522
1697.23	0.981461
1698.75	0.685223
1700.27	0.516253
1701.8	0.674757
1703.32	0.777267
1704.84	0.131954
1706.36	0.996952
1707.88	0.114819
1709.4	0.65074
1710.92	0.0971146
1712.44	0.215649
1713.96	0.279964
1715.48	0.670139
1717	0.372231
1718.52	-0.0519333
1720.04	0.463436
1721.56	0.85203
1723.07	0.682291
1724.59	0.172485
1726.11	0.530176
1727.63	0.134165
1729.14	0.460087
1730.66	0.547785
1732.18	-0.381849
1733.69	-1.09919
1735.21	0.03582
1736.72	0.0201626
1738.24	0.187105
1739.75	-0.0179062
1741.27	0.455013
1742.78	0.178041
1744.3	-0.231266
1745.81	0.179527
1747.32	0.00227547
1748.84	0.289495
1750.35	0.206842
1751.86	0.298986
1753.37	0.678436
1754.89	-0.0469456
1756.4	0.363293
1757.91	0.0493088
1759.42	0.522659
1760.93	0.167952
1762.44	0.339752
1763.95	-0.150166
1765.46	0.409657
1766.97	0.521387
1768.48	-0.024044
1769.99	0.492113
1771.5	0.331404
1773.01	-0.0190926
1774.52	-0.329422
1776.03	0.0129871
1777.53	0.166664
1779.04	0.216448
1780.55	0.140144
1782.06	0.214119
1783.56	0.154787
1785.07	-0.132212
1786.57	-0.334597
1788.08	-0.307985
1789.59	-0.0636311
1791.09	0.685997
1792.6	-0.0413876
1794.1	0.0176678
1795.6	0.143976
1797.11	-0.0249691
1798.61	0.00324631
1800.12	0.379028
1801.62	-0.37042
1803.12	-0.0155029
1804.63	-0.0975304
1806.13	0.445045
1807.63	0.323767
1809.13	-0.375793
1810.63	0.185734
1812.14	0.0687485
1813.64	-0.371792
1815.14	0.641632
1816.64	0.467728
1818.14	0.295013
1819.64	0.143593
1821.14	0.13463
1822.64	-0.038641
1824.14	0.375103
1825.63	0.226816
1827.13	-0.164021
1828.63	0.349442
1830.13	0.227776
1831.63	-0.0637665
1833.12	0.1682
1834.62	0.211567
1836.12	0.543535
1837.62	0.188387
1839.11	0.0928001
1840.61	-0.00860214
1842.1	-0.133228
1843.6	-0.520895
1845.09	-0.347025
1846.59	-0.0960808
1848.08	0.690605
1849.58	-0.33679
1851.07	-0.00374985
1852.57	0.114149
1854.06	0.0351162
1855.55	0.0905533
1857.04	0.149343
1858.54	0.223677
1860.03	0.306292
1861.52	0.0562401
1863.01	0.365107
1864.5	-0.277332
1866	0.0413342
1867.49	0.144598
1868.98	-0.304377
1870.47	-0.208574
1871.96	0.353584
1873.45	0.431683
1874.94	-0.0236397
1876.43	-0.0980015
1877.92	0.411154
1879.41	-0.282484
1880.89	0.244469
1882.38	0.563454
1882.48	0.584175
1883.97	-0.268894
1885.47	0.323528
1886.96	0.338924
1888.46	0.370689
1889.95	-0.0496159
1891.44	0.245386
1892.94	0.0390873
1894.43	0.357962
1895.92	-0.311165
1897.41	-0.73539
1898.9	0.54479
1900.4	0.0837212
1901.89	0.384926
1903.38	-0.082653
1904.87	0.0730972
1906.36	-0.415724
1907.85	-0.0358582
1909.34	-0.0544453
1910.83	0.223749
1912.32	-0.0342026
1913.81	-0.15217
1915.29	0.215651
1916.78	0.444006
1918.27	0.39389
1919.76	0.2736
1921.25	0.0665779
1922.74	-0.364662
1924.22	0.0542526
1925.71	0.250195
1927.2	0.430914
1928.68	0.284
1930.17	0.137033
1931.65	0.196348
1933.14	-0.0414696
1934.63	0.461769
1936.11	0.130842
1937.59	-0.115599
1939.08	-0.293526
1940.56	-0.211693
1942.05	0.561947
1943.53	-0.250124
1945.01	0.267914
1946.5	0.320925
1947.98	-0.28138
1949.46	0.338476
1950.94	0.129374
1952.43	0.280073
1953.91	0.274679
1955.39	0.269098
1956.87	-0.0620193
1958.35	-0.0138626
1959.83	0.464516
1961.31	-0.0509911
1962.79	-3.8147e-005
1964.27	0.0334148
1965.75	-0.276604
1967.23	-0.211046
1968.71	-0.300755
1970.19	0.309347
1971.67	0.0811291
1973.14	0.382219
1974.62	0.717176
1976.1	0.216837
1977.58	0.0581779
1979.05	0.0871601
1980.53	0.0820389
1982.01	-0.0933895
1983.48	0.0196457
1984.96	-0.292465
1986.43	0.277369
1987.91	-0.170559
1989.38	0.449633
1990.86	0.494844
1992.33	-0.016325
1993.81	-0.0179005
1995.28	-0.186905
1996.76	0.202549
1998.23	0.152609
1999.7	0.169426
2001.18	-0.236797
2002.65	0.149153
2004.12	0.33213
2005.59	0.111139
2007.06	0.430714
2008.54	0.0614967
2010.01	-0.0702038
2011.48	0.590317
2012.95	0.190422
2014.42	0.143261
2015.89	0.279732
2017.36	-0.0565243
2018.83	0.12706
2020.3	-0.581118
2021.77	0.0210381
2023.24	0.321035
2024.71	0.622246
2026.17	0.0700455
2027.64	0.476761
2029.11	-0.0697403
2030.58	-0.0602589
2032.04	0.185976
2033.51	0.0304317
2034.98	-0.0244884
2036.45	-0.0129433
2037.91	0.249643
2039.38	0.629242
2040.84	0.269196
2042.31	-0.157576
2043.77	0.375475
2045.24	0.523617
2046.7	0.58918
2048.17	0.689102
2049.63	0.0806885
2051.1	0.110535
2052.56	0.053194
2054.02	0.363493
2055.48	-0.0209541
2056.95	0.553064
2058.41	0.248852
2059.87	0.298252
2061.33	0.567234
2062.8	0.282091
2064.26	0.167257
2065.72	0.121643
2067.18	0.464684
2068.64	0.539606
2070.1	0.0764999
2071.56	-0.0499172
2073.02	0.345335
2074.48	0.72332
2075.94	0.342916
2077.4	0.483824
2078.86	0.60713
2080.31	0.746378
2081.77	0.110058
2083.23	0.516338
2084.69	0.971479
2086.14	0.466042
2087.6	0.380173
2089.06	0.864981
2090.52	0.0890789
2091.97	0.489035
2093.43	0.0494061
2094.88	0.716631
2096.34	0.678207
2097.79	0.152845
2099.25	0.396914
2100.7	0.70686
2102.16	0.26474
2103.61	1.04376
2105.07	0.889669
2106.52	0.654972
2107.97	1.02289
2109.43	0.907743
2110.88	0.825006
2112.33	0.839817
2113.78	0.551615
2115.24	0.726679
2116.69	0.799934
2118.14	1.10614
2119.59	1.01598
2121.04	-0.0160503
2122.49	0.49864
2123.94	0.684164
2125.39	1.65022
2126.84	0.974272
2128.29	0.893391
2129.74	0.892815
2131.19	1.12164
2132.64	1.3321
2134.09	0.814297
2135.54	0.711824
2136.98	1.32284
2138.43	1.30904
2139.88	1.92686
2141.33	0.89501
2142.77	1.00579
2144.22	1.11788
2145.67	0.866238
2147.11	2.17018
2148.56	0.90666
2150.01	1.62877
2151.45	1.96816
2152.9	1.44406
2154.34	1.31602
2155.79	1.41903
2157.23	1.45584
2158.67	1.84179
2160.12	1.50134
2161.56	1.87656
2163	1.45976
2164.45	1.39378
2165.89	1.82736
2167.33	2.0953
2168.78	1.99588
2170.22	1.06136
2171.66	1.71937
2173.1	1.34241
2174.54	2.12722
2175.98	1.29744
2177.42	2.24739
2178.86	2.00147
2180.3	2.02343
2181.74	1.36535
2183.18	1.40666
2184.62	1.16574
2186.06	1.4073
2187.5	1.79872
2188.94	2.17372
2190.38	1.81641
2191.82	1.79141
2193.25	1.44868
2194.69	1.76944
2196.13	1.23777
2197.57	1.10207
2199	1.87781
2200.44	1.08861
2201.88	1.03075
2203.31	0.891153
2204.75	1.40036
2206.18	1.5132
2207.62	0.632971
2209.05	1.0945
2210.49	0.792831
2211.92	1.49865
2213.36	1.80537
2214.79	1.48368
2216.22	1.19651
2217.66	1.25822
2219.09	0.959377
2220.52	0.629375
2221.96	1.00853
2223.39	1.1555
2224.82	1.00337
2226.25	1.39125
2227.68	1.00262
2229.11	1.53201
2230.55	0.631437
2231.98	0.732035
2233.41	1.19298
2234.84	0.820374
2236.27	0.842701
2237.7	0.21488
2239.12	0.162279
2240.55	0.35795
2241.98	0.752508
2243.41	0.67635
2244.84	0.0789185
2246.27	0.736296
2247.7	0.640495
2249.12	0.54081
2250.55	0.665224
2251.98	0.525713
2253.41	0.710081
2254.83	0.683344
2256.26	0.659235
2257.68	0.980186
2259.11	0.689728
2260.54	1.26462
2261.96	0.69202
2263.39	1.08007
2264.81	0.461679
2266.24	0.60614
2267.66	0.407661
2269.08	0.988482
2270.51	0.428625
2271.93	0.893322
2273.35	-0.238184
2274.78	0.55212
2276.2	0.789169
2277.62	0.456215
2279.04	0.742687
2280.47	0.768282
2281.89	0.907825
2283.31	0.867777
2284.73	0.746166
2286.15	-0.109657
2287.57	0.455173
2288.99	0.482149
2290.41	0.869366
2291.83	0.0477295
2293.25	1.05726
2294.67	0.873245
2296.09	0.934425
2297.51	0.602526
2298.93	0.69635
2300.35	0.315271
2301.76	0.475456
2303.18	0.144144
2304.6	0.436499
2306.02	0.400558
2307.44	0.413246
2308.85	0.474251
2310.27	0.435551
2311.69	0.0177326
2313.1	0.126076
2314.52	0.152874
2315.93	0.345642
2317.35	0.770647
2318.76	0.389218
2320.18	0.617226
2321.59	0.463941
2323.01	0.274134
2324.42	0.542168
2325.83	0.343982
2327.25	0.555093
2328.66	0.813939
2330.07	-0.047286
2331.49	0.410999
2332.9	0.0151033
2334.31	0.344961
2335.72	0.510638
2337.13	0.691882
2338.55	0.0491982
2339.96	0.538815
2341.37	0.0900478
2342.78	0.0347567
2344.19	-0.036953
2345.6	1.03914
2347.01	-0.0149012
2348.42	1.20775
2349.83	0.301497
2351.24	0.63744
2352.65	0.44837
2354.05	0.453679
2355.46	-0.455139
2356.87	0.281888
2358.28	0.155203
2359.69	0.0127211
2361.09	0.9257
2362.5	0.442357
2363.91	0.640087
2365.31	-0.246721
2366.72	0.242411
2368.13	0.182643
2369.53	-0.310718
2370.94	0.843221
2372.34	0.242121
2373.75	-0.0183496
2375.15	-0.149099
2376.56	-0.19992
2377.96	0.519277
2379.37	0.752632
2380.77	0.195865
2382.17	0.4875
2383.58	-0.136168
2384.98	0.34494
2386.38	-0.117067
2387.79	-0.576469
2389.19	-0.187835
2390.59	0.12267
2391.99	0.164185
2393.39	0.700747
2394.8	0.140918
2396.2	0.61623
2397.6	0.0116529
2399	0.616026
2400.4	-0.113377
2401.8	0.254008
2403.2	0.0337639
2404.6	-0.37759
2406	-0.0282898
2407.4	-0.394935
2408.79	0.426817
2410.19	-0.195383
2411.59	0.229059
2412.99	0.226961
2414.39	0.527964
2415.78	0.657427
2417.18	-0.0180368
2418.58	-0.106121
2419.98	0.0915174
2421.37	0.352395
2422.77	0.2325
2424.16	0.00115204
2425.56	0.546294
2426.96	0.331761
2428.35	0.784534
2429.74	0.271948
2431.14	0.648776
2432.53	0.3754
2433.93	0.164389
2435.32	0.141872
2436.72	0.196119
2438.11	0.0887232
2439.5	0.836783
2440.9	0.423473
2442.29	0.326897
2443.68	0.293324
2445.07	1.11597
2446.47	-0.0442181
2447.86	0.492055
2449.25	-0.239419
2450.64	-0.289022
2452.03	0.0263653
2453.42	0.0106363
2454.81	-0.351599
2456.2	0.33154
2457.59	0.0661077
2458.98	0.828542
2460.37	-0.0233173
2461.76	0.736409
2463.15	-0.513092
2464.54	-0.230186
2465.93	0.494123
2467.32	0.207343
2468.7	0.788529
2470.09	0.469867
2471.48	0.4029
2472.87	-0.326863
2474.25	0.04494
2475.64	0.0689545
2477.03	0.689514
2478.41	0.256725
2479.8	0.499692
2481.18	0.507395
2482.57	-0.0490627
2483.95	-0.151439
2485.34	-0.270809
2486.72	0.170517
2488.11	0.0626879
2489.49	0.327798
2490.88	-0.0462446
2492.26	0.218918
2493.65	0.128235
2495.03	0.226321
2496.41	-0.200488
2497.79	-0.0984678
2499.18	0.0503712
2500.56	-0.28105
2501.94	-0.304214
2503.32	0.53566
2504.7	0.138219
2506.09	0.248959
2507.47	0.0819464
2508.85	0.176875
2510.23	0.134142
2511.61	0.399497
2512.99	-0.345913
2514.37	0.305281
2515.75	0.360164
2517.13	0.171662
2518.51	-0.168507
2519.89	0.118546
2521.26	-0.160241
2522.64	-0.241408
2524.02	0.652246
2525.4	0.080122
2526.78	0.178455
2528.15	0.186038
2529.53	0.423654
2530.91	0.238327
2532.28	0.162569
2533.66	0.0133762
2535.04	-0.255997
2536.41	0.127892
2537.79	0.221961
2539.16	-0.00463867
2540.54	-0.141502
2541.91	0.540646
2543.29	-0.506858
2544.66	-0.262961
2546.04	0.347046
2547.41	0.00365829
2548.78	0.192741
2550.16	0.53385
2551.53	-0.112216
2552.9	0.530027
2554.27	0.487448
2555.65	-0.16365
2557.02	0.352481
2558.39	-0.36015
2559.76	0.383366
2561.13	-0.0849838
2562.51	-0.218636
2563.88	0.542871
2565.25	0.320168
2566.62	-0.0536079
2567.99	0.133511
2569.36	0.608649
2570.73	-0.371201
2572.1	0.0737486
2573.47	0.185425
2574.84	0.630826
2576.2	0.288008
2577.57	0.384733
2578.94	0.238475
2580.31	0.0612774
2581.68	-0.0863094
2583.05	0.0687075
2584.41	0.238437
2585.78	-0.183125
2587.15	0.0322027
2588.51	0.156917
2589.88	-0.263715
2591.24	0.0277452
2592.61	-0.136191
2593.98	0.0924072
2595.34	0.758231
2596.71	-0.303947
2598.07	0.040473
2599.44	0.686196
2600.8	-0.104129
2602.16	0.119171
2603.53	-0.0490046
2604.89	-0.185823
2606.26	-0.246724
2607.62	-0.17238
2608.98	-0.114608
2610.34	0.0464411
2611.71	0.0845194
2613.07	0.0903692
2614.43	0.395258
2615.79	-0.366386
2617.15	0.193122
2618.52	0.348253
2619.88	0.205281
2621.24	0.00409317
2622.6	-0.688924
2623.96	0.366531
2625.32	-0.0269518
2626.68	-0.0624237
2628.04	0.587058
2629.4	0.043828
2630.75	-0.216222
2632.11	0.341607
2633.47	-0.28986
2634.83	-0.104006
2636.19	0.511605
2637.55	-0.162977
2638.9	0.0372229
2640.26	0.414945
2641.62	0.14209
2642.98	-0.262785
2644.33	0.248553
2645.69	-0.0375586
2647.04	0.33946
2648.4	0.0371132
2649.76	0.248931
2651.11	-0.158343
2652.47	0.0367975
2653.82	0.305287
2655.18	0.457347
2656.53	0.113198
2657.88	0.737677
2659.24	-0.216779
2660.59	0.204967
2661.95	-0.42614
2663.3	0.0671263
2664.65	-0.507165
2666	0.843364
2667.36	-0.286627
2668.71	-0.0752554
2670.06	0.339974
2671.41	0.304824
2672.76	0.125594
2674.12	0.38339
2675.47	-0.0402069
2676.82	0.0164108
2678.17	0.39325
2679.52	-0.171102
2680.87	0.10749
2682.22	0.286715
2683.57	0.41013
2684.92	0.245302
2686.27	0.255391
2687.62	0.381425
2688.97	-0.104273
2690.31	0.815216
2691.66	-0.141183
2693.01	0.467252
2694.36	-0.21721
2695.71	0.185678
2697.05	0.690641
2698.4	0.241818
2699.75	0.158197
2701.09	0.0053091
2702.44	-0.507077
2703.78	0.44558
2705.13	-0.0351725
2706.48	-0.211662
2707.82	-0.417743
2709.17	-0.102059
2710.51	0.285818
2711.86	0.0198193
2713.2	0.0876398
2714.54	-0.411483
2715.89	0.412152
2717.23	0.11616
2718.57	0.3724
2719.92	-0.157603
2721.26	0.242846
2722.6	0.133161
2723.95	-0.15202
2725.29	0.129725
2726.63	0.629146
2727.97	0.240168
2729.31	0.898626
2730.65	0.0143356
2732	0.192286
2733.34	0.0503292
2734.68	0.417833
2736.02	0.596588
2737.36	-0.009758
2738.7	0.314713
2740.04	-0.0156364
2741.38	0.307602
2742.72	0.135365
2744.05	0.0928097
2745.39	0.267131
2746.73	0.135619
2748.07	0.16357
2749.41	0.394724
2750.75	-0.577707
2752.08	-0.461589
2753.42	-0.374116
2754.76	-0.0690517
2756.09	0.26505
2757.43	-0.168158
2758.77	0.571893
2760.1	-0.00473022
2761.44	0.577394
2762.78	-0.185398
2764.11	0.152139
2765.44	0.185837
2766.78	0.942144
2768.11	-0.125901
2769.45	-0.356896
2770.78	0.146904
2772.12	0.243354
2773.45	-0.138335
2774.78	0.0419369
2776.12	0.466688
2777.45	0.387658
2778.78	-0.121655
2780.12	0.060504
2781.45	0.113774
2782.78	0.124104
2784.11	0.0483084
2785.44	0.316564
2786.78	0.498867
2788.11	0.753429
2789.44	0.408237
2790.77	-0.321192
2792.1	0.0664921
2793.43	0.0831518
2794.76	-0.200207
2796.09	0.230456
2797.42	0.174291
2798.75	0.259983
2800.08	0.302053
2801.4	0.286566
2802.73	0.0141277
2804.06	0.454088
2805.39	-0.360532
2806.72	0.00622845
2808.05	0.143838
2809.37	-0.14585
2810.7	0.232402
2812.03	-0.126801
2813.35	0.580128
2814.68	0.0838823
2816.01	-0.0693455
2817.33	0.332201
2818.66	0.040287
2819.98	0.315381
2821.31	-0.104754
2822.63	0.140112
2823.96	-0.12623
2825.28	0.230196
2826.61	0.133368
2827.93	0.235683
2829.25	0.0558186
2830.58	0.740311
2831.9	-0.00455284
2833.23	0.750987
2834.55	0.430216
2835.87	0.957806
2837.19	0.465547
2838.52	0.79322
2839.84	0.851666
2841.16	0.783011
2842.48	0.446528
2843.8	0.549357
2845.12	0.639239
2846.44	0.716022
2847.77	1.06195
2849.08	0.983957
2850.4	1.83836
2851.73	1.67429
2853.05	1.56592
2854.36	1.51343
2855.68	1.26285
2857	2.01531
2858.32	2.01903
2859.64	1.71204
2860.96	2.11088
2862.28	1.63379
2863.59	1.25511
2864.91	1.55349
2866.23	2.26076
2867.55	1.45905
2868.86	2.35038
2870.18	3.12928
2871.5	2.61144
2872.81	2.798
2874.13	3.20874
2875.44	2.94143
2876.76	3.05268
2878.07	2.95141
2879.39	3.01852
2880.7	3.0298
2882.02	2.81757
2883.33	3.15491
2884.65	2.94602
2885.96	2.58377
2887.28	2.81129
2888.59	3.58527
2889.9	2.80053
2891.21	2.92643
2892.53	3.90618
2893.84	3.2457
2895.15	3.51053
2896.46	3.25852
2897.78	3.19023
2899.09	3.37541
2900.4	3.46386
2901.71	3.39917
2903.02	3.75444
2904.33	3.81614
2905.64	3.8503
2906.95	3.60554
2908.26	4.39714
2909.57	4.63064
2910.88	4.31934
2912.19	4.58179
2913.5	4.40918
2914.81	4.17838
2916.12	4.82692
2917.43	5.26282
2918.73	4.91335
2920.04	5.17918
2921.35	5.18017
2922.66	5.49058
2923.96	5.88692
2925.27	5.64203
2926.58	5.6078
2927.88	5.4478
2929.19	6.02814
2930.5	5.69891
2931.8	5.56463
2933.11	5.59769
2934.41	4.93181
2935.72	5.87339
2937.02	5.50142
2938.33	5.75857
2939.63	5.80649
2940.94	5.33812
2942.24	5.26226
2943.54	5.49563
2944.85	4.89234
2946.15	4.47222
2947.45	4.51438
2948.76	4.68217
2950.06	4.12033
2951.36	4.64782
2952.66	4.09426
2953.97	4.65865
2955.27	4.62027
2956.57	4.00926
2957.87	3.90514
2959.17	3.83296
2960.47	3.52668
2961.77	4.33049
2963.07	3.88814
2964.37	3.82335
2965.67	3.55962
2966.97	3.6163
2968.27	3.27727
2969.57	3.97737
2970.87	3.51012
2972.17	3.07116
2973.47	3.82862
2974.77	3.08026
2976.07	3.27386
2977.36	3.29652
2978.66	3.06298
2979.96	3.05192
2981.26	2.7291
2982.55	2.37741
2983.85	2.56065
2985.15	2.66104
2986.44	2.87611
2987.74	2.20818
2989.03	1.86499
2990.33	1.94374
2991.63	2.03576
2992.92	2.18225
2994.21	1.87693
2995.51	1.41534
2996.8	1.50038
2998.1	1.44454
2999.39	1.24876
3000.69	1.36235
3001.98	1.2244
3003.27	0.624713
3004.57	0.823954
3005.86	1.13459
3007.15	0.68802
3008.44	1.14984
3009.74	-0.0683413
3011.03	0.725877
3012.32	0.708302
3013.61	0.397637
3014.9	0.478307
3016.19	0.00262928
3017.48	0.224743
3018.78	0.34993
3020.07	0.627993
3021.36	0.543541
3022.65	0.235467
3023.94	0.397987
3025.23	1.09951
3026.51	0.621818
3027.8	0.768336
3029.09	0.225018
3030.38	0.513801
3031.67	0.224573
3032.96	-0.0351772
3034.24	0.036891
3035.53	0.245913
3036.82	0.824747
3038.11	0.297503
3039.39	0.373498
3040.68	0.65268
3041.97	0.641133
3043.25	0.341467
3044.54	0.0574942
3045.83	0.0228167
3047.11	0.196471
3048.4	0.660287
3049.68	0.240021
3050.97	0.136317
3052.25	0.293127
3053.54	0.941034
3054.82	0.305176
3056.11	0.936076
3057.39	0.323925
3058.67	0.759947
3059.96	0.132732
3061.24	0.772196
3062.52	0.460313
3063.81	-0.338687
3065.09	0.700255
3066.37	0.531324
3067.65	0.527061
3068.94	0.52334
3070.22	0.178999
3071.5	0.200278
3072.78	0.763313
3074.06	0.562445
3075.34	0.509376
3076.62	0.455549
3077.9	0.00858593
3079.18	0.350498
3080.46	0.0569487
3081.74	0.376267
3083.02	0.00568581
3084.3	0.504375
3085.58	-0.150387
3086.86	0.523903
3088.14	0.301017
3089.42	0.321042
3090.69	-0.0806103
3091.97	0.10078
3093.25	-0.124801
3094.53	0.0568085
3095.8	0.347063
3097.08	0.135563
3098.36	-0.171061
3099.63	-0.0443974
3100.91	0.14954
3102.19	0.356758
3103.46	0.130836
3104.74	0.216947
3106.01	-0.359124
3107.29	0.378838
3108.56	0.0897837
3109.84	0.0187893
3111.11	-0.199764
3112.39	-0.336153
3113.66	-0.0521011
3114.94	0.0828295
3116.21	0.338881
3117.48	-0.0441275
3118.76	0.0047636
3120.03	-0.138346
3121.3	-0.0256348
3122.57	0.316085
3123.85	0.128569
3125.12	0.130769
3126.39	-0.529757
3127.66	0.0284901
3128.93	0.154149
3130.21	-0.139096
3131.48	0.473369
3132.75	0.112005
3134.02	-0.209488
3135.29	-0.221353
3136.56	-0.369375
3137.83	0.209645
3139.1	-0.075345
3140.37	0.218259
3141.64	0.0538712
3142.91	-0.190724
3144.17	0.0891304
3145.44	0.0204391
3146.71	0.502272
3147.98	0.301006
3149.25	0.395224
