200.407	0.845183
202.221	0.844594
204.035	0.845345
205.849	0.62879
207.665	0.631992
209.478	1.46122
211.291	1.68145
213.104	1.19622
214.916	0.710593
216.73	0.8797
218.541	0.806749
220.352	0.613963
222.163	0.56801
223.973	1.12797
225.785	0.625173
227.595	1.30692
229.404	1.89138
231.213	0.688902
233.022	0.573049
234.83	0.964382
236.638	0.851062
238.448	1.31914
240.255	-0.161737
242.062	0.915633
243.868	0.862098
245.675	0.422671
247.48	0.898802
249.286	0.16481
251.091	0.803534
252.896	-0.0576353
254.702	0.744553
256.506	0.21952
258.31	0.298669
260.113	0.187256
261.916	0.223001
263.719	0.501945
265.521	-0.0848656
267.323	0.1964
269.125	0.140197
270.926	0.203792
272.727	0.218017
274.527	0.640627
276.328	-0.481419
278.127	-0.713207
279.927	-0.272503
281.726	0.285807
283.525	1.00949
285.323	0.264612
287.121	0.624454
288.919	0.0485935
290.716	0.792413
292.513	0.866581
294.31	0.67971
296.104	0.160397
297.9	-0.117933
299.696	-0.371372
301.491	0.521799
303.286	0.100321
305.081	0.393806
306.875	-0.506613
308.669	-0.190457
310.463	0.0784826
312.256	0.634576
314.047	0.573463
315.839	-0.104219
317.631	0.411106
319.423	0.309382
321.215	0.995733
323.006	0.348547
324.794	0.870521
326.585	0.820446
328.375	0.674604
330.165	0.671329
331.954	0.475362
333.741	0.564314
335.53	0.626832
337.318	0.327628
339.106	0.911134
340.894	0.177039
342.679	0.159701
344.466	-0.407174
346.253	0.746788
348.039	0.635458
349.823	0.214604
351.608	0.0327835
353.393	0.614066
355.176	-0.0227833
356.961	0.603053
358.745	0.36875
360.529	0.276231
362.31	0.563487
364.093	0.0409603
365.876	0.159926
367.657	0.420189
369.439	-0.174706
371.221	-0.48513
373	0.505636
374.781	-0.278741
376.56	0.142693
378.34	-0.0256329
380.12	0.137361
381.898	-0.0279655
383.677	1.03172
385.456	0.892955
387.233	0.0745668
389.011	0.620725
390.787	0.862628
392.565	0.800331
394.34	0.386659
396.117	0.0909662
397.894	-0.275018
399.668	0.509679
401.444	0.0256023
403.217	0.292396
404.993	0.370399
406.766	-0.210033
408.54	0.59423
410.312	1.06915
412.086	0.0185146
413.858	0.00123405
415.631	0.219503
417.402	0.0633783
419.174	0.283558
420.944	0.785816
422.716	0.184699
424.486	0.357331
426.257	-0.410184
428.025	0.4646
429.794	0.423209
431.564	0.147102
433.332	0.669394
435.101	0.675824
436.868	0.00164223
438.637	1.22766
440.403	1.16096
442.169	0.52869
443.937	0.269334
445.703	0.523321
447.468	-0.254507
449.234	0.932704
450.999	0.92639
452.765	0.243544
454.528	-0.41454
456.292	-0.0460739
458.057	0.554524
459.819	-0.079073
461.582	0.26575
463.344	-0.154906
465.107	0.0550423
466.868	0.105845
468.629	-0.560472
470.392	-0.271564
472.152	0.53041
473.912	0.890054
475.672	-0.0798492
477.433	1.48619
479.192	0.510766
480.951	0.628853
482.709	0.374425
484.469	1.26272
486.226	0.616325
487.984	1.34743
489.74	-0.0635653
491.499	0.158648
493.255	0.685827
495.011	0.232056
496.767	0.760477
498.522	-0.0459766
500.277	0.716743
502.033	0.846265
503.788	0.152745
505.541	0.561481
507.295	0.804321
509.048	1.13947
510.801	0.578532
512.553	1.05076
514.308	1.02684
516.06	1.51864
517.811	0.503402
519.562	0.521925
521.313	0.844892
523.063	0.88507
524.814	0.572833
526.563	-0.278672
528.313	1.00439
530.062	0.856474
531.811	0.403704
533.559	0.512225
535.308	0.291636
537.055	0.350058
538.803	0.429919
540.55	0.951167
542.297	0.258866
544.043	0.544826
545.789	-0.00649643
547.535	0.209594
549.281	0.031374
551.026	-0.0998707
552.771	-0.0224314
554.515	0.216805
556.259	0.640532
558.003	0.764114
559.747	0.0126038
561.49	0.206916
563.233	0.930676
564.975	0.642773
566.717	1.34383
568.459	0.369206
570.2	0.613134
571.942	0.239235
573.68	-0.270077
575.421	0.346873
577.161	0.667868
578.901	0.210326
580.64	0.557229
582.379	-0.497072
584.118	0.217175
585.855	0.976729
587.593	0.492858
589.331	-0.107821
591.068	0.371579
592.805	0.344112
594.54	-0.419807
596.277	0.265752
598.013	0.422095
599.749	0.0948563
601.484	-0.23337
603.217	-0.241049
604.952	0.232247
606.687	0.289838
608.421	0.575918
610.153	-0.722155
611.886	0.206753
613.619	0.241524
615.35	0.27714
617.083	0.175493
618.815	0.577136
620.547	0.793892
622.276	0.391109
624.008	-0.195196
625.738	0.20154
627.467	0.073947
629.197	0.154268
630.927	0.169044
632.655	0.209246
634.384	0.364967
636.113	0.314948
637.839	0.719331
639.568	-0.272004
641.293	1.24277
643.021	0.267962
644.748	-0.137623
646.473	-0.405682
648.2	-0.171062
649.924	-0.273747
651.65	-0.00822353
653.376	0.62594
655.099	-0.0541592
656.824	0.0188656
658.546	0.731503
660.271	0.144581
661.993	0.78781
663.716	0.332108
665.438	0.490085
667.161	0.577049
668.881	0.25131
670.604	-0.00517845
672.324	-0.396765
674.045	0.519462
675.765	-0.187475
677.486	0.344788
679.204	0.970237
680.925	1.08991
682.643	0.195115
684.361	0.723649
686.08	1.08882
687.797	0.761078
689.516	0.593009
691.232	-0.290133
692.95	0.553532
694.666	0.728187
696.382	1.13178
698.099	1.55656
699.813	0.782743
701.528	0.192118
703.244	1.04891
704.958	0.525559
706.673	0.323549
708.387	0.442368
710.099	0.720876
711.814	1.29602
713.526	1.48089
715.238	0.47678
716.949	0.296349
718.663	0.390047
720.374	0.780092
722.084	0.69144
723.796	1.44483
725.506	0.49178
727.216	0.811959
728.925	0.972159
730.636	1.13142
732.345	0.497184
734.053	0.904696
735.761	1.58266
737.471	1.62745
739.178	0.680433
740.885	0.435044
742.592	1.07003
744.298	1.12062
746.006	1.66806
747.712	1.27213
749.417	2.18275
751.122	1.0932
752.827	1.33243
754.532	0.8536
756.236	1.47915
757.942	1.94965
759.645	1.6792
761.348	2.0412
763.051	2.04351
764.753	1.86485
766.456	1.70706
768.158	1.36583
769.859	1.79029
771.56	2.48351
773.261	1.47876
774.964	1.58139
776.664	2.13686
778.364	1.51828
780.064	1.24076
781.763	1.64328
783.462	2.04631
785.16	2.06331
786.859	1.42072
788.557	1.63422
790.255	1.88846
791.952	2.11607
793.649	2.1378
795.346	1.52739
797.042	1.21222
798.738	1.55276
800.434	1.87271
802.127	1.13685
803.823	1.66189
805.517	1.64683
807.212	1.24874
808.906	0.984318
810.6	1.70615
812.293	0.968112
813.987	1.66447
815.68	2.09067
817.372	1.75557
819.064	1.97983
820.754	1.93599
822.446	1.13403
824.137	1.85046
825.828	1.92156
827.519	2.26268
829.209	1.47154
830.897	1.33029
832.587	1.30405
834.276	1.45887
835.966	1.3922
837.654	1.05745
839.341	0.899555
841.029	1.2533
842.717	0.957602
844.404	1.80076
846.091	1.6393
847.776	0.965736
849.463	1.59223
851.149	1.93181
852.833	1.93844
854.519	1.45279
856.204	1.50502
857.889	1.08381
859.572	1.6498
861.256	1.78641
862.94	1.51548
864.622	1.37781
866.305	0.5625
867.988	0.715539
869.669	0.507219
871.351	1.65185
873.033	0.946608
874.713	0.64721
876.395	0.911906
878.074	1.01872
879.755	1.44145
881.435	0.577039
883.114	0.953302
884.794	0.67351
886.471	1.24969
888.15	1.12407
889.829	1.01903
891.506	1.58828
893.184	1.14151
894.861	1.34645
896.538	0.965084
898.214	0.785285
899.891	0.582201
901.566	0.916298
903.242	0.890771
904.916	1.46848
906.592	0.839663
908.266	0.636791
909.941	0.480009
911.614	0.591684
913.288	1.17074
914.961	0.905438
916.635	1.12873
918.306	0.44288
919.979	0.865514
921.651	0.226238
923.321	1.26937
924.994	0.744732
926.664	0.81923
928.336	0.807584
930.005	0.819667
931.674	1.45045
933.345	0.316602
935.014	0.0656061
936.682	0.917941
938.352	1.6169
940.019	1.23682
941.687	1.07888
943.356	0.943945
945.022	0.455681
946.689	0.45148
948.357	-0.0627174
950.022	1.29674
951.688	1.17564
953.355	0.745846
955.02	0.538754
956.684	0.445455
958.348	1.39305
960.014	0.800328
961.678	0.650714
963.341	0.987119
965.004	0.0390272
966.669	1.69745
968.331	1.49405
969.993	1.24347
971.655	0.991731
973.316	0.60794
974.979	0.513561
976.64	0.73117
978.3	0.641168
979.961	0.662695
981.62	0.683784
983.28	0.968825
984.941	1.16277
986.6	0.734152
988.259	0.369771
989.917	0.977036
991.575	0.256735
993.233	0.751832
994.89	1.18025
996.547	1.25535
998.204	1.06575
999.86	1.20663
1001.52	2.42586
1003.17	2.32245
1004.83	1.42701
1006.49	0.730454
1008.14	0.649931
1009.79	0.416343
1011.45	0.731895
1013.1	0.368256
1014.76	0.596984
1016.41	0.628967
1018.06	0.223992
1019.72	0.126638
1021.37	0.467974
1023.02	0.679431
1024.67	0.782845
1026.32	-0.292954
1027.97	0.816519
1029.62	1.50981
1031.27	1.87351
1032.92	1.27411
1034.57	1.52392
1036.22	1.77143
1037.87	1.45094
1039.52	1.87091
1041.17	1.85612
1042.82	1.69106
1044.47	0.311967
1046.11	0.674154
1047.76	0.452366
1049.41	0.319687
1051.06	0.579647
1052.7	0.210805
1054.35	0.0161629
1055.99	0.36483
1057.64	0.148089
1059.28	-0.178053
1060.93	0.408196
1062.57	0.188947
1064.22	0.0555048
1065.86	0.00771618
1067.5	-0.519578
1069.15	0.12544
1070.79	0.0307474
1072.43	-0.302834
1074.08	0.796529
1075.72	0.334735
1077.36	0.417115
1079	0.305991
1080.64	0.499516
1082.28	0.693082
1083.92	0.733718
1085.56	0.923927
1087.2	0.24455
1088.84	0.299383
1090.48	0.438358
1092.12	1.13754
1093.76	0.193356
1095.39	0.545719
1097.03	1.00634
1098.67	0.800319
1100.31	0.424757
1101.94	0.43949
1103.58	0.392081
1105.22	0.927256
1106.85	0.301738
1108.49	0.385685
1110.12	0.253194
1111.76	0.247686
1113.39	0.4119
1115.03	0.252212
1116.66	0.11338
1118.29	0.575115
1119.93	0.715796
1121.56	0.921907
1123.19	1.32195
1124.82	1.46634
1126.46	0.499691
1128.09	1.20258
1129.72	1.5
1131.35	1.22096
1132.98	0.279721
1134.61	0.792038
1136.24	0.833206
1137.87	0.552432
1139.5	0.355644
1141.13	0.58466
1142.76	0.0658674
1144.39	0.443548
1146.01	0.523331
1147.64	0.327314
1149.27	-0.0165186
1150.9	0.428612
1152.53	0.0430651
1154.15	0.232101
1155.78	1.42079
1157.4	0.800087
1159.03	0.265335
1160.65	0.518793
1162.28	-0.0767984
1163.9	0.00941753
1165.53	1.09566
1167.15	0.672012
1168.78	0.459599
1170.4	1.09517
1172.02	1.1752
1173.65	0.509496
1175.27	0.882552
1176.89	0.554714
1178.51	0.164091
1180.14	0.600491
1181.76	0.0644627
1183.38	-0.237438
1185	0.158395
1186.62	0.637005
1188.24	0.627445
1189.86	0.0882587
1191.48	-0.136497
1193.1	0.120899
1194.71	0.229503
1196.33	-0.249269
1197.95	-0.0136337
1199.57	0.788371
1201.19	1.23675
1202.8	0.72774
1204.42	0.995139
1206.04	1.11936
1207.65	0.536157
1209.27	0.495899
1210.88	0.934313
1212.5	1.09914
1214.12	0.114646
1215.73	0.960795
1217.35	0.846059
1218.96	0.896344
1220.57	1.67289
1222.19	0.789734
1223.8	1.4847
1225.41	1.6838
1227.03	1.45032
1228.64	1.09502
1230.25	1.58952
1231.86	1.89942
1233.47	1.36361
1235.08	1.47036
1236.69	1.12411
1238.31	1.97828
1239.92	1.75856
1241.52	1.10468
1243.13	1.79481
1244.74	1.57369
1246.35	2.24089
1247.96	0.733921
1249.57	1.91584
1251.18	1.50409
1252.78	1.87876
1254.39	1.55115
1256	1.68013
1257.6	1.3351
1259.21	1.36404
1260.82	1.80826
1262.42	2.06717
1264.03	1.55986
1265.63	2.17065
1267.24	1.28835
1268.84	0.964112
1270.45	1.7995
1272.05	1.72116
1273.65	0.977945
1275.26	2.18203
1276.86	1.08403
1278.46	1.72564
1280.06	0.895745
1281.67	1.57701
1283.27	0.871742
1284.87	1.057
1286.47	1.80151
1288.07	1.59636
1289.67	1.70258
1291.27	1.52025
1292.87	1.56515
1294.47	2.57997
1296.07	1.94028
1297.67	2.269
1299.27	2.30611
1300.87	2.52649
1302.47	2.31209
1304.06	2.57
1305.66	2.37402
1307.26	2.69113
1308.85	3.08917
1310.45	3.09696
1312.05	2.65493
1313.64	3.72836
1315.24	2.90101
1316.83	2.72987
1318.43	2.64149
1320.02	3.10356
1321.62	3.35985
1323.21	3.02319
1324.8	3.11144
1326.4	3.0755
1327.99	3.28204
1329.59	3.00287
1331.18	3.31328
1332.77	3.32338
1334.36	3.39756
1335.95	2.0415
1337.54	3.35007
1339.14	3.34603
1340.73	2.51367
1342.32	3.61137
1343.91	2.53281
1345.5	1.95699
1347.09	3.14717
1348.67	2.91506
1350.26	1.84654
1351.85	2.42336
1353.44	2.6228
1355.03	2.78415
1356.62	2.20669
1358.2	1.80874
1359.79	2.30833
1361.38	3.44459
1362.96	2.38405
1364.55	2.48048
1366.14	2.23842
1367.72	2.01769
1369.31	2.1174
1370.89	2.41814
1372.48	2.40244
1374.06	1.87111
1375.64	2.51476
1377.23	2.46219
1378.81	2.40889
1380.39	2.01587
1381.98	1.8797
1383.56	2.25876
1385.14	2.27823
1386.72	2.15792
1388.3	2.15706
1389.89	2.25641
1391.47	1.88078
1393.05	2.41908
1394.63	2.28338
1396.21	2.0682
1397.79	1.69354
1399.37	2.13014
1400.95	1.99058
1402.52	2.72125
1404.1	2.04641
1405.68	2.16396
1407.26	1.37346
1408.84	2.04689
1410.42	2.30586
1411.99	2.14997
1413.57	2.13152
1415.15	1.85526
1416.72	1.67663
1418.3	1.69471
1419.87	1.91019
1421.45	1.81192
1423.02	2.08995
1424.6	1.60268
1426.17	1.27473
1427.75	1.41995
1429.32	2.33247
1430.89	2.94842
1432.47	1.75208
1434.04	2.46315
1435.61	2.42579
1437.18	3.60769
1438.76	2.72618
1440.33	3.65461
1441.9	2.97287
1443.47	3.78587
1445.04	3.8527
1446.61	3.34981
1448.18	3.8496
1449.75	3.83877
1451.32	3.31745
1452.89	3.17041
1454.46	2.92555
1456.03	3.62498
1457.6	3.00522
1459.16	3.42653
1460.73	2.60542
1462.3	2.76554
1463.87	2.70677
1465.43	2.44986
1467	2.46768
1468.56	2.66266
1470.13	2.52513
1471.7	2.87982
1473.26	1.863
1474.83	1.90665
1476.39	1.46072
1477.96	1.87766
1479.52	1.58873
1481.08	1.51534
1482.65	1.48103
1484.21	1.44656
1485.77	1.76424
1487.34	1.33648
1488.9	1.25959
1490.46	1.86507
1492.02	1.5086
1493.58	1.2864
1495.15	1.74498
1496.71	1.05124
1498.27	0.631352
1499.83	1.39878
1501.39	1.21462
1502.95	1.03249
1504.51	1.20073
1506.07	0.865747
1507.63	1.09142
1509.18	0.697029
1510.74	0.533515
1512.3	1.1401
1513.86	0.0316124
1515.41	1.44427
1516.97	1.20313
1518.53	1.002
1520.08	1.56839
1521.64	1.27279
1523.2	1.43614
1524.75	0.509797
1526.31	0.404278
1527.86	0.488236
1529.42	1.48391
1530.97	0.938678
1532.52	1.04034
1534.08	1.74892
1535.63	0.94406
1537.19	1.48381
1538.74	1.77806
1540.29	1.69514
1541.84	1.7444
1543.4	1.13473
1544.95	1.40965
1546.5	1.19535
1548.05	2.16336
1549.6	1.98592
1551.15	1.50949
1552.7	2.25065
1554.25	2.65538
1555.8	2.22106
1557.35	2.76051
1558.9	1.28724
1560.45	1.17925
1562	2.08083
1563.54	2.29381
1565.09	2.20915
1566.64	2.34857
1568.19	1.98378
1569.73	2.30898
1571.28	2.65232
1572.83	2.80858
1574.37	2.53527
1575.92	2.56065
1577.47	2.26896
1579.01	2.9113
1580.56	3.51734
1582.1	2.68673
1583.64	3.48223
1585.19	3.55056
1586.73	3.95624
1588.28	3.44602
1589.82	3.04732
1591.36	3.4151
1592.9	2.86489
1594.45	3.60628
1595.99	2.96168
1597.53	2.91701
1599.07	2.62953
1600.61	2.92432
1602.15	3.42656
1603.69	3.14063
1605.23	2.68435
1606.77	3.05264
1608.31	3.17387
1609.85	2.65265
1611.39	2.50402
1612.93	3.02869
1614.47	2.46224
1616.01	3.18998
1617.55	2.83027
1619.08	2.41643
1620.62	2.77294
1622.16	2.43847
1623.7	1.93684
1625.23	2.82062
1626.77	2.54268
1628.3	2.37529
1629.84	1.98163
1631.37	3.04465
1632.91	2.61154
1634.44	3.05669
1635.98	2.83084
1637.51	3.0728
1639.05	2.70029
1640.58	2.32812
1642.11	3.14767
1643.65	2.43799
1645.18	3.01138
1646.71	2.72724
1648.24	2.87038
1649.78	3.34807
1651.31	2.26776
1652.84	2.3589
1654.37	2.84089
1655.9	3.3791
1657.43	2.65694
1658.96	2.91585
1660.49	2.37663
1662.02	2.35398
1663.55	2.66246
1665.08	2.98804
1666.61	2.50152
1668.14	2.90247
1669.66	2.91799
1671.19	2.23552
1672.72	1.92347
1674.25	1.79641
1675.77	2.12938
1677.3	2.70031
1678.83	2.34941
1680.35	2.01574
1681.88	1.44249
1683.4	1.78762
1684.93	1.63689
1686.45	1.79858
1687.98	1.94235
1689.5	1.61022
1691.03	0.985807
1692.55	0.288918
1694.07	1.14741
1695.6	1.09069
1697.12	1.0885
1698.64	0.464947
1700.17	1.39285
1701.69	1.2975
1703.21	1.01925
1704.73	0.740653
1706.25	0.352721
1707.77	0.492257
1709.29	0.776732
1710.81	0.933768
1712.33	0.419837
1713.85	1.04839
1715.37	0.481182
1716.89	0.674521
1718.41	0.270939
1719.93	0.824984
1721.45	0.548339
1722.97	0.669473
1724.49	0.323281
1726	0.573399
1727.52	0.537012
1729.04	-0.127895
1730.55	0.394575
1732.07	0.606342
1733.59	0.0396032
1735.1	0.626534
1736.62	0.445446
1738.13	0.260354
1739.65	0.378353
1741.16	0.160305
1742.68	0.141637
1744.19	0.30901
1745.7	0.637836
1747.22	0.0623732
1748.73	-0.0345726
1750.24	-0.00670052
1751.76	0.0472984
1753.27	0.188926
1754.78	0.367053
1756.29	-0.0367737
1757.8	0.477311
1759.31	-0.229206
1760.83	-0.137221
1762.34	0.0839405
1763.85	0.311053
1765.36	0.11405
1766.87	0.449348
1768.38	0.365777
1769.89	-0.0444441
1771.39	0.0526171
1772.9	-0.082881
1774.41	0.0757036
1775.92	0.042243
1777.43	-0.557935
1778.94	0.071207
1780.44	-0.00633335
1781.95	-0.0677176
1783.46	0.0164299
1784.96	0.287848
1786.47	0.19592
1787.97	0.218407
1789.48	-0.452852
1790.99	0.0233688
1792.49	0.120809
1794	-0.128642
1795.5	-0.0174084
1797	0.310066
1798.51	0.0324974
1800.01	0.3158
1801.51	0.109647
1803.02	0.50441
1804.52	0.118344
1806.02	0.0784769
1807.53	0.053874
1809.03	-0.05513
1810.53	0.231483
1812.03	-0.0641117
1813.53	-0.0391874
1815.03	-0.16501
1816.53	0.28491
1818.03	-0.333258
1819.53	0.138614
1821.03	0.45206
1822.53	0.58758
1824.03	0.342397
1825.53	0.172851
1827.03	0.164937
1828.53	-0.246322
1830.02	0.386928
1831.52	0.13461
1833.02	0.172921
1834.52	0.120295
1836.01	0.100279
1837.51	0.182838
1839.01	-0.155587
1840.5	0.104689
1842	0.193153
1843.49	0.208304
1844.99	-0.168081
1846.48	0.0187798
1847.98	0.403823
1849.47	0.435331
1850.97	0.234029
1852.46	0.307279
1853.95	0.218678
1855.45	-0.0304909
1856.94	-0.0207062
1858.43	0.165736
1859.93	-0.0649118
1861.42	0.328178
1862.91	0.297033
1864.4	0.740725
1865.89	0.297635
1867.38	-0.377191
1868.87	-0.0642004
1870.36	0.271531
1871.85	0.506522
1873.34	0.647399
1874.83	-0.0413933
1876.32	0.0971746
1877.81	0.118477
1879.3	0.123495
1880.79	-0.306052
1882.28	0.195403
1882.52	0.311069
1884.02	0.484504
1885.51	0.134058
1887.01	0.253133
1888.5	0.197387
1889.99	0.629072
1891.49	0.296371
1892.98	0.226633
1894.47	-0.136446
1895.97	0.145604
1897.46	0.46353
1898.95	0.0160561
1900.44	-0.0500269
1901.93	0.24728
1903.42	0.00321579
1904.91	0.2791
1906.4	0.397385
1907.89	-0.179109
1909.38	0.044095
1910.87	-0.113506
1912.36	-0.148535
1913.85	-0.182897
1915.34	0.233708
1916.83	-0.269107
1918.32	0.492936
1919.8	0.214374
1921.29	0.0744362
1922.78	-0.220778
1924.27	-0.168591
1925.75	-0.0804825
1927.24	0.181995
1928.73	-0.368492
1930.21	0.31032
1931.7	0.0877638
1933.18	0.0885944
1934.67	0.312339
1936.15	0.222438
1937.64	0.459705
1939.12	0.471464
1940.61	0.362691
1942.09	0.186049
1943.57	0.166089
1945.06	0.00922489
1946.54	0.352831
1948.02	0.144465
1949.51	-0.202449
1950.99	0.155711
1952.47	-0.0210638
1953.95	-0.232687
1955.43	0.0370131
1956.91	0.0148754
1958.4	-0.0750837
1959.88	-0.112628
1961.36	0.039113
1962.84	-0.408944
1964.32	0.205386
1965.8	0.424686
1967.27	0.232147
1968.75	0.0732498
1970.23	0.153141
1971.71	0.745006
1973.19	0.158247
1974.67	0.0500021
1976.14	-0.671461
1977.62	0.549939
1979.1	-0.255694
1980.58	0.0623531
1982.05	0.158789
1983.53	0.203762
1985	0.112473
1986.48	0.241506
1987.95	0.0991507
1989.43	-0.0934181
1990.9	-0.13263
1992.38	-0.0184851
1993.85	0.0290947
1995.33	0.0944996
1996.8	0.413784
1998.27	-0.111602
1999.75	0.0719137
2001.22	0.220811
2002.69	0.115967
2004.16	-0.106944
2005.64	0.294192
2007.11	0.156887
2008.58	-0.0802317
2010.05	-0.0300312
2011.52	0.222769
2012.99	0.357746
2014.46	0.576305
2015.93	0.137678
2017.4	0.185953
2018.87	0.25001
2020.34	0.17892
2021.81	0.376425
2023.28	0.540545
2024.75	0.353145
2026.22	0.284717
2027.69	-0.100627
2029.15	0.220247
2030.62	-0.0443707
2032.09	0.195442
2033.56	-0.470527
2035.02	0.0553389
2036.49	-0.426824
2037.96	0.232757
2039.42	0.0182104
2040.89	0.391868
2042.35	0.0767527
2043.82	0.334221
2045.28	0.340555
2046.75	0.280469
2048.21	0.102767
2049.67	0.210999
2051.14	0.149529
2052.6	0.254824
2054.07	0.324244
2055.53	-0.0300179
2056.99	0.575145
2058.45	0.555415
2059.92	-0.407744
2061.38	0.0446529
2062.84	-0.0409393
2064.3	0.228105
2065.76	0.464619
2067.22	0.163614
2068.68	-0.00208473
2070.14	-0.133793
2071.6	0.0375729
2073.06	0.461375
2074.52	-0.0748844
2075.98	-0.0558891
2077.44	0.0300426
2078.9	0.587022
2080.36	0.402482
2081.82	0.621382
2083.27	-0.221074
2084.73	0.282265
2086.19	0.532067
2087.65	0.0579119
2089.1	0.1551
2090.56	0.184752
2092.02	0.415747
2093.47	-0.00801277
2094.93	0.105032
2096.38	0.384965
2097.84	0.0775366
2099.29	0.121273
2100.75	0.499016
2102.2	0.0242386
2103.66	0.102145
2105.11	0.481862
2106.56	0.212251
2108.02	0.0941639
2109.47	0.176626
2110.92	0.0417099
2112.38	0.455243
2113.83	-0.11618
2115.28	0.30973
2116.73	-0.0807314
2118.18	0.0945873
2119.63	0.33755
2121.09	-0.0313454
2122.54	0.0666294
2123.99	0.0999002
2125.44	-0.114808
2126.89	0.267096
2128.34	0.399078
2129.79	-0.249434
2131.23	-0.219782
2132.68	0.735881
2134.13	0.118833
2135.58	0.181258
2137.03	-0.0687428
2138.48	0.179226
2139.92	0.495433
2141.37	-0.128601
2142.82	0.141281
2144.27	-0.33234
2145.71	-0.0779982
2147.16	0.275571
2148.6	-0.315388
2150.05	-0.0627308
2151.49	0.371187
2152.94	0.472656
2154.38	0.291509
2155.83	0.142999
2157.27	0.508117
2158.72	0.178292
2160.16	-0.299186
2161.6	0.186151
2163.05	0.110218
2164.49	0.0856676
2165.93	0.344254
2167.38	-0.161147
2168.82	0.64499
2170.26	-0.0802078
2171.7	0.256512
2173.14	-0.357105
2174.58	0.258764
2176.03	-0.340218
2177.47	0.225133
2178.91	0.392157
2180.35	-0.104753
2181.79	0.16409
2183.23	-0.431094
2184.67	0.437504
2186.1	0.491343
2187.54	-0.0204964
2188.98	0.116566
2190.42	-0.395525
2191.86	0.257314
2193.3	-0.222702
2194.73	0.21154
2196.17	-0.00552654
2197.61	0.307771
2199.05	-0.112805
2200.48	0.280174
2201.92	0.0415058
2203.35	0.318222
2204.79	0.297365
2206.22	0.261138
2207.66	0.0433102
2209.1	-0.207649
2210.53	0.00421047
2211.97	0.0327635
2213.4	-0.0387287
2214.83	0.385242
2216.27	0.11606
2217.7	0.871321
2219.13	0.538974
2220.57	-0.303187
2222	0.107861
2223.43	0.0730152
2224.86	-0.0456848
2226.29	0.0312958
2227.72	0.00765038
2229.16	0.179657
2230.59	0.23558
2232.02	0.45497
2233.45	-0.226046
2234.88	-0.185334
2236.31	-0.029026
2237.74	-0.458898
2239.17	-0.331422
2240.6	0.124377
2242.03	0.321099
2243.45	0.372464
2244.88	-0.211876
2246.31	-0.144531
2247.74	0.44291
2249.17	0.277589
2250.59	-0.0693436
2252.02	-0.157312
2253.45	0.176733
2254.87	-0.058135
2256.3	0.569435
2257.73	-0.0179358
2259.15	0.063488
2260.58	0.261835
2262	0.187187
2263.43	0.341693
2264.85	-0.218305
2266.28	0.0336704
2267.7	0.23619
2269.13	-0.278266
2270.55	-0.354415
2271.97	0.171308
2273.4	0.0618906
2274.82	0.408637
2276.24	0.462496
2277.67	0.223239
2279.09	0.146951
2280.51	0.103168
2281.93	0.0102854
2283.35	0.814567
2284.77	0.379073
2286.2	0.139486
2287.62	0.0144863
2289.04	0.118577
2290.46	0.353936
2291.88	0.311922
2293.3	-0.286026
2294.72	-0.213705
2296.13	0.611542
2297.55	0.0946312
2298.97	0.380084
2300.39	0.0268011
2301.81	-0.326481
2303.23	-0.0399599
2304.64	-0.179741
2306.06	0.0908289
2307.48	0.213392
2308.89	0.138167
2310.31	0.37464
2311.73	0.413412
2313.14	0.336979
2314.56	-0.265741
2315.98	-0.456444
2317.39	0.375001
2318.81	0.103408
2320.22	0.12813
2321.64	-0.0464067
2323.05	-0.0911751
2324.46	0.191477
2325.88	0.0259466
2327.29	0.171923
2328.7	0.778296
2330.12	0.297113
2331.53	0.311371
2332.94	0.162356
2334.35	0.327059
2335.77	0.228774
2337.18	-0.379825
2338.59	-0.199989
2340	-0.136629
2341.41	-0.0087328
2342.82	0.13482
2344.23	0.196141
2345.64	0.0610313
2347.05	-0.352016
2348.46	0.0375566
2349.87	0.115392
2351.28	0.339324
2352.69	0.169748
2354.1	0.0809517
2355.51	0.594615
2356.91	0.422938
2358.32	0.186521
2359.73	0.210705
2361.14	-0.641468
2362.54	0.145655
2363.95	0.0726032
2365.36	-0.0327196
2366.76	-0.218401
2368.17	-0.290005
2369.58	0.349443
2370.98	-0.12279
2372.39	0.244849
2373.79	0.0174885
2375.2	2.86102e-005
2376.6	0.207402
2378	0.0113001
2379.41	0.327829
2380.81	0.449214
2382.22	0.312069
2383.62	-0.626604
2385.02	0.0843029
2386.43	0.154879
2387.83	0.226351
2389.23	0.139649
2390.63	0.34133
2392.03	-0.140454
2393.44	0.175075
2394.84	-0.0494738
2396.24	0.0767336
2397.64	0.362526
2399.04	0.12451
2400.44	-0.0492764
2401.84	0.412702
2403.24	0.144058
2404.64	-0.299586
2406.04	0.398911
2407.44	0.223115
2408.84	-0.270647
2410.23	0.107522
2411.63	-0.306598
2413.03	-0.766941
2414.43	-0.0540209
2415.83	0.280388
2417.22	-0.0644026
2418.62	-0.0123568
2420.02	-0.0865736
2421.41	0.124177
2422.81	0.112784
2424.21	0.307046
2425.6	0.390494
2427	0.125896
2428.39	-0.0426846
2429.79	0.535115
2431.18	-0.0123186
2432.58	0.392407
2433.97	0.463353
2435.36	0.247043
2436.76	-0.257094
2438.15	0.253821
2439.54	0.334194
2440.94	0.222873
2442.33	0.158605
2443.72	0.58595
2445.12	0.251385
2446.51	-0.273334
2447.9	0.422495
2449.29	0.499909
2450.68	-0.134971
2452.07	0.0701141
2453.46	-0.0404959
2454.85	0.103053
2456.24	-0.0215473
2457.64	-0.177392
2459.02	0.283451
2460.41	0.0634956
2461.8	-0.0150194
2463.19	0.000424385
2464.58	0.0941744
2465.97	0.0295677
2467.36	0.122754
2468.75	0.215791
2470.13	0.0246305
2471.52	0.116855
2472.91	-0.0438709
2474.3	-0.205277
2475.68	-0.00539398
2477.07	0.1623
2478.45	0.0783882
2479.84	0.0889492
2481.23	0.162407
2482.61	0.329671
2484	-0.223989
2485.38	0.223269
2486.77	-0.190971
2488.15	0.45556
2489.54	0.180121
2490.92	-0.0792265
2492.3	-0.0264378
2493.69	0.198253
2495.07	0.175852
2496.45	0.263469
2497.84	0.243542
2499.22	-0.457086
2500.6	-0.18267
2501.98	0.337714
2503.36	0.0222425
2504.75	0.13823
2506.13	-0.440117
2507.51	0.167615
2508.89	0.528155
2510.27	0.335568
2511.65	-0.0553074
2513.03	0.214557
2514.41	-0.0357752
2515.79	0.189744
2517.17	-0.180691
2518.55	0.0461645
2519.93	0.227139
2521.3	0.499248
2522.68	0.327607
2524.06	0.368723
2525.44	0.19555
2526.82	0.0984764
2528.19	0.397636
2529.57	-0.108239
2530.95	-0.00380325
2532.32	0.254442
2533.7	0.423045
2535.08	0.106322
2536.45	-0.0281248
2537.83	0.201254
2539.2	0.216806
2540.58	0.276921
2541.95	-0.0428772
2543.33	0.27509
2544.7	0.669728
2546.08	-0.360025
2547.45	0.113312
2548.82	-0.459087
2550.2	-0.181848
2551.57	0.292217
2552.94	0.461736
2554.32	-0.280499
2555.69	0.357103
2557.06	-0.0831642
2558.43	0.189326
2559.8	-0.114079
2561.18	0.325914
2562.55	0.266425
2563.92	0.344019
2565.29	0.42212
2566.66	-0.257209
2568.03	0.32139
2569.4	0.081625
2570.77	-0.158167
2572.14	-0.216057
2573.51	0.529545
2574.88	0.0777311
2576.25	0.277813
2577.61	0.3262
2578.98	0.32884
2580.35	0.0732803
2581.72	0.0750122
2583.09	-0.151116
2584.45	-0.134923
2585.82	0.00246525
2587.19	0.367304
2588.55	0.126078
2589.92	-0.296848
2591.29	-0.0076437
2592.65	-0.0675249
2594.02	0.401877
2595.38	-0.493099
2596.75	-0.283552
2598.11	0.499735
2599.48	0.102394
2600.84	0.370469
2602.21	0.578432
2603.57	0.0322371
2604.93	0.120897
2606.3	0.134295
2607.66	0.358402
2609.02	-0.0516901
2610.39	-0.0409966
2611.75	0.359462
2613.11	-0.384912
2614.47	0.16308
2615.83	0.484555
2617.19	0.340945
2618.56	0.258232
2619.92	0.715261
2621.28	0.619235
2622.64	0.583755
2624	0.160363
2625.36	0.200052
2626.72	-0.237807
2628.08	0.308047
2629.44	-0.025775
2630.8	0.131643
2632.15	0.0508156
2633.51	-0.104217
2634.87	0.453366
2636.23	0.253677
2637.59	0.572917
2638.94	0.388288
2640.3	0.130159
2641.66	0.197951
2643.02	0.310284
2644.37	0.127398
2645.73	-0.1586
2647.09	-0.0318956
2648.44	0.417852
2649.8	0.439071
2651.15	-0.0257282
2652.51	0.156221
2653.86	-0.0727396
2655.22	0.051363
2656.57	0.0447016
2657.93	0.185748
2659.28	-0.242843
2660.63	0.66002
2661.99	0.217298
2663.34	0.416997
2664.69	-0.435457
2666.05	0.448081
2667.4	0.0617781
2668.75	0.0691319
2670.1	0.353227
2671.45	0.0704765
2672.81	0.079442
2674.16	0.248855
2675.51	0.23007
2676.86	0.400578
2678.21	0.0351124
2679.56	0.0768156
2680.91	0.438667
2682.26	0.0914927
2683.61	0.166153
2684.96	0.41603
2686.31	0.216808
2687.66	0.351095
2689	0.455008
2690.35	0.310111
2691.7	0.395291
2693.05	0.377024
2694.4	0.18359
2695.74	0.366944
2697.09	-0.0141134
2698.44	0.185844
2699.79	0.228406
2701.13	0.258532
2702.48	0.377349
2703.83	0.0627708
2705.17	0.690857
2706.52	0.101226
2707.86	0.0186205
2709.21	-0.26777
2710.55	0.374596
2711.9	0.203577
2713.24	0.192112
2714.58	0.805593
2715.93	0.430634
2717.27	0.811571
2718.62	0.363167
2719.96	0.146914
2721.3	0.264773
2722.65	-0.0254545
2723.99	0.542496
2725.33	-0.0836201
2726.67	0.308694
2728.01	0.729679
2729.35	0.146177
2730.7	0.683009
2732.04	0.506779
2733.38	0.577983
2734.72	0.169373
2736.06	0.44465
2737.4	0.530978
2738.74	0.0937119
2740.08	0.208802
2741.42	0.105201
2742.76	0.50967
2744.1	0.389897
2745.43	0.0370092
2746.77	0.569689
2748.11	-0.00147152
2749.45	0.32745
2750.79	0.105209
2752.12	0.0139074
2753.46	0.560609
2754.8	0.397237
2756.14	0.263083
2757.47	0.317431
2758.81	0.487857
2760.14	0.311311
2761.48	0.28011
2762.81	0.466524
2764.15	0.132401
2765.49	-0.100431
2766.82	0.490859
2768.16	-0.322169
2769.49	0.179563
2770.82	0.317842
2772.16	0.0499535
2773.49	0.40169
2774.82	0.117836
2776.16	0.180114
2777.49	0.357828
2778.82	0.133251
2780.16	-0.305931
2781.49	0.332887
2782.82	0.195997
2784.15	-0.299329
2785.48	-0.120437
2786.82	0.201661
2788.15	0.481009
2789.48	0.231631
2790.81	-0.130887
2792.14	-0.00613403
2793.47	-0.238292
2794.8	0.37292
2796.13	0.154714
2797.46	-0.435397
2798.79	0.0022974
2800.12	-0.616994
2801.44	0.233278
2802.77	0.155715
2804.1	-0.0930958
2805.43	0.398451
2806.76	-0.193069
2808.08	-0.00225735
2809.41	0.173553
2810.74	-0.00591183
2812.07	0.127786
2813.39	0.234286
2814.72	0.455839
2816.05	0.0411673
2817.37	0.336606
2818.7	-0.146815
2820.02	0.319403
2821.35	0.289008
2822.67	-0.294854
2824	-0.0574894
2825.32	-0.118095
2826.65	0.0196257
2827.97	0.582637
2829.3	0.480802
2830.62	0.521114
2831.94	0.292725
2833.26	0.517241
2834.59	0.755498
2835.91	0.384562
2837.23	1.0743
2838.56	1.1549
2839.88	1.22106
2841.2	1.52767
2842.52	1.55196
2843.84	1.56293
2845.16	1.88573
2846.48	2.05386
2847.8	2.43448
2849.12	2.23567
2850.45	2.23435
2851.77	2.18998
2853.08	2.85159
2854.4	2.56578
2855.72	2.42108
2857.04	3.09575
2858.36	3.27593
2859.68	3.04649
2861	2.66157
2862.32	3.54693
2863.63	3.9233
2864.95	3.93224
2866.27	4.16685
2867.59	4.4581
2868.9	4.97546
2870.22	4.81654
2871.54	5.32039
2872.85	5.13313
2874.17	5.38165
2875.48	5.3468
2876.8	5.33853
2878.11	5.20245
2879.43	5.00986
2880.74	5.52071
2882.06	5.40002
2883.37	5.64609
2884.69	5.17735
2886	5.76252
2887.31	5.33704
2888.63	5.33207
2889.94	5.38212
2891.25	5.6693
2892.57	6.02543
2893.88	6.11482
2895.19	6.23268
2896.5	5.88974
2897.82	6.02432
2899.13	6.17433
2900.44	6.05966
2901.75	6.01563
2903.06	6.27965
2904.37	6.30607
2905.68	6.52872
2906.99	6.6263
2908.3	6.64113
2909.61	7.06295
2910.92	7.30385
2912.23	7.93678
2913.54	7.81281
2914.85	8.17676
2916.16	8.31409
2917.46	8.68692
2918.77	8.23253
2920.08	9.09291
2921.39	9.1708
2922.7	9.08283
2924	9.13682
2925.31	8.68935
2926.62	8.8998
2927.92	9.19424
2929.23	9.80968
2930.54	9.85109
2931.84	9.73799
2933.15	9.66646
2934.45	9.38525
2935.76	9.4956
2937.06	9.4385
2938.37	8.89261
2939.67	8.86421
2940.98	9.04619
2942.28	8.26525
2943.58	8.88356
2944.89	7.54695
2946.19	7.86146
2947.49	7.44957
2948.8	6.82708
2950.1	6.88866
2951.4	6.89182
2952.7	6.6963
2954.01	6.02286
2955.31	5.90906
2956.61	6.14639
2957.91	6.47048
2959.21	6.22441
2960.51	6.36025
2961.81	6.21877
2963.11	6.19045
2964.41	6.03497
2965.71	5.96164
2967.01	5.73136
2968.31	5.70996
2969.61	5.67344
2970.91	4.69439
2972.21	5.41759
2973.51	5.01587
2974.81	5.21923
2976.1	4.67562
2977.4	4.65115
2978.7	4.37095
2980	4.13075
2981.29	3.63567
2982.59	3.80133
2983.89	3.65801
2985.18	3.57248
2986.48	3.34848
2987.78	3.04217
2989.07	3.17281
2990.37	3.19144
2991.66	3.02674
2992.96	2.49533
2994.25	2.67905
2995.55	2.53816
2996.84	1.73659
2998.14	2.03008
2999.43	2.00102
3000.73	1.41184
3002.02	1.31442
3003.31	1.60997
3004.61	1.27515
3005.9	1.1783
3007.19	1.2768
3008.48	1.40218
3009.77	1.3026
3011.07	0.978696
3012.36	1.0457
3013.65	0.415111
3014.94	0.706058
3016.23	0.663152
3017.52	0.189676
3018.81	0.427046
3020.1	0.274905
3021.4	0.761806
3022.68	0.302636
3023.97	0.536905
3025.26	0.187601
3026.55	-0.161244
3027.84	0.418257
3029.13	0.624853
3030.42	0.252758
3031.71	0.15912
3033	0.287755
3034.28	-0.135258
3035.57	0.20021
3036.86	0.00996494
3038.15	0.0659246
3039.43	0.683837
3040.72	0.501256
3042.01	0.0573006
3043.29	-0.0975981
3044.58	-0.0456963
3045.87	0.0217485
3047.15	0.597141
3048.44	0.123451
3049.72	-0.00599766
3051.01	0.0985384
3052.29	0.572543
3053.58	0.787339
3054.86	0.796713
3056.15	0.545732
3057.43	0.539035
3058.71	0.722178
3060	1.1227
3061.28	0.761246
3062.56	1.09513
3063.84	0.832349
3065.13	0.517363
3066.41	0.299376
3067.69	0.585728
3068.97	0.111203
3070.26	0.697197
3071.54	-0.0641985
3072.82	0.125117
3074.1	0.217804
3075.38	0.717014
3076.66	0.264804
3077.94	0.682319
3079.22	0.585318
3080.5	0.300416
3081.78	0.356688
3083.06	-0.100941
3084.34	0.337764
3085.62	0.681817
3086.9	-0.155331
3088.18	0.499758
3089.45	0.163286
3090.73	0.274266
3092.01	-0.00829124
3093.29	0.089345
3094.56	-0.178732
3095.84	-0.134424
3097.12	-0.130569
3098.4	0.523891
3099.67	-0.0143843
3100.95	-0.267883
3102.22	-0.128315
3103.5	-0.0289907
3104.78	0.0980835
3106.05	-0.071641
3107.33	0.720682
3108.6	0.75655
3109.88	-0.153645
3111.15	0.0472603
3112.43	0.425382
3113.7	0.19468
3114.97	0.451943
3116.25	0.125845
3117.52	-0.160571
3118.79	-0.0683336
3120.07	0.402508
3121.34	0.804399
3122.61	0.717516
3123.88	0.305547
3125.16	0.0432444
3126.43	0.404409
3127.7	0.57671
3128.97	0.357432
3130.24	0.639163
3131.51	0.0964994
3132.79	0.256833
3134.06	0.214198
3135.33	0.576148
3136.6	0.370592
3137.87	0.89289
3139.14	0.727091
3140.41	0.709611
3141.67	0.396579
3142.94	0.917623
3144.21	0.700209
3145.48	0.926745
3146.75	0.765171
3148.02	1.15409
3149.29	1.12838
