200.523	0.231583
202.339	0.270375
204.154	0.309961
205.967	0.00968742
207.781	-0.290337
209.596	-0.372118
211.409	-0.285152
213.222	0.358481
215.034	0.417828
216.848	0.0400791
218.659	0.413446
220.47	-0.181417
222.281	0.0716763
224.091	0.107523
225.903	-0.194658
227.713	0.179553
229.522	0.0940657
231.331	0.104424
233.14	-0.295834
234.948	0.485889
236.756	-0.105924
238.566	0.0273428
240.373	-0.126586
242.18	-0.10997
243.986	-0.0441427
245.792	-0.147558
247.598	0.519825
249.403	0.580976
251.208	0.518123
253.013	0.33174
254.818	-0.0734329
256.624	0.220446
258.427	-0.0396709
260.231	0.496753
262.034	0.263758
263.836	-0.449708
265.638	0.138497
267.44	0.341401
269.242	0.206384
271.043	-0.122545
272.844	-0.525146
274.645	-0.0612526
276.445	0.497253
278.245	0.0414267
280.044	-0.0306969
281.843	0.184029
283.642	-0.445148
285.44	-0.0175409
287.238	0.360353
289.036	-0.1258
290.833	0.275776
292.63	0.00755024
294.425	0.027957
296.221	0.551592
298.017	0.33476
299.813	-0.168344
301.608	0.689916
303.403	0.352824
305.198	0.30106
306.992	0.296032
308.786	0.266817
310.579	0.190345
312.371	0.472103
314.163	0.350325
315.956	0.158694
317.748	0.206654
319.54	0.708517
321.331	0.830376
323.122	0.189816
324.911	0.550928
326.701	-0.162036
328.491	1.01124
330.281	1.10932
332.071	0.392952
333.857	0.894467
335.646	0.604349
337.434	0.599046
339.222	0.519869
341.008	0.367401
342.795	0.40543
344.582	0.682189
346.369	0.409738
348.153	0.496122
349.939	0.320215
351.724	0.359073
353.51	-0.127698
355.292	-0.0189199
357.077	0.708409
358.861	1.12383
360.643	0.894522
362.426	0.188627
364.21	0.434083
365.99	0.131953
367.773	0.399164
369.555	0.854632
371.335	1.07136
373.116	0.36416
374.897	0.41431
376.676	0.22826
378.456	0.986157
380.236	-0.44743
382.014	0.0524235
383.793	0.646626
385.57	-0.0987291
387.349	-0.0199909
389.127	0.48239
390.903	0.116325
392.681	0.19719
394.456	0.348927
396.233	0.195614
398.007	0.699869
399.784	0.287916
401.56	0.0868301
403.333	0.401801
405.108	0.034893
406.881	0.536157
408.656	0.0975113
410.428	0.409787
412.202	0.369872
413.973	0.377195
415.746	0.455481
417.517	0.112048
419.29	0.801603
421.06	0.341415
422.831	0.350272
424.601	0.45231
426.37	0.506488
428.141	0.113808
429.909	-0.232364
431.679	0.571493
433.447	0.131584
435.216	0.0439672
436.983	0.871563
438.75	0.501484
440.519	0.693233
442.285	-0.0553141
444.052	0.601441
445.818	0.459106
447.583	-0.0352068
449.349	0.429592
451.114	0.893601
452.878	0.773501
454.643	0.350533
456.407	0.720554
458.169	-0.0512886
459.934	0.388091
461.696	0.432102
463.458	-0.103603
465.222	0.060174
466.983	0.0869169
468.744	0.16244
470.507	0.402399
472.267	0.340581
474.027	0.0684118
475.787	0.12048
477.548	0.520061
479.307	0.405491
481.065	0.220139
482.823	0.640466
484.583	0.200069
486.341	0.739683
488.098	0.908713
489.855	1.31311
491.612	0.902081
493.37	0.63113
495.126	0.897738
496.881	1.30518
498.636	0.47121
500.391	0.456093
502.148	0.346446
503.902	0.682069
505.656	0.429454
507.409	0.316358
509.162	0.507573
510.915	0.603286
512.668	0.462218
514.42	0.837405
516.174	1.18763
517.925	1.23075
519.676	1.06126
521.427	0.256796
523.178	1.00257
524.928	0.761569
526.678	0.145446
528.427	0.631917
530.176	0.414737
531.925	0.337907
533.673	0.494473
535.422	0.556161
537.169	0.125693
538.917	-0.141813
540.664	1.26918
542.411	0.114079
544.157	0.426952
545.903	0.692549
547.649	0.261436
549.395	0.248775
551.14	0.305779
552.884	0.663482
554.629	0.512265
556.373	0.407759
558.117	0.48827
559.86	0.154385
561.603	0.0977917
563.346	-0.073226
565.089	0.974684
566.831	0.0463896
568.573	0.5662
570.314	0.0309
572.053	0.391895
573.794	-0.00273418
575.534	0.040061
577.274	0.0843315
579.014	-0.0538673
580.754	-0.32935
582.493	0.268185
584.23	0.107117
585.968	-0.0550022
587.706	0.17275
589.444	-0.0146284
591.181	0.602424
592.919	0.229671
594.653	0.547011
596.39	0.2892
598.126	-0.175703
599.862	0.0952778
601.595	-0.485646
603.33	0.335419
605.065	-0.43159
606.8	0.455329
608.532	0.123483
610.266	-0.254002
611.999	-0.14896
613.732	-0.157976
615.463	0.269052
617.196	0.398068
618.928	0.801311
620.66	0.0128851
622.389	0.345146
624.12	0.493299
625.851	0.00165939
627.58	0.653097
629.31	0.324477
631.04	0.522999
632.767	0.609324
634.497	0.651001
636.223	0.623883
637.952	0.207053
639.68	0.404057
641.406	0.689397
643.134	0.835292
644.861	0.524409
646.586	0.532893
648.312	0.179449
650.037	0.601794
651.762	-0.0403433
653.486	0.798231
655.211	1.00401
656.936	0.506478
658.659	0.282338
660.383	0.148608
662.105	0.744039
663.829	0.378336
665.55	1.47325
667.273	0.508819
668.994	0.481087
670.716	0.225306
672.436	0.177094
674.158	0.0165043
675.877	0.453505
677.598	0.364744
679.317	0.321861
681.035	0.00212193
682.755	0.20945
684.473	0.622331
686.192	0.458024
687.909	0.223106
689.628	0.609089
691.344	0.257326
693.06	0.503901
694.778	0.0818176
696.493	0.99458
698.211	-0.00494003
699.925	0.329784
701.64	0.778128
703.356	0.512576
705.07	0.729043
706.783	0.761118
708.498	0.769805
710.211	0.22825
711.924	0.190915
713.638	0.565053
715.35	0.892662
717.061	0.671703
718.774	0.816184
720.485	0.7099
722.196	0.558414
723.906	0.703009
725.618	0.074338
727.328	1.03637
729.037	1.13402
730.746	1.00435
732.456	0.625446
734.165	1.60459
735.873	0.253904
737.58	1.02868
739.289	0.764929
740.997	1.47183
742.703	1.14273
744.41	1.33315
746.116	1.32225
747.823	0.547832
749.529	1.61943
751.234	1.07269
752.938	0.909586
754.643	0.815235
756.347	0.699721
758.051	0.990836
759.756	1.30618
761.459	0.743713
763.162	0.587049
764.865	1.60411
766.567	1.37872
768.269	1.73908
769.97	1.03479
771.671	1.1651
773.372	1.6559
775.073	0.789588
776.773	0.941341
778.473	1.47872
780.174	1.47492
781.874	1.15547
783.573	1.24331
785.271	2.07714
786.97	1.79957
788.668	1.2474
790.365	1.48426
792.063	1.92162
793.76	1.45352
795.456	2.02368
797.153	1.08377
798.847	1.5432
800.543	1.35106
802.238	1.52041
803.933	0.858186
805.628	0.713379
807.322	1.01735
809.017	0.870821
810.71	1.48639
812.404	1.06874
814.097	1.00972
815.79	1.91316
817.483	2.36772
819.173	1.19021
820.865	1.48856
822.556	1.42983
824.248	1.7064
825.939	1.40469
827.629	1.66216
829.318	1.40998
831.008	1.11617
832.697	1.78289
834.387	1.22622
836.076	1.45055
837.765	1.29552
839.451	1.80912
841.139	1.13774
842.827	1.67124
844.514	1.33301
846.2	1.46471
847.886	1.88891
849.573	1.66715
851.259	1.44751
852.943	1.09482
854.629	0.921787
856.314	0.950388
857.997	1.11293
859.682	0.981677
861.366	0.623404
863.05	1.00672
864.732	0.397576
866.415	0.891872
868.098	1.07017
869.779	0.143011
871.461	1.40333
873.141	1.28766
874.823	0.901123
876.505	1.37205
878.184	0.69207
879.865	0.71158
881.545	0.843645
883.223	0.975065
884.903	1.01516
886.581	1.73101
888.26	0.730245
889.937	0.585787
891.616	1.02608
893.294	0.924068
894.97	0.866141
896.648	0.964667
898.323	0.70279
900	0.754632
901.675	0.357575
903.351	0.7665
905.026	0.772013
906.701	0.643814
908.375	1.20762
910.05	-0.0104752
911.723	0.265263
913.398	0.741066
915.07	1.1275
916.742	0.759074
918.415	0.723691
920.087	0.799216
921.76	0.985738
923.43	0.797305
925.103	0.654846
926.773	0.757136
928.443	0.35327
930.114	0.700999
931.783	0.475595
933.454	1.22115
935.123	0.996174
936.791	1.12456
938.461	0.658311
940.128	0.259349
941.796	0.832032
943.464	0.545073
945.131	0.257827
946.797	0.543391
948.465	1.00389
950.131	0.00593376
951.797	1.10333
953.462	0.546043
955.128	0.188955
956.793	0.143122
958.457	0.453098
960.121	1.00872
961.786	1.05849
963.45	0.776603
965.113	0.492742
966.775	0.737169
968.44	0.182542
970.102	1.24109
971.763	0.573238
973.425	0.635884
975.086	0.235509
976.748	-0.362304
978.409	0.30189
980.069	0.458084
981.729	0.613993
983.388	0.215251
985.048	0.722344
986.708	1.09456
988.367	0.845357
990.025	0.794215
991.683	0.521538
993.341	0.514076
994.998	0.109398
996.655	0.477437
998.312	0.95528
999.969	0.859426
1001.62	1.5781
1003.28	0.931017
1004.94	0.856282
1006.59	0.627723
1008.25	0.772927
1009.9	0.676874
1011.56	0.778738
1013.21	-0.017622
1014.86	0.54531
1016.52	-0.183564
1018.17	0.992345
1019.82	0.44019
1021.48	0.436017
1023.13	-0.0698462
1024.78	0.0591249
1026.43	0.123025
1028.08	0.0121307
1029.73	0.883757
1031.38	0.465279
1033.03	0.460389
1034.68	0.323079
1036.33	0.991347
1037.98	-0.0195274
1039.63	0.603642
1041.28	0.13899
1042.93	0.371749
1044.57	0.605886
1046.22	0.494164
1047.87	0.514569
1049.52	0.47136
1051.16	-0.396065
1052.81	0.648719
1054.45	-0.478696
1056.1	0.0234985
1057.75	0.373481
1059.39	0.549197
1061.04	0.354703
1062.68	0.22471
1064.32	0.420031
1065.97	0.309991
1067.61	0.0903406
1069.25	0.304473
1070.9	0.235546
1072.54	0.361938
1074.18	0.141537
1075.82	0.2693
1077.47	0.224736
1079.11	0.0945864
1080.75	0.35545
1082.39	0.551227
1084.03	0.29082
1085.67	0.0290174
1087.31	0.220578
1088.95	0.345087
1090.59	0.381272
1092.22	0.308246
1093.86	0.77477
1095.5	-0.0538378
1097.14	0.456244
1098.78	0.902184
1100.41	0.0791826
1102.05	-0.009655
1103.69	0.483999
1105.32	1.0002
1106.96	-0.182267
1108.59	0.527673
1110.23	-0.462173
1111.86	-0.313688
1113.5	0.563606
1115.13	0.837643
1116.77	0.724615
1118.4	-0.00978947
1120.03	0.0286436
1121.67	0.517591
1123.3	0.472021
1124.93	0.855311
1126.56	0.255331
1128.19	0.40482
1129.83	0.768737
1131.46	0.277964
1133.09	0.578512
1134.72	-0.403653
1136.35	0.280906
1137.98	-0.40326
1139.61	-0.105518
1141.24	0.148395
1142.86	-0.409231
1144.49	0.484107
1146.12	-0.093668
1147.75	0.0331297
1149.38	0.181939
1151	-0.116181
1152.63	0.309862
1154.26	0.288297
1155.88	0.138683
1157.51	0.0528917
1159.14	-0.0324965
1160.76	-0.0320005
1162.39	0.330964
1164.01	0.142015
1165.63	0.123613
1167.26	0.211271
1168.88	-0.488675
1170.51	0.446726
1172.13	-0.171185
1173.75	-0.0469246
1175.38	-0.00878143
1177	0.325628
1178.62	0.29964
1180.24	0.295511
1181.86	0.313387
1183.48	-0.217807
1185.1	-0.283548
1186.72	0.114482
1188.34	0.6792
1189.96	0.292562
1191.58	0.389188
1193.2	0.40008
1194.82	0.137277
1196.44	0.378411
1198.06	0.0335598
1199.68	0.297618
1201.29	0.605124
1202.91	1.18612
1204.53	0.600368
1206.14	0.392613
1207.76	0.332181
1209.38	0.522309
1210.99	0.315344
1212.61	0.732357
1214.22	-0.0825148
1215.84	0.413428
1217.45	0.678043
1219.07	0.567163
1220.68	0.497943
1222.29	0.284368
1223.91	0.134503
1225.52	0.545268
1227.13	0.956922
1228.74	1.49361
1230.36	0.997369
1231.97	0.978022
1233.58	0.753182
1235.19	0.674228
1236.8	1.52654
1238.41	1.26376
1240.02	1.08423
1241.63	1.44257
1243.24	1.05594
1244.85	2.24098
1246.46	1.72836
1248.07	1.58714
1249.67	1.59002
1251.28	1.32366
1252.89	1.03691
1254.5	1.26802
1256.1	1.0865
1257.71	1.63022
1259.32	1.59593
1260.92	1.3555
1262.53	1.17749
1264.13	1.37222
1265.74	1.27658
1267.34	1.92638
1268.95	1.6218
1270.55	1.33683
1272.15	1.27886
1273.76	0.722341
1275.36	1.28436
1276.97	0.995607
1278.57	1.41055
1280.17	1.92809
1281.77	1.09962
1283.37	1.63736
1284.97	1.78231
1286.58	1.94875
1288.18	1.9715
1289.78	1.6232
1291.38	2.16402
1292.98	1.77485
1294.58	2.2733
1296.18	2.12994
1297.78	1.63408
1299.37	2.14796
1300.97	1.87619
1302.57	1.52121
1304.17	1.9479
1305.77	1.69461
1307.36	1.81099
1308.96	2.15248
1310.55	1.59161
1312.15	2.24008
1313.75	1.8246
1315.34	1.5948
1316.94	1.73383
1318.53	2.22001
1320.13	2.2976
1321.72	1.94634
1323.32	1.87902
1324.91	2.05398
1326.5	1.63841
1328.1	1.73021
1329.69	2.288
1331.28	2.27991
1332.87	1.70845
1334.47	2.67463
1336.06	1.88577
1337.65	2.14704
1339.24	2.36698
1340.83	2.06118
1342.42	1.87442
1344.01	1.82674
1345.6	1.67772
1347.19	1.32875
1348.78	1.92361
1350.37	1.81941
1351.96	0.977911
1353.54	1.93851
1355.13	0.621231
1356.72	1.42307
1358.31	1.96434
1359.89	1.74547
1361.48	1.64546
1363.07	1.50484
1364.65	1.5036
1366.24	1.34322
1367.82	1.54225
1369.41	0.886365
1370.99	1.62527
1372.58	1.03209
1374.16	1.29565
1375.75	0.903195
1377.33	1.06796
1378.91	1.23225
1380.5	1.37563
1382.08	1.57735
1383.66	1.47939
1385.25	1.42029
1386.83	1.14228
1388.41	1.57955
1389.99	1.46133
1391.57	1.28455
1393.15	1.10863
1394.73	1.30998
1396.31	1.63
1397.89	1.19588
1399.47	1.09795
1401.05	1.89041
1402.63	1.01878
1404.21	0.82071
1405.78	0.959476
1407.36	0.960563
1408.94	1.10075
1410.52	1.51785
1412.1	0.947332
1413.67	1.30436
1415.25	0.831549
1416.82	1.26554
1418.4	0.831509
1419.98	1.42259
1421.55	1.20688
1423.13	0.736921
1424.7	1.15434
1426.28	1.86811
1427.85	0.968437
1429.42	1.15101
1431	1.49016
1432.57	1.59196
1434.14	1.319
1435.71	2.16677
1437.29	2.38512
1438.86	1.8965
1440.43	2.17555
1442	2.02317
1443.57	1.67495
1445.14	2.25084
1446.71	2.2373
1448.28	2.63673
1449.85	2.25016
1451.42	2.29654
1452.99	2.26481
1454.56	1.82034
1456.13	2.33973
1457.7	1.6582
1459.26	2.15609
1460.83	1.72731
1462.4	2.02476
1463.97	2.08438
1465.54	1.86769
1467.1	1.72948
1468.67	1.51324
1470.23	1.43545
1471.8	1.00569
1473.36	0.812501
1474.93	1.14954
1476.49	0.388879
1478.06	1.19685
1479.62	0.906843
1481.19	0.812813
1482.75	1.01268
1484.31	1.13396
1485.88	1.09814
1487.44	0.767826
1489	0.593114
1490.56	0.260378
1492.13	0.962349
1493.69	0.996996
1495.25	0.659237
1496.81	0.418752
1498.37	0.43164
1499.93	0.95028
1501.49	0.439874
1503.05	0.144919
1504.61	0.606887
1506.17	0.1391
1507.73	0.17443
1509.28	0.208776
1510.84	0.222741
1512.4	0.621328
1513.96	0.383462
1515.52	0.530791
1517.07	0.851068
1518.63	0.826165
1520.19	1.08919
1521.74	0.701279
1523.3	0.485906
1524.85	0.709374
1526.41	0.816971
1527.96	0.999578
1529.52	1.35228
1531.07	0.963519
1532.63	0.652177
1534.18	0.380347
1535.73	0.809894
1537.29	0.937064
1538.84	1.02686
1540.39	1.09797
1541.94	1.01833
1543.5	1.42803
1545.05	0.971914
1546.6	1.00482
1548.15	0.868642
1549.7	0.957625
1551.25	1.57087
1552.8	1.34166
1554.35	1.26331
1555.9	1.65331
1557.45	0.887321
1559	1.39262
1560.55	1.07863
1562.1	1.73625
1563.65	1.57413
1565.19	1.39384
1566.74	1.25091
1568.29	1.96625
1569.83	1.6174
1571.38	1.94013
1572.93	1.90791
1574.47	1.74487
1576.02	1.37651
1577.56	1.56837
1579.11	1.9847
1580.66	2.25236
1582.2	1.69916
1583.74	1.81903
1585.29	2.01447
1586.83	2.17314
1588.38	2.10761
1589.92	1.96696
1591.46	2.08782
1593.01	1.87122
1594.55	1.91643
1596.09	2.01792
1597.63	1.57635
1599.17	1.75385
1600.71	2.10101
1602.25	2.12988
1603.79	1.6705
1605.34	2.16814
1606.88	2.08217
1608.41	1.67467
1609.95	1.92272
1611.49	1.9805
1613.03	1.9424
1614.57	1.95937
1616.11	1.88214
1617.65	2.33031
1619.18	1.805
1620.72	2.01198
1622.26	1.65847
1623.79	1.81134
1625.33	1.44004
1626.87	2.15357
1628.4	1.64936
1629.94	1.87349
1631.48	1.51702
1633.01	1.16061
1634.55	2.1489
1636.08	1.84959
1637.61	1.49549
1639.15	1.86932
1640.68	1.62788
1642.21	1.38602
1643.75	2.05571
1645.28	2.03494
1646.81	1.84595
1648.34	1.76843
1649.88	1.91422
1651.41	2.02367
1652.94	2.3197
1654.47	2.43118
1656	1.70917
1657.53	2.32158
1659.06	1.95112
1660.59	1.96846
1662.12	2.24335
1663.65	1.99913
1665.18	1.68087
1666.71	1.64031
1668.24	2.08033
1669.76	1.78401
1671.29	1.95001
1672.82	1.96961
1674.35	1.86071
1675.87	2.10142
1677.4	1.91788
1678.93	1.43908
1680.45	1.38263
1681.98	1.01319
1683.5	1.58037
1685.03	1.13764
1686.55	0.970873
1688.08	1.37287
1689.6	1.15196
1691.13	1.20614
1692.65	1.24202
1694.17	1.20464
1695.7	0.691807
1697.22	0.709157
1698.74	0.634869
1700.27	0.724524
1701.79	0.74064
1703.31	0.501076
1704.83	0.552735
1706.35	0.367379
1707.87	0.20027
1709.39	0.523763
1710.91	0.465683
1712.43	0.262796
1713.95	0.25966
1715.47	0.365189
1716.99	0.271517
1718.51	0.485103
1720.03	0.337127
1721.55	0.0452061
1723.07	0.727744
1724.58	0.581466
1726.1	0.274468
1727.62	0.418884
1729.13	0.276125
1730.65	-0.027452
1732.17	0.400429
1733.68	0.537839
1735.2	-0.248554
1736.72	0.0835772
1738.23	0.271381
1739.74	0.473154
1741.26	-0.159784
1742.77	0.2039
1744.29	0.187224
1745.8	0.140533
1747.32	0.554134
1748.83	0.291378
1750.34	0.181215
1751.85	-0.00491905
1753.37	0.105437
1754.88	0.22541
1756.39	0.25072
1757.9	0.50193
1759.41	0.0690289
1760.92	-0.100012
1762.44	-0.0292077
1763.95	0.414841
1765.46	-0.0119028
1766.96	-0.169192
1768.47	0.261792
1769.98	0.0207405
1771.49	-0.26492
1773	-0.0964875
1774.51	-0.0314407
1776.02	0.310807
1777.53	-0.123722
1779.03	0.177846
1780.54	0.0565166
1782.05	-0.0485764
1783.55	0.0903521
1785.06	0.149756
1786.57	-0.218788
1788.07	-0.274731
1789.58	-0.264151
1791.08	-0.128037
1792.59	0.3474
1794.09	0.0571342
1795.6	0.0711422
1797.1	0.178221
1798.61	0.122495
1800.11	0.39244
1801.61	0.00904465
1803.12	0.289089
1804.62	0.0643878
1806.12	-0.0568314
1807.62	-0.105578
1809.12	0.0465755
1810.63	0.0628057
1812.13	0.144876
1813.63	-0.0348949
1815.13	-0.0103664
1816.63	0.00861931
1818.13	0.0194645
1819.63	0.0827718
1821.13	-0.00957394
1822.63	0.418604
1824.13	-0.233738
1825.63	0.0846219
1827.13	0.224629
1828.62	0.106016
1830.12	-0.148018
1831.62	0.146883
1833.12	0.176372
1834.61	0.183854
1836.11	0.0796628
1837.61	0.0222197
1839.1	-0.081636
1840.6	0.371951
1842.09	-0.225744
1843.59	0.262762
1845.09	-0.0572453
1846.58	0.0480766
1848.08	0.112191
1849.57	-0.00976419
1851.06	-0.214458
1852.56	-0.0291967
1854.05	0.240571
1855.54	0.227305
1857.04	0.395135
1858.53	0.106025
1860.02	-0.127456
1861.51	0.206448
1863.01	0.127844
1864.5	-0.146338
1865.99	0.225292
1867.48	0.131375
1868.97	0.273318
1870.46	0.331712
1871.95	0.113155
1873.44	0.0214739
1874.93	0.124943
1876.42	0.109147
1877.91	0.29656
1879.4	0.180956
1880.89	0.357864
1882.37	0.0599618
1882.46	0.0389791
1883.95	-0.0134273
1885.45	0.212377
1886.94	-0.0330486
1888.43	-0.121992
1889.93	-0.123727
1891.42	0.188351
1892.91	0.20598
1894.41	0.155604
1895.9	-0.15427
1897.39	0.301687
1898.88	0.42727
1900.37	-0.0568547
1901.86	0.327467
1903.36	-0.124641
1904.85	-0.0387444
1906.34	0.150636
1907.83	0.374495
1909.32	0.0952649
1910.81	0.302876
1912.29	0.129504
1913.78	0.130136
1915.27	0.252244
1916.76	0.183324
1918.25	0.217972
1919.74	0.200226
1921.23	0.251674
1922.71	-0.216068
1924.2	-0.00770664
1925.69	0.565066
1927.17	0.100042
1928.66	0.27613
1930.15	0.40031
1931.63	-0.116899
1933.12	0.213223
1934.6	-0.0814438
1936.09	0.020679
1937.57	0.190839
1939.06	0.101168
1940.54	-0.0399709
1942.02	-0.352844
1943.51	0.0254307
1944.99	0.00751114
1946.47	0.231282
1947.96	-0.20014
1949.44	0.281182
1950.92	-0.134115
1952.4	-0.308802
1953.88	-0.0022521
1955.37	0.097579
1956.85	0.111716
1958.33	-0.0280719
1959.81	0.381836
1961.29	0.00307322
1962.77	0.121872
1964.25	-0.153634
1965.73	0.25571
1967.21	-0.10615
1968.69	0.0792308
1970.16	-0.0608974
1971.64	0.379692
1973.12	-0.033844
1974.6	0.32082
1976.08	0.163796
1977.55	0.245595
1979.03	0.361407
1980.51	0.255908
1981.98	-0.00258446
1983.46	-0.0231419
1984.94	-0.0100017
1986.41	0.189473
1987.89	-0.0689692
1989.36	0.130456
1990.84	-0.279097
1992.31	0.0906105
1993.79	-0.232371
1995.26	-0.0812459
1996.73	0.289762
1998.21	-0.0319147
1999.68	0.254055
2001.15	0.201784
2002.63	0.098536
2004.1	0.33242
2005.57	0.229334
2007.04	0.295379
2008.51	-0.0588007
2009.99	0.210807
2011.46	0.110447
2012.93	0.077497
2014.4	0.162023
2015.87	0.144934
2017.34	0.0261922
2018.81	-0.10995
2020.28	0.509693
2021.75	0.272076
2023.21	0.102096
2024.68	0.335586
2026.15	0.418937
2027.62	0.453159
2029.09	0.388024
2030.56	0.458227
2032.02	0.0594368
2033.49	0.147629
2034.96	0.21909
2036.42	0.407881
2037.89	0.411493
2039.36	-0.0222106
2040.82	-0.0695353
2042.29	0.0515509
2043.75	0.190114
2045.22	0.211733
2046.68	-0.102699
2048.14	0.307114
2049.61	0.346338
2051.07	-0.0198855
2052.54	0.0340328
2054	0.54186
2055.46	0.103802
2056.93	0.322239
2058.39	0.287059
2059.85	0.36965
2061.31	0.166255
2062.77	-0.103682
2064.23	0.115365
2065.7	0.234207
2067.16	0.185458
2068.62	0.271847
2070.08	0.341694
2071.54	0.159084
2073	-0.0236859
2074.46	-0.0551572
2075.92	0.384622
2077.38	0.302071
2078.83	0.471784
2080.29	0.38851
2081.75	0.304784
2083.21	0.287862
2084.67	0.152531
2086.12	0.336292
2087.58	0.334416
2089.04	0.382602
2090.49	0.615325
2091.95	0.4616
2093.41	0.324743
2094.86	0.137511
2096.32	0.503187
2097.77	0.331859
2099.23	0.963585
2100.68	0.339789
2102.14	0.335398
2103.59	0.248186
2105.05	0.329023
2106.5	0.144012
2107.95	0.24354
2109.41	0.293303
2110.86	0.909414
2112.31	0.574132
2113.76	0.470887
2115.21	0.416326
2116.67	0.460816
2118.12	0.638337
2119.57	0.5345
2121.02	0.249906
2122.47	0.348582
2123.92	0.382103
2125.37	0.499093
2126.82	0.665617
2128.27	0.201359
2129.72	0.564783
2131.17	0.993048
2132.62	0.923532
2134.07	0.357736
2135.51	0.388419
2136.96	0.800406
2138.41	0.751022
2139.86	0.851999
2141.31	0.425449
2142.75	0.793379
2144.2	0.649325
2145.65	0.836287
2147.09	0.890706
2148.54	0.795569
2149.98	0.765911
2151.43	0.967364
2152.87	1.13485
2154.32	1.06964
2155.76	1.18625
2157.21	0.723092
2158.65	0.591852
2160.1	0.792988
2161.54	1.07851
2162.98	1.03425
2164.43	1.19037
2165.87	1.31426
2167.31	1.18909
2168.75	1.44522
2170.2	1.1013
2171.64	1.0714
2173.08	0.707093
2174.52	1.42283
2175.96	1.12332
2177.4	1.17324
2178.84	1.00765
2180.28	0.90941
2181.72	1.02806
2183.16	1.2304
2184.6	1.21683
2186.04	0.804075
2187.48	1.45607
2188.92	1.04325
2190.36	1.14626
2191.79	0.533211
2193.23	0.901761
2194.67	1.21928
2196.11	0.819377
2197.54	0.88393
2198.98	1.06332
2200.42	0.659998
2201.85	0.738585
2203.29	0.900528
2204.72	0.814458
2206.16	0.812227
2207.59	0.876739
2209.03	0.858267
2210.46	0.574349
2211.9	0.703448
2213.33	0.815197
2214.77	0.943167
2216.2	0.691785
2217.63	0.606618
2219.07	0.637996
2220.5	0.554687
2221.93	0.422121
2223.36	0.717449
2224.8	0.00690031
2226.23	0.365481
2227.66	0.344002
2229.09	0.83064
2230.52	0.659306
2231.95	0.504537
2233.39	0.219364
2234.81	0.589478
2236.25	0.714774
2237.67	0.416739
2239.1	0.740665
2240.53	0.348311
2241.96	0.283805
2243.39	0.791189
2244.82	0.467088
2246.25	0.582864
2247.68	0.566859
2249.1	0.549069
2250.53	0.399096
2251.96	0.492032
2253.38	0.584055
2254.81	0.318662
2256.24	0.688015
2257.66	0.539617
2259.09	0.377476
2260.51	0.639614
2261.94	-0.0699196
2263.36	0.455438
2264.79	0.266697
2266.21	0.142498
2267.64	0.212758
2269.06	0.0544972
2270.49	0.0582743
2271.91	0.273313
2273.33	0.129993
2274.76	0.442778
2276.18	0.0552478
2277.6	0.482557
2279.02	0.209152
2280.44	0.19646
2281.87	0.346771
2283.29	0.513385
2284.71	0.190553
2286.13	0.487988
2287.55	0.0511446
2288.97	0.382031
2290.39	0.125268
2291.81	0.0646806
2293.23	0.16768
2294.65	0.123506
2296.07	0.0464873
2297.49	0.444237
2298.91	-0.00951672
2300.33	0.0445466
2301.74	0.41043
2303.16	0.169906
2304.58	0.405273
2306	0.525872
2307.41	0.00550461
2308.83	0.22394
2310.25	0.40918
2311.66	0.363912
2313.08	0.186939
2314.5	0.240589
2315.91	0.21253
2317.33	0.234502
2318.74	0.125004
2320.16	0.11418
2321.57	0.00349617
2322.98	-0.191237
2324.4	0.206333
2325.81	0.453447
2327.23	0.962774
2328.64	0.844561
2330.05	0.677191
2331.46	0.230845
2332.88	0.197217
2334.29	0.361765
2335.7	0.0987492
2337.11	0.296022
2338.52	0.180019
2339.94	-0.134
2341.35	0.175619
2342.76	0.320295
2344.17	0.202332
2345.58	0.396129
2346.99	-0.0161185
2348.4	0.325168
2349.81	0.207674
2351.22	0.106066
2352.62	0.0528331
2354.03	0.113151
2355.44	-0.0228262
2356.85	0.443668
2358.26	0.128382
2359.67	-0.1374
2361.07	0.0681529
2362.48	0.257048
2363.89	0.315887
2365.29	-0.175542
2366.7	-0.0193152
2368.11	-0.0405555
2369.51	0.0519681
2370.92	0.000304699
2372.32	0.0142097
2373.73	-0.0999107
2375.13	0.0117474
2376.54	-0.0700345
2377.94	0.120808
2379.35	0.599387
2380.75	0.016221
2382.15	0.186768
2383.56	0.228025
2384.96	0.268955
2386.36	0.17429
2387.76	0.0805435
2389.17	0.139414
2390.57	0.167332
2391.97	-0.249618
2393.37	0.305357
2394.77	-0.0620022
2396.17	0.207446
2397.58	0.191144
2398.98	-0.174239
2400.38	0.128148
2401.78	0.271851
2403.18	0.0502858
2404.58	-0.362023
2405.97	0.431639
2407.37	0.287792
2408.77	-0.0469093
2410.17	0.0464301
2411.57	-0.113671
2412.97	0.0753984
2414.37	0.202014
2415.76	0.0289903
2417.16	0.157849
2418.56	0.23999
2419.95	0.0532498
2421.35	0.0564389
2422.75	0.027668
2424.14	0.220486
2425.54	-0.0303168
2426.93	0.0995722
2428.33	-0.245401
2429.72	0.203099
2431.12	-0.299446
2432.51	0.102513
2433.91	0.313869
2435.3	-0.110973
2436.7	-0.0604992
2438.09	-0.0271111
2439.48	-0.20127
2440.88	-0.296666
2442.27	0.321922
2443.66	0.384407
2445.05	0.446687
2446.44	0.50878
2447.84	0.206208
2449.23	0.157335
2450.62	0.235346
2452.01	0.060473
2453.4	-0.161143
2454.79	0.171722
2456.18	0.362696
2457.57	0.253385
2458.96	-0.124906
2460.35	-0.0291152
2461.74	0.145062
2463.13	0.00238323
2464.52	-0.0932708
2465.91	-0.0943408
2467.29	-0.269134
2468.68	0.408225
2470.07	-0.00340748
2471.46	0.152476
2472.85	-0.354002
2474.23	0.0684047
2475.62	0.0964046
2477.01	-0.064568
2478.39	-0.0996943
2479.78	-0.00910378
2481.16	0.0501175
2482.55	0.0151935
2483.93	0.199136
2485.32	0.194366
2486.7	0.34492
2488.09	0.182113
2489.47	0.0502439
2490.86	0.074224
2492.24	0.362804
2493.62	0.341015
2495.01	-0.00538731
2496.39	-0.195172
2497.77	-0.322031
2499.15	-0.0305591
2500.54	-0.0645576
2501.92	0.00908089
2503.3	-0.0571504
2504.68	0.169116
2506.06	0.240298
2507.45	-0.0582891
2508.83	0.13585
2510.21	0.0995321
2511.59	0.14051
2512.97	-0.0172391
2514.35	-0.0361824
2515.73	0.129263
2517.11	-0.0873036
2518.48	-0.180873
2519.86	0.230085
2521.24	0.0294895
2522.62	-0.461393
2524	-0.235359
2525.38	-0.101667
2526.75	0.107722
2528.13	0.301858
2529.51	0.0404091
2530.89	0.0844831
2532.26	-0.14363
2533.64	0.1156
2535.02	0.223474
2536.39	0.118646
2537.77	0.104464
2539.14	0.0895267
2540.52	0.089108
2541.89	-0.397307
2543.27	0.254739
2544.64	-0.0182171
2546.01	-0.183954
2547.39	0.212511
2548.76	0.184974
2550.14	0.127188
2551.51	-0.0220366
2552.88	-0.278231
2554.25	0.238723
2555.63	-0.00381899
2557	0.0414815
2558.37	-0.034668
2559.74	-0.1409
2561.11	0.314116
2562.49	0.420964
2563.86	0.0282125
2565.23	-0.182316
2566.6	-0.150183
2567.97	0.0790429
2569.34	0.111277
2570.71	0.00709867
2572.08	0.0999913
2573.45	0.0716915
2574.82	0.0131459
2576.18	0.0304279
2577.55	0.108308
2578.92	-0.0262599
2580.29	0.0966668
2581.66	-0.205294
2583.02	-0.371056
2584.39	0.160381
2585.76	0.449125
2587.13	-0.0654039
2588.49	0.162929
2589.86	0.118549
2591.22	-0.122909
2592.59	-0.0616336
2593.96	-0.182783
2595.32	0.270802
2596.69	-0.0790672
2598.05	0.236421
2599.42	-0.0686722
2600.78	0.140417
2602.14	0.153335
2603.51	0.332838
2604.87	-0.0154734
2606.23	-0.0767484
2607.6	-0.108052
2608.96	0.146392
2610.32	-0.187842
2611.69	0.275051
2613.05	0.0294476
2614.41	-0.441642
2615.77	0.243491
2617.13	0.0878992
2618.49	-0.0669188
2619.86	0.0185857
2621.22	-0.134701
2622.58	0.0413918
2623.94	0.202509
2625.3	0.0649285
2626.66	-0.117399
2628.02	0.0728106
2629.37	0.128479
2630.73	-0.158313
2632.09	0.149915
2633.45	0.0565414
2634.81	0.00782251
2636.17	0.0333114
2637.53	0.0735664
2638.88	0.202636
2640.24	-0.0678425
2641.6	-0.115948
2642.96	-0.0012517
2644.31	0.113428
2645.67	0.13938
2647.02	0.06179
2648.38	0.189995
2649.74	0.067132
2651.09	0.311484
2652.45	-0.0177093
2653.8	0.152758
2655.16	0.0889559
2656.51	0.201898
2657.86	0.0814371
2659.22	0.0350051
2660.57	-0.0695157
2661.93	0.0744228
2663.28	0.290775
2664.63	-0.238232
2665.98	0.13723
2667.34	0.322246
2668.69	0.0700102
2670.04	0.00754356
2671.39	-0.0689545
2672.75	0.218412
2674.09	0.157416
2675.45	0.0679231
2676.8	0.0515165
2678.15	0.0791564
2679.5	-0.153557
2680.85	-0.0374255
2682.2	0.137628
2683.55	0.125169
2684.9	0.142508
2686.25	0.131241
2687.6	0.105378
2688.94	0.267301
2690.29	0.0794654
2691.64	0.107917
2692.99	0.26568
2694.34	0.0454502
2695.68	-0.232693
2697.03	0.0258741
2698.38	0.444534
2699.73	0.285242
2701.07	-0.0898066
2702.42	0.405274
2703.76	0.00318432
2705.11	0.253556
2706.45	0.112607
2707.8	-0.0286732
2709.15	0.22156
2710.49	0.224796
2711.83	0.503818
2713.18	0.346967
2714.52	0.524278
2715.87	-0.0253425
2717.21	-0.0663486
2718.55	0.488884
2719.9	0.476593
2721.24	0.39115
2722.58	0.217955
2723.93	0.0734568
2725.27	-0.0713968
2726.61	0.394769
2727.95	0.278458
2729.29	0.540327
2730.63	0.307296
2731.98	0.438008
2733.32	-0.0131197
2734.66	0.219627
2736	0.0452552
2737.34	0.190985
2738.68	0.00219917
2740.02	0.104095
2741.36	0.220141
2742.7	0.262942
2744.03	0.130753
2745.37	-0.0454407
2746.71	0.0250292
2748.05	-0.107936
2749.39	0.252557
2750.72	0.0907898
2752.06	0.0598345
2753.4	0.000106812
2754.74	0.244811
2756.07	0.301185
2757.41	0.444539
2758.75	0.0668869
2760.08	0.341009
2761.42	0.0655375
2762.76	0.36931
2764.09	-0.0501351
2765.42	0.384106
2766.76	-0.209236
2768.09	-0.181131
2769.43	0.120704
2770.76	0.637872
2772.1	0.330053
2773.43	-0.295635
2774.76	-0.185428
2776.1	0.255828
2777.43	0.0201883
2778.76	0.130511
2780.1	-0.132536
2781.43	0.0933137
2782.76	0.247181
2784.09	-0.172873
2785.42	-0.162421
2786.75	0.335139
2788.09	-0.155225
2789.42	-0.157997
2790.75	-0.260182
2792.08	-0.00423384
2793.41	0.194788
2794.74	0.022181
2796.07	-0.079155
2797.4	-0.0808721
2798.73	0.0169182
2800.06	0.299819
2801.39	0.111477
2802.71	-0.0483184
2804.04	0.0911179
2805.37	0.0164165
2806.7	-0.257942
2808.03	-0.176831
2809.35	0.244916
2810.68	0.268377
2812.01	0.136172
2813.33	-0.150977
2814.66	-0.323305
2815.99	0.04421
2817.31	0.114887
2818.64	0.143533
2819.96	0.101345
2821.29	-0.0120521
2822.61	0.214153
2823.94	0.170574
2825.26	0.367516
2826.59	0.337809
2827.91	0.025363
2829.23	-0.0317187
2830.56	0.307947
2831.88	0.26557
2833.21	0.378867
2834.53	0.463595
2835.85	0.250715
2837.17	0.362911
2838.5	0.418118
2839.82	0.543832
2841.14	0.711968
2842.46	0.640062
2843.78	0.766572
2845.1	1.27523
2846.42	1.03539
2847.74	1.10678
2849.06	1.50329
2850.38	1.09394
2851.71	1.47569
2853.03	1.95588
2854.34	1.71494
2855.66	1.57279
2856.98	1.61432
2858.3	1.67001
2859.62	1.35849
2860.94	1.73882
2862.26	2.16109
2863.57	2.11709
2864.89	1.94589
2866.21	2.28257
2867.53	2.74623
2868.84	2.77298
2870.16	2.37717
2871.48	3.1375
2872.79	3.1504
2874.11	3.00764
2875.42	3.27246
2876.74	2.73355
2878.05	2.94022
2879.37	3.31514
2880.68	3.47908
2882	2.82872
2883.31	3.27532
2884.63	3.21707
2885.94	2.99096
2887.26	3.39662
2888.57	3.05803
2889.88	3.60266
2891.19	3.38893
2892.51	3.5392
2893.82	3.22687
2895.13	3.44723
2896.44	3.71013
2897.76	3.73596
2899.07	3.34302
2900.38	3.74833
2901.69	4.36385
2903	3.66466
2904.31	4.02869
2905.62	4.09924
2906.93	3.76465
2908.24	4.29807
2909.55	4.77647
2910.86	4.66786
2912.17	4.99315
2913.48	5.34583
2914.79	5.1372
2916.1	5.45886
2917.41	5.59687
2918.71	5.10418
2920.02	5.88436
2921.33	5.67195
2922.64	5.48882
2923.94	5.88021
2925.25	5.75553
2926.56	6.21861
2927.86	6.10863
2929.17	6.31982
2930.48	6.68424
2931.78	6.37712
2933.09	6.34933
2934.39	6.25161
2935.7	6.75498
2937	6.37803
2938.31	5.97337
2939.61	6.23974
2940.92	6.15727
2942.22	5.90794
2943.53	5.49202
2944.83	5.38481
2946.13	5.23672
2947.43	5.08912
2948.74	4.77327
2950.04	4.73618
2951.34	4.37539
2952.64	4.79696
2953.95	4.74108
2955.25	4.26486
2956.55	4.6573
2957.85	3.81983
2959.15	3.65652
2960.45	3.76167
2961.75	3.99495
2963.05	4.21534
2964.35	4.05655
2965.65	3.60126
2966.95	3.77643
2968.25	3.75368
2969.55	3.58956
2970.85	3.72059
2972.15	3.48616
2973.45	3.13936
2974.75	3.42581
2976.05	3.35987
2977.34	2.98298
2978.64	3.21
2979.94	3.05526
2981.24	2.67424
2982.53	3.09469
2983.83	2.67149
2985.13	2.47442
2986.42	2.4193
2987.72	2.67465
2989.01	2.14399
2990.31	1.76811
2991.61	2.31941
2992.9	1.80169
2994.19	1.87314
2995.49	1.5643
2996.78	1.60604
2998.08	1.423
2999.37	1.4928
3000.67	1.26853
3001.96	1.12902
3003.25	1.10206
3004.55	1.08923
3005.84	1.17423
3007.13	0.796696
3008.42	0.838563
3009.72	0.40423
3011.01	0.947963
3012.3	0.792407
3013.59	0.455706
3014.88	0.649574
3016.17	0.300428
3017.46	0.523149
3018.76	0.495584
3020.05	0.148264
3021.34	0.509868
3022.63	0.425859
3023.92	0.355052
3025.21	-0.0490084
3026.49	0.226202
3027.78	0.432037
3029.07	0.527793
3030.36	0.334493
3031.65	0.239296
3032.94	0.379746
3034.23	0.271981
3035.51	0.563965
3036.8	0.523694
3038.09	0.302901
3039.38	0.246127
3040.66	0.311897
3041.95	0.486523
3043.23	0.290494
3044.52	0.478933
3045.81	0.3948
3047.09	0.257974
3048.38	0.246128
3049.66	0.495347
3050.95	0.718511
3052.23	0.669462
3053.52	0.75691
3054.8	0.830161
3056.09	0.506965
3057.37	0.183094
3058.65	0.730864
3059.94	0.705855
3061.22	0.653944
3062.5	0.806913
3063.79	0.444259
3065.07	0.477306
3066.35	0.729049
3067.63	0.43785
3068.92	0.622885
3070.2	0.386152
3071.48	0.488734
3072.76	0.508704
3074.04	0.174175
3075.32	0.23319
3076.6	0.332598
3077.88	0.187886
3079.16	0.491895
3080.44	0.213669
3081.72	0.113119
3083	2.71797e-005
3084.28	0.131708
3085.56	0.399236
3086.84	0.435749
3088.12	0.390242
3089.4	-0.266572
3090.67	0.134874
3091.95	0.142612
3093.23	0.177595
3094.51	0.253493
3095.78	-0.0500407
3097.06	0.0126381
3098.34	0.115919
3099.61	-0.0925937
3100.89	0.240796
3102.17	-0.00827599
3103.44	0.216863
3104.72	0.103913
3105.99	-0.238478
3107.27	0.0694666
3108.54	-0.136038
3109.82	-0.178337
3111.09	0.0509024
3112.37	-0.0712523
3113.64	0.0914168
3114.92	0.349128
3116.19	-0.00355291
3117.46	0.348217
3118.74	0.455067
3120.01	0.425373
3121.28	-0.0795908
3122.55	0.323339
3123.83	0.0620089
3125.1	0.0583053
3126.37	0.0685043
3127.64	0.322675
3128.91	0.225458
3130.19	0.15565
3131.46	0.248186
3132.73	0.178439
3134	0.297573
3135.27	0.537698
3136.54	0.385826
3137.81	0.0180478
3139.08	0.337587
3140.35	0.293059
3141.62	0.114169
3142.89	0.285188
3144.16	0.429461
3145.42	0.319112
3146.69	0.745718
3147.96	0.609639
3149.23	0.487606
