200.43	0.660775
202.244	0.69743
204.059	0.735001
205.873	0.286835
207.688	0.665707
209.501	-0.195907
211.314	0.13209
213.127	0.385332
214.941	0.539875
216.753	0.13583
218.564	0.434522
220.375	0.491117
222.186	0.40318
223.999	0.557797
225.809	-0.9791
227.618	0.697948
229.428	0.417104
231.236	0.473607
233.045	0.240006
234.855	0.15142
236.663	0.377187
238.471	-0.0220003
240.278	-0.202111
242.085	-0.525104
243.891	0.189942
245.698	0.0365133
247.503	-0.167023
249.309	0.882234
251.116	-0.558666
252.921	0.339446
254.725	0.48703
256.529	0.440922
258.333	0.154439
260.136	0.182719
261.939	-0.0764523
263.742	0.773925
265.544	-0.229942
267.346	0.742157
269.148	0.0508833
270.949	0.587964
272.75	0.135283
274.55	0.524899
276.351	0.623376
278.15	0.47882
279.95	0.356327
281.749	0.400307
283.548	0.562471
285.346	0.0500355
287.144	-0.222291
288.942	0.344934
290.739	0.672052
292.536	0.138051
294.333	-0.178594
296.129	0.319196
297.925	0.43505
299.721	0.646743
301.514	-0.049654
303.309	0.232436
305.104	0.155011
306.898	0.553646
308.692	-0.121248
310.486	0.634456
312.279	0.00913334
314.072	0.24277
315.862	0.382686
317.654	0.428963
319.446	0.000137329
321.238	0.215434
323.029	0.0499916
324.819	0.123242
326.608	0.17265
328.398	0.412933
330.188	0.246352
331.977	0.245784
333.766	-0.0436172
335.553	0.0476351
337.341	0.902418
339.129	0.654286
340.917	0.237249
342.704	0.799713
344.489	0.692472
346.275	0.800662
348.062	0.025876
349.845	0.588697
351.631	-0.42404
353.416	0.281152
355.201	0.841732
356.984	0.47058
358.768	0.00312328
360.552	0.463835
362.333	0.232802
364.116	-0.0462284
365.899	0.434681
367.68	0.462923
369.462	0.253085
371.243	-0.336199
373.023	0.541983
374.804	0.590585
376.585	-0.494023
378.363	0.56991
380.143	0.572381
381.923	0.411126
383.7	-0.078042
385.479	0.609897
387.256	0.663814
389.034	0.601266
390.812	0.375226
392.588	0.408273
394.365	0.371392
396.14	0.827969
397.916	0.415656
399.691	0.0970068
401.467	0.059742
403.24	0.139268
405.015	0.49988
406.788	-0.220561
408.563	0.326451
410.335	0.309508
412.109	-0.106418
413.88	-0.0526075
415.654	0.236403
417.424	0.878051
419.197	0.229708
420.967	-0.535983
422.739	0.317561
424.508	0.30199
426.279	-0.32486
428.048	0.291706
429.819	0.0861311
431.587	0.13868
433.356	-0.536093
435.124	-0.131009
436.891	-0.383137
438.66	0.185525
440.426	0.377272
442.194	0.238625
443.96	0.402822
445.725	0.70556
447.492	-0.18708
449.257	0.324416
451.021	0.414502
452.787	0.0845079
454.551	0.0351334
456.314	0.12563
458.079	0.658292
459.842	0.841089
461.604	0.861458
463.368	0.255752
465.13	0.303299
466.891	-0.390095
468.654	-0.174913
470.415	0.414186
472.175	0.0737495
473.935	0.104766
475.696	0.576731
477.456	-0.18778
479.215	0.070878
480.973	0.631351
482.733	0.236922
484.491	0.169617
486.249	0.0807304
488.006	0.389935
489.765	0.328241
491.522	0.22073
493.278	0.510838
495.034	0.497646
496.789	0.180032
498.544	0.79875
500.301	0.245608
502.056	0.770536
503.81	0.496833
505.564	0.31567
507.317	0.391687
509.071	1.24263
510.825	0.068903
512.578	0.634697
514.33	0.728449
516.082	-0.0966234
517.833	0.512196
519.585	-0.00875473
521.335	0.597881
523.086	1.01556
524.836	0.798846
526.586	1.02805
528.335	0.647428
530.085	0.712348
531.835	0.402059
533.584	0.512715
535.332	0.762455
537.08	0.426188
538.827	0.579495
540.574	-0.0382347
542.321	0.323009
544.068	1.00871
545.814	0.345007
547.56	0.332894
549.305	0.529672
551.05	0.471494
552.795	-0.0952625
554.54	0.240517
556.282	-0.0243006
558.025	0.357429
559.769	0.531549
561.512	-0.306968
563.255	0.3975
564.997	0.228028
566.739	0.312061
568.481	-0.177208
570.223	-0.114309
571.964	0.477422
573.705	0.129988
575.443	-0.0781584
577.183	0.472379
578.923	-0.123244
580.663	-0.14451
582.402	-0.18866
584.141	0.13453
585.879	-0.23288
587.615	0.433566
589.353	-0.00521278
591.09	0.0842657
592.828	-0.148846
594.564	-0.0830021
596.299	0.0749102
598.035	0.0947561
599.771	0.160302
601.506	-0.511013
603.242	0.518682
604.974	0.0520735
606.709	-0.484259
608.443	-0.354752
610.177	0.623637
611.908	0.0415878
613.642	0.309155
615.374	0.0729313
617.105	-0.254573
618.837	0.288001
620.569	-0.0178385
622.3	0.293202
624.03	0.28299
625.761	0.135699
627.491	0.583138
629.219	0.119178
630.949	0.296521
632.677	0.475794
634.406	0.336633
636.135	0.425443
637.861	0.649656
639.59	0.437634
641.318	0.245798
643.043	0.348226
644.77	-0.119946
646.495	0.755107
648.222	-0.14251
649.948	0.349699
651.672	0.686255
653.398	0.958536
655.121	0.0743475
656.846	0.602497
658.569	1.0871
660.293	1.09318
662.015	0.435442
663.738	0.665806
665.46	0.436847
667.183	0.320269
668.903	0.683214
670.626	0.566524
672.346	0.451606
674.067	1.09459
675.787	0.800987
677.508	0.645764
679.226	0.352598
680.947	0.563745
682.665	0.543511
684.385	0.0148258
686.102	0.612212
687.821	-0.311702
689.538	0.191311
691.254	0.509441
692.972	0.34326
694.688	0.775261
696.406	0.584442
698.121	0.231469
699.835	0.452882
701.552	0.948963
703.266	1.07581
704.98	0.719472
706.695	0.59264
708.409	1.56635
710.121	0.613416
711.836	0.897967
713.548	0.930132
715.26	1.14487
716.973	0.788358
718.685	0.843201
720.396	0.419498
722.108	0.862002
723.818	0.939785
725.528	0.676336
727.238	0.980908
728.949	1.3299
730.658	0.476279
732.367	1.23198
734.075	0.922587
735.785	0.952891
737.493	1.29962
739.2	1.1275
740.907	1.24966
742.614	1.82335
744.322	1.13696
746.028	1.3078
747.734	0.67001
749.439	1.09094
751.144	1.0182
752.849	1.57654
754.555	1.95642
756.26	1.73042
757.963	0.942924
759.667	2.0935
761.37	0.879499
763.073	1.76259
764.775	1.45003
766.477	2.13013
768.179	1.33976
769.883	1.63206
771.584	1.60584
773.285	2.16613
774.986	1.41443
776.686	2.13296
778.386	1.63181
780.085	1.51651
781.785	1.69637
783.484	1.786
785.182	1.7388
786.881	1.82512
788.579	1.79516
790.276	1.89766
791.974	2.04249
793.671	1.1693
795.367	0.929115
797.064	1.99737
798.76	1.71428
800.456	1.52339
802.151	2.16651
803.846	1.88776
805.541	2.17111
807.234	1.53215
808.928	1.79098
810.622	2.31761
812.315	1.56435
814.008	1.99921
815.701	1.96297
817.394	1.45702
819.086	1.82359
820.778	1.98875
822.468	2.19866
824.159	1.80703
825.85	1.43959
827.541	1.56457
829.231	1.22444
830.921	1.62217
832.609	1.24305
834.298	1.62352
835.987	1.87161
837.676	1.53957
839.364	2.18854
841.051	2.18869
842.738	1.7853
844.426	1.53766
846.113	2.05048
847.798	1.42501
849.484	1.31585
851.171	1.85827
852.857	1.77602
854.54	1.78431
856.226	1.38817
857.911	1.66469
859.593	1.89506
861.278	1.65111
862.961	1.13491
864.645	1.29314
866.327	1.11243
868.01	1.35944
869.692	1.17759
871.373	0.814915
873.055	1.85069
874.735	1.78106
876.416	1.50831
878.097	1.37093
879.776	0.917386
881.457	1.90821
883.135	1.63419
884.815	1.33653
886.495	1.57926
888.172	1.5947
889.851	1.06733
891.528	1.86879
893.206	1.54178
894.882	1.34914
896.56	1.22321
898.237	1.32112
899.912	1.08145
901.589	0.908749
903.263	0.937341
904.94	0.965649
906.614	1.06107
908.289	0.621773
909.962	1.20869
911.635	0.972095
913.31	1.60339
914.982	0.968222
916.656	1.22161
918.328	1.36367
920.001	1.39483
921.672	1.00617
923.345	1.5476
925.015	0.67609
926.685	1.46322
928.357	1.1257
930.026	0.811642
931.698	0.696925
933.366	0.82517
935.035	1.52703
936.705	0.817616
938.373	0.969213
940.041	0.680835
941.71	0.967071
943.377	0.746624
945.044	0.812879
946.712	0.966411
948.378	0.963718
950.044	0.650242
951.709	1.32856
953.376	0.903715
955.041	0.502575
956.706	0.478851
958.372	0.524235
960.036	0.859168
961.699	0.930974
963.362	1.13543
965.027	0.520227
966.69	1.53923
968.352	0.630856
970.014	1.07006
971.676	1.04376
973.339	0.973625
975	0.86065
976.661	0.882079
978.322	1.70134
979.982	1.2383
981.642	0.774622
983.303	0.995772
984.962	1.30363
986.621	1.47655
988.28	1.38205
989.938	0.954664
991.596	0.880689
993.254	1.29254
994.911	0.887232
996.57	0.945789
998.227	0.982213
999.884	1.74555
1001.54	1.53857
1003.2	1.41945
1004.85	1.05825
1006.51	1.29077
1008.16	1.47913
1009.82	1.47006
1011.47	0.606163
1013.12	0.423195
1014.78	0.941723
1016.43	0.912755
1018.08	1.10311
1019.74	0.178657
1021.39	0.786285
1023.04	0.913738
1024.69	0.84538
1026.34	1.28021
1028	0.99393
1029.65	1.44989
1031.3	1.68601
1032.95	1.13441
1034.6	0.908995
1036.25	1.55459
1037.9	0.847694
1039.54	1.23018
1041.19	0.786161
1042.84	1.36564
1044.49	1.05543
1046.14	1.05145
1047.78	0.919023
1049.43	0.35386
1051.08	1.48398
1052.72	0.920774
1054.37	1.05305
1056.02	0.707216
1057.66	0.774006
1059.31	0.775126
1060.95	0.471206
1062.6	0.818861
1064.24	1.03514
1065.88	0.68512
1067.53	1.29047
1069.17	0.677813
1070.81	1.23768
1072.45	0.516211
1074.1	1.01087
1075.74	0.790357
1077.38	0.376056
1079.02	0.570201
1080.66	0.873481
1082.3	1.35023
1083.94	0.438396
1085.58	0.652564
1087.22	0.756308
1088.86	0.814632
1090.5	0.308612
1092.14	0.364359
1093.78	0.333137
1095.42	0.819913
1097.05	0.897022
1098.69	0.846071
1100.33	0.560079
1101.96	0.426819
1103.6	0.854643
1105.24	0.315656
1106.87	0.379553
1108.51	0.550696
1110.14	0.355257
1111.78	0.674287
1113.41	0.282591
1115.05	0.684467
1116.68	0.699063
1118.31	0.842342
1119.95	0.836116
1121.58	0.552492
1123.21	0.548402
1124.85	0.202927
1126.48	0.842372
1128.11	0.584111
1129.74	-0.0582399
1131.37	0.582829
1133	0.689638
1134.63	-0.14422
1136.26	0.902335
1137.89	0.387644
1139.52	0.662434
1141.15	0.466316
1142.78	0.717996
1144.41	1.01218
1146.04	0.15556
1147.66	0.429978
1149.29	0.726349
1150.92	0.724845
1152.55	-0.234922
1154.17	0.764104
1155.8	0.698015
1157.43	0.0573874
1159.05	0.651099
1160.68	0.628633
1162.3	0.883651
1163.93	-0.0722837
1165.55	0.439338
1167.17	0.206567
1168.8	0.164188
1170.42	-0.241042
1172.05	0.265801
1173.67	0.175961
1175.29	-0.0422211
1176.91	0.290606
1178.54	0.305333
1180.16	0.320683
1181.78	0.188767
1183.4	0.0364923
1185.02	-0.136696
1186.64	0.0907049
1188.26	-0.379968
1189.88	0.202363
1191.5	0.00269032
1193.12	-0.0507021
1194.74	0.504129
1196.36	0.617136
1197.97	0.751643
1199.59	0.364657
1201.21	0.356781
1202.83	0.4767
1204.44	0.473736
1206.06	0.91098
1207.68	0.389736
1209.29	0.765866
1210.91	0.869993
1212.52	0.242696
1214.14	0.947496
1215.75	1.06613
1217.37	0.766695
1218.98	0.757751
1220.59	0.644885
1222.21	0.615837
1223.82	0.235779
1225.43	0.810158
1227.05	0.909316
1228.66	0.575397
1230.27	0.904583
1231.88	0.924682
1233.49	1.17331
1235.1	0.844433
1236.72	1.17813
1238.33	1.67833
1239.94	0.959433
1241.55	1.27455
1243.16	1.48605
1244.76	1.0761
1246.37	1.36862
1247.98	1.47389
1249.59	1.59905
1251.2	1.35147
1252.8	1.57991
1254.41	1.43673
1256.02	1.54285
1257.62	0.760676
1259.23	1.4278
1260.84	1.57872
1262.44	1.00548
1264.05	1.67476
1265.66	1.39089
1267.26	1.81086
1268.86	2.08492
1270.47	1.92253
1272.07	1.42726
1273.67	1.24198
1275.28	1.6776
1276.88	1.69761
1278.48	1.34388
1280.09	1.48675
1281.69	1.60847
1283.29	1.87499
1284.89	2.14184
1286.49	1.80994
1288.09	1.76864
1289.69	1.68699
1291.29	2.1018
1292.89	2.41315
1294.49	1.87664
1296.09	1.15318
1297.69	1.35761
1299.29	2.24099
1300.89	1.49292
1302.49	1.63049
1304.08	1.78742
1305.68	1.90216
1307.28	2.24202
1308.88	1.90384
1310.47	1.38193
1312.07	2.11028
1313.66	1.69263
1315.26	2.17585
1316.85	1.18923
1318.45	1.65324
1320.04	1.99412
1321.64	1.09099
1323.23	1.99912
1324.83	1.62295
1326.42	1.44925
1328.01	1.62005
1329.61	1.48724
1331.2	1.76079
1332.79	1.71276
1334.38	2.25265
1335.97	2.14788
1337.56	1.62029
1339.16	1.21359
1340.75	1.6115
1342.34	1.2419
1343.93	1.79573
1345.52	1.38343
1347.11	1.41336
1348.7	1.34474
1350.29	1.23864
1351.87	1.17524
1353.46	0.993972
1355.05	1.35377
1356.64	1.07434
1358.22	1.23414
1359.81	0.933618
1361.4	0.592405
1362.98	1.24814
1364.57	0.925896
1366.16	0.843346
1367.74	1.31923
1369.33	1.41767
1370.91	0.860749
1372.5	0.723238
1374.08	0.865388
1375.67	1.06789
1377.25	1.38991
1378.83	1.05479
1380.41	1.35542
1382	0.759483
1383.58	0.759207
1385.16	0.777848
1386.74	1.01456
1388.33	0.695163
1389.91	0.952302
1391.49	0.654523
1393.07	0.992481
1394.65	0.596828
1396.23	0.260682
1397.81	1.17292
1399.39	1.07297
1400.97	0.675081
1402.55	0.435389
1404.13	0.987258
1405.7	0.827197
1407.28	0.826225
1408.86	0.984147
1410.44	0.846191
1412.01	0.293616
1413.59	0.905505
1415.17	0.687338
1416.74	0.153044
1418.32	1.1563
1419.89	0.760144
1421.47	0.700108
1423.04	0.956548
1424.62	1.07671
1426.19	0.961915
1427.77	0.965761
1429.34	1.28429
1430.91	0.972103
1432.49	1.38698
1434.06	1.17116
1435.63	1.42701
1437.2	1.46663
1438.78	1.31039
1440.35	1.01762
1441.92	1.5316
1443.49	1.92835
1445.06	2.28624
1446.63	1.62228
1448.2	2.09849
1449.77	2.20157
1451.34	1.44001
1452.91	2.0947
1454.48	1.74685
1456.05	1.87103
1457.62	1.48296
1459.18	1.56589
1460.75	2.27682
1462.32	1.23455
1463.89	1.17465
1465.45	1.46752
1467.02	1.03287
1468.59	1.28619
1470.15	1.0299
1471.72	1.01031
1473.28	0.972159
1474.85	0.58181
1476.41	0.446864
1477.98	0.116014
1479.54	0.569281
1481.1	0.630342
1482.67	0.671716
1484.23	0.85011
1485.79	0.636308
1487.36	0.500231
1488.92	0.0302134
1490.48	0.752561
1492.04	0.611599
1493.61	0.351624
1495.17	-0.26062
1496.73	0.433114
1498.29	0.560526
1499.85	0.299409
1501.41	-0.0765858
1502.97	0.732282
1504.53	0.22292
1506.09	-0.304603
1507.65	-8.86917e-005
1509.2	0.302901
1510.76	0.102445
1512.32	0.865255
1513.88	-0.0872116
1515.43	0.270007
1516.99	0.108523
1518.55	0.235771
1520.1	0.669785
1521.66	0.280286
1523.22	0.522085
1524.77	0.36169
1526.33	0.486744
1527.88	0.515395
1529.44	0.543418
1530.99	0.628299
1532.54	0.637577
1534.1	0.647668
1535.65	0.923547
1537.21	0.595124
1538.76	0.286944
1540.31	1.07342
1541.86	0.954227
1543.42	0.96692
1544.97	0.678564
1546.52	0.82258
1548.07	0.70346
1549.62	0.640779
1551.17	1.5708
1552.72	1.30229
1554.27	0.754871
1555.82	0.321706
1557.37	0.805346
1558.92	1.08516
1560.47	0.974948
1562.02	1.3327
1563.56	0.758793
1565.11	1.56608
1566.66	1.62725
1568.21	1.18428
1569.75	1.48747
1571.3	1.39831
1572.85	1.47686
1574.39	1.5926
1575.94	1.33501
1577.49	1.95503
1579.03	1.49271
1580.57	1.66577
1582.12	1.50352
1583.66	1.95853
1585.21	1.57365
1586.75	1.52551
1588.3	1.72064
1589.84	1.39179
1591.38	1.54894
1592.92	2.00533
1594.47	2.04962
1596.01	1.8504
1597.55	1.20166
1599.09	1.35933
1600.63	1.51784
1602.17	1.47052
1603.71	1.55459
1605.25	2.01383
1606.79	1.94581
1608.33	1.68779
1609.87	1.46503
1611.41	1.25883
1612.95	1.05086
1614.49	1.47998
1616.03	1.23289
1617.57	1.62386
1619.1	1.3411
1620.64	1.41589
1622.18	1.7167
1623.72	1.43789
1625.25	1.1405
1626.79	1.79695
1628.32	1.3105
1629.86	1.38409
1631.39	1.41916
1632.93	1.82735
1634.46	1.37665
1636	1.31905
1637.53	1.98975
1639.07	1.9708
1640.6	1.39281
1642.13	1.98831
1643.67	1.65115
1645.2	1.70393
1646.73	1.71853
1648.26	2.12298
1649.8	1.85878
1651.33	2.00416
1652.86	2.02084
1654.39	1.98305
1655.92	2.22399
1657.45	1.85328
1658.98	2.24144
1660.51	1.75783
1662.04	1.97631
1663.57	2.41511
1665.1	1.54122
1666.63	2.05322
1668.16	2.52869
1669.68	1.8808
1671.21	1.97207
1672.74	1.97233
1674.27	1.93626
1675.79	1.95522
1677.32	1.95495
1678.85	1.07056
1680.37	1.49143
1681.9	1.59868
1683.42	0.787334
1684.95	0.857918
1686.47	1.13047
1688	1.29316
1689.52	1.07137
1691.05	1.49089
1692.57	0.574141
1694.09	0.572816
1695.62	0.717588
1697.14	1.13605
1698.66	0.494547
1700.18	0.729414
1701.71	0.744631
1703.23	0.285446
1704.75	0.263486
1706.27	0.222953
1707.79	-0.0722895
1709.31	0.432098
1710.83	0.336802
1712.35	-0.0664196
1713.87	0.292116
1715.39	0.450988
1716.91	0.211614
1718.43	0.0628767
1719.95	0.221299
1721.47	0.271358
1722.99	0.556214
1724.5	-0.00518131
1726.02	-0.0605412
1727.54	-0.00666904
1729.06	-0.0959101
1730.57	-0.110146
1732.09	-0.245938
1733.61	0.304411
1735.12	0.305557
1736.64	-0.279778
1738.15	0.189665
1739.67	0.00152588
1741.18	0.163141
1742.7	-0.0670652
1744.21	0.176097
1745.72	0.195024
1747.24	0.0264215
1748.75	-0.0241594
1750.26	-0.0947952
1751.77	0.284944
1753.29	0.173425
1754.8	-0.013051
1756.31	-0.20513
1757.82	-0.0174675
1759.33	-0.350883
1760.84	-0.0808554
1762.36	0.172442
1763.87	0.330766
1765.38	-0.0161467
1766.89	0.154895
1768.4	0.161532
1769.91	0.238723
1771.41	-0.236904
1772.92	0.2323
1774.43	0.180578
1775.94	-0.0467873
1777.45	-0.257204
1778.95	0.188437
1780.46	0.177707
1781.97	0.577584
1783.48	-0.215657
1784.98	0.268295
1786.49	0.151531
1787.99	0.158182
1789.5	0.133362
1791.01	0.0331583
1792.51	-0.46773
1794.01	0.0297403
1795.52	-0.119172
1797.02	0.0102749
1798.53	0.0649195
1800.03	-0.217654
1801.53	0.0337944
1803.04	-0.00827312
1804.54	0.200899
1806.04	-0.307574
1807.54	0.0209494
1809.05	-0.164983
1810.55	-0.159965
1812.05	0.143428
1813.55	-0.105079
1815.05	0.176533
1816.55	-0.0638695
1818.05	0.145932
1819.55	0.144868
1821.05	0.258312
1822.55	0.290301
1824.05	-0.177541
1825.55	0.163566
1827.05	0.446626
1828.55	0.126383
1830.04	0.289216
1831.54	-0.0177717
1833.04	0.035697
1834.54	0.0385256
1836.03	-0.0518579
1837.53	0.0830841
1839.03	-0.358393
1840.52	-0.0260296
1842.02	0.138487
1843.51	0.208177
1845.01	-0.0580311
1846.5	0.208688
1848	-0.112501
1849.49	-0.047719
1850.99	0.258915
1852.48	0.228851
1853.97	0.0221548
1855.47	0.007864
1856.96	-0.237508
1858.45	-0.127816
1859.94	0.21087
1861.44	0.135558
1862.93	0.128255
1864.42	0.121184
1865.91	0.0106926
1867.4	0.17116
1868.89	0.0246992
1870.38	-0.23385
1871.87	-0.00693512
1873.36	0.0613251
1874.85	0.166323
1876.34	0.0877972
1877.83	0.189126
1879.32	0.214282
1880.81	-0.161613
1882.3	0.144173
1882.57	0.234392
1884.07	0.704941
1885.56	0.355371
1887.06	0.37105
1888.55	0.438477
1890.04	-0.172486
1891.54	0.435378
1893.03	0.26199
1894.52	0.333753
1896.02	-0.0277386
1897.51	0.533141
1899	0.311329
1900.49	0.279842
1901.98	0.50776
1903.47	0.19479
1904.96	0.00239944
1906.45	0.626072
1907.94	0.43294
1909.43	0.153801
1910.92	0.101313
1912.41	0.309875
1913.9	0.137306
1915.39	0.0342321
1916.88	0.190937
1918.37	0.121751
1919.85	-0.103734
1921.34	0.259758
1922.83	0.121266
1924.32	-0.0682821
1925.8	0.2972
1927.29	-0.236575
1928.78	0.303606
1930.26	0.445577
1931.75	0.41361
1933.23	0.103222
1934.72	0.050993
1936.2	0.239502
1937.69	-0.282166
1939.17	-0.0951405
1940.66	0.160985
1942.14	0.141479
1943.63	0.071207
1945.11	0.0879831
1946.59	0.0533562
1948.07	0.466583
1949.56	0.32755
1951.04	0.342664
1952.52	0.150417
1954	0.353384
1955.48	-0.148493
1956.96	-0.151364
1958.45	0.1553
1959.93	0.393696
1961.41	-0.00204754
1962.89	0.288294
1964.37	0.0128355
1965.85	0.319388
1967.32	-0.0767307
1968.8	0.0572586
1970.28	0.00252724
1971.76	0.477109
1973.24	0.336522
1974.72	0.0427313
1976.19	-0.0800467
1977.67	0.121098
1979.15	0.373121
1980.63	0.233559
1982.1	0.162013
1983.58	0.141241
1985.05	0.374778
1986.53	0.421165
1988	0.179385
1989.48	0.209205
1990.95	0.578058
1992.43	-0.033577
1993.9	-0.00130367
1995.38	0.133065
1996.85	0.419769
1998.32	-0.0875063
1999.8	0.299911
2001.27	0.551447
2002.74	0.448085
2004.22	0.378418
2005.69	0.747238
2007.16	0.56065
2008.63	0.375093
2010.1	0.240928
2011.57	0.0231123
2013.04	-0.00947952
2014.51	0.310938
2015.98	0.159415
2017.45	0.0912418
2018.92	0.207289
2020.39	0.658759
2021.86	0.320362
2023.33	0.200825
2024.8	0.149234
2026.27	0.04844
2027.74	0.25087
2029.2	0.286926
2030.67	0.0893469
2032.14	0.261714
2033.61	0.0485077
2035.07	0.641203
2036.54	0.595561
2038.01	0.465354
2039.47	0.149836
2040.94	0.170347
2042.4	0.510692
2043.87	0.582829
2045.33	0.874633
2046.8	0.275132
2048.26	0.264841
2049.72	0.38904
2051.19	0.208895
2052.65	0.668058
2054.12	0.417256
2055.58	0.51897
2057.04	0.78792
2058.5	0.600957
2059.97	0.346636
2061.43	0.261271
2062.89	0.462858
2064.35	0.732612
2065.81	0.515224
2067.27	0.870824
2068.73	0.318154
2070.19	0.758794
2071.65	0.896559
2073.11	0.512241
2074.57	0.767471
2076.03	0.399326
2077.49	0.249737
2078.95	0.537611
2080.41	0.622954
2081.87	0.556214
2083.32	0.589859
2084.78	0.925673
2086.24	0.856831
2087.7	0.299845
2089.15	0.852153
2090.61	0.563866
2092.07	0.829803
2093.52	0.759779
2094.98	1.10881
2096.43	0.568679
2097.89	0.715279
2099.34	0.994961
2100.8	0.722075
2102.25	0.900985
2103.71	1.03036
2105.16	0.877112
2106.61	1.04231
2108.07	0.974905
2109.52	1.1246
2110.97	1.45702
2112.43	1.18797
2113.88	1.18394
2115.33	1.32809
2116.78	1.25499
2118.23	1.28202
2119.68	1.50954
2121.13	1.3406
2122.59	1.32299
2124.04	1.45605
2125.49	1.49023
2126.94	1.54067
2128.39	1.52375
2129.83	2.00252
2131.28	1.68453
2132.73	1.81297
2134.18	1.74274
2135.63	1.62381
2137.08	1.95277
2138.53	2.11825
2139.97	1.93866
2141.42	2.02521
2142.87	2.52646
2144.31	2.11889
2145.76	2.58828
2147.21	2.34574
2148.65	1.92013
2150.1	1.85783
2151.54	2.50692
2152.99	2.52539
2154.43	2.50981
2155.88	2.4109
2157.32	2.70967
2158.77	2.47914
2160.21	2.1672
2161.65	2.63583
2163.1	2.41051
2164.54	2.35246
2165.98	2.84309
2167.43	2.83584
2168.87	3.01023
2170.31	2.71706
2171.75	2.55445
2173.19	2.95528
2174.64	2.42306
2176.07	2.82168
2177.52	2.8546
2178.96	2.53922
2180.4	2.54082
2181.84	2.47684
2183.28	2.99551
2184.72	2.38361
2186.15	2.33718
2187.59	2.42386
2189.03	2.19439
2190.47	2.48082
2191.91	2.11775
2193.35	2.50304
2194.78	2.40404
2196.22	1.90361
2197.66	2.01705
2199.09	2.41123
2200.53	2.22225
2201.97	2.49826
2203.4	2.2603
2204.84	1.74194
2206.27	1.75549
2207.71	1.86894
2209.14	1.75023
2210.58	1.84598
2212.01	1.56014
2213.45	1.43921
2214.88	1.58259
2216.31	1.08267
2217.75	1.64025
2219.18	1.70384
2220.61	1.86715
2222.05	1.58549
2223.48	1.45153
2224.91	1.64559
2226.34	1.75537
2227.78	1.18921
2229.21	1.47686
2230.64	1.18896
2232.07	1.29475
2233.5	1.4006
2234.93	1.09818
2236.36	0.715805
2237.79	0.906884
2239.22	1.13216
2240.65	0.820927
2242.08	0.984488
2243.5	0.708822
2244.93	1.11851
2246.36	1.13606
2247.79	1.02157
2249.22	0.823528
2250.64	1.21004
2252.07	0.878066
2253.5	0.854864
2254.92	1.02697
2256.35	0.794344
2257.78	1.08349
2259.2	0.742531
2260.63	0.745057
2262.05	0.960871
2263.48	0.658667
2264.9	0.778878
2266.33	0.785042
2267.75	0.611483
2269.18	0.632198
2270.6	0.880096
2272.02	0.720559
2273.45	0.560786
2274.87	0.873425
2276.29	0.844229
2277.71	0.635893
2279.14	0.704639
2280.56	0.57767
2281.98	0.46682
2283.4	0.600553
2284.82	0.505919
2286.24	0.721572
2287.66	0.39886
2289.08	0.157997
2290.5	0.538235
2291.92	0.510349
2293.34	0.51525
2294.76	0.60193
2296.18	0.295743
2297.6	0.333128
2299.02	0.468884
2300.44	0.654094
2301.86	0.511776
2303.27	0.681292
2304.69	0.703386
2306.11	0.413367
2307.53	0.0734334
2308.94	0.275172
2310.36	0.361414
2311.78	0.661186
2313.19	-0.042593
2314.61	0.570314
2316.02	0.673903
2317.44	0.432333
2318.85	0.537072
2320.27	0.394272
2321.68	0.497808
2323.1	0.236546
2324.51	0.435229
2325.92	0.582272
2327.34	0.85955
2328.75	0.756773
2330.16	0.473126
2331.58	-0.204525
2332.99	0.139686
2334.4	0.188272
2335.81	0.23703
2337.23	0.252438
2338.64	0.283375
2340.05	0.165349
2341.46	0.801991
2342.87	0.518342
2344.28	0.317046
2345.69	0.575142
2347.1	-0.264195
2348.51	0.174258
2349.92	0.251918
2351.33	0.279707
2352.74	0.551516
2354.15	0.152974
2355.55	0.373975
2356.96	0.398826
2358.37	0.00071764
2359.78	0.383402
2361.19	0.116175
2362.59	0.416924
2364	0.26345
2365.41	0.41762
2366.81	0.00601721
2368.22	0.19314
2369.62	0.413104
2371.03	0.3438
2372.44	-0.207499
2373.84	0.434211
2375.24	0.31918
2376.65	-0.294876
2378.05	0.00729609
2379.46	0.0505996
2380.86	0.0120807
2382.26	0.277039
2383.67	-0.132058
2385.07	-0.15647
2386.47	-0.324262
2387.88	-0.490908
2389.28	0.236607
2390.68	-0.055582
2392.08	0.226806
2393.48	0.143785
2394.89	0.0615902
2396.29	0.29804
2397.69	0.741503
2399.09	-0.133508
2400.49	-0.276967
2401.89	0.453473
2403.29	-0.229701
2404.69	0.00795317
2406.09	-0.168004
2407.48	-0.0431733
2408.88	0.42975
2410.28	0.553176
2411.68	0.407361
2413.08	0.262449
2414.48	0.688759
2415.87	0.324797
2417.27	0.26286
2418.67	0.518412
2420.06	0.315093
2421.46	-0.0468302
2422.86	0.256198
2424.25	0.432297
2425.65	0.307417
2427.04	0.151283
2428.44	0.487332
2429.83	0.0790725
2431.23	0.274034
2432.62	0.897936
2434.02	0.330718
2435.41	-0.126755
2436.81	0.383489
2438.2	0.272721
2439.59	0.287876
2440.99	0.238668
2442.38	0.522356
2443.77	0.472338
2445.16	0.453907
2446.56	0.467053
2447.95	0.733605
2449.34	0.39799
2450.73	0.347871
2452.12	0.56736
2453.51	0.676692
2454.9	0.0907073
2456.29	0.549533
2457.68	0.360048
2459.07	0.122977
2460.46	0.280784
2461.85	0.295484
2463.24	0.341053
2464.63	0.322848
2466.02	0.0517125
2467.4	0.443701
2468.79	0.0937223
2470.18	0.532399
2471.57	0.292419
2472.95	0.178091
2474.34	0.598417
2475.73	0.0422759
2477.12	0.335389
2478.5	0.42383
2479.89	-0.460588
2481.27	0.318527
2482.66	0.42267
2484.04	-0.0686569
2485.43	0.268968
2486.81	0.136186
2488.2	0.189946
2489.58	0.538981
2490.97	0.280023
2492.35	0.255371
2493.73	0.293879
2495.12	-0.0852671
2496.5	0.358827
2497.88	0.33838
2499.27	-0.300926
2500.65	0.0502334
2502.03	0.137414
2503.41	0.36251
2504.79	0.308688
2506.17	0.22359
2507.56	0.0922923
2508.94	-0.0232196
2510.32	-0.107385
2511.7	0.19274
2513.08	0.416373
2514.46	0.165651
2515.84	-0.0379891
2517.22	-0.0571256
2518.59	0.153563
2519.97	-0.0178342
2521.35	-0.00603008
2522.73	0.203577
2524.11	0.44263
2525.49	-0.203261
2526.86	0.339395
2528.24	0.0447407
2529.62	0.0252028
2530.99	0.0527158
2532.37	0.00576401
2533.75	-0.146305
2535.12	0.264387
2536.5	-0.31249
2537.88	0.294989
2539.25	0.126826
2540.63	0.36793
2542	0.198762
2543.38	0.166539
2544.75	0.104789
2546.12	0.0290203
2547.5	-0.242845
2548.87	0.168675
2550.24	0.109978
2551.62	-0.00988865
2552.99	-0.236825
2554.36	0.233402
2555.74	0.156485
2557.11	-0.315238
2558.48	0.153308
2559.85	-0.120941
2561.22	0.13588
2562.59	0.42352
2563.96	0.0903606
2565.34	-0.227242
2566.71	-0.0900054
2568.08	0.047328
2569.45	0.199841
2570.82	0.291749
2572.18	0.383711
2573.55	0.218071
2574.92	0.128297
2576.29	0.37209
2577.66	0.282277
2579.03	0.207412
2580.4	-0.262022
2581.77	0.268938
2583.13	0.117233
2584.5	-0.0649672
2585.87	0.177261
2587.23	0.0557985
2588.6	0.131555
2589.97	-0.353316
2591.33	0.0255165
2592.7	-0.00524616
2594.06	0.145054
2595.43	-0.220526
2596.79	0.427402
2598.16	-0.000128269
2599.52	0.101661
2600.89	-0.20452
2602.25	-0.207874
2603.62	-0.0143919
2604.98	0.119074
2606.34	0.131945
2607.71	-0.443558
2609.07	0.276826
2610.43	0.317505
2611.79	-0.199945
2613.16	-0.0709839
2614.52	0.0720644
2615.88	0.0495501
2617.24	0.0273137
2618.6	0.0506072
2619.96	0.0895305
2621.32	0.0543141
2622.68	0.13916
2624.04	-0.0745339
2625.4	-0.0193982
2626.76	0.408223
2628.12	-0.133617
2629.48	-0.436679
2630.84	-0.263359
2632.2	-0.00121069
2633.56	0.126794
2634.92	0.0764766
2636.28	0.0558796
2637.63	-0.0832305
2638.99	0.118472
2640.35	-0.1682
2641.71	0.151915
2643.06	0.0877376
2644.42	-0.241914
2645.77	0.166427
2647.13	0.0431185
2648.49	0.0666695
2649.84	0.1483
2651.2	0.0233469
2652.55	0.0158672
2653.91	-0.299451
2655.26	0.309899
2656.62	0.143052
2657.97	-0.00784922
2659.33	0.193318
2660.68	-0.0147414
2662.03	0.0987749
2663.39	0.1532
2664.74	0.104642
2666.09	-0.00286674
2667.44	-0.0814776
2668.8	-0.0289702
2670.15	0.198307
2671.5	0.0477309
2672.85	-0.16017
2674.2	0.0103045
2675.55	0.398848
2676.91	0.0766864
2678.26	0.306515
2679.61	0.0585237
2680.96	0.0725594
2682.31	-0.0717816
2683.66	0.147449
2685	0.106577
2686.35	0.066102
2687.7	0.489898
2689.05	0.259489
2690.4	0.0419946
2691.75	0.417971
2693.1	-0.223263
2694.44	0.237286
2695.79	0.0160766
2697.14	0.0853829
2698.49	-0.032414
2699.83	0.198877
2701.18	0.0697656
2702.52	0.0578566
2703.87	-0.0110698
2705.22	0.239362
2706.56	0.229005
2707.91	-0.115357
2709.25	0.178385
2710.6	0.108962
2711.94	0.373378
2713.29	-0.20498
2714.63	0.364593
2715.97	-0.141514
2717.32	-0.32806
2718.66	0.0670042
2720.01	0.229109
2721.35	0.245329
2722.69	0.24656
2724.03	0.320138
2725.38	-0.159788
2726.72	-0.130592
2728.06	0.320389
2729.4	0.0871215
2730.74	0.24665
2732.08	0.144249
2733.42	0.405641
2734.76	-0.321939
2736.1	-0.103822
2737.44	0.303469
2738.78	0.318039
2740.12	0.332381
2741.46	0.259041
2742.8	0.243279
2744.14	0.139692
2745.48	0.166364
2746.82	0.27976
2748.16	0.0735765
2749.49	-0.146887
2750.83	0.285657
2752.17	0.0947218
2753.51	-0.124837
2754.84	-0.257159
2756.18	0.146622
2757.52	0.000113487
2758.85	-0.189495
2760.19	0.330513
2761.53	-0.176618
2762.86	0.271797
2764.2	-0.205566
2765.53	-0.0173507
2766.87	0.199358
2768.2	0.198183
2769.54	-0.0933523
2770.87	-0.0679979
2772.2	-0.101649
2773.54	0.181273
2774.87	-0.0557418
2776.2	-0.29235
2777.54	0.22012
2778.87	0.070806
2780.2	0.13775
2781.53	0.0182233
2782.87	-0.0867071
2784.2	0.138309
2785.53	-0.296241
2786.86	0.0863495
2788.19	-0.074986
2789.52	0.15087
2790.85	0.177147
2792.18	-0.2534
2793.51	0.160072
2794.84	0.030314
2796.17	-0.0853953
2797.5	-0.230086
2798.83	0.367292
2800.16	-0.334929
2801.49	-0.0809889
2802.82	0.0869932
2804.15	-0.20144
2805.47	0.165194
2806.8	0.132302
2808.13	-0.228232
2809.46	-0.261714
2810.78	-0.124689
2812.11	0.0268931
2813.44	0.264443
2814.76	0.0211129
2816.09	-0.0790081
2817.42	-0.0647082
2818.74	0.0068059
2820.07	-0.00671577
2821.39	-0.0206375
2822.72	-0.0493217
2824.04	0.247317
2825.37	0.189411
2826.69	-0.250753
2828.02	-0.265518
2829.34	0.17324
2830.66	-0.052968
2831.99	0.117389
2833.31	0.59909
2834.63	0.202894
2835.96	0.329961
2837.28	0.31501
2838.6	0.41284
2839.92	0.821561
2841.24	0.579841
2842.57	0.72028
2843.89	0.790625
2845.21	0.819248
2846.53	1.07457
2847.85	1.49985
2849.17	1.3881
2850.49	1.67182
2851.81	1.6017
2853.13	1.81375
2854.45	1.58732
2855.77	1.68575
2857.09	1.89716
2858.41	1.65658
2859.72	1.58553
2861.04	1.81086
2862.36	2.30403
2863.68	2.24617
2865	2.61139
2866.31	2.52501
2867.63	2.35433
2868.95	2.91736
2870.26	3.22687
2871.58	3.19814
2872.9	3.22551
2874.21	3.46343
2875.53	3.26345
2876.84	3.30185
2878.16	3.53637
2879.47	3.19378
2880.79	3.41412
2882.1	3.66321
2883.42	2.93011
2884.73	3.04086
2886.05	3.27849
2887.36	3.61432
2888.67	3.44439
2889.99	3.32985
2891.3	3.18651
2892.61	3.67336
2893.92	3.50121
2895.24	3.84769
2896.55	3.66287
2897.86	3.74513
2899.17	3.56258
2900.48	4.24822
2901.79	4.17885
2903.11	4.54332
2904.42	4.20854
2905.73	4.69931
2907.04	4.74311
2908.35	4.82975
2909.66	5.07123
2910.97	4.89357
2912.27	4.96774
2913.58	5.11112
2914.89	5.099
2916.2	5.26702
2917.51	5.4613
2918.82	5.79432
2920.13	6.36472
2921.43	6.27841
2922.74	6.59893
2924.05	6.47366
2925.35	6.79697
2926.66	6.88333
2927.97	7.24933
2929.27	7.01375
2930.58	6.70761
2931.89	7.23969
2933.19	7.43593
2934.5	7.1569
2935.8	7.04574
2937.11	6.90683
2938.41	6.9498
2939.72	6.67168
2941.02	6.39415
2942.32	6.4669
2943.63	6.1217
2944.93	6.21125
2946.24	5.88255
2947.54	5.62418
2948.84	5.67324
2950.14	5.84706
2951.45	5.34682
2952.75	5.20855
2954.05	5.09681
2955.35	5.13869
2956.65	5.34949
2957.95	4.66668
2959.26	4.7565
2960.56	5.08745
2961.86	5.00042
2963.16	4.64745
2964.46	4.58814
2965.76	4.31651
2967.06	4.05693
2968.36	3.88016
2969.66	4.06812
2970.96	3.91848
2972.25	4.06449
2973.55	3.61985
2974.85	3.55499
2976.15	3.46125
2977.45	3.33799
2978.74	2.73427
2980.04	2.97364
2981.34	3.05675
2982.64	2.73136
2983.93	3.19386
2985.23	2.7436
2986.52	2.44961
2987.82	2.26949
2989.12	2.23081
2990.41	2.17829
2991.71	1.97064
2993	1.95872
2994.3	1.62238
2995.59	1.87504
2996.89	1.60732
2998.18	1.71849
2999.48	1.56326
3000.77	1.0441
3002.06	0.974344
3003.36	1.25529
3004.65	1.08786
3005.94	0.780204
3007.23	0.780131
3008.53	0.891175
3009.82	0.791498
3011.11	0.830941
3012.4	0.772168
3013.69	1.11801
3014.99	0.864285
3016.28	0.444393
3017.57	0.318032
3018.86	0.637495
3020.15	0.442079
3021.44	0.524395
3022.73	0.439106
3024.02	0.547274
3025.31	0.294062
3026.6	0.387345
3027.89	0.121115
3029.18	0.2849
3030.46	0.297795
3031.75	0.229124
3033.04	0.506533
3034.33	0.300976
3035.62	0.357111
3036.9	0.342989
3038.19	0.327185
3039.48	0.199531
3040.76	0.565475
3042.05	0.380557
3043.34	0.44277
3044.62	0.546652
3045.91	0.446736
3047.19	0.280732
3048.48	0.649532
3049.77	0.187468
3051.05	0.518472
3052.34	0.427121
3053.62	0.363017
3054.9	0.734803
3056.19	0.368903
3057.47	0.75195
3058.76	0.411717
3060.04	0.820437
3061.32	0.521405
3062.61	0.631585
3063.89	0.919719
3065.17	0.529463
3066.45	0.493993
3067.74	0.622555
3069.02	0.465882
3070.3	0.281642
3071.58	0.450134
3072.86	0.141442
3074.14	0.321084
3075.42	0.350201
3076.7	0.107337
3077.99	0.258667
3079.26	0.16659
3080.54	0.0758882
3081.82	0.271421
3083.1	0.345972
3084.38	-0.0130939
3085.66	0.306273
3086.94	0.0687432
3088.22	-0.0880933
3089.5	0.134417
3090.78	-0.0506992
3092.05	0.198194
3093.33	0.026587
3094.61	-0.0362592
3095.89	0.0502377
3097.16	0.177376
3098.44	-0.0344963
3099.72	0.0109763
3100.99	0.0156379
3102.27	0.155704
3103.54	0.0928011
3104.82	-0.0644145
3106.1	-0.0991745
3107.37	0.00215435
3108.65	-0.328718
3109.92	0.180427
3111.2	-0.121755
3112.47	0.118272
3113.74	-0.21034
3115.02	-0.0648355
3116.29	-0.0553474
3117.56	0.387303
3118.84	0.327062
3120.11	0.00801945
3121.38	-0.311803
3122.66	0.479239
3123.93	-0.00394201
3125.2	0.244522
3126.47	0.0870876
3127.74	0.173724
3129.01	0.0983882
3130.29	-0.247078
3131.56	0.272731
3132.83	-0.140366
3134.1	0.189263
3135.37	0.437003
3136.64	0.292567
3137.91	0.376904
3139.18	0.352879
3140.45	0.167119
3141.72	0.00852394
3142.99	0.145947
3144.26	0.337183
3145.52	0.0590792
3146.79	0.224255
3148.06	0.161982
3149.33	0.38138
