200.523	-0.00228786
202.339	0.0167589
204.154	0.0367975
205.967	1.27393
207.781	0.419671
209.596	0.586322
211.409	0.484558
213.222	0.527274
215.034	0.738665
216.848	0.125232
218.659	0.166748
220.47	0.305747
222.281	0.590757
224.091	-0.0905571
225.903	0.0510664
227.713	-0.435381
229.522	-0.100765
231.331	0.42614
233.14	0.373364
234.948	-0.426388
236.756	-0.139503
238.566	0.438683
240.373	0.561541
242.18	0.204635
243.986	0.47608
245.792	0.0236578
247.598	0.00390053
249.403	-0.525629
251.208	0.149044
253.013	0.0483208
254.818	0.500801
256.624	-0.301204
258.427	0.199746
260.231	-0.237489
262.034	0.363232
263.836	0.242966
265.638	0.075593
267.44	-0.380699
269.242	-0.0178814
271.043	-0.137927
272.844	0.102531
274.645	0.172807
276.445	0.868144
278.245	0.645455
280.044	0.0114079
281.843	0.675739
283.642	-0.0817156
285.44	-0.0223789
287.238	0.34809
289.036	0.286289
290.833	-0.42133
292.63	0.14209
294.425	0.323593
296.221	-0.0434303
298.017	0.260122
299.813	-0.104981
301.608	0.461437
303.403	0.453569
305.198	-0.152176
306.992	-0.0188379
308.786	0.328678
310.579	-0.371885
312.371	0.120129
314.163	0.184957
315.956	0.537408
317.748	0.24879
319.54	-0.205177
321.331	0.247346
323.122	0.0810709
324.911	0.177485
326.701	0.0831223
328.491	0.107843
330.281	0.0362711
332.071	1.11149
333.857	0.223695
335.646	-0.379536
337.434	0.115667
339.222	-0.109086
341.008	0.0951891
342.795	-0.442513
344.582	0.477679
346.369	0.0362482
348.153	0.168835
349.939	0.612201
351.724	0.363227
353.51	0.256926
355.292	0.10186
357.077	0.37475
358.861	0.193213
360.643	0.272647
362.426	-0.22008
364.21	0.238249
365.99	-0.350213
367.773	-0.250118
369.555	0.204564
371.335	0.207387
373.116	0.138492
374.897	0.092988
376.676	0.378098
378.456	0.309428
380.236	0.383156
382.014	0.387328
383.793	-0.00703812
385.57	-0.0940685
387.349	0.313618
389.127	0.463737
390.903	-0.254233
392.681	-0.38413
394.456	0.543299
396.233	0.508245
398.007	0.473239
399.784	-0.0552092
401.56	-0.137894
403.333	0.0840874
405.108	0.281793
406.881	-0.014473
408.656	0.721762
410.428	-0.0918741
412.202	-0.154185
413.973	-0.239567
415.746	0.0276833
417.517	0.413006
419.29	0.822494
421.06	0.457775
422.831	-0.0951319
424.601	0.313623
426.37	0.204967
428.141	0.353674
429.909	0.478363
431.679	0.462168
433.447	-0.0465908
435.216	0.196004
436.983	0.250769
438.75	0.422123
440.519	0.169551
442.285	0.102696
444.052	0.197809
445.818	1.27471
447.583	0.523007
449.349	0.403472
451.114	0.471128
452.878	0.398918
454.643	0.0937805
456.407	-0.00118065
458.169	0.462731
459.934	0.111531
461.696	-0.633801
463.458	0.226835
465.222	-0.304935
466.983	0.00259495
468.744	0.173363
470.507	-0.188804
472.267	0.100697
474.027	0.203469
475.787	-0.0681353
477.548	0.333536
479.307	0.0345345
481.065	0.386758
482.823	0.552736
484.583	0.440422
486.341	0.283417
488.098	0.128396
489.855	0.278401
491.612	1.01327
493.37	-0.095789
495.126	-0.0841465
496.881	0.395579
498.636	0.547832
500.391	0.230811
502.148	0.616713
503.902	0.485492
505.656	0.940479
507.409	0.430324
509.162	0.976731
510.915	1.02758
512.668	0.62962
514.42	0.441843
516.174	0.299745
517.925	0.485717
519.676	0.223864
521.427	0.407877
523.178	0.0745611
524.928	0.656708
526.678	0.393694
528.427	0.154388
530.176	0.0323544
531.925	0.44869
533.673	-0.306639
535.422	0.247692
537.169	0.869801
538.917	0.672144
540.664	0.357058
542.411	0.158316
544.157	-0.0170937
545.903	0.0169744
547.649	0.909775
549.395	0.479432
551.14	0.883836
552.884	0.292939
554.629	1.02047
556.373	0.384949
558.117	-0.225883
559.86	0.155527
561.603	-0.0386715
563.346	-0.0710144
565.089	0.724676
566.831	0.670072
568.573	0.111291
570.314	0.196621
572.053	0.329143
573.794	0.371511
575.534	0.30096
577.274	0.599209
579.014	-0.202906
580.754	-0.545688
582.493	-0.176386
584.23	0.353645
585.968	0.0550976
587.706	0.698272
589.444	-0.15507
591.181	0.048893
592.919	0.0222492
594.653	0.271524
596.39	-0.00834942
598.126	-0.26527
599.862	0.190624
601.595	-0.41256
603.33	0.179115
605.065	0.0792713
606.8	0.00117493
608.532	0.381636
610.266	0.531988
611.999	0.155097
613.732	-0.0143032
615.463	-0.137079
617.196	-0.0534477
618.928	0.212787
620.66	0.202987
622.389	0.100438
624.12	-0.231442
625.851	-0.0831614
627.58	0.362767
629.31	-0.239503
631.04	0.00504684
632.767	0.525412
634.497	0.111189
636.223	0.997619
637.952	-0.354789
639.68	0.549845
641.406	0.447087
643.134	0.50147
644.861	0.713838
646.586	0.266534
648.312	0.140072
650.037	-0.0967159
651.762	0.76098
653.486	0.600231
655.211	0.215257
656.936	1.33475
658.659	0.702329
660.383	0.205007
662.105	0.184732
663.829	0.504907
665.55	0.91436
667.273	0.773198
668.994	1.34022
670.716	0.833115
672.436	0.510818
674.158	0.259362
675.877	0.353455
677.598	-0.0558252
679.317	0.705564
681.035	0.616759
682.755	0.709993
684.473	0.755078
686.192	0.590844
687.909	0.885544
689.628	0.764546
691.344	0.804008
693.06	0.658521
694.778	0.420118
696.493	0.733431
698.211	0.262631
699.925	0.596278
701.64	0.376462
703.356	0.54662
705.07	1.01439
706.783	0.12692
708.498	1.02898
710.211	0.485718
711.924	0.927355
713.638	0.132771
715.35	1.05327
717.061	0.602201
718.774	0.790693
720.485	0.568811
722.196	1.03059
723.906	1.01384
725.618	0.246788
727.328	1.20691
729.037	1.30257
730.746	1.69225
732.456	0.94837
734.165	1.08812
735.873	0.798224
737.58	1.14149
739.289	1.23667
740.997	0.836843
742.703	1.22725
744.41	0.965737
746.116	0.638443
747.823	0.852698
749.529	1.15821
751.234	1.75741
752.938	1.43585
754.643	0.980704
756.347	0.796921
758.051	0.817208
759.756	0.636222
761.459	1.49326
763.162	1.11111
764.865	1.56357
766.567	1.81206
768.269	0.725073
769.97	1.64755
771.671	0.962593
773.372	1.0224
775.073	0.833028
776.773	1.11905
778.473	1.56471
780.174	0.768196
781.874	1.21668
783.573	1.824
785.271	1.16276
786.97	0.929024
788.668	1.55215
790.365	1.44749
792.063	0.978543
793.76	1.38938
795.456	0.896889
797.153	0.834442
798.847	0.886366
800.543	1.7953
802.238	1.66995
803.933	1.07314
805.628	1.69053
807.322	1.7223
809.017	1.86504
810.71	1.08627
812.404	1.54095
814.097	1.88229
815.79	1.46168
817.483	1.3996
819.173	1.29302
820.865	2.12461
822.556	1.86201
824.248	1.40003
825.939	1.76461
827.629	2.13115
829.318	2.07742
831.008	1.53707
832.697	1.57874
834.387	1.95707
836.076	1.40008
837.765	0.886838
839.451	1.89026
841.139	1.28454
842.827	1.14628
844.514	1.5885
846.2	1.42817
847.886	1.47087
849.573	1.31486
851.259	1.47475
852.943	1.21106
854.629	1.62097
856.314	1.11057
857.997	1.16009
859.682	0.735415
861.366	0.78118
863.05	1.41111
864.732	1.04861
866.415	1.51904
868.098	0.816475
869.779	0.677002
871.461	0.852966
873.141	1.34465
874.823	1.58819
876.505	1.06453
878.184	0.743901
879.865	1.16798
881.545	1.32087
883.223	1.02149
884.903	1.01444
886.581	1.02851
888.26	0.882988
889.937	1.52522
891.616	1.0383
893.294	1.36135
894.97	1.00763
896.648	1.19289
898.323	0.815348
900	0.886234
901.675	1.42661
903.351	0.354025
905.026	1.18347
906.701	1.58701
908.375	0.741912
910.05	0.300463
911.723	0.661703
913.398	0.40065
915.07	0.384699
916.742	0.81247
918.415	0.818295
920.087	0.713553
921.76	1.07412
923.43	0.794337
925.103	0.78172
926.773	1.61006
928.443	0.916662
930.114	0.909013
931.783	0.791777
933.454	0.520437
935.123	0.602287
936.791	0.596359
938.461	0.679561
940.128	0.477316
941.796	0.430682
943.464	1.28948
945.131	0.537314
946.797	0.291404
948.465	0.705829
950.131	0.52233
951.797	0.139159
953.462	0.417976
955.128	0.279325
956.793	0.827123
958.457	0.84915
960.121	0.366465
961.786	0.370657
963.45	0.441011
965.113	0.465472
966.775	0.0889616
968.44	0.594575
970.102	0.213084
971.763	0.693507
973.425	0.134889
975.086	0.794132
976.748	0.548595
978.409	0.326655
980.069	0.702741
981.729	1.07861
983.388	0.766876
985.048	1.02861
986.708	0.756855
988.367	0.837358
990.025	0.540569
991.683	0.39814
993.341	0.542847
994.998	0.643352
996.655	0.743875
998.312	0.778117
999.969	1.45109
1001.62	1.24195
1003.28	1.82484
1004.94	0.559355
1006.59	0.438236
1008.25	0.0100269
1009.9	0.526328
1011.56	0.932769
1013.21	0.287251
1014.86	0.0371771
1016.52	0.0505009
1018.17	-0.00128937
1019.82	0.253987
1021.48	-0.05828
1023.13	0.942222
1024.78	0.522858
1026.43	0.650516
1028.08	0.603367
1029.73	0.861395
1031.38	0.550158
1033.03	0.368442
1034.68	0.643356
1036.33	0.197026
1037.98	0.0991001
1039.63	0.0230436
1041.28	0.165308
1042.93	0.460904
1044.57	0.345243
1046.22	0.796428
1047.87	0.337357
1049.52	-0.0765104
1051.16	0.227615
1052.81	-0.618738
1054.45	0.273307
1056.1	0.144224
1057.75	0.514808
1059.39	-0.223857
1061.04	0.210874
1062.68	0.427406
1064.32	-0.487672
1065.97	-0.273088
1067.61	0.0924664
1069.25	0.652335
1070.9	0.320727
1072.54	-0.16264
1074.18	0.114326
1075.82	0.0885191
1077.47	0.411089
1079.11	0.474673
1080.75	0.17042
1082.39	-0.00373745
1084.03	0.580085
1085.67	-0.225316
1087.31	-0.143843
1088.95	-0.259405
1090.59	0.532152
1092.22	0.132277
1093.86	-0.245762
1095.5	-0.0619221
1097.14	0.316439
1098.78	0.114084
1100.41	-0.0431051
1102.05	0.23218
1103.69	0.423098
1105.32	0.593827
1106.96	0.270451
1108.59	-0.246729
1110.23	0.396179
1111.86	0.198854
1113.5	-0.0644131
1115.13	0.508591
1116.77	0.951495
1118.4	-0.106635
1120.03	0.508367
1121.67	0.524211
1123.3	0.220166
1124.93	0.666225
1126.56	0.171853
1128.19	0.17039
1129.83	0.511778
1131.46	0.639922
1133.09	0.169802
1134.72	-0.193504
1136.35	0.297525
1137.98	-0.323819
1139.61	0.0365391
1141.24	-0.372986
1142.86	0.60439
1144.49	0.215989
1146.12	0.532205
1147.75	0.124664
1149.38	0.0165615
1151	0.44151
1152.63	0.738494
1154.26	0.0769472
1155.88	-0.648466
1157.51	-0.075717
1159.14	-0.566376
1160.76	-0.056489
1162.39	-0.0133705
1164.01	0.307188
1165.63	0.458179
1167.26	0.778978
1168.88	-0.134501
1170.51	0.247113
1172.13	0.222774
1173.75	0.366439
1175.38	0.572258
1177	0.353267
1178.62	0.240771
1180.24	-0.526964
1181.86	0.0187273
1183.48	-0.682863
1185.1	0.834903
1186.72	0.0693216
1188.34	0.168163
1189.96	-0.0513754
1191.58	0.0223341
1193.2	0.262503
1194.82	0.501175
1196.44	0.424783
1198.06	0.265884
1199.68	-0.225355
1201.29	0.770268
1202.91	0.0134192
1204.53	0.512295
1206.14	0.303735
1207.76	0.785074
1209.38	0.599075
1210.99	0.30796
1212.61	0.515554
1214.22	0.553877
1215.84	0.985342
1217.45	0.561221
1219.07	0.407015
1220.68	0.97956
1222.29	0.888144
1223.91	0.611824
1225.52	1.45563
1227.13	0.748171
1228.74	1.346
1230.36	0.973042
1231.97	1.01506
1233.58	1.4511
1235.19	1.80585
1236.8	1.62463
1238.41	1.34119
1240.02	1.20312
1241.63	1.43751
1243.24	1.54749
1244.85	0.994476
1246.46	2.09568
1248.07	1.47826
1249.67	1.39802
1251.28	1.83464
1252.89	1.36131
1254.5	1.36462
1256.1	1.20368
1257.71	1.3751
1259.32	1.69274
1260.92	1.39059
1262.53	1.7307
1264.13	1.13886
1265.74	2.16255
1267.34	1.15459
1268.95	1.63786
1270.55	1.29071
1272.15	1.46071
1273.76	1.56734
1275.36	1.23754
1276.97	1.56997
1278.57	1.90126
1280.17	1.50689
1281.77	1.67133
1283.37	1.33929
1284.97	1.40104
1286.58	2.00125
1288.18	1.94099
1289.78	1.32385
1291.38	1.80257
1292.98	1.84719
1294.58	1.0233
1296.18	1.16902
1297.78	1.51932
1299.37	2.05307
1300.97	2.17204
1302.57	1.71264
1304.17	2.56999
1305.77	2.27358
1307.36	1.85396
1308.96	1.66054
1310.55	2.36923
1312.15	1.95099
1313.75	2.59793
1315.34	1.71242
1316.94	2.44238
1318.53	2.19262
1320.13	2.20808
1321.72	1.75396
1323.32	1.9297
1324.91	1.75755
1326.5	1.86842
1328.1	1.85679
1329.69	1.88632
1331.28	2.3828
1332.87	2.55765
1334.47	2.10905
1336.06	2.08665
1337.65	2.26656
1339.24	2.22374
1340.83	2.36025
1342.42	2.23242
1344.01	1.84122
1345.6	1.77092
1347.19	2.04187
1348.78	1.67327
1350.37	1.5283
1351.96	1.56638
1353.54	1.02693
1355.13	1.84836
1356.72	1.1711
1358.31	1.41263
1359.89	1.79271
1361.48	1.89182
1363.07	1.33162
1364.65	1.30996
1366.24	1.06944
1367.82	1.62661
1369.41	0.831074
1370.99	1.45051
1372.58	1.3947
1374.16	1.55902
1375.75	1.62458
1377.33	1.05347
1378.91	1.53643
1380.5	0.844276
1382.08	1.42406
1383.66	1.66401
1385.25	2.49895
1386.83	1.96176
1388.41	0.670717
1389.99	1.8825
1391.57	1.20938
1393.15	1.50956
1394.73	1.5125
1396.31	1.81265
1397.89	1.16033
1399.47	0.864036
1401.05	0.784848
1402.63	1.87297
1404.21	1.77291
1405.78	1.13969
1407.36	1.0021
1408.94	1.04336
1410.52	1.55918
1412.1	1.36376
1413.67	0.674321
1415.25	0.793428
1416.82	1.6609
1418.4	1.54156
1419.98	1.14696
1421.55	1.10834
1423.13	1.38641
1424.7	1.68585
1426.28	1.19939
1427.85	1.363
1429.42	1.03421
1431	1.9641
1432.57	1.53464
1434.14	1.96991
1435.71	1.73577
1437.29	2.05251
1438.86	2.50754
1440.43	2.53121
1442	2.7329
1443.57	2.2672
1445.14	2.25397
1446.71	2.69302
1448.28	2.69985
1449.85	2.27453
1451.42	2.71478
1452.99	2.9985
1454.56	2.29922
1456.13	2.68172
1457.7	1.62697
1459.26	2.12534
1460.83	2.91687
1462.4	2.09263
1463.97	1.89636
1465.54	2.01354
1467.1	1.71769
1468.67	1.3244
1470.23	1.61931
1471.8	1.60137
1473.36	1.80033
1474.93	1.19612
1476.49	1.63167
1478.06	1.24385
1479.62	1.4637
1481.19	1.66378
1482.75	0.746698
1484.31	1.35803
1485.88	0.773767
1487.44	0.443539
1489	0.836501
1490.56	0.54232
1492.13	0.69593
1493.69	1.12042
1495.25	0.0789499
1496.81	1.33798
1498.37	1.36768
1499.93	0.776048
1501.49	0.672258
1503.05	0.414783
1504.61	0.56556
1506.17	0.445313
1507.73	0.808084
1509.28	0.647424
1510.84	0.42802
1512.4	0.381699
1513.96	1.00868
1515.52	0.173508
1517.07	0.819189
1518.63	0.658825
1520.19	0.805911
1521.74	1.02942
1523.3	1.13739
1524.85	0.614243
1526.41	1.02554
1527.96	1.14914
1529.52	0.720436
1531.07	0.729593
1532.63	0.928884
1534.18	1.3369
1535.73	1.29115
1537.29	1.22766
1538.84	1.1273
1540.39	0.631578
1541.94	1.58739
1543.5	1.3368
1545.05	1.87609
1546.6	1.55009
1548.15	1.43095
1549.7	1.49944
1551.25	1.90503
1552.8	1.84277
1554.35	1.78173
1555.9	1.74106
1557.45	1.73978
1559	1.49817
1560.55	1.65056
1562.1	1.31968
1563.65	1.54967
1565.19	1.5191
1566.74	1.95514
1568.29	1.99908
1569.83	1.66926
1571.38	2.04829
1572.93	2.72569
1574.47	1.72286
1576.02	2.36279
1577.56	2.42428
1579.11	2.65429
1580.66	2.43696
1582.2	2.63135
1583.74	2.95761
1585.29	2.61219
1586.83	2.82797
1588.38	3.10019
1589.92	2.84841
1591.46	2.5023
1593.01	2.3988
1594.55	1.99521
1596.09	2.15351
1597.63	2.12496
1599.17	2.7909
1600.71	2.65162
1602.25	3.09457
1603.79	2.78677
1605.34	2.15844
1606.88	2.1858
1608.41	2.88756
1609.95	2.30855
1611.49	2.91075
1613.03	2.49602
1614.57	1.91132
1616.11	1.88955
1617.65	2.09328
1619.18	1.97963
1620.72	1.90522
1622.26	1.9447
1623.79	1.5732
1625.33	1.98797
1626.87	1.40984
1628.4	2.19631
1629.94	2.34477
1631.48	2.02465
1633.01	2.20875
1634.55	2.11299
1636.08	1.49584
1637.61	2.05517
1639.15	1.9436
1640.68	1.70165
1642.21	2.29749
1643.75	1.51366
1645.28	1.97615
1646.81	1.91634
1648.34	2.11641
1649.88	2.1681
1651.41	2.36929
1652.94	2.16365
1654.47	1.82964
1656	2.81248
1657.53	2.51612
1659.06	2.34868
1660.59	1.80967
1662.12	2.04665
1663.65	2.22655
1665.18	2.01767
1666.71	1.53273
1668.24	1.9902
1669.76	2.09857
1671.29	1.74789
1672.82	2.11699
1674.35	2.11808
1675.87	1.30883
1677.4	1.9163
1678.93	1.32634
1680.45	1.72866
1681.98	1.68869
1683.5	1.171
1685.03	1.49815
1686.55	0.724954
1688.08	1.27273
1689.6	0.794493
1691.13	1.10427
1692.65	1.06611
1694.17	0.808408
1695.7	0.459371
1697.22	0.804745
1698.74	0.94849
1700.27	0.744852
1701.79	0.413264
1703.31	0.865165
1704.83	0.896971
1706.35	0.964614
1707.87	0.213806
1709.39	0.390492
1710.91	0.276603
1712.43	0.489441
1713.95	0.412203
1715.47	0.117919
1716.99	0.113426
1718.51	-0.0538521
1720.03	0.555513
1721.55	0.189766
1723.07	0.347975
1724.58	0.272752
1726.1	-0.0171537
1727.62	0.0904894
1729.13	0.558898
1730.65	0.379832
1732.17	0.52199
1733.68	0.130858
1735.2	0.752545
1736.72	-0.0566578
1738.23	0.478912
1739.74	-0.0982561
1741.26	0.193124
1742.77	0.0979681
1744.29	0.320152
1745.8	0.21237
1747.32	0.196349
1748.83	0.144451
1750.34	-0.0446835
1751.85	0.297072
1753.37	-0.154021
1754.88	0.0981522
1756.39	-0.100585
1757.9	-0.233661
1759.41	0.42185
1760.92	0.293762
1762.44	-0.406469
1763.95	0.217038
1765.46	-0.21343
1766.96	0.0373945
1768.47	-0.12071
1769.98	0.156599
1771.49	0.0864449
1773	0.196009
1774.51	0.133739
1776.02	-0.0664711
1777.53	-0.0781031
1779.03	-0.267825
1780.54	0.188926
1782.05	0.0865431
1783.55	-0.0152578
1785.06	-0.136491
1786.57	0.271952
1788.07	0.0928898
1789.58	0.0808544
1791.08	-0.0357304
1792.59	0.129101
1794.09	0.292659
1795.6	0.188372
1797.1	-0.0581188
1798.61	0.423251
1800.11	0.119056
1801.61	0.104947
1803.12	0.14341
1804.62	0.0978632
1806.12	-0.0705433
1807.62	0.0115271
1809.12	-0.216934
1810.63	0.0441656
1812.13	0.126572
1813.63	-0.0215292
1815.13	-0.16298
1816.63	0.160907
1818.13	0.273724
1819.63	0.169271
1821.13	-0.000637054
1822.63	-0.0235519
1824.13	0.175003
1825.63	0.386011
1827.13	0.230916
1828.62	0.184446
1830.12	0.0898123
1831.62	0.083334
1833.12	0.0462723
1834.61	0.083003
1836.11	0.294035
1837.61	-0.101268
1839.1	0.351143
1840.6	0.294728
1842.09	0.0693169
1843.59	-0.159039
1845.09	0.180468
1846.58	0.146084
1848.08	0.0718164
1849.57	0.381958
1851.06	0.0661278
1852.56	0.116003
1854.05	0.101554
1855.54	0.0785809
1857.04	0.229018
1858.53	-0.112104
1860.02	-0.13273
1861.51	0.522056
1863.01	0.0310888
1864.5	0.0408287
1865.99	0.0514088
1867.48	-0.0611725
1868.97	0.258665
1870.46	0.14481
1871.95	-0.179711
1873.44	-0.00181675
1874.93	-0.326089
1876.42	0.414263
1877.91	0.190629
1879.4	-0.46576
1880.89	-0.385725
1882.37	-0.0181999
1882.46	0.00021553
1883.95	0.0339022
1885.45	0.293356
1886.94	0.238188
1888.43	0.286993
1889.93	-0.0120878
1891.42	0.0726242
1892.91	-0.136786
1894.41	-0.0836401
1895.9	0.179637
1897.39	0.565587
1898.88	0.342802
1900.37	0.397326
1901.86	0.0153589
1903.36	-0.0203571
1904.85	-0.439889
1906.34	0.113201
1907.83	0.0925856
1909.32	-0.0316019
1910.81	0.070756
1912.29	0.0177956
1913.78	0.277598
1915.27	-0.173553
1916.76	0.103322
1918.25	0.448869
1919.74	0.0313683
1921.23	-0.178123
1922.71	0.270873
1924.2	0.218423
1925.69	0.201709
1927.17	0.220661
1928.66	0.0844402
1930.15	0.207932
1931.63	0.0189791
1933.12	0.0537806
1934.6	0.13881
1936.09	0.464354
1937.57	0.200426
1939.06	-0.288276
1940.54	0.156357
1942.02	0.169803
1943.51	0.0117445
1944.99	0.389223
1946.47	0.0772877
1947.96	0.627028
1949.44	0.038662
1950.92	0.207472
1952.4	0.306347
1953.88	0.301332
1955.37	0.485235
1956.85	-0.0520048
1958.33	0.201544
1959.81	-0.00763988
1961.29	0.143989
1962.77	0.261419
1964.25	0.344316
1965.73	-0.121351
1967.21	0.0632057
1968.69	0.657423
1970.16	0.156289
1971.64	0.509628
1973.12	0.418601
1974.6	0.19134
1976.08	0.322497
1977.55	-0.159539
1979.03	0.108108
1980.51	0.307332
1981.98	0.0301514
1983.46	0.21172
1984.94	0.0192614
1986.41	0.149101
1987.89	-0.128028
1989.36	-0.167377
1990.84	0.589327
1992.31	0.297383
1993.79	-0.0608969
1995.26	-0.113912
1996.73	0.171414
1998.21	0.13566
1999.68	0.234585
2001.15	0.569093
2002.63	0.363043
2004.1	0.0221691
2005.57	-0.233821
2007.04	-0.118368
2008.51	0.351497
2009.99	-0.0534582
2011.46	0.0472279
2012.93	-0.0203543
2014.4	-0.0378122
2015.87	0.381451
2017.34	0.143651
2018.81	0.0060997
2020.28	0.0193663
2021.75	0.0324593
2023.21	0.14654
2024.68	-0.527346
2026.15	0.192512
2027.62	0.19226
2029.09	0.0592651
2030.56	0.112055
2032.02	-0.0859041
2033.49	0.45512
2034.96	0.308014
2036.42	-0.108327
2037.89	0.129911
2039.36	0.317458
2040.82	0.286475
2042.29	-0.0972662
2043.75	-0.295535
2045.22	-0.156598
2046.68	0.8923
2048.14	0.376086
2049.61	0.263518
2051.07	0.015007
2052.54	0.0347281
2054	0.153938
2055.46	0.0353765
2056.93	0.21898
2058.39	0.165743
2059.85	0.263956
2061.31	-0.243694
2062.77	0.108194
2064.23	0.141107
2065.7	0.208631
2067.16	0.276975
2068.62	-0.0411949
2070.08	0.0448656
2071.54	0.366714
2073	0.789536
2074.46	-0.0844212
2075.92	0.236821
2077.38	0.338811
2078.83	0.322534
2080.29	0.39001
2081.75	0.187548
2083.21	0.506339
2084.67	0.268911
2086.12	0.333714
2087.58	-0.0729485
2089.04	0.159001
2090.49	0.00417137
2091.95	0.453826
2093.41	0.51699
2094.86	0.563068
2096.32	0.239875
2097.77	0.217946
2099.23	0.379535
2100.68	0.373306
2102.14	0.133328
2103.59	-0.105542
2105.05	0.257886
2106.5	0.271972
2107.95	0.170339
2109.41	-0.0642805
2110.86	0.20087
2112.31	0.414612
2113.76	0.22681
2115.21	-0.0954027
2116.67	0.646059
2118.12	0.439685
2119.57	0.517066
2121.02	0.496675
2122.47	0.627466
2123.92	0.212445
2125.37	0.0634727
2126.82	0.511195
2128.27	0.195329
2129.72	0.491467
2131.17	0.487965
2132.62	0.384347
2134.07	0.0822639
2135.51	0.541801
2136.96	0.820517
2138.41	1.11744
2139.86	0.656043
2141.31	0.857359
2142.75	0.712735
2144.2	0.601749
2145.65	0.672881
2147.09	0.826585
2148.54	1.01292
2149.98	0.817473
2151.43	0.852942
2152.87	1.03656
2154.32	1.07023
2155.76	1.02057
2157.21	1.08693
2158.65	1.12084
2160.1	0.874423
2161.54	0.845038
2162.98	1.16559
2164.43	1.1231
2165.87	1.28065
2167.31	0.740619
2168.75	1.1631
2170.2	1.01879
2171.64	0.922221
2173.08	1.13978
2174.52	0.973335
2175.96	1.03915
2177.4	1.10511
2178.84	1.03878
2180.28	0.990053
2181.72	0.809179
2183.16	0.312889
2184.6	1.23048
2186.04	1.03389
2187.48	0.853899
2188.92	1.13986
2190.36	1.22618
2191.79	1.29563
2193.23	0.931471
2194.67	0.965598
2196.11	1.04788
2197.54	0.712169
2198.98	0.807451
2200.42	0.9514
2201.85	1.16135
2203.29	0.741154
2204.72	0.869736
2206.16	0.850053
2207.59	1.14572
2209.03	0.430837
2210.46	0.361423
2211.9	0.60543
2213.33	0.286368
2214.77	0.661357
2216.2	0.475143
2217.63	0.686172
2219.07	0.700317
2220.5	0.550466
2221.93	0.895305
2223.36	0.464917
2224.8	0.280611
2226.23	0.983513
2227.66	0.417674
2229.09	0.0651646
2230.52	0.155616
2231.95	0.311193
2233.39	0.728564
2234.81	0.246406
2236.25	0.321736
2237.67	0.349463
2239.1	0.183149
2240.53	0.247217
2241.96	0.329292
2243.39	-0.272454
2244.82	0.316833
2246.25	0.0737123
2247.68	0.253233
2249.1	0.0882988
2250.53	-0.0459461
2251.96	0.127644
2253.38	0.446457
2254.81	0.196251
2256.24	0.126367
2257.66	0.253462
2259.09	0.0100174
2260.51	0.174934
2261.94	0.277334
2263.36	0.30019
2264.79	0.697209
2266.21	0.639084
2267.64	-0.086854
2269.06	0.129637
2270.49	-0.110294
2271.91	0.039959
2273.33	0.271535
2274.76	-0.180883
2276.18	0.246534
2277.6	0.0713196
2279.02	0.205827
2280.44	0.37297
2281.87	-0.487482
2283.29	0.168817
2284.71	-0.398418
2286.13	0.340071
2287.55	0.0180292
2288.97	0.431191
2290.39	0.207813
2291.81	0.0499115
2293.23	-0.173419
2294.65	0.142967
2296.07	0.00124168
2297.49	0.0722237
2298.91	-0.184334
2300.33	-0.0148211
2301.74	0.220703
2303.16	-0.0518351
2304.58	0.561872
2306	0.0429831
2307.41	0.164067
2308.83	0.531322
2310.25	0.437862
2311.66	0.640018
2313.08	0.249909
2314.5	0.254943
2315.91	0.194807
2317.33	0.316587
2318.74	0.340051
2320.16	-0.0489798
2321.57	0.138146
2322.98	0.191615
2324.4	0.68848
2325.81	0.440478
2327.23	0.55378
2328.64	0.2871
2330.05	0.136166
2331.46	0.150841
2332.88	0.0513496
2334.29	-0.0637112
2335.7	-0.063302
2337.11	0.282098
2338.52	0.0016346
2339.94	-0.000306129
2341.35	0.1775
2342.76	0.02635
2344.17	-0.0918417
2345.58	0.16732
2346.99	0.279022
2348.4	-0.100452
2349.81	-0.0217323
2351.22	-0.0255623
2352.62	0.00237274
2354.03	-0.411201
2355.44	-0.0421524
2356.85	0.130392
2358.26	0.188672
2359.67	-0.289252
2361.07	0.12663
2362.48	0.00657463
2363.89	0.22681
2365.29	-0.0388565
2366.7	-0.126009
2368.11	-0.018693
2369.51	0.073247
2370.92	0.0373163
2372.32	-0.255075
2373.73	0.307245
2375.13	0.3222
2376.54	0.0472059
2377.94	0.334321
2379.35	-0.0392265
2380.75	0.00368595
2382.15	0.0291376
2383.56	0.0216198
2384.96	-0.114107
2386.36	-0.025466
2387.76	0.0637875
2389.17	-0.117078
2390.57	0.101833
2391.97	0.178253
2393.37	0.128264
2394.77	0.238177
2396.17	0.0307226
2397.58	0.28492
2398.98	0.317093
2400.38	-0.0474119
2401.78	0.0173731
2403.18	-0.203667
2404.58	-0.123262
2405.97	-0.440501
2407.37	0.209564
2408.77	0.208043
2410.17	0.0318155
2411.57	0.0460711
2412.97	0.0135469
2414.37	-0.0652704
2415.76	-0.126865
2417.16	0.161081
2418.56	-0.468392
2419.95	0.470148
2421.35	-0.0958624
2422.75	0.00300694
2424.14	-0.0251131
2425.54	-0.116587
2426.93	0.220295
2428.33	-0.107697
2429.72	0.29451
2431.12	0.142418
2432.51	0.387214
2433.91	0.250601
2435.3	0.224048
2436.7	0.51384
2438.09	-0.087575
2439.48	0.310682
2440.88	0.231436
2442.27	0.0247068
2443.66	0.262165
2445.05	-0.00831318
2446.44	0.0542412
2447.84	0.259241
2449.23	0.416517
2450.62	0.114694
2452.01	0.161811
2453.4	0.035574
2454.79	0.226612
2456.18	-0.151203
2457.57	-0.101561
2458.96	0.295921
2460.35	-0.0663128
2461.74	-0.30266
2463.13	-0.176065
2464.52	0.171085
2465.91	0.28076
2467.29	0.011384
2468.68	-0.0526819
2470.07	-0.195723
2471.46	0.259965
2472.85	0.0528526
2474.23	0.412019
2475.62	0.235179
2477.01	0.294013
2478.39	-0.0870552
2479.78	0.019104
2481.16	0.250697
2482.55	0.199855
2483.93	-0.117466
2485.32	0.284433
2486.7	0.121994
2488.09	-0.11915
2489.47	-0.142221
2490.86	0.51946
2492.24	0.387128
2493.62	0.225076
2495.01	-0.292154
2496.39	0.0916939
2497.77	0.289913
2499.15	0.116656
2500.54	-0.025712
2501.92	-0.0140209
2503.3	-0.203989
2504.68	0.268881
2506.06	-0.0302906
2507.45	0.163475
2508.83	0.67977
2510.21	-0.0332737
2511.59	-0.330016
2512.97	0.094964
2514.35	-0.000733376
2515.73	0.287182
2517.11	0.101269
2518.48	-0.175642
2519.86	0.250852
2521.24	0.0657415
2522.62	-0.257128
2524	-0.26001
2525.38	-0.141619
2526.75	0.265651
2528.13	0.20092
2529.51	0.319774
2530.89	-0.12236
2532.26	-0.0156031
2533.64	0.274715
2535.02	-0.193917
2536.39	-0.145995
2537.77	0.205156
2539.14	0.251547
2540.52	-0.0369148
2541.89	0.281553
2543.27	-0.113072
2544.64	0.00902748
2546.01	0.283896
2547.39	0.241396
2548.76	0.214885
2550.14	0.400927
2551.51	0.161654
2552.88	0.270548
2554.25	0.0749321
2555.63	-0.0152798
2557	-0.288
2558.37	0.394588
2559.74	0.0310431
2561.11	0.0925341
2562.49	0.245534
2563.86	-0.131313
2565.23	0.325731
2566.6	0.0253153
2567.97	0.209925
2569.34	0.485501
2570.71	0.154829
2572.08	0.551721
2573.45	-0.0820432
2574.82	0.178614
2576.18	-0.000322819
2577.55	0.230027
2578.92	0.202421
2580.29	0.113833
2581.66	-0.00546885
2583.02	0.435867
2584.39	0.4524
2585.76	0.347602
2587.13	0.273244
2588.49	-0.0737205
2589.86	0.140195
2591.22	-0.191554
2592.59	-0.326673
2593.96	0.173781
2595.32	0.0218267
2596.69	0.202025
2598.05	-0.0120702
2599.42	-0.180939
2600.78	0.0433359
2602.14	-0.124852
2603.51	0.28137
2604.87	0.114387
2606.23	-0.157863
2607.6	0.685655
2608.96	-0.0549145
2610.32	-0.268593
2611.69	-0.121952
2613.05	-0.157088
2614.41	0.227728
2615.77	0.146285
2617.13	0.110179
2618.49	0.0147824
2619.86	-0.139576
2621.22	0.439676
2622.58	-0.117014
2623.94	0.118697
2625.3	0.0257554
2626.66	-0.141855
2628.02	0.52495
2629.37	0.0736895
2630.73	0.426359
2632.09	-0.158245
2633.45	0.268153
2634.81	0.293084
2636.17	0.3476
2637.53	0.0760021
2638.88	0.145433
2640.24	0.155713
2641.6	0.28448
2642.96	0.0292201
2644.31	-0.122176
2645.67	0.301939
2647.02	0.0911641
2648.38	-0.075736
2649.74	0.154238
2651.09	0.294894
2652.45	0.0971465
2653.8	-0.0266628
2655.16	-0.252177
2656.51	0.622151
2657.86	-0.0258617
2659.22	0.103076
2660.57	0.129935
2661.93	-0.0187249
2663.28	-0.00709724
2664.63	0.0621486
2665.98	-0.146554
2667.34	-0.544849
2668.69	0.411655
2670.04	0.479292
2671.39	0.169294
2672.75	-0.125155
2674.09	0.365523
2675.45	0.507867
2676.8	0.099308
2678.15	0.213803
2679.5	0.256508
2680.85	0.111701
2682.2	0.475468
2683.55	0.0429215
2684.9	0.495885
2686.25	-0.167639
2687.6	0.373006
2688.94	0.390186
2690.29	0.333157
2691.64	0.18728
2692.99	0.388222
2694.34	0.225474
2695.68	-0.19819
2697.03	-0.0414672
2698.38	0.130766
2699.73	0.333445
2701.07	0.407471
2702.42	0.16433
2703.76	0.0669374
2705.11	-0.0735288
2706.45	0.250059
2707.8	0.327018
2709.15	0.418168
2710.49	0.436389
2711.83	-0.213865
2713.18	0.0507817
2714.52	0.242843
2715.87	0.391336
2717.21	0.597957
2718.55	0.222524
2719.9	0.384946
2721.24	0.34324
2722.58	0.606705
2723.93	0.491285
2725.27	0.302644
2726.61	0.259189
2727.95	0.681149
2729.29	0.142325
2730.63	0.112745
2731.98	0.534136
2733.32	-0.00460243
2734.66	0.387842
2736	0.329529
2737.34	-0.426755
2738.68	0.0531878
2740.02	0.00932884
2741.36	0.0668259
2742.7	0.458055
2744.03	0.470541
2745.37	0.409755
2746.71	0.130754
2748.05	0.17113
2749.39	-0.00613928
2750.72	-0.0670648
2752.06	0.133243
2753.4	0.31913
2754.74	-0.0889697
2756.07	0.0102391
2757.41	0.413604
2758.75	0.339273
2760.08	0.149554
2761.42	0.423422
2762.76	0.205717
2764.09	0.306668
2765.42	0.0748358
2766.76	0.580447
2768.09	0.405188
2769.43	0.185401
2770.76	0.166735
2772.1	0.0745749
2773.43	0.29901
2774.76	0.291828
2776.1	0.443029
2777.43	0.133762
2778.76	0.0699835
2780.1	0.150491
2781.43	0.302999
2782.76	0.0535426
2784.09	0.0481725
2785.42	-0.000227451
2786.75	0.238049
2788.09	-0.339455
2789.42	0.500816
2790.75	-0.160513
2792.08	-0.434632
2793.41	0.0208559
2794.74	0.147474
2796.07	0.173703
2797.4	-0.0148678
2798.73	0.310181
2800.06	-0.350245
2801.39	0.00251532
2802.71	0.055326
2804.04	0.0650835
2805.37	-0.0110383
2806.7	-0.116105
2808.03	0.304638
2809.35	0.411648
2810.68	0.19185
2812.01	0.0012989
2813.33	-0.159614
2814.66	-0.021328
2815.99	-0.122755
2817.31	-0.13807
2818.64	-0.124481
2819.96	0.47025
2821.29	0.270838
2822.61	0.325895
2823.94	0.337811
2825.26	0.250204
2826.59	-0.00727272
2827.91	0.443745
2829.23	0.0457573
2830.56	-0.0119829
2831.88	0.199439
2833.21	0.226782
2834.53	0.352907
2835.85	0.39363
2837.17	0.363073
2838.5	0.275524
2839.82	0.371655
2841.14	0.934372
2842.46	0.705644
2843.78	1.09946
2845.1	0.999283
2846.42	0.927979
2847.74	1.52128
2849.06	1.18184
2850.38	1.32266
2851.71	1.23686
2853.03	1.81481
2854.34	1.51611
2855.66	1.58465
2856.98	1.7944
2858.3	1.36853
2859.62	1.63477
2860.94	2.16905
2862.26	1.884
2863.57	2.41732
2864.89	2.44212
2866.21	2.83362
2867.53	3.09825
2868.84	2.71462
2870.16	2.98006
2871.48	2.89321
2872.79	2.93296
2874.11	3.66236
2875.42	3.4183
2876.74	3.37036
2878.05	2.92758
2879.37	2.87873
2880.68	2.88645
2882	3.37264
2883.31	3.22753
2884.63	3.20988
2885.94	3.08057
2887.26	3.20405
2888.57	2.94819
2889.88	3.74375
2891.19	3.38805
2892.51	3.20018
2893.82	3.53062
2895.13	3.53905
2896.44	3.29633
2897.76	3.39068
2899.07	3.65394
2900.38	3.88998
2901.69	3.83273
2903	4.25131
2904.31	3.95664
2905.62	4.03993
2906.93	4.48746
2908.24	4.62816
2909.55	4.64389
2910.86	4.67424
2912.17	4.70463
2913.48	5.29425
2914.79	5.32246
2916.1	5.37678
2917.41	5.82122
2918.71	5.80253
2920.02	5.90951
2921.33	6.19889
2922.64	5.91637
2923.94	6.26449
2925.25	6.65583
2926.56	5.92963
2927.86	6.55947
2929.17	6.79751
2930.48	6.7693
2931.78	6.74053
2933.09	6.37598
2934.39	6.78018
2935.7	6.08037
2937	6.40099
2938.31	6.16283
2939.61	5.88307
2940.92	5.92526
2942.22	6.2199
2943.53	5.76122
2944.83	5.70926
2946.13	4.51177
2947.43	5.23079
2948.74	4.92842
2950.04	4.45671
2951.34	4.79517
2952.64	4.92166
2953.95	4.31857
2955.25	4.7231
2956.55	4.68049
2957.85	4.77996
2959.15	4.3503
2960.45	4.31544
2961.75	4.47898
2963.05	3.98433
2964.35	4.30274
2965.65	3.95986
2966.95	3.98031
2968.25	3.57761
2969.55	3.28639
2970.85	3.33244
2972.15	3.60392
2973.45	3.43968
2974.75	3.27537
2976.05	3.42014
2977.34	3.11307
2978.64	2.9169
2979.94	3.1554
2981.24	3.12499
2982.53	2.74234
2983.83	2.51497
2985.13	2.47156
2986.42	2.57022
2987.72	2.72661
2989.01	2.25174
2990.31	2.14252
2991.61	2.0188
2992.9	1.54272
2994.19	1.52923
2995.49	1.2899
2996.78	1.55548
2998.08	0.96456
2999.37	1.14589
3000.67	1.25748
3001.96	1.06122
3003.25	0.515203
3004.55	0.76813
3005.84	0.796622
3007.13	0.670557
3008.42	0.795676
3009.72	0.318551
3011.01	0.330422
3012.3	0.509418
3013.59	0.674178
3014.88	0.365119
3016.17	0.475103
3017.46	0.279398
3018.76	0.140105
3020.05	0.515662
3021.34	0.237149
3022.63	0.43047
3023.92	0.400518
3025.21	0.231239
3026.49	0.394485
3027.78	0.128899
3029.07	0.169008
3030.36	0.265767
3031.65	0.11529
3032.94	-0.103026
3034.23	0.162201
3035.51	0.619937
3036.8	0.496906
3038.09	0.372317
3039.38	0.37
3040.66	0.421133
3041.95	0.388862
3043.23	0.301783
3044.52	0.448462
3045.81	0.363973
3047.09	0.158854
3048.38	0.70723
3049.66	0.192752
3050.95	0.321497
3052.23	0.300991
3053.52	0.662626
3054.8	0.491548
3056.09	0.455945
3057.37	0.460224
3058.65	0.450109
3059.94	0.398902
3061.22	0.497815
3062.5	0.679205
3063.79	0.45396
3065.07	0.774179
3066.35	0.497667
3067.63	0.602899
3068.92	0.0966735
3070.2	0.324571
3071.48	-0.019485
3072.76	0.573752
3074.04	0.0507832
3075.32	0.356225
3076.6	0.0906835
3077.88	-0.065589
3079.16	0.349167
3080.44	-0.197947
3081.72	0.0297523
3083	0.218048
3084.28	-0.31201
3085.56	0.0536032
3086.84	-0.083221
3088.12	0.118682
3089.4	0.0349565
3090.67	0.00515079
3091.95	0.0159736
3093.23	0.162628
3094.51	0.106158
3095.78	-0.0448642
3097.06	-0.304117
3098.34	0.10087
3099.61	-0.131232
3100.89	-0.0516553
3102.17	0.204049
3103.44	-0.122225
3104.72	0.256052
3105.99	-0.244719
3107.27	0.311065
3108.54	0.0423803
3109.82	0.031888
3111.09	-0.0723891
3112.37	0.162688
3113.64	0.0461326
3114.92	-0.0568752
3116.19	-0.0382333
3117.46	-0.115225
3118.74	0.200245
3120.01	-0.0684271
3121.28	0.407919
3122.55	0.0838614
3123.83	0.193442
3125.1	0.370858
3126.37	0.21029
3127.64	0.375174
3128.91	0.188891
3130.19	-0.0238738
3131.46	0.277328
3132.73	0.145941
3134	0.392615
3135.27	0.112184
3136.54	0.614146
3137.81	0.306141
3139.08	0.523732
3140.35	0.283267
3141.62	0.35266
3142.89	0.408895
3144.16	0.868366
3145.42	0.643626
3146.69	0.580865
3147.96	0.746696
3149.23	0.658595
