200.523	-0.136661
202.339	-0.14124
204.154	-0.144722
205.967	0.339285
207.781	0.483063
209.596	0.626605
211.409	0.526534
213.222	0.741337
215.034	0.688437
216.848	0.586962
218.659	1.11569
220.47	1.1847
222.281	0.432362
224.091	0.842349
225.903	0.551933
227.713	-0.00361252
229.522	0.696866
231.331	1.08278
233.14	0.0450878
234.948	0.359229
236.756	0.0959778
238.566	-0.309766
240.373	-0.158854
242.18	0.187105
243.986	0.365837
245.792	0.882822
247.598	0.336768
249.403	0.464539
251.208	0.37259
253.013	0.109657
254.818	0.569427
256.624	0.305346
258.427	0.0183811
260.231	0.552361
262.034	0.413562
263.836	0.204163
265.638	0.429553
267.44	0.0530291
269.242	0.37537
271.043	0.166933
272.844	0.825679
274.645	0.229671
276.445	0.741448
278.245	0.0948477
280.044	0.0253248
281.843	0.724527
283.642	0.122602
285.44	0.145368
287.238	0.23962
289.036	-0.0257626
290.833	0.189255
292.63	0.524889
294.425	0.120115
296.221	0.577921
298.017	0.773591
299.813	0.109658
301.608	0.0193653
303.403	0.000198364
305.198	0.266523
306.992	0.364981
308.786	0.487142
310.579	0.681327
312.371	-0.171324
314.163	0.240078
315.956	0.319814
317.748	0.0202532
319.54	0.246122
321.331	0.68786
323.122	-0.514593
324.911	0.668283
326.701	0.253097
328.491	0.36296
330.281	-0.0773487
332.071	0.00720119
333.857	0.162251
335.646	0.818196
337.434	0.323634
339.222	0.425568
341.008	0.932714
342.795	0.148044
344.582	0.511016
346.369	0.611555
348.153	0.426255
349.939	0.551966
351.724	0.55842
353.51	-0.032073
355.292	-0.145959
357.077	0.216093
358.861	-0.019021
360.643	-0.0404158
362.426	0.15169
364.21	0.342933
365.99	-0.34566
367.773	0.0581751
369.555	0.0100737
371.335	0.103525
373.116	-0.158631
374.897	0.193987
376.676	0.616767
378.456	0.355411
380.236	0.401728
382.014	0.472646
383.793	0.591758
385.57	0.124311
387.349	0.151925
389.127	-0.242251
390.903	-0.024703
392.681	0.00569725
394.456	0.154107
396.233	0.420357
398.007	-0.182212
399.784	-0.103784
401.56	-0.284024
403.333	0.545224
405.108	-0.0118723
406.881	1.12129
408.656	0.211024
410.428	0.380641
412.202	0.573766
413.973	-0.47635
415.746	0.234145
417.517	-0.55633
419.29	0.13208
421.06	-0.141368
422.831	0.148328
424.601	0.202754
426.37	0.514672
428.141	0.02773
429.909	-0.0135174
431.679	0.0391684
433.447	0.561553
435.216	0.333269
436.983	0.316228
438.75	-0.0769005
440.519	0.678622
442.285	0.822044
444.052	0.447616
445.818	-0.185614
447.583	0.35142
449.349	0.255808
451.114	-0.283381
452.878	0.439178
454.643	0.181183
456.407	-0.798872
458.169	-0.00761318
459.934	0.503276
461.696	-0.0788174
463.458	-0.496147
465.222	0.482953
466.983	-0.371228
468.744	0.0781603
470.507	-0.0983591
472.267	0.772591
474.027	0.0606213
475.787	0.837149
477.548	0.493937
479.307	0.638227
481.065	-0.173324
482.823	0.948512
484.583	-0.23435
486.341	0.401224
488.098	-0.149557
489.855	1.07345
491.612	0.31507
493.37	0.327052
495.126	0.12875
496.881	0.281149
498.636	0.714764
500.391	0.914232
502.148	0.315434
503.902	1.12424
505.656	0.217285
507.409	-0.0804892
509.162	0.114211
510.915	0.378248
512.668	0.570374
514.42	0.478805
516.174	0.738919
517.925	0.292302
519.676	0.174247
521.427	0.877998
523.178	0.547357
524.928	0.00565052
526.678	0.191715
528.427	0.307274
530.176	0.446054
531.925	0.326694
533.673	0.745113
535.422	0.226328
537.169	0.571805
538.917	0.635237
540.664	0.137824
542.411	-0.126208
544.157	-0.459704
545.903	0.299623
547.649	0.87164
549.395	0.213987
551.14	0.252664
552.884	0.0369892
554.629	-0.0856361
556.373	-4.1008e-005
558.117	0.224071
559.86	0.379081
561.603	-0.156242
563.346	0.41382
565.089	0.31701
566.831	0.657328
568.573	0.286302
570.314	0.536157
572.053	0.328258
573.794	0.305396
575.534	0.192322
577.274	0.241275
579.014	0.520961
580.754	0.388147
582.493	0.301234
584.23	0.32869
585.968	0.102284
587.706	0.495776
589.444	-0.0779715
591.181	0.198702
592.919	0.198837
594.653	0.935063
596.39	-0.192255
598.126	0.106821
599.862	0.382557
601.595	0.105426
603.33	0.011281
605.065	0.260787
606.8	0.141303
608.532	0.572389
610.266	0.222547
611.999	0.0799522
613.732	0.603047
615.463	0.186654
617.196	-0.023118
618.928	0.11033
620.66	0.654733
622.389	-0.312366
624.12	0.595555
625.851	0.108788
627.58	-0.0339909
629.31	0.0988455
631.04	-0.154303
632.767	-0.337327
634.497	-0.0402861
636.223	0.393508
637.952	0.0268784
639.68	1.02731
641.406	0.13109
643.134	0.0772352
644.861	-0.114169
646.586	-0.122965
648.312	-0.0847454
650.037	0.024189
651.762	0.204433
653.486	0.456241
655.211	0.210753
656.936	0.285536
658.659	0.33844
660.383	0.893066
662.105	0.373842
663.829	0.948785
665.55	0.721889
667.273	0.538871
668.994	0.858298
670.716	0.40074
672.436	0.745552
674.158	0.52036
675.877	1.00722
677.598	0.119409
679.317	0.539076
681.035	0.544851
682.755	0.318986
684.473	0.850648
686.192	0.321692
687.909	0.689363
689.628	0.434234
691.344	0.639133
693.06	0.567047
694.778	0.816732
696.493	0.673977
698.211	0.645321
699.925	0.316449
701.64	0.630831
703.356	0.277493
705.07	0.681916
706.783	0.741039
708.498	0.180536
710.211	0.376706
711.924	0.98428
713.638	0.424007
715.35	0.847173
717.061	1.06404
718.774	1.32619
720.485	0.6992
722.196	0.43775
723.906	1.22334
725.618	0.43893
727.328	0.586823
729.037	1.21059
730.746	0.608598
732.456	1.02654
734.165	1.30772
735.873	0.616518
737.58	0.649514
739.289	1.35977
740.997	1.39349
742.703	1.54088
744.41	1.66682
746.116	1.3439
747.823	1.3374
749.529	1.3546
751.234	1.86778
752.938	1.37
754.643	1.52576
756.347	1.32287
758.051	1.0086
759.756	1.59645
761.459	1.41951
763.162	1.87454
764.865	1.78802
766.567	1.29359
768.269	1.81421
769.97	1.54175
771.671	1.51608
773.372	1.82832
775.073	1.46177
776.773	1.97753
778.473	1.884
780.174	1.40735
781.874	1.61013
783.573	1.40576
785.271	1.49452
786.97	1.51325
788.668	2.1628
790.365	2.22061
792.063	1.25875
793.76	1.20032
795.456	1.72824
797.153	2.00812
798.847	1.5459
800.543	1.62606
802.238	1.41492
803.933	1.72176
805.628	2.56768
807.322	1.95155
809.017	1.78408
810.71	1.324
812.404	1.088
814.097	1.77046
815.79	1.51134
817.483	1.72231
819.173	1.57541
820.865	1.65217
822.556	2.08612
824.248	2.60935
825.939	1.99687
827.629	1.81018
829.318	1.5593
831.008	1.44475
832.697	1.82277
834.387	1.64573
836.076	1.71472
837.765	1.51574
839.451	1.44947
841.139	1.64977
842.827	1.75961
844.514	1.22101
846.2	2.02388
847.886	1.75561
849.573	2.76464
851.259	2.16529
852.943	1.49939
854.629	1.5061
856.314	1.22061
857.997	1.7205
859.682	1.38713
861.366	1.74969
863.05	1.54794
864.732	1.16454
866.415	1.02805
868.098	1.02621
869.779	1.2044
871.461	1.47259
873.141	1.40226
874.823	1.01593
876.505	1.39676
878.184	1.48429
879.865	1.68458
881.545	1.16216
883.223	0.842205
884.903	0.927637
886.581	0.944128
888.26	0.959228
889.937	1.04059
891.616	0.602216
893.294	0.771335
894.97	1.07418
896.648	1.12825
898.323	1.13641
900	0.986676
901.675	0.433335
903.351	0.887741
905.026	0.849218
906.701	1.34663
908.375	1.37526
910.05	0.157573
911.723	1.14548
913.398	0.798574
915.07	1.0077
916.742	1.19427
918.415	0.782046
920.087	0.481402
921.76	1.13295
923.43	1.36446
925.103	1.13323
926.773	1.27923
928.443	1.77976
930.114	1.26609
931.783	1.04003
933.454	1.49811
935.123	0.831322
936.791	1.13546
938.461	1.57266
940.128	0.73175
941.796	0.950539
943.464	0.53012
945.131	1.16877
946.797	0.437995
948.465	1.07416
950.131	0.781572
951.797	0.907269
953.462	0.415429
955.128	0.939472
956.793	0.936651
958.457	0.495471
960.121	0.387296
961.786	0.810376
963.45	0.703383
965.113	1.41311
966.775	0.660741
968.44	0.28181
970.102	0.520625
971.763	0.824993
973.425	0.797946
975.086	0.329904
976.748	0.947039
978.409	0.614471
980.069	0.547808
981.729	0.480739
983.388	0.191092
985.048	1.0952
986.708	0.381536
988.367	0.197765
990.025	0.521707
991.683	0.270158
993.341	0.372142
994.998	0.672742
996.655	0.377439
998.312	0.942325
999.969	1.44022
1001.62	1.12233
1003.28	1.11254
1004.94	1.21241
1006.59	0.191314
1008.25	0.203853
1009.9	0.414129
1011.56	0.251696
1013.21	0.593901
1014.86	0.191335
1016.52	0.424391
1018.17	0.351321
1019.82	0.16965
1021.48	0.251342
1023.13	1.03336
1024.78	-0.0198317
1026.43	0.981799
1028.08	0.694085
1029.73	0.318493
1031.38	0.553525
1033.03	0.372221
1034.68	0.429668
1036.33	0.376852
1037.98	0.976939
1039.63	0.770642
1041.28	0.500009
1042.93	0.426515
1044.57	1.15849
1046.22	0.371299
1047.87	0.498178
1049.52	0.474438
1051.16	0.603818
1052.81	0.0170155
1054.45	0.14735
1056.1	0.647226
1057.75	0.14705
1059.39	0.276814
1061.04	0.623497
1062.68	-0.226429
1064.32	0.923293
1065.97	0.202202
1067.61	-0.258694
1069.25	0.648609
1070.9	0.403673
1072.54	0.223965
1074.18	0.500473
1075.82	0.126979
1077.47	1.22947
1079.11	1.09679
1080.75	0.4227
1082.39	0.724384
1084.03	1.11194
1085.67	0.457374
1087.31	-0.00351715
1088.95	0.595335
1090.59	0.737432
1092.22	0.294618
1093.86	0.456842
1095.5	0.446346
1097.14	0.199472
1098.78	0.298801
1100.41	0.61479
1102.05	0.114479
1103.69	0.691626
1105.32	0.237257
1106.96	0.622257
1108.59	0.813339
1110.23	0.594838
1111.86	0.546991
1113.5	0.197013
1115.13	0.447455
1116.77	0.697037
1118.4	0.646276
1120.03	1.08893
1121.67	0.397179
1123.3	1.01259
1124.93	0.708448
1126.56	0.854446
1128.19	1.00109
1129.83	0.442768
1131.46	0.67611
1133.09	0.802781
1134.72	0.288032
1136.35	0.478122
1137.98	0.261228
1139.61	0.214286
1141.24	0.486753
1142.86	0.310411
1144.49	0.0277357
1146.12	0.214922
1147.75	-0.300458
1149.38	0.250436
1151	-0.32743
1152.63	-0.287483
1154.26	0.497269
1155.88	0.0468273
1157.51	0.426307
1159.14	-0.0874119
1160.76	0.292971
1162.39	-0.0274429
1164.01	0.588552
1165.63	-0.0494747
1167.26	0.247775
1168.88	0.480261
1170.51	0.753633
1172.13	0.51516
1173.75	-0.170505
1175.38	0.0559826
1177	0.345283
1178.62	0.380141
1180.24	-0.579257
1181.86	-0.521292
1183.48	0.509622
1185.1	0.144847
1186.72	-0.114741
1188.34	0.236484
1189.96	0.205968
1191.58	0.468564
1193.2	0.22459
1194.82	0.0225611
1196.44	0.0517483
1198.06	0.437596
1199.68	0.719499
1201.29	0.522466
1202.91	-0.110296
1204.53	0.992031
1206.14	0.509899
1207.76	0.759281
1209.38	0.612498
1210.99	0.0270338
1212.61	0.795556
1214.22	0.394459
1215.84	0.741452
1217.45	1.54381
1219.07	-0.00448799
1220.68	0.671432
1222.29	0.890402
1223.91	0.488553
1225.52	0.771945
1227.13	0.31144
1228.74	0.328344
1230.36	0.532422
1231.97	0.944166
1233.58	0.488829
1235.19	0.882041
1236.8	0.883673
1238.41	0.493444
1240.02	0.496529
1241.63	0.68593
1243.24	0.295832
1244.85	0.670508
1246.46	0.382175
1248.07	0.279188
1249.67	0.796276
1251.28	0.506167
1252.89	0.85757
1254.5	0.878642
1256.1	1.14893
1257.71	0.386045
1259.32	0.575736
1260.92	0.994024
1262.53	0.729683
1264.13	0.858748
1265.74	1.00826
1267.34	0.431686
1268.95	1.13943
1270.55	0.954829
1272.15	0.955849
1273.76	0.790067
1275.36	1.24527
1276.97	1.09844
1278.57	0.78523
1280.17	0.430303
1281.77	1.17233
1283.37	0.83808
1284.97	1.00091
1286.58	0.461583
1288.18	0.440157
1289.78	0.894834
1291.38	0.626638
1292.98	0.833614
1294.58	0.440774
1296.18	1.14153
1297.78	1.28292
1299.37	1.85583
1300.97	0.900961
1302.57	2.08864
1304.17	1.11248
1305.77	1.53548
1307.36	1.50533
1308.96	1.49546
1310.55	1.50612
1312.15	1.74231
1313.75	1.05848
1315.34	1.95017
1316.94	2.4738
1318.53	1.52832
1320.13	1.52186
1321.72	1.51452
1323.32	1.79057
1324.91	1.17002
1326.5	1.42252
1328.1	1.53196
1329.69	1.92511
1331.28	1.57068
1332.87	1.19893
1334.47	1.59712
1336.06	1.91563
1337.65	1.52843
1339.24	1.50381
1340.83	1.71928
1342.42	1.73107
1344.01	0.997216
1345.6	1.58902
1347.19	1.07681
1348.78	0.667486
1350.37	1.30179
1351.96	1.53758
1353.54	1.01541
1355.13	1.43417
1356.72	1.05376
1358.31	1.0527
1359.89	1.1506
1361.48	1.26737
1363.07	0.924442
1364.65	1.45875
1366.24	1.29536
1367.82	1.63076
1369.41	1.09121
1370.99	0.274722
1372.58	0.494452
1374.16	0.914106
1375.75	1.0359
1377.33	0.978681
1378.91	0.960785
1380.5	1.10112
1382.08	1.49877
1383.66	1.21883
1385.25	1.35557
1386.83	1.07456
1388.41	0.615266
1389.99	0.315771
1391.57	0.850669
1393.15	1.16777
1394.73	0.890062
1396.31	1.18733
1397.89	1.12695
1399.47	1.26381
1401.05	1.14218
1402.63	1.69311
1404.21	1.21472
1405.78	0.816423
1407.36	0.933166
1408.94	0.635693
1410.52	1.26721
1412.1	0.733269
1413.67	0.968957
1415.25	0.730082
1416.82	0.687878
1418.4	0.665091
1419.98	0.977522
1421.55	0.916554
1423.13	1.34921
1424.7	0.700749
1426.28	0.99824
1427.85	0.725426
1429.42	1.10187
1431	1.61521
1432.57	1.26146
1434.14	1.37911
1435.71	1.67328
1437.29	1.5546
1438.86	1.43672
1440.43	1.73257
1442	1.87208
1443.57	1.22617
1445.14	1.93671
1446.71	1.19299
1448.28	1.66807
1449.85	0.904978
1451.42	1.55781
1452.99	1.66074
1454.56	1.23293
1456.13	2.1035
1457.7	1.63554
1459.26	1.57953
1460.83	1.52185
1462.4	1.73781
1463.97	1.02778
1465.54	0.907067
1467.1	1.39511
1468.67	1.33326
1470.23	0.958351
1471.8	1.46755
1473.36	0.996856
1474.93	0.625118
1476.49	0.74403
1478.06	0.627752
1479.62	0.472242
1481.19	0.728272
1482.75	0.631416
1484.31	0.456085
1485.88	0.554747
1487.44	0.515567
1489	0.573092
1490.56	0.902796
1492.13	0.428439
1493.69	0.753747
1495.25	0.413422
1496.81	0.0340147
1498.37	0.881233
1499.93	-0.27485
1501.49	0.513901
1503.05	0.526332
1504.61	-0.25481
1506.17	-0.240697
1507.73	0.333668
1509.28	0.67411
1510.84	0.54964
1512.4	-0.095602
1513.96	0.261227
1515.52	0.232903
1517.07	0.416348
1518.63	0.120692
1520.19	0.285916
1521.74	0.584896
1523.3	0.366866
1524.85	0.454045
1526.41	0.235042
1527.96	0.225222
1529.52	-0.0702362
1531.07	0.926161
1532.63	0.384542
1534.18	0.583652
1535.73	0.594089
1537.29	0.359769
1538.84	0.485154
1540.39	0.704914
1541.94	0.830142
1543.5	1.06794
1545.05	0.759861
1546.6	0.996858
1548.15	0.614058
1549.7	0.250767
1551.25	0.431372
1552.8	0.686908
1554.35	0.6999
1555.9	0.956948
1557.45	0.804704
1559	0.785036
1560.55	0.655211
1562.1	0.732071
1563.65	0.380857
1565.19	0.515192
1566.74	0.70563
1568.29	1.21319
1569.83	1.27251
1571.38	0.734139
1572.93	0.942151
1574.47	1.37405
1576.02	1.32063
1577.56	1.88348
1579.11	1.19593
1580.66	1.1437
1582.2	1.74587
1583.74	1.04146
1585.29	1.60811
1586.83	1.70827
1588.38	1.56548
1589.92	0.823571
1591.46	2.02747
1593.01	1.30303
1594.55	1.17724
1596.09	1.36995
1597.63	1.46948
1599.17	1.47598
1600.71	0.732798
1602.25	1.28434
1603.79	1.02895
1605.34	1.01689
1606.88	1.6613
1608.41	0.969572
1609.95	1.1966
1611.49	1.55287
1613.03	0.874095
1614.57	1.0582
1616.11	1.05415
1617.65	1.08804
1619.18	0.935656
1620.72	0.878422
1622.26	1.27184
1623.79	0.823428
1625.33	1.01158
1626.87	1.25508
1628.4	1.04821
1629.94	0.858906
1631.48	0.986564
1633.01	1.28181
1634.55	1.63302
1636.08	1.4809
1637.61	0.938177
1639.15	0.843861
1640.68	1.38327
1642.21	1.32553
1643.75	1.30403
1645.28	0.592915
1646.81	1.23935
1648.34	1.25282
1649.88	1.3038
1651.41	1.11441
1652.94	1.18605
1654.47	1.98175
1656	1.38744
1657.53	1.07135
1659.06	0.939963
1660.59	1.17773
1662.12	1.50635
1663.65	1.704
1665.18	1.45753
1666.71	1.24873
1668.24	1.35479
1669.76	0.835456
1671.29	0.66803
1672.82	1.05428
1674.35	1.23816
1675.87	0.924642
1677.4	0.316107
1678.93	1.21553
1680.45	0.458389
1681.98	0.105693
1683.5	0.487641
1685.03	0.502162
1686.55	0.535323
1688.08	0.605498
1689.6	0.584361
1691.13	0.54515
1692.65	0.798843
1694.17	0.924186
1695.7	0.409385
1697.22	0.625752
1698.74	0.348515
1700.27	1.05668
1701.79	0.340938
1703.31	0.35462
1704.83	0.495247
1706.35	0.453282
1707.87	0.229348
1709.39	-0.0124426
1710.91	-0.0359745
1712.43	0.158269
1713.95	0.58784
1715.47	0.129766
1716.99	0.612905
1718.51	0.119226
1720.03	0.0596733
1721.55	0.361209
1723.07	0.57265
1724.58	0.622581
1726.1	0.475615
1727.62	0.150017
1729.13	-0.0125494
1730.65	0.0942669
1732.17	-0.138594
1733.68	0.617173
1735.2	0.546183
1736.72	0.503695
1738.23	0.23889
1739.74	0.0353069
1741.26	0.556165
1742.77	0.308138
1744.29	0.101271
1745.8	0.0350237
1747.32	0.00424385
1748.83	0.165285
1750.34	-0.296697
1751.85	0.144639
1753.37	-0.226044
1754.88	0.325562
1756.39	0.193062
1757.9	-0.282087
1759.41	-0.444223
1760.92	0.289135
1762.44	-0.0113287
1763.95	0.0836916
1765.46	0.278669
1766.96	0.15124
1768.47	0.166271
1769.98	-0.0425053
1771.49	0.0690985
1773	0.347542
1774.51	-0.00719547
1776.02	0.354316
1777.53	-0.173092
1779.03	0.350762
1780.54	0.46813
1782.05	-0.228069
1783.55	-0.147525
1785.06	-0.0465908
1786.57	-0.0373907
1788.07	0.086771
1789.58	-0.0758915
1791.08	0.112734
1792.59	0.188951
1794.09	0.0987053
1795.6	0.165938
1797.1	0.168535
1798.61	0.0063448
1800.11	0.0184526
1801.61	-0.0298615
1803.12	-0.18828
1804.62	-0.0672245
1806.12	-0.199778
1807.62	-0.0103979
1809.12	0.109599
1810.63	0.0652504
1812.13	0.178244
1813.63	0.145631
1815.13	-0.0758257
1816.63	0.0431786
1818.13	0.159486
1819.63	0.120337
1821.13	0.0970945
1822.63	-0.167407
1824.13	0.0221891
1825.63	0.142502
1827.13	0.146432
1828.62	0.0120525
1830.12	-0.198594
1831.62	-0.19205
1833.12	-0.0791025
1834.61	0.121764
1836.11	0.0845509
1837.61	-0.221745
1839.1	0.08006
1840.6	-0.094861
1842.09	-0.129908
1843.59	0.196892
1845.09	0.325405
1846.58	0.198353
1848.08	-0.327005
1849.57	-0.170065
1851.06	0.237715
1852.56	0.0186815
1854.05	0.248706
1855.54	0.0755529
1857.04	0.192535
1858.53	-0.0595484
1860.02	0.285418
1861.51	-0.365459
1863.01	0.29437
1864.5	0.0651712
1865.99	0.494202
1867.48	0.397532
1868.97	-0.036974
1870.46	-0.021534
1871.95	-0.249458
1873.44	0.421469
1874.93	0.11895
1876.42	-0.207831
1877.91	0.235614
1879.4	0.156512
1880.89	0.230071
1882.37	0.0592632
1882.46	0.0480509
1883.95	0.412871
1885.45	0.358498
1886.94	-0.288827
1888.43	-0.0133057
1889.93	0.314245
1891.42	0.433653
1892.91	0.0502224
1894.41	0.172702
1895.9	-0.172879
1897.39	-0.048254
1898.88	0.250327
1900.37	0.200187
1901.86	0.0442362
1903.36	-0.113213
1904.85	-0.184897
1906.34	0.350896
1907.83	-0.173222
1909.32	0.119481
1910.81	-0.107771
1912.29	0.0301876
1913.78	0.0125074
1915.27	0.0816412
1916.76	-0.144258
1918.25	0.0454664
1919.74	0.511908
1921.23	0.198496
1922.71	0.0587816
1924.2	-0.0627937
1925.69	-0.321849
1927.17	0.147121
1928.66	0.0453997
1930.15	-0.142927
1931.63	0.360752
1933.12	0.707264
1934.6	0.117229
1936.09	0.391242
1937.57	0.335317
1939.06	0.00254917
1940.54	0.20575
1942.02	-0.125548
1943.51	0.0791512
1944.99	0.112025
1946.47	0.317631
1947.96	0.764195
1949.44	0.0555592
1950.92	0.000983238
1952.4	0.375841
1953.88	0.491741
1955.37	0.126232
1956.85	-0.0667324
1958.33	0.0672226
1959.81	0.201684
1961.29	-0.177892
1962.77	0.162931
1964.25	-0.0449343
1965.73	0.34634
1967.21	0.188895
1968.69	0.11657
1970.16	-0.127116
1971.64	0.0734081
1973.12	0.324789
1974.6	0.0642033
1976.08	0.0427618
1977.55	-0.216953
1979.03	0.272718
1980.51	0.302442
1981.98	0.348972
1983.46	-0.114417
1984.94	0.169431
1986.41	-0.0561972
1987.89	0.108294
1989.36	-0.184441
1990.84	0.183806
1992.31	0.0788412
1993.79	0.110117
1995.26	0.158997
1996.73	0.00552177
1998.21	0.426351
1999.68	-0.0313721
2001.15	0.202633
2002.63	-0.0362949
2004.1	-0.0222473
2005.57	0.0426149
2007.04	0.27649
2008.51	0.359502
2009.99	-0.112309
2011.46	0.00566959
2012.93	0.224672
2014.4	-0.246706
2015.87	0.0553923
2017.34	0.255615
2018.81	0.421315
2020.28	0.166288
2021.75	-0.189385
2023.21	0.0430555
2024.68	-0.0260572
2026.15	-0.0270195
2027.62	0.459643
2029.09	0.243176
2030.56	0.212398
2032.02	0.148917
2033.49	0.253722
2034.96	0.0395384
2036.42	0.732018
2037.89	0.281801
2039.36	0.234374
2040.82	0.388579
2042.29	-0.230268
2043.75	0.109866
2045.22	0.0976772
2046.68	-0.0485306
2048.14	0.394955
2049.61	0.451021
2051.07	0.16904
2052.54	0.00358963
2054	0.12325
2055.46	0.0727415
2056.93	0.0547605
2058.39	0.0192261
2059.85	0.0340881
2061.31	0.284998
2062.77	-0.170522
2064.23	-0.15375
2065.7	0.149957
2067.16	0.656355
2068.62	0.288177
2070.08	0.0548768
2071.54	0.191957
2073	0.0427213
2074.46	0.162655
2075.92	-0.0376377
2077.38	-0.187735
2078.83	0.116518
2080.29	0.218284
2081.75	-0.000341892
2083.21	0.336025
2084.67	0.0489326
2086.12	0.11465
2087.58	0.0620718
2089.04	0.51336
2090.49	0.12413
2091.95	0.0710149
2093.41	0.336705
2094.86	0.115541
2096.32	0.464067
2097.77	-0.143139
2099.23	0.120282
2100.68	0.0987115
2102.14	0.16089
2103.59	0.106786
2105.05	0.421024
2106.5	0.118942
2107.95	0.418434
2109.41	0.334594
2110.86	-0.0497017
2112.31	-0.00156784
2113.76	-0.271322
2115.21	-0.0428348
2116.67	0.367357
2118.12	0.0295935
2119.57	-0.107362
2121.02	0.122414
2122.47	0.2044
2123.92	0.00572681
2125.37	0.30512
2126.82	0.222945
2128.27	-0.539664
2129.72	0.205007
2131.17	0.302001
2132.62	-0.297041
2134.07	-0.0351996
2135.51	-0.169854
2136.96	-0.137938
2138.41	-0.0880213
2139.86	0.128709
2141.31	0.049334
2142.75	0.202424
2144.2	0.00879812
2145.65	-0.00280333
2147.09	-0.196766
2148.54	-0.0435529
2149.98	0.125619
2151.43	0.211196
2152.87	0.411943
2154.32	0.148061
2155.76	0.380825
2157.21	0.43137
2158.65	0.283715
2160.1	-0.0450935
2161.54	0.290208
2162.98	-0.185072
2164.43	0.169832
2165.87	0.160707
2167.31	0.25122
2168.75	0.274529
2170.2	0.462719
2171.64	-0.215777
2173.08	0.268525
2174.52	-0.41274
2175.96	0.252793
2177.4	0.30301
2178.84	0.237447
2180.28	0.638214
2181.72	0.391332
2183.16	0.178161
2184.6	0.26455
2186.04	0.151408
2187.48	0.354387
2188.92	-0.291272
2190.36	0.0282483
2191.79	0.181197
2193.23	0.500101
2194.67	-0.31423
2196.11	0.13532
2197.54	0.117078
2198.98	0.363471
2200.42	0.259698
2201.85	-0.0433178
2203.29	0.0527959
2204.72	0.0335979
2206.16	-0.0178747
2207.59	0.411594
2209.03	-0.119886
2210.46	0.0602393
2211.9	-0.0253162
2213.33	-0.0783238
2214.77	-0.213973
2216.2	0.410329
2217.63	-0.0375199
2219.07	-0.022181
2220.5	0.356567
2221.93	-0.0558667
2223.36	0.322238
2224.8	0.270718
2226.23	-0.177111
2227.66	0.229342
2229.09	-0.138016
2230.52	-0.0130739
2231.95	0.176941
2233.39	0.464959
2234.81	0.18068
2236.25	0.273689
2237.67	-0.0402465
2239.1	-0.238018
2240.53	0.0390306
2241.96	0.170688
2243.39	0.254481
2244.82	-0.19964
2246.25	0.40595
2247.68	0.210984
2249.1	0.177335
2250.53	-0.0373759
2251.96	0.235082
2253.38	0.164785
2254.81	-0.34386
2256.24	-0.0225534
2257.66	0.00818205
2259.09	0.10615
2260.51	0.222804
2261.94	0.114388
2263.36	0.1859
2264.79	-0.197194
2266.21	-0.190773
2267.64	0.221718
2269.06	-0.147374
2270.49	0.0523772
2271.91	0.0564055
2273.33	0.141705
2274.76	0.308553
2276.18	0.0846086
2277.6	0.0399799
2279.02	-0.216541
2280.44	-0.244949
2281.87	-0.0124946
2283.29	0.171048
2284.71	-0.0369339
2286.13	-0.0816188
2287.55	-0.33829
2288.97	-0.0721097
2290.39	0.0148754
2291.81	0.281985
2293.23	0.320481
2294.65	0.179024
2296.07	-0.0935717
2297.49	-0.219069
2298.91	0.0649171
2300.33	0.0379024
2301.74	0.109483
2303.16	-0.0975122
2304.58	-0.107619
2306	0.0628643
2307.41	0.249667
2308.83	0.140295
2310.25	0.079668
2311.66	0.314728
2313.08	-0.141173
2314.5	0.160079
2315.91	0.264579
2317.33	-0.173818
2318.74	0.030581
2320.16	0.268026
2321.57	0.405782
2322.98	0.129401
2324.4	0.0820479
2325.81	0.593738
2327.23	0.328438
2328.64	0.63954
2330.05	0.3245
2331.46	0.208099
2332.88	-0.187045
2334.29	-0.136976
2335.7	-0.33346
2337.11	0.177012
2338.52	-0.119231
2339.94	0.339717
2341.35	-0.0566406
2342.76	0.449678
2344.17	-0.176337
2345.58	-0.129344
2346.99	0.212659
2348.4	0.0631995
2349.81	0.0608501
2351.22	0.221329
2352.62	0.380711
2354.03	0.228931
2355.44	0.386555
2356.85	0.103891
2358.26	0.309762
2359.67	-0.0696435
2361.07	0.0874605
2362.48	0.00101852
2363.89	-0.425447
2365.29	-0.00974226
2366.7	0.0173388
2368.11	-0.278062
2369.51	0.315157
2370.92	-0.155347
2372.32	0.0525098
2373.73	0.0033679
2375.13	0.485809
2376.54	-0.190901
2377.94	0.322156
2379.35	0.28688
2380.75	0.153893
2382.15	0.452908
2383.56	0.28593
2384.96	-0.12083
2386.36	-0.182772
2387.76	-0.243862
2389.17	0.310008
2390.57	-0.091907
2391.97	0.0649886
2393.37	0.413497
2394.77	-0.001019
2396.17	-0.0966172
2397.58	0.0149932
2398.98	-0.158976
2400.38	0.223559
2401.78	0.177378
2403.18	0.0677376
2404.58	0.132496
2405.97	-0.105085
2407.37	-0.0576653
2408.77	0.544137
2410.17	-0.186511
2411.57	-0.0448642
2412.97	-0.0135508
2414.37	0.0187931
2415.76	-0.264265
2417.16	-0.213756
2418.56	0.280878
2419.95	0.0316796
2421.35	-0.027617
2422.75	0.594005
2424.14	0.312408
2425.54	0.0624685
2426.93	0.399285
2428.33	0.483347
2429.72	-0.129508
2431.12	0.193852
2432.51	0.263673
2433.91	0.444304
2435.3	0.751191
2436.7	0.103546
2438.09	0.0265031
2439.48	0.456693
2440.88	0.187112
2442.27	-0.0669003
2443.66	0.0122609
2445.05	0.408437
2446.44	0.407767
2447.84	-0.115994
2449.23	0.58041
2450.62	0.0888705
2452.01	0.0255079
2453.4	0.121062
2454.79	0.138196
2456.18	-0.20791
2457.57	-0.205691
2458.96	-0.0454159
2460.35	0.446465
2461.74	0.43151
2463.13	-0.0583153
2464.52	0.225886
2465.91	0.162139
2467.29	0.0352144
2468.68	-0.265209
2470.07	0.223041
2471.46	0.221773
2472.85	-0.0793877
2474.23	0.185936
2475.62	-0.367678
2477.01	0.273821
2478.39	0.270311
2479.78	-0.43922
2481.16	-0.253727
2482.55	0.0254369
2483.93	0.131568
2485.32	0.268058
2486.7	0.168946
2488.09	0.0222974
2489.47	-0.46751
2490.86	-0.146823
2492.24	-0.0597372
2493.62	0.0280061
2495.01	0.116684
2496.39	0.0357676
2497.77	0.0486441
2499.15	0.09271
2500.54	0.16739
2501.92	0.179482
2503.3	0.144398
2504.68	0.0777574
2506.06	-0.282046
2507.45	0.1283
2508.83	0.245706
2510.21	-0.143602
2511.59	0.0207424
2512.97	0.170095
2514.35	0.0901766
2515.73	0.133558
2517.11	-0.189589
2518.48	0.436002
2519.86	-0.0391417
2521.24	-0.00998354
2522.62	-0.271401
2524	0.0312133
2525.38	0.119392
2526.75	-0.127837
2528.13	0.234279
2529.51	0.201423
2530.89	0.0635452
2532.26	-0.285548
2533.64	-0.0104866
2535.02	0.143615
2536.39	0.206545
2537.77	0.344878
2539.14	0.254528
2540.52	-0.170523
2541.89	0.0114889
2543.27	0.041853
2544.64	0.376268
2546.01	0.180759
2547.39	0.320012
2548.76	0.20213
2550.14	0.311929
2551.51	0.117846
2552.88	-0.198443
2554.25	0.228019
2555.63	-0.0139937
2557	0.198657
2558.37	-0.0741696
2559.74	0.320367
2561.11	0.275642
2562.49	0.11024
2563.86	0.233284
2565.23	0.129395
2566.6	-0.0652146
2567.97	0.0433359
2569.34	0.121594
2570.71	0.305947
2572.08	0.111413
2573.45	0.0988202
2574.82	0.253061
2576.18	0.0131683
2577.55	0.0460963
2578.92	0.0333509
2580.29	0.490375
2581.66	0.628602
2583.02	0.281304
2584.39	0.22189
2585.76	0.298857
2587.13	0.300114
2588.49	0.0438876
2589.86	0.212124
2591.22	0.471164
2592.59	-0.0126834
2593.96	-0.148612
2595.32	-0.133859
2596.69	0.0919423
2598.05	-0.137018
2599.42	0.0119324
2600.78	0.130551
2602.14	0.445776
2603.51	-0.204842
2604.87	0.216921
2606.23	0.246361
2607.6	0.0945725
2608.96	0.273798
2610.32	-0.301326
2611.69	0.312298
2613.05	-0.038507
2614.41	-0.0588183
2615.77	-0.229394
2617.13	-0.00969028
2618.49	0.240017
2619.86	0.355268
2621.22	0.590599
2622.58	-0.0854225
2623.94	0.0460272
2625.3	-0.0167294
2626.66	-0.00504827
2628.02	-0.112877
2629.37	0.538597
2630.73	0.0729818
2632.09	0.217525
2633.45	-0.0689864
2634.81	0.0308399
2636.17	-0.522071
2637.53	0.422569
2638.88	-0.292624
2640.24	0.384169
2641.6	0.069612
2642.96	0.568286
2644.31	0.461126
2645.67	0.147512
2647.02	0.0698895
2648.38	0.301141
2649.74	-0.0279441
2651.09	-0.23937
2652.45	0.23962
2653.8	0.541733
2655.16	0.360185
2656.51	-0.244855
2657.86	0.27894
2659.22	0.0714488
2660.57	0.0984788
2661.93	0.213066
2663.28	0.122544
2664.63	-0.172906
2665.98	0.406574
2667.34	0.22687
2668.69	0.294906
2670.04	0.406702
2671.39	-0.00465775
2672.75	0.10816
2674.09	0.0616217
2675.45	0.0156064
2676.8	-0.0444069
2678.15	0.229741
2679.5	0.185422
2680.85	0.199983
2682.2	0.302543
2683.55	0.0436239
2684.9	0.206039
2686.25	0.165837
2687.6	0.386783
2688.94	-0.177104
2690.29	0.0995564
2691.64	0.418155
2692.99	0.401505
2694.34	0.238975
2695.68	0.293813
2697.03	0.218719
2698.38	0.231642
2699.73	0.2315
2701.07	0.203886
2702.42	0.394813
2703.76	-0.0073061
2705.11	0.141566
2706.45	0.479182
2707.8	0.076839
2709.15	0.123826
2710.49	0.0107751
2711.83	-0.088057
2713.18	0.176201
2714.52	0.00449181
2715.87	0.35606
2717.21	0.125951
2718.55	0.317385
2719.9	0.290331
2721.24	0.335639
2722.58	0.176771
2723.93	0.0611362
2725.27	0.309015
2726.61	0.0907898
2727.95	-0.142236
2729.29	0.439505
2730.63	0.424406
2731.98	0.0310049
2733.32	0.350562
2734.66	0.335648
2736	0.0154676
2737.34	0.291738
2738.68	0.218929
2740.02	0.611269
2741.36	0.159779
2742.7	0.129472
2744.03	0.200317
2745.37	0.24152
2746.71	0.630832
2748.05	0.163213
2749.39	0.479524
2750.72	0.0560632
2752.06	0.0680757
2753.4	0.355638
2754.74	-0.197169
2756.07	0.249863
2757.41	0.17549
2758.75	0.144791
2760.08	0.114422
2761.42	0.156822
2762.76	0.344311
2764.09	0.315022
2765.42	0.0687103
2766.76	-0.105598
2768.09	0.543866
2769.43	-0.0661116
2770.76	0.204784
2772.1	0.214225
2773.43	-0.15243
2774.76	0.129829
2776.1	-0.150241
2777.43	0.102962
2778.76	-0.204639
2780.1	0.0490885
2781.43	0.274017
2782.76	-0.104042
2784.09	0.00597811
2785.42	-0.0131736
2786.75	0.325916
2788.09	0.450286
2789.42	-0.226037
2790.75	-0.0572124
2792.08	0.0549579
2793.41	0.267538
2794.74	0.0656013
2796.07	-0.0364933
2797.4	0.189543
2798.73	-0.213315
2800.06	-0.0453162
2801.39	0.279214
2802.71	0.0757055
2804.04	0.214205
2805.37	0.252481
2806.7	-0.108355
2808.03	0.21349
2809.35	-0.161932
2810.68	-0.195949
2812.01	-0.17269
2813.33	-0.14856
2814.66	-0.024035
2815.99	0.229188
2817.31	0.114804
2818.64	0.213549
2819.96	0.0855451
2821.29	-0.0286469
2822.61	0.182561
2823.94	0.279813
2825.26	0.305874
2826.59	0.147851
2827.91	0.188538
2829.23	0.0314889
2830.56	0.526031
2831.88	0.341264
2833.21	0.722665
2834.53	0.509283
2835.85	0.295524
2837.17	0.350212
2838.5	0.871311
2839.82	0.684842
2841.14	0.696483
2842.46	0.651927
2843.78	0.749264
2845.1	1.05919
2846.42	0.49344
2847.74	1.08688
2849.06	0.874788
2850.38	1.17127
2851.71	1.22705
2853.03	1.32477
2854.34	1.06886
2855.66	1.32148
2856.98	1.33386
2858.3	1.28977
2859.62	1.48577
2860.94	1.44153
2862.26	1.96172
2863.57	1.76153
2864.89	1.92807
2866.21	1.6713
2867.53	2.28925
2868.84	2.03311
2870.16	2.04531
2871.48	2.38185
2872.79	2.15433
2874.11	2.34897
2875.42	2.54256
2876.74	2.84764
2878.05	2.65914
2879.37	2.63932
2880.68	2.66196
2882	2.55884
2883.31	2.65338
2884.63	2.55216
2885.94	2.71827
2887.26	2.57563
2888.57	2.47479
2889.88	2.68192
2891.19	2.93022
2892.51	3.0516
2893.82	2.79445
2895.13	3.37801
2896.44	3.094
2897.76	3.66475
2899.07	3.2149
2900.38	2.96178
2901.69	3.1428
2903	3.37995
2904.31	3.79905
2905.62	3.39315
2906.93	3.49129
2908.24	3.3244
2909.55	3.77384
2910.86	3.70622
2912.17	3.87654
2913.48	4.08826
2914.79	4.06075
2916.1	3.96167
2917.41	3.97314
2918.71	4.36144
2920.02	4.45558
2921.33	4.6761
2922.64	4.38044
2923.94	3.7926
2925.25	4.47784
2926.56	4.5207
2927.86	4.89914
2929.17	4.59226
2930.48	4.66233
2931.78	4.63411
2933.09	4.66157
2934.39	4.78683
2935.7	4.63268
2937	4.74422
2938.31	4.33889
2939.61	4.49279
2940.92	4.22794
2942.22	4.18743
2943.53	4.23183
2944.83	3.52255
2946.13	3.40123
2947.43	3.78404
2948.74	3.66313
2950.04	3.66719
2951.34	3.47369
2952.64	3.04049
2953.95	3.19419
2955.25	3.31948
2956.55	3.13753
2957.85	2.4394
2959.15	2.97531
2960.45	3.31791
2961.75	3.06
2963.05	2.87262
2964.35	2.85304
2965.65	2.77606
2966.95	3.16138
2968.25	2.5617
2969.55	2.98753
2970.85	2.45702
2972.15	2.75656
2973.45	2.3389
2974.75	2.8923
2976.05	2.45989
2977.34	2.18116
2978.64	2.15443
2979.94	2.40774
2981.24	1.54807
2982.53	2.10918
2983.83	1.91089
2985.13	1.37637
2986.42	1.71459
2987.72	0.986101
2989.01	1.71991
2990.31	1.40008
2991.61	1.22039
2992.9	1.05391
2994.19	1.22367
2995.49	0.591763
2996.78	1.08294
2998.08	1.01216
2999.37	0.885546
3000.67	1.05395
3001.96	0.830287
3003.25	0.663205
3004.55	0.342253
3005.84	0.777542
3007.13	0.554095
3008.42	0.274211
3009.72	0.203676
3011.01	0.230453
3012.3	0.284766
3013.59	0.631964
3014.88	-0.122293
3016.17	-0.052979
3017.46	-0.136271
3018.76	0.212348
3020.05	0.101758
3021.34	0.129968
3022.63	0.296371
3023.92	0.0870118
3025.21	-0.0116792
3026.49	-0.096509
3027.78	-0.333004
3029.07	-0.0981116
3030.36	-0.235387
3031.65	0.0154037
3032.94	0.322134
3034.23	0.00795841
3035.51	0.217864
3036.8	0.02668
3038.09	0.220067
3039.38	-0.125198
3040.66	-0.0860767
3041.95	0.130635
3043.23	0.0314384
3044.52	0.0974822
3045.81	0.260472
3047.09	0.0971599
3048.38	-0.323309
3049.66	0.268323
3050.95	-0.0531931
3052.23	0.18556
3053.52	-0.0668254
3054.8	0.307931
3056.09	0.190694
3057.37	0.140821
3058.65	0.471837
3059.94	0.312061
3061.22	0.193629
3062.5	0.10337
3063.79	0.327093
3065.07	0.171422
3066.35	0.370483
3067.63	0.312176
3068.92	0.0366755
3070.2	-0.0486412
3071.48	0.20543
3072.76	-0.153446
3074.04	0.220987
3075.32	0.0100789
3076.6	-0.0786438
3077.88	0.1317
3079.16	-0.00998545
3080.44	0.121
3081.72	0.375402
3083	0.251149
3084.28	0.00539827
3085.56	-0.00959492
3086.84	0.124413
3088.12	0.108595
3089.4	0.377263
3090.67	-0.0329823
3091.95	0.0588288
3093.23	-0.0662417
3094.51	-0.190952
3095.78	0.0236425
3097.06	0.22475
3098.34	-0.0350227
3099.61	0.0304804
3100.89	-0.107253
3102.17	0.120846
3103.44	-0.219517
3104.72	-0.085494
3105.99	-0.0862026
3107.27	-0.194364
3108.54	0.144969
3109.82	0.417664
3111.09	-0.0803657
3112.37	-0.00913668
3113.64	-0.0322709
3114.92	-0.0146799
3116.19	0.0297604
3117.46	-0.10272
3118.74	0.415058
3120.01	0.172449
3121.28	0.186839
3122.55	0.43118
3123.83	0.323008
3125.1	0.228678
3126.37	0.486783
3127.64	0.177016
3128.91	0.544231
3130.19	0.181487
3131.46	0.413874
3132.73	0.159661
3134	0.270124
3135.27	0.231657
3136.54	0.543622
3137.81	0.463861
3139.08	0.653416
3140.35	0.236902
3141.62	0.574319
3142.89	0.306864
3144.16	0.469965
3145.42	0.257778
3146.69	0.555988
3147.96	0.666902
3149.23	0.778264
