200.407	0.0402651
202.221	0.044754
204.035	0.0507088
205.849	0.0577116
207.665	0.770215
209.478	0.266819
211.291	0.030302
213.104	0.0358286
214.916	0.0163012
216.73	0.36001
218.541	-0.168489
220.352	0.611414
222.163	0.181915
223.973	0.551709
225.785	0.486891
227.595	0.494849
229.404	0.237024
231.213	0.437666
233.022	0.131388
234.83	0.428671
236.638	0.51007
238.448	0.400702
240.255	0.390206
242.062	0.164957
243.868	0.0615597
245.675	-0.0417757
247.48	0.26407
249.286	0.471231
251.091	0.168631
252.896	0.0568838
254.702	-0.152719
256.506	-0.290069
258.31	0.874872
260.113	-0.296264
261.916	-0.284748
263.719	0.186086
265.521	0.609969
267.323	0.0704975
269.125	0.470776
270.926	0.508947
272.727	0.497957
274.527	0.0759125
276.328	-0.106331
278.127	0.0714607
279.927	0.271487
281.726	-0.276639
283.525	-0.488799
285.323	-0.31731
287.121	0.405263
288.919	0.598942
290.716	0.122299
292.513	0.341896
294.31	-0.202721
296.104	-0.0280552
297.9	0.171456
299.696	0.275851
301.491	-0.408062
303.286	0.0777912
305.081	0.084919
306.875	0.210517
308.669	0.288144
310.463	0.0803566
312.256	-0.411895
314.047	-0.140385
315.839	0.085186
317.631	-0.116149
319.423	0.541529
321.215	0.0807486
323.006	-0.284288
324.794	-0.0288858
326.585	0.0599127
328.375	0.387623
330.165	0.069747
331.954	0.300653
333.741	-0.187545
335.53	0.279405
337.318	0.193991
339.106	0.633027
340.894	0.568137
342.679	0.263506
344.466	0.747629
346.253	-0.0817661
348.039	-0.145828
349.823	0.101002
351.608	-0.0579071
353.393	0.236211
355.176	0.242998
356.961	0.463216
358.745	-0.128228
360.529	0.0897436
362.31	0.306595
364.093	0.284673
365.876	-0.0941992
367.657	-0.0932941
369.439	0.428534
371.221	-0.614804
373	0.401985
374.781	0.163607
376.56	0.0674963
378.34	-0.169377
380.12	0.32537
381.898	0.373143
383.677	0.0928135
385.456	-0.0213604
387.233	0.171212
389.011	0.787583
390.787	-0.0984707
392.565	0.167264
394.34	0.339647
396.117	0.0897255
397.894	-0.277505
399.668	0.130187
401.444	0.420133
403.217	0.545103
404.993	-0.0586605
406.766	-0.287224
408.54	0.704641
410.312	0.170065
412.086	0.0347271
413.858	0.416068
415.631	-0.23436
417.402	-0.250494
419.174	0.0390539
420.944	-0.30476
422.716	-0.038517
424.486	0.485434
426.257	0.398218
428.025	-0.182738
429.794	0.315722
431.564	0.29773
433.332	0.608621
435.101	0.0280304
436.868	0.761749
438.637	0.509141
440.403	0.583755
442.169	0.23422
443.937	0.281546
445.703	0.139668
447.468	0.488405
449.234	0.765919
450.999	0.318769
452.765	0.0594616
454.528	-0.152533
456.292	0.381644
458.057	-0.389303
459.819	0.46996
461.582	-0.206187
463.344	-0.113153
465.107	0.516371
466.868	-0.152723
468.629	0.0636539
470.392	-0.11333
472.152	0.175486
473.912	-0.583695
475.672	0.308611
477.433	0.360765
479.192	0.317975
480.951	0.507153
482.709	-0.258478
484.469	0.234653
486.226	0.1473
487.984	0.155111
489.74	0.42142
491.499	0.432395
493.255	-0.25689
495.011	-0.035182
496.767	0.374144
498.522	0.0107946
500.277	-0.0487566
502.033	-0.273262
503.788	0.229222
505.541	0.190796
507.295	0.644894
509.048	0.55687
510.801	0.0672636
512.553	0.611451
514.308	-0.16345
516.06	0.401552
517.811	0.447745
519.562	0.0463114
521.313	0.0674763
523.063	0.675277
524.814	-0.00870228
526.563	0.434055
528.313	0.172974
530.062	-0.0176201
531.811	0.00243664
533.559	0.115392
535.308	0.484431
537.055	0.197204
538.803	0.282765
540.55	1.08999
542.297	0.147548
544.043	-0.0950499
545.789	-0.0117865
547.535	0.303524
549.281	0.340145
551.026	0.53899
552.771	0.0205097
554.515	-0.542897
556.259	0.256998
558.003	-0.143498
559.747	0.263584
561.49	0.279133
563.233	0.0651808
564.975	0.265826
566.717	0.443829
568.459	-0.0434093
570.2	-0.00141239
571.942	0.0647268
573.68	-0.0511808
575.421	0.109797
577.161	-0.117727
578.901	-0.183517
580.64	0.233646
582.379	-0.060998
584.118	-0.264433
585.855	-0.0779543
587.593	0.314556
589.331	0.107899
591.068	0.245453
592.805	0.0373917
594.54	0.128272
596.277	0.2882
598.013	0.056983
599.749	0.262577
601.484	-0.24572
603.217	0.348967
604.952	-0.000640869
606.687	0.154379
608.421	-0.31158
610.153	-0.0656624
611.886	-0.00313854
613.619	0.0600233
615.35	-0.151272
617.083	0.485461
618.815	0.250984
620.547	0.427761
622.276	0.214283
624.008	0.434599
625.738	0.197685
627.467	-0.0608187
629.197	-0.111964
630.927	-0.138187
632.655	-0.139765
634.384	-0.25449
636.113	0.70339
637.839	0.4728
639.568	0.011548
641.293	0.346313
643.021	0.15414
644.748	0.439243
646.473	0.314592
648.2	0.396395
649.924	0.708218
651.65	0.546411
653.376	0.388237
655.099	1.02917
656.824	0.51227
658.546	-0.187091
660.271	0.435157
661.993	0.120824
663.716	0.466675
665.438	0.399104
667.161	0.329684
668.881	0.579679
670.604	0.418562
672.324	0.80837
674.045	0.124619
675.765	0.954506
677.486	0.846537
679.204	1.06006
680.925	0.51445
682.643	0.840482
684.361	0.957715
686.08	0.681611
687.797	0.565049
689.516	0.562578
691.232	0.236918
692.95	1.1315
694.666	0.343888
696.382	0.177351
698.099	0.884592
699.813	0.807742
701.528	0.246881
703.244	0.972875
704.958	1.00818
706.673	1.01994
708.387	0.572639
710.099	0.698519
711.814	1.05275
713.526	0.719867
715.238	0.615898
716.949	0.900197
718.663	0.819057
720.374	1.01173
722.084	0.839856
723.796	0.75932
725.506	1.17896
727.216	0.234769
728.925	0.789611
730.636	1.32029
732.345	0.762447
734.053	0.839021
735.761	0.983278
737.471	1.01465
739.178	0.933809
740.885	0.921627
742.592	0.640264
744.298	0.990858
746.006	1.07237
747.712	1.5826
749.417	0.609373
751.122	0.942055
752.827	1.18597
754.532	0.801326
756.236	1.36304
757.942	0.710848
759.645	0.960443
761.348	1.3467
763.051	1.50843
764.753	1.33147
766.456	1.15322
768.158	0.927842
769.859	1.31081
771.56	1.57889
773.261	1.16718
774.964	1.43335
776.664	1.74519
778.364	1.89999
780.064	1.73972
781.763	1.98771
783.462	1.48922
785.16	1.78169
786.859	1.50605
788.557	1.65748
790.255	1.66988
791.952	1.996
793.649	1.19088
795.346	1.37954
797.042	1.92926
798.738	1.55631
800.434	2.06341
802.127	1.89649
803.823	1.41555
805.517	1.58679
807.212	1.30772
808.906	1.5668
810.6	1.37558
812.293	1.36313
813.987	1.1709
815.68	2.38911
817.372	1.59208
819.064	1.17638
820.754	1.87806
822.446	1.73105
824.137	1.6742
825.828	1.57418
827.519	1.92174
829.209	1.95998
830.897	2.09029
832.587	0.998133
834.276	1.37818
835.966	1.69272
837.654	1.80664
839.341	1.96423
841.029	1.1599
842.717	1.35924
844.404	1.44642
846.091	1.19894
847.776	1.1765
849.463	1.55899
851.149	1.78766
852.833	1.21175
854.519	1.42088
856.204	1.38326
857.889	1.88413
859.572	1.46168
861.256	1.68984
862.94	1.75896
864.622	1.2409
866.305	1.0372
867.988	1.41905
869.669	1.07891
871.351	1.18947
873.033	1.25474
874.713	1.43277
876.395	1.2949
878.074	0.344494
879.755	0.635242
881.435	1.10633
883.114	1.28333
884.794	0.511173
886.471	0.821335
888.15	1.44575
889.829	0.918015
891.506	0.795148
893.184	0.873887
894.861	0.771407
896.538	1.02779
898.214	0.811126
899.891	1.1324
901.566	1.13851
903.242	0.785995
904.916	0.903505
906.592	1.06553
908.266	1.00481
909.941	1.30133
911.614	1.4646
913.288	1.1837
914.961	0.570637
916.635	0.89046
918.306	1.89667
919.979	1.174
921.651	1.1832
923.321	1.32606
924.994	0.697088
926.664	1.04201
928.336	1.05715
930.005	1.27207
931.674	1.02424
933.345	0.798817
935.014	0.507443
936.682	0.701715
938.352	1.5363
940.019	0.872298
941.687	1.26814
943.356	0.0761347
945.022	0.803638
946.689	0.514984
948.357	0.842721
950.022	1.32309
951.688	0.941557
953.355	0.846972
955.02	0.930235
956.684	0.707301
958.348	0.729893
960.014	1.01997
961.678	1.51074
963.341	1.22851
965.004	0.369296
966.669	0.834399
968.331	0.65541
969.993	0.629321
971.655	0.801456
973.316	0.686402
974.979	0.79381
976.64	0.0624905
978.3	0.770142
979.961	0.649015
981.62	0.527488
983.28	0.880676
984.941	1.09925
986.6	0.80673
988.259	0.977273
989.917	0.438833
991.575	0.519154
993.233	0.820078
994.89	0.32604
996.547	0.957829
998.204	1.30223
999.86	1.55785
1001.52	1.65859
1003.17	1.69274
1004.83	1.02277
1006.49	0.485486
1008.14	1.00313
1009.79	0.55479
1011.45	0.78728
1013.1	0.493903
1014.76	0.245049
1016.41	0.259529
1018.06	-0.403849
1019.72	0.902457
1021.37	0.547103
1023.02	-0.00373554
1024.67	-0.247535
1026.32	0.492588
1027.97	0.686347
1029.62	0.311488
1031.27	0.481699
1032.92	0.912289
1034.57	0.27177
1036.22	1.09157
1037.87	0.101142
1039.52	0.440005
1041.17	0.800673
1042.82	0.40125
1044.47	1.22057
1046.11	0.499028
1047.76	0.778556
1049.41	0.516683
1051.06	-0.15673
1052.7	0.604191
1054.35	0.105477
1055.99	0.171647
1057.64	0.107163
1059.28	0.455324
1060.93	0.607284
1062.57	0.693295
1064.22	0.517515
1065.86	0.384278
1067.5	0.0762262
1069.15	0.419257
1070.79	0.240211
1072.43	0.039464
1074.08	0.316648
1075.72	0.572866
1077.36	0.461523
1079	0.351372
1080.64	0.155218
1082.28	0.132563
1083.92	0.651198
1085.56	-0.110777
1087.2	0.902702
1088.84	0.592207
1090.48	0.367023
1092.12	0.703142
1093.76	0.195863
1095.39	0.142773
1097.03	0.909667
1098.67	0.448803
1100.31	0.334624
1101.94	-0.315629
1103.58	-0.0603609
1105.22	0.475619
1106.85	0.345296
1108.49	0.343784
1110.12	0.126287
1111.76	0.616754
1113.39	0.71858
1115.03	0.260897
1116.66	0.468287
1118.29	0.289575
1119.93	0.540201
1121.56	0.106258
1123.19	-0.00523853
1124.82	0.675863
1126.46	0.54458
1128.09	0.0933332
1129.72	0.797489
1131.35	0.646863
1132.98	-0.0378761
1134.61	0.517179
1136.24	-0.232201
1137.87	0.32121
1139.5	0.467333
1141.13	0.505627
1142.76	0.0739136
1144.39	-0.229291
1146.01	0.0866213
1147.64	-1.04601
1149.27	0.485938
1150.9	0.207064
1152.53	0.396832
1154.15	0.288139
1155.78	0.391955
1157.4	0.11261
1159.03	0.195331
1160.65	-0.125253
1162.28	0.405755
1163.9	0.342313
1165.53	0.151796
1167.15	0.301259
1168.78	0.130846
1170.4	-0.211063
1172.02	0.337815
1173.65	0.311192
1175.27	-0.225763
1176.89	0.191569
1178.51	0.269485
1180.14	-0.160108
1181.76	-0.376781
1183.38	-0.00062561
1185	0.121607
1186.62	0.221734
1188.24	0.10924
1189.86	-0.11025
1191.48	-0.141507
1193.1	0.603869
1194.71	0.548555
1196.33	0.682065
1197.95	0.104185
1199.57	0.0312519
1201.19	0.294906
1202.8	0.456215
1204.42	0.473717
1206.04	0.785371
1207.65	1.11909
1209.27	0.118026
1210.88	-0.236917
1212.5	0.261659
1214.12	0.632727
1215.73	0.230736
1217.35	0.3894
1218.96	0.754573
1220.57	0.91124
1222.19	0.98528
1223.8	0.33518
1225.41	0.764208
1227.03	0.676812
1228.64	0.59086
1230.25	1.00241
1231.86	1.10483
1233.47	1.33243
1235.08	1.35457
1236.69	0.0757647
1238.31	1.36103
1239.92	0.724452
1241.52	0.563476
1243.13	0.91934
1244.74	0.571095
1246.35	0.304601
1247.96	0.720016
1249.57	1.17602
1251.18	0.82479
1252.78	1.03233
1254.39	0.847528
1256	0.353488
1257.6	0.770738
1259.21	0.899568
1260.82	0.284154
1262.42	1.34606
1264.03	1.49734
1265.63	0.943758
1267.24	1.21828
1268.84	0.973692
1270.45	0.68657
1272.05	0.999716
1273.65	0.917924
1275.26	1.37413
1276.86	1.20751
1278.46	0.543028
1280.06	0.955195
1281.67	0.53883
1283.27	1.1573
1284.87	1.07268
1286.47	0.761561
1288.07	0.410259
1289.67	1.0932
1291.27	1.01195
1292.87	1.52983
1294.47	1.44777
1296.07	0.972092
1297.67	1.1558
1299.27	1.17264
1300.87	0.899349
1302.47	1.07846
1304.06	1.29748
1305.66	1.35087
1307.26	1.87601
1308.85	1.2098
1310.45	1.75413
1312.05	1.51974
1313.64	1.5729
1315.24	1.87217
1316.83	0.92644
1318.43	1.81895
1320.02	1.40525
1321.62	1.62281
1323.21	1.35003
1324.8	1.5233
1326.4	1.20748
1327.99	1.56095
1329.59	1.32681
1331.18	1.7622
1332.77	1.63318
1334.36	1.58744
1335.95	1.8663
1337.54	1.92362
1339.14	1.79883
1340.73	1.81351
1342.32	1.58449
1343.91	1.47453
1345.5	1.34359
1347.09	1.97497
1348.67	1.34475
1350.26	1.29855
1351.85	1.05495
1353.44	0.733659
1355.03	1.07343
1356.62	1.33349
1358.2	1.31333
1359.79	0.892876
1361.38	1.01065
1362.96	1.46658
1364.55	1.18397
1366.14	1.00154
1367.72	1.1586
1369.31	0.838964
1370.89	1.23733
1372.48	1.31853
1374.06	1.182
1375.64	0.528788
1377.23	0.810907
1378.81	0.873683
1380.39	1.29364
1381.98	0.896568
1383.56	0.677426
1385.14	0.815286
1386.72	0.336669
1388.3	0.116788
1389.89	0.632115
1391.47	0.889947
1393.05	1.02938
1394.63	1.22864
1396.21	1.20953
1397.79	1.54655
1399.37	1.08971
1400.95	0.988811
1402.52	1.20414
1404.1	0.805888
1405.68	0.724914
1407.26	0.842485
1408.84	0.842244
1410.42	0.822762
1411.99	0.665049
1413.57	0.980643
1415.15	0.999142
1416.72	0.9379
1418.3	1.19168
1419.87	0.480214
1421.45	1.08967
1423.02	0.834094
1424.6	0.678619
1426.17	1.52816
1427.75	1.41385
1429.32	0.41355
1430.89	1.02639
1432.47	1.26408
1434.04	1.50069
1435.61	1.89403
1437.18	1.2846
1438.76	1.54109
1440.33	1.68057
1441.9	2.0765
1443.47	1.92289
1445.04	1.90726
1446.61	1.87216
1448.18	1.89618
1449.75	1.76322
1451.32	2.43686
1452.89	1.81333
1454.46	1.58336
1456.03	1.72709
1457.6	1.67347
1459.16	1.99251
1460.73	1.71938
1462.3	1.83792
1463.87	1.67936
1465.43	1.14636
1467	1.63504
1468.56	1.59343
1470.13	1.435
1471.7	1.47401
1473.26	1.12181
1474.83	1.18234
1476.39	1.0276
1477.96	0.931829
1479.52	1.07125
1481.08	0.544145
1482.65	0.702995
1484.21	0.900867
1485.77	0.569405
1487.34	0.962033
1488.9	0.981171
1490.46	0.294104
1492.02	-0.0225697
1493.58	0.343004
1495.15	0.19886
1496.71	0.385286
1498.27	0.259642
1499.83	-0.0790033
1501.39	-0.0470409
1502.95	0.334985
1504.51	0.542728
1506.07	0.227704
1507.63	0.299498
1509.18	0.312254
1510.74	0.594042
1512.3	0.585227
1513.86	0.479805
1515.41	0.701579
1516.97	0.980954
1518.53	0.129033
1520.08	-0.394777
1521.64	0.537002
1523.2	0.0520229
1524.75	0.254754
1526.31	0.646725
1527.86	0.579781
1529.42	0.759662
1530.97	0.445296
1532.52	0.132281
1534.08	0.161756
1535.63	0.87305
1537.19	0.525578
1538.74	0.764646
1540.29	0.419057
1541.84	0.620554
1543.4	0.42635
1544.95	0.326348
1546.5	0.508078
1548.05	0.107624
1549.6	0.382734
1551.15	1.20046
1552.7	0.857257
1554.25	0.141772
1555.8	0.680003
1557.35	0.621889
1558.9	0.28579
1560.45	0.921699
1562	1.03671
1563.54	1.46999
1565.09	1.28823
1566.64	0.621335
1568.19	1.27919
1569.73	0.87287
1571.28	0.522117
1572.83	0.917754
1574.37	0.790577
1575.92	1.42879
1577.47	1.45118
1579.01	1.586
1580.56	0.974586
1582.1	1.27884
1583.64	1.06099
1585.19	1.27355
1586.73	1.07546
1588.28	0.970888
1589.82	1.33382
1591.36	1.35967
1592.9	1.06675
1594.45	1.69113
1595.99	1.66017
1597.53	1.44217
1599.07	1.09341
1600.61	1.27027
1602.15	1.27885
1603.69	1.15599
1605.23	1.20147
1606.77	1.67791
1608.31	1.83311
1609.85	1.15899
1611.39	1.25323
1612.93	1.25155
1614.47	0.798131
1616.01	1.33892
1617.55	1.29836
1619.08	1.14657
1620.62	0.996352
1622.16	1.29692
1623.7	1.27994
1625.23	1.0384
1626.77	1.3764
1628.3	0.777522
1629.84	1.33722
1631.37	0.717863
1632.91	1.33158
1634.44	1.10482
1635.98	1.47611
1637.51	1.04603
1639.05	1.08298
1640.58	1.51133
1642.11	0.988669
1643.65	1.26612
1645.18	1.03966
1646.71	1.89115
1648.24	1.38459
1649.78	1.34334
1651.31	1.63709
1652.84	1.65355
1654.37	1.28177
1655.9	1.52255
1657.43	1.68901
1658.96	1.18783
1660.49	1.68552
1662.02	1.29317
1663.55	1.34392
1665.08	1.46787
1666.61	1.70267
1668.14	1.05295
1669.66	1.47452
1671.19	0.791661
1672.72	1.28918
1674.25	1.67641
1675.77	1.47411
1677.3	0.921473
1678.83	1.5272
1680.35	0.899414
1681.88	0.91473
1683.4	1.11331
1684.93	1.40345
1686.45	1.32677
1687.98	0.95737
1689.5	0.350608
1691.03	0.788357
1692.55	0.402219
1694.07	1.02244
1695.6	0.563225
1697.12	0.08599
1698.64	0.850762
1700.17	0.446198
1701.69	0.242286
1703.21	0.511979
1704.73	0.0523224
1706.25	-0.0431004
1707.77	0.261321
1709.29	0.310843
1710.81	-0.0389099
1712.33	0.301125
1713.85	0.224037
1715.37	-0.142516
1716.89	0.17883
1718.41	0.951345
1719.93	0.6029
1721.45	0.345407
1722.97	-0.00131035
1724.49	-0.0763941
1726	-0.00617409
1727.52	-0.186832
1729.04	-0.330503
1730.55	0.0515499
1732.07	0.8208
1733.59	-0.0416727
1735.1	0.665366
1736.62	0.35306
1738.13	0.00146198
1739.65	0.620478
1741.16	-0.0990715
1742.68	0.324104
1744.19	0.0252743
1745.7	-0.0520344
1747.22	0.591993
1748.73	0.173432
1750.24	0.241161
1751.76	0.0911121
1753.27	0.312856
1754.78	0.449466
1756.29	0.162104
1757.8	0.207364
1759.31	0.32125
1760.83	0.112793
1762.34	-0.20359
1763.85	0.246412
1765.36	0.406431
1766.87	0.325042
1768.38	0.355209
1769.89	0.0340252
1771.39	0.222972
1772.9	0.168836
1774.41	-0.136559
1775.92	-0.0277853
1777.43	0.0393629
1778.94	0.0594301
1780.44	0.138765
1781.95	0.331887
1783.46	-0.0815754
1784.96	-0.177234
1786.47	0.0568876
1787.97	-0.100994
1789.48	0.0473547
1790.99	-0.0223303
1792.49	0.00797749
1794	0.350714
1795.5	0.143711
1797	0.0301743
1798.51	0.119187
1800.01	0.152913
1801.51	0.259988
1803.02	-0.0946598
1804.52	0.330809
1806.02	0.000800133
1807.53	0.310208
1809.03	-0.0358477
1810.53	0.0236082
1812.03	0.0664625
1813.53	0.362036
1815.03	-0.191928
1816.53	0.332664
1818.03	0.135283
1819.53	0.137096
1821.03	0.35946
1822.53	-0.125637
1824.03	-0.132139
1825.53	0.166144
1827.03	0.227697
1828.53	0.353123
1830.02	0.0907593
1831.52	0.0868912
1833.02	0.348844
1834.52	-0.0804968
1836.01	0.0767097
1837.51	-0.0378246
1839.01	0.185144
1840.5	0.0101357
1842	-0.230232
1843.49	0.0981083
1844.99	-0.0206089
1846.48	-0.255815
1847.98	0.186306
1849.47	0.238934
1850.97	0.272103
1852.46	-0.121901
1853.95	0.0632725
1855.45	0.0748997
1856.94	-0.0214796
1858.43	0.0403414
1859.93	0.293139
1861.42	0.0153313
1862.91	-0.243729
1864.4	-0.161548
1865.89	-0.0119953
1867.38	0.112933
1868.87	-0.04741
1870.36	0.0329037
1871.85	-0.0452261
1873.34	-0.0478172
1874.83	0.11676
1876.32	-0.0767117
1877.81	0.10102
1879.3	0.140015
1880.79	-0.0310221
1882.28	-0.0829134
1882.52	-0.084796
1884.02	0.472282
1885.51	6.29425e-005
1887.01	-0.106793
1888.5	-0.422897
1889.99	-0.007761
1891.49	-0.305117
1892.98	0.268518
1894.47	0.235258
1895.97	0.394766
1897.46	0.0507946
1898.95	-0.484766
1900.44	0.47475
1901.93	-0.167713
1903.42	0.440549
1904.91	0.0213442
1906.4	0.539999
1907.89	-0.400589
1909.38	-0.263561
1910.87	-0.125787
1912.36	0.394377
1913.85	0.186441
1915.34	0.0653791
1916.83	0.464154
1918.32	0.272917
1919.8	-0.299825
1921.29	0.132329
1922.78	0.166346
1924.27	-0.0931225
1925.75	0.0640106
1927.24	0.25678
1928.73	0.242442
1930.21	0.245387
1931.7	0.43805
1933.18	-0.0460148
1934.67	0.126245
1936.15	0.089159
1937.64	-0.329399
1939.12	-0.0221357
1940.61	-0.129416
1942.09	0.281951
1943.57	-0.203067
1945.06	0.26152
1946.54	0.605503
1948.02	0.0184412
1949.51	-0.138225
1950.99	-0.00296974
1952.47	-0.38494
1953.95	0.178804
1955.43	0.380854
1956.91	0.273913
1958.4	0.0476322
1959.88	-0.0919428
1961.36	0.18065
1962.84	0.298951
1964.32	-0.473928
1965.8	0.448782
1967.27	0.32584
1968.75	-0.6186
1970.23	0.283683
1971.71	0.245023
1973.19	-0.0325851
1974.67	0.236081
1976.14	0.214804
1977.62	0.0744905
1979.1	0.325951
1980.58	0.304893
1982.05	-0.158251
1983.53	-0.0265112
1985	-0.031065
1986.48	0.405126
1987.95	-0.0914612
1989.43	0.191978
1990.9	-0.370477
1992.38	-0.00116539
1993.85	-0.0201159
1995.33	0.333503
1996.8	0.163602
1998.27	0.46665
1999.75	-0.159448
2001.22	0.0918903
2002.69	-0.214066
2004.16	0.491634
2005.64	0.0848789
2007.11	0.13395
2008.58	0.133371
2010.05	0.116782
2011.52	0.504701
2012.99	0.135173
2014.46	0.0177794
2015.93	0.0847826
2017.4	0.134072
2018.87	0.148923
2020.34	0.0120163
2021.81	0.210988
2023.28	0.359717
2024.75	0.0392876
2026.22	0.256948
2027.69	0.00628853
2029.15	0.377638
2030.62	0.163212
2032.09	0.453038
2033.56	0.206341
2035.02	0.127385
2036.49	0.0312176
2037.96	-0.0822945
2039.42	-0.347492
2040.89	-0.0412989
2042.35	0.685742
2043.82	0.236564
2045.28	0.292717
2046.75	-0.374285
2048.21	-0.047863
2049.67	-0.142739
2051.14	0.0648785
2052.6	0.237452
2054.07	0.290291
2055.53	0.0885115
2056.99	0.340687
2058.45	-0.0147095
2059.92	-0.21837
2061.38	0.353021
2062.84	-0.000968933
2064.3	0.521283
2065.76	0.0683327
2067.22	-0.131376
2068.68	-0.044446
2070.14	0.0932941
2071.6	0.53417
2073.06	0.251007
2074.52	0.321154
2075.98	-0.0805273
2077.44	0.0394821
2078.9	0.0580816
2080.36	0.379352
2081.82	0.211772
2083.27	0.279282
2084.73	0.329226
2086.19	0.243867
2087.65	-0.0269594
2089.1	-0.0290213
2090.56	0.405452
2092.02	0.235028
2093.47	-0.170214
2094.93	0.0620222
2096.38	0.645491
2097.84	-0.0788298
2099.29	-0.0160875
2100.75	0.230215
2102.2	0.359376
2103.66	-0.0953121
2105.11	0.319567
2106.56	-0.382398
2108.02	-0.0822649
2109.47	-0.065444
2110.92	0.217604
2112.38	0.432575
2113.83	0.212742
2115.28	0.124847
2116.73	-0.246337
2118.18	-0.134905
2119.63	0.0107288
2121.09	-0.0577478
2122.54	0.0414095
2123.99	0.224752
2125.44	0.0936155
2126.89	0.111484
2128.34	0.211325
2129.79	-0.0712652
2131.23	-0.0897675
2132.68	0.0234632
2134.13	0.119991
2135.58	-0.0804949
2137.03	0.249392
2138.48	-0.245509
2139.92	0.104139
2141.37	0.141267
2142.82	0.344839
2144.27	0.185213
2145.71	0.273832
2147.16	0.0807858
2148.6	-0.262023
2150.05	0.305392
2151.49	0.126533
2152.94	0.261582
2154.38	-0.233709
2155.83	-0.431111
2157.27	0.100451
2158.72	-0.0962725
2160.16	0.221675
2161.6	0.226449
2163.05	0.199701
2164.49	-0.472743
2165.93	0.000132561
2167.38	0.20779
2168.82	0.38155
2170.26	0.370951
2171.7	0.0257502
2173.14	-0.0550432
2174.58	-0.0538359
2176.03	0.146435
2177.47	0.0807695
2178.91	0.265162
2180.35	-0.114873
2181.79	-0.0452642
2183.23	0.0248642
2184.67	0.39465
2186.1	0.0659227
2187.54	0.369387
2188.98	-0.425399
2190.42	-0.15519
2191.86	0.26473
2193.3	0.301153
2194.73	0.61943
2196.17	0.0703945
2197.61	0.285334
2199.05	0.382116
2200.48	0.444588
2201.92	0.357406
2203.35	0.171398
2204.79	0.135819
2206.22	0.498953
2207.66	-0.01577
2209.1	0.463349
2210.53	-0.0186481
2211.97	0.127569
2213.4	0.272931
2214.83	0.583136
2216.27	0.10117
2217.7	0.132202
2219.13	0.329218
2220.57	0.296075
2222	0.197146
2223.43	-0.165944
2224.86	-0.233505
2226.29	0.503824
2227.72	-0.0603266
2229.16	0.163769
2230.59	0.222646
2232.02	0.0845413
2233.45	0.192529
2234.88	-0.091486
2236.31	0.442926
2237.74	0.373914
2239.17	0.241475
2240.6	0.159905
2242.03	0.422503
2243.45	-0.0803452
2244.88	-0.0772676
2246.31	0.218834
2247.74	0.0731239
2249.17	0.300508
2250.59	0.362698
2252.02	0.0650597
2253.45	0.27131
2254.87	-0.204916
2256.3	0.0514441
2257.73	0.342041
2259.15	-0.15987
2260.58	-0.123764
2262	-0.0205812
2263.43	0.116597
2264.85	-0.0383062
2266.28	0.326628
2267.7	-0.252353
2269.13	0.0950022
2270.55	0.0023365
2271.97	0.104567
2273.4	0.239247
2274.82	0.0156822
2276.24	0.232126
2277.67	0.416251
2279.09	0.16036
2280.51	-0.0631113
2281.93	-0.205255
2283.35	-0.0375681
2284.77	0.195513
2286.2	0.0208282
2287.62	-0.333237
2289.04	-0.00114822
2290.46	-0.0279369
2291.88	0.256096
2293.3	0.197049
2294.72	-0.00933075
2296.13	0.324195
2297.55	0.461444
2298.97	0.402263
2300.39	0.310418
2301.81	-0.076407
2303.23	0.209279
2304.64	0.216356
2306.06	0.371177
2307.48	-0.0492649
2308.89	0.170511
2310.31	-0.103396
2311.73	0.0498362
2313.14	0.384115
2314.56	0.439167
2315.98	0.149143
2317.39	0.189057
2318.81	0.526144
2320.22	0.170649
2321.64	0.308821
2323.05	-0.0332856
2324.46	-0.030942
2325.88	0.332348
2327.29	0.462925
2328.7	0.164144
2330.12	0.524716
2331.53	0.342461
2332.94	0.243674
2334.35	-0.183349
2335.77	0.196115
2337.18	0.213166
2338.59	0.114229
2340	0.14579
2341.41	0.209287
2342.82	0.305051
2344.23	0.0890584
2345.64	0.135818
2347.05	-0.0465283
2348.46	0.164231
2349.87	0.112639
2351.28	-0.152093
2352.69	0.0726967
2354.1	0.0351524
2355.51	0.339351
2356.91	-0.301772
2358.32	0.0180593
2359.73	0.0123615
2361.14	0.461206
2362.54	0.114659
2363.95	-0.150285
2365.36	-0.366179
2366.76	0.355892
2368.17	0.0114698
2369.58	0.249325
2370.98	-0.269596
2372.39	-0.0133963
2373.79	-0.271862
2375.2	-0.127359
2376.6	0.016686
2378	0.561604
2379.41	0.0920529
2380.81	-0.137425
2382.22	0.0973115
2383.62	0.0584192
2385.02	0.33932
2386.43	0.212497
2387.83	0.0867896
2389.23	0.17766
2390.63	-0.0650382
2392.03	0.0598392
2393.44	0.0422611
2394.84	0.073164
2396.24	-0.213286
2397.64	-0.228803
2399.04	0.328191
2400.44	0.440593
2401.84	0.203811
2403.24	-0.0963874
2404.64	0.0318942
2406.04	0.556174
2407.44	0.127168
2408.84	0.110163
2410.23	0.172122
2411.63	0.250055
2413.03	0.0594401
2414.43	-0.0507421
2415.83	0.172862
2417.22	0.286843
2418.62	0.0850143
2420.02	0.516929
2421.41	0.457848
2422.81	0.17661
2424.21	0.592198
2425.6	0.183922
2427	0.66354
2428.39	0.00275469
2429.79	0.404972
2431.18	0.173491
2432.58	0.0371842
2433.97	0.472013
2435.36	0.143543
2436.76	-0.0751891
2438.15	-0.00932074
2439.54	0.277759
2440.94	0.119205
2442.33	0.309491
2443.72	0.308944
2445.12	0.260641
2446.51	0.101249
2447.9	0.338051
2449.29	-0.201545
2450.68	0.0828557
2452.07	0.494126
2453.46	-0.106818
2454.85	0.226658
2456.24	0.355031
2457.64	-0.323029
2459.02	-0.305205
2460.41	0.0758486
2461.8	0.203057
2463.19	0.108185
2464.58	0.376225
2465.97	0.248945
2467.36	-0.036171
2468.75	-0.0686359
2470.13	0.245701
2471.52	-0.165771
2472.91	0.273277
2474.3	-0.0603209
2475.68	0.0306964
2477.07	-0.067378
2478.45	0.0859237
2479.84	0.348963
2481.23	0.266787
2482.61	-0.00333834
2484	0.0552936
2485.38	0.00354767
2486.77	-0.080358
2488.15	0.17824
2489.54	0.186163
2490.92	-0.288558
2492.3	0.233214
2493.69	0.351024
2495.07	0.268172
2496.45	0.140123
2497.84	0.0440192
2499.22	0.257852
2500.6	0.115328
2501.98	-0.0740566
2503.36	-0.140459
2504.75	0.0392699
2506.13	-0.074697
2507.51	-0.0193405
2508.89	-0.332967
2510.27	0.106946
2511.65	0.116958
2513.03	0.0663314
2514.41	-0.0600228
2515.79	0.258445
2517.17	-0.21822
2518.55	-0.0211782
2519.93	0.0994
2521.3	0.066885
2522.68	0.0185461
2524.06	-0.137249
2525.44	-0.0648427
2526.82	0.357436
2528.19	-0.0422363
2529.57	0.137437
2530.95	0.272741
2532.32	-0.183099
2533.7	-0.0298672
2535.08	0.19994
2536.45	0.141042
2537.83	0.233451
2539.2	0.233823
2540.58	0.203065
2541.95	0.0657434
2543.33	-0.253315
2544.7	0.0504508
2546.08	-0.00880909
2547.45	0.327406
2548.82	0.330711
2550.2	-0.0300994
2551.57	0.261122
2552.94	0.0962496
2554.32	0.522272
2555.69	0.264575
2557.06	-0.190694
2558.43	0.461081
2559.8	0.263823
2561.18	0.279327
2562.55	-0.00768375
2563.92	-0.294136
2565.29	-0.0649762
2566.66	0.164403
2568.03	0.0756207
2569.4	-0.104106
2570.77	-0.117133
2572.14	0.15786
2573.51	-0.0975928
2574.88	0.101781
2576.25	0.346701
2577.61	0.106387
2578.98	-0.0431848
2580.35	-0.0414519
2581.72	0.157027
2583.09	0.127718
2584.45	0.446867
2585.82	-0.249704
2587.19	-0.142733
2588.55	0.434199
2589.92	0.11703
2591.29	-0.00321865
2592.65	0.254928
2594.02	0.0880876
2595.38	0.117276
2596.75	-0.0209947
2598.11	0.203226
2599.48	0.0488691
2600.84	-0.392316
2602.21	0.300061
2603.57	0.297992
2604.93	0.462424
2606.3	0.264892
2607.66	0.338616
2609.02	-0.0105062
2610.39	0.00115776
2611.75	0.207277
2613.11	0.306721
2614.47	0.0897961
2615.83	0.24821
2617.19	-0.0282125
2618.56	0.160693
2619.92	0.200319
2621.28	-0.0136371
2622.64	0.0421338
2624	0.0383034
2625.36	0.0493436
2626.72	-0.133723
2628.08	0.174908
2629.44	-0.246797
2630.8	0.0758581
2632.15	0.0262442
2633.51	-0.082757
2634.87	0.357532
2636.23	0.278028
2637.59	-0.0384545
2638.94	0.282274
2640.3	0.173589
2641.66	-0.00861979
2643.02	0.149457
2644.37	0.0122046
2645.73	-0.124933
2647.09	0.150523
2648.44	0.513292
2649.8	0.2713
2651.15	0.35255
2652.51	0.110247
2653.86	0.499481
2655.22	-0.0787253
2656.57	0.121244
2657.93	0.263423
2659.28	0.0112829
2660.63	0.169163
2661.99	0.414435
2663.34	0.045434
2664.69	0.0410576
2666.05	-0.0515099
2667.4	0.234549
2668.75	-0.0332937
2670.1	0.048727
2671.45	-0.0870032
2672.81	0.301087
2674.16	0.0503173
2675.51	0.0906196
2676.86	-0.0572181
2678.21	0.114711
2679.56	-0.11871
2680.91	0.330276
2682.26	-0.118581
2683.61	0.274563
2684.96	0.0160432
2686.31	0.0189533
2687.66	-0.0653701
2689	0.03795
2690.35	0.0526781
2691.7	0.297985
2693.05	0.570735
2694.4	0.262278
2695.74	0.359766
2697.09	-0.00582743
2698.44	0.19477
2699.79	-0.0231004
2701.13	0.412215
2702.48	-0.121393
2703.83	0.0266171
2705.17	0.175215
2706.52	0.222473
2707.86	0.0808864
2709.21	0.0259104
2710.55	-0.0730147
2711.9	0.0892329
2713.24	0.469417
2714.58	-0.0659742
2715.93	0.24157
2717.27	0.171009
2718.62	0.0419869
2719.96	0.596466
2721.3	0.131984
2722.65	0.30735
2723.99	0.307631
2725.33	0.176506
2726.67	0.3798
2728.01	0.146154
2729.35	0.145165
2730.7	0.245892
2732.04	0.477497
2733.38	0.0981526
2734.72	0.184498
2736.06	0.140109
2737.4	0.183105
2738.74	-0.210219
2740.08	0.210641
2741.42	0.0639143
2742.76	0.192859
2744.1	0.277498
2745.43	-0.146958
2746.77	-0.0341744
2748.11	-0.371626
2749.45	0.292359
2750.79	-0.0157337
2752.12	0.111565
2753.46	-0.00739861
2754.8	0.10568
2756.14	-0.432962
2757.47	0.28857
2758.81	0.12692
2760.14	-0.0487838
2761.48	0.224604
2762.81	0.0353332
2764.15	-0.19704
2765.49	-0.0821595
2766.82	0.263772
2768.16	0.203751
2769.49	-0.146595
2770.82	0.0801368
2772.16	0.247583
2773.49	0.240654
2774.82	0.0602317
2776.16	0.196968
2777.49	0.0315728
2778.82	0.21206
2780.16	0.0191398
2781.49	-0.245028
2782.82	-0.0351844
2784.15	-0.298944
2785.48	0.340533
2786.82	0.134308
2788.15	0.000362396
2789.48	0.339414
2790.81	-0.00749016
2792.14	0.175571
2793.47	-0.284316
2794.8	-0.286619
2796.13	0.125148
2797.46	0.0933833
2798.79	-0.267267
2800.12	0.0855961
2801.44	-0.132711
2802.77	0.176563
2804.1	0.129019
2805.43	0.252029
2806.76	-0.0384369
2808.08	0.126055
2809.41	-0.122231
2810.74	0.0985141
2812.07	0.0356665
2813.39	0.186672
2814.72	0.282164
2816.05	-0.173858
2817.37	-0.0192966
2818.7	-0.176034
2820.02	-0.162674
2821.35	0.218787
2822.67	0.231118
2824	0.214531
2825.32	0.240125
2826.65	0.01085
2827.97	0.00867033
2829.3	-0.233665
2830.62	-0.291522
2831.94	-0.037765
2833.26	-0.18041
2834.59	0.186226
2835.91	0.184395
2837.23	0.422622
2838.56	0.363283
2839.88	0.23308
2841.2	0.7534
2842.52	0.708463
2843.84	0.946812
2845.16	0.917293
2846.48	1.18515
2847.8	1.3827
2849.12	0.972549
2850.45	1.21227
2851.77	0.82965
2853.08	1.57723
2854.4	1.36338
2855.72	1.24833
2857.04	1.48646
2858.36	1.35735
2859.68	1.75078
2861	1.53678
2862.32	1.67549
2863.63	1.8138
2864.95	1.59905
2866.27	2.23077
2867.59	2.65088
2868.9	2.46495
2870.22	2.60377
2871.54	2.47488
2872.85	2.62765
2874.17	2.86418
2875.48	3.07135
2876.8	2.89712
2878.11	2.86297
2879.43	3.08173
2880.74	3.16001
2882.06	3.09856
2883.37	3.10844
2884.69	2.8104
2886	3.27114
2887.31	2.55283
2888.63	3.25164
2889.94	3.19181
2891.25	3.17324
2892.57	2.9719
2893.88	3.24688
2895.19	3.55
2896.5	3.41979
2897.82	2.99688
2899.13	3.76439
2900.44	3.60921
2901.75	3.48252
2903.06	3.49594
2904.37	3.67737
2905.68	3.45344
2906.99	3.62173
2908.3	4.01467
2909.61	3.58308
2910.92	4.13152
2912.23	4.14828
2913.54	4.48631
2914.85	4.30498
2916.16	4.42994
2917.46	4.70725
2918.77	4.80151
2920.08	5.13332
2921.39	4.69663
2922.7	4.89046
2924	5.19749
2925.31	5.10033
2926.62	5.15757
2927.92	5.08907
2929.23	5.59339
2930.54	5.37019
2931.84	5.63581
2933.15	5.5517
2934.45	5.5794
2935.76	5.4535
2937.06	5.62128
2938.37	5.17439
2939.67	5.04924
2940.98	5.13422
2942.28	4.8847
2943.58	4.20307
2944.89	4.26342
2946.19	4.17111
2947.49	4.34517
2948.8	3.87532
2950.1	4.23014
2951.4	4.09331
2952.7	3.89864
2954.01	3.71668
2955.31	3.42245
2956.61	3.45105
2957.91	3.28561
2959.21	3.52868
2960.51	3.21425
2961.81	3.72847
2963.11	3.37441
2964.41	3.34223
2965.71	3.26656
2967.01	2.71142
2968.31	3.01225
2969.61	3.186
2970.91	2.71274
2972.21	3.12588
2973.51	3.27222
2974.81	2.94006
2976.1	2.74795
2977.4	2.63908
2978.7	2.85245
2980	2.86701
2981.29	2.61292
2982.59	1.97876
2983.89	2.2593
2985.18	1.82392
2986.48	1.78363
2987.78	1.75878
2989.07	1.88947
2990.37	1.66912
2991.66	1.18129
2992.96	1.52175
2994.25	1.14438
2995.55	1.08928
2996.84	1.17398
2998.14	1.38474
2999.43	1.00643
3000.73	0.825264
3002.02	1.02323
3003.31	0.829159
3004.61	0.733391
3005.9	0.301384
3007.19	0.611108
3008.48	0.821886
3009.77	0.779946
3011.07	0.51384
3012.36	0.0802407
3013.65	0.358821
3014.94	0.484047
3016.23	0.637634
3017.52	0.527248
3018.81	0.403599
3020.1	0.280196
3021.4	0.184379
3022.68	0.199083
3023.97	0.296186
3025.26	0.184507
3026.55	0.155984
3027.84	-0.162591
3029.13	-0.258385
3030.42	-0.186911
3031.71	0.162009
3033	0.180316
3034.28	0.0747581
3035.57	0.0240273
3036.86	-0.23455
3038.15	0.18077
3039.43	-0.0255971
3040.72	-0.109126
3042.01	0.204841
3043.29	0.380877
3044.58	0.393031
3045.87	-0.0717921
3047.15	-0.123902
3048.44	0.48151
3049.72	0.0375209
3051.01	0.141061
3052.29	0.177168
3053.58	0.0769024
3054.86	0.289914
3056.15	0.420114
3057.43	-0.0232797
3058.71	0.473202
3060	0.192817
3061.28	0.1717
3062.56	0.382756
3063.84	0.159882
3065.13	-0.115807
3066.41	0.0856361
3067.69	0.274464
3068.97	0.246196
3070.26	0.149756
3071.54	0.256612
3072.82	-0.167923
3074.1	0.154423
3075.38	-0.0949249
3076.66	0.0224342
3077.94	-0.0499258
3079.22	-0.0126696
3080.5	0.175171
3081.78	0.283059
3083.06	0.365043
3084.34	0.0542674
3085.62	0.191372
3086.9	0.0431705
3088.18	0.0708423
3089.45	-0.119175
3090.73	-0.0787702
3092.01	0.368572
3093.29	0.0835061
3094.56	-0.296021
3095.84	0.179102
3097.12	0.139095
3098.4	0.0720229
3099.67	0.0862508
3100.95	0.141124
3102.22	0.0606856
3103.5	-0.12768
3104.78	-0.207134
3106.05	0.133689
3107.33	-0.363678
3108.6	0.195513
3109.88	0.133225
3111.15	0.247883
3112.43	-0.246167
3113.7	0.330385
3114.97	0.09411
3116.25	0.454016
3117.52	0.230202
3118.79	0.39882
3120.07	0.254601
3121.34	0.32665
3122.61	0.425302
3123.88	0.65928
3125.16	0.581899
3126.43	0.220887
3127.7	0.5778
3128.97	0.569868
3130.24	0.724638
3131.51	0.757876
3132.79	0.709995
3134.06	0.742954
3135.33	0.586501
3136.6	0.578249
3137.87	0.138261
3139.14	0.453095
3140.41	1.17119
3141.67	0.772074
3142.94	0.575554
3144.21	0.755849
3145.48	0.882883
3146.75	0.863003
3148.02	1.00466
3149.29	0.879056
