200.407	0.596587
202.221	0.618348
204.035	0.641697
205.849	-0.0636787
207.665	0.00980377
209.478	-0.233221
211.291	-0.307056
213.104	-0.0179777
214.916	0.148334
216.73	0.580403
218.541	0.0188046
220.352	-0.275245
222.163	-0.108528
223.973	-0.158779
225.785	0.0573807
227.595	0.684041
229.404	-0.139028
231.213	0.341377
233.022	0.338492
234.83	-0.0981541
236.638	-0.123571
238.448	0.359079
240.255	-0.0477839
242.062	0.101868
243.868	0.397646
245.675	-0.488955
247.48	-0.315401
249.286	-0.216689
251.091	0.0722265
252.896	0.59965
254.702	-0.322559
256.506	-0.111152
258.31	-0.0679665
260.113	0.07304
261.916	0.215778
263.719	-0.0253687
265.521	-0.193304
267.323	-0.0236015
269.125	0.411008
270.926	0.169889
272.727	0.0481272
274.527	0.045537
276.328	0.137784
278.127	0.300475
279.927	0.0997648
281.726	0.162057
283.525	-0.0180759
285.323	0.185118
287.121	0.0990763
288.919	0.0131388
290.716	0.0956888
292.513	0.131413
294.31	0.264216
296.104	-0.175555
297.9	-0.255457
299.696	0.238557
301.491	0.111069
303.286	0.0306044
305.081	-0.0509853
306.875	0.295901
308.669	0.141515
310.463	-0.321983
312.256	0.263895
314.047	0.0413427
315.839	0.368229
317.631	0.0538683
319.423	0.264887
321.215	0.191167
323.006	0.308875
324.794	0.522542
326.585	0.306811
328.375	0.2578
330.165	-0.174423
331.954	0.204974
333.741	0.104504
335.53	0.456631
337.318	0.160462
339.106	0.508263
340.894	0.375977
342.679	0.147316
344.466	0.587776
346.253	-0.0703773
348.039	-0.249928
349.823	0.52594
351.608	0.490007
353.393	0.739881
355.176	0.344479
356.961	0.591871
358.745	-0.615973
360.529	0.296081
362.31	0.468217
364.093	-0.216681
365.876	-0.0458746
367.657	0.0289221
369.439	0.173869
371.221	0.483467
373	-0.249373
374.781	0.0352688
376.56	-0.223664
378.34	-0.316531
380.12	-0.0550671
381.898	0.324656
383.677	0.657969
385.456	-0.418358
387.233	0.128808
389.011	0.535674
390.787	0.0507927
392.565	0.0130091
394.34	-0.141645
396.117	0.408579
397.894	-0.403257
399.668	0.428747
401.444	-0.125401
403.217	-0.257385
404.993	-0.131701
406.766	0.251541
408.54	-0.469407
410.312	0.124083
412.086	0.154091
413.858	-0.0971365
415.631	0.403148
417.402	-0.128264
419.174	0.279507
420.944	0.12432
422.716	0.367921
424.486	0.258756
426.257	-0.0156307
428.025	0.577763
429.794	0.137762
431.564	0.237609
433.332	-0.131684
435.101	-0.00780392
436.868	0.303799
438.637	-0.253598
440.403	-0.366352
442.169	0.152481
443.937	0.457796
445.703	0.386061
447.468	0.383445
449.234	-0.204278
450.999	0.540825
452.765	0.0477057
454.528	0.371991
456.292	-0.23655
458.057	0.0639763
459.819	-0.0780792
461.582	-0.126332
463.344	-0.0569496
465.107	0.409544
466.868	-0.0507793
468.629	0.0723143
470.392	-0.0119915
472.152	-0.0725203
473.912	0.587969
475.672	0.222542
477.433	0.83323
479.192	0.626786
480.951	0.442627
482.709	0.118856
484.469	0.471587
486.226	0.104073
487.984	0.670599
489.74	0.820006
491.499	0.41048
493.255	0.327986
495.011	0.80681
496.767	0.420346
498.522	0.431188
500.277	0.957518
502.033	0.334069
503.788	0.906652
505.541	0.209714
507.295	0.192606
509.048	0.338705
510.801	0.53041
512.553	0.720618
514.308	0.697562
516.06	0.437895
517.811	0.906218
519.562	0.174286
521.313	0.311636
523.063	0.237012
524.814	0.702087
526.563	0.533239
528.313	0.575606
530.062	0.570956
531.811	-0.0430498
533.559	0.864404
535.308	0.833852
537.055	0.311171
538.803	0.208355
540.55	0.454431
542.297	0.605966
544.043	0.244908
545.789	0.512064
547.535	0.0360479
549.281	0.303195
551.026	0.546785
552.771	0.257994
554.515	0.177956
556.259	-0.294087
558.003	0.203691
559.747	0.401475
561.49	0.323204
563.233	0.0845985
564.975	0.260632
566.717	-0.0453558
568.459	0.430323
570.2	-0.0343266
571.942	0.190859
573.68	0.211051
575.421	0.439382
577.161	0.600582
578.901	0.0974884
580.64	0.260736
582.379	0.654061
584.118	0.38056
585.855	0.266849
587.593	-0.193185
589.331	0.495842
591.068	0.102689
592.805	0.192168
594.54	0.189455
596.277	-0.250363
598.013	-0.713213
599.749	0.273031
601.484	0.200198
603.217	-0.0807734
604.952	0.00490952
606.687	0.0433331
608.421	-0.0338926
610.153	-0.248885
611.886	-0.00447655
613.619	0.423828
615.35	0.27947
617.083	0.249954
618.815	-0.12353
620.547	0.257728
622.276	-0.231908
624.008	-0.013051
625.738	0.0912304
627.467	-0.0776329
629.197	0.348783
630.927	-0.363677
632.655	0.203647
634.384	-0.0494957
636.113	0.016614
637.839	0.126848
639.568	0.439944
641.293	0.156911
643.021	0.23656
644.748	0.496973
646.473	0.188456
648.2	0.655005
649.924	-0.148365
651.65	0.165428
653.376	0.0283813
655.099	-0.105711
656.824	0.308555
658.546	-0.59741
660.271	0.411051
661.993	0.323781
663.716	0.736968
665.438	0.233709
667.161	0.231376
668.881	0.342635
670.604	0.0656109
672.324	0.408094
674.045	0.20366
675.765	0.551028
677.486	1.06092
679.204	0.423679
680.925	0.0831442
682.643	0.453587
684.361	0.0398331
686.08	0.637048
687.797	-0.194956
689.516	0.445997
691.232	0.533484
692.95	0.482148
694.666	0.33798
696.382	0.0317364
698.099	0.323076
699.813	0.359907
701.528	0.142617
703.244	0.0625772
704.958	0.510241
706.673	0.382973
708.387	0.507761
710.099	0.677798
711.814	0.343514
713.526	0.810088
715.238	0.612889
716.949	1.00962
718.663	0.903839
720.374	1.04914
722.084	0.943848
723.796	1.04355
725.506	0.551905
727.216	1.24193
728.925	0.841054
730.636	1.05257
732.345	0.674448
734.053	0.636251
735.761	0.485153
737.471	0.583041
739.178	0.816753
740.885	0.577602
742.592	1.17341
744.298	1.16194
746.006	0.859324
747.712	0.738266
749.417	0.506073
751.122	1.24228
752.827	1.17003
754.532	1.2116
756.236	1.65976
757.942	1.25427
759.645	1.30038
761.348	0.829138
763.051	1.21512
764.753	0.743424
766.456	1.49014
768.158	0.721332
769.859	1.37443
771.56	1.23427
773.261	1.45447
774.964	1.65152
776.664	1.44208
778.364	1.68611
780.064	1.79606
781.763	2.08822
783.462	1.58869
785.16	1.20099
786.859	1.37689
788.557	1.64022
790.255	1.87741
791.952	1.13962
793.649	1.66597
795.346	1.89773
797.042	1.83694
798.738	1.32747
800.434	1.49569
802.127	1.2827
803.823	1.2055
805.517	1.42049
807.212	1.43227
808.906	1.35307
810.6	1.72163
812.293	1.48324
813.987	1.26705
815.68	1.02857
817.372	1.59569
819.064	1.51378
820.754	1.65548
822.446	1.93118
824.137	1.49375
825.828	1.54849
827.519	2.02846
829.209	1.13021
830.897	2.17257
832.587	1.72563
834.276	0.790075
835.966	1.72801
837.654	1.97507
839.341	1.39508
841.029	1.52783
842.717	1.54759
844.404	1.70091
846.091	1.31848
847.776	1.83189
849.463	1.9008
851.149	1.45737
852.833	1.7323
854.519	1.78441
856.204	1.61189
857.889	1.50538
859.572	1.32953
861.256	1.66951
862.94	1.10711
864.622	1.35425
866.305	1.2174
867.988	1.4406
869.669	0.874072
871.351	1.0514
873.033	1.34139
874.713	0.864214
876.395	0.973636
878.074	0.834836
879.755	1.01192
881.435	1.61761
883.114	1.04873
884.794	0.907719
886.471	0.923404
888.15	0.960125
889.829	0.859964
891.506	1.34445
893.184	1.51163
894.861	0.97981
896.538	0.425387
898.214	0.477469
899.891	0.999605
901.566	1.16127
903.242	0.94154
904.916	0.565722
906.592	1.03922
908.266	0.821044
909.941	0.670987
911.614	1.25626
913.288	0.907579
914.961	0.559937
916.635	1.1225
918.306	0.952586
919.979	1.04877
921.651	1.16744
923.321	1.15437
924.994	0.568551
926.664	1.33199
928.336	0.573522
930.005	0.611092
931.674	1.75248
933.345	0.577479
935.014	0.836697
936.682	0.919809
938.352	1.29044
940.019	0.934442
941.687	1.10899
943.356	1.04163
945.022	0.952059
946.689	1.25871
948.357	0.835128
950.022	1.00565
951.688	1.15277
953.355	0.991019
955.02	1.27184
956.684	1.35691
958.348	0.761457
960.014	0.896575
961.678	0.967175
963.341	0.971508
965.004	0.885762
966.669	0.952209
968.331	0.661882
969.993	0.745596
971.655	1.00533
973.316	0.977866
974.979	1.04026
976.64	0.839072
978.3	0.860521
979.961	1.0597
981.62	0.993021
983.28	1.01355
984.941	0.965732
986.6	1.11504
988.259	0.731443
989.917	0.877636
991.575	0.625187
993.233	0.483279
994.89	0.363682
996.547	0.884125
998.204	1.1614
999.86	1.15165
1001.52	1.8462
1003.17	1.83514
1004.83	1.82372
1006.49	0.80131
1008.14	0.90041
1009.79	0.385241
1011.45	0.507142
1013.1	0.563574
1014.76	0.773647
1016.41	-0.110712
1018.06	0.406681
1019.72	0.683764
1021.37	0.568104
1023.02	-0.20215
1024.67	0.864566
1026.32	0.489358
1027.97	1.2286
1029.62	0.590721
1031.27	0.978409
1032.92	1.1459
1034.57	1.37696
1036.22	0.472526
1037.87	0.897508
1039.52	0.516287
1041.17	0.723552
1042.82	1.04049
1044.47	0.424579
1046.11	0.180282
1047.76	0.545966
1049.41	0.97838
1051.06	0.304408
1052.7	0.695527
1054.35	0.565682
1055.99	0.370585
1057.64	0.349047
1059.28	0.174836
1060.93	0.543585
1062.57	0.73765
1064.22	0.452439
1065.86	0.731496
1067.5	0.791999
1069.15	0.0258894
1070.79	0.0849876
1072.43	0.274113
1074.08	0.398423
1075.72	0.610389
1077.36	0.62838
1079	0.409071
1080.64	0.94951
1082.28	0.514162
1083.92	0.53335
1085.56	0.442573
1087.2	0.0682058
1088.84	0.493439
1090.48	0.267227
1092.12	0.278016
1093.76	0.957726
1095.39	0.428059
1097.03	0.395954
1098.67	0.666766
1100.31	0.659096
1101.94	0.115395
1103.58	0.197635
1105.22	0.367168
1106.85	0.0210629
1108.49	0.728529
1110.12	0.59616
1111.76	0.311855
1113.39	0.283995
1115.03	-0.260304
1116.66	0.418353
1118.29	0.603063
1119.93	0.638227
1121.56	0.952697
1123.19	0.583067
1124.82	0.407281
1126.46	0.574698
1128.09	0.336505
1129.72	0.0563374
1131.35	0.396788
1132.98	0.609219
1134.61	0.116099
1136.24	-0.142402
1137.87	0.0255737
1139.5	0.320452
1141.13	-0.239905
1142.76	-0.0960445
1144.39	-0.10152
1146.01	0.1921
1147.64	0.0175648
1149.27	-0.219934
1150.9	0.309965
1152.53	0.413732
1154.15	-0.50478
1155.78	-0.146167
1157.4	0.14826
1159.03	0.0812511
1160.65	-0.00618362
1162.28	0.141356
1163.9	-0.135372
1165.53	-0.177714
1167.15	0.693987
1168.78	0.416513
1170.4	0.562554
1172.02	0.132915
1173.65	0.487559
1175.27	-0.0718355
1176.89	0.450244
1178.51	0.505658
1180.14	0.138312
1181.76	-0.248818
1183.38	-0.106296
1185	0.120646
1186.62	0.0296783
1188.24	0.40147
1189.86	0.138283
1191.48	0.421165
1193.1	-0.0130587
1194.71	0.266924
1196.33	0.00097084
1197.95	0.197263
1199.57	0.185608
1201.19	0.552359
1202.8	0.858564
1204.42	0.415802
1206.04	0.768383
1207.65	0.934467
1209.27	0.787948
1210.88	0.724099
1212.5	0.596013
1214.12	0.486641
1215.73	0.604187
1217.35	0.615662
1218.96	0.729942
1220.57	0.470154
1222.19	0.875189
1223.8	0.700566
1225.41	0.651991
1227.03	0.563638
1228.64	1.05592
1230.25	0.825474
1231.86	0.927129
1233.47	1.00933
1235.08	1.38216
1236.69	1.36358
1238.31	1.49083
1239.92	1.37073
1241.52	1.68514
1243.13	1.25459
1244.74	1.54727
1246.35	1.48714
1247.96	1.63284
1249.57	0.970761
1251.18	0.92912
1252.78	1.19796
1254.39	1.55023
1256	1.80022
1257.6	0.99656
1259.21	0.855941
1260.82	1.19225
1262.42	1.32224
1264.03	1.18307
1265.63	1.35423
1267.24	1.29672
1268.84	1.07234
1270.45	1.42739
1272.05	1.24225
1273.65	0.952397
1275.26	1.55291
1276.86	0.888076
1278.46	1.21714
1280.06	0.717035
1281.67	1.31398
1283.27	1.12436
1284.87	0.935443
1286.47	1.18168
1288.07	0.953504
1289.67	0.974336
1291.27	0.995699
1292.87	1.49221
1294.47	1.34742
1296.07	1.46984
1297.67	1.2189
1299.27	1.09026
1300.87	1.3107
1302.47	1.73547
1304.06	1.31466
1305.66	1.16115
1307.26	1.41818
1308.85	1.28452
1310.45	1.80694
1312.05	1.98063
1313.64	1.84798
1315.24	1.71667
1316.83	1.6887
1318.43	1.80422
1320.02	1.71558
1321.62	1.56504
1323.21	1.27068
1324.8	1.76788
1326.4	1.8157
1327.99	1.82221
1329.59	2.03171
1331.18	1.77727
1332.77	2.15213
1334.36	2.10489
1335.95	2.60441
1337.54	1.87378
1339.14	2.11082
1340.73	1.98316
1342.32	1.87347
1343.91	1.60102
1345.5	1.66925
1347.09	1.7975
1348.67	1.28633
1350.26	1.8394
1351.85	1.53444
1353.44	1.87182
1355.03	1.27103
1356.62	1.07065
1358.2	1.16961
1359.79	0.868139
1361.38	0.865223
1362.96	1.24045
1364.55	0.937016
1366.14	1.71009
1367.72	1.06927
1369.31	1.24644
1370.89	1.14637
1372.48	0.709526
1374.06	0.890731
1375.64	1.43081
1377.23	1.13531
1378.81	1.35666
1380.39	1.0397
1381.98	0.920422
1383.56	1.17768
1385.14	1.09577
1386.72	0.933961
1388.3	0.673153
1389.89	1.02857
1391.47	0.868737
1393.05	0.868531
1394.63	1.22574
1396.21	-0.0631723
1397.79	0.967228
1399.37	1.22309
1400.95	1.22023
1402.52	1.15734
1404.1	0.71858
1405.68	1.13105
1407.26	1.12898
1408.84	1.06854
1410.42	1.12721
1411.99	1.20557
1413.57	1.16483
1415.15	0.965327
1416.72	1.33702
1418.3	0.978607
1419.87	0.876987
1421.45	0.835608
1423.02	1.07145
1424.6	1.15146
1426.17	0.9179
1427.75	1.15731
1429.32	1.53426
1430.89	1.47723
1432.47	1.26155
1434.04	1.53676
1435.61	1.3983
1437.18	1.73198
1438.76	1.77142
1440.33	2.22467
1441.9	2.18762
1443.47	2.40688
1445.04	2.09594
1446.61	2.09966
1448.18	2.51636
1449.75	2.32402
1451.32	2.76136
1452.89	2.72748
1454.46	2.458
1456.03	2.46383
1457.6	2.58704
1459.16	2.53171
1460.73	2.17922
1462.3	2.02148
1463.87	2.19631
1465.43	1.83904
1467	1.91388
1468.56	1.71415
1470.13	1.39783
1471.7	1.3576
1473.26	0.906679
1474.83	1.29997
1476.39	0.987741
1477.96	0.518885
1479.52	0.402921
1481.08	1.09047
1482.65	0.503956
1484.21	0.564082
1485.77	0.702203
1487.34	0.819917
1488.9	0.818754
1490.46	0.796136
1492.02	0.556231
1493.58	0.255946
1495.15	0.013032
1496.71	0.490567
1498.27	0.188236
1499.83	0.606287
1501.39	0.558516
1502.95	0.744772
1504.51	0.505348
1506.07	0.266659
1507.63	0.182531
1509.18	0.677145
1510.74	0.378302
1512.3	0.541825
1513.86	0.454301
1515.41	0.232611
1516.97	0.319228
1518.53	0.579003
1520.08	0.0726109
1521.64	-0.355927
1523.2	0.0762997
1524.75	0.182244
1526.31	0.344126
1527.86	0.085742
1529.42	0.416965
1530.97	0.671241
1532.52	0.394402
1534.08	0.422166
1535.63	0.602241
1537.19	0.499463
1538.74	0.737384
1540.29	0.880957
1541.84	0.98668
1543.4	0.621601
1544.95	0.727076
1546.5	0.324973
1548.05	0.767883
1549.6	0.797468
1551.15	0.471396
1552.7	1.19406
1554.25	0.851041
1555.8	1.01426
1557.35	0.656477
1558.9	0.543588
1560.45	0.880416
1562	1.08827
1563.54	0.812276
1565.09	1.15258
1566.64	0.709311
1568.19	0.900283
1569.73	1.31489
1571.28	0.758475
1572.83	1.24709
1574.37	1.15687
1575.92	1.17868
1577.47	0.995362
1579.01	1.33519
1580.56	1.19027
1582.1	1.12082
1583.64	1.31377
1585.19	0.928294
1586.73	1.08523
1588.28	0.43819
1589.82	1.19379
1591.36	0.714098
1592.9	1.31964
1594.45	1.30713
1595.99	1.55696
1597.53	1.47002
1599.07	1.64622
1600.61	1.99217
1602.15	1.38181
1603.69	1.20272
1605.23	1.09792
1606.77	1.687
1608.31	1.18412
1609.85	1.59974
1611.39	1.97513
1612.93	1.24001
1614.47	1.59285
1616.01	1.28829
1617.55	1.24699
1619.08	1.8252
1620.62	1.28086
1622.16	1.00043
1623.7	0.421438
1625.23	1.19042
1626.77	1.4905
1628.3	1.30262
1629.84	1.35653
1631.37	1.52139
1632.91	1.16262
1634.44	1.56991
1635.98	1.41788
1637.51	1.67727
1639.05	1.15415
1640.58	1.45148
1642.11	2.0274
1643.65	1.7823
1645.18	1.1826
1646.71	1.996
1648.24	1.35846
1649.78	2.0963
1651.31	2.16617
1652.84	2.55269
1654.37	2.34688
1655.9	1.66007
1657.43	2.21509
1658.96	2.21322
1660.49	1.8767
1662.02	1.66848
1663.55	2.40207
1665.08	1.65618
1666.61	2.05609
1668.14	1.84799
1669.66	2.12101
1671.19	2.52444
1672.72	2.52365
1674.25	2.4866
1675.77	1.95226
1677.3	1.96951
1678.83	1.28649
1680.35	1.74296
1681.88	1.79381
1683.4	1.44022
1684.93	0.775214
1686.45	1.21173
1687.98	1.15334
1689.5	1.13207
1691.03	1.23925
1692.55	1.51112
1694.07	1.38025
1695.6	1.06651
1697.12	0.716295
1698.64	1.1331
1700.17	1.01969
1701.69	0.81469
1703.21	1.01032
1704.73	0.713378
1706.25	0.725757
1707.77	0.828701
1709.29	1.04036
1710.81	0.798029
1712.33	0.465624
1713.85	1.02172
1715.37	0.454581
1716.89	-0.12977
1718.41	0.443391
1719.93	0.401543
1721.45	0.396021
1722.97	0.769673
1724.49	0.945644
1726	0.510543
1727.52	0.25722
1729.04	0.56292
1730.55	0.260216
1732.07	0.283684
1733.59	0.600105
1735.1	0.567428
1736.62	0.0500221
1738.13	0.2304
1739.65	0.383252
1741.16	0.293833
1742.68	0.265303
1744.19	0.182683
1745.7	0.465104
1747.22	0.36933
1748.73	0.303921
1750.24	0.466712
1751.76	0.436561
1753.27	0.399017
1754.78	0.406748
1756.29	-0.0574808
1757.8	0.443129
1759.31	0.412475
1760.83	0.434257
1762.34	0.158537
1763.85	0.032198
1765.36	-0.00579071
1766.87	-0.0320625
1768.38	0.24176
1769.89	0.299105
1771.39	-0.0301952
1772.9	0.215914
1774.41	0.0663538
1775.92	0.384639
1777.43	0.32398
1778.94	0.150345
1780.44	0.214217
1781.95	0.183265
1783.46	0.0762482
1784.96	0.0265532
1786.47	-0.0667906
1787.97	0.0674381
1789.48	-0.0271788
1790.99	-0.0589418
1792.49	0.167873
1794	0.219518
1795.5	-0.153618
1797	0.0993414
1798.51	-0.0553799
1800.01	0.0291176
1801.51	0.186036
1803.02	0.255562
1804.52	0.0896053
1806.02	0.0835676
1807.53	0.29283
1809.03	0.00456715
1810.53	0.345407
1812.03	0.225384
1813.53	0.156053
1815.03	-0.20687
1816.53	0.170855
1818.03	-0.312665
1819.53	-0.322062
1821.03	0.181808
1822.53	0.159692
1824.03	-0.0435438
1825.53	-0.169775
1827.03	0.0501957
1828.53	-0.0702152
1830.02	0.4311
1831.52	-0.0207043
1833.02	0.069869
1834.52	0.0856733
1836.01	0.0609722
1837.51	0.228309
1839.01	0.0938606
1840.5	-0.223023
1842	0.0170527
1843.49	-0.00307274
1844.99	0.294195
1846.48	0.0815182
1847.98	0.151674
1849.47	-0.0505724
1850.97	0.333454
1852.46	0.0946913
1853.95	0.133398
1855.45	0.201647
1856.94	-0.100992
1858.43	0.332822
1859.93	0.207096
1861.42	0.19516
1862.91	0.106025
1864.4	-0.168037
1865.89	-0.0671806
1867.38	0.146465
1868.87	0.420531
1870.36	0.162272
1871.85	0.379542
1873.34	0.0266819
1874.83	-0.0311546
1876.32	-0.133901
1877.81	0.0470037
1879.3	0.249733
1880.79	-0.151838
1882.28	-0.199342
1882.52	-0.192185
1884.02	-0.210804
1885.51	-0.0559731
1887.01	0.411305
1888.5	0.181232
1889.99	0.264787
1891.49	-0.259338
1892.98	0.348692
1894.47	0.663006
1895.97	0.457477
1897.46	0.00933361
1898.95	0.117541
1900.44	0.102914
1901.93	0.260495
1903.42	0.13783
1904.91	0.0310736
1906.4	0.722786
1907.89	0.215549
1909.38	-0.134313
1910.87	0.159092
1912.36	0.366567
1913.85	0.140994
1915.34	-0.153755
1916.83	0.0020237
1918.32	-0.276146
1919.8	-0.190758
1921.29	-0.00159359
1922.78	0.153259
1924.27	0.0493069
1925.75	-0.00146484
1927.24	-0.18959
1928.73	-0.0307779
1930.21	-0.374141
1931.7	-0.0083704
1933.18	0.425092
1934.67	-0.0956287
1936.15	0.385763
1937.64	0.433041
1939.12	0.566132
1940.61	0.112296
1942.09	0.384745
1943.57	0.0198421
1945.06	0.173476
1946.54	0.120558
1948.02	0.0846586
1949.51	-0.210401
1950.99	0.113603
1952.47	0.505073
1953.95	0.603071
1955.43	-0.0724096
1956.91	0.455488
1958.4	-0.20071
1959.88	-0.0148849
1961.36	0.222799
1962.84	-0.156538
1964.32	0.0467644
1965.8	0.0781012
1967.27	0.314049
1968.75	0.0529757
1970.23	0.201828
1971.71	0.418507
1973.19	0.395857
1974.67	0.134568
1976.14	0.180637
1977.62	0.499347
1979.1	0.0517912
1980.58	0.0810776
1982.05	0.144141
1983.53	0.104875
1985	0.235036
1986.48	0.0424938
1987.95	-0.0650415
1989.43	0.319014
1990.9	0.618651
1992.38	0.462333
1993.85	-0.182964
1995.33	0.0180893
1996.8	0.0505381
1998.27	-0.00151157
1999.75	0.182364
2001.22	-0.0395527
2002.69	-0.0762615
2004.16	0.578098
2005.64	0.372845
2007.11	0.488615
2008.58	-0.152374
2010.05	0.487341
2011.52	-0.0340519
2012.99	0.404124
2014.46	0.505138
2015.93	0.386539
2017.4	-0.00207996
2018.87	0.146677
2020.34	0.513124
2021.81	0.0393753
2023.28	0.304994
2024.75	0.28601
2026.22	-0.184566
2027.69	-0.385116
2029.15	0.17065
2030.62	0.627337
2032.09	0.0281153
2033.56	-0.000211716
2035.02	0.592783
2036.49	-0.141357
2037.96	-0.0699129
2039.42	-0.0828934
2040.89	0.00492764
2042.35	0.244514
2043.82	0.199116
2045.28	-0.165067
2046.75	0.346666
2048.21	0.202317
2049.67	-0.2122
2051.14	0.889326
2052.6	-0.168896
2054.07	-0.082448
2055.53	0.0864716
2056.99	-0.201295
2058.45	0.302289
2059.92	0.603168
2061.38	0.39915
2062.84	0.0783291
2064.3	0.330935
2065.76	0.0797119
2067.22	0.13232
2068.68	0.219228
2070.14	-0.0301723
2071.6	0.0908079
2073.06	0.447393
2074.52	0.197556
2075.98	-0.237916
2077.44	0.201905
2078.9	0.186617
2080.36	0.305551
2081.82	0.00295448
2083.27	0.0869141
2084.73	0.271015
2086.19	0.336453
2087.65	0.333912
2089.1	0.0452242
2090.56	0.361298
2092.02	0.32441
2093.47	0.0189943
2094.93	0.334133
2096.38	0.547812
2097.84	0.258024
2099.29	0.302702
2100.75	0.280077
2102.2	0.324561
2103.66	0.520153
2105.11	-0.117568
2106.56	0.247707
2108.02	0.447081
2109.47	0.113129
2110.92	0.0955191
2112.38	0.243176
2113.83	-0.0440817
2115.28	0.166592
2116.73	0.525582
2118.18	0.352765
2119.63	0.347616
2121.09	0.211801
2122.54	0.127876
2123.99	0.211328
2125.44	0.378347
2126.89	0.412427
2128.34	0.561466
2129.79	-0.434411
2131.23	0.142691
2132.68	0.00658989
2134.13	0.267637
2135.58	0.363874
2137.03	-0.629326
2138.48	-0.149462
2139.92	-0.0313625
2141.37	0.468616
2142.82	0.060627
2144.27	0.0831089
2145.71	-0.0266571
2147.16	0.409573
2148.6	0.199519
2150.05	0.253521
2151.49	0.306529
2152.94	0.076848
2154.38	0.293692
2155.83	0.211828
2157.27	0.444787
2158.72	0.0158663
2160.16	-0.0307598
2161.6	-0.25797
2163.05	0.312222
2164.49	0.685534
2165.93	0.412757
2167.38	0.255789
2168.82	0.380165
2170.26	0.319913
2171.7	0.324026
2173.14	-0.0730963
2174.58	0.326884
2176.03	0.543206
2177.47	-0.354368
2178.91	0.0291805
2180.35	0.26402
2181.79	0.25036
2183.23	0.586513
2184.67	0.0082674
2186.1	0.261669
2187.54	0.481918
2188.98	0.103163
2190.42	0.573164
2191.86	0.327175
2193.3	0.0304213
2194.73	0.231815
2196.17	-0.151256
2197.61	0.362431
2199.05	0.657646
2200.48	0.137219
2201.92	-0.0173368
2203.35	-0.253977
2204.79	0.157394
2206.22	0.370501
2207.66	0.120103
2209.1	0.035327
2210.53	0.148464
2211.97	-0.417716
2213.4	0.00788021
2214.83	0.0858707
2216.27	-0.0667305
2217.7	0.161414
2219.13	-0.285522
2220.57	0.0600176
2222	0.257151
2223.43	0.156872
2224.86	0.0717373
2226.29	-0.0644045
2227.72	0.504935
2229.16	0.0535545
2230.59	0.0616932
2232.02	0.462843
2233.45	0.0449858
2234.88	0.315527
2236.31	-0.0176764
2237.74	0.581779
2239.17	0.236165
2240.6	-0.221263
2242.03	-0.0406313
2243.45	0.418511
2244.88	0.0298958
2246.31	0.325655
2247.74	0.211995
2249.17	0.242872
2250.59	0.613502
2252.02	0.281741
2253.45	0.38875
2254.87	0.528365
2256.3	0.442002
2257.73	0.488073
2259.15	0.131579
2260.58	0.167541
2262	0.108659
2263.43	0.392428
2264.85	0.189323
2266.28	0.603507
2267.7	0.675618
2269.13	-0.0832195
2270.55	0.58918
2271.97	0.186717
2273.4	0.288753
2274.82	-0.0326195
2276.24	0.379283
2277.67	0.286348
2279.09	0.209727
2280.51	0.214532
2281.93	0.643287
2283.35	0.435873
2284.77	0.424232
2286.2	0.249578
2287.62	0.271143
2289.04	0.489184
2290.46	0.086895
2291.88	0.174977
2293.3	0.524939
2294.72	0.20435
2296.13	0.128918
2297.55	0.266245
2298.97	0.420119
2300.39	0.279304
2301.81	0.5486
2303.23	0.375503
2304.64	-0.0766592
2306.06	0.242519
2307.48	0.200164
2308.89	0.650336
2310.31	0.195794
2311.73	0.316243
2313.14	0.403811
2314.56	0.195586
2315.98	0.136164
2317.39	0.374052
2318.81	0.266495
2320.22	0.0596085
2321.64	-0.000114441
2323.05	0.119727
2324.46	0.682753
2325.88	0.302695
2327.29	0.498298
2328.7	0.51157
2330.12	0.162659
2331.53	0.0290518
2332.94	0.472728
2334.35	0.160187
2335.77	0.209959
2337.18	0.25923
2338.59	0.258114
2340	-0.0892868
2341.41	0.482337
2342.82	0.429061
2344.23	0.146221
2345.64	0.0279236
2347.05	0.106619
2348.46	0.299829
2349.87	-0.063796
2351.28	-0.313295
2352.69	0.285893
2354.1	0.197684
2355.51	0.271913
2356.91	0.21537
2358.32	-0.00374603
2359.73	0.313886
2361.14	-0.0831757
2362.54	-0.317284
2363.95	0.274962
2365.36	-0.218068
2366.76	-0.208861
2368.17	0.0269661
2369.58	0.0698414
2370.98	0.484774
2372.39	0.417316
2373.79	0.109465
2375.2	0.188598
2376.6	-0.0706005
2378	-0.185923
2379.41	0.291834
2380.81	0.205168
2382.22	-0.492156
2383.62	-0.291902
2385.02	-0.012394
2386.43	0.330739
2387.83	0.40275
2389.23	-0.0183601
2390.63	-0.05509
2392.03	0.37114
2393.44	-0.0772104
2394.84	-0.222063
2396.24	0.0313635
2397.64	-0.223301
2399.04	0.190096
2400.44	-0.095149
2401.84	0.334785
2403.24	0.17703
2404.64	-0.0128222
2406.04	0.304478
2407.44	0.239749
2408.84	0.364547
2410.23	0.171832
2411.63	0.0587578
2413.03	0.104996
2414.43	0.390018
2415.83	-0.130853
2417.22	0.220396
2418.62	0.414351
2420.02	0.244506
2421.41	0.185355
2422.81	0.252548
2424.21	0.303619
2425.6	0.291374
2427	0.454011
2428.39	0.25303
2429.79	0.401834
2431.18	0.440443
2432.58	0.272889
2433.97	0.358724
2435.36	0.379871
2436.76	0.447101
2438.15	0.194917
2439.54	0.195577
2440.94	0.274663
2442.33	0.241994
2443.72	0.256646
2445.12	0.382118
2446.51	-0.0475883
2447.9	-0.00164032
2449.29	-0.0983152
2450.68	-0.131345
2452.07	-0.0213594
2453.46	-0.0530529
2454.85	0.406577
2456.24	0.123348
2457.64	0.315037
2459.02	0.12693
2460.41	0.349435
2461.8	0.68166
2463.19	0.254151
2464.58	-0.0788794
2465.97	-0.0013485
2467.36	0.0444403
2468.75	0.216355
2470.13	0.0251684
2471.52	0.243522
2472.91	0.0670767
2474.3	0.393799
2475.68	0.0744104
2477.07	-0.292021
2478.45	0.34717
2479.84	-0.269847
2481.23	-0.11742
2482.61	0.0660315
2484	0.405239
2485.38	0.195505
2486.77	0.156839
2488.15	0.0858908
2489.54	0.170173
2490.92	-0.0883293
2492.3	-0.330105
2493.69	-0.135486
2495.07	-0.0174675
2496.45	-0.347849
2497.84	0.0820742
2499.22	0.0473337
2500.6	0.244304
2501.98	0.486502
2503.36	0.217676
2504.75	0.0872374
2506.13	-0.0127659
2507.51	-0.020462
2508.89	0.156466
2510.27	0.0570297
2511.65	-0.102901
2513.03	0.0448275
2514.41	0.0247259
2515.79	0.0208654
2517.17	-0.135153
2518.55	0.397552
2519.93	0.196407
2521.3	0.69774
2522.68	0.0224867
2524.06	0.018362
2525.44	0.0287361
2526.82	-0.0982351
2528.19	0.155807
2529.57	-0.0759544
2530.95	0.241318
2532.32	0.332232
2533.7	0.014369
2535.08	0.213845
2536.45	0.215772
2537.83	0.0347071
2539.2	-0.025795
2540.58	-0.451505
2541.95	0.0333462
2543.33	-0.361847
2544.7	0.336187
2546.08	-0.117427
2547.45	0.492043
2548.82	0.328838
2550.2	0.180835
2551.57	0.381332
2552.94	0.140758
2554.32	0.00534439
2555.69	-0.20682
2557.06	0.202425
2558.43	0.414179
2559.8	0.338078
2561.18	-0.0253868
2562.55	-0.0092144
2563.92	0.0530214
2565.29	0.176324
2566.66	0.133193
2568.03	0.438727
2569.4	0.213842
2570.77	0.0798759
2572.14	-0.00858974
2573.51	-0.0363426
2574.88	0.224029
2576.25	-0.152279
2577.61	0.502301
2578.98	0.671511
2580.35	0.173161
2581.72	-0.0223541
2583.09	0.20629
2584.45	0.374
2585.82	-0.261762
2587.19	-0.154596
2588.55	0.180077
2589.92	0.120803
2591.29	0.334175
2592.65	0.456097
2594.02	0.198396
2595.38	0.106333
2596.75	0.376535
2598.11	0.237148
2599.48	-0.00830841
2600.84	0.275477
2602.21	0.136628
2603.57	-0.152335
2604.93	0.313994
2606.3	0.206993
2607.66	0.43146
2609.02	0.293111
2610.39	0.394608
2611.75	0.193534
2613.11	0.141935
2614.47	0.164715
2615.83	0.382247
2617.19	-0.119949
2618.56	0.218119
2619.92	-0.146886
2621.28	0.326782
2622.64	0.516436
2624	-0.145044
2625.36	-0.14912
2626.72	0.517587
2628.08	0.303823
2629.44	0.224059
2630.8	0.144199
2632.15	0.242744
2633.51	0.519328
2634.87	0.468904
2636.23	0.0181246
2637.59	0.220055
2638.94	0.0959816
2640.3	-0.175676
2641.66	-0.00315189
2643.02	0.583055
2644.37	0.150002
2645.73	0.440337
2647.09	0.125415
2648.44	0.296335
2649.8	-0.107827
2651.15	0.311336
2652.51	0.171253
2653.86	0.134387
2655.22	0.0544043
2656.57	0.795876
2657.93	0.147129
2659.28	0.23153
2660.63	0.155449
2661.99	0.269277
2663.34	0.177871
2664.69	0.479817
2666.05	-0.109181
2667.4	0.191231
2668.75	-0.0768471
2670.1	-0.0241146
2671.45	0.290793
2672.81	-0.135081
2674.16	0.0210714
2675.51	0.0470295
2676.86	0.421761
2678.21	-0.0877876
2679.56	0.215814
2680.91	-0.016017
2682.26	0.521828
2683.61	0.118526
2684.96	0.267243
2686.31	0.140865
2687.66	0.217444
2689	0.350894
2690.35	0.0906038
2691.7	0.423545
2693.05	0.101768
2694.4	0.315791
2695.74	0.0656328
2697.09	0.453733
2698.44	0.350573
2699.79	0.133422
2701.13	0.20772
2702.48	0.399516
2703.83	0.331743
2705.17	0.148491
2706.52	0.60333
2707.86	0.303731
2709.21	0.221199
2710.55	0.631955
2711.9	0.258259
2713.24	0.291044
2714.58	0.469145
2715.93	0.545506
2717.27	0.432683
2718.62	0.13041
2719.96	0.642466
2721.3	0.426556
2722.65	0.311951
2723.99	0.691713
2725.33	0.0666809
2726.67	0.198142
2728.01	0.140056
2729.35	0.154493
2730.7	-0.00582886
2732.04	0.284866
2733.38	0.299191
2734.72	0.35734
2736.06	0.386608
2737.4	0.154232
2738.74	0.198179
2740.08	-0.0635166
2741.42	0.139645
2742.76	0.4729
2744.1	0.311117
2745.43	0.366693
2746.77	0.523416
2748.11	0.563683
2749.45	0.0381117
2750.79	0.397876
2752.12	0.322707
2753.46	0.363782
2754.8	0.361558
2756.14	0.388449
2757.47	0.57478
2758.81	0.211208
2760.14	0.513972
2761.48	0.296211
2762.81	0.238179
2764.15	0.296246
2765.49	0.0359917
2766.82	0.223787
2768.16	0.526264
2769.49	0.0897713
2770.82	0.360257
2772.16	0.369006
2773.49	0.290043
2774.82	0.109719
2776.16	0.260959
2777.49	0.00935841
2778.82	-0.054327
2780.16	-0.146114
2781.49	0.236455
2782.82	-0.0845909
2784.15	0.254443
2785.48	-0.238258
2786.82	0.0433083
2788.15	-0.404984
2789.48	-0.0221882
2790.81	-0.196578
2792.14	0.216167
2793.47	0.0859823
2794.8	0.241743
2796.13	0.211331
2797.46	0.237494
2798.79	-0.051075
2800.12	0.102582
2801.44	-0.21493
2802.77	-0.161624
2804.1	-0.0801334
2805.43	0.257179
2806.76	0.0810432
2808.08	0.0893831
2809.41	0.267813
2810.74	-0.0226364
2812.07	0.170457
2813.39	-0.0609865
2814.72	0.205496
2816.05	0.204033
2817.37	0.0903711
2818.7	-0.277791
2820.02	-0.249078
2821.35	-0.036562
2822.67	0.231913
2824	0.202109
2825.32	0.469406
2826.65	0.170179
2827.97	0.367164
2829.3	0.479753
2830.62	0.437117
2831.94	0.394714
2833.26	0.309792
2834.59	0.705777
2835.91	0.803955
2837.23	0.377995
2838.56	0.743922
2839.88	1.09529
2841.2	1.03659
2842.52	1.10559
2843.84	0.991549
2845.16	1.4012
2846.48	1.7126
2847.8	1.6287
2849.12	2.23739
2850.45	2.11079
2851.77	2.16736
2853.08	2.23748
2854.4	1.99625
2855.72	2.4048
2857.04	2.57306
2858.36	2.48709
2859.68	2.37288
2861	3.14807
2862.32	3.17439
2863.63	3.22847
2864.95	3.36686
2866.27	3.34999
2867.59	3.88343
2868.9	3.71218
2870.22	4.24639
2871.54	4.21681
2872.85	4.44058
2874.17	4.73377
2875.48	4.6874
2876.8	4.86492
2878.11	5.08343
2879.43	4.79506
2880.74	4.63389
2882.06	5.07803
2883.37	5.00351
2884.69	4.9022
2886	4.52094
2887.31	4.65922
2888.63	4.27772
2889.94	4.48464
2891.25	5.11102
2892.57	5.13343
2893.88	5.3237
2895.19	5.33224
2896.5	5.29981
2897.82	5.10083
2899.13	5.30895
2900.44	5.50402
2901.75	5.46185
2903.06	5.46191
2904.37	5.57404
2905.68	5.63056
2906.99	5.53392
2908.3	5.49421
2909.61	6.30901
2910.92	5.94931
2912.23	6.14934
2913.54	6.82449
2914.85	6.92392
2916.16	6.85311
2917.46	7.13018
2918.77	6.9021
2920.08	7.4432
2921.39	8.02676
2922.7	7.77296
2924	7.6329
2925.31	7.91368
2926.62	7.92969
2927.92	8.43505
2929.23	7.9753
2930.54	8.52136
2931.84	8.10217
2933.15	8.46545
2934.45	8.45125
2935.76	8.40925
2937.06	8.36746
2938.37	7.97657
2939.67	7.90745
2940.98	7.76912
2942.28	7.28253
2943.58	7.44027
2944.89	7.01265
2946.19	6.53028
2947.49	6.67789
2948.8	6.48939
2950.1	6.13133
2951.4	5.995
2952.7	6.06637
2954.01	5.95398
2955.31	6.1631
2956.61	5.49145
2957.91	5.67609
2959.21	5.248
2960.51	5.64936
2961.81	5.46493
2963.11	5.47759
2964.41	5.53169
2965.71	4.82553
2967.01	5.71885
2968.31	5.09283
2969.61	4.67643
2970.91	5.14578
2972.21	4.43392
2973.51	4.10205
2974.81	4.96648
2976.1	4.30993
2977.4	4.21489
2978.7	4.13187
2980	3.99047
2981.29	3.50985
2982.59	4.02754
2983.89	3.60321
2985.18	3.43345
2986.48	3.02663
2987.78	3.35225
2989.07	3.08885
2990.37	3.10679
2991.66	2.84305
2992.96	2.69052
2994.25	2.52249
2995.55	2.59199
2996.84	2.52016
2998.14	2.23761
2999.43	1.94154
3000.73	1.80053
3002.02	2.06674
3003.31	1.68867
3004.61	1.35295
3005.9	1.96938
3007.19	1.71674
3008.48	1.35141
3009.77	1.40495
3011.07	1.06632
3012.36	1.07674
3013.65	0.682548
3014.94	1.16759
3016.23	0.816866
3017.52	0.759747
3018.81	0.466685
3020.1	1.07797
3021.4	0.659525
3022.68	0.587922
3023.97	0.681873
3025.26	0.566852
3026.55	0.41023
3027.84	0.143692
3029.13	0.0169992
3030.42	0.209777
3031.71	0.486721
3033	0.350392
3034.28	0.559501
3035.57	0.574725
3036.86	0.574718
3038.15	0.255905
3039.43	0.320999
3040.72	0.727858
3042.01	0.748278
3043.29	0.220319
3044.58	-0.00421047
3045.87	0.894606
3047.15	0.496313
3048.44	0.892979
3049.72	-0.182334
3051.01	0.764067
3052.29	0.292068
3053.58	0.28404
3054.86	0.725508
3056.15	0.947389
3057.43	0.949724
3058.71	0.84213
3060	0.666248
3061.28	1.03526
3062.56	0.820096
3063.84	0.837767
3065.13	0.598839
3066.41	0.578969
3067.69	0.451387
3068.97	0.500973
3070.26	0.63188
3071.54	0.775433
3072.82	0.360043
3074.1	0.446473
3075.38	0.355162
3076.66	0.385778
3077.94	0.131737
3079.22	0.530278
3080.5	0.251941
3081.78	0.422944
3083.06	-0.00162315
3084.34	0.252835
3085.62	0.358151
3086.9	0.354422
3088.18	0.268454
3089.45	0.181727
3090.73	-0.0818877
3092.01	0.522683
3093.29	0.0149202
3094.56	0.172138
3095.84	0.00416374
3097.12	0.161668
3098.4	-0.0333638
3099.67	0.110279
3100.95	0.145363
3102.22	0.329426
3103.5	-0.0414186
3104.78	0.319341
3106.05	0.220592
3107.33	-0.242563
3108.6	-0.298696
3109.88	-0.177823
3111.15	-0.00175095
3112.43	0.134565
3113.7	0.27143
3114.97	0.150805
3116.25	0.436392
3117.52	0.314269
3118.79	0.0281706
3120.07	0.161336
3121.34	0.279882
3122.61	0.153734
3123.88	0.298388
3125.16	0.104576
3126.43	0.0737829
3127.7	0.368271
3128.97	0.406112
3130.24	0.106269
3131.51	0.0500021
3132.79	0.50706
3134.06	0.125931
3135.33	0.473551
3136.6	0.401911
3137.87	0.114073
3139.14	-0.0929317
3140.41	0.278962
3141.67	0.502332
3142.94	0.403115
3144.21	0.0763278
3145.48	0.662869
3146.75	0.230434
3148.02	0.0269995
3149.29	0.306397
