200.523	0.0668497
202.339	0.0778122
204.154	0.0895224
205.967	0.272217
207.781	0.236197
209.596	0.85596
211.409	0.0170364
213.222	0.318923
215.034	0.0860176
216.848	0.28933
218.659	0.347112
220.47	0.526348
222.281	0.0772371
224.091	0.0886612
225.903	0.511369
227.713	0.136635
229.522	-0.141455
231.331	0.400905
233.14	-0.0947275
234.948	0.254335
236.756	-0.0225744
238.566	0.304802
240.373	-0.378288
242.18	0.14559
243.986	-0.390557
245.792	0.0864344
247.598	0.417785
249.403	0.409163
251.208	0.108418
253.013	0.240206
254.818	0.828906
256.624	0.500576
258.427	0.052763
260.231	0.546134
262.034	-0.0913286
263.836	0.766129
265.638	0.178955
267.44	0.363047
269.242	0.233617
271.043	0.68216
272.844	0.888781
274.645	0.298646
276.445	-0.268483
278.245	0.223619
280.044	0.569269
281.843	0.0705137
283.642	0.65327
285.44	0.248847
287.238	0.0126543
289.036	0.400335
290.833	0.0692835
292.63	0.338181
294.425	0.105622
296.221	0.47217
298.017	0.0984058
299.813	0.107557
301.608	0.45095
303.403	-0.0183134
305.198	0.299414
306.992	0.806916
308.786	0.503244
310.579	0.653051
312.371	0.0415978
314.163	0.312806
315.956	0.442559
317.748	0.669049
319.54	0.73016
321.331	0.410942
323.122	0.473607
324.911	0.51283
326.701	0.170186
328.491	0.30479
330.281	0.319518
332.071	0.500771
333.857	0.776511
335.646	0.308829
337.434	0.150401
339.222	0.373198
341.008	0.331594
342.795	0.385031
344.582	0.51009
346.369	0.205555
348.153	0.809116
349.939	-0.138888
351.724	0.464919
353.51	0.805534
355.292	0.763422
357.077	0.648745
358.861	0.151845
360.643	-0.035748
362.426	0.180766
364.21	0.776791
365.99	-0.00661039
367.773	0.16016
369.555	0.373367
371.335	0.609139
373.116	0.607247
374.897	0.770489
376.676	0.414145
378.456	-0.0588779
380.236	0.294227
382.014	0.318118
383.793	0.460601
385.57	0.298363
387.349	-0.16821
389.127	0.869789
390.903	0.28757
392.681	0.0819206
394.456	0.0176654
396.233	-0.515992
398.007	0.500454
399.784	-0.0802631
401.56	-0.426467
403.333	0.565663
405.108	-0.321752
406.881	0.363806
408.656	0.46173
410.428	0.67673
412.202	-0.305174
413.973	-0.0193377
415.746	1.13515
417.517	-0.0326457
419.29	-0.0267677
421.06	-0.372767
422.831	0.0556068
424.601	0.0609698
426.37	0.159545
428.141	0.257487
429.909	0.00296116
431.679	0.358715
433.447	0.0810118
435.216	0.296454
436.983	0.394535
438.75	0.703277
440.519	0.682254
442.285	0.120104
444.052	-0.0915394
445.818	1.00748
447.583	0.254788
449.349	0.69561
451.114	-0.00900221
452.878	0.0581627
454.643	0.055419
456.407	0.0526714
458.169	0.399137
459.934	-0.208921
461.696	0.20759
463.458	0.555112
465.222	-0.48979
466.983	0.187053
468.744	0.0759339
470.507	0.524299
472.267	0.0195627
474.027	0.212165
475.787	0.100787
477.548	0.4769
479.307	0.828304
481.065	0.200609
482.823	0.365035
484.583	0.0412979
486.341	0.0217962
488.098	0.586615
489.855	0.267425
491.612	-0.0514269
493.37	-0.370328
495.126	0.315991
496.881	0.909894
498.636	0.825167
500.391	0.29433
502.148	0.513171
503.902	0.614194
505.656	-0.131717
507.409	-0.126991
509.162	0.747018
510.915	0.326081
512.668	0.0685105
514.42	0.609809
516.174	0.51469
517.925	0.0894308
519.676	0.0868521
521.427	0.107206
523.178	0.197631
524.928	0.123511
526.678	0.635917
528.427	0.256865
530.176	0.370236
531.925	-0.0320964
533.673	-0.200498
535.422	0.238581
537.169	0.301972
538.917	0.247424
540.664	-0.111063
542.411	0.206135
544.157	0.0802879
545.903	0.163846
547.649	-0.170383
549.395	0.14541
551.14	-0.0950499
552.884	-0.0804162
554.629	0.419546
556.373	0.133924
558.117	0.218123
559.86	0.256487
561.603	-0.510422
563.346	0.656391
565.089	-0.36156
566.831	-0.321056
568.573	0.408713
570.314	-0.215271
572.053	0.378102
573.794	0.330285
575.534	0.352708
577.274	0.0781636
579.014	0.0340133
580.754	-0.28521
582.493	0.245567
584.23	0.454568
585.968	0.409941
587.706	0.0882401
589.444	-0.211492
591.181	-0.16683
592.919	0.0385089
594.653	0.1287
596.39	0.241933
598.126	0.148084
599.862	-0.153091
601.595	-0.109792
603.33	-0.297431
605.065	0.226637
606.8	0.772202
608.532	-0.0383253
610.266	0.322448
611.999	-0.234292
613.732	-0.377202
615.463	-0.450746
617.196	-0.111737
618.928	0.34113
620.66	0.403606
622.389	0.0990334
624.12	0.182814
625.851	-0.0533023
627.58	-0.0143275
629.31	0.642267
631.04	0.20522
632.767	0.226182
634.497	-0.117221
636.223	-0.369692
637.952	0.198324
639.68	0.193556
641.406	0.665459
643.134	-0.0275011
644.861	0.532027
646.586	0.02174
648.312	0.650244
650.037	-0.0144835
651.762	0.164654
653.486	-0.0395665
655.211	0.258934
656.936	-0.123411
658.659	0.200793
660.383	0.479704
662.105	0.164065
663.829	0.280393
665.55	0.326374
667.273	0.713922
668.994	0.186177
670.716	0.848412
672.436	0.0937519
674.158	0.622602
675.877	1.01645
677.598	0.10423
679.317	0.0400801
681.035	0.112997
682.755	0.80588
684.473	0.600144
686.192	0.392624
687.909	0.391064
689.628	0.411695
691.344	0.662112
693.06	0.589542
694.778	0.677598
696.493	0.396398
698.211	0.298567
699.925	1.09724
701.64	0.629304
703.356	0.597826
705.07	0.680673
706.783	0.602339
708.498	0.156889
710.211	0.651271
711.924	0.618009
713.638	0.447316
715.35	0.573856
717.061	0.380502
718.774	1.07716
720.485	0.72439
722.196	0.622838
723.906	1.24955
725.618	0.965797
727.328	0.4779
729.037	0.330925
730.746	0.523927
732.456	0.806835
734.165	0.591311
735.873	1.30292
737.58	1.24574
739.289	0.73806
740.997	0.863179
742.703	1.28191
744.41	0.845786
746.116	0.92879
747.823	0.720399
749.529	1.27792
751.234	0.621845
752.938	0.888998
754.643	1.11233
756.347	0.81937
758.051	1.06778
759.756	0.934632
761.459	1.07275
763.162	1.14379
764.865	1.03406
766.567	1.17182
768.269	1.53429
769.97	1.26207
771.671	1.39515
773.372	1.05221
775.073	1.29685
776.773	1.31582
778.473	1.51674
780.174	1.51544
781.874	1.49243
783.573	1.83162
785.271	1.69463
786.97	1.78198
788.668	1.34612
790.365	1.85792
792.063	1.30452
793.76	1.65395
795.456	1.68672
797.153	2.05826
798.847	1.66497
800.543	1.56629
802.238	1.04143
803.933	1.3496
805.628	0.96053
807.322	1.17782
809.017	1.75323
810.71	1.29466
812.404	1.71052
814.097	1.13944
815.79	1.26308
817.483	1.45357
819.173	1.48737
820.865	1.43193
822.556	1.95701
824.248	0.876683
825.939	0.979854
827.629	2.04235
829.318	1.21369
831.008	1.5011
832.697	1.32307
834.387	1.28031
836.076	1.34982
837.765	1.28532
839.451	1.0635
841.139	0.97428
842.827	1.37552
844.514	1.32962
846.2	1.37367
847.886	1.24031
849.573	1.15353
851.259	1.53884
852.943	1.14189
854.629	1.28339
856.314	0.975758
857.997	0.509233
859.682	1.41332
861.366	0.741028
863.05	0.877752
864.732	0.923459
866.415	1.23901
868.098	1.05812
869.779	1.28276
871.461	0.853059
873.141	0.851722
874.823	0.963143
876.505	0.397588
878.184	0.779838
879.865	0.259182
881.545	0.731441
883.223	1.04516
884.903	0.703351
886.581	0.65396
888.26	1.09973
889.937	1.07032
891.616	0.701689
893.294	0.873006
894.97	0.975634
896.648	0.897383
898.323	1.24516
900	0.851202
901.675	0.547155
903.351	1.09368
905.026	1.63869
906.701	1.17817
908.375	0.808461
910.05	0.150788
911.723	0.318254
913.398	0.863686
915.07	0.742275
916.742	0.865125
918.415	1.00984
920.087	0.468035
921.76	0.657622
923.43	1.46669
925.103	0.59717
926.773	0.701513
928.443	0.851215
930.114	0.670791
931.783	0.468894
933.454	0.465796
935.123	0.66135
936.791	0.835139
938.461	0.965487
940.128	0.523353
941.796	0.655589
943.464	1.05323
945.131	0.810853
946.797	0.412951
948.465	0.6979
950.131	0.606129
951.797	0.667915
953.462	0.553299
955.128	0.572258
956.793	0.394883
958.457	0.131628
960.121	0.664779
961.786	0.978923
963.45	0.431275
965.113	0.655737
966.775	0.745552
968.44	0.280053
970.102	0.520971
971.763	0.65057
973.425	0.559355
975.086	0.469289
976.748	0.623886
978.409	0.514232
980.069	0.515647
981.729	0.516741
983.388	0.162571
985.048	0.71454
986.708	0.268781
988.367	0.131689
990.025	0.701393
991.683	-0.0780864
993.341	0.00459003
994.998	0.153461
996.655	0.611101
998.312	0.759511
999.969	0.180399
1001.62	0.438506
1003.28	-0.00825071
1004.94	-0.124769
1006.59	0.439997
1008.25	0.191583
1009.9	0.0754209
1011.56	-0.171837
1013.21	0.107519
1014.86	-0.270256
1016.52	0.578575
1018.17	-0.104676
1019.82	-0.239941
1021.48	0.172216
1023.13	-0.158207
1024.78	-0.0944352
1026.43	-0.0521207
1028.08	0.601969
1029.73	0.578144
1031.38	0.749919
1033.03	0.483691
1034.68	0.0855513
1036.33	0.0357409
1037.98	-0.123505
1039.63	0.413981
1041.28	-0.071105
1042.93	0.0975289
1044.57	-0.188974
1046.22	0.0256906
1047.87	-0.0841093
1049.52	0.198208
1051.16	0.329462
1052.81	-0.103483
1054.45	0.245924
1056.1	0.508545
1057.75	0.184089
1059.39	0.337479
1061.04	0.359946
1062.68	0.555767
1064.32	0.185529
1065.97	-0.120189
1067.61	0.225431
1069.25	0.526648
1070.9	0.175643
1072.54	0.302391
1074.18	-0.286605
1075.82	0.361929
1077.47	0.013577
1079.11	0.316775
1080.75	0.230189
1082.39	-0.116632
1084.03	1.07534
1085.67	0.0545483
1087.31	-0.273712
1088.95	0.457883
1090.59	0.278387
1092.22	0.0550761
1093.86	0.177326
1095.5	0.170054
1097.14	-0.310805
1098.78	-0.251425
1100.41	0.0459332
1102.05	0.430482
1103.69	-0.388545
1105.32	0.621967
1106.96	-0.130936
1108.59	0.513903
1110.23	-0.00335884
1111.86	-0.113131
1113.5	-0.0951037
1115.13	-0.0565338
1116.77	-0.0399008
1118.4	0.641352
1120.03	0.379619
1121.67	0.568617
1123.3	0.351632
1124.93	0.0286021
1126.56	0.176974
1128.19	0.518321
1129.83	0.411098
1131.46	0.411241
1133.09	0.11232
1134.72	0.198093
1136.35	0.368839
1137.98	0.0258894
1139.61	0.10943
1141.24	0.234843
1142.86	0.167711
1144.49	0.335357
1146.12	0.460751
1147.75	-0.116449
1149.38	-0.351781
1151	0.116236
1152.63	-0.459418
1154.26	-0.289917
1155.88	0.560231
1157.51	0.197041
1159.14	0.195939
1160.76	-0.421179
1162.39	0.0258031
1164.01	-0.313212
1165.63	0.177342
1167.26	0.242447
1168.88	0.285447
1170.51	0.178337
1172.13	-0.0788879
1173.75	0.236074
1175.38	0.48602
1177	0.523201
1178.62	0.115681
1180.24	-0.184875
1181.86	0.192529
1183.48	0.210582
1185.1	0.503288
1186.72	0.0769563
1188.34	-0.0968208
1189.96	0.339478
1191.58	0.373358
1193.2	0.321885
1194.82	-0.00299263
1196.44	0.595506
1198.06	-0.209624
1199.68	0.159612
1201.29	0.279168
1202.91	0.170918
1204.53	0.753461
1206.14	0.294099
1207.76	0.420035
1209.38	0.0455003
1210.99	0.358689
1212.61	0.315949
1214.22	0.771606
1215.84	0.35037
1217.45	0.656494
1219.07	0.150816
1220.68	0.580212
1222.29	0.801919
1223.91	0.236897
1225.52	0.522804
1227.13	0.76814
1228.74	0.704102
1230.36	0.744498
1231.97	0.971869
1233.58	0.683448
1235.19	0.520055
1236.8	1.08103
1238.41	0.733354
1240.02	0.985733
1241.63	1.17633
1243.24	1.20121
1244.85	0.93576
1246.46	0.897045
1248.07	0.754048
1249.67	1.12772
1251.28	1.33556
1252.89	0.84026
1254.5	0.779978
1256.1	1.27904
1257.71	0.413846
1259.32	1.12184
1260.92	0.837379
1262.53	1.05007
1264.13	0.827881
1265.74	1.12328
1267.34	0.837852
1268.95	0.344209
1270.55	0.679017
1272.15	0.805678
1273.76	0.931504
1275.36	0.869943
1276.97	1.18065
1278.57	0.682624
1280.17	1.03343
1281.77	0.659323
1283.37	1.00969
1284.97	1.29816
1286.58	1.29777
1288.18	1.27757
1289.78	1.09281
1291.38	1.03247
1292.98	1.17866
1294.58	0.663141
1296.18	1.24138
1297.78	1.11603
1299.37	1.01007
1300.97	1.29472
1302.57	0.630396
1304.17	1.42758
1305.77	0.906916
1307.36	1.88606
1308.96	1.4884
1310.55	1.43998
1312.15	1.16679
1313.75	1.22199
1315.34	1.6457
1316.94	1.68158
1318.53	0.942633
1320.13	1.12203
1321.72	1.7485
1323.32	1.43643
1324.91	1.24552
1326.5	0.952421
1328.1	1.57191
1329.69	1.62337
1331.28	1.63565
1332.87	1.87206
1334.47	1.60531
1336.06	1.36044
1337.65	1.70114
1339.24	1.6982
1340.83	1.27085
1342.42	1.72781
1344.01	1.39823
1345.6	1.42987
1347.19	1.50169
1348.78	0.953887
1350.37	1.34967
1351.96	1.267
1353.54	1.04614
1355.13	1.20623
1356.72	1.50638
1358.31	1.34654
1359.89	0.966352
1361.48	1.3241
1363.07	0.823045
1364.65	1.7975
1366.24	1.07753
1367.82	1.43433
1369.41	1.53306
1370.99	1.03592
1372.58	1.63449
1374.16	1.87576
1375.75	1.0829
1377.33	1.06611
1378.91	1.0489
1380.5	1.64764
1382.08	0.753138
1383.66	1.17054
1385.25	0.910996
1386.83	0.929466
1388.41	1.18634
1389.99	1.66187
1391.57	0.828222
1393.15	0.967715
1394.73	0.750438
1396.31	1.02881
1397.89	1.12804
1399.47	0.988587
1401.05	0.789076
1402.63	1.16333
1404.21	1.16128
1405.78	0.843299
1407.36	1.05994
1408.94	1.00049
1410.52	0.408165
1412.1	0.902188
1413.67	0.803224
1415.25	0.743073
1416.82	1.03727
1418.4	0.976089
1419.98	0.934949
1421.55	0.776574
1423.13	0.737656
1424.7	0.877177
1426.28	0.820845
1427.85	0.666504
1429.42	1.31892
1431	0.671558
1432.57	0.790903
1434.14	1.46028
1435.71	1.69623
1437.29	1.2441
1438.86	1.59871
1440.43	1.40375
1442	0.973775
1443.57	1.7039
1445.14	1.60892
1446.71	1.39615
1448.28	1.55695
1449.85	1.6394
1451.42	1.4863
1452.99	1.39259
1454.56	1.75158
1456.13	1.42203
1457.7	1.30826
1459.26	1.39022
1460.83	1.4117
1462.4	1.56933
1463.97	0.958539
1465.54	1.05503
1467.1	1.09221
1468.67	1.32597
1470.23	0.932279
1471.8	0.775194
1473.36	0.952435
1474.93	1.07139
1476.49	0.935752
1478.06	0.682598
1479.62	1.13512
1481.19	0.529077
1482.75	1.15771
1484.31	0.688798
1485.88	0.670321
1487.44	0.866661
1489	0.86602
1490.56	0.80518
1492.13	0.957715
1493.69	0.50275
1495.25	1.0813
1496.81	0.80029
1498.37	0.792228
1499.93	0.259921
1501.49	1.32147
1503.05	1.08245
1504.61	0.49589
1506.17	0.684853
1507.73	0.00274181
1509.28	0.731411
1510.84	0.647132
1512.4	0.600914
1513.96	0.63149
1515.52	0.412272
1517.07	0.34764
1518.63	0.667251
1520.19	0.948314
1521.74	0.999326
1523.3	0.82058
1524.85	0.832479
1526.41	1.07231
1527.96	1.444
1529.52	0.597367
1531.07	0.892256
1532.63	1.09196
1534.18	0.742745
1535.73	1.54894
1537.29	1.27724
1538.84	1.13881
1540.39	0.69928
1541.94	1.07067
1543.5	1.23424
1545.05	0.795701
1546.6	0.883738
1548.15	0.802589
1549.7	1.02147
1551.25	1.33367
1552.8	1.60828
1554.35	1.19172
1555.9	1.28124
1557.45	1.50281
1559	1.33404
1560.55	1.16698
1562.1	1.07589
1563.65	1.58271
1565.19	1.02656
1566.74	2.14988
1568.29	1.74283
1569.83	1.83931
1571.38	1.26347
1572.93	1.45269
1574.47	1.60446
1576.02	1.70026
1577.56	1.98292
1579.11	2.0793
1580.66	1.72812
1582.2	1.73236
1583.74	2.46592
1585.29	1.57475
1586.83	1.97334
1588.38	2.20405
1589.92	1.18102
1591.46	2.01003
1593.01	2.05273
1594.55	1.94534
1596.09	1.89415
1597.63	1.67461
1599.17	1.62423
1600.71	1.96834
1602.25	1.35598
1603.79	1.70067
1605.34	2.1766
1606.88	1.27972
1608.41	1.54615
1609.95	2.03617
1611.49	1.4154
1613.03	1.54464
1614.57	1.27853
1616.11	1.57507
1617.65	1.66547
1619.18	1.00741
1620.72	1.08149
1622.26	0.838322
1623.79	1.19494
1625.33	1.15837
1626.87	1.08374
1628.4	1.38226
1629.94	1.28669
1631.48	1.69495
1633.01	0.869685
1634.55	1.59497
1636.08	1.49925
1637.61	1.12465
1639.15	1.45927
1640.68	1.16001
1642.21	1.19578
1643.75	1.43543
1645.28	1.37607
1646.81	1.409
1648.34	0.921375
1649.88	0.267662
1651.41	1.17425
1652.94	0.968016
1654.47	1.50444
1656	0.725073
1657.53	1.18753
1659.06	1.33415
1660.59	1.51657
1662.12	1.16109
1663.65	1.19337
1665.18	1.05892
1666.71	1.23872
1668.24	0.958094
1669.76	0.900174
1671.29	1.21197
1672.82	1.02712
1674.35	0.732226
1675.87	1.02641
1677.4	1.11731
1678.93	0.894523
1680.45	0.763055
1681.98	0.759762
1683.5	0.242094
1685.03	0.917882
1686.55	0.602828
1688.08	0.545077
1689.6	0.103004
1691.13	0.61363
1692.65	0.538197
1694.17	0.60911
1695.7	0.186213
1697.22	0.074183
1698.74	0.765491
1700.27	0.470148
1701.79	0.52128
1703.31	0.243855
1704.83	0.43987
1706.35	0.52604
1707.87	-0.0425825
1709.39	-0.283364
1710.91	0.383683
1712.43	-0.00191307
1713.95	0.102394
1715.47	0.206574
1716.99	0.400958
1718.51	0.305758
1720.03	0.210659
1721.55	-0.10066
1723.07	0.562455
1724.58	0.000315666
1726.1	0.28614
1727.62	0.10473
1729.13	-0.00385618
1730.65	-0.273046
1732.17	0.0118113
1733.68	0.0617647
1735.2	0.26895
1736.72	0.303432
1738.23	0.569169
1739.74	0.379057
1741.26	0.377705
1742.77	0.190189
1744.29	0.0884876
1745.8	0.700515
1747.32	0.0458755
1748.83	-0.167322
1750.34	0.528822
1751.85	0.121713
1753.37	-0.347236
1754.88	-0.128586
1756.39	0.235842
1757.9	0.000925064
1759.41	0.165401
1760.92	-0.00125694
1762.44	0.0153747
1763.95	0.262411
1765.46	0.34554
1766.96	0.217958
1768.47	0.413783
1769.98	0.453663
1771.49	0.0335269
1773	0.287983
1774.51	-0.177714
1776.02	-0.0300388
1777.53	-0.13195
1779.03	-0.0691471
1780.54	0.0497136
1782.05	0.064703
1783.55	-0.0652909
1785.06	-0.172772
1786.57	-0.047389
1788.07	0.285481
1789.58	-0.200907
1791.08	-0.0283346
1792.59	0.299963
1794.09	0.234622
1795.6	0.0575175
1797.1	0.257434
1798.61	-0.228701
1800.11	-0.0366907
1801.61	-0.169991
1803.12	0.496503
1804.62	0.219573
1806.12	0.0322347
1807.62	0.0584531
1809.12	-0.0623507
1810.63	0.0180202
1812.13	0.102814
1813.63	0.031816
1815.13	0.24431
1816.63	0.247134
1818.13	-0.236086
1819.63	0.121693
1821.13	0.0395308
1822.63	0.304703
1824.13	0.382676
1825.63	0.0724216
1827.13	0.0476995
1828.62	-0.14592
1830.12	-0.146927
1831.62	0.0833611
1833.12	0.244769
1834.61	0.188201
1836.11	0.0819135
1837.61	0.168139
1839.1	0.165999
1840.6	-0.0077424
1842.09	0.0487628
1843.59	0.190927
1845.09	0.362802
1846.58	0.16736
1848.08	0.17379
1849.57	0.31264
1851.06	0.0354624
1852.56	-0.141569
1854.05	0.341768
1855.54	0.136714
1857.04	-0.224258
1858.53	-0.00264502
1860.02	-0.0465007
1861.51	0.0447016
1863.01	0.0604339
1864.5	-0.00486469
1865.99	0.632853
1867.48	0.0266871
1868.97	0.0188317
1870.46	0.30692
1871.95	-0.13145
1873.44	-0.00372696
1874.93	0.0764251
1876.42	-0.0092721
1877.91	-0.0343351
1879.4	0.397239
1880.89	0.0565348
1882.37	0.195459
1882.46	0.206426
1883.95	-0.0739079
1885.45	0.237882
1886.94	-0.00863791
1888.43	0.353984
1889.93	0.263963
1891.42	-0.486106
1892.91	0.0868111
1894.41	0.0176358
1895.9	-0.172097
1897.39	-0.222132
1898.88	0.197439
1900.37	0.268464
1901.86	0.373058
1903.36	0.0588565
1904.85	0.0393043
1906.34	-0.119837
1907.83	0.0510855
1909.32	-0.00337315
1910.81	-0.0744543
1912.29	-0.0234003
1913.78	0.322907
1915.27	-0.0764713
1916.76	-0.0078249
1918.25	0.0257287
1919.74	0.249521
1921.23	0.0400543
1922.71	0.281218
1924.2	0.142048
1925.69	0.142257
1927.17	-0.0471559
1928.66	0.38721
1930.15	0.11171
1931.63	-0.14709
1933.12	0.0779357
1934.6	0.3708
1936.09	0.108475
1937.57	-0.154468
1939.06	0.187334
1940.54	0.0626526
1942.02	0.0940628
1943.51	-0.0807762
1944.99	0.228008
1946.47	-0.118186
1947.96	0.104398
1949.44	-0.0354776
1950.92	0.0478845
1952.4	0.0788379
1953.88	0.24688
1955.37	0.122481
1956.85	-0.15603
1958.33	-0.0732913
1959.81	0.0785174
1961.29	-0.129489
1962.77	-0.0629158
1964.25	0.00348091
1965.73	0.137958
1967.21	0.203325
1968.69	-0.159511
1970.16	-0.00950146
1971.64	0.191337
1973.12	-0.154358
1974.6	0.0804243
1976.08	0.349097
1977.55	0.0384202
1979.03	-0.220703
1980.51	0.149888
1981.98	-0.194096
1983.46	0.124678
1984.94	-0.049511
1986.41	-0.0879345
1987.89	-0.177156
1989.36	0.0726633
1990.84	0.0687661
1992.31	0.200871
1993.79	0.3167
1995.26	0.297874
1996.73	-0.159831
1998.21	0.294736
1999.68	-0.0279169
2001.15	-0.181996
2002.63	0.0516424
2004.1	0.0489187
2005.57	-0.13892
2007.04	0.482422
2008.51	0.0769105
2009.99	0.0762982
2011.46	-0.277408
2012.93	-0.12603
2014.4	-0.0591235
2015.87	-0.0769143
2017.34	0.224203
2018.81	0.00331402
2020.28	0.269495
2021.75	0.333754
2023.21	0.364616
2024.68	0.463161
2026.15	0.294168
2027.62	0.344371
2029.09	-0.0403724
2030.56	0.0455027
2032.02	0.249618
2033.49	0.118516
2034.96	-0.130225
2036.42	-0.110618
2037.89	0.0598507
2039.36	-0.0219913
2040.82	0.0137472
2042.29	-0.151997
2043.75	-0.14912
2045.22	0.14046
2046.68	0.498231
2048.14	-0.0698209
2049.61	0.102867
2051.07	0.241267
2052.54	0.0919156
2054	-0.210593
2055.46	-0.0421543
2056.93	0.0071969
2058.39	0.224422
2059.85	0.188669
2061.31	-0.0488205
2062.77	-0.167742
2064.23	0.25266
2065.7	-0.167716
2067.16	-0.149905
2068.62	0.0871425
2070.08	-0.16367
2071.54	0.242084
2073	0.344771
2074.46	0.0936637
2075.92	0.128559
2077.38	0.314751
2078.83	0.163845
2080.29	-0.0884113
2081.75	0.0293913
2083.21	-0.375143
2084.67	0.111901
2086.12	0.244823
2087.58	0.15858
2089.04	0.00487995
2090.49	0.556675
2091.95	0.35235
2093.41	-0.288099
2094.86	-0.139805
2096.32	0.0414906
2097.77	0.188579
2099.23	0.150881
2100.68	0.029376
2102.14	-0.192061
2103.59	0.00485897
2105.05	0.219147
2106.5	0.434284
2107.95	0.116388
2109.41	0.0323839
2110.86	-0.185294
2112.31	0.162828
2113.76	0.142979
2115.21	-0.210831
2116.67	0.000551224
2118.12	-0.0207906
2119.57	0.0584121
2121.02	0.0725284
2122.47	0.386569
2123.92	-0.0777903
2125.37	-0.0109549
2126.82	0.486792
2128.27	0.254292
2129.72	0.153483
2131.17	0.499
2132.62	0.479355
2134.07	0.0130172
2135.51	0.440598
2136.96	0.0259156
2138.41	0.240738
2139.86	-0.121525
2141.31	0.525614
2142.75	0.413368
2144.2	0.235368
2145.65	0.0738883
2147.09	0.0776453
2148.54	0.660656
2149.98	0.29907
2151.43	0.43369
2152.87	0.468186
2154.32	0.236974
2155.76	-0.027678
2157.21	0.221277
2158.65	0.305039
2160.1	0.190946
2161.54	0.260317
2162.98	0.065784
2164.43	0.336627
2165.87	0.442459
2167.31	0.282594
2168.75	0.570656
2170.2	0.308884
2171.64	0.145256
2173.08	0.562469
2174.52	0.246719
2175.96	0.163456
2177.4	0.146849
2178.84	0.44665
2180.28	0.464495
2181.72	0.88204
2183.16	0.269123
2184.6	0.620901
2186.04	0.00799656
2187.48	-0.105952
2188.92	0.445778
2190.36	0.681451
2191.79	0.534107
2193.23	0.685899
2194.67	0.537035
2196.11	0.336948
2197.54	0.301944
2198.98	0.714672
2200.42	0.494637
2201.85	0.141963
2203.29	0.188428
2204.72	0.219018
2206.16	0.581795
2207.59	0.116335
2209.03	0.561951
2210.46	0.245226
2211.9	0.0108447
2213.33	0.239064
2214.77	0.400779
2216.2	0.381111
2217.63	0.67575
2219.07	0.261941
2220.5	0.45906
2221.93	0.112307
2223.36	0.259566
2224.8	0.241045
2226.23	0.0896707
2227.66	-0.309261
2229.09	0.112886
2230.52	-0.385166
2231.95	0.34678
2233.39	0.27519
2234.81	0.0898299
2236.25	-0.0290012
2237.67	-0.260814
2239.1	0.47164
2240.53	0.340466
2241.96	-0.0176358
2243.39	0.196054
2244.82	0.344811
2246.25	0.427885
2247.68	0.118387
2249.1	0.3781
2250.53	-0.0809412
2251.96	0.208217
2253.38	0.203492
2254.81	0.475155
2256.24	0.37402
2257.66	0.0475731
2259.09	0.193865
2260.51	0.326057
2261.94	0.0868263
2263.36	0.027194
2264.79	0.130274
2266.21	-0.0431857
2267.64	0.091712
2269.06	-0.164511
2270.49	-0.12845
2271.91	0.200354
2273.33	0.252302
2274.76	-0.168073
2276.18	0.503175
2277.6	0.213322
2279.02	0.233115
2280.44	-0.00802803
2281.87	-0.151511
2283.29	-0.180928
2284.71	0.0833969
2286.13	0.184782
2287.55	0.0579004
2288.97	-0.101415
2290.39	-0.244217
2291.81	0.119814
2293.23	0.173525
2294.65	0.29272
2296.07	0.133698
2297.49	0.449381
2298.91	-0.0373626
2300.33	-0.213001
2301.74	0.11971
2303.16	0.223285
2304.58	-0.0668588
2306	-0.0945835
2307.41	0.107461
2308.83	-0.00301743
2310.25	0.0668793
2311.66	-0.208899
2313.08	0.140361
2314.5	0.226775
2315.91	-0.147275
2317.33	-0.306953
2318.74	-0.136801
2320.16	0.297294
2321.57	0.434015
2322.98	0.0908051
2324.4	0.125432
2325.81	0.389378
2327.23	0.223071
2328.64	0.732055
2330.05	0.136983
2331.46	0.00413513
2332.88	0.0696883
2334.29	-0.110977
2335.7	0.169258
2337.11	0.120127
2338.52	0.152536
2339.94	-0.292454
2341.35	0.576161
2342.76	0.310882
2344.17	0.259121
2345.58	0.0765042
2346.99	-0.122052
2348.4	0.0397973
2349.81	-0.0442004
2351.22	0.132925
2352.62	-0.0176015
2354.03	-0.0543184
2355.44	0.136744
2356.85	-0.112495
2358.26	0.012877
2359.67	-0.154407
2361.07	0.0845084
2362.48	0.371555
2363.89	-0.0871177
2365.29	0.150842
2366.7	-0.0802684
2368.11	0.109299
2369.51	0.186335
2370.92	0.231975
2372.32	0.0368891
2373.73	0.100402
2375.13	0.228551
2376.54	0.179356
2377.94	0.01688
2379.35	-0.0500727
2380.75	0.0263801
2382.15	0.117682
2383.56	0.352236
2384.96	-0.149826
2386.36	0.00467014
2387.76	0.159439
2389.17	0.0118151
2390.57	0.35924
2391.97	-0.0253181
2393.37	0.227809
2394.77	-0.234397
2396.17	0.115098
2397.58	0.258202
2398.98	0.1951
2400.38	0.354805
2401.78	0.276443
2403.18	-0.341814
2404.58	0.389554
2405.97	0.151645
2407.37	0.278162
2408.77	0.102634
2410.17	0.133089
2411.57	0.10028
2412.97	0.0364013
2414.37	-0.343179
2415.76	-0.104221
2417.16	0.183169
2418.56	0.138792
2419.95	0.253061
2421.35	0.00297499
2422.75	0.132779
2424.14	-0.0386295
2425.54	0.0593348
2426.93	0.427118
2428.33	0.272555
2429.72	0.245473
2431.12	0.488643
2432.51	0.287689
2433.91	0.387931
2435.3	-0.0685987
2436.7	0.0773892
2438.09	0.333498
2439.48	0.588563
2440.88	0.159925
2442.27	0.00101852
2443.66	0.460878
2445.05	0.111285
2446.44	-0.0954347
2447.84	0.252598
2449.23	0.125089
2450.62	0.219518
2452.01	-0.22389
2453.4	0.09304
2454.79	0.236419
2456.18	0.0955424
2457.57	-0.0134287
2458.96	0.193854
2460.35	-0.0421224
2461.74	0.0692611
2463.13	0.306448
2464.52	0.227029
2465.91	0.131648
2467.29	0.0362716
2468.68	0.0198331
2470.07	-0.075583
2471.46	0.0336976
2472.85	0.0793591
2474.23	-0.00153303
2475.62	-0.208623
2477.01	0.275926
2478.39	0.0686183
2479.78	0.018681
2481.16	0.376631
2482.55	0.122931
2483.93	0.24503
2485.32	0.14731
2486.7	0.142705
2488.09	0.121696
2489.47	0.00666428
2490.86	0.0163245
2492.24	0.243944
2493.62	-0.0250945
2495.01	0.0176392
2496.39	-0.0473037
2497.77	0.0278807
2499.15	0.0876946
2500.54	0.270947
2501.92	0.236978
2503.3	0.248671
2504.68	-0.172247
2506.06	0.0236278
2507.45	0.049572
2508.83	0.0601606
2510.21	0.101741
2511.59	0.0669794
2512.97	-0.12045
2514.35	0.397625
2515.73	-0.109939
2517.11	-0.0808964
2518.48	-0.143229
2519.86	-0.128956
2521.24	-0.0385051
2522.62	-0.147037
2524	0.155822
2525.38	-0.182416
2526.75	0.164958
2528.13	0.0403423
2529.51	0.266411
2530.89	-0.0689774
2532.26	0.280836
2533.64	0.0542073
2535.02	0.192775
2536.39	0.300943
2537.77	-0.229385
2539.14	-0.18307
2540.52	0.242215
2541.89	-0.213369
2543.27	-0.0312233
2544.64	-0.0154595
2546.01	0.274183
2547.39	-0.239219
2548.76	-0.0542641
2550.14	0.00945282
2551.51	0.148749
2552.88	0.0749383
2554.25	0.0610819
2555.63	0.0314021
2557	0.0316572
2558.37	0.0772953
2559.74	-0.195261
2561.11	-0.073267
2562.49	0.230995
2563.86	0.353793
2565.23	0.0223031
2566.6	0.0849986
2567.97	0.0871439
2569.34	0.286327
2570.71	0.288487
2572.08	0.123944
2573.45	0.0200715
2574.82	0.00721169
2576.18	-0.126914
2577.55	0.254406
2578.92	-0.213515
2580.29	-0.105503
2581.66	0.169008
2583.02	0.261276
2584.39	0.0198245
2585.76	0.00575542
2587.13	0.0220785
2588.49	0.205245
2589.86	0.176311
2591.22	0.177608
2592.59	0.0725136
2593.96	-0.169451
2595.32	0.0271749
2596.69	-0.125238
2598.05	0.100141
2599.42	0.0225868
2600.78	0.141618
2602.14	0.0343313
2603.51	0.184256
2604.87	-0.133314
2606.23	0.243394
2607.6	0.348188
2608.96	-0.150594
2610.32	0.0883985
2611.69	0.0100379
2613.05	0.261777
2614.41	-0.0283384
2615.77	-0.032949
2617.13	-0.0823755
2618.49	-0.31102
2619.86	-0.0449114
2621.22	-0.107671
2622.58	0.248427
2623.94	-0.291735
2625.3	0.183537
2626.66	0.240437
2628.02	0.311911
2629.37	0.0256824
2630.73	-0.0221992
2632.09	0.0637054
2633.45	0.134586
2634.81	-0.0618362
2636.17	0.008986
2637.53	0.257504
2638.88	-0.131031
2640.24	0.117342
2641.6	0.173322
2642.96	-0.110361
2644.31	0.270823
2645.67	0.149832
2647.02	-0.162911
2648.38	-0.033742
2649.74	0.168209
2651.09	0.222243
2652.45	0.364038
2653.8	0.373644
2655.16	0.207878
2656.51	0.0578399
2657.86	0.128402
2659.22	0.141027
2660.57	0.0369802
2661.93	0.502919
2663.28	-0.244405
2664.63	0.117982
2665.98	-0.00202465
2667.34	0.271297
2668.69	-0.184006
2670.04	0.220074
2671.39	0.173186
2672.75	0.141352
2674.09	0.00835896
2675.45	0.369422
2676.8	0.179246
2678.15	0.207248
2679.5	0.0618367
2680.85	0.178181
2682.2	0.251885
2683.55	0.384482
2684.9	0.242283
2686.25	-0.42199
2687.6	-0.0997849
2688.94	0.454065
2690.29	0.00505733
2691.64	-0.053266
2692.99	-0.0981274
2694.34	0.494383
2695.68	0.231015
2697.03	0.0697432
2698.38	0.112238
2699.73	-0.0612774
2701.07	0.418067
2702.42	0.0441308
2703.76	0.134404
2705.11	0.283135
2706.45	0.461063
2707.8	0.218156
2709.15	0.250561
2710.49	0.210094
2711.83	0.212981
2713.18	0.201231
2714.52	0.421991
2715.87	0.308423
2717.21	-0.154368
2718.55	0.211638
2719.9	0.0682726
2721.24	0.0409565
2722.58	0.318944
2723.93	0.407398
2725.27	0.160748
2726.61	-0.173496
2727.95	0.55451
2729.29	0.263531
2730.63	0.118013
2731.98	-0.114787
2733.32	0.248947
2734.66	-0.143638
2736	0.4821
2737.34	-0.0701823
2738.68	0.482863
2740.02	-0.0259113
2741.36	0.250264
2742.7	0.30782
2744.03	-0.434486
2745.37	0.17436
2746.71	0.114414
2748.05	-0.22142
2749.39	-0.136173
2750.72	0.282712
2752.06	0.194031
2753.4	-0.0393434
2754.74	-0.171026
2756.07	-0.0128546
2757.41	0.145334
2758.75	0.44838
2760.08	-0.0733948
2761.42	0.201258
2762.76	-0.0881228
2764.09	0.302811
2765.42	-0.102051
2766.76	-0.131008
2768.09	0.201026
2769.43	-0.00303507
2770.76	0.0666342
2772.1	0.236329
2773.43	-0.056757
2774.76	0.126013
2776.1	-0.123715
2777.43	-0.0561419
2778.76	0.141134
2780.1	-0.13573
2781.43	0.119374
2782.76	-0.113746
2784.09	0.0406404
2785.42	0.180467
2786.75	-0.152433
2788.09	0.130952
2789.42	0.0425863
2790.75	0.155172
2792.08	0.153874
2793.41	-0.11868
2794.74	-0.23386
2796.07	-0.134877
2797.4	-0.00775576
2798.73	0.0617628
2800.06	0.344994
2801.39	0.157004
2802.71	-0.0594568
2804.04	-0.361382
2805.37	0.077363
2806.7	-0.239236
2808.03	0.0415416
2809.35	0.5632
2810.68	-0.0236526
2812.01	-0.0557718
2813.33	-0.157987
2814.66	0.152047
2815.99	0.0377026
2817.31	0.136811
2818.64	0.0379262
2819.96	-0.386923
2821.29	0.0808563
2822.61	0.222145
2823.94	0.277918
2825.26	0.22008
2826.59	0.417194
2827.91	-0.0508466
2829.23	0.302742
2830.56	0.147002
2831.88	0.0339074
2833.21	-0.192447
2834.53	0.260409
2835.85	0.17505
2837.17	-0.108745
2838.5	0.187267
2839.82	-0.20998
2841.14	0.524107
2842.46	0.113186
2843.78	0.649771
2845.1	0.268177
2846.42	0.296874
2847.74	0.297564
2849.06	0.340685
2850.38	0.0868034
2851.71	0.327304
2853.03	0.539176
2854.34	0.340945
2855.66	0.806692
2856.98	0.537704
2858.3	0.706697
2859.62	0.706166
2860.94	0.465487
2862.26	0.732917
2863.57	0.802393
2864.89	0.730552
2866.21	0.616409
2867.53	1.0243
2868.84	0.896501
2870.16	1.17787
2871.48	1.10689
2872.79	1.24717
2874.11	0.893748
2875.42	0.680716
2876.74	1.22744
2878.05	0.633276
2879.37	1.53032
2880.68	1.02098
2882	0.920098
2883.31	0.749755
2884.63	1.21197
2885.94	1.42171
2887.26	1.09809
2888.57	0.690165
2889.88	1.09559
2891.19	1.12161
2892.51	1.04909
2893.82	1.35477
2895.13	1.52038
2896.44	1.23847
2897.76	1.27929
2899.07	1.22284
2900.38	0.94309
2901.69	1.36313
2903	1.1818
2904.31	1.37823
2905.62	1.21118
2906.93	1.04447
2908.24	1.33986
2909.55	1.18815
2910.86	1.48457
2912.17	1.44521
2913.48	1.58738
2914.79	1.37872
2916.1	1.60302
2917.41	1.88226
2918.71	1.54508
2920.02	1.65558
2921.33	2.088
2922.64	1.65428
2923.94	1.99033
2925.25	2.18733
2926.56	2.27293
2927.86	2.26073
2929.17	2.1225
2930.48	2.38935
2931.78	2.34834
2933.09	1.84591
2934.39	1.80478
2935.7	1.84759
2937	2.00231
2938.31	1.93355
2939.61	1.65538
2940.92	1.75482
2942.22	1.74299
2943.53	1.57815
2944.83	1.95928
2946.13	1.86592
2947.43	1.71694
2948.74	1.70769
2950.04	1.72578
2951.34	1.07068
2952.64	1.52062
2953.95	1.73162
2955.25	1.55035
2956.55	1.49562
2957.85	1.24616
2959.15	1.25028
2960.45	1.34015
2961.75	1.65571
2963.05	1.36906
2964.35	1.41864
2965.65	1.24267
2966.95	1.33252
2968.25	1.35132
2969.55	1.18683
2970.85	1.43008
2972.15	1.04056
2973.45	1.15769
2974.75	1.12007
2976.05	0.941281
2977.34	1.19818
2978.64	0.679608
2979.94	0.934354
2981.24	1.10367
2982.53	0.766123
2983.83	0.471243
2985.13	0.669163
2986.42	0.853905
2987.72	0.730456
2989.01	0.748222
2990.31	0.710001
2991.61	0.755828
2992.9	0.407489
2994.19	0.100612
2995.49	0.0881896
2996.78	0.17361
2998.08	0.567561
2999.37	0.44232
3000.67	0.261467
3001.96	0.263375
3003.25	0.391696
3004.55	0.141818
3005.84	0.522137
3007.13	0.0898747
3008.42	-0.11865
3009.72	0.175892
3011.01	-0.00551653
3012.3	0.120236
3013.59	0.134192
3014.88	0.148416
3016.17	-0.00405788
3017.46	0.24794
3018.76	-0.126125
3020.05	-0.0407443
3021.34	-0.0391088
3022.63	0.031445
3023.92	-0.0652804
3025.21	-0.0652766
3026.49	-0.176222
3027.78	0.142326
3029.07	0.184566
3030.36	-0.283417
3031.65	0.244464
3032.94	0.17907
3034.23	0.100196
3035.51	-0.0203118
3036.8	0.0928502
3038.09	0.0944591
3039.38	-0.235498
3040.66	0.107796
3041.95	0.216214
3043.23	0.228341
3044.52	0.0220222
3045.81	-0.01858
3047.09	0.1883
3048.38	0.300982
3049.66	0.278643
3050.95	0.0255227
3052.23	0.359819
3053.52	0.257524
3054.8	0.127568
3056.09	0.419774
3057.37	0.0975537
3058.65	0.238368
3059.94	0.528612
3061.22	0.437762
3062.5	0.0757012
3063.79	0.136402
3065.07	0.456473
3066.35	-0.0381365
3067.63	0.120562
3068.92	-0.169136
3070.2	0.057796
3071.48	-0.0829821
3072.76	-0.0749078
3074.04	-0.0132413
3075.32	0.102119
3076.6	0.0813513
3077.88	-0.115553
3079.16	0.136201
3080.44	0.361742
3081.72	0.344222
3083	-0.120019
3084.28	0.66445
3085.56	0.0514593
3086.84	0.170979
3088.12	0.154335
3089.4	0.340833
3090.67	0.201313
3091.95	0.238146
3093.23	0.0852151
3094.51	-0.257256
3095.78	0.268389
3097.06	0.0483723
3098.34	0.113072
3099.61	0.191253
3100.89	0.174555
3102.17	-0.167065
3103.44	0.371747
3104.72	0.315132
3105.99	0.15083
3107.27	-0.229285
3108.54	-0.0132179
3109.82	0.203661
3111.09	0.380754
3112.37	0.341848
3113.64	-0.0354953
3114.92	0.183381
3116.19	0.280121
3117.46	0.200047
3118.74	0.336311
3120.01	0.471839
3121.28	0.566017
3122.55	0.32094
3123.83	0.279171
3125.1	0.183442
3126.37	0.358854
3127.64	0.385756
3128.91	0.575369
3130.19	0.129703
3131.46	0.00884104
3132.73	0.631243
3134	0.307504
3135.27	0.631776
3136.54	0.213293
3137.81	0.469203
3139.08	0.576354
3140.35	0.414075
3141.62	0.440438
3142.89	0.628282
3144.16	0.50743
3145.42	0.695806
3146.69	0.535917
3147.96	0.859083
3149.23	0.887768
