200.43	-0.124378
202.244	-0.0845509
204.059	-0.0437889
205.873	0.800288
207.688	0.20937
209.501	0.420017
211.314	0.628996
213.127	-0.353332
214.941	0.192366
216.753	0.905982
218.564	0.21362
220.375	0.635964
222.186	0.163554
223.999	0.103414
225.809	0.381979
227.618	0.418581
229.428	-0.342325
231.236	0.344746
233.045	0.0415115
234.855	-0.0442781
236.663	0.112045
238.471	0.36664
240.278	-0.533377
242.085	-0.105596
243.891	-0.134683
245.698	0.222074
247.503	0.190988
249.309	-0.205337
251.116	0.240001
252.921	0.0061655
254.725	0.542409
256.529	0.257663
258.333	0.407604
260.136	-0.260164
261.939	-0.516434
263.742	0.0237274
265.544	-0.302518
267.346	0.407577
269.148	0.635339
270.949	0.187057
272.75	0.315945
274.55	0.226178
276.351	0.496134
278.15	0.595131
279.95	0.234105
281.749	0.184101
283.548	-0.348907
285.346	0.00639153
287.144	0.168005
288.942	0.0893316
290.739	-0.0604725
292.536	0.269833
294.333	0.696796
296.129	0.76609
297.925	0.143263
299.721	0.0707569
301.514	0.905561
303.309	0.616613
305.104	0.445786
306.898	0.679465
308.692	0.388047
310.486	0.2403
312.279	0.474813
314.072	0.186898
315.862	0.210308
317.654	0.140176
319.446	0.238188
321.238	0.241998
323.029	0.413404
324.819	0.466022
326.608	0.470907
328.398	0.571026
330.188	0.670448
331.977	0.625108
333.766	0.769228
335.553	0.408495
337.341	0.380276
339.129	0.038784
340.917	0.724126
342.704	0.308337
344.489	0.561726
346.275	1.12583
348.062	0.0665169
349.845	-0.0369654
351.631	0.742649
353.416	0.399733
355.201	0.58063
356.984	0.49763
358.768	-0.253986
360.552	0.399133
362.333	-0.329931
364.116	0.177739
365.899	0.0660658
367.68	0.499618
369.462	0.480844
371.243	0.792735
373.023	0.0384226
374.804	-0.0529337
376.585	0.021121
378.363	0.024683
380.143	0.00548744
381.923	0.387525
383.7	0.723158
385.479	0.565993
387.256	-0.177284
389.034	-0.378718
390.812	0.125389
392.588	-0.191875
394.365	0.125493
396.14	-0.378817
397.916	0.150258
399.691	0.420774
401.467	0.479428
403.24	0.349465
405.015	-0.0161457
406.788	0.275023
408.563	0.26022
410.335	0.784886
412.109	0.0185623
413.88	0.660724
415.654	0.364895
417.424	-0.0944366
419.197	0.174216
420.967	0.161486
422.739	0.993541
424.508	-0.146996
426.279	-0.161698
428.048	-0.224216
429.819	0.604718
431.587	0.306817
433.356	0.0796318
435.124	0.204775
436.891	-0.608935
438.66	0.501157
440.426	-0.0564871
442.194	-0.498515
443.96	0.276851
445.725	0.205979
447.492	0.344605
449.257	0.482456
451.021	0.152839
452.787	0.641101
454.551	-0.177443
456.314	0.706664
458.079	0.727514
459.842	0.213139
461.604	-0.392886
463.368	0.00261211
465.13	0.0747604
466.891	0.219349
468.654	0.087739
470.415	0.492724
472.175	0.223976
473.935	0.792346
475.696	0.381167
477.456	0.619809
479.215	0.809945
480.973	0.160455
482.733	0.629102
484.491	0.35357
486.249	1.03502
488.006	0.0876904
489.765	0.727289
491.522	0.738656
493.278	0.446991
495.034	0.809808
496.789	0.35391
498.544	-0.103145
500.301	0.329666
502.056	0.387022
503.81	0.561007
505.564	0.428517
507.317	0.24745
509.071	0.488131
510.825	0.58615
512.578	0.494311
514.33	-0.352001
516.082	0.376784
517.833	0.233831
519.585	0.84221
521.335	0.767852
523.086	0.199887
524.836	0.242545
526.586	0.683916
528.335	0.585571
530.085	0.112258
531.835	0.458803
533.584	0.523254
535.332	0.633211
537.08	0.577966
538.827	-0.132311
540.574	0.0672626
542.321	0.288871
544.068	0.998097
545.814	0.613452
547.56	-0.118229
549.305	0.21839
551.05	-0.256008
552.795	-0.197186
554.54	0.370022
556.282	-0.356314
558.025	-0.181512
559.769	0.477244
561.512	0.145558
563.255	0.413021
564.997	0.657689
566.739	0.0757484
568.481	0.0462646
570.223	0.017828
571.964	0.38074
573.705	0.309319
575.443	0.193786
577.183	-0.470859
578.923	0.0589972
580.663	0.0388756
582.402	0.386519
584.141	0.159239
585.879	-0.0922203
587.615	0.322083
589.353	0.275197
591.09	0.112329
592.828	-0.465209
594.564	0.107471
596.299	0.174024
598.035	-0.380637
599.771	0.766844
601.506	0.372082
603.242	-0.184783
604.974	0.63668
606.709	-0.0145092
608.443	-0.160574
610.177	0.175343
611.908	0.327835
613.642	0.343392
615.374	0.0616779
617.105	0.19276
618.837	0.689683
620.569	0.383907
622.3	0.443249
624.03	-0.412748
625.761	-0.308146
627.491	0.0255861
629.219	-0.300939
630.949	0.264796
632.677	-0.0574217
634.406	0.100627
636.135	-0.175258
637.861	-0.0190458
639.59	0.819187
641.318	0.262345
643.043	0.114064
644.77	0.351835
646.495	0.270986
648.222	0.123876
649.948	0.0481195
651.672	0.725927
653.398	0.294195
655.121	0.388496
656.846	0.189275
658.569	0.537672
660.293	0.703892
662.015	0.846009
663.738	0.780307
665.46	0.0718937
667.183	0.710351
668.903	0.479149
670.626	0.317133
672.346	1.3012
674.067	0.434007
675.787	0.713669
677.508	0.467477
679.226	0.197993
680.947	0.593747
682.665	0.574273
684.385	0.345468
686.102	-0.0697441
687.821	0.849183
689.538	0.131817
691.254	0.542375
692.972	0.399477
694.688	0.647421
696.406	0.318608
698.121	0.587343
699.835	0.256354
701.552	0.752478
703.266	1.52286
704.98	0.45406
706.695	0.763277
708.409	0.498313
710.121	0.439611
711.836	0.151705
713.548	0.71032
715.26	0.582161
716.973	0.910799
718.685	0.896788
720.396	1.15648
722.108	0.823805
723.818	0.491772
725.528	0.933128
727.238	0.442187
728.949	1.24517
730.658	1.16205
732.367	0.829558
734.075	1.17629
735.785	0.776474
737.493	1.61975
739.2	1.01833
740.907	1.83905
742.614	1.60113
744.322	0.734578
746.028	1.53557
747.734	0.875168
749.439	1.40854
751.144	1.29089
752.849	0.499795
754.555	1.48712
756.26	1.05871
757.963	1.26196
759.667	0.678382
761.37	1.42535
763.073	1.29403
764.775	1.27517
766.477	1.18738
768.179	1.70802
769.883	1.59364
771.584	1.49971
773.285	1.56258
774.986	1.71538
776.686	1.68782
778.386	2.18166
780.085	1.70479
781.785	1.88494
783.484	2.17856
785.182	2.17691
786.881	1.42574
788.579	1.59946
790.276	1.76968
791.974	1.643
793.671	2.01159
795.367	2.17614
797.064	2.2737
798.76	1.427
800.456	1.88872
802.151	2.50896
803.846	1.48775
805.541	1.70362
807.234	2.00837
808.928	1.79505
810.622	1.17683
812.315	2.06098
814.008	1.62118
815.701	2.6146
817.394	2.19712
819.086	1.42283
820.778	2.16847
822.468	1.66381
824.159	1.87418
825.85	1.92976
827.541	1.5643
829.231	1.35771
830.921	2.13413
832.609	2.3792
834.298	1.84663
835.987	1.11381
837.676	1.56279
839.364	1.78781
841.051	1.14026
842.738	1.1836
844.426	1.74042
846.113	1.44878
847.798	1.38231
849.484	1.69856
851.171	1.61479
852.857	1.66734
854.54	1.54148
856.226	1.16815
857.911	1.04029
859.593	1.90067
861.278	1.47696
862.961	1.97473
864.645	1.16443
866.327	0.69079
868.01	1.00549
869.692	1.59051
871.373	0.731749
873.055	1.65481
874.735	0.863196
876.416	0.883778
878.097	0.949525
879.776	0.812035
881.457	0.425843
883.135	1.25802
884.815	0.915212
886.495	0.819398
888.172	1.33128
889.851	0.939083
891.528	1.01913
893.206	0.75992
894.882	1.08501
896.56	1.00379
898.237	1.16875
899.912	1.17539
901.589	1.13637
903.263	1.00738
904.94	1.37016
906.614	0.973365
908.289	0.912542
909.962	1.29813
911.635	0.749454
913.31	1.55826
914.982	1.27792
916.656	1.46399
918.328	1.78264
920.001	1.03799
921.672	1.44559
923.345	1.03578
925.015	1.57807
926.685	1.39305
928.357	1.45272
930.026	0.763379
931.698	1.0899
933.366	1.28426
935.035	1.72136
936.705	0.592895
938.373	1.49441
940.041	0.875344
941.71	0.87501
943.377	1.69186
945.044	1.27298
946.712	0.654138
948.378	1.20336
950.044	1.06636
951.709	1.23704
953.376	1.3194
955.041	1.29304
956.706	0.916653
958.372	1.16101
960.036	1.34224
961.699	1.48118
963.362	1.02341
965.027	0.386452
966.69	1.22871
968.352	0.453232
970.014	0.494302
971.676	0.114225
973.339	1.03946
975	1.01504
976.661	0.837637
978.322	0.551072
979.982	0.696524
981.642	0.841698
983.303	1.06309
984.962	0.264224
986.621	1.38909
988.28	1.44944
989.938	0.645992
991.596	1.21295
993.254	0.232959
994.911	0.799394
996.57	0.968171
998.227	1.24698
999.884	1.45912
1001.54	1.62653
1003.2	2.07935
1004.85	1.36562
1006.51	1.31204
1008.16	0.973178
1009.82	0.218177
1011.47	-0.272238
1013.12	0.75061
1014.78	0.962196
1016.43	0.429637
1018.08	0.335745
1019.74	1.00819
1021.39	0.588003
1023.04	0.387741
1024.69	0.713004
1026.34	0.601735
1028	0.993061
1029.65	1.25257
1031.3	0.287672
1032.95	0.500768
1034.6	0.952018
1036.25	0.812597
1037.9	0.933956
1039.54	1.05501
1041.19	0.806764
1042.84	0.538425
1044.49	0.619728
1046.14	0.398812
1047.78	0.527318
1049.43	0.418539
1051.08	0.615072
1052.72	1.31216
1054.37	0.640969
1056.02	0.578049
1057.66	0.145258
1059.31	0.733744
1060.95	0.560678
1062.6	1.10439
1064.24	0.842624
1065.88	0.623335
1067.53	1.03332
1069.17	0.268846
1070.81	0.677011
1072.45	0.628839
1074.1	1.01512
1075.74	1.16358
1077.38	1.09648
1079.02	0.0765581
1080.66	0.206763
1082.3	0.488761
1083.94	0.639789
1085.58	0.854189
1087.22	0.24302
1088.86	0.583252
1090.5	0.748141
1092.14	0.608893
1093.78	-0.416037
1095.42	0.567623
1097.05	1.37786
1098.69	1.26198
1100.33	0.782142
1101.96	0.390813
1103.6	0.969568
1105.24	0.0653038
1106.87	1.20504
1108.51	1.11845
1110.14	0.299753
1111.78	0.855524
1113.41	0.378039
1115.05	0.801495
1116.68	0.816155
1118.31	-0.0480614
1119.95	0.289252
1121.58	0.541482
1123.21	0.173848
1124.85	0.278159
1126.48	-0.0659132
1128.11	0.767066
1129.74	0.146547
1131.37	0.0612183
1133	0.788543
1134.63	0.852978
1136.26	-0.109121
1137.89	0.146111
1139.52	-0.66794
1141.15	0.118991
1142.78	-0.290316
1144.41	-0.0805864
1146.04	0.470679
1147.66	0.0208445
1149.29	0.0834532
1150.92	0.061307
1152.55	0.209548
1154.17	0.293516
1155.8	0.440885
1157.43	0.0561314
1159.05	0.16115
1160.68	-0.498605
1162.3	0.267447
1163.93	0.120127
1165.55	0.738749
1167.17	0.102679
1168.8	0.613692
1170.42	0.293918
1172.05	-0.239984
1173.67	0.371512
1175.29	0.599049
1176.91	-0.488635
1178.54	0.353138
1180.16	0.559323
1181.78	-0.164636
1183.4	-0.273975
1185.02	0.271876
1186.64	0.267155
1188.26	0.17646
1189.88	-0.0213709
1191.5	0.221504
1193.12	-0.0423145
1194.74	-0.180261
1196.36	0.583732
1197.97	0.927797
1199.59	1.18915
1201.21	0.428643
1202.83	1.34239
1204.44	0.525688
1206.06	1.21398
1207.68	0.630867
1209.29	1.19548
1210.91	0.695448
1212.52	0.569251
1214.14	0.732673
1215.75	0.997702
1217.37	1.19798
1218.98	1.06426
1220.59	0.868392
1222.21	0.735824
1223.82	0.853403
1225.43	1.05516
1227.05	0.906455
1228.66	1.0696
1230.27	1.21325
1231.88	1.46144
1233.49	1.25613
1235.1	1.19684
1236.72	1.49019
1238.33	1.47462
1239.94	1.3357
1241.55	1.58992
1243.16	1.92666
1244.76	1.4971
1246.37	1.79063
1247.98	1.52436
1249.59	1.87801
1251.2	2.2726
1252.8	1.44691
1254.41	1.22195
1256.02	1.30837
1257.62	1.62366
1259.23	1.54716
1260.84	2.11326
1262.44	1.08583
1264.05	1.21772
1265.66	1.39075
1267.26	1.31438
1268.86	1.27846
1270.47	1.11706
1272.07	1.30705
1273.67	1.86912
1275.28	1.435
1276.88	1.58032
1278.48	1.51753
1280.09	1.32989
1281.69	2.11483
1283.29	1.47174
1284.89	1.3881
1286.49	1.38813
1288.09	1.82328
1289.69	1.68064
1291.29	1.74522
1292.89	2.16095
1294.49	1.21235
1296.09	2.26613
1297.69	1.78978
1299.29	2.34366
1300.89	2.31788
1302.49	2.78509
1304.08	1.70689
1305.68	1.94576
1307.28	1.38262
1308.88	2.29748
1310.47	1.5504
1312.07	1.86984
1313.66	1.73949
1315.26	1.12002
1316.85	1.54387
1318.45	1.96765
1320.04	2.0849
1321.64	2.4454
1323.23	2.39656
1324.83	2.06129
1326.42	1.82679
1328.01	2.05855
1329.61	1.94609
1331.2	2.03783
1332.79	1.38421
1334.38	2.55116
1335.97	2.427
1337.56	2.40448
1339.16	2.72394
1340.75	1.71174
1342.34	1.38314
1343.93	1.85719
1345.52	1.88725
1347.11	1.23557
1348.7	1.74883
1350.29	1.9235
1351.87	1.9607
1353.46	1.44032
1355.05	1.34143
1356.64	1.46281
1358.22	1.62364
1359.81	1.62363
1361.4	1.54263
1362.98	1.38104
1364.57	1.71765
1366.16	1.31692
1367.74	1.45512
1369.33	1.59446
1370.91	1.377
1372.5	1.47945
1374.08	1.60297
1375.67	0.931298
1377.25	1.47353
1378.83	0.920828
1380.41	0.844713
1382	1.36411
1383.58	0.947223
1385.16	1.54337
1386.74	1.38352
1388.33	0.727532
1389.91	0.787352
1391.49	0.907552
1393.07	0.691238
1394.65	0.753089
1396.23	1.11218
1397.81	0.895508
1399.39	1.39133
1400.97	1.0935
1402.55	1.07249
1404.13	0.477737
1405.7	0.793689
1407.28	0.576541
1408.86	1.21
1410.44	0.776969
1412.01	0.995807
1413.59	1.13496
1415.17	0.464119
1416.74	0.818576
1418.32	0.640094
1419.89	1.13188
1421.47	0.836647
1423.04	1.33057
1424.62	0.999348
1426.19	1.35833
1427.77	1.26519
1429.34	1.2899
1430.91	1.5105
1432.49	1.88728
1434.06	1.712
1435.63	2.04768
1437.2	2.14742
1438.78	2.16928
1440.35	2.42809
1441.92	2.57001
1443.49	2.02486
1445.06	2.79695
1446.63	2.90105
1448.2	3.20192
1449.77	2.8151
1451.34	3.03826
1452.91	2.69178
1454.48	2.68
1456.05	2.45176
1457.62	2.24241
1459.18	2.8976
1460.75	1.99617
1462.32	2.0964
1463.89	1.86048
1465.45	2.4098
1467.02	1.46518
1468.59	1.73921
1470.15	1.11119
1471.72	0.504407
1473.28	1.36996
1474.85	1.45159
1476.41	1.06307
1477.98	1.02765
1479.54	1.03139
1481.1	0.48624
1482.67	0.881809
1484.23	0.728511
1485.79	1.08427
1487.36	0.694873
1488.92	0.950514
1490.48	0.812751
1492.04	0.399299
1493.61	0.316534
1495.17	0.44685
1496.73	0.0107336
1498.29	0.529016
1499.85	0.424578
1501.41	0.166107
1502.97	0.355361
1504.53	0.0219755
1506.09	0.328269
1507.65	0.730111
1509.2	0.531262
1510.76	0.447503
1512.32	0.363108
1513.88	0.490256
1515.43	0.232811
1516.99	-0.157814
1518.55	0.431174
1520.1	-0.03409
1521.66	0.382055
1523.22	0.491176
1524.77	0.599309
1526.33	0.610849
1527.88	0.488174
1529.44	0.213168
1530.99	0.603476
1532.54	0.519157
1534.1	0.663159
1535.65	0.240403
1537.21	0.254064
1538.76	0.173994
1540.31	0.641294
1541.86	0.749859
1543.42	0.57583
1544.97	0.101125
1546.52	0.509952
1548.07	0.617578
1549.62	0.649975
1551.17	0.420336
1552.72	0.90249
1554.27	1.29124
1555.82	1.17651
1557.37	1.79171
1558.92	0.897058
1560.47	0.583124
1562.02	1.33412
1563.56	1.11619
1565.11	1.4026
1566.66	0.756124
1568.21	1.15444
1569.75	1.04848
1571.3	0.960797
1572.85	1.47017
1574.39	1.56874
1575.94	1.77933
1577.49	1.24342
1579.03	1.75336
1580.57	1.7039
1582.12	1.22568
1583.66	1.94369
1585.21	1.56036
1586.75	1.40158
1588.3	1.07449
1589.84	1.42055
1591.38	1.33591
1592.92	1.15711
1594.47	1.42744
1596.01	1.64175
1597.55	1.78165
1599.09	1.47234
1600.63	2.15769
1602.17	1.9621
1603.71	2.06676
1605.25	2.3399
1606.79	1.97281
1608.33	1.97942
1609.87	1.90843
1611.41	1.23379
1612.95	1.53426
1614.49	1.85182
1616.03	1.43704
1617.57	1.60431
1619.1	1.11685
1620.64	1.38039
1622.18	1.57027
1623.72	1.68605
1625.25	1.16542
1626.79	1.35539
1628.32	1.67495
1629.86	1.73103
1631.39	1.41216
1632.93	1.7283
1634.46	1.39102
1636	1.53999
1637.53	2.04412
1639.07	1.78415
1640.6	1.72943
1642.13	1.95357
1643.67	1.91569
1645.2	2.04408
1646.73	2.72917
1648.26	2.13079
1649.8	1.9236
1651.33	2.55274
1652.86	2.36646
1654.39	2.7007
1655.92	2.51646
1657.45	2.33229
1658.98	2.57343
1660.51	2.36865
1662.04	2.53253
1663.57	2.69492
1665.1	2.94875
1666.63	2.09522
1668.16	2.94081
1669.68	1.64886
1671.21	1.87052
1672.74	2.00107
1674.27	1.96632
1675.79	1.93137
1677.32	1.12265
1678.85	1.76679
1680.37	2.05986
1681.9	1.61681
1683.42	1.83501
1684.95	1.24557
1686.47	0.950647
1688	1.02308
1689.52	1.33395
1691.05	1.00392
1692.57	0.857306
1694.09	0.911983
1695.62	0.838465
1697.14	1.34948
1698.66	0.964766
1700.18	0.908591
1701.71	0.815503
1703.23	0.758438
1704.75	0.810175
1706.27	0.624848
1707.79	1.20308
1709.31	0.581441
1710.83	0.614264
1712.35	0.683467
1713.87	0.571532
1715.39	0.821898
1716.91	0.275926
1718.43	0.399428
1719.95	-0.253828
1721.47	-0.0398016
1722.99	-0.0780296
1724.5	0.0468359
1726.02	0.0646782
1727.54	0.983725
1729.06	0.553496
1730.57	0.537212
1732.09	0.644326
1733.61	-0.0767307
1735.12	0.57115
1736.64	-0.261483
1738.15	0.522859
1739.67	0.718153
1741.18	0.0358572
1742.7	0.301117
1744.21	0.0257511
1745.72	0.21457
1747.24	0.160833
1748.75	-0.134862
1750.26	-0.0396824
1751.77	0.154887
1753.29	-0.0739079
1754.8	0.16561
1756.31	0.382094
1757.82	0.0893068
1759.33	-0.0955725
1760.84	-0.144875
1762.36	-0.100231
1763.87	0.151601
1765.38	0.319153
1766.89	-0.115376
1768.4	-0.0766726
1769.91	0.0618114
1771.41	0.0502672
1772.92	-0.166162
1774.43	0.467381
1775.94	-0.0410452
1777.45	-0.0487423
1778.95	-0.427724
1780.46	0.0586081
1781.97	0.0376368
1783.48	-0.301713
1784.98	-0.289982
1786.49	0.101027
1787.99	-0.0468922
1789.5	0.116498
1791.01	-0.0647936
1792.51	0.0784941
1794.01	0.13127
1795.52	-0.262893
1797.02	-0.101436
1798.53	0.040163
1800.03	-0.0630951
1801.53	-0.092988
1803.04	-0.0358906
1804.54	-0.117393
1806.04	-0.0130949
1807.54	0.307854
1809.05	-0.0265894
1810.55	-0.034853
1812.05	-0.0742922
1813.55	0.138579
1815.05	-0.0851498
1816.55	0.100741
1818.05	0.149649
1819.55	-0.0330343
1821.05	0.148569
1822.55	-0.110449
1824.05	-0.0384827
1825.55	0.15438
1827.05	-0.123848
1828.55	-0.0141649
1830.04	0.118484
1831.54	0.0116625
1833.04	0.215557
1834.54	-0.0572872
1836.03	-0.0699797
1837.53	-0.0835352
1839.03	-0.0883636
1840.52	0.0726233
1842.02	0.0133295
1843.51	-0.0154047
1845.01	0.295259
1846.5	-0.154878
1848	0.0111656
1849.49	0.121496
1850.99	0.166031
1852.48	0.152173
1853.97	0.081214
1855.47	0.184765
1856.96	0.3636
1858.45	-0.119306
1859.94	0.190526
1861.44	0.152108
1862.93	-0.0137568
1864.42	0.083457
1865.91	-0.0875158
1867.4	-0.113893
1868.89	0.291415
1870.38	0.147355
1871.87	0.0743418
1873.36	-0.000602722
1874.85	0.296037
1876.34	0.170149
1877.83	0.165236
1879.32	0.155964
1880.81	0.0821991
1882.3	0.309469
1882.57	0.368623
1884.07	0.299438
1885.56	0.299252
1887.06	0.141504
1888.55	-0.103563
1890.04	0.156363
1891.54	0.121324
1893.03	0.435512
1894.52	0.177597
1896.02	-0.235432
1897.51	0.117338
1899	0.27877
1900.49	0.178324
1901.98	0.354701
1903.47	0.111977
1904.96	0.772028
1906.45	0.318763
1907.94	0.00487137
1909.43	0.16048
1910.92	0.472979
1912.41	-0.185284
1913.9	-0.253102
1915.39	0.0953331
1916.88	0.51266
1918.37	0.391975
1919.85	-0.00627899
1921.34	-0.092577
1922.83	0.219808
1924.32	0.446296
1925.8	0.327571
1927.29	0.0367002
1928.78	0.0753117
1930.26	0.183135
1931.75	0.117042
1933.23	0.55175
1934.72	-0.105922
1936.2	0.238906
1937.69	0.409361
1939.17	0.268171
1940.66	0.386456
1942.14	0.17751
1943.63	-0.0302734
1945.11	0.452613
1946.59	0.142537
1948.07	-0.477777
1949.56	0.0214205
1951.04	-0.134998
1952.52	0.017663
1954	0.0836439
1955.48	0.132285
1956.96	0.438801
1958.45	0.110583
1959.93	-0.165174
1961.41	0.211358
1962.89	0.262086
1964.37	0.603836
1965.85	-0.0655556
1967.32	0.155096
1968.8	-0.155339
1970.28	-0.38042
1971.76	0.0094614
1973.24	0.159779
1974.72	0.173521
1976.19	0.391928
1977.67	0.32064
1979.15	-0.0738668
1980.63	0.110436
1982.1	0.209335
1983.58	0.358768
1985.05	-0.0694218
1986.53	0.130328
1988	-0.110854
1989.48	0.258219
1990.95	0.305867
1992.43	0.371236
1993.9	0.471271
1995.38	0.301598
1996.85	0.149317
1998.32	0.0308533
1999.8	0.367878
2001.27	0.130323
2002.74	0.465985
2004.22	0.0931673
2005.69	0.24336
2007.16	0.596222
2008.63	0.0573053
2010.1	0.445344
2011.57	0.278237
2013.04	0.29634
2014.51	0.566449
2015.98	0.364623
2017.45	0.07798
2018.92	0.311946
2020.39	0.158739
2021.86	0.25746
2023.33	0.524233
2024.8	0.304949
2026.27	0.372051
2027.74	0.323049
2029.2	0.476684
2030.67	0.228957
2032.14	0.284028
2033.61	0.222039
2035.07	0.10958
2036.54	0.181479
2038.01	0.471365
2039.47	0.324033
2040.94	0.411934
2042.4	0.41615
2043.87	0.286506
2045.33	-0.212634
2046.8	-0.307544
2048.26	0.237804
2049.72	0.0249643
2051.19	0.350562
2052.65	0.540001
2054.12	0.761506
2055.58	0.256221
2057.04	-0.08149
2058.5	0.406024
2059.97	0.269799
2061.43	0.117217
2062.89	-0.101878
2064.35	0.0165792
2065.81	0.186359
2067.27	-0.215323
2068.73	0.241806
2070.19	0.227972
2071.65	-0.173043
2073.11	0.435956
2074.57	0.472298
2076.03	0.558844
2077.49	0.22404
2078.95	0.0235877
2080.41	0.294222
2081.87	-0.15967
2083.32	0.160312
2084.78	0.36167
2086.24	0.461292
2087.7	0.34168
2089.15	-0.047092
2090.61	-0.250892
2092.07	0.451999
2093.52	0.466108
2094.98	0.36256
2096.43	0.342466
2097.89	0.204549
2099.34	0.250365
2100.8	0.44633
2102.25	0.37485
2103.71	0.68828
2105.16	0.601986
2106.61	0.567086
2108.07	0.132864
2109.52	0.349432
2110.97	-0.234776
2112.43	0.363354
2113.88	0.343193
2115.33	0.304998
2116.78	0.149716
2118.23	0.227534
2119.68	0.405997
2121.13	0.13805
2122.59	0.137328
2124.04	0.187586
2125.49	0.288105
2126.94	0.620457
2128.39	0.0235066
2129.83	0.618755
2131.28	0.384223
2132.73	0.198899
2134.18	0.443879
2135.63	0.590099
2137.08	-0.221129
2138.53	0.275102
2139.97	0.6407
2141.42	0.148255
2142.87	0.63217
2144.31	0.240209
2145.76	0.592789
2147.21	0.216854
2148.65	0.270718
2150.1	1.13562
2151.54	0.72408
2152.99	0.742377
2154.43	0.74336
2155.88	0.710795
2157.32	0.694872
2158.77	0.745859
2160.21	0.980274
2161.65	0.437527
2163.1	0.973619
2164.54	0.980811
2165.98	0.62349
2167.43	1.04642
2168.87	0.820537
2170.31	0.792378
2171.75	0.462859
2173.19	0.347848
2174.64	1.04671
2176.07	0.913325
2177.52	1.01296
2178.96	1.14651
2180.4	1.09808
2181.84	1.05044
2183.28	0.770491
2184.72	0.873238
2186.15	0.72654
2187.59	0.679628
2189.03	1.09872
2190.47	0.718938
2191.91	0.57185
2193.35	0.607199
2194.78	0.990983
2196.22	0.790385
2197.66	0.9375
2199.09	0.766971
2200.53	0.562513
2201.97	0.540862
2203.4	0.768685
2204.84	0.881143
2206.27	0.712677
2207.71	0.743603
2209.14	0.52592
2210.58	0.820802
2212.01	0.783605
2213.45	0.646602
2214.88	0.691367
2216.31	0.356989
2217.75	0.419927
2219.18	0.549848
2220.61	0.466112
2222.05	0.563797
2223.48	0.314785
2224.91	0.674004
2226.34	0.389488
2227.78	0.317668
2229.21	0.129902
2230.64	0.466811
2232.07	0.720846
2233.5	0.270766
2234.93	0.427271
2236.36	0.551863
2237.79	0.204266
2239.22	0.0708528
2240.65	0.281789
2242.08	0.0375338
2243.5	0.218394
2244.93	0.187504
2246.36	0.677966
2247.79	0.367747
2249.22	0.365505
2250.64	0.328706
2252.07	-0.0514007
2253.5	0.251451
2254.92	0.537779
2256.35	0.613914
2257.78	0.351386
2259.2	-0.0706649
2260.63	0.256136
2262.05	0.422913
2263.48	0.168971
2264.9	0.434995
2266.33	0.554642
2267.75	0.234419
2269.18	0.319964
2270.6	0.453699
2272.02	-0.0805554
2273.45	0.41085
2274.87	0.250939
2276.29	0.23778
2277.71	-0.198995
2279.14	0.293294
2280.56	0.051971
2281.98	0.691202
2283.4	-0.333456
2284.82	0.32226
2286.24	0.684686
2287.66	0.459846
2289.08	-0.0424266
2290.5	-0.0381861
2291.92	0.129764
2293.34	0.199831
2294.76	0.319015
2296.18	0.209057
2297.6	0.0989513
2299.02	0.611339
2300.44	0.370402
2301.86	0.441057
2303.27	-0.0457835
2304.69	-0.0733819
2306.11	-0.00254345
2307.53	0.183078
2308.94	0.56564
2310.36	-0.104477
2311.78	-0.0351644
2313.19	0.610066
2314.61	0.482482
2316.02	0.0096612
2317.44	0.261987
2318.85	0.317151
2320.27	0.339151
2321.68	-0.530883
2323.1	0.115385
2324.51	0.545158
2325.92	0.675732
2327.34	0.656235
2328.75	0.438308
2330.16	0.270233
2331.58	0.218374
2332.99	-0.556601
2334.4	0.084579
2335.81	0.16635
2337.23	0.132536
2338.64	-0.247363
2340.05	0.0786576
2341.46	-0.253366
2342.87	0.300771
2344.28	-0.0150175
2345.69	0.538449
2347.1	0.321685
2348.51	0.0888314
2349.92	0.150367
2351.33	0.243804
2352.74	0.336195
2354.15	0.0849242
2355.55	-0.199047
2356.96	-0.0593705
2358.37	0.112501
2359.78	-0.0895643
2361.19	0.179536
2362.59	-0.168016
2364	0.278619
2365.41	0.0286078
2366.81	-0.156058
2368.22	-0.146087
2369.62	0.0744472
2371.03	0.311919
2372.44	0.179764
2373.84	-0.015779
2375.24	0.0949845
2376.65	0.0605025
2378.05	0.218045
2379.46	0.100832
2380.86	0.271276
2382.26	-0.42574
2383.67	0.35147
2385.07	0.102914
2386.47	0.270692
2387.88	0.199536
2389.28	0.0817699
2390.68	0.220208
2392.08	0.18438
2393.48	0.260862
2394.89	0.0199413
2396.29	0.0818982
2397.69	-0.364202
2399.09	-0.0945697
2400.49	-0.110576
2401.89	0.159594
2403.29	0.350308
2404.69	0.238928
2406.09	-0.190659
2407.48	-0.335128
2408.88	-0.0202069
2410.28	0.0563598
2411.68	0.275639
2413.08	0.131239
2414.48	0.0197434
2415.87	0.305351
2417.27	-0.0411148
2418.67	0.278164
2420.06	0.439502
2421.46	-0.0961876
2422.86	0.334039
2424.25	0.0511332
2425.65	0.243619
2427.04	0.167205
2428.44	-0.415778
2429.83	0.429033
2431.23	0.339025
2432.62	0.0903144
2434.02	-0.11146
2435.41	0.114586
2436.81	0.339414
2438.2	-0.16797
2439.59	0.00671721
2440.99	-0.152946
2442.38	0.242635
2443.77	0.240975
2445.16	0.12813
2446.56	0.284771
2447.95	0.219296
2449.34	-0.0362024
2450.73	-0.0221095
2452.12	0.166554
2453.51	0.00769854
2454.9	-0.10287
2456.29	0.0877519
2457.68	-0.116824
2459.07	-0.321514
2460.46	0.0742984
2461.85	0.0739846
2463.24	0.38908
2464.63	0.197854
2466.02	0.148656
2467.4	-0.0268517
2468.79	0.271093
2470.18	0.000844479
2471.57	-0.174962
2472.95	0.0426631
2474.34	0.133395
2475.73	0.14478
2477.12	0.423012
2478.5	0.00978518
2479.89	0.225037
2481.27	0.0794868
2482.66	0.0437727
2484.04	0.148582
2485.43	-0.138562
2486.81	0.105052
2488.2	0.222314
2489.58	0.136045
2490.97	0.189957
2492.35	-0.253182
2493.73	-0.0888133
2495.12	-0.218331
2496.5	0.118438
2497.88	0.254108
2499.27	0.204092
2500.65	0.432239
2502.03	0.551128
2503.41	0.205693
2504.79	0.0143743
2506.17	-0.377365
2507.56	0.201147
2508.94	-0.128503
2510.32	-0.165278
2511.7	-0.155381
2513.08	-0.328761
2514.46	0.203423
2515.84	-0.259238
2517.22	-0.277046
2518.59	0.256015
2519.97	0.0093689
2521.35	0.00710773
2522.73	-0.117831
2524.11	0.0769682
2525.49	-0.140622
2526.86	0.0226135
2528.24	0.0642552
2529.62	-0.303716
2530.99	0.27238
2532.37	0.120276
2533.75	-0.106517
2535.12	0.366192
2536.5	0.033648
2537.88	-0.0715842
2539.25	-0.0409193
2540.63	0.277488
2542	0.0793562
2543.38	-0.10319
2544.75	0.382556
2546.12	0.217103
2547.5	0.113436
2548.87	0.0863609
2550.24	-0.00136995
2551.62	0.289855
2552.99	0.0491252
2554.36	0.186889
2555.74	0.202453
2557.11	-0.0554776
2558.48	-0.161723
2559.85	0.338705
2561.22	0.157386
2562.59	0.234336
2563.96	0.0390434
2565.34	-0.0346198
2566.71	0.119256
2568.08	0.106535
2569.45	0.184768
2570.82	-0.115891
2572.18	-0.052752
2573.55	0.328817
2574.92	0.483142
2576.29	-0.302449
2577.66	-0.26946
2579.03	-0.115337
2580.4	-0.279922
2581.77	-0.00511503
2583.13	-0.27646
2584.5	-0.0779791
2585.87	-0.152413
2587.23	0.318929
2588.6	0.169001
2589.97	0.216217
2591.33	-0.054903
2592.7	0.0675726
2594.06	0.0832686
2595.43	0.0677795
2596.79	-0.205898
2598.16	0.246173
2599.52	0.0775557
2600.89	0.181232
2602.25	0.0285363
2603.62	0.193593
2604.98	0.147773
2606.34	-0.0637608
2607.71	-0.0643191
2609.07	0.175534
2610.43	-0.384211
2611.79	0.0791354
2613.16	0.149761
2614.52	0.0693789
2615.88	-0.161084
2617.24	0.238728
2618.6	-0.529781
2619.96	0.349676
2621.32	0.286449
2622.68	0.20886
2624.04	0.0420041
2625.4	0.0991621
2626.76	-0.112377
2628.12	-0.130172
2629.48	-0.237516
2630.84	-0.00266552
2632.2	-0.0209799
2633.56	0.198368
2634.92	-0.0427337
2636.28	0.0872889
2637.63	0.0837488
2638.99	0.0802827
2640.35	0.0621881
2641.71	0.206985
2643.06	-0.150432
2644.42	0.437606
2645.77	-0.0373836
2647.13	-0.0108323
2648.49	0.191839
2649.84	0.319867
2651.2	-0.0233617
2652.55	0.0450568
2653.91	0.157578
2655.26	0.0800362
2656.62	0.208656
2657.97	0.177145
2659.33	0.21962
2660.68	-0.0446253
2662.03	0.436582
2663.39	0.0111895
2664.74	0.359213
2666.09	0.0935178
2667.44	0.192169
2668.8	0.0139523
2670.15	-0.163717
2671.5	-0.0934839
2672.85	0.122517
2674.2	0.440478
2675.55	0.192588
2676.91	0.163079
2678.26	0.32274
2679.61	0.106096
2680.96	-0.12403
2682.31	0.415325
2683.66	0.317844
2685	0.424266
2686.35	0.211957
2687.7	-0.015172
2689.05	0.0324073
2690.4	0.223725
2691.75	0.369856
2693.1	0.0793157
2694.44	0.223244
2695.79	0.294436
2697.14	0.235775
2698.49	0.0480061
2699.83	-0.0368552
2701.18	0.0101123
2702.52	0.159792
2703.87	0.556846
2705.22	0.12835
2706.56	0.076632
2707.91	0.227806
2709.25	0.436826
2710.6	0.340719
2711.94	0.258851
2713.29	0.394787
2714.63	0.53077
2715.97	0.317824
2717.32	0.497332
2718.66	0.502145
2720.01	0.521187
2721.35	0.539834
2722.69	0.630836
2724.03	0.575866
2725.38	0.505958
2726.72	0.261065
2728.06	0.321568
2729.4	0.702012
2730.74	0.412931
2732.08	0.211207
2733.42	0.329653
2734.76	0.491887
2736.1	0.494299
2737.44	0.424127
2738.78	0.54301
2740.12	0.327198
2741.46	0.430897
2742.8	0.0106692
2744.14	0.316701
2745.48	0.287875
2746.82	0.287755
2748.16	0.156855
2749.49	0.345318
2750.83	0.620835
2752.17	0.620937
2753.51	0.795177
2754.84	0.404449
2756.18	0.405156
2757.52	0.377066
2758.85	0.479521
2760.19	0.336257
2761.53	0.251371
2762.86	0.470795
2764.2	0.184065
2765.53	0.331398
2766.87	0.304704
2768.2	0.523092
2769.54	0.552229
2770.87	0.319917
2772.2	-0.028821
2773.54	0.401272
2774.87	0.469773
2776.2	0.336498
2777.54	0.218183
2778.87	-0.18705
2780.2	0.472122
2781.53	0.18291
2782.87	0.468197
2784.2	0.638337
2785.53	0.163318
2786.86	0.0471668
2788.19	-0.583713
2789.52	0.703887
2790.85	0.389396
2792.18	0.204491
2793.51	0.506104
2794.84	0.393155
2796.17	0.551437
2797.5	0.423468
2798.83	0.480713
2800.16	0.266378
2801.49	0.323044
2802.82	0.236913
2804.15	0.250397
2805.47	0.391663
2806.8	0.475291
2808.13	0.145796
2809.46	0.470177
2810.78	0.311289
2812.11	0.451188
2813.44	0.180641
2814.76	0.592119
2816.09	0.0833168
2817.42	0.355144
2818.74	0.400673
2820.07	0.261944
2821.39	0.222043
2822.72	0.677553
2824.04	0.367279
2825.37	0.524282
2826.69	0.822861
2828.02	0.385566
2829.34	0.585949
2830.66	0.68762
2831.99	0.407269
2833.31	0.693073
2834.63	0.667169
2835.96	0.867257
2837.28	1.08094
2838.6	0.700006
2839.92	1.02618
2841.24	1.2109
2842.57	1.49487
2843.89	1.41191
2845.21	1.55574
2846.53	1.75668
2847.85	1.94382
2849.17	2.06032
2850.49	2.54402
2851.81	2.36292
2853.13	2.16718
2854.45	1.63198
2855.77	2.26943
2857.09	2.28511
2858.41	2.2867
2859.72	2.54247
2861.04	2.62853
2862.36	2.88364
2863.68	2.74308
2865	3.1385
2866.31	3.44905
2867.63	3.53405
2868.95	3.50667
2870.26	3.60659
2871.58	4.15767
2872.9	4.08816
2874.21	3.96151
2875.53	3.93241
2876.84	3.69102
2878.16	3.92745
2879.47	4.52898
2880.79	3.94953
2882.1	4.18633
2883.42	4.49425
2884.73	4.11499
2886.05	4.05936
2887.36	3.65293
2888.67	4.2705
2889.99	4.14346
2891.3	4.07171
2892.61	4.57401
2893.92	4.59937
2895.24	4.55509
2896.55	4.72164
2897.86	4.27347
2899.17	4.72193
2900.48	4.42963
2901.79	4.97712
2903.11	5.03517
2904.42	4.91149
2905.73	5.16574
2907.04	5.23873
2908.35	5.32654
2909.66	5.28932
2910.97	5.32261
2912.27	5.53781
2913.58	6.10224
2914.89	6.03519
2916.2	6.49819
2917.51	5.90961
2918.82	6.31365
2920.13	6.955
2921.43	6.85565
2922.74	7.26095
2924.05	6.99675
2925.35	7.58645
2926.66	7.0725
2927.97	7.67687
2929.27	7.48393
2930.58	7.48602
2931.89	7.59938
2933.19	8.06184
2934.5	7.58771
2935.8	7.84049
2937.11	7.66015
2938.41	8.26254
2939.72	7.43987
2941.02	7.44219
2942.32	7.06813
2943.63	7.21242
2944.93	6.43553
2946.24	6.73624
2947.54	6.07236
2948.84	6.55536
2950.14	6.3093
2951.45	5.97714
2952.75	5.92292
2954.05	5.64318
2955.35	5.57308
2956.65	5.99376
2957.95	5.56277
2959.26	5.48444
2960.56	5.25479
2961.86	5.30727
2963.16	5.47275
2964.46	5.23063
2965.76	5.12711
2967.06	4.8109
2968.36	4.97105
2969.66	4.87732
2970.96	4.79743
2972.25	5.08353
2973.55	4.68051
2974.85	4.47423
2976.15	4.2812
2977.45	4.42466
2978.74	4.84785
2980.04	4.38214
2981.34	3.9434
2982.64	3.87008
2983.93	3.68463
2985.23	3.85171
2986.52	3.79537
2987.82	3.58588
2989.12	3.40542
2990.41	3.05646
2991.71	2.98795
2993	2.96049
2994.3	2.74902
2995.59	2.70502
2996.89	2.44967
2998.18	2.29247
2999.48	2.17765
3000.77	2.3017
3002.06	1.90752
3003.36	2.1024
3004.65	1.89092
3005.94	1.35714
3007.23	1.28503
3008.53	1.99561
3009.82	1.51594
3011.11	1.56705
3012.4	1.6455
3013.69	1.30524
3014.99	1.10517
3016.28	1.37955
3017.57	1.09729
3018.86	1.13573
3020.15	1.16018
3021.44	0.94779
3022.73	1.01258
3024.02	0.826476
3025.31	1.01424
3026.6	0.758148
3027.89	0.392182
3029.18	0.580703
3030.46	0.756322
3031.75	1.09867
3033.04	0.903179
3034.33	1.10819
3035.62	0.801999
3036.9	0.784319
3038.19	0.820033
3039.48	0.771272
3040.76	1.11966
3042.05	0.944589
3043.34	0.879494
3044.62	0.678368
3045.91	0.998614
3047.19	0.923995
3048.48	0.878821
3049.77	0.9447
3051.05	1.0528
3052.34	1.02506
3053.62	0.928961
3054.9	0.804855
3056.19	0.870645
3057.47	1.12609
3058.76	0.958039
3060.04	1.19826
3061.32	1.12545
3062.61	0.917482
3063.89	0.738021
3065.17	0.76382
3066.45	0.967487
3067.74	0.981606
3069.02	0.791955
3070.3	0.751451
3071.58	0.669198
3072.86	0.708083
3074.14	0.650497
3075.42	0.673484
3076.7	0.573773
3077.99	0.610125
3079.26	0.687981
3080.54	0.617802
3081.82	0.562468
3083.1	0.426702
3084.38	0.562726
3085.66	0.440826
3086.94	0.372609
3088.22	0.520756
3089.5	0.0573621
3090.78	0.163457
3092.05	0.201391
3093.33	0.14433
3094.61	0.507769
3095.89	0.532183
3097.16	0.13625
3098.44	-0.191997
3099.72	0.251954
3100.99	0.167119
3102.27	0.380131
3103.54	0.186942
3104.82	0.318973
3106.1	0.08604
3107.37	0.151499
3108.65	0.488371
3109.92	0.0816488
3111.2	-0.026701
3112.47	0.109176
3113.74	-0.10698
3115.02	0.218744
3116.29	0.0694489
3117.56	0.16326
3118.84	0.337288
3120.11	0.143907
3121.38	0.302059
3122.66	-0.0285106
3123.93	0.0742764
3125.2	-0.175106
3126.47	-0.00454855
3127.74	0.112042
3129.01	0.201756
3130.29	-0.046514
3131.56	0.0161185
3132.83	-0.0567746
3134.1	-0.0761437
3135.37	-0.00170183
3136.64	-0.103477
3137.91	-0.124929
3139.18	-0.106505
3140.45	0.113361
3141.72	-0.0573192
3142.99	-0.0127177
3144.26	0.448139
3145.52	0.0500617
3146.79	0.135511
3148.06	-0.261094
3149.33	-0.0544615
