200.43	-0.154227
202.246	-0.139424
204.061	-0.123341
205.875	0.550478
207.688	0.786562
209.501	0.560389
211.316	0.260658
213.129	0.494123
214.941	0.67781
216.753	0.230604
218.566	-0.0946512
220.377	0.646172
222.188	0.613085
223.999	0.750319
225.809	-0.416847
227.618	0.301389
229.43	-0.260956
231.239	0.38354
233.047	0.207027
234.855	0.0311174
236.663	0.507478
238.471	0.21454
240.278	0.0446711
242.087	0.528079
243.894	0.506724
245.7	0.0509977
247.506	0.824846
249.311	0.630586
251.116	-0.122025
252.921	-0.249303
254.725	0.683355
256.529	0.0234241
258.333	0.618134
260.136	-0.231375
261.939	0.752136
263.744	0.556971
265.546	-0.143093
267.348	0.313812
269.15	0.240367
270.951	0.431387
272.752	0.332047
274.552	0.376047
276.353	0.346184
278.152	0.121807
279.952	-0.0801716
281.751	0.799296
283.55	0.352901
285.348	-0.310298
287.146	-0.252838
288.942	0.260082
290.739	0.221832
292.536	0.304644
294.333	-0.185163
296.129	-0.386076
297.925	-0.203375
299.721	-0.0441561
301.516	0.32981
303.311	0.416243
305.106	0.286651
306.9	-0.296866
308.694	0.121256
310.486	-0.103827
312.279	0.62512
314.072	0.569549
315.864	-0.103208
317.656	0.225912
319.448	0.0802622
321.24	-0.0166759
323.029	-0.351435
324.819	0.483098
326.61	-0.089921
328.4	0.124572
330.19	0.0518456
331.977	-0.596107
333.766	0.0459242
335.555	0.0641012
337.343	0.367263
339.131	0.620444
340.917	0.608842
342.704	-0.19239
344.491	-0.0611324
346.277	-0.0489378
348.062	-0.131614
349.848	0.741161
351.633	0.348634
353.416	0.695469
355.201	0.325463
356.986	0.526715
358.77	-0.0361128
360.552	0.115079
362.335	0.43175
364.118	0.0100889
365.899	0.372426
367.682	-0.049901
369.464	-0.116557
371.243	0.242462
373.025	0.552693
374.806	0.483728
376.585	0.367761
378.365	0.747745
380.143	0.185574
381.923	0.614123
383.702	0.384714
385.479	-0.26629
387.258	-0.469068
389.034	0.315907
390.812	0.0680552
392.59	-0.0850182
394.365	0.302613
396.142	0.244416
397.916	-0.00159359
399.693	0.221963
401.467	0.304174
403.242	0.315325
405.015	0.443163
406.79	-0.251638
408.565	0.321027
410.337	0.259345
412.111	0.10384
413.882	0.230332
415.656	0.0289783
417.426	0.391497
419.197	0.543487
420.969	0.179423
422.739	1.01218
424.51	-0.0336637
426.279	-0.00056839
428.05	0.595135
429.819	-0.100763
431.589	0.470832
433.356	0.244667
435.124	0.300456
436.893	0.403164
438.66	0.739876
440.428	-0.0512218
442.194	1.24383
443.96	0.00357819
445.727	0.262417
447.492	0.636673
449.259	0.47194
451.023	0.377656
452.787	0.493925
454.553	0.726844
456.316	0.493232
458.079	0.329693
459.844	0.0500908
461.606	-0.0192204
463.368	-0.087059
465.132	0.265553
466.893	0.527832
468.654	0.118776
470.415	0.362303
472.177	0.234398
473.937	0.850668
475.696	0.673823
477.456	-0.157539
479.217	0.453516
480.975	0.737391
482.733	0.15958
484.491	0.607647
486.251	0.545184
488.008	0.741126
489.765	0.239596
491.522	0.36855
493.278	0.895545
495.036	0.792286
496.791	0.993026
498.546	0.326912
500.301	0.902034
502.056	0.303954
503.81	0.361728
505.566	0.959063
507.319	0.30935
509.073	0.386839
510.825	0.368702
512.578	0.819654
514.33	0.916145
516.082	0.70539
517.833	0.822774
519.587	0.445386
521.337	0.631489
523.088	0.394197
524.838	0.790644
526.588	0.4594
528.337	0.644329
530.087	0.828944
531.835	0.403984
533.584	0.844803
535.332	0.348251
537.08	0.762564
538.827	1.03462
540.574	0.745186
542.321	0.176079
544.068	0.701373
545.814	0.946494
547.56	1.19119
549.305	0.693724
551.05	0.63755
552.795	0.280958
554.54	0.687802
556.284	0.40156
558.027	0.923344
559.771	1.12207
561.514	0.354189
563.257	0.623159
564.999	0.938253
566.742	0.449581
568.481	0.995353
570.223	0.463073
571.964	0.207766
573.705	0.711062
575.445	0.069025
577.185	0.02491
578.925	0.578824
580.665	0.00857353
582.402	-0.0796022
584.141	-0.0763931
585.879	-0.327103
587.617	-0.211025
589.355	-0.0730047
591.092	0.340255
592.828	0.407884
594.564	0.153229
596.301	0.657821
598.037	0.196076
599.773	0.194122
601.506	0.214393
603.242	0.302456
604.976	-0.39256
606.711	-0.146052
608.443	0.0305376
610.177	0.206744
611.91	0.291406
613.644	0.674757
615.374	0.62299
617.107	0.571424
618.839	0.40489
620.569	0.443495
622.3	0.412218
624.032	0.174388
625.761	0.302356
627.491	0.773548
629.221	0.105115
630.949	0.169359
632.679	0.600592
634.408	-0.336439
636.135	0.39233
637.863	0.20652
639.592	1.02238
641.318	0.123968
643.045	0.933707
644.77	0.875554
646.497	0.271795
648.224	0.557232
649.948	0.299989
651.674	0.569011
653.398	0.70548
655.123	1.05008
656.846	0.873887
658.57	0.174047
660.293	1.16086
662.017	0.869069
663.738	1.26014
665.462	0.848948
667.185	1.053
668.905	0.707414
670.628	0.56819
672.348	0.865529
674.067	0.799153
675.789	0.138833
677.508	0.648553
679.228	0.56232
680.947	0.406024
682.667	1.09903
684.385	0.870035
686.104	1.07636
687.821	0.958745
689.538	0.793929
691.256	0.812634
692.972	0.554304
694.69	0.0419292
696.406	1.39405
698.121	1.04074
699.837	0.571368
701.552	1.45822
703.268	0.66524
704.982	1.08989
706.695	0.870782
708.41	1.13314
710.123	0.890604
711.836	1.31201
713.55	1.02327
715.262	1.44326
716.973	1.47429
718.685	0.957869
720.398	0.784365
722.108	0.952897
723.818	1.12118
725.53	0.902574
727.24	0.75221
728.949	0.896704
730.658	0.995138
732.369	0.957088
734.077	1.16779
735.785	1.24249
737.493	1.38512
739.2	1.30255
740.909	1.64934
742.616	1.38864
744.322	0.859452
746.028	1.50231
747.734	1.17873
749.441	0.81161
751.146	1.30047
752.851	1.5207
754.555	1.56238
756.26	1.3355
757.963	1.06491
759.667	1.40373
761.372	1.09029
763.075	2.15325
764.777	1.34342
766.479	1.52554
768.181	1.84169
769.883	1.31924
771.584	1.9479
773.285	2.86908
774.986	1.9355
776.686	1.77129
778.386	2.15103
780.085	2.12536
781.785	2.19133
783.484	1.9407
785.182	1.9831
786.881	2.74753
788.579	1.49421
790.276	2.09344
791.974	1.83022
793.671	1.72385
795.367	1.57224
797.064	1.4443
798.76	1.94874
800.456	1.95916
802.151	2.241
803.846	1.96109
805.541	1.34406
807.236	1.67052
808.93	1.83828
810.624	2.07196
812.317	1.54193
814.01	1.86357
815.703	2.09487
817.394	1.6547
819.086	1.5729
820.778	2.42927
822.47	1.96819
824.161	2.44505
825.852	1.96457
827.543	1.4867
829.231	2.59293
830.921	2.32141
832.611	1.69627
834.3	2.03121
835.989	1.52002
837.676	1.63295
839.364	1.96818
841.053	2.25742
842.74	1.71878
844.426	1.67101
846.113	1.40034
847.8	1.3995
849.486	1.84847
851.171	1.56165
852.857	1.81416
854.542	1.88866
856.227	1.49148
857.911	1.56458
859.595	1.43367
861.279	1.36835
862.961	1.50412
864.645	1.30069
866.329	1.34419
868.01	1.38708
869.692	0.820597
871.375	0.907767
873.055	1.10758
874.737	1.23968
876.418	1.23643
878.097	1.14291
879.778	1.74903
881.457	1.27132
883.137	1.53786
884.817	1.26153
886.495	1.57073
888.174	1.5172
889.851	1.62
891.53	1.3155
893.206	1.6632
894.884	1.73913
896.562	1.00454
898.237	1.52802
899.914	1.42133
901.589	0.821192
903.265	1.0499
904.94	0.652102
906.615	0.835823
908.289	0.885935
909.964	1.1149
911.637	1.34426
913.31	0.707089
914.984	0.80419
916.656	1.23393
918.33	0.864943
920.001	1.02816
921.674	0.904009
923.345	1.48849
925.015	1.27851
926.687	1.42385
928.357	1.26177
930.028	1.45409
931.698	0.896887
933.366	1.48726
935.037	0.732155
936.705	1.03627
938.373	1.1868
940.043	0.941518
941.71	1.00619
943.379	0.630297
945.046	1.1811
946.712	0.605248
948.378	0.778145
950.046	1.21401
951.711	0.765959
953.376	0.803423
955.043	0.533603
956.708	1.2146
958.372	1.21523
960.036	1.02
961.701	0.494732
963.364	1.00755
965.027	0.59051
966.69	0.834351
968.354	0.588828
970.016	0.695301
971.678	0.845122
973.339	1.48183
975	1.52278
976.661	1.3002
978.324	0.857851
979.984	1.0466
981.644	1.2351
983.303	0.725017
984.962	1.05425
986.621	1.09363
988.282	1.08696
989.94	0.835797
991.598	1.00417
993.256	0.862955
994.913	0.920661
996.57	0.669559
998.227	0.793563
999.884	1.18164
1001.54	1.50278
1003.2	1.09684
1004.85	0.713132
1006.51	0.08813
1008.16	0.342517
1009.82	1.14546
1011.47	0.895123
1013.12	1.04006
1014.78	0.0243254
1016.43	0.433068
1018.08	0.229228
1019.74	0.923023
1021.39	0.85209
1023.04	0.760436
1024.69	1.04129
1026.34	0.994902
1028	1.21076
1029.65	1.16378
1031.3	0.198358
1032.95	1.02225
1034.6	1.14549
1036.25	1.11457
1037.9	1.17
1039.55	0.76812
1041.19	1.23754
1042.84	1.20769
1044.49	1.02754
1046.14	1.24046
1047.79	0.65167
1049.43	1.06358
1051.08	0.390807
1052.73	0.500693
1054.37	0.654463
1056.02	0.286687
1057.66	0.44024
1059.31	0.897788
1060.95	0.811217
1062.6	0.897842
1064.24	0.50521
1065.88	0.372557
1067.53	1.04308
1069.17	0.951806
1070.81	0.469056
1072.46	0.659499
1074.1	0.372894
1075.74	0.282691
1077.38	0.215466
1079.02	0.453028
1080.66	0.192574
1082.3	0.539304
1083.94	0.538266
1085.58	0.579058
1087.22	0.24953
1088.86	-0.0382738
1090.5	0.0405626
1092.14	0.528871
1093.78	0.216726
1095.42	0.531033
1097.05	0.371306
1098.69	0.299294
1100.33	0.982496
1101.97	0.65557
1103.6	0.223059
1105.24	0.910475
1106.87	-0.0577545
1108.51	0.3503
1110.15	0.348702
1111.78	0.882945
1113.41	0.577329
1115.05	0.592869
1116.68	0.371809
1118.31	-0.127526
1119.95	-0.0471392
1121.58	0.483737
1123.21	0.480048
1124.85	0.220593
1126.48	0.710747
1128.11	0.752367
1129.74	0.794685
1131.37	0.367236
1133	-0.0812111
1134.63	0.261209
1136.26	0.453362
1137.89	0.281211
1139.52	0.407069
1141.15	-0.0232391
1142.78	0.250582
1144.41	-0.0942736
1146.04	-0.139709
1147.66	0.220678
1149.29	-0.206614
1150.92	0.38918
1152.55	-0.143921
1154.17	-0.315131
1155.8	0.343431
1157.43	0.150422
1159.05	0.276916
1160.68	0.170238
1162.3	-0.126706
1163.93	0.534099
1165.55	-0.590595
1167.17	0.53826
1168.8	0.114029
1170.42	-0.651664
1172.05	-0.016345
1173.67	-0.020277
1175.29	0.250439
1176.91	0.0962658
1178.54	0.281434
1180.16	0.149479
1181.78	0.78008
1183.4	0.564941
1185.02	0.223335
1186.64	-0.0131321
1188.26	0.340025
1189.88	0.205876
1191.5	0.554437
1193.12	0.143751
1194.74	-0.350579
1196.36	-0.0677719
1197.97	0.759501
1199.59	0.854457
1201.21	0.512807
1202.83	0.633663
1204.44	0.235194
1206.06	0.673638
1207.68	0.257905
1209.29	0.134601
1210.91	0.0523262
1212.52	0.427226
1214.14	0.174561
1215.75	-0.288079
1217.37	0.20535
1218.98	0.302011
1220.6	-0.0168428
1222.21	0.661025
1223.82	-0.0494118
1225.44	0.298637
1227.05	0.730434
1228.66	0.439244
1230.27	1.7002
1231.88	1.43204
1233.49	1.14458
1235.1	0.341733
1236.72	0.594115
1238.33	1.34372
1239.94	1.03975
1241.55	0.632416
1243.16	0.721105
1244.76	0.664259
1246.37	0.751291
1247.98	0.878736
1249.59	0.674379
1251.2	0.883516
1252.8	0.906643
1254.41	0.620212
1256.02	1.1415
1257.63	0.940068
1259.23	1.23632
1260.84	0.829867
1262.44	1.04482
1264.05	1.30141
1265.66	1.30912
1267.26	1.06737
1268.87	1.88193
1270.47	1.0991
1272.07	1.10306
1273.68	1.0438
1275.28	1.3567
1276.88	1.27478
1278.48	1.83425
1280.09	1.2538
1281.69	1.79117
1283.29	1.72823
1284.89	1.1696
1286.49	1.31512
1288.09	2.01966
1289.69	1.21635
1291.3	1.77754
1292.9	1.30548
1294.49	1.20467
1296.09	1.35047
1297.69	1.96937
1299.29	1.16234
1300.89	2.1897
1302.49	1.81341
1304.09	1.58083
1305.68	1.12181
1307.28	1.2999
1308.88	1.53885
1310.47	1.08052
1312.07	1.36051
1313.66	1.92702
1315.26	1.10401
1316.86	1.7738
1318.45	1.05581
1320.05	1.41929
1321.64	1.35356
1323.23	1.44922
1324.83	1.38033
1326.42	1.1072
1328.01	1.34106
1329.61	1.23062
1331.2	1.28379
1332.79	1.15719
1334.38	1.19453
1335.98	1.59667
1337.57	1.29306
1339.16	1.65434
1340.75	1.67105
1342.34	1.16238
1343.93	1.15531
1345.52	0.886183
1347.11	1.5201
1348.7	0.952454
1350.29	1.14875
1351.87	0.887254
1353.46	1.54769
1355.05	0.869865
1356.64	1.11197
1358.23	0.694322
1359.81	1.09479
1361.4	0.835218
1362.99	1.09375
1364.57	0.554197
1366.16	0.852312
1367.74	0.653008
1369.33	0.693892
1370.91	0.71618
1372.5	1.17754
1374.08	0.605253
1375.67	0.491268
1377.25	0.974352
1378.83	1.1784
1380.42	1.20236
1382	0.707816
1383.58	1.04752
1385.16	1.12757
1386.75	0.253465
1388.33	0.869653
1389.91	0.870588
1391.49	0.554899
1393.07	0.894789
1394.65	0.877896
1396.23	1.09879
1397.81	0.882785
1399.39	0.705598
1400.97	0.983178
1402.55	0.62647
1404.13	0.289896
1405.7	0.349607
1407.28	0.983232
1408.86	0.846626
1410.44	1.06615
1412.01	0.989326
1413.59	0.852767
1415.17	0.99168
1416.74	0.735222
1418.32	0.656042
1419.89	0.793931
1421.47	1.28711
1423.05	0.659451
1424.62	1.21453
1426.19	0.609546
1427.77	1.38285
1429.34	0.502572
1430.92	1.15669
1432.49	1.55371
1434.06	1.73317
1435.63	1.87271
1437.2	1.79609
1438.78	1.83819
1440.35	1.80269
1441.92	1.68957
1443.49	1.95057
1445.06	2.25131
1446.63	1.94295
1448.2	2.00818
1449.77	2.0737
1451.34	2.10041
1452.91	1.85234
1454.48	1.5062
1456.05	2.22235
1457.62	1.34412
1459.18	1.94049
1460.75	1.35436
1462.32	1.84866
1463.89	1.55433
1465.45	1.71123
1467.02	1.23897
1468.59	0.885362
1470.15	0.807663
1471.72	1.6531
1473.28	0.812409
1474.85	0.463044
1476.41	1.23176
1477.98	0.451628
1479.54	0.553725
1481.11	0.988892
1482.67	0.875143
1484.23	0.820075
1485.8	0.588389
1487.36	0.336514
1488.92	0.0444679
1490.48	0.846803
1492.05	0.981241
1493.61	0.781288
1495.17	0.775129
1496.73	0.495157
1498.29	0.351866
1499.85	0.578692
1501.41	0.922453
1502.97	0.936929
1504.53	0.622871
1506.09	0.522574
1507.65	0.421905
1509.2	0.397763
1510.76	0.835715
1512.32	0.712867
1513.88	0.897902
1515.44	1.27482
1516.99	0.787474
1518.55	0.0910864
1520.1	0.795135
1521.66	0.311505
1523.22	0.153571
1524.77	0.778038
1526.33	0.999609
1527.88	0.17241
1529.44	0.354758
1530.99	0.935275
1532.55	0.509716
1534.1	0.635269
1535.65	1.12086
1537.21	0.586005
1538.76	0.770172
1540.31	0.878914
1541.86	0.347035
1543.42	1.37816
1544.97	0.602117
1546.52	0.879238
1548.07	1.02428
1549.62	0.494214
1551.17	1.08887
1552.72	0.859742
1554.27	1.67857
1555.82	1.13411
1557.37	0.928048
1558.92	1.39575
1560.47	0.87635
1562.02	0.936873
1563.57	1.241
1565.11	0.85538
1566.66	1.10424
1568.21	1.27828
1569.75	1.93729
1571.3	1.71866
1572.85	1.91038
1574.39	1.65393
1575.94	2.16286
1577.49	1.73861
1579.03	1.93082
1580.58	1.73157
1582.12	1.96259
1583.67	1.63412
1585.21	0.876348
1586.75	0.903674
1588.3	1.47357
1589.84	1.05201
1591.38	1.04151
1592.93	1.19909
1594.47	2.08694
1596.01	2.05729
1597.55	1.42827
1599.09	2.33691
1600.63	2.17782
1602.18	1.36216
1603.72	1.16532
1605.26	1.4749
1606.8	1.48271
1608.34	1.62021
1609.87	2.05616
1611.41	1.2495
1612.95	1.2491
1614.49	1.11607
1616.03	2.03309
1617.57	1.01874
1619.11	1.05574
1620.64	1.28136
1622.18	1.37709
1623.72	1.00555
1625.25	1.36418
1626.79	1.31024
1628.32	2.1344
1629.86	1.21736
1631.4	1.1039
1632.93	1.84935
1634.47	1.67951
1636	2.4062
1637.53	1.97688
1639.07	2.07056
1640.6	1.62374
1642.14	1.88457
1643.67	1.34341
1645.2	2.73697
1646.73	2.17518
1648.27	1.92973
1649.8	1.64786
1651.33	1.6271
1652.86	2.21964
1654.39	2.36783
1655.92	2.59073
1657.45	2.18344
1658.98	1.3682
1660.51	2.21852
1662.04	1.71589
1663.57	1.80435
1665.1	1.78125
1666.63	1.64779
1668.16	1.49712
1669.69	1.31117
1671.21	1.36634
1672.74	2.1593
1674.27	1.55276
1675.79	1.83001
1677.32	1.35173
1678.85	0.946373
1680.37	1.27587
1681.9	1.34699
1683.42	1.17898
1684.95	1.28649
1686.47	1.32082
1688	0.805674
1689.52	1.13412
1691.05	0.675133
1692.57	0.857189
1694.1	0.673169
1695.62	0.87309
1697.14	0.524398
1698.66	0.66883
1700.19	0.301686
1701.71	0.955857
1703.23	0.660887
1704.75	0.711833
1706.27	0.926007
1707.79	0.775951
1709.32	0.535238
1710.83	0.51278
1712.35	0.30918
1713.88	0.39593
1715.39	0.283462
1716.91	0.550952
1718.43	-0.0496273
1719.95	0.235548
1721.47	0.285824
1722.99	0.552852
1724.5	0.261877
1726.02	0.350545
1727.54	0.458321
1729.06	0.54892
1730.57	0.0833569
1732.09	-0.00213146
1733.61	0.0894518
1735.12	0.126811
1736.64	0.612532
1738.15	0.427707
1739.67	0.249804
1741.18	0.31257
1742.7	0.176374
1744.21	0.362495
1745.72	0.115046
1747.24	0.389859
1748.75	0.260862
1750.26	-0.0107126
1751.78	0.326002
1753.29	0.388707
1754.8	0.361115
1756.31	0.0765715
1757.82	0.324715
1759.34	0.272976
1760.85	0.368224
1762.36	0.0984316
1763.87	-0.066927
1765.38	0.229555
1766.89	0.105267
1768.4	-0.0799417
1769.91	0.317653
1771.41	0.0750237
1772.92	-0.0069809
1774.43	0.221974
1775.94	0.234853
1777.45	0.076417
1778.96	0.13795
1780.46	-0.0654373
1781.97	0.172034
1783.48	0.04807
1784.98	0.0315294
1786.49	0.0546036
1788	0.125349
1789.5	0.0324402
1791.01	-0.365996
1792.51	-0.23897
1794.01	0.242406
1795.52	-0.0587864
1797.02	0.0218563
1798.53	0.0645218
1800.03	-0.165171
1801.54	-0.0194197
1803.04	0.24885
1804.54	0.280009
1806.04	-0.00623608
1807.54	-0.150247
1809.05	0.0464602
1810.55	0.17917
1812.05	0.000265121
1813.55	-0.0561829
1815.05	-0.350024
1816.55	0.191028
1818.05	-0.0975294
1819.55	0.308063
1821.05	0.160683
1822.55	0.265366
1824.05	-0.0481329
1825.55	0.258517
1827.05	0.12075
1828.55	0.09725
1830.04	0.186179
1831.54	0.0287352
1833.04	0.0292559
1834.54	-0.101668
1836.03	0.0638247
1837.53	0.190489
1839.03	0.22329
1840.52	0.277391
1842.02	-0.171648
1843.51	0.453935
1845.01	0.0271721
1846.5	0.228281
1848	0.0784101
1849.49	0.228956
1850.99	0.0220633
1852.48	0.224121
1853.97	0.167854
1855.47	-0.0256863
1856.96	-0.240895
1858.45	-0.172251
1859.94	-0.208531
1861.44	0.12121
1862.93	0.0390549
1864.42	0.0755424
1865.91	-0.0980301
1867.4	0.329051
1868.89	0.263343
1870.38	0.0708637
1871.87	0.136319
1873.36	0.221355
1874.85	0.115662
1876.34	0.254382
1877.83	0.0850363
1879.32	0.304825
1880.81	0.236591
1882.3	0.451112
1882.56	0.505004
1884.06	0.416597
1885.55	0.397217
1887.04	0.150625
1888.54	0.234582
1890.03	0.405622
1891.52	0.0556974
1893.02	0.0377779
1894.51	0.0214682
1896	-0.219537
1897.49	0.131392
1898.99	0.377975
1900.48	0.362718
1901.97	0.0328369
1903.46	0.362348
1904.95	0.0645094
1906.44	0.0616169
1907.93	0.145535
1909.42	-0.0130777
1910.91	0.0895185
1912.4	-0.171433
1913.89	0.175225
1915.38	-0.206474
1916.86	0.0878115
1918.35	0.260145
1919.84	0.189397
1921.33	-0.452964
1922.82	-0.0902729
1924.3	0.0133276
1925.79	0.10059
1927.28	0.30998
1928.76	0.260265
1930.25	0.262433
1931.74	0.0733624
1933.22	0.489035
1934.71	0.57398
1936.19	0.103656
1937.67	-0.177004
1939.16	-0.00845814
1940.64	-0.0988722
1942.13	0.208485
1943.61	0.102489
1945.09	0.0835543
1946.58	-0.0557213
1948.06	0.545899
1949.54	0.319509
1951.03	-0.096983
1952.51	0.29491
1953.99	0.47943
1955.47	-0.195531
1956.95	0.0752077
1958.43	-0.014183
1959.91	0.051549
1961.39	-0.156655
1962.87	-0.0902843
1964.35	-0.109807
1965.83	0.349724
1967.31	0.106427
1968.79	0.136496
1970.27	-0.0562019
1971.75	0.673455
1973.22	-0.373034
1974.7	-0.258168
1976.18	-0.160358
1977.66	0.27811
1979.13	0.137363
1980.61	0.285933
1982.09	-0.109799
1983.56	0.327065
1985.04	0.304696
1986.52	0.400849
1987.99	0.378215
1989.47	0.051096
1990.94	0.26656
1992.41	0.178184
1993.89	-0.0106335
1995.36	0.105602
1996.84	0.0194149
1998.31	0.304777
1999.78	0.251895
2001.26	0.417869
2002.73	0.431431
2004.2	0.1077
2005.67	0.391188
2007.15	0.691962
2008.62	0.202031
2010.09	0.319182
2011.56	0.201102
2013.03	0.167244
2014.5	0.385425
2015.97	0.367259
2017.44	0.43235
2018.91	0.412568
2020.38	0.241087
2021.85	0.136827
2023.32	0.184039
2024.79	-0.0029726
2026.25	0.213758
2027.72	0.0459518
2029.19	0.432981
2030.66	-0.118136
2032.13	-0.131696
2033.59	0.106957
2035.06	0.244993
2036.53	0.063591
2037.99	0.200868
2039.46	0.455505
2040.92	-0.0462656
2042.39	-0.14438
2043.85	0.178607
2045.32	0.216582
2046.78	0.238441
2048.25	-0.362693
2049.71	0.0296392
2051.18	0.117923
2052.64	0.255469
2054.1	0.593784
2055.56	0.306507
2057.03	0.22041
2058.49	0.31902
2059.95	0.501638
2061.42	0.482454
2062.88	0.379881
2064.34	0.194127
2065.8	0.480516
2067.26	-0.00647736
2068.72	0.769302
2070.18	0.198895
2071.64	0.2513
2073.1	0.539311
2074.56	0.338801
2076.02	0.424239
2077.48	0.660907
2078.94	0.408837
2080.39	0.678365
2081.85	0.863125
2083.31	0.575863
2084.77	0.725569
2086.22	0.453948
2087.68	0.635953
2089.14	0.750172
2090.6	0.645726
2092.05	0.591678
2093.51	0.604714
2094.96	0.617491
2096.42	1.21636
2097.87	0.658178
2099.33	0.870044
2100.78	0.646507
2102.24	0.774435
2103.69	0.819481
2105.15	0.89908
2106.6	0.813104
2108.05	0.87828
2109.51	1.0271
2110.96	1.15863
2112.41	0.855536
2113.86	1.21722
2115.32	1.32723
2116.77	1.3198
2118.22	1.27951
2119.67	0.941857
2121.12	1.00461
2122.57	1.2682
2124.02	1.11854
2125.47	1.73226
2126.92	1.50003
2128.37	1.3663
2129.82	1.33069
2131.27	1.9563
2132.72	1.30588
2134.17	1.45025
2135.62	1.64488
2137.06	2.12183
2138.51	2.30306
2139.96	1.57734
2141.41	1.79531
2142.85	2.32881
2144.3	1.45723
2145.75	2.14078
2147.19	2.01328
2148.64	1.78564
2150.09	2.16994
2151.53	2.20538
2152.97	2.14035
2154.42	2.27329
2155.86	2.20693
2157.31	2.60449
2158.75	2.42304
2160.2	2.19332
2161.64	2.74421
2163.08	2.3028
2164.53	2.52613
2165.97	2.3522
2167.41	2.2942
2168.86	2.23499
2170.3	2.4233
2171.74	1.92743
2173.18	2.46086
2174.62	2.3108
2176.06	2.09366
2177.5	2.12624
2178.94	2.65837
2180.38	2.34363
2181.82	2.21268
2183.26	2.34839
2184.7	2.25158
2186.14	2.13818
2187.58	2.12458
2189.02	1.42869
2190.46	1.84777
2191.89	1.98369
2193.33	2.35198
2194.77	2.28597
2196.21	2.08488
2197.64	1.53246
2199.08	1.97655
2200.52	1.68794
2201.95	1.1506
2203.39	1.64329
2204.83	1.45663
2206.26	1.68552
2207.7	1.41774
2209.13	1.69645
2210.57	1.46102
2212	1.65491
2213.43	1.46763
2214.87	1.66038
2216.3	1.37482
2217.73	1.3052
2219.17	1.38527
2220.6	1.16938
2222.03	1.05262
2223.47	1.05057
2224.9	1.34357
2226.33	1.63451
2227.76	1.11775
2229.19	0.863492
2230.62	0.822312
2232.05	0.797419
2233.49	1.002
2234.91	0.66729
2236.34	0.824416
2237.77	0.933805
2239.2	0.604335
2240.63	0.798944
2242.06	0.962548
2243.49	0.60539
2244.92	0.754164
2246.35	0.690269
2247.78	0.869526
2249.2	0.802103
2250.63	0.537172
2252.06	0.905828
2253.48	0.86651
2254.91	0.778832
2256.34	0.48163
2257.76	0.284326
2259.19	0.381714
2260.61	0.806243
2262.04	0.454157
2263.46	0.67161
2264.89	0.743326
2266.31	0.359471
2267.74	0.771646
2269.16	0.353306
2270.59	0.6991
2272.01	0.458421
2273.43	0.250058
2274.85	0.80731
2276.28	0.224448
2277.7	0.309675
2279.12	0.443913
2280.54	-0.155641
2281.97	0.157809
2283.39	0.389766
2284.81	0.246542
2286.23	0.283001
2287.65	0.417781
2289.07	0.357047
2290.49	0.476377
2291.91	0.252776
2293.33	0.290755
2294.75	0.394197
2296.17	0.612233
2297.59	0.077127
2299.01	0.180541
2300.42	0.300605
2301.84	0.404642
2303.26	0.246542
2304.68	0.0391741
2306.1	0.53774
2307.51	0.0998831
2308.93	0.28581
2310.35	0.438469
2311.76	-0.264487
2313.18	0.331982
2314.59	-0.206513
2316.01	0.424353
2317.43	0.0185723
2318.84	-0.0575666
2320.26	0.179379
2321.67	0.168051
2323.08	0.171543
2324.5	-0.223101
2325.91	0.518867
2327.33	0.533153
2328.74	0.711545
2330.15	0.395801
2331.56	0.42693
2332.98	0.294481
2334.39	0.212236
2335.8	0.146691
2337.21	-0.0672479
2338.62	0.47434
2340.04	0.258541
2341.45	0.0585566
2342.86	0.432764
2344.27	-0.423508
2345.68	0.278516
2347.09	0.144604
2348.5	0.174567
2349.91	-0.352032
2351.31	-0.061245
2352.72	-0.180078
2354.13	-0.168966
2355.54	0.134927
2356.95	-0.0342817
2358.36	-0.105555
2359.76	0.327076
2361.17	0.190844
2362.58	0.135945
2363.98	0.000100136
2365.39	0.139514
2366.8	-0.206013
2368.21	0.0147514
2369.61	0.074718
2371.02	0.216352
2372.42	-0.237069
2373.83	-0.0128622
2375.23	-0.0460625
2376.64	0.0169625
2378.04	0.0146523
2379.44	0.251997
2380.85	-0.1707
2382.25	0.256087
2383.66	0.216647
2385.06	-0.142798
2386.46	-0.0377021
2387.86	0.0519824
2389.26	0.158488
2390.67	-0.0208263
2392.07	0.151391
2393.47	-0.0734839
2394.87	0.0365691
2396.27	0.163048
2397.67	0.178757
2399.07	0.147307
2400.47	0.116314
2401.87	0.0538406
2403.27	0.150236
2404.67	0.230384
2406.07	0.198595
2407.47	0.2136
2408.87	0.212032
2410.27	-0.0592847
2411.67	0.541237
2413.07	-0.299124
2414.46	-0.10875
2415.86	0.304454
2417.26	-0.0410705
2418.66	0.263315
2420.05	0.172194
2421.45	0.381899
2422.84	0.353706
2424.24	0.087594
2425.64	0.21764
2427.03	0.110457
2428.43	0.46376
2429.82	0.231358
2431.22	0.0152488
2432.61	0.434053
2434.01	0.328648
2435.4	0.0632792
2436.79	0.209591
2438.19	0.624646
2439.58	0.339463
2440.97	0.307677
2442.37	0.0373158
2443.76	0.401627
2445.15	-0.0117159
2446.54	0.304453
2447.93	0.271587
2449.33	0.254579
2450.72	0.158632
2452.11	-0.0475497
2453.5	-0.363683
2454.89	0.175332
2456.28	-0.0919366
2457.67	0.0998216
2459.06	0.228142
2460.45	0.00799894
2461.84	0.150876
2463.23	0.32458
2464.62	-0.118527
2466	0.0701652
2467.39	0.0849767
2468.78	0.147062
2470.17	0.224679
2471.55	0.0968981
2472.94	-0.236133
2474.33	-0.223056
2475.72	0.434372
2477.1	0.225994
2478.49	0.0493226
2479.87	0.171225
2481.26	0.0578971
2482.65	0.132688
2484.03	-0.153107
2485.42	0.17078
2486.8	0.0243268
2488.19	-0.0603366
2489.57	-0.0363398
2490.95	0.111985
2492.34	0.16714
2493.72	-0.0718818
2495.1	0.125086
2496.49	0.229824
2497.87	-0.315356
2499.25	0.208421
2500.63	0.0351453
2502.02	0.325074
2503.4	-0.112076
2504.78	-0.348627
2506.16	-0.107556
2507.54	0.0404344
2508.92	-0.27298
2510.3	-0.0478644
2511.68	-0.221536
2513.06	-0.102979
2514.44	0.0314312
2515.82	0.151101
2517.2	-0.0652184
2518.58	-0.219677
2519.96	0.16099
2521.34	-0.0087924
2522.72	0.034729
2524.1	0.138461
2525.47	-0.154831
2526.85	0.222135
2528.23	0.0663309
2529.6	0.0181632
2530.98	0.093019
2532.36	-0.438474
2533.74	-0.0267
2535.11	0.15774
2536.49	0.0230865
2537.86	-0.0817595
2539.24	-0.111458
2540.61	0.10107
2541.99	0.176551
2543.36	0.0701728
2544.74	0.343828
2546.11	-0.0185227
2547.49	-0.137111
2548.86	-0.103296
2550.23	0.112662
2551.61	0.2979
2552.98	0.0725727
2554.35	-0.00188875
2555.72	-0.198472
2557.09	0.256774
2558.47	-0.0313334
2559.84	-0.00070858
2561.21	-0.0302582
2562.58	-0.225948
2563.95	0.139574
2565.32	0.0659938
2566.69	0.310867
2568.06	0.176962
2569.43	-0.138826
2570.8	0.121317
2572.17	0.0480533
2573.54	0.0203271
2574.91	0.204916
2576.28	-0.277531
2577.65	0.301237
2579.02	-0.287679
2580.39	0.108682
2581.75	0.125602
2583.12	0.187679
2584.49	0.204057
2585.85	0.220387
2587.22	-0.00568676
2588.59	0.147326
2589.95	-0.0178308
2591.32	0.0745249
2592.68	-0.0153723
2594.05	0.136433
2595.42	0.484107
2596.78	-0.0776091
2598.15	-0.488153
2599.51	-0.369372
2600.88	0.21776
2602.24	0.155313
2603.6	0.0482311
2604.97	0.243509
2606.33	-0.134394
2607.69	0.0154409
2609.06	0.13426
2610.42	0.0259528
2611.78	-0.0231524
2613.14	0.0170436
2614.51	0.0715103
2615.87	-0.0994282
2617.23	-0.194864
2618.59	0.114742
2619.95	0.34967
2621.31	0.196128
2622.67	-0.00155735
2624.03	-0.0196004
2625.39	0.365219
2626.75	0.287021
2628.11	-0.163888
2629.47	0.0556431
2630.83	-0.00802708
2632.19	0.0769625
2633.55	0.0280852
2634.91	0.00894356
2636.26	0.0936117
2637.62	0.0447683
2638.98	0.114493
2640.34	0.036303
2641.69	0.0619359
2643.05	0.427544
2644.41	-0.078207
2645.76	0.00676346
2647.12	0.120735
2648.48	-0.0753989
2649.83	-0.0658751
2651.19	-0.174563
2652.54	0.377554
2653.9	0.283247
2655.25	0.101852
2656.6	0.112122
2657.96	0.240475
2659.31	0.281695
2660.67	-0.0130658
2662.02	0.0869045
2663.37	0.157027
2664.73	0.182551
2666.08	0.280294
2667.43	-0.0743074
2668.78	0.2414
2670.14	-0.112434
2671.49	-0.0145726
2672.84	0.403351
2674.19	0.138817
2675.54	0.092782
2676.89	0.264912
2678.24	-0.0121088
2679.59	0.306246
2680.94	0.146986
2682.29	0.177271
2683.64	0.020092
2684.99	0.2553
2686.34	0.0847707
2687.69	0.0881352
2689.04	0.322742
2690.39	0.207456
2691.74	0.424404
2693.08	0.0159945
2694.43	0.187145
2695.78	-0.163759
2697.13	0.0946045
2698.47	0.484225
2699.82	0.252601
2701.17	0.181808
2702.51	0.0253892
2703.86	0.246517
2705.21	0.0478559
2706.55	-0.121953
2707.9	0.462431
2709.24	0.321092
2710.58	0.426173
2711.93	-0.0790443
2713.27	0.0837336
2714.62	0.275619
2715.96	0.249455
2717.3	-0.155009
2718.65	0.0802031
2719.99	0.169684
2721.33	0.477098
2722.68	0.332941
2724.02	0.232
2725.36	0.14522
2726.71	0.334651
2728.05	-0.0729361
2729.39	0.29061
2730.73	0.566639
2732.07	0.420656
2733.41	0.507534
2734.75	-0.00181913
2736.09	-0.0309534
2737.43	0.15818
2738.77	0.100032
2740.11	0.317964
2741.45	0.448174
2742.79	-0.120027
2744.13	0.314219
2745.47	0.413486
2746.81	-0.083086
2748.14	0.131835
2749.48	0.361113
2750.82	0.0682697
2752.16	-0.0211701
2753.49	0.280949
2754.83	0.119401
2756.17	-0.0998716
2757.5	0.0141478
2758.84	-0.34938
2760.18	-0.00325537
2761.51	0.256337
2762.85	0.516287
2764.18	0.21219
2765.52	0.342149
2766.85	-0.266151
2768.19	-0.0361362
2769.52	0.25047
2770.86	0.246501
2772.19	0.0969038
2773.52	0.278499
2774.86	-0.0308518
2776.19	-0.109235
2777.52	0.0430713
2778.86	-0.00571156
2780.19	0.104086
2781.52	-0.0301199
2782.85	0.0798817
2784.19	0.103628
2785.52	-0.159312
2786.85	0.251412
2788.18	-0.0250044
2789.51	-0.0143099
2790.84	0.154468
2792.17	0.0521483
2793.5	-0.0354347
2794.83	0.0628352
2796.16	0.0464525
2797.49	0.0295944
2798.82	-0.516026
2800.15	-0.205244
2801.48	-0.166011
2802.81	0.0868816
2804.13	0.0685177
2805.46	-0.0499144
2806.79	0.187082
2808.12	0.0676284
2809.45	-0.165706
2810.77	0.15517
2812.1	0.0503917
2813.43	0.102748
2814.75	0.0854368
2816.08	-0.0865297
2817.41	-0.0165553
2818.73	0.19564
2820.06	0.0960107
2821.38	0.151888
2822.71	-0.00540257
2824.03	0.148513
2825.36	0.245399
2826.68	0.384758
2828	0.609473
2829.33	0.0135541
2830.65	0.267488
2831.98	0.280936
2833.3	0.251856
2834.62	0.279107
2835.94	0.574799
2837.27	0.558619
2838.59	0.556194
2839.91	1.09097
2841.23	1.13073
2842.55	1.08607
2843.87	1.33882
2845.2	1.30956
2846.52	1.50701
2847.84	2.00161
2849.16	2.25599
2850.48	1.80337
2851.8	1.97215
2853.12	1.75883
2854.44	2.27998
2855.76	1.95308
2857.08	1.92292
2858.39	2.20355
2859.71	1.9898
2861.03	2.12894
2862.35	2.2536
2863.67	2.40607
2864.98	2.60053
2866.3	2.25883
2867.62	2.60859
2868.94	3.05732
2870.25	3.04108
2871.57	3.25053
2872.88	3.10729
2874.2	3.68194
2875.52	3.62131
2876.83	3.6863
2878.15	3.94737
2879.46	3.96879
2880.78	3.61102
2882.09	3.1561
2883.41	3.68569
2884.72	3.54199
2886.03	3.55337
2887.35	3.35428
2888.66	3.77222
2889.97	3.62802
2891.29	3.69339
2892.6	3.60393
2893.91	3.41633
2895.22	3.70535
2896.54	3.98096
2897.85	3.55782
2899.16	3.91937
2900.47	3.80598
2901.78	3.70705
2903.09	4.18184
2904.4	4.0273
2905.71	4.12482
2907.02	4.62856
2908.33	4.79747
2909.64	4.22576
2910.95	4.89991
2912.26	4.77646
2913.57	5.29617
2914.88	4.96044
2916.19	4.91695
2917.5	4.94186
2918.81	5.39947
2920.11	5.80068
2921.42	5.6431
2922.73	5.99016
2924.04	6.07304
2925.34	6.1851
2926.65	6.39567
2927.96	6.13099
2929.26	5.89384
2930.57	6.66265
2931.87	6.32654
2933.18	6.15794
2934.49	6.39467
2935.79	5.89078
2937.1	6.50512
2938.4	6.21127
2939.7	6.23915
2941.01	5.76453
2942.31	5.83578
2943.62	5.67072
2944.92	5.40914
2946.22	4.77099
2947.53	5.30821
2948.83	4.86581
2950.13	4.60398
2951.43	4.63435
2952.74	4.34078
2954.04	4.46593
2955.34	4.63268
2956.64	4.43638
2957.94	4.00419
2959.24	4.20454
2960.54	4.40778
2961.84	4.26285
2963.15	3.66951
2964.45	3.63633
2965.75	3.51746
2967.05	3.50937
2968.34	3.31725
2969.64	2.99777
2970.94	3.18439
2972.24	2.99154
2973.54	2.9537
2974.84	3.1833
2976.14	2.69433
2977.43	3.18969
2978.73	2.90902
2980.03	2.78161
2981.33	2.32942
2982.62	2.28497
2983.92	2.59236
2985.22	2.14166
2986.51	1.80498
2987.81	1.554
2989.11	1.69737
2990.4	1.41939
2991.7	1.35177
2992.99	1.35351
2994.29	1.22768
2995.58	1.26949
2996.88	1.24043
2998.17	0.986688
2999.46	0.985893
3000.76	0.915478
3002.05	0.985807
3003.34	0.804256
3004.64	0.847046
3005.93	0.525487
3007.22	0.707574
3008.52	0.399085
3009.81	0.52364
3011.1	0.731218
3012.39	0.491364
3013.68	0.363507
3014.97	0.389565
3016.27	0.388361
3017.56	0.318227
3018.85	-0.238364
3020.14	0.262649
3021.43	0.0399981
3022.72	0.0808167
3024.01	0.273393
3025.3	0.146122
3026.59	0.0466375
3027.88	-0.0522137
3029.16	-0.136082
3030.45	-0.259992
3031.74	0.183694
3033.03	-0.186537
3034.32	-0.114619
3035.6	-0.0569806
3036.89	0.275241
3038.18	0.178389
3039.47	0.0663218
3040.75	0.0631342
3042.04	-0.00943184
3043.33	0.0415573
3044.61	-0.0573697
3045.9	0.0641608
3047.18	0.242031
3048.47	0.0804644
3049.75	0.275782
3051.04	0.158588
3052.32	0.328726
3053.61	0.335144
3054.89	0.0545235
3056.18	0.2505
3057.46	0.554442
3058.74	0.353299
3060.03	0.274739
3061.31	0.210255
3062.59	0.187544
3063.88	0.397265
3065.16	0.118905
3066.44	-0.198943
3067.72	0.0143089
3069	-0.220768
3070.29	0.0743475
3071.57	0.368781
3072.85	0.417334
3074.13	-0.296469
3075.41	-0.00495005
3076.69	0.231738
3077.97	0.156418
3079.25	0.0957403
3080.53	0.13142
3081.81	0.317724
3083.09	-0.145972
3084.37	-0.0257115
3085.65	-0.122434
3086.93	0.241957
3088.21	-0.154293
3089.49	0.0325608
3090.76	-0.0387945
3092.04	0.106879
3093.32	0.0356693
3094.6	-0.102993
3095.87	-0.0379367
3097.15	-0.0676594
3098.43	-0.124465
3099.7	0.360694
3100.98	-0.0484614
3102.26	-0.227043
3103.53	-0.0126057
3104.81	0.148094
3106.08	0.147049
3107.36	-0.0561066
3108.63	-0.0959115
3109.91	0.0818272
3111.18	-0.0643959
3112.46	0.00672579
3113.73	-0.206243
3115	0.0280166
3116.28	0.0315866
3117.55	0.265069
3118.83	0.240002
3120.1	0.105545
3121.37	0.011106
3122.64	0.0382781
3123.92	0.078887
3125.19	-0.00214195
3126.46	-0.0420284
3127.73	0.297488
3129	0.0828032
3130.27	0.233675
3131.55	0.0332212
3132.82	0.170664
3134.09	0.0511527
3135.36	0.363369
3136.63	0.512947
3137.9	0.45973
3139.17	0.406359
3140.44	0.299168
3141.71	0.568861
3142.98	0.341321
3144.24	0.383165
3145.51	0.37194
3146.78	0.508875
3148.05	0.297985
3149.32	0.610138
