200.398	0.341886
202.213	0.376597
204.027	0.412785
205.843	-0.352796
207.657	0.268087
209.47	0.012866
211.283	0.12084
213.097	0.0329361
214.909	0.0649929
216.721	0.265806
218.533	-0.50264
220.344	0.134165
222.157	0.504889
223.967	0.319886
225.777	-0.00952148
227.587	-0.0247269
229.396	0.297549
231.205	-0.0811834
233.016	0.408393
234.824	0.174235
236.632	0.278821
238.439	-0.337719
240.247	-0.542159
242.053	0.147519
243.86	-0.463683
245.666	0.493087
247.474	0.748738
249.279	-0.640584
251.085	0.332907
252.889	-0.26597
254.694	0.122709
256.498	0.148666
258.301	-0.30675
260.105	-0.109889
261.908	0.0886755
263.71	0.577892
265.513	0.489956
267.315	0.498625
269.116	0.627352
270.918	-0.13694
272.718	0.278711
274.519	0.644528
276.319	0.140569
278.119	0.0926704
279.918	-0.559528
281.718	-0.0337114
283.516	0.561411
285.315	0.264813
287.113	0.279848
288.911	0.00695324
290.708	0.310108
292.505	0.47034
294.302	0.823232
296.098	0.579508
297.894	0.169755
299.69	-0.33486
301.485	-0.194552
303.278	0.398341
305.073	0.0347757
306.867	0.14752
308.661	0.331268
310.454	0.0387259
312.247	-0.204857
314.04	0.386621
315.833	-0.663216
317.623	0.0983238
319.415	-0.186496
321.206	-0.0891438
322.997	0.509776
324.788	0.131438
326.579	0.922604
328.367	0.854302
330.156	0.880773
331.946	-0.00294209
333.735	0.0678387
335.523	0.615021
337.31	0.729026
339.098	0.242596
340.885	0.304778
342.673	0.437656
344.458	0.331292
346.244	-0.395577
348.03	0.0725107
349.816	0.0633383
351.6	0.197329
353.385	0.0204487
355.17	0.128808
356.953	-0.0742979
358.737	0.555471
360.521	0.945033
362.304	-0.285227
364.085	0.578028
365.868	0.750068
367.65	0.398717
369.431	-0.166335
371.212	0.192637
372.994	0.218796
374.773	-0.346389
376.554	0.836535
378.332	0.461011
380.112	0.346264
381.892	-0.143751
383.669	-0.184911
385.448	0.0572853
387.225	0.253407
389.003	0.051136
390.781	-0.408461
392.557	-0.0687428
394.334	0.788158
396.109	0.588608
397.885	0.201237
399.66	0.353802
401.436	0.294519
403.211	0.610358
404.984	-0.248956
406.759	0.441
408.532	0.519618
410.306	0.1753
412.078	-0.098505
413.851	0.355555
415.623	0.528627
417.395	0.467854
419.166	0.0791578
420.938	0.465132
422.708	-0.158441
424.477	0.766568
426.248	0.282105
428.017	0.0549955
429.788	-0.0787115
431.556	0.726339
433.326	0.522391
435.093	0.177956
436.86	0.49063
438.629	0.098525
440.395	0.221289
442.163	0.553073
443.929	1.09326
445.694	0.623378
447.461	0.433784
449.226	0.26737
450.99	0.405029
452.756	0.846228
454.52	0.423898
456.285	0.841264
458.048	-0.0929461
459.811	-0.0250292
461.573	0.578249
463.337	-0.258668
465.099	0.0226402
466.86	0.422837
468.623	0.268108
470.384	0.557034
472.144	0.0558138
473.906	0.391491
475.666	0.189981
477.425	0.661723
479.184	0.4793
480.944	0.645195
482.703	0.205611
484.461	0.0699492
486.218	0.658313
487.975	0.2005
489.734	0.280667
491.491	0.455379
493.247	0.420807
495.003	0.479934
496.759	1.05406
498.516	0.129459
500.271	0.257985
502.025	0.550372
503.779	0.51348
505.533	0.545875
507.287	0.506349
509.042	0.723984
510.795	0.375343
512.547	0.683867
514.299	0.967289
516.051	0.872759
517.803	0.518298
519.554	0.985815
521.305	0.841187
523.055	0.156048
524.805	0.691916
526.555	0.898756
528.307	1.12885
530.056	0.772733
531.805	0.0184155
533.553	1.4879
535.301	0.217455
537.049	0.419949
538.797	0.620636
540.544	0.679736
542.291	0.644669
544.037	0.888443
545.783	0.573901
547.529	0.77089
549.275	0.0403824
551.02	0.0527573
552.765	0.0652828
554.509	0.00865078
556.253	0.29864
557.997	0.496194
559.738	0.532622
561.482	0.155194
563.224	1.27409
564.967	0.530144
566.709	0.362143
568.451	0.378819
570.192	0.212962
571.933	0.82861
573.674	0.298807
575.415	0.527865
577.153	-0.205022
578.893	0.00409126
580.632	0.742419
582.371	0.0339661
584.11	0.611742
585.849	0.430032
587.587	0.522983
589.323	0.614721
591.06	0.774519
592.797	0.795703
594.534	0.402587
596.271	0.193578
598.005	0.00756073
599.741	-0.316815
601.476	-0.158834
603.211	-0.186087
604.944	0.107144
606.679	0.375834
608.413	-0.137405
610.147	0.221925
611.878	0.19136
613.611	0.069891
615.344	0.407587
617.077	0.0579195
618.807	0.303503
620.539	0.753817
622.27	0.401662
623.999	0.0719481
625.73	0.290901
627.461	0.39644
629.189	0.503847
630.919	-0.207846
632.648	0.702679
634.376	0.70166
636.105	0.563418
637.833	0.469111
639.559	0.623167
641.287	0.591565
643.013	1.33233
644.74	0.339936
646.467	0.646244
648.192	-0.000780106
649.918	0.287528
651.642	0.556811
653.368	0.352847
655.091	0.561492
656.816	0.454127
658.538	0.370365
660.263	0.673972
661.987	0.0174255
663.708	0.568841
665.432	0.455383
667.153	0.0654879
668.875	1.04691
670.596	0.382274
672.318	0.771873
674.037	0.614812
675.759	0.0930138
677.478	0.603946
679.196	0.564921
680.917	0.892694
682.635	1.05814
684.355	0.577007
686.072	-0.136888
687.791	0.183749
689.508	-0.141554
691.224	0.937548
692.942	0.610892
694.658	0.836303
696.376	0.600081
698.091	1.09944
699.805	0.906785
701.522	0.805088
703.236	1.04729
704.95	1.67885
706.665	1.16139
708.379	1.12587
710.093	0.883762
711.806	1.21404
713.518	0.468361
715.23	0.592213
716.943	0.21346
718.655	0.998889
720.366	1.09936
722.078	1.08594
723.788	0.936115
725.498	0.900099
727.208	0.432299
728.919	0.827238
730.628	1.33435
732.337	0.934126
734.045	0.873874
735.755	1.31103
737.463	0.618666
739.17	1.43981
740.877	1.40396
742.584	1.36944
744.292	1.44895
745.998	1.66492
747.704	0.757385
749.409	1.5386
751.114	0.724089
752.819	1.39541
754.526	1.19094
756.23	1.483
757.934	1.21403
759.637	0.65339
761.34	1.31058
763.043	1.33757
764.746	1.59015
766.448	1.75157
768.152	0.961836
769.853	1.54865
771.554	1.34206
773.255	0.975678
774.956	1.62633
776.656	0.830375
778.356	1.30188
780.056	1.63936
781.755	1.91035
783.454	1.93279
785.153	1.43348
786.851	1.6108
788.549	1.76223
790.247	2.04581
791.944	2.10004
793.641	1.72336
795.338	2.02378
797.034	1.60334
798.73	1.70326
800.426	1.91748
802.121	1.72804
803.817	1.60697
805.511	1.93548
807.206	1.92582
808.9	1.60053
810.592	1.70084
812.286	2.20364
813.979	1.42787
815.672	2.33214
817.364	2.07169
819.057	2.41517
820.748	1.7087
822.44	1.82934
824.129	2.129
825.82	2.0509
827.511	2.7547
829.201	2.01359
830.891	1.49848
832.581	2.0109
834.269	1.6121
835.958	1.81617
837.646	1.55166
839.335	2.02256
841.023	1.42002
842.709	1.3743
844.396	1.46209
846.084	1.99756
847.77	1.50663
849.455	1.93499
851.141	1.73964
852.827	2.2632
854.513	1.84653
856.196	1.9679
857.881	1.90851
859.566	1.91476
861.248	1.42372
862.932	1.42605
864.616	1.35943
866.297	1.2918
867.98	1.47151
869.663	1.65081
871.343	1.8975
873.026	0.993449
874.707	1.53313
876.387	0.922053
878.068	1.823
879.747	1.21171
881.428	1.48033
883.108	1.04841
884.786	1.31522
886.465	1.39998
888.143	1.23491
889.822	1.3615
891.498	1.71179
893.177	1.74488
894.855	1.41663
896.53	1.69482
898.208	2.46542
899.883	1.30416
901.56	1.51144
903.234	1.09106
904.91	1.38666
906.584	1.14604
908.26	1.39709
909.933	1.4035
911.608	1.29957
913.28	1.06324
914.955	1.38281
916.627	1.61313
918.298	2.1089
919.972	1.43029
921.643	1.24017
923.315	1.27254
924.986	1.19606
926.656	0.790347
928.328	0.651492
929.997	1.72763
931.668	1.56855
933.337	1.12303
935.006	1.8689
936.676	1.66667
938.344	0.583168
940.012	0.802092
941.681	1.28699
943.348	1.48603
945.014	1.28776
946.683	0.999987
948.349	0.511694
950.015	1.08098
951.682	1.05299
953.347	0.936805
955.012	1.7483
956.676	1.12921
958.343	1.32937
960.006	0.561467
961.67	1.67162
963.333	0.55079
964.998	1.4838
966.661	0.711294
968.323	1.13049
969.985	1.34835
971.649	0.790996
973.31	0.411169
974.971	1.05001
976.632	0.85032
978.293	1.66967
979.953	1.36167
981.615	1.05313
983.274	0.92021
984.933	0.408989
986.592	0.692644
988.251	0.841579
989.909	1.14388
991.567	1.06943
993.225	0.906525
994.884	0.876316
996.541	1.11101
998.198	1.69819
999.855	2.15222
1001.51	2.2749
1003.17	1.03249
1004.82	1.06695
1006.48	1.14516
1008.13	0.959859
1009.79	0.906798
1011.44	0.613013
1013.1	0.495379
1014.75	0.838253
1016.4	0.393029
1018.06	1.13032
1019.71	0.992898
1021.36	0.703592
1023.01	1.04945
1024.66	1.63657
1026.32	1.02231
1027.97	0.583032
1029.62	1.3448
1031.27	1.58078
1032.92	1.00714
1034.57	0.737808
1036.22	0.772648
1037.87	0.327289
1039.52	0.513773
1041.16	1.00511
1042.81	1.06233
1044.46	0.578098
1046.11	0.856394
1047.76	0.810739
1049.4	0.831926
1051.05	0.137638
1052.7	0.139111
1054.34	0.423439
1055.99	0.599232
1057.63	0.644386
1059.28	1.0152
1060.92	0.559157
1062.57	-0.158646
1064.21	0.144655
1065.85	0.229487
1067.5	0.530558
1069.14	0.9608
1070.78	0.325902
1072.43	0.755032
1074.07	0.576706
1075.71	0.160915
1077.35	0.115282
1078.99	0.374454
1080.63	-0.0378494
1082.27	0.070302
1083.91	0.351089
1085.55	0.651893
1087.19	0.842106
1088.83	0.748487
1090.47	0.0689936
1092.11	0.254157
1093.75	0.373671
1095.39	-0.132607
1097.03	0.225055
1098.66	1.01426
1100.3	0.986144
1101.94	0.787906
1103.57	0.290451
1105.21	1.14962
1106.84	0.525192
1108.48	0.545781
1110.11	0.608299
1111.75	0.00292969
1113.38	0.878762
1115.02	0.614461
1116.65	0.0280848
1118.29	0.707424
1119.92	0.37959
1121.55	1.03811
1123.19	0.0704517
1124.82	0.345468
1126.45	0.770889
1128.08	0.106287
1129.71	0.297868
1131.34	0.340319
1132.97	0.447199
1134.6	0.211935
1136.23	0.510438
1137.86	0.465903
1139.49	0.505629
1141.12	0.20269
1142.75	0.30495
1144.38	0.3219
1146.01	0.467399
1147.64	-0.0682135
1149.26	0.419995
1150.89	0.375955
1152.52	0.757861
1154.15	0.457964
1155.77	-0.161414
1157.4	0.581121
1159.02	-0.016448
1160.65	0.556661
1162.27	0.0250568
1163.9	0.408763
1165.52	0.155137
1167.15	0.92186
1168.77	0.815762
1170.39	0.0490923
1172.02	1.0019
1173.64	0.147118
1175.26	0.225744
1176.89	-0.162688
1178.51	-0.317333
1180.13	-0.0265999
1181.75	0.201136
1183.37	0.175563
1184.99	-0.230251
1186.61	0.546078
1188.23	0.644473
1189.85	0.150485
1191.47	-0.00746632
1193.09	0.422186
1194.71	0.324921
1196.33	0.9827
1197.94	0.906776
1199.56	0.916495
1201.18	0.803273
1202.8	0.338046
1204.41	0.877725
1206.03	0.626416
1207.65	0.564354
1209.26	0.794672
1210.88	0.711292
1212.49	0.772183
1214.11	0.351479
1215.72	1.01182
1217.34	1.10745
1218.95	1.09786
1220.57	1.19191
1222.18	0.726518
1223.79	0.843431
1225.41	0.630424
1227.02	1.68152
1228.63	1.40932
1230.24	1.36615
1231.85	0.621491
1233.47	0.849734
1235.08	1.12055
1236.69	0.896586
1238.3	1.29382
1239.91	1.25772
1241.52	1.28386
1243.13	1.51657
1244.74	1.10712
1246.34	1.9381
1247.95	1.42297
1249.56	1.63125
1251.17	1.05298
1252.78	1.30247
1254.38	1.92496
1255.99	1.2455
1257.6	1.20852
1259.2	1.2969
1260.81	1.44839
1262.42	1.41415
1264.02	1.29707
1265.63	1.13805
1267.23	1.95241
1268.84	1.02461
1270.44	2.0445
1272.04	1.96439
1273.65	1.5307
1275.25	0.888792
1276.85	1.40668
1278.46	1.19835
1280.06	1.46576
1281.66	1.31867
1283.26	1.56487
1284.86	1.04628
1286.46	1.79002
1288.07	1.31506
1289.67	1.81252
1291.27	1.79385
1292.87	1.48586
1294.47	1.83825
1296.06	1.85868
1297.66	1.79476
1299.26	2.16236
1300.86	2.32161
1302.46	1.63462
1304.06	2.47072
1305.65	2.39976
1307.25	1.50682
1308.85	2.13363
1310.44	1.95982
1312.04	1.80724
1313.64	1.79895
1315.23	2.26172
1316.83	1.64266
1318.42	1.94329
1320.02	1.8968
1321.61	2.11422
1323.2	1.37314
1324.8	1.81074
1326.39	1.39313
1327.99	2.09102
1329.58	1.83601
1331.17	1.90689
1332.76	2.70746
1334.36	2.07575
1335.95	2.15299
1337.54	1.72661
1339.13	2.08616
1340.72	2.14132
1342.31	2.2745
1343.9	2.22426
1345.49	1.51032
1347.08	1.29945
1348.67	2.13239
1350.26	1.18525
1351.85	1.72225
1353.43	1.68117
1355.02	1.12191
1356.61	1.2028
1358.2	1.38312
1359.78	1.06311
1361.37	1.20134
1362.96	0.959526
1364.54	1.29576
1366.13	1.35288
1367.71	0.932834
1369.3	0.793077
1370.88	1.33147
1372.47	0.657316
1374.05	1.19817
1375.64	1.1627
1377.22	1.08756
1378.8	0.733339
1380.39	1.41281
1381.97	1.63316
1383.55	1.25539
1385.13	1.17501
1386.72	1.11408
1388.3	1.33135
1389.88	0.77498
1391.46	0.91444
1393.04	0.955454
1394.62	1.21504
1396.2	0.641527
1397.78	0.93985
1399.36	0.999169
1400.94	1.21589
1402.52	1.01607
1404.1	1.03403
1405.68	0.79544
1407.25	0.696293
1408.83	0.933983
1410.41	0.599244
1411.98	1.23228
1413.56	0.995759
1415.14	0.916351
1416.71	0.875589
1418.29	1.14981
1419.87	1.01036
1421.44	1.325
1423.02	0.873344
1424.59	1.78163
1426.16	1.25443
1427.74	1.57416
1429.31	1.18507
1430.89	1.38554
1432.46	1.72251
1434.03	1.97957
1435.6	2.23597
1437.18	2.04021
1438.75	2.78887
1440.32	2.75228
1441.89	1.98968
1443.46	2.40707
1445.03	2.92322
1446.6	1.92618
1448.17	2.48207
1449.74	2.72384
1451.31	2.63195
1452.88	2.63899
1454.45	2.39075
1456.02	2.39816
1457.59	2.50329
1459.16	2.11504
1460.72	1.78394
1462.29	1.33294
1463.86	1.13618
1465.43	1.56744
1466.99	2.09604
1468.56	1.11266
1470.13	0.818007
1471.69	0.936674
1473.26	0.997519
1474.82	0.902276
1476.38	1.02317
1477.95	0.791286
1479.51	0.873037
1481.08	0.523479
1482.64	0.87942
1484.2	0.882448
1485.77	0.532516
1487.33	0.0840855
1488.89	0.672346
1490.46	0.573404
1492.02	0.628867
1493.58	0.857845
1495.14	0.635776
1496.7	0.354663
1498.26	-0.00382328
1499.82	-0.0887976
1501.38	-0.153173
1502.94	0.404297
1504.5	-0.181583
1506.06	0.182432
1507.62	0.390486
1509.18	0.693723
1510.73	-0.317012
1512.29	0.234919
1513.85	0.708076
1515.41	0.0845032
1516.96	0.672576
1518.52	0.723083
1520.08	0.180305
1521.63	0.38518
1523.19	-0.00321102
1524.75	0.56314
1526.3	0.421622
1527.85	0.603275
1529.41	1.29724
1530.96	0.773991
1532.52	0.859465
1534.07	0.794132
1535.62	0.824599
1537.18	0.799286
1538.73	0.378379
1540.28	0.863825
1541.84	0.915166
1543.39	0.571091
1544.94	0.866753
1546.49	0.917438
1548.04	1.02415
1549.59	1.67416
1551.14	1.19956
1552.69	1.25021
1554.25	1.45127
1555.79	1.01847
1557.34	0.849359
1558.89	1.48471
1560.44	0.890497
1561.99	1.54792
1563.54	0.881999
1565.08	0.962895
1566.63	0.708035
1568.18	0.658187
1569.73	1.65324
1571.27	1.69603
1572.82	1.71984
1574.37	1.91152
1575.91	1.26317
1577.46	1.56709
1579	1.89014
1580.55	1.85915
1582.09	1.58621
1583.64	1.44481
1585.18	1.47228
1586.73	0.995514
1588.27	1.34148
1589.81	1.59398
1591.35	2.31419
1592.9	1.64875
1594.44	1.4321
1595.98	2.09594
1597.52	1.84228
1599.06	1.88913
1600.61	1.48659
1602.15	1.57211
1603.69	1.43238
1605.23	2.02454
1606.77	2.07073
1608.31	1.49459
1609.85	1.64902
1611.39	1.29367
1612.93	1.23706
1614.46	1.44193
1616	1.83362
1617.54	1.36303
1619.08	2.01824
1620.61	1.40098
1622.15	1.44085
1623.69	1.08844
1625.23	1.35391
1626.76	1.33783
1628.3	1.24562
1629.83	1.24559
1631.37	1.9173
1632.9	1.22427
1634.44	1.42837
1635.97	1.74501
1637.51	1.78258
1639.04	1.44794
1640.57	1.95226
1642.11	1.80355
1643.64	1.6166
1645.17	1.68913
1646.71	1.50027
1648.24	1.66439
1649.77	2.21858
1651.3	2.17925
1652.83	2.14132
1654.36	2.10466
1655.89	2.03167
1657.42	1.53253
1658.96	2.29245
1660.48	1.79148
1662.01	2.19606
1663.54	2.13667
1665.07	1.87356
1666.6	2.51555
1668.13	1.8852
1669.66	2.03138
1671.19	2.56596
1672.71	2.30937
1674.24	1.53784
1675.77	1.17153
1677.29	1.19116
1678.82	1.00735
1680.35	1.31911
1681.87	1.77672
1683.4	1.07654
1684.92	1.49671
1686.45	1.0731
1687.97	0.632116
1689.5	1.01635
1691.02	0.320172
1692.54	0.942418
1694.07	0.923783
1695.59	0.667339
1697.11	0.685003
1698.64	1.03103
1700.16	0.463696
1701.68	0.571408
1703.2	0.733088
1704.72	0.311246
1706.25	0.672045
1707.77	0.486556
1709.29	0.773561
1710.81	0.189034
1712.33	-0.0860729
1713.85	0.418495
1715.37	-0.0371561
1716.89	-0.00373077
1718.41	0.409047
1719.92	0.00846386
1721.44	-0.301088
1722.96	-0.0147009
1724.48	0.272188
1725.99	0.613984
1727.51	0.0207529
1729.03	0.0046978
1730.55	-0.368349
1732.06	0.241009
1733.58	0.241802
1735.09	0.0894823
1736.61	0.436598
1738.13	0.108917
1739.64	0.0236588
1741.15	0.231382
1742.67	0.228256
1744.18	0.00964165
1745.7	0.518168
1747.21	0.401224
1748.72	0.284392
1750.24	0.453619
1751.75	0.127774
1753.26	0.275621
1754.77	9.82285e-005
1756.29	-0.0533447
1757.8	0.590965
1759.31	-0.067029
1760.82	0.0246849
1762.33	0.0544147
1763.84	0.294673
1765.35	-0.129148
1766.86	0.108727
1768.37	0.113607
1769.88	-0.0502653
1771.39	0.00671673
1772.9	-0.34479
1774.4	-0.501122
1775.91	0.0340157
1777.42	-0.422284
1778.93	-0.132732
1780.44	0.405694
1781.94	0.0165119
1783.45	0.0742369
1784.96	0.0101452
1786.46	-0.0859051
1787.97	0.789685
1789.47	-0.00670815
1790.98	0.456102
1792.48	0.0872231
1793.99	0.323108
1795.49	-0.088521
1797	-0.284846
1798.5	0.0082674
1800.01	0.211121
1801.51	0.122373
1803.01	0.19049
1804.51	-0.235637
1806.02	0.311568
1807.52	-0.0324488
1809.02	0.128167
1810.52	0.0981684
1812.02	0.070982
1813.52	0.0424213
1815.02	-0.184836
1816.53	0.00247669
1818.03	0.326371
1819.52	-0.156959
1821.02	0.0420856
1822.52	-0.221496
1824.02	0.0983953
1825.52	0.0879574
1827.02	0.0347176
1828.52	-0.0425091
1830.02	-0.0769196
1831.51	-0.116654
1833.01	0.196835
1834.51	0.0694189
1836.01	0.112689
1837.5	0.0198221
1839	0.0141726
1840.49	-0.345773
1841.99	-0.164052
1843.49	0.354625
1844.98	0.0608311
1846.48	-0.156001
1847.97	0.0897808
1849.47	0.0954752
1850.96	0.369429
1852.45	-0.0302038
1853.95	0.0489302
1855.44	0.346956
1856.93	0.150372
1858.42	0.0501566
1859.92	-0.00332832
1861.41	0.287133
1862.9	0.254776
1864.39	-0.115455
1865.88	-0.0140448
1867.38	0.158283
1868.87	0.230947
1870.36	0.0958033
1871.85	0.0289021
1873.34	0.221033
1874.83	0.0270271
1876.32	0.123604
1877.81	-0.109164
1879.29	0.274367
1880.78	-0.132722
1882.27	-0.177255
1882.53	-0.168315
1884.03	0.233159
1885.52	-0.22031
1887.01	0.0398865
1888.51	0.212273
1890	0.384666
1891.5	0.123135
1892.99	0.228494
1894.48	0.127028
1895.97	0.340073
1897.47	-0.228587
1898.96	0.333091
1900.45	0.128433
1901.94	0.478809
1903.43	0.375072
1904.92	0.0439463
1906.41	0.424695
1907.9	-0.0806046
1909.39	0.369824
1910.88	0.0226917
1912.37	-0.184578
1913.86	0.129091
1915.35	0.251984
1916.84	0.0277548
1918.33	0.0630817
1919.81	-0.196606
1921.3	0.340536
1922.79	0.340975
1924.28	-0.402141
1925.76	-0.0014534
1927.25	0.192517
1928.73	0.421791
1930.22	0.0103636
1931.71	0.134912
1933.19	0.0675421
1934.68	0.24079
1936.16	0.187302
1937.65	0.0116539
1939.13	-0.0432711
1940.62	0.368372
1942.1	0.262659
1943.58	0.0718508
1945.07	0.295897
1946.55	0.365019
1948.03	0.468325
1949.51	-0.032135
1951	0.499939
1952.48	0.152906
1953.96	0.0464811
1955.44	-0.0255117
1956.92	0.00599575
1958.4	0.0038023
1959.88	0.156711
1961.36	0.310015
1962.84	0.0348873
1964.32	-0.514326
1965.8	0.32358
1967.28	0.0474405
1968.76	-0.00666523
1970.24	0.160921
1971.72	-0.286886
1973.2	0.477717
1974.67	-0.0208101
1976.15	0.180328
1977.63	0.26213
1979.1	0.360942
1980.58	0.0173292
1982.06	0.16695
1983.54	0.23113
1985.01	0.243958
1986.49	0.120828
1987.96	-0.222444
1989.44	-0.00606728
1990.91	0.058341
1992.39	0.0221024
1993.86	0.375693
1995.33	0.256639
1996.81	0.0367327
1998.28	0.0702477
1999.75	0.27213
2001.23	0.355111
2002.7	0.117051
2004.17	0.148809
2005.65	0.13031
2007.12	0.432579
2008.59	0.163079
2010.06	0.483792
2011.53	0.148436
2013	0.0151796
2014.47	0.0161705
2015.94	-0.235953
2017.41	0.133481
2018.88	0.0311079
2020.35	0.197127
2021.82	-0.107385
2023.29	0.394401
2024.76	0.409957
2026.23	0.393141
2027.69	0.444857
2029.16	0.263253
2030.63	0.150017
2032.1	0.272607
2033.56	0.1775
2035.03	0.115895
2036.5	0.0370598
2037.96	0.00806713
2039.43	0.415649
2040.89	0.201354
2042.36	-0.147186
2043.83	0.228023
2045.29	0.301515
2046.75	-0.0114212
2048.22	0.0461893
2049.68	-0.182973
2051.15	0.109367
2052.61	0.434119
2054.07	0.133106
2055.54	0.53865
2057	0.268308
2058.46	0.418625
2059.92	0.299155
2061.39	0.516927
2062.85	0.0957308
2064.31	0.433028
2065.77	0.367354
2067.23	0.605436
2068.69	0.574844
2070.15	0.342557
2071.61	0.362788
2073.07	1.00586
2074.53	0.369009
2075.99	0.00116158
2077.45	0.020256
2078.91	0.358916
2080.37	0.276117
2081.82	0.613686
2083.28	0.293976
2084.74	0.226106
2086.2	0.393052
2087.65	-0.130128
2089.11	0.640816
2090.57	0.587716
2092.02	0.534579
2093.48	0.0283518
2094.94	0.411233
2096.39	0.357413
2097.85	0.503982
2099.3	0.783588
2100.76	0.343359
2102.21	0.355185
2103.66	0.217503
2105.12	0.698732
2106.57	0.380127
2108.03	0.463037
2109.48	0.162706
2110.93	0.212077
2112.38	0.543401
2113.84	0.506327
2115.29	0.317961
2116.74	0.47814
2118.19	0.306139
2119.64	0.484249
2121.09	0.647429
2122.54	0.430953
2123.99	0.547625
2125.45	0.31669
2126.89	0.765296
2128.34	0.317636
2129.79	0.647696
2131.24	0.860248
2132.69	0.62484
2134.14	0.505464
2135.59	0.585388
2137.04	0.484854
2138.48	0.964559
2139.93	0.718935
2141.38	0.425256
2142.83	0.496331
2144.27	0.667335
2145.72	0.772401
2147.17	0.827578
2148.61	0.584029
2150.06	0.770223
2151.5	0.822945
2152.95	0.858116
2154.39	0.759917
2155.84	0.445904
2157.28	0.778052
2158.73	0.729859
2160.17	0.832037
2161.61	0.737102
2163.06	0.643867
2164.5	1.06627
2165.94	0.925611
2167.38	0.734798
2168.83	0.725579
2170.27	0.980733
2171.71	0.81806
2173.15	0.91962
2174.59	1.00317
2176.03	0.903163
2177.47	0.803387
2178.91	1.13663
2180.36	0.556399
2181.8	0.442495
2183.23	0.628433
2184.67	1.28041
2186.11	1.00108
2187.55	1.25411
2188.99	0.708431
2190.43	0.47878
2191.87	0.648344
2193.3	0.600777
2194.74	0.868267
2196.18	0.93414
2197.62	0.548774
2199.05	0.54459
2200.49	0.672333
2201.93	0.700107
2203.36	0.4962
2204.8	0.442814
2206.23	0.75506
2207.67	0.868743
2209.1	0.551592
2210.54	0.482242
2211.97	0.544328
2213.41	0.324601
2214.84	0.517987
2216.27	0.563113
2217.71	0.543286
2219.14	0.392734
2220.57	0.737673
2222.01	0.63753
2223.44	0.73445
2224.87	0.582905
2226.3	0.413409
2227.73	0.0452967
2229.16	0.547112
2230.6	0.194029
2232.03	0.546133
2233.46	0.423029
2234.89	0.595232
2236.32	0.310814
2237.75	0.550762
2239.18	0.0743237
2240.61	0.464649
2242.03	0.775005
2243.46	0.417852
2244.89	0.240428
2246.32	0.290718
2247.75	-0.0193005
2249.17	0.386138
2250.6	0.463161
2252.03	0.359305
2253.46	0.482471
2254.88	0.296994
2256.31	0.243082
2257.73	0.499775
2259.16	0.791522
2260.59	0.550765
2262.01	0.799236
2263.44	0.286217
2264.86	-0.0158663
2266.29	0.41307
2267.71	0.467505
2269.14	0.651269
2270.56	0.508764
2271.98	0.447094
2273.4	0.596934
2274.83	0.372252
2276.25	0.457232
2277.67	0.47723
2279.09	0.448389
2280.52	0.549924
2281.94	0.129426
2283.36	0.393849
2284.78	-0.0759058
2286.2	0.303089
2287.62	0.192807
2289.04	-0.0641356
2290.46	0.136619
2291.88	0.583006
2293.3	0.326654
2294.72	0.380919
2296.14	1.00804
2297.56	0.341969
2298.98	0.478112
2300.4	0.41788
2301.82	0.472644
2303.23	0.019146
2304.65	0.517375
2306.07	0.523345
2307.49	0.151051
2308.9	0.23816
2310.32	0.357656
2311.73	0.262993
2313.15	0.447952
2314.57	0.287767
2315.98	0.490433
2317.4	0.265697
2318.81	0.107084
2320.23	0.327415
2321.64	0.0353642
2323.06	0.550042
2324.47	0.138299
2325.88	0.466955
2327.3	0.991559
2328.71	0.756701
2330.12	0.687009
2331.54	0.354862
2332.95	0.139273
2334.36	0.33597
2335.77	0.269605
2337.18	0.350839
2338.6	0.184461
2340.01	-0.245793
2341.42	0.210328
2342.83	-0.0238829
2344.24	0.0865774
2345.65	0.279094
2347.06	0.209575
2348.47	0.320221
2349.88	-0.338496
2351.29	-0.0162363
2352.7	0.222909
2354.1	0.0854254
2355.51	-0.296951
2356.92	0.0212936
2358.33	0.241228
2359.74	-0.449031
2361.14	0.144419
2362.55	0.444762
2363.96	0.226091
2365.36	0.396115
2366.77	-0.096653
2368.18	0.10638
2369.58	0.10032
2370.99	-0.307446
2372.39	0.237026
2373.8	0.07339
2375.2	0.151705
2376.61	-0.0600166
2378.01	-0.0313463
2379.42	-0.116648
2380.82	-0.0749559
2382.22	-0.0346918
2383.63	-0.123489
2385.03	0.0916042
2386.43	0.0828962
2387.84	0.0750599
2389.24	0.164039
2390.64	0.254088
2392.04	-0.0687828
2393.44	0.262063
2394.84	0.0844526
2396.25	0.00305653
2397.65	0.160716
2399.05	0.207621
2400.45	-0.301021
2401.85	0.064393
2403.25	0.143877
2404.65	0.0800695
2406.05	0.142451
2407.45	0.219755
2408.84	-0.227139
2410.24	-0.214211
2411.64	-0.0268145
2413.04	-0.0446968
2414.44	-0.219684
2415.83	0.0816784
2417.23	0.415969
2418.63	0.022871
2420.02	0.0575895
2421.42	0.15557
2422.82	0.253245
2424.21	0.414048
2425.61	0.00448608
2427	0.324357
2428.4	0.328156
2429.8	0.634241
2431.19	0.227272
2432.58	0.661435
2433.98	0.491964
2435.37	0.337119
2436.77	0.0377502
2438.16	0.404185
2439.55	0.0861998
2440.95	0.22801
2442.34	0.289827
2443.73	0.0180874
2445.12	0.491881
2446.51	0.0455637
2447.91	0.0907717
2449.3	0.215132
2450.69	0.244605
2452.08	0.179616
2453.47	0.147073
2454.86	0.289405
2456.25	0.29002
2457.64	0.16441
2459.03	0.370818
2460.42	0.24451
2461.81	0.0542183
2463.2	0.29002
2464.59	-0.122685
2465.98	0.0805655
2467.36	0.236197
2468.75	-0.192158
2470.14	0.184007
2471.53	0.118009
2472.92	-0.0745993
2474.3	0.20458
2475.69	0.0422812
2477.08	-0.135835
2478.46	0.126015
2479.85	-0.287142
2481.23	0.20993
2482.62	0.14214
2484	-0.0512333
2485.39	0.098978
2486.77	0.435266
2488.16	0.0519037
2489.54	-0.268886
2490.93	-0.0598164
2492.31	0.133679
2493.69	0.172494
2495.08	-0.299362
2496.46	0.129768
2497.84	0.0479555
2499.23	0.368957
2500.61	-0.130582
2501.99	0.0344687
2503.37	0.182852
2504.75	-0.364037
2506.13	0.106583
2507.52	-0.301332
2508.9	-0.0317822
2510.28	-0.0541887
2511.66	0.123513
2513.04	0.194351
2514.42	0.0821304
2515.8	-0.059679
2517.18	-0.200569
2518.55	0.270766
2519.93	0.298646
2521.31	-0.361025
2522.69	-0.150525
2524.07	-0.0173492
2525.45	0.252115
2526.82	0.124969
2528.2	-0.0320024
2529.58	-0.157282
2530.95	-0.00734329
2532.33	0.0225477
2533.71	-0.0526009
2535.08	0.0704613
2536.46	-0.00401592
2537.84	0.0576067
2539.21	0.133489
2540.59	0.345177
2541.96	0.29836
2543.34	-0.294349
2544.71	-0.309515
2546.08	0.177011
2547.46	0.224843
2548.83	0.0611382
2550.2	0.0643682
2551.58	0.173383
2552.95	0.190475
2554.32	0.115516
2555.7	0.32798
2557.07	-0.0972319
2558.44	0.00839424
2559.81	0.235501
2561.18	0.0538263
2562.55	0.31232
2563.93	-0.216636
2565.3	0.0580044
2566.67	-0.303579
2568.04	-0.0740414
2569.41	-0.35976
2570.78	-0.0695419
2572.15	-0.20365
2573.51	-0.0193548
2574.88	-0.0623245
2576.25	0.12216
2577.62	0.170156
2578.99	-0.206614
2580.36	0.022809
2581.73	-0.263683
2583.09	0.071147
2584.46	-0.124895
2585.83	0.073185
2587.19	0.195569
2588.56	0.0150232
2589.93	-0.210844
2591.29	0.0481319
2592.66	0.00359154
2594.02	0.0946426
2595.39	-0.133336
2596.75	0.379583
2598.12	0.119685
2599.48	0.13187
2600.85	-0.218476
2602.21	0.0210247
2603.58	0.276049
2604.94	-0.0419722
2606.3	0.0326357
2607.67	0.0767336
2609.03	0.0898542
2610.39	0.0415583
2611.76	0.157619
2613.12	0.152078
2614.48	0.190872
2615.84	0.0642862
2617.2	0.0581198
2618.56	-0.0522628
2619.92	0.182469
2621.28	0.0437574
2622.65	-0.198827
2624.01	0.156436
2625.37	0.197829
2626.72	-0.104038
2628.08	0.249869
2629.44	0.126499
2630.8	0.419708
2632.16	-0.0160656
2633.52	0.0241575
2634.88	-0.0692725
2636.24	0.297166
2637.59	0.307385
2638.95	0.12518
2640.31	-0.0121894
2641.67	0.338777
2643.02	-0.00480175
2644.38	0.0361156
2645.74	0.253946
2647.09	0.0435843
2648.45	-0.314386
2649.8	-0.0544076
2651.16	0.130936
2652.51	0.110018
2653.87	0.250757
2655.22	0.0548582
2656.58	-0.21286
2657.93	0.355176
2659.29	0.00185156
2660.64	-0.0582733
2661.99	0.129985
2663.35	0.273666
2664.7	0.533155
2666.05	0.120612
2667.41	0.276628
2668.76	-0.397679
2670.11	-0.372241
2671.46	-0.259107
2672.81	0.101489
2674.16	-0.17669
2675.51	-0.0476055
2676.87	0.401102
2678.22	0.502061
2679.57	-0.222666
2680.92	0.257201
2682.27	0.375754
2683.62	0.365024
2684.97	0.0651541
2686.31	0.360473
2687.66	0.292976
2689.01	0.0355816
2690.36	0.124972
2691.71	-0.00510502
2693.06	0.487319
2694.4	-0.0801959
2695.75	0.193303
2697.1	0.0760303
2698.45	0.307648
2699.79	0.0195732
2701.14	-0.165459
2702.49	0.302664
2703.83	0.250488
2705.18	0.517739
2706.52	0.277655
2707.87	0.124167
2709.21	0.187941
2710.56	0.672547
2711.9	0.227511
2713.25	0.566763
2714.59	0.266601
2715.94	0.446036
2717.28	0.290938
2718.62	0.193709
2719.97	0.64904
2721.31	0.565626
2722.65	0.394383
2723.99	0.179
2725.34	0.690982
2726.68	0.169172
2728.02	-0.0617871
2729.36	0.551118
2730.7	0.30528
2732.04	0.277716
2733.39	0.366637
2734.73	0.528454
2736.07	0.792277
2737.41	0.707172
2738.75	0.622072
2740.08	0.769419
2741.43	0.218344
2742.76	0.393703
2744.1	0.437508
2745.44	0.495215
2746.78	0.363687
2748.12	0.478858
2749.46	0.332833
2750.79	-0.102925
2752.13	0.230285
2753.47	0.0997305
2754.81	0.1433
2756.14	0.302857
2757.48	0.230821
2758.81	0.202516
2760.15	0.13119
2761.49	0.740505
2762.82	0.308361
2764.16	0.368544
2765.49	0.660217
2766.83	0.343788
2768.16	0.344776
2769.5	0.503571
2770.83	0.501824
2772.16	0.32545
2773.5	0.105063
2774.83	0.129622
2776.17	0.0388846
2777.5	0.653843
2778.83	0.233002
2780.16	0.330623
2781.5	0.25611
2782.83	0.138747
2784.16	0.322669
2785.49	0.105044
2786.82	0.346223
2788.15	0.287008
2789.49	0.300165
2790.82	-0.329403
2792.15	0.557756
2793.48	0.101213
2794.81	0.631061
2796.14	0.0744271
2797.46	0.546031
2798.79	0.260014
2800.12	0.187907
2801.45	0.272534
2802.78	0.128776
2804.11	0.483693
2805.44	0.139921
2806.76	0.180298
2808.09	0.134688
2809.42	0.387208
2810.75	0.18495
2812.07	0.593784
2813.4	0.0529876
2814.73	0.463964
2816.05	0.337488
2817.38	0.438916
2818.7	0.498394
2820.03	0.472844
2821.36	0.0783715
2822.68	0.321046
2824.01	0.548873
2825.33	0.238015
2826.65	0.607078
2827.98	0.608386
2829.3	0.298803
2830.63	0.145441
2831.95	0.84162
2833.27	0.532694
2834.6	0.619804
2835.92	1.06022
2837.24	1.20281
2838.56	0.849792
2839.88	1.34526
2841.21	1.51541
2842.53	1.31839
2843.85	2.04076
2845.17	2.17022
2846.49	1.97531
2847.81	2.14822
2849.13	2.30704
2850.45	3.08746
2851.77	2.68005
2853.09	2.56892
2854.41	2.49977
2855.73	2.76953
2857.05	2.71428
2858.37	3.16757
2859.69	2.95696
2861	3.16983
2862.32	3.3399
2863.64	3.46713
2864.96	3.10015
2866.28	3.96057
2867.59	4.25673
2868.91	4.34177
2870.23	4.39907
2871.54	4.231
2872.86	4.52774
2874.17	4.90801
2875.49	4.7093
2876.81	5.00219
2878.12	4.87168
2879.44	5.21911
2880.75	4.35773
2882.07	4.79066
2883.38	4.6346
2884.69	4.40952
2886.01	4.21329
2887.32	4.59264
2888.63	5.23791
2889.95	4.85787
2891.26	4.88375
2892.57	4.86682
2893.89	5.17191
2895.2	4.88904
2896.51	5.33516
2897.82	5.05457
2899.13	5.01311
2900.44	5.33628
2901.76	5.17032
2903.07	5.71798
2904.38	5.41251
2905.69	5.73677
2907	5.75394
2908.31	5.86996
2909.62	6.4207
2910.93	6.34257
2912.24	6.53031
2913.55	6.88519
2914.85	6.59437
2916.16	6.93145
2917.47	7.29447
2918.78	7.62806
2920.09	7.63951
2921.4	7.2323
2922.7	7.6655
2924.01	8.05832
2925.32	8.22887
2926.62	7.72919
2927.93	8.20805
2929.24	8.21111
2930.54	8.00374
2931.85	8.25708
2933.15	8.32831
2934.46	8.66501
2935.76	8.33093
2937.07	8.59798
2938.37	7.55164
2939.68	7.45587
2940.98	6.8716
2942.29	7.29439
2943.59	7.1456
2944.89	6.32725
2946.2	6.50262
2947.5	6.21706
2948.8	6.28088
2950.11	6.17538
2951.41	6.26382
2952.71	6.18203
2954.01	5.66457
2955.32	5.79072
2956.62	4.952
2957.92	5.44517
2959.22	5.87144
2960.52	5.69879
2961.82	5.55624
2963.12	5.31608
2964.42	4.97662
2965.72	5.05655
2967.02	5.12063
2968.32	5.01452
2969.62	4.96369
2970.92	4.44849
2972.22	4.79149
2973.51	4.52986
2974.81	4.50731
2976.11	4.31504
2977.41	4.36063
2978.71	4.26346
2980	3.67167
2981.3	3.82453
2982.6	3.68122
2983.9	3.18685
2985.19	3.62149
2986.49	3.15814
2987.78	3.16007
2989.08	2.99434
2990.38	2.94123
2991.67	2.81726
2992.97	2.53753
2994.26	2.67801
2995.56	2.05867
2996.85	2.32348
2998.14	2.32112
2999.44	2.20672
3000.73	1.93863
3002.03	1.58715
3003.32	1.79673
3004.61	1.48789
3005.91	1.87907
3007.2	1.54135
3008.49	1.42686
3009.78	1.5492
3011.07	1.55875
3012.37	1.12098
3013.66	1.04649
3014.95	1.15366
3016.24	1.20553
3017.53	0.784647
3018.82	0.782078
3020.11	0.737766
3021.4	1.01265
3022.69	0.702903
3023.98	1.1697
3025.27	0.886134
3026.56	0.74129
3027.85	0.638578
3029.14	0.232853
3030.43	0.630346
3031.71	0.614412
3033	0.737448
3034.29	0.874406
3035.58	0.582975
3036.87	0.924668
3038.15	0.685391
3039.44	0.623505
3040.73	1.13734
3042.01	0.811533
3043.3	0.883893
3044.59	0.683041
3045.87	0.743941
3047.16	0.834064
3048.44	0.803415
3049.73	0.788445
3051.01	1.18432
3052.3	0.898583
3053.58	0.844734
3054.87	0.817405
3056.15	1.0344
3057.43	0.786508
3058.72	1.05564
3060	1.32403
3061.29	1.04805
3062.57	0.759604
3063.85	1.26124
3065.13	0.622169
3066.42	1.24876
3067.7	0.598259
3068.98	0.818165
3070.26	1.01052
3071.54	0.875464
3072.82	0.779838
3074.11	0.574094
3075.39	0.421801
3076.67	0.663002
3077.95	0.130538
3079.23	0.26423
3080.51	0.426254
3081.79	0.372578
3083.07	0.157168
3084.35	0.430692
3085.63	0.297083
3086.9	0.135705
3088.18	0.326386
3089.46	0.421216
3090.74	0.149026
3092.02	0.0937071
3093.29	-0.110806
3094.57	0.186635
3095.85	-0.0582752
3097.13	0.157727
3098.4	0.10235
3099.68	0.331244
3100.95	-0.07691
3102.23	-0.0109725
3103.51	0.176859
3104.78	0.0806727
3106.06	0.133918
3107.33	0.269061
3108.61	-0.0144935
3109.88	0.325383
3111.16	0.0704594
3112.43	0.141019
3113.71	0.171219
3114.98	0.377487
3116.25	0.176425
3117.53	0.0149274
3118.8	0.326886
3120.07	0.0679197
3121.35	-0.00223112
3122.62	0.116617
3123.89	0.0182352
3125.16	-0.107177
3126.44	-0.0021801
3127.71	0.0760055
3128.98	-0.0754871
3130.25	0.273512
3131.52	0.189665
3132.79	0.267647
3134.06	-0.303337
3135.33	-0.267016
3136.6	-0.042614
3137.87	-0.0753999
3139.14	-0.0548558
3140.41	0.00562143
3141.68	-0.162794
3142.95	0.0587478
3144.22	0.0116391
3145.49	-0.128941
3146.76	-0.121464
3148.02	0.261506
3149.29	0.0954075
