200.43	0.396995
202.246	0.422007
204.061	0.4483
205.875	0.743212
207.688	0.430465
209.501	1.23532
211.316	0.459505
213.129	0.120079
214.941	0.4106
216.753	-0.366347
218.566	0.795491
220.377	0.625224
222.188	-0.172694
223.999	0.723595
225.809	0.580567
227.618	0.679346
229.43	0.077445
231.239	-0.0659466
233.047	-0.0406609
234.855	-0.352616
236.663	-0.036334
238.471	-0.368788
240.278	0.554746
242.087	0.733718
243.894	0.0217447
245.7	0.298602
247.506	-0.584818
249.311	-0.384725
251.116	0.319229
252.921	0.0786133
254.725	0.125811
256.529	0.293025
258.333	0.21993
260.136	-0.0682068
261.939	-0.306072
263.744	0.517793
265.546	-0.175013
267.348	-0.578533
269.15	0.439679
270.951	-0.0132856
272.752	0.496872
274.552	-0.296417
276.353	-0.0305557
278.152	0.305542
279.952	0.470615
281.751	0.464792
283.55	0.408852
285.348	-0.153089
287.146	0.101289
288.942	0.379071
290.739	0.225913
292.536	-0.188926
294.333	0.0920792
296.129	0.254746
297.925	0.0599136
299.721	-0.349299
301.516	0.268589
303.311	0.598648
305.106	-0.337733
306.9	0.419303
308.694	-0.278892
310.486	0.120121
312.279	0.0436583
314.072	0.326077
315.864	-0.127806
317.656	0.32502
319.448	-0.602091
321.24	-0.384802
323.029	0.453435
324.819	0.100022
326.61	0.558065
328.4	0.395213
330.19	0.470492
331.977	-0.316497
333.766	0.234015
335.555	-0.557507
337.343	-0.154935
339.131	0.675989
340.917	0.59592
342.704	0.32377
344.491	0.123421
346.277	0.0669975
348.062	-0.824471
349.848	0.0276661
351.633	0.211139
353.416	-0.0117416
355.201	0.336924
356.986	0.493163
358.77	-0.138594
360.552	0.0865192
362.335	0.215144
364.118	0.104972
365.899	0.873206
367.682	-0.42577
369.464	-0.181891
371.243	0.676414
373.025	0.940558
374.806	-0.0961285
376.585	0.144254
378.365	0.643976
380.143	0.083518
381.923	0.043045
383.702	0.309667
385.479	0.647767
387.258	0.516857
389.034	-0.106139
390.812	-0.07026
392.59	0.22471
394.365	0.00357151
396.142	-0.076314
397.916	0.61888
399.693	0.303983
401.467	-0.410742
403.242	0.212689
405.015	0.318551
406.79	0.259212
408.565	0.0818329
410.337	0.490949
412.111	0.57134
413.882	-0.591563
415.656	0.146934
417.426	0.20569
419.197	-0.298143
420.969	-0.121245
422.739	0.430992
424.51	-0.0503302
426.279	0.265537
428.05	-0.217649
429.819	0.965257
431.589	0.457995
433.356	-0.16628
435.124	0.218944
436.893	0.392894
438.66	0.190589
440.428	-0.107005
442.194	-0.85211
443.96	0.0190248
445.727	0.395186
447.492	-0.0497408
449.259	0.090188
451.023	0.136452
452.787	0.229606
454.553	0.159526
456.316	0.485717
458.079	0.485164
459.844	0.414815
461.606	0.8568
463.368	0.0215397
465.132	0.281328
466.893	-0.478488
468.654	0.297997
470.415	0.47238
472.177	0.112395
473.937	-0.365181
475.696	0.296359
477.456	0.792954
479.217	0.00640583
480.975	0.0807009
482.733	0.597569
484.491	0.277091
486.251	0.30787
488.008	0.200944
489.765	0.189202
491.522	0.505265
493.278	0.00476742
495.036	0.438988
496.791	0.733433
498.546	0.676637
500.301	0.806831
502.056	0.795712
503.81	1.06546
505.566	0.558722
507.319	0.520242
509.073	0.386015
510.825	0.767701
512.578	0.983077
514.33	0.608574
516.082	0.679688
517.833	1.14926
519.587	1.21773
521.337	1.16779
523.088	1.09386
524.838	0.691138
526.588	0.59375
528.337	0.543348
530.087	0.352251
531.835	0.441982
533.584	0.600988
535.332	0.197188
537.08	0.493704
538.827	0.648122
540.574	0.544424
542.321	0.277044
544.068	0.731074
545.814	0.812147
547.56	0.800347
549.305	1.06699
551.05	0.615401
552.795	0.0955772
554.54	0.385753
556.284	-0.109253
558.027	0.158057
559.771	0.609637
561.514	0.462461
563.257	0.70712
564.999	0.101547
566.742	0.370277
568.481	0.157362
570.223	0.611156
571.964	0.46954
573.705	0.513148
575.445	0.696196
577.185	0.490943
578.925	0.240991
580.665	0.634661
582.402	-0.120131
584.141	0.342278
585.879	0.390059
587.617	-0.230538
589.355	0.481847
591.092	0.503129
592.828	0.868953
594.564	0.29127
596.301	0.380819
598.037	-0.0588379
599.773	-0.337799
601.506	-0.0194235
603.242	0.481575
604.976	-0.559524
606.711	0.0304728
608.443	0.412321
610.177	0.127961
611.91	0.0278606
613.644	-0.186035
615.374	0.357212
617.107	-0.0620298
618.839	0.182692
620.569	0.197224
622.3	0.256226
624.032	0.26853
625.761	0.78334
627.491	0.202689
629.221	-0.124446
630.949	0.509192
632.679	0.939492
634.408	0.366817
636.135	0.455636
637.863	1.02211
639.592	0.763988
641.318	-0.0444202
643.045	0.262554
644.77	0.818152
646.497	0.599558
648.224	0.565045
649.948	0.511032
651.674	0.120088
653.398	0.210161
655.123	0.485622
656.846	0.672815
658.57	0.314356
660.293	0.844626
662.017	0.43794
663.738	1.12523
665.462	0.827561
667.185	0.779202
668.905	0.684248
670.628	0.681413
672.348	0.634782
674.067	0.361579
675.789	0.961095
677.508	0.966544
679.228	0.788454
680.947	0.287159
682.667	0.703513
684.385	0.726881
686.104	0.932401
687.821	1.34364
689.538	0.37173
691.256	1.44907
692.972	0.130128
694.69	0.837441
696.406	0.760584
698.121	0.912731
699.837	0.925364
701.552	0.798779
703.268	1.19994
704.982	1.00266
706.695	1.12639
708.41	1.34118
710.123	0.75326
711.836	0.990099
713.55	1.34053
715.262	1.32448
716.973	1.01157
718.685	1.01867
720.398	0.911954
722.108	0.919454
723.818	0.403675
725.53	1.45723
727.24	1.32756
728.949	1.6969
730.658	0.455431
732.369	1.34489
734.077	1.16898
735.785	0.564011
737.493	0.908959
739.2	1.3893
740.909	1.77966
742.616	1.44994
744.322	2.06763
746.028	0.976025
747.734	1.46142
749.441	1.29572
751.146	1.46879
752.851	1.68824
754.555	1.68427
756.26	1.38932
757.963	1.90634
759.667	0.758336
761.372	1.00778
763.075	1.66429
764.777	1.50865
766.479	1.8939
768.181	1.8255
769.883	1.59642
771.584	2.02088
773.285	1.33576
774.986	2.45908
776.686	2.02275
778.386	1.99481
780.085	1.90067
781.785	2.16969
783.484	1.55647
785.182	1.96041
786.881	2.13559
788.579	2.03574
790.276	1.75144
791.974	1.80364
793.671	1.80882
795.367	2.12948
797.064	1.79689
798.76	2.5476
800.456	1.97138
802.151	2.13975
803.846	2.62359
805.541	2.14025
807.236	2.17325
808.93	1.7109
810.624	1.94356
812.317	2.48881
814.01	2.15872
815.703	1.8289
817.394	2.55088
819.086	1.64023
820.778	0.999233
822.47	1.51991
824.161	2.44194
825.852	2.82952
827.543	2.28364
829.231	2.11968
830.921	1.6695
832.611	1.84593
834.3	1.55669
835.989	1.60279
837.676	1.15778
839.364	2.09554
841.053	1.66985
842.74	2.2032
844.426	2.2446
846.113	1.25855
847.8	2.12956
849.486	1.01284
851.171	1.82273
852.857	1.96376
854.542	1.52274
856.227	1.44004
857.911	1.67081
859.595	1.3377
861.279	0.889658
862.961	1.61093
864.645	0.956743
866.329	1.36072
868.01	1.6515
869.692	1.22021
871.375	1.14936
873.055	1.84535
874.737	1.323
876.418	1.11647
878.097	1.60957
879.778	0.951488
881.457	1.44423
883.137	1.16872
884.817	0.801818
886.495	1.15586
888.174	1.01173
889.851	2.12896
891.53	1.37274
893.206	1.42687
894.884	1.18714
896.562	1.0816
898.237	1.55913
899.914	0.868166
901.589	1.6119
903.265	1.07772
904.94	0.92462
906.615	0.437302
908.289	0.910448
909.964	0.537149
911.637	0.499255
913.31	0.862185
914.984	0.95833
916.656	0.921284
918.33	0.706935
920.001	1.53377
921.674	1.12085
923.345	1.1298
925.015	1.1846
926.687	0.799671
928.357	1.32175
930.028	1.16079
931.698	1.22127
933.366	1.34822
935.037	1.01213
936.705	1.11767
938.373	0.849166
940.043	1.06713
941.71	1.08788
943.379	0.292996
945.046	0.998456
946.712	0.555189
948.378	1.23583
950.046	0.766705
951.711	0.804005
953.376	0.422273
955.043	0.769914
956.708	0.85568
958.372	0.591853
960.036	1.52253
961.701	0.446108
963.364	0.318555
965.027	0.587339
966.69	0.875841
968.354	1.09519
970.016	0.93622
971.678	1.30721
973.339	0.926629
975	0.658188
976.661	1.232
978.324	0.790047
979.984	0.846464
981.644	0.902547
983.303	1.21188
984.962	1.49705
986.621	0.938874
988.282	1.15348
989.94	0.747403
991.598	0.429488
993.256	0.818561
994.913	0.633348
996.57	0.161676
998.227	0.682748
999.884	1.22502
1001.54	1.59004
1003.2	0.633714
1004.85	0.492058
1006.51	0.61419
1008.16	0.494724
1009.82	1.12187
1011.47	0.301273
1013.12	0.183513
1014.78	1.13957
1016.43	1.21933
1018.08	0.708804
1019.74	0.505785
1021.39	0.610079
1023.04	1.04334
1024.69	0.909244
1026.34	0.688424
1028	0.79545
1029.65	1.29504
1031.3	1.55287
1032.95	1.17568
1034.6	1.08073
1036.25	1.02802
1037.9	0.952738
1039.55	1.46519
1041.19	0.911766
1042.84	1.01261
1044.49	1.15865
1046.14	1.37185
1047.79	1.13098
1049.43	0.653049
1051.08	0.936588
1052.73	1.00386
1054.37	0.984658
1056.02	0.552516
1057.66	0.772086
1059.31	0.795561
1060.95	0.687919
1062.6	1.01436
1064.24	0.361387
1065.88	0.446665
1067.53	0.378678
1069.17	0.852896
1070.81	0.826576
1072.46	0.192354
1074.1	0.123295
1075.74	0.424059
1077.38	0.921205
1079.02	1.20271
1080.66	0.0104971
1082.3	-0.075757
1083.94	0.661096
1085.58	0.268867
1087.22	0.481563
1088.86	0.562
1090.5	0.121261
1092.14	0.674438
1093.78	1.24765
1095.42	0.676476
1097.05	1.1419
1098.69	0.315637
1100.33	0.267255
1101.97	0.220855
1103.6	0.886211
1105.24	0.391208
1106.87	1.03684
1108.51	0.563787
1110.15	0.369304
1111.78	0.624705
1113.41	0.0189524
1115.05	0.206975
1116.68	0.437039
1118.31	0.516841
1119.95	0.854319
1121.58	1.17106
1123.21	0.996399
1124.85	1.1011
1126.48	0.650573
1128.11	0.115566
1129.74	0.244298
1131.37	-0.353297
1133	0.845234
1134.63	-0.00860977
1136.26	0.996552
1137.89	0.568615
1139.52	-0.0311689
1141.15	0.286581
1142.78	0.240752
1144.41	-0.0608387
1146.04	0.278094
1147.66	0.170208
1149.29	0.425469
1150.92	0.361623
1152.55	0.191362
1154.17	0.0208588
1155.8	-0.128648
1157.43	-0.0441437
1159.05	0.444786
1160.68	0.764225
1162.3	0.0428944
1163.93	0.00306034
1165.55	0.644138
1167.17	0.243155
1168.8	0.478964
1170.42	0.521684
1172.05	0.392418
1173.67	-0.0145292
1175.29	0.0233698
1176.91	0.48467
1178.54	0.0981569
1180.16	-0.160078
1181.78	0.175219
1183.4	-0.271435
1185.02	-0.463952
1186.64	0.187545
1188.26	0.351208
1189.88	-0.0565205
1191.5	0.0400419
1193.12	0.408188
1194.74	0.690498
1196.36	0.238236
1197.97	0.269712
1199.59	0.177381
1201.21	0.777118
1202.83	-0.0411053
1204.44	0.667691
1206.06	1.12787
1207.68	0.170734
1209.29	0.757758
1210.91	0.447
1212.52	0.0930014
1214.14	0.445621
1215.75	0.337425
1217.37	0.851653
1218.98	0.615676
1220.6	0.0686636
1222.21	0.995869
1223.82	0.451544
1225.44	0.675727
1227.05	1.00466
1228.66	1.10724
1230.27	1.2111
1231.88	1.08882
1233.49	0.967887
1235.1	0.765619
1236.72	1.3087
1238.33	0.860729
1239.94	1.17839
1241.55	1.18617
1243.16	1.44188
1244.76	1.34511
1246.37	1.01962
1247.98	1.02414
1249.59	0.903725
1251.2	1.27951
1252.8	1.59337
1254.41	1.76318
1256.02	1.45844
1257.63	1.44461
1259.23	2.21837
1260.84	1.23414
1262.44	1.05732
1264.05	1.33616
1265.66	1.92563
1267.26	1.93426
1268.87	1.15402
1270.47	1.9068
1272.07	2.01573
1273.68	1.95764
1275.28	2.04355
1276.88	1.90043
1278.48	2.10863
1280.09	1.77762
1281.69	1.59144
1283.29	1.59173
1284.89	2.00618
1286.49	2.19394
1288.09	1.49405
1289.69	1.64269
1291.3	2.4531
1292.9	2.20954
1294.49	2.04785
1296.09	2.05005
1297.69	2.27753
1299.29	2.04901
1300.89	2.23142
1302.49	1.81478
1304.09	1.99462
1305.68	2.17332
1307.28	2.37162
1308.88	1.4203
1310.47	1.90556
1312.07	1.61227
1313.66	2.11801
1315.26	1.70439
1316.86	2.3338
1318.45	2.00401
1320.05	1.96001
1321.64	2.70951
1323.23	2.05177
1324.83	2.34884
1326.42	2.09548
1328.01	1.6394
1329.61	1.97473
1331.2	1.8256
1332.79	2.4268
1334.38	1.95946
1335.98	2.221
1337.57	2.24089
1339.16	1.35301
1340.75	2.17663
1342.34	2.07087
1343.93	2.00331
1345.52	1.65362
1347.11	1.20461
1348.7	1.21904
1350.29	1.49616
1351.87	1.39558
1353.46	1.91707
1355.05	1.36036
1356.64	0.944235
1358.23	1.26705
1359.81	1.16933
1361.4	1.2103
1362.99	1.01098
1364.57	0.61217
1366.16	0.971178
1367.74	1.56957
1369.33	0.775287
1370.91	1.11729
1372.5	1.4208
1374.08	1.02903
1375.67	0.896639
1377.25	1.16234
1378.83	0.870373
1380.42	1.47279
1382	1.43707
1383.58	0.962509
1385.16	1.32212
1386.75	0.945832
1388.33	1.12606
1389.91	0.810567
1391.49	0.754169
1393.07	0.6986
1394.65	1.23846
1396.23	0.845943
1397.81	0.413293
1399.39	1.04999
1400.97	0.793905
1402.55	1.17091
1404.13	1.72551
1405.7	1.07389
1407.28	0.858591
1408.86	0.466494
1410.44	0.430698
1412.01	0.96755
1413.59	0.595447
1415.17	0.735754
1416.74	0.953965
1418.32	0.954731
1419.89	1.44828
1421.47	1.13516
1423.05	1.13882
1424.62	1.02607
1426.19	1.19017
1427.77	1.78788
1429.34	1.71611
1430.92	1.46625
1432.49	1.31365
1434.06	1.63225
1435.63	1.59618
1437.2	2.30744
1438.78	2.31151
1440.35	1.66811
1441.92	2.1264
1443.49	2.07447
1445.06	2.90741
1446.63	2.22717
1448.2	2.05807
1449.77	2.12515
1451.34	2.40904
1452.91	1.72997
1454.48	2.58534
1456.05	2.71308
1457.62	2.07267
1459.18	2.55253
1460.75	2.12523
1462.32	1.85344
1463.89	1.48177
1465.45	1.81687
1467.02	1.97441
1468.59	1.54315
1470.15	1.54497
1471.72	1.31254
1473.28	0.924422
1474.85	1.55694
1476.41	0.738801
1477.98	0.783568
1479.54	0.985085
1481.11	0.794451
1482.67	0.251043
1484.23	0.706943
1485.8	0.750957
1487.36	0.559188
1488.92	0.601209
1490.48	0.934908
1492.05	1.26598
1493.61	1.92624
1495.17	2.44654
1496.73	1.81472
1498.29	1.39828
1499.85	0.730794
1501.41	0.143603
1502.97	0.509047
1504.53	0.196513
1506.09	0.504256
1507.65	0.752826
1509.2	0.787367
1510.76	0.492659
1512.32	-0.399607
1513.88	0.115057
1515.44	0.782306
1516.99	0.757342
1518.55	0.272978
1520.1	0.384093
1521.66	0.380359
1523.22	0.739496
1524.77	0.447936
1526.33	0.575603
1527.88	0.283116
1529.44	0.504294
1530.99	0.364047
1532.55	1.36234
1534.1	1.24164
1535.65	0.933146
1537.21	1.32539
1538.76	1.13242
1540.31	0.940231
1541.86	1.29483
1543.42	1.44161
1544.97	1.13666
1546.52	0.963576
1548.07	1.40985
1549.62	1.12416
1551.17	1.41969
1552.72	1.49068
1554.27	1.73073
1555.82	1.48626
1557.37	1.11327
1558.92	1.60089
1560.47	1.23209
1562.02	1.81638
1563.57	1.74893
1565.11	2.01793
1566.66	2.43641
1568.21	2.2575
1569.75	2.26477
1571.3	2.53295
1572.85	2.03546
1574.39	2.43382
1575.94	2.29083
1577.49	2.22273
1579.03	1.65098
1580.58	2.14405
1582.12	1.76034
1583.67	1.80697
1585.21	1.83572
1586.75	1.47238
1588.3	1.78222
1589.84	1.97983
1591.38	1.65299
1592.93	2.11188
1594.47	2.25231
1596.01	2.44904
1597.55	1.70922
1599.09	1.81326
1600.63	1.71176
1602.18	1.98599
1603.72	1.79103
1605.26	1.67034
1606.8	2.24351
1608.34	1.57435
1609.87	2.10565
1611.41	2.42761
1612.95	1.52648
1614.49	1.71355
1616.03	1.74987
1617.57	1.7491
1619.11	1.71204
1620.64	1.3956
1622.18	2.09179
1623.72	1.4594
1625.25	2.17496
1626.79	2.10346
1628.32	2.29254
1629.86	2.01248
1631.4	1.80633
1632.93	1.97355
1634.47	2.15952
1636	2.51405
1637.53	2.66409
1639.07	1.9012
1640.6	1.64207
1642.14	2.09045
1643.67	2.36968
1645.2	2.51703
1646.73	2.08673
1648.27	2.36278
1649.8	2.41601
1651.33	2.2475
1652.86	2.48854
1654.39	2.34122
1655.92	1.58304
1657.45	2.71522
1658.98	1.84543
1660.51	2.77076
1662.04	2.45391
1663.57	2.69083
1665.1	2.22484
1666.63	2.27671
1668.16	2.31118
1669.69	1.59143
1671.21	1.2792
1672.74	2.055
1674.27	1.63389
1675.79	1.83872
1677.32	2.0058
1678.85	1.47257
1680.37	1.39846
1681.9	1.37879
1683.42	1.32207
1684.95	1.22877
1686.47	1.09924
1688	1.83172
1689.52	1.02501
1691.05	1.42779
1692.57	0.787122
1694.1	0.915251
1695.62	0.458057
1697.14	0.731982
1698.66	0.694821
1700.19	0.474789
1701.71	0.1816
1703.23	0.781291
1704.75	0.942491
1706.27	0.466145
1707.79	0.6266
1709.32	0.514227
1710.83	0.438408
1712.35	0.417263
1713.88	0.46876
1715.39	0.302991
1716.91	-0.11581
1718.43	0.098505
1719.95	0.258211
1721.47	0.165186
1722.99	0.0187101
1724.5	0.702089
1726.02	0.233408
1727.54	-0.0176449
1729.06	0.290182
1730.57	0.185695
1732.09	-0.182125
1733.61	0.121993
1735.12	0.0329609
1736.64	0.255261
1738.15	0.543363
1739.67	0.841299
1741.18	0.0456562
1742.7	0.7206
1744.21	-0.308264
1745.72	0.101617
1747.24	-0.258473
1748.75	0.417047
1750.26	0.156838
1751.78	0.00939941
1753.29	0.140286
1754.8	-0.221775
1756.31	-0.177604
1757.82	0.265621
1759.34	0.00469589
1760.85	0.148278
1762.36	0.588136
1763.87	0.320998
1765.38	-0.114375
1766.89	0.0466595
1768.4	0.0130234
1769.91	0.158725
1771.41	-0.00987244
1772.92	-0.0882549
1774.43	0.228351
1775.94	0.0782661
1777.45	-0.0302992
1778.96	-0.0226765
1780.46	0.226689
1781.97	-0.133729
1783.48	-0.221587
1784.98	0.229492
1786.49	0.213832
1788	0.362469
1789.5	0.10263
1791.01	0.167023
1792.51	-0.148399
1794.01	0.0241728
1795.52	-0.132409
1797.02	-0.0143032
1798.53	0.0387754
1800.03	0.0818872
1801.54	-0.119173
1803.04	-0.0963163
1804.54	0.31051
1806.04	0.0508118
1807.54	-0.0759411
1809.05	-0.0876017
1810.55	0.185352
1812.05	0.174912
1813.55	-0.0631275
1815.05	-0.0238237
1816.55	-0.246202
1818.05	0.173655
1819.55	-0.199272
1821.05	0.0215111
1822.55	-0.0929985
1824.05	0.172489
1825.55	-0.221924
1827.05	0.0957117
1828.55	-0.0255985
1830.04	0.422302
1831.54	-0.319096
1833.04	-0.0296202
1834.54	-0.0635195
1836.03	0.169316
1837.53	-0.0124817
1839.03	-0.161648
1840.52	0.231242
1842.02	0.330663
1843.51	-0.0563335
1845.01	-0.341382
1846.5	0.255326
1848	-0.0296679
1849.49	-0.0285006
1850.99	-0.0480156
1852.48	0.179029
1853.97	0.121442
1855.47	0.249249
1856.96	0.285777
1858.45	-0.0167627
1859.94	-0.248075
1861.44	0.101781
1862.93	-0.0521441
1864.42	0.0732985
1865.91	0.183087
1867.4	0.138592
1868.89	0.237823
1870.38	-0.331717
1871.87	-0.337835
1873.36	-0.07794
1874.85	0.0464163
1876.34	0.048358
1877.83	0.0342379
1879.32	0.0316935
1880.81	0.109254
1882.3	0.195787
1882.56	0.210734
1884.06	0.140736
1885.55	-0.0170622
1887.04	0.172845
1888.54	0.0835838
1890.03	-0.231577
1891.52	0.0978689
1893.02	0.132959
1894.51	0.465223
1896	0.207744
1897.49	0.19439
1898.99	0.424438
1900.48	0.0273018
1901.97	-0.162547
1903.46	0.133073
1904.95	0.131678
1906.44	-0.13103
1907.93	-0.0809174
1909.42	0.38625
1910.91	0.0904512
1912.4	0.194595
1913.89	0.333874
1915.38	0.299763
1916.86	-0.029377
1918.35	0.213117
1919.84	-0.0474081
1921.33	0.055892
1922.82	-0.0656128
1924.3	0.333082
1925.79	0.109501
1927.28	0.371606
1928.76	0.28804
1930.25	0.0312309
1931.74	0.3278
1933.22	0.0689182
1934.71	0.154761
1936.19	-0.279989
1937.67	-0.110114
1939.16	0.0937004
1940.64	-0.065093
1942.13	0.0186472
1943.61	-0.0865231
1945.09	0.0160532
1946.58	-0.0535145
1948.06	-0.174958
1949.54	0.219816
1951.03	0.0967979
1952.51	0.248405
1953.99	0.106976
1955.47	-0.171797
1956.95	0.237021
1958.43	0.337038
1959.91	0.266072
1961.39	-0.130137
1962.87	-0.0630798
1964.35	-0.0647869
1965.83	0.0358019
1967.31	0.289702
1968.79	0.132201
1970.27	0.0256557
1971.75	0.0556583
1973.22	0.0855618
1974.7	0.183724
1976.18	-0.0589695
1977.66	0.0735216
1979.13	0.00166035
1980.61	-0.291263
1982.09	-0.142004
1983.56	0.159657
1985.04	0.222936
1986.52	-0.375539
1987.99	0.263994
1989.47	-0.0962601
1990.94	0.170712
1992.41	0.201413
1993.89	0.300599
1995.36	0.24835
1996.84	0.264092
1998.31	0.49932
1999.78	0.210629
2001.26	-0.0783839
2002.73	-0.0471058
2004.2	-0.251987
2005.67	-0.203629
2007.15	0.21587
2008.62	-0.0544434
2010.09	0.366366
2011.56	-0.0204821
2013.03	0.0472383
2014.5	0.451115
2015.97	0.416672
2017.44	0.499128
2018.91	0.597556
2020.38	0.140916
2021.85	-0.063488
2023.32	0.252937
2024.79	-0.118112
2026.25	0.367571
2027.72	0.535716
2029.19	0.0175457
2030.66	0.38955
2032.13	0.527675
2033.59	-0.0723271
2035.06	0.401999
2036.53	0.288324
2037.99	0.442944
2039.46	0.429204
2040.92	0.583507
2042.39	0.469206
2043.85	0.187335
2045.32	0.562315
2046.78	0.500614
2048.25	0.506496
2049.71	0.0738626
2051.18	0.466097
2052.64	0.469251
2054.1	0.571915
2055.56	0.790975
2057.03	0.587196
2058.49	0.534477
2059.95	0.178483
2061.42	0.782859
2062.88	0.444998
2064.34	0.0240569
2065.8	0.462347
2067.26	0.430168
2068.72	0.718302
2070.18	0.653294
2071.64	0.992369
2073.1	0.67472
2074.56	0.541977
2076.02	0.728866
2077.48	0.831212
2078.94	0.529016
2080.39	0.428485
2081.85	0.782039
2083.31	0.697184
2084.77	0.611671
2086.22	0.912417
2087.68	1.12825
2089.14	0.805692
2090.6	0.970374
2092.05	0.513642
2093.51	1.0305
2094.96	1.04343
2096.42	0.93854
2097.87	0.983878
2099.33	0.810985
2100.78	1.42401
2102.24	1.36794
2103.69	1.1458
2105.15	1.12546
2106.6	1.3901
2108.05	1.37207
2109.51	1.18763
2110.96	1.36946
2112.41	1.43319
2113.86	1.41188
2115.32	1.85488
2116.77	1.08266
2118.22	1.59106
2119.67	2.23282
2121.12	1.9137
2122.57	1.43102
2124.02	1.84544
2125.47	1.89564
2126.92	1.82947
2128.37	2.06064
2129.82	2.20736
2131.27	2.40224
2132.72	1.86775
2134.17	2.22715
2135.62	2.07447
2137.06	2.23752
2138.51	2.36942
2139.96	2.63558
2141.41	2.83749
2142.85	2.72665
2144.3	2.81496
2145.75	2.65522
2147.19	2.79304
2148.64	2.73148
2150.09	2.78489
2151.53	2.73778
2152.97	2.75584
2154.42	3.05465
2155.86	2.93873
2157.31	2.80636
2158.75	2.80734
2160.2	2.97545
2161.64	3.06275
2163.08	3.15221
2164.53	3.06101
2165.97	3.28607
2167.41	3.07934
2168.86	3.60262
2170.3	3.04323
2171.74	3.2297
2173.18	3.11453
2174.62	3.21407
2176.06	3.21314
2177.5	3.09606
2178.94	3.01313
2180.38	2.78168
2181.82	2.73407
2183.26	2.91989
2184.7	2.83995
2186.14	2.80998
2187.58	3.02959
2189.02	2.55036
2190.46	2.85326
2191.89	2.55662
2193.33	2.19248
2194.77	2.47625
2196.21	2.10882
2197.64	2.4217
2199.08	2.36661
2200.52	2.47665
2201.95	2.20453
2203.39	2.24872
2204.83	2.02873
2206.26	2.43981
2207.7	1.90681
2209.13	2.26824
2210.57	1.81751
2212	2.17673
2213.43	2.25371
2214.87	1.95055
2216.3	1.59893
2217.73	1.79329
2219.17	1.8403
2220.6	1.62439
2222.03	1.62297
2223.47	1.55492
2224.9	1.68312
2226.33	1.05251
2227.76	1.34196
2229.19	1.44894
2230.62	1.17761
2232.05	1.10332
2233.49	1.27499
2234.91	0.98921
2236.34	1.58727
2237.77	1.02691
2239.2	0.876972
2240.63	1.1042
2242.06	0.827456
2243.49	0.747608
2244.92	0.700685
2246.35	1.14247
2247.78	1.07708
2249.2	0.797717
2250.63	0.646912
2252.06	0.999304
2253.48	0.520954
2254.91	1.05106
2256.34	0.851149
2257.76	0.588818
2259.19	0.73485
2260.61	0.607756
2262.04	0.888614
2263.46	0.537816
2264.89	0.658149
2266.31	0.664448
2267.74	0.751357
2269.16	0.967672
2270.59	0.695004
2272.01	0.812516
2273.43	0.669342
2274.85	0.558764
2276.28	0.855675
2277.7	0.957324
2279.12	0.472191
2280.54	0.606409
2281.97	0.561156
2283.39	0.793161
2284.81	0.307287
2286.23	0.229444
2287.65	0.315161
2289.07	0.597331
2290.49	0.275492
2291.91	0.460408
2293.33	0.285785
2294.75	0.258244
2296.17	0.590716
2297.59	0.399402
2299.01	-0.103299
2300.42	0.508245
2301.84	0.153139
2303.26	0.306524
2304.68	0.279644
2306.1	0.186978
2307.51	0.110335
2308.93	0.526297
2310.35	0.563831
2311.76	0.485881
2313.18	0.226864
2314.59	0.3137
2316.01	-0.0268798
2317.43	0.110672
2318.84	0.149848
2320.26	0.0568967
2321.67	0.144399
2323.08	0.47786
2324.5	0.644218
2325.91	0.379485
2327.33	0.690608
2328.74	0.605186
2330.15	0.338869
2331.56	0.0900903
2332.98	0.0399733
2334.39	0.319697
2335.8	0.138892
2337.21	0.00710487
2338.62	0.449953
2340.04	-0.110958
2341.45	0.329665
2342.86	0.3262
2344.27	0.289914
2345.68	0.204759
2347.09	0.234617
2348.5	0.362674
2349.91	0.326632
2351.31	0.224557
2352.72	0.252419
2354.13	0.132545
2355.54	0.0938067
2356.95	0.331652
2358.36	0.341269
2359.76	0.0260329
2361.17	0.409429
2362.58	-0.0672679
2363.98	0.0237937
2365.39	0.211672
2366.8	0.463967
2368.21	0.183529
2369.61	-0.0954642
2371.02	-0.0505047
2372.42	0.0438709
2373.83	0.0746088
2375.23	-0.0553179
2376.64	0.200666
2378.04	-0.203838
2379.44	0.00144958
2380.85	-0.0358338
2382.25	0.198332
2383.66	-0.0332685
2385.06	0.26334
2386.46	0.264051
2387.86	0.265566
2389.26	-0.0586901
2390.67	-0.0945487
2392.07	0.0139298
2393.47	0.202704
2394.87	-0.0373859
2396.27	0.247964
2397.67	0.19993
2399.07	-0.244791
2400.47	0.153054
2401.87	-0.179605
2403.27	0.123115
2404.67	-0.13033
2406.07	-0.193914
2407.47	0.0908427
2408.87	0.16849
2410.27	0.245777
2411.67	0.00633335
2413.07	-0.010468
2414.46	0.0530086
2415.86	0.181066
2417.26	0.136143
2418.66	0.0920019
2420.05	0.25404
2421.45	0.25763
2422.84	0.260901
2424.24	0.0737982
2425.64	0.013483
2427.03	0.270587
2428.43	0.211519
2429.82	0.0422297
2431.22	0.333554
2432.61	0.196645
2434.01	-0.0996771
2435.4	0.206521
2436.79	0.209643
2438.19	-0.122225
2439.58	0.307361
2440.97	0.259523
2442.37	0.227115
2443.76	0.575308
2445.15	0.0031085
2446.54	0.334952
2447.93	0.0166521
2449.33	0.0312657
2450.72	-0.00143051
2452.11	0.267086
2453.5	-0.223378
2454.89	0.125573
2456.28	-0.0944405
2457.67	0.16038
2459.06	-0.0594773
2460.45	0.242088
2461.84	-0.200275
2463.23	0.115602
2464.62	0.0515656
2466	0.129455
2467.39	0.491328
2468.78	0.0481491
2470.17	-0.126699
2471.55	0.297203
2472.94	0.168661
2474.33	-0.102065
2475.72	-0.357216
2477.1	0.173581
2478.49	0.609249
2479.87	0.259794
2481.26	0.0521526
2482.65	0.111113
2484.03	0.310446
2485.42	0.0863667
2486.8	-0.0132761
2488.19	-0.0512233
2489.57	0.2843
2490.95	-0.0659528
2492.34	0.253531
2493.72	0.231641
2495.1	-0.471539
2496.49	-0.0410028
2497.87	0.110816
2499.25	-0.0314345
2500.63	0.352093
2502.02	0.332503
2503.4	0.219424
2504.78	-0.0793242
2506.16	0.068851
2507.54	0.15493
2508.92	0.0718288
2510.3	0.112138
2511.68	-0.0311718
2513.06	-0.0355806
2514.44	0.113913
2515.82	-0.195218
2517.2	-0.197373
2518.58	0.290158
2519.96	0.166102
2521.34	0.179389
2522.72	-0.6016
2524.1	0.341266
2525.47	0.230509
2526.85	0.180612
2528.23	0.0703025
2529.6	-0.190936
2530.98	0.00540018
2532.36	0.051105
2533.74	-0.114732
2535.11	-0.0976415
2536.49	-0.597134
2537.86	-0.14009
2539.24	0.0881867
2540.61	-0.0032115
2541.99	-0.0341463
2543.36	0.344842
2544.74	0.056963
2546.11	0.422462
2547.49	0.045795
2548.86	0.382827
2550.23	-0.0538683
2551.61	0.389102
2552.98	0.269776
2554.35	0.134367
2555.72	0.10442
2557.09	0.0285068
2558.47	-0.138448
2559.84	-0.335402
2561.21	0.119893
2562.58	0.181586
2563.95	-0.0896049
2565.32	0.351816
2566.69	-0.0854907
2568.06	0.371405
2569.43	0.0705485
2570.8	0.239524
2572.17	0.196348
2573.54	-0.225729
2574.91	-0.102037
2576.28	-0.0389447
2577.65	0.372821
2579.02	-0.0798593
2580.39	0.210129
2581.75	0.378444
2583.12	-0.0145679
2584.49	-0.10451
2585.85	0.30574
2587.22	0.32194
2588.59	0.247371
2589.95	0.0213623
2591.32	0.204412
2592.68	0.0536714
2594.05	0.1598
2595.42	0.310398
2596.78	-0.221169
2598.15	-0.056982
2599.51	0.378837
2600.88	0.0436401
2602.24	0.237818
2603.6	0.266356
2604.97	-0.172418
2606.33	0.0228224
2607.69	-0.0839424
2609.06	0.185437
2610.42	-0.224325
2611.78	0.147976
2613.14	-0.0527363
2614.51	-0.133556
2615.87	-0.0493646
2617.23	0.109807
2618.59	-0.180084
2619.95	-0.124649
2621.31	0.335021
2622.67	0.122113
2624.03	0.417372
2625.39	-0.0637646
2626.75	-0.112025
2628.11	-0.0561981
2629.47	0.0439548
2630.83	0.203279
2632.19	0.00547314
2633.55	0.476356
2634.91	0.0559487
2636.26	0.19972
2637.62	0.106162
2638.98	0.116438
2640.34	0.14163
2641.69	0.300055
2643.05	0.0596318
2644.41	0.0558815
2645.76	-0.0069437
2647.12	-0.482785
2648.48	0.0873141
2649.83	0.331966
2651.19	0.178613
2652.54	0.157473
2653.9	0.121906
2655.25	-0.000877857
2656.6	-0.0199924
2657.96	0.00581312
2659.31	0.20789
2660.67	-0.130883
2662.02	-0.294088
2663.37	-0.00484228
2664.73	0.0789995
2666.08	0.20582
2667.43	0.0259881
2668.78	0.25408
2670.14	-0.201781
2671.49	0.17222
2672.84	0.342843
2674.19	-0.0815711
2675.54	-0.229276
2676.89	0.0153513
2678.24	0.260354
2679.59	-0.0595345
2680.94	0.0710187
2682.29	0.101105
2683.64	-0.114292
2684.99	0.0626512
2686.34	-0.0791306
2687.69	-0.0615101
2689.04	0.259975
2690.39	-0.073257
2691.74	0.0274634
2693.08	-0.0327706
2694.43	0.109236
2695.78	0.0625448
2697.13	0.0743775
2698.47	0.36246
2699.82	-0.0141306
2701.17	0.421695
2702.51	0.178236
2703.86	0.355753
2705.21	-0.234498
2706.55	0.26257
2707.9	0.411592
2709.24	0.00873089
2710.58	0.462035
2711.93	0.0873775
2713.27	0.090169
2714.62	0.121972
2715.96	0.139192
2717.3	0.447176
2718.65	0.0422416
2719.99	0.0442233
2721.33	0.249559
2722.68	0.0178695
2724.02	0.484402
2725.36	0.179111
2726.71	0.237373
2728.05	-0.141271
2729.39	0.236663
2730.73	0.221521
2732.07	0.308189
2733.41	0.263989
2734.75	0.496312
2736.09	0.306984
2737.43	0.452298
2738.77	0.36488
2740.11	0.291783
2741.45	0.0147123
2742.79	-0.0883789
2744.13	0.156773
2745.47	0.401214
2746.81	0.165875
2748.14	0.19184
2749.48	0.000180721
2750.82	0.142418
2752.16	0.371742
2753.49	0.296763
2754.83	0.033639
2756.17	-0.287149
2757.5	0.463866
2758.84	-0.0157375
2760.18	-0.118503
2761.51	0.112005
2762.85	0.458625
2764.18	0.0675545
2765.52	0.501194
2766.85	0.124189
2768.19	0.0502257
2769.52	0.00410175
2770.86	0.289135
2772.19	-0.149446
2773.52	0.00335503
2774.86	-0.19056
2776.19	0.00472593
2777.52	0.128016
2778.86	-0.0216303
2780.19	0.0880384
2781.52	-0.13246
2782.85	0.120975
2784.19	0.0154819
2785.52	-0.089891
2786.85	0.163099
2788.18	0.0154185
2789.51	-0.074203
2790.84	0.180261
2792.17	0.0205903
2793.5	0.247351
2794.83	-0.0404725
2796.16	0.128766
2797.49	-0.0311031
2798.82	-0.0771217
2800.15	-0.366087
2801.48	0.200877
2802.81	0.0399652
2804.13	-0.163774
2805.46	-0.267973
2806.79	0.139818
2808.12	0.219373
2809.45	-0.0284305
2810.77	0.263799
2812.1	0.0168962
2813.43	0.0833082
2814.75	-0.24605
2816.08	0.120532
2817.41	0.247029
2818.73	0.147246
2820.06	0.146673
2821.38	0.244907
2822.71	0.370864
2824.03	0.368699
2825.36	-0.271171
2826.68	-0.0468769
2828	0.333501
2829.33	0.601016
2830.65	0.203582
2831.98	0.315959
2833.3	0.838757
2834.62	0.299649
2835.94	0.750848
2837.27	0.423193
2838.59	0.760135
2839.91	1.18156
2841.23	1.58873
2842.55	1.33178
2843.87	1.55607
2845.2	2.13432
2846.52	2.5012
2847.84	2.71302
2849.16	2.31711
2850.48	2.51449
2851.8	2.47107
2853.12	2.48366
2854.44	2.6654
2855.76	2.36653
2857.08	2.32201
2858.39	2.44705
2859.71	2.57202
2861.03	2.69677
2862.35	2.99054
2863.67	3.10032
2864.98	3.2662
2866.3	3.09342
2867.62	3.32998
2868.94	3.72198
2870.25	3.90283
2871.57	3.675
2872.88	3.57379
2874.2	4.27495
2875.52	4.38294
2876.83	4.47556
2878.15	4.4546
2879.46	4.12398
2880.78	4.32817
2882.09	4.50496
2883.41	4.35975
2884.72	4.4965
2886.03	4.56363
2887.35	4.49046
2888.66	4.08005
2889.97	4.23013
2891.29	4.14082
2892.6	4.26117
2893.91	4.36723
2895.22	4.4876
2896.54	4.42679
2897.85	5.0948
2899.16	4.49049
2900.47	4.75454
2901.78	4.85117
2903.09	5.28372
2904.4	4.96107
2905.71	5.17025
2907.02	5.44999
2908.33	5.80061
2909.64	5.50868
2910.95	5.59511
2912.26	5.76552
2913.57	6.06114
2914.88	6.71922
2916.19	6.35332
2917.5	6.60155
2918.81	7.0024
2920.11	7.02519
2921.42	7.09071
2922.73	7.4652
2924.04	7.53373
2925.34	7.92511
2926.65	7.5484
2927.96	8.33201
2929.26	7.28379
2930.57	7.71679
2931.87	7.86961
2933.18	7.54684
2934.49	7.67136
2935.79	7.94973
2937.1	7.78106
2938.4	7.64057
2939.7	7.20698
2941.01	7.59842
2942.31	7.02668
2943.62	6.76367
2944.92	6.47412
2946.22	6.49338
2947.53	6.56928
2948.83	6.02908
2950.13	5.86527
2951.43	5.55942
2952.74	6.16166
2954.04	5.97821
2955.34	5.57044
2956.64	5.48568
2957.94	5.22119
2959.24	5.28154
2960.54	5.3169
2961.84	4.9059
2963.15	4.78971
2964.45	4.63061
2965.75	4.51197
2967.05	4.3634
2968.34	4.52265
2969.64	4.3437
2970.94	3.95358
2972.24	4.07005
2973.54	3.52551
2974.84	3.54372
2976.14	3.19523
2977.43	3.32413
2978.73	3.08528
2980.03	2.38029
2981.33	2.99721
2982.62	3.13489
2983.92	2.82291
2985.22	2.58251
2986.51	2.54043
2987.81	2.28899
2989.11	2.23522
2990.4	1.87251
2991.7	1.72012
2992.99	2.0446
2994.29	1.62309
2995.58	1.77665
2996.88	1.29762
2998.17	1.25386
2999.46	1.7995
3000.76	1.27958
3002.05	1.4474
3003.34	0.60662
3004.64	1.02718
3005.93	0.649018
3007.22	0.830523
3008.52	0.871198
3009.81	0.966948
3011.1	0.461085
3012.39	0.751397
3013.68	0.706466
3014.97	0.425019
3016.27	0.604303
3017.56	0.603065
3018.85	0.28227
3020.14	0.462543
3021.43	0.33645
3022.72	0.543097
3024.01	0.359986
3025.3	0.0379076
3026.59	0.311825
3027.88	0.0183582
3029.16	0.625045
3030.45	0.182205
3031.74	0.155479
3033.03	0.378204
3034.32	-0.0475545
3035.6	0.368032
3036.89	0.244349
3038.18	0.367215
3039.47	0.419349
3040.75	0.414972
3042.04	0.368611
3043.33	0.404598
3044.61	0.386549
3045.9	0.424777
3047.18	0.273711
3048.47	0.548234
3049.75	0.169405
3051.04	0.460834
3052.32	0.248106
3053.61	0.540269
3054.89	0.586218
3056.18	0.494821
3057.46	0.266191
3058.74	0.323217
3060.03	0.366355
3061.31	0.573102
3062.59	0.549347
3063.88	0.187016
3065.16	0.247682
3066.44	0.567932
3067.72	0.182138
3069	0.381372
3070.29	0.17243
3071.57	0.153131
3072.85	0.0104103
3074.13	0.655148
3075.41	0.102842
3076.69	-0.109648
3077.97	0.329981
3079.25	-0.016686
3080.53	0.0451455
3081.81	-0.190059
3083.09	-0.152859
3084.37	0.183499
3085.65	0.0450792
3086.93	0.204855
3088.21	0.201173
3089.49	-0.00666142
3090.76	0.0158882
3092.04	-0.21941
3093.32	-0.00683022
3094.6	-0.0110006
3095.87	0.0800233
3097.15	-0.154208
3098.43	0.0860114
3099.7	-0.202393
3100.98	0.0105343
3102.26	-0.0744748
3103.53	-0.0508318
3104.81	0.0951166
3106.08	0.160517
3107.36	0.0779181
3108.63	0.0910196
3109.91	-0.0437808
3111.18	0.174302
3112.46	-0.378825
3113.73	0.00303364
3115	0.127651
3116.28	0.252004
3117.55	-0.193949
3118.83	0.0102057
3120.1	0.28124
3121.37	0.320914
3122.64	-0.0735698
3123.92	0.209463
3125.19	0.248767
3126.46	0.139631
3127.73	0.0852561
3129	0.234311
3130.27	0.356591
3131.55	0.506008
3132.82	0.574183
3134.09	0.331377
3135.36	0.317874
3136.63	0.452367
3137.9	0.249253
3139.17	0.652366
3140.44	0.610567
3141.71	0.690011
3142.98	0.339714
3144.24	0.688587
3145.51	0.326592
3146.78	0.569036
3148.05	0.53049
3149.32	0.867499
