200.523	0.264812
202.339	0.279294
204.154	0.294915
205.967	0.238439
207.781	0.546972
209.596	0.538978
211.409	0.335797
213.222	-0.256527
215.034	0.460875
216.848	0.110442
218.659	-0.142484
220.47	0.428397
222.281	0.539862
224.091	-0.0490589
225.903	-0.177743
227.713	-0.0888243
229.522	-0.096817
231.331	-0.153464
233.14	0.465208
234.948	-0.0254745
236.756	-0.0807838
238.566	-0.23068
240.373	-0.209795
242.18	0.31933
243.986	0.222816
245.792	0.633018
247.598	0.26962
249.403	-0.0237417
251.208	-0.198898
253.013	0.372037
254.818	0.820444
256.624	0.183199
258.427	0.72815
260.231	0.310575
262.034	0.232095
263.836	0.130969
265.638	0.151215
267.44	0.726097
269.242	0.288543
271.043	0.284145
272.844	0.664575
274.645	0.513391
276.445	0.336762
278.245	0.0141058
280.044	0.725732
281.843	-0.177814
283.642	0.938545
285.44	-0.0625038
287.238	0.0178375
289.036	-0.117717
290.833	0.39439
292.63	0.308426
294.425	0.176097
296.221	0.332094
298.017	-0.0846748
299.813	0.216023
301.608	0.540281
303.403	0.457722
305.198	0.0401049
306.992	0.0991955
308.786	0.324936
310.579	0.670081
312.371	-0.103363
314.163	0.0536709
315.956	0.712271
317.748	-0.056344
319.54	0.081214
321.331	0.12452
323.122	0.168532
324.911	0.379988
326.701	0.567962
328.491	0.278127
330.281	0.274272
332.071	0.508603
333.857	0.143482
335.646	0.111466
337.434	-0.0659981
339.222	0.13768
341.008	0.292128
342.795	0.182869
344.582	-0.0935583
346.369	0.0844593
348.153	0.0957909
349.939	0.203046
351.724	3.8147e-006
353.51	0.464721
355.292	0.236507
357.077	0.460407
358.861	0.0157337
360.643	0.26126
362.426	-0.0178146
364.21	0.55889
365.99	-0.172562
367.773	-0.191298
369.555	-0.210683
371.335	0.385096
373.116	0.955325
374.897	-0.0593281
376.676	-0.151041
378.456	-0.0299025
380.236	-0.0731564
382.014	0.143516
383.793	-0.368199
385.57	0.0620117
387.349	-0.0711269
389.127	0.125597
390.903	0.0881596
392.681	-0.0660086
394.456	0.179543
396.233	0.542845
398.007	0.248636
399.784	0.541451
401.56	0.105782
403.333	0.515133
405.108	-0.673206
406.881	-0.194603
408.656	-0.092267
410.428	-0.0841331
412.202	0.111782
413.973	0.63648
415.746	0.176241
417.517	0.796026
419.29	0.313525
421.06	0.441325
422.831	-0.229168
424.601	0.203003
426.37	0.540551
428.141	-0.132042
429.909	0.274826
431.679	-0.444969
433.447	0.00902462
435.216	-0.0530548
436.983	-0.044764
438.75	0.244579
440.519	0.39187
442.285	0.44356
444.052	0.774685
445.818	0.237049
447.583	-0.417714
449.349	0.49499
451.114	0.58848
452.878	-0.181597
454.643	-0.180547
456.407	-0.0863028
458.169	-0.108764
459.934	-0.0380578
461.696	0.172616
463.458	0.546997
465.222	-0.00628662
466.983	0.116645
468.744	-0.525297
470.507	-0.0966449
472.267	0.449266
474.027	0.133687
475.787	0.0493045
477.548	-0.0834289
479.307	0.318142
481.065	-0.212811
482.823	0.351083
484.583	0.0308695
486.341	0.690549
488.098	0.303634
489.855	-0.0354462
491.612	0.139333
493.37	0.712146
495.126	0.654696
496.881	0.152262
498.636	0.187558
500.391	0.433598
502.148	0.444803
503.902	0.807594
505.656	0.558779
507.409	-0.0677485
509.162	0.7625
510.915	0.650658
512.668	0.231533
514.42	0.328846
516.174	0.730829
517.925	0.23793
519.676	0.59083
521.427	0.637333
523.178	0.260686
524.928	0.940433
526.678	0.141568
528.427	0.726859
530.176	0.210048
531.925	0.489758
533.673	0.791861
535.422	0.414257
537.169	0.713794
538.917	0.638051
540.664	0.468202
542.411	0.251498
544.157	0.360686
545.903	0.330171
547.649	0.624765
549.395	-0.0315347
551.14	0.216846
552.884	0.326034
554.629	0.412029
556.373	0.728878
558.117	0.42282
559.86	0.716731
561.603	0.320035
563.346	0.338451
565.089	0.334323
566.831	0.146951
568.573	0.19
570.314	0.532161
572.053	0.462276
573.794	0.302006
575.534	0.372561
577.274	0.169116
579.014	0.655253
580.754	0.774962
582.493	0.940813
584.23	0.508577
585.968	0.167126
587.706	-0.0835261
589.444	0.470038
591.181	0.263658
592.919	0.424965
594.653	0.448089
596.39	0.0571065
598.126	0.241254
599.862	0.448092
601.595	0.83822
603.33	0.629169
605.065	0.166141
606.8	0.0930977
608.532	-0.049387
610.266	0.0835781
611.999	-0.0126185
613.732	0.121146
615.463	-0.684346
617.196	0.229116
618.928	0.0421977
620.66	0.449717
622.389	0.558382
624.12	0.346156
625.851	0.431189
627.58	0.471327
629.31	0.490196
631.04	0.579421
632.767	0.419286
634.497	0.739229
636.223	0.94483
637.952	0.167384
639.68	0.483422
641.406	0.203782
643.134	0.241655
644.861	0.324015
646.586	0.770443
648.312	0.490359
650.037	0.349463
651.762	-0.310956
653.486	0.645114
655.211	0.695057
656.936	0.95188
658.659	0.754086
660.383	0.623945
662.105	0.33235
663.829	0.906898
665.55	0.176806
667.273	0.47382
668.994	0.49589
670.716	0.472827
672.436	1.18365
674.158	0.981276
675.877	0.84913
677.598	1.38316
679.317	0.678045
681.035	0.0167012
682.755	1.05541
684.473	0.758492
686.192	1.24259
687.909	0.435764
689.628	0.825623
691.344	0.615995
693.06	0.9817
694.778	1.00121
696.493	0.329059
698.211	1.19863
699.925	0.938972
701.64	0.6096
703.356	0.64755
705.07	0.960469
706.783	1.22658
708.498	1.14793
710.211	0.702482
711.924	0.646638
713.638	1.50549
715.35	1.10581
717.061	0.820947
718.774	1.38062
720.485	1.14179
722.196	1.31337
723.906	1.0979
725.618	1.10999
727.328	1.28079
729.037	0.792863
730.746	1.0989
732.456	1.13223
734.165	1.39157
735.873	1.37921
737.58	1.25428
739.289	1.26548
740.997	1.14225
742.703	1.69596
744.41	0.96692
746.116	1.72495
747.823	1.62878
749.529	1.44383
751.234	1.34998
752.938	1.36968
754.643	1.23306
756.347	2.11033
758.051	2.02151
759.756	1.34808
761.459	1.64418
763.162	1.67038
764.865	0.860857
766.567	1.96989
768.269	1.67695
769.97	0.952289
771.671	1.74087
773.372	1.28456
775.073	1.21232
776.773	1.57011
778.473	2.04207
780.174	1.65605
781.874	1.20286
783.573	1.81315
785.271	1.81158
786.97	1.78533
788.668	1.779
790.365	2.19961
792.063	1.78103
793.76	2.06176
795.456	1.9808
797.153	1.74303
798.847	1.70973
800.543	2.35321
802.238	2.02989
803.933	2.0897
805.628	1.54236
807.322	1.69134
809.017	1.5023
810.71	2.25502
812.404	2.10887
814.097	2.34333
815.79	1.86081
817.483	1.93823
819.173	1.88149
820.865	2.04826
822.556	2.50513
824.248	2.29317
825.939	2.17188
827.629	1.67395
829.318	1.98032
831.008	1.71021
832.697	2.13302
834.387	1.33198
836.076	1.86913
837.765	1.67021
839.451	2.74285
841.139	2.11727
842.827	1.55719
844.514	2.04675
846.2	1.86657
847.886	2.0232
849.573	1.48852
851.259	2.07476
852.943	1.61021
854.629	2.37962
856.314	1.7353
857.997	2.01058
859.682	2.03733
861.366	1.18434
863.05	1.45547
864.732	1.11726
866.415	2.22089
868.098	1.40783
869.779	1.24808
871.461	1.44892
873.141	1.49173
874.823	0.744728
876.505	1.30641
878.184	0.988012
879.865	1.2789
881.545	0.689109
883.223	1.092
884.903	0.613587
886.581	0.946717
888.26	1.52656
889.937	1.20257
891.616	1.44109
893.294	1.16022
894.97	1.37383
896.648	1.56365
898.323	1.2133
900	1.35637
901.675	1.13999
903.351	1.84104
905.026	0.931183
906.701	0.760307
908.375	1.30373
910.05	0.933609
911.723	1.09889
913.398	1.19771
915.07	0.830371
916.742	1.37321
918.415	1.0285
920.087	1.2159
921.76	1.24857
923.43	1.19373
925.103	1.00777
926.773	0.867667
928.443	1.43531
930.114	1.12099
931.783	1.86637
933.454	1.31021
935.123	1.21755
936.791	0.904708
938.461	0.592599
940.128	0.898999
941.796	0.566691
943.464	0.852639
945.131	1.13858
946.797	0.540689
948.465	1.15534
950.131	1.5917
951.797	1.54143
953.462	1.33687
955.128	1.04556
956.793	1.30787
958.457	1.02152
960.121	0.670956
961.786	0.851262
963.45	0.633792
965.113	1.05609
966.775	0.547298
968.44	1.40792
970.102	1.49239
971.763	0.779825
973.425	0.775589
975.086	0.883101
976.748	0.616118
978.409	1.036
980.069	1.13577
981.729	1.23524
983.388	1.34465
985.048	1.14246
986.708	1.49187
988.367	0.866075
990.025	0.925296
991.683	1.18282
993.341	0.644785
994.998	0.990398
996.655	1.07097
998.312	1.19552
999.969	1.89262
1001.62	1.83977
1003.28	1.87462
1004.94	1.22741
1006.59	1.08643
1008.25	0.989675
1009.9	1.15665
1011.56	1.08255
1013.21	0.439112
1014.86	0.585257
1016.52	1.5853
1018.17	1.447
1019.82	0.828387
1021.48	0.779548
1023.13	0.753497
1024.78	0.203737
1026.43	0.856412
1028.08	0.809759
1029.73	1.11211
1031.38	0.867294
1033.03	1.05792
1034.68	0.723335
1036.33	0.780496
1037.98	1.07653
1039.63	0.8714
1041.28	0.471395
1042.93	0.529456
1044.57	0.675768
1046.22	1.34482
1047.87	0.820794
1049.52	0.23302
1051.16	0.471509
1052.81	0.623816
1054.45	0.515721
1056.1	0.864005
1057.75	0.473059
1059.39	0.472948
1061.04	0.211392
1062.68	0.384095
1064.32	0.664768
1065.97	0.74886
1067.61	0.701616
1069.25	0.675335
1070.9	0.0405025
1072.54	0.556562
1074.18	0.551851
1075.82	0.721518
1077.47	0.631952
1079.11	0.781956
1080.75	0.347082
1082.39	0.302513
1084.03	0.235559
1085.67	0.557525
1087.31	0.400953
1088.95	0.372812
1090.59	0.667856
1092.22	0.485899
1093.86	0.325471
1095.5	0.467558
1097.14	0.890272
1098.78	0.968834
1100.41	0.812001
1102.05	0.613887
1103.69	0.00862217
1105.32	0.781201
1106.96	0.500193
1108.59	0.649082
1110.23	0.754007
1111.86	0.320257
1113.5	0.0359755
1115.13	0.223351
1116.77	0.989212
1118.4	0.253541
1120.03	0.890481
1121.67	-0.0355349
1123.3	0.0246897
1124.93	0.556309
1126.56	1.15247
1128.19	0.551504
1129.83	0.763818
1131.46	0.677258
1133.09	0.377176
1134.72	0.119783
1136.35	0.289393
1137.98	0.500835
1139.61	-0.228634
1141.24	0.600243
1142.86	0.531703
1144.49	0.228752
1146.12	0.118513
1147.75	-0.161368
1149.38	-0.355195
1151	-0.0799713
1152.63	0.173826
1154.26	-0.0837154
1155.88	0.467322
1157.51	0.145621
1159.14	-0.473342
1160.76	0.354636
1162.39	0.481598
1164.01	0.0565653
1165.63	0.291043
1167.26	0.291423
1168.88	0.524791
1170.51	0.629147
1172.13	-0.139188
1173.75	-0.164971
1175.38	-0.446218
1177	0.353697
1178.62	0.43237
1180.24	0.426832
1181.86	0.633577
1183.48	-0.0684385
1185.1	0.0332546
1186.72	0.302996
1188.34	-0.14631
1189.96	-0.00615215
1191.58	0.069068
1193.2	-0.193441
1194.82	0.0899973
1196.44	0.519437
1198.06	0.0900927
1199.68	0.876122
1201.29	-0.405863
1202.91	0.278816
1204.53	1.1109
1206.14	0.483758
1207.76	0.817564
1209.38	0.504859
1210.99	0.316704
1212.61	0.398304
1214.22	0.0821323
1215.84	0.451727
1217.45	0.340802
1219.07	0.437105
1220.68	0.719953
1222.29	0.3807
1223.91	0.726837
1225.52	0.473269
1227.13	0.904119
1228.74	0.715228
1230.36	0.920383
1231.97	0.940413
1233.58	1.06481
1235.19	0.859588
1236.8	1.39948
1238.41	1.67167
1240.02	1.24151
1241.63	0.790616
1243.24	1.27021
1244.85	0.880252
1246.46	0.71699
1248.07	0.842591
1249.67	0.698591
1251.28	1.42325
1252.89	1.48602
1254.5	0.846203
1256.1	1.11742
1257.71	1.26563
1259.32	1.04244
1260.92	1.00617
1262.53	0.74249
1264.13	1.12081
1265.74	0.856647
1267.34	1.44159
1268.95	0.782029
1270.55	1.15815
1272.15	1.38826
1273.76	1.14062
1275.36	1.43113
1276.97	1.34769
1278.57	1.57432
1280.17	1.09624
1281.77	1.2806
1283.37	1.40286
1284.97	1.50483
1286.58	0.925331
1288.18	1.56643
1289.78	1.79482
1291.38	0.949116
1292.98	1.26052
1294.58	1.63318
1296.18	2.33492
1297.78	1.52771
1299.37	1.31816
1300.97	1.51988
1302.57	1.12287
1304.17	0.725767
1305.77	0.986705
1307.36	1.59581
1308.96	1.48537
1310.55	1.41618
1312.15	1.08135
1313.75	1.48408
1315.34	1.33526
1316.94	1.28959
1318.53	1.71371
1320.13	1.01584
1321.72	1.66265
1323.32	1.28948
1324.91	1.89122
1326.5	1.86096
1328.1	0.958619
1329.69	1.43584
1331.28	1.56954
1332.87	1.56352
1334.47	1.31722
1336.06	1.55691
1337.65	1.49428
1339.24	1.59237
1340.83	1.32631
1342.42	1.44117
1344.01	1.53398
1345.6	1.32452
1347.19	0.714735
1348.78	0.888865
1350.37	1.58503
1351.96	1.30244
1353.54	1.10188
1355.13	1.2823
1356.72	1.00334
1358.31	1.02382
1359.89	1.12337
1361.48	0.703012
1363.07	1.18005
1364.65	0.639565
1366.24	1.35512
1367.82	1.49313
1369.41	1.35342
1370.99	0.817027
1372.58	0.759547
1374.16	0.603504
1375.75	1.5026
1377.33	1.2477
1378.91	1.23114
1380.5	0.974951
1382.08	1.03603
1383.66	0.658509
1385.25	0.499141
1386.83	0.637574
1388.41	0.934879
1389.99	0.33928
1391.57	0.57822
1393.15	1.05571
1394.73	0.561467
1396.31	0.741467
1397.89	0.563983
1399.47	0.762305
1401.05	0.999287
1402.63	0.720908
1404.21	0.957189
1405.78	1.15413
1407.36	0.95633
1408.94	1.35215
1410.52	0.879059
1412.1	0.93936
1413.67	0.130605
1415.25	1.43296
1416.82	0.761327
1418.4	0.996735
1419.98	0.759426
1421.55	1.1927
1423.13	1.33176
1424.7	0.527461
1426.28	1.08232
1427.85	0.712543
1429.42	1.38572
1431	1.3889
1432.57	0.938492
1434.14	0.782602
1435.71	1.53112
1437.29	1.15872
1438.86	1.33752
1440.43	1.59575
1442	1.55998
1443.57	1.79997
1445.14	0.900382
1446.71	2.06468
1448.28	2.01056
1449.85	1.56351
1451.42	1.31337
1452.99	1.59461
1454.56	1.52221
1456.13	2.39419
1457.7	1.78994
1459.26	1.87324
1460.83	1.65981
1462.4	1.18908
1463.97	1.2286
1465.54	1.67992
1467.1	1.26616
1468.67	1.46179
1470.23	0.833807
1471.8	1.01155
1473.36	0.895888
1474.93	1.21232
1476.49	0.901596
1478.06	0.924316
1479.62	0.927381
1481.19	0.597181
1482.75	0.717732
1484.31	0.74017
1485.88	0.566411
1487.44	0.803387
1489	0.256036
1490.56	0.0208406
1492.13	0.01893
1493.69	-0.0236592
1495.25	0.634802
1496.81	0.472516
1498.37	0.582889
1499.93	0.343638
1501.49	0.28052
1503.05	0.160284
1504.61	0.544694
1506.17	0.0962596
1507.73	0.383035
1509.28	-0.0463395
1510.84	0.334761
1512.4	0.733532
1513.96	0.207216
1515.52	0.297471
1517.07	0.445575
1518.63	0.28716
1520.19	0.359426
1521.74	0.642171
1523.3	0.350647
1524.85	0.402782
1526.41	0.263337
1527.96	0.409139
1529.52	0.782273
1531.07	0.546794
1532.63	0.862248
1534.18	0.55275
1535.73	0.528554
1537.29	0.807477
1538.84	0.765534
1540.39	0.780559
1541.94	0.569588
1543.5	1.28108
1545.05	1.08859
1546.6	0.689709
1548.15	0.554182
1549.7	1.09365
1551.25	0.602392
1552.8	1.14134
1554.35	1.39978
1555.9	0.799968
1557.45	0.967664
1559	0.427818
1560.55	1.13966
1562.1	0.714765
1563.65	0.477308
1565.19	1.00525
1566.74	1.16019
1568.29	0.941692
1569.83	1.15214
1571.38	1.54898
1572.93	1.72159
1574.47	1.59541
1576.02	1.50658
1577.56	1.19393
1579.11	1.32967
1580.66	1.8581
1582.2	1.3789
1583.74	1.34854
1585.29	1.39355
1586.83	1.45771
1588.38	0.998309
1589.92	1.49267
1591.46	1.59394
1593.01	1.03948
1594.55	1.42098
1596.09	1.24068
1597.63	1.39797
1599.17	1.61221
1600.71	1.33951
1602.25	2.36197
1603.79	1.33859
1605.34	1.64752
1606.88	1.44807
1608.41	1.04011
1609.95	1.87067
1611.49	1.98489
1613.03	1.19586
1614.57	1.28872
1616.11	1.13732
1617.65	1.96118
1619.18	1.39886
1620.72	1.34394
1622.26	1.49616
1623.79	1.42436
1625.33	1.44619
1626.87	1.31762
1628.4	1.59962
1629.94	1.28182
1631.48	1.28119
1633.01	1.37363
1634.55	0.980911
1636.08	1.3169
1637.61	1.80256
1639.15	1.43081
1640.68	1.28297
1642.21	1.48867
1643.75	1.78635
1645.28	1.44997
1646.81	1.98721
1648.34	2.02174
1649.88	1.83378
1651.41	1.98095
1652.94	1.59121
1654.47	1.74042
1656	1.76033
1657.53	1.59486
1659.06	1.68813
1660.59	1.96531
1662.12	1.57491
1663.65	2.21925
1665.18	1.7539
1666.71	1.80636
1668.24	1.67528
1669.76	1.58253
1671.29	1.43586
1672.82	1.17969
1674.35	1.80795
1675.87	1.68084
1677.4	1.68194
1678.93	1.47974
1680.45	1.44232
1681.98	1.16545
1683.5	1.31099
1685.03	1.47476
1686.55	1.51026
1688.08	1.03292
1689.6	1.12429
1691.13	1.08761
1692.65	0.813123
1694.17	0.868093
1695.7	0.995989
1697.22	0.630214
1698.74	0.976747
1700.27	0.318789
1701.79	0.354295
1703.31	0.844903
1704.83	0.514895
1706.35	0.0759015
1707.87	0.455479
1709.39	0.507405
1710.91	0.486726
1712.43	0.121716
1713.95	0.264703
1715.47	0.0997701
1716.99	0.224447
1718.51	0.27653
1720.03	0.67155
1721.55	0.272208
1723.07	0.0902753
1724.58	0.161577
1726.1	0.215782
1727.62	0.612941
1729.13	0.254822
1730.65	0.00566864
1732.17	0.380724
1733.68	0.485569
1735.2	0.0358052
1736.72	0.349267
1738.23	-0.253423
1739.74	-0.0693851
1741.26	-0.0469599
1742.77	0.184482
1744.29	0.111942
1745.8	0.306722
1747.32	0.210224
1748.83	-0.159542
1750.34	-0.16761
1751.85	0.488558
1753.37	-0.0625238
1754.88	0.229428
1756.39	0.214194
1757.9	0.345302
1759.41	0.0885687
1760.92	-0.369517
1762.44	-0.176312
1763.95	0.495758
1765.46	0.28862
1766.96	0.161746
1768.47	0.0985274
1769.98	0.0429492
1771.49	0.0726509
1773	-0.108393
1774.51	0.258577
1776.02	0.180611
1777.53	0.00799513
1779.03	-0.19198
1780.54	0.183526
1782.05	-0.0172901
1783.55	0.187433
1785.06	-0.108856
1786.57	0.210997
1788.07	0.058135
1789.58	0.0969815
1791.08	0.0740504
1792.59	0.114877
1794.09	0.0655437
1795.6	0.0546246
1797.1	-0.276572
1798.61	-0.0656104
1800.11	-0.0691533
1801.61	0.464346
1803.12	0.123711
1804.62	0.0754185
1806.12	0.100751
1807.62	-0.170315
1809.12	-0.0436401
1810.63	0.0315256
1812.13	-0.0708895
1813.63	-0.101519
1815.13	0.161787
1816.63	0.444396
1818.13	0.130929
1819.63	0.122395
1821.13	0.0198755
1822.63	0.0855269
1824.13	0.207268
1825.63	-0.137222
1827.13	0.138115
1828.62	0.15876
1830.12	0.111879
1831.62	-0.0541677
1833.12	-0.0941029
1834.61	0.00364637
1836.11	0.0247517
1837.61	0.0800929
1839.1	0.0522127
1840.6	-0.192829
1842.09	-0.118296
1843.59	-0.0488529
1845.09	0.0021534
1846.58	-0.0317025
1848.08	-0.271454
1849.57	-0.130972
1851.06	0.124805
1852.56	-0.0152454
1854.05	0.456698
1855.54	0.125011
1857.04	0.0652819
1858.53	0.211432
1860.02	-0.053143
1861.51	0.311626
1863.01	0.297343
1864.5	0.0659204
1865.99	-0.121724
1867.48	-0.080761
1868.97	0.135365
1870.46	0.299455
1871.95	0.145559
1873.44	-0.0890112
1874.93	0.295604
1876.42	0.151942
1877.91	-0.280781
1879.4	0.596931
1880.89	-0.305129
1882.37	-0.256859
1882.46	-0.253575
1883.95	0.026195
1885.45	-0.235022
1886.94	0.147809
1888.43	-0.131667
1889.93	0.024229
1891.42	-0.0975828
1892.91	0.129568
1894.41	0.375397
1895.9	0.100825
1897.39	0.0355077
1898.88	0.213644
1900.37	0.182328
1901.86	0.219375
1903.36	0.150712
1904.85	0.237438
1906.34	-0.0414176
1907.83	0.200932
1909.32	-0.094605
1910.81	0.13131
1912.29	-0.0412173
1913.78	-0.178557
1915.27	-0.0903435
1916.76	0.327005
1918.25	0.275763
1919.74	0.18954
1921.23	-0.208497
1922.71	-0.121172
1924.2	0.191786
1925.69	0.349704
1927.17	-0.045547
1928.66	0.459964
1930.15	0.324883
1931.63	-0.122522
1933.12	0.0870566
1934.6	0.13945
1936.09	0.328948
1937.57	0.171483
1939.06	0.0829582
1940.54	0.288291
1942.02	0.062551
1943.51	-0.162193
1944.99	0.0622168
1946.47	0.183338
1947.96	0.338694
1949.44	0.0627079
1950.92	0.509393
1952.4	0.128883
1953.88	-0.0968232
1955.37	0.158847
1956.85	0.380101
1958.33	0.344153
1959.81	0.360265
1961.29	0.273904
1962.77	0.444878
1964.25	0.135848
1965.73	0.46035
1967.21	0.219168
1968.69	0.525121
1970.16	0.402872
1971.64	0.451385
1973.12	0.209603
1974.6	0.207019
1976.08	0.0170751
1977.55	0.781359
1979.03	0.114874
1980.51	0.146677
1981.98	0.535278
1983.46	0.158709
1984.94	0.240726
1986.41	0.424186
1987.89	0.454804
1989.36	0.485598
1990.84	0.432235
1992.31	-0.0601063
1993.79	0.294061
1995.26	0.614753
1996.73	0.394968
1998.21	0.327303
1999.68	0.411307
2001.15	-0.197102
2002.63	0.3079
2004.1	0.306526
2005.57	0.372784
2007.04	0.136341
2008.51	0.405906
2009.99	0.103589
2011.46	0.00376034
2012.93	0.375281
2014.4	0.191042
2015.87	0.0231371
2017.34	0.174223
2018.81	0.375
2020.28	0.255908
2021.75	0.0528378
2023.21	0.387322
2024.68	-0.0161781
2026.15	0.302707
2027.62	0.0690475
2029.09	0.121615
2030.56	0.326153
2032.02	0.380492
2033.49	0.351313
2034.96	0.35569
2036.42	0.175005
2037.89	0.262664
2039.36	0.417285
2040.82	0.504662
2042.29	0.474652
2043.75	0.344253
2045.22	-0.00433159
2046.68	0.135528
2048.14	0.225228
2049.61	0.432775
2051.07	0.403711
2052.54	0.272283
2054	0.206934
2055.46	0.325786
2056.93	0.9324
2058.39	0.425753
2059.85	0.239392
2061.31	0.373369
2062.77	0.272188
2064.23	0.558873
2065.7	0.610654
2067.16	0.0404015
2068.62	0.0259223
2070.08	0.146331
2071.54	0.53618
2073	0.45457
2074.46	0.423253
2075.92	0.492715
2077.38	0.056684
2078.83	0.361321
2080.29	0.396163
2081.75	0.598939
2083.21	-0.175179
2084.67	0.228528
2086.12	0.799636
2087.58	0.276845
2089.04	0.258401
2090.49	0.525365
2091.95	0.422637
2093.41	0.185706
2094.86	0.233946
2096.32	0.382326
2097.77	0.764499
2099.23	0.124697
2100.68	0.371953
2102.14	0.284752
2103.59	0.381943
2105.05	0.530018
2106.5	0.562226
2107.95	0.41176
2109.41	0.711868
2110.86	0.894734
2112.31	0.643196
2113.76	0.607098
2115.21	0.603077
2116.67	0.581715
2118.12	0.543974
2119.57	0.789429
2121.02	0.770607
2122.47	0.869397
2123.92	0.786888
2125.37	0.738089
2126.82	0.639383
2128.27	0.970949
2129.72	1.00297
2131.17	0.387989
2132.62	0.76622
2134.07	0.91234
2135.51	0.794324
2136.96	0.743614
2138.41	1.1901
2139.86	0.762125
2141.31	1.06262
2142.75	0.983908
2144.2	1.13725
2145.65	1.37359
2147.09	0.997292
2148.54	0.918346
2149.98	1.07061
2151.43	1.27186
2152.87	1.04153
2154.32	0.777419
2155.76	1.30818
2157.21	1.07686
2158.65	1.29334
2160.1	0.897903
2161.54	1.21618
2162.98	0.922708
2164.43	1.59229
2165.87	1.25079
2167.31	1.37395
2168.75	1.31359
2170.2	1.23512
2171.64	0.92205
2173.08	0.990027
2174.52	0.707609
2175.96	1.09002
2177.4	1.1565
2178.84	0.924253
2180.28	0.925519
2181.72	0.993952
2183.16	0.813414
2184.6	1.31496
2186.04	1.61712
2187.48	1.23721
2188.92	1.20666
2190.36	1.30924
2191.79	0.812309
2193.23	1.26375
2194.67	1.46444
2196.11	0.781397
2197.54	0.762841
2198.98	1.15869
2200.42	1.02145
2201.85	0.817841
2203.29	0.996583
2204.72	0.960358
2206.16	0.958112
2207.59	0.939727
2209.03	0.921234
2210.46	0.885622
2211.9	0.882356
2213.33	0.812376
2214.77	0.924061
2216.2	0.870946
2217.63	1.04971
2219.07	0.767519
2220.5	0.486191
2221.93	0.847914
2223.36	0.368646
2224.8	0.267554
2226.23	0.642572
2227.66	0.966419
2229.09	0.86159
2230.52	0.526667
2231.95	0.651146
2233.39	0.791894
2234.81	0.442332
2236.25	0.584398
2237.67	0.580463
2239.1	0.51266
2240.53	0.544255
2241.96	0.120503
2243.39	0.545803
2244.82	0.482094
2246.25	0.760461
2247.68	0.0917063
2249.1	0.595579
2250.53	0.396719
2251.96	0.441001
2253.38	0.484543
2254.81	0.349448
2256.24	0.718869
2257.66	0.375605
2259.09	0.22932
2260.51	0.474534
2261.94	0.153582
2263.36	0.401897
2264.79	0.244511
2266.21	0.42815
2267.64	0.0420289
2269.06	0.289615
2270.49	0.48794
2271.91	0.523147
2273.33	0.395358
2274.76	0.853989
2276.18	0.579769
2277.6	0.354433
2279.02	0.30835
2280.44	0.604633
2281.87	0.476894
2283.29	0.4469
2284.71	0.351638
2286.13	0.452346
2287.55	0.373768
2288.97	0.377119
2290.39	0.44613
2291.81	0.695217
2293.23	0.568467
2294.65	0.0980043
2296.07	0.396376
2297.49	0.23645
2298.91	0.125558
2300.33	0.39165
2301.74	0.313844
2303.16	0.203356
2304.58	0.0272059
2306	0.343508
2307.41	0.232675
2308.83	0.466543
2310.25	0.519269
2311.66	0.390775
2313.08	0.327971
2314.5	0.150182
2315.91	0.0715609
2317.33	0.0757856
2318.74	0.327602
2320.16	0.00228643
2321.57	0.23692
2322.98	0.321829
2324.4	0.157509
2325.81	0.734046
2327.23	0.913028
2328.64	0.745068
2330.05	0.264445
2331.46	0.344704
2332.88	0.425706
2334.29	0.276947
2335.7	0.29296
2337.11	0.440228
2338.52	0.274318
2339.94	0.0584145
2341.35	0.564636
2342.76	0.200006
2344.17	0.0490246
2345.58	0.439269
2346.99	0.567162
2348.4	-0.00896263
2349.81	0.151526
2351.22	0.213161
2352.62	0.322984
2354.03	0.28504
2355.44	0.197747
2356.85	0.615144
2358.26	0.16954
2359.67	0.0824175
2361.07	0.385087
2362.48	0.200689
2363.89	0.0490017
2365.29	0.0108356
2366.7	0.279947
2368.11	0.145278
2369.51	0.124513
2370.92	-0.10485
2372.32	0.00533009
2373.73	-0.0127101
2375.13	-0.0465446
2376.54	-0.0323215
2377.94	0.190194
2379.35	0.0578008
2380.75	-0.0273962
2382.15	-0.0492878
2383.56	0.248535
2384.96	-0.222405
2386.36	0.00306654
2387.76	0.228631
2389.17	0.207452
2390.57	0.0597644
2391.97	0.199709
2393.37	0.41978
2394.77	0.210832
2396.17	-0.0451131
2397.58	0.398866
2398.98	0.429908
2400.38	0.032383
2401.78	0.207036
2403.18	0.46108
2404.58	0.42896
2405.97	-0.0164886
2407.37	0.204134
2408.77	-0.28971
2410.17	0.167784
2411.57	0.149636
2412.97	0.211256
2414.37	0.178751
2415.76	0.194814
2417.16	0.164357
2418.56	0.340415
2419.95	0.310943
2421.35	-0.13046
2422.75	0.330774
2424.14	0.110609
2425.54	0.159807
2426.93	0.494656
2428.33	0.164462
2429.72	0.215364
2431.12	0.409637
2432.51	-0.0307584
2433.91	-0.328968
2435.3	0.166187
2436.7	-0.0703759
2438.09	-0.228591
2439.48	-0.49886
2440.88	-0.0550008
2442.27	0.00718594
2443.66	-0.153046
2445.05	0.210161
2446.44	-0.108811
2447.84	0.364779
2449.23	0.188468
2450.62	0.123302
2452.01	0.0902157
2453.4	-0.116356
2454.79	0.120733
2456.18	-0.0688429
2457.57	0.0740252
2458.96	0.153511
2460.35	0.026988
2461.74	0.0738616
2463.13	-0.385643
2464.52	0.0553493
2465.91	0.0219722
2467.29	0.225332
2468.68	-0.0922222
2470.07	0.284308
2471.46	0.171484
2472.85	0.200077
2474.23	-0.0710382
2475.62	-0.043344
2477.01	0.188363
2478.39	-0.0200977
2479.78	0.352507
2481.16	0.254245
2482.55	-0.0632572
2483.93	0.449146
2485.32	-0.228673
2486.7	0.0158825
2488.09	-0.162237
2489.47	0.0491691
2490.86	0.213213
2492.24	0.206196
2493.62	0.417355
2495.01	-0.115535
2496.39	-0.150587
2497.77	-0.107529
2499.15	0.0904679
2500.54	-0.191532
2501.92	0.113671
2503.3	0.0470595
2504.68	0.0724778
2506.06	0.220652
2507.45	0.198996
2508.83	0.0390983
2510.21	-0.0894403
2511.59	0.0435543
2512.97	0.575415
2514.35	0.279939
2515.73	0.322287
2517.11	-0.277313
2518.48	-0.0808215
2519.86	0.130884
2521.24	0.311643
2522.62	0.323817
2524	-0.000205994
2525.38	-0.080411
2526.75	-0.054091
2528.13	-0.118848
2529.51	-0.0611157
2530.89	-0.0327411
2532.26	0.103172
2533.64	-0.276525
2535.02	0.149557
2536.39	0.0742712
2537.77	-0.168557
2539.14	0.301853
2540.52	0.209629
2541.89	0.405554
2543.27	0.146358
2544.64	0.145785
2546.01	0.0702634
2547.39	0.0714774
2548.76	-0.0632215
2550.14	0.135962
2551.51	0.152768
2552.88	0.0930386
2554.25	0.00221491
2555.63	-0.180263
2557	-0.150702
2558.37	0.166845
2559.74	-0.22809
2561.11	-0.137471
2562.49	0.256664
2563.86	0.529944
2565.23	0.288331
2566.6	0.152985
2567.97	0.229875
2569.34	0.124916
2570.71	-0.0861497
2572.08	0.00594759
2573.45	0.0374842
2574.82	0.281336
2576.18	0.100753
2577.55	0.208179
2578.92	-0.0181251
2580.29	0.134396
2581.66	0.332108
2583.02	0.120157
2584.39	0.059669
2585.76	0.105263
2587.13	-0.0915742
2588.49	0.0603409
2589.86	0.303258
2591.22	0.197535
2592.59	-0.287289
2593.96	0.151576
2595.32	0.0291505
2596.69	0.102853
2598.05	0.0397396
2599.42	0.0368896
2600.78	-0.0565534
2602.14	0.0467901
2603.51	-0.0608177
2604.87	-0.00193167
2606.23	-0.184281
2607.6	0.130908
2608.96	0.204081
2610.32	-0.0701413
2611.69	-0.0138021
2613.05	-0.0937352
2614.41	-0.0538955
2615.77	0.15073
2617.13	-0.0796423
2618.49	0.274951
2619.86	0.434973
2621.22	0.10187
2622.58	-0.00621033
2623.94	0.0652256
2625.3	-0.236521
2626.66	0.0286489
2628.02	0.203797
2629.37	0.244451
2630.73	-0.206101
2632.09	0.117042
2633.45	-0.0802679
2634.81	0.108632
2636.17	-0.0587239
2637.53	-0.0331726
2638.88	-0.022429
2640.24	0.0475917
2641.6	0.132477
2642.96	0.335642
2644.31	0.110533
2645.67	0.284025
2647.02	0.0294676
2648.38	0.17253
2649.74	-0.215046
2651.09	0.059216
2652.45	0.362054
2653.8	0.180266
2655.16	0.101977
2656.51	-0.0193133
2657.86	0.0653276
2659.22	-0.273699
2660.57	-0.261145
2661.93	-0.000229836
2663.28	0.186967
2664.63	0.0814109
2665.98	0.033793
2667.34	0.0150452
2668.69	0.0836239
2670.04	0.152288
2671.39	0.0467606
2672.75	-0.203463
2674.09	-0.0463123
2675.45	0.00948238
2676.8	-0.151986
2678.15	0.180258
2679.5	0.237422
2680.85	-0.0816088
2682.2	0.310671
2683.55	0.0948977
2684.9	0.0973248
2686.25	0.0275764
2687.6	0.0738358
2688.94	0.337051
2690.29	0.16354
2691.64	0.133865
2692.99	0.320706
2694.34	-0.116913
2695.68	-0.0904441
2697.03	-0.121525
2698.38	0.0510516
2699.73	-0.180656
2701.07	0.13914
2702.42	-0.00333691
2703.76	0.275094
2705.11	-0.0546994
2706.45	-0.0511551
2707.8	0.198906
2709.15	0.565022
2710.49	0.00172853
2711.83	-0.0972886
2713.18	0.326653
2714.52	0.082181
2715.87	-0.0897751
2717.21	0.232578
2718.55	0.0166612
2719.9	0.236918
2721.24	-0.052433
2722.58	0.196332
2723.93	0.211905
2725.27	0.605607
2726.61	0.183923
2727.95	0.0240297
2729.29	0.300568
2730.63	0.227726
2731.98	0.358563
2733.32	0.285781
2734.66	0.504065
2736	0.227961
2737.34	0.388322
2738.68	0.0251122
2740.02	0.0835075
2741.36	0.0543222
2742.7	0.0246925
2744.03	0.401508
2745.37	0.0512171
2746.71	-0.0377221
2748.05	-0.0251122
2749.39	-0.230117
2750.72	-0.0432205
2752.06	0.549662
2753.4	-0.176547
2754.74	0.213455
2756.07	-0.106388
2757.41	0.182227
2758.75	0.0800252
2760.08	0.238671
2761.42	-0.253566
2762.76	0.0215478
2764.09	-0.209547
2765.42	-0.0499597
2766.76	0.0225048
2768.09	-0.050334
2769.43	0.00610161
2770.76	-0.0830646
2772.1	0.260157
2773.43	-0.00396919
2774.76	-0.0517974
2776.1	0.0588632
2777.43	0.0688534
2778.76	0.136758
2780.1	0.0756235
2781.43	0.230237
2782.76	-0.3185
2784.09	0.0513473
2785.42	-0.123947
2786.75	0.0162268
2788.09	0.199532
2789.42	-0.0460134
2790.75	0.0239563
2792.08	0.00867271
2793.41	-0.020545
2794.74	0.00746679
2796.07	0.220994
2797.4	0.205458
2798.73	0.118128
2800.06	0.216094
2801.39	0.114057
2802.71	0.0262442
2804.04	-0.0331554
2805.37	0.0353961
2806.7	0.188836
2808.03	0.156696
2809.35	-0.0178361
2810.68	-0.00747442
2812.01	-0.0534759
2813.33	0.0857635
2814.66	-0.355361
2815.99	-0.058146
2817.31	-0.142887
2818.64	0.0562859
2819.96	0.0995808
2821.29	0.0717015
2822.61	-0.0700164
2823.94	0.0854034
2825.26	0.0846801
2826.59	0.381369
2827.91	0.253561
2829.23	0.253625
2830.56	0.211577
2831.88	0.452815
2833.21	0.425062
2834.53	0.651857
2835.85	0.510287
2837.17	0.495705
2838.5	0.59397
2839.82	0.692022
2841.14	0.832511
2842.46	1.15701
2843.78	0.987243
2845.1	1.4399
2846.42	1.70934
2847.74	1.71058
2849.06	1.90973
2850.38	1.68463
2851.71	1.58635
2853.03	1.89752
2854.34	1.57241
2855.66	1.64284
2856.98	1.99576
2858.3	1.40229
2859.62	2.43306
2860.94	2.30553
2862.26	2.3613
2863.57	2.20503
2864.89	2.42959
2866.21	2.2026
2867.53	2.59646
2868.84	2.8777
2870.16	3.01824
2871.48	3.17299
2872.79	3.15834
2874.11	3.55169
2875.42	3.19733
2876.74	3.36323
2878.05	3.38751
2879.37	3.63651
2880.68	3.52004
2882	3.09529
2883.31	3.06504
2884.63	3.0918
2885.94	3.10503
2887.26	3.51132
2888.57	3.0471
2889.88	3.05943
2891.19	3.53376
2892.51	3.62872
2893.82	3.65339
2895.13	3.35627
2896.44	3.35401
2897.76	3.60453
2899.07	3.96775
2900.38	3.92591
2901.69	3.92646
2903	4.23494
2904.31	4.012
2905.62	4.08305
2906.93	4.14058
2908.24	4.25477
2909.55	4.20185
2910.86	4.65321
2912.17	4.40491
2913.48	4.37986
2914.79	4.71763
2916.1	5.15185
2917.41	5.31853
2918.71	5.63806
2920.02	5.10402
2921.33	5.31193
2922.64	5.67462
2923.94	5.5353
2925.25	5.77445
2926.56	6.34972
2927.86	6.17021
2929.17	6.42371
2930.48	6.0336
2931.78	6.34201
2933.09	6.13292
2934.39	5.40668
2935.7	5.84064
2937	5.81351
2938.31	5.56296
2939.61	5.41048
2940.92	5.53792
2942.22	5.19099
2943.53	5.12457
2944.83	5.21308
2946.13	5.10691
2947.43	4.90329
2948.74	4.53135
2950.04	4.27023
2951.34	4.30157
2952.64	4.47132
2953.95	3.85576
2955.25	4.13591
2956.55	3.89879
2957.85	3.99923
2959.15	4.31199
2960.45	3.53472
2961.75	3.50116
2963.05	3.88912
2964.35	3.82798
2965.65	3.51271
2966.95	3.39249
2968.25	3.60845
2969.55	3.72541
2970.85	3.22343
2972.15	2.94652
2973.45	3.10599
2974.75	2.80103
2976.05	3.10084
2977.34	3.20257
2978.64	2.31725
2979.94	2.35989
2981.24	2.64064
2982.53	2.35805
2983.83	2.34303
2985.13	2.11803
2986.42	2.1613
2987.72	2.59917
2989.01	1.98395
2990.31	1.6921
2991.61	1.70906
2992.9	1.55657
2994.19	1.74035
2995.49	1.13653
2996.78	1.33287
2998.08	1.02363
2999.37	1.10758
3000.67	1.23389
3001.96	0.841925
3003.25	1.16515
3004.55	0.941924
3005.84	0.872676
3007.13	0.873008
3008.42	1.05458
3009.72	0.592031
3011.01	0.506786
3012.3	0.742443
3013.59	0.65682
3014.88	0.711007
3016.17	0.222311
3017.46	0.458721
3018.76	0.110806
3020.05	0.681212
3021.34	0.486177
3022.63	0.582431
3023.92	0.316957
3025.21	0.190009
3026.49	0.395518
3027.78	0.393364
3029.07	0.474948
3030.36	0.460781
3031.65	0.199135
3032.94	0.366434
3034.23	0.464858
3035.51	0.507637
3036.8	0.232281
3038.09	0.451952
3039.38	0.587206
3040.66	0.542211
3041.95	0.304411
3043.23	0.217944
3044.52	-0.182569
3045.81	0.253026
3047.09	0.293121
3048.38	0.0344877
3049.66	0.48729
3050.95	0.408869
3052.23	0.59034
3053.52	0.608073
3054.8	0.611656
3056.09	0.50531
3057.37	0.479977
3058.65	0.685639
3059.94	0.781863
3061.22	0.674082
3062.5	0.281483
3063.79	0.678792
3065.07	0.628446
3066.35	0.456813
3067.63	0.517051
3068.92	0.441607
3070.2	0.406739
3071.48	0.575232
3072.76	0.0220184
3074.04	0.52851
3075.32	0.354442
3076.6	0.302469
3077.88	0.182922
3079.16	0.0913448
3080.44	0.190766
3081.72	0.169187
3083	0.352003
3084.28	0.00619221
3085.56	0.108149
3086.84	-0.00737
3088.12	0.0394521
3089.4	0.0721745
3090.67	0.0638094
3091.95	0.0960026
3093.23	0.0739965
3094.51	-0.0969887
3095.78	-0.349094
3097.06	-0.0181541
3098.34	0.149946
3099.61	0.0739384
3100.89	0.0656047
3102.17	0.0572777
3103.44	0.0626502
3104.72	0.163093
3105.99	0.331656
3107.27	0.243704
3108.54	-0.154794
3109.82	0.164718
3111.09	0.0788689
3112.37	0.142485
3113.64	0.0438299
3114.92	0.0399604
3116.19	0.157784
3117.46	0.207199
3118.74	0.405009
3120.01	0.398492
3121.28	-0.259536
3122.55	0.0853057
3123.83	0.226473
3125.1	0.0426283
3126.37	0.0216317
3127.64	0.420418
3128.91	-0.019268
3130.19	0.352799
3131.46	0.197524
3132.73	0.285441
3134	0.251422
3135.27	0.311513
3136.54	0.209166
3137.81	0.295284
3139.08	0.124991
3140.35	0.264378
3141.62	0.188337
3142.89	0.327574
3144.16	0.453452
3145.42	0.257563
3146.69	0.303714
3147.96	0.444023
3149.23	0.423873
