200.407	0.054265
202.221	0.0651684
204.035	0.0766983
205.849	0.13798
207.665	-0.408151
209.478	0.163592
211.291	0.029357
213.104	-0.081749
214.916	0.267056
216.73	0.1058
218.541	-0.151997
220.352	0.293157
222.163	0.980718
223.973	-0.0962753
225.785	-0.615728
227.595	-0.434051
229.404	0.0369301
231.213	0.14494
233.022	0.15608
234.83	0.722233
236.638	0.638574
238.448	0.0271101
240.255	-0.0754108
242.062	-0.175481
243.868	0.52198
245.675	-0.348583
247.48	-0.27976
249.286	0.124462
251.091	0.0183783
252.896	0.0301046
254.702	0.763654
256.506	0.724446
258.31	0.445242
260.113	0.119947
261.916	-0.178968
263.719	0.150344
265.521	0.62557
267.323	0.450778
269.125	0.757771
270.926	0.147889
272.727	0.163573
274.527	0.394781
276.328	0.937569
278.127	-0.257002
279.927	0.450096
281.726	-0.338156
283.525	0.0271988
285.323	-0.186254
287.121	-0.28009
288.919	0.34559
290.716	-0.466386
292.513	0.208457
294.31	0.142575
296.104	0.221904
297.9	-0.199436
299.696	0.431396
301.491	0.75122
303.286	0.305916
305.081	-0.211911
306.875	0.510091
308.669	0.396721
310.463	0.593859
312.256	0.982765
314.047	1.15913
315.839	0.766288
317.631	0.208856
319.423	0.343816
321.215	0.0751028
323.006	0.85634
324.794	0.66074
326.585	0.847168
328.375	0.890297
330.165	0.693727
331.954	0.567421
333.741	0.750153
335.53	0.236626
337.318	0.0794725
339.106	0.637777
340.894	1.33745
342.679	0.24278
344.466	0.702113
346.253	0.516799
348.039	0.189189
349.823	0.292079
351.608	-0.058445
353.393	0.950782
355.176	0.288463
356.961	0.340533
358.745	0.486403
360.529	0.392653
362.31	-0.0351515
364.093	0.868453
365.876	0.273035
367.657	-0.203495
369.439	0.0787563
371.221	0.643729
373	0.780796
374.781	0.420845
376.56	0.888013
378.34	0.812442
380.12	0.620351
381.898	1.01846
383.677	0.359097
385.456	0.712952
387.233	1.06796
389.011	1.96443
390.787	0.748011
392.565	0.895079
394.34	1.30125
396.117	1.19131
397.894	0.823216
399.668	0.713285
401.444	0.8143
403.217	0.139522
404.993	0.497404
406.766	-0.507605
408.54	-0.315515
410.312	0.0639458
412.086	0.0678205
413.858	0.259907
415.631	0.452797
417.402	0.271222
419.174	0.512821
420.944	0.121129
422.716	0.550708
424.486	0.228395
426.257	0.515455
428.025	0.167734
429.794	0.617617
431.564	-0.17653
433.332	-0.172246
435.101	0.278377
436.868	0.916785
438.637	1.08505
440.403	0.406856
442.169	-0.179413
443.937	-0.251733
445.703	1.05612
447.468	0.628413
449.234	0.0605831
450.999	0.148068
452.765	0.35251
454.528	-0.306113
456.292	0.41144
458.057	-0.0134249
459.819	-0.484075
461.582	0.697747
463.344	-0.0723743
465.107	0.159921
466.868	-0.394601
468.629	0.146092
470.392	0.084837
472.152	0.00102806
473.912	0.358734
475.672	0.318849
477.433	1.27816
479.192	1.44328
480.951	1.02481
482.709	0.862781
484.469	0.445972
486.226	1.05636
487.984	0.690937
489.74	0.677448
491.499	0.338447
493.255	0.0697622
495.011	0.0113382
496.767	0.982705
498.522	0.385785
500.277	0.46736
502.033	0.900423
503.788	0.393622
505.541	1.36553
507.295	1.49033
509.048	1.00172
510.801	0.816784
512.553	0.91229
514.308	0.794248
516.06	1.12159
517.811	1.0475
519.562	0.478607
521.313	0.731716
523.063	1.10143
524.814	0.672474
526.563	0.853901
528.313	0.777278
530.062	1.42712
531.811	0.787598
533.559	-0.0159416
535.308	0.583736
537.055	0.83029
538.803	0.350971
540.55	0.40768
542.297	0.37015
544.043	0.774293
545.789	0.689452
547.535	0.465786
549.281	0.103853
551.026	-0.0485849
552.771	0.053978
554.515	0.711118
556.259	0.0976496
558.003	0.269922
559.747	0.281178
561.49	0.891594
563.233	0.696677
564.975	-0.163806
566.717	0.149112
568.459	0.301874
570.2	0.0197029
571.942	0.129297
573.68	0.0572186
575.421	0.285392
577.161	0.515604
578.901	0.380272
580.64	0.0390587
582.379	0.38704
584.118	0.0680809
585.855	0.1617
587.593	0.438002
589.331	0.11482
591.068	0.756847
592.805	0.247875
594.54	0.428952
596.277	0.38001
598.013	-0.0370588
599.749	0.557783
601.484	-0.0905905
603.217	-0.0731764
604.952	0.241468
606.687	-0.203935
608.421	-0.374198
610.153	-0.0165625
611.886	0.432925
613.619	0.0574932
615.35	0.0498734
617.083	0.248687
618.815	0.675821
620.547	0.483281
622.276	0.358153
624.008	0.0264196
625.738	-0.533328
627.467	0.00460529
629.197	-0.254572
630.927	-0.191574
632.655	0.284457
634.384	0.145654
636.113	0.166306
637.839	0.367693
639.568	0.132353
641.293	-0.151749
643.021	0.518967
644.748	0.799921
646.473	0.466479
648.2	0.226612
649.924	0.535895
651.65	0.463239
653.376	0.0314112
655.099	0.0578232
656.824	0.906605
658.546	0.139978
660.271	0.53502
661.993	0.152558
663.716	0.109731
665.438	0.704271
667.161	0.359347
668.881	0.562266
670.604	0.102562
672.324	0.468602
674.045	0.15084
675.765	0.178831
677.486	0.162457
679.204	0.0314283
680.925	0.565774
682.643	0.914917
684.361	0.686506
686.08	0.386431
687.797	0.222546
689.516	0.633225
691.232	0.236867
692.95	0.438689
694.666	0.59357
696.382	0.240664
698.099	0.600217
699.813	1.02709
701.528	0.463219
703.244	0.358563
704.958	1.24084
706.673	0.629413
708.387	0.54588
710.099	0.599512
711.814	0.858651
713.526	0.407897
715.238	0.506174
716.949	0.581369
718.663	0.861805
720.374	1.028
722.084	0.966376
723.796	0.540851
725.506	0.752466
727.216	0.758957
728.925	0.311098
730.636	1.01976
732.345	0.888604
734.053	1.00634
735.761	0.784835
737.471	0.970596
739.178	0.840958
740.885	0.93806
742.592	0.946295
744.298	1.63148
746.006	1.37254
747.712	1.52041
749.417	1.21996
751.122	1.32596
752.827	1.29853
754.532	1.47519
756.236	1.31614
757.942	1.31639
759.645	2.12942
761.348	1.77259
763.051	1.84459
764.753	1.46482
766.456	2.16774
768.158	2.12322
769.859	2.23425
771.56	3.02116
773.261	2.20068
774.964	2.41975
776.664	2.32288
778.364	3.01899
780.064	2.26984
781.763	2.47189
783.462	2.08591
785.16	2.12849
786.859	1.76079
788.557	2.2268
790.255	1.60267
791.952	0.953526
793.649	1.50037
795.346	1.0532
797.042	0.720526
798.738	1.47118
800.434	2.02037
802.127	1.60333
803.823	1.07499
805.517	1.73839
807.212	2.17555
808.906	1.21849
810.6	1.49556
812.293	1.50202
813.987	1.53018
815.68	1.11024
817.372	1.8988
819.064	1.79212
820.754	1.5295
822.446	1.66934
824.137	2.18891
825.828	1.97412
827.519	1.00474
829.209	1.17474
830.897	1.6154
832.587	1.10155
834.276	0.990913
835.966	1.2828
837.654	1.82035
839.341	0.905771
841.029	1.50755
842.717	1.23676
844.404	1.144
846.091	1.0966
847.776	1.92315
849.463	1.54524
851.149	1.14732
852.833	1.96124
854.519	1.11761
856.204	1.35018
857.889	1.1323
859.572	1.15965
861.256	0.824699
862.94	0.960604
864.622	0.599339
866.305	1.22869
867.988	0.369385
869.669	-0.175066
871.351	0.43035
873.033	0.38147
874.713	0.828874
876.395	0.328584
878.074	-0.0589848
879.755	0.63672
881.435	0.406599
883.114	0.717484
884.794	0.86911
886.471	0.815992
888.15	0.512933
889.829	0.185793
891.506	0.961716
893.184	0.856728
894.861	1.06557
896.538	1.13789
898.214	0.961847
899.891	0.35886
901.566	0.719792
903.242	0.430222
904.916	0.565775
906.592	0.678864
908.266	0.257308
909.941	0.750688
911.614	0.843593
913.288	0.914849
914.961	0.342476
916.635	0.702914
918.306	1.15125
919.979	0.558162
921.651	0.652545
923.321	0.924841
924.994	0.734671
926.664	0.127293
928.336	0.846558
930.005	0.948977
931.674	0.85359
933.345	0.868841
935.014	0.68577
936.682	0.789912
938.352	0.894991
940.019	1.17791
941.687	1.02112
943.356	0.40174
945.022	1.15034
946.689	0.838351
948.357	0.524222
950.022	0.737663
951.688	0.552417
953.355	0.720151
955.02	0.0295267
956.684	0.400422
958.348	0.664757
960.014	0.711829
961.678	1.37926
963.341	0.588707
965.004	0.414535
966.669	1.14432
968.331	0.87538
969.993	0.227844
971.655	0.0218554
973.316	0.723079
974.979	0.386414
976.64	0.870062
978.3	1.0017
979.961	0.724854
981.62	0.447425
983.28	0.20159
984.941	1.03828
986.6	0.8542
988.259	0.579587
989.917	0.347961
991.575	0.137898
993.233	0.480042
994.89	0.468667
996.547	0.457428
998.204	0.622558
999.86	1.05165
1001.52	1.0613
1003.17	1.09242
1004.83	1.10109
1006.49	0.779936
1008.14	0.854636
1009.79	0.53459
1011.45	0.522479
1013.1	0.335565
1014.76	0.477869
1016.41	0.489107
1018.06	0.807234
1019.72	0.0543118
1021.37	0.133931
1023.02	0.761189
1024.67	0.908528
1026.32	1.03469
1027.97	0.898657
1029.62	2.18192
1031.27	1.67215
1032.92	1.75013
1034.57	1.60772
1036.22	1.20209
1037.87	0.992077
1039.52	0.999914
1041.17	0.638717
1042.82	0.670786
1044.47	1.03076
1046.11	0.849784
1047.76	0.475686
1049.41	0.99398
1051.06	0.579902
1052.7	0.101481
1054.35	-0.00730705
1055.99	0.275083
1057.64	0.0790119
1059.28	0.360646
1060.93	-0.119443
1062.57	0.160604
1064.22	0.7005
1065.86	0.369438
1067.5	0.363247
1069.15	-0.143785
1070.79	-0.173403
1072.43	0.448009
1074.08	0.396789
1075.72	0.194934
1077.36	1.27422
1079	0.663317
1080.64	0.985843
1082.28	0.636167
1083.92	0.805882
1085.56	1.23373
1087.2	1.59375
1088.84	1.06291
1090.48	1.26627
1092.12	1.03543
1093.76	0.566769
1095.39	0.552254
1097.03	0.862069
1098.67	0.699097
1100.31	0.0432882
1101.94	0.164994
1103.58	0.65438
1105.22	0.693463
1106.85	0.410636
1108.49	0.471629
1110.12	0.660336
1111.76	0.696598
1113.39	0.193825
1115.03	0.312703
1116.66	-0.191442
1118.29	-0.587625
1119.93	0.302895
1121.56	0.229939
1123.19	0.500747
1124.82	0.986457
1126.46	0.745699
1128.09	0.527384
1129.72	0.566576
1131.35	0.585066
1132.98	0.390142
1134.61	0.515741
1136.24	0.255862
1137.87	0.529046
1139.5	-0.0964899
1141.13	0.494247
1142.76	0.358234
1144.39	-0.694623
1146.01	-0.0615873
1147.64	0.337605
1149.27	-0.604642
1150.9	0.456357
1152.53	0.516002
1154.15	-0.169919
1155.78	1.03825
1157.4	-0.0310459
1159.03	0.432117
1160.65	-0.209737
1162.28	0.298047
1163.9	0.190371
1165.53	0.380983
1167.15	0.167345
1168.78	0.484
1170.4	0.415949
1172.02	0.685513
1173.65	0.846437
1175.27	-0.0340109
1176.89	0.124985
1178.51	0.135648
1180.14	0.612758
1181.76	0.0749197
1183.38	0.468766
1185	-0.405546
1186.62	0.156054
1188.24	-0.0657206
1189.86	0.00570202
1191.48	-0.198974
1193.1	0.0366192
1194.71	0.0606012
1196.33	0.210271
1197.95	0.130282
1199.57	0.0106783
1201.19	0.311932
1202.8	0.657626
1204.42	0.588711
1206.04	0.689399
1207.65	0.833438
1209.27	0.560639
1210.88	0.704101
1212.5	0.782876
1214.12	0.129539
1215.73	0.328093
1217.35	0.0248661
1218.96	0.136615
1220.57	0.310219
1222.19	0.795324
1223.8	1.32248
1225.41	1.12603
1227.03	0.559278
1228.64	0.925577
1230.25	0.548809
1231.86	0.979874
1233.47	0.52355
1235.08	1.43286
1236.69	-0.0538988
1238.31	0.527459
1239.92	0.861748
1241.52	0.74141
1243.13	0.599954
1244.74	0.954133
1246.35	0.686361
1247.96	0.955353
1249.57	1.01645
1251.18	1.03576
1252.78	0.972562
1254.39	0.537937
1256	0.538963
1257.6	0.872459
1259.21	0.297035
1260.82	0.922904
1262.42	0.535165
1264.03	0.499338
1265.63	0.939641
1267.24	0.902595
1268.84	0.739996
1270.45	0.161421
1272.05	0.804889
1273.65	0.659225
1275.26	0.139309
1276.86	0.447444
1278.46	0.485121
1280.06	0.37708
1281.67	0.806876
1283.27	1.7536
1284.87	0.549538
1286.47	0.815156
1288.07	0.420501
1289.67	0.502379
1291.27	1.28743
1292.87	0.543291
1294.47	0.500887
1296.07	1.13853
1297.67	1.03058
1299.27	0.714395
1300.87	1.28329
1302.47	2.05571
1304.06	1.07621
1305.66	1.26955
1307.26	1.68777
1308.85	1.11995
1310.45	2.02886
1312.05	1.68753
1313.64	1.96139
1315.24	1.97039
1316.83	1.47018
1318.43	0.930684
1320.02	1.32967
1321.62	1.70656
1323.21	1.30751
1324.8	1.06975
1326.4	1.54132
1327.99	1.60545
1329.59	1.71053
1331.18	1.57466
1332.77	1.11859
1334.36	1.57466
1335.95	1.04346
1337.54	1.21949
1339.14	0.729384
1340.73	1.82919
1342.32	2.09933
1343.91	2.02458
1345.5	1.2659
1347.09	1.45152
1348.67	1.13808
1350.26	2.12916
1351.85	1.20209
1353.44	1.33823
1355.03	1.35604
1356.62	0.874804
1358.2	1.13246
1359.79	1.08924
1361.38	0.845129
1362.96	1.07897
1364.55	1.13265
1366.14	1.66474
1367.72	1.20155
1369.31	1.31758
1370.89	0.917923
1372.48	1.85332
1374.06	1.23806
1375.64	1.3997
1377.23	0.984458
1378.81	1.00637
1380.39	1.10663
1381.98	1.06599
1383.56	0.964058
1385.14	1.13923
1386.72	0.558672
1388.3	0.872439
1389.89	0.750045
1391.47	1.08524
1393.05	0.925302
1394.63	1.36096
1396.21	1.18151
1397.79	0.64447
1399.37	1.4342
1400.95	1.23171
1402.52	0.434826
1404.1	1.34014
1405.68	1.39488
1407.26	1.2728
1408.84	0.519647
1410.42	0.458963
1411.99	0.556267
1413.57	0.77125
1415.15	0.767914
1416.72	0.428267
1418.3	1.36962
1419.87	0.59651
1421.45	0.770567
1423.02	0.907052
1424.6	0.730628
1426.17	0.969127
1427.75	1.03121
1429.32	1.68348
1430.89	1.62603
1432.47	1.9213
1434.04	1.42822
1435.61	1.46583
1437.18	1.73959
1438.76	2.60384
1440.33	1.99513
1441.9	1.5647
1443.47	1.66584
1445.04	2.14093
1446.61	1.51563
1448.18	1.85363
1449.75	1.8382
1451.32	1.31215
1452.89	3.30389
1454.46	1.91364
1456.03	1.74262
1457.6	1.90529
1459.16	2.00733
1460.73	2.10712
1462.3	1.51581
1463.87	2.57467
1465.43	1.90136
1467	1.11041
1468.56	1.98958
1470.13	1.20098
1471.7	0.904879
1473.26	0.649505
1474.83	0.650132
1476.39	1.53361
1477.96	1.24074
1479.52	0.497022
1481.08	1.24295
1482.65	0.753971
1484.21	1.40142
1485.77	0.500593
1487.34	0.97021
1488.9	0.0478926
1490.46	1.64837
1492.02	4.02586
1493.58	3.29015
1495.15	0.504779
1496.71	0.783897
1498.27	0.867384
1499.83	0.290508
1501.39	1.017
1502.95	0.0174122
1504.51	0.0865145
1506.07	0.117127
1507.63	0.243657
1509.18	-0.0176659
1510.74	0.99375
1512.3	0.845263
1513.86	0.561907
1515.41	0.260263
1516.97	0.363252
1518.53	0.160131
1520.08	0.4371
1521.64	0.273654
1523.2	0.626259
1524.75	0.175256
1526.31	1.03978
1527.86	0.282302
1529.42	0.343856
1530.97	0.538074
1532.52	0.0118427
1534.08	0.813652
1535.63	1.23653
1537.19	0.620501
1538.74	-0.0499601
1540.29	0.29965
1541.84	0.55452
1543.4	0.357102
1544.95	0.329047
1546.5	0.84547
1548.05	0.741456
1549.6	1.06871
1551.15	1.11464
1552.7	1.38563
1554.25	1.13401
1555.8	1.16471
1557.35	0.693659
1558.9	0.897216
1560.45	0.748623
1562	1.18039
1563.54	1.52037
1565.09	1.02156
1566.64	1.54916
1568.19	0.658154
1569.73	1.65172
1571.28	1.0956
1572.83	1.37909
1574.37	1.21439
1575.92	1.27373
1577.47	1.46402
1579.01	1.74821
1580.56	1.65984
1582.1	1.16159
1583.64	1.18724
1585.19	1.71846
1586.73	2.15728
1588.28	1.30612
1589.82	1.87609
1591.36	1.17306
1592.9	1.27411
1594.45	1.2812
1595.99	1.19466
1597.53	1.83953
1599.07	2.22325
1600.61	1.33269
1602.15	1.51165
1603.69	1.84103
1605.23	1.88809
1606.77	1.50118
1608.31	1.43113
1609.85	1.41454
1611.39	1.05679
1612.93	1.46681
1614.47	1.06764
1616.01	1.21232
1617.55	1.63854
1619.08	1.2227
1620.62	1.37096
1622.16	0.715775
1623.7	0.960496
1625.23	1.50473
1626.77	1.31795
1628.3	1.35416
1629.84	1.44466
1631.37	1.08516
1632.91	1.30457
1634.44	1.03872
1635.98	1.61375
1637.51	1.33156
1639.05	1.49786
1640.58	1.88776
1642.11	1.79222
1643.65	1.76984
1645.18	1.05738
1646.71	0.97698
1648.24	1.19358
1649.78	0.908967
1651.31	1.20118
1652.84	1.16076
1654.37	1.04763
1655.9	1.69533
1657.43	1.47171
1658.96	1.65477
1660.49	1.18811
1662.02	1.16417
1663.55	1.95219
1665.08	1.24207
1666.61	1.14255
1668.14	0.989176
1669.66	1.39079
1671.19	1.14905
1672.72	1.42464
1674.25	1.14824
1675.77	1.35042
1677.3	0.760102
1678.83	0.867986
1680.35	1.43412
1681.88	1.06148
1683.4	1.34993
1684.93	1.14263
1686.45	0.624246
1687.98	0.583582
1689.5	0.122113
1691.03	0.686768
1692.55	0.171228
1694.07	0.424376
1695.6	0.402834
1697.12	-0.0209713
1698.64	0.084878
1700.17	-0.0106592
1701.69	0.0392132
1703.21	-0.239703
1704.73	-0.0271759
1706.25	0.38461
1707.77	-0.0591002
1709.29	0.0245972
1710.81	0.580097
1712.33	-0.0437708
1713.85	0.855506
1715.37	0.0879097
1716.89	-0.280555
1718.41	0.0201378
1719.93	0.645271
1721.45	-0.444499
1722.97	-0.0895739
1724.49	0.518268
1726	0.334687
1727.52	-0.00906754
1729.04	-0.297398
1730.55	-0.0817242
1732.07	-0.632259
1733.59	0.475362
1735.1	0.0837231
1736.62	0.544466
1738.13	0.116561
1739.65	0.234781
1741.16	0.109331
1742.68	0.0981646
1744.19	-0.40977
1745.7	0.00367165
1747.22	-0.0583382
1748.73	0.231086
1750.24	0.318826
1751.76	0.00853348
1753.27	-0.141092
1754.78	0.0440979
1756.29	0.243892
1757.8	0.331511
1759.31	0.301078
1760.83	0.0972366
1762.34	0.14154
1763.85	-0.0132313
1765.36	0.0221834
1766.87	0.235255
1768.38	0.279942
1769.89	-0.130499
1771.39	-0.158453
1772.9	-0.341981
1774.41	-0.195293
1775.92	-0.364692
1777.43	-0.0434561
1778.94	-0.162498
1780.44	0.363816
1781.95	0.0655651
1783.46	0.688373
1784.96	0.370322
1786.47	0.189005
1787.97	0.0510149
1789.48	0.0847616
1790.99	0.107575
1792.49	0.0450611
1794	0.12523
1795.5	0.18502
1797	-0.162558
1798.51	-0.0259905
1800.01	0.00109768
1801.51	-0.13575
1803.02	0.416612
1804.52	-0.0322695
1806.02	0.165224
1807.53	0.243859
1809.03	0.238861
1810.53	-0.264675
1812.03	0.267945
1813.53	0.0623417
1815.03	-0.109779
1816.53	-0.102974
1818.03	0.292314
1819.53	0.265143
1821.03	0.048378
1822.53	0.314134
1824.03	0.136105
1825.53	0.309193
1827.03	-0.0334473
1828.53	0.371255
1830.02	0.202215
1831.52	0.00971508
1833.02	-0.338636
1834.52	0.161208
1836.01	0.148615
1837.51	0.230961
1839.01	0.0593672
1840.5	-0.207
1842	0.126074
1843.49	0.0792828
1844.99	-0.135283
1846.48	0.0689888
1847.98	-0.130802
1849.47	0.459044
1850.97	0.72517
1852.46	0.178263
1853.95	-0.0916233
1855.45	-0.202765
1856.94	-0.0643253
1858.43	0.102263
1859.93	0.301821
1861.42	0.281976
1862.91	0.13617
1864.4	0.390135
1865.89	-0.179824
1867.38	0.225635
1868.87	0.266035
1870.36	0.137719
1871.85	0.367035
1873.34	0.303829
1874.83	0.158469
1876.32	0.237252
1877.81	0.60418
1879.3	0.157098
1880.79	-0.0103292
1882.28	-0.258493
1882.52	-0.306923
1884.02	0.07619
1885.51	-0.151764
1887.01	-0.415311
1888.5	0.295692
1889.99	0.136234
1891.49	0.0128336
1892.98	0.186897
1894.47	-0.00210571
1895.97	0.0888262
1897.46	0.511183
1898.95	0.237781
1900.44	0.311074
1901.93	0.312915
1903.42	-0.0177174
1904.91	-0.228055
1906.4	0.325405
1907.89	0.218377
1909.38	-0.287066
1910.87	0.076479
1912.36	0.26736
1913.85	0.701619
1915.34	0.30349
1916.83	0.390564
1918.32	0.494304
1919.8	0.164293
1921.29	0.47526
1922.78	0.00730228
1924.27	0.284992
1925.75	0.598543
1927.24	0.359365
1928.73	-0.034935
1930.21	0.0901299
1931.7	0.0757723
1933.18	0.423404
1934.67	0.543796
1936.15	0.454501
1937.64	0.415786
1939.12	-0.0208225
1940.61	0.216893
1942.09	0.299978
1943.57	-0.133307
1945.06	0.9177
1946.54	0.0377302
1948.02	0.00248337
1949.51	0.414322
1950.99	0.101487
1952.47	-0.401319
1953.95	0.230793
1955.43	0.294895
1956.91	0.359358
1958.4	0.132771
1959.88	0.095953
1961.36	0.437019
1962.84	0.418095
1964.32	0.159113
1965.8	0.190911
1967.27	0.290353
1968.75	0.269196
1970.23	0.332844
1971.71	0.396096
1973.19	0.151965
1974.67	0.334687
1976.14	0.568495
1977.62	0.614821
1979.1	0.15057
1980.58	0.486365
1982.05	0.430548
1983.53	0.391443
1985	0.453843
1986.48	-0.0268602
1987.95	-0.235694
1989.43	-0.0713148
1990.9	0.195112
1992.38	0.00562
1993.85	0.240074
1995.33	0.255582
1996.8	0.204003
1998.27	0.0341997
1999.75	-0.152855
2001.22	0.435813
2002.69	-0.477757
2004.16	-0.193651
2005.64	0.191636
2007.11	-0.450016
2008.58	-0.0125608
2010.05	0.173113
2011.52	0.106829
2012.99	-0.0772038
2014.46	0.361001
2015.93	0.394353
2017.4	0.123908
2018.87	0.323448
2020.34	0.202922
2021.81	0.300672
2023.28	0.230838
2024.75	-0.223943
2026.22	0.178329
2027.69	0.397573
2029.15	-0.0188532
2030.62	0.203592
2032.09	0.393671
2033.56	0.382987
2035.02	-0.2155
2036.49	0.0587263
2037.96	0.0300703
2039.42	0.454728
2040.89	-0.0114384
2042.35	0.581896
2043.82	0.200892
2045.28	0.0730124
2046.75	0.972848
2048.21	0.273713
2049.67	0.0285149
2051.14	0.422686
2052.6	-0.230283
2054.07	0.210855
2055.53	0.515065
2056.99	0.05896
2058.45	0.124653
2059.92	0.392228
2061.38	0.491691
2062.84	0.55836
2064.3	0.558846
2065.76	0.375371
2067.22	0.748234
2068.68	0.1793
2070.14	0.570075
2071.6	0.674822
2073.06	0.745747
2074.52	-0.463401
2075.98	0.398245
2077.44	0.636442
2078.9	0.0658522
2080.36	0.303066
2081.82	0.37124
2083.27	0.606952
2084.73	0.0676098
2086.19	0.133385
2087.65	0.467439
2089.1	0.044445
2090.56	-0.44555
2092.02	0.424738
2093.47	-0.115469
2094.93	0.0992832
2096.38	-0.156035
2097.84	0.291686
2099.29	0.302934
2100.75	0.363971
2102.2	-0.310077
2103.66	0.0864134
2105.11	-0.033555
2106.56	0.28184
2108.02	0.414733
2109.47	-0.11905
2110.92	0.630452
2112.38	0.0615492
2113.83	0.440579
2115.28	0.384652
2116.73	0.128314
2118.18	0.204965
2119.63	0.166757
2121.09	0.396119
2122.54	-0.0193605
2123.99	0.263357
2125.44	0.629627
2126.89	-0.048974
2128.34	0.249562
2129.79	0.662417
2131.23	0.311595
2132.68	0.25821
2134.13	0.122133
2135.58	0.681483
2137.03	0.465158
2138.48	0.43276
2139.92	0.154531
2141.37	0.0598078
2142.82	-0.132944
2144.27	0.369644
2145.71	0.508691
2147.16	0.0845833
2148.6	0.321996
2150.05	0.0781736
2151.49	0.19773
2152.94	0.084281
2154.38	0.251632
2155.83	0.169961
2157.27	0.187767
2158.72	-0.0587234
2160.16	0.292505
2161.6	0.264585
2163.05	0.122522
2164.49	0.0980196
2165.93	0.389795
2167.38	0.133619
2168.82	0.40799
2170.26	0.248328
2171.7	0.26934
2173.14	0.105308
2174.58	0.621827
2176.03	0.405813
2177.47	0.057066
2178.91	0.124825
2180.35	0.0772018
2181.79	0.346393
2183.23	0.0175972
2184.67	0.470716
2186.1	-0.00754166
2187.54	-0.0200615
2188.98	0.11723
2190.42	-0.311406
2191.86	0.275091
2193.3	0.0284615
2194.73	0.313217
2196.17	0.129908
2197.61	0.510319
2199.05	0.456147
2200.48	0.467371
2201.92	0.495007
2203.35	0.722395
2204.79	0.304035
2206.22	0.16896
2207.66	0.713784
2209.1	0.165025
2210.53	0.691768
2211.97	0.0754824
2213.4	0.715428
2214.83	0.231138
2216.27	0.111288
2217.7	0.586679
2219.13	0.634231
2220.57	0.501356
2222	0.236853
2223.43	0.0870905
2224.86	0.100657
2226.29	-0.00280285
2227.72	0.549761
2229.16	0.787768
2230.59	0.417403
2232.02	0.375328
2233.45	0.333661
2234.88	0.685316
2236.31	0.531186
2237.74	0.150505
2239.17	0.131292
2240.6	0.130549
2242.03	0.523174
2243.45	0.57463
2244.88	0.0719137
2246.31	0.220909
2247.74	0.41709
2249.17	0.447755
2250.59	0.687695
2252.02	-0.00252724
2253.45	0.348328
2254.87	0.503891
2256.3	0.433503
2257.73	0.349592
2259.15	0.366209
2260.58	0.175117
2262	0.522212
2263.43	0.449153
2264.85	0.392597
2266.28	0.530707
2267.7	0.310158
2269.13	0.625443
2270.55	0.256314
2271.97	0.684294
2273.4	0.428225
2274.82	0.318741
2276.24	0.584183
2277.67	0.0513544
2279.09	0.251914
2280.51	0.648193
2281.93	0.94666
2283.35	0.364168
2284.77	0.140453
2286.2	0.0964022
2287.62	0.656853
2289.04	0.450481
2290.46	0.0809994
2291.88	0.349052
2293.3	0.355806
2294.72	0.444339
2296.13	0.712904
2297.55	0.179227
2298.97	0.185769
2300.39	-0.233622
2301.81	0.133982
2303.23	0.453032
2304.64	0.312977
2306.06	0.501153
2307.48	0.393362
2308.89	-0.0767784
2310.31	0.438723
2311.73	0.329058
2313.14	0.33445
2314.56	0.142768
2315.98	-0.0647402
2317.39	0.173219
2318.81	0.477858
2320.22	0.799063
2321.64	-0.101744
2323.05	0.150157
2324.46	0.63061
2325.88	0.349401
2327.29	0.429318
2328.7	0.755492
2330.12	0.17559
2331.53	0.157001
2332.94	-0.107232
2334.35	0.0738573
2335.77	0.271581
2337.18	0.139784
2338.59	0.500208
2340	0.366059
2341.41	-0.113864
2342.82	-0.281918
2344.23	0.370193
2345.64	0.202291
2347.05	0.215084
2348.46	0.407951
2349.87	0.485635
2351.28	-0.434799
2352.69	-0.0155373
2354.1	0.108242
2355.51	0.312512
2356.91	-0.29813
2358.32	0.474985
2359.73	0.255489
2361.14	0.361169
2362.54	-0.0359898
2363.95	0.215389
2365.36	0.304379
2366.76	0.134813
2368.17	-0.0176039
2369.58	-0.34608
2370.98	0.326749
2372.39	-0.0147448
2373.79	-0.177678
2375.2	-0.0181322
2376.6	-0.0843725
2378	0.0090971
2379.41	-0.0759773
2380.81	0.0780945
2382.22	-0.0262642
2383.62	-0.0192537
2385.02	-0.0924931
2386.43	-0.253013
2387.83	-0.412221
2389.23	0.362854
2390.63	0.24583
2392.03	-0.156281
2393.44	-0.222688
2394.84	0.395733
2396.24	-0.225619
2397.64	0.282535
2399.04	0.600376
2400.44	0.140234
2401.84	0.061801
2403.24	0.0628462
2404.64	0.174632
2406.04	0.0314426
2407.44	-0.0174551
2408.84	0.297601
2410.23	0.358345
2411.63	0.197466
2413.03	0.0217943
2414.43	-0.326537
2415.83	0.134162
2417.22	-0.195288
2418.62	0.204541
2420.02	0.50989
2421.41	0.640985
2422.81	0.0112658
2424.21	0.490197
2425.6	0.351298
2427	0.418968
2428.39	0.154727
2429.79	0.414719
2431.18	0.421841
2432.58	-0.221718
2433.97	-0.421733
2435.36	-0.146453
2436.76	0.222711
2438.15	0.399559
2439.54	0.368405
2440.94	0.542676
2442.33	-0.0457506
2443.72	0.222825
2445.12	0.0310068
2446.51	0.04529
2447.9	0.0435677
2449.29	0.184388
2450.68	0.262002
2452.07	0.498422
2453.46	0.118471
2454.85	-0.0705252
2456.24	0.231662
2457.64	0.122899
2459.02	0.187963
2460.41	-0.111346
2461.8	-0.0161371
2463.19	0.410076
2464.58	0.187554
2465.97	0.312315
2467.36	0.168509
2468.75	0.245669
2470.13	0.322536
2471.52	0.367292
2472.91	0.269458
2474.3	0.0921841
2475.68	-0.211378
2477.07	0.176702
2478.45	0.0772562
2479.84	0.119379
2481.23	0.3341
2482.61	0.172394
2484	0.0730572
2485.38	-0.0270605
2486.77	0.106143
2488.15	0.300261
2489.54	0.415143
2490.92	-0.170814
2492.3	-0.0707731
2493.69	-0.000871658
2495.07	-0.270937
2496.45	-0.105203
2497.84	-0.140154
2499.22	0.026453
2500.6	0.347144
2501.98	-0.214447
2503.36	0.0113697
2504.75	0.204926
2506.13	-0.188113
2507.51	0.342894
2508.89	0.257919
2510.27	-0.0567541
2511.65	0.412363
2513.03	-0.0535574
2514.41	0.339957
2515.79	0.0451069
2517.17	-0.294407
2518.55	-0.204877
2519.93	0.0986814
2521.3	0.019825
2522.68	0.260878
2524.06	-0.00264168
2525.44	0.0230265
2526.82	0.261554
2528.19	-0.230199
2529.57	0.16184
2530.95	0.403198
2532.32	0.0840845
2533.7	0.024869
2535.08	-0.0791311
2536.45	0.333375
2537.83	0.0463209
2539.2	-0.423921
2540.58	0.137658
2541.95	0.34939
2543.33	-0.0304317
2544.7	-0.28778
2546.08	-0.194897
2547.45	0.1875
2548.82	-0.187647
2550.2	0.0137863
2551.57	0.260298
2552.94	0.0505476
2554.32	0.401169
2555.69	-0.068594
2557.06	0.280324
2558.43	0.189176
2559.8	0.371242
2561.18	0.0233603
2562.55	0.191538
2563.92	0.254266
2565.29	0.272017
2566.66	-0.422213
2568.03	0.323354
2569.4	0.083868
2570.77	0.102034
2572.14	-0.0616417
2573.51	0.290157
2574.88	0.566313
2576.25	0.28161
2577.61	0.118075
2578.98	0.0452681
2580.35	-0.467651
2581.72	-0.328972
2583.09	0.3248
2584.45	0.0534439
2585.82	0.267157
2587.19	0.359713
2588.55	0.316072
2589.92	0.0755615
2591.29	0.213799
2592.65	0.00301361
2594.02	-0.238849
2595.38	0.260373
2596.75	0.0163898
2598.11	-0.0769224
2599.48	0.0864992
2600.84	-0.127902
2602.21	-0.0545874
2603.57	-0.373096
2604.93	0.0939121
2606.3	0.334539
2607.66	-0.0285044
2609.02	0.0750856
2610.39	0.147131
2611.75	-0.369312
2613.11	0.166467
2614.47	-0.185881
2615.83	0.302536
2617.19	-0.0642271
2618.56	-0.204977
2619.92	0.283819
2621.28	0.578287
2622.64	-0.00863457
2624	0.16704
2625.36	-0.090313
2626.72	0.025219
2628.08	-0.0534725
2629.44	0.00164604
2630.8	0.160607
2632.15	0.705721
2633.51	-0.0572367
2634.87	-0.433098
2636.23	0.170408
2637.59	0.135762
2638.94	-0.120853
2640.3	-0.0366106
2641.66	0.0477905
2643.02	-0.310808
2644.37	0.276102
2645.73	0.331034
2647.09	0.164325
2648.44	-0.179615
2649.8	-0.0529003
2651.15	0.0287447
2652.51	0.109894
2653.86	-0.0142622
2655.22	-0.00545311
2656.57	-0.0833473
2657.93	0.367029
2659.28	0.276628
2660.63	-0.281105
2661.99	0.126114
2663.34	0.517657
2664.69	0.207191
2666.05	-0.0161419
2667.4	0.0226955
2668.75	0.192427
2670.1	0.318545
2671.45	0.183361
2672.81	0.45591
2674.16	-0.200555
2675.51	0.0587187
2676.86	-0.0153151
2678.21	0.186991
2679.56	0.3901
2680.91	0.449327
2682.26	-0.128027
2683.61	0.0788221
2684.96	0.112753
2686.31	0.408401
2687.66	0.312182
2689	0.548526
2690.35	0.303957
2691.7	0.347723
2693.05	0.0415907
2694.4	-0.265288
2695.74	0.036664
2697.09	0.0202913
2698.44	0.121167
2699.79	0.165902
2701.13	0.415274
2702.48	0.289817
2703.83	0.121964
2705.17	0.316976
2706.52	-0.140455
2707.86	0.141486
2709.21	0.0893488
2710.55	0.486958
2711.9	0.376115
2713.24	0.00348377
2714.58	0.342817
2715.93	0.493276
2717.27	0.396416
2718.62	0.619293
2719.96	-0.00209522
2721.3	0.132595
2722.65	0.354138
2723.99	0.225863
2725.33	0.577457
2726.67	0.521079
2728.01	0.231503
2729.35	0.392845
2730.7	0.42305
2732.04	0.234992
2733.38	-0.142029
2734.72	-0.0824118
2736.06	0.384664
2737.4	-0.268032
2738.74	-0.048089
2740.08	0.069787
2741.42	-0.147283
2742.76	-0.074194
2744.1	0.259725
2745.43	-0.0900335
2746.77	0.605584
2748.11	0.0956516
2749.45	-0.0365534
2750.79	0.136135
2752.12	0.0480127
2753.46	0.394994
2754.8	0.220378
2756.14	-0.171229
2757.47	0.393225
2758.81	-0.0122204
2760.14	0.350012
2761.48	0.30747
2762.81	0.33782
2764.15	-0.16683
2765.49	-0.29526
2766.82	0.429425
2768.16	0.0825462
2769.49	0.0670519
2770.82	0.194545
2772.16	0.0171547
2773.49	-0.103347
2774.82	-0.310704
2776.16	0.260072
2777.49	0.00994587
2778.82	-0.325468
2780.16	-0.28622
2781.49	0.169774
2782.82	0.39565
2784.15	0.492101
2785.48	0.0151205
2786.82	-0.246184
2788.15	-0.0199537
2789.48	-0.0649729
2790.81	-0.0517941
2792.14	-0.0234957
2793.47	-0.0233068
2794.8	0.134145
2796.13	0.0196972
2797.46	0.247549
2798.79	0.217633
2800.12	0.458449
2801.44	0.170946
2802.77	-0.116484
2804.1	0.223139
2805.43	0.248589
2806.76	0.572251
2808.08	0.212069
2809.41	0.576781
2810.74	0.287724
2812.07	0.240998
2813.39	0.309031
2814.72	0.208455
2816.05	0.123677
2817.37	0.167686
2818.7	0.127288
2820.02	0.186119
2821.35	0.627144
2822.67	0.500504
2824	0.514899
2825.32	0.217287
2826.65	0.0048399
2827.97	0.316883
2829.3	0.26137
2830.62	0.107282
2831.94	0.590429
2833.26	0.478977
2834.59	0.423812
2835.91	0.297377
2837.23	0.580746
2838.56	0.566462
2839.88	0.665096
2841.2	0.876899
2842.52	1.23041
2843.84	0.708276
2845.16	0.97842
2846.48	1.34815
2847.8	0.898577
2849.12	1.6221
2850.45	1.14394
2851.77	1.15995
2853.08	1.44393
2854.4	1.51547
2855.72	1.12055
2857.04	1.65808
2858.36	1.60228
2859.68	1.84305
2861	1.78704
2862.32	1.33542
2863.63	2.59139
2864.95	1.72991
2866.27	1.92684
2867.59	2.50471
2868.9	2.30731
2870.22	2.20912
2871.54	2.71725
2872.85	2.52025
2874.17	2.57614
2875.48	2.6872
2876.8	2.36055
2878.11	3.49675
2879.43	2.67659
2880.74	2.43395
2882.06	3.03536
2883.37	2.76668
2884.69	2.85023
2886	2.8642
2887.31	2.79403
2888.63	3.15839
2889.94	2.86242
2891.25	3.04247
2892.57	3.01148
2893.88	2.71416
2895.19	2.89358
2896.5	3.21368
2897.82	3.75861
2899.13	3.42302
2900.44	3.43813
2901.75	3.36981
2903.06	3.24578
2904.37	2.996
2905.68	3.7396
2906.99	3.14101
2908.3	3.32655
2909.61	3.66691
2910.92	3.88206
2912.23	4.13927
2913.54	3.98975
2914.85	4.34272
2916.16	3.83986
2917.46	4.39917
2918.77	4.60731
2920.08	4.61933
2921.39	4.57611
2922.7	4.60414
2924	4.60568
2925.31	4.99981
2926.62	4.97527
2927.92	4.97872
2929.23	4.77205
2930.54	5.05407
2931.84	5.18178
2933.15	5.6726
2934.45	5.18492
2935.76	4.85116
2937.06	5.64957
2938.37	4.75722
2939.67	4.49403
2940.98	4.98593
2942.28	4.87788
2943.58	4.25393
2944.89	4.12044
2946.19	4.47753
2947.49	4.37381
2948.8	3.58391
2950.1	3.88437
2951.4	3.58101
2952.7	3.55573
2954.01	3.389
2955.31	3.12393
2956.61	3.68557
2957.91	3.40943
2959.21	3.41597
2960.51	3.28523
2961.81	3.21248
2963.11	2.95801
2964.41	3.37649
2965.71	2.76854
2967.01	2.94533
2968.31	2.99434
2969.61	2.62071
2970.91	3.06254
2972.21	3.0406
2973.51	2.94861
2974.81	2.80024
2976.1	2.22872
2977.4	2.81037
2978.7	2.70028
2980	1.94085
2981.29	2.36251
2982.59	2.23467
2983.89	1.92448
2985.18	1.9529
2986.48	2.20766
2987.78	2.12664
2989.07	1.96234
2990.37	1.55935
2991.66	1.91473
2992.96	1.52413
2994.25	1.25874
2995.55	1.512
2996.84	1.60981
2998.14	1.49677
2999.43	0.921158
3000.73	1.35606
3002.02	0.796044
3003.31	0.937399
3004.61	0.700515
3005.9	0.925594
3007.19	0.547913
3008.48	0.869235
3009.77	1.02143
3011.07	0.753389
3012.36	0.582985
3013.65	0.901055
3014.94	0.21536
3016.23	0.381054
3017.52	0.491573
3018.81	0.435489
3020.1	0.351686
3021.4	0.503757
3022.68	0.710242
3023.97	0.387969
3025.26	0.287251
3026.55	0.394187
3027.84	0.0309048
3029.13	0.374436
3030.42	0.442649
3031.71	0.180861
3033	0.320678
3034.28	0.157081
3035.57	0.296493
3036.86	0.172413
3038.15	0.363459
3039.43	0.11174
3040.72	0.161306
3042.01	0.0450258
3043.29	0.175656
3044.58	0.361508
3045.87	0.439202
3047.15	0.28678
3048.44	0.109684
3049.72	0.467165
3051.01	-0.210988
3052.29	0.339849
3053.58	0.413032
3054.86	0.703727
3056.15	0.161176
3057.43	0.558437
3058.71	0.695514
3060	0.15128
3061.28	0.50612
3062.56	0.208692
3063.84	0.728681
3065.13	0.312021
3066.41	0.766912
3067.69	0.0399799
3068.97	-0.0204535
3070.26	0.476411
3071.54	0.0883026
3072.82	0.21569
3074.1	0.273672
3075.38	0.208267
3076.66	0.536328
3077.94	-0.0449877
3079.22	0.0400639
3080.5	0.0180168
3081.78	-0.382299
3083.06	-0.143863
3084.34	-0.0946751
3085.62	0.0631084
3086.9	0.0711145
3088.18	0.254762
3089.45	0.24757
3090.73	-0.112987
3092.01	-0.229425
3093.29	0.00692177
3094.56	0.14848
3095.84	-0.279255
3097.12	0.350556
3098.4	-0.0636253
3099.67	0.050611
3100.95	0.178165
3102.22	0.0212426
3103.5	-0.0135365
3104.78	0.0739722
3106.05	0.365134
3107.33	0.372964
3108.6	0.341234
3109.88	0.0939894
3111.15	0.0506806
3112.43	-0.181581
3113.7	0.0335264
3114.97	0.126715
3116.25	0.151589
3117.52	-0.0279536
3118.79	0.130348
3120.07	0.504352
3121.34	0.131416
3122.61	0.0561523
3123.88	0.332855
3125.16	0.325065
3126.43	-0.088357
3127.7	0.229603
3128.97	0.507227
3130.24	-0.283173
3131.51	0.346189
3132.79	0.218209
3134.06	0.373466
3135.33	0.163421
3136.6	0.209246
3137.87	0.0521326
3139.14	0.00252295
3140.41	-0.0338254
3141.67	-0.0970464
3142.94	0.323726
3144.21	0.274323
3145.48	0.212123
3146.75	0.137208
3148.02	0.170158
3149.29	0.578473
