200.43	1.18181
202.244	1.2125
204.059	1.24462
205.873	-0.132778
207.688	0.800911
209.501	0.712437
211.314	0.185447
213.127	1.0895
214.941	0.802391
216.753	0.684503
218.564	0.808953
220.375	0.0141869
222.186	0.213154
223.999	0.364579
225.809	1.36228
227.618	0.257526
229.428	0.143178
231.236	0.221267
233.045	-0.0871668
234.855	0.111383
236.663	0.335218
238.471	-0.402753
240.278	-0.197903
242.085	-0.0628014
243.891	-0.31209
245.698	0.307098
247.503	0.442021
249.309	0.0666456
251.116	-0.0468626
252.921	0.487974
254.725	-0.16189
256.529	0.36968
258.333	-0.18287
260.136	0.206352
261.939	-0.269628
263.742	0.292128
265.544	-0.301369
267.346	0.912751
269.148	0.0779543
270.949	0.374958
272.75	0.188348
274.55	-0.168779
276.351	0.00254154
278.15	-0.0935173
279.95	-0.0955505
281.749	0.0684633
283.548	0.278059
285.346	0.389383
287.144	0.0674362
288.942	-0.158067
290.739	-0.0230703
292.536	0.113094
294.333	0.179029
296.129	-0.0403624
297.925	0.649787
299.721	-0.475788
301.514	0.214276
303.309	0.71183
305.104	0.730106
306.898	0.150856
308.692	0.525383
310.486	0.0423384
312.279	-0.153211
314.072	0.415103
315.862	0.0805349
317.654	-0.180619
319.446	-0.297314
321.238	0.254481
323.029	0.402265
324.819	0.145015
326.608	0.532142
328.398	1.06279
330.188	0.11103
331.977	-0.125658
333.766	0.257529
335.553	0.327247
337.341	0.46603
339.129	0.817517
340.917	0.401538
342.704	-0.0390739
344.489	-0.312229
346.275	0.466237
348.062	0.671865
349.845	0.639194
351.631	0.582666
353.416	0.978826
355.201	-0.129393
356.984	0.597619
358.768	0.178411
360.552	-0.0273733
362.333	-0.305408
364.116	0.0105076
365.899	-0.411467
367.68	-0.24026
369.462	0.522369
371.243	0.524368
373.023	0.35983
374.804	0.478737
376.585	0.14886
378.363	0.6927
380.143	0.152812
381.923	0.321301
383.7	0.114623
385.479	0.49733
387.256	0.505075
389.034	0.0207815
390.812	0.031003
392.588	0.0185938
394.365	-0.134065
396.14	-0.262896
397.916	0.759155
399.691	0.771082
401.467	0.383157
403.24	0.205814
405.015	0.56776
406.788	0.224198
408.563	0.138256
410.335	-0.487984
412.109	0.0594168
413.88	0.466241
415.654	-0.627908
417.424	0.0385866
419.197	0.0957212
420.967	0.50517
422.739	-0.0714874
424.508	-0.0387325
426.279	-0.24181
428.048	0.141002
429.819	0.757871
431.587	-0.338824
433.356	-0.0973244
435.124	0.684285
436.891	-0.153571
438.66	0.181239
440.426	-0.142725
442.194	0.352178
443.96	-0.070219
445.725	0.231972
447.492	0.438581
449.257	0.761131
451.021	-0.201825
452.787	-0.345791
454.551	0.373722
456.314	0.392827
458.079	-0.403414
459.842	-0.24431
461.604	0.124522
463.368	0.122733
465.13	0.332741
466.891	0.150971
468.654	-0.376421
470.415	0.0977726
472.175	0.829168
473.935	-0.162383
475.696	0.543421
477.456	0.0356607
479.215	1.5057
480.973	0.528561
482.733	0.762801
484.491	0.555855
486.249	0.910217
488.006	0.614808
489.765	1.04455
491.522	0.355734
493.278	0.811358
495.034	0.636623
496.789	-0.100359
498.544	0.332434
500.301	-0.500875
502.056	0.423923
503.81	0.527047
505.564	0.229389
507.317	0.423611
509.071	-0.160121
510.825	0.10106
512.578	0.784043
514.33	0.476951
516.082	0.709373
517.833	0.446338
519.585	0.5584
521.335	0.998383
523.086	0.427492
524.836	0.584529
526.586	0.530213
528.335	0.991789
530.085	0.421618
531.835	0.483946
533.584	0.100514
535.332	0.277609
537.08	0.616364
538.827	0.789369
540.574	0.564096
542.321	1.24676
544.068	0.647735
545.814	-0.112569
547.56	0.335969
549.305	0.250537
551.05	0.0497513
552.795	0.127166
554.54	0.273933
556.282	0.836195
558.025	0.106388
559.769	-0.483253
561.512	0.47105
563.255	0.021369
564.997	0.308541
566.739	0.550125
568.481	0.562781
570.223	0.232459
571.964	-0.325461
573.705	0.24266
575.443	0.514592
577.183	0.559146
578.923	0.0773392
580.663	0.882174
582.402	0.0794287
584.141	-0.0350056
585.879	0.470259
587.615	0.307228
589.353	-0.386456
591.09	-0.0919714
592.828	0.270924
594.564	-0.539759
596.299	-0.0619907
598.035	0.139641
599.771	0.363863
601.506	0.17302
603.242	-0.318193
604.974	0.522654
606.709	0.396102
608.443	0.337592
610.177	0.600266
611.908	0.0833073
613.642	0.301437
615.374	0.588944
617.105	-0.0628614
618.837	0.796757
620.569	-0.0853634
622.3	0.290265
624.03	0.0700197
625.761	0.649554
627.491	-0.163054
629.219	0.191228
630.949	0.182956
632.677	0.0173616
634.406	-0.261137
636.135	0.55566
637.861	0.434665
639.59	0.766936
641.318	1.34619
643.043	1.05551
644.77	1.21906
646.495	0.586503
648.222	0.684562
649.948	0.263669
651.672	0.574554
653.398	0.276505
655.121	0.141298
656.846	-0.49237
658.569	0.400958
660.293	0.428662
662.015	-0.0478325
663.738	0.455011
665.46	0.544011
667.183	0.676492
668.903	0.465013
670.626	0.39147
672.346	0.549022
674.067	0.43485
675.787	0.323066
677.508	0.442028
679.226	0.377715
680.947	1.02482
682.665	0.428498
684.385	-0.0330048
686.102	0.262704
687.821	1.01737
689.538	0.803474
691.254	0.934186
692.972	0.557364
694.688	0.387012
696.406	0.837292
698.121	0.641347
699.835	1.24941
701.552	1.02748
703.266	0.78167
704.98	1.01763
706.695	0.288689
708.409	1.02804
710.121	1.42202
711.836	0.830452
713.548	0.719885
715.26	0.403602
716.973	0.5901
718.685	0.776395
720.396	1.1449
722.108	0.761475
723.818	1.10688
725.528	0.815031
727.238	1.04575
728.949	1.41168
730.658	1.07359
732.367	1.21131
734.075	0.307748
735.785	0.875192
737.493	1.10326
739.2	0.497
740.907	0.974907
742.614	1.00303
744.322	0.69503
746.028	1.28918
747.734	1.32219
749.439	1.19939
751.144	1.61801
752.849	0.913625
754.555	1.60555
756.26	1.03942
757.963	1.10514
759.667	1.30788
761.37	0.94865
763.073	1.3567
764.775	0.974784
766.477	1.44964
768.179	1.53855
769.883	1.96404
771.584	1.25643
773.285	1.4968
774.986	1.84962
776.686	1.59256
778.386	1.72148
780.085	1.96541
781.785	2.16566
783.484	1.75525
785.182	1.16219
786.881	1.87922
788.579	1.52854
790.276	1.17418
791.974	1.6307
793.671	1.94895
795.367	1.86017
797.064	1.65996
798.76	2.34041
800.456	1.62679
802.151	1.63561
803.846	1.55533
805.541	2.08193
807.234	2.49473
808.928	1.51329
810.622	1.81081
812.315	2.1516
814.008	1.79655
815.701	1.17313
817.394	2.13883
819.086	2.11964
820.778	1.45312
822.468	1.83685
824.159	1.79732
825.85	1.73729
827.541	1.96948
829.231	2.44992
830.921	1.88744
832.609	2.39768
834.298	2.08635
835.987	1.8206
837.676	2.38011
839.364	1.50974
841.051	1.68657
842.738	2.15232
844.426	1.52265
846.113	2.07814
847.798	1.40638
849.484	1.81081
851.171	2.19655
852.857	2.13719
854.54	2.46039
856.226	1.5038
857.911	1.51075
859.593	1.42571
861.278	1.2483
862.961	0.956098
864.645	1.54105
866.327	1.38135
868.01	0.27372
869.692	1.35279
871.373	1.39425
873.055	1.52572
874.735	0.619215
876.416	1.06649
878.097	1.46879
879.776	0.245843
881.457	0.71536
883.135	0.980942
884.815	1.74186
886.495	1.4175
888.172	1.18166
889.851	1.57551
891.528	0.772649
893.206	0.5323
894.882	0.943526
896.56	1.46512
898.237	0.726879
899.912	1.13315
901.589	1.47027
903.263	0.888453
904.94	0.82185
906.614	1.15749
908.289	2.11728
909.962	0.693213
911.635	0.630296
913.31	0.701667
914.982	0.90659
916.656	0.955908
918.328	0.539681
920.001	0.899307
921.672	1.03774
923.345	1.11098
925.015	0.45713
926.685	0.358153
928.357	0.724724
930.026	0.386454
931.698	0.755158
933.366	1.03586
935.035	0.963809
936.705	0.649679
938.373	1.08647
940.041	1.01747
941.71	0.927886
943.377	1.47909
945.044	0.220592
946.712	0.638006
948.378	0.258693
950.044	0.782119
951.709	1.03905
953.376	1.0312
955.041	0.077035
956.706	0.559483
958.372	0.737113
960.036	0.940352
961.699	0.748204
963.362	0.577806
965.027	0.582197
966.69	0.00823307
968.352	0.315914
970.014	1.12996
971.676	1.1906
973.339	0.566182
975	0.78394
976.661	0.583699
978.322	0.252472
979.982	0.57467
981.642	0.896635
983.303	0.807586
984.962	1.02612
986.621	1.21992
988.28	1.38924
989.938	1.75582
991.596	0.684645
993.254	0.564246
994.911	0.863513
996.57	0.434546
998.227	0.93213
999.884	0.481325
1001.54	1.10969
1003.2	1.27457
1004.85	0.537172
1006.51	0.350076
1008.16	0.953934
1009.82	1.46957
1011.47	0.757017
1013.12	0.484262
1014.78	0.299936
1016.43	0.816833
1018.08	0.961859
1019.74	0.582847
1021.39	0.64266
1023.04	0.419642
1024.69	0.61312
1026.34	0.15172
1028	0.564462
1029.65	1.32589
1031.3	0.600363
1032.95	1.16143
1034.6	1.63259
1036.25	0.815017
1037.9	1.17403
1039.54	0.48752
1041.19	1.17317
1042.84	1.0335
1044.49	1.4828
1046.14	0.631041
1047.78	0.324904
1049.43	1.08495
1051.08	0.738959
1052.72	0.784927
1054.37	0.8314
1056.02	1.05179
1057.66	0.53281
1059.31	0.513153
1060.95	0.31878
1062.6	0.427901
1064.24	0.166297
1065.88	0.316594
1067.53	0.90021
1069.17	0.504597
1070.81	0.130227
1072.45	-0.482742
1074.1	0.185513
1075.74	0.312224
1077.38	0.158534
1079.02	0.201534
1080.66	0.418938
1082.3	0.22436
1083.94	0.70095
1085.58	-0.0167847
1087.22	0.130314
1088.86	0.513028
1090.5	0.460342
1092.14	0.557619
1093.78	-0.0585575
1095.42	0.534843
1097.05	0.589261
1098.69	0.106732
1100.33	0.57412
1101.96	0.935784
1103.6	0.0947313
1105.24	0.309564
1106.87	1.17029
1108.51	0.546652
1110.14	0.502439
1111.78	0.499352
1113.41	0.408389
1115.05	0.530691
1116.68	0.480475
1118.31	0.49476
1119.95	0.44558
1121.58	0.419078
1123.21	0.714946
1124.85	0.455534
1126.48	0.518195
1128.11	-0.230824
1129.74	0.795904
1131.37	0.583117
1133	0.434883
1134.63	0.222411
1136.26	0.308474
1137.89	0.606938
1139.52	0.391136
1141.15	0.23834
1142.78	0.298462
1144.41	-0.0678864
1146.04	0.654157
1147.66	0.332576
1149.29	-0.0516539
1150.92	0.225207
1152.55	-0.349833
1154.17	-0.690776
1155.8	0.500396
1157.43	0.329006
1159.05	0.00926685
1160.68	-0.0541315
1162.3	-0.073679
1163.93	0.3332
1165.55	0.974599
1167.17	-0.319122
1168.8	0.0656281
1170.42	0.512034
1172.05	-0.0852156
1173.67	0.674906
1175.29	0.583825
1176.91	0.555823
1178.54	-0.0438309
1180.16	0.0567427
1181.78	0.835163
1183.4	0.408426
1185.02	0.151285
1186.64	-0.00103474
1188.26	0.309153
1189.88	0.532112
1191.5	0.310145
1193.12	0.507408
1194.74	0.682098
1196.36	-0.129059
1197.97	0.235589
1199.59	0.413181
1201.21	0.258934
1202.83	0.650999
1204.44	0.0231905
1206.06	0.253815
1207.68	0.652857
1209.29	0.9896
1210.91	-0.030365
1212.52	-0.217784
1214.14	0.405104
1215.75	0.899558
1217.37	0.434016
1218.98	0.965615
1220.59	1.10152
1222.21	0.636582
1223.82	1.18932
1225.43	0.769947
1227.05	0.828942
1228.66	1.48942
1230.27	1.13788
1231.88	1.30483
1233.49	0.749879
1235.1	1.80861
1236.72	1.07074
1238.33	1.51234
1239.94	1.12787
1241.55	0.991661
1243.16	2.05493
1244.76	1.15188
1246.37	1.71659
1247.98	1.05917
1249.59	2.05611
1251.2	1.12846
1252.8	2.04226
1254.41	1.09531
1256.02	1.78377
1257.62	1.81195
1259.23	1.26226
1260.84	2.07955
1262.44	1.61419
1264.05	1.33496
1265.66	1.46949
1267.26	1.89339
1268.86	2.337
1270.47	1.70119
1272.07	2.14214
1273.67	1.17192
1275.28	1.5688
1276.88	1.42555
1278.48	2.02708
1280.09	1.77839
1281.69	2.41948
1283.29	2.29469
1284.89	1.90188
1286.49	2.35808
1288.09	1.96802
1289.69	1.6413
1291.29	2.55511
1292.89	2.33228
1294.49	1.65408
1296.09	1.90392
1297.69	2.41989
1299.29	2.00473
1300.89	2.51588
1302.49	2.38599
1304.08	2.50202
1305.68	2.47293
1307.28	1.84763
1308.88	2.04389
1310.47	1.85035
1312.07	2.23092
1313.66	1.97767
1315.26	2.44135
1316.85	2.57884
1318.45	2.92091
1320.04	2.18184
1321.64	2.13535
1323.23	2.45328
1324.83	2.28039
1326.42	2.32939
1328.01	2.37749
1329.61	2.04146
1331.2	1.97117
1332.79	1.70181
1334.38	1.75877
1335.97	2.44329
1337.56	2.09924
1339.16	2.44008
1340.75	2.33518
1342.34	2.28804
1343.93	2.43941
1345.52	1.86618
1347.11	2.21683
1348.7	1.48723
1350.29	1.70267
1351.87	1.72102
1353.46	1.00223
1355.05	1.5847
1356.64	1.46798
1358.22	1.89016
1359.81	1.89152
1361.4	1.55219
1362.98	1.3119
1364.57	1.72932
1366.16	0.811614
1367.74	1.52879
1369.33	1.37096
1370.91	1.59309
1372.5	2.09545
1374.08	2.00226
1375.67	1.19363
1377.25	1.99689
1378.83	1.00864
1380.41	1.11363
1382	1.67453
1383.58	1.67665
1385.16	1.06133
1386.74	1.16121
1388.33	0.605864
1389.91	1.20304
1391.49	0.749196
1393.07	0.871854
1394.65	1.49076
1396.23	1.29619
1397.81	1.71537
1399.39	1.00353
1400.97	1.02397
1402.55	1.20201
1404.13	1.08305
1405.7	1.0637
1407.28	1.55929
1408.86	1.14668
1410.44	1.38681
1412.01	1.01461
1413.59	0.701179
1415.17	0.781549
1416.74	0.624188
1418.32	0.486232
1419.89	0.880655
1421.47	1.09873
1423.04	0.747657
1424.62	1.28436
1426.19	1.40922
1427.77	1.7119
1429.34	1.62063
1430.91	1.11492
1432.49	1.21799
1434.06	2.26413
1435.63	2.30606
1437.2	1.36515
1438.78	1.66397
1440.35	1.70841
1441.92	2.08812
1443.49	1.7612
1445.06	2.614
1446.63	2.62195
1448.2	2.82666
1449.77	2.442
1451.34	1.88087
1452.91	2.83452
1454.48	3.0219
1456.05	2.97323
1457.62	2.4514
1459.18	2.08525
1460.75	2.52378
1462.32	1.93669
1463.89	2.31153
1465.45	2.17356
1467.02	1.21022
1468.59	2.07422
1470.15	1.8984
1471.72	1.50833
1473.28	1.4336
1474.85	0.948053
1476.41	1.36506
1477.98	1.01753
1479.54	1.16005
1481.1	0.714418
1482.67	0.680341
1484.23	0.587337
1485.79	0.356823
1487.36	1.02646
1488.92	0.480311
1490.48	1.04786
1492.04	0.693117
1493.61	1.23491
1495.17	0.856412
1496.73	1.33482
1498.29	0.79981
1499.85	0.441689
1501.41	0.823331
1502.97	0.66255
1504.53	0.561251
1506.09	0.112021
1507.65	0.185102
1509.2	0.392113
1510.76	0.462255
1512.32	0.646837
1513.88	0.484037
1515.43	0.744724
1516.99	0.237522
1518.55	1.11307
1520.1	1.0105
1521.66	0.870133
1523.22	1.09285
1524.77	0.836832
1526.33	1.36198
1527.88	0.951582
1529.44	1.32121
1530.99	0.68342
1532.54	1.12878
1534.1	1.4604
1535.65	0.865683
1537.21	0.632421
1538.76	0.721341
1540.31	0.904819
1541.86	1.06922
1543.42	0.6874
1544.97	1.18975
1546.52	1.25884
1548.07	1.02737
1549.62	0.777578
1551.17	1.35238
1552.72	1.36547
1554.27	1.66001
1555.82	1.09668
1557.37	2.02944
1558.92	1.48976
1560.47	0.990039
1562.02	0.977333
1563.56	1.67488
1565.11	1.47768
1566.66	1.67243
1568.21	1.92296
1569.75	2.26637
1571.3	2.34798
1572.85	1.77587
1574.39	2.34226
1575.94	2.57266
1577.49	2.78467
1579.03	2.25043
1580.57	2.94923
1582.12	1.83772
1583.66	2.76298
1585.21	2.08263
1586.75	1.92584
1588.3	1.71298
1589.84	2.43528
1591.38	2.35266
1592.92	2.38172
1594.47	2.12945
1596.01	2.1581
1597.55	2.16852
1599.09	2.74226
1600.63	2.45451
1602.17	2.67382
1603.71	2.49899
1605.25	2.26677
1606.79	2.69042
1608.33	2.20954
1609.87	1.89489
1611.41	2.40421
1612.95	1.8965
1614.49	2.00707
1616.03	2.07942
1617.57	1.68361
1619.1	2.13269
1620.64	1.79665
1622.18	2.30506
1623.72	1.78466
1625.25	1.95705
1626.79	1.96002
1628.32	1.77432
1629.86	1.41876
1631.39	1.92202
1632.93	2.66698
1634.46	1.80604
1636	2.02914
1637.53	2.47696
1639.07	1.73207
1640.6	2.72098
1642.13	2.23663
1643.67	2.49616
1645.2	2.60499
1646.73	2.82404
1648.26	2.15044
1649.8	2.10957
1651.33	2.44107
1652.86	2.60684
1654.39	3.03346
1655.92	2.7563
1657.45	2.62749
1658.98	2.38666
1660.51	2.2555
1662.04	1.86369
1663.57	2.43227
1665.1	2.44509
1666.63	2.49521
1668.16	2.86013
1669.68	2.74727
1671.21	2.23109
1672.74	2.08503
1674.27	2.2711
1675.79	2.25429
1677.32	2.45734
1678.85	2.21735
1680.37	2.23367
1681.9	1.86313
1683.42	1.65789
1684.95	1.30618
1686.47	1.35876
1688	0.880271
1689.52	1.09886
1691.05	1.39075
1692.57	0.694197
1694.09	1.02257
1695.62	1.56979
1697.14	0.818804
1698.66	0.323913
1700.18	0.467881
1701.71	0.957586
1703.23	0.534708
1704.75	1.16801
1706.27	-0.019763
1707.79	0.739328
1709.31	0.970257
1710.83	0.837904
1712.35	0.470249
1713.87	0.393259
1715.39	0.895746
1716.91	0.49293
1718.43	-0.0358896
1719.95	0.104212
1721.47	0.117954
1722.99	0.420725
1724.5	0.309786
1726.02	0.128386
1727.54	0.218604
1729.06	-0.283994
1730.57	0.239793
1732.09	0.436329
1733.61	0.456261
1735.12	0.433015
1736.64	0.497227
1738.15	0.270131
1739.67	0.365735
1741.18	0.178542
1742.7	-0.18472
1744.21	-0.198956
1745.72	-0.0907116
1747.24	-0.113837
1748.75	-0.0498247
1750.26	-0.00206757
1751.77	0.337833
1753.29	0.309909
1754.8	0.0610142
1756.31	0.222754
1757.82	-0.290157
1759.33	0.0466433
1760.84	0.316482
1762.36	-0.312552
1763.87	-0.0409708
1765.38	0.150718
1766.89	-0.058075
1768.4	0.193021
1769.91	-0.100328
1771.41	-0.162457
1772.92	0.0101652
1774.43	0.0195885
1775.94	0.138345
1777.45	0.0821276
1778.95	0.448789
1780.46	-0.0557423
1781.97	-0.0481949
1783.48	0.324648
1784.98	0.47716
1786.49	-0.266474
1787.99	0.0352621
1789.5	-0.222206
1791.01	0.0215874
1792.51	0.0631304
1794.01	0.2159
1795.52	-0.361849
1797.02	0.259935
1798.53	-0.286386
1800.03	0.350572
1801.53	-0.018384
1803.04	-0.106611
1804.54	-0.223824
1806.04	0.0457344
1807.54	-0.0773439
1809.05	0.0545998
1810.55	-0.0902166
1812.05	-0.024889
1813.55	0.0375137
1815.05	-0.06709
1816.55	-0.0417633
1818.05	0.0869703
1819.55	0.0723419
1821.05	-0.154102
1822.55	0.157489
1824.05	-0.085433
1825.55	0.255799
1827.05	0.274394
1828.55	0.167093
1830.04	0.0496941
1831.54	0.182886
1833.04	0.154712
1834.54	0.157379
1836.03	0.157498
1837.53	0.121541
1839.03	0.081954
1840.52	0.050108
1842.02	0.097496
1843.51	0.404156
1845.01	0.045723
1846.5	0.0793886
1848	-0.223357
1849.49	-0.0266695
1850.99	0.167456
1852.48	0.138954
1853.97	0.0735102
1855.47	-0.112414
1856.96	0.168342
1858.45	-0.0741062
1859.94	0.0522747
1861.44	-0.224049
1862.93	-0.244978
1864.42	0.141007
1865.91	0.110692
1867.4	-0.0803452
1868.89	-0.075448
1870.38	0.0708113
1871.87	0.226505
1873.36	0.157631
1874.85	0.0237856
1876.34	-0.113155
1877.83	-0.00226116
1879.32	0.162505
1880.81	-0.0570879
1882.3	-0.0959387
1882.57	-0.0941324
1884.07	-0.147044
1885.56	0.147721
1887.06	0.232247
1888.55	-0.0494175
1890.04	0.0174112
1891.54	0.154847
1893.03	0.294001
1894.52	-0.155951
1896.02	0.178179
1897.51	0.356793
1899	0.274386
1900.49	-0.10497
1901.98	0.453238
1903.47	0.313587
1904.96	-0.540292
1906.45	0.0826216
1907.94	0.0797377
1909.43	0.0601864
1910.92	0.301949
1912.41	0.457841
1913.9	0.0246181
1915.39	0.215886
1916.88	0.181314
1918.37	0.024827
1919.85	-0.44393
1921.34	0.0921259
1922.83	0.385902
1924.32	0.230426
1925.8	0.128201
1927.29	0.0790844
1928.78	0.273055
1930.26	0.172617
1931.75	-0.13657
1933.23	-0.343425
1934.72	0.0364456
1936.2	-0.0875568
1937.69	0.0812273
1939.17	0.0592432
1940.66	0.00309753
1942.14	0.34488
1943.63	-0.140473
1945.11	-0.262408
1946.59	0.133276
1948.07	0.114834
1949.56	0.302276
1951.04	0.195719
1952.52	-0.101022
1954	-0.140071
1955.48	-0.0588579
1956.96	-0.14904
1958.45	0.362311
1959.93	0.0848694
1961.41	-0.0716991
1962.89	0.0805769
1964.37	0.181108
1965.85	0.298095
1967.32	0.0547657
1968.8	0.392538
1970.28	0.558273
1971.76	0.228148
1973.24	0.20565
1974.72	-0.106645
1976.19	0.00778294
1977.67	-0.0480852
1979.15	0.372805
1980.63	0.163745
1982.1	0.0907526
1983.58	-0.16932
1985.05	-0.242682
1986.53	0.413063
1988	-0.152359
1989.48	0.0285044
1990.95	0.209866
1992.43	0.32441
1993.9	0.389254
1995.38	-0.052001
1996.85	-0.289769
1998.32	0.181857
1999.8	0.230608
2001.27	0.244888
2002.74	0.359793
2004.22	0.103571
2005.69	-0.354211
2007.16	0.0313501
2008.63	0.232475
2010.1	0.148262
2011.57	0.0983152
2013.04	-0.00207424
2014.51	0.115851
2015.98	-0.355978
2017.45	0.348772
2018.92	-0.141513
2020.39	0.510606
2021.86	0.120733
2023.33	0.554093
2024.8	0.417532
2026.27	0.097908
2027.74	0.232837
2029.2	-0.150538
2030.67	0.423667
2032.14	0.0930443
2033.61	0.618885
2035.07	0.372551
2036.54	0.260002
2038.01	0.113179
2039.47	0.251568
2040.94	-0.484173
2042.4	-0.143719
2043.87	-0.121831
2045.33	0.405868
2046.8	0.194128
2048.26	-0.0343647
2049.72	0.124157
2051.19	0.669489
2052.65	0.268924
2054.12	0.473371
2055.58	0.0181789
2057.04	0.337154
2058.5	-0.406546
2059.97	-0.105495
2061.43	0.263124
2062.89	0.329432
2064.35	0.380008
2065.81	0.347548
2067.27	0.534812
2068.73	0.790083
2070.19	-0.0988932
2071.65	0.611331
2073.11	0.361822
2074.57	-0.0395908
2076.03	0.417417
2077.49	0.55408
2078.95	0.521884
2080.41	0.23659
2081.87	0.33797
2083.32	0.522729
2084.78	0.353174
2086.24	0.569803
2087.7	0.852807
2089.15	0.563679
2090.61	0.946483
2092.07	0.758008
2093.52	0.234035
2094.98	0.53206
2096.43	0.577774
2097.89	0.656165
2099.34	0.783946
2100.8	0.626903
2102.25	0.904819
2103.71	0.398507
2105.16	0.895596
2106.61	0.7432
2108.07	0.492017
2109.52	0.908292
2110.97	0.906945
2112.43	0.904056
2113.88	0.416289
2115.33	1.22527
2116.78	0.951307
2118.23	1.20973
2119.68	1.36978
2121.13	1.20017
2122.59	1.04957
2124.04	1.36501
2125.49	1.43242
2126.94	1.86422
2128.39	1.3995
2129.83	1.71217
2131.28	1.80769
2132.73	1.9518
2134.18	1.56637
2135.63	1.77757
2137.08	1.75902
2138.53	1.87497
2139.97	1.51396
2141.42	1.50194
2142.87	2.13624
2144.31	2.04391
2145.76	2.21646
2147.21	2.07417
2148.65	2.22911
2150.1	2.6978
2151.54	2.46946
2152.99	2.55463
2154.43	2.17483
2155.88	2.82166
2157.32	2.62367
2158.77	2.65855
2160.21	2.56264
2161.65	2.36952
2163.1	2.75886
2164.54	2.96812
2165.98	2.54784
2167.43	2.54217
2168.87	2.51848
2170.31	2.60891
2171.75	2.09781
2173.19	2.36609
2174.64	2.5661
2176.07	2.915
2177.52	2.21655
2178.96	2.89917
2180.4	2.61872
2181.84	2.22297
2183.28	2.32674
2184.72	2.59721
2186.15	2.6017
2187.59	2.67277
2189.03	2.76056
2190.47	2.41557
2191.91	2.76934
2193.35	2.35633
2194.78	2.07479
2196.22	2.17392
2197.66	2.2705
2199.09	2.04892
2200.53	2.20852
2201.97	1.83647
2203.4	2.21234
2204.84	1.89273
2206.27	1.95589
2207.71	1.6883
2209.14	1.68563
2210.58	1.4172
2212.01	1.61101
2213.45	1.44006
2214.88	1.03797
2216.31	1.80908
2217.75	1.34339
2219.18	1.01151
2220.61	1.10946
2222.05	1.47117
2223.48	1.48579
2224.91	1.56458
2226.34	1.13113
2227.78	1.07455
2229.21	1.26294
2230.64	1.12194
2232.07	1.06295
2233.5	0.497042
2234.93	0.995971
2236.36	0.874548
2237.79	1.37547
2239.22	0.686961
2240.65	0.751585
2242.08	0.818211
2243.5	0.592634
2244.93	0.726259
2246.36	0.418713
2247.79	0.468256
2249.22	0.515388
2250.64	0.820661
2252.07	0.66774
2253.5	0.806888
2254.92	0.523754
2256.35	0.486231
2257.78	0.646104
2259.2	0.630625
2260.63	0.537295
2262.05	0.690084
2263.48	0.812304
2264.9	0.203653
2266.33	0.34188
2267.75	0.64205
2269.18	0.632219
2270.6	0.572667
2272.02	0.724203
2273.45	0.159019
2274.87	0.750275
2276.29	0.478469
2277.71	0.516384
2279.14	0.619598
2280.56	0.184669
2281.98	0.140848
2283.4	0.031661
2284.82	0.640494
2286.24	0.384764
2287.66	0.602811
2289.08	-0.0442009
2290.5	0.27281
2291.92	-0.112553
2293.34	0.630349
2294.76	0.53942
2296.18	0.41558
2297.6	0.373453
2299.02	0.249438
2300.44	0.174693
2301.86	0.280566
2303.27	-0.039711
2304.69	0.296445
2306.11	0.271543
2307.53	0.295527
2308.94	0.138122
2310.36	0.341727
2311.78	0.0186634
2313.19	0.139646
2314.61	0.0636339
2316.02	0.334161
2317.44	0.111531
2318.85	-0.259239
2320.27	0.0125771
2321.68	0.0524492
2323.1	-0.0582151
2324.51	0.241228
2325.92	0.472132
2327.34	0.437177
2328.75	0.813454
2330.16	0.530718
2331.58	0.348061
2332.99	0.413646
2334.4	-0.391928
2335.81	0.0862303
2337.23	-0.291539
2338.64	0.332751
2340.05	-0.12925
2341.46	0.0979834
2342.87	-0.332018
2344.28	0.0421057
2345.69	-0.141176
2347.1	0.413115
2348.51	0.0828447
2349.92	-0.00205898
2351.33	0.0103941
2352.74	-0.386521
2354.15	-0.228924
2355.55	0.0254459
2356.96	0.246378
2358.37	-0.330134
2359.78	-0.141685
2361.19	-0.196973
2362.59	-0.0738192
2364	-0.129194
2365.41	0.203759
2366.81	0.0998878
2368.22	0.271354
2369.62	-0.0725393
2371.03	-0.0598602
2372.44	-0.0780058
2373.84	0.146461
2375.24	-0.176139
2376.65	-0.0483847
2378.05	0.206716
2379.46	0.315174
2380.86	-0.124146
2382.26	-0.163182
2383.67	-0.427261
2385.07	0.108841
2386.47	0.116882
2387.88	0.125897
2389.28	0.423175
2390.68	-0.282301
2392.08	0.0811205
2393.48	0.0792093
2394.89	-0.00132561
2396.29	0.0461407
2397.69	0.173716
2399.09	-0.0794888
2400.49	-0.109657
2401.89	0.162294
2403.29	0.116585
2404.69	0.0228481
2406.09	0.0393353
2407.48	0.150024
2408.88	0.323213
2410.28	0.194716
2411.68	-0.139346
2413.08	-0.282198
2414.48	0.162163
2415.87	-0.167749
2417.27	0.168661
2418.67	-0.111422
2420.06	0.384794
2421.46	-0.0218363
2422.86	0.18888
2424.25	0.288453
2425.65	-0.166498
2427.04	-0.08216
2428.44	0.177533
2429.83	0.0260601
2431.23	0.652691
2432.62	0.438699
2434.02	0.509776
2435.41	-0.278239
2436.81	0.56842
2438.2	0.333058
2439.59	0.112233
2440.99	0.446347
2442.38	0.398675
2443.77	0.192055
2445.16	-0.0463076
2446.56	-0.157795
2447.95	0.269476
2449.34	0.126119
2450.73	-0.111863
2452.12	0.363145
2453.51	-0.173959
2454.9	-0.0613012
2456.29	0.589892
2457.68	0.0233593
2459.07	0.184287
2460.46	0.455248
2461.85	-0.112747
2463.24	0.235458
2464.63	0.0772228
2466.02	0.0451412
2467.4	-0.0974989
2468.79	-0.0507326
2470.18	0.453121
2471.57	0.451567
2472.95	0.212964
2474.34	-0.0261602
2475.73	0.0647116
2477.12	0.406522
2478.5	0.0724611
2479.89	0.100025
2481.27	0.253164
2482.66	0.0456429
2484.04	0.448448
2485.43	0.177071
2486.81	0.139351
2488.2	-0.227131
2489.58	0.216885
2490.97	-0.305302
2492.35	0.231374
2493.73	0.177953
2495.12	0.0795584
2496.5	0.246164
2497.88	0.243059
2499.27	-0.0383711
2500.65	0.0823612
2502.03	0.0784311
2503.41	-0.00373363
2504.79	0.175531
2506.17	0.477017
2507.56	0.161978
2508.94	0.431959
2510.32	0.317922
2511.7	0.603715
2513.08	0.108119
2514.46	-0.0947189
2515.84	0.224041
2517.22	0.237299
2518.59	0.373431
2519.97	-0.0252199
2521.35	-0.0572042
2522.73	-0.0593224
2524.11	0.105453
2525.49	0.0406246
2526.86	0.051774
2528.24	0.169867
2529.62	0.106519
2530.99	0.166523
2532.37	0.0459604
2533.75	0.352273
2535.12	0.32507
2536.5	-0.0971937
2537.88	-0.125156
2539.25	0.088891
2540.63	0.0286655
2542	0.119884
2543.38	0.181022
2544.75	0.243044
2546.12	-0.0121355
2547.5	-0.159858
2548.87	0.0573597
2550.24	-0.0439606
2551.62	0.127343
2552.99	-0.172775
2554.36	-0.215951
2555.74	0.179951
2557.11	0.0290575
2558.48	0.196549
2559.85	-0.196648
2561.22	-0.225366
2562.59	0.276986
2563.96	-0.00811958
2565.34	-0.171535
2566.71	-0.107396
2568.08	-0.164398
2569.45	0.0968752
2570.82	-0.293563
2572.18	0.0587196
2573.55	0.320186
2574.92	0.308907
2576.29	-0.035881
2577.66	0.149867
2579.03	0.168607
2580.4	0.368925
2581.77	0.280707
2583.13	-0.141454
2584.5	-0.0634985
2585.87	-0.000769615
2587.23	0.0772324
2588.6	-0.253784
2589.97	0.354939
2591.33	0.114837
2592.7	0.434883
2594.06	0.254043
2595.43	0.375062
2596.79	0.0710621
2598.16	-0.414984
2599.52	0.157465
2600.89	-0.146999
2602.25	-0.103268
2603.62	0.439256
2604.98	-0.255404
2606.34	0.0763531
2607.71	0.196407
2609.07	0.390797
2610.43	0.237232
2611.79	0.112573
2613.16	-0.0281258
2614.52	-0.559882
2615.88	0.259656
2617.24	0.238355
2618.6	0.0829649
2619.96	0.153111
2621.32	0.223927
2622.68	-0.168004
2624.04	0.217279
2625.4	-0.00981617
2626.76	0.195562
2628.12	0.236387
2629.48	0.247049
2630.84	0.376493
2632.2	0.267763
2633.56	0.129445
2634.92	0.288152
2636.28	0.0313406
2637.63	0.249092
2638.99	-0.140486
2640.35	0.343573
2641.71	0.368894
2643.06	0.379703
2644.42	0.0659018
2645.77	0.44579
2647.13	0.205548
2648.49	0.156419
2649.84	0.341955
2651.2	0.364693
2652.55	-0.0241232
2653.91	0.306951
2655.26	0.345065
2656.62	0.0181618
2657.97	0.322276
2659.33	0.0418434
2660.68	0.0983925
2662.03	-0.0937233
2663.39	0.0496731
2664.74	0.410975
2666.09	0.420913
2667.44	0.168009
2668.8	-0.0408812
2670.15	0.114584
2671.5	0.372145
2672.85	0.121496
2674.2	0.32197
2675.55	0.000328064
2676.91	0.535556
2678.26	0.200902
2679.61	0.229826
2680.96	0.10037
2682.31	0.117162
2683.66	0.338206
2685	0.0671911
2686.35	-0.116474
2687.7	0.13497
2689.05	0.167524
2690.4	0.575756
2691.75	0.575498
2693.1	0.181871
2694.44	0.222613
2695.79	0.0602522
2697.14	0.304299
2698.49	0.346808
2699.83	0.738606
2701.18	0.0607395
2702.52	-0.00747681
2703.87	0.287592
2705.22	0.249996
2706.56	0.154393
2707.91	0.450216
2709.25	0.252265
2710.6	0.257074
2711.94	0.479503
2713.29	0.513003
2714.63	0.0813065
2715.97	0.37628
2717.32	0.438552
2718.66	0.296906
2720.01	-0.00526905
2721.35	0.143126
2722.69	0.160056
2724.03	0.394818
2725.38	0.367123
2726.72	0.149802
2728.06	0.412447
2729.4	0.296424
2730.74	0.340324
2732.08	0.209594
2733.42	0.384466
2734.76	0.501301
2736.1	0.298347
2737.44	0.488233
2738.78	0.72169
2740.12	0.184106
2741.46	0.387667
2742.8	0.357867
2744.14	0.501721
2745.48	0.0927715
2746.82	0.119328
2748.16	0.305334
2749.49	0.476711
2750.83	0.0390377
2752.17	0.196352
2753.51	0.17988
2754.84	0.279494
2756.18	0.132959
2757.52	0.247307
2758.85	0.0433941
2760.19	0.0425873
2761.53	0.534287
2762.86	0.100322
2764.2	0.115264
2765.53	0.173573
2766.87	0.34711
2768.2	0.57744
2769.54	0.415834
2770.87	-0.021759
2772.2	0.319579
2773.54	0.197577
2774.87	0.320287
2776.2	0.125874
2777.54	0.277556
2778.87	0.127584
2780.2	-0.10785
2781.53	0.2892
2782.87	-0.089138
2784.2	0.336066
2785.53	0.0584173
2786.86	0.0248156
2788.19	0.020401
2789.52	0.20279
2790.85	-0.100312
2792.18	-0.0592842
2793.51	0.31095
2794.84	0.266584
2796.17	-0.0781832
2797.5	-0.551869
2798.83	0.27352
2800.16	0.298558
2801.49	-0.0190792
2802.82	0.0768547
2804.15	0.272154
2805.47	-0.330801
2806.8	-0.108129
2808.13	-0.000193596
2809.46	0.291897
2810.78	0.21436
2812.11	-0.132044
2813.44	-0.0797424
2814.76	-0.125261
2816.09	0.0291357
2817.42	-0.283107
2818.74	0.170601
2820.07	0.0573483
2821.39	-0.254793
2822.72	0.0984755
2824.04	0.280957
2825.37	0.434662
2826.69	0.404246
2828.02	-0.0786772
2829.34	0.260195
2830.66	0.429613
2831.99	0.443517
2833.31	0.25917
2834.63	0.569877
2835.96	0.596939
2837.28	0.651705
2838.6	0.734262
2839.92	0.448868
2841.24	0.898911
2842.57	0.995815
2843.89	1.22058
2845.21	1.24823
2846.53	1.60159
2847.85	1.60203
2849.17	2.1961
2850.49	1.85698
2851.81	2.32293
2853.13	2.13811
2854.45	2.17898
2855.77	2.24787
2857.09	2.5145
2858.41	2.24437
2859.72	2.18612
2861.04	2.60775
2862.36	2.12535
2863.68	2.48957
2865	2.66987
2866.31	3.07575
2867.63	3.17145
2868.95	3.16892
2870.26	3.23735
2871.58	3.53144
2872.9	3.8251
2874.21	3.96272
2875.53	3.92995
2876.84	4.27601
2878.16	4.35337
2879.47	4.10687
2880.79	3.97345
2882.1	3.7428
2883.42	4.37025
2884.73	4.02968
2886.05	3.91455
2887.36	4.09426
2888.67	4.11898
2889.99	4.25496
2891.3	4.08134
2892.61	4.13139
2893.92	4.1812
2895.24	4.11939
2896.55	4.3945
2897.86	4.47479
2899.17	4.47231
2900.48	4.76453
2901.79	4.35781
2903.11	4.5948
2904.42	4.70604
2905.73	4.73367
2907.04	4.73398
2908.35	5.39272
2909.66	5.12922
2910.97	5.49603
2912.27	5.77896
2913.58	5.89303
2914.89	6.34138
2916.2	5.91958
2917.51	6.22377
2918.82	6.86235
2920.13	6.829
2921.43	6.83848
2922.74	7.35276
2924.05	7.2956
2925.35	7.07214
2926.66	7.57632
2927.97	7.26975
2929.27	8.23483
2930.58	7.47963
2931.89	7.80027
2933.19	7.71516
2934.5	7.67196
2935.8	7.76865
2937.11	7.58604
2938.41	7.5993
2939.72	7.79457
2941.02	7.05426
2942.32	7.12548
2943.63	7.00256
2944.93	6.88129
2946.24	7.0411
2947.54	6.32031
2948.84	6.25646
2950.14	5.9811
2951.45	6.38959
2952.75	5.91358
2954.05	5.67395
2955.35	5.37797
2956.65	5.90894
2957.95	5.50459
2959.26	5.69143
2960.56	5.50357
2961.86	5.34596
2963.16	5.13287
2964.46	5.17144
2965.76	5.03975
2967.06	4.21729
2968.36	4.62987
2969.66	4.52148
2970.96	4.34258
2972.25	4.50157
2973.55	4.21071
2974.85	4.25747
2976.15	4.33164
2977.45	3.8551
2978.74	3.72854
2980.04	3.17771
2981.34	3.54034
2982.64	3.18473
2983.93	2.75952
2985.23	2.88394
2986.52	2.71491
2987.82	2.84261
2989.12	2.29688
2990.41	2.59458
2991.71	2.20306
2993	2.07739
2994.3	1.73958
2995.59	1.99064
2996.89	1.76336
2998.18	1.76055
2999.48	1.68787
3000.77	1.5317
3002.06	1.34823
3003.36	1.50161
3004.65	1.03862
3005.94	0.939711
3007.23	1.07816
3008.53	0.739865
3009.82	0.848426
3011.11	0.732473
3012.4	0.713959
3013.69	0.69547
3014.99	0.761078
3016.28	0.423365
3017.57	0.671563
3018.86	0.697383
3020.15	0.570255
3021.44	0.359376
3022.73	0.592291
3024.02	0.185442
3025.31	0.333069
3026.6	0.604817
3027.89	0.24009
3029.18	0.582261
3030.46	0.0965757
3031.75	0.110108
3033.04	0.110892
3034.33	0.277584
3035.62	0.498726
3036.9	0.387317
3038.19	0.370554
3039.48	0.269212
3040.76	0.413819
3042.05	0.0904179
3043.34	-0.095068
3044.62	0.295703
3045.91	-0.133023
3047.19	-0.0942221
3048.48	0.479375
3049.77	0.290475
3051.05	0.403548
3052.34	0.244563
3053.62	0.317545
3054.9	0.648991
3056.19	0.35178
3057.47	0.694301
3058.76	0.73586
3060.04	0.354999
3061.32	0.519302
3062.61	0.235662
3063.89	0.51119
3065.17	0.475603
3066.45	0.414347
3067.74	0.449324
3069.02	0.117549
3070.3	0.0710106
3071.58	0.227567
3072.86	0.274008
3074.14	0.305493
3075.42	0.20009
3076.7	0.325317
3077.99	0.0979795
3079.26	0.441843
3080.54	0.0275173
3081.82	0.157517
3083.1	-0.389469
3084.38	0.434547
3085.66	-0.098237
3086.94	0.0877447
3088.22	0.137255
3089.5	-0.288981
3090.78	-0.0642157
3092.05	-0.04317
3093.33	0.0458574
3094.61	0.094491
3095.89	-0.0735321
3097.16	-0.0245028
3098.44	-0.0975285
3099.72	0.019042
3100.99	0.108378
3102.27	0.00815392
3103.54	0.20614
3104.82	-0.0420694
3106.1	-0.0593266
3107.37	-0.413918
3108.65	0.0174942
3109.92	0.0846834
3111.2	0.247746
3112.47	0.127284
3113.74	0.14271
3115.02	-0.153666
3116.29	0.105262
3117.56	0.037889
3118.84	0.172822
3120.11	-0.0460286
3121.38	0.0867605
3122.66	0.245944
3123.93	0.0255461
3125.2	0.0357304
3126.47	-0.0348001
3127.74	0.152383
3129.01	-0.0386939
3130.29	0.243971
3131.56	0.229231
3132.83	0.187331
3134.1	0.30714
3135.37	-0.0596657
3136.64	0.436791
3137.91	0.204056
3139.18	-0.0960665
3140.45	0.0483227
3141.72	0.259797
3142.99	0.0681634
3144.26	0.0519147
3145.52	0.492456
3146.79	0.370083
3148.06	0.302213
3149.33	0.422519
