200.398	-0.137679
202.213	-0.11654
204.027	-0.0943766
205.843	0.487865
207.657	1.14266
209.47	0.848647
211.283	0.33528
213.097	0.71943
214.909	0.374319
216.721	0.877413
218.533	0.314036
220.344	-0.00611401
222.157	0.714933
223.967	0.130311
225.777	-0.211718
227.587	0.581893
229.396	0.046381
231.205	0.379684
233.016	0.181611
234.824	0.176779
236.632	0.582652
238.439	0.869498
240.247	1.13434
242.053	0.00275517
243.86	-0.0672579
245.666	0.634885
247.474	0.418842
249.279	0.610872
251.085	0.413883
252.889	0.938643
254.694	0.641126
256.498	0.00590134
258.301	0.335812
260.105	0.281279
261.908	-0.205334
263.71	0.513864
265.513	0.101615
267.315	0.388352
269.116	0.554384
270.918	0.213446
272.718	-0.0803404
274.519	0.830188
276.319	0.606092
278.119	0.766059
279.918	0.466495
281.718	0.237722
283.516	0.681081
285.315	0.401572
287.113	0.289904
288.911	0.274289
290.708	0.0196953
292.505	0.43672
294.302	0.232462
296.098	0.00569534
297.894	0.210148
299.69	0.844912
301.485	0.28487
303.278	0.249759
305.073	0.54776
306.867	0.916169
308.661	0.568769
310.454	0.0791817
312.247	-0.0756416
314.04	0.628096
315.833	0.356936
317.623	0.51585
319.415	0.104372
321.206	0.599174
322.997	0.665876
324.788	0.923908
326.579	0.466047
328.367	0.246291
330.156	0.790717
331.946	0.497598
333.735	0.537762
335.523	0.839377
337.31	0.588658
339.098	0.431915
340.885	0.321759
342.673	-0.123689
344.458	0.00459671
346.244	0.228678
348.03	0.357636
349.816	0.582425
351.6	0.425248
353.385	0.339284
355.17	0.705736
356.953	-0.0498829
358.737	0.385712
360.521	0.248253
362.304	0.514753
364.085	0.589964
365.868	0.783219
367.65	0.405793
369.431	0.384039
371.212	0.0536766
372.994	0.480579
374.773	0.386254
376.554	-0.0147128
378.332	0.717463
380.112	0.62438
381.892	0.320598
383.669	0.629883
385.448	0.0935736
387.225	0.357696
389.003	0.0822511
390.781	-0.309716
392.557	0.355829
394.334	-0.222837
396.109	0.208607
397.885	0.475783
399.66	0.531454
401.436	0.962597
403.211	0.477182
404.984	0.0851369
406.759	-0.42482
408.532	0.614467
410.306	0.33857
412.078	0.884187
413.851	0.467916
415.623	0.545041
417.395	0.0831604
419.166	-0.167082
420.938	0.451236
422.708	-0.174577
424.477	-0.0732951
426.248	0.12121
428.017	-0.436168
429.788	0.0389729
431.556	0.39663
433.326	0.16776
435.093	-0.342468
436.86	0.485067
438.629	0.185539
440.395	-0.091588
442.163	0.286689
443.929	0.2409
445.694	0.217098
447.461	-0.135332
449.226	-0.183528
450.99	-0.114763
452.756	0.280948
454.52	-0.186835
456.285	0.628013
458.048	-0.281901
459.811	0.136077
461.573	-0.21344
463.337	0.484512
465.099	-0.047627
466.86	0.073185
468.623	0.172937
470.384	0.460355
472.144	0.632318
473.906	0.664229
475.666	0.461798
477.425	0.0478234
479.184	0.424335
480.944	0.0779085
482.703	0.593364
484.461	0.154824
486.218	0.323387
487.975	0.307357
489.734	0.712825
491.491	0.0226836
493.247	0.616921
495.003	0.534252
496.759	0.568416
498.516	0.250987
500.271	1.01134
502.025	0.411202
503.779	0.467061
505.533	0.193038
507.287	0.387937
509.042	0.722934
510.795	0.586195
512.547	-0.116629
514.299	-0.279404
516.051	0.333169
517.803	0.427083
519.554	0.0499663
521.305	0.189519
523.055	-0.0471888
524.805	0.795875
526.555	0.066277
528.307	0.228451
530.056	-0.0548673
531.805	0.247372
533.553	0.314578
535.301	0.49773
537.049	-0.185225
538.797	0.089263
540.544	-0.174118
542.291	0.494223
544.037	-0.00259686
545.783	0.500942
547.529	0.840967
549.275	0.345855
551.02	0.268878
552.765	0.0534401
554.509	0.370087
556.253	0.316967
557.997	-0.150817
559.738	0.373374
561.482	0.390658
563.224	0.477403
564.967	-0.216999
566.709	0.720961
568.451	0.051414
570.192	-0.41012
571.933	0.575001
573.674	0.0471163
575.415	0.14003
577.153	0.234296
578.893	0.146053
580.632	-0.0105405
582.371	0.154528
584.11	0.0664825
585.849	0.138587
587.587	0.0947518
589.323	0.0269575
591.06	-0.225628
592.797	0.0965681
594.534	0.0275121
596.271	0.464644
598.005	-0.271585
599.741	-0.0647831
601.476	0.0263681
603.211	0.162539
604.944	-0.0473366
606.679	0.0406909
608.413	-0.078692
610.147	0.123256
611.878	-0.683948
613.611	-0.389267
615.344	0.409889
617.077	0.338015
618.807	0.815474
620.539	0.00976086
622.27	0.233441
623.999	0.410427
625.73	-0.21241
627.461	-0.125943
629.189	-0.175038
630.919	0.325266
632.648	0.530518
634.376	0.599794
636.105	0.00690603
637.833	0.257279
639.559	0.619625
641.287	0.226583
643.013	0.834921
644.74	0.0749879
646.467	0.363046
648.192	0.424769
649.918	0.352544
651.642	0.237919
653.368	0.2854
655.091	0.51754
656.816	0.137191
658.538	0.326677
660.263	0.698829
661.987	0.476679
663.708	0.80083
665.432	0.185986
667.153	0.163808
668.875	0.621293
670.596	0.553283
672.318	0.738516
674.037	0.193125
675.759	0.336174
677.478	0.595214
679.196	1.01571
680.917	0.516711
682.635	0.130484
684.355	0.409698
686.072	0.411259
687.791	0.734025
689.508	0.434063
691.224	0.57115
692.942	0.684709
694.658	0.475207
696.376	0.840693
698.091	0.882738
699.805	0.854695
701.522	1.0787
703.236	0.77302
704.95	0.949486
706.665	0.895749
708.379	1.13988
710.093	0.970847
711.806	0.549975
713.518	0.678553
715.23	1.21809
716.943	0.820478
718.655	0.514909
720.366	1.16727
722.078	0.953287
723.788	0.944503
725.498	1.04931
727.208	0.722153
728.919	0.939869
730.628	1.27018
732.337	0.829471
734.045	1.06825
735.755	0.922319
737.463	1.5673
739.17	1.06107
740.877	1.54834
742.584	1.29253
744.292	1.39838
745.998	0.807709
747.704	1.83835
749.409	1.27267
751.114	1.63034
752.819	1.49429
754.526	1.49434
756.23	1.31559
757.934	1.11544
759.637	1.65973
761.34	1.2588
763.043	1.9633
764.746	1.49451
766.448	1.25011
768.152	1.50128
769.853	1.43428
771.554	1.43341
773.255	1.88359
774.956	1.51928
776.656	2.10504
778.356	1.78746
780.056	2.01386
781.755	1.92465
783.454	1.72238
785.153	1.58703
786.851	2.19677
788.549	1.89837
790.247	1.32599
791.944	1.92743
793.641	1.48773
795.338	1.70277
797.034	1.71528
798.73	1.79669
800.426	1.90201
802.121	2.21093
803.817	2.02543
805.511	2.37951
807.206	2.03601
808.9	1.78169
810.592	1.63892
812.286	1.7198
813.979	2.24818
815.672	2.10383
817.364	2.04916
819.057	2.12871
820.748	2.34226
822.44	2.39958
824.129	2.12305
825.82	1.64752
827.511	1.48601
829.201	1.79445
830.891	2.03854
832.581	2.12921
834.269	1.57535
835.958	1.4009
837.646	1.85101
839.335	1.6308
841.023	2.03453
842.709	1.49898
844.396	1.45437
846.084	1.65609
847.77	1.30034
849.455	2.22141
851.141	0.794829
852.827	1.81022
854.513	1.77394
856.196	1.22084
857.881	1.9698
859.566	1.21107
861.248	1.62063
862.932	1.62381
864.616	1.35548
866.297	1.46943
867.98	1.10937
869.663	1.15474
871.343	1.69613
873.026	1.31251
874.707	1.35742
876.387	1.5603
878.068	1.40212
879.747	1.35667
881.428	1.24319
883.108	0.722772
884.786	1.19481
886.465	1.57533
888.143	0.96164
889.822	1.20414
891.498	1.941
893.177	1.14431
894.855	1.33799
896.53	1.39558
898.208	1.27255
899.883	1.01445
901.56	1.7197
903.234	1.14726
904.91	1.02303
906.584	1.47965
908.26	0.976956
909.933	0.787879
911.608	1.20053
913.28	1.43512
914.955	1.33648
916.627	0.927509
918.298	1.27277
919.972	1.4846
921.643	1.36464
923.315	1.37839
924.986	1.32716
926.656	1.29953
928.328	1.49401
929.997	1.07152
931.668	0.804193
933.337	0.846001
935.006	0.976153
936.676	0.93014
938.344	0.884778
940.012	1.12706
941.681	1.10563
943.348	0.930322
945.014	1.30661
946.683	1.17444
948.349	0.731774
950.015	0.773272
951.682	1.43151
953.347	0.567518
955.012	0.939915
956.676	0.785106
958.343	0.831222
960.006	0.967828
961.67	0.929149
963.333	1.13351
964.998	0.894497
966.661	1.13994
968.323	1.00709
969.985	1.38139
971.649	1.423
973.31	1.288
974.971	0.380176
976.632	1.53042
978.293	1.04533
979.953	0.992018
981.615	0.938395
983.274	0.828366
984.933	0.960334
986.592	1.22342
988.251	1.06452
989.909	0.794165
991.567	0.877165
993.225	1.13661
994.884	0.888087
996.541	1.27973
998.198	2.33238
999.855	1.79698
1001.51	1.19582
1003.17	0.85918
1004.82	0.434771
1006.48	0.999757
1008.13	0.861295
1009.79	0.745209
1011.44	1.09014
1013.1	0.382984
1014.75	0.50931
1016.4	0.832804
1018.06	1.0907
1019.71	0.845951
1021.36	0.49287
1023.01	0.687274
1024.66	1.34128
1026.32	0.881142
1027.97	0.923672
1029.62	0.943857
1031.27	0.41708
1032.92	0.80637
1034.57	0.670332
1036.22	0.315374
1037.87	0.918856
1039.52	0.476422
1041.16	0.839937
1042.81	0.508342
1044.46	1.00404
1046.11	1.13164
1047.76	1.02182
1049.4	0.435544
1051.05	0.914432
1052.7	0.590308
1054.34	0.831306
1055.99	0.398641
1057.63	0.552528
1059.28	0.706095
1060.92	0.402568
1062.57	0.228892
1064.21	0.532894
1065.85	0.575154
1067.5	0.964293
1069.14	0.353005
1070.78	0.414905
1072.43	0.45492
1074.07	0.603722
1075.71	0.0807562
1077.35	0.296353
1078.99	0.707971
1080.63	0.729826
1082.27	0.621589
1083.91	0.556073
1085.55	0.901217
1087.19	0.594494
1088.83	0.784537
1090.47	0.778177
1092.11	0.987032
1093.75	-0.165487
1095.39	0.496629
1097.03	0.813231
1098.66	0.656482
1100.3	0.458217
1101.94	0.928664
1103.57	0.475156
1105.21	0.539073
1106.84	0.474385
1108.48	0.323482
1110.11	0.0858359
1111.75	0.406003
1113.38	0.466884
1115.02	0.569653
1116.65	0.156932
1118.29	0.0878372
1119.92	0.554913
1121.55	0.508291
1123.19	0.826365
1124.82	0.845432
1126.45	0.45878
1128.08	0.393674
1129.71	0.243596
1131.34	0.585701
1132.97	0.372163
1134.6	0.650208
1136.23	0.414765
1137.86	0.157261
1139.49	0.0271859
1141.12	-0.0181265
1142.75	0.234958
1144.38	0.231923
1146.01	0.719706
1147.64	0.291466
1149.26	0.37547
1150.89	0.310704
1152.52	-0.0947361
1154.15	-0.180877
1155.77	0.0945511
1157.4	0.646282
1159.02	0.113179
1160.65	0.686728
1162.27	-0.0785789
1163.9	0.687787
1165.52	0.561549
1167.15	0.775325
1168.77	0.201644
1170.39	0.15829
1172.02	0.368472
1173.64	0.19491
1175.26	0.1055
1176.89	0.2702
1178.51	0.540683
1180.13	-0.077755
1181.75	-0.0177965
1183.37	0.000291824
1184.99	-0.0238543
1186.61	0.141427
1188.23	0.431874
1189.85	-0.0174332
1191.47	0.985514
1193.09	0.239589
1194.71	0.250911
1196.33	0.597649
1197.94	0.399727
1199.56	0.161762
1201.18	0.490161
1202.8	0.653017
1204.41	0.984677
1206.03	0.963151
1207.65	0.337732
1209.26	0.213338
1210.88	0.797519
1212.49	1.19243
1214.11	0.730824
1215.72	1.0801
1217.34	0.283141
1218.95	1.191
1220.57	0.68521
1222.18	0.678683
1223.79	0.63168
1225.41	0.46168
1227.02	1.01731
1228.63	1.01503
1230.24	0.827684
1231.85	0.992798
1233.47	0.74545
1235.08	1.0158
1236.69	0.853066
1238.3	1.37332
1239.91	1.25333
1241.52	1.36097
1243.13	0.971888
1244.74	1.43041
1246.34	1.32947
1247.95	1.00008
1249.56	1.27014
1251.17	1.49848
1252.78	1.39596
1254.38	1.10789
1255.99	0.965468
1257.6	1.1343
1259.2	0.807505
1260.81	1.1229
1262.42	1.14902
1264.02	1.46521
1265.63	1.28396
1267.23	1.06054
1268.84	1.08507
1270.44	1.19173
1272.04	0.571846
1273.65	1.13298
1275.25	1.67242
1276.85	0.780982
1278.46	1.19451
1280.06	0.841077
1281.66	0.860254
1283.26	1.29323
1284.86	1.12657
1286.46	0.960721
1288.07	1.1058
1289.67	1.39622
1291.27	1.31505
1292.87	1.37849
1294.47	1.85448
1296.06	1.09005
1297.66	0.985483
1299.26	1.80813
1300.86	1.39142
1302.46	1.22152
1304.06	1.23637
1305.65	1.55899
1307.25	1.3876
1308.85	1.66768
1310.44	2.09059
1312.04	1.61215
1313.64	1.78976
1315.23	1.43659
1316.83	2.02401
1318.42	1.40729
1320.02	1.74962
1321.61	1.23512
1323.2	1.85994
1324.8	1.05908
1326.39	1.41619
1327.99	1.54886
1329.58	1.27665
1331.17	1.53218
1332.76	1.82942
1334.36	1.76464
1335.95	1.7619
1337.54	1.75966
1339.13	1.21269
1340.72	1.6521
1342.31	1.32432
1343.9	1.57852
1345.49	1.1285
1347.08	1.34132
1348.67	0.974109
1350.26	0.66954
1351.85	1.0274
1353.43	0.746752
1355.02	1.36676
1356.61	1.30736
1358.2	1.44743
1359.78	1.32705
1361.37	0.966382
1362.96	0.8049
1364.54	0.762935
1366.13	0.840738
1367.71	1.1182
1369.3	0.639936
1370.88	1.0785
1372.47	1.00064
1374.05	1.22216
1375.64	1.08607
1377.22	0.810774
1378.8	0.873385
1380.39	0.815841
1381.97	0.876672
1383.55	1.13531
1385.13	0.597848
1386.72	1.05389
1388.3	0.516711
1389.88	0.456883
1391.46	0.635885
1393.04	0.75588
1394.62	0.856299
1396.2	0.718604
1397.78	1.21479
1399.36	0.679443
1400.94	0.500332
1402.52	0.776232
1404.1	0.774819
1405.68	1.03086
1407.25	0.259542
1408.83	1.0306
1410.41	0.853476
1411.98	1.09112
1413.56	0.775449
1415.14	0.656643
1416.71	0.438701
1418.29	0.516335
1419.87	0.988089
1421.44	0.652897
1423.02	1.38211
1424.59	1.04954
1426.16	0.973914
1427.74	1.43017
1429.31	1.2564
1430.89	0.82606
1432.46	1.08369
1434.03	1.04534
1435.6	1.57698
1437.18	2.52133
1438.75	1.65745
1440.32	1.56123
1441.89	1.70166
1443.46	1.94096
1445.03	1.94476
1446.6	1.33941
1448.17	1.77592
1449.74	2.11446
1451.31	1.94227
1452.88	2.14415
1454.45	1.83501
1456.02	1.68311
1457.59	2.02263
1459.16	1.63299
1460.72	1.16324
1462.29	1.63652
1463.86	1.45915
1465.43	1.63484
1466.99	1.08318
1468.56	1.1214
1470.13	0.767781
1471.69	1.0823
1473.26	0.78948
1474.82	0.752319
1476.38	0.205716
1477.95	0.717991
1479.51	0.975274
1481.08	0.820823
1482.64	0.764337
1484.2	0.707777
1485.77	0.376719
1487.33	0.221534
1488.89	0.77032
1490.46	0.828019
1492.02	0.688449
1493.58	0.156805
1495.14	0.463926
1496.7	0.555131
1498.26	0.548607
1499.82	0.775732
1501.38	0.11012
1502.94	0.241942
1504.5	0.567922
1506.06	0.13857
1507.62	0.289778
1509.18	0.0922017
1510.73	0.62751
1512.29	0.428501
1513.85	-0.0204949
1515.41	0.473656
1516.96	0.256675
1518.52	0.0215936
1520.08	0.22807
1521.63	0.625618
1523.19	0.811827
1524.75	0.405164
1526.3	0.208502
1527.85	0.582938
1529.41	0.765745
1530.96	-0.0583334
1532.52	-0.159232
1534.07	0.536121
1535.62	0.795508
1537.18	0.148118
1538.73	0.805
1540.28	0.555755
1541.84	0.589666
1543.39	0.67991
1544.94	0.713421
1546.49	0.878187
1548.04	0.81733
1549.59	1.35637
1551.14	1.14547
1552.69	0.767037
1554.25	0.632984
1555.79	1.28461
1557.34	1.05951
1558.89	0.761541
1560.44	0.838318
1561.99	1.06556
1563.54	0.790005
1565.08	1.29852
1566.63	1.19145
1568.18	0.972192
1569.73	0.659267
1571.27	0.980681
1572.82	0.90989
1574.37	1.23101
1575.91	1.44014
1577.46	1.23875
1579	1.39239
1580.55	1.15444
1582.09	1.40261
1583.64	1.12851
1585.18	1.6771
1586.73	1.77784
1588.27	1.50472
1589.81	1.36219
1591.35	1.05074
1592.9	1.20683
1594.44	1.62501
1595.98	1.01299
1597.52	1.58166
1599.06	1.66378
1600.61	1.31513
1602.15	1.37941
1603.69	1.6691
1605.23	1.54524
1606.77	1.6645
1608.31	1.38753
1609.85	1.35304
1611.39	1.22278
1612.93	1.12864
1614.46	1.29633
1616	0.919513
1617.54	1.31203
1619.08	1.25537
1620.61	1.16249
1622.15	1.14563
1623.69	1.24178
1625.23	1.07589
1626.76	0.909499
1628.3	0.686119
1629.83	1.15381
1631.37	1.15295
1632.9	1.50666
1634.44	1.56149
1635.97	1.37435
1637.51	1.05758
1639.04	1.11442
1640.57	1.41355
1642.11	1.39529
1643.64	1.52516
1645.17	1.85861
1646.71	1.48422
1648.24	1.53749
1649.77	1.70237
1651.3	1.68226
1652.83	1.97849
1654.36	1.77484
1655.89	2.0167
1657.42	1.70253
1658.96	1.59171
1660.48	1.86872
1662.01	1.53371
1663.54	1.78978
1665.07	1.80485
1666.6	1.58024
1668.13	1.63346
1669.66	2.00118
1671.19	2.05658
1672.71	1.52347
1674.24	1.08312
1675.77	1.72906
1677.29	1.19612
1678.82	1.01229
1680.35	0.938154
1681.87	1.65364
1683.4	0.935642
1684.92	0.714097
1686.45	0.951564
1687.97	1.04246
1689.5	1.24349
1691.02	0.583949
1692.54	0.510758
1694.07	0.730263
1695.59	0.272992
1697.11	0.656544
1698.64	0.783758
1700.16	0.362995
1701.68	0.434831
1703.2	0.743074
1704.72	0.449493
1706.25	0.501765
1707.77	0.353756
1709.29	0.224106
1710.81	0.675476
1712.33	0.0745068
1713.85	0.108781
1715.37	0.124949
1716.89	0.213405
1718.41	-0.0417681
1719.92	0.118773
1721.44	0.387418
1722.96	0.0610747
1724.48	-0.264112
1725.99	0.222283
1727.51	-0.442852
1729.03	0.0987897
1730.55	0.0823736
1732.06	0.118725
1733.58	0.0516043
1735.09	0.150244
1736.61	0.417626
1738.13	0.11281
1739.64	0.350433
1741.15	0.0955844
1742.67	0.0194511
1744.18	0.280451
1745.7	0.606733
1747.21	0.218773
1748.72	-0.0849361
1750.24	0.518896
1751.75	0.130536
1753.26	0.0111094
1754.77	0.267855
1756.29	0.0542173
1757.8	0.0339017
1759.31	0.111387
1760.82	0.151046
1762.33	-0.0883732
1763.84	-0.0866294
1765.35	-0.336133
1766.86	-0.0153861
1768.37	0.0810108
1769.88	0.160517
1771.39	-0.152904
1772.9	-0.358971
1774.4	0.114032
1775.91	0.00944328
1777.42	0.0242
1778.93	0.0129104
1780.44	0.286121
1781.94	-0.235949
1783.45	-0.0137434
1784.96	0.28577
1786.46	0.0676169
1787.97	0.220914
1789.47	0.107867
1790.98	0.00743198
1792.48	-0.123359
1793.99	0.0144639
1795.49	0.301113
1797	-0.0069375
1798.5	-0.154251
1800.01	0.240799
1801.51	-0.0405455
1803.01	0.0319824
1804.51	0.143102
1806.02	0.181449
1807.52	0.126174
1809.02	-0.0617933
1810.52	-0.0800171
1812.02	0.0371194
1813.52	0.151392
1815.02	0.196637
1816.53	-0.0791245
1818.03	0.170826
1819.52	0.20074
1821.02	0.319191
1822.52	-0.0851073
1824.02	0.130785
1825.52	-0.0173554
1827.02	0.0472035
1828.52	-0.183178
1830.02	0.165397
1831.51	0.0106139
1833.01	0.0574999
1834.51	0.00259876
1836.01	-0.00772572
1837.5	-0.0773864
1839	0.0571589
1840.49	-0.0789223
1841.99	0.267894
1843.49	0.112481
1844.98	-0.0111084
1846.48	0.18283
1847.97	0.00145435
1849.47	-0.0665302
1850.96	0.172862
1852.45	0.0938258
1853.95	-0.00680733
1855.44	0.327078
1856.93	-0.122999
1858.42	-0.0325837
1859.92	0.061358
1861.41	0.191612
1862.9	0.0422359
1864.39	-0.104495
1865.88	0.088963
1867.38	-0.0415115
1868.87	0.02318
1870.36	0.17314
1871.85	-0.150925
1873.34	0.0982785
1874.83	-0.245768
1876.32	-0.25891
1877.81	-0.295763
1879.29	0.146926
1880.78	0.095407
1882.27	0.0680146
1882.53	0.0668821
1884.03	-0.106642
1885.52	-0.0366349
1887.01	-0.00214291
1888.51	-0.124712
1890	0.170543
1891.5	-0.142444
1892.99	-0.0889883
1894.48	0.226516
1895.97	0.195419
1897.47	-0.0263858
1898.96	-0.00483751
1900.45	-0.123181
1901.94	0.174835
1903.43	-0.137221
1904.92	0.175734
1906.41	-0.155029
1907.9	0.226502
1909.39	0.278317
1910.88	0.0705147
1912.37	-0.13652
1913.86	0.263949
1915.35	0.282845
1916.84	0.145455
1918.33	-0.16558
1919.81	0.181664
1921.3	-0.0602913
1922.79	0.148398
1924.28	-0.144442
1925.76	-0.0209517
1927.25	-0.000589848
1928.73	0.124114
1930.22	0.214183
1931.71	0.147822
1933.19	0.132365
1934.68	0.271425
1936.16	-0.0233836
1937.65	0.130845
1939.13	0.388207
1940.62	0.265571
1942.1	0.419826
1943.58	0.177963
1945.07	-0.0113559
1946.55	0.161722
1948.03	0.368989
1949.51	-0.182412
1951	0.247407
1952.48	0.383545
1953.96	-0.237511
1955.44	0.310696
1956.92	0.102872
1958.4	-0.0527253
1959.88	0.375594
1961.36	0.289515
1962.84	0.27221
1964.32	-0.259204
1965.8	0.219869
1967.28	0.338527
1968.76	0.0973654
1970.24	0.197947
1971.72	0.246951
1973.2	0.125162
1974.67	0.140058
1976.15	0.0527925
1977.63	-0.221592
1979.1	0.100194
1980.58	0.336477
1982.06	0.28334
1983.54	0.0262237
1985.01	-0.0101023
1986.49	0.411366
1987.96	0.0526094
1989.44	0.0502391
1990.91	0.336025
1992.39	0.0978355
1993.86	0.232515
1995.33	-0.0548058
1996.81	0.198966
1998.28	0.384987
1999.75	0.0472131
2001.23	0.367391
2002.7	0.197777
2004.17	0.179949
2005.65	0.179222
2007.12	0.448519
2008.59	0.297366
2010.06	-0.206639
2011.53	0.148364
2013	0.200344
2014.47	0.420281
2015.94	0.15165
2017.41	0.269346
2018.88	0.487208
2020.35	0.334805
2021.82	0.0648932
2023.29	0.282247
2024.76	0.0972919
2026.23	0.198442
2027.69	0.183167
2029.16	-0.200055
2030.63	0.239546
2032.1	0.411556
2033.56	0.265059
2035.03	0.15203
2036.5	0.357817
2037.96	0.160052
2039.43	0.146784
2040.89	0.0830264
2042.36	0.20446
2043.83	-0.00991631
2045.29	0.0117431
2046.75	0.454827
2048.22	0.207948
2049.68	-0.0394311
2051.15	0.251799
2052.61	0.440918
2054.07	-0.0627298
2055.54	0.64659
2057	0.30938
2058.46	0.140331
2059.92	0.257643
2061.39	0.156265
2062.85	0.493166
2064.31	0.157459
2065.77	0.44519
2067.23	0.413764
2068.69	0.416416
2070.15	0.671789
2071.61	0.30435
2073.07	0.475506
2074.53	0.461269
2075.99	0.0762916
2077.45	0.600404
2078.91	0.029614
2080.37	0.165782
2081.82	0.419375
2083.28	0.386234
2084.74	0.201118
2086.2	-0.0853267
2087.65	-0.136564
2089.11	0.400159
2090.57	0.314698
2092.02	0.178895
2093.48	0.546547
2094.94	0.444038
2096.39	0.626199
2097.85	0.53965
2099.3	0.419284
2100.76	0.148365
2102.21	0.212205
2103.66	0.627188
2105.12	0.675444
2106.57	0.474432
2108.03	0.324339
2109.48	0.024478
2110.93	0.524555
2112.38	0.290148
2113.84	0.404487
2115.29	0.450962
2116.74	0.263968
2118.19	0.243609
2119.64	0.240799
2121.09	0.206131
2122.54	0.836201
2123.99	0.356055
2125.45	0.390474
2126.89	0.292056
2128.34	0.60737
2129.79	0.258688
2131.24	0.406266
2132.69	0.553117
2134.14	0.401999
2135.59	0.846822
2137.04	0.730379
2138.48	0.549229
2139.93	0.914817
2141.38	0.719677
2142.83	0.806394
2144.27	0.695124
2145.72	0.219735
2147.17	0.65438
2148.61	0.691379
2150.06	0.545532
2151.5	0.862848
2152.95	0.582985
2154.39	0.650477
2155.84	0.701054
2157.28	1.03327
2158.73	0.670255
2160.17	0.540066
2161.61	0.808741
2163.06	0.614717
2164.5	0.471297
2165.94	1.02555
2167.38	0.749809
2168.83	0.755559
2170.27	1.04278
2171.71	0.746366
2173.15	0.348683
2174.59	0.998015
2176.03	0.69878
2177.47	0.582685
2178.91	0.816274
2180.36	0.767899
2181.8	0.969542
2183.23	0.789167
2184.67	0.908315
2186.11	0.827918
2187.55	0.863969
2188.99	0.833485
2190.43	0.769674
2191.87	0.755582
2193.3	0.324696
2194.74	0.675405
2196.18	0.458786
2197.62	0.889808
2199.05	0.50437
2200.49	0.716862
2201.93	0.928914
2203.36	0.991814
2204.8	0.690661
2206.23	0.738584
2207.67	0.289842
2209.1	0.0566149
2210.54	0.634082
2211.97	0.26736
2213.41	0.42953
2214.84	0.657444
2216.27	0.307739
2217.71	0.421143
2219.14	0.947559
2220.57	0.732375
2222.01	0.5174
2223.44	0.483284
2224.87	0.464683
2226.3	0.296802
2227.73	0.111603
2229.16	0.40216
2230.6	0.478278
2232.03	0.275497
2233.46	0.400709
2234.89	0.215495
2236.32	0.358154
2237.75	0.730225
2239.18	0.613713
2240.61	0.563983
2242.03	0.385076
2243.46	0.0928683
2244.89	0.469625
2246.32	0.405527
2247.75	0.307706
2249.17	0.664889
2250.6	0.270679
2252.03	0.347876
2253.46	0.424336
2254.88	0.289643
2256.31	0.286041
2257.73	0.59236
2259.16	0.300257
2260.59	0.237339
2262.01	0.403297
2263.44	0.55429
2264.86	0.413144
2266.29	0.222784
2267.71	0.0967469
2269.14	0.230362
2270.56	0.363506
2271.98	0.219549
2273.4	0.645416
2274.83	0.387348
2276.25	-0.00106049
2277.67	0.311265
2279.09	0.607489
2280.52	0.267856
2281.94	0.335721
2283.36	0.550381
2284.78	0.536702
2286.2	0.49052
2287.62	0.362925
2289.04	0.447888
2290.46	0.0756636
2291.88	0.144688
2293.3	0.410098
2294.72	0.266679
2296.14	0.384965
2297.56	0.388676
2298.98	0.457947
2300.4	0.248779
2301.82	0.252772
2303.23	0.20774
2304.65	0.326909
2306.07	0.150521
2307.49	0.581667
2308.9	0.43746
2310.32	0.0460558
2311.73	0.476563
2313.15	0.183327
2314.57	0.202901
2315.98	0.387658
2317.4	0.606084
2318.81	0.511858
2320.23	0.15345
2321.64	0.18995
2323.06	0.225168
2324.47	0.786872
2325.88	0.257795
2327.3	1.04715
2328.71	0.15407
2330.12	-0.111976
2331.54	-0.113761
2332.95	-0.0325327
2334.36	0.180843
2335.77	0.312029
2337.18	0.16324
2338.6	0.0960703
2340.01	0.356802
2341.42	0.140331
2342.83	0.0550656
2344.24	0.0518813
2345.65	0.130827
2347.06	0.0788279
2348.47	0.108747
2349.88	-0.123375
2351.29	0.00392294
2352.7	0.0813475
2354.1	-0.00518131
2355.51	0.201379
2356.92	0.163027
2358.33	0.0108767
2359.74	0.200319
2361.14	-0.000105381
2362.55	-0.378467
2363.96	0.0212808
2365.36	0.128928
2366.77	0.284946
2368.18	0.344189
2369.58	0.38792
2370.99	0.0779023
2372.39	-0.166376
2373.8	0.266572
2375.2	0.039463
2376.61	0.230601
2378.01	0.388618
2379.42	0.223958
2380.82	0.251027
2382.22	0.0365119
2383.63	0.270308
2385.03	0.263416
2386.43	0.312741
2387.84	0.282785
2389.24	0.0703707
2390.64	0.130019
2392.04	0.158539
2393.44	-0.0509515
2394.84	0.201541
2396.25	0.311226
2397.65	0.18289
2399.05	0.0867982
2400.45	0.531211
2401.85	0.165636
2403.25	0.371919
2404.65	0.292055
2406.05	0.43384
2407.45	0.495509
2408.84	0.0490427
2410.24	-0.0326314
2411.64	0.0443559
2413.04	-0.0207086
2414.44	0.105117
2415.83	0.453537
2417.23	0.407117
2418.63	0.440515
2420.02	0.363327
2421.42	0.206818
2422.82	0.192592
2424.21	-0.01197
2425.61	0.322237
2427	-0.151401
2428.4	0.231409
2429.8	0.186929
2431.19	0.523706
2432.58	0.0989146
2433.98	0.276886
2435.37	0.136454
2436.77	0.169706
2438.16	0.328998
2439.55	0.169628
2440.95	-0.101464
2442.34	0.389219
2443.73	-0.0886245
2445.12	0.020668
2446.51	0.351719
2447.91	-0.125834
2449.3	0.173195
2450.69	0.297952
2452.08	-0.0360088
2453.47	0.152929
2454.86	-0.0689502
2456.25	0.041894
2457.64	0.137119
2459.03	0.105689
2460.42	0.16875
2461.81	0.0256858
2463.2	-0.0704246
2464.59	0.180718
2465.98	0.241932
2467.36	-0.170535
2468.75	0.174678
2470.14	0.235559
2471.53	0.248768
2472.92	-0.305629
2474.3	-0.324577
2475.69	-0.107971
2477.08	0.202345
2478.46	0.198031
2479.85	0.0839963
2481.23	0.221131
2482.62	-0.0650163
2484	0.228183
2485.39	0.0666933
2486.77	0.326556
2488.16	0.163729
2489.54	-0.264149
2490.93	-0.00621796
2492.31	-0.308187
2493.69	0.012332
2495.08	0.162471
2496.46	0.173732
2497.84	-0.108708
2499.23	-0.0190973
2500.61	-0.069046
2501.99	0.0660133
2503.37	-0.293936
2504.75	0.071187
2506.13	0.065321
2507.52	0.0131245
2508.9	0.176358
2510.28	-0.0443888
2511.66	-0.356302
2513.04	0.252578
2514.42	-0.0885587
2515.8	0.183637
2517.18	-0.00287437
2518.55	0.0252423
2519.93	-0.0687962
2521.31	0.066174
2522.69	0.0326414
2524.07	0.044333
2525.45	-0.157844
2526.82	0.264457
2528.2	-0.135273
2529.58	0.0441227
2530.95	0.163625
2532.33	0.0715046
2533.71	0.162685
2535.08	-0.00390768
2536.46	-0.0185957
2537.84	0.148555
2539.21	0.102361
2540.59	-0.0506611
2541.96	0.205963
2543.34	0.189508
2544.71	0.173673
2546.08	-0.0232992
2547.46	-0.052568
2548.83	-0.172287
2550.2	0.314971
2551.58	0.103937
2552.95	0.651058
2554.32	-0.183556
2555.7	0.286256
2557.07	0.239756
2558.44	0.147704
2559.81	0.222647
2561.18	-0.080965
2562.55	0.13121
2563.93	-0.0653849
2565.3	0.0565605
2566.67	-0.275945
2568.04	0.0735745
2569.41	0.150333
2570.78	-0.182126
2572.15	-0.181119
2573.51	-0.0587802
2574.88	-0.0879507
2576.25	0.0193539
2577.62	0.217604
2578.99	0.0973039
2580.36	0.0222492
2581.73	0.0227323
2583.09	-0.0225172
2584.46	0.235283
2585.83	0.00793791
2587.19	0.0232368
2588.56	0.220538
2589.93	-0.0973573
2591.29	-0.157676
2592.66	0.236261
2594.02	0.0538583
2595.39	0.0980015
2596.75	0.0051713
2598.12	-0.0124664
2599.48	0.135968
2600.85	0.102994
2602.21	0.0704155
2603.58	-0.127707
2604.94	0.112323
2606.3	0.065722
2607.67	0.139563
2609.03	0.318255
2610.39	-0.136719
2611.76	0.0552125
2613.12	0.0956573
2614.48	-0.285097
2615.84	-0.0950332
2617.2	-0.0101266
2618.56	-0.164575
2619.92	-0.0788007
2621.28	-0.231891
2622.65	-0.190158
2624.01	-0.133383
2625.37	0.17697
2626.72	-0.0650115
2628.08	-0.023747
2629.44	0.0470352
2630.8	-0.105599
2632.16	0.277119
2633.52	-0.113205
2634.88	0.0462403
2636.24	0.0274572
2637.59	0.067977
2638.95	0.0640602
2640.31	0.104648
2641.67	-0.0763807
2643.02	0.245334
2644.38	-0.0680652
2645.74	-0.218795
2647.09	0.175865
2648.45	-0.270141
2649.8	0.0934629
2651.16	0.220683
2652.51	-0.0784535
2653.87	-0.0540562
2655.22	0.351907
2656.58	0.172161
2657.93	0.0666881
2659.29	-0.140423
2660.64	0.00388145
2661.99	-0.144329
2663.35	0.160011
2664.7	-0.00366545
2666.05	-0.167622
2667.41	0.00355577
2668.76	0.0579095
2670.11	0.214228
2671.46	0.0653749
2672.81	0.22231
2674.16	-0.114224
2675.51	0.116072
2676.87	-0.0306501
2678.22	-0.0607672
2679.57	0.127215
2680.92	0.22889
2682.27	0.142946
2683.62	0.115842
2684.97	-0.31673
2686.31	-0.183366
2687.66	0.196738
2689.01	0.140691
2690.36	0.185081
2691.71	-0.0475845
2693.06	0.357219
2694.4	0.0504327
2695.75	-0.053247
2697.1	-0.0115304
2698.45	0.088975
2699.79	-0.0120897
2701.14	0.00390339
2702.49	-0.0225115
2703.83	-0.2221
2705.18	0.230886
2706.52	0.307233
2707.87	0.136783
2709.21	0.11109
2710.56	0.0996451
2711.9	0.0880141
2713.25	-0.0835519
2714.59	0.209885
2715.94	0.212667
2717.28	0.0262899
2718.62	0.174247
2719.97	0.452988
2721.31	0.294913
2722.65	0.456664
2723.99	0.501658
2725.34	0.357122
2726.68	0.183218
2728.02	0.0818944
2729.36	0.446105
2730.7	0.0826178
2732.04	-0.0625606
2733.39	0.0396643
2734.73	0.272912
2736.07	0.506279
2737.41	-0.0020051
2738.75	0.333261
2740.08	0.435646
2741.43	0.363192
2742.76	0.203087
2744.1	0.275103
2745.44	0.564549
2746.78	0.388774
2748.12	0.300115
2749.46	0.05198
2750.79	0.340811
2752.13	0.325168
2753.47	0.295222
2754.81	0.540708
2756.14	0.206808
2757.48	0.394497
2758.81	0.119056
2760.15	0.16243
2761.49	-0.126689
2762.82	-0.0102587
2764.16	0.280013
2765.49	0.0349298
2766.83	0.0355186
2768.16	0.339226
2769.5	0.208079
2770.83	0.11938
2772.16	0.304227
2773.5	-0.0746751
2774.83	0.195444
2776.17	0.119379
2777.5	-0.229723
2778.83	-0.0601959
2780.16	0.0519638
2781.5	-0.223531
2782.83	0.0754528
2784.16	0.173234
2785.49	0.442863
2786.82	-0.061141
2788.15	0.108605
2789.49	0.0354981
2790.82	0.0632014
2792.15	0.134333
2793.48	0.234352
2794.81	0.248614
2796.14	-0.0802741
2797.46	-0.0808091
2798.79	0.260961
2800.12	-0.0258074
2801.45	0.0298729
2802.78	0.170925
2804.11	0.140651
2805.44	0.466168
2806.76	0.121894
2808.09	0.175896
2809.42	0.229532
2810.75	-0.000901699
2812.07	-0.102857
2813.4	0.179029
2814.73	0.220663
2816.05	0.107381
2817.38	-0.104296
2818.7	0.208864
2820.03	0.25274
2821.36	0.338822
2822.68	0.523612
2824.01	0.452859
2825.33	0.0986056
2826.65	0.112748
2827.98	0.3821
2829.3	0.0147295
2830.63	-0.0691338
2831.95	0.399221
2833.27	0.499478
2834.6	0.415499
2835.92	0.543474
2837.24	0.331443
2838.56	0.543577
2839.88	0.642325
2841.21	1.2218
2842.53	1.20766
2843.85	1.1375
2845.17	1.60493
2846.49	1.62061
2847.81	1.70726
2849.13	1.68086
2850.45	1.75316
2851.77	1.69787
2853.09	1.85418
2854.41	1.58623
2855.73	1.89748
2857.05	2.10975
2858.37	1.77115
2859.69	2.30822
2861	2.53435
2862.32	2.61895
2863.64	2.53384
2864.96	2.87185
2866.28	2.98396
2867.59	3.30779
2868.91	3.49086
2870.23	3.40638
2871.54	3.47712
2872.86	3.30801
2874.17	3.85691
2875.49	3.58759
2876.81	3.44424
2878.12	3.62395
2879.44	3.83134
2880.75	3.71551
2882.07	3.50216
2883.38	3.54269
2884.69	3.52786
2886.01	3.26087
2887.32	3.28877
2888.63	3.44258
2889.95	3.65175
2891.26	3.66373
2892.57	3.40888
2893.89	3.44831
2895.2	3.71204
2896.51	4.11622
2897.82	3.66748
2899.13	4.01729
2900.44	4.04592
2901.76	3.64131
2903.07	4.16011
2904.38	4.4272
2905.69	4.70851
2907	4.38885
2908.31	4.58744
2909.62	4.96872
2910.93	5.14073
2912.24	4.80888
2913.55	4.96621
2914.85	5.08031
2916.16	5.80879
2917.47	5.44387
2918.78	6.15552
2920.09	6.02736
2921.4	6.02575
2922.7	6.45865
2924.01	5.95625
2925.32	6.27964
2926.62	6.65954
2927.93	6.4244
2929.24	6.70611
2930.54	6.44206
2931.85	6.47112
2933.15	6.45797
2934.46	6.87806
2935.76	6.38976
2937.07	6.90784
2938.37	6.65745
2939.68	6.16978
2940.98	6.1437
2942.29	6.10442
2943.59	5.605
2944.89	5.41414
2946.2	5.05634
2947.5	4.85267
2948.8	4.81657
2950.11	4.19142
2951.41	4.50273
2952.71	4.39238
2954.01	4.40687
2955.32	4.16903
2956.62	3.95996
2957.92	3.96247
2959.22	4.21918
2960.52	4.01609
2961.82	4.09478
2963.12	4.2163
2964.42	4.07074
2965.72	4.3452
2967.02	4.04227
2968.32	3.94882
2969.62	3.75621
2970.92	4.14005
2972.22	3.32845
2973.51	3.72691
2974.81	3.26687
2976.11	3.07358
2977.41	3.00591
2978.71	3.02131
2980	3.24641
2981.3	2.62597
2982.6	2.9057
2983.9	2.73554
2985.19	2.7631
2986.49	2.3281
2987.78	2.20343
2989.08	2.36054
2990.38	2.04001
2991.67	2.05633
2992.97	2.0156
2994.26	1.87549
2995.56	1.83285
2996.85	1.71944
2998.14	1.57785
2999.44	1.33833
3000.73	1.59011
3002.03	1.37955
3003.32	1.25347
3004.61	1.37964
3005.91	1.00134
3007.2	1.08477
3008.49	1.22342
3009.78	1.15144
3011.07	0.92525
3012.37	0.86656
3013.66	0.933454
3014.95	0.902922
3016.24	0.636071
3017.53	0.704171
3018.82	0.73077
3020.11	0.673896
3021.4	0.436031
3022.69	0.461716
3023.98	0.292342
3025.27	0.621781
3026.56	0.493316
3027.85	0.4899
3029.14	0.25219
3030.43	0.596088
3031.71	0.609173
3033	0.415877
3034.29	0.485089
3035.58	0.540011
3036.87	0.456006
3038.15	0.701394
3039.44	0.435693
3040.73	0.183153
3042.01	0.452134
3043.3	0.706541
3044.59	0.755511
3045.87	0.354338
3047.16	0.406221
3048.44	0.445981
3049.73	0.500809
3051.01	0.843256
3052.3	0.59944
3053.58	0.328313
3054.87	0.588765
3056.15	0.5755
3057.43	0.711321
3058.72	1.1188
3060	0.749411
3061.29	0.979393
3062.57	0.801764
3063.85	0.706825
3065.13	0.816926
3066.42	0.669698
3067.7	0.645486
3068.98	0.771072
3070.26	0.542787
3071.54	0.32737
3072.82	0.27423
3074.11	0.31531
3075.39	0.423545
3076.67	0.381958
3077.95	0.489923
3079.23	0.354266
3080.51	0.219675
3081.79	0.0861268
3083.07	0.18397
3084.35	0.295815
3085.63	-0.0537758
3086.9	-0.118819
3088.18	0.127757
3089.46	0.224447
3090.74	-0.0999641
3092.02	-0.0581398
3093.29	-0.0977063
3094.57	0.0255833
3095.85	0.121803
3097.13	0.0281687
3098.4	-0.14689
3099.68	0.09799
3100.95	-0.212811
3102.23	-0.103686
3103.51	-0.0351534
3104.78	0.0335951
3106.06	0.0350571
3107.33	0.307706
3108.61	0.120866
3109.88	0.00230837
3111.16	0.127995
3112.43	-0.111516
3113.71	0.204558
3114.98	0.114083
3116.25	-0.126063
3117.53	-0.177129
3118.8	0.191423
3120.07	0.097929
3121.35	0.0986018
3122.62	0.234249
3123.89	0.098599
3125.16	-0.0640078
3126.44	0.00378895
3127.71	0.22062
3128.98	0.207631
3130.25	-0.0485988
3131.52	-0.0208716
3132.79	-0.0744638
3134.06	0.0741973
3135.33	-0.0882707
3136.6	0.288562
3137.87	0.0846629
3139.14	0.136601
3140.41	-0.188675
3141.68	0.0782003
3142.95	-0.233082
3144.22	0.288691
3145.49	-0.0754395
3146.76	0.124307
3148.02	-0.345729
3149.29	-0.0116057
