200.43	0.816845
202.246	0.835654
204.061	0.855678
205.875	1.09573
207.688	0.92268
209.501	0.579158
211.316	0.477697
213.129	0.447746
214.941	0.222605
216.753	0.166835
218.566	0.329212
220.377	0.153193
222.188	0.0993605
223.999	-0.412779
225.809	-0.512996
227.618	0.280775
229.43	0.687185
231.239	0.440962
233.047	0.556495
234.855	0.0453835
236.663	0.114529
238.471	0.37871
240.278	0.380497
242.087	0.891203
243.894	-0.0194216
245.7	0.0344849
247.506	0.40069
249.311	0.498548
251.116	0.448098
252.921	0.104999
254.725	0.0980082
256.529	0.0182095
258.333	-0.470343
260.136	0.295937
261.939	0.38952
263.744	0.60544
265.546	0.557565
267.348	0.0521793
269.15	0.076581
270.951	-0.285622
272.752	-0.239221
274.552	0.287901
276.353	-0.0305624
278.152	-0.109854
279.952	0.0496492
281.751	0.230829
283.55	0.602077
285.348	0.0820837
287.146	0.354294
288.942	0.170349
290.739	-0.0363941
292.536	-0.00205612
294.333	-0.0139427
296.129	0.33439
297.925	0.468533
299.721	0.220888
301.516	0.403144
303.311	-0.179668
305.106	0.0242357
306.9	0.823185
308.694	0.786639
310.486	-0.107
312.279	0.382768
314.072	0.254948
315.864	1.0102
317.656	0.457819
319.448	0.311875
321.24	0.333945
323.029	0.619196
324.819	0.523521
326.61	0.547242
328.4	0.785766
330.19	0.808681
331.977	0.806338
333.766	0.108225
335.555	0.915042
337.343	0.546803
339.131	-0.326086
340.917	0.0195169
342.704	0.268327
344.491	-0.677857
346.277	0.16854
348.062	-0.0355225
349.848	0.119152
351.633	0.226056
353.416	0.260713
355.201	0.771288
356.986	0.874626
358.77	0.40439
360.552	0.100128
362.335	0.413978
364.118	0.536264
365.899	0.229891
367.682	0.991274
369.464	0.446041
371.243	-0.14642
373.025	0.586577
374.806	0.821181
376.585	0.441554
378.365	0.134055
380.143	0.252177
381.923	-0.358326
383.702	0.797514
385.479	0.331316
387.258	0.454374
389.034	0.273195
390.812	0.281075
392.59	-0.250294
394.365	0.134891
396.142	-0.0901146
397.916	0.459993
399.693	0.798587
401.467	0.103224
403.242	-0.0526047
405.015	0.495338
406.79	0.361332
408.565	-0.266351
410.337	0.326432
412.111	0.261886
413.882	0.362046
415.656	-0.123632
417.426	0.400492
419.197	0.385661
420.969	0.465004
422.739	0.309349
424.51	0.176382
426.279	0.488445
428.05	0.0718317
429.819	0.476274
431.589	0.411186
433.356	0.346432
435.124	0.188171
436.893	0.66357
438.66	0.692271
440.428	0.484694
442.194	1.11941
443.96	0.86015
445.727	0.294536
447.492	0.126351
449.259	0.729584
451.023	0.187028
452.787	0.369401
454.553	-0.0314131
456.316	0.244282
458.079	0.542657
459.844	0.491552
461.606	0.999356
463.368	-0.0721245
465.132	0.370077
466.893	0.443554
468.654	0.0319672
470.415	0.62207
472.177	0.562031
473.937	0.338129
475.696	0.810814
477.456	0.465936
479.217	0.654684
480.975	0.25994
482.733	0.214746
484.491	0.75307
486.251	-0.104057
488.008	0.975009
489.765	0.634975
491.522	0.108874
493.278	0.423718
495.036	0.99664
496.791	0.727831
498.546	0.341043
500.301	0.844186
502.056	1.15969
503.81	0.676062
505.566	1.22462
507.319	-0.0855589
509.073	0.201125
510.825	0.745058
512.578	0.510806
514.33	1.23958
516.082	0.46094
517.833	0.104667
519.587	0.00612831
521.337	0.235805
523.088	0.558643
524.838	0.927831
526.588	0.944709
528.337	0.422324
530.087	0.205008
531.835	0.690134
533.584	0.354537
535.332	0.275393
537.08	0.615491
538.827	0.556477
540.574	0.193075
542.321	0.179002
544.068	0.513488
545.814	0.335912
547.56	0.391035
549.305	0.678116
551.05	0.223799
552.795	0.742179
554.54	0.242982
556.284	0.391431
558.027	-0.0595598
559.771	0.366313
561.514	0.792057
563.257	0.619736
564.999	0.494312
566.742	-0.411221
568.481	0.108552
570.223	0.0781918
571.964	0.508168
573.705	0.435174
575.445	0.410055
577.185	0.639228
578.925	-0.185894
580.665	0.229317
582.402	-0.11323
584.141	-0.41068
585.879	0.187508
587.617	0.163588
589.355	-0.298801
591.092	0.296105
592.828	-0.0528755
594.564	0.17315
596.301	-0.0839329
598.037	0.441189
599.773	0.252719
601.506	0.40843
603.242	0.194713
604.976	0.715182
606.711	0.0848055
608.443	0.32686
610.177	0.315989
611.91	0.122138
613.644	0.479601
615.374	0.356256
617.107	-0.110453
618.839	-0.0506001
620.569	0.763444
622.3	-0.049058
624.032	-0.0613356
625.761	-0.1193
627.491	-0.313086
629.221	-0.116683
630.949	0.219039
632.679	0.374444
634.408	0.417003
636.135	0.710367
637.863	0.248558
639.592	0.947802
641.318	0.000826836
643.045	-0.468929
644.77	0.19923
646.497	-0.225452
648.224	0.398136
649.948	0.251953
651.674	0.405424
653.398	0.358735
655.123	0.520457
656.846	0.366296
658.57	0.372497
660.293	-0.0780592
662.017	0.450907
663.738	0.338264
665.462	0.199968
667.185	0.219549
668.905	0.489864
670.628	-0.0625362
672.348	0.73702
674.067	0.372289
675.789	0.513649
677.508	0.564942
679.228	0.570623
680.947	0.437313
682.667	0.761952
684.385	0.255899
686.104	0.668292
687.821	0.296027
689.538	0.636528
691.256	0.0778637
692.972	1.06184
694.69	0.89322
696.406	0.746559
698.121	0.506545
699.837	0.288315
701.552	1.37992
703.268	0.998161
704.982	1.48885
706.695	0.968399
708.41	1.09034
710.123	1.18874
711.836	0.416601
713.55	0.514625
715.262	0.840786
716.973	1.21197
718.685	1.08074
720.398	1.38296
722.108	1.27498
723.818	1.21275
725.53	0.991362
727.24	0.724618
728.949	1.22943
730.658	1.4834
732.369	1.14755
734.077	0.947909
735.785	1.78844
737.493	1.36324
739.2	1.27802
740.909	0.720679
742.616	1.49457
744.322	1.23347
746.028	1.40184
747.734	0.761827
749.441	1.0683
751.146	1.42117
752.851	0.830854
754.555	0.916844
756.26	1.02704
757.963	0.778817
759.667	1.45565
761.372	1.3907
763.075	1.34886
764.777	1.35185
766.479	1.80548
768.181	1.57933
769.883	1.89318
771.584	1.68462
773.285	1.29348
774.986	1.39928
776.686	2.31962
778.386	1.79439
780.085	1.90407
781.785	1.08758
783.484	1.74181
785.182	1.48969
786.881	1.95929
788.579	1.58776
790.276	1.57467
791.974	1.5811
793.671	1.96948
795.367	1.83793
797.064	1.6175
798.76	0.813757
800.456	1.341
802.151	1.0144
803.846	1.43099
805.541	1.84711
807.236	1.54291
808.93	1.82159
810.624	2.23319
812.317	1.40977
814.01	1.81931
815.703	2.1831
817.394	2.2331
819.086	2.37247
820.778	2.04288
822.47	2.20514
824.161	1.65461
825.852	2.08687
827.543	2.0089
829.231	1.73375
830.921	1.59575
832.611	1.72828
834.3	1.03862
835.989	1.28613
837.676	1.51144
839.364	1.51243
841.053	1.22128
842.74	1.62108
844.426	2.22157
846.113	1.25849
847.8	1.37004
849.486	1.30544
851.171	1.75856
852.857	1.65441
854.542	1.6858
856.227	1.58233
857.911	1.16263
859.595	1.39293
861.279	0.968547
862.961	1.35289
864.645	1.6009
866.329	1.6902
868.01	1.14743
869.692	0.919665
871.375	1.45842
873.055	0.981888
874.737	0.572827
876.418	1.02122
878.097	0.995789
879.778	0.767093
881.457	0.62827
883.137	0.827304
884.817	1.04772
886.495	1.10856
888.174	0.761502
889.851	0.976781
891.53	1.19016
893.206	1.26663
894.884	1.47663
896.562	0.920703
898.237	1.15076
899.914	1.11006
901.589	1.06857
903.265	1.20553
904.94	1.31961
906.615	0.697049
908.289	1.14683
909.964	0.683509
911.637	0.600379
913.31	1.27383
914.984	0.791798
916.656	0.887521
918.33	1.75866
920.001	0.679862
921.674	1.66095
923.345	1.426
925.015	0.552649
926.687	0.521297
928.357	1.17606
930.028	1.61121
931.698	1.05418
933.366	1.00504
935.037	1.17668
936.705	0.179865
938.373	1.54391
940.043	0.461203
941.71	0.63698
943.379	1.03432
945.046	0.835802
946.712	0.70221
948.378	0.654903
950.046	0.428961
951.711	0.819542
953.376	1.12169
955.043	1.00646
956.708	1.22512
958.372	1.16083
960.036	0.90105
961.701	0.907793
963.364	0.803939
965.027	1.11834
966.69	1.09812
968.354	0.875566
970.016	0.562141
971.678	0.446898
973.339	0.663895
975	0.926657
976.661	0.815521
978.324	0.661809
979.984	0.918166
981.644	1.17426
983.303	1.7278
984.962	1.10581
986.621	1.43328
988.282	0.674352
989.94	0.202158
991.598	0.436967
993.256	-0.101734
994.913	1.30283
996.57	0.720369
998.227	0.64569
999.884	1.25396
1001.54	1.39858
1003.2	0.926309
1004.85	1.35596
1006.51	0.246593
1008.16	0.676113
1009.82	-0.0137587
1011.47	0.438122
1013.12	0.34203
1014.78	0.290297
1016.43	0.852036
1018.08	0.844893
1019.74	0.969893
1021.39	1.2709
1023.04	0.895448
1024.69	0.980207
1026.34	0.847124
1028	0.211576
1029.65	0.733382
1031.3	0.816803
1032.95	1.31314
1034.6	1.61066
1036.25	1.31746
1037.9	0.696946
1039.55	0.752094
1041.19	1.0254
1042.84	0.712939
1044.49	0.967687
1046.14	0.876959
1047.79	1.20108
1049.43	1.3751
1051.08	1.0728
1052.73	0.271705
1054.37	1.16561
1056.02	0.51678
1057.66	1.47606
1059.31	1.261
1060.95	1.11038
1062.6	1.08931
1064.24	0.610568
1065.88	0.891655
1067.53	1.21483
1069.17	1.01524
1070.81	0.771611
1072.46	0.506327
1074.1	0.675751
1075.74	0.911294
1077.38	0.974748
1079.02	0.714371
1080.66	1.34398
1082.3	0.846002
1083.94	1.36616
1085.58	0.496937
1087.22	-0.00561142
1088.86	0.269682
1090.5	-0.0198708
1092.14	1.18131
1093.78	0.263257
1095.42	0.576938
1097.05	1.14963
1098.69	0.710609
1100.33	0.790833
1101.97	-0.0521212
1103.6	0.78541
1105.24	0.720726
1106.87	0.527695
1108.51	0.484931
1110.15	1.1505
1111.78	0.201908
1113.41	1.12126
1115.05	1.17936
1116.68	-0.00759792
1118.31	0.415039
1119.95	0.237983
1121.58	0.297777
1123.21	0.422898
1124.85	0.506247
1126.48	0.312468
1128.11	0.846729
1129.74	0.590521
1131.37	0.506068
1133	-0.00556755
1134.63	0.12402
1136.26	0.423889
1137.89	0.209671
1139.52	0.400103
1141.15	0.503845
1142.78	0.137457
1144.41	0.646013
1146.04	0.579268
1147.66	-0.338773
1149.29	0.449097
1150.92	0.491623
1152.55	-0.488007
1154.17	-0.48818
1155.8	0.532804
1157.43	-0.212896
1159.05	-0.192054
1160.68	0.297502
1162.3	0.277836
1163.93	-0.442338
1165.55	0.0712404
1167.17	-0.0107613
1168.8	0.395097
1170.42	0.373856
1172.05	0.392959
1173.67	-0.226885
1175.29	-0.104675
1176.91	0.207567
1178.54	0.286524
1180.16	0.0486164
1181.78	0.785076
1183.4	0.231792
1185.02	0.841336
1186.64	0.0765543
1188.26	-0.182493
1189.88	0.125925
1191.5	0.0315924
1193.12	-0.253375
1194.74	0.133399
1196.36	0.120751
1197.97	0.590711
1199.59	0.998717
1201.21	0.154983
1202.83	0.714476
1204.44	-0.0593729
1206.06	0.317194
1207.68	0.361314
1209.29	0.447484
1210.91	0.553616
1212.52	0.157437
1214.14	0.676059
1215.75	0.816669
1217.37	0.518108
1218.98	0.364437
1220.6	0.646859
1222.21	-0.0244932
1223.82	0.322026
1225.44	0.234837
1227.05	0.873671
1228.66	0.727475
1230.27	0.706886
1231.88	0.12955
1233.49	0.525133
1235.1	0.901359
1236.72	1.77506
1238.33	1.24446
1239.94	0.569679
1241.55	1.03239
1243.16	0.915683
1244.76	1.35674
1246.37	1.44494
1247.98	1.88371
1249.59	1.36974
1251.2	1.08309
1252.8	1.45865
1254.41	1.35925
1256.02	1.13701
1257.63	1.41263
1259.23	1.31726
1260.84	1.32637
1262.44	1.66737
1264.05	1.40792
1265.66	1.62444
1267.26	1.23911
1268.87	1.20498
1270.47	1.48065
1272.07	1.31971
1273.68	1.88321
1275.28	1.59549
1276.88	1.53476
1278.48	1.76309
1280.09	1.12086
1281.69	1.45157
1283.29	2.09242
1284.89	1.9062
1286.49	2.42406
1288.09	1.86818
1289.69	2.20223
1291.3	1.77228
1292.9	2.21011
1294.49	2.0685
1296.09	1.7602
1297.69	1.8631
1299.29	2.10831
1300.89	1.95965
1302.49	1.56254
1304.09	1.90587
1305.68	1.40475
1307.28	2.7319
1308.88	1.7376
1310.47	1.7906
1312.07	2.151
1313.66	1.79576
1315.26	1.95319
1316.86	1.90732
1318.45	2.20905
1320.05	1.04236
1321.64	1.36352
1323.23	1.80445
1324.83	2.14077
1326.42	1.80464
1328.01	1.91473
1329.61	1.47846
1331.2	2.52144
1332.79	1.7263
1334.38	1.66199
1335.98	1.55933
1337.57	1.59864
1339.16	1.47591
1340.75	2.7211
1342.34	1.86874
1343.93	2.02078
1345.52	2.03059
1347.11	1.53918
1348.7	1.7719
1350.29	1.44669
1351.87	1.64493
1353.46	1.68545
1355.05	1.78746
1356.64	2.02975
1358.23	1.2726
1359.81	1.27369
1361.4	1.43323
1362.99	1.53177
1364.57	0.89215
1366.16	0.911032
1367.74	1.10999
1369.33	1.60872
1370.91	1.33263
1372.5	1.45621
1374.08	1.12342
1375.67	1.06998
1377.25	0.996752
1378.83	1.26126
1380.42	0.788404
1382	1.22932
1383.58	1.5293
1385.16	0.595509
1386.75	1.50971
1388.33	0.914
1389.91	0.835631
1391.49	1.77029
1393.07	1.5746
1394.65	0.744786
1396.23	1.42215
1397.81	1.18648
1399.39	0.949848
1400.97	0.573712
1402.55	1.20683
1404.13	2.27443
1405.7	1.14667
1407.28	0.712706
1408.86	1.66308
1410.44	1.09252
1412.01	1.25289
1413.59	1.15587
1415.17	1.43279
1416.74	1.35347
1418.32	1.9439
1419.89	1.13542
1421.47	1.60878
1423.05	1.35528
1424.62	1.14313
1426.19	0.89308
1427.77	1.27347
1429.34	1.25993
1430.92	1.73742
1432.49	1.50502
1434.06	2.2159
1435.63	1.96214
1437.2	2.29856
1438.78	2.36051
1440.35	1.99125
1441.92	2.38966
1443.49	2.33689
1445.06	2.44182
1446.63	2.17351
1448.2	2.35747
1449.77	2.16825
1451.34	2.54974
1452.91	2.55835
1454.48	2.39039
1456.05	3.10773
1457.62	2.30924
1459.18	2.43403
1460.75	2.2222
1462.32	1.89017
1463.89	2.30371
1465.45	2.0276
1467.02	1.5549
1468.59	1.12237
1470.15	1.27995
1471.72	1.51714
1473.28	1.08855
1474.85	0.56297
1476.41	1.15558
1477.98	1.16003
1479.54	1.36042
1481.11	1.22745
1482.67	0.800453
1484.23	0.706525
1485.8	0.906103
1487.36	0.517201
1488.92	0.61659
1490.48	0.205182
1492.05	0.71096
1493.61	0.275944
1495.17	0.483757
1496.73	0.397618
1498.29	0.856275
1499.85	0.498082
1501.41	0.879575
1502.97	0.60218
1504.53	0.384424
1506.09	0.844869
1507.65	0.568901
1509.2	0.350327
1510.76	0.420455
1512.32	0.450908
1513.88	-0.0387888
1515.44	0.337902
1516.99	0.541491
1518.55	0.611195
1520.1	0.70057
1521.66	0.923915
1523.22	1.33757
1524.77	0.0884085
1526.33	0.995851
1527.88	0.79545
1529.44	0.937241
1530.99	0.793761
1532.55	0.670196
1534.1	0.491104
1535.65	0.237888
1537.21	1.66782
1538.76	1.24583
1540.31	0.711982
1541.86	1.00816
1543.42	0.75787
1544.97	0.977882
1546.52	0.877907
1548.07	1.13443
1549.62	1.16546
1551.17	1.21534
1552.72	1.32181
1554.27	1.1114
1555.82	1.53785
1557.37	1.33114
1558.92	1.1455
1560.47	0.906106
1562.02	1.34009
1563.57	1.04778
1565.11	1.24116
1566.66	1.26676
1568.21	2.29995
1569.75	1.82098
1571.3	2.03215
1572.85	2.09364
1574.39	1.46426
1575.94	2.21628
1577.49	1.25108
1579.03	1.55577
1580.58	2.272
1582.12	1.70074
1583.67	1.31697
1585.21	1.88687
1586.75	2.17734
1588.3	1.53302
1589.84	1.80479
1591.38	2.05754
1592.93	1.80435
1594.47	1.43825
1596.01	2.10244
1597.55	1.9616
1599.09	1.80266
1600.63	1.68189
1602.18	1.48645
1603.72	1.38467
1605.26	2.10868
1606.8	2.04236
1608.34	1.95495
1609.87	1.7333
1611.41	1.41515
1612.95	1.39552
1614.49	1.65597
1616.03	1.50294
1617.57	1.65049
1619.11	1.29333
1620.64	1.63105
1622.18	1.8765
1623.72	1.78582
1625.25	1.39572
1626.79	1.52894
1628.32	1.71677
1629.86	1.94026
1631.4	1.62029
1632.93	1.43096
1634.47	1.91418
1636	1.76342
1637.53	2.39713
1639.07	2.24809
1640.6	2.02466
1642.14	1.48399
1643.67	1.87359
1645.2	1.53564
1646.73	1.42025
1648.27	2.53103
1649.8	1.59812
1651.33	2.04072
1652.86	1.70524
1654.39	1.90899
1655.92	2.31721
1657.45	2.83627
1658.98	2.16865
1660.51	2.09251
1662.04	2.01478
1663.57	1.52914
1665.1	1.59771
1666.63	2.14638
1668.16	2.41882
1669.69	1.80792
1671.21	1.71519
1672.74	1.03432
1674.27	1.5329
1675.79	1.22092
1677.32	0.926674
1678.85	1.49612
1680.37	1.14452
1681.9	1.39884
1683.42	0.550715
1684.95	1.31857
1686.47	1.42562
1688	0.836552
1689.52	0.981293
1691.05	1.19938
1692.57	0.923217
1694.1	0.811872
1695.62	1.15749
1697.14	0.570593
1698.66	0.55008
1700.19	0.346628
1701.71	0.927114
1703.23	0.74072
1704.75	0.44474
1706.27	0.785561
1707.79	0.252881
1709.32	0.81082
1710.83	0.96862
1712.35	0.310369
1713.88	0.3056
1715.39	0.608652
1716.91	0.495099
1718.43	0.508096
1719.95	0.773788
1721.47	0.0468512
1722.99	0.403358
1724.5	0.490138
1726.02	0.0199528
1727.54	0.145553
1729.06	1.00988
1730.57	-0.0493383
1732.09	0.450318
1733.61	-0.0808582
1735.12	0.242789
1736.64	0.344442
1738.15	-0.553926
1739.67	0.0914593
1741.18	0.325546
1742.7	-0.213897
1744.21	0.0744267
1745.72	0.346878
1747.24	0.328326
1748.75	0.262115
1750.26	0.4611
1751.78	0.784102
1753.29	0.170157
1754.8	0.492309
1756.31	-0.155657
1757.82	-0.168745
1759.34	0.263034
1760.85	0.0462132
1762.36	0.152614
1763.87	0.291348
1765.38	0.333097
1766.89	-0.0169611
1768.4	0.189674
1769.91	0.273473
1771.41	0.100253
1772.92	0.2741
1774.43	0.402421
1775.94	0.229465
1777.45	-0.020606
1778.96	0.335254
1780.46	-0.156429
1781.97	-0.132452
1783.48	-0.109871
1784.98	-0.0174751
1786.49	1.1817
1788	1.27286
1789.5	-0.0223732
1791.01	0.147412
1792.51	0.295037
1794.01	0.183516
1795.52	-0.194188
1797.02	0.319567
1798.53	0.100027
1800.03	-0.232878
1801.54	0.0619116
1803.04	-0.348237
1804.54	0.303971
1806.04	0.228738
1807.54	-0.091445
1809.05	-0.103795
1810.55	0.128608
1812.05	0.19067
1813.55	-0.00476551
1815.05	-0.0310955
1816.55	-0.119625
1818.05	0.0797729
1819.55	0.0187836
1821.05	-0.0578814
1822.55	0.12571
1824.05	0.20854
1825.55	-0.0116901
1827.05	0.00121689
1828.55	0.201476
1830.04	0.153556
1831.54	0.208527
1833.04	0.0686541
1834.54	0.120317
1836.03	-0.248974
1837.53	-0.105336
1839.03	0.0960064
1840.52	-0.483451
1842.02	0.391748
1843.51	0.109241
1845.01	0.328779
1846.5	0.0667162
1848	0.365647
1849.49	-0.0625534
1850.99	0.287035
1852.48	0.208474
1853.97	-0.0550108
1855.47	0.141386
1856.96	0.236496
1858.45	0.272367
1859.94	-0.110694
1861.44	-0.00342274
1862.93	0.255335
1864.42	0.199834
1865.91	-0.220956
1867.4	-0.0911589
1868.89	0.145506
1870.38	0.0293674
1871.87	0.27112
1873.36	0.364809
1874.85	0.22899
1876.34	-0.0583296
1877.83	0.0695658
1879.32	0.185174
1880.81	0.0576868
1882.3	-0.130346
1882.56	-0.164836
1884.06	-0.409892
1885.55	-0.0107918
1887.04	0.160653
1888.54	-0.138585
1890.03	0.0498486
1891.52	0.0652046
1893.02	0.429914
1894.51	-0.0207024
1896	0.416969
1897.49	0.386065
1898.99	0.00710201
1900.48	0.131498
1901.97	0.584742
1903.46	0.114228
1904.95	-0.0271368
1906.44	0.230454
1907.93	0.262016
1909.42	0.224753
1910.91	-0.141189
1912.4	-0.471334
1913.89	0.101052
1915.38	0.378522
1916.86	0.534165
1918.35	-0.0387812
1919.84	-0.0054121
1921.33	0.287661
1922.82	0.0268812
1924.3	-0.111693
1925.79	0.0971184
1927.28	-0.472054
1928.76	0.275178
1930.25	0.0354843
1931.74	-0.430196
1933.22	0.609174
1934.71	-0.0847635
1936.19	-0.156966
1937.67	0.323021
1939.16	0.0589571
1940.64	-0.308049
1942.13	-0.156065
1943.61	0.0140562
1945.09	-0.0909996
1946.58	0.0284739
1948.06	0.0269909
1949.54	-0.38868
1951.03	0.417499
1952.51	0.0861607
1953.99	0.356495
1955.47	0.282722
1956.95	0.364004
1958.43	0.136982
1959.91	-0.174827
1961.39	-0.0228605
1962.87	-0.0250864
1964.35	0.229482
1965.83	0.329171
1967.31	0.0857391
1968.79	0.0642824
1970.27	-0.111567
1971.75	0.0541649
1973.22	-0.0705509
1974.7	0.299618
1976.18	0.124053
1977.66	0.238454
1979.13	-0.0727272
1980.61	0.0417099
1982.09	0.189806
1983.56	-0.409979
1985.04	0.263752
1986.52	0.376522
1987.99	-0.104019
1989.47	0.347846
1990.94	-0.0971088
1992.41	0.0513735
1993.89	0.302147
1995.36	0.0634861
1996.84	0.23087
1998.31	0.178548
1999.78	-0.245591
2001.26	0.0724964
2002.73	-0.419792
2004.2	0.554902
2005.67	0.164186
2007.15	0.481981
2008.62	-0.142392
2010.09	-0.125876
2011.56	0.0426445
2013.03	0.177503
2014.5	-0.159316
2015.97	0.462208
2017.44	0.207858
2018.91	0.238643
2020.38	-0.0167866
2021.85	0.349252
2023.32	0.329222
2024.79	0.276478
2026.25	0.426283
2027.72	-0.0430241
2029.19	-0.0747242
2030.66	0.53239
2032.13	0.0164614
2033.59	0.172168
2035.06	0.344748
2036.53	-0.0373173
2037.99	0.302401
2039.46	0.339354
2040.92	-0.144855
2042.39	0.161382
2043.85	0.0312433
2045.32	0.00287247
2046.78	0.63184
2048.25	0.368986
2049.71	0.543709
2051.18	0.464585
2052.64	-0.122158
2054.1	0.368528
2055.56	0.250301
2057.03	0.585878
2058.49	0.347473
2059.95	0.732322
2061.42	0.37648
2062.88	0.408869
2064.34	0.593758
2065.8	0.072854
2067.26	-0.0264645
2068.72	0.649009
2070.18	0.432804
2071.64	0.115587
2073.1	0.437972
2074.56	0.372847
2076.02	0.543132
2077.48	0.628839
2078.94	0.20893
2080.39	0.428461
2081.85	0.310645
2083.31	0.461507
2084.77	0.645177
2086.22	1.04662
2087.68	0.942651
2089.14	0.586238
2090.6	0.666692
2092.05	0.797344
2093.51	0.592175
2094.96	0.85651
2096.42	0.885356
2097.87	1.3489
2099.33	1.32575
2100.78	0.934399
2102.24	1.26241
2103.69	0.939665
2105.15	1.46986
2106.6	1.05021
2108.05	1.44922
2109.51	1.69832
2110.96	1.3632
2112.41	0.976847
2113.86	1.15524
2115.32	1.43146
2116.77	0.858399
2118.22	1.46599
2119.67	1.55962
2121.12	1.75488
2122.57	1.70345
2124.02	1.32205
2125.47	1.90314
2126.92	1.75431
2128.37	1.96903
2129.82	1.71804
2131.27	2.21106
2132.72	1.79225
2134.17	1.96944
2135.62	1.80015
2137.06	1.99634
2138.51	2.14502
2139.96	2.21328
2141.41	2.28349
2142.85	2.05749
2144.3	2.55997
2145.75	1.60659
2147.19	2.35746
2148.64	2.21373
2150.09	2.36709
2151.53	2.27079
2152.97	2.75323
2154.42	2.25712
2155.86	2.45635
2157.31	3.03665
2158.75	2.54109
2160.2	2.47781
2161.64	2.33374
2163.08	2.35753
2164.53	2.68176
2165.97	2.60897
2167.41	2.38641
2168.86	2.51142
2170.3	2.50136
2171.74	2.27253
2173.18	2.25766
2174.62	2.4408
2176.06	2.3405
2177.5	2.44002
2178.94	2.59029
2180.38	2.54222
2181.82	2.31228
2183.26	1.75037
2184.7	2.45268
2186.14	2.17381
2187.58	2.52714
2189.02	2.39803
2190.46	2.35207
2191.89	2.43896
2193.33	2.17534
2194.77	2.24314
2196.21	2.05911
2197.64	1.60672
2199.08	1.71824
2200.52	2.06108
2201.95	2.0546
2203.39	1.50142
2204.83	1.81236
2206.26	1.89211
2207.7	1.75702
2209.13	2.05236
2210.57	1.83344
2212	1.39859
2213.43	1.83953
2214.87	1.40431
2216.3	1.8617
2217.73	1.56098
2219.17	1.41034
2220.6	1.22777
2222.03	1.27616
2223.47	1.66971
2224.9	1.38621
2226.33	1.39734
2227.76	1.09426
2229.19	1.46372
2230.62	0.880071
2232.05	1.29705
2233.49	1.15691
2234.91	0.707222
2236.34	0.945763
2237.77	1.10398
2239.2	0.823516
2240.63	0.626948
2242.06	0.986847
2243.49	0.875037
2244.92	0.616773
2246.35	0.716644
2247.78	0.651753
2249.2	0.943293
2250.63	0.531654
2252.06	0.607145
2253.48	0.86053
2254.91	0.528916
2256.34	0.410392
2257.76	0.618949
2259.19	0.408515
2260.61	0.509336
2262.04	0.888639
2263.46	0.474156
2264.89	0.61202
2266.31	0.408175
2267.74	0.658823
2269.16	0.680878
2270.59	0.523058
2272.01	0.77171
2273.43	0.222267
2274.85	0.715228
2276.28	0.491707
2277.7	0.431234
2279.12	0.533819
2280.54	0.701625
2281.97	0.26588
2283.39	0.84136
2284.81	0.633859
2286.23	0.067378
2287.65	0.366323
2289.07	-0.020112
2290.49	0.312534
2291.91	0.286099
2293.33	0.112562
2294.75	0.380618
2296.17	0.419658
2297.59	0.507803
2299.01	0.563313
2300.42	0.34044
2301.84	0.347218
2303.26	0.485541
2304.68	0.164549
2306.1	0.0402327
2307.51	0.506968
2308.93	0.135208
2310.35	0.157239
2311.76	0.261138
2313.18	0.661249
2314.59	0.1403
2316.01	0.426558
2317.43	0.203143
2318.84	0.60635
2320.26	0.415964
2321.67	0.273757
2323.08	0.179067
2324.5	0.148057
2325.91	0.345802
2327.33	0.739579
2328.74	0.209268
2330.15	0.437426
2331.56	0.353469
2332.98	-0.453436
2334.39	-0.0908585
2335.8	0.469187
2337.21	0.370641
2338.62	-0.287796
2340.04	0.400646
2341.45	0.430493
2342.86	-0.311492
2344.27	0.29224
2345.68	0.272684
2347.09	0.433611
2348.5	-0.0112791
2349.91	0.116541
2351.31	-0.165238
2352.72	-0.0392237
2354.13	-0.061204
2355.54	0.144386
2356.95	-0.090394
2358.36	-0.0969877
2359.76	0.0427647
2361.17	-0.126042
2362.58	-0.0837498
2363.98	-0.106428
2365.39	-0.145294
2366.8	0.0100422
2368.21	-0.30254
2369.61	0.160727
2371.02	0.463386
2372.42	-0.0545788
2373.83	0.298509
2375.23	0.120495
2376.64	-0.10602
2378.04	0.149031
2379.44	-0.304771
2380.85	-0.0851927
2382.25	0.0684338
2383.66	0.0926991
2385.06	-0.0272741
2386.46	0.101085
2387.86	0.230049
2389.26	-0.0784893
2390.67	0.251966
2392.07	-0.117368
2393.47	0.00797462
2394.87	0.118097
2396.27	0.499092
2397.67	0.387799
2399.07	0.610826
2400.47	0.00820637
2401.87	0.15262
2403.27	-0.0364714
2404.67	0.377495
2406.07	0.361784
2407.47	0.265803
2408.87	0.359426
2410.27	0.294118
2411.67	0.324169
2413.07	0.149158
2414.46	-0.135286
2415.86	-0.14909
2417.26	0.313334
2418.66	0.0800648
2420.05	0.132132
2421.45	0.168257
2422.84	0.0139217
2424.24	-0.235785
2425.64	0.164215
2427.03	0.342966
2428.43	0.237324
2429.82	0.132557
2431.22	0.0283899
2432.61	0.1465
2434.01	0.248304
2435.4	-0.0798874
2436.79	0.11466
2438.19	0.244163
2439.58	0.261147
2440.97	0.245449
2442.37	0.0863562
2443.76	0.45074
2445.15	-0.168744
2446.54	0.0999851
2447.93	-0.0912228
2449.33	0.0186863
2450.72	0.271223
2452.11	0.36583
2453.5	-0.314157
2454.89	0.256767
2456.28	0.22712
2457.67	0.10288
2459.06	0.389724
2460.45	0.470321
2461.84	0.154787
2463.23	0.755352
2464.62	0.438519
2466	-0.0520687
2467.39	0.104873
2468.78	-0.16439
2470.17	0.370698
2471.55	0.0220938
2472.94	-0.153513
2474.33	0.237076
2475.72	0.123093
2477.1	0.150377
2478.49	-0.0108795
2479.87	-0.0775642
2481.26	-0.0499058
2482.65	0.00897217
2484.03	-0.292755
2485.42	-0.00049305
2486.8	0.0557299
2488.19	0.126348
2489.57	-0.19353
2490.95	0.187636
2492.34	0.24194
2493.72	0.0953512
2495.1	-0.142684
2496.49	0.178887
2497.87	-0.0567751
2499.25	-0.0442142
2500.63	0.0453253
2502.02	0.396675
2503.4	0.0979252
2504.78	0.122783
2506.16	0.208606
2507.54	-0.0138063
2508.92	0.302465
2510.3	0.234564
2511.68	0.136764
2513.06	0.239193
2514.44	0.49547
2515.82	-0.150765
2517.2	0.168248
2518.58	0.0440722
2519.96	0.134114
2521.34	0.22379
2522.72	0.17533
2524.1	-0.0874357
2525.47	0.15242
2526.85	0.208903
2528.23	0.372218
2529.6	-0.0261745
2530.98	-0.301002
2532.36	0.140098
2533.74	0.35448
2535.11	-0.250854
2536.49	0.192048
2537.86	0.208877
2539.24	-0.0486336
2540.61	-0.00315571
2541.99	0.178537
2543.36	0.193501
2544.74	0.254814
2546.11	0.332518
2547.49	0.153584
2548.86	0.111979
2550.23	0.0400562
2551.61	-0.30554
2552.98	-0.0753441
2554.35	0.381455
2555.72	-0.0730886
2557.09	-0.300434
2558.47	0.0635891
2559.84	0.336724
2561.21	0.170744
2562.58	-0.312801
2563.95	0.0680408
2565.32	0.555365
2566.69	0.451929
2568.06	0.394044
2569.43	0.427092
2570.8	0.0509109
2572.17	-0.113067
2573.54	0.208087
2574.91	0.574857
2576.28	-0.346979
2577.65	0.125887
2579.02	0.0375566
2580.39	-0.384714
2581.75	-0.094718
2583.12	0.210048
2584.49	0.226489
2585.85	0.530875
2587.22	0.0623331
2588.59	0.094183
2589.95	0.41407
2591.32	0.385244
2592.68	-0.34103
2594.05	-0.0528784
2595.42	0.279548
2596.78	0.00523281
2598.15	0.0783644
2599.51	0.483659
2600.88	0.0575466
2602.24	0.115658
2603.6	0.415894
2604.97	-0.00785446
2606.33	0.172251
2607.69	-0.0703087
2609.06	-0.418977
2610.42	0.225689
2611.78	0.130684
2613.14	0.380523
2614.51	0.0733271
2615.87	-0.0384178
2617.23	0.135102
2618.59	0.26395
2619.95	0.124011
2621.31	-0.523363
2622.67	0.0708361
2624.03	-0.112014
2625.39	-0.115621
2626.75	0.342795
2628.11	0.189282
2629.47	0.244148
2630.83	0.298717
2632.19	0.115233
2633.55	0.229061
2634.91	0.416886
2636.26	0.619202
2637.62	0.12474
2638.98	0.134521
2640.34	0.218409
2641.69	-0.362823
2643.05	-0.145228
2644.41	0.219835
2645.76	0.289264
2647.12	-0.21673
2648.48	-0.103973
2649.83	0.243245
2651.19	-0.0724192
2652.54	0.0675135
2653.9	0.544806
2655.25	0.113215
2656.6	0.0202856
2657.96	0.309147
2659.31	-0.0450954
2660.67	-0.20852
2662.02	0.0518684
2663.37	0.311388
2664.73	0.234055
2666.08	0.199834
2667.43	0.077754
2668.78	0.232443
2670.14	0.183466
2671.49	-0.0684633
2672.84	0.436104
2674.19	0.0258293
2675.54	0.153579
2676.89	0.194723
2678.24	0.0624437
2679.59	0.337055
2680.94	0.337152
2682.29	0.251463
2683.64	0.471455
2684.99	0.184839
2686.34	0.072607
2687.69	-0.0834341
2689.04	0.23838
2690.39	0.297261
2691.74	0.10757
2693.08	-0.359131
2694.43	0.0872269
2695.78	0.445992
2697.13	0.0662642
2698.47	0.180446
2699.82	-0.181591
2701.17	0.182055
2702.51	0.0837889
2703.86	0.29077
2705.21	-0.0089798
2706.55	-0.207446
2707.9	0.319208
2709.24	0.236191
2710.58	0.167247
2711.93	0.461166
2713.27	-0.000505447
2714.62	0.147972
2715.96	0.34009
2717.3	0.0376644
2718.65	0.345843
2719.99	-0.00101089
2721.33	0.582982
2722.68	-0.157871
2724.02	0.119602
2725.36	0.454885
2726.71	-0.112646
2728.05	0.178259
2729.39	0.323349
2730.73	0.133602
2732.07	0.205738
2733.41	-0.0275431
2734.75	0.103024
2736.09	-0.0716743
2737.43	0.160996
2738.77	0.553587
2740.11	0.131516
2741.45	-0.16008
2742.79	0.361876
2744.13	0.141702
2745.47	0.298765
2746.81	0.1939
2748.14	-0.0707302
2749.48	0.201732
2750.82	0.213108
2752.16	-0.108724
2753.49	-0.0388088
2754.83	-0.0991678
2756.17	0.0868511
2757.5	-0.291781
2758.84	-0.177794
2760.18	-0.0200768
2761.51	0.0222836
2762.85	0.0940304
2764.18	0.0213737
2765.52	-0.13811
2766.85	0.121525
2768.19	0.0185633
2769.52	-0.215721
2770.86	-0.0176392
2772.19	-0.211028
2773.52	0.0277748
2774.86	0.121481
2776.19	0.0853577
2777.52	-0.123054
2778.86	0.0720434
2780.19	-0.0200462
2781.52	0.0462589
2782.85	-0.0740099
2784.19	0.0352783
2785.52	0.0870781
2786.85	0.511384
2788.18	-0.180824
2789.51	-0.184801
2790.84	-0.0735073
2792.17	0.367311
2793.5	-0.0636244
2794.83	-0.279963
2796.16	0.375054
2797.49	0.372089
2798.82	0.325722
2800.15	0.107701
2801.48	0.374619
2802.81	-0.0718145
2804.13	0.265715
2805.46	0.118192
2806.79	0.112567
2808.12	0.291224
2809.45	-0.284017
2810.77	-0.290312
2812.1	-0.125734
2813.43	0.110646
2814.75	0.234813
2816.08	-0.135765
2817.41	-0.0516262
2818.73	0.103926
2820.06	-0.222425
2821.38	0.244493
2822.71	0.143817
2824.03	0.14174
2825.36	0.422616
2826.68	0.434345
2828	0.51739
2829.33	-0.064374
2830.65	0.302851
2831.98	0.472074
2833.3	0.315657
2834.62	0.597706
2835.94	0.412181
2837.27	0.777994
2838.59	1.11491
2839.91	0.956472
2841.23	1.70307
2842.55	1.57342
2843.87	1.75546
2845.2	2.27744
2846.52	2.24894
2847.84	2.29152
2849.16	2.39065
2850.48	2.31984
2851.8	2.29088
2853.12	1.95043
2854.44	2.00532
2855.76	2.3143
2857.08	2.59493
2858.39	2.26819
2859.71	2.42169
2861.03	2.30667
2862.35	1.97959
2863.67	2.47087
2864.98	2.74998
2866.3	2.94429
2867.62	3.26571
2868.94	2.67099
2870.25	3.03558
2871.57	3.03374
2872.88	3.32756
2874.2	3.53589
2875.52	3.74291
2876.83	4.04708
2878.15	3.98416
2879.46	3.9632
2880.78	4.35025
2882.09	4.02139
2883.41	3.86253
2884.72	4.12608
2886.03	3.9831
2887.35	3.23675
2888.66	4.17404
2889.97	4.26828
2891.29	3.99693
2892.6	3.7952
2893.91	4.23788
2895.22	4.09251
2896.54	3.99017
2897.85	4.22492
2899.16	3.69123
2900.47	4.47355
2901.78	4.52887
2903.09	4.85019
2904.4	4.80798
2905.71	4.90597
2907.02	4.8088
2908.33	4.76851
2909.64	5.06495
2910.95	4.95632
2912.26	5.5895
2913.57	5.27003
2914.88	5.97093
2916.19	5.71782
2917.5	5.36504
2918.81	5.8508
2920.11	6.01442
2921.42	5.81521
2922.73	5.92506
2924.04	5.79886
2925.34	6.12126
2926.65	7.08742
2927.96	6.68372
2929.26	6.68496
2930.57	6.61566
2931.87	6.62969
2933.18	6.25206
2934.49	6.4056
2935.79	6.1959
2937.1	6.19604
2938.4	6.15448
2939.7	6.42068
2941.01	6.01674
2942.31	5.76748
2943.62	5.92486
2944.92	5.37084
2946.22	5.37719
2947.53	5.02044
2948.83	4.48118
2950.13	4.41641
2951.43	4.5318
2952.74	4.29517
2954.04	4.21115
2955.34	4.22478
2956.64	4.46332
2957.94	4.38213
2959.24	3.71575
2960.54	3.73809
2961.84	4.04293
2963.15	3.70366
2964.45	4.23376
2965.75	4.03254
2967.05	3.26722
2968.34	3.35759
2969.64	3.48945
2970.94	2.93207
2972.24	3.30329
2973.54	3.01366
2974.84	3.39954
2976.14	2.72899
2977.43	2.6906
2978.73	2.79131
2980.03	2.67908
2981.33	2.46711
2982.62	2.02975
2983.92	2.21171
2985.22	2.15575
2986.51	1.73599
2987.81	1.66905
2989.11	1.99658
2990.4	1.72012
2991.7	1.83669
2992.99	1.93815
2994.29	1.5887
2995.58	1.53328
2996.88	1.29469
2998.17	1.35082
2999.46	1.12665
3000.76	0.777019
3002.05	0.63848
3003.34	1.03293
3004.64	0.74086
3005.93	0.700805
3007.22	0.800191
3008.52	0.367039
3009.81	0.380992
3011.1	0.310417
3012.39	0.323349
3013.68	0.503701
3014.97	0.558764
3016.27	0.308012
3017.56	0.434228
3018.85	0.171234
3020.14	-0.119188
3021.43	-0.0204892
3022.72	-0.117118
3024.01	0.132452
3025.3	0.145216
3026.59	0.0885458
3027.88	-0.368771
3029.16	0.337113
3030.45	0.131603
3031.74	0.162559
3033.03	-0.0953569
3034.32	0.0198431
3035.6	0.272431
3036.89	0.165064
3038.18	0.207685
3039.47	-0.0680642
3040.75	-0.220907
3042.04	0.161125
3043.33	0.199479
3044.61	0.12913
3045.9	-0.103446
3047.18	0.0627003
3048.47	0.0261378
3049.75	0.169113
3051.04	-0.0821362
3052.32	0.226954
3053.61	0.317742
3054.89	0.216931
3056.18	0.565263
3057.46	0.339746
3058.74	0.345345
3060.03	0.173746
3061.31	0.288532
3062.59	0.0777864
3063.88	0.072557
3065.16	0.231987
3066.44	0.216086
3067.72	0.255589
3069	0.227546
3070.29	0.661729
3071.57	0.183874
3072.85	0.248927
3074.13	-0.217349
3075.41	0.0768609
3076.69	0.0174756
3077.97	0.0536261
3079.25	-0.180501
3080.53	0.116012
3081.81	-0.155697
3083.09	0.0757565
3084.37	0.199455
3085.65	0.0383406
3086.93	0.0668249
3088.21	-0.163179
3089.49	0.0948691
3090.76	0.176085
3092.04	0.0944152
3093.32	0.121521
3094.6	0.148987
3095.87	-0.0672674
3097.15	-0.256166
3098.43	-0.350083
3099.7	-0.0103922
3100.98	-0.0230694
3102.26	0.275883
3103.53	0.101188
3104.81	0.184331
3106.08	0.159979
3107.36	-0.147581
3108.63	-0.00749111
3109.91	0.0254345
3111.18	0.113548
3112.46	-0.0683756
3113.73	-0.14156
3115	-0.106297
3116.28	0.118522
3117.55	-0.226911
3118.83	0.240523
3120.1	0.259415
3121.37	0.752024
3122.64	0.186749
3123.92	0.339791
3125.19	0.0326538
3126.46	0.0917311
3127.73	0.394923
3129	0.576801
3130.27	0.677868
3131.55	0.45471
3132.82	0.434348
3134.09	0.535314
3135.36	0.311793
3136.63	0.749191
3137.9	0.740727
3139.17	0.772443
3140.44	0.736743
3141.71	0.499608
3142.98	0.464831
3144.24	0.873705
3145.51	0.59855
3146.78	0.686518
3148.05	0.533983
3149.32	0.931286
