200.533	0.129454
202.348	0.177433
204.162	0.226402
205.976	0.421989
207.792	-0.355035
209.605	0.422767
211.418	-0.18624
213.23	0.538544
215.044	0.702901
216.856	0.575113
218.667	-0.37615
220.478	0.610449
222.289	-0.386829
224.102	0.721005
225.912	0.136485
227.721	0.421803
229.531	0.0541534
231.34	0.434037
233.148	-0.36913
234.956	-0.423988
236.766	0.655266
238.574	-0.0232601
240.381	0.0720778
242.188	0.290233
243.994	0.22023
245.801	-0.1158
247.606	0.704675
249.412	0.218088
251.217	0.451923
253.024	0.320192
254.828	0.499863
256.632	0.148224
258.436	0.472367
260.239	-0.238015
262.042	0.450875
263.845	0.00907803
265.647	0.194525
267.449	0.331911
269.25	0.0106812
271.052	0.290874
272.852	-0.129695
274.653	-0.0216827
276.453	0.0119123
278.253	-0.1255
280.052	-0.0484896
281.852	0.0259314
283.65	-0.286815
285.449	-0.528687
287.247	0.380873
289.044	0.0416584
290.842	0.182787
292.639	0.253116
294.436	0.181354
296.232	0.182808
298.028	-0.101571
299.821	-0.170465
301.617	0.0229988
303.412	-0.381718
305.206	-0.047842
307	0.117525
308.794	0.0200605
310.588	0.161368
312.381	0.56566
314.172	0.757074
315.964	0.521811
317.756	0.383599
319.548	0.175343
321.34	0.325501
323.131	0.71495
324.921	0.198359
326.71	0.731621
328.5	0.404973
330.29	0.579019
332.079	0.799548
333.868	0.372074
335.654	0.30076
337.443	-0.29966
339.231	0.676642
341.018	0.382991
342.804	-0.0549107
344.591	-0.0386505
346.377	0.240699
348.163	0.329445
349.947	0.227531
351.733	0.411942
353.518	-0.0726452
355.303	0.634432
357.085	1.12471
358.869	0.254533
360.653	0.217491
362.435	0.77423
364.218	0.282956
366.001	0.219176
367.781	0.581713
369.563	0.0414629
371.345	-0.048727
373.124	0.735744
374.905	-0.254421
376.686	-0.180201
378.464	0.342278
380.244	0.228565
382.022	-0.0250216
383.801	0.28751
385.58	-0.104282
387.357	0.233876
389.135	0.760818
390.911	-0.214633
392.689	0.313907
394.466	0.678555
396.241	0.198039
398.018	0.140236
399.792	0.0820951
401.568	0.117332
403.341	-0.271016
405.117	0.396659
406.889	0.147449
408.664	0.461043
410.436	0.562795
412.21	0.195106
413.981	0.625699
415.755	0.56419
417.525	0.480011
419.298	0.701514
421.068	0.101768
422.84	0.816038
424.609	0.684427
426.38	0.223027
428.149	0.112786
429.919	-0.0449648
431.688	0.290084
433.455	0.39066
435.225	0.25684
436.992	0.216774
438.76	0.0819921
440.527	0.22717
442.293	-0.0287352
444.06	0.27585
445.826	0.695077
447.593	0.246272
449.357	0.8967
451.122	0.728352
452.888	0.187104
454.651	0.183368
456.415	0.0164003
458.18	-0.127246
459.942	-0.526611
461.705	0.633221
463.469	-0.0194712
465.23	0.0511112
466.991	0.0781565
468.752	0.758821
470.515	0.139744
472.275	0.521137
474.035	0.692516
475.797	0.466067
477.556	0.586496
479.315	0.0992088
481.073	0.426127
482.834	0.240749
484.592	0.825218
486.349	0.270453
488.106	1.25589
489.863	0.402173
491.622	0.902249
493.378	0.586081
495.134	1.01792
496.889	1.21632
498.645	0.45405
500.401	0.698298
502.156	0.5197
503.91	0.175374
505.664	0.863482
507.417	0.445521
509.171	0.519493
510.923	0.756413
512.678	0.7798
514.43	1.06029
516.182	0.045249
517.933	0.722647
519.684	1.30436
521.435	1.25026
523.186	0.491138
524.936	1.02343
526.686	0.921747
528.435	0.491923
530.184	0.41389
531.933	0.335456
533.682	1.07541
535.43	0.760459
537.18	0.514492
538.927	0.664279
540.674	0.555898
542.421	0.609893
544.167	0.105007
545.913	0.0195103
547.659	0.0736208
549.403	0.452385
551.148	0.969419
552.893	0.490932
554.637	0.822346
556.381	0.760974
558.125	0.354266
559.868	-0.0511494
561.611	-0.363205
563.354	0.590856
565.097	0.417908
566.839	0.131043
568.581	0.0290308
570.322	0.24951
572.063	0.104278
573.802	0.121449
575.542	0.278165
577.283	0.138443
579.022	0.528045
580.762	-0.321441
582.501	0.43689
584.24	0.321697
585.976	-0.093709
587.714	-0.510709
589.452	-0.0318232
591.19	-0.0370197
592.927	-0.157812
594.663	0.0663404
596.398	0.221516
598.134	-0.58965
599.87	0.508323
601.605	0.0179548
603.338	-0.243629
605.073	0.320995
606.808	0.0794783
608.542	0.41144
610.274	0.123243
612.007	0.0193825
613.74	0.00818253
615.473	0.295649
617.204	0.720547
618.936	-0.0234556
620.668	-0.241503
622.397	-0.346223
624.128	0.37121
625.859	0.356686
627.588	0.297744
629.318	0.469248
631.048	0.392323
632.775	0.340495
634.505	0.381088
636.233	0.444121
637.96	0.619345
639.688	0.608857
641.416	0.845881
643.142	0.783534
644.869	0.697104
646.594	0.361046
648.32	0.323139
650.045	0.447848
651.771	0.145094
653.496	0.596605
655.219	0.347197
656.944	0.190955
658.667	0.42292
660.391	0.677697
662.113	0.634232
663.837	0.793758
665.558	0.51628
667.281	0.373709
669.002	0.27604
670.724	0.453728
672.444	0.725255
674.166	1.27469
675.885	1.02524
677.606	0.753819
679.325	0.757615
681.045	0.64533
682.763	0.208731
684.483	0.736085
686.2	0.31751
687.917	0.818287
689.636	0.557837
691.352	0.964566
693.07	0.518285
694.786	0.278516
696.501	0.912772
698.219	0.900752
699.933	1.00236
701.65	0.688561
703.364	0.580927
705.078	0.26595
706.793	1.16714
708.506	0.874056
710.219	0.810128
711.934	0.58562
713.646	0.406921
715.358	1.14237
717.071	1.21434
718.782	0.989771
720.493	0.287201
722.204	0.724559
723.916	0.728921
725.626	1.256
727.336	0.827908
729.045	0.80855
730.756	1.49144
732.464	1.24406
734.173	0.996946
735.881	1.72225
737.59	1.0918
739.297	1.04988
741.004	0.603413
742.711	1.10502
744.417	0.99972
746.125	1.07615
747.831	1.4241
749.537	0.96373
751.242	1.44958
752.946	1.30717
754.651	1.34632
756.357	1.31971
758.061	1.52005
759.764	1.72233
761.467	1.6331
763.17	2.04077
764.872	1.90677
766.575	1.31931
768.276	1.9272
769.978	1.85459
771.679	1.73432
773.382	0.979252
775.083	1.89701
776.783	2.22748
778.483	2.65001
780.182	1.67234
781.882	1.96237
783.581	2.02643
785.279	1.65905
786.978	1.76421
788.676	1.86565
790.373	1.44295
792.071	1.85394
793.768	1.44955
795.464	1.69979
797.161	1.92813
798.857	1.88782
800.552	2.00726
802.248	1.27334
803.941	1.68772
805.636	2.10155
807.33	2.04218
809.024	2.29585
810.718	1.44821
812.412	2.08066
814.105	1.83766
815.798	1.75148
817.49	1.50884
819.183	2.0712
820.873	1.38241
822.564	2.21236
824.256	1.77119
825.947	2.37956
827.637	2.05447
829.328	1.93329
831.016	1.72663
832.705	1.50089
834.395	2.41424
836.084	1.70154
837.772	1.88047
839.459	1.74559
841.147	1.96616
842.835	1.80548
844.522	2.02408
846.209	2.13188
847.894	1.32513
849.581	2.84732
851.267	2.49384
852.953	1.76103
854.637	2.23951
856.322	1.75285
858.007	1.24141
859.689	1.89731
861.374	1.31356
863.058	1.6059
864.739	1.53641
866.423	0.969853
868.106	1.66504
869.787	1.27743
871.469	1.13744
873.151	0.952072
874.831	1.4435
876.512	1.07753
878.193	0.959752
879.872	1.22557
881.553	1.03952
883.231	1.7105
884.911	1.34172
886.591	1.24224
888.268	1.16358
889.947	1.17334
891.623	1.24901
893.302	1.93103
894.978	1.23805
896.656	1.46666
898.331	1.31192
900.008	1.80686
901.683	1.17953
903.359	0.799207
905.033	0.777203
906.709	1.24653
908.383	1.49256
910.058	0.603387
911.731	1.20756
913.405	1.18904
915.078	0.993359
916.752	0.842438
918.423	1.73332
920.096	1.07283
921.768	0.834524
923.438	0.818964
925.111	1.73303
926.781	1.03658
928.452	1.33585
930.122	1.63642
931.791	1.23166
933.462	1.53326
935.13	0.710091
936.799	1.29913
938.468	0.301214
940.136	0.716197
941.803	1.46358
943.472	0.932321
945.139	1.37174
946.805	1.03734
948.473	0.811133
950.139	0.935918
951.804	0.926886
953.471	0.895924
955.136	1.1094
956.801	0.840978
958.465	1.41446
960.131	1.15306
961.794	1.57785
963.458	0.765162
965.12	0.56875
966.785	0.590378
968.447	1.29475
970.109	0.801952
971.771	1.14886
973.432	1.16452
975.095	0.629081
976.756	1.40056
978.417	0.957424
980.077	1.10121
981.737	1.24457
983.396	1.53025
985.057	1.92424
986.716	2.11631
988.375	2.15113
990.033	1.74208
991.691	0.868601
993.349	1.34322
995.006	1.66289
996.663	0.857226
998.32	1.52969
999.976	2.06886
1001.63	1.37367
1003.29	1.8452
1004.95	1.45804
1006.6	1.57672
1008.26	1.21229
1009.91	1.59485
1011.56	1.38536
1013.22	1.22053
1014.87	1.69157
1016.53	1.46207
1018.18	1.4085
1019.83	1.09355
1021.48	1.21736
1023.14	1.32058
1024.79	0.966003
1026.44	0.896277
1028.09	1.83165
1029.74	1.21489
1031.39	0.990026
1033.04	1.52746
1034.69	1.18961
1036.34	1.85339
1037.99	1.68738
1039.64	1.30389
1041.29	1.05233
1042.94	1.49828
1044.58	1.31587
1046.23	1.0274
1047.88	1.63173
1049.52	1.34764
1051.17	0.80439
1052.82	1.00057
1054.46	1.45803
1056.11	0.415983
1057.75	0.851436
1059.4	0.764639
1061.04	1.22067
1062.69	1.39312
1064.33	1.06432
1065.98	0.864771
1067.62	1.16388
1069.26	0.397084
1070.9	1.19371
1072.55	1.09956
1074.19	0.593847
1075.83	0.306633
1077.47	0.650012
1079.11	0.821275
1080.76	0.603096
1082.4	0.276469
1084.04	1.16303
1085.68	0.768383
1087.32	0.739926
1088.95	0.557474
1090.59	0.56797
1092.23	0.252867
1093.87	0.110545
1095.51	0.443364
1097.15	0.755023
1098.78	0.313936
1100.42	0.62891
1102.06	1.31165
1103.69	0.0600214
1105.33	0.402058
1106.97	1.04576
1108.6	1.40937
1110.24	0.610468
1111.87	0.411953
1113.51	0.405077
1115.14	0.847573
1116.77	0.387826
1118.41	0.357604
1120.04	0.392515
1121.67	0.578439
1123.31	0.594235
1124.94	1.03908
1126.57	0.565001
1128.2	0.434233
1129.83	1.13821
1131.47	0.902053
1133.1	0.131858
1134.72	0.259398
1136.36	0.578513
1137.98	0.383453
1139.62	0.20847
1141.24	0.352729
1142.87	0.645643
1144.5	0.213326
1146.13	-0.580172
1147.76	0.247612
1149.38	-0.30892
1151.01	0.583751
1152.64	-0.0572262
1154.27	-0.442799
1155.89	-0.0198479
1157.52	-0.0227909
1159.14	0.0597849
1160.77	0.185851
1162.39	0.206868
1164.02	0.314095
1165.64	-0.0883894
1167.27	0.104144
1168.89	0.295411
1170.51	-0.110474
1172.14	0.267766
1173.76	0.134019
1175.38	0.274846
1177	-0.136261
1178.63	0.0466194
1180.25	0.10304
1181.87	0.498887
1183.49	-0.28885
1185.11	0.128668
1186.73	-0.447841
1188.35	0.303854
1189.97	0.124519
1191.59	0.259159
1193.21	0.307636
1194.83	0.690951
1196.45	0.234682
1198.07	0.450765
1199.68	0.333818
1201.3	0.115432
1202.92	0.109271
1204.53	0.481758
1206.15	0.105382
1207.77	0.419082
1209.38	1.15019
1211	0.420157
1212.62	0.0846195
1214.23	1.05956
1215.84	0.656306
1217.46	0.854844
1219.07	1.50894
1220.69	0.604743
1222.3	0.802305
1223.91	0.690242
1225.53	0.435245
1227.14	1.05144
1228.75	1.95827
1230.36	0.922519
1231.97	1.00505
1233.59	1.6264
1235.2	1.75323
1236.81	1.86095
1238.42	1.84598
1240.03	1.60437
1241.64	1.13536
1243.25	1.18293
1244.85	1.53994
1246.46	1.54399
1248.07	2.39516
1249.68	1.25899
1251.29	1.75703
1252.9	1.61404
1254.5	1.53404
1256.11	1.745
1257.72	1.81277
1259.32	2.10967
1260.93	1.70408
1262.54	1.92004
1264.14	1.36969
1265.75	2.47628
1267.35	2.87781
1268.96	2.01357
1270.56	2.08079
1272.16	1.40026
1273.77	2.14903
1275.37	2.15011
1276.97	2.95814
1278.57	1.63098
1280.18	2.10547
1281.78	1.70995
1283.38	1.91487
1284.98	2.22374
1286.58	1.78936
1288.18	1.87323
1289.78	1.8549
1291.38	2.25048
1292.99	2.70783
1294.58	2.58563
1296.18	2.46178
1297.78	2.60425
1299.38	1.73351
1300.98	3.04725
1302.58	2.0503
1304.17	2.10343
1305.77	1.72383
1307.37	1.48815
1308.97	1.90906
1310.56	2.24714
1312.16	2.58502
1313.76	1.71664
1315.35	1.81147
1316.95	2.64232
1318.54	2.22816
1320.14	2.22214
1321.73	2.7649
1323.32	1.55466
1324.92	1.9099
1326.51	2.01894
1328.1	1.98517
1329.7	2.15468
1331.29	1.96186
1332.88	2.01473
1334.47	2.45397
1336.07	3.29832
1337.66	2.50887
1339.25	2.12251
1340.84	1.372
1342.43	1.94821
1344.02	2.13888
1345.61	1.48463
1347.2	1.89489
1348.79	1.04456
1350.37	1.73972
1351.96	1.59704
1353.55	1.23712
1355.14	1.17879
1356.73	1.20085
1358.31	1.70179
1359.9	1.06304
1361.49	0.683061
1363.07	1.57915
1364.66	1.29762
1366.25	0.996834
1367.83	1.27484
1369.42	1.01664
1371	0.919499
1372.59	0.227085
1374.17	1.14773
1375.75	1.05437
1377.34	0.662625
1378.92	1.44431
1380.5	0.573229
1382.09	1.71006
1383.67	0.816351
1385.25	0.856399
1386.83	0.776705
1388.42	0.280302
1390	0.618763
1391.58	0.620696
1393.16	0.0482559
1394.74	0.745819
1396.32	1.10576
1397.9	0.969093
1399.48	0.375622
1401.06	0.276744
1402.64	0.711775
1404.21	1.30459
1405.79	0.592431
1407.37	0.217922
1408.95	0.259571
1410.53	1.46713
1412.1	0.936249
1413.68	0.602409
1415.26	0.563763
1416.83	0.800294
1418.41	0.523725
1419.98	0.838824
1421.56	1.74561
1423.13	1.23645
1424.71	0.926294
1426.28	1.40492
1427.86	1.11657
1429.43	0.591677
1431	1.06955
1432.58	1.17207
1434.15	1.70624
1435.72	2.23958
1437.29	1.55394
1438.87	2.38309
1440.44	2.3878
1442.01	2.21687
1443.58	2.4792
1445.15	2.70276
1446.72	2.90693
1448.29	2.73786
1449.86	2.58881
1451.43	2.40102
1453	2.3515
1454.57	2.26311
1456.14	2.88294
1457.71	3.22665
1459.27	3.0767
1460.84	2.53087
1462.41	2.73044
1463.98	1.96418
1465.54	1.66904
1467.11	1.57026
1468.67	1.31499
1470.24	1.19842
1471.81	0.435908
1473.37	0.753713
1474.94	0.464389
1476.5	0.744216
1478.07	0.416367
1479.63	-0.107491
1481.19	0.642658
1482.76	0.765422
1484.32	0.339374
1485.88	0.0110273
1487.45	0.328278
1489.01	0.604678
1490.57	0.40913
1492.13	0.191843
1493.69	0.206929
1495.26	0.220022
1496.82	0.368299
1498.38	0.107371
1499.94	0.0420761
1501.5	-0.332458
1503.06	-0.200727
1504.62	0.0866871
1506.17	-0.342341
1507.73	0.273015
1509.29	0.0166883
1510.85	-0.201734
1512.41	0.446625
1513.97	0.765748
1515.52	0.00796127
1517.08	0.21259
1518.64	0.18752
1520.19	0.00996017
1521.75	0.65575
1523.31	0.0765448
1524.86	0.185038
1526.42	0.158681
1527.97	-0.135158
1529.52	-0.124545
1531.08	-0.246861
1532.63	0.0109453
1534.19	0.155451
1535.74	-0.209884
1537.29	0.465741
1538.85	0.423534
1540.4	0.777816
1541.95	0.509888
1543.5	0.543484
1545.06	-0.269217
1546.61	0.196615
1548.16	0.980289
1549.71	0.806455
1551.26	1.21364
1552.81	0.816329
1554.36	0.888099
1555.91	1.24153
1557.46	0.570037
1559.01	1.09553
1560.56	0.951391
1562.11	1.2382
1563.65	0.78008
1565.2	0.826289
1566.75	1.22719
1568.29	1.03067
1569.84	0.945669
1571.39	1.04688
1572.94	1.35312
1574.48	2.23791
1576.03	2.13338
1577.57	1.52508
1579.12	0.655828
1580.66	1.22487
1582.21	1.2721
1583.75	1.39506
1585.3	1.66849
1586.84	1.77444
1588.38	1.41304
1589.93	1.57501
1591.47	1.3622
1593.01	0.867815
1594.55	1.10332
1596.1	2.03226
1597.64	2.13765
1599.18	2.0377
1600.72	1.58209
1602.26	1.82102
1603.8	1.53435
1605.34	1.79141
1606.88	1.99062
1608.42	2.39429
1609.96	2.0997
1611.5	1.65209
1613.04	1.8598
1614.58	1.76546
1616.12	1.37069
1617.65	2.10162
1619.19	1.24079
1620.73	1.37498
1622.27	1.52941
1623.8	2.0966
1625.34	2.06463
1626.87	1.60129
1628.41	2.01595
1629.95	2.2603
1631.48	1.99853
1633.02	1.26968
1634.55	1.83006
1636.09	2.35351
1637.62	2.7471
1639.15	2.22766
1640.69	2.32362
1642.22	2.6609
1643.76	2.92198
1645.29	2.84628
1646.82	2.89968
1648.35	2.58102
1649.88	2.59757
1651.42	3.13493
1652.95	3.43223
1654.48	3.30434
1656.01	3.15883
1657.54	3.77295
1659.07	3.32986
1660.6	2.99651
1662.13	3.14266
1663.66	3.10229
1665.19	3.41218
1666.72	3.05772
1668.24	2.88964
1669.77	2.96332
1671.3	2.65194
1672.83	2.98684
1674.35	2.82493
1675.88	2.31297
1677.41	2.24203
1678.93	2.04103
1680.46	1.96766
1681.99	1.89348
1683.51	2.07607
1685.04	1.74474
1686.56	1.28588
1688.09	1.70784
1689.61	1.83671
1691.13	0.574251
1692.66	0.941835
1694.18	1.14436
1695.71	0.852884
1697.23	0.926856
1698.75	0.836012
1700.27	0.525796
1701.8	0.999599
1703.32	0.123532
1704.84	0.850626
1706.36	0.53897
1707.88	0.391143
1709.4	0.388785
1710.92	0.713179
1712.44	0.330085
1713.96	0.0746241
1715.48	0.48942
1717	0.632154
1718.52	0.322702
1720.04	0.248431
1721.56	0.336861
1723.07	0.0832376
1724.59	0.227405
1726.11	0.15674
1727.63	0.483557
1729.14	0.523308
1730.66	0.257562
1732.18	0.491489
1733.69	0.177052
1735.21	0.65222
1736.72	0.218333
1738.24	-0.158998
1739.75	0.0816164
1741.27	0.340907
1742.78	0.460246
1744.3	0.567922
1745.81	0.178692
1747.32	0.127678
1748.84	-0.248383
1750.35	0.0986385
1751.86	-0.100537
1753.37	-0.111467
1754.89	0.106321
1756.4	0.134644
1757.91	0.174229
1759.42	0.672012
1760.93	-0.131718
1762.44	0.145969
1763.95	0.237274
1765.46	-0.0778742
1766.97	0.278928
1768.48	0.24153
1769.99	0.0949278
1771.5	-0.118086
1773.01	-0.104939
1774.52	-0.238631
1776.03	-0.170344
1777.53	0.264186
1779.04	-0.297523
1780.55	-0.12163
1782.06	0.00258923
1783.56	-0.102851
1785.07	0.207682
1786.57	-0.00825787
1788.08	0.11546
1789.59	0.0491152
1791.09	-0.0996981
1792.6	0.173048
1794.1	0.30092
1795.6	0.0902767
1797.11	-0.158049
1798.61	-0.291917
1800.12	0.0242605
1801.62	0.21141
1803.12	0.1021
1804.63	0.329106
1806.13	0.134141
1807.63	0.0276442
1809.13	0.239667
1810.63	0.139274
1812.14	0.272326
1813.64	0.179664
1815.14	-0.116561
1816.64	-0.109609
1818.14	0.300065
1819.64	0.0124645
1821.14	0.0697498
1822.64	0.0264988
1824.14	0.0474987
1825.63	-0.407804
1827.13	-0.0212574
1828.63	0.224752
1830.13	0.0899401
1831.63	0.0107975
1833.12	0.0580378
1834.62	-0.0839319
1836.12	0.400028
1837.62	0.177785
1839.11	-0.208105
1840.61	0.203626
1842.1	-0.0223522
1843.6	0.280367
1845.09	0.159424
1846.59	0.19554
1848.08	0.208749
1849.58	0.0424976
1851.07	0.125032
1852.57	0.301882
1854.06	0.335123
1855.55	0.0184879
1857.04	0.227001
1858.54	0.0651503
1860.03	0.129101
1861.52	0.438168
1863.01	0.0482359
1864.5	0.00942326
1866	0.528756
1867.49	0.505371
1868.98	0.291587
1870.47	0.360286
1871.96	-0.141936
1873.45	0.485168
1874.94	0.325971
1876.43	0.411326
1877.92	0.470424
1879.41	-0.174194
1880.89	0.132945
1882.38	0.441498
1882.48	0.463466
1883.97	0.151795
1885.47	0.397145
1886.96	0.345221
1888.46	0.0316572
1889.95	0.0317707
1891.44	-0.00190258
1892.94	0.0530186
1894.43	0.248906
1895.92	0.446461
1897.41	0.401525
1898.9	0.565214
1900.4	0.223351
1901.89	0.558184
1903.38	0.525738
1904.87	0.61339
1906.36	0.561057
1907.85	0.595536
1909.34	0.00575256
1910.83	0.267616
1912.32	0.564972
1913.81	0.515944
1915.29	0.865874
1916.78	0.261763
1918.27	0.523977
1919.76	0.248396
1921.25	0.284649
1922.74	0.130805
1924.22	0.566557
1925.71	0.882237
1927.2	0.0565004
1928.68	0.235531
1930.17	0.276047
1931.65	0.817931
1933.14	0.249992
1934.63	0.753632
1936.11	0.701348
1937.59	0.129064
1939.08	0.369105
1940.56	0.591838
1942.05	0.435531
1943.53	0.297749
1945.01	0.298944
1946.5	0.559128
1947.98	-0.111703
1949.46	0.457518
1950.94	0.16425
1952.43	0.506999
1953.91	0.797073
1955.39	0.261805
1956.87	0.294333
1958.35	0.670782
1959.83	0.756
1961.31	0.481647
1962.79	0.242019
1964.27	0.37932
1965.75	0.481709
1967.23	0.309401
1968.71	0.735249
1970.19	0.5958
1971.67	0.473329
1973.14	0.828856
1974.62	0.569943
1976.1	0.447924
1977.58	0.377346
1979.05	0.783555
1980.53	0.797951
1982.01	0.387158
1983.48	0.129498
1984.96	0.296195
1986.43	0.903327
1987.91	0.0859127
1989.38	0.489322
1990.86	0.435927
1992.33	0.535791
1993.81	0.0787296
1995.28	0.518539
1996.76	0.38412
1998.23	0.621293
1999.7	0.807188
2001.18	0.334132
2002.65	0.485041
2004.12	0.399609
2005.59	0.516784
2007.06	0.247214
2008.54	0.416595
2010.01	0.670967
2011.48	0.286158
2012.95	0.625241
2014.42	0.223323
2015.89	0.409617
2017.36	0.712559
2018.83	0.560452
2020.3	0.407877
2021.77	0.708704
2023.24	1.12705
2024.71	0.656604
2026.17	0.690942
2027.64	0.592612
2029.11	0.512633
2030.58	0.601799
2032.04	0.406749
2033.51	0.833209
2034.98	0.672181
2036.45	0.863405
2037.91	0.818893
2039.38	0.219292
2040.84	0.594326
2042.31	0.616804
2043.77	0.152278
2045.24	0.613778
2046.7	0.87448
2048.17	0.731504
2049.63	0.773425
2051.1	0.578243
2052.56	0.836636
2054.02	0.688362
2055.48	0.757421
2056.95	0.94294
2058.41	0.453379
2059.87	0.418785
2061.33	0.923409
2062.8	0.873079
2064.26	1.05946
2065.72	0.0183887
2067.18	1.08184
2068.64	0.648119
2070.1	0.601789
2071.56	0.572329
2073.02	0.828935
2074.48	1.20316
2075.94	0.718219
2077.4	0.738036
2078.86	1.16157
2080.31	0.675244
2081.77	0.794529
2083.23	0.74471
2084.69	0.694107
2086.14	0.979168
2087.6	1.29692
2089.06	1.49624
2090.52	0.855233
2091.97	1.25568
2093.43	0.967621
2094.88	1.31685
2096.34	0.877388
2097.79	0.839725
2099.25	1.38718
2100.7	1.13069
2102.16	1.24243
2103.61	0.820521
2105.07	1.18488
2106.52	1.58379
2107.97	1.56668
2109.43	1.60001
2110.88	1.78274
2112.33	1.31395
2113.78	1.31001
2115.24	1.27099
2116.69	1.3141
2118.14	1.17472
2119.59	1.71749
2121.04	1.39909
2122.49	1.51431
2123.94	2.04567
2125.39	2.01393
2126.84	1.84927
2128.29	2.36313
2129.74	1.99679
2131.19	2.25858
2132.64	2.2046
2134.09	2.08441
2135.54	2.80848
2136.98	2.83951
2138.43	2.67448
2139.88	2.52831
2141.33	3.09488
2142.77	2.40653
2144.22	2.82682
2145.67	2.30427
2147.11	2.89023
2148.56	2.63115
2150.01	2.86784
2151.45	2.88798
2152.9	3.12227
2154.34	3.15668
2155.79	3.15732
2157.23	2.95923
2158.67	3.49084
2160.12	3.09643
2161.56	3.54915
2163	3.82219
2164.45	3.41739
2165.89	3.6772
2167.33	3.45548
2168.78	3.31526
2170.22	3.43874
2171.66	3.62615
2173.1	3.57815
2174.54	3.29544
2175.98	3.47769
2177.42	3.0116
2178.86	3.61057
2180.3	3.39607
2181.74	3.3988
2183.18	3.50205
2184.62	3.33956
2186.06	3.4599
2187.5	3.4139
2188.94	3.10164
2190.38	3.15542
2191.82	3.4253
2193.25	3.328
2194.69	2.94599
2196.13	3.4274
2197.57	3.10729
2199	2.96822
2200.44	2.74492
2201.88	2.33908
2203.31	2.66456
2204.75	2.07893
2206.18	2.47293
2207.62	2.93348
2209.05	2.41641
2210.49	2.32924
2211.92	2.32366
2213.36	2.13533
2214.79	2.4426
2216.22	2.40347
2217.66	2.10174
2219.09	1.96662
2220.52	1.55233
2221.96	1.50103
2223.39	1.82791
2224.82	2.00473
2226.25	1.76796
2227.68	1.48032
2229.11	1.66805
2230.55	1.7068
2231.98	1.69601
2233.41	1.42361
2234.84	1.79033
2236.27	1.37344
2237.7	1.59564
2239.12	1.44438
2240.55	1.40962
2241.98	1.32794
2243.41	1.00299
2244.84	1.29823
2246.27	1.31549
2247.7	1.0701
2249.12	1.05076
2250.55	1.04533
2251.98	0.972861
2253.41	1.1435
2254.83	1.23285
2256.26	1.0151
2257.68	1.1084
2259.11	0.83155
2260.54	1.19057
2261.96	1.08171
2263.39	1.23434
2264.81	1.51753
2266.24	0.955129
2267.66	1.28601
2269.08	1.01401
2270.51	1.2293
2271.93	0.939358
2273.35	1.08879
2274.78	1.04288
2276.2	1.22526
2277.62	1.47311
2279.04	0.612587
2280.47	0.632092
2281.89	0.97768
2283.31	0.442331
2284.73	0.738991
2286.15	0.889102
2287.57	0.811079
2288.99	1.28879
2290.41	0.901284
2291.83	0.938766
2293.25	0.960044
2294.67	1.22673
2296.09	0.315017
2297.51	0.286722
2298.93	0.405874
2300.35	0.426963
2301.76	1.00586
2303.18	0.716119
2304.6	0.885836
2306.02	0.398724
2307.44	0.551575
2308.85	0.243729
2310.27	0.296805
2311.69	0.316593
2313.1	0.385691
2314.52	0.405837
2315.93	0.574921
2317.35	0.201286
2318.76	0.454101
2320.18	0.739957
2321.59	0.595932
2323.01	0.812951
2324.42	0.779975
2325.83	1.02506
2327.25	1.26808
2328.66	0.85071
2330.07	0.598682
2331.49	0.644151
2332.9	1.15156
2334.31	0.738187
2335.72	0.506233
2337.13	0.42195
2338.55	0.501121
2339.96	-0.374035
2341.37	0.705077
2342.78	0.518591
2344.19	0.119095
2345.6	0.326775
2347.01	0.829301
2348.42	0.709206
2349.83	0.572495
2351.24	0.12457
2352.65	0.737993
2354.05	0.435512
2355.46	0.540399
2356.87	0.205045
2358.28	0.0330191
2359.69	0.478863
2361.09	0.161012
2362.5	0.022151
2363.91	0.126417
2365.31	-0.0931978
2366.72	0.463575
2368.13	0.293252
2369.53	-0.0209007
2370.94	0.698395
2372.34	0.467649
2373.75	0.367023
2375.15	0.427857
2376.56	0.295193
2377.96	0.434937
2379.37	0.139048
2380.77	0.195128
2382.17	0.522237
2383.58	0.399152
2384.98	0.420045
2386.38	0.16168
2387.79	-0.0952253
2389.19	0.327193
2390.59	0.527104
2391.99	0.329932
2393.39	0.309078
2394.8	0.257288
2396.2	0.0790815
2397.6	0.743964
2399	0.360408
2400.4	0.374681
2401.8	0.595768
2403.2	0.515087
2404.6	0.465809
2406	0.606152
2407.4	0.618453
2408.79	0.12238
2410.19	0.403156
2411.59	0.557096
2412.99	-0.143451
2414.39	0.250149
2415.78	0.15435
2417.18	0.313215
2418.58	-0.0811176
2419.98	0.221623
2421.37	0.413491
2422.77	0.652583
2424.16	0.146748
2425.56	0.401462
2426.96	0.593369
2428.35	0.183846
2429.74	0.282525
2431.14	0.366156
2432.53	0.608785
2433.93	0.549356
2435.32	0.425168
2436.72	0.394707
2438.11	0.171988
2439.5	0.122717
2440.9	0.263082
2442.29	0.132913
2443.68	0.161217
2445.07	0.125866
2446.47	0.470892
2447.86	0.27665
2449.25	0.225119
2450.64	0.363862
2452.03	0.392244
2453.42	0.057477
2454.81	0.166698
2456.2	0.29243
2457.59	0.11795
2458.98	0.291318
2460.37	0.30592
2461.76	-0.0281553
2463.15	0.142935
2464.54	0.344891
2465.93	-0.116933
2467.32	0.116106
2468.7	0.175317
2470.09	0.407751
2471.48	0.292696
2472.87	0.413369
2474.25	0.186742
2475.64	0.21145
2477.03	-0.204374
2478.41	0.275584
2479.8	0.252782
2481.18	0.418351
2482.57	0.34858
2483.95	0.247137
2485.34	0.317007
2486.72	-0.0518999
2488.11	0.390356
2489.49	0.16057
2490.88	0.211346
2492.26	0.0915213
2493.65	0.237027
2495.03	0.0578594
2496.41	0.345296
2497.79	0.0601158
2499.18	0.23999
2500.56	0.434756
2501.94	-0.17526
2503.32	-0.0440264
2504.7	-0.129912
2506.09	0.0148764
2507.47	-0.0102215
2508.85	0.0263472
2510.23	-0.167104
2511.61	-0.0680151
2512.99	0.0316763
2514.37	-0.036396
2515.75	-0.0116472
2517.13	-0.0626192
2518.51	0.330411
2519.89	-0.0561047
2521.26	0.214272
2522.64	-0.0963411
2524.02	-0.193836
2525.4	-0.169983
2526.78	-0.131216
2528.15	0.24263
2529.53	0.236917
2530.91	-0.299098
2532.28	0.200192
2533.66	0.184171
2535.04	-0.10453
2536.41	0.548695
2537.79	0.122607
2539.16	-0.198003
2540.54	-0.245978
2541.91	0.145851
2543.29	0.0673409
2544.66	-0.055769
2546.04	0.156104
2547.41	0.308583
2548.78	0.401335
2550.16	0.0693779
2551.53	0.298369
2552.9	-0.0654278
2554.27	0.161585
2555.65	0.0538101
2557.02	-0.160659
2558.39	-0.0263891
2559.76	0.578018
2561.13	0.212735
2562.51	-0.303301
2563.88	0.105737
2565.25	0.272762
2566.62	-0.0751762
2567.99	0.213486
2569.36	-0.301065
2570.73	-0.163917
2572.1	-0.0266991
2573.47	0.368329
2574.84	0.111663
2576.2	0.218873
2577.57	0.235067
2578.94	-0.14319
2580.31	0.115047
2581.68	0.433518
2583.05	-0.188446
2584.41	-0.158651
2585.78	-0.0228024
2587.15	-0.09904
2588.51	0.0371208
2589.88	0.400721
2591.24	0.0822592
2592.61	0.0967398
2593.98	-0.0259285
2595.34	0.0624504
2596.71	-0.107625
2598.07	0.130128
2599.44	-0.161956
2600.8	0.422799
2602.16	-0.0497046
2603.53	0.0525818
2604.89	-0.0860415
2606.26	-0.103655
2607.62	-0.000918388
2608.98	0.342034
2610.34	-0.0848265
2611.71	-0.346872
2613.07	-0.203643
2614.43	0.223949
2615.79	-0.355015
2617.15	-0.227995
2618.52	-0.190476
2619.88	0.0572805
2621.24	-0.427255
2622.6	-0.0737705
2623.96	0.0704412
2625.32	-0.143704
2626.68	-0.223584
2628.04	-0.0503435
2629.4	-0.0563412
2630.75	0.339185
2632.11	-0.336406
2633.47	0.147705
2634.83	-0.125937
2636.19	-0.206356
2637.55	0.0986357
2638.9	0.462432
2640.26	0.248837
2641.62	0.0358534
2642.98	0.0598726
2644.33	0.290745
2645.69	-0.0983715
2647.04	0.0139122
2648.4	0.00749397
2649.76	0.191571
2651.11	0.0805483
2652.47	0.0428591
2653.82	-0.141237
2655.18	0.188809
2656.53	-0.227493
2657.88	0.32402
2659.24	0.071291
2660.59	0.0386171
2661.95	0.00586414
2663.3	-0.129679
2664.65	-0.236666
2666	0.414195
2667.36	-0.306397
2668.71	-0.0648279
2670.06	0.162093
2671.41	0.185689
2672.76	-0.109721
2674.12	-0.563855
2675.47	0.144264
2676.82	0.199462
2678.17	0.0522842
2679.52	0.254077
2680.87	0.0364771
2682.22	0.0811348
2683.57	-0.0759468
2684.92	0.0290136
2686.27	0.105549
2687.62	-0.253399
2688.97	0.271884
2690.31	0.142229
2691.66	-0.148952
2693.01	0.138838
2694.36	0.25133
2695.71	-0.0133095
2697.05	0.085103
2698.4	-0.00346947
2699.75	0.1559
2701.09	0.172319
2702.44	-0.0413971
2703.78	-0.0802498
2705.13	-0.118561
2706.48	0.104254
2707.82	0.00779724
2709.17	0.172166
2710.51	0.0894012
2711.86	-0.022727
2713.2	0.0829144
2714.54	0.493817
2715.89	0.323334
2717.23	0.152628
2718.57	0.30164
2719.92	0.188442
2721.26	0.394923
2722.6	0.149763
2723.95	0.224314
2725.29	0.138318
2726.63	0.0956163
2727.97	0.300026
2729.31	-0.0342722
2730.65	0.227946
2732	0.315502
2733.34	0.461333
2734.68	-0.163568
2736.02	0.171802
2737.36	0.536392
2738.7	0.101079
2740.04	0.0873156
2741.38	0.000391006
2742.72	0.465274
2744.05	0.202543
2745.39	0.389703
2746.73	0.445578
2748.07	0.399605
2749.41	0.16512
2750.75	-0.0544376
2752.08	0.320867
2753.42	0.217915
2754.76	-0.203504
2756.09	0.215563
2757.43	-0.0749331
2758.77	0.214049
2760.1	-0.0611238
2761.44	-0.00285053
2762.78	0.142746
2764.11	-0.0585728
2765.44	0.0873928
2766.78	0.030365
2768.11	-0.0275583
2769.45	-0.0867395
2770.78	-0.262938
2772.12	-0.238098
2773.45	0.218565
2774.78	0.24137
2776.12	0.0336313
2777.45	-0.115788
2778.78	0.00884628
2780.12	0.033267
2781.45	0.0867424
2782.78	0.326828
2784.11	0.179333
2785.44	-0.283287
2786.78	-0.0575991
2788.11	-0.218163
2789.44	0.0514803
2790.77	-0.0500202
2792.1	0.249732
2793.43	0.335426
2794.76	0.0495701
2796.09	-0.0221434
2797.42	-0.0657883
2798.75	-0.0956831
2800.08	0.216554
2801.4	-0.199294
2802.73	-0.00181293
2804.06	-0.146796
2805.39	0.20645
2806.72	0.217049
2808.05	-0.100155
2809.37	0.0374813
2810.7	0.0755224
2812.03	0.185087
2813.35	0.0545931
2814.68	0.223466
2816.01	-0.116508
2817.33	0.281811
2818.66	0.411454
2819.98	0.0308943
2821.31	-0.165833
2822.63	0.104467
2823.96	0.246525
2825.28	0.104861
2826.61	0.0766068
2827.93	0.218799
2829.25	0.248293
2830.58	0.419846
2831.9	0.322677
2833.23	0.749209
2834.55	0.609212
2835.87	0.454583
2837.19	0.624892
2838.52	1.09173
2839.84	1.1197
2841.16	0.978106
2842.48	1.45898
2843.8	1.67189
2845.12	1.99864
2846.44	2.55224
2847.77	2.753
2849.08	2.54394
2850.4	2.63135
2851.73	2.94434
2853.05	2.87508
2854.36	2.46624
2855.68	2.79198
2857	3.37188
2858.32	3.14659
2859.64	3.44388
2860.96	3.3314
2862.28	3.54327
2863.59	3.93809
2864.91	4.02195
2866.23	4.13393
2867.55	4.17566
2868.86	4.34482
2870.18	4.8246
2871.5	5.29037
2872.81	5.57242
2874.13	5.48705
2875.44	5.73836
2876.76	6.3822
2878.07	6.13774
2879.39	5.73843
2880.7	6.25358
2882.02	6.2214
2883.33	5.60081
2884.65	5.72606
2885.96	5.89418
2887.28	5.66937
2888.59	6.13164
2889.9	6.50843
2891.21	5.84617
2892.53	6.20677
2893.84	6.02044
2895.15	6.59087
2896.46	6.53204
2897.78	6.40471
2899.09	6.13892
2900.4	6.62968
2901.71	7.02309
2903.02	6.47954
2904.33	7.06919
2905.64	7.5193
2906.95	7.46662
2908.26	7.41502
2909.57	7.42053
2910.88	7.80467
2912.19	8.00699
2913.5	8.15235
2914.81	9.21981
2916.12	9.09475
2917.43	9.66718
2918.73	9.87397
2920.04	9.38101
2921.35	9.77013
2922.66	10.5802
2923.96	10.5815
2925.27	10.9619
2926.58	10.9798
2927.88	10.9978
2929.19	11.9379
2930.5	11.9265
2931.8	11.9282
2933.11	11.7617
2934.41	11.4694
2935.72	11.8621
2937.02	11.7518
2938.33	10.7894
2939.63	10.9034
2940.94	10.6688
2942.24	10.687
2943.54	10.2457
2944.85	9.91806
2946.15	10.0394
2947.45	9.36433
2948.76	9.34616
2950.06	8.93431
2951.36	8.84178
2952.66	8.63447
2953.97	8.08911
2955.27	8.48116
2956.57	7.95046
2957.87	7.95439
2959.17	7.76599
2960.47	7.84736
2961.77	7.59523
2963.07	7.428
2964.37	7.03516
2965.67	6.54153
2966.97	7.07112
2968.27	6.79788
2969.57	6.83274
2970.87	6.64232
2972.17	5.80499
2973.47	5.81195
2974.77	5.97372
2976.07	5.95168
2977.36	5.4914
2978.66	5.57797
2979.96	5.19764
2981.26	5.05495
2982.55	5.23505
2983.85	4.54364
2985.15	4.75351
2986.44	4.13605
2987.74	3.77339
2989.03	3.76321
2990.33	3.43007
2991.63	3.7709
2992.92	3.88551
2994.21	3.12728
2995.51	2.74728
2996.8	2.90012
2998.1	2.49115
2999.39	2.23702
3000.69	2.17993
3001.98	1.9833
3003.27	2.30566
3004.57	1.80139
3005.86	2.05327
3007.15	2.01024
3008.44	1.5045
3009.74	1.57153
3011.03	1.58166
3012.32	1.68891
3013.61	1.20996
3014.9	1.27575
3016.19	1.42571
3017.48	1.57624
3018.78	1.37923
3020.07	0.86258
3021.36	1.45789
3022.65	0.995803
3023.94	1.0606
3025.23	1.11046
3026.51	1.04905
3027.8	1.02965
3029.09	0.472185
3030.38	0.566381
3031.67	0.468599
3032.96	0.799884
3034.24	0.344578
3035.53	0.399409
3036.82	0.728512
3038.11	0.752067
3039.39	0.745911
3040.68	0.847883
3041.97	0.646477
3043.25	1.08961
3044.54	0.971114
3045.83	1.19642
3047.11	0.945477
3048.4	0.888538
3049.68	0.656473
3050.97	0.944691
3052.25	1.12451
3053.54	1.12686
3054.82	0.869182
3056.11	1.15588
3057.39	1.1002
3058.67	1.07077
3059.96	1.19069
3061.24	1.32432
3062.52	0.778708
3063.81	1.21387
3065.09	0.902744
3066.37	0.783423
3067.65	1.26332
3068.94	0.451816
3070.22	0.469329
3071.5	0.649038
3072.78	0.473712
3074.06	0.636848
3075.34	0.71715
3076.62	0.83757
3077.9	0.415203
3079.18	0.496204
3080.46	0.56505
3081.74	0.540477
3083.02	0.0965824
3084.3	0.182335
3085.58	0.648072
3086.86	0.0546165
3088.14	0.478211
3089.42	0.249403
3090.69	0.00643635
3091.97	0.305916
3093.25	0.564568
3094.53	0.0367398
3095.8	0.146494
3097.08	0.337484
3098.36	0.0402508
3099.63	0.474546
3100.91	0.0278373
3102.19	0.271925
3103.46	0.0962925
3104.74	0.0158529
3106.01	0.206698
3107.29	-0.143006
3108.56	0.0359774
3109.84	0.310704
3111.11	0.247955
3112.39	0.131647
3113.66	0.00198555
3114.94	0.0753965
3116.21	0.243132
3117.48	0.138596
3118.76	0.358235
3120.03	0.169597
3121.3	-0.0743866
3122.57	-0.0208821
3123.85	0.0457029
3125.12	-0.145054
3126.39	0.0300245
3127.66	-0.200525
3128.93	0.137466
3130.21	-0.0518885
3131.48	0.218364
3132.75	0.0151467
3134.02	0.0816164
3135.29	-0.136237
3136.56	-0.314181
3137.83	0.289298
3139.1	-0.0652318
3140.37	0.293756
3141.64	-0.235632
3142.91	-0.15942
3144.17	0.0243206
3145.44	0.11427
3146.71	-0.103776
3147.98	-0.0129404
3149.25	0.0915518
