200.407	0.409744
202.221	0.397696
204.035	0.387439
205.849	0.938031
207.665	0.88118
209.478	0.702945
211.291	0.670088
213.104	0.15107
214.916	0.869239
216.73	0.834884
218.541	0.46203
220.352	0.816834
222.163	0.543654
223.973	0.441346
225.785	0.654325
227.595	-0.243535
229.404	0.0668058
231.213	0.425066
233.022	0.252396
234.83	-0.425752
236.638	0.055192
238.448	0.682887
240.255	0.373395
242.062	0.572775
243.868	0.267525
245.675	0.493386
247.48	0.114813
249.286	0.168598
251.091	0.147374
252.896	-0.358809
254.702	0.292066
256.506	0.0259981
258.31	0.725259
260.113	0.655073
261.916	0.514958
263.719	-0.20129
265.521	-0.0729923
267.323	-0.136737
269.125	0.0406208
270.926	0.121185
272.727	0.273333
274.527	-0.298849
276.328	-0.221249
278.127	0.409135
279.927	0.0979757
281.726	-0.0219526
283.525	-0.335612
285.323	0.383327
287.121	0.0922556
288.919	0.161678
290.716	0.639177
292.513	0.375446
294.31	0.40098
296.104	0.0218086
297.9	-0.164491
299.696	0.48634
301.491	0.277022
303.286	0.306049
305.081	-0.238666
306.875	0.76685
308.669	0.555488
310.463	0.39279
312.256	-0.101777
314.047	0.786855
315.839	0.391659
317.631	0.832021
319.423	0.369201
321.215	0.57481
323.006	0.185512
324.794	-0.27516
326.585	0.362278
328.375	-0.194066
330.165	0.826278
331.954	-0.234113
333.741	0.114796
335.53	0.0791206
337.318	0.328522
339.106	0.0495958
340.894	0.176003
342.679	-0.319873
344.466	-0.385134
346.253	0.362371
348.039	0.656583
349.823	0.784246
351.608	-0.0664854
353.393	0.252043
355.176	0.140128
356.961	0.289433
358.745	-0.182192
360.529	0.417424
362.31	-0.0316753
364.093	-0.00513458
365.876	-0.0504847
367.657	0.0460253
369.439	0.639573
371.221	0.259976
373	0.68506
374.781	-0.167268
376.56	-0.238485
378.34	0.280577
380.12	0.917406
381.898	0.0480328
383.677	0.47508
385.456	0.0802603
387.233	0.415608
389.011	-0.0232134
390.787	0.337804
392.565	0.0656013
394.34	0.569118
396.117	0.368623
397.894	-0.0665321
399.668	0.414197
401.444	0.0960484
403.217	0.223627
404.993	0.303578
406.766	0.500253
408.54	0.531983
410.312	-0.352014
412.086	0.383773
413.858	-0.170774
415.631	-0.114393
417.402	0.318263
419.174	0.446663
420.944	-0.175622
422.716	0.211154
424.486	0.433067
426.257	0.114202
428.025	0.0997515
429.794	0.249186
431.564	0.210856
433.332	0.0790091
435.101	0.135335
436.868	0.285578
438.637	-0.480065
440.403	0.55996
442.169	0.377714
443.937	0.263833
445.703	0.757331
447.468	0.429605
449.234	0.00846195
450.999	0.499374
452.765	-0.270761
454.528	0.0336037
456.292	-0.221852
458.057	-0.337269
459.819	0.175886
461.582	-0.0319166
463.344	0.110675
465.107	-0.0465384
466.868	0.310268
468.629	-0.306267
470.392	0.055274
472.152	0.929817
473.912	1.10619
475.672	1.09454
477.433	1.70955
479.192	1.71686
480.951	1.44353
482.709	1.33342
484.469	0.805387
486.226	0.721857
487.984	1.4563
489.74	1.14434
491.499	1.37
493.255	0.989331
495.011	1.00578
496.767	0.319935
498.522	0.358863
500.277	0.749177
502.033	0.670117
503.788	1.48256
505.541	1.58981
507.295	0.731525
509.048	0.529583
510.801	0.255317
512.553	1.36776
514.308	0.59621
516.06	1.28201
517.811	1.0725
519.562	0.674006
521.313	0.392573
523.063	0.439714
524.814	0.83865
526.563	0.908712
528.313	0.908393
530.062	0.626757
531.811	0.157649
533.559	1.02254
535.308	0.692147
537.055	0.127161
538.803	0.332307
540.55	0.955623
542.297	0.598339
544.043	0.171714
545.789	0.164334
547.535	0.157133
549.281	0.126998
551.026	0.583428
552.771	-0.371977
554.515	0.176774
556.259	0.424549
558.003	-0.0887947
559.747	0.343902
561.49	0.177857
563.233	0.518677
564.975	-0.151798
566.717	0.12102
568.459	0.899342
570.2	0.760051
571.942	0.186353
573.68	0.807276
575.421	0.420588
577.161	0.150146
578.901	0.271043
580.64	0.117188
582.379	0.124134
584.118	0.498405
585.855	0.435
587.593	0.0482502
589.331	0.419403
591.068	0.444544
592.805	0.101004
594.54	-0.219707
596.277	0.678964
598.013	0.28919
599.749	-0.100924
601.484	0.106328
603.217	0.197307
604.952	-0.126998
606.687	-0.0846186
608.421	-0.0890179
610.153	-0.0476904
611.886	-0.0518951
613.619	0.357304
615.35	0.606374
617.083	-0.725418
618.815	0.508341
620.547	0.229163
622.276	-0.0280333
624.008	0.331472
625.738	0.0279312
627.467	-0.0916491
629.197	-0.186543
630.927	-0.142365
632.655	0.245959
634.384	0.544115
636.113	0.47685
637.839	-0.00296974
639.568	0.404862
641.293	0.239264
643.021	0.0942936
644.748	0.289847
646.473	0.371514
648.2	0.136517
649.924	-0.0953455
651.65	0.267113
653.376	0.0196438
655.099	0.980581
656.824	0.511023
658.546	0.406148
660.271	0.688563
661.993	0.0793066
663.716	0.243955
665.438	0.383595
667.161	0.224164
668.881	-0.187706
670.604	0.636079
672.324	0.569696
674.045	0.00176239
675.765	-0.0379343
677.486	0.749408
679.204	0.964322
680.925	0.741898
682.643	0.747372
684.361	0.727711
686.08	0.268494
687.797	-0.0773563
689.516	0.888622
691.232	1.13986
692.95	0.192641
694.666	1.13345
696.382	1.08277
698.099	0.892755
699.813	0.494511
701.528	1.06143
703.244	0.546447
704.958	0.72046
706.673	0.73301
708.387	1.22668
710.099	0.57347
711.814	0.836703
713.526	1.0534
715.238	1.17806
716.949	0.708765
718.663	1.08438
720.374	1.27715
722.084	1.51527
723.796	1.00214
725.506	1.08083
727.216	0.545805
728.925	0.987096
730.636	0.814955
732.345	1.48075
734.053	1.10419
735.761	0.411959
737.471	1.16653
739.178	1.62706
740.885	0.847939
742.592	0.791952
744.298	1.32264
746.006	1.74165
747.712	1.73433
749.417	1.43597
751.122	1.61127
752.827	1.3155
754.532	1.04349
756.236	2.10053
757.942	1.60645
759.645	1.18087
761.348	1.63509
763.051	2.11308
764.753	2.23023
766.456	2.00745
768.158	1.57906
769.859	1.89432
771.56	1.52915
773.261	2.47403
774.964	1.83545
776.664	1.49136
778.364	1.71377
780.064	2.14129
781.763	1.86887
783.462	1.50592
785.16	2.18296
786.859	1.81646
788.557	1.40161
790.255	1.77554
791.952	1.80717
793.649	2.06284
795.346	1.34765
797.042	1.04028
798.738	1.45558
800.434	1.03926
802.127	1.27715
803.823	2.19017
805.517	2.22557
807.212	1.65341
808.906	1.48488
810.6	2.05596
812.293	1.63855
813.987	1.53487
815.68	1.5654
817.372	1.75237
819.064	1.62618
820.754	2.57222
822.446	1.41965
824.137	2.0533
825.828	1.86302
827.519	2.18731
829.209	1.95744
830.897	2.33198
832.587	1.79617
834.276	1.5518
835.966	2.15575
837.654	1.64436
839.341	1.82347
841.029	1.91178
842.717	1.73066
844.404	1.45951
846.091	2.26171
847.776	2.19413
849.463	2.84493
851.149	1.95434
852.833	1.64686
854.519	2.41673
856.204	2.15485
857.889	2.47586
859.572	2.0756
861.256	2.30332
862.94	2.19163
864.622	2.14607
866.305	1.94166
867.988	1.6688
869.669	2.20726
871.351	1.86582
873.033	1.32098
874.713	0.821028
876.395	1.11075
878.074	1.28771
879.755	1.19372
881.435	1.34768
883.114	0.823676
884.794	1.13389
886.471	1.14928
888.15	1.14055
889.829	1.19793
891.506	0.960794
893.184	0.902832
894.861	1.09135
896.538	1.18853
898.214	0.880299
899.891	1.08773
901.566	0.957813
903.242	1.31992
904.916	1.54682
906.592	1.57244
908.266	1.06354
909.941	1.31379
911.614	1.65338
913.288	1.48179
914.961	1.35531
916.635	1.00726
918.306	1.5463
919.979	1.61941
921.651	0.918667
923.321	1.01591
924.994	1.42381
926.664	1.32525
928.336	1.07394
930.005	1.46394
931.674	1.34703
933.345	1.75987
935.014	2.15071
936.682	2.45367
938.352	1.83121
940.019	1.43053
941.687	1.62659
943.356	2.37514
945.022	1.97624
946.689	1.48771
948.357	1.08556
950.022	1.3437
951.688	0.82825
953.355	0.952708
955.02	0.902149
956.684	1.00858
958.348	0.897603
960.014	1.12034
961.678	1.01362
963.341	1.41509
965.004	0.775913
966.669	1.17345
968.331	0.74969
969.993	0.921207
971.655	0.848455
973.316	1.32898
974.979	1.1253
976.64	1.29937
978.3	0.745033
979.961	0.854914
981.62	0.964508
983.28	0.829335
984.941	0.913631
986.6	1.46064
988.259	1.03199
989.917	1.06681
991.575	0.393701
993.233	0.737197
994.89	1.08036
996.547	1.40119
998.204	0.949883
999.86	1.24811
1001.52	1.54555
1003.17	2.08422
1004.83	1.34628
1006.49	1.24653
1008.14	0.00514126
1009.79	0.960217
1011.45	0.554775
1013.1	0.720109
1014.76	0.316131
1016.41	0.919999
1018.06	1.02048
1019.72	0.13746
1021.37	1.44243
1023.02	0.802425
1024.67	0.972252
1026.32	1.16449
1027.97	0.941578
1029.62	1.32982
1031.27	1.65111
1032.92	1.44654
1034.57	1.67678
1036.22	1.27297
1037.87	1.43529
1039.52	1.03126
1041.17	1.10703
1042.82	0.879668
1044.47	0.567385
1046.11	0.887132
1047.76	0.94802
1049.41	1.27118
1051.06	1.00926
1052.7	1.44329
1054.35	0.595864
1055.99	0.921736
1057.64	1.11703
1059.28	1.02925
1060.93	0.919065
1062.57	0.568892
1064.22	1.17454
1065.86	1.01808
1067.5	0.621515
1069.15	1.33224
1070.79	0.934166
1072.43	1.29601
1074.08	1.50614
1075.72	1.67382
1077.36	1.47417
1079	0.907259
1080.64	0.796588
1082.28	1.57499
1083.92	0.899707
1085.56	1.56699
1087.2	1.2133
1088.84	1.57236
1090.48	1.06356
1092.12	0.94348
1093.76	2.16201
1095.39	1.28556
1097.03	0.756476
1098.67	1.34969
1100.31	1.23353
1101.94	0.904325
1103.58	0.70624
1105.22	1.49903
1106.85	0.915783
1108.49	0.784001
1110.12	1.23171
1111.76	1.46258
1113.39	0.939669
1115.03	0.652193
1116.66	1.11533
1118.29	1.66365
1119.93	1.33358
1121.56	1.34755
1123.19	1.51247
1124.82	1.20763
1126.46	1.28893
1128.09	2.03393
1129.72	1.30417
1131.35	1.3021
1132.98	1.23623
1134.61	0.913752
1136.24	0.718951
1137.87	0.352254
1139.5	1.35161
1141.13	0.342189
1142.76	0.741581
1144.39	0.522175
1146.01	0.623427
1147.64	0.235406
1149.27	0.445037
1150.9	1.25147
1152.53	0.84373
1154.15	0.989384
1155.78	0.219369
1157.4	1.4071
1159.03	0.51004
1160.65	0.911448
1162.28	0.484642
1163.9	0.526681
1165.53	0.420421
1167.15	0.760442
1168.78	0.397807
1170.4	0.501252
1172.02	0.538948
1173.65	0.808364
1175.27	0.291133
1176.89	0.0921373
1178.51	0.253733
1180.14	-0.0922709
1181.76	0.13421
1183.38	0.128524
1185	-0.0249872
1186.62	0.0108681
1188.24	-0.165844
1189.86	0.246098
1191.48	-0.439489
1193.1	-0.241705
1194.71	0.164704
1196.33	0.318361
1197.95	0.0746727
1199.57	0.146963
1201.19	0.325845
1202.8	0.423548
1204.42	0.398519
1206.04	1.00161
1207.65	0.229004
1209.27	0.687632
1210.88	0.665668
1212.5	0.391834
1214.12	0.678688
1215.73	0.400698
1217.35	0.0797701
1218.96	0.652047
1220.57	0.662486
1222.19	0.94318
1223.8	0.561577
1225.41	0.823971
1227.03	1.06689
1228.64	1.12488
1230.25	0.749966
1231.86	0.893275
1233.47	0.851768
1235.08	1.05956
1236.69	0.524523
1238.31	1.54087
1239.92	1.21431
1241.52	0.722343
1243.13	1.30563
1244.74	1.04
1246.35	1.51822
1247.96	1.33323
1249.57	1.16814
1251.18	1.4372
1252.78	1.18928
1254.39	1.23172
1256	0.758178
1257.6	0.906414
1259.21	1.09729
1260.82	1.30992
1262.42	1.50252
1264.03	1.42602
1265.63	1.22472
1267.24	1.08475
1268.84	1.21328
1270.45	1.17491
1272.05	1.01104
1273.65	0.88762
1275.26	0.908334
1276.86	1.1146
1278.46	1.44418
1280.06	1.52437
1281.67	0.838387
1283.27	0.0289879
1284.87	0.730371
1286.47	0.336466
1288.07	0.956532
1289.67	1.226
1291.27	1.59929
1292.87	1.35259
1294.47	1.72496
1296.07	1.43495
1297.67	1.08153
1299.27	0.912471
1300.87	1.33998
1302.47	2.11569
1304.06	1.81883
1305.66	2.07684
1307.26	1.71762
1308.85	1.91276
1310.45	1.55414
1312.05	0.848664
1313.64	1.88378
1315.24	1.89636
1316.83	1.68537
1318.43	1.92419
1320.02	2.44797
1321.62	1.54405
1323.21	2.06465
1324.8	2.27733
1326.4	1.91949
1327.99	2.35261
1329.59	2.4612
1331.18	2.32863
1332.77	3.04747
1334.36	2.57655
1335.95	2.37049
1337.54	2.73007
1339.14	2.4032
1340.73	2.09507
1342.32	2.63027
1343.91	2.41836
1345.5	1.76396
1347.09	2.03357
1348.67	2.08409
1350.26	1.17659
1351.85	1.95318
1353.44	1.71163
1355.03	1.87146
1356.62	2.05164
1358.2	2.05149
1359.79	1.0918
1361.38	2.24751
1362.96	1.30652
1364.55	1.78168
1366.14	1.93775
1367.72	1.57676
1369.31	1.79467
1370.89	1.67568
1372.48	1.85673
1374.06	1.263
1375.64	1.94348
1377.23	1.76851
1378.81	1.792
1380.39	0.680269
1381.98	1.45741
1383.56	1.4174
1385.14	1.37635
1386.72	1.45404
1388.3	1.57152
1389.89	1.66975
1391.47	1.43157
1393.05	1.31342
1394.63	1.07676
1396.21	1.23662
1397.79	1.1578
1399.37	1.45449
1400.95	1.13593
1402.52	1.8266
1404.1	1.28987
1405.68	0.892653
1407.26	1.56401
1408.84	1.99869
1410.42	1.24854
1411.99	1.09122
1413.57	0.953154
1415.15	1.01159
1416.72	1.12826
1418.3	0.613669
1419.87	1.1637
1421.45	1.478
1423.02	1.16383
1424.6	1.48135
1426.17	1.32784
1427.75	1.23397
1429.32	0.726509
1430.89	1.43847
1432.47	1.30288
1434.04	1.12699
1435.61	1.93407
1437.18	1.14832
1438.76	1.48415
1440.33	2.17467
1441.9	1.92282
1443.47	1.57349
1445.04	2.56106
1446.61	2.03548
1448.18	2.25697
1449.75	3.00962
1451.32	2.1507
1452.89	2.78672
1454.46	2.16453
1456.03	3.15545
1457.6	2.78817
1459.16	1.98639
1460.73	1.537
1462.3	2.48263
1463.87	2.04916
1465.43	1.83109
1467	1.53426
1468.56	1.12031
1470.13	1.3749
1471.7	1.552
1473.26	0.906404
1474.83	0.908989
1476.39	0.892406
1477.96	0.503465
1479.52	1.03586
1481.08	0.470456
1482.65	0.982949
1484.21	0.750603
1485.77	0.498403
1487.34	0.833143
1488.9	-0.0278635
1490.46	1.02776
1492.02	0.300561
1493.58	0.0803709
1495.15	0.775882
1496.71	0.611246
1498.27	0.407861
1499.83	0.341548
1501.39	1.01415
1502.95	0.367767
1504.51	0.440436
1506.07	0.861704
1507.63	0.391965
1509.18	1.00404
1510.74	0.378591
1512.3	0.3705
1513.86	0.0925789
1515.41	0.0654182
1516.97	0.422853
1518.53	0.339151
1520.08	0.390336
1521.64	0.365101
1523.2	0.549868
1524.75	0.809827
1526.31	0.0194054
1527.86	0.525018
1529.42	0.47724
1530.97	0.315618
1532.52	0.87548
1534.08	0.582581
1535.63	0.70758
1537.19	1.05999
1538.74	0.751781
1540.29	0.708582
1541.84	0.740927
1543.4	0.622564
1544.95	1.04949
1546.5	0.817934
1548.05	0.51164
1549.6	0.374634
1551.15	0.425325
1552.7	0.738313
1554.25	0.99558
1555.8	0.506774
1557.35	0.542974
1558.9	0.991552
1560.45	0.695611
1562	1.16619
1563.54	0.854409
1565.09	0.281936
1566.64	1.01572
1568.19	1.33888
1569.73	0.653766
1571.28	1.10684
1572.83	1.24232
1574.37	1.639
1575.92	1.17699
1577.47	1.62992
1579.01	1.35521
1580.56	1.21179
1582.1	1.57337
1583.64	1.09535
1585.19	1.62694
1586.73	1.59861
1588.28	1.70134
1589.82	1.46714
1591.36	1.10127
1592.9	1.37131
1594.45	1.60375
1595.99	1.81762
1597.53	1.58224
1599.07	1.23488
1600.61	1.99469
1602.15	1.64844
1603.69	2.05295
1605.23	1.87475
1606.77	1.88292
1608.31	1.62587
1609.85	1.44158
1611.39	1.68711
1612.93	1.10404
1614.47	0.858114
1616.01	1.4373
1617.55	1.77252
1619.08	1.52781
1620.62	1.04139
1622.16	1.75497
1623.7	0.93404
1625.23	0.543934
1626.77	1.35102
1628.3	1.3893
1629.84	1.16433
1631.37	1.331
1632.91	1.06743
1634.44	1.45781
1635.98	1.58737
1637.51	1.62452
1639.05	1.5691
1640.58	1.34605
1642.11	1.51379
1643.65	1.28923
1645.18	1.54753
1646.71	1.26527
1648.24	1.31754
1649.78	1.4815
1651.31	1.53489
1652.84	2.0532
1654.37	1.36712
1655.9	1.55332
1657.43	1.23909
1658.96	1.46146
1660.49	1.94149
1662.02	1.47592
1663.55	1.49046
1665.08	1.52282
1666.61	1.26018
1668.14	1.75515
1669.66	1.67963
1671.19	1.18197
1672.72	1.68044
1674.25	1.22156
1675.77	1.25978
1677.3	0.745077
1678.83	0.763226
1680.35	0.670023
1681.88	0.943675
1683.4	1.21663
1684.93	0.626812
1686.45	0.496543
1687.98	0.69677
1689.5	0.805563
1691.03	1.00604
1692.55	0.858685
1694.07	0.400465
1695.6	0.253343
1697.12	0.763929
1698.64	0.908378
1700.17	0.249214
1701.69	0.484065
1703.21	0.371766
1704.73	0.641513
1706.25	0.692027
1707.77	0.37857
1709.29	0.229041
1710.81	0.0435438
1712.33	0.293704
1713.85	0.453015
1715.37	0.250066
1716.89	0.318715
1718.41	0.513631
1719.93	0.419216
1721.45	-0.0898705
1722.97	0.105487
1724.49	0.391577
1726	0.318428
1727.52	-0.185385
1729.04	0.553721
1730.55	0.229106
1732.07	-0.0578489
1733.59	0.3288
1735.1	0.173459
1736.62	0.263117
1738.13	0.0661144
1739.65	-0.107121
1741.16	0.560969
1742.68	0.966077
1744.19	-0.159575
1745.7	0.0940399
1747.22	0.0860558
1748.73	-0.0206652
1750.24	-0.165074
1751.76	0.317321
1753.27	0.244574
1754.78	0.102856
1756.29	0.151767
1757.8	-0.130312
1759.31	-0.0288553
1760.83	-0.182677
1762.34	0.28246
1763.85	0.061615
1765.36	0.0647058
1766.87	0.367809
1768.38	-0.175766
1769.89	0.156596
1771.39	-0.118591
1772.9	0.261363
1774.41	-0.0402708
1775.92	-0.214839
1777.43	0.146479
1778.94	0.0404921
1780.44	-0.208582
1781.95	0.0568018
1783.46	0.385579
1784.96	0.209923
1786.47	-0.115314
1787.97	0.0143938
1789.48	-0.000797272
1790.99	-0.180643
1792.49	-0.0741777
1794	0.217857
1795.5	0.324039
1797	-0.0047884
1798.51	0.101563
1800.01	-0.0332031
1801.51	-0.018815
1803.02	0.262527
1804.52	-0.0942717
1806.02	-0.00870037
1807.53	0.148911
1809.03	-0.0152254
1810.53	0.10813
1812.03	0.109884
1813.53	-0.0914011
1815.03	0.0360184
1816.53	0.0815678
1818.03	0.172941
1819.53	-0.00159454
1821.03	0.0630417
1822.53	-0.247078
1824.03	0.15113
1825.53	0.189458
1827.03	0.027976
1828.53	-0.331614
1830.02	0.122429
1831.52	0.0909882
1833.02	0.0830936
1834.52	0.142637
1836.01	-0.129418
1837.51	0.239637
1839.01	-0.0147734
1840.5	0.109368
1842	0.113098
1843.49	0.12163
1844.99	0.343323
1846.48	-0.0910692
1847.98	0.223512
1849.47	0.249588
1850.97	-0.322543
1852.46	0.37292
1853.95	0.084197
1855.45	0.327641
1856.94	0.0141678
1858.43	0.0400248
1859.93	0.111193
1861.42	0.0610867
1862.91	-0.0521078
1864.4	-0.0808439
1865.89	0.40379
1867.38	0.133992
1868.87	0.142435
1870.36	0.220516
1871.85	0.360472
1873.34	0.280529
1874.83	0.542529
1876.32	0.1314
1877.81	0.246358
1879.3	-0.0340872
1880.79	0.200858
1882.28	0.12649
1882.52	0.0994987
1884.02	0.186598
1885.51	0.325144
1887.01	-0.44299
1888.5	-0.131515
1889.99	-0.0289793
1891.49	0.0917864
1892.98	-0.0989437
1894.47	-0.357441
1895.97	-0.249395
1897.46	0.0507698
1898.95	0.107423
1900.44	0.0587311
1901.93	0.425977
1903.42	0.11308
1904.91	0.303122
1906.4	0.0404692
1907.89	0.073266
1909.38	0.453758
1910.87	0.296992
1912.36	0.279985
1913.85	0.15948
1915.34	0.264534
1916.83	-0.0468616
1918.32	0.213342
1919.8	0.195726
1921.29	-0.185703
1922.78	0.593638
1924.27	0.646375
1925.75	0.0424223
1927.24	0.183927
1928.73	0.637745
1930.21	0.104592
1931.7	0.10742
1933.18	0.368581
1934.67	0.402851
1936.15	0.0894079
1937.64	0.242005
1939.12	0.307554
1940.61	0.235168
1942.09	-0.215971
1943.57	0.0588121
1945.06	0.00656986
1946.54	-0.0452824
1948.02	-0.0800867
1949.51	-0.150016
1950.99	0.330152
1952.47	0.103378
1953.95	0.237445
1955.43	-0.161441
1956.91	-0.0442619
1958.4	-0.0810471
1959.88	-0.0827932
1961.36	0.361796
1962.84	0.394852
1964.32	-0.274747
1965.8	0.117519
1967.27	-0.603763
1968.75	-0.281403
1970.23	0.12545
1971.71	0.241108
1973.19	0.100522
1974.67	-0.00566006
1976.14	0.110049
1977.62	0.413119
1979.1	0.341415
1980.58	0.031641
1982.05	-0.056901
1983.53	-0.349436
1985	0.410492
1986.48	0.575414
1987.95	0.485847
1989.43	0.447536
1990.9	-0.0469675
1992.38	0.424071
1993.85	0.2025
1995.33	-0.170189
1996.8	0.16732
1998.27	-0.00207138
1999.75	-0.441866
2001.22	0.046258
2002.69	0.331059
2004.16	0.278283
2005.64	0.47863
2007.11	-0.145785
2008.58	0.325605
2010.05	0.393564
2011.52	-0.278642
2012.99	0.143396
2014.46	-0.00725746
2015.93	0.144259
2017.4	0.0929976
2018.87	-0.177547
2020.34	-0.0786982
2021.81	0.053504
2023.28	-0.317676
2024.75	0.402782
2026.22	-0.402507
2027.69	-0.216656
2029.15	0.255688
2030.62	0.0751619
2032.09	0.298208
2033.56	0.0350399
2035.02	-0.127577
2036.49	0.330895
2037.96	-0.101444
2039.42	0.221936
2040.89	0.0242844
2042.35	-0.0385952
2043.82	0.336508
2045.28	0.191119
2046.75	0.686085
2048.21	-0.064661
2049.67	0.110448
2051.14	-0.136744
2052.6	0.373384
2054.07	0.122953
2055.53	0.258735
2056.99	0.0896978
2058.45	0.189634
2059.92	0.2388
2061.38	0.187298
2062.84	0.0187731
2064.3	0.0195599
2065.76	0.155907
2067.22	0.208903
2068.68	-0.00682831
2070.14	-0.121323
2071.6	0.302943
2073.06	0.339916
2074.52	0.208248
2075.98	0.261482
2077.44	0.0449257
2078.9	0.45107
2080.36	0.216862
2081.82	0.504099
2083.27	-0.0510521
2084.73	0.167469
2086.19	0.301043
2087.65	0.467541
2089.1	0.213335
2090.56	0.379109
2092.02	0.0577784
2093.47	0.273643
2094.93	0.421945
2096.38	0.435518
2097.84	0.0799589
2099.29	0.343556
2100.75	0.305434
2102.2	0.234159
2103.66	0.380844
2105.11	0.0946455
2106.56	-0.0899076
2108.02	0.0435057
2109.47	0.027091
2110.92	-0.139835
2112.38	0.242046
2113.83	0.338842
2115.28	0.217677
2116.73	0.129122
2118.18	0.655582
2119.63	0.352603
2121.09	0.0683918
2122.54	0.0515289
2123.99	-0.295655
2125.44	0.385839
2126.89	0.271151
2128.34	0.520245
2129.79	0.171354
2131.23	0.252187
2132.68	-0.0154085
2134.13	0.312813
2135.58	0.509128
2137.03	0.0289822
2138.48	0.162189
2139.92	0.495416
2141.37	0.251696
2142.82	0.108132
2144.27	-0.00187302
2145.71	0.51706
2147.16	-0.0566187
2148.6	0.130605
2150.05	0.399986
2151.49	0.204633
2152.94	-0.15734
2154.38	0.39125
2155.83	0.525159
2157.27	0.493458
2158.72	-0.00139999
2160.16	0.101237
2161.6	-0.175693
2163.05	0.0129471
2164.49	0.0538139
2165.93	0.11207
2167.38	0.336474
2168.82	0.161237
2170.26	0.316895
2171.7	0.287774
2173.14	0.30681
2174.58	0.224805
2176.03	0.524798
2177.47	0.575453
2178.91	-0.354121
2180.35	0.379755
2181.79	0.13349
2183.23	-0.395029
2184.67	0.174267
2186.1	-0.00478554
2187.54	-0.034132
2188.98	0.53567
2190.42	0.439842
2191.86	0.243848
2193.3	0.180345
2194.73	-0.117424
2196.17	0.0494108
2197.61	0.197753
2199.05	0.344407
2200.48	0.0911551
2201.92	0.402615
2203.35	0.2165
2204.79	-0.183963
2206.22	0.262114
2207.66	0.443208
2209.1	-0.00527382
2210.53	0.390083
2211.97	0.403631
2213.4	0.416471
2214.83	-0.215005
2216.27	-0.234369
2217.7	0.143192
2219.13	0.20818
2220.57	0.142008
2222	-0.00641251
2223.43	0.207087
2224.86	0.254485
2226.29	0.267346
2227.72	0.360876
2229.16	0.0752821
2230.59	-0.144773
2232.02	-0.0368137
2233.45	0.0711575
2234.88	0.294017
2236.31	0.174459
2237.74	0.497301
2239.17	0.674674
2240.6	-0.369544
2242.03	0.251802
2243.45	0.303374
2244.88	-0.166677
2246.31	0.34134
2247.74	0.19547
2249.17	0.406352
2250.59	0.582341
2252.02	0.463389
2253.45	-0.111474
2254.87	0.30604
2256.3	-0.071312
2257.73	0.138043
2259.15	0.171383
2260.58	0.337187
2262	0.180702
2263.43	0.0904827
2264.85	-0.12958
2266.28	0.218903
2267.7	0.436862
2269.13	-0.37115
2270.55	0.301003
2271.97	0.484551
2273.4	0.130558
2274.82	0.265177
2276.24	-0.170245
2277.67	0.0624962
2279.09	0.0182686
2280.51	0.153332
2281.93	0.157859
2283.35	-0.0824194
2284.77	0.134147
2286.2	0.46527
2287.62	0.421385
2289.04	0.508546
2290.46	0.30203
2291.88	0.111947
2293.3	0.625051
2294.72	0.435027
2296.13	0.408439
2297.55	0.152512
2298.97	-0.00529671
2300.39	-0.179473
2301.81	0.220353
2303.23	-0.0354109
2304.64	-0.159987
2306.06	0.24078
2307.48	0.0336695
2308.89	0.0888844
2310.31	0.34093
2311.73	0.115746
2313.14	0.00555706
2314.56	0.0767078
2315.98	0.395575
2317.39	0.171783
2318.81	0.343791
2320.22	0.0539417
2321.64	0.340333
2323.05	-0.233072
2324.46	0.660182
2325.88	0.379558
2327.29	0.592267
2328.7	0.754561
2330.12	0.603896
2331.53	0.53655
2332.94	0.190533
2334.35	0.191036
2335.77	0.0601597
2337.18	0.389425
2338.59	0.405197
2340	-0.0730891
2341.41	0.187279
2342.82	-0.160363
2344.23	-0.0155821
2345.64	0.719251
2347.05	0.274149
2348.46	0.484374
2349.87	0.415873
2351.28	0.755377
2352.69	0.309409
2354.1	-0.234545
2355.51	0.395554
2356.91	-0.0343413
2358.32	0.0896416
2359.73	0.278451
2361.14	-0.247177
2362.54	0.444262
2363.95	0.502485
2365.36	0.172245
2366.76	-0.173283
2368.17	0.176664
2369.58	0.0107045
2370.98	0.0557523
2372.39	-0.123591
2373.79	0.16512
2375.2	-0.0128593
2376.6	-0.078402
2378	-0.0966067
2379.41	0.333717
2380.81	0.00727892
2382.22	-0.127374
2383.62	0.490192
2385.02	-0.0616555
2386.43	0.0432129
2387.83	0.148655
2389.23	0.382527
2390.63	0.378201
2392.03	0.136187
2393.44	0.404556
2394.84	-0.105865
2396.24	0.163772
2397.64	0.0682621
2399.04	-0.169678
2400.44	-0.0893593
2401.84	-0.215282
2403.24	0.437045
2404.64	0.326637
2406.04	0.231343
2407.44	-0.197968
2408.84	0.37154
2410.23	0.0366354
2411.63	0.0825005
2413.03	0.0182004
2414.43	-0.314062
2415.83	0.241586
2417.22	0.275992
2418.62	0.137084
2420.02	0.140985
2421.41	0.429903
2422.81	0.148238
2424.21	0.595082
2425.6	0.0437589
2427	0.411979
2428.39	0.575089
2429.79	0.2317
2431.18	0.666148
2432.58	0.03754
2433.97	0.0907869
2435.36	0.286023
2436.76	0.384626
2438.15	0.704211
2439.54	0.291744
2440.94	0.0850515
2442.33	0.385967
2443.72	0.194467
2445.12	0.0822539
2446.51	0.509036
2447.9	0.238022
2449.29	-0.016932
2450.68	-0.0339689
2452.07	0.076098
2453.46	0.107677
2454.85	0.234939
2456.24	0.362803
2457.64	0.427672
2459.02	-0.0928392
2460.41	-0.155138
2461.8	0.113887
2463.19	-0.0763316
2464.58	0.0332375
2465.97	0.047678
2467.36	0.425069
2468.75	0.21827
2470.13	0.153403
2471.52	0.529521
2472.91	0.0538883
2474.3	0.207842
2475.68	0.0778222
2477.07	0.0576758
2478.45	0.367296
2479.84	0.0331941
2481.23	0.26423
2482.61	0.15015
2484	0.364555
2485.38	0.0929122
2486.77	0.05511
2488.15	0.156819
2489.54	0.288745
2490.92	0.326793
2492.3	0.132052
2493.69	0.249282
2495.07	-0.0668378
2496.45	0.0062151
2497.84	0.0954099
2499.22	0.045414
2500.6	0.0879798
2501.98	0.346123
2503.36	-0.0147338
2504.75	0.179578
2506.13	-0.228016
2507.51	-0.203999
2508.89	-0.318299
2510.27	0.0901527
2511.65	-0.238073
2513.03	-0.304432
2514.41	0.074234
2515.79	0.22354
2517.17	0.0215392
2518.55	0.156602
2519.93	0.322236
2521.3	0.18199
2522.68	0.0870752
2524.06	0.0220137
2525.44	0.0173483
2526.82	0.149486
2528.19	0.296991
2529.57	0.141178
2530.95	0.214964
2532.32	0.016748
2533.7	0.199661
2535.08	0.17051
2536.45	-0.0561833
2537.83	-0.131545
2539.2	0.24788
2540.58	0.140478
2541.95	-0.0127335
2543.33	-0.0138812
2544.7	-0.181135
2546.08	-0.119744
2547.45	-0.0117669
2548.82	0.294224
2550.2	0.129984
2551.57	0.025948
2552.94	0.17906
2554.32	0.149094
2555.69	0.376216
2557.06	0.360011
2558.43	0.237536
2559.8	0.464028
2561.18	0.221072
2562.55	0.0545464
2563.92	0.100727
2565.29	0.147293
2566.66	-0.00292969
2568.03	0.271257
2569.4	0.333284
2570.77	0.349838
2572.14	0.108741
2573.51	0.261808
2574.88	-0.221742
2576.25	-0.235352
2577.61	0.0693622
2578.98	-0.080987
2580.35	-0.125527
2581.72	0.254112
2583.09	-0.0792365
2584.45	0.178482
2585.82	-0.0186548
2587.19	-0.155031
2588.55	-0.351847
2589.92	0.0879436
2591.29	0.0881019
2592.65	0.345402
2594.02	0.268577
2595.38	0.0242529
2596.75	-0.054327
2598.11	-0.0730495
2599.48	0.0893273
2600.84	-0.231928
2602.21	0.142298
2603.57	0.00352859
2604.93	-0.0440931
2606.3	0.0140815
2607.66	0.132224
2609.02	0.00833607
2610.39	0.305202
2611.75	0.359591
2613.11	0.112044
2614.47	-0.120743
2615.83	-0.293274
2617.19	0.269262
2618.56	0.426901
2619.92	0.240821
2621.28	-0.0339894
2622.64	0.125383
2624	0.493796
2625.36	0.428913
2626.72	0.00597095
2628.08	-0.148461
2629.44	-0.15405
2630.8	0.167485
2632.15	0.101877
2633.51	0.0363197
2634.87	-0.0440216
2636.23	0.187161
2637.59	-0.337771
2638.94	-0.00307035
2640.3	0.109313
2641.66	0.251318
2643.02	0.20132
2644.37	0.313929
2645.73	0.0427346
2647.09	-0.0220752
2648.44	0.104063
2649.8	-0.16811
2651.15	0.132948
2652.51	0.271546
2653.86	-0.0154004
2655.22	0.197227
2656.57	-0.146039
2657.93	0.053762
2659.28	0.239514
2660.63	0.308482
2661.99	0.377234
2663.34	-0.0950813
2664.69	0.249824
2666.05	0.112205
2667.4	0.090939
2668.75	0.011353
2670.1	0.412282
2671.45	-0.102883
2672.81	-0.0210481
2674.16	-0.272757
2675.51	0.260095
2676.86	0.35773
2678.21	-0.0517058
2679.56	0.0328445
2680.91	0.0603251
2682.26	-0.186575
2683.61	-0.098947
2684.96	-0.0104156
2686.31	0.00604153
2687.66	0.12396
2689	0.240842
2690.35	-0.0648465
2691.7	0.00523424
2693.05	0.117389
2694.4	-0.264489
2695.74	0.585732
2697.09	-0.0708303
2698.44	0.14315
2699.79	-0.278499
2701.13	0.242647
2702.48	0.0846128
2703.83	0.0288715
2705.17	0.133032
2706.52	0.135807
2707.86	-0.137373
2709.21	0.00983143
2710.55	0.316536
2711.9	0.0711751
2713.24	-0.116357
2714.58	0.437253
2715.93	0.365908
2717.27	0.527089
2718.62	0.106189
2719.96	0.20858
2721.3	0.237813
2722.65	0.383029
2723.99	0.207583
2725.33	0.133602
2726.67	0.3067
2728.01	0.0282974
2729.35	-0.119307
2730.7	0.271347
2732.04	0.196314
2733.38	0.354125
2734.72	0.221156
2736.06	0.248385
2737.4	-0.306021
2738.74	0.0849104
2740.08	0.242884
2741.42	0.356754
2742.76	-0.242354
2744.1	0.408025
2745.43	-0.104825
2746.77	0.0938721
2748.11	0.364799
2749.45	-0.060904
2750.79	0.239081
2752.12	0.10414
2753.46	0.0419698
2754.8	0.110395
2756.14	-0.284582
2757.47	0.0303173
2758.81	0.229478
2760.14	0.153923
2761.48	0.136738
2762.81	0.0187163
2764.15	-0.0700612
2765.49	-0.0720286
2766.82	-0.117815
2768.16	-0.0631843
2769.49	0.0625253
2770.82	0.0133467
2772.16	0.136244
2773.49	-0.10277
2774.82	0.0761962
2776.16	-0.0764804
2777.49	-0.156609
2778.82	0.180915
2780.16	-0.315028
2781.49	0.037272
2782.82	0.102164
2784.15	-0.119917
2785.48	0.0595627
2786.82	-0.0474682
2788.15	-0.0680165
2789.48	0.126797
2790.81	0.164973
2792.14	0.0322952
2793.47	-0.0712943
2794.8	0.253964
2796.13	-0.0356441
2797.46	0.00293016
2798.79	-0.116106
2800.12	-0.263982
2801.44	-0.140931
2802.77	0.0388556
2804.1	-0.166552
2805.43	0.14059
2806.76	0.09095
2808.08	0.31101
2809.41	-0.166049
2810.74	0.181302
2812.07	-0.138251
2813.39	-0.101776
2814.72	0.262099
2816.05	0.102706
2817.37	0.157038
2818.7	-0.0998816
2820.02	0.110945
2821.35	-0.160528
2822.67	0.17679
2824	0.230043
2825.32	0.254612
2826.65	-0.173931
2827.97	0.0494714
2829.3	0.245033
2830.62	-0.295086
2831.94	-0.0280933
2833.26	0.23884
2834.59	0.448832
2835.91	0.630009
2837.23	0.541772
2838.56	0.523886
2839.88	0.406825
2841.2	0.473736
2842.52	0.894395
2843.84	0.976365
2845.16	1.34169
2846.48	0.930371
2847.8	1.07058
2849.12	0.998835
2850.45	1.52045
2851.77	1.51863
2853.08	1.36085
2854.4	1.31578
2855.72	1.39772
2857.04	1.74804
2858.36	1.61809
2859.68	1.8836
2861	1.88059
2862.32	2.0608
2863.63	2.02887
2864.95	2.12369
2866.27	2.65575
2867.59	2.82115
2868.9	2.95876
2870.22	2.82893
2871.54	3.17858
2872.85	3.30235
2874.17	3.48165
2875.48	3.89916
2876.8	4.14617
2878.11	4.06838
2879.43	3.82161
2880.74	4.26421
2882.06	4.4966
2883.37	4.06995
2884.69	4.44501
2886	4.45563
2887.31	4.43828
2888.63	4.50464
2889.94	4.94882
2891.25	5.0131
2892.57	5.04859
2893.88	4.43947
2895.19	4.64349
2896.5	4.90429
2897.82	4.78837
2899.13	5.33129
2900.44	5.38542
2901.75	5.3422
2903.06	5.39719
2904.37	5.55027
2905.68	5.25612
2906.99	5.92778
2908.3	5.81716
2909.61	6.01537
2910.92	5.90649
2912.23	6.63743
2913.54	6.23375
2914.85	6.78038
2916.16	6.38695
2917.46	6.91551
2918.77	6.88293
2920.08	6.17888
2921.39	6.77639
2922.7	6.55036
2924	7.19271
2925.31	7.24935
2926.62	6.87344
2927.92	6.72125
2929.23	7.3096
2930.54	7.12841
2931.84	7.32415
2933.15	7.24002
2934.45	7.21182
2935.76	7.28163
2937.06	7.26782
2938.37	7.04466
2939.67	6.97559
2940.98	6.90716
2942.28	6.18299
2943.58	6.18684
2944.89	6.01053
2946.19	5.75156
2947.49	5.74497
2948.8	5.51419
2950.1	5.84208
2951.4	5.38398
2952.7	5.31584
2954.01	4.85418
2955.31	4.93822
2956.61	4.77129
2957.91	5.05452
2959.21	4.87884
2960.51	4.86021
2961.81	4.71769
2963.11	4.85646
2964.41	4.40522
2965.71	3.95191
2967.01	3.96026
2968.31	4.29061
2969.61	3.67821
2970.91	3.59992
2972.21	4.07064
2973.51	3.44437
2974.81	3.66239
2976.1	3.61238
2977.4	3.47659
2978.7	3.25455
2980	3.28419
2981.29	3.07325
2982.59	2.89008
2983.89	3.0027
2985.18	2.6667
2986.48	2.92267
2987.78	2.6322
2989.07	2.56768
2990.37	2.15215
2991.66	2.07345
2992.96	1.9235
2994.25	2.02528
2995.55	1.76072
2996.84	1.35529
2998.14	1.06234
2999.43	1.07855
3000.73	1.19348
3002.02	1.09871
3003.31	0.626154
3004.61	1.0646
3005.9	1.08247
3007.19	0.805841
3008.48	0.836539
3009.77	0.391015
3011.07	0.420531
3012.36	0.044806
3013.65	0.227761
3014.94	-0.00729179
3016.23	0.329849
3017.52	0.110473
3018.81	-0.0941715
3020.1	0.383011
3021.4	0.233882
3022.68	0.0564747
3023.97	0.391985
3025.26	-0.31352
3026.55	-0.352955
3027.84	0.147839
3029.13	0.0820417
3030.42	0.238894
3031.71	0.410876
3033	-0.161646
3034.28	0.329278
3035.57	0.00552225
3036.86	-0.0708218
3038.15	0.113167
3039.43	-0.434171
3040.72	0.173009
3042.01	0.00924206
3043.29	0.243458
3044.58	-0.0558624
3045.87	-0.024694
3047.15	-0.196398
3048.44	0.180483
3049.72	0.408986
3051.01	-0.111514
3052.29	0.378719
3053.58	0.0094285
3054.86	-0.00554562
3056.15	0.128702
3057.43	0.0574827
3058.71	0.203726
3060	0.567533
3061.28	0.278205
3062.56	-0.0369878
3063.84	0.193309
3065.13	0.411477
3066.41	0.467918
3067.69	0.280703
3068.97	0.393122
3070.26	0.111049
3071.54	-0.253313
3072.82	0.210982
3074.1	0.18466
3075.38	0.0897117
3076.66	-0.24972
3077.94	-0.248978
3079.22	0.010632
3080.5	-0.135378
3081.78	0.23563
3083.06	-0.0296502
3084.34	0.0992589
3085.62	-0.110864
3086.9	0.208087
3088.18	-0.00279236
3089.45	-0.227685
3090.73	0.00862026
3092.01	0.231298
3093.29	0.155783
3094.56	-0.25829
3095.84	-0.156577
3097.12	0.040246
3098.4	0.155786
3099.67	0.325527
3100.95	0.129527
3102.22	0.0557485
3103.5	0.212588
3104.78	0.153427
3106.05	0.311646
3107.33	0.321988
3108.6	0.319909
3109.88	0.427255
3111.15	0.25138
3112.43	0.252299
3113.7	0.755188
3114.97	0.648613
3116.25	0.636618
3117.52	0.447683
3118.79	0.474937
3120.07	0.460694
3121.34	0.432274
3122.61	0.52548
3123.88	0.496764
3125.16	0.576757
3126.43	0.549028
3127.7	0.535569
3128.97	0.685071
3130.24	0.726878
3131.51	0.877113
3132.79	0.892216
3134.06	0.610044
3135.33	0.665363
3136.6	0.733873
3137.87	0.990808
3139.14	0.856571
3140.41	1.04569
3141.67	0.925508
3142.94	1.15535
3144.21	0.902229
3145.48	0.71739
3146.75	1.04305
3148.02	1.00744
3149.29	1.1735
