200.523	-0.0144634
202.339	0.00127792
204.154	0.0181046
205.967	0.0842724
207.781	-0.165486
209.596	0.459328
211.409	0.111068
213.222	1.12133
215.034	0.237398
216.848	0.39643
218.659	0.0708733
220.47	-0.326364
222.281	0.293484
224.091	0.284792
225.903	0.63905
227.713	-0.31142
229.522	0.38049
231.331	0.298985
233.14	-0.265173
234.948	0.352955
236.756	0.0797844
238.566	0.338673
240.373	0.141605
242.18	-0.270769
243.986	0.16186
245.792	0.305153
247.598	0.326506
249.403	0.249018
251.208	0.62766
253.013	0.0625086
254.818	0.823154
256.624	0.353105
258.427	0.245665
260.231	-0.245809
262.034	0.348411
263.836	0.727156
265.638	0.504503
267.44	0.20972
269.242	0.396644
271.043	0.269508
272.844	-0.316737
274.645	0.638908
276.445	0.243023
278.245	0.231354
280.044	0.00126457
281.843	0.178945
283.642	0.619333
285.44	-0.311696
287.238	0.630502
289.036	0.635745
290.833	-0.172791
292.63	0.576837
294.425	-0.180206
296.221	0.0927954
298.017	0.772714
299.813	0.425255
301.608	0.292801
303.403	0.0164661
305.198	0.455272
306.992	0.773588
308.786	0.0663767
310.579	0.646931
312.371	0.0610113
314.163	0.548305
315.956	0.465609
317.748	0.00337219
319.54	0.495076
321.331	0.463799
323.122	0.170822
324.911	0.355088
326.701	-0.00949097
328.491	0.127014
330.281	0.167508
332.071	0.0396366
333.857	0.0538111
335.646	0.377371
337.434	0.340114
339.222	-0.0337954
341.008	0.834801
342.795	0.578543
344.582	0.394162
346.369	0.162592
348.153	0.361537
349.939	0.226601
351.724	0.115609
353.51	0.553017
355.292	0.369067
357.077	0.136479
358.861	0.260482
360.643	0.383373
362.426	0.172187
364.21	-0.0392923
365.99	-0.227243
367.773	-0.154402
369.555	0.842311
371.335	0.0124683
373.116	0.579713
374.897	-0.10708
376.676	0.0811081
378.456	0.033534
380.236	0.104586
382.014	-0.0118198
383.793	0.319884
385.57	0.370178
387.349	0.844427
389.127	0.379721
390.903	0.432772
392.681	0.157741
394.456	0.118081
396.233	-0.0386829
398.007	0.156904
399.784	0.305411
401.56	-0.368513
403.333	0.272376
405.108	0.137567
406.881	0.0256662
408.656	0.382889
410.428	0.129416
412.202	0.134246
413.973	-0.00135517
415.746	-0.488293
417.517	0.315932
419.29	0.792296
421.06	-0.139234
422.831	-0.390475
424.601	-0.0788841
426.37	-0.284468
428.141	0.0727253
429.909	-0.15733
431.679	0.129012
433.447	0.556402
435.216	0.303481
436.983	0.19136
438.75	-0.249892
440.519	0.29334
442.285	0.342028
444.052	-0.103416
445.818	-0.315483
447.583	0.314428
449.349	0.101079
451.114	0.402187
452.878	0.259558
454.643	0.187335
456.407	-0.420814
458.169	0.275997
459.934	0.157363
461.696	-0.100024
463.458	0.155474
465.222	-0.0984149
466.983	-0.00143099
468.744	-0.320645
470.507	0.0589962
472.267	0.299917
474.027	0.633622
475.787	0.081048
477.548	0.55143
479.307	0.694202
481.065	-0.0256634
482.823	0.0466146
484.583	0.492529
486.341	0.450996
488.098	0.387935
489.855	0.419827
491.612	0.429322
493.37	0.0889225
495.126	0.543242
496.881	0.225831
498.636	0.0716248
500.391	-0.0597711
502.148	0.512256
503.902	0.379762
505.656	0.66921
507.409	0.322881
509.162	0.0926094
510.915	0.425641
512.668	0.52214
514.42	0.546793
516.174	0.452674
517.925	0.498711
519.676	-0.137815
521.427	0.823346
523.178	0.233256
524.928	0.183455
526.678	0.157166
528.427	0.459177
530.176	0.549896
531.925	0.19518
533.673	0.355171
535.422	0.326866
537.169	0.227356
538.917	0.243624
540.664	0.445462
542.411	0.529727
544.157	-0.177453
545.903	0.0697002
547.649	0.339628
549.395	-0.0167308
551.14	0.368861
552.884	0.0830083
554.629	0.375571
556.373	0.483118
558.117	0.0373774
559.86	0.652647
561.603	-0.182835
563.346	-0.0734692
565.089	0.702767
566.831	-0.175295
568.573	0.0273199
570.314	0.460083
572.053	0.228435
573.794	-0.666989
575.534	0.411833
577.274	0.849934
579.014	0.00393772
580.754	0.489934
582.493	-0.241418
584.23	0.0606623
585.968	-0.442771
587.706	0.432807
589.444	-0.394821
591.181	0.571343
592.919	-0.142454
594.653	-0.120105
596.39	0.178367
598.126	0.52283
599.862	0.360849
601.595	0.106193
603.33	0.402553
605.065	-0.19904
606.8	-0.134763
608.532	-0.140053
610.266	0.0381665
611.999	0.377148
613.732	-0.200614
615.463	0.414395
617.196	-0.0935111
618.928	0.200099
620.66	-0.0338907
622.389	0.143172
624.12	-0.275017
625.851	0.83788
627.58	-0.0130181
629.31	0.165411
631.04	-0.110688
632.767	-0.248259
634.497	0.185526
636.223	0.390907
637.952	0.206816
639.68	0.203155
641.406	0.060267
643.134	0.32585
644.861	0.316763
646.586	0.285255
648.312	-0.199257
650.037	-0.135478
651.762	-0.205082
653.486	0.29656
655.211	0.596753
656.936	0.512272
658.659	0.610745
660.383	0.161408
662.105	0.5778
663.829	0.444409
665.55	0.949033
667.273	0.171726
668.994	0.765828
670.716	0.262757
672.436	0.447506
674.158	-0.00678396
675.877	0.342124
677.598	0.968038
679.317	0.377989
681.035	0.682581
682.755	0.295962
684.473	0.137329
686.192	0.20726
687.909	0.736639
689.628	1.01188
691.344	-0.0264778
693.06	0.892606
694.778	0.981761
696.493	0.747653
698.211	0.489637
699.925	0.460899
701.64	0.408255
703.356	0.446831
705.07	0.645558
706.783	0.315739
708.498	1.4078
710.211	0.25239
711.924	1.02159
713.638	1.01152
715.35	0.498591
717.061	0.922607
718.774	0.912532
720.485	0.879845
722.196	1.18892
723.906	0.496427
725.618	1.03255
727.328	1.24953
729.037	0.716939
730.746	0.955741
732.456	0.197289
734.165	1.13701
735.873	0.76403
737.58	0.414664
739.289	0.74325
740.997	0.576189
742.703	0.793278
744.41	1.19131
746.116	1.45514
747.823	1.31506
749.529	1.06374
751.234	1.01599
752.938	0.969318
754.643	1.30624
756.347	0.654375
758.051	1.12902
759.756	0.681657
761.459	1.22663
763.162	1.66002
764.865	1.55186
766.567	1.01325
768.269	1.37675
769.97	1.19599
771.671	1.30746
773.372	1.46297
775.073	1.61808
776.773	1.00492
778.473	1.99821
780.174	1.70401
781.874	1.74996
783.573	1.93183
785.271	1.34312
786.97	1.31822
788.668	1.26807
790.365	1.57713
792.063	2.04168
793.76	1.96212
795.456	1.38622
797.153	1.91648
798.847	1.81678
800.543	1.2236
802.238	2.04951
803.933	1.84084
805.628	1.56473
807.322	2.16445
809.017	1.59476
810.71	1.698
812.404	1.39668
814.097	1.43143
815.79	1.98079
817.483	2.01474
819.173	1.71348
820.865	1.83711
822.556	2.05012
824.248	1.77302
825.939	1.7649
827.629	1.33544
829.318	1.53205
831.008	1.46392
832.697	1.7323
834.387	1.7575
836.076	1.67204
837.765	1.8541
839.451	1.41009
841.139	1.65685
842.827	1.38874
844.514	1.65644
846.2	1.92485
847.886	1.52416
849.573	1.16987
851.259	1.3993
852.943	1.27207
854.629	1.61655
856.314	1.28769
857.997	1.33945
859.682	1.18739
861.366	0.966063
863.05	0.855819
864.732	1.42057
866.415	1.64676
868.098	1.51173
869.779	1.37624
871.461	0.969738
873.141	0.5855
874.823	1.78056
876.505	1.41882
878.184	1.26011
879.865	0.943254
881.545	1.46129
883.223	0.804829
884.903	1.05046
886.581	1.09177
888.26	1.19942
889.937	1.05762
891.616	0.892206
893.294	1.51411
894.97	0.694023
896.648	1.51548
898.323	0.785036
900	0.414279
901.675	0.917501
903.351	1.19527
905.026	0.891173
906.701	0.811205
908.375	1.08863
910.05	0.56447
911.723	0.865204
913.398	1.41033
915.07	1.0444
916.742	0.634809
918.415	1.3783
920.087	1.0799
921.76	1.02582
923.43	0.994877
925.103	0.943205
926.773	1.22427
928.443	1.21958
930.114	0.399426
931.783	0.771508
933.454	0.967195
935.123	0.677712
936.791	0.631235
938.461	0.673657
940.128	0.694984
941.796	0.452538
943.464	0.695982
945.131	0.829041
946.797	1.20402
948.465	0.716612
950.131	1.08848
951.797	1.01792
953.462	1.10186
955.128	0.371187
956.793	0.171972
958.457	1.21045
960.121	1.34724
961.786	0.955342
963.45	0.8722
965.113	1.14142
966.775	0.744876
968.44	0.323804
970.102	0.918818
971.763	0.89362
973.425	0.780364
975.086	0.80099
976.748	0.579796
978.409	0.603031
980.069	0.726357
981.729	0.849402
983.388	1.04885
985.048	0.98104
986.708	1.28776
988.367	0.906921
990.025	0.436954
991.683	0.850964
993.341	0.888885
994.998	-0.243076
996.655	0.788328
998.312	0.341275
999.969	0.930204
1001.62	0.659246
1003.28	0.784399
1004.94	1.3709
1006.59	0.330339
1008.25	0.345387
1009.9	0.909243
1011.56	0.178881
1013.21	0.567479
1014.86	0.912113
1016.52	0.0089035
1018.17	0.507338
1019.82	-0.000102043
1021.48	0.302557
1023.13	0.278021
1024.78	0.450914
1026.43	0.361979
1028.08	0.513401
1029.73	0.139961
1031.38	0.683003
1033.03	0.87507
1034.68	0.60741
1036.33	0.404398
1037.98	0.593165
1039.63	0.085042
1041.28	0.100218
1042.93	0.420677
1044.57	-0.126894
1046.22	0.717457
1047.87	0.34681
1049.52	0.194651
1051.16	0.651597
1052.81	-0.215892
1054.45	0.502792
1056.1	-0.104039
1057.75	0.527784
1059.39	0.0288172
1061.04	-0.101106
1062.68	-0.0359268
1064.32	0.419919
1065.97	0.483512
1067.61	0.285403
1069.25	0.629791
1070.9	1.03852
1072.54	0.448304
1074.18	0.271225
1075.82	-0.0133753
1077.47	0.267009
1079.11	0.374791
1080.75	-0.319183
1082.39	0.569772
1084.03	0.590611
1085.67	0.523413
1087.31	0.367958
1088.95	0.146075
1090.59	0.00971222
1092.22	0.261773
1093.86	0.275426
1095.5	0.59125
1097.14	0.282054
1098.78	0.362133
1100.41	0.615709
1102.05	1.06423
1103.69	0.00809097
1105.32	0.652588
1106.96	0.587632
1108.59	-0.0582132
1110.23	0.00483036
1111.86	0.625427
1113.5	0.750082
1115.13	-0.028039
1116.77	0.460089
1118.4	0.240223
1120.03	0.471065
1121.67	0.6382
1123.3	0.934452
1124.93	0.354107
1126.56	0.801469
1128.19	0.201429
1129.83	0.457391
1131.46	0.542713
1133.09	0.115187
1134.72	0.222
1136.35	-0.163286
1137.98	-0.378269
1139.61	-0.0386667
1141.24	0.0223541
1142.86	0.168286
1144.49	0.186214
1146.12	-0.306966
1147.75	-0.181046
1149.38	0.328921
1151	0.263906
1152.63	0.0711384
1154.26	-0.292117
1155.88	0.387374
1157.51	0.151489
1159.14	-0.147765
1160.76	0.276772
1162.39	-0.169701
1164.01	0.192575
1165.63	0.406393
1167.26	-0.0816574
1168.88	0.662572
1170.51	0.767493
1172.13	0.297123
1173.75	-0.322762
1175.38	0.0543938
1177	0.11261
1178.62	0.234445
1180.24	0.271977
1181.86	0.521702
1183.48	0.285413
1185.1	0.514228
1186.72	0.361902
1188.34	0.546036
1189.96	0.243467
1191.58	0.255824
1193.2	-0.00633812
1194.82	0.508363
1196.44	0.141158
1198.06	0.571283
1199.68	0.22801
1201.29	0.242505
1202.91	0.426104
1204.53	0.674187
1206.14	0.443963
1207.76	0.194
1209.38	0.695231
1210.99	0.444818
1212.61	0.547578
1214.22	0.856798
1215.84	0.539104
1217.45	0.407701
1219.07	0.0679712
1220.68	0.829032
1222.29	0.655953
1223.91	0.546378
1225.52	0.810881
1227.13	0.703832
1228.74	0.515309
1230.36	0.700109
1231.97	1.23718
1233.58	1.34108
1235.19	1.09469
1236.8	1.056
1238.41	1.36961
1240.02	0.649994
1241.63	1.60556
1243.24	1.13376
1244.85	1.75778
1246.46	0.746253
1248.07	1.0168
1249.67	0.665988
1251.28	1.18388
1252.89	0.957183
1254.5	1.47574
1256.1	1.49882
1257.71	0.736855
1259.32	0.989468
1260.92	1.01526
1262.53	1.28996
1264.13	0.466917
1265.74	1.25936
1267.34	0.953036
1268.95	1.14337
1270.55	0.83525
1272.15	1.02386
1273.76	1.04574
1275.36	1.35697
1276.97	1.33569
1278.57	1.70729
1280.17	1.24983
1281.77	1.30992
1283.37	1.72174
1284.97	1.22384
1286.58	1.42991
1288.18	0.892723
1289.78	1.43106
1291.38	1.70109
1292.98	1.24781
1294.58	1.37244
1296.18	1.37197
1297.78	1.32884
1299.37	1.13993
1300.97	1.46537
1302.57	1.87163
1304.17	1.72068
1305.77	1.44603
1307.36	1.3974
1308.96	1.55377
1310.55	1.70981
1312.15	1.70209
1313.75	1.81777
1315.34	1.54591
1316.94	1.92865
1318.53	1.41364
1320.13	1.87779
1321.72	1.50526
1323.32	1.13206
1324.91	1.38829
1326.5	1.78479
1328.1	2.24061
1329.69	1.54175
1331.28	1.87736
1332.87	1.58795
1334.47	1.60384
1336.06	1.66146
1337.65	1.75981
1339.24	1.37369
1340.83	1.26862
1342.42	1.54423
1344.01	1.41557
1345.6	1.34652
1347.19	1.41814
1348.78	1.55118
1350.37	1.40594
1351.96	1.82311
1353.54	1.32205
1355.13	1.58193
1356.72	2.08176
1358.31	0.942887
1359.89	1.38149
1361.48	1.51942
1363.07	1.41711
1364.65	1.23489
1366.24	1.37188
1367.82	1.56918
1369.41	1.68775
1370.99	1.36969
1372.58	1.01315
1374.16	1.4336
1375.75	0.979104
1377.33	1.24101
1378.91	0.706529
1380.5	0.728399
1382.08	1.06748
1383.66	1.04735
1385.25	1.24506
1386.83	1.04487
1388.41	1.2223
1389.99	1.30091
1391.57	0.963531
1393.15	0.944406
1394.73	0.489264
1396.31	1.04543
1397.89	0.92673
1399.47	1.83764
1401.05	1.10308
1402.63	1.47726
1404.21	0.861871
1405.78	0.761662
1407.36	0.583183
1408.94	0.800678
1410.52	0.820921
1412.1	0.959582
1413.67	1.0187
1415.25	0.761329
1416.82	0.819051
1418.4	0.69903
1419.98	1.19008
1421.55	0.972738
1423.13	1.03244
1424.7	1.03445
1426.28	1.1359
1427.85	0.726038
1429.42	1.22134
1431	1.32222
1432.57	1.57951
1434.14	1.6588
1435.71	1.04935
1437.29	1.75771
1438.86	1.11008
1440.43	1.68205
1442	1.62587
1443.57	1.84545
1445.14	1.39714
1446.71	2.10861
1448.28	1.54262
1449.85	1.70417
1451.42	1.66955
1452.99	1.55672
1454.56	1.54252
1456.13	1.64632
1457.7	2.00543
1459.26	1.98953
1460.83	1.51947
1462.4	1.34309
1463.97	1.22444
1465.54	0.829865
1467.1	1.57475
1468.67	0.650363
1470.23	1.23863
1471.8	1.18003
1473.36	0.926221
1474.93	0.633934
1476.49	1.18515
1478.06	0.599269
1479.62	0.581936
1481.19	0.858527
1482.75	0.782234
1484.31	1.05853
1485.88	0.609614
1487.44	0.865319
1489	0.649914
1490.56	0.0419178
1492.13	0.332424
1493.69	0.718389
1495.25	0.399786
1496.81	0.724076
1498.37	0.774947
1499.93	0.767856
1501.49	0.256965
1503.05	0.795264
1504.61	-0.00358391
1506.17	0.379979
1507.73	0.994389
1509.28	0.58284
1510.84	0.479998
1512.4	0.800673
1513.96	0.6006
1515.52	0.862496
1517.07	0.0300236
1518.63	0.657407
1520.19	0.460258
1521.74	1.10558
1523.3	0.315753
1524.85	0.882505
1526.41	0.264946
1527.96	0.904922
1529.52	0.744137
1531.07	0.621767
1532.63	1.22065
1534.18	0.663663
1535.73	0.922164
1537.29	0.387378
1538.84	1.00556
1540.39	0.755486
1541.94	0.713186
1543.5	0.877891
1545.05	0.741307
1546.6	0.8302
1548.15	1.51916
1549.7	1.34452
1551.25	1.33892
1552.8	1.42731
1554.35	0.974408
1555.9	1.02764
1557.45	1.10097
1559	0.728081
1560.55	0.841973
1562.1	1.38621
1563.65	0.905344
1565.19	1.20851
1566.74	1.11994
1568.29	1.44176
1569.83	1.87532
1571.38	1.78592
1572.93	1.11758
1574.47	1.00913
1576.02	1.68474
1577.56	2.1739
1579.11	1.73002
1580.66	1.95881
1582.2	2.02032
1583.74	1.52217
1585.29	1.94009
1586.83	1.85397
1588.38	1.46863
1589.92	1.43831
1591.46	1.18296
1593.01	1.47007
1594.55	1.4949
1596.09	1.98819
1597.63	2.01362
1599.17	1.92718
1600.71	1.39107
1602.25	1.99973
1603.79	1.8015
1605.34	1.65883
1606.88	2.07864
1608.41	1.51947
1609.95	1.78525
1611.49	0.902793
1613.03	1.48425
1614.57	1.53847
1616.11	0.785813
1617.65	1.17786
1619.18	1.0459
1620.72	1.00891
1622.26	1.17902
1623.79	1.16252
1625.33	1.25834
1626.87	1.27863
1628.4	1.44748
1629.94	1.18493
1631.48	1.85623
1633.01	1.91006
1634.55	0.956117
1636.08	1.1233
1637.61	1.23513
1639.15	1.17961
1640.68	1.0496
1642.21	0.993684
1643.75	1.77482
1645.28	1.06538
1646.81	0.858218
1648.34	1.13423
1649.88	1.50301
1651.41	1.27836
1652.94	1.22191
1654.47	1.55578
1656	1.24124
1657.53	1.26035
1659.06	1.27879
1660.59	1.29614
1662.12	1.27527
1663.65	1.32744
1665.18	1.19438
1666.71	0.932662
1668.24	1.26235
1669.76	1.09522
1671.29	0.487249
1672.82	1.00411
1674.35	1.22642
1675.87	1.04339
1677.4	0.896619
1678.93	0.951451
1680.45	0.637682
1681.98	0.94841
1683.5	0.799442
1685.03	0.558986
1686.55	0.649205
1688.08	0.391439
1689.6	0.445667
1691.13	0.683118
1692.65	0.243291
1694.17	1.21225
1695.7	0.644439
1697.22	0.588632
1698.74	0.824786
1700.27	0.129588
1701.79	0.346755
1703.31	0.28982
1704.83	0.141503
1706.35	0.265999
1707.87	0.390074
1709.39	0.495708
1710.91	0.0205274
1712.43	0.0177164
1713.95	0.159961
1715.47	0.157208
1716.99	0.262929
1718.51	0.458735
1720.03	-0.0319996
1721.55	0.145767
1723.07	0.503971
1724.58	-0.326612
1726.1	-0.0388474
1727.62	0.429641
1729.13	0.322742
1730.65	0.126218
1732.17	-0.0322676
1733.68	0.109245
1735.2	0.209929
1736.72	-0.0827184
1738.23	-0.10621
1739.74	0.0181937
1741.26	0.197261
1742.77	0.315267
1744.29	0.0674629
1745.8	0.0403919
1747.32	0.181821
1748.83	-0.220202
1750.34	0.102398
1751.85	0.0930967
1753.37	-0.00212002
1754.88	0.151837
1756.39	-0.0734506
1757.9	0.104586
1759.41	0.0597463
1760.92	0.359597
1762.44	0.0494342
1763.95	0.0440946
1765.46	0.118227
1766.96	0.157369
1768.47	-0.0470457
1769.98	0.0207701
1771.49	0.157454
1773	0.255862
1774.51	0.242112
1776.02	0.0126429
1777.53	0.169774
1779.03	-0.0581818
1780.54	0.228437
1782.05	0.227523
1783.55	0.362539
1785.06	0.159159
1786.57	0.261887
1788.07	-0.0597224
1789.58	0.0668731
1791.08	0.00104809
1792.59	0.0806537
1794.09	-0.0159168
1795.6	0.121383
1797.1	0.0560684
1798.61	-0.0656481
1800.11	0.0122633
1801.61	0.198221
1803.12	0.183825
1804.62	0.137224
1806.12	-0.0148911
1807.62	-0.037818
1809.12	0.306009
1810.63	0.0825124
1812.13	-0.0469685
1813.63	-0.195935
1815.13	0.00542736
1816.63	-0.0744596
1818.13	0.0734515
1819.63	0.0700383
1821.13	0.193826
1822.63	0.295534
1824.13	0.135679
1825.63	-0.0731726
1827.13	0.24817
1828.62	-0.00439072
1830.12	-0.148245
1831.62	-0.0081172
1833.12	0.0472541
1834.61	-0.13827
1836.11	0.0550675
1837.61	-0.138251
1839.1	-0.0135832
1840.6	0.162155
1842.09	0.112185
1843.59	0.259396
1845.09	0.157301
1846.58	-0.0646443
1848.08	0.389627
1849.57	-0.08634
1851.06	-0.123475
1852.56	0.242772
1854.05	0.265635
1855.54	0.0355101
1857.04	-0.00390196
1858.53	-0.000545979
1860.02	0.119928
1861.51	0.0227695
1863.01	0.0952311
1864.5	0.126538
1865.99	0.255499
1867.48	0.160044
1868.97	0.192923
1870.46	0.425615
1871.95	0.309004
1873.44	-0.101458
1874.93	0.116154
1876.42	-0.0680776
1877.91	0.00419474
1879.4	0.0618696
1880.89	-0.0809941
1882.37	-0.107015
1882.46	-0.107964
1883.95	0.0841208
1885.45	-0.177616
1886.94	0.0304904
1888.43	0.0116611
1889.93	-0.0940247
1891.42	-0.198884
1892.91	-0.0242987
1894.41	0.0994754
1895.9	0.120156
1897.39	0.402403
1898.88	0.0410972
1900.37	-0.0253286
1901.86	0.272321
1903.36	0.0988932
1904.85	0.150425
1906.34	0.236009
1907.83	0.0609694
1909.32	0.112203
1910.81	-0.0267448
1912.29	0.0259061
1913.78	-0.18117
1915.27	-0.179999
1916.76	0.462402
1918.25	-0.126539
1919.74	0.150857
1921.23	-0.24754
1922.71	-0.0566611
1924.2	0.273277
1925.69	0.136621
1927.17	0.139306
1928.66	0.0559464
1930.15	0.128413
1931.63	0.598588
1933.12	0.0978928
1934.6	0.374987
1936.09	0.131454
1937.57	0.0774398
1939.06	-0.0114517
1940.54	-0.048223
1942.02	-0.308674
1943.51	0.0184155
1944.99	0.0182786
1946.47	0.139125
1947.96	0.121867
1949.44	0.465819
1950.92	0.171584
1952.4	0.0490203
1953.88	0.270072
1955.37	0.0783195
1956.85	0.21339
1958.33	0.0398917
1959.81	0.398935
1961.29	0.0550599
1962.77	0.0887237
1964.25	0.0879636
1965.73	0.0525737
1967.21	-0.103116
1968.69	0.356653
1970.16	0.131615
1971.64	0.0262423
1973.12	0.159926
1974.6	0.395824
1976.08	0.0179272
1977.55	0.151668
1979.03	0.251264
1980.51	0.095551
1981.98	0.347885
1983.46	0.514702
1984.94	0.375467
1986.41	0.236238
1987.89	0.23278
1989.36	0.585186
1990.84	0.0406952
1992.31	0.275612
1993.79	0.00390339
1995.26	0.206232
1996.73	0.324302
1998.21	0.239621
1999.68	0.255964
2001.15	0.288695
2002.63	0.405329
2004.1	0.30256
2005.57	-0.0694685
2007.04	0.452078
2008.51	0.199434
2009.99	-0.00190783
2011.46	-0.202778
2012.93	0.0677319
2014.4	-0.116515
2015.87	0.253951
2017.34	-0.183798
2018.81	0.201922
2020.28	-0.0516572
2021.75	0.232296
2023.21	0.0965586
2024.68	0.313879
2026.15	0.0287404
2027.62	0.247952
2029.09	0.132846
2030.56	0.0858431
2032.02	0.17381
2033.49	0.279013
2034.96	0.317114
2036.42	0.220563
2037.89	0.375585
2039.36	0.429519
2040.82	0.365736
2042.29	0.604865
2043.75	0.424223
2045.22	0.0254025
2046.68	-0.0533442
2048.14	-0.0814037
2049.61	0.176794
2051.07	0.164703
2052.54	-0.0172086
2054	0.035593
2055.46	-0.132147
2056.93	0.18803
2058.39	0.79381
2059.85	0.489363
2061.31	0.488533
2062.77	0.437839
2064.23	0.118678
2065.7	0.254728
2067.16	0.357769
2068.62	-0.0941257
2070.08	0.211602
2071.54	-0.0212741
2073	0.166622
2074.46	0.101769
2075.92	0.104012
2077.38	0.223856
2078.83	0.292869
2080.29	0.428874
2081.75	0.362375
2083.21	0.295377
2084.67	0.311971
2086.12	0.126116
2087.58	0.12489
2089.04	0.140145
2090.49	0.256001
2091.95	0.422042
2093.41	0.336141
2094.86	0.451383
2096.32	0.297932
2097.77	0.11067
2099.23	0.0236087
2100.68	0.153825
2102.14	0.467789
2103.59	0.498042
2105.05	0.479185
2106.5	0.227875
2107.95	0.461233
2109.41	0.477991
2110.86	0.144271
2112.31	0.443014
2113.76	0.390409
2115.21	0.652767
2116.67	0.232303
2118.12	0.493809
2119.57	0.457123
2121.02	0.554673
2122.47	0.404891
2123.92	0.471883
2125.37	0.356997
2126.82	0.855409
2128.27	0.706399
2129.72	0.440382
2131.17	0.0576434
2132.62	0.386477
2134.07	0.433632
2135.51	0.481304
2136.96	0.414324
2138.41	0.613181
2139.86	-0.0459161
2141.31	0.45311
2142.75	0.473776
2144.2	0.511506
2145.65	0.516285
2147.09	1.28246
2148.54	0.624309
2149.98	0.793429
2151.43	0.663591
2152.87	0.831201
2154.32	1.03128
2155.76	0.849903
2157.21	0.685153
2158.65	0.752846
2160.1	0.722145
2161.54	0.924757
2162.98	0.963178
2164.43	0.853569
2165.87	0.528667
2167.31	0.685053
2168.75	0.574891
2170.2	1.01212
2171.64	0.699385
2173.08	0.568053
2174.52	0.751703
2175.96	0.984698
2177.4	0.702283
2178.84	0.487005
2180.28	0.654852
2181.72	0.557345
2183.16	0.62656
2184.6	0.829071
2186.04	0.765542
2187.48	0.901665
2188.92	0.921375
2190.36	1.14082
2191.79	0.494417
2193.23	0.896249
2194.67	0.830897
2196.11	0.71422
2197.54	0.712548
2198.98	0.593134
2200.42	0.190598
2201.85	0.419416
2203.29	0.598582
2204.72	0.380375
2206.16	0.77639
2207.59	1.00682
2209.03	0.756695
2210.46	0.87034
2211.9	0.91689
2213.33	0.863575
2214.77	0.232083
2216.2	0.707819
2217.63	0.622918
2219.07	0.291677
2220.5	0.324016
2221.93	0.471821
2223.36	0.305988
2224.8	0.468623
2226.23	0.432299
2227.66	0.460522
2229.09	0.750471
2230.52	0.350109
2231.95	0.409297
2233.39	0.141152
2234.81	0.266565
2236.25	0.376243
2237.67	0.552222
2239.1	0.321505
2240.53	0.174035
2241.96	0.403083
2243.39	0.274246
2244.82	0.749208
2246.25	0.440772
2247.68	0.163826
2249.1	0.358223
2250.53	0.501853
2251.96	0.367158
2253.38	0.687368
2254.81	-0.0489202
2256.24	0.434642
2257.66	0.33519
2259.09	0.221715
2260.51	0.110417
2261.94	0.21187
2263.36	0.541998
2264.79	0.28778
2266.21	0.341944
2267.64	0.428103
2269.06	0.448529
2270.49	0.289268
2271.91	0.504027
2273.33	0.523292
2274.76	0.086504
2276.18	0.154758
2277.6	0.435047
2279.02	0.210162
2280.44	0.22971
2281.87	0.151309
2283.29	0.105421
2284.71	0.0595298
2286.13	0.193313
2287.55	0.131501
2288.97	0.494635
2290.39	0.466198
2291.81	0.405257
2293.23	0.164461
2294.65	0.692416
2296.07	0.369606
2297.49	0.357601
2298.91	0.296467
2300.33	0.0387335
2301.74	-0.0550656
2303.16	-0.181562
2304.58	0.266418
2306	0.123591
2307.41	0.243262
2308.83	0.346194
2310.25	0.0541058
2311.66	-0.172692
2313.08	0.340748
2314.5	0.295185
2315.91	0.0854602
2317.33	0.601005
2318.74	0.210838
2320.16	0.347867
2321.57	0.319213
2322.98	0.322136
2324.4	0.257284
2325.81	0.520706
2327.23	0.469259
2328.64	0.582038
2330.05	0.266537
2331.46	0.11664
2332.88	0.395593
2334.29	0.395329
2335.7	0.0169096
2337.11	-0.0656028
2338.52	-0.0501113
2339.94	0.260313
2341.35	0.076993
2342.76	0.0904427
2344.17	0.00543118
2345.58	0.0846066
2346.99	-0.36025
2348.4	-0.231606
2349.81	0.403741
2351.22	-0.0739703
2352.62	0.00368834
2354.03	0.0968208
2355.44	-0.250872
2356.85	-0.109599
2358.26	0.307849
2359.67	0.107051
2361.07	-0.190636
2362.48	-0.0499363
2363.89	0.300943
2365.29	0.00385427
2366.7	0.0792475
2368.11	0.0903258
2369.51	0.344113
2370.92	-0.062427
2372.32	0.0641809
2373.73	0.0625858
2375.13	0.302747
2376.54	0.333274
2377.94	-0.071197
2379.35	0.0700679
2380.75	0.482765
2382.15	-0.0205302
2383.56	0.197372
2384.96	0.302557
2386.36	0.255991
2387.76	0.146346
2389.17	0.380622
2390.57	-0.0696135
2391.97	0.118512
2393.37	0.0843973
2394.77	0.241791
2396.17	0.383693
2397.58	-0.0938497
2398.98	-0.0145802
2400.38	0.0650191
2401.78	0.0495238
2403.18	0.304056
2404.58	0.224785
2405.97	-0.109056
2407.37	0.143747
2408.77	0.173692
2410.17	0.425252
2411.57	0.16971
2412.97	0.215891
2414.37	0.0571671
2415.76	0.184538
2417.16	0.0912728
2418.56	0.283695
2419.95	-0.347047
2421.35	0.27327
2422.75	-0.12039
2424.14	0.0560389
2425.54	0.248384
2426.93	0.425311
2428.33	-0.0945702
2429.72	-0.0590267
2431.12	-0.181599
2432.51	-0.193044
2433.91	-0.0619125
2435.3	0.163842
2436.7	0.483922
2438.09	-0.0392275
2439.48	-0.039012
2440.88	0.532205
2442.27	0.166009
2443.66	0.148962
2445.05	0.258687
2446.44	0.368196
2447.84	0.0813122
2449.23	0.143158
2450.62	-0.11156
2452.01	-0.0649776
2453.4	-0.160277
2454.79	0.0773082
2456.18	0.31535
2457.57	0.126534
2458.96	-0.109805
2460.35	0.159569
2461.74	0.0804071
2463.13	-0.0151091
2464.52	0.347188
2465.91	-0.0964799
2467.29	-0.224125
2468.68	0.0901027
2470.07	-0.0219207
2471.46	0.0234694
2472.85	0.320371
2474.23	-0.0134039
2475.62	0.282044
2477.01	-0.193442
2478.39	0.0699282
2479.78	-0.0436277
2481.16	0.219444
2482.55	0.0120273
2483.93	-0.367587
2485.32	-0.246638
2486.7	0.216995
2488.09	0.132569
2489.47	0.0321851
2490.86	-0.317101
2492.24	-0.0122533
2493.62	0.323699
2495.01	0.023952
2496.39	0.190681
2497.77	0.187438
2499.15	0.153471
2500.54	-0.0198851
2501.92	0.100114
2503.3	0.26551
2504.68	-0.341382
2506.06	-0.0691423
2507.45	0.109955
2508.83	-0.00337601
2510.21	0.283151
2511.59	-0.120848
2512.97	0.150956
2514.35	-0.327576
2515.73	0.0982876
2517.11	0.187649
2518.48	0.430228
2519.86	0.0767388
2521.24	0.135813
2522.62	-0.00408363
2524	-0.0528851
2525.38	-0.0868998
2526.75	-0.105838
2528.13	-0.0940423
2529.51	0.0857797
2530.89	0.403358
2532.26	0.12942
2533.64	-0.173754
2535.02	0.0250158
2536.39	0.0870438
2537.77	0.0726438
2539.14	-0.139888
2540.52	0.14813
2541.89	0.208005
2543.27	0.252858
2544.64	0.252813
2546.01	0.056519
2547.39	-0.169195
2548.76	0.0152926
2550.14	0.154424
2551.51	0.0049181
2552.88	0.340377
2554.25	0.0376649
2555.63	-0.371831
2557	-0.0534749
2558.37	-0.220628
2559.74	-0.281391
2561.11	0.20388
2562.49	0.0681496
2563.86	-0.0822663
2565.23	0.343506
2566.6	-0.00338125
2567.97	-0.0319614
2569.34	-0.196932
2570.71	0.16857
2572.08	0.185522
2573.45	0.35413
2574.82	0.174169
2576.18	-0.0512671
2577.55	0.0264602
2578.92	0.0888801
2580.29	-0.0460677
2581.66	-0.287444
2583.02	0.107732
2584.39	0.0175414
2585.76	0.109232
2587.13	0.125207
2588.49	0.0958643
2589.86	0.27879
2591.22	0.234312
2592.59	0.295569
2593.96	0.144126
2595.32	0.0828695
2596.69	-0.0396543
2598.05	-0.192896
2599.42	0.198047
2600.78	-0.0611439
2602.14	-0.0780473
2603.51	0.403717
2604.87	0.115956
2606.23	0.356541
2607.6	-0.0064292
2608.96	-0.143607
2610.32	0.110137
2611.69	-0.0889783
2613.05	-0.0179462
2614.41	0.0523777
2615.77	0.212387
2617.13	0.207337
2618.49	0.142841
2619.86	-0.0705819
2621.22	0.0608006
2622.58	-0.121389
2623.94	-0.123956
2625.3	0.261452
2626.66	0.0645742
2628.02	0.28498
2629.37	-0.00143623
2630.73	0.0248899
2632.09	0.303824
2633.45	-0.0416055
2634.81	0.25174
2636.17	0.336968
2637.53	0.244234
2638.88	0.196114
2640.24	0.015039
2641.6	-0.0916462
2642.96	0.0975108
2644.31	0.12415
2645.67	0.135962
2647.02	-0.0441685
2648.38	-0.195045
2649.74	-0.272652
2651.09	-0.0712595
2652.45	-0.164242
2653.8	0.315306
2655.16	0.0322766
2656.51	0.277819
2657.86	-0.0615678
2659.22	-0.063406
2660.57	-0.0502934
2661.93	0.240408
2663.28	-0.0392766
2664.63	0.162491
2665.98	-0.0304079
2667.34	-0.00474977
2668.69	0.224659
2670.04	-0.0262575
2671.39	0.0870905
2672.75	0.273417
2674.09	0.227655
2675.45	0.138845
2676.8	0.166626
2678.15	-0.00816393
2679.5	0.223763
2680.85	0.0794454
2682.2	0.312996
2683.55	0.228498
2684.9	0.130212
2686.25	0.278913
2687.6	0.326048
2688.94	-0.0486732
2690.29	0.126991
2691.64	0.0980597
2692.99	0.0534992
2694.34	0.26926
2695.68	0.136804
2697.03	0.0339007
2698.38	0.265085
2699.73	0.00514889
2701.07	0.253337
2702.42	0.285506
2703.76	0.0577006
2705.11	0.0765624
2706.45	-0.0640483
2707.8	0.157808
2709.15	0.437628
2710.49	0.267191
2711.83	-0.034297
2713.18	-0.103576
2714.52	0.161375
2715.87	0.470073
2717.21	0.0952888
2718.55	0.12746
2719.9	-0.0152211
2721.24	0.365642
2722.58	-0.0833769
2723.93	0.00575733
2725.27	0.123698
2726.61	-0.166179
2727.95	-0.00506973
2729.29	-0.0333371
2730.63	0.200211
2731.98	-0.133715
2733.32	0.0561967
2734.66	0.318934
2736	0.218176
2737.34	0.408428
2738.68	0.0896473
2740.02	0.0615869
2741.36	-0.14128
2742.7	0.3678
2744.03	-0.0685458
2745.37	0.061532
2746.71	-0.0266304
2748.05	0.146424
2749.39	0.203292
2750.72	-0.0443039
2752.06	0.201417
2753.4	0.0268512
2754.74	0.287187
2756.07	0.199859
2757.41	0.0692711
2758.75	-0.0321016
2760.08	0.0260601
2761.42	0.142447
2762.76	0.288114
2764.09	-0.05793
2765.42	0.0445957
2766.76	0.190203
2768.09	0.147068
2769.43	-0.0849476
2770.76	0.448137
2772.1	0.185229
2773.43	-0.0203428
2774.76	-0.125054
2776.1	0.116082
2777.43	-0.0890822
2778.76	-0.0202742
2780.1	-0.0948849
2781.43	-0.0255346
2782.76	-0.142769
2784.09	-0.0160646
2785.42	0.182118
2786.75	0.0937133
2788.09	0.120304
2789.42	0.0472898
2790.75	0.103727
2792.08	-0.0537534
2793.41	0.289527
2794.74	0.146781
2796.07	0.0467372
2797.4	-0.0250716
2798.73	0.15978
2800.06	0.215712
2801.39	-0.0281796
2802.71	-0.286224
2804.04	0.268126
2805.37	0.123658
2806.7	0.434401
2808.03	0.203746
2809.35	-0.0268869
2810.68	-0.0725389
2812.01	0.237076
2813.33	0.27766
2814.66	0.0215683
2815.99	0.135233
2817.31	-0.104628
2818.64	-0.202292
2819.96	-0.0731516
2821.29	-0.15691
2822.61	-0.0285511
2823.94	0.212663
2825.26	0.0568895
2826.59	-0.197907
2827.91	0.439742
2829.23	0.0158706
2830.56	0.158655
2831.88	-0.00982618
2833.21	0.444493
2834.53	0.445611
2835.85	0.6728
2837.17	0.14959
2838.5	0.291151
2839.82	0.333491
2841.14	0.57381
2842.46	0.531614
2843.78	0.617102
2845.1	0.561787
2846.42	0.803713
2847.74	0.466475
2849.06	0.864193
2850.38	0.851841
2851.71	0.711936
2853.03	0.882599
2854.34	0.968154
2855.66	1.16657
2856.98	1.06826
2858.3	0.899387
2859.62	1.35194
2860.94	1.15472
2862.26	1.4232
2863.57	1.12673
2864.89	1.30996
2866.21	1.36611
2867.53	1.47882
2868.84	1.83149
2870.16	1.63455
2871.48	1.91706
2872.79	1.63554
2874.11	1.63542
2875.42	2.31062
2876.74	1.99891
2878.05	1.85572
2879.37	1.82497
2880.68	1.71013
2882	2.0315
2883.31	2.00228
2884.63	1.98785
2885.94	2.01599
2887.26	1.65121
2888.57	2.14223
2889.88	1.90297
2891.19	2.09794
2892.51	2.09606
2893.82	1.8699
2895.13	2.28831
2896.44	2.25905
2897.76	2.09065
2899.07	2.30083
2900.38	2.32969
2901.69	2.62468
2903	2.73795
2904.31	2.6555
2905.62	2.44736
2906.93	2.99494
2908.24	2.61993
2909.55	2.66518
2910.86	2.97677
2912.17	3.16253
2913.48	3.24978
2914.79	2.85998
2916.1	3.19688
2917.41	3.50446
2918.71	3.54523
2920.02	3.08231
2921.33	3.1095
2922.64	3.69674
2923.94	3.68381
2925.25	3.30834
2926.56	3.84195
2927.86	4.17994
2929.17	3.91651
2930.48	3.7505
2931.78	4.1293
2933.09	4.04656
2934.39	4.14548
2935.7	4.23049
2937	3.86841
2938.31	4.16327
2939.61	3.66182
2940.92	3.24459
2942.22	3.69433
2943.53	3.20864
2944.83	3.40875
2946.13	2.88261
2947.43	3.25194
2948.74	3.08953
2950.04	3.12219
2951.34	2.94352
2952.64	3.05747
2953.95	2.83431
2955.25	2.94683
2956.55	2.44405
2957.85	2.43257
2959.15	2.92702
2960.45	2.84957
2961.75	2.49319
2963.05	2.59985
2964.35	2.0605
2965.65	2.23588
2966.95	2.07295
2968.25	2.40097
2969.55	2.36295
2970.85	2.36699
2972.15	2.35714
2973.45	2.22088
2974.75	1.90153
2976.05	2.46859
2977.34	1.69716
2978.64	1.96639
2979.94	1.85417
2981.24	1.89577
2982.53	1.72589
2983.83	1.83751
2985.13	1.38763
2986.42	1.50109
2987.72	1.71393
2989.01	1.32325
2990.31	1.38244
2991.61	1.39912
2992.9	1.27446
2994.19	1.09268
2995.49	1.0225
2996.78	0.909672
2998.08	0.909006
2999.37	0.866384
3000.67	0.613811
3001.96	0.684187
3003.25	0.502559
3004.55	0.853415
3005.84	0.797719
3007.13	0.699588
3008.42	0.852745
3009.72	0.599516
3011.01	0.401923
3012.3	0.762733
3013.59	0.271915
3014.88	0.548807
3016.17	0.198875
3017.46	0.615614
3018.76	0.378227
3020.05	0.600075
3021.34	0.51553
3022.63	0.388763
3023.92	0.455711
3025.21	0.258488
3026.49	0.241475
3027.78	0.363128
3029.07	0.181141
3030.36	0.511662
3031.65	0.0833097
3032.94	0.26347
3034.23	0.222907
3035.51	0.375105
3036.8	0.291781
3038.09	0.400099
3039.38	0.190236
3040.66	-0.185292
3041.95	0.331658
3043.23	0.147996
3044.52	0.239122
3045.81	0.290124
3047.09	0.137629
3048.38	0.451182
3049.66	0.165477
3050.95	0.56333
3052.23	0.388596
3053.52	0.664135
3054.8	0.434308
3056.09	0.285583
3057.37	0.490544
3058.65	0.558368
3059.94	-0.136679
3061.22	0.40761
3062.5	0.462299
3063.79	0.640282
3065.07	0.289107
3066.35	0.251645
3067.63	0.228465
3068.92	0.151131
3070.2	0.440766
3071.48	-0.0726953
3072.76	0.0521641
3074.04	0.461483
3075.32	6.29425e-005
3076.6	0.0548344
3077.88	0.191185
3079.16	-0.133211
3080.44	0.045464
3081.72	-0.0461516
3083	0.147957
3084.28	-0.254451
3085.56	-0.114152
3086.84	0.351582
3088.12	0.165251
3089.4	-0.184513
3090.67	0.157469
3091.95	-0.04354
3093.23	0.0132732
3094.51	0.0159593
3095.78	-0.184608
3097.06	0.0758023
3098.34	0.132692
3099.61	0.0945258
3100.89	-0.0250444
3102.17	-0.0768785
3103.44	-0.115036
3104.72	0.0230613
3105.99	0.0938797
3107.27	0.0570045
3108.54	0.0613971
3109.82	-0.136554
3111.09	0.139916
3112.37	-0.0434628
3113.64	-0.104793
3114.92	0.064209
3116.19	0.151562
3117.46	0.170433
3118.74	0.0799193
3120.01	0.0834441
3121.28	-0.0222735
3122.55	-0.0471368
3123.83	0.00904989
3125.1	-0.219131
3126.37	0.0132637
3127.64	-0.173623
3128.91	-0.0219808
3130.19	0.197343
3131.46	0.0786009
3132.73	0.0273027
3134	-0.0783443
3135.27	0.0721369
3136.54	0.140976
3137.81	0.0609283
3139.08	0.169207
3140.35	0.11554
3141.62	0.223263
3142.89	0.0218487
3144.16	0.076088
3145.42	-0.164565
3146.69	0.10492
3147.96	0.0260887
3149.23	0.121732
