200.43	0.265541
202.244	0.30191
204.059	0.339828
205.873	0.403284
207.688	0.394033
209.501	0.092165
211.314	0.153053
213.127	-0.249485
214.941	0.802017
216.753	0.129978
218.564	0.136925
220.375	-0.194279
222.186	0.395258
223.999	-0.513599
225.809	0.149807
227.618	0.377758
229.428	-0.119633
231.236	0.251274
233.045	0.814138
234.855	0.26766
236.663	0.0607128
238.471	-0.143246
240.278	0.789213
242.085	-0.348259
243.891	0.348572
245.698	0.370045
247.503	0.654634
249.309	-0.489552
251.116	-0.696787
252.921	0.250374
254.725	-0.132872
256.529	0.15851
258.333	0.330133
260.136	-0.387459
261.939	-0.0181179
263.742	0.0885296
265.544	-0.188868
267.346	0.016016
269.148	0.630178
270.949	0.206478
272.75	0.600584
274.55	0.14856
276.351	0.127954
278.15	-0.232895
279.95	-0.0907345
281.749	-0.312937
283.548	-0.0326538
285.346	0.797436
287.144	0.44846
288.942	-0.28361
290.739	0.160446
292.536	0.342258
294.333	0.215086
296.129	0.0662632
297.925	-0.343816
299.721	0.322172
301.514	0.151395
303.309	-0.0922213
305.104	-0.170503
306.898	-0.083252
308.692	0.265634
310.486	0.853103
312.279	0.751113
314.072	-0.538961
315.862	-0.373724
317.654	0.318014
319.446	-0.155003
321.238	-0.19774
323.029	-0.0963688
324.819	-0.0420351
326.608	0.752605
328.398	0.162126
330.188	0.406573
331.977	0.769015
333.766	0.674457
335.553	0.720049
337.341	0.0681238
339.129	-0.0844517
340.917	0.191105
342.704	0.0587349
344.489	0.213005
346.275	-0.300961
348.062	0.427999
349.845	0.464981
351.631	0.287155
353.416	0.514179
355.201	0.262326
356.984	0.461633
358.768	0.539492
360.552	0.0676765
362.333	-0.000414848
364.116	1.14305
365.899	0.121518
367.68	0.144899
369.462	0.238
371.243	0.116353
373.023	0.372396
374.804	-0.223562
376.585	-0.369643
378.363	0.239852
380.143	-0.187115
381.923	0.306321
383.7	0.14232
385.479	-0.13711
387.256	-0.461493
389.034	0.484462
390.812	0.116198
392.588	0.547706
394.365	-0.100156
396.14	-0.418721
397.916	0.531075
399.691	0.729077
401.467	-0.177528
403.24	-0.474425
405.015	0.120066
406.788	0.0322676
408.563	0.577467
410.335	0.628964
412.109	0.0233536
413.88	1.01415
415.654	0.668447
417.424	-0.0514412
419.197	0.614079
420.967	0.0831671
422.739	-0.565631
424.508	0.0990696
426.279	0.245972
428.048	0.532418
429.819	0.137343
431.587	-0.0230274
433.356	0.0752401
435.124	0.0331898
436.891	1.18807
438.66	0.182696
440.426	0.770961
442.194	-0.0516148
443.96	-0.103065
445.725	0.779749
447.492	-0.0259886
449.257	0.525222
451.021	0.25785
452.787	0.178164
454.551	0.122291
456.314	-0.376352
458.079	0.68588
459.842	0.396855
461.604	-0.309305
463.368	0.568094
465.13	0.286757
466.891	-0.245704
468.654	0.411137
470.415	-0.114532
472.175	0.197901
473.935	0.113814
475.696	0.306495
477.456	0.565823
479.215	0.682496
480.973	0.774261
482.733	0.37712
484.491	-0.22783
486.249	0.49783
488.006	0.947697
489.765	1.26152
491.522	0.270334
493.278	0.51684
495.034	0.226273
496.789	0.777768
498.544	0.369232
500.301	1.29599
502.056	0.134453
503.81	0.707859
505.564	0.363664
507.317	0.557827
509.071	1.07912
510.825	1.62169
512.578	1.17347
514.33	0.958118
516.082	0.27015
517.833	0.733033
519.585	0.770853
521.335	0.713464
523.086	0.326596
524.836	0.643949
526.586	0.867105
528.335	0.59771
530.085	0.539363
531.835	0.948892
533.584	0.27997
535.332	1.20069
537.08	0.832327
538.827	0.579154
540.574	0.0681257
542.321	0.139353
544.068	0.209811
545.814	0.233574
547.56	0.652117
549.305	-0.0194674
551.05	0.399164
552.795	-0.200583
554.54	1.02668
556.282	0.243659
558.025	0.292972
559.769	0.158673
561.512	0.462875
563.255	0.353496
564.997	0.0843277
566.739	1.26369
568.481	0.170177
570.223	0.685766
571.964	0.102022
573.705	0.117496
575.443	-0.185418
577.183	0.133705
578.923	0.363328
580.663	0.318824
582.402	-0.070178
584.141	-0.414339
585.879	-0.277304
587.615	0.295035
589.353	-0.491693
591.09	0.42265
592.828	0.438898
594.564	0.0407877
596.299	0.471037
598.035	-0.433133
599.771	-0.555553
601.506	-0.0120459
603.242	0.27639
604.974	0.194584
606.709	0.0878286
608.443	0.37032
610.177	0.583406
611.908	-0.258118
613.642	0.0258541
615.374	0.356511
617.105	-0.664462
618.837	0.352869
620.569	-0.463584
622.3	0.594872
624.03	0.644736
625.761	-0.105044
627.491	-0.0988503
629.219	1.00578
630.949	-0.168084
632.677	0.920456
634.406	0.276493
636.135	0.134102
637.861	0.651107
639.59	0.501893
641.318	0.713039
643.043	0.236288
644.77	0.919524
646.495	0.37362
648.222	0.71802
649.948	0.476295
651.672	0.717951
653.398	0.238609
655.121	0.742158
656.846	0.658331
658.569	0.461986
660.293	0.926373
662.015	0.544176
663.738	0.112088
665.46	0.155931
667.183	1.08866
668.903	1.22001
670.626	0.551817
672.346	1.39674
674.067	0.139811
675.787	0.76381
677.508	0.633942
679.226	0.664887
680.947	0.487517
682.665	0.468122
684.385	0.83671
686.102	0.465544
687.821	0.391102
689.538	0.729577
691.254	0.514097
692.972	0.942604
694.688	1.04744
696.406	1.28882
698.121	1.32098
699.835	1.76525
701.552	0.988229
703.266	1.03802
704.98	0.856929
706.695	0.445753
708.409	1.4105
710.121	0.746259
711.836	1.04406
713.548	0.746179
715.26	0.928425
716.973	0.585109
718.685	0.835689
720.396	1.17729
722.108	1.40468
723.818	0.99475
725.528	1.74475
727.238	1.06205
728.949	2.08182
730.658	1.37601
732.367	0.625659
734.075	0.826761
735.785	1.29875
737.493	1.25107
739.2	1.11434
740.907	1.04701
742.614	1.97286
744.322	1.18878
746.028	0.880349
747.734	0.55185
749.439	0.787897
751.144	1.3183
752.849	1.2435
754.555	1.46334
756.26	1.37064
757.963	1.2128
759.667	1.82311
761.37	2.03029
763.073	1.85513
764.775	1.27289
766.477	1.65969
768.179	1.36587
769.883	1.70156
771.584	1.28786
773.285	1.88947
774.986	2.26412
776.686	2.82047
778.386	1.88664
780.085	2.24414
781.785	1.69877
783.484	1.83228
785.182	2.39425
786.881	2.34139
788.579	2.12499
790.276	1.58681
791.974	1.72308
793.671	2.7597
795.367	1.5606
797.064	1.44693
798.76	1.85398
800.456	1.76822
802.151	1.88732
803.846	2.83955
805.541	2.08232
807.234	1.72895
808.928	1.68848
810.622	2.297
812.315	1.69224
814.008	1.8269
815.701	2.29673
817.394	2.58676
819.086	2.2283
820.778	1.49109
822.468	2.67458
824.159	2.2745
825.85	2.12234
827.541	1.8401
829.231	1.71824
830.921	1.93526
832.609	2.44654
834.298	2.71656
835.987	2.07415
837.676	2.43502
839.364	1.18674
841.051	1.96765
842.738	1.92023
844.426	2.4753
846.113	2.6964
847.798	2.7193
849.484	2.47778
851.171	1.8146
852.857	1.78092
854.54	1.21018
856.226	2.45746
857.911	1.50207
859.593	1.12743
861.278	2.23557
862.961	1.67523
864.645	1.49546
866.327	1.87769
868.01	1.83064
869.692	2.00837
871.373	1.80218
873.055	2.04679
874.735	2.17854
876.416	1.72358
878.097	1.60709
879.776	1.89672
881.457	1.64403
883.135	1.61594
884.815	1.72155
886.495	1.73462
888.172	1.83541
889.851	1.86587
891.528	1.55584
893.206	1.76202
894.882	1.29095
896.56	1.89803
898.237	1.40188
899.912	1.55584
901.589	1.95456
903.263	0.986414
904.94	1.80823
906.614	1.71322
908.289	1.82007
909.962	1.79451
911.635	0.836109
913.31	1.63645
914.982	1.52552
916.656	1.05993
918.328	1.7919
920.001	1.30485
921.672	1.39476
923.345	2.21572
925.015	1.71281
926.685	1.43425
928.357	1.68836
930.026	0.841022
931.698	0.723185
933.366	1.13527
935.035	1.41518
936.705	0.394442
938.373	0.433743
940.041	1.40124
941.71	1.66502
943.377	1.97426
945.044	1.93031
946.712	1.2002
948.378	1.5708
950.044	1.45269
951.709	1.97243
953.376	1.3009
955.041	0.830597
956.706	1.59952
958.372	1.29309
960.036	1.21161
961.699	0.801216
963.362	1.00903
965.027	0.462542
966.69	0.685833
968.352	1.72351
970.014	1.58511
971.676	0.560511
973.339	1.2619
975	1.2799
976.661	1.36717
978.322	1.21358
979.982	0.895041
981.642	0.575741
983.303	1.77069
984.962	1.41297
986.621	1.53886
988.28	2.19267
989.938	1.11895
991.596	0.951406
993.254	1.13715
994.911	1.45526
996.57	0.405344
998.227	0.635452
999.884	1.41583
1001.54	1.24766
1003.2	1.40911
1004.85	0.910057
1006.51	1.55421
1008.16	0.61655
1009.82	0.514582
1011.47	0.632725
1013.12	0.576099
1014.78	0.870617
1016.43	0.793276
1018.08	1.48264
1019.74	1.23222
1021.39	1.96753
1023.04	1.56767
1024.69	0.623205
1026.34	1.44995
1028	1.75218
1029.65	2.00959
1031.3	0.626846
1032.95	1.62208
1034.6	1.17359
1036.25	0.505375
1037.9	0.599316
1039.54	1.30242
1041.19	1.39645
1042.84	1.34031
1044.49	0.483183
1046.14	1.23707
1047.78	1.08159
1049.43	1.49347
1051.08	1.19074
1052.72	1.08477
1054.37	1.45742
1056.02	0.89566
1057.66	0.920155
1059.31	0.465546
1060.95	0.662146
1062.6	1.50987
1064.24	0.529587
1065.88	1.24356
1067.53	0.890488
1069.17	0.55777
1070.81	0.875748
1072.45	0.932737
1074.1	0.795139
1075.74	0.746027
1077.38	0.0918274
1079.02	1.02273
1080.66	0.545303
1082.3	0.458218
1083.94	0.0445652
1085.58	0.669065
1087.22	0.878223
1088.86	0.43421
1090.5	0.875113
1092.14	0.124403
1093.78	0.454077
1095.42	0.761778
1097.05	1.02712
1098.69	0.884949
1100.33	0.767307
1101.96	0.35161
1103.6	0.670416
1105.24	0.73311
1106.87	0.947281
1108.51	0.838377
1110.14	0.147263
1111.78	0.679184
1113.41	0.0910072
1115.05	0.44611
1116.68	0.263447
1118.31	0.724295
1119.95	0.328648
1121.58	1.32682
1123.21	1.38406
1124.85	0.822433
1126.48	-0.25075
1128.11	0.474075
1129.74	0.51557
1131.37	0.151766
1133	0.878754
1134.63	0.55801
1136.26	0.663792
1137.89	0.490082
1139.52	-0.0485497
1141.15	0.970203
1142.78	-0.125439
1144.41	0.571758
1146.04	-0.0736961
1147.66	0.923782
1149.29	0.452007
1150.92	-0.125237
1152.55	0.0431366
1154.17	0.0831566
1155.8	-0.281857
1157.43	-0.00857353
1159.05	-0.181581
1160.68	0.157139
1162.3	0.54001
1163.93	0.286596
1165.55	0.565559
1167.17	0.163752
1168.8	0.780809
1170.42	1.05484
1172.05	0.49692
1173.67	0.361359
1175.29	0.775576
1176.91	0.0647354
1178.54	0.329662
1180.16	0.679956
1181.78	0.185066
1183.4	-0.139032
1185.02	0.424755
1186.64	0.226221
1188.26	-0.269955
1189.88	0.138075
1191.5	1.17378
1193.12	0.185953
1194.74	0.83709
1196.36	-0.19084
1197.97	0.81642
1199.59	1.46846
1201.21	0.514244
1202.83	1.04831
1204.44	0.0416698
1206.06	0.603956
1207.68	0.876122
1209.29	-0.0611553
1210.91	0.50226
1212.52	1.25033
1214.14	0.0144978
1215.75	0.525805
1217.37	-0.235598
1218.98	1.45502
1220.59	1.39813
1222.21	0.492178
1223.82	0.480852
1225.43	0.88604
1227.05	1.21038
1228.66	1.39191
1230.27	0.831057
1231.88	1.47139
1233.49	1.57611
1235.1	0.835526
1236.72	1.33699
1238.33	1.07538
1239.94	1.49714
1241.55	1.23688
1243.16	1.36905
1244.76	1.5
1246.37	0.780907
1247.98	1.63279
1249.59	2.06947
1251.2	1.3677
1252.8	1.32834
1254.41	1.37289
1256.02	1.43987
1257.62	1.38476
1259.23	1.04183
1260.84	1.61092
1262.44	1.5393
1264.05	1.73697
1265.66	1.74762
1267.26	1.5705
1268.86	1.68202
1270.47	1.48083
1272.07	1.98285
1273.67	1.6538
1275.28	2.09012
1276.88	2.77331
1278.48	1.48673
1280.09	1.5046
1281.69	2.20492
1283.29	1.91178
1284.89	1.8886
1286.49	1.90826
1288.09	2.40502
1289.69	2.01456
1291.29	1.89369
1292.89	2.20661
1294.49	2.60084
1296.09	2.45574
1297.69	2.308
1299.29	2.46703
1300.89	2.31401
1302.49	2.57106
1304.08	2.14687
1305.68	1.39332
1307.28	1.60571
1308.88	2.74037
1310.47	2.35605
1312.07	2.32121
1313.66	1.65368
1315.26	2.33763
1316.85	2.61371
1318.45	2.4211
1320.04	1.31121
1321.64	2.46266
1323.23	2.36811
1324.83	2.06752
1326.42	2.06981
1328.01	2.71984
1329.61	2.49846
1331.2	2.72521
1332.79	2.67246
1334.38	2.17947
1335.97	2.1944
1337.56	2.02876
1339.16	2.20491
1340.75	2.63992
1342.34	2.004
1343.93	1.64748
1345.52	2.77554
1347.11	2.21666
1348.7	1.48162
1350.29	1.39236
1351.87	1.4474
1353.46	2.14554
1355.05	0.726782
1356.64	0.987915
1358.22	1.7077
1359.81	1.86633
1361.4	1.58393
1362.98	1.99859
1364.57	1.39543
1366.16	1.67002
1367.74	1.34819
1369.33	0.769831
1370.91	0.970215
1372.5	1.03344
1374.08	0.83979
1375.67	0.189575
1377.25	0.813017
1378.83	1.01783
1380.41	1.47968
1382	1.14355
1383.58	1.26288
1385.16	1.20158
1386.74	0.742228
1388.33	0.998415
1389.91	1.01723
1391.49	1.77166
1393.07	0.860601
1394.65	0.803452
1396.23	1.79698
1397.81	0.846176
1399.39	1.16261
1400.97	1.55642
1402.55	0.642403
1404.13	0.995462
1405.7	1.44783
1407.28	0.715286
1408.86	0.933052
1410.44	0.282407
1412.01	1.05386
1413.59	0.619767
1415.17	1.15142
1416.74	1.08956
1418.32	0.928566
1419.89	0.669751
1421.47	1.02324
1423.04	1.43802
1424.62	0.910591
1426.19	1.03477
1427.77	0.864598
1429.34	1.14673
1430.91	1.50615
1432.49	1.27327
1434.06	1.07826
1435.63	1.43331
1437.2	1.74913
1438.78	1.08315
1440.35	1.79476
1441.92	1.50552
1443.49	1.59085
1445.06	2.4237
1446.63	2.0383
1448.2	1.88899
1449.77	2.15297
1451.34	1.5723
1452.91	1.95594
1454.48	1.63221
1456.05	1.50506
1457.62	2.02628
1459.18	2.13227
1460.75	2.27477
1462.32	2.178
1463.89	1.72457
1465.45	2.23285
1467.02	1.87562
1468.59	2.3243
1470.15	1.81245
1471.72	0.949747
1473.28	0.716848
1474.85	1.44614
1476.41	0.293644
1477.98	1.04326
1479.54	0.126417
1481.1	-0.0651627
1482.67	1.38932
1484.23	0.198007
1485.79	0.730495
1487.36	0.536918
1488.92	0.693826
1490.48	0.828135
1492.04	0.0398884
1493.61	0.148178
1495.17	0.27299
1496.73	0.259384
1498.29	0.809759
1499.85	0.0185537
1501.41	0.201504
1502.97	0.502268
1504.53	1.11386
1506.09	0.466545
1507.65	0.20626
1509.2	-0.209612
1510.76	0.319186
1512.32	0.440634
1513.88	-0.208718
1515.43	0.258723
1516.99	-0.0996132
1518.55	0.0618401
1520.1	-0.120912
1521.66	1.09391
1523.22	0.795591
1524.77	1.10764
1526.33	0.482975
1527.88	0.810565
1529.44	0.242644
1530.99	0.720597
1532.54	0.401646
1534.1	0.350028
1535.65	0.28126
1537.21	0.38417
1538.76	0.336978
1540.31	0.29049
1541.86	0.677533
1543.42	0.612007
1544.97	0.565092
1546.52	0.254991
1548.07	0.451869
1549.62	1.19185
1551.17	0.432634
1552.72	0.592343
1554.27	0.921433
1555.82	0.822629
1557.37	0.913409
1558.92	1.10051
1560.47	1.25327
1562.02	1.40861
1563.56	1.37925
1565.11	1.03364
1566.66	1.00535
1568.21	0.995383
1569.75	1.35812
1571.3	1.21628
1572.85	0.681964
1574.39	0.91277
1575.94	0.975615
1577.49	1.46815
1579.03	1.56935
1580.57	1.87696
1582.12	1.38289
1583.66	1.71192
1585.21	1.87421
1586.75	1.38307
1588.3	1.20973
1589.84	1.99023
1591.38	1.10465
1592.92	1.95913
1594.47	1.18411
1596.01	2.00125
1597.55	1.20773
1599.09	1.70841
1600.63	2.30447
1602.17	1.58811
1603.71	1.97892
1605.25	1.82421
1606.79	1.6484
1608.33	1.69494
1609.87	1.86935
1611.41	1.53262
1612.95	2.01929
1614.49	1.54609
1616.03	1.54165
1617.57	2.13775
1619.1	1.85457
1620.64	1.83626
1622.18	1.50192
1623.72	1.58091
1625.25	1.45406
1626.79	2.14952
1628.32	1.47676
1629.86	1.49422
1631.39	2.44443
1632.93	1.95463
1634.46	1.91389
1636	1.76255
1637.53	1.76204
1639.07	1.96766
1640.6	1.68865
1642.13	2.28448
1643.67	3.1945
1645.2	1.55204
1646.73	3.12728
1648.26	2.39557
1649.8	2.77963
1651.33	2.71947
1652.86	1.71555
1654.39	3.40271
1655.92	2.05015
1657.45	2.51419
1658.98	2.88404
1660.51	2.65897
1662.04	2.82022
1663.57	1.99956
1665.1	2.36134
1666.63	2.29861
1668.16	1.83202
1669.68	2.38218
1671.21	2.51054
1672.74	2.36439
1674.27	2.07179
1675.79	1.85265
1677.32	1.90843
1678.85	1.153
1680.37	1.75721
1681.9	1.05491
1683.42	1.67505
1684.95	1.65222
1686.47	1.62998
1688	0.673748
1689.52	1.45946
1691.05	1.40254
1692.57	1.2909
1694.09	1.25245
1695.62	1.15892
1697.14	0.845832
1698.66	1.04387
1700.18	0.875999
1701.71	0.725759
1703.23	-0.172363
1704.75	0.1137
1706.27	-0.0744534
1707.79	0.300832
1709.31	-0.0511971
1710.83	0.341557
1712.35	0.552596
1713.87	1.08966
1715.39	0.213928
1716.91	0.081152
1718.43	0.201415
1719.95	0.682512
1721.47	0.495499
1722.99	0.147384
1724.5	0.323791
1726.02	-0.236305
1727.54	0.502129
1729.06	-0.287971
1730.57	0.220057
1732.09	0.207534
1733.61	0.509614
1735.12	0.421378
1736.64	0.204478
1738.15	0.157395
1739.67	0.200734
1741.18	0.705941
1742.7	-0.269853
1744.21	0.450479
1745.72	-0.00149155
1747.24	0.114517
1748.75	-0.0763798
1750.26	0.224905
1751.77	-0.065526
1753.29	0.223508
1754.8	0.544013
1756.31	0.0484095
1757.82	-0.0964622
1759.33	0.387285
1760.84	-0.29639
1762.36	0.204367
1763.87	-0.303205
1765.38	-0.482891
1766.89	0.330235
1768.4	0.443403
1769.91	0.294713
1771.41	-0.25669
1772.92	-0.0185146
1774.43	0.223428
1775.94	0.508516
1777.45	0.181943
1778.95	0.147055
1780.46	0.275091
1781.97	0.208533
1783.48	-0.285196
1784.98	-0.108612
1786.49	0.186587
1787.99	-0.0420523
1789.5	0.435425
1791.01	0.288967
1792.51	-0.324205
1794.01	-0.12775
1795.52	0.157482
1797.02	-0.112748
1798.53	0.0833797
1800.03	-0.124139
1801.53	-0.099267
1803.04	0.239924
1804.54	0.343742
1806.04	0.0206242
1807.54	0.155031
1809.05	0.395205
1810.55	0.0981197
1812.05	0.055953
1813.55	0.261424
1815.05	0.296515
1816.55	0.284436
1818.05	0.00107861
1819.55	0.0097084
1821.05	-0.104075
1822.55	-0.0548706
1824.05	-0.256628
1825.55	-0.00632668
1827.05	0.323741
1828.55	-0.0248995
1830.04	-0.312622
1831.54	0.0807009
1833.04	-0.21462
1834.54	0.132199
1836.03	0.319191
1837.53	0.086751
1839.03	0.0433693
1840.52	0.123035
1842.02	-0.0767078
1843.51	-0.135727
1845.01	-0.251013
1846.5	0.0436296
1848	0.460854
1849.49	0.162167
1850.99	0.145522
1852.48	0.146297
1853.97	0.306911
1855.47	-0.147117
1856.96	0.0426159
1858.45	0.163691
1859.94	0.151115
1861.44	0.055542
1862.93	0.4178
1864.42	-0.00107288
1865.91	-0.0369987
1867.4	0.065134
1868.89	0.40094
1870.38	-0.0482626
1871.87	0.151019
1873.36	0.0441027
1874.85	0.0624714
1876.34	0.00971222
1877.83	-0.179329
1879.32	0.00203991
1880.81	0.264399
1882.3	-0.0900383
1882.57	-0.18464
1884.07	0.321874
1885.56	0.321441
1887.06	0.162912
1888.55	0.160469
1890.04	0.297555
1891.54	0.0708895
1893.03	-0.100975
1894.52	-0.0961666
1896.02	0.55433
1897.51	-0.0632715
1899	-0.0899
1900.49	0.0906572
1901.98	0.164344
1903.47	-0.408171
1904.96	0.234417
1906.45	0.0933828
1907.94	0.230328
1909.43	0.177183
1910.92	-0.603209
1912.41	0.456925
1913.9	-0.0781269
1915.39	0.271495
1916.88	-0.853158
1918.37	0.0498028
1919.85	0.154548
1921.34	0.085907
1922.83	-0.207142
1924.32	-0.0139647
1925.8	-0.165327
1927.29	0.152339
1928.78	0.159368
1930.26	0.183625
1931.75	-0.243629
1933.23	0.0715227
1934.72	-0.0662098
1936.2	0.018568
1937.69	0.170633
1939.17	0.0281076
1940.66	-0.251879
1942.14	0.0392475
1943.63	-0.0132999
1945.11	0.142417
1946.59	-0.0289497
1948.07	-0.217818
1949.56	0.178018
1951.04	-0.22003
1952.52	0.000444412
1954	-0.00374508
1955.48	-0.0767546
1956.96	0.0570097
1958.45	0.191665
1959.93	0.344462
1961.41	0.017848
1962.89	0.0688696
1964.37	-0.103168
1965.85	-0.20732
1967.32	0.166827
1968.8	0.0948324
1970.28	-0.0292292
1971.76	-0.187666
1973.24	0.200212
1974.72	-0.111577
1976.19	0.44657
1977.67	0.374039
1979.15	-0.651406
1980.63	0.450648
1982.1	0.225118
1983.58	-0.119455
1985.05	0.350666
1986.53	-0.0961246
1988	0.0508976
1989.48	-0.00501919
1990.95	-0.00905037
1992.43	0.0898266
1993.9	0.240844
1995.38	0.173298
1996.85	0.106449
1998.32	0.107121
1999.8	0.0564709
2001.27	0.274938
2002.74	-0.232794
2004.22	0.203823
2005.69	0.151911
2007.16	0.0338182
2008.63	0.0351028
2010.1	-0.231686
2011.57	0.0915384
2013.04	0.128603
2014.51	0.14817
2015.98	0.099247
2017.45	-0.388278
2018.92	0.216064
2020.39	-0.037879
2021.86	0.0776911
2023.33	0.160095
2024.8	0.0423021
2026.27	0.161209
2027.74	0.131308
2029.2	-0.248582
2030.67	-0.0394487
2032.14	0.13764
2033.61	0.416282
2035.07	-0.0942421
2036.54	0.301462
2038.01	0.377307
2039.47	-0.253305
2040.94	-0.24545
2042.4	0.570069
2043.87	0.411676
2045.33	0.0189505
2046.8	0.0647135
2048.26	0.212022
2049.72	0.156696
2051.19	0.335831
2052.65	0.377777
2054.12	0.0290747
2055.58	0.133121
2057.04	-0.102047
2058.5	-0.0854301
2059.97	0.0320301
2061.43	0.25105
2062.89	0.252341
2064.35	0.2888
2065.81	0.107975
2067.27	0.652067
2068.73	0.220916
2070.19	0.244617
2071.65	0.369423
2073.11	0.325656
2074.57	0.365668
2076.03	-0.150542
2077.49	0.915669
2078.95	0.314091
2080.41	0.469616
2081.87	0.523239
2083.32	0.121353
2084.78	0.290706
2086.24	0.257001
2087.7	0.440984
2089.15	0.775423
2090.61	0.403748
2092.07	0.771017
2093.52	0.600819
2094.98	1.03411
2096.43	0.62814
2097.89	0.0876961
2099.34	0.768812
2100.8	0.528694
2102.25	0.890848
2103.71	1.0868
2105.16	0.800548
2106.61	1.11725
2108.07	0.451329
2109.52	1.23689
2110.97	0.670902
2112.43	1.18637
2113.88	0.849379
2115.33	1.07616
2116.78	0.968738
2118.23	1.02813
2119.68	1.32189
2121.13	1.5188
2122.59	1.10497
2124.04	1.07493
2125.49	1.31115
2126.94	1.71266
2128.39	1.31677
2129.83	1.4989
2131.28	1.41385
2132.73	1.41043
2134.18	2.18451
2135.63	1.75207
2137.08	1.81821
2138.53	1.77159
2139.97	1.95935
2141.42	1.70343
2142.87	2.34217
2144.31	1.97328
2145.76	1.4222
2147.21	2.7577
2148.65	2.22151
2150.1	2.14746
2151.54	2.03863
2152.99	1.94477
2154.43	2.19756
2155.88	1.98572
2157.32	2.55262
2158.77	2.4415
2160.21	2.29939
2161.65	2.60747
2163.1	2.5872
2164.54	2.58597
2165.98	2.76869
2167.43	2.58593
2168.87	2.13515
2170.31	2.79542
2171.75	2.62085
2173.19	2.69261
2174.64	2.84531
2176.07	3.2631
2177.52	2.60035
2178.96	3.25244
2180.4	2.77558
2181.84	1.86778
2183.28	2.25777
2184.72	2.48199
2186.15	2.22395
2187.59	2.4151
2189.03	2.47324
2190.47	2.43147
2191.91	2.63898
2193.35	2.31249
2194.78	2.36677
2196.22	2.10183
2197.66	2.49943
2199.09	2.02922
2200.53	1.52482
2201.97	2.63135
2203.4	2.0286
2204.84	2.34028
2206.27	2.02351
2207.71	2.08884
2209.14	1.57422
2210.58	1.58848
2212.01	1.46884
2213.45	1.76144
2214.88	1.77267
2216.31	1.33918
2217.75	1.48535
2219.18	1.17154
2220.61	1.38676
2222.05	1.2559
2223.48	1.20639
2224.91	1.53351
2226.34	1.4133
2227.78	1.35648
2229.21	1.34708
2230.64	0.827991
2232.07	1.45677
2233.5	0.742442
2234.93	1.84569
2236.36	1.1844
2237.79	1.1306
2239.22	1.25922
2240.65	1.1298
2242.08	1.26411
2243.5	1.31872
2244.93	0.656133
2246.36	0.547073
2247.79	1.2348
2249.22	0.82661
2250.64	0.545883
2252.07	0.621122
2253.5	1.02026
2254.92	0.541855
2256.35	0.293653
2257.78	0.66575
2259.2	0.765998
2260.63	0.594725
2262.05	0.394411
2263.48	0.488489
2264.9	0.420533
2266.33	0.758468
2267.75	0.623757
2269.18	0.438742
2270.6	0.708278
2272.02	0.179341
2273.45	0.464247
2274.87	0.781972
2276.29	0.741688
2277.71	0.848309
2279.14	0.775739
2280.56	0.393197
2281.98	0.630084
2283.4	0.605922
2284.82	0.255424
2286.24	0.900767
2287.66	0.599992
2289.08	0.511994
2290.5	0.58791
2291.92	0.337336
2293.34	0.773605
2294.76	0.686624
2296.18	-0.120799
2297.6	0.577574
2299.02	0.637685
2300.44	0.681726
2301.86	0.496648
2303.27	0.0164738
2304.69	0.110531
2306.11	0.220984
2307.53	0.0681295
2308.94	0.85135
2310.36	0.220082
2311.78	-0.362824
2313.19	0.468935
2314.61	0.0508738
2316.02	0.835611
2317.44	0.534854
2318.85	-0.111793
2320.27	0.0816631
2321.68	0.488219
2323.1	0.463147
2324.51	0.368674
2325.92	0.963907
2327.34	0.583275
2328.75	1.0095
2330.16	0.480251
2331.58	0.940643
2332.99	0.398416
2334.4	0.0387001
2335.81	0.123623
2337.23	0.142045
2338.64	0.126176
2340.05	0.190843
2341.46	0.336205
2342.87	-0.126519
2344.28	0.510098
2345.69	0.0974016
2347.1	-0.150591
2348.51	-0.103621
2349.92	0.155391
2351.33	0.461953
2352.74	-0.131669
2354.15	0.0739679
2355.55	0.245631
2356.96	0.0257101
2358.37	0.0827055
2359.78	-0.0714569
2361.19	-0.290077
2362.59	-0.0381002
2364	-0.159314
2365.41	-0.458297
2366.81	0.0193272
2368.22	0.496839
2369.62	0.394272
2371.03	-0.125316
2372.44	-0.159096
2373.84	0.227197
2375.24	0.16298
2376.65	-0.352235
2378.05	-0.0805187
2379.46	0.301134
2380.86	-0.0907497
2382.26	0.317924
2383.67	-0.0923796
2385.07	-0.0381212
2386.47	0.168345
2387.88	0.375637
2389.28	-0.460065
2390.68	-0.336777
2392.08	0.297364
2393.48	0.0888557
2394.89	0.215704
2396.29	-0.117598
2397.69	0.599128
2399.09	0.362955
2400.49	-0.38076
2401.89	-0.154918
2403.29	0.102662
2404.69	0.184953
2406.09	0.138965
2407.48	0.123432
2408.88	0.0750914
2410.28	0.343368
2411.68	0.183946
2413.08	0.0891829
2414.48	0.0121155
2415.87	0.158749
2417.27	-0.0727224
2418.67	0.346189
2420.06	0.448996
2421.46	0.0289221
2422.86	0.115161
2424.25	-0.00493431
2425.65	0.540582
2427.04	0.405501
2428.44	0.287469
2429.83	0.154829
2431.23	0.213439
2432.62	0.446928
2434.02	0.648065
2435.41	0.371081
2436.81	0.600296
2438.2	0.350664
2439.59	-0.0595894
2440.99	0.275467
2442.38	-0.0889158
2443.77	0.260636
2445.16	0.546204
2446.56	0.102009
2447.95	0.180967
2449.34	0.133118
2450.73	0.006464
2452.12	0.0864172
2453.51	0.404754
2454.9	-0.0668421
2456.29	0.142845
2457.68	0.0998373
2459.07	0.34129
2460.46	-0.272117
2461.85	-0.285592
2463.24	0.490129
2464.63	0.0163393
2466.02	0.379509
2467.4	0.410744
2468.79	0.142089
2470.18	0.17303
2471.57	-0.0173845
2472.95	-0.114019
2474.34	0.197698
2475.73	-0.246968
2477.12	0.2673
2478.5	0.168213
2479.89	0.00675774
2481.27	0.0809793
2482.66	0.280313
2484.04	0.149912
2485.43	0.534585
2486.81	-0.145478
2488.2	0.500806
2489.58	0.505509
2490.97	-0.0191345
2492.35	-0.0287571
2493.73	0.164982
2495.12	0.484303
2496.5	-0.0476036
2497.88	0.196872
2499.27	0.209191
2500.65	0.298332
2502.03	0.231671
2503.41	0.410789
2504.79	0.44946
2506.17	0.271474
2507.56	0.23206
2508.94	-0.0376663
2510.32	0.215915
2511.7	-0.312528
2513.08	-0.440413
2514.46	0.0150738
2515.84	0.0119276
2517.22	-0.17371
2518.59	0.069665
2519.97	0.20605
2521.35	0.0975418
2522.73	-0.0117617
2524.11	0.198213
2525.49	0.223995
2526.86	0.0818882
2528.24	-0.226768
2529.62	0.241993
2530.99	0.590881
2532.37	0.227815
2533.75	0.0794744
2535.12	-0.265394
2536.5	0.164477
2537.88	-0.0446663
2539.25	-0.05762
2540.63	0.125678
2542	0.338728
2543.38	0.0665474
2544.75	0.174923
2546.12	0.497349
2547.5	0.427116
2548.87	-0.263985
2550.24	0.000713348
2551.62	0.00681782
2552.99	0.148249
2554.36	0.121323
2555.74	-0.0130234
2557.11	0.018796
2558.48	0.171744
2559.85	-0.220742
2561.22	0.539551
2562.59	-0.0936947
2563.96	0.0467939
2565.34	-0.0242891
2566.71	-0.0950508
2568.08	-0.211156
2569.45	-0.251487
2570.82	0.011322
2572.18	0.137794
2573.55	0.264404
2574.92	0.603394
2576.29	-0.133945
2577.66	0.0382175
2579.03	-0.123488
2580.4	-0.164377
2581.77	-0.0996704
2583.13	0.267755
2584.5	0.30128
2585.87	0.89558
2587.23	0.0197535
2588.6	0.25068
2589.97	0.14833
2591.33	0.0912676
2592.7	0.351747
2594.06	0.247445
2595.43	0.0509253
2596.79	-0.404145
2598.16	0.320168
2599.52	-0.0151491
2600.89	0.148714
2602.25	0.116776
2603.62	0.266936
2604.98	0.387568
2606.34	0.146345
2607.71	-0.0348463
2609.07	-0.096467
2610.43	0.277132
2611.79	-0.224508
2613.16	0.235469
2614.52	0.182804
2615.88	-0.125168
2617.24	-0.0424337
2618.6	0.0259933
2619.96	0.0504713
2621.32	0.150677
2622.68	0.0422726
2624.04	0.203096
2625.4	-0.0243425
2626.76	0.120973
2628.12	-0.211188
2629.48	0.00765324
2630.84	0.285393
2632.2	0.443621
2633.56	0.126218
2634.92	-0.131339
2636.28	0.263988
2637.63	-0.185941
2638.99	0.0904179
2640.35	0.203827
2641.71	0.0808992
2643.06	0.194895
2644.42	0.176104
2645.77	0.452264
2647.13	0.211513
2648.49	0.117477
2649.84	0.125505
2651.2	0.0884972
2652.55	0.0511684
2653.91	0.175621
2655.26	0.183632
2656.62	0.134568
2657.97	0.160334
2659.33	-0.412479
2660.68	-0.209264
2662.03	-0.108753
2663.39	0.0784807
2664.74	0.176809
2666.09	-0.090641
2667.44	0.224625
2668.8	0.146132
2670.15	0.402795
2671.5	0.107334
2672.85	0.118273
2674.2	0.0284023
2675.55	-0.104136
2676.91	-0.119714
2678.26	0.0686512
2679.61	-0.611931
2680.96	0.0283918
2682.31	0.481801
2683.66	0.153911
2685	0.0882607
2686.35	0.226318
2687.7	0.160986
2689.05	0.23918
2690.4	0.010232
2691.75	0.707789
2693.1	0.372712
2694.44	0.152647
2695.79	0.0485497
2697.14	0.293067
2698.49	0.220604
2699.83	0.0780735
2701.18	0.241982
2702.52	0.219684
2703.87	0.010396
2705.22	0.178539
2706.56	0.491964
2707.91	0.00719357
2709.25	0.363453
2710.6	0.124069
2711.94	-0.13036
2713.29	-0.312481
2714.63	-0.204069
2715.97	-0.459182
2717.32	0.201659
2718.66	0.338792
2720.01	0.388177
2721.35	0.0440168
2722.69	0.121221
2724.03	0.678136
2725.38	0.506697
2726.72	-0.131011
2728.06	0.0168562
2729.4	0.32446
2730.74	-0.00841522
2732.08	0.298896
2733.42	0.431699
2734.76	0.0556297
2736.1	0.421663
2737.44	0.307894
2738.78	0.281361
2740.12	0.210866
2741.46	0.139745
2742.8	-0.00489521
2744.14	-0.0922527
2745.48	-0.0205507
2746.82	0.123145
2748.16	-0.00930023
2749.49	-0.170579
2750.83	0.161643
2752.17	0.00104237
2753.51	-0.115657
2754.84	0.188103
2756.18	0.491862
2757.52	-0.0875673
2758.85	-0.000450134
2760.19	0.116097
2761.53	-0.200866
2762.86	0.105058
2764.2	0.223264
2765.53	0.442702
2766.87	0.111728
2768.2	0.35817
2769.54	0.082201
2770.87	0.0791187
2772.2	0.0597963
2773.54	0.42872
2774.87	0.0754938
2776.2	0.342207
2777.54	-0.211328
2778.87	0.487809
2780.2	0.381927
2781.53	0.0899467
2782.87	0.12854
2784.2	0.0953064
2785.53	0.0620947
2786.86	0.287008
2788.19	-0.189051
2789.52	-0.00543594
2790.85	0.307931
2792.18	-0.00696373
2793.51	0.19351
2794.84	-0.263478
2796.17	-0.420637
2797.5	0.178626
2798.83	0.177047
2800.16	0.446067
2801.49	-0.0415564
2802.82	0.240959
2804.15	-0.203934
2805.47	-0.235888
2806.8	0.0587673
2808.13	0.0677385
2809.46	0.0903721
2810.78	0.0136328
2812.11	-0.0763607
2813.44	-0.0229053
2814.76	0.11748
2816.09	-0.378157
2817.42	0.162425
2818.74	0.207654
2820.07	-0.172329
2821.39	0.425049
2822.72	0.341205
2824.04	0.0723753
2825.37	0.100684
2826.69	-0.012558
2828.02	0.29968
2829.34	-0.0952473
2830.66	0.0342627
2831.99	0.234809
2833.31	-0.116788
2834.63	0.125705
2835.96	0.409964
2837.28	0.905654
2838.6	0.481071
2839.92	0.607975
2841.24	0.607727
2842.57	0.933146
2843.89	0.835338
2845.21	0.964624
2846.53	1.17951
2847.85	1.40901
2849.17	1.72336
2850.49	1.33061
2851.81	1.6863
2853.13	1.61728
2854.45	1.71734
2855.77	1.36501
2857.09	1.67673
2858.41	2.01667
2859.72	2.20114
2861.04	1.58048
2862.36	1.91959
2863.68	2.0746
2865	2.28562
2866.31	2.59526
2867.63	2.84868
2868.95	2.4681
2870.26	3.03275
2871.58	3.0336
2872.9	3.64008
2874.21	3.41395
2875.53	3.44002
2876.84	3.2534
2878.16	2.9674
2879.47	3.84858
2880.79	3.70322
2882.1	3.43269
2883.42	3.34638
2884.73	3.48606
2886.05	4.00549
2887.36	3.2476
2888.67	3.30327
2889.99	3.72257
2891.3	3.98619
2892.61	3.36581
2893.92	3.29213
2895.24	4.08716
2896.55	4.01486
2897.86	3.53824
2899.17	3.95858
2900.48	3.97417
2901.79	4.25615
2903.11	4.91604
2904.42	4.73682
2905.73	4.9916
2907.04	4.67369
2908.35	4.45475
2909.66	5.42615
2910.97	5.27915
2912.27	5.34198
2913.58	5.51577
2914.89	5.40762
2916.2	5.67509
2917.51	6.09426
2918.82	6.25999
2920.13	6.15968
2921.43	7.06708
2922.74	6.87152
2924.05	6.59413
2925.35	6.89143
2926.66	6.95196
2927.97	7.57172
2929.27	6.9607
2930.58	7.3834
2931.89	7.59568
2933.19	7.26244
2934.5	7.73986
2935.8	7.84002
2937.11	7.39539
2938.41	6.97902
2939.72	7.21982
2941.02	6.9024
2942.32	7.32681
2943.63	6.53708
2944.93	6.93724
2946.24	6.4722
2947.54	5.99361
2948.84	6.14412
2950.14	5.77507
2951.45	5.68347
2952.75	5.56124
2954.05	5.21314
2955.35	5.06063
2956.65	5.25929
2957.95	5.25076
2959.26	4.75587
2960.56	5.00669
2961.86	4.88203
2963.16	4.2671
2964.46	4.3665
2965.76	4.09889
2967.06	4.53157
2968.36	3.93652
2969.66	3.73389
2970.96	3.78418
2972.25	3.7786
2973.55	3.80158
2974.85	3.57114
2976.15	3.3538
2977.45	3.76835
2978.74	3.33579
2980.04	3.46412
2981.34	3.26698
2982.64	2.3801
2983.93	3.20958
2985.23	2.36744
2986.52	2.1459
2987.82	2.58666
2989.12	2.25579
2990.41	2.24843
2991.71	2.26849
2993	2.02014
2994.3	1.79829
2995.59	1.9824
2996.89	1.71614
2998.18	1.04287
2999.48	1.39444
3000.77	0.877074
3002.06	1.48209
3003.36	1.30256
3004.65	1.17926
3005.94	1.01364
3007.23	1.07129
3008.53	0.945882
3009.82	0.120345
3011.11	0.915726
3012.4	0.662272
3013.69	0.730048
3014.99	0.449748
3016.28	0.393591
3017.57	0.616857
3018.86	0.59004
3020.15	0.646743
3021.44	0.25801
3022.73	0.604765
3024.02	0.283593
3025.31	0.336328
3026.6	0.444063
3027.89	0.386164
3029.18	0.274488
3030.46	0.109599
3031.75	0.195297
3033.04	0.102747
3034.33	0.341822
3035.62	0.276476
3036.9	0.402487
3038.19	0.0851517
3039.48	0.247625
3040.76	0.627594
3042.05	0.41517
3043.34	0.902228
3044.62	0.0888376
3045.91	0.509974
3047.19	-0.0777369
3048.48	0.212055
3049.77	0.463321
3051.05	0.307101
3052.34	0.670443
3053.62	0.365125
3054.9	0.222691
3056.19	0.583565
3057.47	0.50648
3058.76	0.401159
3060.04	0.281987
3061.32	0.653287
3062.61	0.549415
3063.89	0.55619
3065.17	0.442611
3066.45	0.358005
3067.74	0.342605
3069.02	0.572439
3070.3	0.393914
3071.58	0.391003
3072.86	0.930397
3074.14	0.760892
3075.42	0.0739384
3076.7	0.337835
3077.99	0.0861979
3079.26	0.107481
3080.54	0.117065
3081.82	0.3185
3083.1	0.372296
3084.38	0.00630856
3085.66	0.359506
3086.94	0.128535
3088.22	0.249475
3089.5	0.138749
3090.78	0.380235
3092.05	0.146579
3093.33	-0.0461292
3094.61	0.127723
3095.89	-0.0371447
3097.16	-0.0121059
3098.44	-0.407343
3099.72	-0.0573654
3100.99	0.116182
3102.27	0.411551
3103.54	-0.118762
3104.82	0.136844
3106.1	0.244399
3107.37	0.0824289
3108.65	-0.186531
3109.92	0.303751
3111.2	0.0643301
3112.47	0.340372
3113.74	0.27837
3115.02	0.297573
3116.29	-0.253437
3117.56	0.130033
3118.84	0.417197
3120.11	0.390906
3121.38	0.390477
3122.66	0.0910788
3123.93	0.292857
3125.2	0.156155
3126.47	0.290777
3127.74	0.385384
3129.01	0.494055
3130.29	0.129855
3131.56	0.0362854
3132.83	0.0776587
3134.1	0.618187
3135.37	0.482507
3136.64	0.413627
3137.91	0.209298
3139.18	0.301084
3140.45	0.257876
3141.72	0.416479
3142.99	0.4542
3144.26	0.479011
3145.52	0.437449
3146.79	0.316317
3148.06	0.330117
3149.33	0.277646
