200.407	0.697444
202.221	0.700224
204.035	0.704598
205.849	0.248091
207.665	0.594828
209.478	1.01396
211.291	0.484648
213.104	-0.093605
214.916	0.395378
216.73	0.059248
218.541	0.135612
220.352	0.575711
222.163	-0.241441
223.973	0.103844
225.785	0.401266
227.595	1.01279
229.404	0.0782871
231.213	-0.493653
233.022	0.261671
234.83	0.365772
236.638	0.736352
238.448	0.144964
240.255	-0.251
242.062	-0.427827
243.868	-0.120871
245.675	-0.247852
247.48	0.396466
249.286	0.241899
251.091	-0.205198
252.896	0.262659
254.702	0.173746
256.506	0.205191
258.31	-0.389051
260.113	-0.0657015
261.916	0.18723
263.719	0.851491
265.521	0.432926
267.323	-0.178064
269.125	0.0542679
270.926	0.358414
272.727	0.348227
274.527	-0.0489321
276.328	-0.182225
278.127	-0.148338
279.927	0.1728
281.726	0.395445
283.525	0.495788
285.323	0.402428
287.121	0.908618
288.919	0.0471783
290.716	0.122463
292.513	-0.112175
294.31	0.300971
296.104	0.117513
297.9	0.389507
299.696	0.327476
301.491	0.480415
303.286	0.20279
305.081	0.377747
306.875	0.933313
308.669	0.343884
310.463	0.279883
312.256	0.503004
314.047	0.632493
315.839	0.287729
317.631	0.230589
319.423	0.651516
321.215	0.621243
323.006	-0.0281582
324.794	0.39597
326.585	0.152329
328.375	0.935604
330.165	0.571784
331.954	0.493503
333.741	0.628866
335.53	0.881899
337.318	0.462669
339.106	0.830986
340.894	0.767062
342.679	0.319922
344.466	0.207685
346.253	0.143851
348.039	0.773273
349.823	0.591307
351.608	0.886913
353.393	0.633082
355.176	-0.122531
356.961	0.00347328
358.745	0.128127
360.529	0.489696
362.31	0.469119
364.093	0.542978
365.876	0.61604
367.657	0.498346
369.439	0.0718002
371.221	0.332251
373	0.899052
374.781	0.329842
376.56	0.54102
378.34	0.139204
380.12	0.964137
381.898	1.22395
383.677	1.55538
385.456	1.06512
387.233	0.90569
389.011	0.841581
390.787	0.966483
392.565	1.0688
394.34	0.819561
396.117	0.923051
397.894	0.815347
399.668	0.378665
401.444	0.364364
403.217	0.701783
404.993	0.216455
406.766	0.129725
408.54	0.277247
410.312	0.0253592
412.086	0.454213
413.858	-0.0317774
415.631	0.327724
417.402	-0.743291
419.174	-0.0303612
420.944	0.166675
422.716	0.105371
424.486	-0.00354195
426.257	0.215364
428.025	0.386499
429.794	0.369358
431.564	-0.0937347
433.332	0.218026
435.101	0.10769
436.868	-0.307755
438.637	0.214972
440.403	-0.061595
442.169	0.387251
443.937	0.716331
445.703	0.2466
447.468	0.572198
449.234	-0.108792
450.999	0.146062
452.765	0.190705
454.528	0.258848
456.292	0.070507
458.057	0.231666
459.819	0.0435753
461.582	0.0889406
463.344	-0.0037241
465.107	-0.0475626
466.868	0.16693
468.629	0.33767
470.392	0.696538
472.152	0.404961
473.912	0.368463
475.672	1.02894
477.433	0.942055
479.192	1.13271
480.951	0.996161
482.709	0.743315
484.469	0.37521
486.226	0.894177
487.984	1.06616
489.74	0.190979
491.499	0.622737
493.255	0.775554
495.011	0.882114
496.767	0.520635
498.522	0.720515
500.277	0.357486
502.033	0.579962
503.788	0.308648
505.541	0.928957
507.295	1.26638
509.048	1.22608
510.801	1.01933
512.553	0.693199
514.308	0.930245
516.06	0.507103
517.811	0.600343
519.562	1.20966
521.313	1.11273
523.063	1.03886
524.814	1.19954
526.563	0.750094
528.313	1.16868
530.062	1.28207
531.811	1.09044
533.559	0.640728
535.308	0.681636
537.055	0.721058
538.803	0.735623
540.55	0.189237
542.297	0.528439
544.043	-0.040906
545.789	0.297307
547.535	0.101061
549.281	0.16051
551.026	0.312657
552.771	-0.0673761
554.515	-0.122927
556.259	-0.108872
558.003	0.182233
559.747	-0.07969
561.49	-0.363652
563.233	0.434458
564.975	-0.285089
566.717	-0.0383081
568.459	-0.0665751
570.2	0.319237
571.942	0.522572
573.68	0.314564
575.421	0.0624132
577.161	0.247769
578.901	0.204988
580.64	0.41557
582.379	0.0979729
584.118	-0.680234
585.855	-0.264083
587.593	0.0591459
589.331	0.427337
591.068	0.242452
592.805	0.563187
594.54	0.354569
596.277	0.16899
598.013	-0.0396309
599.749	0.51062
601.484	0.507888
603.217	-0.209036
604.952	0.52144
606.687	0.169989
608.421	-0.34265
610.153	-0.00567245
611.886	0.606591
613.619	0.370696
615.35	0.0439997
617.083	-0.534306
618.815	0.513404
620.547	-0.0203266
622.276	0.223154
624.008	0.12253
625.738	0.364655
627.467	-0.0774488
629.197	0.304244
630.927	0.368561
632.655	0.320803
634.384	0.25128
636.113	0.112988
637.839	-0.392158
639.568	0.401208
641.293	0.0277853
643.021	-0.0968027
644.748	0.164654
646.473	-0.370315
648.2	-0.198119
649.924	0.544791
651.65	0.291394
653.376	-0.526592
655.099	-0.0459127
656.824	0.665443
658.546	0.171185
660.271	0.0862398
661.993	-0.0460081
663.716	0.413572
665.438	0.711229
667.161	-0.0676527
668.881	-0.0699873
670.604	-0.23191
672.324	0.157059
674.045	0.617446
675.765	-0.0195036
677.486	0.398952
679.204	0.565794
680.925	0.364208
682.643	-0.0234995
684.361	0.345927
686.08	0.0229063
687.797	0.0436831
689.516	0.178587
691.232	0.0594158
692.95	-0.198567
694.666	0.164664
696.382	0.181438
698.099	0.2431
699.813	-0.0416384
701.528	0.431746
703.244	0.673783
704.958	0.363567
706.673	0.695869
708.387	0.339278
710.099	1.03689
711.814	0.77139
713.526	0.803395
715.238	0.58374
716.949	0.615567
718.663	0.715824
720.374	0.360244
722.084	0.665812
723.796	0.81162
725.506	1.22987
727.216	0.329709
728.925	0.406542
730.636	-0.152013
732.345	0.377298
734.053	0.181323
735.761	0.731656
737.471	0.310241
739.178	0.92802
740.885	0.846877
742.592	1.03734
744.298	0.868683
746.006	0.791579
747.712	1.3908
749.417	1.54125
751.122	0.838314
752.827	1.44123
754.532	1.34829
756.236	1.79692
757.942	1.52704
759.645	1.19077
761.348	1.68939
763.051	1.67038
764.753	2.21557
766.456	1.65321
768.158	1.83432
769.859	2.48811
771.56	2.57453
773.261	2.5915
774.964	2.29132
776.664	2.35348
778.364	2.46224
780.064	2.45962
781.763	2.45823
783.462	1.98181
785.16	2.61317
786.859	1.88393
788.557	2.10212
790.255	1.38927
791.952	1.82729
793.649	1.3822
795.346	0.86994
797.042	0.900358
798.738	1.85564
800.434	1.371
802.127	2.03569
803.823	1.64355
805.517	1.45392
807.212	1.42094
808.906	1.47665
810.6	0.97007
812.293	1.09119
813.987	1.86131
815.68	1.15233
817.372	1.205
819.064	1.21294
820.754	1.73464
822.446	1.07325
824.137	2.06358
825.828	1.67247
827.519	1.12796
829.209	1.18769
830.897	1.0499
832.587	1.60544
834.276	1.42801
835.966	1.20683
837.654	1.18609
839.341	1.18656
841.029	1.47588
842.717	1.56292
844.404	0.755623
846.091	0.663807
847.776	1.22197
849.463	1.11185
851.149	1.16074
852.833	1.36851
854.519	1.7572
856.204	0.91118
857.889	1.05169
859.572	1.39336
861.256	1.14828
862.94	1.05901
864.622	1.23883
866.305	0.606274
867.988	0.739414
869.669	1.3458
871.351	0.869325
873.033	0.776031
874.713	1.29185
876.395	0.702036
878.074	1.10515
879.755	0.989102
881.435	1.09842
883.114	1.09418
884.794	0.547101
886.471	0.901643
888.15	0.442241
889.829	1.42498
891.506	0.557101
893.184	0.229602
894.861	0.779097
896.538	0.966869
898.214	0.546953
899.891	0.598094
901.566	1.09646
903.242	0.854566
904.916	0.434299
906.592	1.17596
908.266	1.20302
909.941	0.540507
911.614	0.503192
913.288	0.622171
914.961	0.563659
916.635	0.549662
918.306	0.380505
919.979	1.00885
921.651	0.995052
923.321	0.628698
924.994	1.32473
926.664	1.62443
928.336	0.932405
930.005	0.749564
931.674	0.898431
933.345	1.31225
935.014	0.954137
936.682	1.05967
938.352	1.18809
940.019	0.898664
941.687	0.80891
943.356	1.09497
945.022	0.829294
946.689	0.871477
948.357	0.823583
950.022	0.310376
951.688	0.347811
953.355	0.230833
955.02	0.446081
956.684	0.619775
958.348	0.443705
960.014	0.358455
961.678	0.429224
963.341	0.743196
965.004	-0.226797
966.669	0.238049
968.331	0.302193
969.993	0.563429
971.655	0.558265
973.316	0.597722
974.979	0.351063
976.64	0.172461
978.3	0.703114
979.961	0.648348
981.62	0.593208
983.28	0.282189
984.941	0.146406
986.6	0.56203
988.259	0.33405
989.917	0.503089
991.575	0.58289
993.233	0.397368
994.89	0.521187
996.547	0.777351
998.204	1.25369
999.86	0.869842
1001.52	1.34492
1003.17	1.57685
1004.83	0.884471
1006.49	0.76431
1008.14	-0.0143518
1009.79	0.349488
1011.45	0.186938
1013.1	0.857856
1014.76	0.345574
1016.41	0.666142
1018.06	1.00876
1019.72	0.630124
1021.37	0.86499
1023.02	0.838545
1024.67	1.07535
1026.32	1.53123
1027.97	1.68117
1029.62	1.28427
1031.27	2.1093
1032.92	1.49116
1034.57	1.19912
1036.22	1.56008
1037.87	1.33138
1039.52	1.10293
1041.17	1.11475
1042.82	1.06267
1044.47	0.512722
1046.11	0.899105
1047.76	0.852901
1049.41	0.0917034
1051.06	0.4828
1052.7	0.375176
1054.35	0.22443
1055.99	0.356181
1057.64	0.42251
1059.28	0.510136
1060.93	-0.0116768
1062.57	-0.16461
1064.22	0.399144
1065.86	0.0921726
1067.5	0.327641
1069.15	0.45338
1070.79	0.556657
1072.43	-0.165171
1074.08	0.285736
1075.72	-0.108648
1077.36	0.669499
1079	1.10173
1080.64	0.819153
1082.28	0.73177
1083.92	1.0555
1085.56	0.7922
1087.2	0.592031
1088.84	0.844716
1090.48	0.987052
1092.12	0.717181
1093.76	0.749607
1095.39	1.23521
1097.03	1.11721
1098.67	0.591541
1100.31	0.56346
1101.94	0.860105
1103.58	-0.00330448
1105.22	0.554549
1106.85	-0.0700436
1108.49	0.165456
1110.12	0.657861
1111.76	0.589601
1113.39	0.111629
1115.03	0.0623407
1116.66	0.484489
1118.29	0.648876
1119.93	0.728028
1121.56	0.03724
1123.19	0.568136
1124.82	0.500538
1126.46	1.03276
1128.09	0.624616
1129.72	0.794644
1131.35	0.559029
1132.98	0.537545
1134.61	0.0456896
1136.24	0.472384
1137.87	0.299603
1139.5	0.296623
1141.13	-0.646739
1142.76	0.202797
1144.39	-0.0361452
1146.01	0.194794
1147.64	0.192057
1149.27	0.062356
1150.9	0.167514
1152.53	0.421717
1154.15	0.100647
1155.78	0.226314
1157.4	-0.222681
1159.03	0.115905
1160.65	0.28501
1162.28	0.561468
1163.9	0.179806
1165.53	0.181385
1167.15	0.565463
1168.78	0.395706
1170.4	0.479403
1172.02	0.773536
1173.65	0.279956
1175.27	0.42227
1176.89	0.373027
1178.51	0.196941
1180.14	0.0217819
1181.76	-0.19458
1183.38	-0.38889
1185	0.325675
1186.62	0.721724
1188.24	-0.0659866
1189.86	-0.980618
1191.48	0.547224
1193.1	0.219483
1194.71	-0.0452127
1196.33	0.487533
1197.95	-0.173746
1199.57	0.213948
1201.19	1.02101
1202.8	-0.0496235
1204.42	0.511348
1206.04	0.00999928
1207.65	0.699286
1209.27	-0.0714455
1210.88	0.57553
1212.5	0.0946398
1214.12	0.549747
1215.73	0.210771
1217.35	0.369848
1218.96	0.257421
1220.57	0.830133
1222.19	0.261733
1223.8	0.690187
1225.41	0.829607
1227.03	0.494471
1228.64	0.76091
1230.25	0.883694
1231.86	1.21435
1233.47	0.864113
1235.08	0.246523
1236.69	1.3043
1238.31	1.28844
1239.92	1.02517
1241.52	1.05155
1243.13	1.49139
1244.74	1.06155
1246.35	1.31344
1247.96	0.674502
1249.57	0.469379
1251.18	1.29835
1252.78	1.19651
1254.39	1.15747
1256	1.3057
1257.6	0.834632
1259.21	0.985335
1260.82	1.13705
1262.42	1.31009
1264.03	0.778988
1265.63	0.433607
1267.24	0.999372
1268.84	0.983947
1270.45	1.48582
1272.05	0.99139
1273.65	0.682551
1275.26	0.745925
1276.86	0.994841
1278.46	0.642036
1280.06	1.17925
1281.67	0.618745
1283.27	0.927712
1284.87	0.699291
1286.47	1.0094
1288.07	0.824356
1289.67	0.660966
1291.27	0.849422
1292.87	1.30638
1294.47	0.605617
1296.07	1.10177
1297.67	0.687646
1299.27	0.994398
1300.87	1.4023
1302.47	0.9225
1304.06	0.957082
1305.66	1.11421
1307.26	1.84556
1308.85	1.13891
1310.45	1.60192
1312.05	1.34781
1313.64	1.7699
1315.24	1.80402
1316.83	1.53285
1318.43	1.58916
1320.02	0.911353
1321.62	1.29299
1323.21	2.12005
1324.8	1.84582
1326.4	1.61131
1327.99	2.30937
1329.59	1.81155
1331.18	2.00427
1332.77	1.69384
1334.36	1.74979
1335.95	1.80744
1337.54	1.88583
1339.14	1.60065
1340.73	2.11981
1342.32	1.58935
1343.91	1.35938
1345.5	1.40982
1347.09	1.68074
1348.67	1.39199
1350.26	1.84683
1351.85	1.76376
1353.44	0.803329
1355.03	1.54383
1356.62	1.44511
1358.2	0.826624
1359.79	1.64537
1361.38	0.785702
1362.96	1.68149
1364.55	1.37967
1366.14	0.640116
1367.72	1.29612
1369.31	1.11673
1370.89	1.79464
1372.48	1.43908
1374.06	1.70161
1375.64	0.850589
1377.23	0.875186
1378.81	0.799802
1380.39	1.18106
1381.98	1.68021
1383.56	1.1436
1385.14	1.14305
1386.72	1.24133
1388.3	1.47867
1389.89	0.783552
1391.47	1.04231
1393.05	1.1232
1394.63	1.26397
1396.21	1.10707
1397.79	1.12794
1399.37	1.0487
1400.95	1.28542
1402.52	1.12537
1404.1	1.65786
1405.68	1.30052
1407.26	1.53737
1408.84	0.866069
1410.42	1.08459
1411.99	1.12525
1413.57	1.1258
1415.15	0.888648
1416.72	1.18332
1418.3	0.964786
1419.87	0.924087
1421.45	0.864788
1423.02	1.00394
1424.6	1.02662
1426.17	1.01123
1427.75	1.09484
1429.32	1.19787
1430.89	1.14254
1432.47	1.59768
1434.04	1.40237
1435.61	1.77701
1437.18	2.15162
1438.76	1.85851
1440.33	1.9793
1441.9	2.17973
1443.47	1.61448
1445.04	1.91438
1446.61	2.13589
1448.18	2.00377
1449.75	2.7566
1451.32	2.31074
1452.89	1.94398
1454.46	1.67583
1456.03	1.86007
1457.6	2.10277
1459.16	2.16705
1460.73	1.93426
1462.3	1.93562
1463.87	1.71888
1465.43	1.3046
1467	1.3029
1468.56	0.65364
1470.13	0.987081
1471.7	1.26253
1473.26	1.20549
1474.83	0.815918
1476.39	1.17195
1477.96	1.09672
1479.52	0.688193
1481.08	0.906864
1482.65	0.90982
1484.21	0.579548
1485.77	0.56249
1487.34	0.153011
1488.9	0.72145
1490.46	0.42661
1492.02	1.14673
1493.58	0.61326
1495.15	0.898528
1496.71	0.42206
1498.27	0.199533
1499.83	0.677731
1501.39	0.748173
1502.95	0.354199
1504.51	0.310631
1506.07	0.693289
1507.63	0.223701
1509.18	0.526846
1510.74	0.249278
1512.3	0.684592
1513.86	0.348511
1515.41	0.320999
1516.97	0.0829344
1518.53	-0.0579576
1520.08	1.0663
1521.64	0.102647
1523.2	0.306732
1524.75	0.299608
1526.31	0.634734
1527.86	0.530098
1529.42	0.482227
1530.97	0.244556
1532.52	0.102832
1534.08	0.85235
1535.63	0.712081
1537.19	0.648653
1538.74	0.378435
1540.29	0.618266
1541.84	1.04611
1543.4	0.682589
1544.95	0.996433
1546.5	1.1028
1548.05	0.81476
1549.6	1.03335
1551.15	1.19548
1552.7	1.15204
1554.25	1.50213
1555.8	1.19943
1557.35	1.04826
1558.9	0.899222
1560.45	0.882765
1562	0.644071
1563.54	1.11541
1565.09	0.579866
1566.64	0.958699
1568.19	0.9828
1569.73	1.34249
1571.28	1.2725
1572.83	0.847524
1574.37	1.18774
1575.92	1.54665
1577.47	1.27106
1579.01	1.07053
1580.56	1.30002
1582.1	1.32495
1583.64	2.06064
1585.19	1.75108
1586.73	1.31094
1588.28	1.63745
1589.82	1.6085
1591.36	1.69137
1592.9	1.3244
1594.45	1.64991
1595.99	1.31988
1597.53	1.58979
1599.07	1.56059
1600.61	1.11939
1602.15	1.4665
1603.69	1.75762
1605.23	1.39081
1606.77	1.41698
1608.31	1.08407
1609.85	1.10596
1611.39	1.76435
1612.93	1.34968
1614.47	0.990415
1616.01	0.9875
1617.55	1.77227
1619.08	1.07731
1620.62	1.37702
1622.16	1.28475
1623.7	1.47418
1625.23	0.914875
1626.77	1.34692
1628.3	1.19747
1629.84	1.32723
1631.37	1.77349
1632.91	1.37825
1634.44	1.58111
1635.98	0.982278
1637.51	1.41065
1639.05	1.61561
1640.58	0.851367
1642.11	1.33529
1643.65	1.68735
1645.18	1.29339
1646.71	1.34532
1648.24	1.4154
1649.78	1.37433
1651.31	1.50128
1652.84	1.35113
1654.37	1.31349
1655.9	2.03646
1657.43	1.57308
1658.96	1.66489
1660.49	1.82934
1662.02	1.58508
1663.55	1.33997
1665.08	1.00228
1666.61	1.60668
1668.14	1.71332
1669.66	1.15778
1671.19	1.24912
1672.72	1.52571
1674.25	1.76581
1675.77	1.17711
1677.3	1.32414
1678.83	0.954881
1680.35	0.732034
1681.88	0.637318
1683.4	0.83618
1684.93	0.832975
1686.45	0.591689
1687.98	0.681027
1689.5	1.2103
1691.03	0.0364666
1692.55	0.657339
1694.07	0.673913
1695.6	0.818271
1697.12	0.633324
1698.64	0.576076
1700.17	0.792225
1701.69	0.478672
1703.21	0.729963
1704.73	0.0151682
1706.25	0.683928
1707.77	0.205945
1709.29	0.745867
1710.81	0.921964
1712.33	0.136886
1713.85	-0.0850811
1715.37	0.345075
1716.89	0.539321
1718.41	0.22706
1719.93	-0.0125284
1721.45	0.416017
1722.97	-0.597922
1724.49	0.390332
1726	0.190158
1727.52	0.153428
1729.04	0.279613
1730.55	0.156852
1732.07	0.764699
1733.59	0.12755
1735.1	0.446496
1736.62	0.149421
1738.13	-0.178283
1739.65	0.202846
1741.16	0.193036
1742.68	-0.160297
1744.19	0.140484
1745.7	0.159788
1747.22	0.468137
1748.73	0.315208
1750.24	-0.370456
1751.76	-0.131307
1753.27	0.0324211
1754.78	0.639977
1756.29	0.368712
1757.8	0.158926
1759.31	0.0942287
1760.83	0.149401
1762.34	0.266478
1763.85	0.148972
1765.36	0.374868
1766.87	0.325117
1768.38	0.220512
1769.89	-0.0255642
1771.39	0.216707
1772.9	0.371362
1774.41	0.101995
1775.92	0.164548
1777.43	0.123887
1778.94	0.254537
1780.44	0.0253897
1781.95	0.0359755
1783.46	0.140054
1784.96	-0.0951872
1786.47	-0.0255585
1787.97	-0.261902
1789.48	-0.344662
1790.99	0.227085
1792.49	-0.0183649
1794	0.141192
1795.5	0.171845
1797	-0.0341024
1798.51	0.12045
1800.01	0.0886602
1801.51	0.093915
1803.02	0.0227118
1804.52	-0.222363
1806.02	0.104957
1807.53	0.0508909
1809.03	-0.250555
1810.53	0.238825
1812.03	0.0966005
1813.53	0.0797396
1815.03	0.15101
1816.53	0.107758
1818.03	0.0533905
1819.53	0.377068
1821.03	0.221107
1822.53	0.207078
1824.03	0.0656748
1825.53	0.177636
1827.03	0.363806
1828.53	0.0748301
1830.02	-0.0519514
1831.52	0.137429
1833.02	-0.219791
1834.52	0.206696
1836.01	0.0354919
1837.51	-0.0202579
1839.01	0.131617
1840.5	-0.0361452
1842	-0.0198727
1843.49	-0.0797062
1844.99	0.173671
1846.48	-0.0442715
1847.98	-0.00436687
1849.47	0.255818
1850.97	0.133806
1852.46	0.0754967
1853.95	-0.123809
1855.45	0.198036
1856.94	-0.0600758
1858.43	0.0536213
1859.93	0.119704
1861.42	0.191836
1862.91	-0.188174
1864.4	0.356482
1865.89	0.0212975
1867.38	0.120351
1868.87	-0.440921
1870.36	0.109507
1871.85	-0.129537
1873.34	0.00528526
1874.83	-0.0421743
1876.32	0.146832
1877.81	-0.303571
1879.3	-0.0132303
1880.79	0.233109
1882.28	0.165812
1882.52	0.145992
1884.02	-0.0121365
1885.51	0.107902
1887.01	-0.260703
1888.5	0.206161
1889.99	-0.145011
1891.49	-0.234049
1892.98	0.234855
1894.47	0.0969257
1895.97	-0.00472164
1897.46	0.207457
1898.95	-0.0500546
1900.44	0.0915127
1901.93	0.161919
1903.42	-0.412902
1904.91	0.262941
1906.4	0.277133
1907.89	-0.003932
1909.38	-0.232063
1910.87	0.13081
1912.36	-0.00870895
1913.85	0.112535
1915.34	-0.234366
1916.83	0.181374
1918.32	0.353733
1919.8	0.196335
1921.29	0.229476
1922.78	0.418842
1924.27	0.314695
1925.75	0.280958
1927.24	-0.600019
1928.73	-0.233924
1930.21	0.201497
1931.7	0.220583
1933.18	0.0477705
1934.67	0.0810347
1936.15	0.18184
1937.64	0.246778
1939.12	0.138384
1940.61	0.237627
1942.09	-0.19739
1943.57	0.12802
1945.06	0.00567818
1946.54	-0.012784
1948.02	0.330442
1949.51	0.379832
1950.99	0.0666027
1952.47	0.0109301
1953.95	-0.285961
1955.43	-0.170122
1956.91	-0.122757
1958.4	-0.0919609
1959.88	0.299747
1961.36	0.125795
1962.84	-0.030674
1964.32	0.241129
1965.8	0.186821
1967.27	-0.17618
1968.75	-0.0775518
1970.23	-0.304383
1971.71	0.0666685
1973.19	-0.0407743
1974.67	-0.0968027
1976.14	-0.169619
1977.62	0.132536
1979.1	-0.280502
1980.58	0.344584
1982.05	-0.0172396
1983.53	0.0627899
1985	0.074482
1986.48	-0.0158405
1987.95	0.0634203
1989.43	0.227539
1990.9	-0.200203
1992.38	0.202217
1993.85	0.0811472
1995.33	-0.140417
1996.8	0.0440426
1998.27	-0.00808716
1999.75	0.0069313
2001.22	-0.147388
2002.69	0.0690222
2004.16	0.419951
2005.64	-0.155874
2007.11	-0.124139
2008.58	0.22841
2010.05	0.110256
2011.52	0.177824
2012.99	0.144443
2014.46	0.312598
2015.93	0.278029
2017.4	0.225762
2018.87	0.0718622
2020.34	-0.116032
2021.81	0.132764
2023.28	0.113062
2024.75	0.0605936
2026.22	0.0764017
2027.69	0.0432825
2029.15	-0.0387096
2030.62	0.350294
2032.09	0.0859852
2033.56	-0.0101509
2035.02	0.0279799
2036.49	0.0657692
2037.96	0.153486
2039.42	-0.0616713
2040.89	-0.00800037
2042.35	0.0292377
2043.82	0.0335855
2045.28	0.274383
2046.75	0.0784302
2048.21	0.152089
2049.67	0.174948
2051.14	0.0956898
2052.6	0.183529
2054.07	-0.253196
2055.53	-0.168752
2056.99	-0.0519199
2058.45	0.485332
2059.92	-0.241282
2061.38	0.0264635
2062.84	0.395815
2064.3	0.0928154
2065.76	0.177919
2067.22	0.0282364
2068.68	0.333537
2070.14	0.184724
2071.6	0.204291
2073.06	-0.0625114
2074.52	0.0913572
2075.98	0.345972
2077.44	0.381322
2078.9	-0.206796
2080.36	0.0971699
2081.82	0.114324
2083.27	-0.054328
2084.73	0.0624809
2086.19	0.447653
2087.65	0.17615
2089.1	-0.229944
2090.56	-0.081521
2092.02	-0.000471115
2093.47	0.18109
2094.93	0.0100336
2096.38	-0.211566
2097.84	0.236442
2099.29	-0.153584
2100.75	-0.0249043
2102.2	0.0536575
2103.66	0.0827971
2105.11	0.496982
2106.56	-0.188918
2108.02	-0.256284
2109.47	0.0268679
2110.92	-0.157386
2112.38	-0.0927744
2113.83	0.353198
2115.28	0.131418
2116.73	0.407886
2118.18	0.185882
2119.63	0.098279
2121.09	-0.00399208
2122.54	0.227322
2123.99	-0.219954
2125.44	0.52731
2126.89	0.0473051
2128.34	0.146688
2129.79	-0.136395
2131.23	0.109573
2132.68	-0.27446
2134.13	0.301405
2135.58	0.182948
2137.03	0.380013
2138.48	-0.0988216
2139.92	-0.0305014
2141.37	-0.241689
2142.82	-0.170825
2144.27	0.380435
2145.71	0.270279
2147.16	-0.00581455
2148.6	-0.266119
2150.05	0.0856276
2151.49	-0.0770264
2152.94	0.505025
2154.38	0.0424719
2155.83	-0.205056
2157.27	0.210135
2158.72	0.112427
2160.16	-0.100055
2161.6	0.0866451
2163.05	-0.271966
2164.49	0.0173635
2165.93	-0.0241966
2167.38	0.00056076
2168.82	-0.441073
2170.26	0.22967
2171.7	0.166968
2173.14	0.268836
2174.58	-0.0297718
2176.03	0.070323
2177.47	-0.245114
2178.91	0.288091
2180.35	0.340004
2181.79	-0.25572
2183.23	0.0968151
2184.67	0.133702
2186.1	-0.295138
2187.54	0.141122
2188.98	0.444451
2190.42	0.414968
2191.86	0.285337
2193.3	-0.128049
2194.73	0.173292
2196.17	-0.026453
2197.61	0.221379
2199.05	0.00180912
2200.48	-0.251628
2201.92	0.391696
2203.35	-0.0768652
2204.79	-0.129333
2206.22	0.664419
2207.66	-0.0661306
2209.1	0.230461
2210.53	0.195038
2211.97	0.00986004
2213.4	-0.010458
2214.83	0.315992
2216.27	0.114359
2217.7	0.326447
2219.13	0.110744
2220.57	0.407054
2222	-0.0218496
2223.43	0.0596123
2224.86	0.13974
2226.29	0.201721
2227.72	0.0647783
2229.16	0.189664
2230.59	0.116707
2232.02	0.158401
2233.45	-0.176194
2234.88	-0.0188684
2236.31	0.0248871
2237.74	0.135326
2239.17	0.116868
2240.6	0.100297
2242.03	0.0527954
2243.45	-0.0914106
2244.88	0.139865
2246.31	0.0280066
2247.74	0.159344
2249.17	-0.118956
2250.59	0.0897484
2252.02	0.0360613
2253.45	0.339446
2254.87	0.301374
2256.3	0.102388
2257.73	0.051897
2259.15	0.0203133
2260.58	0.169922
2262	-0.00273037
2263.43	-0.0603876
2264.85	0.353455
2266.28	0.42598
2267.7	-0.0715818
2269.13	0.210745
2270.55	-0.288886
2271.97	0.0411949
2273.4	-0.215051
2274.82	-0.0477943
2276.24	-0.0595064
2277.67	0.43419
2279.09	0.129386
2280.51	-0.0288754
2281.93	-0.219954
2283.35	-0.166485
2284.77	0.0012846
2286.2	0.397858
2287.62	0.0765839
2289.04	0.24552
2290.46	0.120847
2291.88	-0.0690536
2293.3	0.29705
2294.72	0.107156
2296.13	0.342602
2297.55	0.381689
2298.97	0.142352
2300.39	0.16522
2301.81	0.221173
2303.23	0.179016
2304.64	-0.0764265
2306.06	0.291879
2307.48	0.0851297
2308.89	-0.12232
2310.31	0.0970764
2311.73	-0.243021
2313.14	-0.23783
2314.56	0.195676
2315.98	-0.0613918
2317.39	-0.0379028
2318.81	0.233296
2320.22	-0.369589
2321.64	-0.132504
2323.05	-0.0950394
2324.46	0.187847
2325.88	0.204523
2327.29	0.846202
2328.7	0.0196543
2330.12	0.363672
2331.53	0.280143
2332.94	0.362331
2334.35	0.165586
2335.77	0.215925
2337.18	0.0849028
2338.59	0.19965
2340	-0.0811605
2341.41	-0.0341024
2342.82	0.0288305
2344.23	0.38684
2345.64	0.220192
2347.05	-0.0442476
2348.46	0.0845242
2349.87	-0.14711
2351.28	0.0785589
2352.69	-0.0563717
2354.1	-0.0124521
2355.51	0.0959339
2356.91	-0.105584
2358.32	0.522787
2359.73	-0.166101
2361.14	0.347592
2362.54	0.600784
2363.95	0.15691
2365.36	0.00513744
2366.76	-0.307744
2368.17	0.623734
2369.58	0.167232
2370.98	0.14794
2372.39	-0.0956001
2373.79	0.354459
2375.2	0.128461
2376.6	-0.16205
2378	-0.0834141
2379.41	0.0740271
2380.81	0.149373
2382.22	0.0628614
2383.62	0.0878029
2385.02	0.112463
2386.43	0.0255938
2387.83	-0.060236
2389.23	0.158151
2390.63	-0.196177
2392.03	-0.119056
2393.44	0.420324
2394.84	-0.264643
2396.24	-0.0104141
2397.64	0.0694046
2399.04	0.102051
2400.44	-0.325543
2401.84	-0.260321
2403.24	0.0749006
2404.64	0.28263
2406.04	0.140212
2407.44	-0.272732
2408.84	0.0117884
2410.23	0.406661
2411.63	0.357733
2413.03	0.00873947
2414.43	-0.180511
2415.83	-0.0834064
2417.22	0.109904
2418.62	0.209118
2420.02	0.562105
2421.41	0.0280561
2422.81	0.333155
2424.21	0.226106
2425.6	0.0556974
2427	0.155146
2428.39	0.382293
2429.79	0.166429
2431.18	0.173176
2432.58	0.307079
2433.97	0.488237
2435.36	0.684307
2436.76	0.291098
2438.15	0.547777
2439.54	0.310681
2440.94	0.565091
2442.33	0.326688
2443.72	0.230993
2445.12	0.452427
2446.51	0.356426
2447.9	-0.104113
2449.29	0.0376663
2450.68	-0.184638
2452.07	-0.0422573
2453.46	0.306446
2454.85	0.386866
2456.24	0.13574
2457.64	0.0114985
2459.02	0.345804
2460.41	0.14179
2461.8	-0.0945358
2463.19	-0.0627685
2464.58	-0.173761
2465.97	0.01511
2467.36	0.172149
2468.75	0.455215
2470.13	0.248927
2471.52	0.483752
2472.91	-0.148778
2474.3	0.1161
2475.68	-0.060462
2477.07	0.10868
2478.45	0.151856
2479.84	0.085268
2481.23	0.144377
2482.61	-0.078692
2484	0.0112534
2485.38	-0.134378
2486.77	0.109813
2488.15	0.133952
2489.54	0.546921
2490.92	0.538446
2492.3	0.0175238
2493.69	0.368339
2495.07	-0.00936174
2496.45	-0.493733
2497.84	-0.171211
2499.22	0.27493
2500.6	-0.408984
2501.98	-0.134356
2503.36	0.246984
2504.75	0.0251527
2506.13	0.0959511
2507.51	-0.141457
2508.89	0.236708
2510.27	-0.0459061
2511.65	0.393725
2513.03	0.281452
2514.41	0.277404
2515.79	0.182354
2517.17	0.287015
2518.55	0.606117
2519.93	0.0846024
2521.3	0.327017
2522.68	0.476929
2524.06	0.0462227
2525.44	0.0574546
2526.82	0.068409
2528.19	0.0340719
2529.57	0.0768147
2530.95	0.0905809
2532.32	0.683304
2533.7	0.25924
2535.08	0.185342
2536.45	0.0506344
2537.83	0.127988
2539.2	0.371471
2540.58	-0.205847
2541.95	-0.191206
2543.33	-0.0246129
2544.7	0.127491
2546.08	-0.0529976
2547.45	0.328884
2548.82	0.332379
2550.2	0.153851
2551.57	0.15692
2552.94	0.310886
2554.32	0.585236
2555.69	0.221389
2557.06	0.418376
2558.43	0.0995684
2559.8	-0.021759
2561.18	0.0999517
2562.55	-0.0354152
2563.92	-0.0338459
2565.29	0.104498
2566.66	0.106679
2568.03	0.215026
2569.4	0.247602
2570.77	0.18923
2572.14	0.312771
2573.51	0.269657
2574.88	-0.137226
2576.25	0.0168118
2577.61	-0.132456
2578.98	0.0819612
2580.35	0.235399
2581.72	0.267135
2583.09	0.0255957
2584.45	0.102224
2585.82	0.0271959
2587.19	0.300885
2588.55	0.362521
2589.92	0.105999
2591.29	0.152456
2592.65	0.471188
2594.02	0.0164461
2595.38	-0.0301309
2596.75	0.376453
2598.11	0.237238
2599.48	-0.0533733
2600.84	-0.101804
2602.21	0.0163898
2603.57	-0.0309706
2604.93	-0.0476079
2606.3	-0.184739
2607.66	0.175525
2609.02	0.248315
2610.39	0.0487423
2611.75	0.0438609
2613.11	0.0980406
2614.47	0.121324
2615.83	0.1293
2617.19	0.287366
2618.56	0.41574
2619.92	0.185496
2621.28	0.270311
2622.64	0.250904
2624	0.231732
2625.36	0.645271
2626.72	0.342204
2628.08	0.292555
2629.44	0.0342231
2630.8	-0.0305037
2632.15	0.127747
2633.51	0.0777287
2634.87	0.369111
2636.23	0.289233
2637.59	0.179823
2638.94	0.470392
2640.3	0.583107
2641.66	0.22282
2643.02	0.513325
2644.37	0.257355
2645.73	0.311455
2647.09	0.291365
2648.44	0.344279
2649.8	0.219712
2651.15	0.0506096
2652.51	0.336801
2653.86	-0.110938
2655.22	0.424901
2656.57	0.213941
2657.93	0.136099
2659.28	0.395644
2660.63	0.348258
2661.99	0.329996
2663.34	0.34038
2664.69	0.160202
2666.05	0.431687
2667.4	0.38166
2668.75	0.0549326
2670.1	0.427367
2671.45	0.247244
2672.81	0.0824885
2674.16	0.208943
2675.51	0.408372
2676.86	0.738737
2678.21	0.532877
2679.56	-0.0635414
2680.91	-0.0063796
2682.26	0.0953655
2683.61	0.111229
2684.96	0.31656
2686.31	0.174218
2687.66	0.278369
2689	0.207228
2690.35	0.0763979
2691.7	0.364782
2693.05	0.491902
2694.4	0.110419
2695.74	0.55523
2697.09	0.217953
2698.44	0.244181
2699.79	-0.0610399
2701.13	0.286975
2702.48	0.390309
2703.83	0.494724
2705.17	0.295285
2706.52	0.762907
2707.86	0.185896
2709.21	0.333838
2710.55	0.423427
2711.9	0.106056
2713.24	0.42771
2714.58	0.458775
2715.93	0.533406
2717.27	-0.0174723
2718.62	0.551296
2719.96	0.305097
2721.3	0.465857
2722.65	0.262298
2723.99	0.553132
2725.33	0.494202
2726.67	0.420336
2728.01	0.287938
2729.35	0.271742
2730.7	0.546403
2732.04	0.631821
2733.38	0.673651
2734.72	0.337452
2736.06	0.539642
2737.4	0.101999
2738.74	0.144293
2740.08	0.113625
2741.42	0.431468
2742.76	0.0798588
2744.1	0.2364
2745.43	0.363178
2746.77	0.155426
2748.11	0.412147
2749.45	0.117332
2750.79	-0.0175266
2752.12	0.253879
2753.46	0.394863
2754.8	0.260643
2756.14	0.923224
2757.47	0.514089
2758.81	0.308079
2760.14	0.377512
2761.48	0.0711441
2762.81	0.0257387
2764.15	0.298945
2765.49	0.398486
2766.82	0.48309
2768.16	0.205141
2769.49	0.374328
2770.82	0.0650406
2772.16	0.289145
2773.49	0.223294
2774.82	0.243517
2776.16	0.465302
2777.49	0.34165
2778.82	0.0461531
2780.16	0.110837
2781.49	0.147007
2782.82	0.140148
2784.15	-0.0245247
2785.48	0.255271
2786.82	0.119516
2788.15	0.113224
2789.48	0.121985
2790.81	0.33182
2792.14	0.184822
2793.47	0.0669188
2794.8	0.363568
2796.13	0.0453467
2797.46	-0.0161142
2798.79	0.0504308
2800.12	0.216406
2801.44	0.424752
2802.77	-0.550725
2804.1	-0.0861425
2805.43	-0.00703716
2806.76	-0.028244
2808.08	-0.149593
2809.41	0.197828
2810.74	0.431118
2812.07	0.125399
2813.39	0.118989
2814.72	-0.0986919
2816.05	0.478882
2817.37	0.107782
2818.7	-0.064302
2820.02	0.0329189
2821.35	-0.0261941
2822.67	0.339195
2824	0.420478
2825.32	0.175587
2826.65	0.171589
2827.97	0.45125
2829.3	-0.188806
2830.62	0.219215
2831.94	0.31598
2833.26	0.709932
2834.59	0.622283
2835.91	0.307724
2837.23	0.62946
2838.56	1.17694
2839.88	0.77642
2841.2	1.12553
2842.52	1.48904
2843.84	1.44324
2845.16	1.53953
2846.48	1.43862
2847.8	2.05886
2849.12	1.95836
2850.45	1.82927
2851.77	1.72793
2853.08	2.2903
2854.4	1.99015
2855.72	2.02896
2857.04	2.16664
2858.36	2.31846
2859.68	2.35722
2861	3.00296
2862.32	2.95635
2863.63	2.42948
2864.95	2.86208
2866.27	3.39317
2867.59	3.31784
2868.9	3.62375
2870.22	4.16968
2871.54	3.61617
2872.85	3.80949
2874.17	4.2414
2875.48	4.65774
2876.8	3.7631
2878.11	4.27554
2879.43	4.60427
2880.74	4.06154
2882.06	4.4897
2883.37	4.70808
2884.69	4.21141
2886	4.27718
2887.31	4.41318
2888.63	4.39427
2889.94	5.0618
2891.25	4.81642
2892.57	4.66863
2893.88	5.10914
2895.19	5.12962
2896.5	5.05309
2897.82	5.38368
2899.13	5.57548
2900.44	4.87289
2901.75	5.5978
2903.06	5.48363
2904.37	5.57944
2905.68	5.32592
2906.99	5.74446
2908.3	6.02416
2909.61	5.77329
2910.92	6.43268
2912.23	6.42044
2913.54	6.36529
2914.85	6.89644
2916.16	7.15943
2917.46	6.34268
2918.77	6.95227
2920.08	7.08574
2921.39	6.89838
2922.7	7.64922
2924	7.89844
2925.31	7.53409
2926.62	7.96729
2927.92	8.03715
2929.23	7.57528
2930.54	7.79775
2931.84	8.45297
2933.15	8.0035
2934.45	7.88954
2935.76	7.44033
2937.06	7.87181
2938.37	7.39517
2939.67	7.08661
2940.98	7.64504
2942.28	6.97485
2943.58	6.54357
2944.89	6.36538
2946.19	5.33534
2947.49	5.78827
2948.8	6.18533
2950.1	5.44727
2951.4	5.92517
2952.7	5.22471
2954.01	5.54486
2955.31	4.82862
2956.61	5.27528
2957.91	4.98237
2959.21	5.22445
2960.51	4.81151
2961.81	5.31158
2963.11	4.70499
2964.41	4.89717
2965.71	4.31538
2967.01	4.49014
2968.31	4.43863
2969.61	4.40032
2970.91	4.10871
2972.21	4.47853
2973.51	4.17347
2974.81	3.74158
2976.1	3.74528
2977.4	3.78985
2978.7	3.67767
2980	3.73254
2981.29	3.30748
2982.59	3.13533
2983.89	3.23083
2985.18	3.0745
2986.48	2.93399
2987.78	3.13237
2989.07	2.5028
2990.37	2.66049
2991.66	1.81983
2992.96	2.25705
2994.25	1.68118
2995.55	1.83487
2996.84	1.86135
2998.14	1.56484
2999.43	1.54942
3000.73	1.56263
3002.02	1.57648
3003.31	1.19846
3004.61	1.18501
3005.9	0.709219
3007.19	1.05911
3008.48	0.932156
3009.77	0.371034
3011.07	0.159286
3012.36	0.757251
3013.65	0.461493
3014.94	0.515133
3016.23	0.541571
3017.52	0.0536475
3018.81	0.123408
3020.1	0.540892
3021.4	0.165279
3022.68	0.108833
3023.97	0.162592
3025.26	-0.0755706
3026.55	-0.133387
3027.84	0.086144
3029.13	0.195812
3030.42	-0.245824
3031.71	0.032598
3033	-0.00565529
3034.28	0.191104
3035.57	-0.0128045
3036.86	0.375145
3038.15	0.306214
3039.43	0.0704484
3040.72	0.0399179
3042.01	-0.0874429
3043.29	-0.0362663
3044.58	0.0293441
3045.87	-0.286376
3047.15	0.138303
3048.44	0.196127
3049.72	-0.044189
3051.01	0.112941
3052.29	0.311863
3053.58	-0.0212803
3054.86	0.477278
3056.15	0.429104
3057.43	0.366297
3058.71	0.507187
3060	0.0758505
3061.28	0.271411
3062.56	0.494997
3063.84	0.094429
3065.13	0.307405
3066.41	0.209134
3067.69	0.397444
3068.97	-0.0120625
3070.26	0.271797
3071.54	0.214902
3072.82	0.347281
3074.1	0.124991
3075.38	-0.057179
3076.66	-0.0628438
3077.94	0.23058
3079.22	0.104288
3080.5	-0.10177
3081.78	0.439865
3083.06	0.168928
3084.34	-0.196295
3085.62	-0.195061
3086.9	0.308078
3088.18	-0.220913
3089.45	0.0231938
3090.73	-0.126619
3092.01	-0.154308
3093.29	0.18448
3094.56	0.0895801
3095.84	-0.0320277
3097.12	0.185508
3098.4	-0.274657
3099.67	0.240969
3100.95	0.160322
3102.22	-0.150326
3103.5	0.0134249
3104.78	0.191239
3106.05	-0.0497184
3107.33	-0.221973
3108.6	0.0399227
3109.88	0.0458364
3111.15	0.418393
3112.43	0.0335255
3113.7	0.231588
3114.97	-0.00387955
3116.25	0.085619
3117.52	0.364361
3118.79	0.330256
3120.07	0.308754
3121.34	0.408505
3122.61	0.548363
3123.88	0.390054
3125.16	0.178034
3126.43	0.00737333
3127.7	0.162214
3128.97	0.439296
3130.24	0.284049
3131.51	0.304871
3132.79	0.352718
3134.06	0.873043
3135.33	0.434008
3136.6	0.453794
3137.87	1.14728
3139.14	0.290313
3140.41	0.524979
3141.67	0.477073
3142.94	0.469983
3144.21	0.62466
3145.48	0.229852
3146.75	0.949057
3148.02	0.649993
3149.29	0.726938
