200.523	0.207465
202.339	0.222393
204.154	0.238708
205.967	-0.132959
207.781	-0.771336
209.596	0.412903
211.409	0.574759
213.222	-0.0659256
215.034	0.578633
216.848	0.640054
218.659	0.483587
220.47	-0.0832806
222.281	0.367575
224.091	0.117942
225.903	0.304262
227.713	-0.0650272
229.522	0.507344
231.331	0.547694
233.14	0.00881004
234.948	0.146064
236.756	0.260634
238.566	0.112519
240.373	0.666312
242.18	0.451439
243.986	-0.630486
245.792	0.169104
247.598	0.726203
249.403	0.0490036
251.208	0.720436
253.013	0.423023
254.818	0.0516119
256.624	-0.464416
258.427	0.12954
260.231	-0.600041
262.034	0.59991
263.836	0.115445
265.638	-0.512475
267.44	0.787823
269.242	0.328635
271.043	0.495255
272.844	0.130192
274.645	0.221671
276.445	-0.0743484
278.245	0.230206
280.044	0.0746689
281.843	-0.540215
283.642	0.094367
285.44	0.630153
287.238	-0.131957
289.036	0.546082
290.833	-0.189507
292.63	-0.204303
294.425	-0.00205708
296.221	0.36902
298.017	0.286983
299.813	0.58788
301.608	-0.568535
303.403	0.590865
305.198	-0.0896482
306.992	0.0166273
308.786	0.647002
310.579	0.467374
312.371	0.0273476
314.163	0.018096
315.956	0.130021
317.748	-0.42281
319.54	0.621953
321.331	0.262704
323.122	0.0709534
324.911	0.141958
326.701	0.475891
328.491	1.02503
330.281	0.354831
332.071	0.08918
333.857	0.323834
335.646	0.484416
337.434	0.881668
339.222	0.00841713
341.008	-0.196424
342.795	-0.0433931
344.582	-0.0816545
346.369	0.382273
348.153	0.273657
349.939	0.141838
351.724	-0.109221
353.51	0.498234
355.292	0.29309
357.077	-0.0802765
358.861	-0.359409
360.643	0.884613
362.426	0.650473
364.21	0.130503
365.99	0.323273
367.773	0.491075
369.555	0.610137
371.335	-0.195764
373.116	-0.148966
374.897	-0.0790386
376.676	0.061636
378.456	0.461987
380.236	0.415047
382.014	-0.383604
383.793	0.796089
385.57	0.165813
387.349	0.101502
389.127	0.414371
390.903	-0.422599
392.681	0.784698
394.456	0.0904074
396.233	-0.204213
398.007	-0.0760098
399.784	0.263416
401.56	-0.0787783
403.333	0.353405
405.108	-0.0607805
406.881	0.0409098
408.656	-0.233732
410.428	0.0781994
412.202	-0.454783
413.973	0.0922518
415.746	-0.345461
417.517	-0.195685
419.29	0.447641
421.06	0.0821819
422.831	-0.0723896
424.601	0.241739
426.37	-0.00857735
428.141	0.25665
429.909	0.0753193
431.679	0.363427
433.447	-0.216496
435.216	-0.0684547
436.983	0.478539
438.75	0.132885
440.519	-0.026618
442.285	0.351191
444.052	0.140093
445.818	-0.143094
447.583	0.345196
449.349	-0.313651
451.114	0.570708
452.878	0.263462
454.643	-0.136321
456.407	0.117074
458.169	-0.352004
459.934	0.0872412
461.696	0.317366
463.458	0.0377169
465.222	0.481297
466.983	0.231018
468.744	-0.202251
470.507	0.203371
472.267	0.214507
474.027	0.690445
475.787	-0.372501
477.548	0.634916
479.307	0.289238
481.065	-0.569919
482.823	0.807105
484.583	0.438685
486.341	0.608229
488.098	0.197681
489.855	1.16515
491.612	0.804758
493.37	0.70157
495.126	0.458093
496.881	0.799292
498.636	0.414417
500.391	0.450452
502.148	0.36845
503.902	0.00341129
505.656	0.318201
507.409	0.655293
509.162	0.167504
510.915	0.171754
512.668	0.456594
514.42	-0.295592
516.174	0.503567
517.925	-0.251193
519.676	0.780034
521.427	-0.117183
523.178	0.418452
524.928	1.37575
526.678	-0.295307
528.427	0.497236
530.176	0.0937033
531.925	0.158548
533.673	0.877775
535.422	0.284826
537.169	0.555871
538.917	0.661354
540.664	1.0917
542.411	0.169193
544.157	0.0161505
545.903	0.885779
547.649	0.361107
549.395	0.741985
551.14	0.103455
552.884	0.0679007
554.629	0.471637
556.373	0.713283
558.117	0.724319
559.86	0.574665
561.603	0.564049
563.346	0.462129
565.089	0.131202
566.831	-0.0607328
568.573	0.620834
570.314	0.224465
572.053	-0.33063
573.794	0.515545
575.534	0.262616
577.274	0.286873
579.014	-0.307178
580.754	-0.234879
582.493	0.182282
584.23	-0.205443
585.968	-0.249631
587.706	0.693959
589.444	-0.0200472
591.181	0.00105381
592.919	0.45872
594.653	0.663122
596.39	0.269386
598.126	0.036664
599.862	-0.127445
601.595	0.075593
603.33	-0.18283
605.065	0.0630541
606.8	-0.244193
608.532	0.113974
610.266	0.379763
611.999	-0.248744
613.732	0.545714
615.463	-0.286902
617.196	0.0496798
618.928	-0.0955133
620.66	-0.012888
622.389	0.182643
624.12	-0.308828
625.851	0.411077
627.58	-0.261272
629.31	0.0276384
631.04	-0.228592
632.767	1.0235
634.497	-0.00519943
636.223	0.608923
637.952	0.0797272
639.68	0.734315
641.406	1.13395
643.134	0.504568
644.861	-0.0340652
646.586	0.224821
648.312	0.167212
650.037	0.0450668
651.762	-0.140928
653.486	0.268282
655.211	0.431488
656.936	1.09853
658.659	0.719478
660.383	0.0424566
662.105	-0.0438337
663.829	0.484241
665.55	0.301332
667.273	0.939394
668.994	1.05079
670.716	0.86577
672.436	0.454067
674.158	0.388217
675.877	0.622646
677.598	1.11135
679.317	0.131186
681.035	1.01018
682.755	-0.13613
684.473	1.43009
686.192	0.738523
687.909	0.0677776
689.628	0.570399
691.344	0.266012
693.06	0.628914
694.778	0.207793
696.493	0.683761
698.211	1.2962
699.925	0.318981
701.64	0.100335
703.356	0.823166
705.07	0.579628
706.783	0.978415
708.498	1.21555
710.211	1.26855
711.924	0.565573
713.638	0.938426
715.35	0.624851
717.061	0.471597
718.774	1.59608
720.485	0.736032
722.196	0.446921
723.906	0.749891
725.618	0.733929
727.328	0.876653
729.037	0.746332
730.746	1.00111
732.456	0.937875
734.165	0.897176
735.873	1.24084
737.58	0.997207
739.289	1.1383
740.997	1.03236
742.703	0.973036
744.41	1.70329
746.116	1.10686
747.823	1.72729
749.529	1.04448
751.234	0.655705
752.938	0.830706
754.643	1.77225
756.347	0.938164
758.051	0.915741
759.756	0.985056
761.459	0.559702
763.162	1.21735
764.865	1.42404
766.567	0.951811
768.269	0.929103
769.97	1.10744
771.671	1.23831
773.372	1.36758
775.073	1.81287
776.773	1.4222
778.473	0.942571
780.174	1.88935
781.874	1.41263
783.573	1.93152
785.271	1.8834
786.97	1.69663
788.668	1.16673
790.365	1.99067
792.063	1.92884
793.76	1.1653
795.456	1.71122
797.153	1.2656
798.847	1.09283
800.543	1.43996
802.238	1.85585
803.933	1.82238
805.628	1.54146
807.322	1.46205
809.017	1.38136
810.71	1.99507
812.404	1.77713
814.097	1.64849
815.79	1.25113
817.483	1.72671
819.173	2.02279
820.865	1.4477
822.556	1.52104
824.248	1.70667
825.939	2.07199
827.629	2.0386
829.318	1.76356
831.008	1.60346
832.697	1.40199
834.387	1.87148
836.076	1.33893
837.765	1.11794
839.451	1.18568
841.139	1.74311
842.827	1.7631
844.514	1.00042
846.2	1.53461
847.886	0.975526
849.573	2.05193
851.259	0.915975
852.943	1.30429
854.629	1.24566
856.314	2.04028
857.997	1.44107
859.682	1.15393
861.366	1.06696
863.05	1.38358
864.732	1.24825
866.415	1.20195
868.098	1.26764
869.779	1.35539
871.461	1.33002
873.141	0.762943
874.823	0.579204
876.505	1.095
878.184	0.911291
879.865	0.704829
881.545	0.994557
883.223	0.696528
884.903	1.16479
886.581	1.94729
888.26	0.651787
889.937	1.63319
891.616	0.718673
893.294	0.772257
894.97	0.666951
896.648	1.23498
898.323	1.28426
900	1.15286
901.675	1.11047
903.351	1.24652
905.026	0.622241
906.701	1.04877
908.375	1.25209
910.05	0.476146
911.723	0.993089
913.398	0.176336
915.07	0.893533
916.742	1.34324
918.415	0.440174
920.087	0.690257
921.76	0.675056
923.43	0.727493
925.103	0.825854
926.773	0.683344
928.443	0.763546
930.114	0.602345
931.783	0.574339
933.454	0.943711
935.123	0.497083
936.791	1.30817
938.461	0.135285
940.128	0.639933
941.796	0.32983
943.464	0.572032
945.131	0.946588
946.797	1.07713
948.465	1.00687
950.131	0.404791
951.797	0.551804
953.462	0.456229
955.128	0.693225
956.793	0.337937
958.457	-0.234535
960.121	0.872925
961.786	0.636152
963.45	0.973575
965.113	0.491079
966.775	0.0272865
968.44	0.467468
970.102	0.595582
971.763	0.612113
973.425	0.872453
975.086	0.139316
976.748	1.08896
978.409	0.558526
980.069	0.327262
981.729	0.0953989
983.388	0.581438
985.048	0.556159
986.708	0.904778
988.367	0.963505
990.025	0.467929
991.683	0.789848
993.341	0.713655
994.998	0.836327
996.655	0.628075
998.312	0.971232
999.969	1.79848
1001.62	1.63326
1003.28	1.3797
1004.94	1.06013
1006.59	0.411253
1008.25	1.03706
1009.9	0.960194
1011.56	-0.168653
1013.21	0.501504
1014.86	0.163777
1016.52	0.374158
1018.17	0.694304
1019.82	0.337107
1021.48	0.134399
1023.13	0.392054
1024.78	0.25731
1026.43	0.953614
1028.08	0.229555
1029.73	0.269577
1031.38	0.067977
1033.03	0.34502
1034.68	-0.165487
1036.33	0.238849
1037.98	1.01201
1039.63	0.303736
1041.28	0.184584
1042.93	0.480062
1044.57	0.668595
1046.22	1.33707
1047.87	0.834832
1049.52	0.182545
1051.16	-0.207796
1052.81	0.228151
1054.45	0.164902
1056.1	0.775405
1057.75	0.407563
1059.39	0.843503
1061.04	0.800417
1062.68	0.691173
1064.32	0.798288
1065.97	-0.11759
1067.61	0.682672
1069.25	-0.321884
1070.9	0.0851936
1072.54	0.383264
1074.18	0.985414
1075.82	0.113421
1077.47	0.457794
1079.11	0.0445223
1080.75	0.58624
1082.39	1.04117
1084.03	-0.564812
1085.67	0.0824003
1087.31	0.87856
1088.95	0.783643
1090.59	0.838257
1092.22	0.351019
1093.86	0.382396
1095.5	-0.125398
1097.14	0.187747
1098.78	0.588097
1100.41	-0.0433197
1102.05	0.597563
1103.69	0.551688
1105.32	-0.00888729
1106.96	0.399117
1108.59	0.290548
1110.23	0.0732632
1111.86	0.456124
1113.5	0.192358
1115.13	0.850586
1116.77	0.39174
1118.4	0.105186
1120.03	0.226828
1121.67	0.756295
1123.3	0.665843
1124.93	0.683593
1126.56	0.89485
1128.19	1.00002
1129.83	0.592865
1131.46	0.464408
1133.09	0.186665
1134.72	-0.219447
1136.35	-0.177348
1137.98	-0.200519
1139.61	-0.395869
1141.24	-0.101101
1142.86	0.555587
1144.49	0.188066
1146.12	0.375965
1147.75	0.266478
1149.38	-0.246738
1151	0.646616
1152.63	0.368332
1154.26	0.536854
1155.88	0.534554
1157.51	-0.106143
1159.14	0.764091
1160.76	0.25272
1162.39	-0.278461
1164.01	0.190827
1165.63	0.618148
1167.26	0.322243
1168.88	1.25817
1170.51	0.236309
1172.13	-0.468369
1173.75	0.503016
1175.38	0.00783443
1177	0.254778
1178.62	0.649858
1180.24	0.177359
1181.86	0.00266838
1183.48	0.167188
1185.1	0.0145912
1186.72	0.325632
1188.34	-0.441668
1189.96	0.0338154
1191.58	-0.146474
1193.2	0.386827
1194.82	-0.0899563
1196.44	0.440948
1198.06	0.238734
1199.68	0.60367
1201.29	0.364751
1202.91	0.734791
1204.53	1.04489
1206.14	0.960928
1207.76	0.795116
1209.38	0.546204
1210.99	-0.308418
1212.61	0.482576
1214.22	1.0619
1215.84	0.534256
1217.45	0.525452
1219.07	1.2428
1220.68	1.10747
1222.29	0.890318
1223.91	1.2345
1225.52	0.75182
1227.13	0.975097
1228.74	1.32392
1230.36	1.28116
1231.97	1.30192
1233.58	1.57217
1235.19	1.65792
1236.8	0.959735
1238.41	1.93712
1240.02	2.08862
1241.63	1.84743
1243.24	1.29536
1244.85	1.15597
1246.46	1.53266
1248.07	1.37012
1249.67	1.16532
1251.28	1.53946
1252.89	2.12064
1254.5	1.27549
1256.1	1.32109
1257.71	1.34751
1259.32	1.76851
1260.92	1.34215
1262.53	1.06101
1264.13	2.08476
1265.74	2.11403
1267.34	2.47403
1268.95	1.58902
1270.55	1.96728
1272.15	1.39048
1273.76	1.62104
1275.36	1.51867
1276.97	2.07831
1278.57	1.45585
1280.17	1.70276
1281.77	2.36302
1283.37	2.00919
1284.97	2.04925
1286.58	1.6563
1288.18	2.2569
1289.78	2.07318
1291.38	2.07609
1292.98	1.9549
1294.58	2.47319
1296.18	1.91566
1297.78	2.94602
1299.37	1.93069
1300.97	2.29604
1302.57	1.87653
1304.17	2.1974
1305.77	2.16726
1307.36	3.04014
1308.96	2.5158
1310.55	2.60738
1312.15	2.31032
1313.75	2.15799
1315.34	2.10937
1316.94	2.93993
1318.53	3.0151
1320.13	2.51915
1321.72	2.79681
1323.32	2.21729
1324.91	2.47012
1326.5	2.51755
1328.1	2.44257
1329.69	2.85441
1331.28	3.12586
1332.87	2.79361
1334.47	2.80811
1336.06	2.52202
1337.65	2.90247
1339.24	2.35439
1340.83	2.46954
1342.42	1.85736
1344.01	2.83184
1345.6	2.15651
1347.19	3.02694
1348.78	1.93484
1350.37	1.78845
1351.96	1.8054
1353.54	2.56459
1355.13	1.8259
1356.72	2.26697
1358.31	2.3277
1359.89	1.80808
1361.48	2.24561
1363.07	2.0433
1364.65	2.25946
1366.24	2.01744
1367.82	1.83645
1369.41	1.93583
1370.99	1.9772
1372.58	1.36366
1374.16	2.20407
1375.75	2.24939
1377.33	1.57846
1378.91	1.12577
1380.5	2.14428
1382.08	0.992544
1383.66	1.01319
1385.25	0.754397
1386.83	1.44894
1388.41	1.42816
1389.99	1.56701
1391.57	1.84575
1393.15	1.19293
1394.73	1.57219
1396.31	1.49498
1397.89	1.04031
1399.47	0.763121
1401.05	1.21786
1402.63	1.35475
1404.21	1.15517
1405.78	1.74734
1407.36	1.84591
1408.94	1.60958
1410.52	1.13698
1412.1	1.63216
1413.67	1.21828
1415.25	1.31664
1416.82	1.57166
1418.4	0.564585
1419.98	1.41066
1421.55	1.94219
1423.13	1.84541
1424.7	1.8688
1426.28	1.53945
1427.85	1.32882
1429.42	1.92483
1431	1.49623
1432.57	1.79445
1434.14	2.58318
1435.71	1.93524
1437.29	2.17269
1438.86	2.2537
1440.43	1.8446
1442	2.28182
1443.57	2.95573
1445.14	2.17578
1446.71	2.81117
1448.28	3.40754
1449.85	2.7069
1451.42	3.10777
1452.99	2.8605
1454.56	2.73162
1456.13	2.99613
1457.7	3.20084
1459.26	2.24273
1460.83	2.79775
1462.4	2.50419
1463.97	2.14977
1465.54	2.52154
1467.1	1.63533
1468.67	1.59472
1470.23	1.30013
1471.8	1.87024
1473.36	0.77426
1474.93	2.03272
1476.49	1.13456
1478.06	0.922909
1479.62	1.16207
1481.19	1.22467
1482.75	1.58109
1484.31	0.742022
1485.88	1.56796
1487.44	0.806215
1489	1.51169
1490.56	1.64682
1492.13	0.957956
1493.69	0.912297
1495.25	0.864657
1496.81	0.757455
1498.37	1.25347
1499.93	0.699475
1501.49	0.613922
1503.05	0.743208
1504.61	1.39636
1506.17	0.751698
1507.73	1.19045
1509.28	1.41454
1510.84	1.09647
1512.4	0.797426
1513.96	1.17229
1515.52	0.989024
1517.07	0.883721
1518.63	1.00968
1520.19	1.00199
1521.74	0.860614
1523.3	1.21607
1524.85	0.691587
1526.41	1.33025
1527.96	0.823701
1529.52	0.546092
1531.07	0.895782
1532.63	1.0176
1534.18	0.666776
1535.73	1.0367
1537.29	1.02906
1538.84	1.56959
1540.39	1.29872
1541.94	1.04732
1543.5	1.45494
1545.05	1.46671
1546.6	1.34672
1548.15	1.60201
1549.7	1.40691
1551.25	1.34351
1552.8	1.78591
1554.35	2.07919
1555.9	1.14116
1557.45	1.40102
1559	1.81227
1560.55	1.5354
1562.1	1.65226
1563.65	2.05033
1565.19	1.94539
1566.74	2.06447
1568.29	2.07129
1569.83	2.15229
1571.38	2.10215
1572.93	2.03297
1574.47	1.59027
1576.02	2.49166
1577.56	2.12392
1579.11	2.37277
1580.66	1.9876
1582.2	2.4437
1583.74	2.24724
1585.29	2.55616
1586.83	1.83764
1588.38	1.99778
1589.92	2.45717
1591.46	2.91636
1593.01	2.23299
1594.55	3.08477
1596.09	2.32579
1597.63	2.63519
1599.17	2.02691
1600.71	2.76961
1602.25	3.00687
1603.79	2.11759
1605.34	2.46655
1606.88	2.64489
1608.41	2.2945
1609.95	2.78695
1611.49	1.81071
1613.03	2.1662
1614.57	1.95669
1616.11	1.95325
1617.65	1.87544
1619.18	1.61179
1620.72	2.09926
1622.26	2.60685
1623.79	1.26189
1625.33	1.84532
1626.87	1.88488
1628.4	2.22216
1629.94	1.97775
1631.48	2.38643
1633.01	1.87897
1634.55	1.89515
1636.08	1.50183
1637.61	1.48294
1639.15	2.84437
1640.68	1.91256
1642.21	1.53954
1643.75	2.41308
1645.28	1.49777
1646.81	2.08877
1648.34	2.51132
1649.88	2.39531
1651.41	2.24358
1652.94	2.76125
1654.47	2.51974
1656	1.98263
1657.53	1.92748
1659.06	2.01959
1660.59	1.88789
1662.12	2.16158
1663.65	2.71076
1665.18	2.40876
1666.71	1.92317
1668.24	1.99287
1669.76	2.24862
1671.29	2.39542
1672.82	1.64092
1674.35	1.90017
1675.87	1.97486
1677.4	1.60684
1678.93	1.58733
1680.45	0.849563
1681.98	1.25099
1683.5	1.35775
1685.03	0.913961
1686.55	1.0763
1688.08	1.45889
1689.6	0.669148
1691.13	1.14381
1692.65	0.739675
1694.17	1.15895
1695.7	0.590392
1697.22	0.661647
1698.74	0.86025
1700.27	0.948612
1701.79	0.0332136
1703.31	0.375914
1704.83	0.644641
1706.35	0.675884
1707.87	0.37954
1709.39	1.02807
1710.91	0.677485
1712.43	0.436485
1713.95	0.44969
1715.47	0.137101
1716.99	0.5846
1718.51	0.308316
1720.03	0.89914
1721.55	0.623161
1723.07	0.798975
1724.58	0.61537
1726.1	-0.142746
1727.62	0.181231
1729.13	-0.141774
1730.65	-0.282763
1732.17	0.0224438
1733.68	0.0232277
1735.2	0.284985
1736.72	0.55261
1738.23	0.282434
1739.74	-0.3186
1741.26	0.0290976
1742.77	-0.0655842
1744.29	0.0503664
1745.8	-0.332201
1747.32	-0.163774
1748.83	0.478598
1750.34	-0.0452919
1751.85	0.198604
1753.37	0.0872192
1754.88	0.0103531
1756.39	0.173082
1757.9	0.0998611
1759.41	0.32823
1760.92	-0.0843077
1762.44	-0.0542707
1763.95	0.333941
1765.46	0.246569
1766.96	-0.0526056
1768.47	0.194298
1769.98	0.0987587
1771.49	0.098568
1773	0.200541
1774.51	0.293565
1776.02	0.00063324
1777.53	0.287662
1779.03	0.0467701
1780.54	0.203511
1782.05	0.445668
1783.55	-0.205862
1785.06	-0.0690813
1786.57	0.172819
1788.07	0.519707
1789.58	0.109951
1791.08	-0.0856476
1792.59	-0.220984
1794.09	-0.236745
1795.6	-0.274665
1797.1	-0.0579815
1798.61	-0.016408
1800.11	0.0391474
1801.61	0.16921
1803.12	0.36412
1804.62	0.02635
1806.12	-0.0684013
1807.62	-0.071332
1809.12	0.354222
1810.63	0.208304
1812.13	0.142575
1813.63	-0.0558815
1815.13	0.269032
1816.63	-0.0132875
1818.13	0.575817
1819.63	0.0680218
1821.13	0.179633
1822.63	-0.0895033
1824.13	0.0451994
1825.63	-0.060008
1827.13	-0.102648
1828.62	0.026123
1830.12	-0.0696049
1831.62	-0.0895376
1833.12	0.0141287
1834.61	0.124438
1836.11	0.236368
1837.61	0.151936
1839.1	-0.0335112
1840.6	-0.0487375
1842.09	-0.240696
1843.59	0.113228
1845.09	0.136811
1846.58	0.00492001
1848.08	0.331838
1849.57	0.2616
1851.06	0.310799
1852.56	0.0576315
1854.05	0.0525494
1855.54	0.150589
1857.04	0.105017
1858.53	0.0620222
1860.02	0.259154
1861.51	-0.109271
1863.01	-0.11781
1864.5	0.109712
1865.99	-0.16911
1867.48	0.267994
1868.97	-0.0279655
1870.46	0.27076
1871.95	-0.0664291
1873.44	-0.0448284
1874.93	0.0575237
1876.42	-0.209683
1877.91	0.063241
1879.4	-0.111051
1880.89	0.0505533
1882.37	-0.338849
1882.46	-0.365216
1883.95	0.575611
1885.45	0.190491
1886.94	0.275005
1888.43	0.411052
1889.93	0.390528
1891.42	0.0580559
1892.91	-0.0290489
1894.41	-0.322784
1895.9	-0.249747
1897.39	0.485118
1898.88	0.176508
1900.37	0.284248
1901.86	0.598943
1903.36	0.163671
1904.85	0.457187
1906.34	0.00237179
1907.83	0.416237
1909.32	0.361697
1910.81	0.238837
1912.29	-0.0737572
1913.78	0.0826969
1915.27	-0.0555754
1916.76	0.325969
1918.25	0.256083
1919.74	-0.0395241
1921.23	0.253846
1922.71	0.374297
1924.2	0.0108986
1925.69	-0.0395737
1927.17	-0.0715742
1928.66	0.381944
1930.15	0.437293
1931.63	0.283973
1933.12	-0.00944424
1934.6	0.335822
1936.09	0.0560675
1937.57	0.103814
1939.06	0.0991096
1940.54	-0.302461
1942.02	0.660702
1943.51	0.416587
1944.99	0.121924
1946.47	0.414025
1947.96	0.309336
1949.44	-0.157849
1950.92	0.32132
1952.4	0.403132
1953.88	0.587343
1955.37	-0.0708408
1956.85	0.371305
1958.33	0.0584965
1959.81	-0.115946
1961.29	0.430552
1962.77	0.462629
1964.25	-0.122308
1965.73	0.0976276
1967.21	0.0598555
1968.69	0.209554
1970.16	0.153279
1971.64	0.0626125
1973.12	-0.454717
1974.6	0.0692234
1976.08	-0.140301
1977.55	0.263835
1979.03	-0.251636
1980.51	-0.205108
1981.98	0.215146
1983.46	0.328736
1984.94	0.119272
1986.41	0.33386
1987.89	0.56503
1989.36	0.0341158
1990.84	0.0800524
1992.31	0.0761948
1993.79	-0.0618153
1995.26	0.0546637
1996.73	-0.098752
1998.21	-0.015645
1999.68	0.303308
2001.15	0.503209
2002.63	0.179482
2004.1	-0.0935268
2005.57	0.105872
2007.04	0.322724
2008.51	-0.166764
2009.99	0.237186
2011.46	0.321768
2012.93	0.0529499
2014.4	0.120344
2015.87	0.052289
2017.34	0.000116348
2018.81	0.283303
2020.28	0.313562
2021.75	-0.0594444
2023.21	-0.482108
2024.68	0.0863285
2026.15	0.320154
2027.62	0.018754
2029.09	0.238935
2030.56	0.0915642
2032.02	0.314368
2033.49	0.504309
2034.96	0.0898304
2036.42	0.481004
2037.89	0.468537
2039.36	0.0858679
2040.82	-0.0785236
2042.29	0.194564
2043.75	0.132201
2045.22	0.457778
2046.68	0.329959
2048.14	0.488721
2049.61	0.343961
2051.07	0.484599
2052.54	-0.101545
2054	0.204089
2055.46	0.305427
2056.93	0.556896
2058.39	0.453386
2059.85	0.518178
2061.31	0.11189
2062.77	0.363208
2064.23	-0.0408545
2065.7	0.0611076
2067.16	0.147148
2068.62	0.116035
2070.08	0.135765
2071.54	0.105066
2073	0.360452
2074.46	0.0935879
2075.92	0.499929
2077.38	0.38384
2078.83	0.38519
2080.29	-0.203317
2081.75	0.268415
2083.21	0.469935
2084.67	0.384452
2086.12	0.281384
2087.58	0.312222
2089.04	0.224923
2090.49	0.50702
2091.95	0.46975
2093.41	0.583446
2094.86	0.629654
2096.32	0.306525
2097.77	-0.117402
2099.23	0.0443783
2100.68	0.28916
2102.14	0.349949
2103.59	-0.106145
2105.05	-0.109733
2106.5	0.188438
2107.95	0.637679
2109.41	-0.296903
2110.86	0.70223
2112.31	0.549443
2113.76	0.245054
2115.21	0.638204
2116.67	0.580769
2118.12	0.374234
2119.57	0.335402
2121.02	0.497747
2122.47	0.662086
2123.92	0.562677
2125.37	0.364561
2126.82	0.464678
2128.27	0.547132
2129.72	0.578331
2131.17	0.922755
2132.62	1.11689
2134.07	0.89714
2135.51	0.843816
2136.96	0.461557
2138.41	0.775563
2139.86	0.694979
2141.31	1.31046
2142.75	0.505579
2144.2	0.726469
2145.65	0.848423
2147.09	0.920493
2148.54	0.660683
2149.98	1.26124
2151.43	1.06559
2152.87	1.01792
2154.32	1.11843
2155.76	0.605408
2157.21	1.16927
2158.65	0.971849
2160.1	0.991206
2161.54	0.995908
2162.98	1.00264
2164.43	0.845196
2165.87	0.937518
2167.31	1.54496
2168.75	0.788865
2170.2	1.3107
2171.64	1.21501
2173.08	1.13373
2174.52	1.15067
2175.96	0.884203
2177.4	0.767652
2178.84	1.30032
2180.28	1.36851
2181.72	1.22156
2183.16	1.042
2184.6	0.962483
2186.04	1.34883
2187.48	1.35265
2188.92	1.28995
2190.36	1.21056
2191.79	1.41388
2193.23	1.28343
2194.67	1.25139
2196.11	1.00095
2197.54	1.28088
2198.98	0.760414
2200.42	1.10348
2201.85	0.881305
2203.29	0.842639
2204.72	0.655961
2206.16	0.619763
2207.59	0.683603
2209.03	0.813464
2210.46	0.843069
2211.9	0.706121
2213.33	0.320569
2214.77	0.66217
2216.2	0.442674
2217.63	0.422601
2219.07	1.03052
2220.5	0.369579
2221.93	0.566235
2223.36	0.234832
2224.8	0.709164
2226.23	0.63803
2227.66	0.482973
2229.09	0.720969
2230.52	0.0552406
2231.95	0.488692
2233.39	0.119355
2234.81	0.6673
2236.25	0.643634
2237.67	0.409497
2239.1	0.683498
2240.53	0.437498
2241.96	0.0793972
2243.39	0.521852
2244.82	0.263399
2246.25	0.379442
2247.68	0.34704
2249.1	0.279768
2250.53	0.633769
2251.96	0.773652
2253.38	0.326844
2254.81	0.482268
2256.24	0.395423
2257.66	0.408542
2259.09	0.554497
2260.51	0.0384045
2261.94	0.0927286
2263.36	0.165054
2264.79	0.481629
2266.21	0.52179
2267.64	0.593671
2269.06	0.420486
2270.49	0.474202
2271.91	0.397115
2273.33	0.352354
2274.76	0.144753
2276.18	0.295729
2277.6	0.626249
2279.02	-0.265651
2280.44	0.391043
2281.87	0.18348
2283.29	0.0409679
2284.71	0.714346
2286.13	0.245703
2287.55	0.479268
2288.97	0.288795
2290.39	0.572479
2291.81	0.480732
2293.23	0.617999
2294.65	0.542674
2296.07	-0.367592
2297.49	0.375204
2298.91	0.397859
2300.33	0.519063
2301.74	0.345535
2303.16	0.352616
2304.58	0.540434
2306	-0.0927696
2307.41	0.127449
2308.83	0.495235
2310.25	0.254246
2311.66	0.506112
2313.08	0.396089
2314.5	0.434541
2315.91	0.111545
2317.33	-0.0132284
2318.74	0.323912
2320.16	0.578742
2321.57	0.0571327
2322.98	0.457453
2324.4	-0.0358639
2325.81	0.310035
2327.23	0.620828
2328.64	0.996307
2330.05	0.498531
2331.46	0.282097
2332.88	0.231611
2334.29	0.19855
2335.7	0.0341949
2337.11	0.0668354
2338.52	-0.29612
2339.94	-0.479173
2341.35	0.338763
2342.76	-0.0265303
2344.17	-0.0633879
2345.58	-0.345776
2346.99	-0.103373
2348.4	0.13878
2349.81	0.0694189
2351.22	0.0320406
2352.62	0.336682
2354.03	-0.0129652
2355.44	0.0611534
2356.85	0.248714
2358.26	-0.00333881
2359.67	0.183955
2361.07	0.25734
2362.48	-0.204493
2363.89	-0.147164
2365.29	0.314444
2366.7	-0.129806
2368.11	-0.152753
2369.51	0.0512438
2370.92	0.0467358
2372.32	0.0436478
2373.73	0.138273
2375.13	-0.0886726
2376.54	0.118636
2377.94	0.646219
2379.35	0.0787477
2380.75	-0.0721636
2382.15	0.160585
2383.56	0.215612
2384.96	0.142236
2386.36	0.0694418
2387.76	-0.129943
2389.17	0.086875
2390.57	0.193124
2391.97	0.332325
2393.37	-0.227652
2394.77	0.343029
2396.17	-0.278366
2397.58	0.29332
2398.98	0.0390768
2400.38	-0.0556622
2401.78	0.421783
2403.18	0.168605
2404.58	0.169188
2405.97	-0.00573158
2407.37	0.881599
2408.77	-0.072506
2410.17	0.28964
2411.57	0.208007
2412.97	0.396522
2414.37	0.0321493
2415.76	-0.108903
2417.16	-0.10606
2418.56	-0.213078
2419.95	0.107879
2421.35	0.0962114
2422.75	-0.327736
2424.14	0.166893
2425.54	0.1546
2426.93	-0.0790558
2428.33	0.195381
2429.72	-0.00476456
2431.12	0.239952
2432.51	-0.0546465
2433.91	-0.0959253
2435.3	0.322334
2436.7	0.45318
2438.09	0.439356
2439.48	0.0428534
2440.88	-0.00508881
2442.27	0.136902
2443.66	-0.134109
2445.05	0.213512
2446.44	0.291137
2447.84	0.14668
2449.23	0.0973711
2450.62	0.175003
2452.01	0.332267
2453.4	-0.000257492
2454.79	0.158712
2456.18	0.128568
2457.57	0.0829754
2458.96	0.068881
2460.35	0.686777
2461.74	0.228408
2463.13	-0.0567093
2464.52	0.0843363
2465.91	0.272305
2467.29	0.19164
2468.68	0.300329
2470.07	-0.300993
2471.46	0.122416
2472.85	0.0720282
2474.23	0.304255
2475.62	0.110703
2477.01	-0.0986795
2478.39	0.0691242
2479.78	-0.0299492
2481.16	-0.207088
2482.55	-0.101983
2483.93	0.0964117
2485.32	0.403017
2486.7	0.00470734
2488.09	-0.00374794
2489.47	0.0493383
2490.86	0.117669
2492.24	0.232985
2493.62	0.131765
2495.01	0.544123
2496.39	0.228636
2497.77	0.100456
2499.15	0.0192118
2500.54	0.123371
2501.92	-0.407113
2503.3	0.359396
2504.68	-0.0489092
2506.06	-0.148848
2507.45	0.0589828
2508.83	0.297213
2510.21	-0.00215149
2511.59	0.114017
2512.97	0.184813
2514.35	-0.0958672
2515.73	0.359484
2517.11	-0.118025
2518.48	0.0935984
2519.86	-0.137949
2521.24	-0.201503
2522.62	-0.0519514
2524	-0.117007
2525.38	0.350701
2526.75	-0.00498295
2528.13	0.203297
2529.51	-0.119791
2530.89	-0.152107
2532.26	-0.273817
2533.64	0.213659
2535.02	-0.0425596
2536.39	0.0658436
2537.77	-0.130253
2539.14	-0.281707
2540.52	0.188561
2541.89	0.278663
2543.27	-0.162071
2544.64	-0.0404501
2546.01	-0.0237656
2547.39	0.479617
2548.76	0.225506
2550.14	0.593591
2551.51	-0.0251598
2552.88	-0.220013
2554.25	0.0696793
2555.63	0.267281
2557	0.221479
2558.37	0.205871
2559.74	0.251177
2561.11	0.433442
2562.49	-0.414156
2563.86	0.314992
2565.23	-0.137414
2566.6	-0.104627
2567.97	0.625402
2569.34	-0.0691404
2570.71	-0.0513897
2572.08	0.572707
2573.45	0.378412
2574.82	-0.103841
2576.18	-0.100976
2577.55	0.508308
2578.92	0.237973
2580.29	0.346333
2581.66	0.332937
2583.02	0.0613909
2584.39	0.0473499
2585.76	0.0938816
2587.13	0.216307
2588.49	0.369229
2589.86	0.416186
2591.22	0.372097
2592.59	0.327526
2593.96	0.221513
2595.32	0.0538855
2596.69	0.505888
2598.05	0.336273
2599.42	0.332724
2600.78	0.208391
2602.14	-0.0965071
2603.51	0.535523
2604.87	-0.0998764
2606.23	0.00456619
2607.6	0.108622
2608.96	0.31721
2610.32	0.298333
2611.69	0.14258
2613.05	0.106113
2614.41	0.0989161
2615.77	0.376541
2617.13	0.00921917
2618.49	0.0176535
2619.86	0.0568333
2621.22	0.141599
2622.58	-0.131795
2623.94	-0.0461836
2625.3	0.278042
2626.66	0.2884
2628.02	0.000349998
2629.37	-0.00468063
2630.73	0.376912
2632.09	0.490168
2633.45	0.558632
2634.81	0.13715
2636.17	0.517167
2637.53	0.111169
2638.88	-0.160862
2640.24	-0.0920181
2641.6	-0.111722
2642.96	-0.131096
2644.31	-0.0026226
2645.67	0.199371
2647.02	0.415402
2648.38	0.335749
2649.74	0.137608
2651.09	-0.207921
2652.45	0.0343637
2653.8	0.291031
2655.16	0.430725
2656.51	0.3224
2657.86	-0.29679
2659.22	0.270643
2660.57	-0.390265
2661.93	-0.0860767
2663.28	0.304821
2664.63	-0.0938597
2665.98	0.0614786
2667.34	0.23062
2668.69	0.399366
2670.04	0.422623
2671.39	0.330099
2672.75	0.0349693
2674.09	0.26367
2675.45	0.0718164
2676.8	0.257976
2678.15	0.125621
2679.5	-0.107272
2680.85	-0.382495
2682.2	0.0104408
2683.55	-0.0158176
2684.9	0.220032
2686.25	-0.0222559
2687.6	0.286747
2688.94	0.27528
2690.29	0.262
2691.64	-0.0435448
2692.99	-0.0168276
2694.34	-0.1072
2695.68	0.208092
2697.03	0.465748
2698.38	-0.361495
2699.73	-0.115201
2701.07	0.161864
2702.42	0.295807
2703.76	0.329578
2705.11	-0.0419464
2706.45	0.0793886
2707.8	0.273126
2709.15	0.234329
2710.49	0.50004
2711.83	0.1991
2713.18	-0.102186
2714.52	-0.08395
2715.87	0.457671
2717.21	0.199544
2718.55	0.159225
2719.9	0.496823
2721.24	0.266476
2722.58	0.195649
2723.93	0.124301
2725.27	0.50371
2726.61	0.3587
2727.95	0.635422
2729.29	0.446145
2730.63	0.256746
2731.98	0.401976
2733.32	0.096302
2734.66	0.721795
2736	0.227485
2737.34	0.300598
2738.68	0.286434
2740.02	0.315645
2741.36	0.228026
2742.7	0.634015
2744.03	0.0943708
2745.37	0.179103
2746.71	-0.0852242
2748.05	0.0568943
2749.39	0.315006
2750.72	0.167018
2752.06	0.338372
2753.4	0.133046
2754.74	0.02946
2756.07	0.273697
2757.41	-0.0033102
2758.75	0.067522
2760.08	0.0518875
2761.42	0.340662
2762.76	0.00769711
2764.09	-0.136777
2765.42	0.00814152
2766.76	0.0223818
2768.09	0.122456
2769.43	-0.096982
2770.76	0.332572
2772.1	-0.120829
2773.43	0.377717
2774.76	0.125102
2776.1	0.21856
2777.43	0.470552
2778.76	0.0899916
2780.1	-0.332551
2781.43	0.294177
2782.76	0.2026
2784.09	-0.175752
2785.42	0.0196638
2786.75	0.114738
2788.09	0.0670719
2789.42	-0.108495
2790.75	0.0459862
2792.08	-0.342128
2793.41	-0.0433912
2794.74	-0.0877304
2796.07	-0.175248
2797.4	-0.0490217
2798.73	0.262142
2800.06	0.301402
2801.39	-0.315883
2802.71	0.250677
2804.04	-0.124173
2805.37	-0.0290499
2806.7	0.0368538
2808.03	0.27267
2809.35	-0.146112
2810.68	-0.152411
2812.01	0.182488
2813.33	-0.205187
2814.66	-0.477579
2815.99	0.314745
2817.31	0.158456
2818.64	-0.0396843
2819.96	0.286637
2821.29	-0.0961685
2822.61	0.243123
2823.94	-0.282635
2825.26	0.267978
2826.59	0.0961332
2827.91	0.165591
2829.23	0.306408
2830.56	0.348619
2831.88	0.348606
2833.21	0.19284
2834.53	0.305694
2835.85	0.559531
2837.17	0.0486403
2838.5	0.400414
2839.82	0.454791
2841.14	0.989935
2842.46	0.81851
2843.78	1.17077
2845.1	1.21285
2846.42	1.39694
2847.74	1.21401
2849.06	1.41271
2850.38	1.2719
2851.71	1.96446
2853.03	1.62467
2854.34	1.76497
2855.66	1.76372
2856.98	1.46579
2858.3	1.94485
2859.62	1.95771
2860.94	2.01275
2862.26	2.22271
2863.57	2.54508
2864.89	2.16146
2866.21	2.41279
2867.53	2.91812
2868.84	2.67642
2870.16	2.85821
2871.48	3.2375
2872.79	3.02444
2874.11	2.93747
2875.42	2.93388
2876.74	3.02763
2878.05	3.13441
2879.37	3.45168
2880.68	3.13641
2882	3.14548
2883.31	3.0855
2884.63	3.15301
2885.94	3.44579
2887.26	3.42978
2888.57	3.34315
2889.88	3.87291
2891.19	3.3076
2892.51	3.597
2893.82	2.97535
2895.13	3.34882
2896.44	3.41492
2897.76	3.62208
2899.07	3.71838
2900.38	3.49382
2901.69	3.74545
2903	4.333
2904.31	3.98351
2905.62	3.6903
2906.93	4.19497
2908.24	4.30892
2909.55	4.17202
2910.86	4.46955
2912.17	4.97719
2913.48	5.13418
2914.79	5.06559
2916.1	5.05102
2917.41	5.24455
2918.71	5.53473
2920.02	5.83845
2921.33	5.72327
2922.64	5.76335
2923.94	5.87494
2925.25	6.11369
2926.56	6.15753
2927.86	6.36921
2929.17	6.25893
2930.48	6.80505
2931.78	6.07843
2933.09	6.56768
2934.39	6.74932
2935.7	6.17637
2937	6.03691
2938.31	5.57628
2939.61	5.63302
2940.92	5.46675
2942.22	5.525
2943.53	5.47282
2944.83	5.14254
2946.13	4.82739
2947.43	5.15629
2948.74	4.47747
2950.04	4.48304
2951.34	4.37467
2952.64	4.47425
2953.95	4.55824
2955.25	4.09578
2956.55	3.7743
2957.85	4.70071
2959.15	3.83832
2960.45	3.86078
2961.75	3.89954
2963.05	3.81305
2964.35	3.85225
2965.65	3.84783
2966.95	3.75725
2968.25	3.91815
2969.55	3.62826
2970.85	3.50685
2972.15	3.27314
2973.45	3.1945
2974.75	3.28475
2976.05	3.12096
2977.34	2.85718
2978.64	3.0421
2979.94	2.8731
2981.24	2.88563
2982.53	2.96779
2983.83	2.17853
2985.13	2.54346
2986.42	2.1932
2987.72	2.15376
2989.01	2.2138
2990.31	2.06339
2991.61	1.84219
2992.9	1.46529
2994.19	1.7335
2995.49	1.39632
2996.78	1.49382
2998.08	0.777042
2999.37	1.39371
3000.67	1.12706
3001.96	1.25371
3003.25	0.596032
3004.55	0.6393
3005.84	0.766308
3007.13	0.710612
3008.42	1.08782
3009.72	0.386938
3011.01	0.664293
3012.3	0.521893
3013.59	0.854009
3014.88	0.60055
3016.17	0.417845
3017.46	0.333625
3018.76	0.194404
3020.05	0.347499
3021.34	0.152497
3022.63	0.373561
3023.92	0.176904
3025.21	0.146146
3026.49	0.0874767
3027.78	0.319958
3029.07	-0.193419
3030.36	0.0968542
3031.65	0.195013
3032.94	0.239018
3034.23	0.0349646
3035.51	0.272002
3036.8	0.438514
3038.09	0.547761
3039.38	0.25562
3040.66	0.168605
3041.95	0.121981
3043.23	0.253561
3044.52	0.00236702
3045.81	0.382433
3047.09	0.354252
3048.38	0.328659
3049.66	0.510139
3050.95	0.666027
3052.23	0.0177717
3053.52	0.420284
3054.8	0.330918
3056.09	0.0904627
3057.37	0.3398
3058.65	0.438135
3059.94	0.781117
3061.22	0.688606
3062.5	0.610847
3063.79	0.276322
3065.07	0.283483
3066.35	0.400926
3067.63	0.397143
3068.92	0.543411
3070.2	0.186243
3071.48	0.236182
3072.76	0.325629
3074.04	0.304935
3075.32	0.56856
3076.6	0.138916
3077.88	0.117321
3079.16	-0.228776
3080.44	0.308597
3081.72	0.291385
3083	0.112779
3084.28	0.0570059
3085.56	-0.0801048
3086.84	0.311658
3088.12	-0.260987
3089.4	0.346482
3090.67	-0.0101652
3091.95	-0.0819292
3093.23	0.212716
3094.51	0.277034
3095.78	0.0704689
3097.06	0.0132122
3098.34	-0.111835
3099.61	-0.413099
3100.89	-0.091145
3102.17	0.0275593
3103.44	-0.0430517
3104.72	0.0358019
3105.99	0.0477324
3107.27	0.0606346
3108.54	0.223504
3109.82	0.0897794
3111.09	0.17369
3112.37	0.312685
3113.64	0.208371
3114.92	0.0497694
3116.19	0.0533314
3117.46	0.0967054
3118.74	0.369574
3120.01	-0.0911012
3121.28	-0.0102191
3122.55	-0.160386
3123.83	0.0686679
3125.1	0.433095
3126.37	0.269872
3127.64	0.161508
3128.91	0.148469
3130.19	-0.202177
3131.46	0.0557857
3132.73	0.502662
3134	0.34102
3135.27	0.678489
3136.54	0.137998
3137.81	-0.0247865
3139.08	0.000916481
3140.35	0.255238
3141.62	0.19988
3142.89	0.239007
3144.16	0.627658
3145.42	0.305354
3146.69	0.158545
3147.96	0.535147
3149.23	0.429914
