200.43	-0.270337
202.246	-0.24587
204.061	-0.219989
205.875	0.560938
207.688	0.369146
209.501	0.444359
211.316	0.566969
213.129	0.49385
214.941	0.32264
216.753	0.151093
218.566	0.101029
220.377	-0.262914
222.188	-0.577005
223.999	0.0289392
225.809	-0.0416679
227.618	1.0716
229.43	0.517495
231.239	-0.398741
233.047	0.229502
234.855	0.254749
236.663	0.112624
238.471	0.310259
240.278	-0.42944
242.087	-0.00966072
243.894	0.460131
245.7	-0.324667
247.506	0.409355
249.311	-0.428695
251.116	0.202814
252.921	0.46901
254.725	-0.063014
256.529	0.176557
258.333	0.0311766
260.136	0.0562992
261.939	-0.012887
263.744	-0.128441
265.546	0.0944128
267.348	0.0767336
269.15	0.227461
270.951	0.208606
272.752	-0.221383
274.552	0.359756
276.353	0.239934
278.152	-0.00230312
279.952	-0.246467
281.751	-0.227714
283.55	-0.186893
285.348	0.188699
287.146	-0.01334
288.942	0.192585
290.739	0.614494
292.536	-0.470835
294.333	-0.0460739
296.129	-0.457053
297.925	0.519581
299.721	0.0864649
301.516	0.107236
303.311	0.365845
305.106	0.742208
306.9	-0.0993004
308.694	-0.296539
310.486	-0.111864
312.279	0.836
314.072	0.499291
315.864	0.759945
317.656	-0.19197
319.448	0.691589
321.24	0.0993929
323.029	0.222782
324.819	0.179745
326.61	1.09182
328.4	-0.097744
330.19	0.599095
331.977	0.123364
333.766	0.865661
335.555	0.122276
337.343	0.333508
339.131	0.662005
340.917	-0.0397997
342.704	-0.192142
344.491	-0.272797
346.277	0.220288
348.062	-0.193643
349.848	0.13318
351.633	-0.0413656
353.416	0.0937481
355.201	0.657039
356.986	0.240834
358.77	0.490828
360.552	1.31075
362.335	-0.060873
364.118	0.161876
365.899	0.193385
367.682	0.43759
369.464	0.538079
371.243	-0.167959
373.025	0.664653
374.806	-0.372046
376.585	-0.060873
378.365	0.509476
380.143	0.537764
381.923	0.473065
383.702	0.198112
385.479	0.300926
387.258	0.263908
389.034	-0.124333
390.812	0.0522499
392.59	0.206091
394.365	0.125653
396.142	0.186474
397.916	0.482204
399.693	0.824722
401.467	-0.313023
403.242	0.239671
405.015	-0.406314
406.79	0.191629
408.565	0.107821
410.337	0.493088
412.111	0.972057
413.882	0.348412
415.656	0.66413
417.426	-0.474151
419.197	1.03975
420.969	-0.262177
422.739	0.383553
424.51	-0.309475
426.279	0.0998507
428.05	0.0387459
429.819	0.657785
431.589	0.196979
433.356	0.534448
435.124	-0.230851
436.893	0.153789
438.66	0.232561
440.428	-0.159502
442.194	-0.248482
443.96	0.0589533
445.727	0.293747
447.492	0.26937
449.259	-0.223208
451.023	0.359828
452.787	-0.0382938
454.553	-0.0157328
456.316	-0.529337
458.079	-0.390256
459.844	-0.0885134
461.606	0.166883
463.368	0.609413
465.132	0.403495
466.893	0.223816
468.654	0.53494
470.415	0.429705
472.177	0.301723
473.937	0.475456
475.696	0.181627
477.456	1.09669
479.217	0.0996075
480.975	0.662108
482.733	0.223109
484.491	0.204494
486.251	0.677029
488.008	0.126605
489.765	0.207335
491.522	0.989527
493.278	-0.142125
495.036	1.03957
496.791	0.584748
498.546	0.808195
500.301	1.03151
502.056	0.667694
503.81	0.466722
505.566	1.13386
507.319	0.859575
509.073	0.936194
510.825	0.0934067
512.578	0.990034
514.33	0.732016
516.082	1.13124
517.833	0.541144
519.587	0.561555
521.337	0.322643
523.088	1.16367
524.838	0.759547
526.588	0.332323
528.337	0.374459
530.087	0.158617
531.835	0.926263
533.584	0.872853
535.332	0.888376
537.08	0.645246
538.827	0.0975246
540.574	0.97225
542.321	0.260124
544.068	0.619418
545.814	0.768624
547.56	0.0124855
549.305	0.649229
551.05	1.26157
552.795	0.577409
554.54	0.241474
556.284	1.01445
558.027	0.679373
559.771	-0.000160217
561.514	-0.0334244
563.257	-0.0660915
564.999	-0.00622463
566.742	0.306847
568.481	0.207107
570.223	-0.258669
571.964	-0.149268
573.705	0.191074
575.445	0.510253
577.185	0.532983
578.925	0.442341
580.665	0.145708
582.402	0.813995
584.141	-0.0579729
585.879	0.0802116
587.617	0.0331469
589.355	0.513961
591.092	0.0274982
592.828	0.713837
594.564	0.36462
596.301	-0.0305901
598.037	0.172327
599.773	0.236812
601.506	0.277413
603.242	-0.37327
604.976	0.400327
606.711	-0.0459805
608.443	0.357017
610.177	-0.273438
611.91	0.0835781
613.644	0.46394
615.374	-0.0720644
617.107	0.721305
618.839	0.391336
620.569	0.152096
622.3	0.575213
624.032	0.356729
625.761	0.572541
627.491	0.19555
629.221	0.0947647
630.949	0.338687
632.679	0.675993
634.408	0.831961
636.135	0.257188
637.863	0.388204
639.592	0.790209
641.318	1.12022
643.045	0.307497
644.77	0.929242
646.497	0.753927
648.224	0.558144
649.948	0.274988
651.674	0.427608
653.398	-0.415792
655.123	0.744889
656.846	0.430011
658.57	0.662583
660.293	0.689865
662.017	0.555666
663.738	0.624496
665.462	0.62221
667.185	0.777915
668.905	1.3445
670.628	0.722448
672.348	0.628444
674.067	0.788831
675.789	0.997639
677.508	0.955865
679.228	0.638594
680.947	0.641517
682.667	1.12569
684.385	0.825458
686.104	1.1445
687.821	0.747946
689.538	1.27146
691.256	0.389049
692.972	0.74984
694.69	0.85641
696.406	1.12307
698.121	0.743705
699.837	0.892479
701.552	0.257918
703.268	0.611375
704.982	1.10141
706.695	0.626232
708.41	0.862197
710.123	1.05154
711.836	0.896757
713.55	1.13071
715.262	1.02123
716.973	0.729231
718.685	1.5556
720.398	1.03597
722.108	1.1095
723.818	0.818909
725.53	1.18793
727.24	0.64747
728.949	0.879076
730.658	1.01907
732.369	0.433607
734.077	0.731493
735.785	1.72949
737.493	1.37109
739.2	0.946428
740.909	1.24483
742.616	1.4315
744.322	0.606326
746.028	0.616078
747.734	1.50465
749.441	1.0672
751.146	1.98077
752.851	1.34382
754.555	1.02319
756.26	0.501427
757.963	1.53442
759.667	1.69152
761.372	1.8952
763.075	0.836293
764.777	1.19807
766.479	1.55917
768.181	1.42136
769.883	1.64287
771.584	1.81697
773.285	1.87639
774.986	1.8222
776.686	1.9947
778.386	2.30432
780.085	1.43976
781.785	1.8429
783.484	1.61285
785.182	1.65312
786.881	1.80406
788.579	1.49886
790.276	1.48438
791.974	1.28616
793.671	1.49295
795.367	1.74412
797.064	1.61265
798.76	1.43816
800.456	2.68386
802.151	1.81519
803.846	1.60023
805.541	1.58762
807.236	1.9786
808.93	0.88573
810.624	1.43123
812.317	0.719187
814.01	1.80013
815.703	1.75966
817.394	2.05475
819.086	1.3884
820.778	1.61655
822.47	1.55468
824.161	1.42688
825.852	2.32579
827.543	2.20163
829.231	2.10297
830.921	2.05229
832.611	2.0494
834.3	2.65079
835.989	2.13888
837.676	0.778112
839.364	1.58061
841.053	1.19824
842.74	1.77493
844.426	1.81499
846.113	1.8111
847.8	1.63028
849.486	1.40722
851.171	2.08224
852.857	1.70727
854.542	2.11796
856.227	1.2715
857.911	1.56884
859.595	1.00984
861.279	0.8309
862.961	0.582481
864.645	0.670585
866.329	1.27631
868.01	0.100297
869.692	1.08846
871.375	1.37739
873.055	1.30524
874.737	1.18785
876.418	1.77004
878.097	1.69789
879.778	1.24188
881.457	1.66583
883.137	0.7345
884.817	1.56286
886.495	1.12557
888.174	1.92772
889.851	0.675281
891.53	1.09038
893.206	0.692776
894.884	1.57711
896.562	1.22228
898.237	0.844607
899.914	0.668622
901.589	0.469821
903.265	0.673688
904.94	1.10035
906.615	0.834234
908.289	0.391107
909.964	0.996552
911.637	1.357
913.31	1.073
914.984	1.23401
916.656	1.0177
918.33	0.602271
920.001	1.007
921.674	0.836414
923.345	0.866286
925.015	0.721146
926.687	0.776841
928.357	0.635686
930.028	0.142871
931.698	1.04098
933.366	0.725827
935.037	0.256565
936.705	-0.0136366
938.373	0.885962
940.043	0.573833
941.71	0.682078
943.379	0.107144
945.046	0.613316
946.712	0.390077
948.378	0.78301
950.046	0.710361
951.711	0.0628366
953.376	0.320022
955.043	0.733016
956.708	0.575564
958.372	-0.063817
960.036	0.513037
961.701	0.71685
963.364	0.279863
965.027	0.548372
966.69	0.57097
968.354	0.0374641
970.016	0.630133
971.678	0.934115
973.339	0.597139
975	0.814627
976.661	0.636026
978.324	0.30416
979.984	0.260526
981.644	0.21651
983.303	0.636016
984.962	1.00925
986.621	1.07025
988.282	1.46106
989.94	0.611781
991.598	1.02242
993.256	0.593091
994.913	1.29016
996.57	0.398148
998.227	1.31517
999.884	1.10705
1001.54	1.29517
1003.2	0.536269
1004.85	0.415835
1006.51	0.163608
1008.16	0.482831
1009.82	-0.251353
1011.47	0.507141
1013.12	0.410449
1014.78	0.708572
1016.43	0.481432
1018.08	0.123833
1019.74	0.685992
1021.39	0.549241
1023.04	0.544945
1024.69	0.563572
1026.34	0.561013
1028	0.97366
1029.65	1.36368
1031.3	0.550964
1032.95	0.654003
1034.6	0.624242
1036.25	-0.126439
1037.9	0.9531
1039.55	1.66078
1041.19	1.12833
1042.84	1.51108
1044.49	1.13501
1046.14	1.13071
1047.79	0.477072
1049.43	0.520287
1051.08	0.999314
1052.73	0.958055
1054.37	0.634742
1056.02	1.1807
1057.66	0.465731
1059.31	0.728414
1060.95	1.0992
1062.6	0.0122719
1064.24	0.511715
1065.88	0.770799
1067.53	0.485242
1069.17	0.00329971
1070.81	0.976062
1072.46	0.515193
1074.1	0.315622
1075.74	-0.208055
1077.38	0.0506287
1079.02	0.332256
1080.66	0.354498
1082.3	0.0515089
1083.94	0.0729179
1085.58	0.786316
1087.22	0.0886326
1088.86	-0.177395
1090.5	0.507173
1092.14	0.324614
1093.78	0.595366
1095.42	1.01684
1097.05	0.684006
1098.69	0.611709
1100.33	0.2616
1101.97	0.451863
1103.6	-0.0444479
1105.24	0.364246
1106.87	0.752001
1108.51	0.27918
1110.15	-0.302107
1111.78	0.748808
1113.41	0.551092
1115.05	0.931871
1116.68	0.303185
1118.31	0.361509
1119.95	0.913244
1121.58	0.801695
1123.21	0.841281
1124.85	0.282918
1126.48	0.538648
1128.11	0.64544
1129.74	-0.0167198
1131.37	-0.100854
1133	-0.291518
1134.63	0.565147
1136.26	0.138603
1137.89	0.736769
1139.52	0.0730476
1141.15	-0.27094
1142.78	0.15309
1144.41	0.0223017
1146.04	0.0842409
1147.66	0.211092
1149.29	-0.215111
1150.92	0.126238
1152.55	0.0628614
1154.17	0.0417585
1155.8	-0.107436
1157.43	0.126307
1159.05	-0.192708
1160.68	0.191068
1162.3	-0.253309
1163.93	-0.101238
1165.55	0.264011
1167.17	-0.20018
1168.8	0.0787096
1170.42	0.185714
1172.05	-0.283006
1173.67	0.159917
1175.29	0.0917397
1176.91	0.107914
1178.54	0.0607328
1180.16	0.0143642
1181.78	-0.327142
1183.4	0.0301514
1185.02	0.408245
1186.64	-0.165309
1188.26	0.547344
1189.88	-0.303179
1191.5	-0.0590382
1193.12	-0.0903997
1194.74	-0.332482
1196.36	0.495399
1197.97	-0.311132
1199.59	-0.486478
1201.21	0.53188
1202.83	0.131697
1204.44	0.110404
1206.06	-0.138099
1207.68	0.115582
1209.29	0.494698
1210.91	0.414041
1212.52	0.498424
1214.14	0.642865
1215.75	0.139199
1217.37	0.549788
1218.98	0.0233221
1220.6	0.847145
1222.21	0.36354
1223.82	0.835312
1225.44	0.790391
1227.05	0.250593
1228.66	1.47093
1230.27	1.26513
1231.88	0.482044
1233.49	1.06466
1235.1	1.04922
1236.72	0.415063
1238.33	1.33233
1239.94	0.658543
1241.55	0.874044
1243.16	0.841052
1244.76	1.3659
1246.37	1.16548
1247.98	1.026
1249.59	1.03054
1251.2	1.11749
1252.8	1.82519
1254.41	1.47875
1256.02	1.36109
1257.63	1.05861
1259.23	1.00562
1260.84	1.11919
1262.44	2.22734
1264.05	1.18198
1265.66	1.58602
1267.26	2.03095
1268.87	2.08106
1270.47	1.57013
1272.07	2.09468
1273.68	1.49843
1275.28	1.9169
1276.88	1.62953
1278.48	1.0307
1280.09	1.98461
1281.69	1.03325
1283.29	1.55167
1284.89	1.59464
1286.49	1.82465
1288.09	1.8284
1289.69	1.85389
1291.3	1.94197
1292.9	2.17459
1294.49	1.18748
1296.09	1.66573
1297.69	2.2244
1299.29	2.53296
1300.89	2.32388
1302.49	1.66047
1304.09	2.00555
1305.68	2.16409
1307.28	1.7056
1308.88	1.88371
1310.47	1.71306
1312.07	1.85029
1313.66	1.9472
1315.26	1.88161
1316.86	1.59264
1318.45	1.57002
1320.05	1.83272
1321.64	1.86995
1323.23	1.60012
1324.83	1.9184
1326.42	1.62528
1328.01	2.22431
1329.61	1.81004
1331.2	1.64125
1332.79	1.61675
1334.38	1.91787
1335.98	2.03889
1337.57	1.89826
1339.16	1.73692
1340.75	1.83579
1342.34	1.46926
1343.93	1.44299
1345.52	1.61631
1347.11	1.36822
1348.7	1.58323
1350.29	1.84061
1351.87	0.540452
1353.46	1.54295
1355.05	1.32701
1356.64	0.63205
1358.23	0.995788
1359.81	0.63942
1361.4	1.00077
1362.99	0.862154
1364.57	1.34132
1366.16	0.804056
1367.74	1.38339
1369.33	0.98814
1370.91	1.4902
1372.5	1.0186
1374.08	0.94624
1375.67	1.09349
1377.25	0.862791
1378.83	0.949954
1380.42	1.21511
1382	1.53844
1383.58	1.04483
1385.16	0.987804
1386.75	0.811137
1388.33	1.09151
1389.91	0.895959
1391.49	1.01899
1393.07	0.924588
1394.65	0.473652
1396.23	0.756418
1397.81	0.820251
1399.39	1.10095
1400.97	1.57842
1402.55	0.966036
1404.13	0.651029
1405.7	0.752124
1407.28	1.01214
1408.86	1.11481
1410.44	0.941437
1412.01	1.32105
1413.59	0.653578
1415.17	1.3274
1416.74	1.21082
1418.32	1.54724
1419.89	0.721406
1421.47	1.11826
1423.05	1.18186
1424.62	1.30625
1426.19	1.11709
1427.77	1.77488
1429.34	1.84192
1430.92	1.61273
1432.49	1.95297
1434.06	2.44934
1435.63	1.96154
1437.2	2.10339
1438.78	2.34428
1440.35	1.91801
1441.92	2.5738
1443.49	1.9333
1445.06	2.04004
1446.63	2.61874
1448.2	2.35243
1449.77	2.02741
1451.34	2.48932
1452.91	2.53901
1454.48	2.58916
1456.05	2.16708
1457.62	2.2361
1459.18	2.14624
1460.75	2.52674
1462.32	2.29504
1463.89	2.04194
1465.45	2.27919
1467.02	1.82822
1468.59	1.06399
1470.15	1.26301
1471.72	1.01186
1473.28	1.54646
1474.85	0.709039
1476.41	1.24478
1477.98	0.427776
1479.54	1.10068
1481.11	0.969711
1482.67	0.505539
1484.23	1.17779
1485.8	1.10503
1487.36	0.385185
1488.92	0.604218
1490.48	1.01684
1492.05	0.625022
1493.61	0.270728
1495.17	0.461667
1496.73	0.787426
1498.29	1.17046
1499.85	0.153762
1501.41	0.480021
1502.97	-0.0465364
1504.53	0.184425
1506.09	1.15082
1507.65	0.722352
1509.2	0.332322
1510.76	0.598076
1512.32	0.149227
1513.88	0.471002
1515.44	0.561437
1516.99	0.863427
1518.55	0.455996
1520.1	1.08448
1521.66	0.793353
1523.22	0.903924
1524.77	0.688865
1526.33	0.549566
1527.88	0.828588
1529.44	1.16329
1530.99	0.851429
1532.55	1.09083
1534.1	1.02755
1535.65	0.341325
1537.21	1.07465
1538.76	1.41081
1540.31	0.634176
1541.86	0.612687
1543.42	1.53214
1544.97	1.09586
1546.52	1.6369
1548.07	1.20096
1549.62	1.4219
1551.17	1.21192
1552.72	1.56407
1554.27	1.65493
1555.82	1.33627
1557.37	1.13188
1558.92	1.11631
1560.47	1.71836
1562.02	1.0535
1563.57	1.47185
1565.11	1.59235
1566.66	1.97425
1568.21	2.18801
1569.75	2.17739
1571.3	1.97965
1572.85	2.30424
1574.39	2.36731
1575.94	2.24372
1577.49	2.19502
1579.03	1.82937
1580.58	2.22987
1582.12	1.69755
1583.67	2.62302
1585.21	1.86799
1586.75	1.67379
1588.3	2.56441
1589.84	1.6779
1591.38	2.08181
1592.93	1.4556
1594.47	1.87757
1596.01	2.58086
1597.55	2.06679
1599.09	2.60303
1600.63	2.8404
1602.18	2.51549
1603.72	2.20898
1605.26	2.44625
1606.8	2.26872
1608.34	2.05134
1609.87	1.86901
1611.41	1.57151
1612.95	1.74165
1614.49	1.62866
1616.03	1.59035
1617.57	2.37728
1619.11	2.24662
1620.64	1.68697
1622.18	1.93421
1623.72	1.48957
1625.25	1.53178
1626.79	2.52764
1628.32	1.51967
1629.86	2.19403
1631.4	1.96942
1632.93	1.87536
1634.47	2.11771
1636	2.17407
1637.53	1.37349
1639.07	2.81136
1640.6	3.01824
1642.14	1.77114
1643.67	2.60945
1645.2	2.88718
1646.73	2.75437
1648.27	2.37979
1649.8	1.87618
1651.33	2.69178
1652.86	2.39501
1654.39	2.98969
1655.92	2.49115
1657.45	2.30785
1658.98	2.84616
1660.51	3.01225
1662.04	2.06647
1663.57	2.19293
1665.1	2.26312
1666.63	2.31511
1668.16	2.18374
1669.69	2.66241
1671.21	1.92625
1672.74	2.20485
1674.27	2.06026
1675.79	1.98914
1677.32	1.64115
1678.85	1.42105
1680.37	2.26646
1681.9	2.02592
1683.42	1.56496
1684.95	1.39825
1686.47	1.78225
1688	1.90967
1689.52	1.30461
1691.05	1.10322
1692.57	0.902107
1694.1	1.37789
1695.62	0.518429
1697.14	0.408764
1698.66	0.84672
1700.19	0.334711
1701.71	0.734741
1703.23	0.404654
1704.75	0.821132
1706.27	0.526854
1707.79	0.0328112
1709.32	-0.0790472
1710.83	0.535259
1712.35	0.659095
1713.88	0.166865
1715.39	-0.0710659
1716.91	0.324393
1718.43	0.375672
1719.95	0.264261
1721.47	-0.370066
1722.99	0.114879
1724.5	0.347807
1726.02	0.491644
1727.54	0.312621
1729.06	0.53054
1730.57	0.407809
1732.09	0.00390053
1733.61	0.394103
1735.12	0.23221
1736.64	0.838735
1738.15	0.204702
1739.67	0.252598
1741.18	0.575105
1742.7	0.384607
1744.21	0.342963
1745.72	0.113302
1747.24	0.272436
1748.75	0.352526
1750.26	-0.114976
1751.78	0.359962
1753.29	-0.0557795
1754.8	-0.283079
1756.31	-0.097043
1757.82	0.100554
1759.34	0.187395
1760.85	-0.0551167
1762.36	0.378867
1763.87	0.210766
1765.38	0.147513
1766.89	0.01542
1768.4	0.0923357
1769.91	0.312638
1771.41	0.103106
1772.92	0.280868
1774.43	0.433018
1775.94	-0.155278
1777.45	0.233953
1778.96	0.0409155
1780.46	-0.290812
1781.97	0.224293
1783.48	-0.120635
1784.98	-0.339307
1786.49	0.245471
1788	-0.187163
1789.5	0.318462
1791.01	0.053153
1792.51	0.131384
1794.01	-0.116899
1795.52	0.220744
1797.02	0.244925
1798.53	0.12262
1800.03	0.467672
1801.54	0.195698
1803.04	0.226016
1804.54	0.206565
1806.04	-0.0557976
1807.54	0.275813
1809.05	0.298509
1810.55	0.0754309
1812.05	0.195553
1813.55	0.181511
1815.05	0.0590601
1816.55	0.110186
1818.05	0.336291
1819.55	-0.0345554
1821.05	-0.0391788
1822.55	0.0849075
1824.05	0.0587912
1825.55	-0.218877
1827.05	0.244988
1828.55	0.119019
1830.04	-0.26454
1831.54	0.252121
1833.04	0.0582619
1834.54	-0.0307178
1836.03	0.0401649
1837.53	-0.242455
1839.03	0.0210247
1840.52	0.171023
1842.02	0.0210419
1843.51	0.209828
1845.01	0.145921
1846.5	0.00184536
1848	0.0868673
1849.49	0.0178413
1850.99	0.047431
1852.48	0.0769472
1853.97	0.0589476
1855.47	0.232169
1856.96	-0.0596304
1858.45	-0.102779
1859.94	-0.261315
1861.44	0.13014
1862.93	0.170915
1864.42	-0.256995
1865.91	-0.113175
1867.4	0.150407
1868.89	0.265009
1870.38	0.243447
1871.87	-0.0157795
1873.36	0.165204
1874.85	-0.293913
1876.34	-0.0741091
1877.83	-0.0137768
1879.32	0.0244102
1880.81	0.24193
1882.3	0.0267792
1882.56	-0.0279617
1884.06	0.215599
1885.55	0.0225716
1887.04	0.299141
1888.54	0.279006
1890.03	0.189494
1891.52	-0.0033226
1893.02	-0.281434
1894.51	0.467953
1896	0.332124
1897.49	0.0926867
1898.99	-0.129591
1900.48	0.221198
1901.97	0.257287
1903.46	0.0655594
1904.95	0.272407
1906.44	0.252432
1907.93	-0.0106535
1909.42	-0.168772
1910.91	-0.325908
1912.4	0.194379
1913.89	0.229346
1915.38	0.316389
1916.86	-0.18639
1918.35	0.142506
1919.84	0.0549393
1921.33	-0.327106
1922.82	0.105292
1924.3	-0.0156755
1925.79	0.0548735
1927.28	-0.0640192
1928.76	0.146626
1930.25	-0.162238
1931.74	-0.00434971
1933.22	-0.0902624
1934.71	-0.541292
1936.19	-0.284101
1937.67	0.248356
1939.16	-0.0323925
1940.64	0.188251
1942.13	0.323163
1943.61	0.320961
1945.09	0.164393
1946.58	0.0599804
1948.06	-0.268638
1949.54	-0.27041
1951.03	0.191768
1952.51	-0.00131798
1953.99	-0.108722
1955.47	0.350992
1956.95	0.329657
1958.43	0.017251
1959.91	0.0832481
1961.39	-0.244688
1962.87	-0.0237064
1964.35	0.385362
1965.83	-0.165414
1967.31	0.344857
1968.79	0.186818
1970.27	0.301896
1971.75	0.143266
1973.22	0.036006
1974.7	0.184821
1976.18	0.043849
1977.66	0.107617
1979.13	0.13734
1980.61	0.0989475
1982.09	-0.0925503
1983.56	0.140584
1985.04	0.271201
1986.52	0.0282583
1987.99	-0.0109606
1989.47	0.458183
1990.94	0.318127
1992.41	0.212984
1993.89	0.227244
1995.36	0.259172
1996.84	0.223915
1998.31	0.593944
1999.78	0.321754
2001.26	-0.00143433
2002.73	0.0462608
2004.2	0.127499
2005.67	0.0067873
2007.15	0.0384645
2008.62	-0.198406
2010.09	0.121187
2011.56	-0.114326
2013.03	0.121525
2014.5	0.0539789
2015.97	0.305381
2017.44	0.421194
2018.91	-0.00183582
2020.38	0.129492
2021.85	0.42848
2023.32	0.240732
2024.79	0.389481
2026.25	0.153496
2027.72	0.187322
2029.19	0.222569
2030.66	-0.462285
2032.13	0.0448446
2033.59	0.569545
2035.06	0.00300121
2036.53	0.141271
2037.99	0.531151
2039.46	-0.104392
2040.92	0.15069
2042.39	0.540774
2043.85	0.275851
2045.32	-0.00523663
2046.78	0.320213
2048.25	-0.111751
2049.71	0.433048
2051.18	0.269176
2052.64	0.37353
2054.1	0.61106
2055.56	0.610744
2057.03	0.642779
2058.49	0.893059
2059.95	0.536622
2061.42	0.214549
2062.88	0.347946
2064.34	0.566406
2065.8	0.550205
2067.26	0.736782
2068.72	0.755661
2070.18	0.859022
2071.64	0.760439
2073.1	0.914247
2074.56	0.411084
2076.02	0.379044
2077.48	0.2456
2078.94	0.330694
2080.39	0.550041
2081.85	0.566754
2083.31	0.111491
2084.77	0.497139
2086.22	0.595848
2087.68	0.794747
2089.14	0.858593
2090.6	0.87178
2092.05	0.683414
2093.51	1.43479
2094.96	0.92732
2096.42	0.889196
2097.87	0.699716
2099.33	0.945008
2100.78	1.00566
2102.24	1.11659
2103.69	0.827469
2105.15	1.35778
2106.6	1.35521
2108.05	1.45382
2109.51	1.38598
2110.96	1.0342
2112.41	1.44778
2113.86	1.55937
2115.32	1.25311
2116.77	1.46178
2118.22	1.68706
2119.67	1.64789
2121.12	1.69382
2122.57	1.82473
2124.02	2.02352
2125.47	1.67579
2126.92	1.69256
2128.37	1.64192
2129.82	2.15321
2131.27	1.70201
2132.72	2.30978
2134.17	2.13934
2135.62	2.79669
2137.06	2.18255
2138.51	2.03354
2139.96	1.9858
2141.41	2.10515
2142.85	2.19281
2144.3	2.46323
2145.75	2.66782
2147.19	2.88878
2148.64	2.09882
2150.09	2.88127
2151.53	2.58586
2152.97	2.32239
2154.42	3.13496
2155.86	2.90315
2157.31	2.68806
2158.75	2.58979
2160.2	2.84094
2161.64	2.9451
2163.08	3.11785
2164.53	2.82808
2165.97	3.20298
2167.41	2.99678
2168.86	3.38753
2170.3	2.86174
2171.74	3.23147
2173.18	2.58417
2174.62	3.06645
2176.06	3.04901
2177.5	3.08172
2178.94	3.1652
2180.38	3.06697
2181.82	3.05291
2183.26	2.59053
2184.7	2.95995
2186.14	2.94697
2187.58	2.65114
2189.02	2.72138
2190.46	2.79162
2191.89	2.77833
2193.33	2.73086
2194.77	2.532
2196.21	2.46428
2197.64	2.1947
2199.08	2.2893
2200.52	1.86759
2201.95	2.50888
2203.39	2.00528
2204.83	2.28281
2206.26	2.11374
2207.7	2.14418
2209.13	2.05847
2210.57	2.51814
2212	2.23181
2213.43	1.96155
2214.87	1.77414
2216.3	1.80222
2217.73	1.9305
2219.17	1.61476
2220.6	1.72879
2222.03	1.69454
2223.47	1.70896
2224.9	1.93592
2226.33	1.73289
2227.76	1.38044
2229.19	1.47073
2230.62	0.985865
2232.05	1.2884
2233.49	1.19773
2234.91	1.2225
2236.34	0.987068
2237.77	1.27601
2239.2	1.40341
2240.63	0.717249
2242.06	0.897552
2243.49	0.720248
2244.92	0.804243
2246.35	0.806021
2247.78	0.69206
2249.2	0.999886
2250.63	0.506892
2252.06	0.810518
2253.48	0.299726
2254.91	0.651247
2256.34	0.532821
2257.76	1.16325
2259.19	0.757921
2260.61	0.582666
2262.04	0.669389
2263.46	0.514121
2264.89	0.976498
2266.31	0.349572
2267.74	0.941364
2269.16	0.230771
2270.59	0.349209
2272.01	0.353254
2273.43	1.26918
2274.85	0.980143
2276.28	0.658598
2277.7	0.467452
2279.12	0.944674
2280.54	0.623053
2281.97	0.725231
2283.39	0.370566
2284.81	0.489017
2286.23	0.607747
2287.65	0.384019
2289.07	0.356572
2290.49	0.525579
2291.91	0.842132
2293.33	0.47218
2294.75	0.167332
2296.17	0.418682
2297.59	0.309932
2299.01	0.151996
2300.42	0.387464
2301.84	0.426649
2303.26	0.302089
2304.68	0.440187
2306.1	0.233471
2307.51	0.502724
2308.93	0.0648432
2310.35	0.39896
2311.76	0.107854
2313.18	0.0962677
2314.59	0.216739
2316.01	0.436803
2317.43	0.427171
2318.84	-0.0271368
2320.26	0.0621214
2321.67	0.315442
2323.08	0.253546
2324.5	0.403984
2325.91	0.123269
2327.33	1.01201
2328.74	0.712464
2330.15	0.808772
2331.56	-0.114842
2332.98	-0.0821543
2334.39	0.543632
2335.8	0.165889
2337.21	-0.0311995
2338.62	-0.0975351
2340.04	0.426684
2341.45	-0.0687218
2342.86	0.141711
2344.27	0.401037
2345.68	0.185018
2347.09	0.346254
2348.5	0.0981026
2349.91	0.160704
2351.31	0.222491
2352.72	-0.190383
2354.13	0.0493011
2355.54	0.173779
2356.95	-0.09307
2358.36	-0.0178127
2359.76	0.463563
2361.17	-0.240746
2362.58	-0.084321
2363.98	-0.0578785
2365.39	-0.0477247
2366.8	0.011076
2368.21	-0.0426941
2369.61	0.0175133
2371.02	-0.114584
2372.42	0.254114
2373.83	0.0436869
2375.23	-0.214499
2376.64	-0.0705862
2378.04	0.0882654
2379.44	0.0365877
2380.85	0.416864
2382.25	-0.0868807
2383.66	-0.0137367
2385.06	0.202982
2386.46	0.179934
2387.86	-0.00179577
2389.26	-0.00666809
2390.67	0.356033
2392.07	0.67157
2393.47	0.17625
2394.87	0.175238
2396.27	-0.0953727
2397.67	-0.317538
2399.07	0.191824
2400.47	-0.0293198
2401.87	0.0199165
2403.27	0.196228
2404.67	-0.215363
2406.07	0.197882
2407.47	-0.135778
2408.87	0.227959
2410.27	0.384964
2411.67	0.272704
2413.07	0.00296879
2414.46	0.193729
2415.86	0.164176
2417.26	0.0883722
2418.66	-0.287461
2420.05	0.603876
2421.45	0.275731
2422.84	0.0580378
2424.24	-0.144116
2425.64	0.319295
2427.03	0.165221
2428.43	-0.067369
2429.82	0.319282
2431.22	0.294376
2432.61	0.380694
2434.01	0.545992
2435.4	0.265486
2436.79	0.364775
2438.19	0.351403
2439.58	0.225614
2440.97	0.146675
2442.37	0.0672903
2443.76	0.368534
2445.15	0.494892
2446.54	0.383179
2447.93	0.350673
2449.33	0.223145
2450.72	0.0484509
2452.11	0.254248
2453.5	0.160017
2454.89	0.14573
2456.28	0.369375
2457.67	0.213655
2459.06	0.215966
2460.45	0.122848
2461.84	-0.0026083
2463.23	0.266417
2464.62	-0.160458
2466	-0.445111
2467.39	0.438504
2468.78	-0.0198541
2470.17	0.105535
2471.55	-0.14792
2472.94	-0.322942
2474.33	0.194229
2475.72	0.19096
2477.1	0.29737
2478.49	0.230821
2479.87	0.368527
2481.26	0.506182
2482.65	0.126535
2484.03	0.279297
2485.42	0.337111
2486.8	0.56557
2488.19	0.0122542
2489.57	0.160902
2490.95	0.293477
2492.34	-0.226635
2493.72	0.155991
2495.1	0.39947
2496.49	0.256238
2497.87	-0.242216
2499.25	0.20441
2500.63	0.155148
2502.02	0.136129
2503.4	0.100795
2504.78	0.373188
2506.16	-0.00269842
2507.54	0.176077
2508.92	0.200847
2510.3	-0.219382
2511.68	0.159588
2513.06	-0.151181
2514.44	-0.0471301
2515.82	-0.00366354
2517.2	-0.403152
2518.58	0.100297
2519.96	-0.00785542
2521.34	-0.131415
2522.72	-0.133323
2524.1	0.214813
2525.47	0.394114
2526.85	0.192195
2528.23	-0.0698719
2529.6	0.520947
2530.98	0.291929
2532.36	0.0950584
2533.74	-0.206844
2535.11	0.29712
2536.49	0.117357
2537.86	-0.351633
2539.24	0.0747447
2540.61	0.22685
2541.99	0.0597987
2543.36	-0.21308
2544.74	0.045856
2546.11	0.123833
2547.49	-0.0245981
2548.86	-0.0661073
2550.23	-0.0924172
2551.61	0.153993
2552.98	-0.0557055
2554.35	0.128225
2555.72	0.0381866
2557.09	-0.0219774
2558.47	-0.0215673
2559.84	0.570293
2561.21	0.343969
2562.58	0.118315
2563.95	0.120537
2565.32	0.214074
2566.69	-0.177108
2568.06	0.325915
2569.43	0.298528
2570.8	0.149884
2572.17	-0.0290565
2573.54	0.0194287
2574.91	0.204441
2576.28	0.207574
2577.65	0.195467
2579.02	0.0315151
2580.39	0.15533
2581.75	0.263592
2583.12	-0.00754213
2584.49	-0.0514436
2585.85	0.298725
2587.22	0.406425
2588.59	0.377881
2589.95	0.122121
2591.32	-0.11858
2592.68	0.20095
2594.05	-0.101464
2595.42	-0.22291
2596.78	0.305681
2598.15	0.636332
2599.51	-0.137419
2600.88	-0.200005
2602.24	0.145671
2603.6	0.0991521
2604.97	0.324784
2606.33	-0.18871
2607.69	0.202583
2609.06	-0.44717
2610.42	-0.178477
2611.78	0.25421
2613.14	0.128747
2614.51	0.18306
2615.87	0.207018
2617.23	0.0212855
2618.59	0.285734
2619.95	0.221247
2621.31	0.0528736
2622.67	0.0495696
2624.03	0.0464668
2625.39	-0.180524
2626.75	0.248678
2628.11	0.215025
2629.47	0.344921
2630.83	-0.343856
2632.19	-0.0505071
2633.55	0.331441
2634.91	0.0448656
2636.26	0.144289
2637.62	0.228716
2638.98	0.0761552
2640.34	0.382598
2641.69	0.334012
2643.05	0.0937076
2644.41	0.119604
2645.76	-0.0316415
2647.12	0.111779
2648.48	0.519446
2649.83	0.410571
2651.19	0.168942
2652.54	0.162488
2653.9	0.258944
2655.25	0.1214
2656.6	-0.0295558
2657.96	0.274457
2659.31	0.344876
2660.67	-0.0815353
2662.02	-0.010798
2663.37	0.395244
2664.73	0.201571
2666.08	0.269995
2667.43	-0.157619
2668.78	0.332725
2670.14	0.065959
2671.49	0.265324
2672.84	0.188928
2674.19	0.200323
2675.54	0.357372
2676.89	0.572842
2678.24	0.0491095
2679.59	0.120929
2680.94	0.19367
2682.29	-0.0514646
2683.64	-0.17959
2684.99	0.432816
2686.34	0.378561
2687.69	0.556317
2689.04	0.152317
2690.39	0.298347
2691.74	0.166874
2693.08	0.121133
2694.43	0.263056
2695.78	0.201775
2697.13	0.039722
2698.47	-0.0341568
2699.82	0.400271
2701.17	0.4743
2702.51	0.129707
2703.86	0.321978
2705.21	0.398907
2706.55	0.3599
2707.9	0.697889
2709.24	0.179264
2710.58	0.0229349
2711.93	0.0696306
2713.27	-0.101752
2714.62	0.424407
2715.96	0.398288
2717.3	0.48836
2718.65	0.505491
2719.99	-0.0161266
2721.33	0.393064
2722.68	0.510797
2724.02	0.191418
2725.36	0.250059
2726.71	0.424777
2728.05	0.162549
2729.39	0.0747676
2730.73	0.350628
2732.07	0.437247
2733.41	0.523921
2734.75	0.348912
2736.09	0.712258
2737.43	0.377576
2738.77	0.101066
2740.11	-0.175648
2741.45	0.230646
2742.79	0.287306
2744.13	0.328746
2745.47	0.514839
2746.81	-0.0837779
2748.14	-0.188552
2749.48	-0.0175428
2750.82	0.414549
2752.16	0.165145
2753.49	0.423366
2754.83	0.304881
2756.17	0.258999
2757.5	0.372563
2758.84	-0.194065
2760.18	-0.0509338
2761.51	0.0346894
2762.85	0.337756
2764.18	0.0912385
2765.52	0.177488
2766.85	0.219883
2768.19	0.218001
2769.52	0.012495
2770.86	0.311631
2772.19	0.219204
2773.52	0.37125
2774.86	-0.0252962
2776.19	0.0253215
2777.52	-0.0821404
2778.86	-0.0882826
2780.19	-0.252035
2781.52	0.216558
2782.85	0.0818577
2784.19	0.133705
2785.52	-0.0151868
2786.85	0.180025
2788.18	0.16074
2789.51	-0.0151901
2790.84	-0.0900574
2792.17	0.164662
2793.5	0.14806
2794.83	-0.0828929
2796.16	0.0431542
2797.49	-0.00278425
2798.82	0.0507393
2800.15	-0.0674386
2801.48	-0.214291
2802.81	0.00952101
2804.13	-0.280161
2805.46	0.0282469
2806.79	0.00834799
2808.12	0.00212145
2809.45	0.123422
2810.77	-0.309262
2812.1	0.0822759
2813.43	0.289985
2814.75	0.342906
2816.08	-0.184011
2817.41	-0.0153027
2818.73	-0.0586996
2820.06	-0.116279
2821.38	-0.0183654
2822.71	0.461531
2824.03	0.303103
2825.36	0.144424
2826.68	0.198271
2828	0.266727
2829.33	0.165802
2830.65	0.15025
2831.98	0.460456
2833.3	0.600715
2834.62	0.641562
2835.94	0.851741
2837.27	0.948122
2838.59	0.86013
2839.91	0.75784
2841.23	1.17881
2842.55	1.34557
2843.87	1.86625
2845.2	1.76577
2846.52	2.0475
2847.84	1.76429
2849.16	2.14536
2850.48	2.48373
2851.8	2.70849
2853.12	2.57933
2854.44	2.15304
2855.76	2.26356
2857.08	2.31753
2858.39	2.52689
2859.71	2.59495
2861.03	2.56396
2862.35	2.57499
2863.67	3.0796
2864.98	3.18859
2866.3	3.25518
2867.62	3.53355
2868.94	3.55849
2870.25	3.18914
2871.57	3.87723
2872.88	3.88831
2874.2	4.2367
2875.52	4.17521
2876.83	4.1407
2878.15	4.00681
2879.46	4.13997
2880.78	4.11872
2882.09	4.47774
2883.41	3.99501
2884.72	4.29991
2886.03	4.02977
2887.35	4.33524
2888.66	4.05074
2889.97	4.22844
2891.29	4.01247
2892.6	3.97823
2893.91	4.23803
2895.22	4.28798
2896.54	4.59072
2897.85	4.1808
2899.16	4.49969
2900.47	4.69347
2901.78	4.44009
2903.09	5.01224
2904.4	4.96906
2905.71	4.85627
2907.02	5.42949
2908.33	5.37422
2909.64	5.44581
2910.95	5.36413
2912.26	5.89828
2913.57	5.28376
2914.88	6.01162
2916.19	5.9535
2917.5	6.25751
2918.81	6.21045
2920.11	6.55487
2921.42	6.66218
2922.73	6.99456
2924.04	6.81133
2925.34	6.85309
2926.65	7.25901
2927.96	7.77687
2929.26	7.67917
2930.57	7.91631
2931.87	7.81736
2933.18	7.76005
2934.49	7.87044
2935.79	7.26822
2937.1	7.26719
2938.4	7.50395
2939.7	7.23798
2941.01	7.15429
2942.31	6.317
2943.62	6.64095
2944.92	6.49128
2946.22	6.27293
2947.53	5.66335
2948.83	5.86482
2950.13	5.95314
2951.43	5.46538
2952.74	5.38157
2954.04	5.28227
2955.34	5.00064
2956.64	5
2957.94	5.09957
2959.24	5.09013
2960.54	5.11175
2961.84	4.93939
2963.15	4.7255
2964.45	4.95996
2965.75	4.99649
2967.05	3.96314
2968.34	4.29134
2969.64	4.08459
2970.94	4.10269
2972.24	3.43175
2973.54	3.66148
2974.84	4.00394
2976.14	3.10689
2977.43	3.30661
2978.73	2.68798
2980.03	2.96876
2981.33	3.00885
2982.62	2.58424
2983.92	2.84923
2985.22	2.38435
2986.51	2.58165
2987.81	2.49938
2989.11	2.24949
2990.4	1.99984
2991.7	1.66538
2992.99	1.7094
2994.29	1.69601
2995.58	1.66751
2996.88	1.68046
2998.17	1.08981
2999.46	1.31349
3000.76	0.906582
3002.05	1.46767
3003.34	1.23015
3004.64	1.25905
3005.93	0.615511
3007.22	0.811794
3008.52	0.699339
3009.81	0.642137
3011.1	0.682149
3012.39	0.386672
3013.68	0.55205
3014.97	0.522449
3016.27	0.201051
3017.56	0.31236
3018.85	0.145765
3020.14	0.201962
3021.43	0.341117
3022.72	0.354339
3024.01	0.658067
3025.3	0.586245
3026.59	0.334354
3027.88	0.512383
3029.16	0.221168
3030.45	0.180511
3031.74	-0.024405
3033.03	0.0341396
3034.32	0.148169
3035.6	0.454786
3036.89	0.401432
3038.18	0.222516
3039.47	0.413774
3040.75	0.506943
3042.04	0.516685
3043.33	0.2112
3044.61	0.0716572
3045.9	0.221158
3047.18	0.372468
3048.47	0.498561
3049.75	0.299097
3051.04	0.292318
3052.32	0.259086
3053.61	0.45787
3054.89	0.465056
3056.18	0.634959
3057.46	0.708304
3058.74	0.453885
3060.03	0.362978
3061.31	0.544755
3062.59	0.237714
3063.88	0.489755
3065.16	0.280997
3066.44	0.331955
3067.72	0.302341
3069	0.00117302
3070.29	0.216593
3071.57	0.349697
3072.85	0.481705
3074.13	0.259095
3075.41	0.144582
3076.69	0.0571446
3077.97	-0.0840306
3079.25	-0.0205007
3080.53	-0.199737
3081.81	0.260077
3083.09	0.368459
3084.37	0.084105
3085.65	0.0712357
3086.93	0.166605
3088.21	0.0171046
3089.49	0.00281239
3090.76	0.17818
3092.04	0.339879
3093.32	0.244047
3094.6	-0.000533581
3095.87	0.0536089
3097.15	-0.0683136
3098.43	0.0673752
3099.7	-0.230608
3100.98	-0.0813799
3102.26	0.0679379
3103.53	-0.337532
3104.81	0.29998
3106.08	0.13959
3107.36	0.183178
3108.63	0.0654297
3109.91	0.124697
3111.18	0.171458
3112.46	0.205513
3113.73	0.145233
3115	0.234099
3116.28	0.159997
3117.55	-0.0911179
3118.83	0.321504
3120.1	0.122916
3121.37	0.452457
3122.64	0.076654
3123.92	0.0939531
3125.19	0.368809
3126.46	-0.0733132
3127.73	0.337869
3129	0.100204
3130.27	0.417464
3131.55	0.721282
3132.82	0.14662
3134.09	0.382601
3135.36	0.240036
3136.63	0.812325
3137.9	0.251081
3139.17	0.916334
3140.44	0.705624
3141.71	0.374495
3142.98	0.890827
3144.24	0.681956
3145.51	0.83637
3146.78	0.575801
3148.05	0.878994
3149.32	0.432787
