200.43	0.312534
202.246	0.339486
204.061	0.367873
205.875	0.129978
207.688	0.403285
209.501	0.700168
211.316	0.509805
213.129	0.0268774
214.941	0.731894
216.753	0.805076
218.566	0.757226
220.377	0.492428
222.188	0.253347
223.999	0.499222
225.809	-0.0276852
227.618	0.146562
229.43	-0.355773
231.239	0.13128
233.047	0.0868368
234.855	0.862724
236.663	-0.0477486
238.471	-0.545627
240.278	-0.00416756
242.087	-0.448365
243.894	0.82138
245.7	-0.369454
247.506	-0.235072
249.311	0.451735
251.116	-0.120622
252.921	0.703955
254.725	1.01911
256.529	-0.0649672
258.333	0.154303
260.136	-0.0583067
261.939	0.0445671
263.744	0.00488186
265.546	-0.154063
267.348	0.19346
269.15	0.299725
270.951	-0.0771008
272.752	-0.0454502
274.552	-0.328841
276.353	0.253794
278.152	0.472506
279.952	-0.32293
281.751	0.228116
283.55	0.030632
285.348	0.432467
287.146	-0.535497
288.942	0.368644
290.739	-0.500733
292.536	0.308294
294.333	0.256857
296.129	0.326748
297.925	0.373954
299.721	0.565084
301.516	0.182652
303.311	-0.176619
305.106	-0.0119781
306.9	-0.301783
308.694	0.0997238
310.486	0.263109
312.279	0.0942841
314.072	0.594141
315.864	0.262667
317.656	-0.0429821
319.448	-0.132666
321.24	0.0410309
323.029	0.334956
324.819	0.271808
326.61	0.232549
328.4	0.264603
330.19	0.248075
331.977	0.158341
333.766	0.0187244
335.555	-0.0994806
337.343	-0.100668
339.131	0.326355
340.917	-0.03794
342.704	0.314206
344.491	0.426979
346.277	-0.534641
348.062	0.319761
349.848	0.744588
351.633	-0.191228
353.416	0.376001
355.201	-0.346446
356.986	0.360779
358.77	0.279306
360.552	0.148911
362.335	0.112777
364.118	0.860438
365.899	0.109238
367.682	-0.356734
369.464	0.125647
371.243	0.203322
373.025	0.232654
374.806	0.143266
376.585	0.242922
378.365	-0.0815535
380.143	-0.404438
381.923	-0.160641
383.702	0.319342
385.479	-0.069665
387.258	0.153962
389.034	0.0967226
390.812	0.134514
392.59	0.595873
394.365	-0.139857
396.142	0.111123
397.916	0.150786
399.693	0.472061
401.467	0.416974
403.242	-0.296534
405.015	0.0225143
406.79	-0.0351105
408.565	0.423054
410.337	-0.011405
412.111	-0.633463
413.882	1.20885
415.656	0.0717249
417.426	-0.102531
419.197	0.0054245
420.969	0.371819
422.739	-0.177519
424.51	0.704262
426.279	-0.316602
428.05	0.0466509
429.819	-0.388855
431.589	0.23179
433.356	-0.0392294
435.124	0.276801
436.893	-0.392971
438.66	0.368069
440.428	-0.327538
442.194	0.0305557
443.96	-0.176753
445.727	-0.151619
447.492	0.667846
449.259	-0.0581074
451.023	-0.105211
452.787	0.0814819
454.553	0.198085
456.316	0.0580425
458.079	0.66322
459.844	0.452985
461.606	-0.0120573
463.368	0.19908
465.132	0.389386
466.893	0.350441
468.654	0.151766
470.415	0.327054
472.177	0.317053
473.937	0.795083
475.696	0.269929
477.456	0.90675
479.217	0.306791
480.975	-0.061388
482.733	0.33913
484.491	0.484644
486.251	0.702209
488.008	0.712568
489.765	0.841882
491.522	0.925876
493.278	0.917295
495.036	1.02584
496.791	1.01737
498.546	-0.139591
500.301	0.529968
502.056	1.106
503.81	0.601388
505.566	0.329746
507.319	0.973294
509.073	0.368759
510.825	0.373784
512.578	0.659351
514.33	0.89608
516.082	0.354766
517.833	0.870597
519.587	1.17324
521.337	0.816759
523.088	1.42284
524.838	0.76052
526.588	0.638366
528.337	1.05558
530.087	0.956625
531.835	0.997787
533.584	1.27197
535.332	0.445015
537.08	0.76286
538.827	0.774934
540.574	0.389103
542.321	1.2377
544.068	0.0829945
545.814	0.696934
547.56	0.59008
549.305	0.112784
551.05	0.74825
552.795	0.526627
554.54	0.0745811
556.284	0.385442
558.027	0.696059
559.771	0.430628
561.514	0.649655
563.257	0.247897
564.999	0.169133
566.742	1.17075
568.481	0.289546
570.223	0.741308
571.964	0.964872
573.705	0.18093
575.445	0.477139
577.185	0.293426
578.925	0.0651217
580.665	0.549417
582.402	0.781521
584.141	0.185577
585.879	0.139935
587.617	-0.183201
589.355	-0.254725
591.092	0.57
592.828	0.174689
594.564	0.285314
596.301	0.00481701
598.037	-0.252741
599.773	0.800635
601.506	-0.0794115
603.242	0.419319
604.976	0.617198
606.711	0.53762
608.443	0.11269
610.177	0.0552397
611.91	0.84702
613.644	0.17153
615.374	0.276574
617.107	1.13776
618.839	0.715175
620.569	0.406165
622.3	-0.109834
624.032	-0.100361
625.761	0.754257
627.491	0.353257
629.221	0.000440598
630.949	0.12952
632.679	0.489009
634.408	0.986747
636.135	1.0734
637.863	0.952593
639.592	1.26222
641.318	0.26792
643.045	0.160983
644.77	0.280474
646.497	0.468225
648.224	0.566799
649.948	0.191626
651.674	0.457014
653.398	0.658704
655.123	0.909952
656.846	1.36926
658.57	0.554242
660.293	0.490027
662.017	0.538114
663.738	0.583652
665.462	1.26659
667.185	1.69607
668.905	0.752448
670.628	0.403966
672.348	0.721092
674.067	0.652033
675.789	0.287357
677.508	0.74938
679.228	0.799125
680.947	0.709909
682.667	0.457444
684.385	0.754695
686.104	1.04987
687.821	1.06692
689.538	0.645013
691.256	1.32786
692.972	0.904282
694.69	0.433797
696.406	0.768303
698.121	1.12427
699.837	1.01823
701.552	1.1409
703.268	0.986452
704.982	0.808391
706.695	0.974208
708.41	0.978709
710.123	0.914006
711.836	2.08521
713.55	1.01235
715.262	1.42659
716.973	1.36052
718.685	1.27185
720.398	1.54815
722.108	1.25488
723.818	1.07592
725.53	0.874356
727.24	1.55863
728.949	0.607294
730.658	1.62955
732.369	1.08659
734.077	1.20061
735.785	1.26924
737.493	1.54135
739.2	1.56559
740.909	1.45566
742.616	1.30229
744.322	1.55595
746.028	1.65351
747.734	1.46023
749.441	1.651
751.146	1.16855
752.851	1.45237
754.555	1.51292
756.26	2.04787
757.963	1.61699
759.667	1.7281
761.372	1.57019
763.075	1.57065
764.777	2.27079
766.479	2.47345
768.181	2.06371
769.883	2.78157
771.584	1.21307
773.285	2.15285
774.986	1.91614
776.686	1.7479
778.386	1.67163
780.085	2.27564
781.785	1.97642
783.484	1.90355
785.182	1.51244
786.881	2.49939
788.579	1.35486
790.276	2.0396
791.974	1.56744
793.671	2.20058
795.367	2.38096
797.064	1.63803
798.76	2.11438
800.456	2.0071
802.151	1.31671
803.846	1.97706
805.541	2.05225
807.236	1.76689
808.93	2.28888
810.624	1.32763
812.317	1.8691
814.01	2.65547
815.703	1.91792
817.394	2.16575
819.086	2.30148
820.778	1.54396
822.47	1.94836
824.161	1.57272
825.852	2.02369
827.543	2.25402
829.231	1.97538
830.921	2.36856
832.611	2.03024
834.3	1.64964
835.989	1.67134
837.676	1.49202
839.364	2.22669
841.053	1.86554
842.74	2.01645
844.426	1.78692
846.113	1.42396
847.8	1.37585
849.486	2.2031
851.171	1.53436
852.857	1.24776
854.542	1.94899
856.227	1.68569
857.911	1.6679
859.595	1.31059
861.279	1.85133
862.961	1.75994
864.645	1.73452
866.329	1.16693
868.01	1.29731
869.692	0.976144
871.375	1.01542
873.055	1.6862
874.737	1.13864
876.418	0.974585
878.097	1.14908
879.778	1.27836
881.457	1.79105
883.137	1.73854
884.817	1.3687
886.495	1.04246
888.174	1.5268
889.851	1.01662
891.53	1.36166
893.206	1.95239
894.884	1.88816
896.562	1.86767
898.237	1.41933
899.914	0.925941
901.589	1.0153
903.265	0.768113
904.94	1.39294
906.615	1.59235
908.289	1.3016
909.964	1.54701
911.637	1.08114
913.31	0.0614223
914.984	1.28664
916.656	1.82199
918.33	1.35893
920.001	1.09619
921.674	0.923042
923.345	0.618904
925.015	1.1123
926.687	0.194249
928.357	1.00047
930.028	1.23398
931.698	1.38001
933.366	0.9528
935.037	1.0553
936.705	1.04802
938.373	1.15205
940.043	0.772305
941.71	1.09984
943.379	0.854705
945.046	0.807977
946.712	1.11315
948.378	0.709852
950.046	0.789967
951.711	0.14057
953.376	0.32972
955.043	1.02767
956.708	1.15546
958.372	0.934257
960.036	0.672054
961.701	0.521827
963.364	0.879716
965.027	0.683213
966.69	0.571972
968.354	1.65226
970.016	0.783007
971.678	0.930453
973.339	1.23317
975	1.42702
976.661	1.35774
978.324	0.471828
979.984	0.747996
981.644	1.02391
983.303	1.08807
984.962	1.14992
986.621	1.74042
988.282	1.02297
989.94	1.23339
991.598	0.116776
993.256	0.304411
994.913	1.1321
996.57	0.811795
998.227	1.04308
999.884	1.67048
1001.54	1.39374
1003.2	0.9628
1004.85	0.817966
1006.51	1.22259
1008.16	0.946043
1009.82	0.428914
1011.47	0.834063
1013.12	0.691363
1014.78	0.658835
1016.43	0.692526
1018.08	0.858114
1019.74	1.17762
1021.39	0.995318
1023.04	1.4921
1024.69	1.26874
1026.34	1.24287
1028	0.976732
1029.65	1.29978
1031.3	1.49017
1032.95	1.46012
1034.6	0.904405
1036.25	0.783788
1037.9	1.64268
1039.55	1.45527
1041.19	1.00796
1042.84	2.06276
1044.49	1.81509
1046.14	1.04886
1047.79	0.806548
1049.43	1.95623
1051.08	1.56561
1052.73	1.21939
1054.37	0.743145
1056.02	1.35346
1057.66	1.37675
1059.31	1.13855
1060.95	0.703825
1062.6	0.83351
1064.24	1.37521
1065.88	0.611127
1067.53	0.67197
1069.17	0.75335
1070.81	0.464709
1072.46	0.914196
1074.1	0.300707
1075.74	0.578212
1077.38	0.553563
1079.02	1.54963
1080.66	0.703441
1082.3	0.811418
1083.94	0.571452
1085.58	0.264661
1087.22	1.06075
1088.86	1.09557
1090.5	0.587276
1092.14	0.402658
1093.78	0.36896
1095.42	0.184527
1097.05	1.05765
1098.69	0.207849
1100.33	0.652901
1101.97	0.0669479
1103.6	0.343993
1105.24	-0.237864
1106.87	0.299509
1108.51	0.406364
1110.15	0.877442
1111.78	0.486654
1113.41	0.566881
1115.05	0.795802
1116.68	0.530268
1118.31	0.479624
1119.95	0.708377
1121.58	0.424202
1123.21	0.205808
1124.85	0.801796
1126.48	0.927931
1128.11	0.221008
1129.74	0.455979
1131.37	-0.142178
1133	-0.0557718
1134.63	0.137382
1136.26	0.265673
1137.89	-0.248298
1139.52	0.0483732
1141.15	0.300939
1142.78	-0.471586
1144.41	0.335092
1146.04	0.161188
1147.66	0.0311899
1149.29	0.0514469
1150.92	-0.140701
1152.55	-0.354009
1154.17	-0.12049
1155.8	0.176304
1157.43	-0.250603
1159.05	0.386651
1160.68	0.15275
1162.3	0.302977
1163.93	0.0504322
1165.55	-0.584194
1167.17	0.0566435
1168.8	0.589925
1170.42	-0.324269
1172.05	0.183399
1173.67	0.263834
1175.29	-0.16649
1176.91	0.0816183
1178.54	0.0753908
1180.16	0.112329
1181.78	-0.188182
1183.4	-0.212687
1185.02	0.227775
1186.64	-0.135756
1188.26	-0.0575113
1189.88	0.102649
1191.5	-0.223952
1193.12	0.226469
1194.74	0.170808
1196.36	0.304027
1197.97	0.375172
1199.59	0.322727
1201.21	0.335887
1202.83	0.435727
1204.44	0.28815
1206.06	0.53967
1207.68	0.438076
1209.29	-0.184605
1210.91	-0.495128
1212.52	-0.0776072
1214.14	0.0661573
1215.75	0.498666
1217.37	0.637059
1218.98	0.566139
1220.6	1.0557
1222.21	0.134912
1223.82	0.895641
1225.44	0.207656
1227.05	0.515628
1228.66	0.514713
1230.27	0.763433
1231.88	1.32353
1233.49	0.52086
1235.1	0.50517
1236.72	1.11101
1238.33	0.374522
1239.94	0.899916
1241.55	1.36378
1243.16	1.06202
1244.76	0.883375
1246.37	0.889736
1247.98	1.28805
1249.59	1.35433
1251.2	1.83396
1252.8	1.36225
1254.41	1.22245
1256.02	1.84932
1257.63	1.17459
1259.23	1.34942
1260.84	1.85668
1262.44	1.51591
1264.05	1.83785
1265.66	1.5793
1267.26	1.94154
1268.87	1.99178
1270.47	2.08217
1272.07	1.98462
1273.68	1.57478
1275.28	2.1795
1276.88	2.49261
1278.48	1.41657
1280.09	2.4319
1281.69	2.39043
1283.29	2.20433
1284.89	2.97034
1286.49	2.7034
1288.09	2.85136
1289.69	2.23593
1291.3	2.53051
1292.9	2.59769
1294.49	2.49862
1296.09	2.76967
1297.69	2.62552
1299.29	2.45868
1300.89	1.58914
1302.49	2.22313
1304.09	2.60781
1305.68	2.6824
1307.28	2.24274
1308.88	2.50115
1310.47	2.04175
1312.07	2.0956
1313.66	2.4571
1315.26	1.75667
1316.86	2.52868
1318.45	1.6477
1320.05	1.70571
1321.64	2.16993
1323.23	2.08194
1324.83	1.99194
1326.42	1.16957
1328.01	2.376
1329.61	1.89944
1331.2	2.47769
1332.79	2.1686
1334.38	1.66101
1335.98	2.02384
1337.57	2.04414
1339.16	1.86207
1340.75	1.87961
1342.34	1.83411
1343.93	2.14804
1345.52	1.57648
1347.11	1.68817
1348.7	1.90182
1350.29	1.09748
1351.87	0.817376
1353.46	1.59961
1355.05	1.10374
1356.64	0.888381
1358.23	1.55161
1359.81	0.755551
1361.4	0.737345
1362.99	0.797976
1364.57	1.31664
1366.16	1.41658
1367.74	0.88013
1369.33	1.26126
1370.91	0.151279
1372.5	0.953514
1374.08	0.941134
1375.67	0.909668
1377.25	1.6544
1378.83	0.965837
1380.42	0.952664
1382	0.659481
1383.58	0.881995
1385.16	0.58637
1386.75	1.30371
1388.33	1.04751
1389.91	1.3084
1391.49	0.716943
1393.07	1.07897
1394.65	1.75865
1396.23	1.22825
1397.81	0.419774
1399.39	1.49317
1400.97	1.13846
1402.55	1.29807
1404.13	1.33875
1405.7	1.10318
1407.28	0.75026
1408.86	0.833286
1410.44	1.64771
1412.01	0.783167
1413.59	1.47794
1415.17	0.710979
1416.74	0.89037
1418.32	1.08881
1419.89	1.46469
1421.47	1.25078
1423.05	0.920773
1424.62	1.34075
1426.19	0.974911
1427.77	1.37734
1429.34	1.8779
1430.92	1.31452
1432.49	1.87156
1434.06	1.77794
1435.63	2.43115
1437.2	2.69099
1438.78	2.46022
1440.35	2.32909
1441.92	2.61192
1443.49	2.83669
1445.06	2.57063
1446.63	3.24825
1448.2	2.60913
1449.77	2.71729
1451.34	2.96373
1452.91	2.38495
1454.48	2.78996
1456.05	3.19513
1457.62	3.2454
1459.18	2.40836
1460.75	2.69088
1462.32	2.10525
1463.89	2.44223
1465.45	1.61787
1467.02	2.28687
1468.59	1.77757
1470.15	1.7212
1471.72	1.15618
1473.28	3.4758
1474.85	4.42289
1476.41	3.74294
1477.98	3.8475
1479.54	3.5403
1481.11	0.998692
1482.67	1.39719
1484.23	1.4819
1485.8	0.684623
1487.36	0.846499
1488.92	0.478182
1490.48	0.0494795
1492.05	0.127341
1493.61	0.612878
1495.17	0.0613451
1496.73	0.503673
1498.29	1.06133
1499.85	0.879675
1501.41	-0.329211
1502.97	0.288707
1504.53	0.46078
1506.09	0.536055
1507.65	0.745886
1509.2	0.548423
1510.76	0.157147
1512.32	-0.0414324
1513.88	0.472198
1515.44	0.369579
1516.99	0.517455
1518.55	0.148094
1520.1	0.488976
1521.66	0.88676
1523.22	0.862821
1524.77	-0.0401793
1526.33	1.07907
1527.88	0.57578
1529.44	0.776774
1530.99	0.635378
1532.55	0.817286
1534.1	1.09441
1535.65	0.293925
1537.21	0.781099
1538.76	1.0793
1540.31	1.13222
1541.86	1.12864
1543.42	1.21906
1544.97	1.45947
1546.52	1.17322
1548.07	1.84426
1549.62	1.05187
1551.17	1.49713
1552.72	1.88599
1554.27	1.54636
1555.82	1.32098
1557.37	1.52726
1558.92	1.38116
1560.47	1.38662
1562.02	1.46858
1563.57	1.45859
1565.11	1.8038
1566.66	1.83197
1568.21	1.99051
1569.75	1.75662
1571.3	2.77291
1572.85	1.66082
1574.39	2.35924
1575.94	2.10563
1577.49	2.22562
1579.03	1.86071
1580.58	2.09395
1582.12	1.84262
1583.67	1.98447
1585.21	1.84698
1586.75	2.08388
1588.3	1.74131
1589.84	1.95956
1591.38	1.82178
1592.93	2.52595
1594.47	2.23745
1596.01	2.28606
1597.55	2.22271
1599.09	2.34761
1600.63	2.62354
1602.18	2.29972
1603.72	2.12575
1605.26	2.06353
1606.8	2.09359
1608.34	2.14012
1609.87	2.24025
1611.41	2.14962
1612.95	2.52615
1614.49	2.18742
1616.03	2.07364
1617.57	1.88554
1619.11	1.98002
1620.64	1.87017
1622.18	1.79945
1623.72	1.4489
1625.25	2.76446
1626.79	2.13227
1628.32	2.30333
1629.86	1.46275
1631.4	2.06088
1632.93	2.11614
1634.47	2.47034
1636	2.13478
1637.53	2.99422
1639.07	2.28777
1640.6	2.92371
1642.14	2.98088
1643.67	2.42214
1645.2	3.38843
1646.73	3.29228
1648.27	3.80901
1649.8	2.95143
1651.33	2.70856
1652.86	3.11666
1654.39	3.06232
1655.92	3.21272
1657.45	2.89971
1658.98	2.90083
1660.51	3.75185
1662.04	2.71297
1663.57	2.4505
1665.1	2.77875
1666.63	2.73777
1668.16	2.07112
1669.69	2.40237
1671.21	2.80882
1672.74	3.01374
1674.27	2.16947
1675.79	2.0986
1677.32	2.28448
1678.85	2.35851
1680.37	2.10023
1681.9	2.22717
1683.42	2.13317
1684.95	2.03935
1686.47	2.00106
1688	1.46846
1689.52	1.15671
1691.05	1.32159
1692.57	1.21188
1694.1	1.85213
1695.62	1.24834
1697.14	0.754525
1698.66	0.936537
1700.19	1.11784
1701.71	0.988256
1703.23	0.420811
1704.75	0.764119
1706.27	0.651471
1707.79	0.974986
1709.32	0.93455
1710.83	0.422413
1712.35	0.727282
1713.88	0.397682
1715.39	0.466944
1716.91	-0.151339
1718.43	0.225257
1719.95	0.79976
1721.47	0.218733
1722.99	0.684872
1724.5	0.430742
1726.02	0.808549
1727.54	0.323455
1729.06	0.433564
1730.57	0.0775166
1732.09	0.0466442
1733.61	0.0154724
1735.12	0.330706
1736.64	0.324097
1738.15	0.0865107
1739.67	0.361702
1741.18	0.0497408
1742.7	0.238822
1744.21	-0.269914
1745.72	0.775637
1747.24	0.367609
1748.75	0.248954
1750.26	0.178724
1751.78	0.534418
1753.29	-0.271356
1754.8	-0.41531
1756.31	-0.256787
1757.82	0.18272
1759.34	0.191223
1760.85	0.186183
1762.36	0.356839
1763.87	0.0175371
1765.38	-0.135359
1766.89	-0.250709
1768.4	0.0819168
1769.91	0.101914
1771.41	-0.187771
1772.92	0.374804
1774.43	0.0927038
1775.94	0.0349751
1777.45	-0.223437
1778.96	0.243406
1780.46	0.381194
1781.97	0.152074
1783.48	0.186748
1784.98	0.125481
1786.49	0.0523949
1788	0.185788
1789.5	0.0966492
1791.01	-0.0729742
1792.51	0.0245171
1794.01	0.18914
1795.52	-0.207051
1797.02	0.343414
1798.53	-0.36305
1800.03	0.224437
1801.54	0.247138
1803.04	0.158046
1804.54	0.189895
1806.04	-0.16724
1807.54	-0.128427
1809.05	-0.0246
1810.55	-0.0914259
1812.05	-0.0767937
1813.55	0.0666227
1815.05	0.149172
1816.55	0.36893
1818.05	0.219174
1819.55	0.0869932
1821.05	-0.14424
1822.55	0.218486
1824.05	0.0792713
1825.55	0.0960979
1827.05	0.136763
1828.55	0.218822
1830.04	-0.0403214
1831.54	-0.0431671
1833.04	-0.0778475
1834.54	-0.0403719
1836.03	-0.0503111
1837.53	0.233713
1839.03	0.0379353
1840.52	-0.098875
1842.02	0.195642
1843.51	0.389655
1845.01	-0.00241375
1846.5	0.351188
1848	-0.0414553
1849.49	0.186843
1850.99	0.29569
1852.48	0.0547667
1853.97	-0.00584984
1855.47	-0.149849
1856.96	0.00158596
1858.45	-0.00454712
1859.94	-0.0294924
1861.44	-0.00832176
1862.93	0.199894
1864.42	-0.154939
1865.91	0.107388
1867.4	-0.0764637
1868.89	0.415553
1870.38	0.158995
1871.87	-0.25583
1873.36	0.267753
1874.85	-0.108077
1876.34	0.196418
1877.83	0.106412
1879.32	0.12911
1880.81	-0.112318
1882.3	0.0798302
1882.56	0.130996
1884.06	0.217522
1885.55	0.00690842
1887.04	-0.187002
1888.54	0.47174
1890.03	0.207885
1891.52	0.171393
1893.02	-0.228527
1894.51	-0.0527983
1896	-0.153718
1897.49	0.07658
1898.99	-0.267223
1900.48	-0.0206661
1901.97	0.0850496
1903.46	-0.0371838
1904.95	0.0477924
1906.44	0.305617
1907.93	0.302672
1909.42	-0.272416
1910.91	-0.152086
1912.4	0.00375175
1913.89	-0.117418
1915.38	-0.221136
1916.86	0.125589
1918.35	-0.135041
1919.84	-0.0147982
1921.33	0.0359898
1922.82	-0.0686769
1924.3	0.0180302
1925.79	0.105867
1927.28	-0.255337
1928.76	0.00733376
1930.25	0.114149
1931.74	0.220123
1933.22	0.618908
1934.71	0.305891
1936.19	0.441178
1937.67	0.0736418
1939.16	-0.0865507
1940.64	-0.280764
1942.13	0.33719
1943.61	0.0241413
1945.09	-0.0291405
1946.58	0.34894
1948.06	0.157818
1949.54	-0.120088
1951.03	-0.0371904
1952.51	-0.0413618
1953.99	0.504122
1955.47	-0.0165834
1956.95	0.270886
1958.43	0.266958
1959.91	0.555413
1961.39	0.0382776
1962.87	-0.186864
1964.35	0.153352
1965.83	0.321474
1967.31	0.249076
1968.79	0.141856
1970.27	0.752043
1971.75	-0.159059
1973.22	0.723191
1974.7	0.205723
1976.18	-0.174493
1977.66	0.110233
1979.13	-0.132986
1980.61	-0.0527411
1982.09	-0.142775
1983.56	0.276584
1985.04	0.134845
1986.52	0.264412
1987.99	0.444599
1989.47	0.150692
1990.94	0.128657
1992.41	-0.0784225
1993.89	0.290489
1995.36	-0.0667114
1996.84	0.269398
1998.31	0.216802
1999.78	0.13001
2001.26	0.481389
2002.73	0.12352
2004.2	-0.250994
2005.67	-0.220408
2007.15	0.0130024
2008.62	-0.0727139
2010.09	0.280195
2011.56	0.1117
2013.03	-0.191368
2014.5	0.262483
2015.97	0.311544
2017.44	0.0400667
2018.91	0.339509
2020.38	0.201241
2021.85	0.684306
2023.32	0.294434
2024.79	0.358747
2026.25	0.222984
2027.72	0.340346
2029.19	0.392177
2030.66	0.0763445
2032.13	-0.356146
2033.59	0.185212
2035.06	0.357462
2036.53	0.428623
2037.99	0.112772
2039.46	0.418218
2040.92	0.488384
2042.39	0.407661
2043.85	0.731374
2045.32	0.416876
2046.78	-0.183338
2048.25	0.445807
2049.71	0.215702
2051.18	0.102333
2052.64	0.510095
2054.1	0.410055
2055.56	0.13956
2057.03	0.558927
2058.49	-0.0338774
2059.95	0.0473909
2061.42	0.70148
2062.88	0.548073
2064.34	0.446299
2065.8	-0.0246315
2067.26	0.616028
2068.72	0.600986
2070.18	0.502103
2071.64	0.840973
2073.1	0.708314
2074.56	0.272227
2076.02	0.391448
2077.48	0.0892782
2078.94	0.914968
2080.39	0.460332
2081.85	0.493446
2083.31	0.946647
2084.77	0.893964
2086.22	1.00872
2087.68	0.887288
2089.14	0.799119
2090.6	0.761206
2092.05	0.907911
2093.51	0.970461
2094.96	0.881716
2096.42	0.658437
2097.87	1.25539
2099.33	0.94706
2100.78	1.14053
2102.24	1.33395
2103.69	1.32768
2105.15	1.53984
2106.6	1.15283
2108.05	1.16752
2109.51	0.882416
2110.96	1.397
2112.41	1.17653
2113.86	2.07007
2115.32	1.39635
2116.77	1.28798
2118.22	1.01407
2119.67	2.06991
2121.12	1.73329
2122.57	1.97967
2124.02	2.0121
2125.47	1.73023
2126.92	2.47602
2128.37	1.89422
2129.82	2.20589
2131.27	2.51571
2132.72	2.12903
2134.17	2.12326
2135.62	2.4326
2137.06	2.57823
2138.51	2.44516
2139.96	2.85982
2141.41	2.74769
2142.85	3.34805
2144.3	3.12254
2145.75	2.94666
2147.19	3.08482
2148.64	2.90757
2150.09	3.6237
2151.53	3.04639
2152.97	3.611
2154.42	3.46205
2155.86	3.2297
2157.31	3.69323
2158.75	3.4951
2160.2	3.79571
2161.64	3.8171
2163.08	3.34361
2164.53	3.80062
2165.97	3.71148
2167.41	4.00421
2168.86	3.33162
2170.3	3.82024
2171.74	4.17325
2173.18	3.62533
2174.62	3.82416
2176.06	3.55653
2177.5	3.08975
2178.94	3.4886
2180.38	3.90533
2181.82	3.77458
2183.26	3.69447
2184.7	2.58347
2186.14	3.56828
2187.58	3.28891
2189.02	3.32569
2190.46	3.74532
2191.89	3.2324
2193.33	3.15129
2194.77	3.185
2196.21	3.01661
2197.64	3.06208
2199.08	3.12193
2200.52	2.76503
2201.95	2.69072
2203.39	3.01552
2204.83	2.61176
2206.26	2.90577
2207.7	2.42156
2209.13	2.59989
2210.57	2.71086
2212	1.76186
2213.43	2.59836
2214.87	2.47554
2216.3	1.99051
2217.73	2.20031
2219.17	1.91669
2220.6	2.34316
2222.03	1.73121
2223.47	2.07437
2224.9	1.78983
2226.33	1.52009
2227.76	1.34751
2229.19	1.84715
2230.62	1.63941
2232.05	2.00541
2233.49	1.04514
2234.91	1.37948
2236.34	2.0086
2237.77	1.52852
2239.2	1.45915
2240.63	1.32688
2242.06	1.47398
2243.49	1.03531
2244.92	1.08632
2246.35	1.33231
2247.78	1.18505
2249.2	0.660534
2250.63	0.75326
2252.06	1.02301
2253.48	1.14501
2254.91	0.698535
2256.34	1.04984
2257.76	0.802973
2259.19	0.202456
2260.61	0.610927
2262.04	0.665093
2263.46	0.834688
2264.89	0.793528
2266.31	1.10964
2267.74	0.514169
2269.16	0.861133
2270.59	0.653982
2272.01	0.576452
2273.43	0.547574
2274.85	0.763126
2276.28	0.881248
2277.7	1.16261
2279.12	0.824695
2280.54	0.94313
2281.97	0.572163
2283.39	0.298822
2284.81	0.857654
2286.23	0.633508
2287.65	0.311666
2289.07	0.839434
2290.49	0.354943
2291.91	0.589636
2293.33	0.841013
2294.75	0.43812
2296.17	0.607698
2297.59	0.17147
2299.01	0.783424
2300.42	0.543843
2301.84	0.61591
2303.26	0.507886
2304.68	0.416337
2306.1	-0.118814
2307.51	0.298168
2308.93	0.468388
2310.35	0.0461388
2311.76	0.379875
2313.18	0.104991
2314.59	0.11017
2316.01	0.000841141
2317.43	0.106378
2318.84	0.212484
2320.26	0.318452
2321.67	-0.00565338
2323.08	0.245779
2324.5	0.280304
2325.91	0.230002
2327.33	0.870597
2328.74	0.471446
2330.15	1.27535
2331.56	0.400207
2332.98	-0.0616169
2334.39	0.0371161
2335.8	-0.0449104
2337.21	0.349579
2338.62	0.413991
2340.04	-0.0158081
2341.45	0.358578
2342.86	-0.039319
2344.27	-0.0103226
2345.68	-0.0466318
2347.09	0.0811872
2348.5	0.323462
2349.91	0.385083
2351.31	-0.0772676
2352.72	-0.0499144
2354.13	-0.0888186
2355.54	-0.0142317
2356.95	-0.054101
2358.36	0.0850058
2359.76	0.06147
2361.17	0.0380917
2362.58	0.193085
2363.98	-0.122013
2365.39	0.145908
2366.8	-0.152159
2368.21	0.0837717
2369.61	-0.324887
2371.02	-0.167431
2372.42	-0.0410643
2373.83	0.231113
2375.23	0.149329
2376.64	0.485531
2378.04	0.000173569
2379.44	-0.534307
2380.85	-0.074235
2382.25	0.399516
2383.66	-0.0416183
2385.06	0.189895
2386.46	0.0378647
2387.86	-0.240566
2389.26	0.0407867
2390.67	-0.107198
2392.07	-0.126422
2393.47	0.0145054
2394.87	0.172035
2396.27	0.218885
2397.67	-0.0514908
2399.07	0.362096
2400.47	-0.24067
2401.87	-0.255229
2403.27	0.476677
2404.67	0.350517
2406.07	0.00127697
2407.47	-0.126515
2408.87	0.0939302
2410.27	0.440636
2411.67	-0.0365925
2413.07	-0.116637
2414.46	0.390454
2415.86	0.455663
2417.26	0.126496
2418.66	0.273218
2420.05	0.420363
2421.45	0.313997
2422.84	-0.125471
2424.24	0.131841
2425.64	0.436828
2427.03	0.140194
2428.43	0.00286484
2429.82	0.358067
2431.22	-0.0155897
2432.61	0.00740814
2434.01	0.411061
2435.4	-0.107603
2436.79	0.214124
2438.19	0.343652
2439.58	0.122338
2440.97	0.0431328
2442.37	-0.036561
2443.76	0.343695
2445.15	0.136597
2446.54	0.0246477
2447.93	0.245455
2449.33	0.450216
2450.72	0.338386
2452.11	0.274698
2453.5	0.275165
2454.89	0.197429
2456.28	0.262804
2457.67	0.312679
2459.06	0.0934982
2460.45	0.0319204
2461.84	0.222516
2463.23	0.285748
2464.62	0.522121
2466	-0.0632029
2467.39	0.299006
2468.78	0.0928297
2470.17	0.517462
2471.55	-0.272511
2472.94	-0.0540867
2474.33	-0.183029
2475.72	-0.0135546
2477.1	-0.00188065
2478.49	0.323814
2479.87	0.131345
2481.26	0.33134
2482.65	0.28028
2484.03	-0.0999241
2485.42	-0.0893507
2486.8	0.498095
2488.19	0.0219908
2489.57	0.169673
2490.95	0.176769
2492.34	-0.0643053
2493.72	0.00681114
2495.1	0.249777
2496.49	0.214634
2497.87	0.288846
2499.25	-0.116594
2500.63	-0.274336
2502.02	0.38648
2503.4	0.0878315
2504.78	-0.164871
2506.16	-0.186529
2507.54	0.561135
2508.92	0.169673
2510.3	0.19414
2511.68	-0.0876083
2513.06	0.153123
2514.44	0.0726948
2515.82	0.0545015
2517.2	0.220679
2518.58	0.0050211
2519.96	-0.149119
2521.34	0.246444
2522.72	0.259292
2524.1	0.0272169
2525.47	-0.296661
2526.85	0.0497398
2528.23	0.000412941
2529.6	0.0587196
2530.98	0.316154
2532.36	0.0889444
2533.74	0.53169
2535.11	0.0939608
2536.49	0.036006
2537.86	-0.18972
2539.24	-0.279626
2540.61	-0.157732
2541.99	0.0244455
2543.36	0.282659
2544.74	0.162401
2546.11	0.134459
2547.49	0.198781
2548.86	0.157784
2550.23	0.132
2551.61	0.227119
2552.98	0.321308
2554.35	0.384068
2555.72	0.324508
2557.09	-0.175449
2558.47	0.098073
2559.84	0.235293
2561.21	0.0698814
2562.58	-0.216068
2563.95	0.135061
2565.32	-0.437778
2566.69	-0.0405207
2568.06	0.129537
2569.43	0.329929
2570.8	0.333311
2572.17	0.154846
2573.54	0.355409
2574.91	-0.050292
2576.28	0.241383
2577.65	0.426889
2579.02	-0.145969
2580.39	-0.294637
2581.75	-0.019145
2583.12	0.498528
2584.49	0.166914
2585.85	-0.346574
2587.22	0.367847
2588.59	-0.0240068
2589.95	0.0389404
2591.32	0.435122
2592.68	-0.0632172
2594.05	0.0437469
2595.42	-0.0926676
2596.78	-0.00294685
2598.15	-0.110763
2599.51	-0.0978661
2600.88	0.21732
2602.24	0.0796232
2603.6	-0.374263
2604.97	-0.163309
2606.33	-0.329434
2607.69	0.182772
2609.06	0.151099
2610.42	-0.183
2611.78	0.354966
2613.14	0.0488033
2614.51	0.268183
2615.87	-0.158359
2617.23	-0.343953
2618.59	-0.214113
2619.95	0.170635
2621.31	-0.0126629
2622.67	0.163426
2624.03	0.190185
2625.39	0.440676
2626.75	-0.12958
2628.11	0.209592
2629.47	0.369279
2630.83	-0.0517282
2632.19	0.0332565
2633.55	0.118056
2634.91	0.113639
2636.26	0.0647078
2637.62	-0.0137949
2638.98	0.396475
2640.34	-0.184957
2641.69	0.106962
2643.05	-0.0739937
2644.41	-0.0331011
2645.76	-0.0808582
2647.12	0.210094
2648.48	0.146379
2649.83	-0.0504913
2651.19	-0.379965
2652.54	0.436403
2653.9	0.0336876
2655.25	-0.118328
2656.6	0.0385513
2657.96	0.0353565
2659.31	0.193964
2660.67	-0.173557
2662.02	0.102144
2663.37	-0.221889
2664.73	0.198076
2666.08	0.252057
2667.43	0.159735
2668.78	0.227645
2670.14	0.208432
2671.49	0.291563
2672.84	0.215398
2674.19	0.285173
2675.54	0.253858
2676.89	-0.154059
2678.24	0.0626173
2679.59	0.222004
2680.94	0.0924349
2682.29	0.0800571
2683.64	0.387884
2684.99	0.14564
2686.34	0.600178
2687.69	-0.120885
2689.04	0.390506
2690.39	0.290509
2691.74	0.203188
2693.08	0.346511
2694.43	-0.149297
2695.78	0.123351
2697.13	0.381862
2698.47	0.120189
2699.82	0.0919771
2701.17	0.427516
2702.51	0.127385
2703.86	0.436702
2705.21	0.137911
2706.55	-0.0305872
2707.9	0.0181599
2709.24	0.400434
2710.58	0.346931
2711.93	-0.0845823
2713.27	0.239115
2714.62	0.635613
2715.96	-0.0291519
2717.3	0.0182123
2718.65	0.225374
2719.99	0.330389
2721.33	0.638721
2722.68	0.13154
2724.02	0.424358
2725.36	0.352845
2726.71	0.164498
2728.05	0.601661
2729.39	0.310874
2730.73	0.34011
2732.07	0.529333
2733.41	0.122171
2734.75	0.224357
2736.09	0.399442
2737.43	0.298302
2738.77	0.153506
2740.11	0.662858
2741.45	0.328264
2742.79	0.778111
2744.13	0.224222
2745.47	0.338318
2746.81	0.553534
2748.14	0.289371
2749.48	0.51877
2750.82	-0.0349779
2752.16	0.223804
2753.49	0.410164
2754.83	0.277837
2756.17	0.536775
2757.5	0.100709
2758.84	0.331017
2760.18	0.561612
2761.51	0.387444
2762.85	-0.0900698
2764.18	0.257507
2765.52	0.0986261
2766.85	0.300969
2768.19	0.516752
2769.52	0.355127
2770.86	0.394458
2772.19	0.244587
2773.52	-0.00710487
2774.86	0.173574
2776.19	-0.207837
2777.52	0.275214
2778.86	0.412925
2780.19	0.364147
2781.52	0.531159
2782.85	0.253154
2784.19	-0.0819263
2785.52	0.400328
2786.85	-0.335279
2788.18	-0.0388889
2789.51	-0.571879
2790.84	0.2694
2792.17	0.295919
2793.5	-0.0630836
2794.83	-0.0217371
2796.16	-0.280805
2797.49	0.345317
2798.82	-0.300326
2800.15	0.0388918
2801.48	0.135019
2802.81	0.330653
2804.13	0.212292
2805.46	-0.148515
2806.79	-0.338696
2808.12	-0.102544
2809.45	-0.0234871
2810.77	0.495694
2812.1	0.0781612
2813.43	0.0452175
2814.75	0.112981
2816.08	0.281356
2817.41	0.0256014
2818.73	0.223977
2820.06	0.861719
2821.38	0.40762
2822.71	-0.0896063
2824.03	0.687831
2825.36	0.21808
2826.68	0.11678
2828	0.369987
2829.33	0.538752
2830.65	0.481466
2831.98	1.04723
2833.3	0.67865
2834.62	0.49376
2835.94	0.449916
2837.27	1.38181
2838.59	1.29432
2839.91	1.50361
2841.23	1.84015
2842.55	2.02153
2843.87	2.21771
2845.2	2.72561
2846.52	2.59827
2847.84	3.63026
2849.16	3.48924
2850.48	3.6305
2851.8	3.54498
2853.12	3.51534
2854.44	3.23087
2855.76	3.21468
2857.08	3.33974
2858.39	3.62019
2859.71	3.49097
2861.03	3.79928
2862.35	3.7965
2863.67	4.259
2864.98	4.04364
2866.3	4.37851
2867.62	4.6007
2868.94	4.80925
2870.25	4.80678
2871.57	5.56567
2872.88	5.40786
2874.2	5.75634
2875.52	5.244
2876.83	5.98364
2878.15	5.94753
2879.46	5.50325
2880.78	6.36704
2882.09	6.02288
2883.41	6.27026
2884.72	5.77465
2886.03	5.95384
2887.35	5.76812
2888.66	5.90461
2889.97	5.8997
2891.29	6.07593
2892.6	6.1531
2893.91	6.03385
2895.22	6.05523
2896.54	6.02167
2897.85	6.15742
2899.16	6.2245
2900.47	6.22265
2901.78	6.09548
2903.09	6.61203
2904.4	6.89093
2905.71	6.8205
2907.02	6.35915
2908.33	6.78009
2909.64	7.73393
2910.95	7.49936
2912.26	8.1045
2913.57	8.41479
2914.88	8.0371
2916.19	7.81106
2917.5	8.7026
2918.81	9.13054
2920.11	8.95658
2921.42	8.58795
2922.73	9.4234
2924.04	9.24022
2925.34	9.33822
2926.65	9.95428
2927.96	9.92739
2929.26	10.0118
2930.57	10.6265
2931.87	10.3039
2933.18	10.1068
2934.49	10.5247
2935.79	10.3556
2937.1	10.3126
2938.4	10.2698
2939.7	9.57073
2941.01	9.73871
2942.31	9.61448
2943.62	9.01673
2944.92	9.00779
2946.22	8.483
2947.53	8.37835
2948.83	8.48321
2950.13	7.74647
2951.43	7.8612
2952.74	7.86136
2954.04	6.8236
2955.34	7.05951
2956.64	7.10056
2957.94	6.20647
2959.24	6.50554
2960.54	6.73833
2961.84	6.38524
2963.15	6.90241
2964.45	6.07174
2965.75	5.78607
2967.05	5.77916
2968.34	5.4613
2969.64	5.49388
2970.94	5.23097
2972.24	5.69986
2973.54	4.64956
2974.84	4.66848
2976.14	4.5036
2977.43	5.01302
2978.73	4.08418
2980.03	4.40639
2981.33	4.12176
2982.62	3.49915
2983.92	3.63664
2985.22	4.12667
2986.51	3.6487
2987.81	3.04607
2989.11	3.09096
2990.4	3.22048
2991.7	2.87158
2992.99	2.67608
2994.29	2.40895
2995.58	2.42162
2996.88	2.67212
2998.17	2.12228
2999.46	1.62932
3000.76	1.96459
3002.05	2.10402
3003.34	1.48718
3004.64	1.51518
3005.93	1.54287
3007.22	1.17793
3008.52	1.02229
3009.81	0.991744
3011.1	1.36564
3012.39	1.24988
3013.68	1.0785
3014.97	0.782381
3016.27	0.821751
3017.56	0.513815
3018.85	0.554622
3020.14	0.623276
3021.43	0.844274
3022.72	0.716864
3024.01	1.00492
3025.3	0.640057
3026.59	0.788129
3027.88	0.0370607
3029.16	0.408294
3030.45	0.448946
3031.74	0.449671
3033.03	0.16159
3034.32	0.370846
3035.6	0.165556
3036.89	0.276263
3038.18	0.109501
3039.47	0.725555
3040.75	0.747544
3042.04	0.356765
3043.33	0.364511
3044.61	0.811149
3045.9	0.533916
3047.18	0.423483
3048.47	0.643346
3049.75	0.551394
3051.04	0.597635
3052.32	0.603826
3053.61	0.732839
3054.89	0.492806
3056.18	0.497308
3057.46	0.691533
3058.74	0.653138
3060.03	0.600925
3061.31	0.862177
3062.59	0.757016
3063.88	0.558291
3065.16	0.850725
3066.44	0.600877
3067.72	0.909544
3069	0.5388
3070.29	0.344518
3071.57	0.312559
3072.85	0.279396
3074.13	0.353763
3075.41	-0.0348091
3076.69	0.350798
3077.97	0.0578279
3079.25	0.146152
3080.53	0.0189486
3081.81	0.218932
3083.09	-0.000306606
3084.37	-0.178176
3085.65	0.268306
3086.93	0.266569
3088.21	0.10127
3089.49	0.152494
3090.76	0.0811687
3092.04	-0.220845
3093.32	0.0878415
3094.6	0.111984
3095.87	0.190683
3097.15	-0.00162363
3098.43	0.0365472
3099.7	0.183021
3100.98	0.275203
3102.26	0.272667
3103.53	0.351714
3104.81	-0.055954
3106.08	0.0651283
3107.36	-0.151137
3108.63	-0.271589
3109.91	-0.187933
3111.18	-0.116753
3112.46	0.375199
3113.73	0.0549765
3115	0.249668
3116.28	0.389852
3117.55	-0.0132465
3118.83	0.355693
3120.1	0.506527
3121.37	0.0327702
3122.64	-0.0888138
3123.92	0.372061
3125.19	-0.0878835
3126.46	0.549345
3127.73	0.253247
3129	0.35018
3130.27	0.190578
3131.55	0.152938
3132.82	0.236874
3134.09	0.442016
3135.36	0.349517
3136.63	0.526473
3137.9	0.325274
3139.17	0.231871
3140.44	0.367338
3141.71	0.596891
3142.98	0.369634
3144.24	0.492376
3145.51	0.642501
3146.78	0.458077
3148.05	0.368436
3149.32	0.319785
