200.533	6.48499e-005
202.348	0.0406694
204.162	0.0821428
205.976	0.270146
207.792	0.0446978
209.605	0.0372257
211.418	-0.165986
213.23	-0.00651264
215.044	0.296902
216.856	-0.273547
218.667	0.149576
220.478	-0.419826
222.289	0.124752
224.102	-0.17676
225.912	-0.163625
227.721	0.235763
229.531	-0.138541
231.34	0.258962
233.148	0.0765572
234.956	0.231997
236.766	0.24378
238.574	0.402005
240.381	0.249181
242.188	0.146511
243.994	0.479017
245.801	0.159773
247.606	-0.185766
249.412	0.19001
251.217	0.103642
253.024	0.135031
254.828	0.309127
256.632	0.0725584
258.436	0.0778131
260.239	-0.132345
262.042	0.0687246
263.845	-0.331104
265.647	0.0889587
267.449	0.244148
269.25	0.254193
271.052	-0.315449
272.852	0.343092
274.653	0.035594
276.453	-0.562921
278.253	0.330932
280.052	0.137987
281.852	0.207788
283.65	0.419715
285.449	0.389384
287.247	-0.00183964
289.044	0.518627
290.842	-0.182941
292.639	0.721375
294.436	0.286359
296.232	0.618159
298.028	0.0902185
299.821	-0.293754
301.617	0.420833
303.412	0.0594921
305.206	0.747073
307	0.288007
308.794	0.54418
310.588	0.395472
312.381	0.081214
314.172	0.816265
315.964	0.767169
317.756	0.291067
319.548	0.316359
321.34	0.461817
323.131	0.560335
324.921	0.730824
326.71	0.185108
328.5	0.211751
330.29	0.428855
332.079	0.57309
333.868	0.213093
335.654	0.472843
337.443	0.44307
339.231	0.363241
341.018	0.210058
342.804	0.558043
344.591	0.594962
346.377	-0.0604115
348.163	0.550676
349.947	0.636618
351.733	0.38828
353.518	0.59273
355.303	0.3665
357.085	0.258222
358.869	0.62523
360.653	0.395174
362.435	0.592729
364.218	0.242251
366.001	0.366659
367.781	0.323812
369.563	0.303797
371.345	-0.475046
373.124	0.261181
374.905	0.0736704
376.686	-0.278676
378.464	0.101076
380.244	0.575062
382.022	1.04927
383.801	-0.0988731
385.58	0.471554
387.357	-0.202834
389.135	0.0873137
390.911	0.871365
392.689	0.505233
394.466	0.163141
396.241	0.572803
398.018	0.301426
399.792	0.640413
401.568	-0.406893
403.341	0.893882
405.117	0.526197
406.889	0.20474
408.664	0.61054
410.436	0.100342
412.21	0.0127459
413.981	0.3244
415.755	0.0734987
417.525	0.456823
419.298	0.653037
421.068	0.356584
422.84	0.153622
424.609	0.325478
426.38	0.120771
428.149	-0.0378428
429.919	0.389878
431.688	-0.332614
433.455	0.353376
435.225	0.593701
436.992	0.599236
438.76	0.674413
440.527	0.442994
442.293	0.256564
444.06	0.255691
445.826	1.00255
447.593	0.506499
449.357	0.197896
451.122	0.240327
452.888	0.422999
454.651	0.675522
456.415	0.717818
458.18	-0.148358
459.942	-0.105646
461.705	0.332918
463.469	0.191415
465.23	0.424062
466.991	0.612951
468.752	0.316425
470.515	0.440022
472.275	0.727167
474.035	0.594738
475.797	0.600134
477.556	0.347092
479.315	-0.0708628
481.073	0.395391
482.834	0.558929
484.592	0.211211
486.349	0.657325
488.106	0.406613
489.863	1.34717
491.622	0.492747
493.378	0.431891
495.134	0.581584
496.889	0.544162
498.645	0.389203
500.401	0.514919
502.156	0.874885
503.91	0.764704
505.664	0.535653
507.417	0.516592
509.171	0.754739
510.923	0.591369
512.678	0.37929
514.43	0.895137
516.182	0.539008
517.933	0.65219
519.684	0.505688
521.435	0.335059
523.186	0.258053
524.936	0.43908
526.686	0.549501
528.435	0.612922
530.184	0.746443
531.933	0.715437
533.682	0.309125
535.43	0.697417
537.18	0.73311
538.927	0.650576
540.674	0.31051
542.421	0.599294
544.167	0.654366
545.913	-0.0342464
547.659	-0.488989
549.403	0.911987
551.148	0.781785
552.893	-0.134361
554.637	0.52277
556.381	0.370945
558.125	1.04993
559.868	0.1846
561.611	0.265094
563.354	0.484019
565.097	0.519327
566.839	0.325537
568.581	-0.027936
570.322	0.537848
572.063	0.668752
573.802	0.319588
575.542	0.545699
577.283	0.154005
579.022	0.222457
580.762	-0.0298471
582.501	0.0853577
584.24	0.154158
585.976	0.842985
587.714	0.495727
589.452	0.147131
591.19	0.326764
592.927	-0.276365
594.663	-0.120379
596.398	0.127679
598.134	0.214644
599.87	-0.0668488
601.605	-0.234085
603.338	-0.310456
605.073	0.209558
606.808	-0.145287
608.542	0.188402
610.274	0.0855513
612.007	0.189715
613.74	0.615538
615.473	0.606251
617.204	0.390953
618.936	0.35849
620.668	-0.0183744
622.397	0.267389
624.128	0.117604
625.859	0.0365858
627.588	0.36767
629.318	0.335279
631.048	0.282446
632.775	0.391378
634.505	0.295959
636.233	0.770844
637.96	0.97006
639.688	0.527373
641.416	0.0592575
643.142	0.432649
644.869	-0.106531
646.594	0.424723
648.32	0.252397
650.045	0.197008
651.771	0.304472
653.496	0.438586
655.219	0.485198
656.944	0.306474
658.667	0.310662
660.391	0.656707
662.113	0.499324
663.837	1.07069
665.558	0.45123
667.281	-0.0333042
669.002	1.35675
670.724	0.506312
672.444	0.343871
674.166	0.160766
675.885	0.162814
677.606	0.487306
679.325	0.16946
681.045	0.654682
682.763	0.494697
684.483	0.447481
686.2	0.28311
687.917	1.08449
689.636	0.456818
691.352	1.07226
693.07	0.719585
694.786	0.619554
696.501	0.863963
698.219	0.899825
699.933	1.00341
701.65	0.59973
703.364	1.1149
705.078	0.916682
706.793	0.855894
708.506	1.48271
710.219	0.802132
711.934	0.625933
713.646	0.655598
715.358	0.479355
717.071	1.05678
718.782	1.31395
720.493	0.978308
722.204	0.962205
723.916	0.650392
725.626	1.40742
727.336	1.23163
729.045	0.60189
730.756	1.10633
732.464	1.1112
734.173	1.27422
735.881	1.34659
737.59	1.17082
739.297	1.42475
741.004	1.58913
742.711	1.28156
744.417	1.29098
746.125	1.4819
747.831	1.7192
749.537	1.55297
751.242	1.20825
752.946	1.06733
754.651	1.31026
756.357	1.53239
758.061	2.07159
759.764	1.64419
761.467	1.23998
763.17	0.655189
764.872	2.03378
766.575	1.24387
768.276	1.69453
769.978	1.23874
771.679	1.64005
773.382	1.45198
775.083	1.53482
776.783	1.88958
778.483	2.24577
780.182	1.54076
781.882	1.80936
783.581	1.39932
785.279	1.59907
786.978	2.09067
788.676	2.03558
790.373	2.15795
792.071	1.35063
793.768	1.31079
795.464	1.92492
797.161	1.45716
798.857	2.05033
800.552	2.03698
802.248	2.09266
803.941	2.03659
805.636	1.77805
807.33	1.24924
809.024	1.99977
810.718	1.22217
812.412	1.81257
814.105	2.40144
815.798	1.73547
817.49	2.05472
819.183	1.9936
820.873	2.02211
822.564	1.98404
824.256	2.37053
825.947	2.46843
827.637	2.10091
829.328	1.38028
831.016	1.82095
832.705	2.30938
834.395	2.22095
836.084	1.64279
837.772	2.35818
839.459	1.93424
841.147	1.03919
842.835	1.6169
844.522	1.85919
846.209	1.05181
847.894	1.34139
849.581	1.52191
851.267	1.45895
852.953	1.62202
854.637	1.83126
856.322	1.05235
858.007	1.59736
859.689	1.26396
861.374	1.62626
863.058	1.28889
864.739	1.4232
866.423	1.5792
868.106	0.810089
869.787	1.43854
871.469	1.61574
873.151	1.47694
874.831	1.29291
876.512	0.657492
878.193	1.60184
879.872	1.28224
881.553	1.45883
883.231	1.22832
884.911	1.35787
886.591	1.4182
888.268	1.02563
889.947	1.69162
891.623	1.65666
893.302	1.35009
894.978	0.885283
896.656	1.56662
898.331	1.54944
900.008	1.35184
901.683	0.840219
903.359	0.95578
905.033	1.11558
906.709	1.65465
908.383	1.50205
910.058	0.883098
911.731	1.08947
913.405	1.05166
915.078	0.925488
916.752	1.13231
918.423	0.961963
920.096	0.880606
921.768	0.976966
923.438	1.00804
925.111	0.75359
926.781	0.788322
928.452	0.824721
930.122	0.906488
931.791	0.74622
933.462	1.18188
935.13	1.375
936.799	1.25977
938.468	0.395634
940.136	0.767806
941.803	0.280948
943.472	1.00822
945.139	0.941088
946.805	0.519554
948.473	0.493478
950.139	1.32621
951.804	0.89972
953.471	1.28963
955.136	0.821083
956.801	1.28163
958.465	0.90755
960.131	0.491828
961.794	1.2478
963.458	1.14257
965.12	0.371863
966.785	0.947435
968.447	0.657412
970.109	1.05112
971.771	0.824522
973.432	1.30619
975.095	1.10381
976.756	0.792769
978.417	1.19105
980.077	0.959563
981.737	0.7275
983.396	0.947772
985.057	1.40953
986.716	1.55906
988.375	0.777357
990.033	1.16703
991.691	0.737925
993.349	0.927583
995.006	0.808092
996.663	1.24039
998.32	1.80445
999.976	1.64042
1001.63	1.49817
1003.29	1.44366
1004.95	1.52082
1006.6	1.4659
1008.26	1.4112
1009.91	1.11556
1011.56	1.04008
1013.22	0.899445
1014.87	0.452753
1016.53	0.422909
1018.18	0.918741
1019.83	0.67138
1021.48	0.622061
1023.14	0.13676
1024.79	0.242663
1026.44	0.567629
1028.09	1.26397
1029.74	0.86713
1031.39	1.27723
1033.04	0.986744
1034.69	0.934788
1036.34	1.03407
1037.99	1.26305
1039.64	1.20864
1041.29	1.02455
1042.94	0.863874
1044.58	1.37874
1046.23	0.983126
1047.88	0.915445
1049.52	0.719201
1051.17	0.850039
1052.82	0.72107
1054.46	0.527235
1056.11	0.637595
1057.75	0.986836
1059.4	1.07477
1061.04	0.814118
1062.69	0.59611
1064.33	0.333683
1065.98	0.852874
1067.62	0.523093
1069.26	0.909458
1070.9	0.23078
1072.55	0.920063
1074.19	0.481041
1075.83	0.368766
1077.47	0.366342
1079.11	0.104957
1080.76	0.538244
1082.4	1.14496
1084.04	0.471387
1085.68	0.836846
1087.32	0.00824928
1088.95	0.69419
1090.59	0.901356
1092.23	1.02047
1093.87	0.490996
1095.51	0.221635
1097.15	0.147623
1098.78	0.635123
1100.42	1.1884
1102.06	0.774928
1103.69	0.643264
1105.33	-0.110764
1106.97	0.533909
1108.6	0.575974
1110.24	0.423377
1111.87	0.484171
1113.51	1.12323
1115.14	0.429255
1116.77	0.529345
1118.41	0.672304
1120.04	0.987203
1121.67	0.489171
1123.31	0.613405
1124.94	0.0111523
1126.57	0.115981
1128.2	-0.0136805
1129.83	0.327797
1131.47	0.669779
1133.1	0.691349
1134.72	0.477633
1136.36	-0.570213
1137.98	0.73173
1139.62	-0.275171
1141.24	-0.193392
1142.87	-0.176182
1144.5	0.331703
1146.13	-0.332654
1147.76	0.0912867
1149.38	0.579751
1151.01	-0.06042
1152.64	0.257968
1154.27	-0.084115
1155.89	0.10567
1157.52	0.10375
1159.14	-0.0041256
1160.77	0.229156
1162.39	-0.450761
1164.02	0.422473
1165.64	0.233112
1167.27	0.362397
1168.89	0.618103
1170.51	0.149302
1172.14	0.698582
1173.76	-0.240735
1175.38	0.38994
1177	0.743561
1178.63	0.461432
1180.25	0.243956
1181.87	0.21808
1183.49	0.129486
1185.11	0.231158
1186.73	0.0572281
1188.35	-0.24467
1189.97	0.358347
1191.59	0.0949869
1193.21	0.293304
1194.83	0.0703945
1196.45	0.309372
1198.07	0.339342
1199.68	0.0364656
1201.3	0.112668
1202.92	0.755176
1204.53	0.690158
1206.15	0.293603
1207.77	-0.184928
1209.38	-0.079031
1211	0.25543
1212.62	0.650514
1214.23	1.0429
1215.84	0.557881
1217.46	1.13269
1219.07	0.645533
1220.69	0.449905
1222.3	0.566473
1223.91	1.28501
1225.53	0.699706
1227.14	0.716848
1228.75	1.1491
1230.36	1.27224
1231.97	1.29329
1233.59	1.83237
1235.2	1.05007
1236.81	1.24048
1238.42	1.28734
1240.03	1.41764
1241.64	0.907019
1243.25	1.16127
1244.85	1.78723
1246.46	1.89485
1248.07	1.64956
1249.68	1.34141
1251.29	1.52951
1252.9	1.51099
1254.5	2.13448
1256.11	1.58021
1257.72	1.8961
1259.32	1.53056
1260.93	1.39348
1262.54	1.67097
1264.14	1.26507
1265.75	0.920588
1267.35	1.88105
1268.96	1.18228
1270.56	0.793243
1272.16	1.58493
1273.77	1.81563
1275.37	1.5477
1276.97	1.92124
1278.57	1.48578
1280.18	1.73328
1281.78	1.58702
1283.38	1.52378
1284.98	1.52324
1286.58	1.46169
1288.18	1.87667
1289.78	1.38326
1291.38	1.84102
1292.99	2.09196
1294.58	1.82552
1296.18	2.21862
1297.78	2.11416
1299.38	2.00792
1300.98	1.8589
1302.58	1.74993
1304.17	1.8459
1305.77	2.00256
1307.37	1.66548
1308.97	1.4929
1310.56	1.71007
1312.16	1.49734
1313.76	1.63353
1315.35	1.64799
1316.95	2.17386
1318.54	1.74071
1320.14	1.94001
1321.73	1.66948
1323.32	2.17098
1324.92	1.71419
1326.51	1.27727
1328.1	1.59102
1329.7	1.39844
1331.29	1.93611
1332.88	1.84884
1334.47	1.46137
1336.07	1.98416
1337.66	1.57924
1339.25	2.00041
1340.84	1.49266
1342.43	1.58712
1344.02	1.35767
1345.61	1.85031
1347.2	1.31944
1348.79	1.45256
1350.37	1.58809
1351.96	1.04618
1353.55	1.14671
1355.14	1.48837
1356.73	1.25075
1358.31	1.51219
1359.9	1.19336
1361.49	0.853727
1363.07	1.17187
1364.66	0.970991
1366.25	0.77063
1367.83	0.611153
1369.42	0.910888
1371	0.893493
1372.59	1.1959
1374.17	0.504563
1375.75	0.788897
1377.34	0.635566
1378.92	0.601104
1380.5	0.505937
1382.09	0.608433
1383.67	0.649922
1385.25	0.948788
1386.83	0.611198
1388.42	0.631547
1390	0.632714
1391.58	0.59511
1393.16	0.717026
1394.74	0.700425
1396.32	0.247413
1397.9	0.765254
1399.48	0.390068
1401.06	0.687653
1402.64	0.628073
1404.21	0.430079
1405.79	0.865561
1407.37	1.02483
1408.95	0.453827
1410.53	1.08857
1412.1	0.735563
1413.68	1.05332
1415.26	1.36988
1416.83	0.699249
1418.41	1.40861
1419.98	0.758389
1421.56	0.917198
1423.13	0.664148
1424.71	1.06236
1426.28	0.891047
1427.86	0.858036
1429.43	0.824732
1431	0.554337
1432.58	1.08968
1434.15	1.15167
1435.72	1.52786
1437.29	1.82541
1438.87	1.14083
1440.44	2.10843
1442.01	1.9764
1443.58	2.35611
1445.15	2.42183
1446.72	2.52709
1448.29	2.08213
1449.86	2.65973
1451.43	2.35321
1453	2.00785
1454.57	1.97749
1456.14	2.10447
1457.71	1.89621
1459.27	1.47004
1460.84	1.43565
1462.41	2.3633
1463.98	1.63663
1465.54	1.55812
1467.11	1.63648
1468.67	1.32251
1470.24	1.46115
1471.81	0.659266
1473.37	0.721845
1474.94	0.76556
1476.5	0.888108
1478.07	0.61865
1479.63	0.466808
1481.19	0.452118
1482.76	0.594129
1484.32	0.775146
1485.88	0.622714
1487.45	0.841678
1489.01	0.843793
1490.57	0.335318
1492.13	0.0991154
1493.69	0.251894
1495.26	0.773279
1496.82	0.7468
1498.38	0.194834
1499.94	0.655376
1501.5	0.125924
1503.06	0.432611
1504.62	0.352085
1506.17	0.407454
1507.73	0.346068
1509.29	-0.199137
1510.85	-0.146055
1512.41	0.522751
1513.97	0.650625
1515.52	0.0672312
1517.08	0.215367
1518.64	0.402268
1520.19	0.167972
1521.75	0.125709
1523.31	-0.127028
1524.86	0.00188065
1526.42	0.167648
1527.97	0.465389
1529.52	0.590663
1531.08	0.81051
1532.63	-0.126245
1534.19	0.66346
1535.74	0.393151
1537.29	0.558928
1538.85	0.762794
1540.4	0.664963
1541.95	0.567413
1543.5	0.771069
1545.06	1.08693
1546.61	0.387751
1548.16	0.909379
1549.71	0.830149
1551.26	0.67639
1552.81	0.860174
1554.36	1.13805
1555.91	0.389788
1557.46	0.745463
1559.01	0.953508
1560.56	0.267925
1562.11	1.13235
1563.65	0.412171
1565.2	1.09179
1566.75	0.763966
1568.29	1.2757
1569.84	1.39517
1571.39	1.23426
1572.94	1.74506
1574.48	1.63971
1576.03	0.993035
1577.57	1.46665
1579.12	1.79141
1580.66	1.25798
1582.21	2.03252
1583.75	1.53801
1585.3	1.4551
1586.84	1.50351
1588.38	1.04708
1589.93	1.75019
1591.47	1.47999
1593.01	1.78958
1594.55	1.51843
1596.1	1.73431
1597.64	1.20107
1599.18	1.58688
1600.72	1.67361
1602.26	1.89229
1603.8	1.60412
1605.34	2.08522
1606.88	1.28724
1608.42	1.05079
1609.96	2.01488
1611.5	1.20999
1613.04	1.84976
1614.58	1.43651
1616.12	1.49225
1617.65	1.26727
1619.19	1.04375
1620.73	1.29011
1622.27	1.42536
1623.8	1.65499
1625.34	1.32301
1626.87	1.62663
1628.41	1.76037
1629.95	1.33156
1631.48	1.74315
1633.02	1.91105
1634.55	1.33244
1636.09	2.22921
1637.62	1.858
1639.15	2.00974
1640.69	2.38503
1642.22	1.38078
1643.76	2.08933
1645.29	2.07008
1646.82	2.0127
1648.35	1.76929
1649.88	2.84498
1651.42	2.10187
1652.95	2.36248
1654.48	2.34598
1656.01	2.01508
1657.54	2.49955
1659.07	2.39012
1660.6	2.02021
1662.13	2.57413
1663.66	2.60844
1665.19	1.99567
1666.72	2.6761
1668.24	2.656
1669.77	1.95563
1671.3	2.25242
1672.83	2.56862
1674.35	2.3327
1675.88	2.46481
1677.41	1.93341
1678.93	1.54844
1680.46	2.0085
1681.99	1.25456
1683.51	1.05212
1685.04	1.41886
1686.56	1.71215
1688.09	0.795925
1689.61	1.12673
1691.13	1.16449
1692.66	0.964385
1694.18	0.874159
1695.71	0.875263
1697.23	0.894382
1698.75	1.18705
1700.27	0.913201
1701.8	0.420341
1703.32	0.437895
1704.84	0.545943
1706.36	0.635191
1707.88	0.433167
1709.4	0.140602
1710.92	0.393039
1712.44	0.282579
1713.96	0.589145
1715.48	0.370307
1717	0.0251551
1718.52	0.294898
1720.04	0.31133
1721.56	0.760911
1723.07	0.363025
1724.59	0.633259
1726.11	0.238207
1727.63	0.366748
1729.14	0.478126
1730.66	0.748152
1732.18	0.460661
1733.69	0.369583
1735.21	0.209619
1736.72	0.551564
1738.24	0.263007
1739.75	0.135648
1741.27	0.545927
1742.78	0.391012
1744.3	0.412314
1745.81	0.854281
1747.32	0.0831375
1748.84	-0.0860577
1750.35	0.268844
1751.86	0.0230179
1753.37	0.0370293
1754.89	0.424307
1756.4	0.322819
1757.91	0.204741
1759.42	-0.0504322
1760.93	0.286256
1762.44	0.102962
1763.95	0.352776
1765.46	0.173097
1766.97	0.236773
1768.48	0.218643
1769.99	0.181021
1771.5	0.368632
1773.01	0.275372
1774.52	0.301417
1776.03	0.28608
1777.53	0.0682297
1779.04	-0.110195
1780.55	-0.310682
1782.06	0.27625
1783.56	0.0875111
1785.07	-0.132853
1786.57	-0.0232286
1788.08	0.00801945
1789.59	0.137849
1791.09	0.331055
1792.6	0.0169716
1794.1	0.200213
1795.6	0.259241
1797.11	0.0662746
1798.61	0.3871
1800.12	-0.279305
1801.62	0.189383
1803.12	0.214298
1804.63	0.0173531
1806.13	-0.212848
1807.63	-0.0198078
1809.13	-0.135024
1810.63	0.00182724
1812.14	0.180212
1813.64	0.00865269
1815.14	-0.0109558
1816.64	-0.0263596
1818.14	0.163376
1819.64	0.115685
1821.14	-0.254271
1822.64	-0.240372
1824.14	-0.149015
1825.63	-0.145599
1827.13	0.0431604
1828.63	0.141969
1830.13	0.159582
1831.63	-0.0392427
1833.12	0.0108767
1834.62	-0.0762444
1836.12	-0.0921507
1837.62	-0.0481071
1839.11	0.115059
1840.61	0.228935
1842.1	0.305801
1843.6	0.0786963
1845.09	-0.210309
1846.59	0.0215311
1848.08	0.303535
1849.58	0.135654
1851.07	0.210179
1852.57	0.249313
1854.06	0.389229
1855.55	0.110119
1857.04	-0.0763168
1858.54	0.116298
1860.03	0.0669975
1861.52	0.17277
1863.01	-0.0320578
1864.5	-0.191401
1866	0.125999
1867.49	0.299249
1868.98	0.0454378
1870.47	0.00905895
1871.96	-0.0205584
1873.45	0.0374041
1874.94	0.34476
1876.43	-0.141474
1877.92	0.0497694
1879.41	-0.32502
1880.89	0.017252
1882.38	-0.0046339
1882.48	-0.00776768
1883.97	0.13384
1885.47	-0.0913162
1886.96	0.135795
1888.46	0.257739
1889.95	0.014327
1891.44	-0.210603
1892.94	0.0875959
1894.43	-0.169
1895.92	-0.250373
1897.41	-0.0179873
1898.9	0.0926495
1900.4	0.585156
1901.89	0.101968
1903.38	-0.191361
1904.87	-0.190248
1906.36	0.0186415
1907.85	-0.0679522
1909.34	0.00227165
1910.83	0.19472
1912.32	0.179707
1913.81	0.182565
1915.29	0.306893
1916.78	0.257498
1918.27	0.103636
1919.76	0.0707302
1921.25	-0.256715
1922.74	0.109007
1924.22	0.284883
1925.71	-0.403827
1927.2	0.137541
1928.68	-0.0476141
1930.17	-0.457952
1931.65	0.256604
1933.14	0.225237
1934.63	0.192272
1936.11	0.244309
1937.59	0.139565
1939.08	0.138184
1940.56	0.0679684
1942.05	0.309218
1943.53	0.533932
1945.01	0.052269
1946.5	0.226342
1947.98	0.176071
1949.46	0.22853
1950.94	0.193944
1952.43	0.0897198
1953.91	-0.13527
1955.39	-0.0335574
1956.87	0.137033
1958.35	0.290849
1959.83	-0.120934
1961.31	0.154017
1962.79	0.257517
1964.27	0.0695052
1965.75	-0.0845361
1967.23	0.274442
1968.71	-0.000488758
1970.19	0.391035
1971.67	0.286416
1973.14	-0.159493
1974.62	0.0946126
1976.1	0.433726
1977.58	0.636268
1979.05	0.345
1980.53	-0.0479741
1982.01	0.307359
1983.48	0.593976
1984.96	0.082087
1986.43	0.249164
1987.91	0.636263
1989.38	-0.213174
1990.86	0.0391464
1992.33	0.275043
1993.81	0.393249
1995.28	0.495203
1996.76	0.20893
1998.23	0.463242
1999.7	-0.177779
2001.18	0.548059
2002.65	0.412553
2004.12	0.2096
2005.59	0.563175
2007.06	0.378115
2008.54	0.278214
2010.01	0.397992
2011.48	0.248873
2012.95	0.284984
2014.42	0.18608
2015.89	0.271599
2017.36	0.356243
2018.83	0.742656
2020.3	0.120022
2021.77	0.354351
2023.24	0.185863
2024.71	0.437663
2026.17	0.38841
2027.64	-0.0453038
2029.11	0.310598
2030.58	0.0470557
2032.04	0.60649
2033.51	0.209876
2034.98	-0.00231934
2036.45	0.120987
2037.91	0.630354
2039.38	0.332865
2040.84	0.169646
2042.31	0.595164
2043.77	0.298332
2045.24	0.271291
2046.7	0.19438
2048.17	0.606151
2049.63	0.596729
2051.1	0.282881
2052.56	0.389073
2054.02	0.561128
2055.48	0.680958
2056.95	0.394857
2058.41	0.546328
2059.87	0.613277
2061.33	0.54582
2062.8	0.630619
2064.26	0.447008
2065.72	0.836511
2067.18	0.907029
2068.64	0.641493
2070.1	0.510848
2071.56	0.413881
2073.02	0.249402
2074.48	0.556136
2075.94	0.0711217
2077.4	0.815085
2078.86	0.716663
2080.31	0.297884
2081.77	0.14808
2083.23	0.43539
2084.69	0.873332
2086.14	0.771989
2087.6	0.636504
2089.06	0.685612
2090.52	0.633677
2091.97	0.313097
2093.43	0.764631
2094.88	0.662006
2096.34	0.458484
2097.79	0.891072
2099.25	0.452153
2100.7	0.381504
2102.16	0.645331
2103.61	0.508726
2105.07	0.95755
2106.52	0.589772
2107.97	1.25727
2109.43	0.824234
2110.88	0.924378
2112.33	0.92325
2113.78	0.837264
2115.24	0.450383
2116.69	0.778188
2118.14	0.723625
2119.59	1.10187
2121.04	1.00033
2122.49	1.16602
2123.94	1.18378
2125.39	1.51722
2126.84	1.28664
2128.29	1.12149
2129.74	1.22026
2131.19	1.25144
2132.64	1.5963
2134.09	1.42785
2135.54	1.29337
2136.98	1.524
2138.43	1.72323
2139.88	2.03999
2141.33	1.58157
2142.77	1.75242
2144.22	1.69244
2145.67	1.6491
2147.11	1.57231
2148.56	1.97515
2150.01	1.79752
2151.45	1.23775
2152.9	2.30073
2154.34	2.43499
2155.79	1.60785
2157.23	2.12267
2158.67	2.00867
2160.12	1.94564
2161.56	1.48659
2163	2.33865
2164.45	2.33059
2165.89	2.33999
2167.33	2.18319
2168.78	1.99189
2170.22	1.83188
2171.66	2.08558
2173.1	2.17102
2174.54	2.07205
2175.98	1.7064
2177.42	2.10589
2178.86	2.22337
2180.3	1.84304
2181.74	2.09535
2183.18	2.29842
2184.62	2.4852
2186.06	2.07323
2187.5	2.16029
2188.94	2.01441
2190.38	1.8518
2191.82	2.2882
2193.25	1.62507
2194.69	1.87634
2196.13	1.21028
2197.57	1.55774
2199	1.8034
2200.44	1.61567
2201.88	1.54424
2203.31	1.22465
2204.75	1.61944
2206.18	1.40158
2207.62	1.69799
2209.05	1.29847
2210.49	1.52756
2211.92	1.55691
2213.36	1.86648
2214.79	1.26698
2216.22	1.54368
2217.66	1.06221
2219.09	1.25845
2220.52	1.2905
2221.96	0.712861
2223.39	1.22235
2224.82	0.923233
2226.25	1.05076
2227.68	0.864169
2229.11	0.988796
2230.55	0.800707
2231.98	1.03888
2233.41	0.752933
2234.84	0.680822
2236.27	0.756892
2237.7	0.605674
2239.12	0.652083
2240.55	0.39028
2241.98	0.766208
2243.41	0.751772
2244.84	0.900784
2246.27	0.983982
2247.7	0.641713
2249.12	0.672687
2250.55	0.701643
2251.98	0.696401
2253.41	0.202519
2254.83	0.668335
2256.26	0.744975
2257.68	0.791134
2259.11	0.710016
2260.54	0.858656
2261.96	0.782348
2263.39	0.886065
2264.81	0.535199
2266.24	0.638889
2267.66	0.351551
2269.08	0.746681
2270.51	0.832039
2271.93	0.770417
2273.35	0.952879
2274.78	0.549048
2276.2	0.699183
2277.62	0.262815
2279.04	0.69029
2280.47	0.514586
2281.89	0.273434
2283.31	0.749916
2284.73	0.557585
2286.15	0.659147
2287.57	0.401866
2288.99	0.373454
2290.41	0.459747
2291.83	0.628079
2293.25	0.224264
2294.67	0.867198
2296.09	0.659447
2297.51	0.304081
2298.93	0.456294
2300.35	0.608788
2301.76	0.532099
2303.18	0.668859
2304.6	0.0179958
2306.02	0.598114
2307.44	-0.0045228
2308.85	0.361678
2310.27	0.513881
2311.69	0.616468
2313.1	0.291267
2314.52	0.21307
2315.93	0.662346
2317.35	0.239559
2318.76	0.0969324
2320.18	0.349806
2321.59	0.486488
2323.01	0.440079
2324.42	0.160592
2325.83	0.654704
2327.25	1.03147
2328.66	0.830247
2330.07	0.299964
2331.49	0.56122
2332.9	0.28012
2334.31	0.411275
2335.72	-0.41154
2337.13	-0.000828266
2338.55	0.408823
2339.96	0.0941033
2341.37	0.370113
2342.78	0.136563
2344.19	0.214882
2345.6	0.621096
2347.01	0.191706
2348.42	0.106624
2349.83	0.39758
2351.24	-0.129873
2352.65	0.55133
2354.05	0.41459
2355.46	-0.0322018
2356.87	0.335784
2358.28	0.0198078
2359.69	0.175774
2361.09	0.526256
2362.5	-0.129256
2363.91	0.0587378
2365.31	0.133013
2366.72	-0.0836301
2368.13	0.0881371
2369.53	-0.158978
2370.94	-0.0983653
2372.34	0.25325
2373.75	0.396033
2375.15	0.104435
2376.56	0.118487
2377.96	0.581871
2379.37	0.223793
2380.77	0.185943
2382.17	0.403513
2383.58	0.171318
2384.98	-0.15652
2386.38	0.0040493
2387.79	0.164977
2389.19	0.238889
2390.59	0.297812
2391.99	0.27806
2393.39	-0.0908475
2394.8	-0.0292749
2396.2	0.0646305
2397.6	-0.0635018
2399	0.142586
2400.4	0.301348
2401.8	0.174425
2403.2	0.476376
2404.6	0.0951428
2406	0.0467291
2407.4	0.235573
2408.79	0.0905128
2410.19	-0.118105
2411.59	-0.120385
2412.99	0.0363564
2414.39	-0.170104
2415.78	0.0996313
2417.18	-0.199457
2418.58	0.0721745
2419.98	0.0116453
2421.37	0.0460458
2422.77	0.460388
2424.16	0.161594
2425.56	0.385698
2426.96	0.134832
2428.35	0.455305
2429.74	-0.0320101
2431.14	0.147267
2432.53	0.0728617
2433.93	-0.00202799
2435.32	0.366931
2436.72	0.0992231
2438.11	0.0526304
2439.5	0.147918
2440.9	0.321768
2442.29	-0.0447063
2443.68	0.398123
2445.07	0.0790854
2446.47	0.204117
2447.86	-0.0514183
2449.25	0.21599
2450.64	-0.0233173
2452.03	-0.0245838
2453.42	0.164671
2454.81	0.0698056
2456.2	0.197025
2457.59	0.229608
2458.98	0.277884
2460.37	0.278223
2461.76	0.325305
2463.15	0.0239444
2464.54	0.196287
2465.93	0.210295
2467.32	-0.0915022
2468.7	0.0171652
2470.09	-0.331787
2471.48	0.217728
2472.87	0.198933
2474.25	0.0378256
2475.64	0.0966282
2477.03	-0.0807476
2478.41	-0.0223141
2479.8	-0.277683
2481.18	0.110373
2482.57	0.137419
2483.95	0.0544553
2485.34	0.361912
2486.72	0.0740781
2488.11	0.0668511
2489.49	0.0590043
2490.88	0.175543
2492.26	0.121229
2493.65	0.0834708
2495.03	0.233088
2496.41	0.073524
2497.79	0.24022
2499.18	-0.181247
2500.56	-0.32396
2501.94	0.228415
2503.32	0.269454
2504.7	-0.29195
2506.09	0.241325
2507.47	0.0959916
2508.85	0.0894499
2510.23	0.497942
2511.61	-0.0297256
2512.99	0.088069
2514.37	-0.0999289
2515.75	0.00389481
2517.13	-0.320072
2518.51	0.151803
2519.89	0.103797
2521.26	0.116727
2522.64	0.00699663
2524.02	0.110259
2525.4	0.167036
2526.78	0.071208
2528.15	-0.191511
2529.53	0.124862
2530.91	-0.120134
2532.28	-0.0292668
2533.66	0.260232
2535.04	0.170531
2536.41	-0.283784
2537.79	0.157703
2539.16	0.233754
2540.54	0.0205808
2541.91	-0.162407
2543.29	-0.0264297
2544.66	-0.0263443
2546.04	0.141617
2547.41	-0.0685892
2548.78	0.192196
2550.16	0.0738268
2551.53	0.0916281
2552.9	-0.392143
2554.27	0.00345564
2555.65	-0.0417962
2557.02	0.0641875
2558.39	0.0486951
2559.76	-0.102997
2561.13	-0.0268245
2562.51	-0.177451
2563.88	-0.115403
2565.25	-0.00751925
2566.62	0.297603
2567.99	0.239119
2569.36	0.120028
2570.73	0.0918784
2572.1	0.0334573
2573.47	0.126696
2574.84	-0.174109
2576.2	-0.232345
2577.57	0.103585
2578.94	0.0906353
2580.31	0.0167542
2581.68	0.15482
2583.05	0.0954666
2584.41	0.0814104
2585.78	-0.281316
2587.15	-0.219473
2588.51	-0.0059185
2589.88	-0.0499058
2591.24	-0.200043
2592.61	0.134349
2593.98	-0.24401
2595.34	-0.0323772
2596.71	0.314466
2598.07	0.433348
2599.44	0.279617
2600.8	0.23193
2602.16	-0.19282
2603.53	0.107991
2604.89	0.439237
2606.26	-0.0592065
2607.62	0.0607095
2608.98	0.209983
2610.34	-0.0937896
2611.71	0.0231986
2613.07	0.349526
2614.43	-0.241758
2615.79	0.0533056
2617.15	-0.0417938
2618.52	0.103425
2619.88	0.174246
2621.24	0.0811262
2622.6	-0.325178
2623.96	0.359349
2625.32	0.087903
2626.68	0.323648
2628.04	-0.0968733
2629.4	0.0190353
2630.75	0.0899706
2632.11	0.220174
2633.47	0.365003
2634.83	0.168218
2636.19	0.0458927
2637.55	-0.0317736
2638.9	0.0388079
2640.26	-0.053319
2641.62	0.38714
2642.98	-0.221678
2644.33	0.277749
2645.69	0.156827
2647.04	-0.0969119
2648.4	0.120553
2649.76	-0.0162234
2651.11	-0.123895
2652.47	0.032753
2653.82	0.101241
2655.18	0.228864
2656.53	-0.126099
2657.88	-0.245394
2659.24	-0.305281
2660.59	0.27861
2661.95	-0.0588751
2663.3	0.231602
2664.65	0.287502
2666	0.47395
2667.36	0.441086
2668.71	0.146088
2670.06	-0.119092
2671.41	0.299942
2672.76	-0.167379
2674.12	-0.212466
2675.47	-0.169932
2676.82	-0.359093
2678.17	-0.736119
2679.52	0.105706
2680.87	0.295693
2682.22	-0.0642281
2683.57	-0.0462036
2684.92	0.0161648
2686.27	-0.0515938
2687.62	0.388535
2688.97	0.0875101
2690.31	0.206046
2691.66	-0.0688629
2693.01	0.13393
2694.36	-0.0848041
2695.71	0.174802
2697.05	0.0435457
2698.4	0.087245
2699.75	-0.258605
2701.09	0.294774
2702.44	0.00954914
2703.78	0.14526
2705.13	0.0930939
2706.48	0.200491
2707.82	0.409366
2709.17	0.255169
2710.51	0.20219
2711.86	0.642871
2713.2	0.197324
2714.54	0.303807
2715.89	0.366704
2717.23	0.473168
2718.57	0.113953
2719.92	0.278119
2721.26	0.034483
2722.6	0.518146
2723.95	0.273703
2725.29	0.349114
2726.63	0.322329
2727.97	0.280735
2729.31	0.399035
2730.65	0.124333
2732	0.431633
2733.34	0.433458
2734.68	0.58091
2736.02	0.321283
2737.36	0.265442
2738.7	0.0932608
2740.04	0.400812
2741.38	0.388027
2742.72	0.142118
2744.05	0.666012
2745.39	-0.00225115
2746.73	0.462356
2748.07	0.258709
2749.41	0.142341
2750.75	0.330818
2752.08	0.258423
2753.42	0.287745
2754.76	0.0274482
2756.09	0.288857
2757.43	0.0434747
2758.77	0.102444
2760.1	0.277504
2761.44	-0.111442
2762.78	0.267003
2764.11	0.370772
2765.44	0.214114
2766.78	0.216267
2768.11	0.188742
2769.45	0.362607
2770.78	0.303868
2772.12	0.0563102
2773.45	-0.162858
2774.78	0.108083
2776.12	0.0472221
2777.45	0.0587335
2778.78	0.156977
2780.12	0.183674
2781.45	0.0382986
2782.78	0.323745
2784.11	0.307606
2785.44	0.205484
2786.78	0.261211
2788.11	0.116891
2789.44	0.102151
2790.77	0.331317
2792.1	0.203561
2793.43	-0.152446
2794.76	0.120608
2796.09	0.378988
2797.42	0.151117
2798.75	0.165681
2800.08	0.165615
2801.4	0.53623
2802.73	0.150643
2804.06	0.0217628
2805.39	0.134808
2806.72	0.0764289
2808.05	0.259413
2809.37	0.512834
2810.7	0.311442
2812.03	0.32372
2813.35	0.407856
2814.68	0.0961795
2816.01	-0.114893
2817.33	0.0151658
2818.66	0.329965
2819.98	0.247932
2821.31	0.406487
2822.63	0.295205
2823.96	0.495135
2825.28	-0.112706
2826.61	0.483478
2827.93	0.428554
2829.25	0.402441
2830.58	0.334265
2831.9	0.153041
2833.23	0.410598
2834.55	0.540486
2835.87	0.868067
2837.19	0.813048
2838.52	0.616217
2839.84	0.71629
2841.16	1.33951
2842.48	1.38326
2843.8	1.45584
2845.12	1.37361
2846.44	1.47566
2847.77	1.59219
2849.08	1.93489
2850.4	1.92401
2851.73	2.05401
2853.05	2.31072
2854.36	2.04415
2855.68	1.91878
2857	2.3161
2858.32	2.14837
2859.64	2.54556
2860.96	2.23648
2862.28	2.44955
2863.59	2.83155
2864.91	2.71925
2866.23	2.97373
2867.55	3.20011
2868.86	3.29991
2870.18	3.1604
2871.5	3.23254
2872.81	3.50171
2874.13	3.6996
2875.44	4.07945
2876.76	4.04959
2878.07	3.92042
2879.39	4.10048
2880.7	3.94327
2882.02	3.98371
2883.33	3.67403
2884.65	3.21102
2885.96	4.37718
2887.28	3.67627
2888.59	4.0557
2889.9	3.73278
2891.21	3.78786
2892.53	4.16464
2893.84	4.21867
2895.15	4.48303
2896.46	3.88012
2897.78	4.18817
2899.09	4.55303
2900.4	4.51289
2901.71	4.51517
2903.02	4.25189
2904.33	4.56222
2905.64	4.80286
2906.95	5.54757
2908.26	5.24403
2909.57	5.05319
2910.88	5.63252
2912.19	5.48421
2913.5	5.51707
2914.81	5.61852
2916.12	6.12416
2917.43	6.446
2918.73	6.66861
2920.04	5.96774
2921.35	6.66616
2922.66	6.54074
2923.96	6.76624
2925.27	7.09077
2926.58	7.45793
2927.88	7.12617
2929.19	7.68868
2930.5	7.62145
2931.8	7.80529
2933.11	7.206
2934.41	7.51522
2935.72	7.30738
2937.02	7.44908
2938.33	7.42324
2939.63	6.90859
2940.94	7.05121
2942.24	7.3624
2943.54	6.66861
2944.85	5.91999
2946.15	6.27689
2947.45	5.62731
2948.76	5.83075
2950.06	5.90717
2951.36	5.14162
2952.66	5.4663
2953.97	5.48145
2955.27	5.09019
2956.57	5.27366
2957.87	5.33308
2959.17	5.14313
2960.47	5.41801
2961.77	4.53176
2963.07	4.86549
2964.37	5.08686
2965.67	4.85753
2966.97	4.5279
2968.27	4.08419
2969.57	4.60971
2970.87	4.09447
2972.17	3.97311
2973.47	3.76754
2974.77	4.05448
2976.07	3.70734
2977.36	3.37294
2978.66	3.88171
2979.96	3.14985
2981.26	3.26141
2982.55	3.30195
2983.85	3.44108
2985.15	3.03294
2986.44	3.11815
2987.74	2.93767
2989.03	2.6597
2990.33	2.49433
2991.63	2.45495
2992.92	2.16161
2994.21	2.07792
2995.51	2.28816
2996.8	2.02012
2998.1	1.80817
2999.39	1.97527
3000.69	1.62382
3001.98	1.34316
3003.27	1.73556
3004.57	1.91763
3005.86	1.74917
3007.15	1.52422
3008.44	1.5365
3009.74	1.35214
3011.03	1.20919
3012.32	1.51275
3013.61	0.713628
3014.9	0.891795
3016.19	1.00055
3017.48	1.0401
3018.78	1.02432
3020.07	1.16153
3021.36	0.505882
3022.65	0.989223
3023.94	0.943533
3025.23	0.730785
3026.51	0.753603
3027.8	0.582931
3029.09	0.772846
3030.38	0.701123
3031.67	0.672073
3032.96	0.478191
3034.24	0.740057
3035.53	0.89084
3036.82	0.543924
3038.11	0.705629
3039.39	0.603858
3040.68	0.816998
3041.97	0.754138
3043.25	0.663846
3044.54	0.848139
3045.83	0.527388
3047.11	0.60513
3048.4	0.711933
3049.68	0.711173
3050.97	0.76626
3052.25	0.671859
3053.54	0.836645
3054.82	0.850667
3056.11	1.04096
3057.39	0.766521
3058.67	0.66865
3059.96	0.910922
3061.24	0.840099
3062.52	0.892459
3063.81	0.932258
3065.09	0.891707
3066.37	0.988232
3067.65	0.609664
3068.94	0.693593
3070.22	1.02202
3071.5	0.696774
3072.78	0.76476
3074.06	0.722728
3075.34	0.557478
3076.62	0.391953
3077.9	0.593257
3079.18	0.360967
3080.46	0.428351
3081.74	0.374815
3083.02	0.485
3084.3	0.487137
3085.58	0.244924
3086.86	0.680798
3088.14	0.274422
3089.42	0.288087
3090.69	0.301213
3091.97	0.354755
3093.25	0.598136
3094.53	0.312642
3095.8	0.176484
3097.08	0.108081
3098.36	0.513871
3099.63	0.512699
3100.91	0.362276
3102.19	0.279532
3103.46	0.291667
3104.74	0.155169
3106.01	0.073298
3107.29	0.0461597
3108.56	0.466311
3109.84	0.291745
3111.11	0.212555
3112.39	-0.0693722
3113.66	0.0687466
3114.94	0.233937
3116.21	0.263092
3117.48	0.115057
3118.76	-0.0612011
3120.03	0.358195
3121.3	-0.0912623
3122.57	0.177176
3123.85	0.0521898
3125.12	-0.00503254
3126.39	0.0597711
3127.66	0.165386
3128.93	-0.229246
3130.21	0.120121
3131.48	-0.220171
3132.75	0.00696754
3134.02	-0.374362
3135.29	0.175548
3136.56	0.184491
3137.83	0.354537
3139.1	-0.10937
3140.37	0.0597267
3141.64	0.134212
3142.91	-0.288571
3144.17	-0.160042
3145.44	0.236865
3146.71	0.0973034
3147.98	-0.122113
3149.25	-0.0196605
