200.523	0.209888
202.339	0.215741
204.154	0.222568
205.967	0.935662
207.781	0.0926495
209.596	0.416492
211.409	0.13204
213.222	-0.395734
215.034	0.458974
216.848	0.342657
218.659	0.517336
220.47	1.10391
222.281	0.166905
224.091	0.198861
225.903	-0.445237
227.713	-0.0499048
229.522	-0.0655699
231.331	0.0149918
233.14	0.215981
234.948	0.0314388
236.756	0.764242
238.566	0.341884
240.373	0.524455
242.18	0.0340691
243.986	0.268255
245.792	1.08195
247.598	0.325628
249.403	-0.0710688
251.208	0.785196
253.013	0.55261
254.818	0.318818
256.624	0.519019
258.427	0.358411
260.231	0.512692
262.034	-0.126207
263.836	0.127776
265.638	0.11778
267.44	0.541982
269.242	-0.552483
271.043	-0.635302
272.844	0.510689
274.645	-0.128586
276.445	0.412164
278.245	0.324562
280.044	0.211276
281.843	0.698128
283.642	0.485244
285.44	1.08838
287.238	-0.110293
289.036	0.180045
290.833	0.422661
292.63	0.115629
294.425	0.0735788
296.221	-0.086607
298.017	0.543005
299.813	0.217052
301.608	0.201704
303.403	0.233443
305.198	0.240278
306.992	0.365623
308.786	-0.248227
310.579	0.330376
312.371	0.480923
314.163	0.0376749
315.956	0.715339
317.748	0.0373592
319.54	-0.0439825
321.331	0.25703
323.122	0.0344515
324.911	0.5995
326.701	0.043191
328.491	0.346171
330.281	0.792428
332.071	0.616241
333.857	1.0844
335.646	0.641474
337.434	0.675041
339.222	0.491425
341.008	0.689191
342.795	0.384155
344.582	0.652844
346.369	-0.296256
348.153	-0.456159
349.939	-0.066452
351.724	-0.273537
353.51	-0.0753174
355.292	0.21733
357.077	0.365576
358.861	0.441037
360.643	0.396338
362.426	0.112961
364.21	0.0909433
365.99	0.282175
367.773	0.329999
369.555	-0.192054
371.335	0.328406
373.116	0.0427523
374.897	0.0646658
376.676	0.228255
378.456	0.226946
380.236	0.579836
382.014	-0.0788603
383.793	0.41709
385.57	0.678559
387.349	-0.233917
389.127	0.358634
390.903	0.0593348
392.681	0.324494
394.456	0.754593
396.233	0.269187
398.007	-0.00477982
399.784	0.825023
401.56	0.0573187
403.333	-0.217682
405.108	0.446177
406.881	0.381284
408.656	-0.08321
410.428	0.273773
412.202	-0.0264244
413.973	-0.0210867
415.746	-0.0151005
417.517	0.132387
419.29	0.609035
421.06	0.241109
422.831	0.271941
424.601	-0.190833
426.37	0.190745
428.141	-0.0387526
429.909	0.106956
431.679	0.111831
433.447	0.398636
435.216	-0.370358
436.983	-0.0597677
438.75	0.109407
440.519	-0.027751
442.285	0.419829
444.052	0.583734
445.818	0.511484
447.583	0.578707
449.349	0.341436
451.114	0.0813446
452.878	0.0320854
454.643	0.332981
456.407	-0.205616
458.169	-0.231149
459.934	0.185557
461.696	0.113968
463.458	0.346002
465.222	0.533571
466.983	0.212531
468.744	0.567836
470.507	0.506555
472.267	0.469013
474.027	0.640293
475.787	0.484028
477.548	-0.000395775
479.307	0.538496
481.065	0.727071
482.823	0.403408
484.583	0.430215
486.341	0.388895
488.098	0.815641
489.855	0.451778
491.612	0.718621
493.37	0.238855
495.126	0.927764
496.881	0.330359
498.636	0.69227
500.391	0.163244
502.148	0.125654
503.902	0.463044
505.656	0.212266
507.409	0.430315
509.162	0.106104
510.915	0.297976
512.668	0.370845
514.42	-0.0282078
516.174	0.536192
517.925	0.464251
519.676	0.532506
521.427	0.553033
523.178	0.0330009
524.928	0.123574
526.678	0.44862
528.427	0.773353
530.176	0.371201
531.925	0.203319
533.673	0.105144
535.422	0.637582
537.169	0.373349
538.917	0.388498
540.664	0.192698
542.411	0.672099
544.157	0.242751
545.903	0.41853
547.649	0.988576
549.395	0.120337
551.14	-0.0742559
552.884	0.171199
554.629	0.462508
556.373	0.499566
558.117	0.467731
559.86	0.436415
561.603	0.152461
563.346	0.559499
565.089	0.506787
566.831	0.225041
568.573	-0.0327005
570.314	0.605681
572.053	-0.177462
573.794	0.165092
575.534	-0.224916
577.274	0.327168
579.014	0.00845051
580.754	-0.424748
582.493	0.267694
584.23	0.362565
585.968	0.0656195
587.706	0.526541
589.444	0.181283
591.181	0.479376
592.919	-0.488412
594.653	0.0621748
596.39	0.267674
598.126	-0.263077
599.862	-0.0349226
601.595	0.146467
603.33	-0.225267
605.065	0.344539
606.8	-0.259152
608.532	-0.10505
610.266	-0.134846
611.999	0.2028
613.732	0.31154
615.463	0.58122
617.196	0.140621
618.928	0.432729
620.66	0.0826769
622.389	0.532581
624.12	0.0210247
625.851	0.081274
627.58	0.0739031
629.31	0.205163
631.04	-0.0722933
632.767	0.382217
634.497	0.358468
636.223	0.311564
637.952	0.537022
639.68	0.417635
641.406	0.637802
643.134	0.0578279
644.861	0.434031
646.586	0.741625
648.312	0.254916
650.037	0.0669012
651.762	-0.208637
653.486	0.291817
655.211	0.249798
656.936	0.460162
658.659	0.421023
660.383	0.586771
662.105	0.294595
663.829	1.16546
665.55	0.388789
667.273	0.0672932
668.994	0.225348
670.716	0.224001
672.436	0.33876
674.158	0.478681
675.877	0.574849
677.598	0.0986795
679.317	0.310688
681.035	0.499238
682.755	0.84755
684.473	0.15845
686.192	-0.141516
687.909	0.662605
689.628	0.0147982
691.344	0.495015
693.06	0.145421
694.778	0.394045
696.493	-0.0721254
698.211	0.565888
699.925	0.650067
701.64	0.27317
703.356	0.0567627
705.07	0.437174
706.783	0.288737
708.498	0.163076
710.211	0.655914
711.924	1.17048
713.638	0.65459
715.35	0.48222
717.061	0.880881
718.774	0.594575
720.485	0.605209
722.196	0.889208
723.906	0.876987
725.618	0.319077
727.328	0.693085
729.037	0.657596
730.746	0.712439
732.456	0.44976
734.165	0.685172
735.873	-0.164704
737.58	0.861469
739.289	0.983959
740.997	0.521075
742.703	0.735686
744.41	1.24389
746.116	1.50536
747.823	0.643133
749.529	1.51442
751.234	0.587399
752.938	0.516227
754.643	1.23364
756.347	1.57022
758.051	0.895287
759.756	0.94187
761.459	1.10223
763.162	1.17303
764.865	1.4469
766.567	0.771074
768.269	1.49445
769.97	0.79178
771.671	1.62483
773.372	0.98676
775.073	1.75025
776.773	1.38367
778.473	2.10362
780.174	1.26471
781.874	1.73853
783.573	1.14908
785.271	1.55428
786.97	1.6631
788.668	1.38421
790.365	1.2609
792.063	1.67773
793.76	1.95688
795.456	1.40064
797.153	1.81535
798.847	1.39771
800.543	1.4774
802.238	0.973356
803.933	1.32487
805.628	1.40618
807.322	1.48666
809.017	1.00457
810.71	1.06064
812.404	1.34003
814.097	1.8201
815.79	1.44847
817.483	1.56949
819.173	1.31046
820.865	2.23546
822.556	1.84293
824.248	1.47405
825.939	1.70859
827.629	1.36577
829.318	1.58238
831.008	1.15587
832.697	1.37776
834.387	1.84695
836.076	1.75996
837.765	1.53873
839.451	1.58413
841.139	1.3824
842.827	1.51447
844.514	0.975785
846.2	1.3986
847.886	1.42081
849.573	1.37815
851.259	1.38246
852.943	1.16435
854.629	1.68709
856.314	1.55933
857.997	0.958073
859.682	1.09688
861.366	0.401139
863.05	0.784614
864.732	1.30254
866.415	0.71533
868.098	1.16451
869.779	1.20751
871.461	0.799076
873.141	1.08973
874.823	1.15474
876.505	1.19721
878.184	0.878574
879.865	1.16922
881.545	0.646887
883.223	0.643097
884.903	0.52548
886.581	0.79038
888.26	0.30922
889.937	1.08995
891.616	0.628972
893.294	0.978158
894.97	1.30324
896.648	0.997321
898.323	0.55638
900	0.855751
901.675	0.772871
903.351	0.868683
905.026	0.986445
906.701	0.99251
908.375	0.798507
910.05	1.20694
911.723	1.17043
913.398	0.867913
915.07	1.72084
916.742	1.01945
918.415	1.1171
920.087	0.306922
921.76	1.02502
923.43	0.659893
925.103	0.760575
926.773	0.774463
928.443	0.833961
930.114	0.409038
931.783	1.19832
933.454	0.906664
935.123	1.2549
936.791	1.00797
938.461	1.04856
940.128	0.847654
941.796	1.39783
943.464	1.17659
945.131	0.712302
946.797	0.467556
948.465	0.684732
950.131	1.2312
951.797	1.13648
953.462	0.622855
955.128	0.463688
956.793	0.527467
958.457	0.880867
960.121	0.883936
961.786	0.976732
963.45	0.406343
965.113	0.607855
966.775	0.143434
968.44	0.362388
970.102	0.336182
971.763	0.773748
973.425	0.526032
975.086	1.03152
976.748	-0.0757818
978.409	-0.231023
980.069	0.0788774
981.729	0.388598
983.388	0.630842
985.048	0.56145
986.708	0.932871
988.367	0.815709
990.025	0.432179
991.683	-0.172492
993.341	0.526504
994.998	0.297669
996.655	0.598662
998.312	1.00952
999.969	0.361981
1001.62	0.705841
1003.28	0.652748
1004.94	0.643413
1006.59	0.172511
1008.25	0.295285
1009.9	0.440111
1011.56	0.453552
1013.21	0.357795
1014.86	0.350105
1016.52	0.539796
1018.17	0.839147
1019.82	0.0235672
1021.48	0.193336
1023.13	-0.0731993
1024.78	0.382366
1026.43	0.554234
1028.08	0.332772
1029.73	0.198189
1031.38	-0.199468
1033.03	0.667963
1034.68	0.267626
1036.33	0.0192289
1037.98	0.532962
1039.63	0.088089
1041.28	0.840744
1042.93	0.376334
1044.57	-0.0208397
1046.22	0.561331
1047.87	0.688887
1049.52	0.448716
1051.16	0.839519
1052.81	0.579436
1054.45	0.167459
1056.1	0.385598
1057.75	-0.222519
1059.39	-0.0267849
1061.04	0.320659
1062.68	0.906637
1064.32	0.230618
1065.97	0.575593
1067.61	0.158764
1069.25	0.0672436
1070.9	0.192396
1072.54	0.0351591
1074.18	-0.0130301
1075.82	0.178303
1077.47	0.609247
1079.11	0.694242
1080.75	0.649801
1082.39	0.496911
1084.03	0.191455
1085.67	0.513294
1087.31	-0.0335894
1088.95	-0.0186796
1090.59	0.102892
1092.22	0.482634
1093.86	0.450911
1095.5	0.721478
1097.14	0.130091
1098.78	0.48859
1100.41	0.331565
1102.05	0.47764
1103.69	0.582193
1105.32	0.515812
1106.96	0.213363
1108.59	-0.0893087
1110.23	0.273684
1111.86	0.20522
1113.5	0.47908
1115.13	0.365104
1116.77	0.379459
1118.4	-0.0991316
1120.03	0.837439
1121.67	0.660436
1123.3	0.506
1124.93	0.138632
1126.56	0.606417
1128.19	0.732543
1129.83	0.730995
1131.46	0.281022
1133.09	0.301683
1134.72	-0.254926
1136.35	0.769598
1137.98	0.211574
1139.61	0.208158
1141.24	0.139813
1142.86	0.0711012
1144.49	0.301167
1146.12	0.126607
1147.75	0.293997
1149.38	-0.134474
1151	0.289669
1152.63	-0.0530062
1154.26	0.0512571
1155.88	0.240238
1157.51	0.322614
1159.14	0.362745
1160.76	0.382371
1162.39	0.0628099
1164.01	-0.234569
1165.63	-0.467743
1167.26	0.170586
1168.88	0.425203
1170.51	0.359365
1172.13	-0.451717
1173.75	-0.0957165
1175.38	0.343602
1177	0.400228
1178.62	-0.136121
1180.24	-0.163076
1181.86	-0.210374
1183.48	0.102345
1185.1	-0.155771
1186.72	-0.139904
1188.34	0.423051
1189.96	0.561654
1191.58	0.0455971
1193.2	0.37045
1194.82	0.399774
1196.44	-0.032155
1198.06	0.228828
1199.68	0.197959
1201.29	-0.102336
1202.91	-0.0866575
1204.53	0.119073
1206.14	-0.278537
1207.76	0.952323
1209.38	0.347481
1210.99	0.346884
1212.61	-0.176475
1214.22	0.340579
1215.84	0.355236
1217.45	-0.0685768
1219.07	0.130981
1220.68	0.496099
1222.29	-0.0513258
1223.91	0.708672
1225.52	-0.104667
1227.13	0.925975
1228.74	0.426338
1230.36	0.87932
1231.97	0.0722561
1233.58	1.06466
1235.19	1.19007
1236.8	0.655219
1238.41	1.13416
1240.02	0.993572
1241.63	0.418723
1243.24	0.236371
1244.85	0.694715
1246.46	0.903907
1248.07	1.02939
1249.67	0.781733
1251.28	0.926914
1252.89	1.09297
1254.5	0.949426
1256.1	0.434588
1257.71	1.12064
1259.32	0.66995
1260.92	0.592394
1262.53	1.67485
1264.13	1.10087
1265.74	0.878373
1267.34	0.219761
1268.95	0.96983
1270.55	0.620221
1272.15	0.912385
1273.76	0.705997
1275.36	1.01696
1276.97	1.32689
1278.57	0.330846
1280.17	0.660191
1281.77	1.4443
1283.37	1.33829
1284.97	0.571172
1286.58	1.02508
1288.18	1.1697
1289.78	1.39779
1291.38	1.37836
1292.98	1.35882
1294.58	1.52447
1296.18	0.842056
1297.78	1.12887
1299.37	0.898058
1300.97	0.954778
1302.57	1.75178
1304.17	1.22939
1305.77	0.789551
1307.36	1.58233
1308.96	1.08074
1310.55	1.64584
1312.15	1.14563
1313.75	1.73105
1315.34	1.3969
1316.94	1.53379
1318.53	1.65061
1320.13	1.60402
1321.72	1.55659
1323.32	1.58912
1324.91	1.47761
1326.5	1.60859
1328.1	1.63736
1329.69	1.46415
1331.28	1.07048
1332.87	1.26562
1334.47	2.18943
1336.06	2.04424
1337.65	1.83924
1339.24	1.2508
1340.83	1.06437
1342.42	1.74149
1344.01	1.1691
1345.6	1.56061
1347.19	1.6907
1348.78	1.76212
1350.37	1.61573
1351.96	1.51205
1353.54	1.25053
1355.13	0.69062
1356.72	1.45013
1358.31	1.22997
1359.89	1.46832
1361.48	0.966949
1363.07	1.34301
1364.65	1.27973
1366.24	1.09723
1367.82	1.27414
1369.41	1.43217
1370.99	0.894945
1372.58	1.17504
1374.16	0.839325
1375.75	0.56391
1377.33	1.12431
1378.91	0.729088
1380.5	1.00946
1382.08	0.930458
1383.66	0.94971
1385.25	1.70344
1386.83	1.5223
1388.41	1.18264
1389.99	1.34015
1391.57	0.565806
1393.15	1.32012
1394.73	0.765431
1396.31	0.984128
1397.89	0.290198
1399.47	1.51788
1401.05	1.07993
1402.63	1.29508
1404.21	0.995628
1405.78	0.934262
1407.36	1.0714
1408.94	0.893115
1410.52	0.75491
1412.1	1.5448
1413.67	0.774187
1415.25	0.200652
1416.82	1.34258
1418.4	0.886494
1419.98	1.04188
1421.55	1.33597
1423.13	0.430619
1424.7	1.08198
1426.28	0.848742
1427.85	0.753754
1429.42	0.815957
1431	1.23159
1432.57	0.976958
1434.14	1.76421
1435.71	0.898587
1437.29	2.19636
1438.86	1.31239
1440.43	0.999647
1442	1.72944
1443.57	1.57551
1445.14	1.79537
1446.71	1.62233
1448.28	1.50838
1449.85	1.96482
1451.42	1.73366
1452.99	1.36527
1454.56	1.46919
1456.13	1.10087
1457.7	1.79448
1459.26	1.48326
1460.83	1.36718
1462.4	2.05595
1463.97	1.70035
1465.54	1.50126
1467.1	0.69312
1468.67	0.808928
1470.23	0.807695
1471.8	0.729026
1473.36	0.925934
1474.93	1.04504
1476.49	0.831183
1478.06	0.950747
1479.62	0.736985
1481.19	0.875976
1482.75	0.877668
1484.31	0.134673
1485.88	0.371107
1487.44	0.391303
1489	0.136217
1490.56	0.740646
1492.13	0.775265
1493.69	0.632023
1495.25	0.506952
1496.81	0.848818
1498.37	0.800433
1499.93	0.538926
1501.49	0.298437
1503.05	0.641276
1504.61	-0.0619555
1506.17	0.51385
1507.73	-0.0916224
1509.28	0.655449
1510.84	0.975279
1512.4	0.619046
1513.96	0.109412
1515.52	0.273978
1517.07	0.745818
1518.63	0.546153
1520.19	0.788026
1521.74	1.2209
1523.3	0.849756
1524.85	0.154152
1526.41	0.469852
1527.96	0.0603485
1529.52	0.488081
1531.07	0.307031
1532.63	0.676799
1534.18	0.724519
1535.73	0.64069
1537.29	1.06805
1538.84	0.343855
1540.39	0.319096
1541.94	1.14215
1543.5	0.683792
1545.05	0.714966
1546.6	0.351461
1548.15	1.15179
1549.7	1.4069
1551.25	1.43699
1552.8	0.812845
1554.35	0.601904
1555.9	0.784768
1557.45	0.726397
1559	1.17368
1560.55	0.932302
1562.1	0.953644
1563.65	1.05066
1565.19	1.26017
1566.74	1.11526
1568.29	1.60465
1569.83	1.02981
1571.38	1.5372
1572.93	1.22299
1574.47	1.26331
1576.02	1.43433
1577.56	1.40022
1579.11	1.72123
1580.66	1.61348
1582.2	0.964849
1583.74	1.28813
1585.29	1.332
1586.83	1.37637
1588.38	1.53313
1589.92	1.57752
1591.46	1.71512
1593.01	0.95352
1594.55	1.42741
1596.09	1.78922
1597.63	1.4582
1599.17	1.65259
1600.71	1.84784
1602.25	1.2179
1603.79	1.43232
1605.34	1.32688
1606.88	1.10728
1608.41	1.506
1609.95	1.11314
1611.49	1.46979
1613.03	1.97449
1614.57	1.46388
1616.11	1.74123
1617.65	1.23148
1619.18	1.0981
1620.72	1.79027
1622.26	1.24764
1623.79	0.743405
1625.33	1.60577
1626.87	1.10089
1628.4	0.744733
1629.94	1.24778
1631.48	0.646675
1633.01	1.20393
1634.55	1.40616
1636.08	1.27313
1637.61	1.30894
1639.15	1.14023
1640.68	1.00891
1642.21	1.21244
1643.75	1.52644
1645.28	1.8203
1646.81	1.20173
1648.34	1.27126
1649.88	1.61959
1651.41	1.1334
1652.94	0.9271
1654.47	1.25967
1656	1.16629
1657.53	1.35081
1659.06	1.01585
1660.59	0.828086
1662.12	1.32369
1663.65	0.967213
1665.18	1.31262
1666.71	1.06728
1668.24	1.13684
1669.76	0.98651
1671.29	0.635022
1672.82	1.03994
1674.35	0.85577
1675.87	1.37104
1677.4	1.03864
1678.93	0.889435
1680.45	0.500403
1681.98	1.54431
1683.5	1.0809
1685.03	1.13196
1686.55	1.2383
1688.08	0.171955
1689.6	0.517624
1691.13	0.460346
1692.65	0.586186
1694.17	0.0533676
1695.7	0.581252
1697.22	0.541925
1698.74	0.374493
1700.27	0.425861
1701.79	0.604342
1703.31	0.545124
1704.83	-0.0790071
1706.35	0.607451
1707.87	0.419921
1709.39	0.123651
1710.91	-0.244618
1712.43	0.113153
1713.95	0.597281
1715.47	0.555709
1716.99	0.496041
1718.51	-0.250391
1720.03	-0.237251
1721.55	-0.458537
1723.07	0.0601559
1724.58	0.308747
1726.1	0.522223
1727.62	-0.10926
1729.13	-0.0556822
1730.65	-0.180232
1732.17	0.052577
1733.68	-0.138385
1735.2	-0.0294838
1736.72	0.0490704
1738.23	0.0358629
1739.74	0.26559
1741.26	0.162469
1742.77	0.0612803
1744.29	0.415245
1745.8	0.280087
1747.32	0.419979
1748.83	0.522438
1750.34	0.110343
1751.85	0.152382
1753.37	0.16705
1754.88	-0.128993
1756.39	-0.122294
1757.9	-0.0333509
1759.41	0.411204
1760.92	0.0773821
1762.44	-0.199457
1763.95	0.111722
1765.46	-0.020587
1766.96	0.486229
1768.47	0.194741
1769.98	0.319752
1771.49	-0.102058
1773	0.261568
1774.51	0.244625
1776.02	-0.127588
1777.53	-0.108383
1779.03	-0.197399
1780.54	-0.0197926
1782.05	0.0367222
1783.55	-0.0143251
1785.06	-0.117228
1786.57	-0.0149736
1788.07	0.166934
1789.58	0.113698
1791.08	0.0621157
1792.59	0.138204
1794.09	0.0394449
1795.6	0.120172
1797.1	0.0356541
1798.61	0.172123
1800.11	0.265848
1801.61	0.0264854
1803.12	0.457874
1804.62	0.512844
1806.12	-0.00133133
1807.62	0.280897
1809.12	0.273322
1810.63	-0.000813484
1812.13	0.194332
1813.63	0.130258
1815.13	0.117311
1816.63	0.0569286
1818.13	0.237643
1819.63	0.233441
1821.13	0.131203
1822.63	0.0543556
1824.13	0.179871
1825.63	0.0218954
1827.13	0.0097847
1828.62	0.0403967
1830.12	-0.212847
1831.62	0.129672
1833.12	-0.127824
1834.61	0.162182
1836.11	0.134307
1837.61	-0.125857
1839.1	-0.224066
1840.6	-0.091279
1842.09	-0.347286
1843.59	0.42235
1845.09	0.420239
1846.58	0.0991001
1848.08	0.132386
1849.57	0.149147
1851.06	0.171865
1852.56	0.446022
1854.05	0.174692
1855.54	-0.154737
1857.04	0.404479
1858.53	0.487587
1860.02	0.0135412
1861.51	-0.00266647
1863.01	0.225857
1864.5	0.381823
1865.99	0.129382
1867.48	0.0657501
1868.97	-0.381279
1870.46	-0.320595
1871.95	0.272222
1873.44	0.194496
1874.93	0.215723
1876.42	0.250324
1877.91	-0.276322
1879.4	-0.126747
1880.89	0.191457
1882.37	0.339799
1882.46	0.347396
1883.95	0.415543
1885.45	-0.21411
1886.94	-0.0253248
1888.43	-0.254991
1889.93	-0.327698
1891.42	0.0526257
1892.91	0.399292
1894.41	0.208546
1895.9	0.245226
1897.39	0.491396
1898.88	0.0592022
1900.37	0.391489
1901.86	0.287436
1903.36	0.668779
1904.85	0.318365
1906.34	-0.293084
1907.83	0.19008
1909.32	0.343489
1910.81	0.0291224
1912.29	0.357577
1913.78	0.114074
1915.27	0.304273
1916.76	-0.0433311
1918.25	0.406052
1919.74	0.265642
1921.23	0.00397396
1922.71	0.452753
1924.2	-0.292472
1925.69	0.00212669
1927.17	0.159153
1928.66	0.299486
1930.15	0.284007
1931.63	0.458326
1933.12	0.302344
1934.6	0.352568
1936.09	-0.0832167
1937.57	0.241226
1939.06	0.599357
1940.54	0.318351
1942.02	0.0902033
1943.51	-0.0505438
1944.99	0.0337543
1946.47	-0.157479
1947.96	0.0476065
1949.44	-0.213208
1950.92	-0.0269547
1952.4	0.433603
1953.88	0.153605
1955.37	0.423779
1956.85	0.247433
1958.33	-0.151218
1959.81	0.463303
1961.29	0.0660791
1962.77	0.149309
1964.25	-0.247408
1965.73	-0.198931
1967.21	-0.270891
1968.69	0.529027
1970.16	0.353041
1971.64	0.347855
1973.12	0.206065
1974.6	-0.0548382
1976.08	0.247243
1977.55	0.804564
1979.03	0.169712
1980.51	-0.022048
1981.98	-0.0267124
1983.46	-0.286414
1984.94	0.472406
1986.41	0.432683
1987.89	0.0540495
1989.36	-0.0527983
1990.84	-0.125084
1992.31	0.20943
1993.79	0.409245
1995.26	-0.15083
1996.73	0.421767
1998.21	-0.00244045
1999.68	0.282343
2001.15	0.0938625
2002.63	-0.34789
2004.1	0.0198603
2005.57	0.202172
2007.04	0.132306
2008.51	0.568479
2009.99	0.399164
2011.46	0.415565
2012.93	0.0954027
2014.4	0.330325
2015.87	0.00926685
2017.34	0.192175
2018.81	0.306956
2020.28	0.219497
2021.75	0.350296
2023.21	-0.0894699
2024.68	-0.0919418
2026.15	-0.126969
2027.62	-0.127231
2029.09	0.0582733
2030.56	0.463076
2032.02	0.550137
2033.49	0.335555
2034.96	0.288759
2036.42	0.140814
2037.89	0.076335
2039.36	-0.156589
2040.82	0.0305748
2042.29	-0.151774
2043.75	-0.299978
2045.22	0.09091
2046.68	0.331316
2048.14	-0.354193
2049.61	0.0210972
2051.07	0.109262
2052.54	0.600904
2054	0.433283
2055.46	0.31468
2056.93	0.0768766
2058.39	0.00703335
2059.85	-0.0292354
2061.31	-0.0483122
2062.77	0.269964
2064.23	0.454341
2065.7	0.235693
2067.16	0.354394
2068.62	0.305344
2070.08	0.290242
2071.54	0.409883
2073	0.192686
2074.46	0.261476
2075.92	0.329986
2077.38	0.246612
2078.83	0.381807
2080.29	0.381873
2081.75	0.314099
2083.21	0.414089
2084.67	0.36191
2086.12	0.393211
2087.58	0.104449
2089.04	-0.0667691
2090.49	0.534686
2091.95	0.329591
2093.41	0.309216
2094.86	0.556971
2096.32	0.502303
2097.77	0.0618815
2099.23	0.307731
2100.68	0.486006
2102.14	0.430229
2103.59	0.325154
2105.05	0.638579
2106.5	0.3524
2107.95	0.267515
2109.41	0.416458
2110.86	0.164795
2112.31	0.495401
2113.76	0.224633
2115.21	0.801451
2116.67	0.495301
2118.12	0.621805
2119.57	0.367507
2121.02	0.0820217
2122.47	0.395484
2123.92	0.594036
2125.37	0.328893
2126.82	0.594159
2128.27	0.245145
2129.72	0.740245
2131.17	0.521549
2132.62	0.683064
2134.07	0.77815
2135.51	0.526589
2136.96	0.755852
2138.41	0.523929
2139.86	0.425922
2141.31	0.478106
2142.75	0.399088
2144.2	0.982313
2145.65	0.871079
2147.09	0.527702
2148.54	1.12758
2149.98	0.815859
2151.43	1.01675
2152.87	0.868801
2154.32	0.504712
2155.76	0.554429
2157.21	0.604176
2158.65	0.803594
2160.1	0.689427
2161.54	0.609887
2162.98	0.631361
2164.43	0.90307
2165.87	0.827308
2167.31	1.38273
2168.75	0.574756
2170.2	0.662511
2171.64	0.765129
2173.08	0.94921
2174.52	0.666258
2175.96	1.06469
2177.4	0.58188
2178.84	1.33014
2180.28	0.848938
2181.72	0.900558
2183.16	0.620142
2184.6	0.373151
2186.04	0.691758
2187.48	1.01051
2188.92	0.74694
2190.36	0.999269
2191.79	0.602173
2193.23	0.837049
2194.67	0.554649
2196.11	1.13633
2197.54	0.700846
2198.98	0.679974
2200.42	0.807716
2201.85	0.553223
2203.29	0.465553
2204.72	0.46183
2206.16	0.144115
2207.59	0.672061
2209.03	0.354882
2210.46	0.600104
2211.9	0.314847
2213.33	0.508661
2214.77	0.322155
2216.2	-0.0616989
2217.63	0.19924
2219.07	0.493961
2220.5	0.541957
2221.93	0.392298
2223.36	0.489285
2224.8	0.766126
2226.23	0.744888
2227.66	0.0974116
2229.09	0.287681
2230.52	0.886986
2231.95	0.780077
2233.39	0.477203
2234.81	0.0938678
2236.25	0.251379
2237.67	0.165101
2239.1	0.357926
2240.53	0.536028
2241.96	0.536273
2243.39	0.032042
2244.82	0.865631
2246.25	0.263321
2247.68	0.051188
2249.1	-0.0974126
2250.53	0.436533
2251.96	0.3821
2253.38	0.0342569
2254.81	0.272165
2256.24	0.445949
2257.66	0.459301
2259.09	-0.011538
2260.51	0.558547
2261.94	0.660429
2263.36	0.211715
2264.79	0.152824
2266.21	0.223656
2267.64	0.35896
2269.06	0.119266
2270.49	0.399635
2271.91	0.0283856
2273.33	-0.0826149
2274.76	0.572013
2276.18	0.184336
2277.6	0.318153
2279.02	0.386897
2280.44	-0.229248
2281.87	0.214389
2283.29	-0.0107374
2284.71	0.547344
2286.13	0.159178
2287.55	0.228279
2288.97	0.232476
2290.39	0.400435
2291.81	-0.0850873
2293.23	0.492093
2294.65	0.202621
2296.07	0.714874
2297.49	0.130372
2298.91	0.151555
2300.33	0.254858
2301.74	0.161736
2303.16	0.068778
2304.58	0.435463
2306	0.0141778
2307.41	0.265851
2308.83	0.418654
2310.25	0.0448532
2311.66	-0.0663691
2313.08	0.200732
2314.5	0.402501
2315.91	0.391006
2317.33	0.41315
2318.74	0.320351
2320.16	0.0623407
2321.57	-0.0153236
2322.98	-0.111109
2324.4	0.401767
2325.81	0.86295
2327.23	0.299752
2328.64	0.461591
2330.05	-0.0354886
2331.46	-0.0374126
2332.88	0.257853
2334.29	-0.137362
2335.7	0.158769
2337.11	0.158362
2338.52	-0.0894775
2339.94	0.0727358
2341.35	-0.0123959
2342.76	0.131884
2344.17	0.0955229
2345.58	-0.104464
2346.99	-0.45137
2348.4	0.0861387
2349.81	0.0828147
2351.22	0.0788374
2352.62	-0.187304
2354.03	0.182612
2355.44	0.37187
2356.85	0.0393534
2358.26	-0.259952
2359.67	0.253874
2361.07	0.0850019
2362.48	0.0786161
2363.89	0.0883536
2365.29	0.0980124
2366.7	0.220937
2368.11	0.150372
2369.51	0.355071
2370.92	-0.164788
2372.32	-0.0061965
2373.73	0.201423
2375.13	0.296552
2376.54	0.294761
2377.94	-0.2386
2379.35	0.159421
2380.75	0.089776
2382.15	0.259563
2383.56	0.396092
2384.96	0.388073
2386.36	0.276566
2387.76	0.150124
2389.17	0.0329518
2390.57	0.442816
2391.97	-0.27724
2393.37	-0.343166
2394.77	0.227845
2396.17	-0.0595069
2397.58	0.25783
2398.98	0.257722
2400.38	0.146857
2401.78	0.258687
2403.18	0.100551
2404.58	0.513783
2405.97	0.164119
2407.37	0.131223
2408.77	0.129375
2410.17	0.475948
2411.57	0.156915
2412.97	0.440664
2414.37	-0.28792
2415.76	0.0298171
2417.16	-0.0945878
2418.56	0.00345469
2419.95	0.181058
2421.35	0.0735226
2422.75	0.26666
2424.14	0.12687
2425.54	-0.107998
2426.93	0.101257
2428.33	0.247935
2429.72	0.252814
2431.12	0.0362039
2432.51	0.279901
2433.91	0.189878
2435.3	-0.218893
2436.7	0.0859113
2438.09	-0.293757
2439.48	0.151595
2440.88	0.0559855
2442.27	0.467936
2443.66	-0.0569191
2445.05	-0.518057
2446.44	-0.10692
2447.84	0.208655
2449.23	-0.0621691
2450.62	-0.0475645
2452.01	-0.000876427
2453.4	0.141383
2454.79	0.078661
2456.18	-0.0467057
2457.57	0.0813274
2458.96	0.0352449
2460.35	-0.185264
2461.74	0.431612
2463.13	-0.0431666
2464.52	0.113863
2465.91	0.317863
2467.29	0.237452
2468.68	0.141284
2470.07	0.423545
2471.46	0.0588436
2472.85	0.544656
2474.23	0.226265
2475.62	0.143713
2477.01	0.532484
2478.39	0.245245
2479.78	-0.0413914
2481.16	0.0645761
2482.55	-0.11169
2483.93	-0.178466
2485.32	-0.105085
2486.7	0.170304
2488.09	0.241236
2489.47	0.0307751
2490.86	0.365475
2492.24	0.0934925
2493.62	-0.161409
2495.01	-0.445682
2496.39	0.372099
2497.77	-0.297553
2499.15	-0.300435
2500.54	0.098599
2501.92	0.125435
2503.3	0.244025
2504.68	-0.132034
2506.06	0.046874
2507.45	-0.0518885
2508.83	0.111024
2510.21	-0.0332146
2511.59	0.114896
2512.97	0.24808
2514.35	0.167371
2515.73	-0.034905
2517.11	-0.175061
2518.48	-0.100541
2519.86	0.0810342
2521.24	0.185843
2522.62	0.259442
2524	-0.201641
2525.38	0.0231938
2526.75	0.414925
2528.13	-0.365286
2529.51	0.270675
2530.89	-0.278213
2532.26	-0.278283
2533.64	0.239356
2535.02	-0.260318
2536.39	-0.258625
2537.77	-0.0144029
2539.14	-0.120378
2540.52	0.076654
2541.89	0.424994
2543.27	0.0905542
2544.64	0.181755
2546.01	0.0919785
2547.39	0.0184441
2548.76	0.00632381
2550.14	-0.051208
2551.51	0.179204
2552.88	-0.213372
2554.25	0.243011
2555.63	0.000542164
2557	-0.0147896
2558.37	0.136558
2559.74	0.424474
2561.11	0.0610132
2562.49	0.41049
2563.86	0.184598
2565.23	0.00457382
2566.6	0.112699
2567.97	0.0693636
2569.34	0.283689
2570.71	0.407094
2572.08	-0.0454388
2573.45	-0.0735159
2574.82	0.24716
2576.18	0.173739
2577.55	0.297357
2578.92	0.0265565
2580.29	0.0587087
2581.66	0.0753422
2583.02	-0.0296412
2584.39	0.138062
2585.76	0.0934629
2587.13	0.0186563
2588.49	0.0955839
2589.86	0.127147
2591.22	0.0828424
2592.59	0.0684638
2593.96	0.159445
2595.32	0.431208
2596.69	0.141758
2598.05	0.214967
2599.42	0.0609474
2600.78	-0.077704
2602.14	-0.381914
2603.51	0.295936
2604.87	-0.0523729
2606.23	-0.158885
2607.6	0.0360117
2608.96	0.471179
2610.32	0.28722
2611.69	0.102335
2613.05	-0.113344
2614.41	-0.0288424
2615.77	-0.00478554
2617.13	-0.0855336
2618.49	0.358564
2619.86	0.159117
2621.22	0.274652
2622.58	0.211193
2623.94	0.0733747
2625.3	0.174471
2626.66	0.349776
2628.02	0.181798
2629.37	0.192482
2630.73	0.247599
2632.09	0.272786
2633.45	0.327605
2634.81	0.115146
2636.17	0.229274
2637.53	0.40248
2638.88	0.264511
2640.24	-0.154211
2641.6	-0.0694246
2642.96	0.370044
2644.31	-0.00291729
2645.67	0.00816107
2647.02	-0.187493
2648.38	0.249972
2649.74	0.318044
2651.09	0.267744
2652.45	0.158501
2653.8	0.0496531
2655.16	0.205485
2656.51	0.274135
2657.86	0.358359
2659.22	0.209249
2660.57	0.192276
2661.93	0.277518
2663.28	0.2307
2664.63	0.168627
2665.98	0.426853
2667.34	0.0138288
2668.69	0.0673604
2670.04	0.499341
2671.39	-0.275665
2672.75	0.0552311
2674.09	0.168439
2675.45	0.122366
2676.8	-0.372934
2678.15	0.336484
2679.5	0.350218
2680.85	0.234392
2682.2	0.0181479
2683.55	-0.00860357
2684.9	-0.136058
2686.25	0.360744
2687.6	0.436875
2688.94	0.032927
2690.29	0.121055
2691.64	-0.155287
2692.99	0.118563
2694.34	0.579792
2695.68	0.170755
2697.03	0.313114
2698.38	-0.0358753
2699.73	0.398606
2701.07	0.139581
2702.42	0.504625
2703.76	0.334756
2705.11	0.092742
2706.45	0.227665
2707.8	-0.0292945
2709.15	0.0760975
2710.49	-0.0656362
2711.83	0.242625
2713.18	0.202212
2714.52	0.408815
2715.87	0.135677
2717.21	0.298584
2718.55	0.679571
2719.9	0.0563931
2721.24	0.320338
2722.58	0.278276
2723.93	0.395897
2725.27	0.0764627
2726.61	0.178807
2727.95	0.266305
2729.29	0.397228
2730.63	0.571637
2731.98	0.353154
2733.32	0.323909
2734.66	0.425734
2736	0.0186658
2737.34	0.498944
2738.68	0.222921
2740.02	0.412072
2741.36	0.0627813
2742.7	0.381768
2744.03	-0.0412159
2745.37	0.174762
2746.71	-0.103553
2748.05	-0.0769792
2749.39	0.109205
2750.72	0.0923557
2752.06	0.104735
2753.4	0.204268
2754.74	0.0865626
2756.07	-0.146822
2757.41	-0.235139
2758.75	-0.236346
2760.08	0.327217
2761.42	-0.064075
2762.76	-0.0352426
2764.09	0.109621
2765.42	0.124262
2766.76	0.109592
2768.09	0.123072
2769.43	0.0197668
2770.76	0.0887165
2772.1	0.127508
2773.43	0.150889
2774.76	0.346731
2776.1	-0.33649
2777.43	0.248258
2778.76	0.0272212
2780.1	-0.149921
2781.43	0.0468473
2782.76	0.30084
2784.09	0.167217
2785.42	-0.0522528
2786.75	0.187052
2788.09	-0.0172668
2789.42	0.237145
2790.75	-0.151473
2792.08	-0.196005
2793.41	0.203037
2794.74	0.0874434
2796.07	0.128798
2797.4	0.0410986
2798.73	-0.175533
2800.06	0.0500808
2801.39	0.00420856
2802.71	0.0152502
2804.04	0.325331
2805.37	-0.561706
2806.7	-0.152885
2808.03	0.283285
2809.35	0.0788555
2810.68	0.130365
2812.01	-0.101527
2813.33	-0.0343318
2814.66	0.289232
2815.99	-0.0381393
2817.31	-0.421132
2818.64	-0.151616
2819.96	0.0187154
2821.29	0.245358
2822.61	0.159609
2823.94	-0.0683451
2825.26	0.468379
2826.59	0.0702319
2827.91	0.479722
2829.23	-0.016439
2830.56	-0.0449643
2831.88	0.238125
2833.21	0.47869
2834.53	0.251876
2835.85	0.109603
2837.17	0.405549
2838.5	0.177583
2839.82	0.486942
2841.14	0.570004
2842.46	0.950219
2843.78	0.765552
2845.1	0.638093
2846.42	0.468785
2847.74	0.850975
2849.06	0.823355
2850.38	1.14884
2851.71	1.3043
2853.03	0.738505
2854.34	1.17579
2855.66	0.807447
2856.98	1.08902
2858.3	1.55417
2859.62	1.10121
2860.94	0.620018
2862.26	1.07049
2863.57	1.23818
2864.89	1.03869
2866.21	1.14961
2867.53	1.37351
2868.84	1.73867
2870.16	1.85031
2871.48	1.87749
2872.79	1.79169
2874.11	2.33937
2875.42	1.77304
2876.74	2.02281
2878.05	1.68061
2879.37	1.83074
2880.68	2.0934
2882	2.25814
2883.31	1.80571
2884.63	2.15472
2885.94	2.08296
2887.26	2.10957
2888.57	2.26209
2889.88	2.5401
2891.19	2.3965
2892.51	2.32254
2893.82	2.15043
2895.13	2.30083
2896.44	2.08786
2897.76	1.86191
2899.07	2.33647
2900.38	2.60175
2901.69	2.36382
2903	2.08415
2904.31	2.74177
2905.62	2.44847
2906.93	2.56126
2908.24	3.3742
2909.55	2.84496
2910.86	3.02974
2912.17	3.00465
2913.48	3.11892
2914.79	3.03603
2916.1	3.51165
2917.41	3.41188
2918.71	3.49316
2920.02	3.25252
2921.33	3.04054
2922.64	3.4168
2923.94	3.19309
2925.25	3.75314
2926.56	3.68475
2927.86	3.60242
2929.17	4.13491
2930.48	3.59047
2931.78	3.66075
2933.09	3.591
2934.39	3.38148
2935.7	3.85689
2937	3.47992
2938.31	3.89967
2939.61	3.24366
2940.92	3.35663
2942.22	2.86941
2943.53	3.44526
2944.83	2.8901
2946.13	3.09077
2947.43	2.95635
2948.74	3.0316
2950.04	3.10599
2951.34	2.45081
2952.64	3.08227
2953.95	2.53636
2955.25	2.25624
2956.55	2.20079
2957.85	2.48285
2959.15	2.7672
2960.45	2.5218
2961.75	2.2498
2963.05	2.24466
2964.35	2.22509
2965.65	2.35889
2966.95	2.08389
2968.25	2.13092
2969.55	2.24763
2970.85	2.42055
2972.15	1.97478
2973.45	2.12011
2974.75	1.92771
2976.05	1.94592
2977.34	1.70964
2978.64	1.73948
2979.94	2.09161
2981.24	1.9217
2982.53	1.70921
2983.83	1.2019
2985.13	1.45478
2986.42	1.55423
2987.72	1.09285
2989.01	1.61601
2990.31	1.24006
2991.61	1.27127
2992.9	1.14702
2994.19	0.417542
2995.49	0.488191
2996.78	0.76878
2998.08	0.515656
2999.37	0.515433
3000.67	0.361404
3001.96	0.362155
3003.25	0.587462
3004.55	0.378482
3005.84	0.141422
3007.13	0.324013
3008.42	0.197945
3009.72	0.308993
3011.01	0.517067
3012.3	0.0821991
3013.59	-0.0171895
3014.88	0.16271
3016.17	0.0225229
3017.46	0.133746
3018.76	-0.0886626
3020.05	0.203836
3021.34	0.203769
3022.63	0.327996
3023.92	-0.242697
3025.21	0.0188642
3026.49	-0.357417
3027.78	0.0146084
3029.07	0.179501
3030.36	0.0276437
3031.65	0.111999
3032.94	0.00394392
3034.23	0.0342832
3035.51	-0.432433
3036.8	-0.0310817
3038.09	0.120272
3039.38	0.104591
3040.66	0.225029
3041.95	-0.0674577
3043.23	-0.222143
3044.52	-0.00614643
3045.81	0.197023
3047.09	0.224074
3048.38	0.403326
3049.66	-0.0434818
3050.95	0.371014
3052.23	-0.319076
3053.52	0.0961766
3054.8	-0.103075
3056.09	0.160617
3057.37	0.109643
3058.65	0.0307837
3059.94	0.196861
3061.22	-0.0451999
3062.5	0.053833
3063.79	0.140355
3065.07	0.350522
3066.35	0.04531
3067.63	0.0128837
3068.92	0.144006
3070.2	-0.0106359
3071.48	0.187643
3072.76	-0.0502925
3074.04	-0.193979
3075.32	0.123652
3076.6	0.00609303
3077.88	0.201172
3079.16	0.0306621
3080.44	-0.0977688
3081.72	0.0600171
3083	-0.283017
3084.28	-0.028522
3085.56	0.15831
3086.84	0.0462322
3088.12	-0.188605
3089.4	0.118901
3090.67	0.0188408
3091.95	-0.18983
3093.23	0.157837
3094.51	-0.050365
3095.78	0.0807362
3097.06	-0.127011
3098.34	0.126111
3099.61	-0.20363
3100.89	0.116972
3102.17	0.166608
3103.44	0.311234
3104.72	0.144932
3105.99	0.222943
3107.27	0.0716968
3108.54	0.232622
3109.82	0.0426044
3111.09	0.0564585
3112.37	-0.30825
3113.64	0.438295
3114.92	0.412774
3116.19	0.129205
3117.46	0.156727
3118.74	0.156246
3120.01	0.263323
3121.28	0.220423
3122.55	-0.175307
3123.83	0.418015
3125.1	0.428742
3126.37	0.155663
3127.64	0.00506592
3128.91	0.0984931
3130.19	0.327418
3131.46	0.313018
3132.73	0.0147986
3134	0.553955
3135.27	0.228186
3136.54	0.0642142
3137.81	0.304529
3139.08	0.274762
3140.35	0.0834022
3141.62	0.0941558
3142.89	0.508277
3144.16	0.438828
3145.42	0.43712
3146.69	0.503072
3147.96	0.515965
3149.23	0.54277
