200.523	-0.0135221
202.339	-0.00136185
204.154	0.011898
205.967	0.26927
207.781	0.0162268
209.596	0.346262
211.409	0.38363
213.222	0.832508
215.034	0.212687
216.848	0.368939
218.659	0.549323
220.47	-0.0443506
222.281	0.331131
224.091	0.199397
225.903	0.406704
227.713	0.0342121
229.522	-0.579675
231.331	-0.0349293
233.14	0.0990381
234.948	0.0886135
236.756	-0.282176
238.566	-0.0242872
240.373	0.0911894
242.18	0.305203
243.986	-0.0342226
245.792	-0.205036
247.598	0.298757
249.403	0.34166
251.208	0.14041
253.013	0.0817289
254.818	0.142275
256.624	-0.062705
258.427	0.167067
260.231	0.374116
262.034	-0.380696
263.836	0.287326
265.638	0.715553
267.44	0.0115776
269.242	0.150777
271.043	-0.0722847
272.844	-0.513342
274.645	0.225847
276.445	0.409039
278.245	0.253156
280.044	0.143829
281.843	0.586436
283.642	-0.416153
285.44	-0.21686
287.238	-0.234566
289.036	0.323235
290.833	0.209991
292.63	0.385376
294.425	-0.131706
296.221	0.859308
298.017	0.416595
299.813	0.763103
301.608	0.273307
303.403	0.403875
305.198	-0.0156221
306.992	-0.340046
308.786	0.646784
310.579	0.179805
312.371	0.262099
314.163	0.345882
315.956	0.359924
317.748	0.42326
319.54	0.321289
321.331	-0.256382
323.122	0.429984
324.911	0.497125
326.701	0.134703
328.491	0.655664
330.281	0.244303
332.071	0.501174
333.857	0.469573
335.646	0.268545
337.434	0.352621
339.222	0.315196
341.008	0.754698
342.795	0.452121
344.582	0.699345
346.369	0.397533
348.153	0.621874
349.939	0.464644
351.724	0.570061
353.51	0.412446
355.292	-0.628613
357.077	0.404418
358.861	0.291403
360.643	0.606143
362.426	0.515084
364.21	-0.0758181
365.99	-0.0249395
367.773	0.120113
369.555	0.335263
371.335	-0.185033
373.116	0.312523
374.897	-0.0657167
376.676	0.453938
378.456	0.501376
380.236	0.102006
382.014	0.363421
383.793	0.531539
385.57	0.183485
387.349	0.142338
389.127	0.337124
390.903	0.579678
392.681	0.282804
394.456	0.573607
396.233	0.254175
398.007	0.568922
399.784	0.131958
401.56	-0.187984
403.333	0.0787163
405.108	0.133377
406.881	0.915316
408.656	0.193867
410.428	-0.339795
412.202	0.276738
413.973	-0.326724
415.746	-0.0143881
417.517	-0.0533342
419.29	0.26028
421.06	0.29254
422.831	0.0194273
424.601	-0.18394
426.37	-0.22377
428.141	-0.287769
429.909	0.234649
431.679	0.123262
433.447	0.199924
435.216	0.605463
436.983	0.0252523
438.75	0.0546293
440.519	0.293914
442.285	-0.148959
444.052	0.0396881
445.818	0.437286
447.583	0.716144
449.349	-0.104904
451.114	0.290441
452.878	0.125172
454.643	-0.109606
456.407	0.028861
458.169	-0.275481
459.934	0.304953
461.696	0.0712957
463.458	-0.183955
465.222	0.515676
466.983	-0.432033
468.744	0.272413
470.507	0.188389
472.267	0.849417
474.027	0.509316
475.787	0.586538
477.548	0.265811
479.307	-0.359416
481.065	0.621773
482.823	0.624755
484.583	0.489092
486.341	1.00746
488.098	-0.476302
489.855	-0.000880241
491.612	0.849673
493.37	0.37048
495.126	0.592194
496.881	1.07174
498.636	0.755238
500.391	0.250115
502.148	0.259928
503.902	0.809194
505.656	0.653023
507.409	0.424848
509.162	0.547958
510.915	0.504973
512.668	0.578194
514.42	0.744164
516.174	0.93234
517.925	0.460809
519.676	0.45886
521.427	0.244774
523.178	-0.0634518
524.928	-0.0664225
526.678	0.282458
528.427	0.443419
530.176	0.416635
531.925	0.225554
533.673	-0.129866
535.422	0.286036
537.169	0.0223389
538.917	-0.14869
540.664	-0.227074
542.411	-0.0264521
544.157	-0.0592699
545.903	0.0706024
547.649	0.455593
549.395	0.909446
551.14	-0.350981
552.884	0.19562
554.629	0.371527
556.373	0.316492
558.117	0.515557
559.86	0.300011
561.603	0.33854
563.346	0.653527
565.089	0.807696
566.831	-0.140293
568.573	0.0384169
570.314	-0.218139
572.053	0.100165
573.794	0.419773
575.534	0.305085
577.274	0.214779
579.014	0.217384
580.754	-0.19278
582.493	0.660597
584.23	-0.00307655
585.968	-0.00121784
587.706	0.114577
589.444	0.505445
591.181	0.0902557
592.919	0.295807
594.653	-0.235013
596.39	-0.74279
598.126	0.428896
599.862	0.311864
601.595	0.332116
603.33	0.351221
605.065	0.116132
606.8	-0.257746
608.532	-0.310386
610.266	-0.179487
611.999	0.24985
613.732	0.496039
615.463	-0.2887
617.196	-0.0876036
618.928	0.227388
620.66	0.449574
622.389	-0.267488
624.12	0.43294
625.851	0.013092
627.58	0.211109
629.31	-0.0457687
631.04	0.338382
632.767	0.633027
634.497	0.563511
636.223	-0.00856018
637.952	0.947205
639.68	0.165751
641.406	0.0666208
643.134	0.125055
644.861	0.022953
646.586	0.421764
648.312	0.526127
650.037	0.815006
651.762	-0.165102
653.486	0.380626
655.211	0.0882158
656.936	0.207103
658.659	0.0534763
660.383	-0.214952
662.105	0.0400629
663.829	0.704858
665.55	0.247856
667.273	0.543545
668.994	0.266907
670.716	0.722881
672.436	0.0137186
674.158	0.336395
675.877	0.500957
677.598	0.299799
679.317	0.511757
681.035	1.06808
682.755	0.956428
684.473	0.81962
686.192	0.404514
687.909	0.770901
689.628	1.25157
691.344	0.119138
693.06	0.598573
694.778	0.432355
696.493	0.265314
698.211	0.419592
699.925	-0.00258923
701.64	0.563552
703.356	1.08219
705.07	0.795662
706.783	0.830349
708.498	0.451821
710.211	0.394338
711.924	0.313732
713.638	0.98775
715.35	0.289304
717.061	1.03041
718.774	0.150701
720.485	0.754078
722.196	0.377394
723.906	0.592925
725.618	1.10348
727.328	0.613536
729.037	1.32673
730.746	1.24472
732.456	1.00397
734.165	0.98977
735.873	1.11125
737.58	0.894133
739.289	0.565218
740.997	0.372966
742.703	1.08304
744.41	1.11807
746.116	1.17687
747.823	1.1694
749.529	0.780782
751.234	0.843219
752.938	1.35668
754.643	0.656667
756.347	1.12785
758.051	0.947845
759.756	1.51243
761.459	1.26713
763.162	1.20244
764.865	1.15997
766.567	1.99761
768.269	1.59105
769.97	1.13693
771.671	0.997412
773.372	1.128
775.073	1.5295
776.773	1.70537
778.473	1.65635
780.174	1.56349
781.874	1.49423
783.573	2.17186
785.271	1.78481
786.97	2.21036
788.668	1.02591
790.365	2.05615
792.063	1.65858
793.76	1.73438
795.456	1.47143
797.153	1.63802
798.847	1.51312
800.543	1.54756
802.238	1.69575
803.933	1.41713
805.628	1.25097
807.322	1.21902
809.017	1.25342
810.71	1.48868
812.404	1.22945
814.097	1.68706
815.79	1.56165
817.483	1.5035
819.173	1.89249
820.865	1.94602
822.556	1.79902
824.248	1.71988
825.939	1.46392
827.629	1.27698
829.318	1.24849
831.008	1.55678
832.697	1.39991
834.387	1.66834
836.076	1.15729
837.765	0.734694
839.451	1.1145
841.139	1.2922
842.827	1.3571
844.514	0.929984
846.2	1.15149
847.886	1.71014
849.573	1.13053
851.259	1.40322
852.943	1.61089
854.629	1.19153
856.314	1.26528
857.997	0.955918
859.682	1.27463
861.366	1.23188
863.05	1.32279
864.732	1.54784
866.415	0.892974
868.098	0.936214
869.779	1.13695
871.461	1.87885
873.141	0.951287
874.823	0.790559
876.505	0.945727
878.184	0.830114
879.865	0.962668
881.545	1.25294
883.223	0.639558
884.903	1.19909
886.581	0.786715
888.26	1.43356
889.937	1.49209
891.616	1.23363
893.294	0.681564
894.97	0.939363
896.648	0.566319
898.323	1.1812
900	0.851802
901.675	1.37379
903.351	0.954207
905.026	1.11654
906.701	1.59114
908.375	1.1512
910.05	1.35882
911.723	1.14418
913.398	0.952802
915.07	1.09515
916.742	0.527439
918.415	0.802843
920.087	0.967143
921.76	1.02103
923.43	1.62847
925.103	0.911231
926.773	0.638025
928.443	0.454785
930.114	1.28776
931.783	1.12819
933.454	1.54247
935.123	1.62595
936.791	0.651181
938.461	0.647688
940.128	0.336475
941.796	0.489473
943.464	1.10655
945.131	0.885043
946.797	0.15471
948.465	1.12242
950.131	0.984708
951.797	0.647423
953.462	0.310435
955.128	0.570328
956.793	0.501842
958.457	0.303771
960.121	1.07909
961.786	-0.17539
963.45	0.491329
965.113	1.0247
966.775	0.958697
968.44	0.624612
970.102	1.08514
971.763	0.615767
973.425	0.655637
975.086	0.519889
976.748	0.673235
978.409	0.628864
980.069	0.751002
981.729	0.872831
983.388	1.29232
985.048	1.13444
986.708	0.753335
988.367	0.56997
990.025	0.606795
991.683	0.245221
993.341	0.524437
994.998	0.803409
996.655	1.30277
998.312	0.677066
999.969	1.30788
1001.62	0.506165
1003.28	0.321295
1004.94	0.642177
1006.59	0.632867
1008.25	0.64565
1009.9	0.0223503
1011.56	0.299347
1013.21	0.181905
1014.86	0.371583
1016.52	0.692746
1018.17	0.401404
1019.82	0.2204
1021.48	0.412107
1023.13	0.626533
1024.78	0.97286
1026.43	0.445546
1028.08	0.901576
1029.73	0.810734
1031.38	0.762485
1033.03	0.690977
1034.68	0.858032
1036.33	0.827394
1037.98	0.142549
1039.63	1.37418
1041.28	0.690545
1042.93	-0.0344324
1044.57	0.00329399
1046.22	0.498753
1047.87	0.322447
1049.52	0.603668
1051.16	0.169277
1052.81	0.517534
1054.45	0.127445
1056.1	0.367485
1057.75	1.04216
1059.39	-0.174997
1061.04	0.0856419
1062.68	0.128193
1064.32	-0.177943
1065.97	0.297734
1067.61	0.294113
1069.25	0.811052
1070.9	0.41492
1072.54	0.0624428
1074.18	0.209732
1075.82	0.422904
1077.47	0.355223
1079.11	0.201916
1080.75	0.22275
1082.39	0.677236
1084.03	0.632159
1085.67	0.0653896
1087.31	-0.0260658
1088.95	-0.0109224
1090.59	0.521957
1092.22	0.923184
1093.86	0.135482
1095.5	0.0614147
1097.14	0.289969
1098.78	-0.0621958
1100.41	-0.0894861
1102.05	0.143085
1103.69	0.398555
1105.32	0.633577
1106.96	0.0947781
1108.59	0.286982
1110.23	-0.145358
1111.86	0.62478
1113.5	0.125384
1115.13	0.290974
1116.77	0.219851
1118.4	0.470503
1120.03	-0.0712261
1121.67	0.00948143
1123.3	0.775909
1124.93	0.451509
1126.56	0.470315
1128.19	0.553973
1129.83	-0.0887089
1131.46	0.0175238
1133.09	0.123986
1134.72	-0.197205
1136.35	0.0368185
1137.98	0.0775337
1139.61	0.266687
1141.24	0.134563
1142.86	-0.275258
1144.49	-0.19401
1146.12	-0.304101
1147.75	0.375194
1149.38	-0.0530043
1151	0.0732193
1152.63	0.284556
1154.26	0.410316
1155.88	0.301538
1157.51	0.213999
1159.14	0.126852
1160.76	0.210628
1162.39	-0.00230122
1164.01	0.147118
1165.63	-0.000701904
1167.26	0.340259
1168.88	-0.0638762
1170.51	-0.235531
1172.13	-0.366213
1173.75	0.329759
1175.38	0.0902309
1177	0.0626106
1178.62	0.204679
1180.24	-0.182004
1181.86	0.215268
1183.48	-0.486683
1185.1	1.03071
1186.72	-0.241869
1188.34	0.216041
1189.96	0.355221
1191.58	0.281862
1193.2	-0.129025
1194.82	0.195304
1196.44	0.749377
1198.06	0.528179
1199.68	0.622827
1201.29	0.322514
1202.91	-0.225464
1204.53	0.147639
1206.14	0.292848
1207.76	0.293127
1209.38	0.481363
1210.99	0.376811
1212.61	0.75028
1214.22	0.725429
1215.84	0.261298
1217.45	0.149981
1219.07	0.41205
1220.68	0.715001
1222.29	0.810621
1223.91	1.13516
1225.52	0.673874
1227.13	0.669825
1228.74	0.997993
1230.36	1.24439
1231.97	0.644317
1233.58	0.27292
1235.19	0.729377
1236.8	0.856269
1238.41	0.570667
1240.02	1.17472
1241.63	1.57241
1243.24	0.666567
1244.85	0.525269
1246.46	0.693424
1248.07	0.757207
1249.67	1.29617
1251.28	1.27616
1252.89	0.966795
1254.5	1.38209
1256.1	0.846956
1257.71	0.519732
1259.32	0.876275
1260.92	0.923344
1262.53	1.01229
1264.13	0.790578
1265.74	0.485442
1267.34	0.987882
1268.95	0.743304
1270.55	1.34782
1272.15	0.728065
1273.76	0.687937
1275.36	0.439653
1276.97	1.04026
1278.57	0.790432
1280.17	1.20282
1281.77	1.22134
1283.37	1.30203
1284.97	0.473301
1286.58	0.803612
1288.18	1.09336
1289.78	1.05322
1291.38	0.930893
1292.98	0.457251
1294.58	0.623466
1296.18	1.18083
1297.78	1.32342
1299.37	1.05167
1300.97	0.778885
1302.57	1.5559
1304.17	0.869528
1305.77	1.31451
1307.36	1.5322
1308.96	1.60554
1310.55	1.57628
1312.15	1.89546
1313.75	1.58078
1315.34	1.79892
1316.94	1.56846
1318.53	1.3593
1320.13	0.94645
1321.72	1.53148
1323.32	1.36103
1324.91	1.45353
1326.5	2.01133
1328.1	1.71573
1329.69	1.50244
1331.28	1.19011
1332.87	1.10277
1334.47	1.86565
1336.06	2.02378
1337.65	1.45623
1339.24	1.15067
1340.83	1.46831
1342.42	1.60225
1344.01	1.01042
1345.6	1.28221
1347.19	1.55351
1348.78	1.30511
1350.37	1.13957
1351.96	1.37666
1353.54	1.41555
1355.13	1.27577
1356.72	1.59598
1358.31	1.43615
1359.89	1.41529
1361.48	1.31359
1363.07	0.692572
1364.65	0.869385
1366.24	0.866913
1367.82	1.32321
1369.41	0.366948
1370.99	0.646388
1372.58	1.16574
1374.16	0.313123
1375.75	0.575376
1377.33	0.917315
1378.91	0.940409
1380.5	0.823276
1382.08	1.24207
1383.66	0.366855
1385.25	1.04182
1386.83	1.51709
1388.41	1.15805
1389.99	0.740424
1391.57	0.7803
1393.15	2.5269
1394.73	2.46824
1396.31	2.17146
1397.89	0.645099
1399.47	1.17962
1401.05	0.405648
1402.63	0.661259
1404.21	1.01549
1405.78	1.0337
1407.36	1.28988
1408.94	0.282167
1410.52	1.44826
1412.1	1.03391
1413.67	0.816661
1415.25	0.736861
1416.82	0.912742
1418.4	0.417983
1419.98	0.810505
1421.55	0.888601
1423.13	0.180709
1424.7	0.852255
1426.28	0.816295
1427.85	0.957952
1429.42	1.57174
1431	1.79096
1432.57	0.867661
1434.14	1.8915
1435.71	1.341
1437.29	2.12796
1438.86	1.5983
1440.43	1.56115
1442	1.97694
1443.57	1.84313
1445.14	1.84728
1446.71	1.73366
1448.28	1.83641
1449.85	2.03777
1451.42	2.00369
1452.99	1.97014
1454.56	1.66154
1456.13	1.21501
1457.7	2.22396
1459.26	1.65739
1460.83	1.75824
1462.4	1.34572
1463.97	1.50222
1465.54	1.77547
1467.1	1.71415
1468.67	1.10355
1470.23	1.4167
1471.8	1.10293
1473.36	0.809946
1474.93	0.831525
1476.49	1.08875
1478.06	0.797088
1479.62	1.25031
1481.19	0.70375
1482.75	0.784354
1484.31	0.962771
1485.88	0.944888
1487.44	0.593344
1489	0.436595
1490.56	0.689231
1492.13	0.607174
1493.69	0.601427
1495.25	-0.0691948
1496.81	0.468883
1498.37	0.129773
1499.93	0.433328
1501.49	0.581834
1503.05	0.226884
1504.61	0.454617
1506.17	-0.18891
1507.73	0.347861
1509.28	0.534895
1510.84	0.623982
1512.4	0.307397
1513.96	0.510905
1515.52	0.656404
1517.07	0.552533
1518.63	0.372916
1520.19	0.0984602
1521.74	0.322241
1523.3	0.698133
1524.85	0.289722
1526.41	0.0530176
1527.96	0.558685
1529.52	0.0357695
1531.07	0.0269356
1532.63	0.720098
1534.18	0.446542
1535.73	0.552847
1537.29	0.451952
1538.84	0.295255
1540.39	0.365468
1541.94	0.454461
1543.5	1.25831
1545.05	0.612751
1546.6	0.606855
1548.15	1.01358
1549.7	0.42608
1551.25	1.05699
1552.8	0.770562
1554.35	1.02754
1555.9	1.09867
1557.45	0.294106
1559	1.04065
1560.55	1.13565
1562.1	0.80307
1563.65	0.396859
1565.19	0.923992
1566.74	0.984811
1568.29	0.970765
1569.83	0.956358
1571.38	0.829598
1572.93	1.01991
1574.47	1.34076
1576.02	1.1763
1577.56	1.36672
1579.11	1.33353
1580.66	1.43163
1582.2	1.10096
1583.74	1.55555
1585.29	1.41311
1586.83	1.64495
1588.38	1.46561
1589.92	1.58531
1591.46	1.8357
1593.01	1.29933
1594.55	1.32429
1596.09	1.40552
1597.63	1.74959
1599.17	1.68208
1600.71	1.50263
1602.25	1.62373
1603.79	1.29424
1605.34	1.22679
1606.88	1.08283
1608.41	1.25653
1609.95	2.02949
1611.49	1.29674
1613.03	1.10734
1614.57	1.47998
1616.11	1.57044
1617.65	1.09894
1619.18	1.34096
1620.72	1.37819
1622.26	1.06092
1623.79	1.04405
1625.33	1.21437
1626.87	0.934752
1628.4	1.81401
1629.94	1.27003
1631.48	0.893847
1633.01	1.11543
1634.55	0.907719
1636.08	1.42859
1637.61	1.98717
1639.15	1.33413
1640.68	1.16611
1642.21	0.960378
1643.75	1.74066
1645.28	1.73736
1646.81	1.36127
1648.34	1.26417
1649.88	1.83602
1651.41	1.36894
1652.94	1.68252
1654.47	1.21821
1656	1.97807
1657.53	1.08833
1659.06	1.93947
1660.59	1.5853
1662.12	1.61864
1663.65	1.00388
1665.18	1.14684
1666.71	1.38219
1668.24	1.02808
1669.76	0.952237
1671.29	1.57794
1672.82	1.43065
1674.35	0.73141
1675.87	0.750289
1677.4	1.48618
1678.93	1.15351
1680.45	1.29821
1681.98	0.927556
1683.5	1.14466
1685.03	1.3432
1686.55	1.0467
1688.08	0.934231
1689.6	1.40843
1691.13	0.893687
1692.65	0.0684204
1694.17	0.798635
1695.7	0.741844
1697.22	0.885863
1698.74	0.938089
1700.27	0.55186
1701.79	0.566875
1703.31	0.544894
1704.83	0.303935
1706.35	0.881698
1707.87	0.312976
1709.39	-0.309331
1710.91	0.394244
1712.43	0.806672
1713.95	0.403294
1715.47	0.489389
1716.99	0.285876
1718.51	0.0645094
1720.03	0.601836
1721.55	0.308493
1723.07	-0.128102
1724.58	0.373613
1726.1	-0.16849
1727.62	-0.294992
1729.13	0.911007
1730.65	0.280678
1732.17	0.29641
1733.68	0.0831881
1735.2	0.319508
1736.72	-0.116078
1738.23	0.122492
1739.74	0.0690899
1741.26	0.239262
1742.77	0.239986
1744.29	0.236217
1745.8	0.482307
1747.32	0.0730906
1748.83	-0.0594854
1750.34	-0.0697756
1751.85	0.29681
1753.37	-0.222155
1754.88	0.461341
1756.39	0.152293
1757.9	0.0311613
1759.41	0.124886
1760.92	0.101473
1762.44	0.464255
1763.95	0.120064
1765.46	-0.0704069
1766.96	-0.0116739
1768.47	0.391946
1769.98	-0.176403
1771.49	-0.0887423
1773	0.104665
1774.51	0.354833
1776.02	0.246598
1777.53	0.218227
1779.03	0.129521
1780.54	0.131725
1782.05	-0.142412
1783.55	-0.0473871
1785.06	0.279998
1786.57	0.361374
1788.07	-0.22082
1789.58	0.255304
1791.08	0.145848
1792.59	0.0902948
1794.09	0.0641947
1795.6	0.00357533
1797.1	0.475547
1798.61	0.318408
1800.11	0.320361
1801.61	0.447003
1803.12	0.311996
1804.62	0.0375166
1806.12	-0.335738
1807.62	-0.144515
1809.12	0.0621061
1810.63	-0.199978
1812.13	0.224431
1813.63	0.218749
1815.13	0.216217
1816.63	0.122124
1818.13	0.00922012
1819.63	0.398061
1821.13	0.293179
1822.63	0.414749
1824.13	0.170526
1825.63	-0.118864
1827.13	-0.176733
1828.62	-0.109399
1830.12	0.136834
1831.62	0.298278
1833.12	0.196384
1834.61	-0.114679
1836.11	0.0394325
1837.61	0.164609
1839.1	0.0155115
1840.6	0.174384
1842.09	0.0723467
1843.59	0.228888
1845.09	0.0038662
1846.58	-0.0983186
1848.08	0.105357
1849.57	0.113038
1851.06	0.04564
1852.56	0.0736504
1854.05	0.272729
1855.54	0.228525
1857.04	0.032876
1858.53	0.00718403
1860.02	0.106756
1861.51	-0.155605
1863.01	0.12853
1864.5	0.136031
1865.99	-0.241785
1867.48	-0.00516319
1868.97	0.179829
1870.46	-0.047411
1871.95	0.10846
1873.44	0.104041
1874.93	0.217166
1876.42	0.141812
1877.91	0.317192
1879.4	0.0809422
1880.89	0.558508
1882.37	-0.243189
1882.46	-0.294631
1883.95	-0.31272
1885.45	0.069355
1886.94	-0.507647
1888.43	0.168887
1889.93	-0.0947065
1891.42	0.147118
1892.91	0.0424423
1894.41	0.391425
1895.9	0.13329
1897.39	0.345417
1898.88	0.192278
1900.37	-0.414094
1901.86	-0.239004
1903.36	0.317137
1904.85	0.454355
1906.34	0.0346975
1907.83	0.119022
1909.32	0.429428
1910.81	0.185186
1912.29	-0.179523
1913.78	0.340957
1915.27	0.115701
1916.76	0.514385
1918.25	0.548402
1919.74	0.0101905
1921.23	0.0438228
1922.71	0.147033
1924.2	-0.0433621
1925.69	0.0442524
1927.17	0.0462441
1928.66	-0.0377455
1930.15	0.068727
1931.63	0.0879602
1933.12	0.0540009
1934.6	0.295479
1936.09	0.033505
1937.57	0.0301199
1939.06	-0.181042
1940.54	-0.167223
1942.02	0.38228
1943.51	0.242179
1944.99	0.085731
1946.47	0.722744
1947.96	0.101111
1949.44	-0.0383582
1950.92	0.355203
1952.4	-0.0268598
1953.88	0.227304
1955.37	0.0514235
1956.85	0.322595
1958.33	0.130642
1959.81	0.1454
1961.29	0.194931
1962.77	0.107494
1964.25	0.208446
1965.73	0.0691209
1967.21	0.271655
1968.69	-0.0397902
1970.16	-0.334246
1971.64	0.0717978
1973.12	-0.120203
1974.6	0.0804458
1976.08	-0.196281
1977.55	0.0555439
1979.03	0.42627
1980.51	-0.0540352
1981.98	-0.0918708
1983.46	0.192847
1984.94	-0.202107
1986.41	0.30224
1987.89	-0.244957
1989.36	0.157269
1990.84	-0.117429
1992.31	-0.12038
1993.79	0.0803971
1995.26	0.281729
1996.73	0.0778737
1998.21	0.110579
1999.68	0.261074
2001.15	0.00591421
2002.63	-0.38438
2004.1	0.186505
2005.57	-0.42241
2007.04	-0.0701213
2008.51	0.0638247
2009.99	-0.0204
2011.46	0.552371
2012.93	0.519138
2014.4	0.384579
2015.87	0.266216
2017.34	0.147122
2018.81	-0.0398502
2020.28	0.226541
2021.75	0.0894628
2023.21	-0.0472102
2024.68	0.0685754
2026.15	0.252389
2027.62	0.0851793
2029.09	0.338597
2030.56	0.00611496
2032.02	-0.0571885
2033.49	-0.103308
2034.96	0.10244
2036.42	0.0896287
2037.89	0.0427465
2039.36	0.18037
2040.82	0.149881
2042.29	-0.115703
2043.75	-0.078073
2045.22	0.296884
2046.68	0.100467
2048.14	0.0220385
2049.61	0.516293
2051.07	-0.085813
2052.54	0.0693021
2054	-0.114393
2055.46	0.155746
2056.93	-0.0306058
2058.39	-0.150126
2059.85	0.319823
2061.31	-0.136328
2062.77	0.182802
2064.23	0.0650787
2065.7	0.0828791
2067.16	0.269707
2068.62	0.221459
2070.08	0.156657
2071.54	0.209745
2073	0.397431
2074.46	-0.358063
2075.92	-0.423497
2077.38	-0.0513835
2078.83	0.269875
2080.29	0.186574
2081.75	-0.0992246
2083.21	0.271001
2084.67	-0.133693
2086.12	0.638782
2087.58	0.0649085
2089.04	0.0962224
2090.49	0.261702
2091.95	0.208692
2093.41	-0.112814
2094.86	0.354039
2096.32	0.0656996
2097.77	0.112149
2099.23	0.157983
2100.68	-0.147734
2102.14	0.215593
2103.59	0.044724
2105.05	0.309076
2106.5	-0.51001
2107.95	0.256786
2109.41	0.189778
2110.86	-0.161016
2112.31	0.25388
2113.76	0.000761032
2115.21	-0.153533
2116.67	0.140534
2118.12	0.0190511
2119.57	0.0980182
2121.02	0.128723
2122.47	0.243973
2123.92	-0.236526
2125.37	0.212192
2126.82	0.279315
2128.27	-0.0190926
2129.72	0.278077
2131.17	0.226066
2132.62	0.587225
2134.07	-0.11086
2135.51	0.167976
2136.96	0.249427
2138.41	0.0349145
2139.86	0.169048
2141.31	0.0566392
2142.75	0.176664
2144.2	-0.0996904
2145.65	0.070704
2147.09	0.174782
2148.54	-0.0859447
2149.98	0.596772
2151.43	0.251629
2152.87	-0.077836
2154.32	0.0559578
2155.76	0.18934
2157.21	-0.0748296
2158.65	0.224771
2160.1	0.177569
2161.54	0.49633
2162.98	0.418996
2164.43	0.22676
2165.87	0.466629
2167.31	0.0588679
2168.75	-0.0676351
2170.2	0.33655
2171.64	0.190303
2173.08	0.158868
2174.52	0.475593
2175.96	0.592126
2177.4	0.409463
2178.84	-0.071794
2180.28	-0.103348
2181.72	0.0985684
2183.16	0.0349474
2184.6	0.204393
2186.04	0.240881
2187.48	-0.288326
2188.92	0.0310512
2190.36	0.417124
2191.79	0.00400019
2193.23	0.189597
2194.67	0.0411587
2196.11	0.374034
2197.54	0.122692
2198.98	0.119614
2200.42	0.198739
2201.85	0.128156
2203.29	0.0249972
2204.72	-0.0440006
2206.16	0.302249
2207.59	0.00255537
2209.03	0.100429
2210.46	0.462417
2211.9	0.409609
2213.33	0.50498
2214.77	-0.0441151
2216.2	0.200324
2217.63	0.0494447
2219.07	0.130596
2220.5	0.393765
2221.93	-0.051775
2223.36	0.029645
2224.8	0.0769501
2226.23	0.0405202
2227.66	-0.0958686
2229.09	-0.183787
2230.52	-0.22295
2231.95	0.409658
2233.39	0.00980997
2234.81	0.069284
2236.25	-0.0011096
2237.67	0.109479
2239.1	0.254126
2240.53	0.0251765
2241.96	0.0750918
2243.39	0.387021
2244.82	0.0142498
2246.25	0.342337
2247.68	0.179795
2249.1	0.178568
2250.53	0.305796
2251.96	0.39874
2253.38	-0.208534
2254.81	-0.148349
2256.24	-0.00596476
2257.66	-0.00789785
2259.09	0.349419
2260.51	0.271142
2261.94	0.45464
2263.36	0.314923
2264.79	-0.0846386
2266.21	0.458128
2267.64	0.0897832
2269.06	0.0783768
2270.49	-0.161623
2271.91	-0.141652
2273.33	-0.056685
2274.76	0.370459
2276.18	0.488397
2277.6	0.215399
2279.02	0.268362
2280.44	-0.0211368
2281.87	-0.0825319
2283.29	0.0354199
2284.71	0.104499
2286.13	0.173786
2287.55	-0.132121
2288.97	0.101129
2290.39	0.367579
2291.81	0.193125
2293.23	0.345708
2294.65	0.171186
2296.07	0.143754
2297.49	0.0834975
2298.91	0.0559878
2300.33	0.225275
2301.74	0.18179
2303.16	0.187727
2304.58	0.0789018
2306	0.331211
2307.41	0.238432
2308.83	0.440988
2310.25	-0.113228
2311.66	0.220079
2313.08	0.0763812
2314.5	0.393772
2315.91	0.0369067
2317.33	0.619429
2318.74	0.626048
2320.16	0.25315
2321.57	0.307984
2322.98	0.262227
2324.4	0.148457
2325.81	0.560748
2327.23	0.0312362
2328.64	0.473973
2330.05	0.389242
2331.46	-0.172108
2332.88	0.222471
2334.29	-0.0570569
2335.7	0.00923491
2337.11	0.23961
2338.52	-0.287237
2339.94	-0.370879
2341.35	0.0867324
2342.76	0.0181518
2344.17	-0.0995846
2345.58	0.0616627
2346.99	0.435882
2348.4	0.351333
2349.81	0.0211878
2351.22	0.115876
2352.62	-0.296736
2354.03	0.139126
2355.44	0.149708
2356.85	0.241373
2358.26	0.300272
2359.67	-0.0145717
2361.07	-0.166358
2362.48	-0.12327
2363.89	0.113999
2365.29	-0.0214167
2366.7	-0.0109439
2368.11	0.129156
2369.51	0.108541
2370.92	0.0407033
2372.32	-0.332028
2373.73	0.0210919
2375.13	-0.156938
2376.54	0.115407
2377.94	0.113223
2379.35	-0.163422
2380.75	0.425901
2382.15	0.0987363
2383.56	0.187944
2384.96	0.260698
2386.36	0.373548
2387.76	0.407097
2389.17	0.194479
2390.57	-0.160075
2391.97	-0.019588
2393.37	-0.117105
2394.77	0.2633
2396.17	0.405522
2397.58	-0.119312
2398.98	0.294092
2400.38	0.23116
2401.78	-0.133265
2403.18	0.280649
2404.58	-0.0204086
2405.97	0.154193
2407.37	-0.259221
2408.77	0.167644
2410.17	-0.0719938
2411.57	-0.136953
2412.97	0.0680151
2414.37	0.41639
2415.76	0.0693679
2417.16	0.119287
2418.56	0.122506
2419.95	0.0468712
2421.35	0.414645
2422.75	0.116848
2424.14	0.230684
2425.54	0.0434971
2426.93	-0.000694752
2428.33	-0.0442004
2429.72	0.547431
2431.12	0.219926
2432.51	0.0986257
2433.91	0.373831
2435.3	0.0446019
2436.7	0.28597
2438.09	0.081172
2439.48	0.0976977
2440.88	-0.0295029
2442.27	0.128647
2443.66	0.159472
2445.05	0.0156369
2446.44	-0.255051
2447.84	0.0765934
2449.23	-0.162339
2450.62	-0.100051
2452.01	0.231681
2453.4	0.168271
2454.79	-0.400637
2456.18	0.122672
2457.57	0.377275
2458.96	0.36284
2460.35	0.25303
2461.74	-0.110404
2463.13	-0.221409
2464.52	0.172757
2465.91	0.345225
2467.29	0.296449
2468.68	0.137214
2470.07	-0.00627422
2471.46	0.322889
2472.85	0.194245
2474.23	-0.123808
2475.62	0.234467
2477.01	-0.241206
2478.39	0.0376711
2479.78	-0.185935
2481.16	0.45336
2482.55	-0.114831
2483.93	0.0219936
2485.32	0.236048
2486.7	0.573688
2488.09	-0.354442
2489.47	0.230844
2490.86	-0.0104637
2492.24	0.0446043
2493.62	-0.0238075
2495.01	0.312374
2496.39	0.292541
2497.77	-0.0982461
2499.15	-0.287022
2500.54	-0.120026
2501.92	-0.077559
2503.3	-0.00509214
2504.68	-0.0877824
2506.06	0.430106
2507.45	0.30017
2508.83	0.478096
2510.21	0.179902
2511.59	0.465881
2512.97	0.0315409
2514.35	0.670844
2515.73	-0.0522814
2517.11	0.189895
2518.48	-0.0111113
2519.86	0.0174685
2521.24	-0.0458307
2522.62	0.24147
2524	-0.00617886
2525.38	0.264115
2526.75	0.0616422
2528.13	0.224992
2529.51	0.176131
2530.89	0.0526648
2532.26	0.128236
2533.64	-0.0381374
2535.02	0.358262
2536.39	-0.00498199
2537.77	-0.262378
2539.14	-0.0496473
2540.52	0.268555
2541.89	0.115698
2543.27	0.175567
2544.64	0.0995793
2546.01	0.282495
2547.39	0.208599
2548.76	0.347825
2550.14	0.0319877
2551.51	0.125421
2552.88	-0.055078
2554.25	0.355391
2555.63	-0.0543504
2557	-0.024518
2558.37	0.308435
2559.74	0.156315
2561.11	0.0653367
2562.49	0.323479
2563.86	0.172934
2565.23	0.280393
2566.6	0.0546732
2567.97	0.101804
2569.34	0.482378
2570.71	0.393123
2572.08	0.16747
2573.45	0.290503
2574.82	0.0346379
2576.18	-0.0999522
2577.55	-0.219462
2578.92	0.237022
2580.29	0.0715446
2581.66	0.390923
2583.02	0.209599
2584.39	0.331288
2585.76	0.468052
2587.13	0.119866
2588.49	0.34781
2589.86	0.136341
2591.22	-0.0903525
2592.59	0.106872
2593.96	0.136718
2595.32	-0.000902653
2596.69	0.133164
2598.05	0.175629
2599.42	0.126976
2600.78	0.199331
2602.14	0.241815
2603.51	-0.0925589
2604.87	0.267953
2606.23	0.326695
2607.6	0.445447
2608.96	-0.114869
2610.32	0.273366
2611.69	-0.107685
2613.05	-0.0229349
2614.41	0.166134
2615.77	0.0694451
2617.13	-0.0268736
2618.49	0.221945
2619.86	0.0819249
2621.22	0.0773301
2622.58	0.192736
2623.94	0.143931
2625.3	0.110075
2626.66	-0.117813
2628.02	-0.151937
2629.37	0.0817523
2630.73	0.0619593
2632.09	0.205617
2633.45	-0.0669231
2634.81	-0.0422058
2636.17	-0.195527
2637.53	0.0959377
2638.88	0.0168009
2640.24	-0.0768852
2641.6	-0.155442
2642.96	0.38683
2644.31	0.26415
2645.67	0.0383101
2647.02	0.210496
2648.38	-0.177918
2649.74	-0.0071125
2651.09	-0.0724573
2652.45	0.287951
2653.8	-0.0711226
2655.16	-0.23835
2656.51	0.489019
2657.86	0.162524
2659.22	-0.0165071
2660.57	0.229042
2661.93	0.079648
2663.28	0.324286
2664.63	0.100814
2665.98	0.0374398
2667.34	-0.0699849
2668.69	0.186712
2670.04	0.0358019
2671.39	0.36537
2672.75	0.171943
2674.09	0.414961
2675.45	0.0776253
2676.8	0.2634
2678.15	0.174026
2679.5	0.114412
2680.85	0.316668
2682.2	-0.0454917
2683.55	0.100803
2684.9	0.131958
2686.25	0.163556
2687.6	0.108002
2688.94	0.109499
2690.29	0.298291
2691.64	0.412858
2692.99	0.206787
2694.34	0.145035
2695.68	-0.105255
2697.03	0.239114
2698.38	0.352602
2699.73	-0.0827069
2701.07	0.540549
2702.42	0.223897
2703.76	0.0528703
2705.11	0.360564
2706.45	0.262489
2707.8	0.497848
2709.15	0.283029
2710.49	0.111268
2711.83	0.331369
2713.18	0.377109
2714.52	0.146639
2715.87	0.0613737
2717.21	0.528614
2718.55	0.0793724
2719.9	0.35715
2721.24	0.0670562
2722.58	0.125785
2723.93	0.184113
2725.27	0.183841
2726.61	-0.0787554
2727.95	0.255119
2729.29	0.166697
2730.63	0.398274
2731.98	0.295136
2733.32	0.148451
2734.66	0.43831
2736	0.481042
2737.34	0.436633
2738.68	0.174068
2740.02	-0.132296
2741.36	0.578829
2742.7	0.155227
2744.03	0.443346
2745.37	0.178652
2746.71	0.334912
2748.05	-0.0607319
2749.39	0.22593
2750.72	0.048409
2752.06	-0.288239
2753.4	-0.189667
2754.74	0.0538592
2756.07	-0.122684
2757.41	-0.110757
2758.75	0.0606046
2760.08	-0.0283027
2761.42	0.0568771
2762.76	-0.00225019
2764.09	0.344045
2765.42	-0.0475774
2766.76	0.0813041
2768.09	-0.166695
2769.43	-0.0107589
2770.76	0.187154
2772.1	-0.0351782
2773.43	0.13153
2774.76	0.0523639
2776.1	-0.041131
2777.43	-0.0334215
2778.76	-0.312876
2780.1	0.170152
2781.43	0.107085
2782.76	0.202045
2784.09	0.239465
2785.42	0.0904818
2786.75	-0.230041
2788.09	-0.220527
2789.42	-0.224695
2790.75	0.0579305
2792.08	0.155174
2793.41	0.0812473
2794.74	0.207492
2796.07	0.0762048
2797.4	-0.198318
2798.73	-0.0447674
2800.06	0.00837946
2801.39	-0.0956812
2802.71	0.227949
2804.04	0.109247
2805.37	-0.0951571
2806.7	0.568426
2808.03	0.0926437
2809.35	0.04356
2810.68	0.221771
2812.01	-0.0113254
2813.33	-0.158074
2814.66	0.0226164
2815.99	0.147746
2817.31	-0.0805011
2818.64	-0.294034
2819.96	0.0735788
2821.29	0.242383
2822.61	-0.212954
2823.94	0.110588
2825.26	0.277849
2826.59	0.331768
2827.91	0.145419
2829.23	0.200279
2830.56	0.24139
2831.88	0.254385
2833.21	0.16826
2834.53	-0.144579
2835.85	0.292312
2837.17	0.346566
2838.5	0.357976
2839.82	0.553037
2841.14	0.196682
2842.46	0.703085
2843.78	0.573884
2845.1	0.883438
2846.42	1.12288
2847.74	1.00934
2849.06	0.938242
2850.38	0.951694
2851.71	0.894063
2853.03	1.01972
2854.34	1.28633
2855.66	1.08644
2856.98	1.43753
2858.3	1.20947
2859.62	1.05207
2860.94	1.57236
2862.26	1.80983
2863.57	1.45408
2864.89	1.60625
2866.21	1.84294
2867.53	1.61433
2868.84	1.99252
2870.16	2.34276
2871.48	2.38295
2872.79	2.33834
2874.11	2.65944
2875.42	2.66949
2876.74	2.83338
2878.05	2.19425
2879.37	3.06034
2880.68	2.61856
2882	2.66968
2883.31	2.65152
2884.63	2.26922
2885.94	2.50532
2887.26	2.8116
2888.57	2.8227
2889.88	2.60864
2891.19	2.88474
2892.51	2.82366
2893.82	2.6644
2895.13	2.26756
2896.44	2.97753
2897.76	2.73646
2899.07	2.5804
2900.38	2.85878
2901.69	2.61998
2903	3.12277
2904.31	3.248
2905.62	3.16368
2906.93	3.27569
2908.24	3.1926
2909.55	3.66993
2910.86	3.79814
2912.17	3.94044
2913.48	3.92811
2914.79	3.66249
2916.1	3.84332
2917.41	3.84069
2918.71	4.15894
2920.02	3.95929
2921.33	3.91417
2922.64	3.87018
2923.94	4.54034
2925.25	4.54061
2926.56	4.62537
2927.86	4.79409
2929.17	4.71087
2930.48	5.06051
2931.78	4.55694
2933.09	4.61232
2934.39	4.70961
2935.7	5.01663
2937	4.66697
2938.31	4.47124
2939.61	4.26183
2940.92	4.47209
2942.22	4.24996
2943.53	3.98695
2944.83	3.78098
2946.13	3.88363
2947.43	3.67915
2948.74	3.36238
2950.04	3.59048
2951.34	3.34105
2952.64	3.13195
2953.95	3.35568
2955.25	3.313
2956.55	3.29907
2957.85	3.30091
2959.15	3.34717
2960.45	2.87768
2961.75	2.77391
2963.05	2.76896
2964.35	2.86189
2965.65	3.1504
2966.95	3.14259
2968.25	3.09137
2969.55	2.87068
2970.85	2.8748
2972.15	2.86514
2973.45	2.6588
2974.75	2.76206
2976.05	2.63958
2977.34	2.48778
2978.64	2.20774
2979.94	2.36262
2981.24	2.44584
2982.53	2.19088
2983.83	1.64117
2985.13	2.31556
2986.42	1.74039
2987.72	1.89736
2989.01	1.64776
2990.31	1.63734
2991.61	1.55627
2992.9	1.51646
2994.19	1.01188
2995.49	0.927989
2996.78	1.53149
2998.08	0.744948
2999.37	1.22177
3000.67	0.745217
3001.96	0.928335
3003.25	0.761422
3004.55	0.398622
3005.84	0.652042
3007.13	0.582819
3008.42	0.778798
3009.72	0.819967
3011.01	0.539046
3012.3	0.481559
3013.59	0.549719
3014.88	0.562389
3016.17	-0.176585
3017.46	0.631425
3018.76	0.172762
3020.05	0.0624018
3021.34	0.0769358
3022.63	0.285226
3023.92	0.325829
3025.21	0.102275
3026.49	0.0451732
3027.78	0.279169
3029.07	-0.0669584
3030.36	-0.134949
3031.65	0.198912
3032.94	0.0502872
3034.23	0.0815187
3035.51	0.222705
3036.8	0.05935
3038.09	0.280479
3039.38	0.114228
3040.66	-0.0804796
3041.95	0.0265255
3043.23	-0.0312963
3044.52	0.171847
3045.81	0.0477881
3047.09	-0.128771
3048.38	-0.0163555
3049.66	0.357139
3050.95	0.363493
3052.23	0.302426
3053.52	0.268746
3054.8	0.139078
3056.09	0.254104
3057.37	0.490812
3058.65	0.317849
3059.94	0.131247
3061.22	0.16293
3062.5	0.263449
3063.79	0.351526
3065.07	0.291428
3066.35	0.246227
3067.63	0.21557
3068.92	0.457297
3070.2	0.046092
3071.48	0.368622
3072.76	0.295715
3074.04	0.330544
3075.32	-0.070271
3076.6	-0.00920391
3077.88	0.418649
3079.16	0.127997
3080.44	0.232249
3081.72	0.0394764
3083	0.200572
3084.28	-0.0718169
3085.56	0.442975
3086.84	0.251781
3088.12	0.114287
3089.4	-0.0237427
3090.67	0.245008
3091.95	0.120136
3093.23	-0.0858841
3094.51	0.332299
3095.78	-0.103559
3097.06	0.165806
3098.34	0.0826888
3099.61	0.0944076
3100.89	-0.124181
3102.17	-0.0446062
3103.44	-0.0460181
3104.72	0.00720215
3105.99	0.0340104
3107.27	-0.276667
3108.54	0.333834
3109.82	0.106255
3111.09	-0.161144
3112.37	0.100244
3113.64	-0.152645
3114.92	-0.0667596
3116.19	0.168057
3117.46	0.158191
3118.74	0.310259
3120.01	0.176621
3121.28	0.381251
3122.55	0.151612
3123.83	0.301348
3125.1	0.302215
3126.37	0.303552
3127.64	0.170154
3128.91	0.497223
3130.19	0.36478
3131.46	-0.0647917
3132.73	0.0599251
3134	0.251873
3135.27	0.362299
3136.54	0.404726
3137.81	0.136668
3139.08	0.394173
3140.35	0.126261
3141.62	0.598576
3142.89	0.371727
3144.16	0.387417
3145.42	0.282943
3146.69	0.487633
3147.96	0.665921
3149.23	0.563403
