200.43	0.0954542
202.246	0.130793
204.061	0.167226
205.875	0.836753
207.688	0.4361
209.501	0.764069
211.316	0.216021
213.129	0.0796423
214.941	0.815301
216.753	0.797688
218.566	0.440911
220.377	0.472273
222.188	-0.705104
223.999	-0.840974
225.809	0.0144329
227.618	0.289232
229.43	0.104472
231.239	0.643135
233.047	0.698282
234.855	0.753539
236.663	0.496496
238.471	-0.192334
240.278	-0.565575
242.087	0.0515947
243.894	0.5256
245.7	0.492972
247.506	0.772419
249.311	0.276324
251.116	0.23562
252.921	0.602257
254.725	0.435863
256.529	0.510099
258.333	0.343906
260.136	-0.0134258
261.939	0.715112
263.744	0.409305
265.546	0.272973
267.348	0.42598
269.15	0.0241385
270.951	0.633779
272.752	-0.276791
274.552	0.691673
276.353	0.452807
278.152	0.477113
279.952	0.475125
281.751	1.07263
283.55	0.753247
285.348	0.21656
287.146	0.712049
288.942	-0.280219
290.739	-0.0483217
292.536	0.591178
294.333	-0.132248
296.129	0.700467
297.925	0.410169
299.721	0.813325
301.516	0.905427
303.311	-0.149563
305.106	0.584866
306.9	0.792725
308.694	0.475538
310.486	0.587939
312.279	0.725142
314.072	0.00658894
315.864	0.361355
317.656	0.813089
319.448	0.0753479
321.24	0.482069
323.029	0.555971
324.819	-0.013957
326.61	0.34659
328.4	0.778918
330.19	0.589428
331.977	0.565837
333.766	0.444731
335.555	0.32135
337.343	0.147742
339.131	0.785431
340.917	0.249205
342.704	0.286195
344.491	0.370763
346.277	0.479519
348.062	0.684284
349.848	0.340315
351.633	0.0441656
353.416	0.367927
355.201	0.16561
356.986	0.415115
358.77	0.329338
360.552	0.0995455
362.335	-0.297482
364.118	1.08862
365.899	0.143374
367.682	0.361999
369.464	0.460711
371.243	0.416156
373.025	-0.0786133
374.806	0.230793
376.585	0.185372
378.365	0.352685
380.143	0.355554
381.923	-0.0171289
383.702	0.317529
385.479	0.394349
387.258	0.190251
389.034	0.292677
390.812	0.865678
392.59	0.570371
394.365	0.698349
396.142	0.239536
397.916	-0.148838
399.693	0.237611
401.467	0.694063
403.242	0.633111
405.015	-0.462024
406.79	-0.172182
408.565	0.398665
410.337	0.335114
412.111	-0.174336
413.882	-0.237477
415.656	-0.135778
417.426	0.248157
419.197	0.0695019
420.969	0.172649
422.739	-0.193946
424.51	-0.232635
426.279	0.408587
428.05	0.274242
429.819	0.53842
431.589	0.567762
433.356	0.268781
435.124	-0.147254
436.893	-0.305186
438.66	0.287214
440.428	0.40878
442.194	0.364095
443.96	0.457965
445.727	-0.0592203
447.492	0.921157
449.259	0.28577
451.023	-0.231627
452.787	-0.140948
454.553	-0.143555
456.316	0.529692
458.079	0.223577
459.844	0.732413
461.606	0.241207
463.368	0.286592
465.132	0.589788
466.893	0.268348
468.654	0.0655937
470.415	-0.693699
472.177	0.152287
473.937	0.649289
475.696	-0.019577
477.456	0.334118
479.217	0.662736
480.975	0.0818748
482.733	0.339652
484.491	0.295717
486.251	0.43997
488.008	0.679631
489.765	0.688376
491.522	0.628151
493.278	0.147916
495.036	0.415358
496.791	0.730011
498.546	1.02152
500.301	0.60955
502.056	0.595217
503.81	0.650434
505.566	0.681085
507.319	0.827962
509.073	0.126523
510.825	0.0584383
512.578	0.459458
514.33	0.788405
516.082	0.292503
517.833	0.665817
519.587	0.426637
521.337	0.609849
523.088	0.393154
524.838	0.364231
526.588	0.241465
528.337	0.189177
530.087	0.277437
531.835	0.576004
533.584	0.709579
535.332	1.19265
537.08	0.668571
538.827	0.494256
540.574	0.272489
542.321	0.329949
544.068	0.549728
545.814	0.350672
547.56	0.129045
549.305	0.139976
551.05	0.683675
552.795	0.532428
554.54	-0.288395
556.284	0.000699043
558.027	0.266507
559.771	0.301895
561.514	0.337759
563.257	0.121108
564.999	0.456984
566.742	-0.194699
568.481	-0.293875
570.223	-0.162529
571.964	-0.121784
573.705	-0.0565929
575.445	0.170836
577.185	0.147541
578.925	0.125512
580.665	0.173119
582.402	-0.491459
584.141	0.406163
585.879	-0.306331
587.617	0.359843
589.355	-0.263305
591.092	0.539073
592.828	-0.0165024
594.564	0.210025
596.301	-0.345647
598.037	-0.00406742
599.773	0.337176
601.506	0.286526
603.242	-0.340268
604.976	-0.23234
606.711	-0.355485
608.443	0.301546
610.177	0.315033
611.91	0.604214
613.644	-0.0232
615.374	0.40484
617.107	0.466181
618.839	-0.0455437
620.569	0.151807
622.3	0.507878
624.032	0.0853815
625.761	0.120345
627.491	-0.00357151
629.221	0.102685
630.949	0.348043
632.679	0.344385
634.408	0.729811
636.135	0.863997
637.863	0.745397
639.592	0.281816
641.318	0.614055
643.045	-0.0365763
644.77	-0.14082
646.497	0.392298
648.224	0.403543
649.948	0.281501
651.674	-0.132182
653.398	-0.565134
655.123	0.392002
656.846	0.00962925
658.57	0.356835
660.293	0.15679
662.017	-0.113601
663.738	0.436189
665.462	0.641283
667.185	0.341509
668.905	0.200968
670.628	0.88454
672.348	0.174506
674.067	0.70267
675.789	0.798332
677.508	0.551327
679.228	-0.132364
680.947	0.400148
682.667	0.103636
684.385	0.449283
686.104	0.977517
687.821	0.42192
689.538	0.440969
691.256	0.528414
692.972	-0.121838
694.69	0.747435
696.406	0.302919
698.121	-0.0504103
699.837	0.216646
701.552	0.689344
703.268	0.126288
704.982	0.66576
706.695	0.997393
708.41	0.915307
710.123	1.22251
711.836	0.956501
713.55	1.51406
715.262	0.447906
716.973	0.342572
718.685	0.693753
720.398	0.839355
722.108	0.734405
723.818	0.743462
725.53	0.297725
727.24	0.783758
728.949	0.179289
730.658	0.958449
732.369	0.58065
734.077	0.904819
735.785	0.527719
737.493	1.23558
739.2	0.837366
740.909	1.61296
742.616	1.32995
744.322	0.823574
746.028	1.44428
747.734	0.986145
749.441	1.0469
751.146	0.861542
752.851	1.50972
754.555	0.629664
756.26	0.515748
757.963	1.73165
759.667	0.607331
761.372	0.948097
763.075	1.28992
764.777	0.864311
766.479	1.9283
768.181	1.364
769.883	1.7694
771.584	1.99192
773.285	1.64763
774.986	1.75511
776.686	1.90833
778.386	1.85941
780.085	1.49544
781.785	1.51705
783.484	1.42571
785.182	1.19743
786.881	1.62333
788.579	1.7744
790.276	1.89937
791.974	1.47892
793.671	1.87043
795.367	1.85484
797.064	1.77258
798.76	1.01652
800.456	1.23105
802.151	1.58177
803.846	1.73051
805.541	2.17125
807.236	2.31867
808.93	1.791
810.624	1.66673
812.317	1.13808
814.01	1.66278
815.703	1.73862
817.394	1.70248
819.086	2.31458
820.778	1.51902
822.47	2.01928
824.161	1.85072
825.852	2.70885
827.543	2.76658
829.231	2.56008
830.921	2.17872
832.611	1.37691
834.3	1.46817
835.989	2.05127
837.676	2.05466
839.364	1.58797
841.053	1.74474
842.74	1.92259
844.426	1.02738
846.113	1.33939
847.8	1.87692
849.486	1.34356
851.171	1.52845
852.857	1.46909
854.542	1.3657
856.227	1.28443
857.911	1.02206
859.595	1.14018
861.279	0.964008
862.961	1.86741
864.645	1.71106
866.329	0.787174
868.01	0.967076
869.692	0.763216
871.375	1.19059
873.055	1.21182
874.737	0.759144
876.418	1.07364
878.097	1.29796
879.778	0.709636
881.457	1.11415
883.137	0.366673
884.817	1.1307
886.495	1.21608
888.174	1.07425
889.851	0.908459
891.53	1.75556
893.206	0.821046
894.884	0.92193
896.562	1.40375
898.237	0.850628
899.914	0.970721
901.589	0.977752
903.265	1.34223
904.94	0.766982
906.615	1.68887
908.289	1.27153
909.964	0.900561
911.637	0.798243
913.31	0.541239
914.984	0.329471
916.656	1.09424
918.33	0.749395
920.001	0.781728
921.674	0.792399
923.345	0.826259
925.015	0.994174
926.687	0.722113
928.357	1.15822
930.028	1.10985
931.698	0.598886
933.366	0.286895
935.037	0.680989
936.705	1.00924
938.373	1.05159
940.043	1.29365
941.71	0.65459
943.379	1.00894
945.046	1.14263
946.712	0.877947
948.378	0.236227
950.046	0.784637
951.711	0.757965
953.376	0.687228
955.043	0.375426
956.708	0.79393
958.372	0.664239
960.036	-0.257492
961.701	0.256723
963.364	1.01476
965.027	0.84323
966.69	1.00084
968.354	0.956613
970.016	0.445714
971.678	0.664053
973.339	0.904837
975	0.328763
976.661	0.528413
978.324	0.375632
979.984	0.455768
981.644	0.53561
983.303	1.40013
984.962	2.1078
986.621	1.70643
988.282	1.59099
989.94	0.965742
991.598	0.561512
993.256	0.378451
994.913	0.416435
996.57	0.366248
998.227	0.779137
999.884	1.52186
1001.54	1.14016
1003.2	0.978597
1004.85	0.926893
1006.51	0.52354
1008.16	0.120887
1009.82	0.816314
1011.47	1.05071
1013.12	0.934613
1014.78	0.687629
1016.43	0.550782
1018.08	0.852194
1019.74	1.02289
1021.39	0.822807
1023.04	0.449085
1024.69	0.90691
1026.34	0.7315
1028	0.381371
1029.65	1.05752
1031.3	1.20801
1032.95	0.941996
1034.6	0.500066
1036.25	1.08208
1037.9	0.899921
1039.55	1.3492
1041.19	1.21117
1042.84	1.63984
1044.49	1.63532
1046.14	1.26362
1047.79	1.00262
1049.43	0.960493
1051.08	1.20199
1052.73	0.988195
1054.37	1.05718
1056.02	0.47416
1057.66	0.564542
1059.31	0.415327
1060.95	0.156753
1062.6	0.506284
1064.24	0.767949
1065.88	-0.0584373
1067.53	0.331632
1069.17	0.785709
1070.81	0.47871
1072.46	1.23547
1074.1	0.625101
1075.74	0.49337
1077.38	0.18948
1079.02	0.428967
1080.66	0.40896
1082.3	0.0637074
1083.94	0.151351
1085.58	1.08287
1087.22	0.560016
1088.86	0.317212
1090.5	0.635646
1092.14	0.887513
1093.78	0.317754
1095.42	0.180752
1097.05	0.777671
1098.69	0.319485
1100.33	0.487864
1101.97	0.528794
1103.6	0.442345
1105.24	0.357201
1106.87	1.0039
1108.51	0.209347
1110.15	0.338579
1111.78	1.02507
1113.41	-0.0521536
1115.05	0.996017
1116.68	0.840818
1118.31	0.171436
1119.95	0.55334
1121.58	0.186327
1123.21	0.890811
1124.85	0.269228
1126.48	0.718315
1128.11	1.08241
1129.74	0.912574
1131.37	0.486803
1133	0.788242
1134.63	0.40549
1136.26	0.406941
1137.89	0.129633
1139.52	0.214493
1141.15	0.170233
1142.78	0.146874
1144.41	0.187629
1146.04	0.228983
1147.66	0.718733
1149.29	0.0585623
1150.92	-0.281307
1152.55	-0.131213
1154.17	0.252682
1155.8	-0.151484
1157.43	0.210416
1159.05	0.295918
1160.68	0.339642
1162.3	0.0867357
1163.93	0.302559
1165.55	-0.118988
1167.17	0.267197
1168.8	0.0783491
1170.42	-0.367022
1172.05	-0.0489826
1173.67	0.18217
1175.29	-0.0973434
1176.91	0.195456
1178.54	0.0643244
1180.16	-0.235316
1181.78	0.0373993
1183.4	-0.323838
1185.02	-0.367664
1186.64	0.896933
1188.26	0.744453
1189.88	0.126602
1191.5	-0.281146
1193.12	0.151768
1194.74	-0.278083
1196.36	0.509299
1197.97	0.290383
1199.59	0.533737
1201.21	0.235599
1202.83	0.0657177
1204.44	0.482786
1206.06	0.00443459
1207.68	0.445419
1209.29	0.177355
1210.91	0.158917
1212.52	0.326584
1214.14	-0.174767
1215.75	0.696765
1217.37	0.982597
1218.98	0.560286
1220.6	0.512372
1222.21	1.33621
1223.82	0.750812
1225.44	0.830382
1227.05	0.683712
1228.66	0.807428
1230.27	1.30444
1231.88	1.38896
1233.49	0.895973
1235.1	0.962299
1236.72	0.533741
1238.33	1.42912
1239.94	0.795383
1241.55	0.533819
1243.16	1.49245
1244.76	1.08501
1246.37	1.48351
1247.98	1.8396
1249.59	1.24309
1251.2	1.32908
1252.8	0.815397
1254.41	0.902303
1256.02	0.886815
1257.63	1.76207
1259.23	1.12831
1260.84	1.34374
1262.44	1.3113
1264.05	1.2996
1265.66	1.70194
1267.26	1.21247
1268.87	1.44746
1270.47	1.84735
1272.07	1.45828
1273.68	1.60725
1275.28	1.09186
1276.88	1.54973
1278.48	1.19862
1280.09	1.84104
1281.69	1.94447
1283.29	1.82035
1284.89	1.09717
1286.49	2.19457
1288.09	2.32108
1289.69	1.80791
1291.3	2.10126
1292.9	2.18787
1294.49	2.17038
1296.09	1.80047
1297.69	2.56454
1299.29	1.73743
1300.89	1.7551
1302.49	1.83328
1304.09	1.80741
1305.68	1.98644
1307.28	2.30833
1308.88	2.23941
1310.47	1.84275
1312.07	1.81579
1313.66	2.21915
1315.26	1.86674
1316.86	2.00592
1318.45	1.65584
1320.05	1.95854
1321.64	1.91357
1323.23	1.50082
1324.83	1.90027
1326.42	1.32288
1328.01	1.71956
1329.61	1.58928
1331.2	2.04741
1332.79	1.4966
1334.38	1.87772
1335.98	1.91697
1337.57	1.51307
1339.16	1.49197
1340.75	2.0131
1342.34	1.40428
1343.93	2.16157
1345.52	1.51061
1347.11	1.96413
1348.7	1.57707
1350.29	1.47338
1351.87	1.13237
1353.46	0.933637
1355.05	1.23598
1356.64	1.43862
1358.23	0.781754
1359.81	1.58217
1361.4	1.16332
1362.99	1.10314
1364.57	1.0028
1366.16	1.12197
1367.74	1.1621
1369.33	0.626085
1370.91	1.02706
1372.5	1.01133
1374.08	1.5339
1375.67	0.524992
1377.25	0.889144
1378.83	1.47173
1380.42	1.25738
1382	1.06172
1383.58	1.5609
1385.16	1.14435
1386.75	1.48267
1388.33	1.00664
1389.91	1.50427
1391.49	1.01028
1393.07	1.6481
1394.65	0.897661
1396.23	1.11902
1397.81	0.88365
1399.39	0.865468
1400.97	1.20289
1402.55	0.905956
1404.13	0.58952
1405.7	1.16368
1407.28	0.927772
1408.86	1.22632
1410.44	1.16964
1412.01	0.718027
1413.59	0.700443
1415.17	1.31342
1416.74	0.682573
1418.32	0.781286
1419.89	1.07716
1421.47	1.01933
1423.05	0.903957
1424.62	1.69555
1426.19	1.13027
1427.77	1.41185
1429.34	1.43731
1430.92	1.73743
1432.49	1.80018
1434.06	1.86191
1435.63	2.61146
1437.2	1.90585
1438.78	2.20382
1440.35	1.69691
1441.92	2.40952
1443.49	2.27777
1445.06	2.36261
1446.63	1.9366
1448.2	2.41491
1449.77	2.44142
1451.34	1.91788
1452.91	2.57467
1454.48	2.56333
1456.05	1.80427
1457.62	2.30375
1459.18	2.86108
1460.75	2.19644
1462.32	1.86456
1463.89	2.12121
1465.45	1.39373
1467.02	1.82565
1468.59	0.843857
1470.15	1.43377
1471.72	0.925708
1473.28	0.889633
1474.85	1.6779
1476.41	0.760543
1477.98	1.01979
1479.54	1.43573
1481.11	1.22427
1482.67	1.11076
1484.23	0.389752
1485.8	1.02039
1487.36	0.729541
1488.92	1.25992
1490.48	0.672737
1492.05	1.12055
1493.61	0.667016
1495.17	0.661501
1496.73	0.596537
1498.29	1.19311
1499.85	0.680885
1501.41	0.520294
1502.97	1.02049
1504.53	0.764929
1506.09	0.684309
1507.65	0.738657
1509.2	0.444202
1510.76	0.187963
1512.32	0.297719
1513.88	0.406852
1515.44	0.246732
1516.99	0.817061
1518.55	0.236201
1520.1	0.634098
1521.66	0.610359
1523.22	0.567274
1524.77	1.01994
1526.33	0.593459
1527.88	0.70039
1529.44	0.977632
1530.99	0.950246
1532.55	0.487306
1534.1	0.708114
1535.65	0.683435
1537.21	0.659694
1538.76	0.674388
1540.31	0.670553
1541.86	0.290051
1543.42	0.230135
1544.97	1.27944
1546.52	0.898978
1548.07	0.800568
1549.62	0.533633
1551.17	0.922764
1552.72	1.38641
1554.27	1.02775
1555.82	1.00713
1557.37	0.838855
1558.92	1.43754
1560.47	1.32884
1562.02	1.35229
1563.57	1.5634
1565.11	1.40194
1566.66	1.85636
1568.21	1.78809
1569.75	1.30876
1571.3	2.229
1572.85	2.10365
1574.39	1.99679
1575.94	1.32991
1577.49	1.46593
1579.03	1.90107
1580.58	2.28089
1582.12	1.76519
1583.67	1.54895
1585.21	1.38935
1586.75	1.97794
1588.3	1.78159
1589.84	1.19192
1591.38	2.08016
1592.93	2.03229
1594.47	1.62821
1596.01	1.86093
1597.55	2.3191
1599.09	2.19703
1600.63	2.00053
1602.18	2.47997
1603.72	2.49043
1605.26	1.76751
1606.8	1.77564
1608.34	1.6503
1609.87	2.25572
1611.41	1.33665
1612.95	1.69346
1614.49	1.72954
1616.03	1.40876
1617.57	1.70737
1619.11	2.26904
1620.64	1.57697
1622.18	1.31726
1623.72	1.43285
1625.25	1.36126
1626.79	1.58842
1628.32	1.57103
1629.86	1.9824
1631.4	1.71948
1632.93	1.60588
1634.47	2.23936
1636	1.94008
1637.53	1.73522
1639.07	2.22095
1640.6	2.09135
1642.14	2.42699
1643.67	1.64399
1645.2	2.34939
1646.73	2.2905
1648.27	2.65873
1649.8	2.52546
1651.33	2.57894
1652.86	2.57799
1654.39	2.98611
1655.92	2.28255
1657.45	2.33907
1658.98	2.154
1660.51	2.22697
1662.04	2.1319
1663.57	2.44248
1665.1	2.2348
1666.63	2.34153
1668.16	2.11721
1669.69	1.83934
1671.21	1.98696
1672.74	1.74874
1674.27	1.80576
1675.79	1.95458
1677.32	1.66084
1678.85	2.10212
1680.37	1.8984
1681.9	1.41854
1683.42	1.91215
1684.95	1.04726
1686.47	1.0457
1688	0.787939
1689.52	1.08037
1691.05	1.06146
1692.57	0.896243
1694.1	0.694538
1695.62	0.620856
1697.14	0.090229
1698.66	0.801672
1700.19	0.87312
1701.71	0.633956
1703.23	0.449282
1704.75	0.282609
1706.27	0.388723
1707.79	0.421688
1709.32	0.617979
1710.83	0.596223
1712.35	0.320797
1713.88	0.353959
1715.39	0.133682
1716.91	0.492518
1718.43	0.760272
1719.95	0.413547
1721.47	0.428388
1722.99	0.642002
1724.5	0.135525
1726.02	0.297016
1727.54	0.495502
1729.06	-0.00708485
1730.57	0.622499
1732.09	-0.0179691
1733.61	0.21139
1735.12	0.121329
1736.64	0.165248
1738.15	0.172342
1739.67	0.514196
1741.18	0.0720282
1742.7	-0.0538769
1744.21	-0.162295
1745.72	0.235587
1747.24	0.510973
1748.75	-0.0384378
1750.26	0.154584
1751.78	0.401869
1753.29	0.357929
1754.8	0.243383
1756.31	-0.05863
1757.82	0.0600834
1759.34	0.258113
1760.85	0.140982
1762.36	0.0558538
1763.87	0.121332
1765.38	0.0431795
1766.89	0.241446
1768.4	0.166171
1769.91	-0.0756855
1771.41	0.110139
1772.92	-0.0519657
1774.43	-0.0819244
1775.94	0.161387
1777.45	0.0368204
1778.96	0.10745
1780.46	0.0457592
1781.97	0.0686455
1783.48	0.0256681
1784.98	0.483315
1786.49	-0.156814
1788	0.178034
1789.5	-0.0196085
1791.01	0.190311
1792.51	-0.0770817
1794.01	-0.27719
1795.52	0.047699
1797.02	0.142111
1798.53	0.395888
1800.03	-0.0550976
1801.54	-0.207175
1803.04	0.199906
1804.54	0.169532
1806.04	0.311057
1807.54	0.178012
1809.05	0.15861
1810.55	-0.0536175
1812.05	-0.230219
1813.55	-0.365336
1815.05	0.0056715
1816.55	0.217101
1818.05	0.0639048
1819.55	-0.00970078
1821.05	0.0657978
1822.55	-0.122184
1824.05	0.17237
1825.55	0.388085
1827.05	-0.0287266
1828.55	0.114053
1830.04	0.256816
1831.54	0.0237198
1833.04	0.180665
1834.54	0.247003
1836.03	0.118786
1837.53	0.155354
1839.03	0.0493698
1840.52	-0.24298
1842.02	0.106393
1843.51	0.042016
1845.01	0.0410147
1846.5	0.212746
1848	-0.0981297
1849.49	-0.136711
1850.99	-0.0685215
1852.48	-0.205703
1853.97	-0.0103893
1855.47	0.0384641
1856.96	-0.155912
1858.45	0.00733948
1859.94	0.0108795
1861.44	0.11769
1862.93	0.0767884
1864.42	0.0252495
1865.91	-0.197383
1867.4	0.118784
1868.89	0.0773039
1870.38	0.187052
1871.87	0.164599
1873.36	0.233539
1874.85	-0.119219
1876.34	0.340394
1877.83	0.219993
1879.32	0.0647998
1880.81	-0.127765
1882.3	0.104187
1882.56	0.164143
1884.06	0.198808
1885.55	-0.0286384
1887.04	0.0917068
1888.54	0.315937
1890.03	0.157353
1891.52	0.173707
1893.02	0.104538
1894.51	-0.154267
1896	-0.0640378
1897.49	0.0964842
1898.99	-0.0213709
1900.48	0.20779
1901.97	0.278947
1903.46	0.157199
1904.95	0.0516601
1906.44	0.327772
1907.93	-0.125747
1909.42	-0.248518
1910.91	-0.162199
1912.4	0.132982
1913.89	0.168368
1915.38	0.307849
1916.86	-0.211823
1918.35	0.152231
1919.84	0.307761
1921.33	-0.195067
1922.82	0.376334
1924.3	0.273079
1925.79	0.188171
1927.28	0.069571
1928.76	0.211213
1930.25	0.335522
1931.74	-0.14699
1933.22	0.148487
1934.71	0.338418
1936.19	0.0941801
1937.67	0.0912495
1939.16	-0.240352
1940.64	0.0158153
1942.13	0.324185
1943.61	0.58144
1945.09	-0.0574036
1946.58	0.0457377
1948.06	0.0107336
1949.54	0.457439
1951.03	0.283
1952.51	-0.0813327
1953.99	0.293705
1955.47	-0.156628
1956.95	-0.0908661
1958.43	0.026885
1959.91	-0.00924492
1961.39	0.0751448
1962.87	0.451007
1964.35	-0.0131187
1965.83	0.122089
1967.31	0.0511737
1968.79	0.150815
1970.27	-0.057848
1971.75	0.177633
1973.22	-0.406522
1974.7	-0.0175996
1976.18	-0.140381
1977.66	0.265148
1979.13	0.295756
1980.61	0.207227
1982.09	-0.0853181
1983.56	0.0129662
1985.04	0.0429163
1986.52	0.174362
1987.99	0.119182
1989.47	0.572375
1990.94	0.0609698
1992.41	0.193701
1993.89	-0.112361
1995.36	0.0725832
1996.84	0.0888343
1998.31	-0.36784
1999.78	-0.149282
2001.26	0.27108
2002.73	0.134026
2004.2	-0.373875
2005.67	0.0120373
2007.15	0.263511
2008.62	-0.141049
2010.09	0.347576
2011.56	0.398844
2013.03	-0.0379701
2014.5	0.416872
2015.97	0.181035
2017.44	0.264084
2018.91	-0.0571127
2020.38	0.26001
2021.85	0.324784
2023.32	0.30587
2024.79	0.220562
2026.25	0.0692563
2027.72	0.170825
2029.19	0.173043
2030.66	0.226748
2032.13	0.163843
2033.59	0.185244
2035.06	0.189834
2036.53	0.110098
2037.99	0.315501
2039.46	0.218132
2040.92	0.00299788
2042.39	0.191641
2043.85	0.229672
2045.32	-0.0680342
2046.78	-0.213864
2048.25	0.381587
2049.71	0.589725
2051.18	0.0889516
2052.64	0.227383
2054.1	0.549776
2055.56	0.162327
2057.03	-0.242976
2058.49	0.514044
2059.95	0.360772
2061.42	0.359522
2062.88	0.00551176
2064.34	0.426678
2065.8	0.377431
2067.26	0.547705
2068.72	0.634369
2070.18	0.536167
2071.64	0.522164
2073.1	0.524861
2074.56	0.0726576
2076.02	0.866268
2077.48	0.346041
2078.94	0.6001
2080.39	0.786355
2081.85	0.281771
2083.31	0.955055
2084.77	0.432541
2086.22	1.05357
2087.68	0.815992
2089.14	0.494221
2090.6	0.575719
2092.05	0.90888
2093.51	0.520094
2094.96	0.785519
2096.42	0.815529
2097.87	0.777897
2099.33	0.890364
2100.78	1.20303
2102.24	1.18125
2103.69	0.659358
2105.15	1.1573
2106.6	1.22235
2108.05	1.20496
2109.51	1.15454
2110.96	1.33698
2112.41	1.13476
2113.86	1.36409
2115.32	1.49171
2116.77	1.2359
2118.22	1.72828
2119.67	1.19219
2121.12	1.47147
2122.57	1.71925
2124.02	1.47089
2125.47	1.90303
2126.92	2.11927
2128.37	1.98628
2129.82	1.80223
2131.27	2.09733
2132.72	2.15955
2134.17	2.40366
2135.62	1.57363
2137.06	1.88621
2138.51	2.28314
2139.96	2.26884
2141.41	2.37194
2142.85	2.32752
2144.3	2.36644
2145.75	2.67034
2147.19	2.64301
2148.64	2.06839
2150.09	2.95043
2151.53	2.72156
2152.97	2.83954
2154.42	2.87377
2155.86	3.0566
2157.31	2.49407
2158.75	2.90967
2160.2	2.5647
2161.64	2.65231
2163.08	2.90774
2164.53	3.16511
2165.97	2.84267
2167.41	2.73562
2168.86	2.92653
2170.3	3.16556
2171.74	3.06969
2173.18	2.87183
2174.62	3.22142
2176.06	2.97157
2177.5	2.78855
2178.94	3.23817
2180.38	3.04045
2181.82	3.09307
2183.26	2.91353
2184.7	3.16667
2186.14	2.72128
2187.58	2.24244
2189.02	2.9118
2190.46	2.43283
2191.89	2.58604
2193.33	2.5387
2194.77	2.29014
2196.21	2.30611
2197.64	2.46973
2199.08	2.28221
2200.52	1.97759
2201.95	2.03853
2203.39	1.86779
2204.83	2.44448
2206.26	1.56322
2207.7	2.40612
2209.13	1.82401
2210.57	1.95334
2212	2.09805
2213.43	2.0104
2214.87	2.03837
2216.3	2.0174
2217.73	1.18925
2219.17	1.58333
2220.6	1.18664
2222.03	1.31767
2223.47	1.77743
2224.9	2.00484
2226.33	2.19731
2227.76	1.82878
2229.19	1.70601
2230.62	1.40227
2232.05	1.18095
2233.49	1.27137
2234.91	1.1334
2236.34	0.898785
2237.77	1.3353
2239.2	0.74516
2240.63	0.989175
2242.06	1.23475
2243.49	1.35098
2244.92	1.23918
2246.35	0.930993
2247.78	1.07803
2249.2	0.782827
2250.63	0.779164
2252.06	0.822756
2253.48	0.816739
2254.91	0.973486
2256.34	0.676755
2257.76	0.934203
2259.19	0.496495
2260.61	0.548119
2262.04	0.780446
2263.46	0.397239
2264.89	0.940149
2266.31	0.881697
2267.74	0.80618
2269.16	0.973871
2270.59	0.343264
2272.01	0.363207
2273.43	0.415586
2274.85	0.810146
2276.28	0.455557
2277.7	0.687673
2279.12	0.381976
2280.54	0.23913
2281.97	0.650671
2283.39	0.426058
2284.81	0.658293
2286.23	0.564379
2287.65	0.617687
2289.07	0.0343962
2290.49	0.235335
2291.91	0.403983
2293.33	0.376614
2294.75	0.152856
2296.17	0.518106
2297.59	0.130332
2299.01	0.21737
2300.42	0.28825
2301.84	0.195457
2303.26	0.660622
2304.68	0.0922627
2306.1	0.377266
2307.51	0.152867
2308.93	0.371634
2310.35	0.261178
2311.76	0.166758
2313.18	0.368425
2314.59	0.307223
2316.01	0.493606
2317.43	0.417237
2318.84	0.0938916
2320.26	0.248293
2321.67	0.335884
2323.08	0.174331
2324.5	0.291335
2325.91	0.670333
2327.33	0.849651
2328.74	1.01161
2330.15	0.613568
2331.56	-0.0137639
2332.98	-0.0801144
2334.39	0.314976
2335.8	0.101418
2337.21	-0.112431
2338.62	-0.0145893
2340.04	0.0986462
2341.45	0.0467443
2342.86	0.240651
2344.27	0.221077
2345.68	0.201764
2347.09	0.149958
2348.5	0.360133
2349.91	0.144385
2351.31	-0.0717235
2352.72	0.0709968
2354.13	-0.081028
2355.54	0.0763741
2356.95	-0.0273452
2358.36	0.601026
2359.76	0.302082
2361.17	0.523201
2362.58	-0.0667939
2363.98	-0.445084
2365.39	-0.288751
2366.8	0.0774922
2368.21	-0.0247016
2369.61	0.229033
2371.02	-0.0806794
2372.42	0.2555
2373.83	0.0769029
2375.23	0.381654
2376.64	0.33184
2378.04	0.458004
2379.44	0.197009
2380.85	0.0634484
2382.25	-0.0229173
2383.66	0.00227594
2385.06	0.0752006
2386.46	0.180253
2387.86	0.062407
2389.26	0.0733523
2390.67	0.0534682
2392.07	0.0345912
2393.47	0.0324864
2394.87	0.0628777
2396.27	0.030241
2397.67	0.411366
2399.07	0.284334
2400.47	0.078352
2401.87	0.508038
2403.27	0.461191
2404.67	0.541047
2406.07	0.254992
2407.47	-0.317267
2408.87	0.474247
2410.27	0.266068
2411.67	-0.242717
2413.07	0.706572
2414.46	0.168155
2415.86	0.3119
2417.26	0.12432
2418.66	0.159134
2420.05	0.0358839
2421.45	0.0867257
2422.84	-0.0211482
2424.24	0.250992
2425.64	0.111245
2427.03	0.415673
2428.43	-0.277779
2429.82	0.170969
2431.22	0.0177312
2432.61	0.57883
2434.01	0.345869
2435.4	0.318283
2436.79	0.130506
2438.19	0.322733
2439.58	0.339066
2440.97	-0.0582762
2442.37	0.480772
2443.76	0.0194902
2445.15	0.288044
2446.54	0.381835
2447.93	0.301106
2449.33	0.236274
2450.72	0.314195
2452.11	0.408347
2453.5	-0.00321865
2454.89	0.108179
2456.28	0.125215
2457.67	-0.0156703
2459.06	-0.204127
2460.45	0.239559
2461.84	0.239683
2463.23	0.460398
2464.62	0.285463
2466	0.110417
2467.39	0.440567
2468.78	0.312809
2470.17	-0.02003
2471.55	0.151473
2472.94	0.511225
2474.33	-0.137647
2475.72	0.110491
2477.1	-0.00356293
2478.49	0.290833
2479.87	0.208299
2481.26	0.110357
2482.65	0.106506
2484.03	0.211834
2485.42	0.378768
2486.8	-0.111773
2488.19	0.00644064
2489.57	0.295166
2490.95	0.380702
2492.34	0.0467911
2493.72	0.397745
2495.1	0.144182
2496.49	0.171118
2497.87	-0.00262022
2499.25	-0.113994
2500.63	0.130242
2502.02	0.157071
2503.4	0.213898
2504.78	-0.06949
2506.16	-0.167897
2507.54	0.133861
2508.92	0.419682
2510.3	0.152418
2511.68	-0.159786
2513.06	0.111706
2514.44	0.138406
2515.82	-0.17092
2517.2	0.0408573
2518.58	0.222269
2519.96	-0.131193
2521.34	-0.194331
2522.72	0.032064
2524.1	0.272701
2525.47	0.16184
2526.85	0.187984
2528.23	-0.333314
2529.6	-0.366412
2530.98	-0.15505
2532.36	0.0879188
2533.74	-0.123852
2535.11	-0.0919423
2536.49	0.015882
2537.86	0.214267
2539.24	0.0624609
2540.61	0.107413
2541.99	0.0154405
2543.36	0.0451508
2544.74	-0.0457921
2546.11	0.106998
2547.49	-0.0577288
2548.86	-0.00940418
2550.23	0.387985
2551.61	-0.29244
2552.98	-0.154169
2554.35	-0.107794
2555.72	-0.244223
2557.09	0.0436616
2558.47	-0.0629582
2559.84	0.27032
2561.21	0.255318
2562.58	0.407565
2563.95	0.166298
2565.32	0.06179
2566.69	0.290879
2568.06	-0.0406785
2569.43	0.173353
2570.8	-0.00666857
2572.17	0.0558467
2573.54	0.391292
2574.91	0.0446763
2576.28	0.107378
2577.65	-0.0877352
2579.02	-0.0707774
2580.39	-0.114759
2581.75	-0.234891
2583.12	0.0843749
2584.49	0.0698709
2585.85	0.0553284
2587.22	0.0560455
2588.59	0.147852
2589.95	-0.0330448
2591.32	-0.259487
2592.68	0.483437
2594.05	0.0741177
2595.42	-0.0783963
2596.78	0.161901
2598.15	-0.264326
2599.51	0.18652
2600.88	0.274292
2602.24	-0.453097
2603.6	-0.18298
2604.97	0.253348
2606.33	0.176653
2607.69	0.114809
2609.06	0.0221548
2610.42	-0.0563436
2611.78	-0.361567
2613.14	0.219937
2614.51	0.379074
2615.87	-0.122551
2617.23	0.0815721
2618.59	0.0461888
2619.95	0.0713787
2621.31	0.0821886
2622.67	0.362373
2624.03	0.134689
2625.39	0.0863175
2626.75	-0.185875
2628.11	0.16788
2629.47	0.148615
2630.83	-0.0790825
2632.19	0.213787
2633.55	0.194215
2634.91	-0.226074
2636.26	0.0512857
2637.62	0.046649
2638.98	0.116094
2640.34	-0.0659409
2641.69	0.225578
2643.05	0.0294108
2644.41	0.542252
2645.76	0.272444
2647.12	-0.0857744
2648.48	0.115696
2649.83	0.0953956
2651.19	-0.160652
2652.54	-0.0933456
2653.9	-0.260716
2655.25	-0.0460734
2656.6	0.0812397
2657.96	0.136157
2659.31	0.11862
2660.67	0.233031
2662.02	-0.0327725
2663.37	0.0517497
2664.73	-0.244009
2666.08	0.291386
2667.43	0.184321
2668.78	0.193845
2670.14	0.0726466
2671.49	0.11201
2672.84	-0.196866
2674.19	-0.098259
2675.54	-0.0573435
2676.89	0.361222
2678.24	0.112891
2679.59	-0.120085
2680.94	0.169809
2682.29	-0.133741
2683.64	-0.0303588
2684.99	0.16089
2686.34	-0.0101104
2687.69	0.166973
2689.04	0.125379
2690.39	0.387217
2691.74	0.0958781
2693.08	0.0355816
2694.43	0.177548
2695.78	-0.0140996
2697.13	0.287473
2698.47	0.0686116
2699.82	0.343554
2701.17	-0.176452
2702.51	0.130198
2703.86	0.22057
2705.21	-0.239454
2706.55	0.213913
2707.9	0.159585
2709.24	-0.0402966
2710.58	0.267628
2711.93	0.212368
2713.27	-0.104611
2714.62	0.203199
2715.96	0.00223541
2717.3	0.426437
2718.65	0.254182
2719.99	0.125179
2721.33	-0.004251
2722.68	0.156982
2724.02	0.0558386
2725.36	0.201774
2726.71	0.376491
2728.05	0.0997438
2729.39	0.463145
2730.73	0.346176
2732.07	0.418339
2733.41	0.272361
2734.75	0.606566
2736.09	0.402751
2737.43	0.359058
2738.77	0.0681138
2740.11	0.256883
2741.45	0.110781
2742.79	-0.0212765
2744.13	0.0205522
2745.47	0.236163
2746.81	-0.0715203
2748.14	0.0563555
2749.48	0.111614
2750.82	0.166997
2752.16	0.28054
2753.49	0.220293
2754.83	0.33409
2756.17	0.129292
2757.5	0.170907
2758.84	0.400908
2760.18	-0.0346127
2761.51	0.427619
2762.85	0.239026
2764.18	0.26776
2765.52	0.0794477
2766.85	-0.224962
2768.19	-0.226283
2769.52	0.234034
2770.86	0.0713043
2772.19	0.283087
2773.52	0.0607991
2774.86	0.0979266
2776.19	0.322206
2777.52	-0.403412
2778.86	0.0661254
2780.19	0.104305
2781.52	-0.115785
2782.85	-0.0341473
2784.19	0.0329895
2785.52	0.272006
2786.85	-0.0906696
2788.18	-0.0946293
2789.51	-0.083631
2790.84	0.114025
2792.17	0.0977349
2793.5	0.124723
2794.83	-0.0340676
2796.16	0.0641232
2797.49	0.061811
2798.82	-0.283641
2800.15	-0.172453
2801.48	-0.0901151
2802.81	-0.335948
2804.13	0.37303
2805.46	0.0554037
2806.79	-0.0773249
2808.12	0.372737
2809.45	-0.0593538
2810.77	-0.306139
2812.1	-0.211493
2813.43	0.281081
2814.75	0.0655794
2816.08	0.191605
2817.41	-0.0641408
2818.73	0.20503
2820.06	-0.00770283
2821.38	0.246904
2822.71	-0.12263
2824.03	0.0316668
2825.36	0.0581341
2826.68	0.466972
2828	0.267288
2829.33	0.365442
2830.65	0.0393057
2831.98	0.0247912
2833.3	0.0951557
2834.62	0.60401
2835.94	0.433031
2837.27	0.544626
2838.59	0.853831
2839.91	1.37482
2841.23	1.16046
2842.55	1.65335
2843.87	1.49657
2845.2	1.69382
2846.52	1.83513
2847.84	2.14639
2849.16	2.06194
2850.48	1.79345
2851.8	2.10398
2853.12	2.20198
2854.44	2.45503
2855.76	2.07205
2857.08	2.46611
2858.39	2.22453
2859.71	2.02535
2861.03	2.03788
2862.35	2.44538
2863.67	2.89469
2864.98	2.72267
2866.3	2.83284
2867.62	2.99963
2868.94	2.85658
2870.25	3.48936
2871.57	3.72742
2872.88	3.64097
2874.2	3.56787
2875.52	4.08531
2876.83	4.02396
2878.15	3.58191
2879.46	4.25105
2880.78	4.24513
2882.09	4.28224
2883.41	3.71653
2884.72	3.89629
2886.03	4.03446
2887.35	3.8779
2888.66	3.66481
2889.97	3.84383
2891.29	3.85361
2892.6	3.96087
2893.91	4.29201
2895.22	4.17517
2896.54	3.93328
2897.85	3.94449
2899.16	3.98469
2900.47	4.03965
2901.78	3.75934
2903.09	4.41644
2904.4	4.31831
2905.71	4.64008
2907.02	5.04635
2908.33	5.15977
2909.64	5.27412
2910.95	5.31912
2912.26	5.35011
2913.57	5.5203
2914.88	5.52102
2916.19	5.70191
2917.5	5.82509
2918.81	6.35289
2920.11	6.78227
2921.42	6.58296
2922.73	6.84644
2924.04	6.94366
2925.34	7.11205
2926.65	7.00154
2927.96	7.32443
2929.26	7.0038
2930.57	7.19981
2931.87	7.1716
2933.18	6.82161
2934.49	7.10061
2935.79	7.22595
2937.1	7.43531
2938.4	7.05793
2939.7	6.73679
2941.01	6.51403
2942.31	6.37601
2943.62	6.30915
2944.92	6.06195
2946.22	5.80184
2947.53	5.71003
2948.83	5.63187
2950.13	5.69247
2951.43	5.49916
2952.74	5.28985
2954.04	5.34514
2955.34	4.89611
2956.64	4.71404
2957.94	4.79997
2959.24	4.45459
2960.54	4.672
2961.84	4.90574
2963.15	4.46714
2964.45	4.84162
2965.75	4.34412
2967.05	4.04124
2968.34	4.14454
2969.64	4.00809
2970.94	4.05431
2972.24	3.63657
2973.54	3.47223
2974.84	3.32186
2976.14	3.4383
2977.43	3.49721
2978.73	3.01941
2980.03	2.86389
2981.33	3.31227
2982.62	2.69082
2983.92	2.87157
2985.22	2.36457
2986.51	2.01375
2987.81	2.74628
2989.11	1.70912
2990.4	1.92285
2991.7	1.81288
2992.99	1.64577
2994.29	2.06769
2995.58	1.39275
2996.88	1.40562
2998.17	1.61475
2999.46	1.37505
3000.76	1.29025
3002.05	0.687408
3003.34	1.24832
3004.64	1.02451
3005.93	0.926631
3007.22	0.884267
3008.52	1.05106
3009.81	0.853314
3011.1	0.683111
3012.39	0.847852
3013.68	0.482228
3014.97	0.64722
3016.27	0.352881
3017.56	0.602499
3018.85	0.462668
3020.14	0.350851
3021.43	0.210979
3022.72	0.209456
3024.01	0.387499
3025.3	0.0377603
3026.59	0.297906
3027.88	0.627139
3029.16	0.334655
3030.45	0.292576
3031.74	0.224184
3033.03	0.653713
3034.32	0.255182
3035.6	0.339288
3036.89	0.270514
3038.18	0.282945
3039.47	0.101072
3040.75	0.275635
3042.04	0.188177
3043.33	0.525793
3044.61	0.370508
3045.9	0.613544
3047.18	0.502897
3048.47	0.531019
3049.75	0.451824
3051.04	0.797076
3052.32	0.542614
3053.61	0.533776
3054.89	0.333362
3056.18	0.336703
3057.46	0.67988
3058.74	0.654136
3060.03	0.42395
3061.31	0.452906
3062.59	0.251466
3063.88	0.418489
3065.16	0.464425
3066.44	0.294065
3067.72	0.437257
3069	0.512834
3070.29	0.0713601
3071.57	0.377141
3072.85	0.0154829
3074.13	0.19672
3075.41	0.29549
3076.69	0.0408082
3077.97	0.316085
3079.25	0.37498
3080.53	-0.0531855
3081.81	-0.181536
3083.09	-0.0918226
3084.37	-0.313604
3085.65	0.0481725
3086.93	0.165344
3088.21	0.146187
3089.49	-0.172138
3090.76	-0.151508
3092.04	0.357392
3093.32	-0.205309
3094.6	-0.14373
3095.87	0.257012
3097.15	-0.00656223
3098.43	-0.0125732
3099.7	-0.167744
3100.98	-0.038435
3102.26	0.0502334
3103.53	0.0307837
3104.81	0.255416
3106.08	0.0746088
3107.36	-0.0918474
3108.63	0.0808959
3109.91	0.038013
3111.18	-0.0717635
3112.46	0.252476
3113.73	-0.140874
3115	0.0483584
3116.28	0.413626
3117.55	0.167962
3118.83	-0.0922432
3120.1	0.121324
3121.37	0.130657
3122.64	0.491827
3123.92	0.0804086
3125.19	0.319423
3126.46	-0.253411
3127.73	0.189336
3129	0.0777164
3130.27	-0.0470719
3131.55	0.368989
3132.82	0.379286
3134.09	0.402751
3135.36	0.236733
3136.63	0.191846
3137.9	0.281393
3139.17	0.262725
3140.44	0.270851
3141.71	0.305925
3142.98	0.274014
3144.24	0.336537
3145.51	0.171456
3146.78	0.543394
3148.05	0.272371
3149.32	0.149472
