200.533	0.266346
202.348	0.286656
204.162	0.30771
205.976	0.159071
207.792	0.132193
209.605	-0.162519
211.418	-0.0449972
213.23	-0.219951
215.044	0.598866
216.856	0.179869
218.667	0.24579
220.478	-0.220478
222.289	-0.129306
224.102	0.470014
225.912	0.319921
227.721	0.314818
229.531	0.140286
231.34	-0.637974
233.148	0.103927
234.956	-0.36031
236.766	0.52648
238.574	-0.248667
240.381	-0.371332
242.188	0.0619774
243.994	0.0139799
245.801	0.279503
247.606	0.109353
249.412	0.564848
251.217	0.390101
253.024	0.0202217
254.828	0.276483
256.632	0.532102
258.436	0.209677
260.239	-0.424563
262.042	0.412113
263.845	0.334466
265.647	0.570738
267.449	0.228845
269.25	-0.282269
271.052	0.580009
272.852	0.260052
274.653	-0.0369334
276.453	0.026473
278.253	0.208908
280.052	0.461877
281.852	0.111217
283.65	0.697511
285.449	0.416695
287.247	0.807785
289.044	-0.264475
290.842	0.342537
292.639	0.590419
294.436	0.456389
296.232	0.443108
298.028	0.669582
299.821	0.227242
301.617	0.620933
303.412	-0.0368814
305.206	0.760604
307	0.769427
308.794	0.325123
310.588	0.262869
312.381	-0.0366516
314.172	0.355655
315.964	0.058701
317.756	0.263072
319.548	0.611576
321.34	0.269998
323.131	0.19093
324.921	0.279075
326.71	0.72551
328.5	0.622761
330.29	0.447605
332.079	0.247397
333.868	0.380676
335.654	0.48843
337.443	0.546572
339.231	0.459521
341.018	0.0843554
342.804	0.139131
344.591	0.0743403
346.377	0.0338168
348.163	0.566849
349.947	0.359915
351.733	0.200791
353.518	0.327625
355.303	0.262729
357.085	-0.0415587
358.869	0.439851
360.653	0.181556
362.435	0.327441
364.218	0.21097
366.001	0.0466223
367.781	-0.307903
369.563	-0.448981
371.345	0.191211
373.124	0.285318
374.905	0.0953474
376.686	-0.0941601
378.464	0.0472064
380.244	-0.023078
382.022	0.59014
383.801	0.262598
385.58	0.242002
387.357	0.0108309
389.135	0.297407
390.911	-0.354897
392.689	0.144245
394.466	0.103636
396.241	0.110238
398.018	-0.0709834
399.792	0.193883
401.568	0.247048
403.341	0.62855
405.117	0.116978
406.889	0.520774
408.664	0.266597
410.436	-0.0346713
412.21	0.368251
413.981	0.395919
415.755	0.377195
417.525	-0.0632901
419.298	0.0598197
421.068	0.136182
422.84	0.376699
424.609	0.217634
426.38	-0.200363
428.149	0.17922
429.919	0.0420027
431.688	-0.0952063
433.455	0.448439
435.225	0.405595
436.992	0.292315
438.76	0.178511
440.527	0.650264
442.293	0.369599
444.06	0.275105
445.826	0.273063
447.593	-0.291551
449.357	-0.200758
451.122	0.0768461
452.888	0.58764
454.651	-0.0451035
456.415	0.0922322
458.18	0.0196581
459.942	0.179956
461.705	-0.0780182
463.469	-0.404285
465.23	0.107805
466.991	0.180367
468.752	0.440876
470.515	0.191382
472.275	0.291084
474.035	0.367054
475.797	0.651394
477.556	0.235362
479.315	0.376998
481.073	-0.250725
482.834	0.705519
484.592	-0.0142865
486.349	-0.127199
488.106	-0.262015
489.863	0.444124
491.622	0.475171
493.378	0.600233
495.134	0.398266
496.889	0.149043
498.645	0.0163107
500.401	-0.28114
502.156	0.171537
503.91	0.530332
505.664	0.0661106
507.417	0.47047
509.171	0.309435
510.923	0.288306
512.678	0.313075
514.43	0.501448
516.182	0.3594
517.933	0.145992
519.684	0.637234
521.435	0.446101
523.186	0.419199
524.936	0.673827
526.686	0.247902
528.435	0.103804
530.184	0.100386
531.933	0.635362
533.682	0.115814
535.43	0.672019
537.18	0.361612
538.927	0.0974479
540.674	0.462619
542.421	0.220793
544.167	0.0723386
545.913	0.342463
547.659	0.728128
549.403	0.32498
551.148	0.640709
552.893	-0.0386682
554.637	0.0922418
556.381	0.0846024
558.125	0.0542173
559.868	0.0933795
561.611	0.201952
563.354	0.517798
565.097	0.53485
566.839	0.0240908
568.581	0.363952
570.322	0.451884
572.063	0.403185
573.802	0.0346327
575.542	-0.172039
577.283	-0.194025
579.022	0.358819
580.762	0.200737
582.501	-0.417018
584.24	0.343688
585.976	0.391302
587.714	0.345997
589.452	0.115729
591.19	-0.000190258
592.927	-0.0704513
594.663	-0.255836
596.398	-0.00403738
598.134	0.385785
599.87	0.0621443
601.605	0.0600061
603.338	-0.104017
605.073	0.167829
606.808	0.185751
608.542	-0.50878
610.274	-0.00916529
612.007	0.237932
613.74	-0.179493
615.473	-0.137724
617.204	-0.30205
618.936	0.0601206
620.668	0.100735
622.397	0.094676
624.128	-0.0491319
625.859	0.446895
627.588	-0.335315
629.318	0.139732
631.048	0.547816
632.775	0.181589
634.505	0.0899191
636.233	0.523
637.96	-0.0495696
639.688	-0.0761809
641.416	0.419721
643.142	0.320632
644.869	0.084218
646.594	-0.310707
648.32	-0.0217748
650.045	0.337272
651.771	0.267335
653.496	0.268444
655.219	0.385741
656.944	0.596025
658.667	0.123587
660.391	-0.418614
662.113	0.544449
663.837	0.273141
665.558	-0.160256
667.281	0.433834
669.002	0.249997
670.724	0.730101
672.444	0.205037
674.166	-0.20433
675.885	0.326914
677.606	-0.0577321
679.325	0.223015
681.045	0.365657
682.763	0.00106287
684.483	0.624371
686.2	0.901314
687.917	0.232862
689.636	0.623039
691.352	0.667192
693.07	1.17156
694.786	0.615785
696.501	0.750259
698.219	0.423355
699.933	0.671033
701.65	0.779611
703.364	0.634546
705.078	0.764749
706.793	0.825514
708.506	0.771229
710.219	0.579277
711.934	0.593402
713.646	1.22483
715.358	0.849532
717.071	0.657518
718.782	0.876523
720.493	0.890172
722.204	0.74453
723.916	0.530916
725.626	0.658576
727.336	0.513258
729.045	0.889798
730.756	0.403851
732.464	1.11888
734.173	1.22149
735.881	1.14314
737.59	0.997499
739.297	0.875239
741.004	1.02443
742.711	1.19686
744.417	0.942412
746.125	0.801807
747.831	1.13478
749.537	0.838853
751.242	0.993795
752.946	1.89202
754.651	0.901835
756.357	1.26257
758.061	1.53476
759.764	1.17755
761.467	1.36185
763.17	1.20836
764.872	0.964104
766.575	1.21574
768.276	0.539419
769.978	0.991655
771.679	1.12596
773.382	0.92003
775.083	1.34691
776.783	0.982836
778.483	1.29807
780.182	1.77287
781.882	1.84159
783.581	1.18623
785.279	1.61621
786.978	1.41058
788.676	1.31573
790.373	1.44465
792.071	1.41312
793.768	1.44818
795.464	1.46043
797.161	1.51846
798.857	1.32997
800.552	1.50322
802.248	0.912469
803.941	1.69451
805.636	1.64403
807.33	1.27839
809.024	1.56346
810.718	1.57798
812.412	1.47965
814.105	1.73951
815.798	1.08094
817.49	1.47468
819.183	1.55495
820.873	1.36727
822.564	1.51487
824.256	1.72976
825.947	1.54441
827.637	1.13819
829.328	1.06828
831.016	1.69104
832.705	1.40281
834.395	1.45029
836.084	0.918624
837.772	1.32354
839.459	1.88429
841.147	0.925324
842.835	1.52881
844.522	0.925483
846.209	1.75293
847.894	0.949981
849.581	0.998226
851.267	0.555694
852.953	1.16719
854.637	1.06254
856.322	1.1597
858.007	0.784021
859.689	1.28409
861.374	1.26562
863.058	1.31348
864.739	0.954739
866.423	0.888153
868.106	0.888715
869.787	1.06938
871.469	1.02429
873.151	1.45281
874.831	0.392178
876.512	0.82068
878.193	0.707625
879.872	0.955625
881.553	0.526149
883.231	1.33776
884.911	0.952075
886.591	0.610597
888.268	0.764548
889.947	1.05252
891.623	1.45175
893.302	0.858542
894.978	0.535433
896.656	0.841541
898.331	1.21368
900.008	0.844107
901.683	1.0797
903.359	1.35903
905.033	0.654269
906.709	0.821883
908.383	0.677465
910.058	0.533997
911.731	0.903111
913.405	1.02752
915.078	0.907721
916.752	0.921258
918.423	0.823925
920.096	1.03681
921.768	0.89582
923.438	0.711695
925.111	0.948696
926.781	0.502353
928.452	1.00662
930.122	0.584711
931.791	1.2004
933.462	1.044
935.13	0.645138
936.799	0.489282
938.468	0.510489
940.136	0.686947
941.803	0.974619
943.472	0.976083
945.139	0.712548
946.805	0.823334
948.473	0.623751
950.139	0.974577
951.804	0.816901
953.471	0.835834
955.136	0.679521
956.801	0.878056
958.465	0.814335
960.131	0.752574
961.794	0.846436
963.458	0.542402
965.12	0.612748
966.785	0.349359
968.447	0.548573
970.109	0.436574
971.771	0.235553
973.432	0.322433
975.095	1.00738
976.756	0.101356
978.417	0.0145016
980.077	0.425917
981.737	0.837261
983.396	0.151928
985.057	0.749146
986.716	0.791378
988.375	0.588914
990.033	1.24811
991.691	-0.149149
993.349	0.619571
995.006	0.747324
996.663	0.875011
998.32	0.561556
999.976	0.49068
1001.63	0.353535
1003.29	0.722409
1004.95	0.51878
1006.6	1.06248
1008.26	0.749112
1009.91	0.0414381
1011.56	0.51917
1013.22	0.25149
1014.87	0.312939
1016.53	0.330816
1018.18	0.436551
1019.83	-0.0477433
1021.48	0.124915
1023.14	0.0359268
1024.79	0.450258
1026.44	0.47154
1028.09	0.29617
1029.74	0.906833
1031.39	0.33696
1033.04	0.29029
1034.69	0.242519
1036.34	0.673486
1037.99	0.297215
1039.64	0.596252
1041.29	0.221061
1042.94	0.716751
1044.58	0.278945
1046.23	0.320659
1047.88	0.407099
1049.52	0.212347
1051.17	-0.003304
1052.82	-0.240222
1054.46	0.153154
1056.11	0.220673
1057.75	0.570623
1059.4	0.0723772
1061.04	0.465089
1062.69	0.531105
1064.33	-0.164556
1065.98	0.595785
1067.62	0.485665
1069.26	0.396641
1070.9	0.198658
1072.55	0.326353
1074.19	0.0854311
1075.83	0.344268
1077.47	0.690654
1079.11	0.864365
1080.76	0.323021
1082.4	0.0418715
1084.04	0.150414
1085.68	0.409526
1087.32	0.710338
1088.95	0.381371
1090.59	0.679061
1092.23	1.04023
1093.87	0.385394
1095.51	0.206574
1097.15	0.244216
1098.78	-0.428058
1100.42	-0.108094
1102.06	0.384959
1103.69	0.0399442
1105.33	-0.0244431
1106.97	0.212651
1108.6	-0.174179
1110.24	0.599392
1111.87	0.511663
1113.51	0.293963
1115.14	-0.181951
1116.77	0.350622
1118.41	0.13225
1120.04	0.107451
1121.67	0.318891
1123.31	0.916108
1124.94	0.465246
1126.57	0.378897
1128.2	0.506979
1129.83	0.165137
1131.47	0.208587
1133.1	0.316356
1134.72	0.530874
1136.36	0.0823259
1137.98	0.402438
1139.62	-0.0901508
1141.24	0.0574713
1142.87	0.289961
1144.5	0.692939
1146.13	0.285968
1147.76	0.0291624
1149.38	-0.269512
1151.01	0.199062
1152.64	0.11374
1154.27	0.198525
1155.89	0.048872
1157.52	0.0694356
1159.14	0.34547
1160.77	0.55818
1162.39	0.303865
1164.02	0.114067
1165.64	0.0946941
1167.27	0.50036
1168.89	0.267397
1170.51	-0.136701
1172.14	0.0530257
1173.76	0.220109
1175.38	-0.059401
1177	-0.529603
1178.63	0.123687
1180.25	0.268492
1181.87	-0.390081
1183.49	0.453562
1185.11	0.155275
1186.73	-0.0799742
1188.35	0.27475
1189.97	0.374523
1191.59	-0.137766
1193.21	0.0229807
1194.83	0.728575
1196.45	0.404975
1198.07	-0.105486
1199.68	0.327549
1201.3	0.00920153
1202.92	0.298656
1204.53	0.360036
1206.15	-0.0778813
1207.77	0.736933
1209.38	0.237575
1211	0.655427
1212.62	0.425487
1214.23	0.381698
1215.84	0.398846
1217.46	0.705912
1219.07	0.263577
1220.69	0.341036
1222.3	0.543257
1223.91	0.704569
1225.53	0.121374
1227.14	0.615968
1228.75	0.842175
1230.36	0.200758
1231.97	0.511383
1233.59	0.657408
1235.2	0.845644
1236.81	0.91076
1238.42	0.790583
1240.03	0.236572
1241.64	0.882075
1243.25	1.25868
1244.85	1.1589
1246.46	1.22386
1248.07	0.3569
1249.68	0.730946
1251.29	1.18743
1252.9	1.66466
1254.5	0.570446
1256.11	0.552597
1257.72	0.825241
1259.32	1.01606
1260.93	0.855747
1262.54	1.10981
1264.14	1.36407
1265.75	0.582028
1267.35	0.918335
1268.96	1.06751
1270.56	0.739049
1272.16	1.13549
1273.77	1.59331
1275.37	1.24181
1276.97	1.42854
1278.57	0.910222
1280.18	0.57821
1281.78	1.40526
1283.38	0.680145
1284.98	0.741822
1286.58	0.866116
1288.18	0.94976
1289.78	0.848048
1291.38	0.932685
1292.99	0.831269
1294.58	1.1838
1296.18	0.729771
1297.78	1.0387
1299.38	1.11916
1300.98	1.0953
1302.58	1.02936
1304.17	0.921694
1305.77	0.813703
1307.37	1.54756
1308.97	1.19237
1310.56	1.04287
1312.16	1.07822
1313.76	1.03225
1315.35	0.741913
1316.95	1.33063
1318.54	1.08241
1320.14	1.05869
1321.73	0.912114
1323.32	0.825726
1324.92	0.86023
1326.51	1.19813
1328.1	1.47395
1329.7	1.18261
1331.29	1.37853
1332.88	1.65658
1334.47	1.20911
1336.07	1.22751
1337.66	1.06476
1339.25	0.800907
1340.84	1.30155
1342.43	1.23631
1344.02	0.86824
1345.61	0.982056
1347.2	0.794988
1348.79	1.2505
1350.37	0.806446
1351.96	1.32487
1353.55	0.984653
1355.14	1.00537
1356.73	0.806524
1358.31	0.50759
1359.9	0.707408
1361.49	0.48717
1363.07	0.605695
1364.66	1.00294
1366.25	0.742431
1367.83	1.02045
1369.42	1.06025
1371	0.961777
1372.59	0.526076
1374.17	0.867219
1375.75	0.810871
1377.34	0.973467
1378.92	0.817299
1380.5	0.779791
1382.09	0.442979
1383.67	0.622483
1385.25	0.880659
1386.83	0.562144
1388.42	1.07806
1390	0.978692
1391.58	0.939589
1393.16	0.960595
1394.74	0.684358
1396.32	1.28056
1397.9	0.0522208
1399.48	0.270554
1401.06	0.705907
1402.64	0.526796
1404.21	0.446789
1405.79	0.426546
1407.37	0.663852
1408.95	0.842302
1410.53	0.665459
1412.1	0.745377
1413.68	1.0222
1415.26	0.469459
1416.83	0.547715
1418.41	0.980391
1419.98	0.97949
1421.56	0.309925
1423.13	0.66549
1424.71	1.00238
1426.28	0.789044
1427.86	0.910672
1429.43	1.54385
1431	0.601753
1432.58	1.05623
1434.15	0.781926
1435.72	0.900806
1437.29	1.07875
1438.87	1.53234
1440.44	1.22005
1442.01	1.04609
1443.58	0.872642
1445.15	1.3677
1446.72	1.80398
1448.29	1.51313
1449.86	1.94986
1451.43	1.42361
1453	0.740228
1454.57	1.27643
1456.14	1.79317
1457.71	0.971389
1459.27	1.42774
1460.84	1.05626
1462.41	1.4705
1463.98	1.11628
1465.54	0.722311
1467.11	0.544613
1468.67	0.70112
1470.24	0.759982
1471.81	0.760741
1473.37	0.997594
1474.94	0.921163
1476.5	0.747016
1478.07	0.455359
1479.63	0.496962
1481.19	0.283695
1482.76	0.658328
1484.32	0.621284
1485.88	0.525227
1487.45	0.644096
1489.01	0.370408
1490.57	0.917472
1492.13	0.52378
1493.69	0.793324
1495.26	0.280684
1496.82	0.17772
1498.38	0.269467
1499.94	0.128157
1501.5	0.298489
1503.06	0.508038
1504.62	0.291554
1506.17	0.520838
1507.73	0.67189
1509.29	0.570765
1510.85	0.295395
1512.41	0.30917
1513.97	0.861514
1515.52	1.10506
1517.08	0.235036
1518.64	0.307168
1520.19	0.551936
1521.75	0.700646
1523.31	0.485642
1524.86	0.423292
1526.42	0.57011
1527.97	0.734937
1529.52	0.841876
1531.08	0.530816
1532.63	0.0503597
1534.19	1.38958
1535.74	0.721525
1537.29	0.981412
1538.85	1.05253
1540.4	0.991796
1541.95	0.89357
1543.5	0.795464
1545.06	1.22381
1546.61	0.467914
1548.16	1.08307
1549.71	1.00347
1551.26	0.980332
1552.81	0.845408
1554.36	0.935696
1555.91	0.933491
1557.46	0.409958
1559.01	1.213
1560.56	0.692517
1562.11	0.994081
1563.65	1.05393
1565.2	0.908961
1566.75	1.0626
1568.29	1.29075
1569.84	1.57467
1571.39	0.794318
1572.94	1.20841
1574.48	1.11839
1576.03	1.34574
1577.57	1.36792
1579.12	1.05435
1580.66	1.09596
1582.21	1.30624
1583.75	1.14363
1585.3	1.69162
1586.84	1.15602
1588.38	1.21861
1589.93	1.35594
1591.47	1.84869
1593.01	1.18045
1594.55	1.20463
1596.1	1.41623
1597.64	1.21594
1599.18	1.84101
1600.72	0.985206
1602.26	1.29255
1603.8	1.26217
1605.34	1.56941
1606.88	0.936158
1608.42	1.01547
1609.96	0.867606
1611.5	1.52608
1613.04	1.75061
1614.58	1.31703
1616.12	0.846202
1617.65	1.1448
1619.19	0.600884
1620.73	0.71392
1622.27	0.696758
1623.8	1.18562
1625.34	1.09408
1626.87	0.459271
1628.41	1.18965
1629.95	0.852564
1631.48	1.37478
1633.02	1.18636
1634.55	0.961076
1636.09	1.52021
1637.62	1.44546
1639.15	1.59493
1640.69	0.607488
1642.22	0.8685
1643.76	1.2216
1645.29	1.2943
1646.82	1.23607
1648.35	1.32637
1649.88	1.324
1651.42	1.58215
1652.95	1.28456
1654.48	1.43301
1656.01	1.54474
1657.54	1.11901
1659.07	0.785623
1660.6	1.54381
1662.13	1.41205
1663.66	1.66781
1665.19	1.29479
1666.72	1.40247
1668.24	0.920676
1669.77	1.528
1671.3	0.975132
1672.83	1.06809
1674.35	0.958745
1675.88	1.14383
1677.41	1.2362
1678.93	0.831022
1680.46	1.10577
1681.99	0.865185
1683.51	0.91847
1685.04	0.843296
1686.56	1.00687
1688.09	1.11558
1689.61	0.766513
1691.13	1.04048
1692.66	0.692023
1694.18	0.801136
1695.71	0.763762
1697.23	0.470447
1698.75	0.725047
1700.27	0.577548
1701.8	0.739902
1703.32	0.518925
1704.84	0.334315
1706.36	0.49539
1707.88	0.837783
1709.4	0.198742
1710.92	-0.0217547
1712.44	0.175262
1713.96	0.299593
1715.48	0.369452
1717	0.547668
1718.52	-0.0516024
1720.04	-0.0540414
1721.56	0.665316
1723.07	0.194081
1724.59	0.228637
1726.11	0.192006
1727.63	0.606285
1729.14	0.589092
1730.66	0.158308
1732.18	0.212134
1733.69	0.0541101
1735.21	0.380692
1736.72	0.191226
1738.24	0.531983
1739.75	0.299446
1741.27	0.445077
1742.78	0.569791
1744.3	0.25348
1745.81	0.161439
1747.32	0.361384
1748.84	0.460091
1750.35	0.17394
1751.86	0.279968
1753.37	0.184063
1754.89	0.23863
1756.4	0.249534
1757.91	0.072372
1759.42	0.172935
1760.93	0.270903
1762.44	0.318772
1763.95	0.371202
1765.46	0.192935
1766.97	0.234765
1768.48	-0.326415
1769.99	0.138425
1771.5	0.289143
1773.01	-0.267006
1774.52	-0.222995
1776.03	-0.0310225
1777.53	0.513277
1779.04	0.338137
1780.55	0.345966
1782.06	-0.0493517
1783.56	0.134528
1785.07	0.211703
1786.57	0.137491
1788.08	0.195558
1789.59	0.297877
1791.09	-0.173322
1792.6	0.231124
1794.1	0.295302
1795.6	0.181375
1797.11	0.158003
1798.61	0.350637
1800.12	-0.0629125
1801.62	0.207336
1803.12	0.121644
1804.63	0.210919
1806.13	0.273883
1807.63	0.151503
1809.13	0.141135
1810.63	0.447696
1812.14	0.133853
1813.64	0.0223327
1815.14	0.211747
1816.64	0.0371928
1818.14	0.0214233
1819.64	0.118874
1821.14	0.127285
1822.64	0.0739832
1824.14	0.308433
1825.63	0.2022
1827.13	0.142391
1828.63	0.0211797
1830.13	-0.170993
1831.63	-0.075264
1833.12	-0.0843525
1834.62	0.210008
1836.12	0.102855
1837.62	0.108653
1839.11	0.0983982
1840.61	0.0554557
1842.1	0.0598531
1843.6	0.207015
1845.09	0.201814
1846.59	0.226943
1848.08	0.214058
1849.58	0.108673
1851.07	0.245404
1852.57	0.0932488
1854.06	0.274217
1855.55	-0.044579
1857.04	0.0946088
1858.54	0.140691
1860.03	0.12301
1861.52	-0.13622
1863.01	0.361579
1864.5	0.0725217
1866	0.00146818
1867.49	0.0722418
1868.98	0.329634
1870.47	0.00219631
1871.96	0.195062
1873.45	-0.117046
1874.94	-0.183611
1876.43	0.0921926
1877.92	0.241763
1879.41	-0.377087
1880.89	-0.310786
1882.38	0.0578232
1882.48	0.0808482
1883.97	0.0809679
1885.47	0.341961
1886.96	0.201514
1888.46	0.147898
1889.95	0.00745153
1891.44	0.0590692
1892.94	-0.0274019
1894.43	-0.0431252
1895.92	0.220364
1897.41	0.223647
1898.9	0.713939
1900.4	0.00327539
1901.89	0.21351
1903.38	0.0746584
1904.87	0.404294
1906.36	-0.205174
1907.85	0.453632
1909.34	-0.102821
1910.83	0.0705252
1912.32	0.122931
1913.81	0.123666
1915.29	0.297872
1916.78	-0.135004
1918.27	0.211937
1919.76	-0.0307436
1921.25	0.107721
1922.74	-0.0133839
1924.22	0.0392518
1925.71	0.161854
1927.2	0.198605
1928.68	0.131917
1930.17	0.290317
1931.65	0.292356
1933.14	-0.000936031
1934.63	-0.0355997
1936.11	0.170897
1937.59	0.238031
1939.08	0.0628438
1940.56	0.0434699
1942.05	-0.19969
1943.53	-0.0106969
1945.01	0.230443
1946.5	0.23034
1947.98	0.230093
1949.46	0.00540686
1950.94	0.227944
1952.43	-0.118237
1953.91	0.0859141
1955.39	-0.0539598
1956.87	0.0470085
1958.35	-0.00617552
1959.83	0.00978661
1961.31	-0.025353
1962.79	-0.0603285
1964.27	-0.0439925
1965.75	0.0405092
1967.23	-0.406102
1968.71	0.1908
1970.19	-0.204875
1971.67	0.219712
1973.14	0.421747
1974.62	0.163036
1976.1	0.228643
1977.58	0.123949
1979.05	0.155625
1980.53	-0.0338922
1982.01	0.201696
1983.48	0.0120983
1984.96	-0.092576
1986.43	0.260676
1987.91	-0.0814738
1989.38	-0.0672927
1990.86	0.0995922
1992.33	-0.392749
1993.81	-0.0217991
1995.28	0.0958757
1996.76	-0.309951
1998.23	0.280885
1999.7	-0.276968
2001.18	-0.0753732
2002.65	-0.127286
2004.12	0.0904841
2005.59	0.106043
2007.06	0.0209966
2008.54	0.643837
2010.01	0.0885034
2011.48	-0.0286388
2012.95	-0.11205
2014.42	0.0903864
2015.89	-0.0442457
2017.36	0.358811
2018.83	0.340708
2020.3	0.238228
2021.77	-0.0993657
2023.24	0.335701
2024.71	0.317874
2026.17	0.267295
2027.64	0.0331912
2029.11	-0.183173
2030.58	0.0709672
2032.04	0.208388
2033.51	0.0272717
2034.98	0.265848
2036.45	0.386746
2037.91	-0.215181
2039.38	0.241175
2040.84	0.344656
2042.31	0.0448852
2043.77	0.0313411
2045.24	0.354897
2046.7	0.426733
2048.17	0.212493
2049.63	-0.103299
2051.1	0.456735
2052.56	0.0548043
2054.02	0.562319
2055.48	0.377187
2056.95	0.359772
2058.41	0.291259
2059.87	0.50902
2061.33	0.440634
2062.8	0.0698462
2064.26	0.25525
2065.72	0.424438
2067.18	0.375413
2068.64	0.46143
2070.1	0.00902224
2071.56	0.21311
2073.02	0.299295
2074.48	0.0822153
2075.94	0.218525
2077.4	-0.0327263
2078.86	-0.0989919
2080.31	-0.115021
2081.77	0.272679
2083.23	0.440975
2084.69	0.187983
2086.14	0.506608
2087.6	0.101531
2089.06	0.25115
2090.52	0.282894
2091.97	0.516015
2093.43	-0.056603
2094.88	0.411005
2096.34	0.307889
2097.79	0.673429
2099.25	0.268131
2100.7	0.532149
2102.16	-0.0229077
2103.61	-0.0923982
2105.07	0.239526
2106.52	0.255063
2107.97	0.671574
2109.43	0.0376067
2110.88	0.43719
2112.33	0.119106
2113.78	0.100019
2115.24	0.545838
2116.69	0.109162
2118.14	0.553777
2119.59	0.6168
2121.04	0.349246
2122.49	0.464631
2123.94	0.31562
2125.39	0.465541
2126.84	0.233946
2128.29	0.150976
2129.74	0.680291
2131.19	0.810764
2132.64	0.708787
2134.09	0.491078
2135.54	0.737074
2136.98	0.851616
2138.43	0.273274
2139.88	0.522543
2141.33	0.954794
2142.77	0.792827
2144.22	0.3665
2145.67	0.684667
2147.11	0.837329
2148.56	1.23811
2150.01	0.859858
2151.45	0.712738
2152.9	0.448933
2154.34	0.847329
2155.79	0.980266
2157.23	1.11321
2158.67	0.8325
2160.12	0.768017
2161.56	0.9201
2163	0.874605
2164.45	1.06237
2165.89	0.553718
2167.33	1.1408
2168.78	0.996484
2170.22	1.18341
2171.66	0.720193
2173.1	1.10397
2174.54	0.987704
2175.98	0.904309
2177.42	1.5194
2178.86	0.788206
2180.3	1.25477
2181.74	1.14006
2183.18	0.826186
2184.62	0.745252
2186.06	1.03032
2187.5	1.08257
2188.94	1.1515
2190.38	0.870889
2191.82	0.906311
2193.25	0.907941
2194.69	0.90867
2196.13	0.575254
2197.57	0.573514
2199	0.53738
2200.44	0.8329
2201.88	0.8456
2203.31	0.725983
2204.75	0.656981
2206.18	0.555594
2207.62	0.670022
2209.05	0.966396
2210.49	0.682665
2211.92	0.299328
2213.36	0.692887
2214.79	0.491152
2216.22	0.504649
2217.66	0.782826
2219.09	0.748253
2220.52	0.829703
2221.96	0.466215
2223.39	0.49792
2224.82	0.512227
2226.25	0.7393
2227.68	0.685373
2229.11	0.466419
2230.55	0.395045
2231.98	0.176191
2233.41	0.481785
2234.84	0.460176
2236.27	0.194303
2237.7	0.517569
2239.12	0.547976
2240.55	0.367642
2241.98	0.302732
2243.41	0.173396
2244.84	0.419451
2246.27	0.43675
2247.7	0.550873
2249.12	0.109228
2250.55	0.269428
2251.98	0.03758
2253.41	0.228417
2254.83	0.435304
2256.26	0.0420828
2257.68	0.234955
2259.11	-0.154542
2260.54	0.155429
2261.96	0.450876
2263.39	0.439101
2264.81	0.135031
2266.24	0.415748
2267.66	0.273271
2269.08	-0.0163937
2270.51	0.100219
2271.93	-0.157938
2273.35	-0.106888
2274.78	0.123415
2276.2	0.223601
2277.62	0.340246
2279.04	0.163554
2280.47	0.084569
2281.89	0.299059
2283.31	0.350443
2284.73	0.287642
2286.15	0.273913
2287.57	0.374703
2288.99	0.26351
2290.41	0.136158
2291.83	0.155999
2293.25	0.0123935
2294.67	0.0322642
2296.09	-0.38985
2297.51	0.186537
2298.93	0.616
2300.35	-0.0685353
2301.76	0.181123
2303.18	0.185126
2304.6	-0.0734005
2306.02	0.37395
2307.44	0.180717
2308.85	0.217091
2310.27	0.220225
2311.69	0.190198
2313.1	0.209482
2314.52	0.179646
2315.93	0.331383
2317.35	0.187222
2318.76	0.158593
2320.18	0.162783
2321.59	0.463294
2323.01	0.498684
2324.42	0.631531
2325.83	0.449299
2327.25	0.365006
2328.66	0.148429
2330.07	-0.0183878
2331.49	0.177704
2332.9	-0.00418901
2334.31	-0.103166
2335.72	0.127079
2337.13	0.093801
2338.55	0.0928144
2339.96	-0.106082
2341.37	0.351531
2342.78	0.102537
2344.19	0.0506463
2345.6	-0.0501823
2347.01	-0.134326
2348.42	0.174522
2349.83	0.0574131
2351.24	0.430382
2352.65	0.148791
2354.05	-0.00236988
2355.46	0.107135
2356.87	0.0207901
2358.28	0.373769
2359.69	-0.297551
2361.09	0.103835
2362.5	0.16388
2363.91	0.3695
2365.31	-0.234302
2366.72	-0.174081
2368.13	0.193138
2369.53	0.0763931
2370.94	0.0735035
2372.34	-0.282965
2373.75	0.150599
2375.15	0.19773
2376.56	0.0837021
2377.96	0.0495219
2379.37	0.28757
2380.77	0.187008
2382.17	-0.491541
2383.58	0.016119
2384.98	0.0105
2386.38	-0.0747461
2387.79	-0.175215
2389.19	0.0122457
2390.59	0.136439
2391.99	0.133842
2393.39	0.211464
2394.8	0.0668917
2396.2	-0.0453043
2397.6	0.176732
2399	0.128904
2400.4	0.0178776
2401.8	0.0182791
2403.2	0.33634
2404.6	0.209468
2406	0.145607
2407.4	0.112924
2408.79	-0.0946941
2410.19	-0.0486965
2411.59	0.298403
2412.99	0.0439172
2414.39	-0.0987682
2415.78	0.361079
2417.18	0.251863
2418.58	-0.0309372
2419.98	0.0665011
2421.37	0.243114
2422.77	0.292821
2424.16	0.183917
2425.56	0.265176
2426.96	0.204149
2428.35	0.0643859
2429.74	0.0995922
2431.14	-0.182051
2432.53	-0.13049
2433.93	0.0478702
2435.32	0.178013
2436.72	0.132485
2438.11	0.292519
2439.5	0.324579
2440.9	0.149568
2442.29	0.0854368
2443.68	0.0211706
2445.07	-0.0431528
2446.47	0.304704
2447.86	0.287675
2449.25	0.207291
2450.64	0.317129
2452.03	-0.031774
2453.42	-0.332496
2454.81	0.016068
2456.2	0.190975
2457.59	-0.0451894
2458.98	-0.170685
2460.37	-0.0118318
2461.76	-0.0274496
2463.15	0.319974
2464.54	-0.107407
2465.93	0.0181146
2467.32	0.0329695
2468.7	0.237122
2470.09	0.125544
2471.48	0.155659
2472.87	-0.0824943
2474.25	0.419084
2475.64	0.274548
2477.03	0.224299
2478.41	0.142685
2479.8	-0.0485349
2481.18	-0.12958
2482.57	0.165497
2483.95	0.0371327
2485.34	0.268174
2486.72	0.185548
2488.11	0.149211
2489.49	-0.105705
2490.88	-0.142166
2492.26	-0.00722122
2493.65	0.128073
2495.03	-0.0463014
2496.41	-0.0490742
2497.79	-0.00482512
2499.18	0.240775
2500.56	0.19195
2501.94	0.328167
2503.32	0.231896
2504.7	0.181501
2506.09	-0.331441
2507.47	0.0800719
2508.85	-0.0934658
2510.23	-0.204931
2511.61	-0.193038
2512.99	-0.058054
2514.37	-0.0452867
2515.75	-0.215663
2517.13	-0.201776
2518.51	-0.0958285
2519.89	0.0101323
2521.26	0.176925
2522.64	0.0531101
2524.02	-0.0100484
2525.4	0.185532
2526.78	-0.152357
2528.15	0.0583167
2529.53	0.238966
2530.91	0.298857
2532.28	0.192685
2533.66	0.19381
2535.04	0.10427
2536.41	0.0299253
2537.79	0.183054
2539.16	0.138096
2540.54	0.335557
2541.91	-0.0440984
2543.29	0.0318465
2544.66	0.244806
2546.04	-0.117873
2547.41	-0.1309
2548.78	-0.21925
2550.16	-0.0799437
2551.53	0.22607
2552.9	0.167315
2554.27	0.168605
2555.65	-0.0430865
2557.02	0.154505
2558.39	-0.193974
2559.76	0.246188
2561.13	-0.192565
2562.51	0.142102
2563.88	0.0831008
2565.25	0.175933
2566.62	0.117399
2567.99	-0.0168462
2569.36	0.000473976
2570.73	0.184527
2572.1	0.141275
2573.47	0.00712824
2574.84	0.206549
2576.2	-0.0791178
2577.57	0.0748415
2578.94	-0.104894
2580.31	-0.224188
2581.68	0.323441
2583.05	-0.00859165
2584.41	0.20505
2585.78	0.221563
2587.15	-0.337796
2588.51	-0.0179148
2589.88	-0.0313921
2591.24	-0.0146208
2592.61	-0.0738807
2593.98	-0.0124106
2595.34	0.0938349
2596.71	0.290168
2598.07	-0.0134416
2599.44	0.0761604
2600.8	-0.000487804
2602.16	0.391439
2603.53	0.0286684
2604.89	0.0287237
2606.26	-0.0917521
2607.62	0.300365
2608.98	0.118893
2610.34	0.298363
2611.71	-0.125296
2613.07	0.0525255
2614.43	0.154418
2615.79	0.150894
2617.15	-0.0473504
2618.52	-0.304737
2619.88	-0.0374522
2621.24	0.035491
2622.6	0.273044
2623.96	0.0326061
2625.32	0.404301
2626.68	0.0744615
2628.04	-0.195498
2629.4	0.100594
2630.75	0.0836625
2632.11	0.453221
2633.47	0.227997
2634.83	0.107028
2636.19	-0.0730739
2637.55	-0.0602407
2638.9	-0.121417
2640.26	-0.03444
2641.62	-0.0361304
2642.98	0.0066905
2644.33	-0.0242414
2645.69	-0.06991
2647.04	-0.174705
2648.4	-0.0587864
2649.76	-0.105432
2651.11	0.171035
2652.47	0.00615788
2653.82	0.0471573
2655.18	0.249783
2656.53	-0.0158973
2657.88	-0.148735
2659.24	0.245786
2660.59	-0.164005
2661.95	0.318028
2663.3	0.287964
2664.65	-0.0782948
2666	0.0514207
2667.36	0.122348
2668.71	0.120298
2670.06	0.0456791
2671.41	0.204147
2672.76	0.0576816
2674.12	0.202238
2675.47	-0.0158472
2676.82	0.216401
2678.17	-0.20376
2679.52	0.130827
2680.87	0.190492
2682.22	0.221926
2683.57	-0.137387
2684.92	0.185464
2686.27	0.276681
2687.62	0.382409
2688.97	0.255163
2690.31	0.141347
2691.66	0.142533
2693.01	0.0266995
2694.36	-0.104127
2695.71	-0.0175366
2697.05	0.112795
2698.4	0.287275
2699.75	0.289014
2701.09	0.219488
2702.44	-0.0663671
2703.78	0.0974469
2705.13	0.30524
2706.48	-0.066895
2707.82	0.155428
2709.17	0.0728478
2710.51	0.0916262
2711.86	-0.0785818
2713.2	-0.234446
2714.54	0.0892358
2715.89	-0.0231094
2717.23	0.0971112
2718.57	0.260892
2719.92	0.0898609
2721.26	0.325986
2722.6	0.241671
2723.95	0.49183
2725.29	0.392387
2726.63	0.0452781
2727.97	-0.0982213
2729.31	0.194742
2730.65	0.123792
2732	0.372919
2733.34	-0.0471134
2734.68	0.0857906
2736.02	0.189715
2737.36	0.279185
2738.7	0.383185
2740.04	-0.109193
2741.38	-0.00558996
2742.72	0.330198
2744.05	-0.13393
2745.39	0.0411048
2746.73	0.114097
2748.07	0.143371
2749.41	0.21618
2750.75	0.492106
2752.08	0.507035
2753.42	0.261246
2754.76	0.247552
2756.09	0.0601549
2757.43	0.423203
2758.77	0.265091
2760.1	0.613862
2761.44	0.35506
2762.78	-0.0191197
2764.11	0.359342
2765.44	-0.0290494
2766.78	0.218913
2768.11	0.263743
2769.45	0.148705
2770.78	0.293006
2772.12	-0.199149
2773.45	-0.388134
2774.78	0.100488
2776.12	0.0120597
2777.45	0.0391407
2778.78	-0.249857
2780.12	-0.193229
2781.45	0.0932941
2782.78	0.0924721
2784.11	0.450172
2785.44	-0.167211
2786.78	0.290553
2788.11	0.247057
2789.44	-0.0820541
2790.77	0.476398
2792.1	0.162807
2793.43	0.207047
2794.76	0.208431
2796.09	0.181041
2797.42	0.224756
2798.75	0.282371
2800.08	0.168408
2801.4	-0.0312066
2802.73	0.35385
2804.06	0.25383
2805.39	0.0966835
2806.72	0.209805
2808.05	0.293934
2809.37	0.335034
2810.7	0.134661
2812.03	0.190383
2813.35	0.38856
2814.68	0.318094
2816.01	0.220235
2817.33	0.378231
2818.66	0.30982
2819.98	0.198907
2821.31	0.442054
2822.63	0.231259
2823.96	0.388517
2825.28	0.432159
2826.61	0.419158
2827.93	0.264898
2829.25	0.36585
2830.58	0.325519
2831.9	0.172084
2833.23	0.45743
2834.55	0.388701
2835.87	0.44705
2837.19	0.589943
2838.52	0.477867
2839.84	0.521276
2841.16	0.423333
2842.48	0.862816
2843.8	0.567627
2845.12	0.456655
2846.44	0.982014
2847.77	0.98471
2849.08	0.916749
2850.4	0.707259
2851.73	1.03456
2853.05	0.711395
2854.36	0.981553
2855.68	1.2939
2857	0.843298
2858.32	0.873086
2859.64	0.959341
2860.96	1.1443
2862.28	0.947829
2863.59	0.878239
2864.91	1.49992
2866.23	1.51467
2867.55	1.38853
2868.86	1.7562
2870.18	1.65878
2871.5	2.04074
2872.81	1.85866
2874.13	2.00025
2875.44	1.88754
2876.76	1.87275
2878.07	2.02629
2879.39	1.7435
2880.7	1.75635
2882.02	2.20522
2883.33	1.78364
2884.65	1.79818
2885.96	1.91134
2887.28	1.75783
2888.59	1.53396
2889.9	2.09527
2891.21	2.06672
2892.53	2.21998
2893.84	1.82662
2895.15	1.90991
2896.46	1.96561
2897.78	1.99392
2899.09	2.28867
2900.4	2.06621
2901.71	2.27772
2903.02	2.36344
2904.33	2.51915
2905.64	2.40925
2906.95	2.67735
2908.26	2.63822
2909.57	2.7675
2910.88	2.3514
2912.19	2.76096
2913.5	2.77819
2914.81	2.72452
2916.12	2.90773
2917.43	3.21581
2918.73	3.04733
2920.04	2.85085
2921.35	2.89256
2922.66	3.24253
2923.96	3.06211
2925.27	3.38561
2926.58	3.15037
2927.88	3.46032
2929.19	3.7281
2930.5	3.5621
2931.8	3.78718
2933.11	3.71849
2934.41	3.2025
2935.72	3.44132
2937.02	3.47057
2938.33	3.20644
2939.63	3.29181
2940.94	3.098
2942.24	3.12826
2943.54	3.15924
2944.85	2.77165
2946.15	3.04181
2947.45	2.94877
2948.76	2.84149
2950.06	2.70542
2951.36	2.87623
2952.66	2.80779
2953.97	2.61242
2955.27	2.64079
2956.57	2.68363
2957.87	2.5597
2959.17	2.56337
2960.47	2.75083
2961.77	2.71552
2963.07	2.16158
2964.37	2.46286
2965.67	2.25791
2966.97	2.05169
2968.27	2.53333
2969.57	2.3819
2970.87	1.9349
2972.17	2.24752
2973.47	2.34939
2974.77	2.00083
2976.07	1.55313
2977.36	1.89304
2978.66	1.7813
2979.96	1.82333
2981.26	1.86444
2982.55	1.44095
2983.85	1.53814
2985.15	1.41097
2986.44	1.62197
2987.74	1.63707
2989.03	1.55439
2990.33	1.40156
2991.63	1.41703
2992.92	1.61448
2994.21	1.16468
2995.51	1.05146
2996.8	1.31688
2998.1	1.4696
2999.39	0.850769
3000.69	1.20019
3001.98	1.12917
3003.27	0.778145
3004.57	0.819575
3005.86	0.692711
3007.15	0.495527
3008.44	0.577794
3009.74	1.12079
3011.03	0.62853
3012.32	0.65324
3013.61	0.719677
3014.9	0.521329
3016.19	0.657942
3017.48	0.432795
3018.78	0.73691
3020.07	0.52611
3021.36	0.523702
3022.65	0.520702
3023.94	0.489273
3025.23	0.693028
3026.51	0.175931
3027.8	0.296525
3029.09	0.486608
3030.38	0.511441
3031.67	0.702817
3032.96	0.604732
3034.24	0.603459
3035.53	0.560394
3036.82	0.433758
3038.11	0.59541
3039.39	0.617857
3040.68	0.817812
3041.97	0.549843
3043.25	0.515472
3044.54	0.495295
3045.83	0.462425
3047.11	0.444534
3048.4	0.469003
3049.68	0.42646
3050.97	0.343906
3052.25	0.166285
3053.54	0.425246
3054.82	0.86101
3056.11	0.57296
3057.39	0.461541
3058.67	0.34962
3059.96	0.550721
3061.24	0.425106
3062.52	0.694549
3063.81	0.366306
3065.09	0.215805
3066.37	0.623472
3067.65	0.4199
3068.94	0.202835
3070.22	0.339081
3071.5	0.56993
3072.78	0.147121
3074.06	0.240234
3075.34	0.251058
3076.62	0.26154
3077.9	0.122824
3079.18	0.0661612
3080.46	0.145958
3081.74	0.15875
3083.02	0.429967
3084.3	-0.0989518
3085.58	0.050447
3086.86	0.240242
3088.14	0.497371
3089.42	0.577462
3090.69	0.0328937
3091.97	0.180221
3093.25	0.110433
3094.53	0.339076
3095.8	0.377868
3097.08	0.19968
3098.36	0.197591
3099.63	-0.062161
3100.91	0.206345
3102.19	0.0277057
3103.46	0.0928941
3104.74	0.0499444
3106.01	0.0343933
3107.29	0.289926
3108.56	0.248255
3109.84	0.0446935
3111.11	0.220635
3112.39	-0.00929165
3113.66	-0.144406
3114.94	-0.0357428
3116.21	0.0725942
3117.48	0.00400686
3118.76	0.00242138
3120.03	0.122064
3121.3	0.227354
3122.57	0.345576
3123.85	-0.10553
3125.12	-0.258401
3126.39	-0.0726819
3127.66	0.0995526
3128.93	-0.0392294
3130.21	-0.0291271
3131.48	-0.00559044
3132.75	-0.0363679
3134.02	0.270156
3135.29	-0.0856018
3136.56	0.219603
3137.83	0.105944
3139.1	0.072854
3140.37	0.0260696
3141.64	0.0464468
3142.91	0.10709
3144.17	0.127475
3145.44	-0.0531859
3146.71	-0.193135
3147.98	0.0424542
3149.25	-0.204071
