200.407	0.547629
202.221	0.543208
204.035	0.540537
205.849	0.782526
207.665	0.733336
209.478	0.635555
211.291	0.707229
213.104	0.729377
214.916	0.435459
216.73	0.990072
218.541	0.696631
220.352	0.138382
222.163	0.622264
223.973	0.695934
225.785	0.480543
227.595	0.483222
229.404	0.365179
231.213	0.343597
233.022	0.635684
234.83	0.20481
236.638	0.378476
238.448	0.289397
240.255	0.540652
242.062	0.625941
243.868	-0.0829754
245.675	0.486936
247.48	0.090394
249.286	-0.16376
251.091	0.448531
252.896	-0.317715
254.702	-0.336922
256.506	0.00537014
258.31	0.34839
260.113	-0.43921
261.916	-0.116254
263.719	0.883183
265.521	0.0289946
267.323	0.187351
269.125	0.00827789
270.926	-0.0267324
272.727	0.154366
274.527	-0.0755568
276.328	0.416367
278.127	0.13526
279.927	0.551062
281.726	0.338657
283.525	0.58178
285.323	-0.113858
287.121	-0.112678
288.919	0.320267
290.716	0.0825882
292.513	0.014389
294.31	-0.0280085
296.104	0.529051
297.9	1.01532
299.696	-0.289875
301.491	0.412111
303.286	-0.152469
305.081	-0.717605
306.875	0.577514
308.669	0.0117321
310.463	-0.123872
312.256	0.385047
314.047	0.919362
315.839	0.384265
317.631	0.113132
319.423	0.534499
321.215	0.576283
323.006	0.16604
324.794	0.495635
326.585	0.22904
328.375	-0.0140791
330.165	0.339639
331.954	0.477413
333.741	0.781116
335.53	0.317079
337.318	-0.173196
339.106	0.411222
340.894	0.276312
342.679	0.618819
344.466	0.172575
346.253	-0.439893
348.039	0.524779
349.823	0.415341
351.608	0.664147
353.393	0.0772085
355.176	0.181408
356.961	0.5704
358.745	0.33809
360.529	0.819366
362.31	0.442345
364.093	-0.00614357
365.876	0.495752
367.657	0.094059
369.439	0.379969
371.221	0.735511
373	0.119526
374.781	0.237227
376.56	0.260359
378.34	0.354782
380.12	0.355805
381.898	0.522884
383.677	0.408902
385.456	0.625625
387.233	0.843526
389.011	0.545785
390.787	0.131878
392.565	0.259152
394.34	0.0113678
396.117	0.280704
397.894	0.879047
399.668	0.302947
401.444	0.243161
403.217	-0.427917
404.993	-0.230625
406.766	0.0833206
408.54	0.13833
410.312	0.216474
412.086	0.505869
413.858	1.38226
415.631	1.20348
417.402	0.673687
419.174	0.308844
420.944	-0.126206
422.716	0.706028
424.486	0.340462
426.257	0.349571
428.025	0.00569534
429.794	0.130848
431.564	0.349845
433.332	0.639552
435.101	0.295978
436.868	0.140158
438.637	0.453066
440.403	0.482843
442.169	0.533978
443.937	0.231144
445.703	0.442139
447.468	0.394047
449.234	0.485829
450.999	0.484096
452.765	-0.100889
454.528	-0.264814
456.292	-0.125493
458.057	0.0134697
459.819	0.245355
461.582	-0.0805311
463.344	-0.450981
465.107	0.366167
466.868	0.186934
468.629	0.614762
470.392	0.812481
472.152	0.894802
473.912	0.90661
475.672	1.2193
477.433	1.45984
479.192	2.02436
480.951	1.98197
482.709	1.33419
484.469	1.54952
486.226	1.69724
487.984	1.38145
489.74	1.04434
491.499	1.0814
493.255	1.3529
495.011	1.08728
496.767	0.563566
498.522	1.37407
500.277	0.966085
502.033	0.955696
503.788	0.756398
505.541	1.21367
507.295	0.964481
509.048	1.01919
510.801	0.507451
512.553	0.958662
514.308	0.984688
516.06	0.797462
517.811	0.820666
519.562	0.866254
521.313	0.69949
523.063	1.11945
524.814	0.834563
526.563	0.573392
528.313	0.757992
530.062	0.262671
531.811	0.774592
533.559	0.255135
535.308	0.273148
537.055	0.429902
538.803	0.258034
540.55	0.411777
542.297	-0.134501
544.043	0.0645857
545.789	0.216645
547.535	-0.142109
549.281	-0.198441
551.026	0.254989
552.771	0.059907
554.515	0.119584
556.259	0.11013
558.003	0.170239
559.747	0.484145
561.49	1.00524
563.233	-0.15304
564.975	0.230992
566.717	-0.0739899
568.459	0.747101
570.2	0.444028
571.942	0.509636
573.68	0.301645
575.421	0.531329
577.161	0.326848
578.901	1.24843
580.64	0.609937
582.379	0.338582
584.118	-0.117511
585.855	0.689897
587.593	0.438268
589.331	-0.0908318
591.068	0.828506
592.805	0.228754
594.54	0.319035
596.277	0.432325
598.013	0.292484
599.749	0.359325
601.484	-0.0807838
603.217	-0.292018
604.952	0.0241909
606.687	0.0630436
608.421	0.422484
610.153	-0.366224
611.886	-0.281994
613.619	0.284359
615.35	-0.34087
617.083	0.0884171
618.815	0.104634
620.547	0.0510731
622.276	-0.369705
624.008	0.123585
625.738	0.387666
627.467	-0.283609
629.197	-0.130832
630.927	0.366402
632.655	-0.161177
634.384	-0.071599
636.113	0.360131
637.839	0.219517
639.568	0.37289
641.293	-0.434867
643.021	-0.036047
644.748	0.315222
646.473	0.779815
648.2	0.336291
649.924	0.282685
651.65	-0.221503
653.376	-0.176594
655.099	-0.0374117
656.824	0.0587349
658.546	-0.163063
660.271	0.481354
661.993	0.326087
663.716	0.488177
665.438	0.556462
667.161	0.211138
668.881	0.345133
670.604	0.456885
672.324	0.112954
674.045	0.206155
675.765	0.0724373
677.486	0.169165
679.204	0.312189
680.925	-0.235137
682.643	-0.048914
684.361	0.595844
686.08	-0.142573
687.797	0.0843744
689.516	0.102961
691.232	0.328115
692.95	0.322259
694.666	-0.006814
696.382	0.215893
698.099	0.460285
699.813	-0.171201
701.528	0.737654
703.244	0.265385
704.958	0.941382
706.673	0.353535
708.387	0.84396
710.099	0.668678
711.814	0.424588
713.526	0.523688
715.238	0.256731
716.949	0.606637
718.663	0.0891132
720.374	0.0512886
722.084	0.765145
723.796	0.385662
725.506	0.665974
727.216	0.241364
728.925	0.656709
730.636	0.345302
732.345	0.71356
734.053	0.153198
735.761	0.837128
737.471	0.549052
739.178	0.465228
740.885	0.788239
742.592	0.819132
744.298	0.51365
746.006	0.83996
747.712	1.6399
749.417	0.888896
751.122	0.949087
752.827	0.493261
754.532	1.14105
756.236	1.18308
757.942	0.956565
759.645	1.09177
761.348	1.47634
763.051	1.14006
764.753	1.1417
766.456	1.05183
768.158	0.982582
769.859	1.54418
771.56	1.51582
773.261	1.48589
774.964	1.90761
776.664	1.17673
778.364	2.25604
780.064	1.18881
781.763	1.79633
783.462	1.18238
785.16	1.26869
786.859	1.71484
788.557	1.68225
790.255	1.17115
791.952	1.10993
793.649	1.20515
795.346	1.25471
797.042	1.53044
798.738	1.26692
800.434	1.59082
802.127	0.993507
803.823	1.0046
805.517	0.903152
807.212	0.890857
808.906	1.66338
810.6	1.0423
812.293	1.4078
813.987	1.52563
815.68	1.53104
817.372	1.49165
819.064	1.29592
820.754	1.25701
822.446	1.82097
824.137	1.27005
825.828	1.63491
827.519	1.04384
829.209	1.81435
830.897	1.1181
832.587	1.87261
834.276	1.42639
835.966	1.69452
837.654	1.15937
839.341	2.16317
841.029	1.06642
842.717	1.50923
844.404	1.70585
846.091	2.3726
847.776	2.39328
849.463	2.17062
851.149	2.28632
852.833	1.93374
854.519	2.32197
856.204	2.30658
857.889	1.72785
859.572	1.52882
861.256	1.19246
862.94	1.55237
864.622	1.03227
866.305	1.57038
867.988	1.45416
869.669	1.45016
871.351	1.08489
873.033	0.832091
874.713	0.691957
876.395	0.687189
878.074	0.795294
879.755	0.745312
881.435	0.536937
883.114	0.553596
884.794	0.952926
886.471	1.03475
888.15	1.06977
889.829	1.14818
891.506	1.33763
893.184	0.782195
894.861	1.19399
896.538	0.614769
898.214	0.147961
899.891	0.914964
901.566	1.27608
903.242	0.964355
904.916	0.899051
906.592	1.1466
908.266	1.70634
909.941	1.37495
911.614	0.956282
913.288	1.60597
914.961	0.900386
916.635	0.684205
918.306	1.44354
919.979	1.338
921.651	1.25538
923.321	1.01936
924.994	1.4039
926.664	1.28219
928.336	1.62593
930.005	1.06613
931.674	1.98556
933.345	2.00056
935.014	1.17759
936.682	0.906643
938.352	1.01154
940.019	1.60298
941.687	1.2694
943.356	1.26748
945.022	1.13303
946.689	0.467585
948.357	1.10256
950.022	0.764326
951.688	0.336707
953.355	0.945949
955.02	0.564198
956.684	0.141191
958.348	0.25065
960.014	0.473412
961.678	0.410966
963.341	0.237867
965.004	0.195628
966.669	0.615335
968.331	0.678293
969.993	1.093
971.655	0.643949
973.316	0.792599
974.979	1.14174
976.64	0.785163
978.3	0.407956
979.961	0.385333
981.62	0.362347
983.28	-0.0161781
984.941	0.843037
986.6	0.947341
988.259	0.850527
989.917	0.708216
991.575	0.233848
993.233	0.532901
994.89	0.721325
996.547	0.887609
998.204	1.23008
999.86	1.46173
1001.52	2.35331
1003.17	1.21857
1004.83	1.27258
1006.49	0.930809
1008.14	1.07278
1009.79	-0.211486
1011.45	0.896791
1013.1	0.667255
1014.76	1.02983
1016.41	0.275967
1018.06	-0.0608339
1019.72	0.412718
1021.37	0.88699
1023.02	0.815745
1024.67	0.833012
1026.32	0.479452
1027.97	1.41516
1029.62	0.99549
1031.27	1.64485
1032.92	1.13491
1034.57	1.43091
1036.22	1.20169
1037.87	0.993676
1039.52	0.65526
1041.17	1.40562
1042.82	1.19997
1044.47	0.931307
1046.11	0.990815
1047.76	0.140254
1049.41	0.703164
1051.06	0.29012
1052.7	0.920608
1054.35	-0.0996513
1055.99	-0.403102
1057.64	0.466967
1059.28	0.88026
1060.93	0.771115
1062.57	1.55266
1064.22	0.224039
1065.86	0.612081
1067.5	0.520661
1069.15	0.602073
1070.79	1.46451
1072.43	0.372426
1074.08	0.648729
1075.72	1.16454
1077.36	1.07436
1079	1.22415
1080.64	0.94114
1082.28	0.809968
1083.92	1.54518
1085.56	0.609205
1087.2	1.38342
1088.84	1.11506
1090.48	1.32111
1092.12	0.963414
1093.76	1.14569
1095.39	1.04731
1097.03	0.605137
1098.67	0.358994
1100.31	1.62196
1101.94	0.949245
1103.58	1.07496
1105.22	0.85798
1106.85	1.02887
1108.49	1.0059
1110.12	0.48725
1111.76	1.51471
1113.39	0.820884
1115.03	0.362605
1116.66	1.34163
1118.29	0.84018
1119.93	1.34709
1121.56	0.377078
1123.19	1.16423
1124.82	1.3956
1126.46	1.56369
1128.09	1.73261
1129.72	1.06848
1131.35	1.15344
1132.98	0.576058
1134.61	1.15294
1136.24	0.55352
1137.87	0.893389
1139.5	1.01813
1141.13	0.244952
1142.76	0.965684
1144.39	0.214188
1146.01	1.23357
1147.64	0.250004
1149.27	1.05764
1150.9	0.0975332
1152.53	0.713757
1154.15	0.541608
1155.78	0.11374
1157.4	0.21791
1159.03	0.152235
1160.65	0.0662203
1162.28	0.619275
1163.9	0.259122
1165.53	0.579932
1167.15	-0.0775299
1168.78	-0.438332
1170.4	0.368334
1172.02	0.641247
1173.65	-0.170875
1175.27	0.50193
1176.89	-0.310804
1178.51	0.911449
1180.14	0.269916
1181.76	0.518684
1183.38	-0.310328
1185	-0.462151
1186.62	0.0610332
1188.24	-0.198862
1189.86	0.277447
1191.48	-0.323007
1193.1	0.716476
1194.71	0.303495
1196.33	0.0803623
1197.95	0.633525
1199.57	0.204247
1201.19	0.300709
1202.8	0.713056
1204.42	0.418223
1206.04	0.689287
1207.65	0.315028
1209.27	0.525284
1210.88	0.442682
1212.5	0.129008
1214.12	0.834368
1215.73	-0.212698
1217.35	0.549983
1218.96	0.832082
1220.57	1.17571
1222.19	0.544685
1223.8	0.869324
1225.41	0.718892
1227.03	1.00489
1228.64	0.092536
1230.25	0.960386
1231.86	1.70503
1233.47	1.14874
1235.08	1.31731
1236.69	1.36326
1238.31	1.82387
1239.92	1.35498
1241.52	1.15498
1243.13	1.7614
1244.74	1.66366
1246.35	0.902572
1247.96	0.968053
1249.57	0.701653
1251.18	0.765976
1252.78	0.995987
1254.39	1.26811
1256	1.12773
1257.6	1.31971
1259.21	0.68538
1260.82	1.35572
1262.42	1.11598
1264.03	1.24899
1265.63	0.967215
1267.24	1.86601
1268.84	1.0641
1270.45	1.06948
1272.05	2.08967
1273.65	1.20121
1275.26	1.70069
1276.86	1.18348
1278.46	1.10071
1280.06	1.26581
1281.67	1.57529
1283.27	1.13986
1284.87	0.726063
1286.47	1.3885
1288.07	1.101
1289.67	0.979949
1291.27	1.23145
1292.87	1.1316
1294.47	1.54745
1296.07	1.34214
1297.67	1.58937
1299.27	1.15364
1300.87	1.47963
1302.47	1.47413
1304.06	1.3441
1305.66	1.64525
1307.26	1.14425
1308.85	2.28522
1310.45	2.15314
1312.05	0.772989
1313.64	1.78931
1315.24	1.74231
1316.83	2.18651
1318.43	2.30428
1320.02	2.34022
1321.62	2.45654
1323.21	1.83826
1324.8	1.56484
1326.4	2.52884
1327.99	2.19211
1329.59	2.84899
1331.18	2.55567
1332.77	2.79097
1334.36	2.28162
1335.95	2.17848
1337.54	2.25769
1339.14	2.69891
1340.73	2.93615
1342.32	2.92887
1343.91	3.12014
1345.5	2.4061
1347.09	2.27534
1348.67	2.04672
1350.26	2.00152
1351.85	2.2794
1353.44	1.91972
1355.03	1.56185
1356.62	1.5843
1358.2	1.86597
1359.79	2.04654
1361.38	2.30553
1362.96	1.04719
1364.55	2.22209
1366.14	1.68239
1367.72	1.16408
1369.31	2.08082
1370.89	1.72496
1372.48	1.31115
1374.06	1.75426
1375.64	1.84
1377.23	2.1448
1378.81	2.09084
1380.39	1.99592
1381.98	1.66081
1383.56	2.00051
1385.14	1.30515
1386.72	1.42446
1388.3	1.5041
1389.89	1.5447
1391.47	1.64582
1393.05	1.41056
1394.63	2.10805
1396.21	1.63512
1397.79	1.69687
1399.37	1.89615
1400.95	1.71783
1402.52	1.20249
1404.1	0.944853
1405.68	1.39988
1407.26	1.40084
1408.84	1.36325
1410.42	1.83984
1411.99	1.44728
1413.57	1.42938
1415.15	1.3513
1416.72	1.39066
1418.3	1.5872
1419.87	1.52778
1421.45	1.17423
1423.02	1.03917
1424.6	1.75229
1426.17	1.06936
1427.75	1.19401
1429.32	1.75143
1430.89	1.99291
1432.47	1.85911
1434.04	2.1964
1435.61	2.0806
1437.18	2.08305
1438.76	1.75217
1440.33	2.34626
1441.9	3.33444
1443.47	2.67263
1445.04	2.83673
1446.61	2.90279
1448.18	2.49727
1449.75	2.58349
1451.32	2.63095
1452.89	2.97406
1454.46	2.60964
1456.03	2.38275
1457.6	2.94221
1459.16	2.94924
1460.73	3.03288
1462.3	2.34692
1463.87	2.44609
1465.43	1.93455
1467	2.56246
1468.56	2.48329
1470.13	2.18936
1471.7	1.56349
1473.26	1.37065
1474.83	1.41406
1476.39	0.7717
1477.96	1.61957
1479.52	1.17341
1481.08	1.43285
1482.65	0.967031
1484.21	0.0113707
1485.77	0.133149
1487.34	0.900442
1488.9	0.334593
1490.46	0.882719
1492.02	0.821705
1493.58	0.465502
1495.15	1.06416
1496.71	1.09508
1498.27	0.561322
1499.83	1.35106
1501.39	0.936481
1502.95	0.349525
1504.51	0.559033
1506.07	0.865247
1507.63	0.241957
1509.18	0.681438
1510.74	0.13461
1512.3	0.898708
1513.86	0.505609
1515.41	0.305907
1516.97	0.280085
1518.53	0.504399
1520.08	0.230811
1521.64	0.359875
1523.2	0.450109
1524.75	0.233882
1526.31	0.303169
1527.86	0.333251
1529.42	0.362664
1530.97	0.145099
1532.52	0.364753
1534.08	0.868769
1535.63	0.0675306
1537.19	0.950642
1538.74	0.681273
1540.29	0.450563
1541.84	0.8044
1543.4	0.630486
1544.95	0.682324
1546.5	0.376953
1548.05	0.953911
1549.6	1.06103
1551.15	1.01832
1552.7	1.68708
1554.25	1.53328
1555.8	0.970366
1557.35	0.746032
1558.9	1.13968
1560.45	1.19934
1562	0.757055
1563.54	1.06217
1565.09	0.696245
1566.64	1.4127
1568.19	1.53187
1569.73	1.5573
1571.28	1.47029
1572.83	1.60696
1574.37	1.85547
1575.92	0.909267
1577.47	1.158
1579.01	1.38849
1580.56	2.25455
1582.1	1.29153
1583.64	2.0663
1585.19	1.64637
1586.73	2.06798
1588.28	1.72325
1589.82	1.84579
1591.36	2.39846
1592.9	2.07089
1594.45	2.26721
1595.99	1.63929
1597.53	2.24838
1599.07	1.80868
1600.61	2.23226
1602.15	1.9999
1603.69	2.08651
1605.23	2.07854
1606.77	1.46766
1608.31	1.64383
1609.85	2.09945
1611.39	1.55646
1612.93	1.65025
1614.47	1.78002
1616.01	2.09666
1617.55	1.60738
1619.08	1.28848
1620.62	1.40217
1622.16	1.98535
1623.7	1.07156
1625.23	1.39351
1626.77	1.99528
1628.3	2.07145
1629.84	1.77198
1631.37	2.14446
1632.91	1.50739
1634.44	1.73005
1635.98	1.44957
1637.51	1.33816
1639.05	2.10375
1640.58	1.8811
1642.11	2.1237
1643.65	1.93659
1645.18	1.95304
1646.71	1.87546
1648.24	1.85335
1649.78	1.46028
1651.31	2.29351
1652.84	1.8474
1654.37	2.42265
1655.9	2.1271
1657.43	2.23933
1658.96	2.25801
1660.49	1.79391
1662.02	2.08726
1663.55	2.15708
1665.08	2.07833
1666.61	2.01852
1668.14	1.46201
1669.66	1.64504
1671.19	1.79264
1672.72	2.62287
1674.25	2.38513
1675.77	1.90793
1677.3	1.48536
1678.83	1.35631
1680.35	1.48366
1681.88	1.16904
1683.4	1.09316
1684.93	1.01743
1686.45	1.52897
1687.98	0.995657
1689.5	1.5075
1691.03	1.61627
1692.55	0.956386
1694.07	1.06532
1695.6	1.3385
1697.12	1.13603
1698.64	0.513409
1700.17	0.730593
1701.69	0.80105
1703.21	0.797911
1704.73	0.429978
1706.25	0.644416
1707.77	0.967252
1709.29	0.635533
1710.81	0.631118
1712.33	0.826332
1713.85	0.89456
1715.37	0.636876
1716.89	0.379546
1718.41	0.755054
1719.93	0.551987
1721.45	0.421587
1722.97	0.706602
1724.49	0.577826
1726	0.558559
1727.52	0.396656
1729.04	0.487782
1730.55	-0.299761
1732.07	0.681167
1733.59	0.431665
1735.1	0.133757
1736.62	0.418041
1738.13	0.349274
1739.65	0.61379
1741.16	0.447079
1742.68	0.0364103
1744.19	0.160365
1745.7	0.377582
1747.22	0.56373
1748.73	0.0727987
1750.24	0.126699
1751.76	0.223773
1753.27	0.493587
1754.78	0.387114
1756.29	0.199574
1757.8	0.186035
1759.31	0.183855
1760.83	0.083602
1762.34	-0.0441103
1763.85	0.2345
1765.36	0.233997
1766.87	0.194823
1768.38	0.302184
1769.89	0.139235
1771.39	0.711694
1772.9	0.0897264
1774.41	0.189117
1775.92	0.0581074
1777.43	0.0570793
1778.94	0.257737
1780.44	-0.0626888
1781.95	0.183029
1783.46	-0.314165
1784.96	0.367615
1786.47	0.394381
1787.97	0.121275
1789.48	0.0598269
1790.99	-0.00148869
1792.49	0.330433
1794	0.335023
1795.5	0.417287
1797	0.203105
1798.51	0.401543
1800.01	0.401285
1801.51	0.185447
1803.02	0.0383339
1804.52	-0.0522261
1806.02	0.253452
1807.53	0.305372
1809.03	0.249695
1810.53	0.0454922
1812.03	-0.221389
1813.53	0.247955
1815.03	-0.0179882
1816.53	0.137116
1818.03	-0.0230465
1819.53	0.213621
1821.03	-0.087328
1822.53	0.00793076
1824.03	-0.207425
1825.53	-0.0617619
1827.03	-0.0687408
1828.53	-0.107197
1830.02	0.39434
1831.52	-0.00447369
1833.02	0.118169
1834.52	0.243675
1836.01	0.0389481
1837.51	0.11374
1839.01	0.0691671
1840.5	0.102944
1842	0.297919
1843.49	0.443496
1844.99	0.32526
1846.48	0.0626469
1847.98	0.0256195
1849.47	0.255844
1850.97	0.183003
1852.46	-0.00640869
1853.95	0.0214443
1855.45	0.392179
1856.94	0.27384
1858.43	0.0676298
1859.93	0.180874
1861.42	0.0321741
1862.91	0.238543
1864.4	0.31607
1865.89	0.172327
1867.38	0.161828
1868.87	0.19534
1870.36	0.0562201
1871.85	0.257446
1873.34	0.491629
1874.83	0.17783
1876.32	-0.0799646
1877.81	0.0367651
1879.3	0.259717
1880.79	-0.00346375
1882.28	-0.226849
1882.52	-0.259057
1884.02	-0.0331173
1885.51	-0.226335
1887.01	0.520302
1888.5	-0.370679
1889.99	0.218327
1891.49	-0.00961685
1892.98	0.459624
1894.47	-0.0256138
1895.97	0.516515
1897.46	-0.0359907
1898.95	0.0547886
1900.44	0.335956
1901.93	-0.010767
1903.42	-0.35911
1904.91	-0.447827
1906.4	0.279382
1907.89	0.207001
1909.38	0.308867
1910.87	-0.00483418
1912.36	-0.0225687
1913.85	0.393843
1915.34	0.0818911
1916.83	0.515211
1918.32	0.254476
1919.8	0.270659
1921.29	0.390658
1922.78	0.147365
1924.27	0.268619
1925.75	0.0274448
1927.24	0.202816
1928.73	0.0152597
1930.21	0.0181026
1931.7	0.227962
1933.18	0.211249
1934.67	-0.0149479
1936.15	0.0169058
1937.64	-0.0389004
1939.12	-0.02598
1940.61	0.211678
1942.09	-0.0505714
1943.57	0.0507126
1945.06	0.290721
1946.54	0.410278
1948.02	-0.0736446
1949.51	-0.00669289
1950.99	0.351914
1952.47	0.106926
1953.95	0.0336304
1955.43	0.458672
1956.91	0.0249214
1958.4	-0.218844
1959.88	0.670529
1961.36	0.0335846
1962.84	0.237223
1964.32	0.217777
1965.8	0.214966
1967.27	-0.0794926
1968.75	0.224412
1970.23	-0.0196495
1971.71	-0.588158
1973.19	0.41435
1974.67	0.20455
1976.14	-0.0559053
1977.62	-0.162554
1979.1	-0.149819
1980.58	0.0669851
1982.05	0.232333
1983.53	-0.333257
1985	0.018218
1986.48	0.216272
1987.95	0.0242119
1989.43	0.23917
1990.9	-0.120876
1992.38	0.112389
1993.85	0.244972
1995.33	0.631756
1996.8	-0.265193
1998.27	0.138798
1999.75	-0.453965
2001.22	0.488784
2002.69	0.215759
2004.16	0.0945902
2005.64	0.260314
2007.11	0.325579
2008.58	0.543303
2010.05	0.206248
2011.52	-0.113338
2012.99	0.122635
2014.46	0.576888
2015.93	0.306711
2017.4	0.271234
2018.87	0.41987
2020.34	0.0637341
2021.81	0.178039
2023.28	0.258975
2024.75	0.340632
2026.22	-0.0797863
2027.69	0.323171
2029.15	0.0231466
2030.62	-0.141439
2032.09	0.248602
2033.56	0.18613
2035.02	0.325115
2036.49	0.0774355
2037.96	0.400405
2039.42	0.0172319
2040.89	0.289444
2042.35	-0.127236
2043.82	0.280741
2045.28	0.387038
2046.75	-0.0277071
2048.21	0.180675
2049.67	0.136144
2051.14	0.225471
2052.6	0.0603418
2054.07	0.180106
2055.53	0.062048
2056.99	0.128132
2058.45	0.0585718
2059.92	0.359468
2061.38	0.323798
2062.84	0.036478
2064.3	-0.53584
2065.76	0.121387
2067.22	0.358692
2068.68	-0.0429554
2070.14	0.4141
2071.6	0.130581
2073.06	0.30146
2074.52	-0.033062
2075.98	0.642449
2077.44	0.155647
2078.9	-0.21366
2080.36	0.208053
2081.82	0.0566959
2083.27	-0.0952549
2084.73	0.576719
2086.19	-0.182323
2087.65	0.0170622
2089.1	0.333499
2090.56	-0.291227
2092.02	-0.126325
2093.47	0.0047617
2094.93	-0.334106
2096.38	0.26552
2097.84	0.311009
2099.29	0.121515
2100.75	0.383512
2102.2	0.194157
2103.66	0.440043
2105.11	0.202922
2106.56	-0.149407
2108.02	0.133274
2109.47	0.282744
2110.92	0.0982151
2112.38	-0.187421
2113.83	0.358276
2115.28	0.0197477
2116.73	0.113162
2118.18	0.472476
2119.63	0.633373
2121.09	0.397869
2122.54	0.0649605
2123.99	-0.0508442
2125.44	0.0329647
2126.89	0.149673
2128.34	0.281972
2129.79	0.0648851
2131.23	0.194565
2132.68	-0.289104
2134.13	0.087985
2135.58	-0.0306273
2137.03	0.315026
2138.48	0.149976
2139.92	0.267693
2141.37	-0.32381
2142.82	0.276031
2144.27	-0.148731
2145.71	-0.011013
2147.16	-0.154921
2148.6	-0.100756
2150.05	-0.229581
2151.49	-0.0113964
2152.94	0.205919
2154.38	0.157366
2155.83	0.45629
2157.27	0.307968
2158.72	0.342548
2160.16	0.461213
2161.6	0.00160408
2163.05	-0.042201
2164.49	-0.416475
2165.93	0.205606
2167.38	0.379927
2168.82	0.187745
2170.26	-0.0728006
2171.7	0.180296
2173.14	0.248655
2174.58	0.232557
2176.03	0.182662
2177.47	0.232733
2178.91	-0.182022
2180.35	0.285285
2181.79	-0.0113907
2183.23	-0.00827122
2184.67	0.460826
2186.1	-0.250988
2187.54	-0.0978117
2188.98	0.271814
2190.42	0.292006
2191.86	0.328609
2193.3	0.164726
2194.73	0.216051
2196.17	0.065937
2197.61	0.379953
2199.05	-0.0395927
2200.48	-0.243524
2201.92	0.183596
2203.35	0.0964003
2204.79	-0.0228424
2206.22	0.289898
2207.66	-0.225461
2209.1	0.186785
2210.53	0.283445
2211.97	0.0482292
2213.4	-0.336127
2214.83	0.0892811
2216.27	0.135021
2217.7	-0.016202
2219.13	0.526483
2220.57	0.195876
2222	-0.216809
2223.43	0.44101
2224.86	0.010128
2226.29	0.302177
2227.72	0.181172
2229.16	-0.0558052
2230.59	-0.48985
2232.02	0.0600557
2233.45	-0.127567
2234.88	0.0292683
2236.31	0.284937
2237.74	0.0846128
2239.17	-0.0647202
2240.6	0.0326061
2242.03	0.490406
2243.45	-0.0618362
2244.88	0.315957
2246.31	0.285355
2247.74	0.0738468
2249.17	0.284266
2250.59	0.215363
2252.02	0.193694
2253.45	0.366394
2254.87	-0.0783148
2256.3	0.566764
2257.73	-0.00358582
2259.15	0.17541
2260.58	-0.113336
2262	0.18438
2263.43	-0.279423
2264.85	0.296582
2266.28	0.303811
2267.7	0.456678
2269.13	0.413465
2270.55	0.30432
2271.97	0.585415
2273.4	0.198713
2274.82	-0.106627
2276.24	0.109481
2277.67	0.276981
2279.09	-0.223771
2280.51	0.335095
2281.93	-0.133458
2283.35	-0.537065
2284.77	0.25044
2286.2	0.0102005
2287.62	0.178371
2289.04	-0.0449362
2290.46	0.0424347
2291.88	-0.458356
2293.3	-0.305289
2294.72	0.19148
2296.13	-0.0970955
2297.55	0.170799
2298.97	0.0294037
2300.39	0.281417
2301.81	0.222384
2303.23	0.130757
2304.64	-0.157791
2306.06	0.0624084
2307.48	0.167481
2308.89	0.42006
2310.31	0.211824
2311.73	0.0359612
2313.14	-0.0742359
2314.56	-0.0195332
2315.98	-0.227568
2317.39	0.256884
2318.81	0.198301
2320.22	0.0239725
2321.64	-0.0855694
2323.05	0.232154
2324.46	0.151594
2325.88	-0.244575
2327.29	1.10595
2328.7	0.443605
2330.12	0.292798
2331.53	0.258255
2332.94	-0.0220442
2334.35	0.471971
2335.77	0.209285
2337.18	0.176531
2338.59	-0.284587
2340	0.108094
2341.41	0.0888767
2342.82	-0.488774
2344.23	0.0822906
2345.64	-0.0190887
2347.05	0.485952
2348.46	0.368383
2349.87	0.0379248
2351.28	-0.0639772
2352.69	0.225325
2354.1	-0.0742235
2355.51	0.164057
2356.91	0.320101
2358.32	0.150471
2359.73	-0.213651
2361.14	-0.122465
2362.54	0.0657921
2363.95	0.561253
2365.36	-0.190133
2366.76	0.11073
2368.17	0.137092
2369.58	-0.0130501
2370.98	-0.177817
2372.39	-0.0511398
2373.79	-0.16519
2375.2	-0.310972
2376.6	0.170499
2378	0.216269
2379.41	-0.38224
2380.81	0.431363
2382.22	-0.10505
2383.62	0.111641
2385.02	-0.120301
2386.43	0.127975
2387.83	0.312716
2389.23	0.259099
2390.63	-0.30299
2392.03	0.251263
2393.44	0.185266
2394.84	-0.213838
2396.24	-0.135013
2397.64	-0.246365
2399.04	0.389661
2400.44	0.517546
2401.84	0.0738926
2403.24	0.106848
2404.64	0.441114
2406.04	0.234653
2407.44	0.154354
2408.84	0.00991535
2410.23	0.0238085
2411.63	0.307222
2413.03	0.0210571
2414.43	0.10044
2415.83	0.102051
2417.22	0.4374
2418.62	0.156207
2420.02	0.318704
2421.41	0.433624
2422.81	0.500694
2424.21	-0.145502
2425.6	0.460059
2427	0.670078
2428.39	0.0566931
2429.79	0.0940485
2431.18	0.195567
2432.58	0.28146
2433.97	0.41455
2435.36	-0.00941467
2436.76	0.35946
2438.15	0.456744
2439.54	0.21912
2440.94	0.314186
2442.33	-0.00408363
2443.72	0.502736
2445.12	0.0731392
2446.51	0.119381
2447.9	0.593321
2449.29	0.385682
2450.68	0.194275
2452.07	0.130152
2453.46	0.20922
2454.85	0.0517759
2456.24	-0.247337
2457.64	0.213146
2459.02	0.214722
2460.41	-0.227071
2461.8	-0.495533
2463.19	0.246979
2464.58	0.056221
2465.97	0.00745201
2467.36	-0.104519
2468.75	0.256897
2470.13	0.381212
2471.52	0.0163031
2472.91	-0.380362
2474.3	-0.100315
2475.68	0.131513
2477.07	0.173995
2478.45	0.184936
2479.84	-0.0550613
2481.23	0.222898
2482.61	-0.283022
2484	-0.0841198
2485.38	-0.0428066
2486.77	0.262924
2488.15	-0.0416918
2489.54	0.323841
2490.92	0.0501528
2492.3	0.228433
2493.69	-0.0584898
2495.07	-0.297026
2496.45	0.0705023
2497.84	0.113018
2499.22	0.140247
2500.6	0.0278997
2501.98	0.254969
2503.36	0.264505
2504.75	0.51992
2506.13	-0.196546
2507.51	-0.0190144
2508.89	0.373455
2510.27	0.197268
2511.65	0.328903
2513.03	-0.106111
2514.41	0.226228
2515.79	-0.145152
2517.17	-0.163514
2518.55	0.154994
2519.93	0.244112
2521.3	0.164871
2522.68	-0.0217743
2524.06	0.172326
2525.44	0.0148935
2526.82	-0.112097
2528.19	0.187527
2529.57	0.259683
2530.95	0.226908
2532.32	0.256577
2533.7	0.25718
2535.08	-0.03018
2536.45	0.168576
2537.83	0.731224
2539.2	0.108069
2540.58	-0.105638
2541.95	0.181288
2543.33	-0.108279
2544.7	-0.108694
2546.08	0.0133781
2547.45	-0.227448
2548.82	0.0331068
2550.2	0.308985
2551.57	0.265762
2552.94	0.160916
2554.32	-0.0208139
2555.69	0.175932
2557.06	-0.128502
2558.43	-0.0234985
2559.8	0.0816851
2561.18	0.35404
2562.55	0.141985
2563.92	0.263907
2565.29	0.295311
2566.66	0.236022
2568.03	0.0707178
2569.4	0.269137
2570.77	0.270524
2572.14	0.180989
2573.51	0.0460377
2574.88	-0.0585451
2576.25	-0.284409
2577.61	-0.373939
2578.98	-0.205924
2580.35	0.0375738
2581.72	0.356471
2583.09	0.144296
2584.45	-0.189368
2585.82	0.340991
2587.19	-0.189626
2588.55	0.189342
2589.92	-0.0529871
2591.29	0.189497
2592.65	0.0678244
2594.02	0.157478
2595.38	-0.314229
2596.75	0.0156937
2598.11	0.117578
2599.48	0.203846
2600.84	0.38075
2602.21	0.331415
2603.57	0.328066
2604.93	0.219631
2606.3	0.337723
2607.66	0.289527
2609.02	0.240519
2610.39	0.310844
2611.75	0.108837
2613.11	0.0112762
2614.47	0.138445
2615.83	-0.0950508
2617.19	-0.237926
2618.56	0.323904
2619.92	-0.266717
2621.28	0.220849
2622.64	0.0507622
2624	0.0304346
2625.36	0.248821
2626.72	0.481547
2628.08	0.132448
2629.44	0.572704
2630.8	0.044981
2632.15	0.335596
2633.51	0.031517
2634.87	0.277024
2636.23	0.0327024
2637.59	0.366646
2638.94	0.0634193
2640.3	0.367382
2641.66	0.3311
2643.02	0.48718
2644.37	0.584146
2645.73	-0.0272408
2647.09	0.0252094
2648.44	0.135811
2649.8	0.00994778
2651.15	0.280563
2652.51	0.139092
2653.86	0.0714617
2655.22	0.0193224
2656.57	-0.0316877
2657.93	-0.0668945
2659.28	0.440044
2660.63	0.142678
2661.99	0.298489
2663.34	0.249035
2664.69	0.417755
2666.05	0.235403
2667.4	0.198579
2668.75	0.307304
2670.1	0.387009
2671.45	0.394409
2672.81	0.0537024
2674.16	0.352962
2675.51	0.23154
2676.86	-0.382506
2678.21	0.222803
2679.56	0.321069
2680.91	0.652308
2682.26	0.11484
2683.61	0.0424519
2684.96	0.232043
2686.31	0.132007
2687.66	-0.0408411
2689	0.177047
2690.35	0.0448809
2691.7	0.143171
2693.05	0.515527
2694.4	0.407999
2695.74	0.430819
2697.09	0.0775862
2698.44	0.116865
2699.79	0.201203
2701.13	0.113486
2702.48	0.273446
2703.83	0.564973
2705.17	0.494844
2706.52	0.236138
2707.86	0.542845
2709.21	0.225159
2710.55	0.327975
2711.9	0.227204
2713.24	0.387774
2714.58	0.388471
2715.93	0.0837479
2717.27	0.462272
2718.62	0.477031
2719.96	0.15673
2721.3	0.243342
2722.65	0.926226
2723.99	0.051239
2725.33	0.325659
2726.67	0.497785
2728.01	0.62588
2729.35	0.535407
2730.7	0.561187
2732.04	0.266845
2733.38	0.583617
2734.72	-0.146791
2736.06	0.446657
2737.4	-0.00699997
2738.74	0.193799
2740.08	0.408851
2741.42	0.6379
2742.76	0.313774
2744.1	0.381463
2745.43	0.404878
2746.77	0.0502491
2748.11	-0.0284843
2749.45	0.618317
2750.79	0.0030098
2752.12	0.316269
2753.46	0.267203
2754.8	0.0444822
2756.14	0.242042
2757.47	0.381723
2758.81	0.318919
2760.14	0.517038
2761.48	0.295932
2762.81	0.33581
2764.15	0.130017
2765.49	0.372749
2766.82	0.45583
2768.16	0.0316706
2769.49	0.0836048
2770.82	0.119576
2772.16	0.486259
2773.49	-0.0722008
2774.82	-0.0968494
2776.16	0.180967
2777.49	-0.0450497
2778.82	0.261891
2780.16	0.0659533
2781.49	0.373219
2782.82	-0.00869846
2784.15	-0.0890074
2785.48	0.031395
2786.82	-0.26354
2788.15	0.0149374
2789.48	-0.135334
2790.81	0.215975
2792.14	-0.0612717
2793.47	0.0766191
2794.8	0.128741
2796.13	-0.119559
2797.46	0.145946
2798.79	-0.3175
2800.12	-0.0103064
2801.44	-0.074564
2802.77	0.0891666
2804.1	-0.232063
2805.43	0.101771
2806.76	0.33494
2808.08	-0.215138
2809.41	0.031044
2810.74	0.177456
2812.07	-0.0021286
2813.39	0.316056
2814.72	0.0258131
2816.05	0.176614
2817.37	0.356873
2818.7	0.310958
2820.02	0.0241051
2821.35	0.346251
2822.67	-0.0834227
2824	0.449847
2825.32	0.0476513
2826.65	0.58032
2827.97	0.292128
2829.3	0.500093
2830.62	0.368782
2831.94	0.407573
2833.26	0.375536
2834.59	0.654554
2835.91	0.918843
2837.23	0.786286
2838.56	1.07769
2839.88	1.04345
2841.2	1.37695
2842.52	1.54113
2843.84	1.77666
2845.16	1.94232
2846.48	2.34894
2847.8	2.34618
2849.12	2.65439
2850.45	2.36863
2851.77	2.43566
2853.08	2.74235
2854.4	2.37024
2855.72	2.81749
2857.04	2.77017
2858.36	3.10429
2859.68	2.80279
2861	3.22132
2862.32	3.38522
2863.63	3.22398
2864.95	3.66925
2866.27	4.29765
2867.59	4.77093
2868.9	4.92029
2870.22	4.88689
2871.54	4.98059
2872.85	5.36988
2874.17	5.51849
2875.48	5.76421
2876.8	5.93783
2878.11	5.98354
2879.43	6.61947
2880.74	6.29937
2882.06	6.86587
2883.37	6.81548
2884.69	6.7806
2886	6.07279
2887.31	6.55837
2888.63	7.14134
2889.94	6.89527
2891.25	6.91457
2892.57	7.40951
2893.88	6.88113
2895.19	7.10991
2896.5	7.32568
2897.82	6.4374
2899.13	7.83148
2900.44	7.98131
2901.75	8.13184
2903.06	7.56931
2904.37	8.15401
2905.68	7.53623
2906.99	7.98232
2908.3	8.58354
2909.61	8.26279
2910.92	8.4046
2912.23	9.19036
2913.54	9.16332
2914.85	9.09218
2916.16	9.11652
2917.46	9.86629
2918.77	9.15908
2920.08	9.78082
2921.39	10.0956
2922.7	9.71316
2924	9.69637
2925.31	9.44368
2926.62	10.45
2927.92	10.7576
2929.23	10.4635
2930.54	10.9514
2931.84	10.6558
2933.15	10.5556
2934.45	11.1681
2935.76	10.9004
2937.06	10.8285
2938.37	10.254
2939.67	10.1271
2940.98	10.043
2942.28	9.83433
2943.58	9.41783
2944.89	8.80745
2946.19	8.96758
2947.49	8.84894
2948.8	8.35199
2950.1	7.93716
2951.4	7.7298
2952.7	7.18381
2954.01	7.53212
2955.31	7.17993
2956.61	7.053
2957.91	6.84485
2959.21	6.87829
2960.51	6.46723
2961.81	6.78736
2963.11	6.28133
2964.41	6.7707
2965.71	6.83742
2967.01	6.46634
2968.31	5.96671
2969.61	6.09865
2970.91	5.38663
2972.21	6.01122
2973.51	5.83452
2974.81	5.30587
2976.1	5.56465
2977.4	5.03337
2978.7	4.86603
2980	4.61213
2981.29	4.01906
2982.59	3.7634
2983.89	4.0286
2985.18	3.84527
2986.48	4.14173
2987.78	3.51263
2989.07	3.30638
2990.37	3.28322
2991.66	3.00655
2992.96	3.10817
2994.25	2.81489
2995.55	2.35193
2996.84	2.25358
2998.14	2.16918
2999.43	2.05716
3000.73	1.80571
3002.02	1.45707
3003.31	1.93593
3004.61	1.12596
3005.9	1.12851
3007.19	1.11649
3008.48	0.795858
3009.77	0.85226
3011.07	1.11746
3012.36	0.893229
3013.65	0.683392
3014.94	0.376837
3016.23	0.545179
3017.52	0.310468
3018.81	0.0905848
3020.1	0.0380144
3021.4	0.374337
3022.68	0.195559
3023.97	0.154929
3025.26	0.0582514
3026.55	0.294047
3027.84	0.239424
3029.13	0.227654
3030.42	-0.169283
3031.71	-0.163686
3033	0.0363607
3034.28	0.140132
3035.57	0.174423
3036.86	-0.0544777
3038.15	-0.367388
3039.43	0.158035
3040.72	0.254687
3042.01	-0.020319
3043.29	0.144106
3044.58	0.0490437
3045.87	-0.13966
3047.15	-0.31201
3048.44	0.200989
3049.72	0.142647
3051.01	0.290806
3052.29	-0.0376205
3053.58	0.0298452
3054.86	0.342355
3056.15	0.394672
3057.43	0.704944
3058.71	0.0877523
3060	0.642128
3061.28	0.325492
3062.56	0.527203
3063.84	0.798367
3065.13	0.391533
3066.41	0.734102
3067.69	0.33014
3068.97	0.429814
3070.26	0.665429
3071.54	0.519483
3072.82	0.168467
3074.1	-0.0339284
3075.38	0.225067
3076.66	0.700936
3077.94	0.281094
3079.22	0.0257273
3080.5	0.165586
3081.78	0.429275
3083.06	0.111131
3084.34	0.282269
3085.62	-0.12985
3086.9	0.258508
3088.18	-0.0730181
3089.45	-0.214987
3090.73	0.253476
3092.01	-0.417771
3093.29	-0.0575399
3094.56	0.00471306
3095.84	0.0538726
3097.12	0.279555
3098.4	0.0309358
3099.67	0.392267
3100.95	0.19815
3102.22	0.0179739
3103.5	0.149785
3104.78	0.29581
3106.05	0.158544
3107.33	0.306635
3108.6	-0.166547
3109.88	0.268312
3111.15	0.379623
3112.43	0.30234
3113.7	0.279885
3114.97	0.447426
3116.25	0.519918
3117.52	0.605385
3118.79	0.567935
3120.07	0.231268
3121.34	0.219501
3122.61	0.600408
3123.88	0.777916
3125.16	0.833855
3126.43	0.497995
3127.7	0.352639
3128.97	0.573313
3130.24	0.699869
3131.51	0.623996
3132.79	0.588861
3134.06	1.02641
3135.33	1.08528
3136.6	0.914483
3137.87	0.959399
3139.14	0.680853
3140.41	0.954785
3141.67	0.852109
3142.94	1.23389
3144.21	0.917783
3145.48	1.2202
3146.75	0.692027
3148.02	1.07655
3149.29	1.18037
