200.43	-0.0465517
202.246	-0.0133133
204.061	0.0209703
205.875	0.80996
207.688	-0.103384
209.501	0.00403881
211.316	-0.764174
213.129	0.894361
214.941	0.0996046
216.753	0.44441
218.566	0.473772
220.377	0.116263
222.188	-0.312639
223.999	-0.281043
225.809	-0.345768
227.618	0.265857
229.43	0.127947
231.239	0.158375
233.047	0.140059
234.855	0.387164
236.663	-0.208549
238.471	0.378769
240.278	-0.309207
242.087	-0.513276
243.894	0.224315
245.7	0.165933
247.506	0.443883
249.311	0.0672455
251.116	0.70152
252.921	0.343035
254.725	-0.185872
256.529	0.129037
258.333	0.0827522
260.136	0.736561
261.939	-0.00530624
263.744	0.0733938
265.546	0.0565529
267.348	-0.0324144
269.15	0.0950871
270.951	-0.115807
272.752	0.515915
274.552	0.615717
276.353	0.135228
278.152	0.568808
279.952	0.277373
281.751	0.200817
283.55	-0.0218191
285.348	0.42719
287.146	-0.0856276
288.942	-0.453719
290.739	-0.101933
292.536	0.202421
294.333	-0.0185738
296.129	0.00099659
297.925	0.0692205
299.721	0.209423
301.516	0.826946
303.311	0.177689
305.106	-0.162055
306.9	0.308504
308.694	0.658994
310.486	0.604449
312.279	0.360458
314.072	0.427592
315.864	0.258234
317.656	0.138041
319.448	0.471727
321.24	0.639833
323.029	0.617946
324.819	0.16686
326.61	0.574764
328.4	0.624465
330.19	0.673471
331.977	0.386406
333.766	0.504149
335.555	0.141224
337.343	1.18784
339.131	0.772598
340.917	0.379868
342.704	0.129992
344.491	0.644753
346.277	-0.0825491
348.062	-0.0209103
349.848	0.327537
351.633	-0.0880041
353.416	0.450511
355.201	0.391295
356.986	0.450011
358.77	0.411984
360.552	0.44425
362.335	0.285126
364.118	0.529658
365.899	0.202826
367.682	0.706491
369.464	1.04228
371.243	1.0685
373.025	0.384077
374.806	0.646053
376.585	0.270041
378.365	0.60265
380.143	0.629105
381.923	-0.0260515
383.702	-0.208715
385.479	0.57371
387.258	0.487029
389.034	0.213449
390.812	0.387074
392.59	0.937085
394.365	1.18227
396.142	0.300508
397.916	0.452064
399.693	-0.0542421
401.467	0.307996
403.242	-0.316892
405.015	0.325779
406.79	0.0752144
408.565	-0.0115499
410.337	0.535098
412.111	0.18969
413.882	0.548636
415.656	0.321522
417.426	0.822466
419.197	0.221098
420.969	0.981049
422.739	1.41228
424.51	1.65506
426.279	1.49774
428.05	1.36299
429.819	0.382683
431.589	-0.0811844
433.356	-0.310102
435.124	0.188766
436.893	0.382464
438.66	0.505055
440.428	0.203863
442.194	0.346622
443.96	0.440305
445.727	0.227531
447.492	0.458614
449.259	0.127555
451.023	0.357822
452.787	0.237782
454.553	0.491291
456.316	0.837564
458.079	-0.121057
459.844	-0.147378
461.606	0.175673
463.368	0.174274
465.132	-0.103848
466.893	0.131752
468.654	0.0444269
470.415	0.121477
472.177	0.362045
473.937	0.0666838
475.696	0.770953
477.456	0.774621
479.217	0.217374
480.975	0.311393
482.733	0.195852
484.491	0.197765
486.251	0.690619
488.008	0.603148
489.765	0.0510101
491.522	0.269273
493.278	0.418402
495.036	0.474438
496.791	0.553869
498.546	0.91431
500.301	0.782465
502.056	0.532393
503.81	0.633385
505.566	0.733415
507.319	0.526509
509.073	0.788436
510.825	0.884236
512.578	0.437276
514.33	-0.0346413
516.082	-0.0371761
517.833	1.04097
519.587	0.448274
521.337	0.231305
523.088	0.460271
524.838	0.242806
526.588	0.682367
528.337	0.933893
530.087	-0.0569935
531.835	0.334672
533.584	0.39742
535.332	-0.312887
537.08	0.238669
538.827	0.297617
540.574	0.868365
542.321	0.481981
544.068	0.0495977
545.814	0.315283
547.56	0.673306
549.305	0.126606
551.05	0.113914
552.795	0.124523
554.54	0.297009
556.284	0.44628
558.027	0.295809
559.771	-0.522074
561.514	0.0200958
563.257	-0.128166
564.999	0.367883
566.742	-0.0549755
568.481	-0.0174627
570.223	-0.300343
571.964	0.175228
573.705	-0.0819426
575.445	0.396572
577.185	0.257259
578.925	0.555257
580.665	0.463825
582.402	0.372415
584.141	0.25744
585.879	-0.364534
587.617	0.507279
589.355	0.457983
591.092	-0.0983915
592.828	-0.057065
594.564	-0.0619154
596.301	0.0713043
598.037	-0.140606
599.773	-0.122763
601.506	0.400425
603.242	-0.0436735
604.976	-0.0750093
606.711	-0.130477
608.443	-0.163653
610.177	0.583367
611.91	-0.000425339
613.644	-0.0326653
615.374	-0.0642519
617.107	-0.164388
618.839	-0.471005
620.569	0.82406
622.3	-0.0339012
624.032	0.068593
625.761	0.125239
627.491	-0.136879
629.221	-0.168792
630.949	0.12086
632.679	0.115727
634.408	-0.00251293
636.135	-0.258001
637.863	0.215461
639.592	0.549395
641.318	0.310019
643.045	0.068655
644.77	-0.492202
646.497	0.540513
648.224	0.25491
649.948	0.0861406
651.674	0.0572643
653.398	0.486565
655.123	0.191628
656.846	0.330968
658.57	0.175221
660.293	0.657696
662.017	0.203275
663.738	-0.0254183
665.462	0.31503
667.185	0.516697
668.905	0.923546
670.628	0.896548
672.348	0.66549
674.067	0.528155
675.789	0.301002
677.508	0.579395
679.228	0.100622
680.947	0.539612
682.667	0.195457
684.385	0.401368
686.104	0.605588
687.821	0.324735
689.538	0.641688
691.256	0.151744
692.972	0.605659
694.69	0.252684
696.406	0.566726
698.121	0.695326
699.837	0.316386
701.552	0.787682
703.268	1.57925
704.982	0.899141
706.695	0.74736
708.41	0.824714
710.123	0.512074
711.836	1.06957
713.55	0.916709
715.262	0.99247
716.973	0.15478
718.685	0.527692
720.398	0.877308
722.108	0.657207
723.818	1.37041
725.53	0.468212
727.24	0.952847
728.949	0.800835
730.658	0.716695
732.369	0.654993
734.077	0.525377
735.785	1.68441
737.493	1.26091
739.2	0.342565
740.909	1.18493
742.616	0.630632
744.322	1.29404
746.028	0.495479
747.734	0.553693
749.441	1.04049
751.146	0.0440178
752.851	1.27552
754.555	1.38385
756.26	1.3137
757.963	1.06492
759.667	0.929955
761.372	0.322455
763.075	0.93298
764.777	1.29584
766.479	0.731767
768.181	1.49911
769.883	1.51871
771.584	0.835279
773.285	1.37157
774.986	1.07073
776.686	1.26785
778.386	0.90095
780.085	1.16865
781.785	1.98057
783.484	1.72956
785.182	1.04725
786.881	1.08699
788.579	1.23693
790.276	1.1122
791.974	1.61787
793.671	2.12105
795.367	1.85599
797.064	1.34442
798.76	1.12805
800.456	1.40889
802.151	1.73586
803.846	0.961308
805.541	0.996553
807.236	1.50289
808.93	1.80546
810.624	1.52301
812.317	1.10551
814.01	1.62918
815.703	1.43537
817.394	1.48792
819.086	1.83098
820.778	0.990143
822.47	2.06993
824.161	2.01178
825.852	2.31169
827.543	1.34391
829.231	1.64877
830.921	1.51117
832.611	1.66597
834.3	1.26576
835.989	1.33453
837.676	0.66675
839.364	1.44862
841.053	1.11279
842.74	0.753172
844.426	0.705798
846.113	1.24015
847.8	1.21752
849.486	0.570756
851.171	2.05259
852.857	1.14083
854.542	1.55198
856.227	1.06542
857.911	0.824167
859.595	0.580987
861.279	0.290787
862.961	0.336745
864.645	1.12533
866.329	0.718767
868.01	0.627092
869.692	0.534973
871.375	0.600451
873.055	1.3426
874.737	1.27261
876.418	0.61589
878.097	0.974676
879.778	0.430567
881.457	1.03736
883.137	0.717962
884.817	0.916788
886.495	1.29482
888.174	1.06195
889.851	1.23368
891.53	0.97557
893.206	1.23452
894.884	0.906877
896.562	0.466411
898.237	0.654711
899.914	1.1782
901.589	0.601892
903.265	0.205475
904.94	1.21786
906.615	1.29047
908.289	0.226541
909.964	0.279319
911.637	2.00131
913.31	0.675818
914.984	0.86307
916.656	0.584211
918.33	0.549611
920.001	0.692341
921.674	1.27777
923.345	1.53179
925.015	0.815138
926.687	0.498488
928.357	0.426488
930.028	0.488095
931.698	0.351781
933.366	0.39227
935.037	0.344698
936.705	0.606315
938.373	0.14092
940.043	0.250059
941.71	0.625077
943.379	0.118342
945.046	0.427903
946.712	0.074357
948.378	0.646265
950.046	0.885222
951.711	0.218341
953.376	0.213573
955.043	0.166095
956.708	0.628296
958.372	0.431952
960.036	0.370478
961.701	0.332493
963.364	0.272289
965.027	0.0335875
966.69	0.610931
968.354	0.455727
970.016	0.254327
971.678	0.538795
973.339	0.624538
975	0.556831
976.661	0.689888
978.324	0.51475
979.984	0.2406
981.644	-0.0340252
983.303	0.896589
984.962	0.873555
986.621	1.53463
988.282	0.489923
989.94	0.48427
991.598	-0.0523853
993.256	-0.146821
994.913	0.465327
996.57	-0.136495
998.227	0.783756
999.884	0.556866
1001.54	0.638208
1003.2	0.124871
1004.85	0.689529
1006.51	0.659944
1008.16	0.367015
1009.82	0.338146
1011.47	0.419388
1013.12	0.522887
1014.78	0.320002
1016.43	0.446115
1018.08	0.113111
1019.74	-0.000134468
1021.39	0.543561
1023.04	0.169971
1024.69	0.256382
1026.34	0.91149
1028	0.299227
1029.65	0.145346
1031.3	0.689323
1032.95	0.40185
1034.6	0.505847
1036.25	1.67671
1037.9	0.383276
1039.55	0.506689
1041.19	0.8698
1042.84	0.538101
1044.49	0.577786
1046.14	0.423824
1047.79	0.619204
1049.43	0.338367
1051.08	-0.0499125
1052.73	0.235903
1054.37	0.696042
1056.02	0.395702
1057.66	0.138464
1059.31	0.598203
1060.95	0.622571
1062.6	0.146087
1064.24	0.36458
1065.88	0.321188
1067.53	0.0377474
1069.17	0.340205
1070.81	0.207495
1072.46	0.899632
1074.1	0.202994
1075.74	0.245305
1077.38	0.245456
1079.02	0.441941
1080.66	0.530728
1082.3	0.250908
1083.94	0.252205
1085.58	0.468805
1087.22	0.315017
1088.86	0.246087
1090.5	0.392008
1092.14	0.298778
1093.78	0.118866
1095.42	0.522
1097.05	-0.131085
1098.69	0.20896
1100.33	0.227262
1101.97	0.892867
1103.6	0.462641
1105.24	0.141405
1106.87	0.315475
1108.51	0.33872
1110.15	0.10297
1111.78	0.940567
1113.41	0.207694
1115.05	-0.0102568
1116.68	0.67254
1118.31	0.432677
1119.95	0.472282
1121.58	0.427145
1123.21	0.126234
1124.85	0.0190439
1126.48	0.0838337
1128.11	0.534238
1129.74	0.8355
1131.37	0.00416565
1133	-0.0143871
1134.63	-0.18267
1136.26	-0.0522356
1137.89	-0.200548
1139.52	0.184166
1141.15	0.37549
1142.78	0.310085
1144.41	0.202207
1146.04	0.0311108
1147.66	-0.160284
1149.29	0.0114174
1150.92	0.48169
1152.55	-0.0278015
1154.17	0.314237
1155.8	0.0385103
1157.43	-0.0882215
1159.05	-0.320903
1160.68	0.404197
1162.3	-0.52835
1163.93	0.113473
1165.55	0.415579
1167.17	0.185925
1168.8	-0.384806
1170.42	0.0421658
1172.05	-0.382689
1173.67	-0.129224
1175.29	0.441016
1176.91	0.416321
1178.54	0.349481
1180.16	0.177554
1181.78	0.0701466
1183.4	0.344041
1185.02	-0.24863
1186.64	0.615616
1188.26	0.168943
1189.88	0.20606
1191.5	-0.242858
1193.12	0.737703
1194.74	0.0771561
1196.36	0.445806
1197.97	0.186171
1199.59	0.598006
1201.21	0.196358
1202.83	-0.0351534
1204.44	-0.138845
1206.06	0.1976
1207.68	0.389115
1209.29	0.434851
1210.91	0.89697
1212.52	0.16883
1214.14	0.731261
1215.75	1.02013
1217.37	0.287418
1218.98	0.427987
1220.6	0.526616
1222.21	0.0242682
1223.82	0.995109
1225.44	0.475098
1227.05	0.557285
1228.66	0.744117
1230.27	0.952677
1231.88	1.38965
1233.49	1.16631
1235.1	1.29556
1236.72	0.950633
1238.33	0.813325
1239.94	1.23492
1241.55	0.829579
1243.16	1.0237
1244.76	0.782637
1246.37	0.726811
1247.98	1.3115
1249.59	0.881537
1251.2	1.29955
1252.8	1.77972
1254.41	1.26771
1256.02	1.97715
1257.63	1.55018
1259.23	1.14489
1260.84	0.80233
1262.44	0.936238
1264.05	0.925278
1265.66	1.07972
1267.26	0.839725
1268.87	0.826794
1270.47	1.87033
1272.07	1.2749
1273.68	0.865111
1275.28	1.71892
1276.88	1.68032
1278.48	1.72379
1280.09	1.78729
1281.69	1.45719
1283.29	1.47916
1284.89	1.62572
1286.49	1.60766
1288.09	1.56998
1289.69	1.47123
1291.3	2.01357
1292.9	1.33671
1294.49	2.12604
1296.09	2.45935
1297.69	1.96499
1299.29	1.92331
1300.89	2.06569
1302.49	1.87698
1304.09	1.91401
1305.68	1.86798
1307.28	1.88315
1308.88	1.85694
1310.47	1.4824
1312.07	1.23185
1313.66	2.12782
1315.26	1.24539
1316.86	1.48832
1318.45	1.54781
1320.05	1.79059
1321.64	1.48212
1323.23	1.60008
1324.83	1.85837
1326.42	2.05371
1328.01	1.49786
1329.61	1.6931
1331.2	1.50515
1332.79	1.68344
1334.38	1.62135
1335.98	1.23809
1337.57	1.48102
1339.16	1.40056
1340.75	1.80204
1342.34	1.59705
1343.93	1.87294
1345.52	1.64517
1347.11	0.716218
1348.7	1.81392
1350.29	0.770553
1351.87	1.09109
1353.46	0.913399
1355.05	1.2767
1356.64	1.56025
1358.23	1.08413
1359.81	1.10667
1361.4	1.10822
1362.99	1.24861
1364.57	1.48816
1366.16	1.07014
1367.74	1.13126
1369.33	0.855032
1370.91	1.1375
1372.5	1.00329
1374.08	1.24819
1375.67	0.797298
1377.25	0.625055
1378.83	0.75085
1380.42	1.09458
1382	1.1187
1383.58	1.18134
1385.16	1.64051
1386.75	0.98623
1388.33	0.928428
1389.91	0.851422
1391.49	0.775286
1393.07	0.997478
1394.65	1.29926
1396.23	0.668778
1397.81	1.22737
1399.39	1.0911
1400.97	1.36995
1402.55	0.816569
1404.13	1.51011
1405.7	1.51132
1407.28	0.841353
1408.86	1.08155
1410.44	1.1048
1412.01	1.34521
1413.59	0.874276
1415.17	1.19212
1416.74	0.700303
1418.32	0.760516
1419.89	0.761838
1421.47	1.05945
1423.05	0.925219
1424.62	1.12713
1426.19	0.975912
1427.77	0.82519
1429.34	1.50091
1430.92	1.72304
1432.49	1.45204
1434.06	1.0425
1435.63	2.24545
1437.2	2.42548
1438.78	1.30883
1440.35	1.51032
1441.92	2.06641
1443.49	1.67983
1445.06	1.98149
1446.63	1.98852
1448.2	1.93672
1449.77	2.25869
1451.34	2.14863
1452.91	1.5474
1454.48	1.83144
1456.05	1.95818
1457.62	1.96627
1459.18	1.796
1460.75	1.87989
1462.32	1.66683
1463.89	1.88496
1465.45	1.39422
1467.02	1.70905
1468.59	1.35632
1470.15	1.14212
1471.72	1.34107
1473.28	1.36437
1474.85	1.6237
1476.41	0.942225
1477.98	1.14321
1479.54	1.57931
1481.11	0.0356302
1482.67	0.510764
1484.23	0.770094
1485.8	0.75476
1487.36	0.95418
1488.92	0.917348
1490.48	0.97671
1492.05	0.388807
1493.61	0.913375
1495.17	0.498723
1496.73	0.551738
1498.29	0.215194
1499.85	0.987747
1501.41	0.43935
1502.97	0.727059
1504.53	0.00749397
1506.09	0.83808
1507.65	1.00903
1509.2	0.772996
1510.76	0.420667
1512.32	0.704371
1513.88	0.582822
1515.44	0.711593
1516.99	0.706176
1518.55	1.27674
1520.1	0.678137
1521.66	0.310616
1523.22	0.841966
1524.77	0.970472
1526.33	0.811728
1527.88	0.519257
1529.44	0.759498
1530.99	1.09394
1532.55	0.517778
1534.1	0.985432
1535.65	1.05566
1537.21	1.12661
1538.76	1.2358
1540.31	0.930282
1541.86	1.17176
1543.42	0.753954
1544.97	1.05124
1546.52	1.25381
1548.07	0.836617
1549.62	1.60109
1551.17	1.54028
1552.72	1.3117
1554.27	0.934875
1555.82	1.51238
1557.37	1.40016
1558.92	1.90562
1560.47	1.87165
1562.02	1.91389
1563.57	1.73335
1565.11	1.94516
1566.66	1.8772
1568.21	2.08895
1569.75	2.02036
1571.3	1.50336
1572.85	1.8074
1574.39	1.84994
1575.94	1.92983
1577.49	2.14058
1579.03	1.86633
1580.58	2.02207
1582.12	2.58949
1583.67	1.83164
1585.21	2.23268
1586.75	1.62493
1588.3	1.87717
1589.84	1.79261
1591.38	1.96961
1592.93	2.35223
1594.47	1.85445
1596.01	2.1433
1597.55	1.88918
1599.09	1.86049
1600.63	2.00126
1602.18	1.86108
1603.72	1.58928
1605.26	1.63596
1606.8	2.39554
1608.34	2.02579
1609.87	1.93569
1611.41	1.3173
1612.95	1.69293
1614.49	2.02935
1616.03	1.70844
1617.57	1.18216
1619.11	1.18205
1620.64	1.48289
1622.18	1.67247
1623.72	1.67553
1625.25	1.77221
1626.79	1.98044
1628.32	2.05634
1629.86	1.55112
1631.4	2.29761
1632.93	1.49253
1634.47	1.67801
1636	1.73341
1637.53	1.45391
1639.07	2.16329
1640.6	1.49307
1642.14	1.77289
1643.67	2.21901
1645.2	2.53317
1646.73	2.41828
1648.27	1.83868
1649.8	2.5786
1651.33	1.85251
1652.86	2.20414
1654.39	2.16719
1655.92	1.85286
1657.45	2.33541
1658.98	1.87226
1660.51	2.29688
1662.04	2.10908
1663.57	1.60617
1665.1	1.56526
1666.63	2.35521
1668.16	1.59583
1669.69	1.63134
1671.21	1.55762
1672.74	1.76124
1674.27	1.30224
1675.79	1.48763
1677.32	1.61697
1678.85	0.898992
1680.37	0.98978
1681.9	1.30027
1683.42	1.72022
1684.95	1.18544
1686.47	1.12845
1688	1.03525
1689.52	1.12567
1691.05	0.868328
1692.57	0.355093
1694.1	0.592244
1695.62	0.463361
1697.14	0.608467
1698.66	0.789628
1700.19	0.349685
1701.71	0.475235
1703.23	0.764129
1704.75	0.797148
1706.27	0.629546
1707.79	0.334712
1709.32	0.203767
1710.83	0.218283
1712.35	0.305433
1713.88	0.501258
1715.39	0.0994163
1716.91	0.385506
1718.43	-0.268791
1719.95	0.179453
1721.47	0.0857835
1722.99	0.209046
1724.5	-0.117485
1726.02	0.295685
1727.54	-0.064445
1729.06	0.422214
1730.57	0.0484996
1732.09	0.445232
1733.61	0.231699
1735.12	0.129659
1736.64	-0.0447631
1738.15	-0.10079
1739.67	0.623139
1741.18	0.41004
1742.7	0.438483
1744.21	0.0704107
1745.72	0.332181
1747.24	-0.0841885
1748.75	0.525887
1750.26	0.588966
1751.78	0.477414
1753.29	0.388228
1754.8	-0.0696702
1756.31	0.590034
1757.82	0.154857
1759.34	0.323241
1760.85	0.136825
1762.36	0.140276
1763.87	0.177483
1765.38	0.141438
1766.89	0.204769
1768.4	0.168117
1769.91	0.203762
1771.41	0.178968
1772.92	0.147188
1774.43	-0.0438185
1775.94	0.06949
1777.45	-0.191973
1778.96	0.670727
1780.46	0.453438
1781.97	0.280789
1783.48	-0.0483479
1784.98	-0.0518794
1786.49	0.139726
1788	0.00843954
1789.5	0.423689
1791.01	-0.120045
1792.51	0.129551
1794.01	0.201156
1795.52	0.3073
1797.02	0.131977
1798.53	0.221727
1800.03	-0.0572734
1801.54	0.199878
1803.04	0.0617685
1804.54	0.0201058
1806.04	-0.227952
1807.54	-0.0318027
1809.05	0.208851
1810.55	-0.348266
1812.05	0.146929
1813.55	0.201972
1815.05	-0.41609
1816.55	0.202338
1818.05	0.0030055
1819.55	0.101265
1821.05	0.184556
1822.55	0.00570059
1824.05	0.0468836
1825.55	0.24195
1827.05	-0.211242
1828.55	-0.0601726
1830.04	0.264356
1831.54	0.0231609
1833.04	-0.214078
1834.54	0.0602865
1836.03	-0.239468
1837.53	0.0344357
1839.03	0.060885
1840.52	-0.0458808
1842.02	-0.17824
1843.51	0.459981
1845.01	0.320465
1846.5	0.0263867
1848	0.136635
1849.49	0.303634
1850.99	0.0477457
1852.48	0.248854
1853.97	-0.131985
1855.47	-0.0471931
1856.96	0.21342
1858.45	0.0249767
1859.94	0.25539
1861.44	-0.109685
1862.93	0.0735283
1864.42	-0.244046
1865.91	-0.013133
1867.4	-0.110272
1868.89	-0.00345755
1870.38	0.264317
1871.87	0.219795
1873.36	0.234813
1874.85	0.181219
1876.34	-0.144437
1877.83	-0.114014
1879.32	-0.00311804
1880.81	0.103974
1882.3	0.122909
1882.56	0.123211
1884.06	-0.000142097
1885.55	-0.0195179
1887.04	-0.161521
1888.54	0.322877
1890.03	-0.393538
1891.52	-0.238951
1893.02	0.108083
1894.51	-0.0476394
1896	0.371694
1897.49	0.00924683
1898.99	0.0466266
1900.48	0.117944
1901.97	0.292251
1903.46	0.238884
1904.95	-0.145957
1906.44	0.424499
1907.93	0.143462
1909.42	0.036788
1910.91	0.434159
1912.4	0.39841
1913.89	0.363156
1915.38	-0.157548
1916.86	0.119156
1918.35	0.0832925
1919.84	0.306966
1921.33	0.184009
1922.82	0.0441637
1924.3	-0.285313
1925.79	-0.0425234
1927.28	0.253077
1928.76	0.16835
1930.25	0.170135
1931.74	0.188539
1933.22	0.326899
1934.71	0.238632
1936.19	-0.0413055
1937.67	0.0065999
1939.16	-0.084157
1940.64	0.585198
1942.13	-0.281387
1943.61	0.147464
1945.09	-0.164787
1946.58	-0.26968
1948.06	-0.0645089
1949.54	0.174338
1951.03	0.102199
1952.51	0.0637794
1953.99	0.0593162
1955.47	0.226628
1956.95	-0.241314
1958.43	0.0641704
1959.91	0.181253
1961.39	0.127217
1962.87	0.227647
1964.35	-0.117625
1965.83	0.221969
1967.31	0.457925
1968.79	0.128585
1970.27	-0.14954
1971.75	0.0165849
1973.22	-0.00532436
1974.7	-0.129454
1976.18	0.292131
1977.66	0.0831022
1979.13	0.12974
1980.61	0.346382
1982.09	0.205617
1983.56	0.0308247
1985.04	0.450048
1986.52	0.0543432
1987.99	0.0998545
1989.47	0.0947595
1990.94	0.0225568
1992.41	-0.150244
1993.89	0.185105
1995.36	0.41948
1996.84	0.231732
1998.31	-0.00660419
1999.78	0.092495
2001.26	0.15725
2002.73	-0.0652037
2004.2	0.285616
2005.67	-0.0207443
2007.15	0.0948577
2008.62	-0.176104
2010.09	0.109335
2011.56	0.159454
2013.03	0.0412865
2014.5	0.0574141
2015.97	0.19065
2017.44	0.104391
2018.91	0.252848
2020.38	-0.0697522
2021.85	0.598658
2023.32	-0.277515
2024.79	0.173207
2026.25	0.138207
2027.72	-0.180683
2029.19	0.0887127
2030.66	0.174758
2032.13	-0.0907478
2033.59	0.0636487
2035.06	0.0166087
2036.53	-0.0139832
2037.99	-0.179464
2039.46	-0.160464
2040.92	-0.0742569
2042.39	0.0291252
2043.85	-0.186379
2045.32	0.524193
2046.78	-0.0265956
2048.25	-0.358736
2049.71	0.134353
2051.18	0.0874743
2052.64	0.0392599
2054.1	0.0401106
2055.56	0.545382
2057.03	0.290634
2058.49	0.507203
2059.95	0.167638
2061.42	0.182277
2062.88	0.281768
2064.34	0.297934
2065.8	-0.156248
2067.26	0.26539
2068.72	0.182655
2070.18	0.453662
2071.64	0.421756
2073.1	0.339202
2074.56	0.660541
2076.02	0.324869
2077.48	0.140419
2078.94	0.191397
2080.39	0.444043
2081.85	0.76349
2083.31	0.307926
2084.77	0.45775
2086.22	0.590012
2087.68	0.587111
2089.14	0.398982
2090.6	0.479622
2092.05	1.01339
2093.51	0.942463
2094.96	0.6869
2096.42	0.917212
2097.87	0.64418
2099.33	0.839578
2100.78	0.883896
2102.24	0.844814
2103.69	0.105227
2105.15	1.22013
2106.6	0.96731
2108.05	0.949123
2109.51	0.864544
2110.96	0.929532
2112.41	1.07657
2113.86	1.13861
2115.32	1.1658
2116.77	0.826387
2118.22	0.85329
2119.67	0.831578
2121.12	1.0273
2122.57	1.22465
2124.02	1.52277
2125.47	1.30742
2126.92	1.5395
2128.37	1.19036
2129.82	1.53607
2131.27	1.79743
2132.72	1.32944
2134.17	1.52368
2135.62	1.58621
2137.06	1.86499
2138.51	1.64971
2139.96	2.1139
2141.41	1.73682
2142.85	2.22057
2144.3	1.51422
2145.75	2.0156
2147.19	2.3184
2148.64	1.77606
2150.09	2.04433
2151.53	2.262
2152.97	1.8822
2154.42	2.18091
2155.86	2.16435
2157.31	2.21414
2158.75	2.54627
2160.2	2.11777
2161.64	2.304
2163.08	2.44253
2164.53	2.33393
2165.97	2.40866
2167.41	2.06802
2168.86	2.47398
2170.3	2.39619
2171.74	2.74871
2173.18	2.45046
2174.62	2.31717
2176.06	2.43281
2177.5	2.24934
2178.94	2.24958
2180.38	2.38382
2181.82	2.85152
2183.26	2.00621
2184.7	2.02579
2186.14	2.39482
2187.58	2.13172
2189.02	2.2347
2190.46	2.20454
2191.89	2.19074
2193.33	1.94308
2194.77	1.77735
2196.21	1.84294
2197.64	1.57379
2199.08	2.23441
2200.52	2.07898
2201.95	1.55841
2203.39	1.81898
2204.83	1.89791
2206.26	1.71261
2207.7	1.36231
2209.13	1.90633
2210.57	1.75392
2212	1.55108
2213.43	1.57921
2214.87	1.4255
2216.3	1.47066
2217.73	0.955952
2219.17	1.59719
2220.6	1.49695
2222.03	1.3804
2223.47	1.18087
2224.9	1.45775
2226.33	1.25546
2227.76	1.33143
2229.19	1.22539
2230.62	0.790771
2232.05	0.668281
2233.49	1.23377
2234.91	0.58879
2236.34	0.991621
2237.77	0.742261
2239.2	0.739648
2240.63	0.706196
2242.06	0.83745
2243.49	0.480494
2244.92	0.596829
2246.35	0.761518
2247.78	0.777987
2249.2	0.727313
2250.63	0.397784
2252.06	0.848545
2253.48	0.289563
2254.91	0.787912
2256.34	0.621142
2257.76	0.18083
2259.19	0.116325
2260.61	0.735714
2262.04	0.27005
2263.46	0.4874
2264.89	0.656504
2266.31	0.532782
2267.74	0.701069
2269.16	0.3479
2270.59	0.205461
2272.01	0.583582
2273.43	0.489427
2274.85	0.721108
2276.28	0.219864
2277.7	0.33785
2279.12	0.635284
2280.54	0.3947
2281.97	0.545352
2283.39	0.386029
2284.81	0.242987
2286.23	0.23065
2287.65	0.202294
2289.07	0.386631
2290.49	0.359035
2291.91	0.200884
2293.33	0.337077
2294.75	0.162501
2296.17	0.298714
2297.59	0.435003
2299.01	0.129125
2300.42	0.183723
2301.84	0.418992
2303.26	0.195367
2304.68	0.2507
2306.1	0.486692
2307.51	-0.213977
2308.93	-0.0937924
2310.35	0.256234
2311.76	0.162034
2313.18	-0.146145
2314.59	0.204207
2316.01	-0.0538235
2317.43	0.215755
2318.84	-0.536063
2320.26	0.063592
2321.67	0.332889
2323.08	0.0561042
2324.5	0.18994
2325.91	0.684802
2327.33	1.01289
2328.74	0.367609
2330.15	0.299728
2331.56	0.364393
2332.98	0.216018
2334.39	0.512705
2335.8	0.118549
2337.21	0.102458
2338.62	-0.24323
2340.04	0.051312
2341.45	-0.00010252
2342.86	0.0302038
2344.27	-0.070745
2345.68	0.222003
2347.09	0.0232673
2348.5	0.0867004
2349.91	-0.0629244
2351.31	0.27741
2352.72	-0.379891
2354.13	-0.0251193
2355.54	0.0350013
2356.95	-0.100653
2358.36	0.0729933
2359.76	-0.484738
2361.17	0.0299535
2362.58	0.0895972
2363.98	0.165228
2365.39	0.0465174
2366.8	0.0251913
2368.21	0.165864
2369.61	-0.144503
2371.02	0.0786247
2372.42	0.109258
2373.83	-0.165257
2375.23	0.252904
2376.64	0.380776
2378.04	0.234229
2379.44	0.0544276
2380.85	0.178548
2382.25	-0.147726
2383.66	0.21468
2385.06	0.160143
2386.46	-0.0057354
2387.86	-0.170492
2389.26	0.224081
2390.67	-0.129717
2392.07	0.0751605
2393.47	0.423829
2394.87	-0.149562
2396.27	0.295564
2397.67	-0.0696111
2399.07	0.0107799
2400.47	0.091548
2401.87	0.109015
2403.27	-0.127584
2404.67	0.0325475
2406.07	-0.331936
2407.47	0.271
2408.87	0.222509
2410.27	0.0152926
2411.67	0.0936556
2413.07	0.10929
2414.46	0.410965
2415.86	0.191393
2417.26	0.162929
2418.66	0.436064
2420.05	-0.129776
2421.45	0.365375
2422.84	0.0840931
2424.24	0.119408
2425.64	0.15479
2427.03	0.158923
2428.43	-0.0264516
2429.82	0.217038
2431.22	0.31852
2432.61	0.372584
2434.01	0.219779
2435.4	0.542516
2436.79	0.0855408
2438.19	0.231012
2439.58	0.152983
2440.97	0.0265985
2442.37	0.217343
2443.76	0.439447
2445.15	0.486746
2446.54	-0.163714
2447.93	-0.163973
2449.33	0.0416818
2450.72	0.247348
2452.11	0.453311
2453.5	0.0901937
2454.89	0.155097
2456.28	-0.0325375
2457.67	-0.0458937
2459.06	-0.170095
2460.45	-0.1524
2461.84	0.022747
2463.23	0.276179
2464.62	0.212956
2466	0.481175
2467.39	0.196602
2468.78	0.00690842
2470.17	-0.0881515
2471.55	0.131761
2472.94	0.224833
2474.33	0.00230694
2475.72	0.487417
2477.1	0.217032
2478.49	-0.0215397
2479.87	0.101318
2481.26	-0.308974
2482.65	0.14301
2484.03	0.312095
2485.42	0.182981
2486.8	-0.0561752
2488.19	0.281662
2489.57	-0.332557
2490.95	-0.213816
2492.34	0.324737
2493.72	-0.13077
2495.1	-0.0103168
2496.49	0.172945
2497.87	-0.247418
2499.25	0.493859
2500.63	0.120183
2502.02	0.132785
2503.4	0.144557
2504.78	-0.230044
2506.16	0.227669
2507.54	0.222466
2508.92	0.017539
2510.3	-0.125165
2511.68	-0.405139
2513.06	0.00578356
2514.44	0.156343
2515.82	0.230877
2517.2	0.0918136
2518.58	-0.000784397
2519.96	-0.0473084
2521.34	-0.0940018
2522.72	0.0114594
2524.1	-0.0974326
2525.47	0.0980706
2526.85	-0.0724096
2528.23	-0.0140476
2529.6	-0.36542
2530.98	0.287917
2532.36	0.304034
2533.74	-0.0889196
2535.11	0.126441
2536.49	-0.0228662
2537.86	-0.0359859
2539.24	0.314623
2540.61	-0.21624
2541.99	0.193958
2543.36	-0.108976
2544.74	0.468735
2546.11	0.288951
2547.49	-0.0263233
2548.86	-0.0830846
2550.23	0.376097
2551.61	0.0610161
2552.98	0.0790243
2554.35	0.202413
2555.72	0.0519357
2557.09	0.128595
2558.47	-0.0981493
2559.84	0.0999017
2561.21	0.10127
2562.58	0.345632
2563.95	0.0600567
2565.32	-0.119081
2566.69	0.0808258
2568.06	-0.0677462
2569.43	-0.428516
2570.8	0.362595
2572.17	-0.134575
2573.54	0.141346
2574.91	0.478023
2576.28	-0.125211
2577.65	-0.304061
2579.02	0.138572
2580.39	0.292842
2581.75	-0.0384426
2583.12	0.357761
2584.49	0.495978
2585.85	-0.229892
2587.22	0.423734
2588.59	0.15292
2589.95	-0.08746
2591.32	0.217608
2592.68	0.279797
2594.05	0.20495
2595.42	0.0384412
2596.78	-0.00767803
2598.15	0.127149
2599.51	-0.312986
2600.88	0.229614
2602.24	0.334078
2603.6	0.16729
2604.97	0.212345
2606.33	0.151927
2607.69	0.0611191
2609.06	0.0601258
2610.42	0.148521
2611.78	0.175508
2613.14	-0.069149
2614.51	0.181735
2615.87	-0.093277
2617.23	0.00721025
2618.59	-0.461102
2619.95	0.0895066
2621.31	-0.227395
2622.67	0.188711
2624.03	0.201273
2625.39	0.0197783
2626.75	0.226028
2628.11	0.3721
2629.47	0.145464
2630.83	0.127293
2632.19	0.317176
2633.55	0.179928
2634.91	-0.0906997
2636.26	0.17295
2637.62	0.258348
2638.98	-0.0561104
2640.34	-0.192417
2641.69	0.35171
2643.05	0.0827737
2644.41	0.139115
2645.76	0.180557
2647.12	0.0152235
2648.48	-0.0620399
2649.83	0.183921
2651.19	0.267138
2652.54	-0.208112
2653.9	0.212688
2655.25	0.149613
2656.6	-0.26396
2657.96	0.260657
2659.31	0.0247059
2660.67	-0.210691
2662.02	-0.109861
2663.37	0.0634131
2664.73	0.119044
2666.08	0.232322
2667.43	0.272161
2668.78	0.166249
2670.14	0.0607309
2671.49	0.0430298
2672.84	-0.0467982
2674.19	0.125359
2675.54	0.138134
2676.89	0.209392
2678.24	0.28113
2679.59	0.324516
2680.94	0.136784
2682.29	0.0515218
2683.64	0.344212
2684.99	0.17366
2686.34	-0.28684
2687.69	0.181145
2689.04	0.314494
2690.39	0.591629
2691.74	0.591362
2693.08	0.270611
2694.43	0.224871
2695.78	0.222516
2697.13	-0.0545592
2698.47	0.219874
2699.82	-0.0401812
2701.17	0.42517
2702.51	-0.150975
2703.86	0.316626
2705.21	0.263134
2706.55	0.253131
2707.9	0.300941
2709.24	0.450069
2710.58	0.0907054
2711.93	0.0649948
2713.27	0.402432
2714.62	0.449297
2715.96	0.379807
2717.3	0.528308
2718.65	0.342066
2719.99	0.490093
2721.33	0.739657
2722.68	0.275665
2724.02	0.393429
2725.36	0.0159383
2726.71	0.220355
2728.05	0.191617
2729.39	0.308206
2730.73	0.541044
2732.07	0.526465
2733.41	0.206472
2734.75	0.264863
2736.09	0.396122
2737.43	0.294765
2738.77	0.193388
2740.11	0.251775
2741.45	0.353367
2742.79	0.178177
2744.13	0.0751667
2745.47	-0.231663
2746.81	0.260089
2748.14	0.243238
2749.48	0.327991
2750.82	0.122772
2752.16	0.164362
2753.49	0.336536
2754.83	0.0451155
2756.17	0.289864
2757.5	0.18709
2758.84	-0.00228262
2760.18	0.50343
2761.51	0.285827
2762.85	0.0831251
2764.18	-0.19166
2765.52	-0.191545
2766.85	0.0541391
2768.19	0.226677
2769.52	0.267925
2770.86	-0.255649
2772.19	0.0434933
2773.52	0.240358
2774.86	-0.0248799
2776.19	0.0559969
2777.52	0.194573
2778.86	-0.0261316
2780.19	0.256835
2781.52	0.0801334
2782.85	-0.110628
2784.19	0.200751
2785.52	0.454367
2786.85	0.407033
2788.18	0.116829
2789.51	0.25678
2790.84	0.1256
2792.17	0.1524
2793.5	0.00800562
2794.83	0.363904
2796.16	0.10495
2797.49	-0.240005
2798.82	0.0859098
2800.15	0.12577
2801.48	-0.191256
2802.81	-0.066143
2804.13	-0.226386
2805.46	-0.201654
2806.79	0.078753
2808.12	0.0453668
2809.45	0.111171
2810.77	0.0348873
2812.1	0.399111
2813.43	0.2107
2814.75	0.392259
2816.08	-0.147996
2817.41	0.446638
2818.73	0.0212064
2820.06	0.33279
2821.38	-0.44733
2822.71	0.0475712
2824.03	0.130929
2825.36	0.0581608
2826.68	0.296996
2828	0.168031
2829.33	0.478411
2830.65	0.237039
2831.98	0.250646
2833.3	0.320811
2834.62	0.362387
2835.94	0.54506
2837.27	0.727213
2838.59	0.795741
2839.91	0.963043
2841.23	1.17276
2842.55	1.35447
2843.87	1.48017
2845.2	1.70541
2846.52	1.83228
2847.84	2.03015
2849.16	1.67682
2850.48	1.71894
2851.8	2.19875
2853.12	2.01379
2854.44	1.65893
2855.76	1.82677
2857.08	1.69787
2858.39	1.97866
2859.71	1.80743
2861.03	2.15853
2862.35	2.2551
2863.67	1.9702
2864.98	2.3766
2866.3	2.40189
2867.62	2.80816
2868.94	2.67887
2870.25	3.28308
2871.57	3.32341
2872.88	3.61713
2874.2	3.20548
2875.52	3.21562
2876.83	3.23878
2878.15	3.75364
2879.46	3.64888
2880.78	3.4321
2882.09	3.55349
2883.41	2.80504
2884.72	3.34964
2886.03	3.31898
2887.35	3.42874
2888.66	3.3135
2889.97	3.30981
2891.29	3.26326
2892.6	3.5946
2893.91	3.29509
2895.22	3.22023
2896.54	3.65007
2897.85	3.89871
2899.16	3.96634
2900.47	4.07667
2901.78	4.04754
2903.09	4.0186
2904.4	3.84991
2905.71	3.58358
2907.02	4.45075
2908.33	4.67532
2909.64	4.8728
2910.95	4.833
2912.26	4.65318
2913.57	4.79453
2914.88	4.69653
2916.19	5.46481
2917.5	5.23755
2918.81	5.09338
2920.11	5.2289
2921.42	5.84037
2922.73	5.71191
2924.04	5.97627
2925.34	6.03209
2926.65	5.78098
2927.96	6.15897
2929.26	6.3828
2930.57	6.28451
2931.87	6.24165
2933.18	6.40821
2934.49	6.40699
2935.79	6.29408
2937.1	5.79005
2938.4	5.76138
2939.7	5.80285
2941.01	5.49549
2942.31	5.83175
2943.62	4.77164
2944.92	5.48784
2946.22	5.1707
2947.53	5.27363
2948.83	4.29863
2950.13	4.58201
2951.43	4.14969
2952.74	4.05167
2954.04	4.30243
2955.34	4.60875
2956.64	4.25802
2957.94	4.60908
2959.24	4.12278
2960.54	4.11495
2961.84	4.08097
2963.15	3.83718
2964.45	4.01368
2965.75	3.4024
2967.05	3.54796
2968.34	3.6362
2969.64	3.23162
2970.94	3.4175
2972.24	3.36457
2973.54	3.0586
2974.84	2.85099
2976.14	2.81167
2977.43	2.61631
2978.73	2.51802
2980.03	2.33381
2981.33	2.06417
2982.62	2.41313
2983.92	2.63557
2985.22	2.21234
2986.51	2.35271
2987.81	1.77772
2989.11	1.61107
2990.4	1.64137
2991.7	1.40422
2992.99	1.44729
2994.29	1.50333
2995.58	1.24939
2996.88	1.02311
2998.17	1.09157
2999.46	1.00588
3000.76	0.920698
3002.05	1.07435
3003.34	1.03208
3004.64	0.961906
3005.93	0.625481
3007.22	0.652756
3008.52	0.48345
3009.81	0.481413
3011.1	0.59055
3012.39	0.685221
3013.68	0.263599
3014.97	0.539947
3016.27	0.482166
3017.56	0.077034
3018.85	0.368495
3020.14	0.10343
3021.43	0.422057
3022.72	0.184025
3024.01	0.00109148
3025.3	0.62198
3026.59	0.175071
3027.88	0.19987
3029.16	0.23938
3030.45	0.376789
3031.74	0.349572
3033.03	0.433704
3034.32	0.145433
3035.6	0.381146
3036.89	0.146786
3038.18	0.159272
3039.47	0.362865
3040.75	0.276073
3042.04	0.243663
3043.33	0.485436
3044.61	0.207188
3045.9	0.0403824
3047.18	0.217193
3048.47	0.28649
3049.75	0.221033
3051.04	0.293386
3052.32	0.284557
3053.61	0.221173
3054.89	0.334634
3056.18	0.201716
3057.46	0.5315
3058.74	0.274465
3060.03	0.466854
3061.31	0.359992
3062.59	0.267685
3063.88	0.217423
3065.16	0.44037
3066.44	0.51496
3067.72	0.291301
3069	0.36711
3070.29	-0.114886
3071.57	0.476865
3072.85	0.170008
3074.13	0.378877
3075.41	0.328664
3076.69	0.0474119
3077.97	0.0789986
3079.25	0.260723
3080.53	0.321542
3081.81	0.180221
3083.09	-0.0550165
3084.37	-0.154055
3085.65	0.0455427
3086.93	0.0684061
3088.21	0.0635877
3089.49	0.126109
3090.76	0.025445
3092.04	0.0604124
3093.32	-0.162172
3094.6	0.036005
3095.87	-0.00968218
3097.15	0.0803194
3098.43	-0.00591135
3099.7	0.165278
3100.98	-0.259675
3102.26	-0.237393
3103.53	-0.106546
3104.81	0.173583
3106.08	-0.0329323
3107.36	0.0320354
3108.63	0.16556
3109.91	-0.241401
3111.18	0.110507
3112.46	0.029871
3113.73	-0.00978851
3115	0.181001
3116.28	-0.035224
3117.55	-0.252181
3118.83	-0.0359211
3120.1	0.220173
3121.37	0.0958486
3122.64	0.147366
3123.92	0.239376
3125.19	0.372141
3126.46	0.193951
3127.73	0.408762
3129	0.204658
3130.27	0.284948
3131.55	0.378871
3132.82	0.12136
3134.09	0.228484
3135.36	0.173145
3136.63	0.252406
3137.9	0.0346222
3139.17	0.0594249
3140.44	0.232167
3141.71	0.176152
3142.98	0.362392
3144.24	0.293708
3145.51	0.225722
3146.78	0.439967
3148.05	0.252637
3149.32	0.226767
