200.398	-0.0146666
202.213	0.00944424
204.027	0.0346384
205.843	0.0605345
207.657	0.208076
209.47	-0.0338354
211.283	-0.179361
213.097	0.0625038
214.909	-0.206375
216.721	-0.0876617
218.533	0.321429
220.344	0.0768576
222.157	0.365438
223.967	0.194987
225.777	0.145918
227.587	-0.241329
229.396	-0.0732737
231.205	0.0699482
233.016	0.526302
234.824	0.307227
236.632	0.282097
238.439	-0.24754
240.247	0.0201654
242.053	0.145067
243.86	0.126371
245.666	-0.109653
247.474	-0.298849
249.279	0.0650272
251.085	-0.0324478
252.889	0.591841
254.694	0.417912
256.498	0.0508041
258.301	0.190684
260.105	-0.150118
261.908	-0.176176
263.71	-0.128712
265.513	-0.128639
267.315	0.305458
269.116	0.209103
270.918	-0.22555
272.718	0.279048
274.519	-0.013196
276.319	0.223572
278.119	-0.167892
279.918	-0.53659
281.718	0.248847
283.516	0.141681
285.315	0.201641
287.113	-0.00325489
288.911	-0.0160046
290.708	-0.100079
292.505	-0.350596
294.302	0.285439
296.098	0.32421
297.894	0.172614
299.69	0.284319
301.485	-0.0102625
303.278	0.48254
305.073	0.520444
306.867	-0.253491
308.661	0.451136
310.454	0.107055
312.247	0.454868
314.04	-0.101058
315.833	0.106511
317.623	0.196413
319.415	-0.117403
321.206	0.594274
322.997	0.615734
324.788	0.20806
326.579	0.205837
328.367	0.107798
330.156	0.511119
331.946	0.363766
333.735	0.693377
335.523	0.686304
337.31	0.629376
339.098	0.211817
340.885	0.725857
342.673	0.569413
344.458	0.10237
346.244	-0.0773191
348.03	0.149541
349.816	0.448286
351.6	0.341151
353.385	0.138171
355.17	-0.0416908
356.953	0.0874872
358.737	0.000991821
360.521	0.0803623
362.304	0.539599
364.085	0.521909
365.868	0.242299
367.65	0.081213
369.431	-0.246264
371.212	0.539529
372.994	-0.0729504
374.773	0.591807
376.554	0.169194
378.332	0.00728273
380.112	-0.0122685
381.892	0.086791
383.669	0.186687
385.448	0.287478
387.225	-0.198317
389.003	0.139275
390.781	-0.274107
392.557	0.0647178
394.334	-0.018723
396.109	0.344315
397.885	-0.0205965
399.66	0.107529
401.436	-0.116993
403.211	0.0572805
404.984	-0.00392628
406.759	0.521359
408.532	-0.26882
410.306	-0.190445
412.078	-0.534545
413.851	0.576583
415.623	-0.118647
417.395	0.383427
419.166	-0.123001
420.938	-0.441594
422.708	0.108064
424.477	0.328646
426.248	0.102474
428.017	-0.194787
429.788	-0.116816
431.556	0.383556
433.326	0.039206
435.093	0.352262
436.86	0.242857
438.629	0.0155864
440.395	-0.212735
442.163	0.331642
443.929	-0.0639415
445.694	0.125203
447.461	0.0790195
449.226	0.219599
450.99	0.430079
452.756	0.430357
454.52	0.0109677
456.285	0.501215
458.048	0.198757
459.811	-0.196272
461.573	0.432953
463.337	0.295641
465.099	0.508846
466.86	0.143413
468.623	0.407548
470.384	0.138575
472.144	-0.106912
473.906	0.601377
475.666	0.633441
477.425	0.570553
479.184	0.156696
480.944	0.627182
482.703	0.282507
484.461	0.0319047
486.218	0.714546
487.975	0.327316
489.734	0.267812
491.491	0.325753
493.247	0.54788
495.003	0.209329
496.759	0.525502
498.516	0.303167
500.271	0.0800581
502.025	0.583646
503.779	0.42966
505.533	0.392071
507.287	0.329842
509.042	0.336935
510.795	0.554531
512.547	0.347355
514.299	0.891947
516.051	0.306054
517.803	0.730763
519.554	0.496124
521.305	0.261085
523.055	0.472101
524.805	0.401061
526.555	0.658505
528.307	0.259192
530.056	0.399222
531.805	0.328002
533.553	0.186039
535.301	0.183724
537.049	0.250464
538.797	0.572816
540.544	0.450445
542.291	0.444176
544.037	0.484142
545.783	0.826061
547.529	0.262157
549.275	0.0475044
551.02	0.3198
552.765	0.846094
554.509	0.377833
556.253	0.280095
557.997	0.367343
559.738	0.155312
561.482	0.588643
563.224	-0.174361
564.967	0.282443
566.709	0.440511
568.451	0.208736
570.192	0.000945568
571.933	0.18433
573.674	-0.250462
575.415	0.141905
577.153	0.535675
578.893	0.15028
580.632	0.477129
582.371	0.45973
584.11	0.349957
585.849	0.377305
587.587	0.150655
589.323	-0.100009
591.06	0.407853
592.797	0.0410147
594.534	-0.026844
596.271	0.043365
598.005	0.665717
599.741	0.367537
601.476	-0.437298
603.211	0.0911641
604.944	0.0664783
606.679	0.61528
608.413	0.3361
610.147	-0.0346813
611.878	0.375196
613.611	0.257933
615.344	0.0725389
617.077	0.0936317
618.807	-0.274974
620.539	-0.117517
622.27	-0.144141
623.999	-0.148498
625.73	0.0983968
627.461	0.459877
629.189	0.388902
630.919	0.4795
632.648	0.548886
634.376	0.18552
636.105	0.461
637.833	0.438488
639.559	0.573679
641.287	0.569584
643.013	0.358455
644.74	0.192222
646.467	0.253955
648.192	0.271493
649.918	0.836673
651.642	0.154982
653.368	0.544276
655.091	0.504413
656.816	0.147523
658.538	0.497241
660.263	0.413898
661.987	0.671785
663.708	0.471222
665.432	0.451479
667.153	0.658913
668.875	0.865784
670.596	0.569935
672.318	0.229616
674.037	0.806738
675.759	0.882221
677.478	1.00476
679.196	0.921005
680.917	0.583455
682.635	0.957148
684.355	1.00735
686.072	0.457246
687.791	0.872965
689.508	0.942408
691.224	0.78091
692.942	0.711055
694.658	0.5485
696.376	1.12213
698.091	0.428369
699.805	0.723637
701.522	0.35076
703.236	0.575185
704.95	0.683924
706.665	1.31994
708.379	1.19788
710.093	0.571597
711.806	0.976306
713.518	0.739603
715.23	1.28016
716.943	1.27171
718.655	0.829925
720.366	1.16398
722.078	0.837173
723.788	1.17082
725.498	0.753594
727.208	0.882
728.919	1.05523
730.628	1.20511
732.337	0.992009
734.045	1.41268
735.755	0.883216
737.463	1.21314
739.17	1.47529
740.877	1.60253
742.584	1.70805
744.292	1.58942
745.998	1.85464
747.704	1.58094
749.409	1.44341
751.114	1.44192
752.819	1.55393
754.526	1.89207
756.23	1.69151
757.934	1.33444
759.637	1.54138
761.34	1.95242
763.043	1.25895
764.746	1.60291
766.448	1.29121
768.152	1.54288
769.853	1.74777
771.554	1.61184
773.255	2.334
774.956	2.08335
776.656	1.67488
778.356	2.21709
780.056	1.87871
781.755	2.19717
783.454	2.42547
785.153	1.74751
786.851	2.04091
788.549	1.6527
790.247	2.03121
791.944	2.02271
793.641	1.87734
795.338	1.57406
797.034	1.94817
798.73	2.03021
800.426	1.77601
802.121	2.44565
803.817	2.21577
805.511	1.76116
807.206	2.13767
808.9	1.8391
810.592	2.16832
812.286	2.24958
813.979	2.26299
815.672	2.16421
817.364	2.46817
819.057	2.39173
820.748	1.57862
822.44	1.99433
824.129	1.96411
825.82	2.67038
827.511	2.44225
829.201	2.50608
830.891	2.14934
832.581	1.97303
834.269	1.70915
835.958	2.09263
837.646	2.45412
839.335	2.03352
841.023	1.61125
842.709	2.28242
844.396	2.05956
846.084	1.77004
847.77	1.61586
849.455	1.88849
851.141	1.62613
852.827	1.92516
854.513	1.91146
856.196	1.83021
857.881	1.54558
859.566	1.86669
861.248	1.55631
862.932	1.46956
864.616	1.71974
866.297	1.63118
867.98	1.36165
869.663	1.65546
871.343	1.76864
873.026	1.7012
874.707	1.20494
876.387	1.18243
878.068	1.31791
879.747	1.54363
881.428	1.38533
883.108	1.38448
884.786	1.13447
886.465	1.78624
888.143	1.73697
889.822	1.34818
891.498	1.63476
893.177	1.46945
894.855	1.57348
896.53	1.38422
898.208	1.84577
899.883	1.47558
901.56	1.82254
903.234	2.05631
904.91	1.55176
906.584	1.0933
908.26	1.17145
909.933	1.89592
911.608	0.684064
913.28	1.40874
914.955	1.26634
916.627	1.36826
918.298	1.38128
919.972	1.77075
921.643	1.12019
923.315	1.68729
924.986	1.2829
926.656	1.23364
928.328	1.51679
929.997	1.33736
931.668	1.04821
933.337	0.869659
935.006	1.61768
936.676	0.954321
938.344	1.68109
940.012	1.39426
941.681	1.2186
943.348	1.30822
945.014	1.55228
946.683	1.53066
948.349	0.955743
950.015	1.17401
951.682	1.17056
953.347	1.74054
955.012	1.07657
956.676	1.49528
958.343	1.23285
960.006	1.30341
961.67	1.61828
963.333	1.24832
964.998	1.34106
966.661	0.967204
968.323	0.989343
969.985	1.27534
971.649	1.05177
973.31	1.22665
974.971	1.11508
976.632	1.11545
978.293	1.44879
979.953	1.48413
981.615	1.20932
983.274	1.43146
984.933	1.5414
986.592	0.720072
988.251	1.0041
989.909	1.22055
991.567	0.574317
993.225	0.966788
994.884	0.895276
996.541	1.64022
998.198	1.65665
999.855	2.51024
1001.51	1.7548
1003.17	1.08802
1004.82	0.75176
1006.48	0.833407
1008.13	0.827168
1009.79	0.601716
1011.44	1.23214
1013.1	0.941611
1014.75	1.28693
1016.4	0.82216
1018.06	0.79586
1019.71	0.682678
1021.36	0.767101
1023.01	1.00529
1024.66	0.675892
1026.32	1.13369
1027.97	0.717425
1029.62	1.06543
1031.27	1.04107
1032.92	0.862682
1034.57	1.09776
1036.22	0.655575
1037.87	1.36803
1039.52	1.38267
1041.16	0.745244
1042.81	1.28346
1044.46	0.714341
1046.11	0.733544
1047.76	1.38394
1049.4	1.1017
1051.05	0.928999
1052.7	0.822034
1054.34	0.628386
1055.99	0.0651612
1057.63	0.762355
1059.28	0.720188
1060.92	0.503577
1062.57	0.873477
1064.21	0.873024
1065.85	0.523945
1067.5	0.60889
1069.14	1.14929
1070.78	0.733204
1072.43	0.686372
1074.07	0.683299
1075.71	0.637578
1077.35	0.874768
1078.99	0.85261
1080.63	1.0262
1082.27	1.06968
1083.91	0.613817
1085.55	0.568791
1087.19	0.283972
1088.83	0.539332
1090.47	0.46848
1092.11	0.396863
1093.75	0.562551
1095.39	0.749587
1097.03	0.484178
1098.66	0.801763
1100.3	0.947985
1101.94	0.794253
1103.57	0.276241
1105.21	0.770329
1106.84	0.511978
1108.48	0.941643
1110.11	0.316825
1111.75	0.701408
1113.38	1.14888
1115.02	0.56437
1116.65	0.602304
1118.29	0.382973
1119.92	1.02137
1121.55	0.760443
1123.19	0.821606
1124.82	0.77649
1126.45	0.689274
1128.08	0.495751
1129.71	0.687673
1131.34	0.773073
1132.97	0.516645
1134.6	0.153291
1136.23	1.02919
1137.86	0.686003
1139.49	0.726593
1141.12	0.382075
1142.75	0.485613
1144.38	0.162553
1146.01	0.458496
1147.64	-0.118865
1149.26	-0.0561209
1150.89	0.454231
1152.52	0.559749
1154.15	0.409484
1155.77	0.450552
1157.4	0.555309
1159.02	0.383739
1160.65	0.446766
1162.27	0.680665
1163.9	0.468788
1165.52	0.193509
1167.15	0.00311232
1168.77	0.513591
1170.39	0.68259
1172.02	0.403872
1173.64	0.867254
1175.26	0.437959
1176.89	-0.118289
1178.51	0.427942
1180.13	0.254151
1181.75	-0.0457034
1183.37	0.0992432
1184.99	0.476495
1186.61	-0.0553632
1188.23	0.319711
1189.85	0.777004
1191.47	0.36866
1193.09	0.54892
1194.71	1.06399
1196.33	0.843777
1197.94	0.729533
1199.56	0.616857
1201.18	0.756879
1202.8	0.64812
1204.41	0.311855
1206.03	0.895423
1207.65	0.979114
1209.26	0.729274
1210.88	1.10461
1212.49	0.644471
1214.11	0.370636
1215.72	0.782659
1217.34	0.402105
1218.95	0.64496
1220.57	1.19858
1222.18	0.942763
1223.79	1.41359
1225.41	1.36724
1227.02	0.804842
1228.63	1.361
1230.24	1.2354
1231.85	1.54492
1233.47	1.11124
1235.08	1.56731
1236.69	1.11492
1238.3	1.18005
1239.91	1.12167
1241.52	1.47709
1243.13	1.14971
1244.74	1.25614
1246.34	1.65149
1247.95	0.907953
1249.56	1.57086
1251.17	1.05415
1252.78	1.32375
1254.38	1.82137
1255.99	1.36838
1257.6	1.01971
1259.2	0.940786
1260.81	1.54558
1262.42	1.05371
1264.02	1.28654
1265.63	1.24983
1267.23	1.29545
1268.84	1.58914
1270.44	0.990517
1272.04	1.2204
1273.65	1.13848
1275.25	0.910714
1276.85	1.26258
1278.46	1.44786
1280.06	1.3219
1281.66	1.44416
1283.26	1.38018
1284.86	1.0892
1286.46	1.2539
1288.07	1.31596
1289.67	0.820759
1291.27	1.50388
1292.87	1.58764
1294.47	1.50553
1296.06	1.42246
1297.66	1.85426
1299.26	1.54153
1300.86	1.39292
1302.46	1.42894
1304.06	1.23775
1305.65	1.62203
1307.25	1.75864
1308.85	1.73059
1310.44	1.49764
1312.04	1.79775
1313.64	1.85243
1315.23	1.4174
1316.83	2.02516
1318.42	1.83676
1320.02	1.95439
1321.61	1.68406
1323.2	2.24735
1324.8	1.48671
1326.39	2.06663
1327.99	1.42811
1329.58	1.88502
1331.17	1.81626
1332.76	1.58781
1334.36	2.29032
1335.95	1.90367
1337.54	1.92132
1339.13	1.39421
1340.72	1.47078
1342.31	1.60591
1343.9	1.15625
1345.49	1.32912
1347.08	1.26097
1348.67	1.1542
1350.26	1.12955
1351.85	1.88696
1353.43	1.34577
1355.02	0.905957
1356.61	1.16606
1358.2	1.12608
1359.78	1.44484
1361.37	1.56288
1362.96	1.52052
1364.54	1.4181
1366.13	1.19642
1367.71	1.15483
1369.3	1.25354
1370.88	1.45279
1372.47	1.25511
1374.05	1.11804
1375.64	0.84222
1377.22	1.00425
1378.8	1.04653
1380.39	1.04826
1381.97	0.810292
1383.55	0.830002
1385.13	1.12722
1386.72	1.18538
1388.3	1.20388
1389.88	1.12361
1391.46	1.02426
1393.04	0.846226
1394.62	0.827254
1396.2	1.1056
1397.78	0.669652
1399.36	1.24385
1400.94	1.04437
1402.52	0.963397
1404.1	0.981396
1405.68	0.979983
1407.25	0.722274
1408.83	0.623466
1410.41	1.09794
1411.98	0.7625
1413.56	0.722956
1415.14	0.959017
1416.71	1.07588
1418.29	1.03462
1419.87	0.875439
1421.44	1.111
1423.02	1.03264
1424.59	0.739062
1426.16	1.25344
1427.74	1.09906
1429.31	1.20038
1430.89	1.5175
1432.46	1.1449
1434.03	1.34222
1435.6	1.97174
1437.18	1.53933
1438.75	1.42223
1440.32	1.50249
1441.89	1.99622
1443.46	1.90094
1445.03	1.80598
1446.6	1.94704
1448.17	2.08824
1449.74	1.8955
1451.31	1.36883
1452.88	1.82571
1454.45	2.2241
1456.02	1.75694
1457.59	1.97786
1459.16	1.46964
1460.72	1.92435
1462.29	1.86584
1463.86	1.21606
1465.43	1.60776
1466.99	1.42904
1468.56	0.877755
1470.13	0.955638
1471.69	0.936212
1473.26	0.819536
1474.82	0.644668
1476.38	1.15641
1477.95	0.805516
1479.51	1.12114
1481.08	0.339039
1482.64	0.811288
1484.2	0.362402
1485.77	0.59909
1487.33	0.619701
1488.89	0.60021
1490.46	1.16641
1492.02	0.713495
1493.58	0.708999
1495.14	0.0203433
1496.7	0.579631
1498.26	0.105933
1499.82	0.527837
1501.38	0.930088
1502.94	0.6924
1504.5	0.4946
1506.06	0.258665
1507.62	0.680295
1509.18	0.849178
1510.73	0.302857
1512.29	0.759372
1513.85	0.560037
1515.41	0.553544
1516.96	0.605103
1518.52	0.369454
1520.08	0.575369
1521.63	0.283489
1523.19	0.240519
1524.75	0.197109
1526.3	0.763279
1527.85	0.432309
1529.41	0.387059
1530.96	0.284955
1532.52	0.335169
1534.07	0.840381
1535.62	0.493961
1537.18	0.848111
1538.73	0.900059
1540.28	0.839061
1541.84	1.0797
1543.39	0.849288
1544.94	0.976415
1546.49	0.633562
1548.04	0.741613
1549.59	0.774434
1551.14	0.713702
1552.69	1.19596
1554.25	0.855679
1555.79	0.629035
1557.34	0.88928
1558.89	1.30002
1560.44	0.909853
1561.99	1.37911
1563.54	0.935142
1565.08	0.976663
1566.63	1.05561
1568.18	1.37705
1569.73	1.56761
1571.27	0.992548
1572.82	0.809239
1574.37	1.52186
1575.91	0.759768
1577.46	1.62193
1579	1.02829
1580.55	1.70469
1582.09	1.8777
1583.64	1.4537
1585.18	1.23559
1586.73	1.55988
1588.27	1.28604
1589.81	1.23636
1591.35	1.52326
1592.9	1.52912
1594.44	1.21632
1595.98	1.39051
1597.52	1.02158
1599.06	1.25288
1600.61	1.22229
1602.15	1.0419
1603.69	1.59366
1605.23	1.75093
1606.77	1.43744
1608.31	0.783972
1609.85	1.46323
1611.39	1.29493
1612.93	1.14403
1614.46	1.48028
1616	1.55316
1617.54	1.36386
1619.08	0.969574
1620.61	1.30713
1622.15	1.2898
1623.69	1.17952
1625.23	1.36882
1626.76	1.20193
1628.3	1.3522
1629.83	1.0712
1631.37	0.677555
1632.9	1.01252
1634.44	1.6273
1635.97	1.53305
1637.51	1.49556
1639.04	1.62641
1640.57	1.94359
1642.11	1.71979
1643.64	1.53258
1645.17	1.36324
1646.71	1.50956
1648.24	1.82263
1649.77	1.42994
1651.3	1.70656
1652.83	1.6129
1654.36	1.98375
1655.89	2.03978
1657.42	1.87341
1658.96	1.42874
1660.48	1.31672
1662.01	1.64773
1663.54	1.99583
1665.07	1.71491
1666.6	1.82227
1668.13	1.57992
1669.66	1.57864
1671.19	1.56012
1672.71	1.92931
1674.24	1.39635
1675.77	1.56312
1677.29	1.65556
1678.82	1.1952
1680.35	1.19415
1681.87	1.74376
1683.4	1.24573
1684.92	1.13375
1686.45	0.875461
1687.97	1.07603
1689.5	1.03852
1691.02	0.891394
1692.54	0.744481
1694.07	1.01838
1695.59	0.43262
1697.11	0.304112
1698.64	0.924242
1700.16	0.357051
1701.68	0.428567
1703.2	0.463134
1704.72	0.551891
1706.25	-0.251386
1707.77	0.473591
1709.29	0.10743
1710.81	0.0686207
1712.33	0.392655
1713.85	0.49885
1715.37	0.369586
1716.89	0.855494
1718.41	0.491062
1719.92	0.181367
1721.44	0.395547
1722.96	-0.0573053
1724.48	0.337951
1725.99	0.247436
1727.51	0.0859227
1729.03	0.285099
1730.55	0.537392
1732.06	0.518659
1733.58	0.411718
1735.09	-0.2503
1736.61	0.0916162
1738.13	0.36495
1739.64	0.123087
1741.15	0.344534
1742.67	-0.00385761
1744.18	0.185974
1745.7	0.232091
1747.21	0.450705
1748.72	0.424021
1750.24	-0.000827789
1751.75	0.23348
1753.26	-0.23311
1754.77	-0.0132103
1756.29	-0.020854
1757.8	0.28695
1759.31	-0.184994
1760.82	-0.0323853
1762.33	0.178348
1763.84	0.247596
1765.35	-0.114759
1766.86	-0.299088
1768.37	-0.0878739
1769.88	0.217083
1771.39	0.149339
1772.9	0.344094
1774.4	-0.167397
1775.91	0.216553
1777.42	0.102963
1778.93	0.0983443
1780.44	0.00944948
1781.94	0.0607414
1783.45	-0.324529
1784.96	-0.111817
1786.46	0.0868697
1787.97	0.0165663
1789.47	-0.119045
1790.98	0.0901012
1792.48	0.102674
1793.99	0.019639
1795.49	0.122633
1797	-0.0160851
1798.5	-0.0867419
1800.01	0.0895014
1801.51	-0.041616
1803.01	0.023622
1804.51	-0.014245
1806.02	0.280265
1807.52	0.240595
1809.02	0.156041
1810.52	0.255181
1812.02	0.149879
1813.52	-0.0647764
1815.02	-0.239148
1816.53	-0.166466
1818.03	5.57899e-005
1819.52	-0.140583
1821.02	0.0317688
1822.52	0.141598
1824.02	0.0957513
1825.52	-0.101334
1827.02	-0.16427
1828.52	0.060379
1830.02	-0.188844
1831.51	-0.147415
1833.01	0.0552373
1834.51	0.0838647
1836.01	0.0694971
1837.5	0.259638
1839	0.0166383
1840.49	-0.0221376
1841.99	0.0725403
1843.49	0.212792
1844.98	0.190361
1846.48	-0.0239286
1847.97	-0.115318
1849.47	0.138269
1850.96	-0.0669765
1852.45	0.113204
1853.95	-0.0027504
1855.44	0.0361137
1856.93	0.266937
1858.42	-0.0898862
1859.92	-0.106607
1861.41	0.0842428
1862.9	0.064837
1864.39	0.123617
1865.88	0.0155649
1867.38	0.0406985
1868.87	-0.126122
1870.36	-0.0184865
1871.85	0.0450301
1873.34	-0.0423408
1874.83	-0.0646024
1876.32	0.12357
1877.81	0.0184817
1879.29	-0.110808
1880.78	0.095645
1882.27	0.311355
1882.53	0.351367
1884.03	-0.171223
1885.52	-0.223478
1887.01	-0.0324345
1888.51	0.00139284
1890	0.000522614
1891.5	0.156862
1892.99	0.0186696
1894.48	0.159966
1895.97	0.0763335
1897.47	0.0628285
1898.96	-0.0377421
1900.45	0.43505
1901.94	-0.276248
1903.43	-0.188501
1904.92	0.193722
1906.41	0.262282
1907.9	0.105004
1909.39	0.243382
1910.88	0.0353012
1912.37	0.105524
1913.86	-0.0146651
1915.35	0.2294
1916.84	0.351772
1918.33	-0.150262
1919.81	-0.045877
1921.3	0.127659
1922.79	0.12822
1924.28	0.0255265
1925.76	0.391058
1927.25	0.0648737
1928.73	-0.0185146
1930.22	0.175113
1931.71	0.00453472
1933.19	0.317788
1934.68	0.214187
1936.16	0.299781
1937.65	0.142357
1939.13	-0.326197
1940.62	0.259355
1942.1	-0.0870891
1943.58	0.0677762
1945.07	0.119657
1946.55	0.0510945
1948.03	-0.000356197
1949.51	-0.259
1951	0.10176
1952.48	0.117326
1953.96	0.132466
1955.44	0.130348
1956.92	0.368915
1958.4	-0.181787
1959.88	-0.251101
1961.36	-0.0113459
1962.84	0.434025
1964.32	0.107913
1965.8	0.278353
1967.28	0.071588
1968.76	0.240902
1970.24	0.358291
1971.72	0.0483117
1973.2	0.165438
1974.67	0.0607362
1976.15	0.246048
1977.63	0.226839
1979.1	-0.149717
1980.58	-0.0665317
1982.06	0.305387
1983.54	0.302877
1985.01	0.130395
1986.49	-0.0589623
1987.96	-0.0785737
1989.44	-0.0471368
1990.91	-0.0999036
1992.39	-0.0674095
1993.86	-0.0342698
1995.33	0.235988
1996.81	-0.0680218
1998.28	0.404994
1999.75	0.404669
2001.23	-0.0854697
2002.7	0.385892
2004.17	0.300372
2005.65	0.114072
2007.12	0.214787
2008.59	0.215065
2010.06	-0.0870891
2011.53	0.35187
2013	0.0501766
2014.47	0.118498
2015.94	0.118953
2017.41	0.0346808
2018.88	0.1012
2020.35	-0.0343509
2021.82	0.115621
2023.29	0.265667
2024.76	0.198018
2026.23	-0.036499
2027.69	0.149343
2029.16	0.0678425
2030.63	-0.0295458
2032.1	0.444237
2033.56	0.398263
2035.03	0.385831
2036.5	0.13792
2037.96	0.141539
2039.43	-0.0904117
2040.89	0.484383
2042.36	-0.0836654
2043.83	0.105347
2045.29	0.0258889
2046.75	-0.0531445
2048.22	0.39014
2049.68	0.176357
2051.15	0.197713
2052.61	-0.0349684
2054.07	-0.015965
2055.54	0.0355787
2057	0.440163
2058.46	0.372063
2059.92	0.253368
2061.39	0.303426
2062.85	0.404519
2064.31	0.0518804
2065.77	0.406807
2067.23	0.459394
2068.69	0.461914
2070.15	0.414156
2071.61	-0.374342
2073.07	-0.0518627
2074.53	0.270505
2075.99	0.239037
2077.45	0.173624
2078.91	0.461567
2080.37	0.294506
2081.82	-0.0581145
2083.28	0.11075
2084.74	0.430469
2086.2	0.345727
2087.65	0.260613
2089.11	0.141671
2090.57	0.25786
2092.02	0.340292
2093.48	0.170874
2094.94	0.38717
2096.39	0.200622
2097.85	0.214833
2099.3	0.144908
2100.76	0.108314
2102.21	0.272437
2103.66	0.052825
2105.12	0.318328
2106.57	0.417715
2108.03	0.150844
2109.48	0.401243
2110.93	0.517766
2112.38	0.416642
2113.84	0.614161
2115.29	0.227871
2116.74	0.406835
2118.19	0.220281
2119.64	0.0681186
2121.09	0.547817
2122.54	0.0997548
2123.99	0.531716
2125.45	0.450017
2126.89	0.318403
2128.34	0.716572
2129.79	0.815244
2131.24	0.565071
2132.69	0.430463
2134.14	0.213269
2135.59	0.344056
2137.04	0.360022
2138.48	0.443337
2139.93	0.329612
2141.38	0.54757
2142.83	0.683788
2144.27	0.092658
2145.72	0.361729
2147.17	0.332787
2148.61	0.568392
2150.06	0.521888
2151.5	1.05458
2152.95	0.476473
2154.39	0.543978
2155.84	0.660846
2157.28	0.612087
2158.73	0.630078
2160.17	0.549584
2161.61	0.503391
2163.06	0.789995
2164.5	0.679828
2165.94	0.619896
2167.38	0.310586
2168.83	0.681777
2170.27	0.619683
2171.71	0.722438
2173.15	0.557683
2174.59	0.608233
2176.03	0.75814
2177.47	0.758479
2178.91	0.609714
2180.36	0.810763
2181.8	0.663274
2183.23	0.815481
2184.67	0.602009
2186.11	0.588131
2187.55	0.624172
2188.99	0.543751
2190.43	0.829484
2191.87	0.399236
2193.3	0.651019
2194.74	0.435714
2196.18	0.502207
2197.62	0.567295
2199.05	0.647748
2200.49	0.710745
2201.93	0.624111
2203.36	0.2726
2204.8	0.154387
2206.23	0.335273
2207.67	0.433515
2209.1	0.995203
2210.54	0.413767
2211.97	0.659334
2213.41	0.375107
2214.84	0.438053
2216.27	0.31974
2217.71	0.416791
2219.14	0.382658
2220.57	0.283183
2222.01	0.26625
2223.44	0.545393
2224.87	0.345793
2226.3	0.211087
2227.73	0.0426049
2229.16	0.612642
2230.6	0.130989
2232.03	0.223784
2233.46	0.447494
2234.89	0.29516
2236.32	0.127563
2237.75	0.451029
2239.18	0.236948
2240.61	0.0733171
2242.03	0.367597
2243.46	0.483284
2244.89	0.256683
2246.32	0.437402
2247.75	0.176658
2249.17	0.305865
2250.6	0.335665
2252.03	-0.0915375
2253.46	0.213246
2254.88	0.355188
2256.31	0.270598
2257.73	0.203929
2259.16	0.0418687
2260.59	0.465838
2262.01	0.0638976
2263.44	0.00367308
2264.86	-0.0726895
2266.29	0.32217
2267.71	0.245116
2269.14	0.509124
2270.56	-0.0900526
2271.98	0.0917029
2273.4	0.15941
2274.83	-0.114888
2276.25	0.327735
2277.67	0.477332
2279.09	0.203182
2280.52	0.222363
2281.94	0.0783515
2283.36	0.0320921
2284.78	0.165336
2286.2	0.233495
2287.62	0.399904
2289.04	0.41972
2290.46	-0.0667248
2291.88	0.0514512
2293.3	0.137094
2294.72	0.0428133
2296.14	0.17755
2297.56	0.11585
2298.98	0.103273
2300.4	0.303875
2301.82	0.111302
2303.23	0.0827823
2304.65	0.15282
2306.07	0.304991
2307.49	-0.118024
2308.9	-0.0321951
2310.32	0.234197
2311.73	0.105709
2313.15	0.322649
2314.57	0.243725
2315.98	0.280502
2317.4	0.218989
2318.81	-0.0236244
2320.23	0.178661
2321.64	0.248386
2323.06	0.547919
2324.47	0.43325
2325.88	0.64699
2327.3	0.859334
2328.71	0.411659
2330.12	0.0469756
2331.54	-0.185049
2332.95	-0.0376515
2334.36	-0.00496578
2335.77	0.0772123
2337.18	-0.219217
2338.6	-0.121519
2340.01	0.320413
2341.42	0.235695
2342.83	0.150729
2344.24	0.000252724
2345.65	-0.13346
2347.06	0.290057
2348.47	0.40206
2349.88	0.0228958
2351.29	-0.0456834
2352.7	0.228171
2354.1	0.0766501
2355.51	-0.172836
2356.92	0.636314
2358.33	0.0124178
2359.74	0.12106
2361.14	0.0347667
2362.55	0.224258
2363.96	-0.0564055
2365.36	0.116484
2366.77	0.0467062
2368.18	0.235786
2369.58	-0.123234
2370.99	-0.0456047
2372.39	0.161673
2373.8	0.224492
2375.2	0.239226
2376.61	0.237597
2378.01	-0.118532
2379.42	0.0711064
2380.82	-0.0456953
2382.22	-0.24337
2383.63	0.151407
2385.03	-0.174749
2386.43	0.155178
2387.84	0.213652
2389.24	0.272819
2390.64	-0.129244
2392.04	0.154616
2393.44	-0.00671101
2394.84	-0.119614
2396.25	-0.0729866
2397.65	0.101165
2399.05	0.323272
2400.45	-0.18513
2401.85	0.339272
2403.25	-0.00992107
2404.65	-0.00992441
2406.05	0.00537205
2407.45	0.17871
2408.84	0.00244665
2410.24	0.17486
2411.64	0.25219
2413.04	-0.0659089
2414.44	-0.00298214
2415.83	0.124216
2417.23	-0.175148
2418.63	0.222713
2420.02	-0.0442028
2421.42	0.24311
2422.82	0.245106
2424.21	0.0567756
2425.61	0.280447
2427	0.441147
2428.4	0.0952182
2429.8	-0.107562
2431.19	0.150084
2432.58	0.408075
2433.98	-0.00109625
2435.37	0.128827
2436.77	0.146584
2438.16	0.274519
2439.55	-0.075016
2440.95	0.0990601
2442.34	0.367898
2443.73	0.287233
2445.12	0.158927
2446.51	0.411127
2447.91	0.235129
2449.3	0.296883
2450.69	0.311239
2452.08	0.0252342
2453.47	0.0405688
2454.86	0.293775
2456.25	0.0728345
2457.64	0.121046
2459.03	0.200778
2460.42	-0.00455856
2461.81	0.15329
2463.2	0.278898
2464.59	-0.16476
2465.98	-0.0239315
2467.36	0.274563
2468.75	0.430748
2470.14	0.0662141
2471.53	0.0800362
2472.92	-0.142911
2474.3	0.295097
2475.69	-0.133135
2477.08	0.162057
2478.46	-0.234257
2479.85	0.12338
2481.23	-0.177973
2482.62	-0.0558815
2484	0.0187368
2485.39	-0.110675
2486.77	0.00939751
2488.16	0.112862
2489.54	0.106476
2490.93	0.224515
2492.31	0.0472722
2493.69	-0.00461864
2495.08	-0.365753
2496.46	0.0805235
2497.84	-0.170292
2499.23	0.105677
2500.61	0.164493
2501.99	0.05269
2503.37	0.249229
2504.75	-0.249346
2506.13	0.208021
2507.52	0.402568
2508.9	0.0433302
2510.28	0.0230184
2511.66	0.0645452
2513.04	0.0452104
2514.42	0.11839
2515.8	0.161451
2517.18	0.1438
2518.55	0.157123
2519.93	-0.165624
2521.31	0.0463395
2522.69	-0.0171161
2524.07	-0.126799
2525.45	-0.0843749
2526.82	0.0491719
2528.2	0.106702
2529.58	0.164898
2530.95	-0.00385857
2532.33	-0.0650034
2533.71	0.0419021
2535.08	0.270823
2536.46	-0.0320225
2537.84	0.0748854
2539.21	-0.00112963
2540.59	0.256366
2541.96	0.0884809
2543.34	0.0271058
2544.71	-0.306703
2546.08	0.0277562
2547.46	0.287195
2548.83	0.046639
2550.2	0.124708
2551.58	0.156954
2552.95	0.158234
2554.32	-0.0384612
2555.7	0.295323
2557.07	-0.175311
2558.44	-0.206028
2559.81	0.248544
2561.18	0.218287
2562.55	0.218798
2563.93	0.128798
2565.3	0.054256
2566.67	-0.00495958
2568.04	0.117751
2569.41	-0.03232
2570.78	0.241989
2572.15	-0.180886
2573.51	-0.0277252
2574.88	-0.0867085
2576.25	-0.191156
2577.62	0.204691
2578.99	-0.0212398
2580.36	0.192323
2581.73	0.0417008
2583.09	-0.0181746
2584.46	-0.13883
2585.83	0.225577
2587.19	0.120141
2588.56	0.060328
2589.93	0.0309134
2591.29	0.0923505
2592.66	-0.164716
2594.02	0.0776868
2595.39	-0.331883
2596.75	0.226951
2598.12	-0.0473514
2599.48	-0.276225
2600.85	-0.262991
2602.21	-0.0984268
2603.58	-0.220386
2604.94	0.216443
2606.3	0.0798922
2607.67	0.0940151
2609.03	0.0924954
2610.39	0.0901666
2611.76	0.102001
2613.12	-0.0222874
2614.48	0.529105
2615.84	0.0138021
2617.2	-0.0505767
2618.56	-0.0694876
2619.92	-0.132735
2621.28	-0.0907269
2622.65	0.250415
2624.01	-0.23
2625.37	0.0512323
2626.72	0.0784197
2628.08	-0.192667
2629.44	-0.135962
2630.8	0.188326
2632.16	0.214716
2633.52	0.00338078
2634.88	0.148582
2636.24	-0.0178909
2637.59	0.0233574
2638.95	0.153422
2640.31	0.150245
2641.67	-0.0449219
2643.02	0.0853963
2644.38	-0.079596
2645.74	-0.0968766
2647.09	0.357339
2648.45	-0.0586615
2649.8	0.128878
2651.16	0.183292
2652.51	0.105223
2653.87	0.232867
2655.22	-0.049614
2656.58	-0.125835
2657.93	0.0476356
2659.29	0.0167136
2660.64	0.278538
2661.99	0.0869746
2663.35	0.158131
2664.7	-0.12165
2666.05	-0.0660586
2667.41	-0.0108566
2668.76	0.175256
2670.11	0.186673
2671.46	0.198445
2672.81	0.0508208
2674.16	0.194242
2675.51	-0.141062
2676.87	0.0901518
2678.22	-0.20048
2679.57	0.089601
2680.92	0.00334167
2682.27	-0.0386086
2683.62	0.12324
2684.97	0.0247293
2686.31	0.202169
2687.66	0.248994
2689.01	0.00469446
2690.36	0.310904
2691.71	0.223902
2693.06	0.0923977
2694.4	0.308383
2695.75	0.205188
2697.1	0.174962
2698.45	-0.115011
2699.79	0.291253
2701.14	0.307751
2702.49	0.137002
2703.83	0.242187
2705.18	0.11587
2706.52	0.323086
2707.87	0.138518
2709.21	0.316457
2710.56	0.145749
2711.9	0.396026
2713.25	0.0215316
2714.59	0.46077
2715.94	0.26048
2717.28	0.409048
2718.62	0.23747
2719.97	0.225634
2721.31	-0.0630164
2722.65	0.346581
2723.99	0.0572557
2725.34	0.437196
2726.68	0.176444
2728.02	0.293917
2729.36	0.585841
2730.7	0.38289
2732.04	0.441852
2733.39	0.399045
2734.73	0.109105
2736.07	0.212062
2737.41	0.518722
2738.75	-0.0763254
2740.08	0.0847359
2741.43	0.129139
2742.76	0.507457
2744.1	0.478179
2745.44	0.259633
2746.78	0.229751
2748.12	0.286868
2749.46	-0.178343
2750.79	0.212647
2752.13	-0.0923672
2753.47	0.182703
2754.81	0.457721
2756.14	-0.136347
2757.48	0.0953832
2758.81	-0.121583
2760.15	0.226256
2761.49	0.386193
2762.82	0.141286
2764.16	0.243889
2765.49	0.201801
2766.83	-0.158854
2768.16	0.23215
2769.5	0.33289
2770.83	0.345832
2772.16	0.198972
2773.5	0.224791
2774.83	0.0627885
2776.17	-0.0701385
2777.5	0.157197
2778.83	0.298266
2780.16	0.295792
2781.5	-0.0798187
2782.83	0.190934
2784.16	0.117104
2785.49	0.244013
2786.82	0.213344
2788.15	0.297579
2789.49	0.210583
2790.82	0.10998
2792.15	0.167251
2793.48	0.296287
2794.81	0.225215
2796.14	0.0539403
2797.46	0.182367
2798.79	0.481668
2800.12	0.380814
2801.45	0.308403
2802.78	0.321482
2804.11	-0.06464
2805.44	0.475135
2806.76	0.330639
2808.09	0.228579
2809.42	0.268511
2810.75	0.223203
2812.07	0.0648522
2813.4	0.106017
2814.73	0.0772243
2816.05	0.205328
2817.38	0.532586
2818.7	0.463382
2820.03	0.39419
2821.36	0.381387
2822.68	0.339787
2824.01	0.113593
2825.33	-0.0418987
2826.65	0.185062
2827.98	0.525544
2829.3	0.441622
2830.63	0.428825
2831.95	0.31709
2833.27	0.460115
2834.6	0.588753
2835.92	0.816086
2837.24	0.462843
2838.56	1.15624
2839.88	1.21274
2841.21	1.0855
2842.53	1.2272
2843.85	1.3976
2845.17	1.55438
2846.49	1.58445
2847.81	1.82679
2849.13	1.77236
2850.45	1.87318
2851.77	2.08668
2853.09	2.13015
2854.41	1.98961
2855.73	2.06089
2857.05	1.77897
2858.37	1.96329
2859.69	2.02043
2861	2.35982
2862.32	2.57178
2863.64	2.44461
2864.96	2.71237
2866.28	3.05051
2867.59	3.44509
2868.91	3.50148
2870.23	3.54411
2871.54	3.27675
2872.86	3.50252
2874.17	3.30485
2875.49	3.47263
2876.81	3.59711
2878.12	3.67856
2879.44	4.0128
2880.75	3.81284
2882.07	3.68402
2883.38	3.71068
2884.69	4.01896
2886.01	3.94859
2887.32	3.44322
2888.63	3.513
2889.95	3.56806
2891.26	3.74857
2892.57	3.85831
2893.89	3.86976
2895.2	3.86749
2896.51	3.94988
2897.82	3.8372
2899.13	3.87931
2900.44	4.10393
2901.76	3.99318
2903.07	4.47009
2904.38	4.34561
2905.69	4.20737
2907	4.15352
2908.31	4.82774
2909.62	4.90125
2910.93	4.9193
2912.24	5.0913
2913.55	5.31867
2914.85	5.08279
2916.16	5.29338
2917.47	5.40452
2918.78	5.85047
2920.09	5.82043
2921.4	5.80499
2922.7	6.1681
2924.01	5.84745
2925.32	6.38051
2926.62	6.2851
2927.93	6.24561
2929.24	6.42944
2930.54	6.44496
2931.85	6.41809
2933.15	6.46084
2934.46	6.07026
2935.76	6.29475
2937.07	6.42151
2938.37	5.89162
2939.68	6.15849
2940.98	6.09042
2942.29	5.53399
2943.59	5.20207
2944.89	5.26258
2946.2	5.19823
2947.5	4.8405
2948.8	5.1261
2950.11	4.52885
2951.41	4.32194
2952.71	4.11346
2954.01	4.74392
2955.32	4.28197
2956.62	4.22674
2957.92	4.15911
2959.22	4.10761
2960.52	3.94618
2961.82	4.31886
2963.12	3.80883
2964.42	3.90127
2965.72	4.1472
2967.02	3.90007
2968.32	3.56731
2969.62	3.44464
2970.92	3.42024
2972.22	3.18499
2973.51	3.4846
2974.81	3.37611
2976.11	2.98543
2977.41	3.28359
2978.71	3.07346
2980	3.07315
2981.3	2.77625
2982.6	2.61976
2983.9	2.66044
2985.19	2.81432
2986.49	2.35097
2987.78	2.11359
2989.08	2.42496
2990.38	2.35707
2991.67	1.92334
2992.97	1.71367
2994.26	2.00892
2995.56	1.83959
2996.85	1.44516
2998.14	1.59817
2999.44	1.38646
3000.73	1.60992
3002.03	1.58129
3003.32	1.35676
3004.61	1.42656
3005.91	0.837895
3007.2	1.15907
3008.49	0.807725
3009.78	0.959475
3011.07	1.01263
3012.37	0.897811
3013.66	0.908654
3014.95	0.947596
3016.24	0.777957
3017.53	0.664685
3018.82	0.579667
3020.11	0.564267
3021.4	0.618018
3022.69	0.809935
3023.98	0.667747
3025.27	0.774758
3026.56	0.70129
3027.85	0.171602
3029.14	0.528338
3030.43	0.415741
3031.71	0.552783
3033	0.538514
3034.29	0.331203
3035.58	0.454699
3036.87	0.632267
3038.15	0.477641
3039.44	0.638453
3040.73	0.701489
3042.01	0.626378
3043.3	0.825458
3044.59	0.764481
3045.87	0.103172
3047.16	0.537346
3048.44	0.658443
3049.73	0.5352
3051.01	0.549505
3052.3	0.823565
3053.58	0.838284
3054.87	0.388614
3056.15	0.647541
3057.43	0.850889
3058.72	0.372155
3060	0.928505
3061.29	0.858422
3062.57	0.666619
3063.85	0.707015
3065.13	0.897956
3066.42	0.47805
3067.7	0.684145
3068.98	0.360136
3070.26	0.334985
3071.54	0.635585
3072.82	0.513623
3074.11	0.662624
3075.39	0.348767
3076.67	0.347242
3077.95	0.25089
3079.23	0.209525
3080.51	0.31831
3081.79	0.2924
3083.07	0.389347
3084.35	0.513852
3085.63	0.244777
3086.9	0.300977
3088.18	0.27516
3089.46	0.16734
3090.74	0.167695
3092.02	0.0728846
3093.29	0.168004
3094.57	0.00552654
3095.85	0.0872412
3097.13	0.0468783
3098.4	0.0741506
3099.68	0.236711
3100.95	0.317739
3102.23	-0.102409
3103.51	-0.00779009
3104.78	-0.14309
3106.06	0.0603604
3107.33	-0.182303
3108.61	0.157528
3109.88	0.119054
3111.16	0.0811186
3112.43	0.219657
3113.71	0.141672
3114.98	0.375299
3116.25	-0.150756
3117.53	0.0275445
3118.8	0.29998
3120.07	0.273122
3121.35	0.272608
3122.62	-0.256978
3123.89	0.053473
3125.16	0.065763
3126.44	-0.0571256
3127.71	0.117962
3128.98	0.103806
3130.25	0.170893
3131.52	0.0216126
3132.79	0.1019
3134.06	-0.155929
3135.33	0.0989838
3136.6	0.123726
3137.87	-0.0947413
3139.14	-0.0977449
3140.41	-0.07409
3141.68	0.0838919
3142.95	-0.121135
3144.22	0.0368209
3145.49	0.0740585
3146.76	-0.0493231
3148.02	-0.0516782
3149.29	0.0667124
