200.533	-0.205454
202.348	-0.181993
204.162	-0.157835
205.976	0.49918
207.792	-0.0355263
209.605	0.182947
211.418	0.181628
213.23	0.154897
215.044	-0.551859
216.856	-0.094821
218.667	-0.0260353
220.478	0.357612
222.289	0.0399094
224.102	-0.276898
225.912	0.325128
227.721	-0.0638428
229.531	0.681941
231.34	-0.142254
233.148	0.0953932
234.956	-0.197495
236.766	0.257916
238.574	-0.0566816
240.381	0.208954
242.188	-0.271231
243.994	0.382832
245.801	-0.266027
247.606	-0.0475121
249.412	0.217289
251.217	0.383035
253.024	0.208619
254.828	0.0570574
256.632	-0.0465193
258.436	0.187898
260.239	0.471479
262.042	-0.183147
263.845	0.416057
265.647	0.293242
267.449	-0.0704927
269.25	0.433078
271.052	0.381576
272.852	0.425512
274.653	0.130729
276.453	0.268595
278.253	0.404892
280.052	0.467188
281.852	-0.266495
283.65	-0.134752
285.449	0.524179
287.247	0.341145
289.044	0.374197
290.842	0.216065
292.639	0.561741
294.436	0.190488
296.232	0.442276
298.028	0.622898
299.821	0.875368
301.617	0.267635
303.412	-0.0777731
305.206	0.554556
307	0.61304
308.794	0.313676
310.588	0.372374
312.381	0.0746264
314.172	0.468719
315.964	0.340253
317.756	-0.191812
319.548	0.325104
321.34	0.533386
323.131	0.289307
324.921	0.355414
326.71	0.540988
328.5	0.296498
330.29	0.840064
332.079	0.211202
333.868	0.370054
335.654	0.287997
337.443	0.371682
339.231	-0.0247464
341.018	0.701858
342.804	0.423248
344.591	0.24039
346.377	0.368503
348.163	0.186605
349.947	0.12447
351.733	0.133934
353.518	0.190648
355.303	0.771273
357.085	0.134364
358.869	0.331114
360.653	0.145702
362.435	0.43574
364.218	0.700941
366.001	0.394955
367.781	0.611022
369.563	0.517732
371.345	0.423932
373.124	0.708296
374.905	0.306401
376.686	-0.00013876
378.464	0.496025
380.244	0.143837
382.022	0.0755448
383.801	0.408109
385.58	0.647182
387.357	0.346507
389.135	0.540167
390.911	-0.228484
392.689	0.506608
394.466	0.654973
396.241	0.333896
398.018	0.318168
399.792	0.44319
401.568	0.802755
403.341	0.0578675
405.117	0.345871
406.889	-0.16517
408.664	0.262625
410.436	-0.225452
412.21	0.272339
413.981	0.347893
415.755	0.212785
417.525	0.265965
419.298	0.272679
421.068	0.655086
422.84	0.1219
424.609	0.480151
426.38	0.0864787
428.149	-0.0260959
429.919	0.142669
431.688	0.0297279
433.455	-0.364617
435.225	0.226991
436.992	0.184882
438.76	0.165711
440.527	0.403561
442.293	0.100261
444.06	0.241063
445.826	0.427148
447.593	0.471596
449.357	-0.0455661
451.122	0.51292
452.888	0.160325
454.651	0.251619
456.415	0.296129
458.18	0.0377154
459.942	0.52438
461.705	0.0807343
463.469	-0.0823455
465.23	0.221102
466.991	0.387157
468.752	0.299595
470.515	-0.182031
472.275	0.639321
474.035	0.459846
475.797	0.255577
477.556	0.352434
479.315	0.30817
481.073	0.42624
482.834	0.032042
484.592	0.290854
486.349	-0.00795746
488.106	0.277226
489.863	0.331002
491.622	0.315616
493.378	0.0202832
495.134	0.566503
496.889	0.317748
498.645	0.302626
500.401	0.498209
502.156	0.435438
503.91	0.512829
505.664	0.330906
507.417	0.147748
509.171	0.316188
510.923	0.365888
512.678	-0.338574
514.43	0.344192
516.182	-0.00932455
517.933	0.0833135
519.684	0.175168
521.435	0.0314422
523.186	0.592018
524.936	0.51814
526.686	0.420873
528.435	0.229945
530.184	0.296902
531.933	0.457167
533.682	0.195322
535.43	0.424139
537.18	0.441217
538.927	0.457216
540.674	0.0991983
542.421	0.486753
544.167	0.45437
545.913	0.143235
547.659	0.134673
549.403	0.242224
551.148	0.233914
552.893	-0.0749226
554.637	-0.244328
556.381	0.0946031
558.125	0.202554
559.868	0.35675
561.611	0.2579
563.354	0.136644
565.097	0.0389862
566.839	0.631026
568.581	0.00626516
570.322	-0.158169
572.063	0.573195
573.802	0.135684
575.542	-0.162884
577.283	0.159186
579.022	-0.298089
580.762	-0.0202837
582.501	-0.0868268
584.24	-0.222794
585.976	0.0544
587.714	0.0778165
589.452	0.00835133
591.19	0.0302539
592.927	-0.132266
594.663	-0.0648074
596.398	-0.0433264
598.134	0.0701599
599.87	0.206387
601.605	0.249968
603.338	-0.00636482
605.073	0.196198
606.808	-0.176785
608.542	-0.113602
610.274	0.293681
612.007	0.494431
613.74	0.00778913
615.473	0.255424
617.204	0.365545
618.936	0.154572
620.668	0.217677
622.397	0.00531244
624.128	0.226946
625.859	0.0599666
627.588	0.213608
629.318	-0.0878572
631.048	-0.0908737
632.775	0.409574
634.505	0.363162
636.233	0.156679
637.96	0.291309
639.688	0.355437
641.416	0.120813
643.142	-0.069634
644.869	0.0353684
646.594	0.208687
648.32	0.314936
650.045	0.264371
651.771	0.421154
653.496	0.808248
655.219	0.606936
656.944	0.429789
658.667	0.230168
660.391	0.440544
662.113	0.330377
663.837	0.469732
665.558	0.607419
667.281	0.14919
669.002	0.719486
670.724	0.16967
672.444	0.742322
674.166	0.493029
675.885	0.840904
677.606	0.295544
679.325	0.323374
681.045	0.649402
682.763	0.560475
684.483	0.538898
686.2	0.469752
687.917	0.860058
689.636	0.927157
691.352	1.10887
693.07	0.322637
694.786	0.388144
696.501	0.729234
698.219	0.378635
699.933	0.901761
701.65	0.779547
703.364	0.174133
705.078	0.99294
706.793	0.616792
708.506	1.11229
710.219	0.942244
711.934	1.04689
713.646	0.739436
715.358	0.729447
717.071	0.947742
718.782	0.869196
720.493	1.20115
722.204	0.986165
723.916	1.24935
725.626	0.852778
727.336	1.20616
729.045	0.741702
730.756	0.844496
732.464	1.01476
734.173	0.935668
735.881	0.90199
737.59	0.98155
739.297	1.33221
741.004	0.916679
742.711	0.953198
744.417	1.53102
746.125	1.14178
747.831	0.956394
749.537	0.974545
751.242	1.08365
752.946	1.30623
754.651	0.697532
756.357	1.43994
758.061	1.14844
759.764	1.51112
761.467	0.995847
763.17	1.38276
764.872	1.4539
766.575	0.959336
768.276	1.48011
769.978	1.36642
771.679	1.52247
773.382	1.42867
775.083	1.60588
776.783	1.37654
778.483	1.48738
780.182	1.68991
781.882	1.71243
783.581	1.62191
785.279	1.80205
786.978	1.50493
788.676	1.81646
790.373	1.31082
792.071	1.50441
793.768	1.47065
795.464	2.02324
797.161	1.44874
798.857	1.28182
800.552	0.823888
802.248	1.85226
803.941	1.95828
805.636	1.99662
807.33	1.4051
809.024	1.71154
810.718	1.65761
812.412	1.5806
814.105	1.61529
815.798	1.3811
817.49	1.41567
819.183	2.14302
820.873	1.88681
822.564	1.966
824.256	1.39915
825.947	1.88142
827.637	1.00627
829.328	1.7816
831.016	2.02478
832.705	1.64654
834.395	1.13586
836.084	1.45061
837.772	1.4531
839.459	1.9236
841.147	1.83477
842.835	1.43203
844.522	0.984072
846.209	1.67638
847.894	1.40904
849.581	1.27756
851.267	1.66281
852.953	1.13124
854.637	1.22753
856.322	0.941998
858.007	1.19469
859.689	1.28904
861.374	1.02186
863.058	1.00097
864.739	1.38479
866.423	1.02421
868.106	0.978639
869.787	1.40634
871.469	0.93164
873.151	0.704808
874.831	0.680933
876.512	1.24379
878.193	1.10714
879.872	0.992934
881.553	0.788119
883.231	0.740771
884.911	1.14409
886.591	1.83962
888.268	0.660892
889.947	1.17325
891.623	1.18812
893.302	0.976737
894.978	0.922318
896.656	0.934617
898.331	0.946149
900.008	0.732635
901.683	1.32555
903.359	0.976809
905.033	0.49473
906.709	0.973739
908.383	0.805583
910.058	0.861124
911.731	0.739254
913.405	1.08481
915.078	1.00812
916.752	1.19777
918.423	1.23188
920.096	0.623944
921.768	0.459943
923.438	0.739095
925.111	1.0853
926.781	0.483135
928.452	1.27315
930.122	1.04861
931.791	1.24386
933.462	0.865681
935.13	1.14945
936.799	1.14677
938.468	0.924208
940.136	0.592264
941.803	0.547882
943.472	0.526052
945.139	0.83515
946.805	0.657851
948.473	1.31797
950.139	0.431619
951.804	0.978884
953.471	0.70985
955.136	0.927236
956.801	0.81591
958.465	0.596641
960.131	0.776484
961.794	0.71469
963.458	0.74109
965.12	0.898941
966.785	0.612402
968.447	0.655598
970.109	0.431786
971.771	0.384398
973.432	0.580636
975.095	0.534644
976.756	0.180331
978.417	0.933015
980.077	0.602279
981.737	0.0496845
983.396	0.691374
985.057	0.534736
986.716	0.465153
988.375	0.92528
990.033	0.543787
991.691	-0.0145597
993.349	0.288998
995.006	0.503969
996.663	0.431976
998.32	0.514377
999.976	0.332078
1001.63	0.590127
1003.29	0.539438
1004.95	0.312652
1006.6	0.723361
1008.26	0.365014
1009.91	0.665702
1011.56	0.0891461
1013.22	0.609408
1014.87	0.472247
1016.53	0.466877
1018.18	0.264962
1019.83	-0.614174
1021.48	0.650595
1023.14	0.0356827
1024.79	0.164712
1026.44	-0.0992332
1028.09	0.6201
1029.74	0.224612
1031.39	0.592803
1033.04	0.697577
1034.69	0.342847
1036.34	0.336412
1037.99	0.32941
1039.64	0.365897
1041.29	0.489816
1042.94	0.26674
1044.58	0.414502
1046.23	0.302915
1047.88	-0.15476
1049.52	0.518036
1051.17	0.344738
1052.82	0.324027
1054.46	0.0210686
1056.11	0.196129
1057.75	0.197136
1059.4	0.176049
1061.04	-0.215158
1062.69	0.393314
1064.33	0.174842
1065.98	0.542631
1067.62	-0.285877
1069.26	0.102104
1070.9	0.532757
1072.55	0.181522
1074.19	0.19979
1075.83	0.0452528
1077.47	0.217017
1079.11	-0.0224075
1080.76	0.584396
1082.4	0.150308
1084.04	0.0842204
1085.68	0.147064
1087.32	-0.159906
1088.95	0.246576
1090.59	-0.0194659
1092.23	0.557138
1093.87	-0.0122252
1095.51	0.519914
1097.15	0.426607
1098.78	0.0759735
1100.42	0.308261
1102.06	-0.146873
1103.69	0.324529
1105.33	-0.235773
1106.97	0.344316
1108.6	0.515444
1110.24	0.169681
1111.87	0.0594058
1113.51	0.270302
1115.14	0.608851
1116.77	0.453122
1118.41	0.254821
1120.04	0.357209
1121.67	0.395966
1123.31	0.178637
1124.94	0.197516
1126.57	-0.146602
1128.2	0.172886
1129.83	0.578289
1131.47	0.577813
1133.1	0.663057
1134.72	0.299283
1136.36	0.212958
1137.98	0.254105
1139.62	-0.111473
1141.24	-0.392041
1142.87	-0.0111885
1144.5	0.24142
1146.13	-0.0386548
1147.76	0.0870581
1149.38	0.298522
1151.01	0.403718
1152.64	0.0190725
1154.27	0.0814376
1155.89	0.292452
1157.52	0.396869
1159.14	0.373882
1160.77	0.181425
1162.39	0.372553
1164.02	0.394294
1165.64	0.0124106
1167.27	-0.114536
1168.89	-0.306006
1170.51	0.542869
1172.14	0.0725288
1173.76	0.344506
1175.38	0.0636249
1177	-0.217185
1178.63	0.0533109
1180.25	0.239231
1181.87	-0.251338
1183.49	0.0624795
1185.11	-0.279061
1186.73	-0.156318
1188.35	0.0705914
1189.97	0.611818
1191.59	0.392557
1193.21	0.15171
1194.83	0.183857
1196.45	0.404615
1198.07	0.0602055
1199.68	-0.0102406
1201.3	0.527024
1202.92	0.18852
1204.53	0.332266
1206.15	0.435735
1207.77	0.310643
1209.38	-0.127141
1211	0.623398
1212.62	0.684219
1214.23	0.430728
1215.84	0.509042
1217.46	0.128262
1219.07	0.557919
1220.69	0.363876
1222.3	0.523278
1223.91	0.683326
1225.53	-0.00461102
1227.14	0.778562
1228.75	0.403752
1230.36	0.836514
1231.97	0.897875
1233.59	0.712136
1235.2	0.692708
1236.81	0.116103
1238.42	0.635745
1240.03	0.535738
1241.64	0.53923
1243.25	0.521777
1244.85	0.772733
1246.46	0.174555
1248.07	0.982723
1249.68	0.507414
1251.29	1.02499
1252.9	1.12892
1254.5	1.25409
1256.11	0.821643
1257.72	0.907246
1259.32	1.03516
1260.93	0.170213
1262.54	0.671706
1264.14	0.862843
1265.75	0.86729
1267.35	0.746808
1268.96	0.584094
1270.56	0.62791
1272.16	1.35517
1273.77	0.816871
1275.37	1.08636
1276.97	0.339633
1278.57	0.814939
1280.18	0.937416
1281.78	0.68703
1283.38	1.57474
1284.98	0.663108
1286.58	1.03448
1288.18	0.579729
1289.78	1.09708
1291.38	1.36673
1292.99	0.995732
1294.58	0.644913
1296.18	1.615
1297.78	0.911005
1299.38	1.40303
1300.98	0.635657
1302.58	0.795483
1304.17	0.933738
1305.77	0.865592
1307.37	0.735598
1308.97	0.544111
1310.56	1.13175
1312.16	1.3295
1313.76	1.24115
1315.35	1.41938
1316.95	1.61848
1318.54	1.22608
1320.14	1.28264
1321.73	0.910642
1323.32	1.31137
1324.92	0.592009
1326.51	0.949205
1328.1	1.10236
1329.7	1.0936
1331.29	0.843433
1332.88	1.32282
1334.47	1.29846
1336.07	1.43682
1337.66	1.3536
1339.25	1.26991
1340.84	1.02387
1342.43	1.27965
1344.02	1.31224
1345.61	1.28368
1347.2	1.1551
1348.79	1.16836
1350.37	0.763263
1351.96	0.920655
1353.55	1.43932
1355.14	0.519597
1356.73	0.579737
1358.31	1.03903
1359.9	0.83833
1361.49	1.09604
1363.07	0.415317
1364.66	0.811644
1366.25	0.809231
1367.83	0.926922
1369.42	0.468175
1371	0.468471
1372.59	0.290684
1374.17	0.611152
1375.75	0.514244
1377.34	0.636279
1378.92	0.618639
1380.5	0.301793
1382.09	0.60078
1383.67	0.540704
1385.25	0.61909
1386.83	0.637478
1388.42	0.219118
1390	0.198582
1391.58	0.337435
1393.16	0.318069
1394.74	0.735303
1396.32	1.11254
1397.9	-0.215723
1399.48	0.794388
1401.06	0.832454
1402.64	0.6919
1404.21	0.848236
1405.79	0.648898
1407.37	0.648034
1408.95	0.489742
1410.53	0.470177
1412.1	0.174136
1413.68	-0.0036974
1415.26	0.409899
1416.83	0.428094
1418.41	0.524841
1419.98	0.739933
1421.56	0.48308
1423.13	0.32598
1424.71	0.819625
1426.28	0.763051
1427.86	1.02179
1429.43	0.49299
1431	0.750827
1432.58	0.948707
1434.15	0.673632
1435.72	1.00806
1437.29	0.693661
1438.87	0.989317
1440.44	1.03014
1442.01	1.03238
1443.58	1.09411
1445.15	1.23476
1446.72	1.39523
1448.29	1.35928
1449.86	0.714103
1451.43	0.658984
1453	1.19423
1454.57	0.903803
1456.14	1.36089
1457.71	1.30597
1459.27	1.30907
1460.84	0.897562
1462.41	1.23239
1463.98	1.15275
1465.54	1.13132
1467.11	0.481071
1468.67	0.676012
1470.24	0.773306
1471.81	0.910607
1473.37	0.734832
1474.94	0.716581
1476.5	0.522181
1478.07	0.445534
1479.63	0.46687
1481.19	0.331336
1482.76	0.960048
1484.32	0.256103
1485.88	0.668761
1487.45	0.512687
1489.01	-0.0162253
1490.57	0.0019331
1492.13	0.683259
1493.69	0.482857
1495.26	0.262064
1496.82	0.37226
1498.38	0.151247
1499.94	0.708544
1501.5	0.00357723
1503.06	0.406297
1504.62	0.343891
1506.17	-0.0472817
1507.73	0.490055
1509.29	0.117613
1510.85	0.420489
1512.41	0.760535
1513.97	0.0601959
1515.52	0.322821
1517.08	0.23969
1518.64	0.31072
1520.19	0.0181041
1521.75	0.606401
1523.31	0.409542
1524.86	0.422537
1526.42	0.339414
1527.97	0.446244
1529.52	0.51435
1531.08	0.468338
1532.63	0.328055
1534.19	0.700058
1535.74	0.447814
1537.29	0.536915
1538.85	0.701834
1540.4	0.150208
1541.95	0.485065
1543.5	0.631014
1545.06	0.945726
1546.61	1.16573
1548.16	0.728488
1549.71	0.779433
1551.26	1.39213
1552.81	0.825603
1554.36	1.00843
1555.91	0.949286
1557.46	0.966267
1559.01	1.02208
1560.56	1.17264
1562.11	1.02597
1563.65	0.842844
1565.2	1.0706
1566.75	1.50377
1568.29	1.26496
1569.84	1.49243
1571.39	1.19695
1572.94	0.807892
1574.48	1.22142
1576.03	1.05628
1577.57	1.33934
1579.12	1.11869
1580.66	1.51468
1582.21	1.63131
1583.75	1.52451
1585.3	1.53039
1586.84	1.12533
1588.38	1.18767
1589.93	1.34343
1591.47	0.956111
1593.01	1.54187
1594.55	1.32235
1596.1	1.27137
1597.64	1.2207
1599.18	1.48927
1600.72	0.970752
1602.26	1.20283
1603.8	0.909311
1605.34	1.12224
1606.88	0.958398
1608.42	1.11252
1609.96	1.05814
1611.5	0.795334
1613.04	0.869312
1614.58	0.867183
1616.12	0.677209
1617.65	1.01266
1619.19	0.973958
1620.73	0.655519
1622.27	1.1621
1623.8	1.07005
1625.34	1.10906
1626.87	0.492435
1628.41	0.679677
1629.95	0.884452
1631.48	0.901352
1633.02	0.992657
1634.55	0.860105
1636.09	1.17608
1637.62	1.41789
1639.15	0.802429
1640.69	1.13787
1642.22	1.19314
1643.76	0.8751
1645.29	1.09615
1646.82	1.16747
1648.35	1.07122
1649.88	0.826896
1651.42	1.43721
1652.95	1.1205
1654.48	1.34258
1656.01	0.953357
1657.54	0.897827
1659.07	0.304642
1660.6	0.729219
1662.13	1.02274
1663.66	1.37044
1665.19	0.71982
1666.72	0.716434
1668.24	0.879841
1669.77	0.878274
1671.3	0.527748
1672.83	0.804501
1674.35	0.602645
1675.88	0.566396
1677.41	0.860851
1678.93	0.878324
1680.46	0.968534
1681.99	0.672217
1683.51	0.816726
1685.04	0.465666
1686.56	0.995547
1688.09	0.700396
1689.61	0.643995
1691.13	0.368124
1692.66	0.659878
1694.18	0.0916262
1695.71	0.309927
1697.23	0.765336
1698.75	0.10607
1700.27	0.524001
1701.8	-0.0255623
1703.32	0.0813065
1704.84	0.0965748
1706.36	0.329833
1707.88	0.180746
1709.4	0.140831
1710.92	-0.116713
1712.44	0.297172
1713.96	0.148868
1715.48	0.127561
1717	0.26902
1718.52	0.211356
1720.04	0.225961
1721.56	0.637597
1723.07	0.273806
1724.59	0.109439
1726.11	0.162288
1727.63	-0.143962
1729.14	0.0365143
1730.66	-0.355093
1732.18	0.201603
1733.69	0.1685
1735.21	-0.0541153
1736.72	0.220402
1738.24	-0.0778003
1739.75	-0.448153
1741.27	0.0937319
1742.78	0.0469761
1744.3	-0.275562
1745.81	0.0372744
1747.32	0.0618272
1748.84	0.311823
1750.35	-0.0713868
1751.86	0.273592
1753.37	0.16153
1754.89	0.359663
1756.4	0.263208
1757.91	-0.423106
1759.42	0.105327
1760.93	0.162929
1762.44	0.0939436
1763.95	0.0217443
1765.46	0.047472
1766.97	0.19241
1768.48	0.266529
1769.99	0.153557
1771.5	0.23982
1773.01	-0.00370455
1774.52	0.281286
1776.03	0.111454
1777.53	0.117806
1779.04	0.117731
1780.55	0.0065279
1782.06	0.159157
1783.56	0.266531
1785.07	0.224998
1786.57	0.210252
1788.08	0.22338
1789.59	0.053102
1791.09	-0.300084
1792.6	0.0791702
1794.1	-0.148274
1795.6	0.144419
1797.11	0.0355377
1798.61	-0.124843
1800.12	-0.011188
1801.62	-0.0395594
1803.12	0.280638
1804.63	0.210722
1806.13	0.18181
1807.63	0.0573444
1809.13	0.3208
1810.63	0.337877
1812.14	0.257052
1813.64	0.289337
1815.14	0.206494
1816.64	0.281142
1818.14	0.339072
1819.64	0.010942
1821.14	0.0559669
1822.64	0.223328
1824.14	0.231805
1825.63	0.0965948
1827.13	0.226371
1828.63	0.241709
1830.13	0.379949
1831.63	0.175598
1833.12	-0.0247693
1834.62	0.236466
1836.12	-0.0230808
1837.62	-0.0569968
1839.11	0.170527
1840.61	0.0126796
1842.1	0.348274
1843.6	0.178919
1845.09	0.303187
1846.59	0.357156
1848.08	0.180149
1849.58	0.289787
1851.07	0.198413
1852.57	0.545541
1854.06	0.274081
1855.55	0.109384
1857.04	0.338282
1858.54	-0.0346599
1860.03	0.421169
1861.52	0.419981
1863.01	0.609504
1864.5	0.379878
1866	0.284346
1867.49	0.0786366
1868.98	-0.0845928
1870.47	0.446606
1871.96	0.37612
1873.45	0.321377
1874.94	0.313148
1876.43	0.456932
1877.92	0.382234
1879.41	-0.00684118
1880.89	0.320594
1882.38	0.446743
1882.48	0.456131
1883.97	0.333615
1885.47	0.29773
1886.96	0.435392
1888.46	0.0850921
1889.95	0.257239
1891.44	0.377762
1892.94	0.464622
1894.43	0.361604
1895.92	-0.105394
1897.41	0.401984
1898.9	0.283286
1900.4	0.372581
1901.89	0.652011
1903.38	0.529965
1904.87	0.789312
1906.36	0.387529
1907.85	0.159775
1909.34	0.574899
1910.83	0.55662
1912.32	0.539052
1913.81	0.67803
1915.29	0.487565
1916.78	0.9904
1918.27	0.452618
1919.76	0.417275
1921.25	0.104736
1922.74	0.0524087
1924.22	0.277724
1925.71	0.261456
1927.2	0.0555453
1928.68	0.456075
1930.17	0.371829
1931.65	0.113809
1933.14	0.374228
1934.63	0.54666
1936.11	0.215919
1937.59	0.1613
1939.08	-0.0663934
1940.56	0.224425
1942.05	0.688083
1943.53	0.462091
1945.01	0.0989861
1946.5	0.460437
1947.98	0.373426
1949.46	0.406512
1950.94	-0.112154
1952.43	0.298299
1953.91	0.484242
1955.39	0.498011
1956.87	0.305971
1958.35	0.50941
1959.83	0.078476
1961.31	0.437102
1962.79	0.281378
1964.27	0.331246
1965.75	0.620443
1967.23	0.309768
1968.71	0.546311
1970.19	0.0128965
1971.67	0.521963
1973.14	0.00613403
1974.62	0.0539613
1976.1	0.118884
1977.58	0.40527
1979.05	0.333888
1980.53	0.415669
1982.01	0.225226
1983.48	0.5784
1984.96	0.591315
1986.43	0.213918
1987.91	0.294663
1989.38	0.375498
1990.86	0.118247
1992.33	-0.03654
1993.81	0.350515
1995.28	0.687159
1996.76	0.179221
1998.23	0.684898
1999.7	0.160074
2001.18	0.411473
2002.65	0.577928
2004.12	0.811525
2005.59	0.607039
2007.06	0.588564
2008.54	0.234044
2010.01	0.435898
2011.48	0.419252
2012.95	0.469981
2014.42	0.41941
2015.89	0.586996
2017.36	0.619234
2018.83	0.314581
2020.3	0.530671
2021.77	0.276191
2023.24	0.408257
2024.71	0.540777
2026.17	0.741192
2027.64	0.422709
2029.11	0.491136
2030.58	0.493484
2032.04	0.479787
2033.51	0.583967
2034.98	0.520278
2036.45	0.47306
2037.91	0.475815
2039.38	0.343813
2040.84	0.379795
2042.31	0.617832
2043.77	0.284689
2045.24	0.776472
2046.7	0.410695
2048.17	0.246898
2049.63	0.150116
2051.1	0.575199
2052.56	0.560905
2054.02	0.35971
2055.48	0.443896
2056.95	0.476425
2058.41	0.491457
2059.87	0.422111
2061.33	0.571992
2062.8	0.671882
2064.26	0.688346
2065.72	0.587774
2067.18	0.336387
2068.64	0.607162
2070.1	0.575243
2071.56	0.375005
2073.02	0.376657
2074.48	0.462302
2075.94	0.564545
2077.4	-0.0407825
2078.86	0.549244
2080.31	0.482153
2081.77	0.58302
2083.23	0.649672
2084.69	0.177224
2086.14	0.579276
2087.6	0.980515
2089.06	0.776021
2090.52	0.756329
2091.97	0.686224
2093.43	0.49866
2094.88	0.730361
2096.34	0.626205
2097.79	0.622162
2099.25	0.701313
2100.7	0.98075
2102.16	0.60821
2103.61	0.938163
2105.07	0.651194
2106.52	0.432282
2107.97	0.647948
2109.43	0.730377
2110.88	0.645663
2112.33	0.493363
2113.78	0.722963
2115.24	0.867793
2116.69	0.729025
2118.14	0.823255
2119.59	0.785544
2121.04	1.06455
2122.49	0.333196
2123.94	0.681085
2125.39	0.598291
2126.84	0.614809
2128.29	0.862648
2129.74	0.94358
2131.19	0.940604
2132.64	1.13562
2134.09	0.966403
2135.54	0.963303
2136.98	1.14314
2138.43	1.05992
2139.88	1.09387
2141.33	0.914232
2142.77	1.06613
2144.22	0.722367
2145.67	0.858377
2147.11	1.4082
2148.56	0.88135
2150.01	1.46348
2151.45	1.26629
2152.9	1.51564
2154.34	1.00214
2155.79	1.31668
2157.23	1.59806
2158.67	1.21739
2160.12	1.31813
2161.56	1.42029
2163	1.09295
2164.45	1.16458
2165.89	1.46941
2167.33	1.09345
2168.78	1.36455
2170.22	1.05241
2171.66	1.4205
2173.1	1.52092
2174.54	1.22098
2175.98	1.07032
2177.42	1.61819
2178.86	1.35185
2180.3	1.50195
2181.74	1.32024
2183.18	0.989273
2184.62	1.37362
2186.06	1.24245
2187.5	0.795099
2188.94	0.996651
2190.38	0.965224
2191.82	1.28319
2193.25	1.13447
2194.69	1.56744
2196.13	1.18317
2197.57	1.24682
2199	1.02634
2200.44	0.905029
2201.88	0.850153
2203.31	0.8456
2204.75	0.991089
2206.18	1.23666
2207.62	0.96888
2209.05	0.899908
2210.49	0.780761
2211.92	0.975259
2213.36	0.987078
2214.79	0.899649
2216.22	0.812768
2217.66	0.776329
2219.09	1.08717
2220.52	1.16766
2221.96	0.885641
2223.39	0.7845
2224.82	0.682402
2226.25	0.760145
2227.68	0.540555
2229.11	0.648885
2230.55	0.936833
2231.98	0.634014
2233.41	0.610323
2234.84	0.505471
2236.27	0.64672
2237.7	0.690967
2239.12	0.801845
2240.55	0.60424
2241.98	0.571174
2243.41	0.71846
2244.84	0.654003
2246.27	0.637997
2247.7	0.425119
2249.12	0.732446
2250.55	0.842241
2251.98	0.185435
2253.41	0.732569
2254.83	0.434016
2256.26	0.770154
2257.68	0.734444
2259.11	0.506249
2260.54	0.426274
2261.96	0.266903
2263.39	0.319674
2264.81	0.486517
2266.24	0.604516
2267.66	0.917254
2269.08	-0.0561285
2270.51	0.48321
2271.93	0.647939
2273.35	0.307722
2274.78	0.4561
2276.2	0.11588
2277.62	0.655701
2279.04	0.59267
2280.47	0.448025
2281.89	0.743599
2283.31	0.305082
2284.73	0.421206
2286.15	0.570187
2287.57	0.5889
2288.99	0.395617
2290.41	0.33321
2291.83	0.172871
2293.25	0.306855
2294.67	0.457303
2296.09	0.460499
2297.51	0.529152
2298.93	0.35216
2300.35	0.273479
2301.76	0.326108
2303.18	-0.178801
2304.6	-0.0111351
2306.02	-0.0404205
2307.44	0.554404
2308.85	-0.0177383
2310.27	0.46166
2311.69	0.513397
2313.1	0.746117
2314.52	0.51842
2315.93	0.521623
2317.35	0.327719
2318.76	0.348238
2320.18	0.45109
2321.59	0.239726
2323.01	0.439466
2324.42	0.6375
2325.83	0.50375
2327.25	0.649142
2328.66	0.563028
2330.07	0.39477
2331.49	0.605994
2332.9	0.373525
2334.31	0.108927
2335.72	-0.00730419
2337.13	0.369605
2338.55	0.318109
2339.96	0.0193243
2341.37	0.24569
2342.78	0.126744
2344.19	0.417921
2345.6	0.102495
2347.01	-0.0157795
2348.42	0.0625482
2349.83	-0.0885158
2351.24	0.0379848
2352.65	0.0329227
2354.05	0.0271835
2355.46	0.477358
2356.87	0.763481
2358.28	0.10558
2359.69	-0.0959039
2361.09	0.0764098
2362.5	-0.205633
2363.91	0.452229
2365.31	-0.185673
2366.72	0.212249
2368.13	0.012394
2369.53	0.345979
2370.94	0.164173
2372.34	0.257455
2373.75	-0.0672879
2375.15	0.0914321
2376.56	0.346293
2377.96	-0.0270176
2379.37	0.209652
2380.77	0.171794
2382.17	-0.107563
2383.58	0.109561
2384.98	-0.0259557
2386.38	0.118729
2387.79	0.263715
2389.19	0.257815
2390.59	-0.00205183
2391.99	0.185088
2393.39	0.102246
2394.8	-0.154855
2396.2	0.0975027
2397.6	0.493182
2399	0.38063
2400.4	0.252622
2401.8	-0.113358
2403.2	-0.0027523
2404.6	-0.019465
2406	0.0267272
2407.4	-0.00712109
2408.79	-0.168386
2410.19	0.272615
2411.59	0.206324
2412.99	0.489091
2414.39	0.313494
2415.78	0.408193
2417.18	0.424749
2418.58	0.34702
2419.98	0.237882
2421.37	0.112784
2422.77	0.114135
2424.16	0.210349
2425.56	0.27493
2426.96	0.371604
2428.35	0.437267
2429.74	0.329249
2431.14	0.253415
2432.53	0.193509
2433.93	0.00613356
2435.32	-0.0550747
2436.72	-0.0220251
2438.11	0.200592
2439.5	0.0886116
2440.9	0.293611
2442.29	-0.0575423
2443.68	0.0356646
2445.07	0.160393
2446.47	-0.0321913
2447.86	0.0764008
2449.25	0.359123
2450.64	-0.0549064
2452.03	-0.151679
2453.42	-0.374433
2454.81	0.257801
2456.2	0.225998
2457.59	-0.07445
2458.98	0.00464725
2460.37	0.0200682
2461.76	0.0665298
2463.15	0.254638
2464.54	0.0471864
2465.93	0.0449834
2467.32	0.247924
2468.7	0.0719628
2470.09	0.022191
2471.48	0.0824852
2472.87	0.031951
2474.25	0.232807
2475.64	0.196925
2477.03	0.176535
2478.41	-0.0323253
2479.8	0.0731144
2481.18	0.0373955
2482.57	0.299379
2483.95	-0.159515
2485.34	0.0699558
2486.72	0.0481701
2488.11	-0.099205
2489.49	0.314295
2490.88	0.135143
2492.26	-0.214172
2493.65	0.0902424
2495.03	-0.116908
2496.41	0.0647106
2497.79	0.15376
2499.18	-0.175017
2500.56	0.0378146
2501.94	0.0333939
2503.32	0.0900407
2504.7	0.0687904
2506.09	-0.291858
2507.47	-0.0208492
2508.85	0.0190315
2510.23	-0.109801
2511.61	0.222365
2512.99	-0.0586572
2514.37	-0.0935068
2515.75	-0.20421
2517.13	0.190588
2518.51	-0.102641
2519.89	-0.0592384
2521.26	0.0297647
2522.64	0.270838
2524.02	0.34319
2525.4	0.0643487
2526.78	0.120775
2528.15	0.359993
2529.53	0.037076
2530.91	0.490824
2532.28	0.155434
2533.66	0.292194
2535.04	-0.102232
2536.41	0.0502806
2537.79	0.0200224
2539.16	-0.253908
2540.54	0.215691
2541.91	0.13831
2543.29	-0.257443
2544.66	0.090898
2546.04	0.151853
2547.41	0.0923805
2548.78	-0.0423174
2550.16	0.0202956
2551.53	0.0674257
2552.9	0.0683804
2554.27	0.12928
2555.65	-0.0835958
2557.02	-0.0237513
2558.39	-0.176321
2559.76	0.20196
2561.13	0.0954747
2562.51	0.4593
2563.88	0.0961509
2565.25	0.0970497
2566.62	0.0678406
2567.99	-0.0976877
2569.36	0.0247512
2570.73	-0.0801382
2572.1	0.178783
2573.47	-0.380754
2574.84	0.181529
2576.2	-0.105075
2577.57	0.0024519
2578.94	-0.0114584
2580.31	-0.192404
2581.68	0.00544357
2583.05	0.157522
2584.41	0.172964
2585.78	0.0671062
2587.15	-0.0386319
2588.51	0.00735283
2589.88	-0.143579
2591.24	0.190356
2592.61	0.00873852
2593.98	-0.0976429
2595.34	-0.0683923
2596.71	-0.191269
2598.07	0.0333681
2599.44	-0.150743
2600.8	-0.0776916
2602.16	-0.0949645
2603.53	-0.0664396
2604.89	0.234107
2606.26	-0.00843525
2607.62	0.0204091
2608.98	0.00342035
2610.34	-0.0294738
2611.71	-0.228828
2613.07	0.0525103
2614.43	-0.0578165
2615.79	0.117003
2617.15	-0.00817394
2618.52	-0.207547
2619.88	0.297311
2621.24	0.248695
2622.6	0.00631857
2623.96	0.30203
2625.32	0.104887
2626.68	0.056962
2628.04	0.217495
2629.4	0.184
2630.75	0.0165071
2632.11	0.0127358
2633.47	-0.154444
2634.83	0.123911
2636.19	0.060709
2637.55	0.0124316
2638.9	-0.0653319
2640.26	0.478542
2641.62	-0.249615
2642.98	0.234919
2644.33	0.172687
2645.69	-0.169796
2647.04	0.2103
2648.4	0.309436
2649.76	0.0104523
2651.11	-0.0532303
2652.47	0.0885992
2653.82	0.0395765
2655.18	0.123122
2656.53	-0.144157
2657.88	0.409451
2659.24	0.143911
2660.59	0.12755
2661.95	0.301113
2663.3	0.459455
2664.65	0.135301
2666	0.161101
2667.36	0.0990686
2668.71	-0.283286
2670.06	-0.0100651
2671.41	0.175901
2672.76	-0.175517
2674.12	0.287188
2675.47	0.125717
2676.82	0.109923
2678.17	-0.224433
2679.52	0.326503
2680.87	0.051652
2682.22	0.0386963
2683.57	0.0991259
2684.92	0.160322
2686.27	-0.18434
2687.62	-0.122889
2688.97	0.431371
2690.31	0.302136
2691.66	0.0409236
2693.01	0.286551
2694.36	0.0381885
2695.71	0.00734234
2697.05	0.107347
2698.4	0.121344
2699.75	-0.181961
2701.09	-0.0930257
2702.44	0.243276
2703.78	0.145908
2705.13	-0.0816035
2706.48	0.169368
2707.82	0.24627
2709.17	0.105199
2710.51	-0.0507736
2711.86	0.388559
2713.2	0.05793
2714.54	0.163126
2715.89	0.282897
2717.23	0.111768
2718.57	-0.0450778
2719.92	0.248837
2721.26	0.193257
2722.6	-0.0664477
2723.95	0.0519257
2725.29	0.213668
2726.63	-0.0469594
2727.97	0.318046
2729.31	0.319006
2730.65	0.334419
2732	0.0151978
2733.34	0.205269
2734.68	0.119081
2736.02	-0.0687428
2737.36	0.0780821
2738.7	0.0940046
2740.04	0.255188
2741.38	0.0379572
2742.72	-0.0052042
2744.05	-0.13603
2745.39	0.125048
2746.73	0.196835
2748.07	-0.268639
2749.41	0.0498233
2750.75	0.0926142
2752.08	0.353041
2753.42	0.00477505
2754.76	0.192944
2756.09	-0.198242
2757.43	0.0625143
2758.77	0.135139
2760.1	0.106716
2761.44	0.0497279
2762.78	0.123346
2764.11	0.00910759
2765.44	-0.307665
2766.78	-0.219601
2768.11	0.128175
2769.45	0.171193
2770.78	0.169756
2772.12	-0.208158
2773.45	-0.0956125
2774.78	0.117271
2776.12	0.185709
2777.45	0.110389
2778.78	0.0356083
2780.12	0.277482
2781.45	0.260792
2782.78	0.028934
2784.11	0.0555105
2785.44	0.153705
2786.78	0.0657125
2788.11	-0.0933766
2789.44	0.0344229
2790.77	-0.00885391
2792.1	-0.137312
2793.43	-0.0223465
2794.76	0.149789
2796.09	0.164441
2797.42	-0.0926976
2798.75	-0.621329
2800.08	0.405854
2801.4	0.0624366
2802.73	-0.10968
2804.06	-0.153535
2805.39	-0.0124807
2806.72	0.284549
2808.05	-0.20157
2809.37	-0.0619183
2810.7	-0.00767279
2812.03	0.0327287
2813.35	0.158995
2814.68	0.144434
2816.01	-0.0107923
2817.33	0.217531
2818.66	0.120298
2819.98	-0.00525427
2821.31	-0.272831
2822.63	0.0260353
2823.96	0.253515
2825.28	0.239834
2826.61	0.183709
2827.93	0.467787
2829.25	0.101
2830.58	0.343328
2831.9	0.359318
2833.23	0.148796
2834.55	0.447619
2835.87	0.349767
2837.19	0.110069
2838.52	0.747207
2839.84	0.139367
2841.16	0.776083
2842.48	0.494024
2843.8	0.707193
2845.12	0.807799
2846.44	0.626222
2847.77	0.868897
2849.08	0.942014
2850.4	1.02906
2851.73	0.861341
2853.05	1.01832
2854.36	0.807579
2855.68	0.921721
2857	1.00756
2858.32	0.923917
2859.64	1.05212
2860.96	1.02486
2862.28	1.12442
2863.59	1.20957
2864.91	1.13927
2866.23	1.26648
2867.55	1.4502
2868.86	2.08536
2870.18	1.98752
2871.5	1.56565
2872.81	1.98933
2874.13	1.98957
2875.44	1.69324
2876.76	1.84687
2878.07	1.92938
2879.39	2.12409
2880.7	1.869
2882.02	1.96599
2883.33	2.00749
2884.65	2.13392
2885.96	1.71327
2887.28	1.79812
2888.59	2.02293
2889.9	1.85428
2891.21	1.90949
2892.53	1.66988
2893.84	1.90665
2895.15	1.77939
2896.46	2.0447
2897.78	2.22663
2899.09	1.61174
2900.4	2.22863
2901.71	2.39813
2903.02	2.12014
2904.33	2.20593
2905.64	2.37583
2906.95	2.51814
2908.26	2.81492
2909.57	2.59472
2910.88	2.48679
2912.19	2.91072
2913.5	2.66226
2914.81	2.90276
2916.12	3.21197
2917.43	3.37992
2918.73	2.77749
2920.04	3.22426
2921.35	3.69918
2922.66	3.21022
2923.96	3.25356
2925.27	3.45149
2926.58	3.31438
2927.88	3.34505
2929.19	3.85076
2930.5	3.89469
2931.8	4.03609
2933.11	3.6321
2934.41	3.31199
2935.72	3.5091
2937.02	3.31498
2938.33	3.63803
2939.63	3.84945
2940.94	3.64201
2942.24	3.46311
2943.54	2.89369
2944.85	2.88415
2946.15	3.11316
2947.45	2.92305
2948.76	3.22248
2950.06	3.04525
2951.36	2.83863
2952.66	3.07868
2953.97	2.9396
2955.27	2.77222
2956.57	3.26331
2957.87	2.91601
2959.17	2.68256
2960.47	2.619
2961.77	2.73906
2963.07	2.45303
2964.37	2.40485
2965.67	2.58034
2966.97	2.57207
2968.27	2.29565
2969.57	2.03253
2970.87	2.38802
2972.17	2.56097
2973.47	2.10097
2974.77	1.96443
2976.07	2.03856
2977.36	1.80198
2978.66	1.97248
2979.96	1.88824
2981.26	2.28144
2982.55	1.63301
2983.85	1.68827
2985.15	1.95503
2986.44	1.85738
2987.74	1.87323
2989.03	1.87576
2990.33	1.26009
2991.63	1.29048
2992.92	1.03901
2994.21	1.39085
2995.51	1.33426
2996.8	1.29114
2998.1	1.33203
2999.39	1.03635
3000.69	0.839396
3001.98	0.825163
3003.27	1.27361
3004.57	1.0354
3005.86	0.86711
3007.15	0.810431
3008.44	0.823086
3009.74	0.890934
3011.03	0.441079
3012.32	0.647714
3013.61	0.212214
3014.9	0.572191
3016.19	0.486303
3017.48	0.38708
3018.78	0.469173
3020.07	0.606807
3021.36	0.730002
3022.65	0.560656
3023.94	0.210373
3025.23	0.442389
3026.51	0.341294
3027.8	0.323661
3029.09	0.431209
3030.38	0.40144
3031.67	0.42796
3032.96	0.496587
3034.24	0.454946
3035.53	0.426679
3036.82	0.41121
3038.11	0.339269
3039.39	0.513724
3040.68	0.411601
3041.97	0.377594
3043.25	0.316113
3044.54	0.0362878
3045.83	0.22307
3047.11	0.506567
3048.4	0.60019
3049.68	0.313125
3050.97	0.30021
3052.25	0.28783
3053.54	0.289048
3054.82	0.589851
3056.11	0.344114
3057.39	0.52026
3058.67	0.45028
3059.96	0.597923
3061.24	0.568651
3062.52	0.499225
3063.81	0.226835
3065.09	0.526575
3066.37	0.32423
3067.65	0.340054
3068.94	0.288108
3070.22	0.603091
3071.5	0.114925
3072.78	0.00663948
3074.06	-0.0617871
3075.34	0.20877
3076.62	0.0848632
3077.9	0.191996
3079.18	0.123307
3080.46	0.0963221
3081.74	0.12462
3083.02	0.302967
3084.3	0.0611548
3085.58	0.212782
3086.86	0.187576
3088.14	0.161738
3089.42	0.0402741
3090.69	-0.217302
3091.97	-0.108697
3093.25	0.203303
3094.53	0.0813236
3095.8	0.339117
3097.08	0.149413
3098.36	-0.175917
3099.63	0.230387
3100.91	-0.0545731
3102.19	-0.0821548
3103.46	0.0528083
3104.74	0.242085
3106.01	0.133972
3107.29	-0.149496
3108.56	0.271379
3109.84	-0.0649767
3111.11	-0.089488
3112.39	-0.34385
3113.66	-0.218813
3114.94	0.10955
3116.21	-0.0911784
3117.48	0.26334
3118.76	-0.0883222
3120.03	0.291439
3121.3	0.182094
3122.57	-0.0768547
3123.85	0.0840392
3125.12	0.0416651
3126.39	-0.149379
3127.66	-0.0829663
3128.93	0.308228
3130.21	-0.111953
3131.48	0.197965
3132.75	-0.235758
3134.02	-0.0617642
3135.29	0.0710316
3136.56	0.122138
3137.83	0.0782356
3139.1	0.033936
3140.37	-0.131734
3141.64	0.133071
3142.91	-0.207191
3144.17	-0.130532
3145.44	-0.026896
3146.71	0.210956
3147.98	0.15408
3149.25	0.0439811
