200.533	0.481956
202.348	0.508851
204.162	0.53677
205.976	0.687057
207.792	0.496964
209.605	0.160453
211.418	-0.00704288
213.23	0.649384
215.044	0.357707
216.856	0.550384
218.667	0.645802
220.478	0.0881166
222.289	0.305904
224.102	0.209937
225.912	-0.707236
227.721	0.0671606
229.531	-0.14964
231.34	0.477743
233.148	-0.270945
234.956	0.114532
236.766	0.0187893
238.574	-0.0509024
240.381	0.195095
242.188	0.563873
243.994	0.572283
245.801	0.218392
247.606	-0.0892744
249.412	0.0105772
251.217	-0.0859814
253.024	0.297364
254.828	-0.214051
256.632	0.142479
258.436	0.306595
260.239	0.134878
262.042	0.133653
263.845	0.374863
265.647	0.352022
267.449	-0.249054
269.25	0.306235
271.052	0.330348
272.852	-0.297849
274.653	-0.228371
276.453	0.899993
278.253	0.459364
280.052	0.498604
281.852	0.872508
283.65	0.426128
285.449	0.243246
287.247	0.203846
289.044	0.619975
290.842	-0.113759
292.639	0.0165977
294.436	0.411337
296.232	-0.197074
298.028	-0.063159
299.821	0.357731
301.617	0.0376644
303.412	0.504745
305.206	-0.00836563
307	0.599024
308.794	0.633343
310.588	0.191648
312.381	0.180166
314.172	0.670316
315.964	0.0669298
317.756	0.0367327
319.548	0.293846
321.34	0.814454
323.131	1.21712
324.921	0.570705
326.71	0.377189
328.5	0.589308
330.29	0.298867
332.079	0.604792
333.868	0.358788
335.654	-0.104977
337.443	0.505706
339.231	0.444136
341.018	0.42878
342.804	0.914515
344.591	0.300668
346.377	0.237115
348.163	0.198132
349.947	0.326715
351.733	0.622285
353.518	-0.180562
355.303	0.184782
357.085	-0.214526
358.869	0.219246
360.653	0.675076
362.435	0.367782
364.218	0.131466
366.001	0.179835
367.781	0.322205
369.563	-0.461335
371.345	0.129579
373.124	-0.0622768
374.905	0.26577
376.686	0.239042
378.464	0.0714073
380.244	0.446786
382.022	0.234265
383.801	-0.117771
385.58	0.237088
387.357	0.146364
389.135	-0.483477
390.911	-0.0787258
392.689	-0.283899
394.466	0.521324
396.241	0.317069
398.018	0.0893965
399.792	0.0493755
401.568	0.267264
403.341	-0.337599
405.117	0.25463
406.889	0.0475435
408.664	0.121635
410.436	-0.367992
412.21	0.104792
413.981	-0.501549
415.755	0.277239
417.525	0.188643
419.298	-0.0870647
421.068	0.435384
422.84	0.159587
424.609	-0.844773
426.38	0.497553
428.149	0.266099
429.919	0.386282
431.688	0.0135384
433.455	0.439121
435.225	0.231372
436.992	0.140925
438.76	-0.443089
440.527	0.262148
442.293	0.190867
444.06	0.11742
445.826	-0.0983562
447.593	0.246712
449.357	0.403648
451.122	-0.257263
452.888	-0.309828
454.651	-0.128852
456.415	0.261558
458.18	-0.652905
459.942	0.109536
461.705	-0.291093
463.469	0.611824
465.23	-0.272504
466.991	0.0776873
468.752	-0.289845
470.515	0.251117
472.275	0.00209045
474.035	-0.0617218
475.797	0.687837
477.556	0.340613
479.315	0.736869
481.073	0.503168
482.834	0.10668
484.592	-0.894153
486.349	0.203241
488.106	0.441222
489.863	0.401744
491.622	0.5034
493.378	0.816218
495.134	-0.0395336
496.889	0.671476
498.645	0.586854
500.401	0.712682
502.156	0.556372
503.91	0.257949
505.664	0.145967
507.417	0.479265
509.171	0.811246
510.923	0.624034
512.678	0.693935
514.43	0.409301
516.182	0.193904
517.933	0.541797
519.684	0.723838
521.435	0.552487
523.186	0.568686
524.936	0.467306
526.686	0.412944
528.435	0.0538797
530.184	-0.00028038
531.933	0.507306
533.682	0.685758
535.43	0.48848
537.18	0.570453
538.927	0.230586
540.674	0.309976
542.421	-0.14733
544.167	0.233557
545.913	0.404394
547.659	0.342956
549.403	0.281949
551.148	0.684401
552.893	0.5542
554.637	-0.222438
556.381	0.133815
558.125	0.236126
559.868	-0.375398
561.611	-0.616985
563.354	0.338422
565.097	-0.0630293
566.839	-0.118721
568.581	0.721825
570.322	0.323582
572.063	0.110636
573.802	0.0830231
575.542	0.33255
577.283	0.0102758
579.022	0.584463
580.762	-0.0572987
582.501	-0.308935
584.24	0.128363
585.976	-0.0329905
587.714	0.0113325
589.452	0.00843906
591.19	0.579813
592.927	0.161342
594.663	0.61702
596.398	-0.39968
598.134	-0.243044
599.87	0.00525665
601.605	0.505706
603.338	-0.0992556
605.073	-0.22255
606.808	0.411214
608.542	-0.104719
610.274	-0.13819
612.007	0.356437
613.74	-0.2032
615.473	-0.0970459
617.204	-0.0366039
618.936	0.366774
620.668	-0.14694
622.397	0.00207615
624.128	0.355758
625.859	-0.22757
627.588	0.149813
629.318	0.00403404
631.048	0.203044
632.775	0.221642
634.505	0.46958
636.233	0.420479
637.96	0.552137
639.688	0.543909
641.416	0.669339
643.142	0.404579
644.869	0.138988
646.594	0.37471
648.32	0.15749
650.045	0.171049
651.771	0.0977392
653.496	0.301229
655.219	0.121736
656.944	0.194776
658.667	0.72484
660.391	0.228699
662.113	0.323757
663.837	0.233712
665.558	0.346824
667.281	-0.090806
669.002	0.225447
670.724	0.428279
672.444	-0.327904
674.166	-0.143536
675.885	0.57046
677.606	0.323448
679.325	-0.0158091
681.045	0.241012
682.763	0.197314
684.483	0.519692
686.2	0.448778
687.917	0.560443
689.636	1.01652
691.352	0.527418
693.07	0.91296
694.786	-0.0151863
696.501	0.55273
698.219	-0.147012
699.933	0.372062
701.65	0.0615187
703.364	0.485844
705.078	0.633269
706.793	0.114397
708.506	0.536082
710.219	0.865043
711.934	0.712303
713.646	0.536653
715.358	1.13806
717.071	0.528299
718.782	0.923409
720.493	1.40918
722.204	0.869611
723.916	0.353751
725.626	0.861613
727.336	0.959463
729.045	0.670938
730.756	0.31446
732.464	1.02271
734.173	0.507656
735.881	0.19712
737.59	1.21974
739.297	1.45167
741.004	0.985548
742.711	1.28731
744.417	0.532095
746.125	0.364174
747.831	1.21016
749.537	1.2025
751.242	1.01633
752.946	1.43889
754.651	0.963187
756.357	1.02896
758.061	1.43421
759.764	0.872695
761.467	1.34876
763.17	0.720464
764.872	1.19738
766.575	1.3122
768.276	1.19911
769.978	1.17405
771.679	1.35034
773.382	1.50253
775.083	1.13418
776.783	1.44478
778.483	1.19152
780.182	1.32429
781.882	1.43569
783.581	0.958865
785.279	1.65769
786.978	1.2675
788.676	1.43983
790.373	1.97038
792.071	1.5706
793.768	1.53105
795.464	1.91989
797.161	1.79072
798.857	1.37084
800.552	2.01129
802.248	1.91025
803.941	2.19235
805.636	1.46244
807.33	1.90065
809.024	1.52868
810.718	1.06615
812.412	1.90387
814.105	1.84344
815.798	1.60377
817.49	1.43155
819.183	1.28204
820.873	0.932016
822.564	1.81009
824.256	2.06346
825.947	1.76105
827.637	1.3054
829.328	1.9887
831.016	1.78448
832.705	2.07343
834.395	1.8077
836.084	1.72118
837.772	1.09866
839.459	1.92566
841.147	0.718893
842.835	1.54325
844.522	1.60767
846.209	1.53878
847.894	1.76248
849.581	1.922
851.267	1.14401
852.953	2.09261
854.637	1.31633
856.322	1.43672
858.007	1.24134
859.689	1.29136
861.374	1.24944
863.058	1.07056
864.739	1.0254
866.423	0.70872
868.106	1.45103
869.787	0.772282
871.469	1.22083
873.151	1.57906
874.831	0.831676
876.512	1.41555
878.193	0.442249
879.872	0.619808
881.553	1.11306
883.231	1.67332
884.911	1.98398
886.591	1.16449
888.268	0.682185
889.947	0.852576
891.623	1.3818
893.302	0.98554
894.978	0.85867
896.656	1.36028
898.331	1.02895
900.008	0.562731
901.683	0.432827
903.359	1.06341
905.033	0.954778
906.709	0.757378
908.383	0.806358
910.058	0.85613
911.731	0.995734
913.405	0.224599
915.078	1.25372
916.752	0.927822
918.423	1.02355
920.096	0.543541
921.768	0.817121
923.438	0.428349
925.111	0.50566
926.781	0.651029
928.452	1.32774
930.122	0.835883
931.791	0.74206
933.462	1.11179
935.13	0.996351
936.799	1.05785
938.468	0.987948
940.136	0.963471
941.803	0.65349
943.472	1.09436
945.139	0.608253
946.805	0.893341
948.473	0.492199
950.139	0.508497
951.804	0.479414
953.471	1.13414
955.136	1.10672
956.801	0.376666
958.465	0.532026
960.131	0.425537
961.794	0.938956
963.458	0.590816
965.12	0.926059
966.785	1.21443
968.447	0.858156
970.109	1.62794
971.771	1.0694
973.432	0.666413
975.095	0.729447
976.756	0.705957
978.417	1.10435
980.077	0.872993
981.737	0.641028
983.396	0.573545
985.057	1.03527
986.716	1.18473
988.375	1.24361
990.033	1.16838
991.691	0.540036
993.349	0.0447578
995.006	0.0136938
996.663	0.710789
998.32	0.723547
999.976	1.57336
1001.63	1.3426
1003.29	1.37574
1004.95	0.836706
1006.6	0.759776
1008.26	1.05638
1009.91	0.694617
1011.56	0.553097
1013.22	0.23691
1014.87	0.184332
1016.53	0.176011
1018.18	-0.0943327
1019.83	1.07984
1021.48	0.767576
1023.14	0.828271
1024.79	0.584013
1026.44	1.23635
1028.09	1.10195
1029.74	0.813943
1031.39	0.328156
1033.04	1.19448
1034.69	1.14173
1036.34	0.411682
1037.99	-0.122061
1039.64	0.498589
1041.29	1.0755
1042.94	0.175005
1044.58	0.580889
1046.23	0.771348
1047.88	0.529424
1049.52	0.245831
1051.17	0.854037
1052.82	0.507416
1054.46	0.617352
1056.11	0.683849
1057.75	0.467443
1059.4	0.359139
1061.04	0.0326805
1062.69	0.618647
1064.33	0.203397
1065.98	0.591495
1067.62	0.717436
1069.26	0.494627
1070.9	-0.0327063
1072.55	0.22171
1074.19	0.194366
1075.83	0.732081
1077.47	0.815567
1079.11	-0.0103846
1080.76	0.18367
1082.4	0.312624
1084.04	0.223777
1085.68	0.0248623
1087.32	0.105647
1088.95	0.140874
1090.59	0.585295
1092.23	0.465691
1093.87	0.0434437
1095.51	0.916654
1097.15	0.409677
1098.78	0.249599
1100.42	0.780444
1102.06	0.280014
1103.69	-0.261246
1105.33	0.962789
1106.97	0.0578995
1108.6	0.873251
1110.24	0.31107
1111.87	-0.316936
1113.51	-0.000858307
1115.14	-0.0299082
1116.77	0.498229
1118.41	0.661332
1120.04	0.653596
1121.67	0.475663
1123.31	0.53448
1124.94	0.145017
1126.57	0.761986
1128.2	0.524138
1129.83	-0.183239
1131.47	0.478387
1133.1	-0.0355511
1134.72	0.177201
1136.36	-0.401563
1137.98	0.386318
1139.62	-0.15185
1141.24	0.0352669
1142.87	0.392381
1144.5	-0.0611448
1146.13	0.339202
1147.76	0.377981
1149.38	-0.0510387
1151.01	-0.245059
1152.64	0.00818443
1154.27	0.55897
1155.89	0.470517
1157.52	0.403268
1159.14	-0.0889158
1160.77	0.313156
1162.39	0.0146475
1164.02	-0.240255
1165.64	0.228249
1167.27	0.377522
1168.89	0.121661
1170.51	-0.135911
1172.14	0.241994
1173.76	-0.0830116
1175.38	0.0790863
1177	0.134411
1178.63	0.0839739
1180.25	-0.11382
1181.87	-0.0565739
1183.49	-0.675226
1185.11	0.037941
1186.73	0.0312881
1188.35	-0.314651
1189.97	0.181068
1191.59	0.442097
1193.21	0.65878
1194.83	-0.0497446
1196.45	-0.315998
1198.07	0.17318
1199.68	-0.131642
1201.3	0.548602
1202.92	-0.0429249
1204.53	0.0784874
1206.15	0.0559969
1207.77	0.264354
1209.38	0.222602
1211	0.492798
1212.62	-0.281457
1214.23	-0.11963
1215.84	0.122948
1217.46	0.508827
1219.07	0.414927
1220.69	0.881573
1222.3	0.746682
1223.91	0.406245
1225.53	0.813339
1227.14	0.621513
1228.75	0.969168
1230.36	0.449587
1231.97	0.489708
1233.59	1.21317
1235.2	0.367203
1236.81	0.638616
1238.42	0.704469
1240.03	1.18464
1241.64	0.941309
1243.25	1.23538
1244.85	0.700993
1246.46	0.55855
1248.07	0.870245
1249.68	0.994861
1251.29	1.45011
1252.9	1.18155
1254.5	0.78976
1256.11	1.43339
1257.72	1.49932
1259.32	0.407804
1260.93	1.42797
1262.54	1.26906
1264.14	0.65427
1265.75	1.40631
1267.35	0.893513
1268.96	0.773361
1270.56	1.2948
1272.16	1.276
1273.77	0.986512
1275.37	0.530195
1276.97	0.798359
1278.57	0.816893
1280.18	0.896857
1281.78	1.72149
1283.38	1.38706
1284.98	1.71527
1286.58	1.48614
1288.18	1.15499
1289.78	1.17629
1291.38	0.640214
1292.99	1.57108
1294.58	2.02568
1296.18	1.61114
1297.78	1.69046
1299.38	1.252
1300.98	1.65764
1302.58	1.03132
1304.17	1.18705
1305.77	1.52668
1307.37	1.22842
1308.97	1.52536
1310.56	1.2274
1312.16	1.48324
1313.76	1.2895
1315.35	1.05639
1316.95	0.967622
1318.54	1.41003
1320.14	2.01467
1321.73	1.37477
1323.32	1.5075
1324.92	1.2518
1326.51	1.05604
1328.1	1.04267
1329.7	1.90054
1331.29	2.03025
1332.88	1.31376
1334.47	1.69124
1336.07	1.76742
1337.66	1.38025
1339.25	1.11366
1340.84	1.49006
1342.43	1.60178
1344.02	1.24871
1345.61	1.39714
1347.2	0.984034
1348.79	0.733984
1350.37	0.647162
1351.96	0.483186
1353.55	1.04127
1355.14	1.2806
1356.73	0.66098
1358.31	1.05999
1359.9	0.958462
1361.49	1.25501
1363.07	0.513075
1364.66	1.02755
1366.25	0.864319
1367.83	0.841558
1369.42	0.382227
1371	0.939634
1372.59	1.0208
1374.17	0.406768
1375.75	0.41028
1377.34	0.513377
1378.92	0.65572
1380.5	0.95611
1382.09	0.061429
1383.67	0.0408764
1385.25	0.15847
1386.83	0.275501
1388.42	0.154319
1390	0.411075
1391.58	0.113006
1393.16	0.728453
1394.74	0.848175
1396.32	0.650371
1397.9	0.194203
1399.48	1.00544
1401.06	0.725633
1402.64	0.742405
1404.21	0.264578
1405.79	0.697364
1407.37	0.577286
1408.95	-0.114761
1410.53	0.280502
1412.1	0.478007
1413.68	0.141787
1415.26	0.31788
1416.83	0.611245
1418.41	-0.0421257
1419.98	0.428391
1421.56	0.387676
1423.13	0.998258
1424.71	0.74441
1426.28	0.865911
1427.86	0.535279
1429.43	0.755446
1431	0.620343
1432.58	1.21213
1434.15	1.35011
1435.72	1.29087
1437.29	1.74309
1438.87	1.29177
1440.44	2.00131
1442.01	1.1986
1443.58	2.00824
1445.15	1.91431
1446.72	1.30953
1448.29	1.41251
1449.86	0.985035
1451.43	1.83604
1453	1.94063
1454.57	1.04246
1456.14	1.52114
1457.71	1.88118
1459.27	1.68875
1460.84	1.29755
1462.41	1.31754
1463.98	1.92563
1465.54	1.15609
1467.11	1.50667
1468.67	1.03273
1470.24	0.776117
1471.81	0.520931
1473.37	0.404306
1474.94	0.641516
1476.5	0.918309
1478.07	0.920695
1479.63	0.785796
1481.19	0.0432482
1482.76	0.535407
1484.32	0.576618
1485.88	0.793732
1487.45	0.422338
1489.01	0.0693398
1490.57	0.203892
1492.13	-0.0550461
1493.69	-0.120441
1495.26	0.0660782
1496.82	0.0951729
1498.38	0.357482
1499.94	-0.00214481
1501.5	-0.049202
1503.06	-0.366428
1504.62	-0.0815601
1506.17	0.203046
1507.73	0.254379
1509.29	-0.101161
1510.85	0.256786
1512.41	0.0541191
1513.97	0.024786
1515.52	-0.042696
1517.08	-0.0133915
1518.64	-0.0792093
1520.19	0.0855961
1521.75	-0.0558844
1523.31	-0.0827456
1524.86	-0.28218
1526.42	-0.177114
1527.97	0.612169
1529.52	0.448027
1531.08	0.284333
1532.63	-0.124801
1534.19	0.414851
1535.74	-0.256127
1537.29	0.0578079
1538.85	0.126442
1540.4	0.176492
1541.95	0.471418
1543.5	0.107008
1545.06	0.551518
1546.61	0.375115
1548.16	0.311481
1549.71	0.547827
1551.26	0.428152
1552.81	0.62729
1554.36	0.696292
1555.91	0.243813
1557.46	0.652399
1559.01	0.857521
1560.56	0.0386105
1562.11	0.191568
1563.65	0.457625
1565.2	0.668367
1566.75	0.991236
1568.29	1.0713
1569.84	0.721638
1571.39	0.670178
1572.94	1.01043
1574.48	0.902521
1576.03	0.533301
1577.57	0.705684
1579.12	0.654502
1580.66	1.08947
1582.21	0.759748
1583.75	0.879136
1585.3	1.3545
1586.84	1.43817
1588.38	1.37243
1589.93	0.745008
1591.47	1.61415
1593.01	0.798093
1594.55	1.1238
1596.1	0.831474
1597.64	1.79518
1599.18	1.48538
1600.72	1.3637
1602.26	1.50518
1603.8	0.689051
1605.34	0.716814
1606.88	1.26933
1608.42	1.04928
1609.96	1.20257
1611.5	1.33443
1613.04	1.33253
1614.58	1.21659
1616.12	0.744017
1617.65	0.703673
1619.19	0.458568
1620.73	1.32019
1622.27	0.909642
1623.8	0.762217
1625.34	0.745866
1626.87	1.55212
1628.41	0.747529
1629.95	1.45675
1631.48	1.22963
1633.02	1.56267
1634.55	1.6157
1636.09	0.923333
1637.62	1.94836
1639.15	1.87339
1640.69	1.76123
1642.22	1.55526
1643.76	1.21789
1645.29	1.41919
1646.82	1.26591
1648.35	1.65137
1649.88	1.18264
1651.42	1.62489
1652.95	2.17937
1654.48	2.03018
1656.01	1.86329
1657.54	1.9558
1659.07	1.78802
1660.6	1.71144
1662.13	2.04025
1663.66	1.90515
1665.19	1.23401
1666.72	1.61629
1668.24	1.22472
1669.77	1.31453
1671.3	1.81126
1672.83	1.38796
1674.35	1.97821
1675.88	0.910943
1677.41	1.15012
1678.93	1.40628
1680.46	1.422
1681.99	0.554907
1683.51	1.19424
1685.04	1.74108
1686.56	1.15067
1688.09	0.249906
1689.61	0.742717
1691.13	0.978961
1692.66	0.519651
1694.18	0.82894
1695.71	0.863504
1697.23	0.40442
1698.75	0.602869
1700.27	0.18013
1701.8	0.578051
1703.32	0.227617
1704.84	0.186684
1706.36	-0.000208855
1707.88	0.249207
1709.4	0.243825
1710.92	0.547051
1712.44	0.215344
1713.96	0.790205
1715.48	-0.210684
1717	-0.0886059
1718.52	0.213851
1720.04	0.0101318
1721.56	-0.481723
1723.07	0.307772
1724.59	0.178399
1726.11	-0.147481
1727.63	-0.147696
1729.14	0.0690289
1730.66	-0.161563
1732.18	0.0560465
1733.69	0.355402
1735.21	0.23445
1736.72	-0.0394068
1738.24	0.383566
1739.75	0.359447
1741.27	0.44278
1742.78	0.296693
1744.3	0.235088
1745.81	-0.110351
1747.32	-0.0720596
1748.84	0.0694914
1750.35	0.19693
1751.86	0.20618
1753.37	-0.250445
1754.89	0.17219
1756.4	0.0940619
1757.91	-0.440763
1759.42	-0.0246544
1760.93	-0.268759
1762.44	0.112446
1763.95	-0.257336
1765.46	0.0422506
1766.97	-0.265397
1768.48	-0.0867596
1769.99	0.386507
1771.5	0.287532
1773.01	0.0397177
1774.52	-0.0592432
1776.03	0.0237131
1777.53	0.013833
1779.04	0.0274239
1780.55	0.0951471
1782.06	0.00653553
1783.56	0.199005
1785.07	0.0589104
1786.57	-0.185767
1788.08	0.22412
1789.59	-0.0529804
1791.09	0.194111
1792.6	0.167892
1794.1	0.199935
1795.6	-0.345371
1797.11	-0.180025
1798.61	0.21477
1800.12	-0.120605
1801.62	0.0255184
1803.12	-0.144216
1804.63	0.0127115
1806.13	0.0747194
1807.63	0.209401
1809.13	0.217269
1810.63	0.113568
1812.14	0.185047
1813.64	0.274219
1815.14	-0.0976543
1816.64	0.237644
1818.14	0.228643
1819.64	0.298294
1821.14	0.0426655
1822.64	0.150105
1824.14	-0.0869064
1825.63	-0.118842
1827.13	0.0626612
1828.63	0.0442505
1830.13	0.00384331
1831.63	0.224678
1833.12	0.275922
1834.62	0.256757
1836.12	0.175082
1837.62	0.104261
1839.11	0.265208
1840.61	0.124522
1842.1	0.398622
1843.6	0.198618
1845.09	0.417871
1846.59	0.439728
1848.08	-0.0232029
1849.58	-0.0716124
1851.07	-0.083828
1852.57	0.0913334
1854.06	0.579168
1855.55	0.0645733
1857.04	0.0697155
1858.54	0.126214
1860.03	0.179938
1861.52	0.247315
1863.01	0.0813742
1864.5	0.521292
1866	0.140103
1867.49	0.1872
1868.98	0.091526
1870.47	-0.13734
1871.96	0.0782127
1873.45	0.0869064
1874.94	0.296764
1876.43	-0.355381
1877.92	0.283959
1879.41	0.180607
1880.89	0.0981579
1882.38	0.471351
1882.48	0.499603
1883.97	0.464268
1885.47	0.306101
1886.96	0.112269
1888.46	0.318449
1889.95	0.315798
1891.44	0.57508
1892.94	0.10574
1894.43	0.247013
1895.92	0.633437
1897.41	0.36009
1898.9	0.486628
1900.4	0.385936
1901.89	0.353032
1903.38	0.266004
1904.87	0.299114
1906.36	0.383417
1907.85	-0.00129604
1909.34	0.430798
1910.83	-0.0213442
1912.32	0.343061
1913.81	0.187634
1915.29	-0.0369883
1916.78	-0.0364885
1918.27	0.674059
1919.76	-0.175738
1921.25	0.152726
1922.74	0.342878
1924.22	0.0664492
1925.71	0.276023
1927.2	0.50408
1928.68	0.317371
1930.17	0.286449
1931.65	0.306617
1933.14	0.134744
1934.63	0.220683
1936.11	0.754553
1937.59	0.300876
1939.08	0.417448
1940.56	0.844974
1942.05	0.427316
1943.53	0.218242
1945.01	-0.127672
1946.5	0.0614567
1947.98	0.284705
1949.46	0.162456
1950.94	0.297507
1952.43	0.706697
1953.91	0.51284
1955.39	0.0957384
1956.87	0.1776
1958.35	0.397392
1959.83	0.0345097
1961.31	0.427021
1962.79	0.0995474
1964.27	0.491738
1965.75	0.163776
1967.23	0.246178
1968.71	0.293544
1970.19	0.186353
1971.67	0.113182
1973.14	0.517945
1974.62	0.1547
1976.1	0.235299
1977.58	0.554437
1979.05	0.617927
1980.53	0.358105
1982.01	0.183431
1983.48	0.331425
1984.96	0.156322
1986.43	0.473062
1987.91	0.213074
1989.38	0.241684
1990.86	0.186348
1992.33	0.233561
1993.81	0.264904
1995.28	0.736493
1996.76	0.566294
1998.23	0.261068
1999.7	0.698407
2001.18	0.240331
2002.65	0.136333
2004.12	0.200847
2005.59	0.181388
2007.06	0.516436
2008.54	0.178744
2010.01	0.380881
2011.48	0.650869
2012.95	0.500075
2014.42	0.197411
2015.89	0.314649
2017.36	0.262643
2018.83	0.226581
2020.3	0.492385
2021.77	0.858493
2023.24	-0.10146
2024.71	0.550986
2026.17	0.734616
2027.64	0.299216
2029.11	0.318326
2030.58	-0.0134096
2032.04	0.394083
2033.51	0.281983
2034.98	0.42169
2036.45	0.645072
2037.91	0.330283
2039.38	0.435069
2040.84	0.00188541
2042.31	0.476855
2043.77	0.56604
2045.24	0.437532
2046.7	0.579105
2048.17	0.670638
2049.63	0.542826
2051.1	0.852158
2052.56	0.788917
2054.02	0.706738
2055.48	0.993564
2056.95	0.806637
2058.41	0.821112
2059.87	0.565854
2061.33	0.479596
2062.8	0.747757
2064.26	0.56251
2065.72	0.36158
2067.18	0.582304
2068.64	0.803714
2070.1	0.554205
2071.56	0.321527
2073.02	0.661109
2074.48	1.21937
2075.94	0.581667
2077.4	0.398193
2078.86	0.55108
2080.31	0.349829
2081.77	0.956159
2083.23	0.804032
2084.69	0.247267
2086.14	0.463867
2087.6	0.595526
2089.06	0.642556
2090.52	1.09243
2091.97	0.484058
2093.43	1.08436
2094.88	0.610405
2096.34	0.706301
2097.79	1.01906
2099.25	0.594233
2100.7	1.056
2102.16	0.865573
2103.61	0.993602
2105.07	0.555461
2106.52	0.986777
2107.97	0.90198
2109.43	1.08443
2110.88	0.616052
2112.33	1.09636
2113.78	1.40769
2115.24	0.951229
2116.69	0.860225
2118.14	0.98562
2119.59	0.929692
2121.04	1.35707
2122.49	1.32199
2123.94	0.956965
2125.39	1.17312
2126.84	1.10712
2128.29	1.17262
2129.74	1.56791
2131.19	1.48102
2132.64	1.55878
2134.09	1.25587
2135.54	1.49979
2136.98	1.24932
2138.43	1.62905
2139.88	1.84569
2141.33	1.68414
2142.77	1.20972
2144.22	1.72827
2145.67	2.03228
2147.11	1.92226
2148.56	2.04328
2150.01	1.89824
2151.45	1.95079
2152.9	1.45536
2154.34	2.05249
2155.79	1.87031
2157.23	2.18517
2158.67	1.44069
2160.12	1.80756
2161.56	2.12689
2163	1.75234
2164.45	2.73954
2165.89	1.90295
2167.33	2.12837
2168.78	1.78763
2170.22	2.35921
2171.66	2.31308
2173.1	2.21464
2174.54	2.04796
2175.98	1.96375
2177.42	1.97953
2178.86	1.82992
2180.3	2.24672
2181.74	1.83326
2183.18	1.96917
2184.62	2.48801
2186.06	1.70952
2187.5	1.91247
2188.94	1.76604
2190.38	1.80262
2191.82	1.92215
2193.25	1.90764
2194.69	1.80834
2196.13	2.07313
2197.57	1.98595
2199	2.04641
2200.44	1.97259
2201.88	1.74921
2203.31	1.90847
2204.75	1.4553
2206.18	1.41813
2207.62	1.7792
2209.05	1.72579
2210.49	1.60531
2211.92	1.74844
2213.36	1.72517
2214.79	1.22273
2216.22	1.77805
2217.66	1.7236
2219.09	1.86856
2220.52	1.6023
2221.96	1.28694
2223.39	1.4323
2224.82	1.11487
2226.25	0.549072
2227.68	0.985239
2229.11	0.942822
2230.55	0.965207
2231.98	1.26585
2233.41	0.698547
2234.84	1.08167
2236.27	0.877212
2237.7	0.805424
2239.12	0.980546
2240.55	0.684714
2241.98	0.782418
2243.41	0.620531
2244.84	0.752649
2246.27	0.884079
2247.7	0.736508
2249.12	1.04311
2250.55	0.809247
2251.98	0.410967
2253.41	0.662938
2254.83	0.703491
2256.26	0.777987
2257.68	0.741368
2259.11	0.415874
2260.54	0.888572
2261.96	0.844841
2263.39	0.104507
2264.81	0.940002
2266.24	1.04438
2267.66	0.692461
2269.08	0.534507
2270.51	0.896483
2271.93	0.427641
2273.35	0.59354
2274.78	0.254603
2276.2	0.404529
2277.62	0.766586
2279.04	0.770256
2280.47	0.561871
2281.89	0.728385
2283.31	0.454375
2284.73	0.571908
2286.15	0.820309
2287.57	0.122237
2288.99	0.30617
2290.41	0.163874
2291.83	0.691976
2293.25	0.402958
2294.67	0.244555
2296.09	0.429655
2297.51	0.352841
2298.93	0.276004
2300.35	0.4943
2301.76	0.352354
2303.18	0.374635
2304.6	0.216542
2306.02	0.747974
2307.44	0.244408
2308.85	0.298694
2310.27	0.664818
2311.69	0.0931396
2313.1	0.409562
2314.52	0.479712
2315.93	0.303699
2317.35	0.30958
2318.76	0.4808
2320.18	0.536523
2321.59	0.294112
2323.01	0.39613
2324.42	0.710191
2325.83	0.213197
2327.25	0.654715
2328.66	0.897102
2330.07	0.365228
2331.49	0.427526
2332.9	0.244102
2334.31	0.473061
2335.72	0.702205
2337.13	0.371579
2338.55	0.188077
2339.96	0.381444
2341.37	0.228684
2342.78	0.814043
2344.19	0.102965
2345.6	0.228947
2347.01	0.551626
2348.42	0.268284
2349.83	0.459293
2351.24	0.1261
2352.65	-0.109613
2354.05	0.306787
2355.46	0.183684
2356.87	0.272131
2358.28	0.213961
2359.69	-0.0389538
2361.09	0.0333786
2362.5	-0.0565958
2363.91	-0.178879
2365.31	0.10349
2366.72	0.159183
2368.13	-0.123678
2369.53	-0.16298
2370.94	-0.265352
2372.34	0.45541
2373.75	0.145949
2375.15	-0.0179443
2376.56	0.558038
2377.96	0.408652
2379.37	0.354177
2380.77	0.362178
2382.17	0.304457
2383.58	0.454057
2384.98	0.363053
2386.38	0.496371
2387.79	0.566513
2389.19	0.0478935
2390.59	0.232501
2391.99	0.338503
2393.39	-0.143247
2394.8	0.521476
2396.2	-0.0377331
2397.6	0.32592
2399	0.483444
2400.4	-0.232285
2401.8	0.386793
2403.2	0.0369806
2404.6	0.512576
2406	0.0980854
2407.4	0.33344
2408.79	0.107786
2410.19	0.468481
2411.59	0.131918
2412.99	0.1766
2414.39	0.190942
2415.78	0.523481
2417.18	0.0500879
2418.58	0.115949
2419.98	0.372294
2421.37	0.264301
2422.77	0.456903
2424.16	-0.142969
2425.56	0.318769
2426.96	0.32157
2428.35	0.27775
2429.74	-0.0981121
2431.14	-0.0610018
2432.53	0.420815
2433.93	0.362555
2435.32	-0.0464516
2436.72	0.210128
2438.11	0.576296
2439.5	0.257868
2440.9	0.208545
2442.29	0.444393
2443.68	0.0767479
2445.07	0.343672
2446.47	0.404089
2447.86	0.210745
2449.25	0.144277
2450.64	0.0939417
2452.03	0.0442095
2453.42	0.0111551
2454.81	0.247977
2456.2	0.121674
2457.59	0.153933
2458.98	0.280942
2460.37	0.0435829
2461.76	0.311407
2463.15	-0.0224009
2464.54	-0.024807
2465.93	0.0988007
2467.32	0.190626
2468.7	0.329649
2470.09	0.373706
2471.48	-0.0556545
2472.87	0.381189
2474.25	-0.0964327
2475.64	0.196738
2477.03	0.221835
2478.41	-0.0672703
2479.8	0.428877
2481.18	0.312917
2482.57	0.103069
2483.95	-0.138229
2485.34	0.214313
2486.72	0.36182
2488.11	-0.178829
2489.49	0.200566
2490.88	-0.0126591
2492.26	-0.100437
2493.65	0.263413
2495.03	0.00747299
2496.41	0.264841
2497.79	-0.0658102
2499.18	0.0996342
2500.56	0.140775
2501.94	0.366488
2503.32	0.25104
2504.7	-0.0039959
2506.09	-0.0126276
2507.47	0.193965
2508.85	0.446349
2510.23	-0.0385103
2511.61	0.383517
2512.99	0.100497
2514.37	0.186502
2515.75	-0.0634012
2517.13	-0.0673923
2518.51	-0.208382
2519.89	-0.0281143
2521.26	-0.0468426
2522.64	-0.127273
2524.02	-0.101696
2525.4	-0.000711441
2526.78	0.130274
2528.15	0.291904
2529.53	0.135171
2530.91	0.0107279
2532.28	-0.0662279
2533.66	0.298919
2535.04	0.133105
2536.41	0.210372
2537.79	0.0438871
2539.16	0.301702
2540.54	0.20927
2541.91	0.116492
2543.29	0.115102
2544.66	-0.173589
2546.04	0.024478
2547.41	0.102517
2548.78	0.0298061
2550.16	0.36691
2551.53	-0.085537
2552.9	0.0225334
2554.27	0.0991478
2555.65	-0.0831499
2557.02	-0.250781
2558.39	-0.236497
2559.76	-0.0551872
2561.13	0.020524
2562.51	-0.115252
2563.88	-0.00790405
2565.25	0.0999269
2566.62	0.314135
2567.99	0.21022
2569.36	0.136638
2570.73	0.0933752
2572.1	-0.0559359
2573.47	0.143487
2574.84	0.267261
2576.2	0.0575695
2577.57	0.439111
2578.94	-0.0893078
2580.31	-0.0267439
2581.68	-0.0404167
2583.05	0.00617695
2584.41	0.583113
2585.78	0.220068
2587.15	0.0239668
2588.51	0.116075
2589.88	0.0567732
2591.24	0.315599
2592.61	0.073884
2593.98	0.0889368
2595.34	0.0726128
2596.71	0.115741
2598.07	-0.0084362
2599.44	0.0939112
2600.8	0.347351
2602.16	0.117806
2603.53	0.311902
2604.89	0.114159
2606.26	0.625784
2607.62	0.17166
2608.98	0.0787621
2610.34	-0.0604954
2611.71	0.145212
2613.07	-0.40253
2614.43	0.086484
2615.79	0.184057
2617.15	-0.0481081
2618.52	0.274963
2619.88	0.478634
2621.24	0.159489
2622.6	0.200027
2623.96	-0.341574
2625.32	-0.166195
2626.68	-0.483401
2628.04	-0.264022
2629.4	0.148298
2630.75	-0.2139
2632.11	0.28662
2633.47	0.147573
2634.83	0.172005
2636.19	0.0184193
2637.55	0.265186
2638.9	-0.036212
2640.26	0.0625162
2641.62	0.205737
2642.98	-0.19753
2644.33	-0.0390253
2645.69	0.207726
2647.04	-0.00328064
2648.4	0.359791
2649.76	0.427021
2651.11	-0.0946932
2652.47	-0.248519
2653.82	-0.328439
2655.18	-0.21688
2656.53	-0.00182438
2657.88	-0.122459
2659.24	-0.241968
2660.59	0.209362
2661.95	0.148627
2663.3	0.277226
2664.65	0.0398874
2666	0.181309
2667.36	0.307425
2668.71	0.0109482
2670.06	0.10811
2671.41	0.380192
2672.76	0.362022
2674.12	0.141284
2675.47	0.429451
2676.82	-0.0799608
2678.17	0.296455
2679.52	0.644581
2680.87	0.48635
2682.22	0.0105381
2683.57	0.289965
2684.92	0.164477
2686.27	0.0829916
2687.62	-0.100253
2688.97	-0.00896263
2690.31	-0.0210323
2691.66	0.298805
2693.01	-0.0651093
2694.36	-0.00919914
2695.71	0.118915
2697.05	-0.0421572
2698.4	0.0444469
2699.75	0.205217
2701.09	0.165176
2702.44	0.112287
2703.78	-0.272752
2705.13	0.255783
2706.48	-0.215892
2707.82	0.0518074
2709.17	0.0144768
2710.51	0.397856
2711.86	0.461641
2713.2	0.17658
2714.54	0.109322
2715.89	0.289158
2717.23	0.00356293
2718.57	0.183094
2719.92	0.0858746
2721.26	-0.128271
2722.6	0.501227
2723.95	0.344314
2725.29	0.070488
2726.63	0.349381
2727.97	0.162188
2729.31	0.0912085
2730.65	0.296567
2732	0.298176
2733.34	0.489003
2734.68	0.389095
2736.02	0.0712767
2737.36	0.0154591
2738.7	0.119622
2740.04	0.339878
2741.38	0.530517
2742.72	0.167988
2744.05	0.110102
2745.39	0.501961
2746.73	0.0507965
2748.07	0.0933495
2749.41	0.23749
2750.75	0.439756
2752.08	-0.155215
2753.42	0.221526
2754.76	-0.213115
2756.09	-0.0390043
2757.43	-0.0530462
2758.77	0.208249
2760.1	0.0935564
2761.44	0.239914
2762.78	0.0973845
2764.11	-0.305207
2765.44	0.333984
2766.78	0.00333691
2768.11	0.380594
2769.45	-0.096817
2770.78	0.450748
2772.12	0.360725
2773.45	0.37072
2774.78	0.0485106
2776.12	0.230971
2777.45	0.0681152
2778.78	-0.00758934
2780.12	-0.140095
2781.45	0.431627
2782.78	0.170329
2784.11	-0.00461102
2785.44	0.350965
2786.78	0.0617447
2788.11	0.0597115
2789.44	0.0585184
2790.77	0.172712
2792.1	0.359185
2793.43	0.160129
2794.76	0.332825
2796.09	0.133606
2797.42	-0.0803471
2798.75	0.0765162
2800.08	0.247078
2801.4	0.174697
2802.73	0.501424
2804.06	-0.0702477
2805.39	0.212829
2806.72	0.309896
2808.05	0.0790205
2809.37	0.047019
2810.7	0.299113
2812.03	0.253467
2813.35	0.294193
2814.68	0.109609
2816.01	0.11095
2817.33	0.31193
2818.66	0.300951
2819.98	0.36088
2821.31	0.335308
2822.63	0.0539551
2823.96	0.267929
2825.28	0.0281658
2826.61	0.270041
2827.93	0.158401
2829.25	0.104017
2830.58	0.135077
2831.9	0.10975
2833.23	0.39579
2834.55	0.256859
2835.87	0.86751
2837.19	0.501083
2838.52	0.530434
2839.84	0.884813
2841.16	1.05532
2842.48	1.38168
2843.8	1.17159
2845.12	1.62656
2846.44	1.418
2847.77	1.61969
2849.08	1.77904
2850.4	1.99463
2851.73	1.79978
2853.05	1.83051
2854.36	2.01623
2855.68	2.20169
2857	1.85027
2858.32	2.20522
2859.64	2.03753
2860.96	1.85559
2862.28	2.37924
2863.59	2.52117
2864.91	2.60629
2866.23	2.90292
2867.55	3.21377
2868.86	3.38399
2870.18	3.1599
2871.5	3.48582
2872.81	3.45898
2874.13	3.85401
2875.44	3.27569
2876.76	3.69618
2878.07	3.76351
2879.39	3.85853
2880.7	3.84133
2882.02	3.44574
2883.33	3.92241
2884.65	3.55747
2885.96	3.5724
2887.28	4.10673
2888.59	3.26519
2889.9	3.60157
2891.21	4.00685
2892.53	4.00461
2893.84	3.59591
2895.15	3.94408
2896.46	3.69099
2897.78	3.74707
2899.09	4.16803
2900.4	4.28201
2901.71	4.35454
2903.02	4.00765
2904.33	4.29037
2905.64	4.25166
2906.95	5.02482
2908.26	4.52601
2909.57	4.90947
2910.88	4.92986
2912.19	5.02023
2913.5	5.62777
2914.81	5.70175
2916.12	5.4657
2917.43	5.68972
2918.73	5.70253
2920.04	6.20461
2921.35	6.21774
2922.66	6.31618
2923.96	6.58395
2925.27	6.58748
2926.58	6.87134
2927.88	6.88965
2929.19	7.01933
2930.5	6.88269
2931.8	6.78738
2933.11	7.3487
2934.41	7.25294
2935.72	7.5067
2937.02	7.06184
2938.33	6.77095
2939.63	6.8856
2940.94	6.34406
2942.24	6.26459
2943.54	6.03272
2944.85	6.01199
2946.15	5.78279
2947.45	5.91788
2948.76	5.60488
2950.06	5.61238
2951.36	5.15571
2952.66	5.10289
2953.97	5.32843
2955.27	5.32941
2956.57	4.9114
2957.87	4.81754
2959.17	4.83863
2960.47	4.44256
2961.77	4.80524
2963.07	4.35566
2964.37	4.60677
2965.67	4.40704
2966.97	4.58466
2968.27	3.8189
2969.57	4.1908
2970.87	4.01414
2972.17	3.64069
2973.47	3.91471
2974.77	3.99175
2976.07	3.88506
2977.36	3.42483
2978.66	3.68073
2979.96	3.20253
2981.26	3.45479
2982.55	3.22788
2983.85	3.0155
2985.15	2.8606
2986.44	2.86194
2987.74	2.45733
2989.03	2.16616
2990.33	2.19844
2991.63	2.24421
2992.92	2.41528
2994.21	2.2195
2995.51	2.06464
2996.8	1.83879
2998.1	1.78121
2999.39	1.77996
3000.69	1.47072
3001.98	1.61078
3003.27	1.62502
3004.57	0.96689
3005.86	1.26109
3007.15	1.31638
3008.44	0.671077
3009.74	1.01827
3011.03	0.819177
3012.32	0.926985
3013.61	0.839198
3014.9	0.94704
3016.19	1.04144
3017.48	0.941518
3018.78	0.74478
3020.07	0.28402
3021.36	0.851789
3022.65	0.487244
3023.94	0.663364
3025.23	0.505499
3026.51	0.818494
3027.8	0.716132
3029.09	0.421454
3030.38	0.847124
3031.67	0.196627
3032.96	0.293145
3034.24	0.596861
3035.53	0.334107
3036.82	0.731969
3038.11	0.879275
3039.39	0.776405
3040.68	0.644414
3041.97	0.360652
3043.25	0.433823
3044.54	0.480146
3045.83	0.66468
3047.11	0.509527
3048.4	0.711948
3049.68	0.561532
3050.97	0.699351
3052.25	0.633259
3053.54	0.949145
3054.82	0.445599
3056.11	0.991198
3057.39	0.826166
3058.67	0.551271
3059.96	1.05236
3061.24	0.777437
3062.52	0.68052
3063.81	1.06092
3065.09	0.885345
3066.37	0.575275
3067.65	0.701212
3068.94	0.705122
3070.22	0.409407
3071.5	0.81987
3072.78	0.73923
3074.06	0.344433
3075.34	0.655348
3076.62	0.27281
3077.9	0.148808
3079.18	0.229375
3080.46	0.379129
3081.74	0.286197
3083.02	0.208021
3084.3	0.198263
3085.58	0.107011
3086.86	0.0829906
3088.14	-0.240531
3089.42	-0.117005
3090.69	0.209392
3091.97	-0.237965
3093.25	0.23718
3094.53	-0.182748
3095.8	0.0212941
3097.08	0.0489626
3098.36	0.103491
3099.63	0.0763764
3100.91	0.468934
3102.19	-0.0326505
3103.46	0.0753818
3104.74	0.0483518
3106.01	-0.167552
3107.29	-0.030807
3108.56	-0.109702
3109.84	0.0288854
3111.11	-0.00762129
3112.39	0.0377569
3113.66	0.0970001
3114.94	-0.115008
3116.21	0.0925546
3117.48	-0.0128202
3118.76	0.0839105
3120.03	0.0843158
3121.3	0.273316
3122.57	0.122507
3123.85	-0.258897
3125.12	0.104695
3126.39	0.0892634
3127.66	-0.142243
3128.93	-0.00808764
3130.21	-0.0496202
3131.48	0.206153
3132.75	-0.133159
3134.02	-0.0271001
3135.29	0.199577
3136.56	0.0608706
3137.83	-0.159349
3139.1	-0.0565791
3140.37	0.314779
3141.64	0.02634
3142.91	-0.167508
3144.17	-0.159406
3145.44	0.0368848
3146.71	-0.0481749
3147.98	-0.146066
3149.25	0.0778699
