200.554	0.045373
202.369	0.06917
204.183	0.0941143
205.999	0.947133
207.813	0.462691
209.626	1.33891
211.439	0.877208
213.253	0.196149
215.065	0.315203
216.877	0.481993
218.688	0.50341
220.5	0.0899935
222.312	0.403893
224.123	0.549318
225.933	0.792004
227.742	-0.366435
229.552	-0.268693
231.361	0.311092
233.171	0.166409
234.98	0.528702
236.787	0.289701
238.595	-0.0913076
240.402	0.0608597
242.209	0.288024
244.015	0.637524
245.822	0.0700912
247.627	0.755892
249.435	-0.323853
251.24	0.114008
253.045	-0.0789042
254.849	-0.225259
256.653	-0.058403
258.457	-0.0111904
260.26	0.0861044
262.063	0.113315
263.866	0.190616
265.668	0.630582
267.47	0.299902
269.271	0.57137
271.073	-0.00184441
272.873	0.219194
274.674	-0.0676651
276.474	0.0294132
278.274	0.172566
280.073	0.409662
281.872	0.355316
283.671	0.0825081
285.47	-0.287475
287.268	0.182457
289.065	0.219942
290.863	-0.0531244
292.66	0.274134
294.456	0.36356
296.253	-0.310444
298.049	-0.241836
299.844	0.185642
301.637	0.182686
303.432	-0.227093
305.227	0.5553
307.021	-0.142882
308.815	0.279835
310.609	-0.0357914
312.402	0.721956
314.195	0.0763712
315.987	-0.186009
317.777	0.387055
319.569	-0.0384026
321.36	0.299791
323.151	0.973081
324.942	0.454534
326.733	-0.231698
328.521	-0.250114
330.31	0.63918
332.1	0.236418
333.889	0.309889
335.677	0.357018
337.464	0.760441
339.252	-0.130518
341.039	0.0295897
342.826	0.595042
344.611	-0.345299
346.398	0.172609
348.184	0.810344
349.97	-0.365948
351.754	0.248283
353.539	0.33664
355.324	-0.220322
357.106	0.485347
358.89	0.0449829
360.674	0.151586
362.455	0.994641
364.239	0.266273
366.021	0.298479
367.804	0.116121
369.584	0.265066
371.366	1.17063
373.145	-0.552663
374.926	0.279674
376.707	-0.0227833
378.485	-0.253268
380.265	-0.576527
382.045	0.0669899
383.822	0.522768
385.601	0.0391769
387.378	0.638244
389.156	0.134122
390.934	-0.298238
392.71	0.25668
394.487	-0.0801754
396.262	-0.134869
398.038	0.0218935
399.813	0.107965
401.588	0.264012
403.362	0.278375
405.137	-0.0369015
406.912	-0.0946321
408.685	-0.0825968
410.459	0.187275
412.23	0.19891
414.004	-0.234818
415.775	0.200408
417.548	0.495723
419.318	0.65096
421.089	-0.789534
422.86	-0.352803
424.63	-0.0341558
426.401	0.353943
428.17	0.318501
429.94	0.376427
431.708	-0.199407
433.478	-0.516671
435.245	0.175567
437.012	-0.047574
438.781	0.174401
440.547	0.183483
442.315	-0.41952
444.081	-0.0631065
445.846	0.243988
447.613	0.221616
449.378	-0.105196
451.142	0.0359068
452.908	-0.336438
454.672	-0.0782309
456.435	0.202818
458.2	0.343524
459.963	0.0186977
461.725	0.834501
463.489	0.0707388
465.251	0.100139
467.012	-0.378631
468.775	0.144647
470.536	0.76332
472.296	0.312855
474.056	0.396497
475.817	0.0589867
477.576	0.184849
479.335	-0.133863
481.094	0.0821505
482.854	0.670946
484.612	0.539021
486.37	0.292698
488.127	-0.0214653
489.886	0.272584
491.642	0.801619
493.398	0.163964
495.154	0.320496
496.91	0.19626
498.667	0.188611
500.422	0.625983
502.176	0.265299
503.93	1.00703
505.684	-0.0143909
507.438	0.419526
509.191	0.734476
510.946	0.81248
512.698	0.559239
514.45	-0.0721464
516.202	0.777223
517.954	0.590028
519.705	0.942492
521.456	1.38775
523.206	0.188161
524.956	1.45399
526.706	0.81834
528.456	0.769502
530.207	0.650253
531.956	0.460378
533.704	0.386832
535.452	0.499182
537.2	0.259262
538.947	0.298399
540.694	1.15232
542.441	0.442847
544.188	0.548844
545.934	0.0969172
547.68	0.644134
549.425	0.680364
551.17	0.36942
552.915	0.267499
554.659	0.327718
556.403	0.134191
558.145	0.633217
559.889	0.164243
561.632	0.755514
563.375	0.265436
565.117	0.443238
566.859	0.162096
568.601	0.0657835
570.342	0.246039
572.083	0.565287
573.824	1.02386
575.565	-0.0296516
577.303	0.478579
579.043	0.368734
580.782	-0.222763
582.521	0.586969
584.26	0.132367
585.998	0.251235
587.734	0.759868
589.472	-0.366189
591.21	0.00213242
592.947	-0.0212259
594.684	0.20832
596.418	-0.160297
598.154	-0.114854
599.89	0.160231
601.626	0.181311
603.361	-0.212954
605.094	-0.0107832
606.828	-0.108871
608.562	0.481208
610.296	0.0377159
612.027	0.191599
613.761	0.139808
615.493	-0.117523
617.224	0.106584
618.956	0.261222
620.688	0.849422
622.419	0.543413
624.149	0.716915
625.879	0.0906906
627.61	0.333923
629.338	1.05829
631.068	-0.177356
632.797	0.391859
634.525	1.09924
636.254	0.938972
637.98	0.228813
639.708	0.0864735
641.436	0.146399
643.162	0.249275
644.889	-0.423401
646.614	0.0428343
648.34	0.0557003
650.067	0.526278
651.791	0.0692501
653.516	0.638977
655.239	0.348505
656.964	1.01629
658.687	0.295909
660.411	0.600355
662.133	1.15482
663.857	0.496208
665.58	0.794518
667.301	0.130456
669.024	0.105795
670.744	0.333606
672.464	0.128759
674.186	0.842262
675.905	-0.0224638
677.626	0.603849
679.345	0.657293
681.065	-0.0489511
682.783	0.760256
684.503	0.163954
686.22	0.946718
687.939	1.06022
689.656	0.389361
691.372	0.616012
693.09	0.3352
694.806	0.514252
696.523	0.484915
698.239	1.23699
699.953	1.43483
701.67	1.42414
703.384	0.67695
705.098	0.596003
706.813	0.881769
708.526	0.983189
710.239	0.877797
711.954	1.27577
713.666	1.42112
715.378	1.54313
717.091	0.523303
718.802	0.942445
720.513	1.15591
722.226	0.754341
723.936	0.467263
725.646	0.680629
727.355	0.87058
729.067	1.17315
730.776	1.67868
732.484	1.09575
734.192	1.07936
735.902	0.385011
737.61	1.02458
739.317	1.0095
741.024	1.3336
742.731	0.577345
744.439	0.813983
746.145	0.601822
747.851	1.11114
749.556	1.32925
751.262	1.27884
752.966	1.52226
754.673	1.29483
756.377	1.04639
758.081	1.22721
759.784	1.16195
761.487	0.601749
763.19	0.966354
764.892	0.744074
766.594	1.51447
768.296	1.80895
770	1.76201
771.701	1.71278
773.402	1.75246
775.102	1.40726
776.803	2.66803
778.503	1.73707
780.202	1.28244
781.901	2.2088
783.6	2.2985
785.299	2.45479
786.997	1.77076
788.695	1.87548
790.393	1.9086
792.09	1.64489
793.787	2.21532
795.484	2.31071
797.18	1.46046
798.877	2.00963
800.572	1.50225
802.268	1.46933
803.963	1.41464
805.658	1.42722
807.35	1.7984
809.044	1.78612
810.738	2.49063
812.432	1.8701
814.125	1.85485
815.818	2.10798
817.51	2.67376
819.202	1.8084
820.894	1.30195
822.584	1.59995
824.275	2.32199
825.966	1.88606
827.657	1.96523
829.347	1.7134
831.037	1.26445
832.725	1.70945
834.414	1.28773
836.103	2.2941
837.792	2.31937
839.481	1.74041
841.167	1.42727
842.854	1.69345
844.542	2.13801
846.229	1.22012
847.914	2.29366
849.6	1.9615
851.287	1.22856
852.973	0.989423
854.656	1.94001
856.341	1.49966
858.026	1.93409
859.711	1.46728
861.393	1.26803
863.077	1.44981
864.761	1.9459
866.442	1.90024
868.125	1.08715
869.808	1.53625
871.489	1.10542
873.171	1.46387
874.85	1.32594
876.532	1.27825
878.213	1.6594
879.892	1.34076
881.572	1.58601
883.251	1.17579
884.931	1.19331
886.61	1.43499
888.287	1.13336
889.966	0.943018
891.643	1.35981
893.321	1.12152
894.997	1.39986
896.675	0.979685
898.352	2.08621
900.028	0.856586
901.704	2.3845
903.379	1.15594
905.055	1.56155
906.729	0.984422
908.404	1.30105
910.077	1.08352
911.75	1.31231
913.425	1.54138
915.097	1.70379
916.771	1.77721
918.443	1.38505
920.116	1.19301
921.787	1.33377
923.46	0.149366
925.13	0.801697
926.8	1.32277
928.472	1.33762
930.141	0.956604
931.813	1.19421
933.481	1.43203
935.15	1.22885
936.82	1.62168
938.488	1.02302
940.156	0.337408
941.825	0.888236
943.492	1.6166
945.158	1.08703
946.827	0.555995
948.493	0.92802
950.158	0.900694
951.824	0.828003
953.491	1.06425
955.156	0.508323
956.82	1.23437
958.486	0.662761
960.15	0.99851
961.814	0.739889
963.477	0.480695
965.142	1.01562
966.804	0.862216
968.467	1.2368
970.129	0.967521
971.79	0.277214
973.454	0.892455
975.115	1.02267
976.776	1.61933
978.436	0.226917
980.096	0.339132
981.756	0.450972
983.417	1.18129
985.077	1.15687
986.736	1.74986
988.394	1.72098
990.052	1.22636
991.71	0.687397
993.368	0.921918
995.025	0.847256
996.682	0.838994
998.341	0.940947
999.998	1.41713
1001.65	1.47388
1003.31	1.19999
1004.97	0.860156
1006.62	1.39967
1008.28	1.3896
1009.93	0.54608
1011.58	0.844472
1013.24	0.836175
1014.89	1.33208
1016.54	1.67467
1018.2	0.879753
1019.85	0.939426
1021.5	0.912753
1023.16	1.04031
1024.81	1.16888
1026.46	1.29805
1028.11	1.27424
1029.76	1.16233
1031.41	1.18014
1033.06	1.26163
1034.71	1.29758
1036.36	1.87698
1038.01	1.12578
1039.66	1.96465
1041.31	2.28106
1042.95	1.05537
1044.6	1.31036
1046.25	1.6108
1047.9	1.41381
1049.54	2.04398
1051.19	1.39422
1052.84	1.7445
1054.48	1.22616
1056.13	1.07707
1057.77	1.53628
1059.42	0.451393
1061.06	1.51826
1062.71	0.649077
1064.35	1.0618
1066	0.994994
1067.64	1.31823
1069.28	0.879791
1070.93	1.76568
1072.57	0.935907
1074.21	0.910203
1075.85	0.0180578
1077.49	0.949388
1079.13	1.0795
1080.78	0.971897
1082.42	1.14615
1084.06	1.21095
1085.7	1.3606
1087.34	0.727845
1088.97	1.13287
1090.61	0.886339
1092.25	1.2658
1093.89	0.931426
1095.53	0.856812
1097.17	0.33062
1098.8	0.646758
1100.44	0.598436
1102.08	0.401603
1103.71	0.228288
1105.35	0.379031
1106.99	0.487303
1108.62	0.122094
1110.26	0.142882
1111.89	0.656347
1113.52	0.523211
1115.16	0.00253868
1116.79	0.790547
1118.43	1.25607
1120.06	0.115053
1121.69	0.625112
1123.32	0.429559
1124.96	0.791472
1126.59	0.191628
1128.22	0.597955
1129.85	0.256574
1131.48	0.792421
1133.11	0.366514
1134.75	0.581794
1136.37	0.390254
1138	0.261788
1139.63	0.281672
1141.26	0.556699
1142.89	0.0414438
1144.52	0.678569
1146.15	0.164707
1147.78	0.291581
1149.4	0.397988
1151.03	0.0788517
1152.66	0.0792828
1154.28	-0.0270815
1155.91	0.249302
1157.54	-0.453254
1159.16	-0.00644779
1160.79	-0.048049
1162.41	0.0603542
1164.04	-0.0428371
1165.66	0.428552
1167.29	0.134214
1168.91	-0.395059
1170.53	0.115627
1172.16	0.369016
1173.78	0.0258312
1175.4	0.10618
1177.02	-0.026062
1178.65	0.0539656
1180.27	-0.119371
1181.89	0.702638
1183.51	0.129087
1185.13	-0.380421
1186.75	0.0599089
1188.37	0.0126696
1189.99	-0.184018
1191.61	0.186209
1193.23	-0.0136366
1194.85	-0.171749
1196.47	0.676948
1198.08	0.351973
1199.7	0.0924215
1201.32	-0.205923
1202.94	0.229653
1204.55	0.229182
1206.17	0.210051
1207.79	0.818115
1209.4	0.216453
1211.02	0.636019
1212.63	0.553159
1214.25	0.217981
1215.86	0.0267105
1217.48	-0.270017
1219.09	0.326398
1220.71	0.506356
1222.32	0.914829
1223.93	0.74381
1225.54	0.181326
1227.16	0.862669
1228.77	0.40728
1230.38	0.739246
1231.99	0.638232
1233.6	0.786567
1235.22	1.18424
1236.83	1.00452
1238.44	1.4254
1240.05	1.51633
1241.66	1.42136
1243.26	1.11905
1244.87	1.10548
1246.48	0.987351
1248.09	1.73722
1249.7	1.61716
1251.31	1.16582
1252.92	1.72842
1254.52	1.73333
1256.13	1.73949
1257.74	0.464407
1259.34	1.42486
1260.95	1.74516
1262.55	1.90056
1264.16	1.74534
1265.76	1.42375
1267.37	1.78521
1268.97	1.62745
1270.58	1.73803
1272.18	1.45349
1273.78	1.68615
1275.39	1.64817
1276.99	1.83712
1278.59	1.63146
1280.2	1.8601
1281.8	1.79849
1283.4	1.69571
1285	1.07669
1286.6	2.00951
1288.2	1.88899
1289.8	2.45149
1291.4	2.66318
1293	1.92428
1294.6	1.90773
1296.2	2.50927
1297.8	1.86991
1299.4	2.59093
1301	2.48461
1302.6	1.94446
1304.19	2.10388
1305.79	1.41931
1307.39	1.72134
1308.99	1.46855
1310.58	1.40077
1312.18	1.74298
1313.77	2.04447
1315.37	1.77445
1316.96	1.36302
1318.56	1.66687
1320.15	1.58277
1321.75	1.233
1323.34	1.81823
1324.94	2.11574
1326.53	1.84262
1328.12	1.69126
1329.72	1.43976
1331.31	1.75688
1332.9	2.19708
1334.49	1.77098
1336.08	1.36738
1337.67	1.28745
1339.27	1.69061
1340.86	1.44686
1342.45	1.38231
1344.04	1.37611
1345.63	1.5294
1347.22	2.02343
1348.8	1.57696
1350.39	1.33416
1351.98	1.07442
1353.57	0.717114
1355.16	0.341371
1356.75	0.905309
1358.33	0.589539
1359.92	0.672403
1361.51	0.694251
1363.09	0.735201
1364.68	1.15455
1366.27	1.41431
1367.85	0.698929
1369.44	1.17979
1371.02	0.527498
1372.61	0.951344
1374.19	0.361498
1375.77	0.58813
1377.36	0.993937
1378.94	0.384374
1380.52	0.510056
1382.11	0.733857
1383.69	0.817028
1385.27	0.919015
1386.85	1.37807
1388.43	0.685161
1390.02	0.648577
1391.6	0.989945
1393.18	0.459079
1394.76	1.19814
1396.34	0.90558
1397.92	1.54408
1399.5	0.972368
1401.08	1.15277
1402.65	0.995902
1404.23	0.977694
1405.81	1.41484
1407.39	1.04217
1408.97	0.927523
1410.54	1.2085
1412.12	0.896862
1413.7	1.11776
1415.27	1.10078
1416.85	1.18154
1418.43	1.18302
1420	1.24398
1421.58	1.20759
1423.15	1.48785
1424.73	1.1793
1426.3	1.24603
1427.87	1.05743
1429.45	1.26217
1431.02	1.78083
1432.6	2.06198
1434.17	1.94849
1435.74	2.10995
1437.31	2.11427
1438.89	2.61085
1440.46	1.87023
1442.03	2.56543
1443.6	1.96431
1445.17	2.75902
1446.74	2.47296
1448.31	3.13061
1449.88	2.45188
1451.45	2.50103
1453.02	2.74747
1454.59	2.56164
1456.16	2.49373
1457.72	2.38566
1459.29	2.37452
1460.86	2.18432
1462.43	1.67736
1463.99	1.93595
1465.56	1.89833
1467.13	1.46754
1468.69	1.23395
1470.26	1.31551
1471.83	1.41779
1473.39	1.16809
1474.95	0.997719
1476.52	1.14152
1478.08	0.618843
1479.65	0.664687
1481.21	0.161628
1482.78	1.0108
1484.34	0.331281
1485.9	0.866198
1487.47	0.812536
1489.03	0.875018
1490.59	0.485548
1492.15	0.700522
1493.71	0.561406
1495.27	0.420859
1496.84	0.299117
1498.39	0.586117
1499.96	0.192794
1501.52	0.888487
1503.07	-0.0450268
1504.64	-0.220339
1506.19	0.688851
1507.75	0.338742
1509.31	0.0849209
1510.87	-0.111532
1512.43	0.0192986
1513.98	0.245686
1515.54	0.0872917
1517.1	0.467381
1518.65	0.483024
1520.21	0.0395355
1521.77	0.343381
1523.32	0.168418
1524.88	0.336715
1526.44	0.37016
1527.99	0.421679
1529.54	0.130312
1531.1	0.390365
1532.65	0.517497
1534.21	0.0771217
1535.76	0.943819
1537.31	0.317002
1538.87	0.258364
1540.42	0.483025
1541.97	0.0668716
1543.52	0.1219
1545.07	0.157836
1546.63	-0.182122
1548.18	0.491603
1549.73	0.826552
1551.28	0.318466
1552.83	0.61622
1554.38	0.690099
1555.93	0.858621
1557.48	0.319415
1559.03	0.491569
1560.57	0.665439
1562.12	0.654267
1563.67	0.420264
1565.22	1.04504
1566.77	1.03556
1568.31	0.895194
1569.86	1.27704
1571.41	1.32254
1572.95	0.975741
1574.5	1.30082
1576.05	0.972566
1577.59	1.83927
1579.14	1.15693
1580.68	0.792482
1582.23	1.00763
1583.77	1.22371
1585.31	1.08556
1586.86	1.28433
1588.4	1.2402
1589.95	0.952534
1591.49	1.20706
1593.03	1.59236
1594.57	0.666451
1596.11	1.48252
1597.66	1.39988
1599.2	1.2616
1600.74	0.748683
1602.28	2.43166
1603.82	1.63751
1605.36	1.89395
1606.9	1.66048
1608.44	1.93236
1609.98	1.43125
1611.52	1.66075
1613.06	1.17447
1614.6	1.532
1616.13	1.56985
1617.67	1.21454
1619.21	0.767125
1620.75	1.31407
1622.28	1.84331
1623.82	1.56819
1625.36	1.19953
1626.89	1.14836
1628.43	1.75071
1629.96	1.37878
1631.5	1.28654
1633.04	1.28742
1634.57	2.27794
1636.11	2.37273
1637.64	2.24465
1639.17	1.29701
1640.71	1.6546
1642.24	1.89947
1643.77	1.52851
1645.31	1.90108
1646.84	2.34658
1648.37	2.17796
1649.9	3.12408
1651.43	2.62273
1652.96	2.3273
1654.5	1.885
1656.03	2.68542
1657.56	2.74408
1659.09	2.04243
1660.62	2.09902
1662.15	2.3205
1663.67	2.50349
1665.2	2.48242
1666.73	2.59099
1668.26	2.20269
1669.79	2.44312
1671.32	2.02165
1672.84	2.13575
1674.37	2.0661
1675.9	1.92254
1677.43	1.92545
1678.95	2.01918
1680.48	1.30276
1682	1.56025
1683.53	1.37641
1685.05	1.61493
1686.58	1.26668
1688.1	1.19419
1689.63	1.25039
1691.15	1.25183
1692.68	1.36312
1694.2	0.541405
1695.72	1.60331
1697.25	0.873238
1698.77	0.65494
1700.29	0.783216
1701.81	0.856104
1703.33	0.363397
1704.86	0.198687
1706.38	0.707004
1707.9	0.614305
1709.42	0.358224
1710.94	1.22776
1712.46	0.881177
1713.98	0.571551
1715.5	0.534006
1717.02	0.225142
1718.54	-0.0833445
1720.06	0.818409
1721.57	-0.121426
1723.09	-0.031683
1724.61	0.112863
1726.13	0.384459
1727.64	-0.206968
1729.16	0.660398
1730.68	0.393952
1732.19	0.52068
1733.71	0.13579
1735.23	0.670266
1736.74	0.32691
1738.26	0.201199
1739.77	0.470701
1741.29	0.30674
1742.8	0.258082
1744.31	0.461305
1745.83	0.128043
1747.34	0.246691
1748.85	0.429688
1750.37	-0.216348
1751.88	0.22033
1753.39	0.133544
1754.91	-0.014698
1756.42	0.139428
1757.93	0.111789
1759.44	0.181981
1760.95	0.187829
1762.46	0.266521
1763.97	0.211185
1765.48	0.695039
1766.99	0.0759592
1768.5	0.66616
1770.01	0.146954
1771.52	0.238194
1773.03	0.210871
1774.54	-0.0436239
1776.04	0.0246592
1777.55	0.152847
1779.06	-0.163641
1780.57	-0.0577564
1782.07	0.0211248
1783.58	0.109111
1785.09	0.0238981
1786.59	-0.111223
1788.1	0.331247
1789.6	-0.124043
1791.11	0.00544167
1792.61	0.172488
1794.12	0.0667496
1795.62	0.248307
1797.13	-0.270479
1798.63	-0.105267
1800.13	0.273758
1801.64	0.198794
1803.14	-0.0291786
1804.64	0.0712657
1806.15	0.107992
1807.65	0.0206966
1809.15	-0.140198
1810.65	0.063961
1812.15	-0.0240779
1813.65	0.294598
1815.16	-0.0844483
1816.66	0.401271
1818.15	0.117145
1819.66	-0.0562239
1821.16	0.0680976
1822.65	0.127185
1824.15	0.37787
1825.65	-0.0356383
1827.15	0.0384264
1828.65	0.121483
1830.15	0.0285645
1831.64	-0.180684
1833.14	0.0643659
1834.64	-0.12056
1836.14	0.0202074
1837.63	-0.121421
1839.13	-0.223683
1840.62	0.0846634
1842.12	0.180963
1843.62	0.133017
1845.11	-0.0604973
1846.61	0.344922
1848.1	-0.0481462
1849.6	0.228176
1851.09	0.242828
1852.58	0.340942
1854.08	0.145708
1855.57	0.144662
1857.06	-0.0488396
1858.55	0.169576
1860.05	0.00266218
1861.54	0.170017
1863.03	0.0744619
1864.52	0.18885
1866.01	-0.340418
1867.5	0.123313
1869	0.194804
1870.49	0.196123
1871.98	0.256752
1873.47	-0.27189
1874.96	-0.0336347
1876.44	0.497353
1877.93	0.334726
1879.42	0.0818324
1880.91	0.16005
1882.4	0.0302219
1882.47	0.0229101
1883.96	0.216205
1885.46	0.129877
1886.95	0.373811
1888.44	0.14701
1889.94	0.0423684
1891.43	-0.0614004
1892.93	0.0795903
1894.42	0.0655608
1895.91	-0.0515203
1897.4	-0.0114241
1898.89	-0.580208
1900.39	-0.0539246
1901.88	-0.0160179
1903.37	0.263893
1904.86	0.125156
1906.35	0.541842
1907.84	0.298146
1909.33	0.541186
1910.82	-0.169499
1912.31	0.0576997
1913.8	0.0944805
1915.29	-0.302186
1916.77	0.0985355
1918.26	0.169297
1919.75	-0.020278
1921.24	0.136587
1922.73	0.466824
1924.21	0.139751
1925.7	0.0387373
1927.19	0.336772
1928.67	0.618098
1930.16	0.0682802
1931.64	-0.0320258
1933.13	0.0396671
1934.61	-0.201694
1936.1	-0.0808744
1937.58	0.142569
1939.07	0.348026
1940.55	0.398016
1942.04	0.483161
1943.52	0.344863
1945	0.259139
1946.49	0.518574
1947.97	0.22618
1949.45	-0.0321646
1950.93	0.191019
1952.42	0.309925
1953.9	0.0670576
1955.38	0.63207
1956.86	0.303659
1958.34	0.422442
1959.82	0.0956974
1961.3	0.0954933
1962.78	-0.127372
1964.26	0.232325
1965.74	0.35153
1967.22	0.418678
1968.7	0.365439
1970.18	0.363033
1971.65	0.0700197
1973.13	0.221138
1974.61	0.355048
1976.09	0.318462
1977.57	0.333161
1979.04	0.160677
1980.52	0.345607
1982	0.224158
1983.47	-0.237102
1984.95	0.303491
1986.42	-0.00499058
1987.9	0.280128
1989.37	0.209428
1990.85	0.494745
1992.32	0.425303
1993.8	0.508924
1995.27	0.305882
1996.75	0.154029
1998.22	0.323128
1999.69	0.559283
2001.17	0.355966
2002.64	-0.100592
2004.11	0.572671
2005.58	0.655778
2007.05	0.436246
2008.53	0.386036
2010	0.336565
2011.47	0.573719
2012.94	0.204933
2014.41	0.475397
2015.88	0.223541
2017.35	0.307449
2018.82	0.0879993
2020.29	0.237947
2021.76	0.706678
2023.23	0.453422
2024.7	0.570159
2026.16	0.53684
2027.63	0.638916
2029.1	0.390026
2030.57	0.309948
2032.03	0.53269
2033.5	0.588126
2034.97	0.307724
2036.44	0.110812
2037.9	0.283012
2039.37	0.00118017
2040.83	0.54285
2042.3	0.412496
2043.76	0.0808244
2045.23	0.0861535
2046.69	0.411952
2048.16	0.36777
2049.62	0.188459
2051.08	0.395956
2052.55	0.703501
2054.01	0.503604
2055.47	0.65636
2056.94	0.436978
2058.4	0.267605
2059.86	0.435081
2061.32	0.282824
2062.79	0.13131
2064.25	0.502381
2065.71	0.503966
2067.17	0.405278
2068.63	0.862486
2070.09	0.815084
2071.55	0.885562
2073.01	0.518157
2074.47	0.689291
2075.93	0.994879
2077.39	0.626538
2078.85	0.594652
2080.31	0.629732
2081.76	0.81585
2083.22	1.25381
2084.68	0.361459
2086.13	0.949386
2087.59	0.947777
2089.05	0.441604
2090.51	0.271699
2091.96	0.488039
2093.42	0.502717
2094.87	1.0035
2096.33	0.715535
2097.78	0.980075
2099.24	1.04283
2100.69	0.770715
2102.15	1.05062
2103.6	1.08034
2105.06	1.11116
2106.51	1.20992
2107.96	1.15946
2109.42	0.959289
2110.87	1.30888
2112.32	1.30711
2113.77	1.18722
2115.23	1.19915
2116.68	1.45958
2118.13	1.35437
2119.58	1.2837
2121.03	1.72911
2122.48	1.34675
2123.93	1.66236
2125.38	1.49768
2126.83	1.76389
2128.28	1.24999
2129.73	1.49739
2131.18	1.39557
2132.63	1.67381
2134.08	1.33957
2135.53	1.80003
2136.97	2.04657
2138.42	2.06339
2139.87	1.73496
2141.32	1.80471
2142.76	2.04098
2144.21	2.02992
2145.66	2.0852
2147.1	1.74287
2148.55	1.91315
2150	2.71222
2151.44	1.7543
2152.89	2.43564
2154.33	2.00605
2155.78	2.57006
2157.22	2.12354
2158.66	2.55565
2160.11	2.50866
2161.55	2.82793
2163	2.78459
2164.44	2.42756
2165.88	2.50254
2167.32	3.32521
2168.77	2.86782
2170.21	2.82392
2171.65	2.24551
2173.09	2.76302
2174.53	3.07944
2175.97	2.64673
2177.41	2.96258
2178.85	2.58083
2180.29	2.3497
2181.73	2.43532
2183.17	2.62132
2184.61	2.7245
2186.05	2.46181
2187.49	2.51517
2188.93	2.36888
2190.37	1.92289
2191.81	2.49204
2193.24	2.42792
2194.68	2.19603
2196.12	1.74608
2197.56	2.02667
2198.99	2.08915
2200.43	2.4496
2201.87	2.21161
2203.3	2.42252
2204.74	1.772
2206.17	1.68662
2207.61	1.85032
2209.04	1.55005
2210.48	1.81212
2211.91	1.32862
2213.35	1.67154
2214.78	1.46874
2216.21	1.81144
2217.65	1.49486
2219.08	1.69092
2220.51	1.97008
2221.95	0.947201
2223.38	1.16006
2224.81	0.844606
2226.24	1.28504
2227.67	1.18075
2229.1	1.30544
2230.54	1.16665
2231.97	1.20822
2233.4	0.988004
2234.83	0.99782
2236.26	1.46605
2237.69	1.15132
2239.11	0.544921
2240.54	1.34347
2241.97	0.92006
2243.4	1.1828
2244.83	0.695584
2246.26	0.746098
2247.69	0.844236
2249.11	0.793791
2250.54	0.839265
2251.97	0.687832
2253.4	0.779861
2254.82	0.498233
2256.25	1.06243
2257.67	0.978854
2259.1	0.540866
2260.53	0.429803
2261.95	0.872538
2263.38	1.00851
2264.8	0.624916
2266.23	0.842215
2267.65	0.749984
2269.07	0.315142
2270.5	0.546792
2271.92	0.14311
2273.34	0.862843
2274.77	0.36122
2276.19	0.0387473
2277.61	0.449656
2279.03	0.877141
2280.46	0.88083
2281.88	0.525582
2283.3	0.626885
2284.72	0.548759
2286.14	0.536056
2287.56	0.572621
2288.98	0.4789
2290.4	0.695902
2291.82	0.488295
2293.24	0.362379
2294.66	0.301783
2296.08	0.552064
2297.5	0.475004
2298.92	0.414295
2300.34	0.320896
2301.76	0.0308695
2303.17	0.396998
2304.59	0.320449
2306.01	0.243763
2307.43	0.544646
2308.84	0.352218
2310.26	0.784029
2311.68	0.47558
2313.09	0.232711
2314.51	0.253339
2315.92	0.439216
2317.34	-0.131951
2318.75	-0.159405
2320.17	0.571646
2321.58	0.180504
2323	0.596346
2324.41	0.48224
2325.82	0.597298
2327.24	0.545945
2328.65	0.774155
2330.06	0.508089
2331.48	0.588738
2332.89	0.275248
2334.3	-0.0373702
2335.71	0.439995
2337.12	-0.0864401
2338.54	0.0114646
2339.95	0.354887
2341.36	0.171645
2342.77	0.185154
2344.18	0.149404
2345.59	0.179461
2347	-0.00322628
2348.41	-0.365721
2349.82	0.0571933
2351.23	0.429889
2352.64	-0.031776
2354.04	-0.215946
2355.45	-0.0090642
2356.86	0.359936
2358.27	0.0449653
2359.68	0.201952
2361.08	0.00160265
2362.49	0.482637
2363.9	-0.0901942
2365.3	0.21182
2366.71	-0.0684977
2368.12	0.136574
2369.52	-0.190281
2370.93	0.354838
2372.33	0.449233
2373.74	0.415539
2375.14	0.253443
2376.55	0.509529
2377.95	-0.119917
2379.36	0.391145
2380.76	0.145502
2382.16	0.0595899
2383.57	0.389571
2384.97	0.126666
2386.37	-0.0713925
2387.78	-0.268334
2389.18	0.0940576
2390.58	0.472729
2391.98	0.103525
2393.38	-0.137129
2394.79	0.0684199
2396.19	0.369738
2397.59	0.130993
2398.99	-0.250164
2400.39	-0.170083
2401.79	0.243771
2403.19	0.260507
2404.59	0.308715
2405.99	0.197493
2407.39	0.00627089
2408.78	0.448992
2410.18	-0.0284038
2411.58	0.334541
2412.98	-0.189068
2414.38	0.00108337
2415.77	0.0023222
2417.17	-0.0745649
2418.57	0.165923
2419.97	0.121734
2421.36	0.14081
2422.76	0.30221
2424.15	-0.0594425
2425.55	0.41871
2426.95	-0.164477
2428.34	0.31489
2429.74	0.256114
2431.13	0.245461
2432.52	0.0761886
2433.92	-0.0142126
2435.31	0.116892
2436.71	0.135686
2438.1	-0.22802
2439.49	0.185747
2440.89	0.296858
2442.28	0.169333
2443.67	0.0734072
2445.06	-0.276362
2446.46	0.293619
2447.85	-0.00862312
2449.24	0.307166
2450.63	-0.311326
2452.02	-0.533252
2453.41	-0.121556
2454.8	0.227316
2456.19	0.181178
2457.58	-0.181041
2458.97	-0.132077
2460.36	0.0113454
2461.75	0.0592384
2463.14	0.185517
2464.53	0.0900459
2465.92	0.405017
2467.31	0.135566
2468.69	0.465895
2470.08	0.259547
2471.47	0.305256
2472.86	0.255856
2474.24	-0.471015
2475.63	-0.0489759
2477.02	0.199213
2478.4	0.16426
2479.79	0.317799
2481.17	0.00082922
2482.56	0.0603442
2483.94	-0.146717
2485.33	-0.150742
2486.72	0.328731
2488.1	-0.0364246
2489.48	-0.338918
2490.87	0.246426
2492.25	0.286592
2493.64	0.0635319
2495.02	-0.0184121
2496.4	0.195266
2497.79	0.0065918
2499.17	-0.0732393
2500.55	0.156163
2501.93	-0.372691
2503.31	0.395715
2504.69	-0.226378
2506.08	0.323419
2507.46	0.194579
2508.84	-0.0568781
2510.22	0.183979
2511.6	0.210048
2512.98	0.175371
2514.36	0.371186
2515.74	-0.289728
2517.12	-0.536196
2518.5	-0.155142
2519.88	0.22566
2521.25	-0.00504923
2522.63	-0.0222883
2524.01	0.249664
2525.39	0.215822
2526.77	-0.229345
2528.14	-0.0344377
2529.52	-0.340796
2530.9	0.0990815
2532.27	0.0840983
2533.65	0.130967
2535.03	-0.155824
2536.4	-0.0324144
2537.78	0.227212
2539.15	0.0152006
2540.53	0.091136
2541.9	-0.243068
2543.28	0.0907364
2544.65	0.0306044
2546.03	0.168612
2547.4	0.0345426
2548.77	0.143852
2550.15	0.313993
2551.52	0.1196
2552.89	0.364593
2554.27	0.0472617
2555.64	0.138966
2557.01	-0.179342
2558.38	0.169604
2559.75	-0.148452
2561.12	-0.162838
2562.5	0.232437
2563.87	-0.00834656
2565.24	0.311917
2566.61	0.208075
2567.98	-0.198803
2569.35	-0.257119
2570.72	0.154417
2572.09	0.0355163
2573.46	0.113729
2574.83	0.101072
2576.19	-0.169292
2577.56	-0.272964
2578.93	-0.0735483
2580.3	0.322746
2581.67	-0.0697522
2583.04	0.386556
2584.4	0.114911
2585.77	0.100972
2587.14	-0.397888
2588.5	0.0885882
2589.87	-0.258408
2591.23	0.243162
2592.6	0.0927558
2593.97	0.0629792
2595.33	-0.0432792
2596.7	-0.195647
2598.06	0.150774
2599.43	-0.168754
2600.79	-0.0949674
2602.15	0.311358
2603.52	0.174388
2604.88	0.249242
2606.25	-0.143408
2607.61	-0.00823164
2608.97	0.0207038
2610.33	-0.192302
2611.7	-0.044775
2613.06	-0.0186834
2614.42	0.156981
2615.78	0.242027
2617.15	-0.137649
2618.51	0.12787
2619.87	0.0343838
2621.23	0.210769
2622.59	0.297672
2623.95	0.100936
2625.31	-0.229872
2626.67	-0.0981274
2628.03	-0.20524
2629.39	-0.0146146
2630.75	0.279701
2632.1	0.246402
2633.46	-0.0988197
2634.82	-0.0130739
2636.18	-0.535536
2637.54	0.217227
2638.89	0.0360055
2640.25	0.0475216
2641.61	-0.0442648
2642.97	0.0858998
2644.32	0.156968
2645.68	0.213139
2647.03	0.239444
2648.39	-0.0441546
2649.75	-0.151278
2651.1	0.461662
2652.46	-0.0283842
2653.81	-0.0184445
2655.17	-0.0372868
2656.52	0.105841
2657.88	-0.101621
2659.23	0.320895
2660.58	-0.133984
2661.94	-0.0477643
2663.29	0.271628
2664.64	-0.198225
2666	0.0758905
2667.35	-0.204602
2668.7	0.0831947
2670.05	0.00697422
2671.4	0.207522
2672.76	0.248461
2674.11	-0.291038
2675.46	0.259079
2676.81	0.243299
2678.16	0.15553
2679.51	0.387458
2680.86	-0.0322828
2682.21	0.114359
2683.56	0.0154386
2684.91	0.33785
2686.26	0.153019
2687.61	0.229244
2688.96	0.086843
2690.3	0.306068
2691.65	0.0593433
2693	0.203321
2694.35	0.0418701
2695.7	0.170284
2697.04	0.327996
2698.39	0.0376759
2699.74	0.19762
2701.08	0.329963
2702.43	0.217315
2703.77	0.235847
2705.12	0.00836515
2706.47	0.230347
2707.81	-0.0700488
2709.16	0.412898
2710.5	0.329554
2711.85	0.449304
2713.19	0.583549
2714.53	-0.0670967
2715.88	0.110595
2717.22	0.37555
2718.57	0.567711
2719.91	0.206734
2721.25	0.179996
2722.59	0.240203
2723.94	0.591165
2725.28	0.199451
2726.62	0.244108
2727.96	0.113864
2729.3	0.332713
2730.65	0.071228
2731.99	0.0862055
2733.33	0.333993
2734.67	0.538231
2736.01	0.218996
2737.35	0.118065
2738.69	-0.157382
2740.03	0.0323792
2741.37	0.047266
2742.71	-0.15639
2744.05	-0.0262017
2745.38	0.132488
2746.72	0.0438495
2748.06	0.0857735
2749.4	0.272782
2750.74	0.227735
2752.07	0.342399
2753.41	0.0368724
2754.75	0.3257
2756.09	-0.0373192
2757.42	-0.110411
2758.76	0.207577
2760.09	-0.154521
2761.43	0.033761
2762.77	0.048727
2764.1	-0.210975
2765.44	-0.0944705
2766.77	0.195302
2768.11	0.0503616
2769.44	0.13588
2770.77	-0.14108
2772.11	0.187827
2773.44	0.125822
2774.77	-0.0951018
2776.11	-0.373298
2777.44	0.299107
2778.77	-0.0501781
2780.11	-0.168621
2781.44	0.23033
2782.77	0.298748
2784.1	0.0515075
2785.43	0.449528
2786.77	0.116687
2788.1	0.185443
2789.43	-0.0028162
2790.76	-0.147325
2792.09	0.00910807
2793.42	0.0371642
2794.75	0.236754
2796.08	-0.135537
2797.41	-0.022368
2798.74	-0.00965023
2800.07	-0.139995
2801.4	0.2146
2802.72	0.197986
2804.05	0.0671825
2805.38	0.249532
2806.71	0.345785
2808.04	0.31339
2809.36	0.550727
2810.69	0.148644
2812.02	0.230103
2813.34	0.127946
2814.67	-0.228206
2816	-0.101152
2817.32	0.338524
2818.65	-0.35524
2819.97	0.0282092
2821.3	0.000298023
2822.62	-0.35404
2823.95	0.113041
2825.27	0.183022
2826.6	0.550376
2827.92	0.450749
2829.25	0.422383
2830.57	0.479331
2831.89	0.621382
2833.22	0.735074
2834.54	0.537113
2835.86	0.57939
2837.18	1.00325
2838.51	1.04462
2839.83	1.28377
2841.15	1.55114
2842.47	1.86115
2843.79	1.63458
2845.11	1.49347
2846.43	1.96061
2847.76	2.00411
2849.08	2.06179
2850.4	2.31708
2851.72	2.45886
2853.04	2.48707
2854.36	2.71275
2855.67	2.21761
2856.99	2.54194
2858.31	3.00747
2859.63	2.82321
2860.95	2.70945
2862.27	3.17424
2863.58	3.05981
2864.9	3.10038
2866.22	3.19733
2867.54	3.61882
2868.85	3.36373
2870.17	3.54616
2871.49	4.27844
2872.8	4.03778
2874.12	3.48652
2875.43	4.14592
2876.75	4.02938
2878.07	3.95435
2879.38	4.09005
2880.7	4.12749
2882.01	4.08137
2883.32	4.40146
2884.64	3.90795
2885.95	4.27157
2887.27	4.50881
2888.58	4.53505
2889.89	4.29397
2891.21	4.543
2892.52	4.02034
2893.83	4.94089
2895.14	4.74073
2896.46	4.82149
2897.77	5.01519
2899.08	4.91604
2900.39	5.09753
2901.7	5.47531
2903.01	5.19584
2904.32	5.88165
2905.63	5.89633
2906.94	5.89761
2908.25	6.51524
2909.56	6.01465
2910.87	6.70401
2912.18	6.63781
2913.49	6.61277
2914.8	7.17424
2916.11	7.07581
2917.42	6.7517
2918.72	6.80444
2920.03	7.31846
2921.34	7.95869
2922.65	7.64941
2923.95	7.94283
2925.26	8.40527
2926.57	8.19749
2927.88	7.93384
2929.18	8.03322
2930.49	8.10402
2931.79	7.95059
2933.1	8.25814
2934.4	8.59355
2935.71	8.30011
2937.01	8.53793
2938.32	8.37067
2939.62	7.92427
2940.93	7.42253
2942.23	7.74615
2943.54	7.14871
2944.84	7.60097
2946.14	6.90803
2947.45	6.74689
2948.75	6.22148
2950.05	6.80062
2951.35	5.72581
2952.66	6.21724
2953.96	5.48905
2955.26	5.39057
2956.56	5.32091
2957.86	5.39316
2959.16	5.00603
2960.46	5.25163
2961.77	5.42948
2963.07	4.96309
2964.37	5.07112
2965.66	4.8829
2966.96	5.11449
2968.26	4.74038
2969.56	4.29496
2970.86	4.43993
2972.16	3.62856
2973.46	3.83029
2974.76	3.44092
2976.06	3.85336
2977.35	3.37765
2978.65	3.534
2979.95	2.97079
2981.25	3.58871
2982.54	3.10849
2983.84	2.81169
2985.14	2.67064
2986.43	2.71363
2987.73	2.65955
2989.02	2.62041
2990.32	2.17396
2991.62	2.38762
2992.91	2.36146
2994.21	2.16557
2995.5	1.8845
2996.8	1.71532
2998.09	1.37767
2999.38	1.84006
3000.68	1.89586
3001.97	1.64377
3003.26	1.68645
3004.56	1.47705
3005.85	1.11352
3007.14	1.00172
3008.43	0.847387
3009.73	0.804372
3011.02	1.02629
3012.31	0.71695
3013.6	0.756841
3014.89	0.518175
3016.19	0.391825
3017.48	0.419353
3018.77	0.12721
3020.06	0.516917
3021.35	0.669564
3022.64	0.557443
3023.93	0.416962
3025.22	0.692049
3026.5	0.564731
3027.79	0.354977
3029.08	0.243215
3030.37	0.726874
3031.66	0.244477
3032.95	0.177471
3034.24	0.290184
3035.52	0.374846
3036.81	0.403286
3038.1	0.29254
3039.39	0.139261
3040.67	0.493694
3041.96	0.462115
3043.25	-0.145131
3044.53	0.344942
3045.82	0.479576
3047.1	0.383416
3048.39	0.248276
3049.67	0.278683
3050.96	0.337614
3052.24	0.178869
3053.53	0.538677
3054.81	0.584139
3056.1	0.0968623
3057.38	0.249848
3058.67	0.0750828
3059.95	0.227089
3061.23	0.392786
3062.52	0.382227
3063.8	0.318355
3065.08	0.446029
3066.36	0.452446
3067.65	0.228535
3068.93	0.222464
3070.21	0.0938148
3071.49	0.386165
3072.77	0.0656009
3074.05	-0.065403
3075.33	0.197052
3076.61	-0.0434918
3077.89	-0.16134
3079.17	0.142294
3080.45	-0.027905
3081.73	0.0337081
3083.01	-0.134355
3084.29	0.349375
3085.57	-0.0759263
3086.85	0.190572
3088.13	0.130822
3089.41	-0.0244455
3090.68	0.254224
3091.96	0.139243
3093.24	0.0651217
3094.52	0.398098
3095.79	0.188837
3097.07	0.0881872
3098.35	-0.053112
3099.62	-0.126677
3100.9	0.300961
3102.18	-0.138299
3103.45	0.0998316
3104.73	-0.000150681
3106	-0.167211
3107.28	0.126549
3108.55	0.123365
3109.83	-0.122647
3111.1	-0.016006
3112.38	0.023571
3113.65	-0.0719824
3114.93	-0.194699
3116.2	0.197501
3117.47	-0.00748968
3118.75	0.139349
3120.02	0.190444
3121.29	0.457748
3122.57	0.168772
3123.84	0.15082
3125.11	0.512151
3126.38	0.602835
3127.65	-0.0501866
3128.92	0.298494
3130.2	0.0252981
3131.47	0.374146
3132.74	0.0741153
3134.01	0.435902
3135.28	0.337985
3136.55	0.482601
3137.82	0.154792
3139.09	0.217889
3140.36	0.09234
3141.63	0.478097
3142.9	0.36629
3144.17	0.201357
3145.43	-0.003088
3146.7	-0.0592375
3147.97	0.300508
3149.24	0.405877
