200.554	-0.309487
202.369	-0.290327
204.183	-0.270366
205.999	0.650839
207.813	0.647915
209.626	0.0855398
211.439	0.445299
213.253	0.390455
215.065	0.504145
216.877	0.568594
218.688	0.463689
220.5	0.456745
222.312	0.814052
224.123	0.229464
225.933	1.50707
227.742	0.126652
229.552	0.92012
231.361	0.529658
233.171	0.235822
234.98	-0.274134
236.787	0.447443
238.595	-0.563654
240.402	0.188213
242.209	0.630046
244.015	0.905249
245.822	0.408311
247.627	0.174491
249.435	1.14441
251.24	0.00951099
253.045	0.705889
254.849	-0.144381
256.653	0.669381
258.457	0.0136433
260.26	0.0834436
262.063	0.637659
263.866	-0.106699
265.668	0.0176401
267.47	0.40764
269.271	0.122469
271.073	0.511239
272.873	0.223473
274.674	0.319633
276.474	0.630571
278.274	0.119579
280.073	-0.0323296
281.872	0.222457
283.671	0.257994
285.47	-0.236901
287.268	-0.179748
289.065	-0.314415
290.863	0.606181
292.66	-0.244044
294.456	0.439873
296.253	0.646951
298.049	0.186211
299.844	0.323783
301.637	0.580438
303.432	-0.143082
305.227	-0.151658
307.021	0.554133
308.815	0.376953
310.609	0.677304
312.402	0.526638
314.195	0.664138
315.987	0.637562
317.777	0.327702
319.569	0.567771
321.36	-0.096056
323.151	-0.18715
324.942	-0.277766
326.733	0.276371
328.521	-0.00537872
330.31	-0.0970573
332.1	0.694597
333.889	0.407841
335.677	-0.193035
337.464	0.878054
339.252	0.319199
341.039	0.476045
342.826	0.464394
344.611	1.50403
346.398	2.03718
348.184	1.95399
349.97	1.1642
351.754	0.0794134
353.539	0.188879
355.324	0.0106201
357.106	0.355278
358.89	0.292716
360.674	-0.319002
362.455	0.0207596
364.239	0.097477
366.021	0.101847
367.804	-0.250841
369.584	-0.129784
371.366	-0.0101051
373.145	0.534222
374.926	0.367912
376.707	0.272917
378.485	0.508971
380.265	0.628055
382.045	0.630895
383.822	-0.422873
385.601	0.171842
387.378	0.53264
389.156	0.190031
390.934	0.0367994
392.71	0.307391
394.487	-0.477976
396.262	0.357544
398.038	0.347777
399.813	-0.132005
401.588	-0.400999
403.362	0.0102997
405.137	-0.0726185
406.912	0.407076
408.685	0.744915
410.459	0.401485
412.23	0.598024
414.004	0.0677118
415.775	0.148493
417.548	0.324224
419.318	0.219224
421.089	0.654343
422.86	0.314589
424.63	-0.190556
426.401	-0.250891
428.17	0.0163298
429.94	-0.397805
431.708	0.31468
433.478	0.323445
435.245	0.426543
437.012	0.224482
438.781	0.115331
440.547	0.168469
442.315	0.406508
444.081	0.360065
445.846	0.358036
447.613	0.0735598
449.378	-0.655272
451.142	-0.938805
452.908	-0.147714
454.672	0.269183
456.435	0.731991
458.2	0.332235
459.963	0.165917
461.725	0.396098
463.489	-0.557152
465.251	0.189554
467.012	-0.0825043
468.775	0.532108
470.536	-0.0828762
472.296	-0.325509
474.056	0.548143
475.817	0.139125
477.576	0.472446
479.335	0.197676
481.094	0.57384
482.854	-0.260885
484.612	0.699365
486.37	0.800589
488.127	0.252185
489.886	0.615539
491.642	0.560656
493.398	0.13269
495.154	-0.0853338
496.91	0.749546
498.667	0.414002
500.422	0.757306
502.176	1.24111
503.93	0.221079
505.684	0.349786
507.438	0.947098
509.191	0.53119
510.946	0.795218
512.698	0.986515
514.45	1.05805
516.202	1.05706
517.954	0.560519
519.705	0.909221
521.456	0.88063
523.206	0.240849
524.956	1.57297
526.706	0.417102
528.456	0.645767
530.207	0.545942
531.956	0.375383
533.704	0.906091
535.452	-0.0624695
537.2	0.884881
538.947	0.497842
540.694	0.133341
542.441	0.630385
544.188	0.404583
545.934	0.341927
547.68	-0.161274
549.425	0.750991
551.17	0.59639
552.915	0.696789
554.659	0.28893
556.403	1.05942
558.145	-0.730591
559.889	0.547389
561.632	0.765046
563.375	0.385136
565.117	0.0985117
566.859	0.777854
568.601	-0.103571
570.342	0.325253
572.083	0.572115
573.824	0.224746
575.565	0.843277
577.303	-0.440273
579.043	0.572636
580.782	-0.295916
582.521	0.305466
584.26	0.51583
585.998	0.402958
587.734	0.0352573
589.472	0.287018
591.21	-0.474773
592.947	0.373294
594.684	-0.205316
596.418	-0.254692
598.154	0.593129
599.89	-0.0779991
601.626	0.192986
603.361	0.00220394
605.094	-0.236362
606.828	-0.154725
608.562	0.40801
610.296	-0.26936
612.027	0.155671
613.761	0.650105
615.493	0.0449686
617.224	0.608891
618.956	-0.0192232
620.688	0.793812
622.419	0.826437
624.149	0.606407
625.879	0.546612
627.61	-0.150819
629.338	0.136304
631.068	-0.258135
632.797	0.354114
634.525	0.830947
636.254	1.37589
637.98	0.434588
639.708	1.2014
641.436	-0.203374
643.162	0.213782
644.889	-0.0316572
646.614	0.610959
648.34	-0.0631781
650.067	0.358193
651.791	0.284716
653.516	0.352788
655.239	0.379867
656.964	0.0228968
658.687	1.17087
660.411	0.198408
662.133	-0.0700445
663.857	1.05216
665.58	0.617437
667.301	0.0426626
669.024	-0.510377
670.744	0.35575
672.464	0.240924
674.186	0.633019
675.905	0.547204
677.626	0.829996
679.345	0.355515
681.065	0.154641
682.783	-0.325029
684.503	0.296947
686.22	0.226007
687.939	0.705749
689.656	0.792583
691.372	0.740217
693.09	0.272357
694.806	0.264197
696.523	0.0704937
698.239	0.58896
699.953	1.0133
701.67	1.61958
703.384	1.12064
705.098	0.919947
706.813	0.145088
708.526	1.4805
710.239	0.888624
711.954	0.503242
713.666	0.575567
715.378	1.24162
717.091	1.10732
718.802	0.882169
720.513	0.953913
722.226	0.866323
723.936	0.892718
725.646	1.23713
727.355	0.853756
729.067	0.946976
730.776	0.608717
732.484	0.950009
734.192	0.928376
735.902	1.13286
737.61	0.976204
739.317	1.33962
741.024	0.937402
742.731	1.32579
744.439	0.657455
746.145	0.666744
747.851	1.12779
749.556	0.645733
751.262	0.480362
752.966	1.10394
754.673	0.289679
756.377	1.05228
758.081	1.1646
759.784	0.783308
761.487	1.2372
763.19	0.564226
764.892	0.815672
766.594	1.17893
768.296	1.74357
770	1.60464
771.701	1.37244
773.402	1.04792
775.102	0.948992
776.803	1.86828
778.503	1.27443
780.202	1.74542
781.901	0.928572
783.6	1.44659
785.299	1.37477
786.997	1.61668
788.695	1.26583
790.393	1.27284
792.09	1.4797
793.787	1.68411
795.484	1.30134
797.18	1.79946
798.877	1.48834
800.572	2.37292
802.268	1.43631
803.963	1.60327
805.658	1.27531
807.35	1.28358
809.044	1.24535
810.738	1.20563
812.432	1.59079
814.125	1.77294
815.818	1.55153
817.51	1.15152
819.202	1.60147
820.894	1.76063
822.584	2.18783
824.275	1.94664
825.966	1.73005
827.657	1.53888
829.347	1.12883
831.037	0.856398
832.725	1.50093
834.414	0.989643
836.103	1.54968
837.792	1.73066
839.481	1.50828
841.167	1.50698
842.854	1.50393
844.542	2.01424
846.229	1.43054
847.914	1.8104
849.6	1.27665
851.287	0.476705
852.973	1.38128
854.656	1.99719
856.341	2.34458
858.026	1.07211
859.711	1.41543
861.393	0.946181
863.077	1.28533
864.761	0.676508
866.442	2.00489
868.125	0.987967
869.808	1.81942
871.489	1.22962
873.171	1.04547
874.85	1.19963
876.532	1.28616
878.213	1.19217
879.892	1.50433
881.572	1.18394
883.251	0.659354
884.931	1.53293
886.61	0.327981
888.287	0.926605
889.966	0.530421
891.643	1.57508
893.321	1.10769
894.997	2.10197
896.675	1.3396
898.352	0.667202
900.028	0.421217
901.704	1.00366
903.379	1.24835
905.055	1.08993
906.729	1.0885
908.404	1.4446
910.077	1.44485
911.75	0.912456
913.425	0.670918
915.097	1.36282
916.771	0.833463
918.443	1.05851
920.116	0.72978
921.787	1.57483
923.46	1.2044
925.13	0.262426
926.8	1.28888
928.472	0.904222
930.141	0.742077
931.813	1.06626
933.481	0.839218
935.15	1.1639
936.82	0.937745
938.488	1.30829
940.156	0.754171
941.825	1.76783
943.492	1.08383
945.158	0.708249
946.827	1.19188
948.493	0.591434
950.158	0.871399
951.824	0.730466
953.491	0.435405
955.156	1.15694
956.82	0.184218
958.486	-0.0126505
960.15	0.301485
961.814	0.529614
963.477	0.492557
965.142	0.0329342
966.804	0.719963
968.467	0.319354
970.129	0.447054
971.79	0.617887
973.454	0.899914
975.115	0.763741
976.776	1.58103
978.436	0.71944
980.096	0.754435
981.756	0.788874
983.417	1.31957
985.077	0.585771
986.736	1.26586
988.394	1.36785
990.052	1.26902
991.71	0.926343
993.368	0.760548
995.025	0.617165
996.682	0.782962
998.341	0.507559
999.998	1.73055
1001.65	1.5201
1003.31	1.28732
1004.97	0.834522
1006.62	0.31631
1008.28	0.501691
1009.93	1.0603
1011.58	1.4872
1013.24	0.884194
1014.89	0.698605
1016.54	0.163537
1018.2	0.854983
1019.85	0.803325
1021.5	0.775005
1023.16	0.529644
1024.81	1.31281
1026.46	1.02583
1028.11	1.19775
1029.76	1.01917
1031.41	0.576902
1033.06	1.13697
1034.71	1.7378
1036.36	0.504596
1038.01	1.21095
1039.66	1.43725
1041.31	1.4902
1042.95	1.45803
1044.6	1.25461
1046.25	1.07581
1047.9	1.65983
1049.54	1.22541
1051.19	1.29226
1052.84	0.947489
1054.48	1.34189
1056.13	0.910522
1057.77	1.00031
1059.42	1.02423
1061.06	1.11249
1062.71	1.09095
1064.35	0.807203
1066	0.67427
1067.64	1.14845
1069.28	0.882314
1070.93	1.1367
1072.57	0.544206
1074.21	0.79909
1075.85	0.0357904
1077.49	0.90111
1079.13	0.770408
1080.78	1.07443
1082.42	0.380904
1084.06	0.119892
1085.7	0.333708
1087.34	0.587987
1088.97	0.384503
1090.61	1.26074
1092.25	1.16115
1093.89	1.38501
1095.53	0.508471
1097.17	0.755555
1098.8	0.4872
1100.44	1.06114
1102.08	0.324612
1103.71	0.451438
1105.35	0.558454
1106.99	0.66618
1108.62	0.300318
1110.26	0.836103
1111.89	0.101361
1113.52	0.589556
1115.16	0.345648
1116.79	0.573256
1118.43	0.457752
1120.06	0.857521
1121.69	0.894225
1123.32	0.440137
1124.96	0.757947
1126.59	-0.0354452
1128.22	0.134866
1129.85	0.904729
1131.48	0.584882
1133.11	0.65027
1134.75	0.523069
1136.37	0.416386
1138	0.308322
1139.63	0.348229
1141.26	1.47557
1142.89	-0.0874729
1144.52	0.121455
1146.15	0.736178
1147.78	0.435407
1149.4	0.668612
1151.03	0.34856
1152.66	0.582303
1154.28	0.410955
1155.91	0.068922
1157.54	0.705629
1159.16	-0.273958
1160.79	-0.486397
1162.41	0.00431919
1164.04	0.581336
1165.66	0.01087
1167.29	0.375528
1168.91	0.313481
1170.53	-0.558465
1172.16	-0.200091
1173.78	-0.438833
1175.4	-0.12721
1177.02	0.395279
1178.65	0.578368
1180.27	0.127187
1181.89	-0.19527
1183.51	0.0543194
1185.13	-0.330246
1186.75	0.53017
1188.37	0.711946
1189.99	0.300541
1191.61	0.813725
1193.23	0.251394
1194.85	0.69721
1196.47	0.408162
1198.08	-0.0462723
1199.7	-0.225391
1201.32	0.0376892
1202.94	0.491788
1204.55	0.594116
1206.17	0.323704
1207.79	0.368041
1209.4	0.391827
1211.02	0.351894
1212.63	0.33052
1214.25	0.618737
1215.86	0.695331
1217.48	0.582164
1219.09	1.09127
1220.71	0.748149
1222.32	0.406715
1223.93	1.10357
1225.54	1.63583
1227.16	0.990133
1228.77	1.0089
1230.38	1.13278
1231.99	1.11357
1233.6	1.19941
1235.22	0.89429
1236.83	1.39692
1238.44	1.54966
1240.05	1.37254
1241.66	1.31968
1243.26	1.61799
1244.87	1.23248
1246.48	1.6732
1248.09	1.63657
1249.7	1.7851
1251.31	1.14708
1252.92	1.99885
1254.52	1.15551
1256.13	2.11323
1257.74	1.74893
1259.34	2.23456
1260.95	1.79025
1262.55	1.88468
1264.16	1.39915
1265.76	1.6587
1267.37	2.04175
1268.97	1.98822
1270.58	2.24418
1272.18	2.20834
1273.78	1.79782
1275.39	1.77985
1276.99	1.76057
1278.59	1.51229
1280.2	1.03559
1281.8	2.23532
1283.4	1.69646
1285	1.94464
1286.6	2.38
1288.2	2.09328
1289.8	2.84124
1291.4	3.3418
1293	2.4991
1294.6	2.46115
1296.2	2.37998
1297.8	2.75065
1299.4	2.89151
1301	1.83426
1302.6	2.6513
1304.19	3.01277
1305.79	2.24177
1307.39	2.35467
1308.99	1.60535
1310.58	2.57897
1312.18	2.03631
1313.77	3.00918
1315.37	2.20414
1316.96	2.76969
1318.56	2.33553
1320.15	2.26875
1321.75	1.73223
1323.34	2.1509
1324.94	2.48486
1326.53	2.12586
1328.12	1.84814
1329.72	2.13889
1331.31	2.49193
1332.9	1.79693
1334.49	2.33778
1336.08	2.15382
1337.67	2.15229
1339.27	2.37145
1340.86	2.10448
1342.45	1.9355
1344.04	2.38717
1345.63	1.5515
1347.22	1.86103
1348.8	1.29102
1350.39	1.74606
1351.98	1.88401
1353.57	1.28495
1355.16	1.48752
1356.75	1.65047
1358.33	0.913784
1359.92	1.67395
1361.51	2.27229
1363.09	1.69194
1364.68	1.76966
1366.27	1.94729
1367.85	1.52849
1369.44	1.2312
1371.02	1.11512
1372.61	1.61779
1374.19	1.08724
1375.77	1.15451
1377.36	1.65965
1378.94	0.771156
1380.52	2.269
1382.11	0.939771
1383.69	1.14074
1385.27	1.12158
1386.85	1.1416
1388.43	1.97597
1390.02	1.59979
1391.6	1.56245
1393.18	1.66508
1394.76	1.17317
1396.34	1.69244
1397.92	1.7545
1399.5	1.24048
1401.08	1.69606
1402.65	1.87327
1404.23	1.25896
1405.81	1.47647
1407.39	1.71474
1408.97	1.71692
1410.54	1.60127
1412.12	1.42635
1413.7	1.40862
1415.27	1.90263
1416.85	1.72451
1418.43	1.822
1420	1.62442
1421.58	1.76328
1423.15	1.74677
1424.73	1.39796
1426.3	2.15307
1427.87	2.02319
1429.45	2.30621
1431.02	2.33203
1432.6	2.61199
1434.17	2.73305
1435.74	2.55842
1437.31	3.17065
1438.89	2.91883
1440.46	3.43506
1442.03	3.40237
1443.6	3.05629
1445.17	3.12348
1446.74	3.56439
1448.31	3.0424
1449.88	3.24815
1451.45	3.61196
1453.02	3.54404
1454.59	3.02417
1456.16	3.5468
1457.72	3.18303
1459.29	3.01405
1460.86	3.51157
1462.43	3.06174
1463.99	3.02277
1465.56	2.94293
1467.13	3.01984
1468.69	2.66531
1470.26	2.33207
1471.83	2.62845
1473.39	1.53371
1474.95	2.24449
1476.52	1.87728
1478.08	2.68655
1479.65	1.41772
1481.21	1.24663
1482.78	1.36942
1484.34	1.17847
1485.9	2.39754
1487.47	1.49976
1489.03	1.59911
1490.59	1.7349
1492.15	1.61327
1493.71	0.883386
1495.27	0.718452
1496.84	1.35132
1498.39	0.347862
1499.96	0.902345
1501.52	0.719315
1503.07	0.286133
1504.64	0.707334
1506.19	0.760297
1507.75	1.10236
1509.31	1.11391
1510.87	0.737967
1512.43	0.554512
1513.98	0.755939
1515.54	0.764916
1517.1	0.736281
1518.65	1.26481
1520.21	0.509665
1521.77	0.961787
1523.32	0.628837
1524.88	0.524665
1526.44	1.18203
1527.99	0.903478
1529.54	0.54892
1531.1	1.01175
1532.65	1.00001
1534.21	0.629736
1535.76	0.602174
1537.31	0.783712
1538.87	1.49424
1540.42	1.31766
1541.97	1.1792
1543.52	0.457483
1545.07	1.05293
1546.63	0.7266
1548.18	1.16996
1549.73	1.21876
1551.28	1.34262
1552.83	1.69142
1554.38	0.882194
1555.93	0.48696
1557.48	0.579793
1559.03	1.53334
1560.57	1.16446
1562.12	1.67453
1563.67	1.19735
1565.22	0.702125
1566.77	0.971982
1568.31	1.27892
1569.86	1.21207
1571.41	1.05137
1572.95	1.31961
1574.5	1.56901
1576.05	1.18375
1577.59	0.817408
1579.14	1.98248
1580.68	1.3001
1582.23	1.14146
1583.77	1.82451
1585.31	1.06996
1586.86	1.62423
1588.4	1.54313
1589.95	2.11659
1591.49	2.80217
1593.03	1.74607
1594.57	2.37471
1596.11	1.8234
1597.66	1.89081
1599.2	2.31545
1600.74	3.21041
1602.28	2.04232
1603.82	2.7696
1605.36	2.25659
1606.9	2.56813
1608.44	2.21912
1609.98	1.88567
1611.52	1.60555
1613.06	2.13053
1614.6	2.25905
1616.13	1.58038
1617.67	1.48429
1619.21	1.93316
1620.75	1.80315
1622.28	2.46144
1623.82	1.90375
1625.36	1.49593
1626.89	2.09777
1628.43	2.54778
1629.96	2.99544
1631.5	2.13292
1633.04	1.62576
1634.57	2.50094
1636.11	2.05169
1637.64	2.68577
1639.17	2.4813
1640.71	2.48197
1642.24	2.79841
1643.77	2.55436
1645.31	3.33228
1646.84	3.1781
1648.37	2.8379
1649.9	2.85159
1651.43	2.53267
1652.96	2.62389
1654.5	2.95762
1656.03	2.82863
1657.56	2.5884
1659.09	2.93986
1660.62	2.308
1662.15	3.00677
1663.67	2.61233
1665.2	2.75332
1666.73	2.91309
1668.26	2.37345
1669.79	2.42637
1671.32	2.22337
1672.84	2.50091
1674.37	1.71084
1675.9	2.28314
1677.43	1.63929
1678.95	1.39918
1680.48	1.61755
1682	1.11809
1683.53	1.86742
1685.05	1.36811
1686.58	1.67679
1688.1	1.6558
1689.63	1.85517
1691.15	1.78002
1692.68	0.442343
1694.2	1.48368
1695.72	1.13434
1697.25	1.40624
1698.77	0.837358
1700.29	1.40004
1701.81	0.319941
1703.33	0.334041
1704.86	0.420246
1706.38	0.760448
1707.9	0.645236
1709.42	1.07499
1710.94	0.614921
1712.46	0.37342
1713.98	0.512966
1715.5	0.797157
1717.02	0.104085
1718.54	0.514359
1720.06	0.544652
1721.57	-0.0563393
1723.09	0.353886
1724.61	0.260346
1726.13	0.708777
1727.64	0.222538
1729.16	0.241673
1730.68	0.564633
1732.19	0.401082
1733.71	0.0691872
1735.23	0.473306
1736.74	-0.0958977
1738.26	0.349249
1739.77	0.276397
1741.29	-0.432913
1742.8	0.480406
1744.31	0.90243
1745.83	0.771621
1747.34	-0.0256882
1748.85	0.239684
1750.37	0.0954409
1751.88	0.522536
1753.39	-0.12743
1754.91	0.255814
1756.42	0.135485
1757.93	-0.0750942
1759.44	0.261087
1760.95	0.399624
1762.46	0.233089
1763.97	0.677086
1765.48	0.281551
1766.99	0.391747
1768.5	0.138469
1770.01	-0.0379019
1771.52	-0.17862
1773.03	0.48063
1774.54	0.0063591
1776.04	-0.113243
1777.55	0.0168152
1779.06	-0.0318232
1780.57	0.124759
1782.07	-0.0430803
1783.58	0.131401
1785.09	-0.0264149
1786.59	-0.30783
1788.1	0.051692
1789.6	-0.0651636
1791.11	-0.0295734
1792.61	0.356417
1794.12	-0.0582905
1795.62	-0.255552
1797.13	0.0295334
1798.63	-0.318122
1800.13	0.226665
1801.64	-0.0499029
1803.14	-0.0478954
1804.64	0.0734167
1806.15	0.290538
1807.65	0.126528
1809.15	-0.155875
1810.65	-0.135876
1812.15	-0.00979042
1813.65	0.174844
1815.16	0.180089
1816.66	-0.0160227
1818.15	0.0526428
1819.66	0.0407209
1821.16	-0.00573444
1822.65	0.0678301
1824.15	-0.0690651
1825.65	-0.203114
1827.15	-0.0809851
1828.65	0.182273
1830.15	-0.0214138
1831.64	-0.107148
1833.14	0.165873
1834.64	0.376331
1836.14	0.12276
1837.63	-0.118442
1839.13	0.419
1840.62	0.000826836
1842.12	0.105999
1843.62	-0.128018
1845.11	0.158547
1846.61	0.139357
1848.1	0.111916
1849.6	0.113958
1851.09	0.359224
1852.58	0.0782833
1854.08	0.212366
1855.57	0.321063
1857.06	0.100067
1858.55	-0.23769
1860.05	0.0587378
1861.54	0.0835199
1863.03	0.181605
1864.52	-0.305481
1866.01	-0.0433998
1867.5	-0.195479
1869	0.444639
1870.49	-0.00948715
1871.98	0.142776
1873.47	0.253289
1874.96	0.136016
1876.44	0.579973
1877.93	0.00799751
1879.42	-0.45082
1880.91	-0.172438
1882.4	0.300419
1882.47	0.32245
1883.96	0.235026
1885.46	-0.0274849
1886.95	0.371121
1888.44	-0.327999
1889.94	0.0177164
1891.43	-0.0532303
1892.93	-0.191936
1894.42	0.12341
1895.91	0.127543
1897.4	-0.0238752
1898.89	0.329023
1900.39	-0.0497789
1901.88	0.526397
1903.37	-0.395316
1904.86	0.281333
1906.35	-0.537808
1907.84	0.171999
1909.33	0.0659637
1910.82	0.377476
1912.31	-0.29894
1913.8	0.100874
1915.29	0.136506
1916.77	0.223771
1918.26	-0.278913
1919.75	0.240476
1921.24	0.0319166
1922.73	0.447287
1924.21	0.274816
1925.7	-0.0521355
1927.19	-0.170154
1928.67	-0.374044
1930.16	0.44368
1931.64	0.0830698
1933.13	0.344247
1934.61	0.343652
1936.1	0.600651
1937.58	0.0951567
1939.07	-0.0992098
1940.55	0.0523167
1942.04	-0.0542898
1943.52	0.0818663
1945	0.0636873
1946.49	-0.0402374
1947.97	0.269277
1949.45	0.353795
1950.93	0.196052
1952.42	0.071847
1953.9	0.153494
1955.38	-0.211872
1956.86	0.505532
1958.34	-0.0472174
1959.82	-0.152559
1961.3	0.548717
1962.78	-0.104431
1964.26	-0.0719013
1965.74	-0.125569
1967.22	-0.214158
1968.7	0.0387354
1970.18	-0.085412
1971.65	-0.0559521
1973.13	-0.180234
1974.61	0.378008
1976.09	0.253885
1977.57	0.0449648
1979.04	-0.58911
1980.52	-0.167732
1982	-0.27407
1983.47	-0.0578251
1984.95	0.174702
1986.42	0.644034
1987.9	0.0449209
1989.37	0.0228338
1990.85	-0.303121
1992.32	-0.0357161
1993.8	-0.562057
1995.27	0.619729
1996.75	0.0611448
1998.22	0.178439
1999.69	0.193892
2001.17	-0.0782204
2002.64	0.290312
2004.11	0.0176897
2005.58	0.183782
2007.05	-0.0705528
2008.53	0.2825
2010	0.131289
2011.47	0.418394
2012.94	0.0827446
2014.41	0.0664883
2015.88	0.0325775
2017.35	0.434971
2018.82	0.130042
2020.29	0.160829
2021.76	0.17461
2023.23	-0.046278
2024.7	0.589578
2026.16	0.236679
2027.63	0.0867739
2029.1	0.525563
2030.57	0.596922
2032.03	0.484852
2033.5	0.289349
2034.97	0.412775
2036.44	-0.0520821
2037.9	0.675224
2039.37	0.108308
2040.83	-0.257215
2042.3	0.571294
2043.76	-0.0958452
2045.23	-0.207229
2046.69	0.187149
2048.16	0.582304
2049.62	0.387667
2051.08	0.697543
2052.55	-0.0734673
2054.01	0.198996
2055.47	1.04282
2056.94	0.401145
2058.4	0.129704
2059.86	0.329901
2061.32	0.614562
2062.79	0.63063
2064.25	0.479541
2065.71	0.464257
2067.17	1.10628
2068.63	0.385799
2070.09	0.692345
2071.55	0.359302
2073.01	0.345934
2074.47	0.466982
2075.93	0.722393
2077.39	0.236425
2078.85	0.35626
2080.31	0.475578
2081.76	0.779445
2083.22	0.560622
2084.68	0.526172
2086.13	0.591837
2087.59	0.522223
2089.05	0.83873
2090.51	1.25546
2091.96	1.0169
2093.42	0.426124
2094.87	0.556833
2096.33	0.569522
2097.78	0.4642
2099.24	0.877142
2100.69	0.887696
2102.15	0.948595
2103.6	1.06044
2105.06	1.1069
2106.51	1.1216
2107.96	1.07087
2109.42	1.25404
2110.87	1.06977
2112.32	1.26736
2113.77	0.77994
2115.23	0.973572
2116.68	1.54816
2118.13	1.17529
2119.58	1.38548
2121.03	1.39862
2122.48	1.53019
2123.93	1.43135
2125.38	1.05147
2126.83	1.28484
2128.28	1.66617
2129.73	1.43251
2131.18	1.69435
2132.63	1.57419
2134.08	1.63606
2135.53	1.56651
2136.97	1.79627
2138.42	1.59848
2139.87	1.91533
2141.32	2.10205
2142.76	2.1581
2144.21	2.13232
2145.66	1.82536
2147.1	2.26286
2148.55	2.46802
2150	2.50653
2151.44	1.86446
2152.89	2.48034
2154.33	2.48211
2155.78	2.51641
2157.22	2.41824
2158.66	2.61912
2160.11	2.78855
2161.55	2.36374
2163	2.45487
2164.44	2.81349
2165.88	2.90811
2167.32	2.12226
2168.77	3.01316
2170.21	2.6886
2171.65	2.67718
2173.09	2.3139
2174.53	2.64752
2175.97	2.59774
2177.41	2.44844
2178.85	3.26439
2180.29	2.53538
2181.73	2.20648
2183.17	2.41038
2184.61	2.59809
2186.05	2.46989
2187.49	2.3583
2188.93	2.72935
2190.37	2.98401
2191.81	2.10633
2193.24	2.39304
2194.68	2.46169
2196.12	2.56133
2197.56	2.49199
2198.99	1.95493
2200.43	2.13176
2201.87	1.6938
2203.3	2.20289
2204.74	2.54689
2206.17	2.14603
2207.61	2.17696
2209.04	2.20767
2210.48	1.65811
2211.91	1.90195
2213.35	2.07841
2214.78	1.97362
2216.21	2.10077
2217.65	1.80022
2219.08	1.64987
2220.51	1.30287
2221.95	1.59902
2223.38	1.03747
2224.81	1.08413
2226.24	1.30978
2227.67	0.77686
2229.1	0.88402
2230.54	0.957233
2231.97	0.505628
2233.4	0.939231
2234.83	1.16018
2236.26	0.973594
2237.69	1.0993
2239.11	0.868039
2240.54	0.753425
2241.97	1.14649
2243.4	0.85597
2244.83	0.875782
2246.26	1.00908
2247.69	0.618715
2249.11	1.38365
2250.54	0.483414
2251.97	0.266237
2253.4	0.32496
2254.82	0.708787
2256.25	0.703897
2257.67	0.734061
2259.1	0.621366
2260.53	0.463245
2261.95	1.24917
2263.38	0.26751
2264.8	0.487629
2266.23	0.935286
2267.65	0.666728
2269.07	0.754945
2270.5	0.484171
2271.92	0.37551
2273.34	0.576032
2274.77	0.760438
2276.19	0.831092
2277.61	0.413048
2279.03	0.663256
2280.46	0.636321
2281.88	0.870213
2283.3	0.206804
2284.72	0.0653057
2286.14	0.185122
2287.56	0.387029
2288.98	-0.0474625
2290.4	0.204429
2291.82	0.685683
2293.24	0.104476
2294.66	0.63531
2296.08	0.49541
2297.5	0.650081
2298.92	0.280699
2300.34	0.271758
2301.76	0.0171576
2303.17	0.451637
2304.59	0.410728
2306.01	0.271163
2307.43	0.262546
2308.84	-0.124734
2310.26	0.19416
2311.68	0.183847
2313.09	0.354465
2314.51	0.0812016
2315.92	0.187215
2317.34	0.211786
2318.75	0.253363
2320.17	-0.167048
2321.58	0.566054
2323	0.323847
2324.41	0.211119
2325.82	0.64045
2327.24	0.40793
2328.65	0.619761
2330.06	0.749159
2331.48	0.55012
2332.89	0.385386
2334.3	0.254605
2335.71	0.173531
2337.12	-0.1711
2338.54	0.0424728
2339.95	0.1232
2341.36	-0.257006
2342.77	0.265344
2344.18	-0.197062
2345.59	0.226436
2347	0.64971
2348.41	-0.0897141
2349.82	0.414676
2351.23	-0.0959673
2352.64	-0.0188341
2354.04	0.106115
2355.45	0.425671
2356.86	-0.135108
2358.27	0.850469
2359.68	0.534237
2361.08	0.121397
2362.49	0.325532
2363.9	0.0756197
2365.3	0.327732
2366.71	0.0623169
2368.12	0.00795555
2369.52	-0.432396
2370.93	-0.258176
2372.33	0.142731
2373.74	0.318861
2375.14	0.141164
2376.55	0.188499
2377.95	-0.0547829
2379.36	0.311247
2380.76	-0.0154257
2382.16	-0.0703325
2383.57	0.450494
2384.97	0.265918
2386.37	0.162087
2387.78	0.0594263
2389.18	0.388721
2390.58	0.145278
2391.98	0.0308142
2393.38	-0.0665255
2394.79	0.0438643
2396.19	-0.194851
2397.59	0.0599422
2398.99	-0.368034
2400.39	0.34848
2401.79	-0.3009
2403.19	0.368111
2404.59	0.449015
2405.99	0.211483
2407.39	0.147654
2408.78	0.00372791
2410.18	0.129043
2411.58	0.127689
2412.98	0.459744
2414.38	0.745453
2415.77	0.272831
2417.17	-0.0400066
2418.57	0.0914116
2419.97	0.159938
2421.36	0.069973
2422.76	0.011302
2424.15	0.538547
2425.55	0.0518026
2426.95	0.468834
2428.34	0.680882
2429.74	-0.105018
2431.13	0.457842
2432.52	0.576923
2433.92	-0.0826283
2435.31	0.431788
2436.71	-0.183269
2438.1	0.312196
2439.49	0.313702
2440.89	0.218914
2442.28	0.393452
2443.67	-0.0354605
2445.06	-0.210433
2446.46	0.565855
2447.85	0.517231
2449.24	0.357741
2450.63	0.436126
2452.02	0.340904
2453.41	0.388983
2454.8	0.295582
2456.19	0.013134
2457.58	0.221433
2458.97	0.492819
2460.36	0.336535
2461.75	-0.215825
2463.14	0.464141
2464.53	-0.0419941
2465.92	0.146828
2467.31	-0.106625
2468.69	0.192332
2470.08	-0.0611868
2471.47	-0.346446
2472.86	0.0453281
2474.24	0.136681
2475.63	-0.276177
2477.02	0.159976
2478.4	0.328362
2479.79	0.182791
2481.17	-0.0564566
2482.56	-0.452072
2483.94	0.0917845
2485.33	0.195831
2486.72	-0.138985
2488.1	-0.224509
2489.48	0.125771
2490.87	0.0235872
2492.25	0.543979
2493.64	-0.0381823
2495.02	0.281994
2496.4	0.261949
2497.79	0.072485
2499.17	0.00741768
2500.55	0.22053
2501.93	0.200661
2503.31	-0.0518303
2504.69	0.157985
2506.08	-0.0647631
2507.46	0.343744
2508.84	0.136487
2510.22	-0.039175
2511.6	-0.244514
2512.98	-0.203423
2514.36	0.0375881
2515.74	-0.363715
2517.12	-0.0906582
2518.5	0.473148
2519.88	0.196098
2521.25	0.0107088
2522.63	-0.0225058
2524.01	-0.346353
2525.39	0.335437
2526.77	0.376228
2528.14	-0.0239115
2529.52	0.109837
2530.9	0.366669
2532.27	-0.225786
2533.65	0.0341911
2535.03	0.188555
2536.4	-0.0976887
2537.78	0.481313
2539.15	-0.247037
2540.53	0.253949
2541.9	-0.0654001
2543.28	-0.111178
2544.65	-0.0499067
2546.03	0.103601
2547.4	0.258388
2548.77	0.201722
2550.15	0.661077
2551.52	0.315727
2552.89	0.28805
2554.27	0.0316277
2555.64	0.214306
2557.01	0.426617
2558.38	0.0017786
2559.75	-0.31646
2561.12	0.184414
2562.5	0.140232
2563.87	0.308827
2565.24	0.296031
2566.61	0.041029
2567.98	-0.486702
2569.35	0.167687
2570.72	-0.238844
2572.09	0.203437
2573.46	-0.278825
2574.83	-0.0637197
2576.19	0.121125
2577.56	0.38173
2578.93	0.126578
2580.3	0.219793
2581.67	-0.309112
2583.04	-0.156075
2584.4	-0.215568
2585.77	-0.108376
2587.14	-0.243608
2588.5	0.242742
2589.87	0.244197
2591.23	-0.0727024
2592.6	0.155448
2593.97	-0.162671
2595.33	0.124072
2596.7	0.227847
2598.06	0.118854
2599.43	0.190982
2600.79	0.474651
2602.15	-0.0872011
2603.52	-0.0741949
2604.88	0.0902796
2606.25	0.345358
2607.61	0.283257
2608.97	0.144961
2610.33	0.351972
2611.7	0.135836
2613.06	0.445092
2614.42	-0.0132189
2615.78	0.0993261
2617.15	0.0469484
2618.51	0.384686
2619.87	-0.175194
2621.23	-0.0306549
2622.59	-0.124857
2623.95	-0.0693684
2625.31	0.329214
2626.67	-0.078289
2628.03	0.28931
2629.39	0.387998
2630.75	-0.0642166
2632.1	0.376147
2633.46	0.459235
2634.82	0.0671854
2636.18	-0.205632
2637.54	-0.240939
2638.89	0.404948
2640.25	0.561726
2641.61	0.74811
2642.97	0.077672
2644.32	0.559876
2645.68	0.598742
2647.03	-0.0115299
2648.39	0.306402
2649.75	-0.15707
2651.1	-0.120526
2652.46	0.238686
2653.81	0.0398455
2655.17	0.0180349
2656.52	-0.0904951
2657.88	0.138962
2659.23	0.120408
2660.58	0.0876961
2661.94	-0.00358105
2663.29	0.19675
2664.64	0.483538
2666	0.331504
2667.35	0.456062
2668.7	0.187119
2670.05	0.151676
2671.4	-0.101274
2672.76	0.591242
2674.11	-0.0960035
2675.46	0.19057
2676.81	0.274349
2678.16	0.0831833
2679.51	-0.0780106
2680.86	0.0808706
2682.21	0.211979
2683.56	0.126861
2684.91	0.303804
2686.26	-0.0264587
2687.61	-0.0232315
2688.96	-0.253488
2690.3	0.0516548
2691.65	0.456404
2693	-0.0403099
2694.35	0.317927
2695.7	-0.0635948
2697.04	-0.110955
2698.39	0.0312653
2699.74	0.537145
2701.08	0.103681
2702.43	0.0916958
2703.77	0.0228596
2705.12	0.505415
2706.47	-0.244369
2707.81	0.2383
2709.16	0.401576
2710.5	0.288636
2711.85	-0.0716391
2713.19	0.221598
2714.53	0.616683
2715.88	0.343101
2717.22	0.0401125
2718.57	-0.0887375
2719.91	0.189396
2721.25	0.350722
2722.59	0.133133
2723.94	0.278889
2725.28	0.555178
2726.62	0.641808
2727.96	0.204124
2729.3	0.581183
2730.65	0.230454
2731.99	0.054348
2733.33	0.445693
2734.67	0.284405
2736.01	0.181528
2737.35	0.471491
2738.69	0.412368
2740.03	0.0766869
2741.37	-0.128561
2742.71	-0.276256
2744.05	0.302057
2745.38	0.385364
2746.72	-0.083704
2748.06	0.565095
2749.4	0.0816517
2750.74	0.54152
2752.07	0.160432
2753.41	0.3016
2754.75	0.0806465
2756.09	0.337938
2757.42	-0.128747
2758.76	0.0709696
2760.09	-0.119783
2761.43	0.529341
2762.77	0.310658
2764.1	-0.00893116
2765.44	0.12003
2766.77	0.132768
2768.11	-0.173674
2769.44	-0.206539
2770.77	-0.0385561
2772.11	-0.276575
2773.44	-0.0679951
2774.77	0.4568
2776.11	-0.416613
2777.44	0.222992
2778.77	0.0712032
2780.11	0.121379
2781.44	-0.0292273
2782.77	0.222309
2784.1	-0.171941
2785.43	-0.451046
2786.77	0.315969
2788.1	-0.220073
2789.43	-0.296906
2790.76	0.285153
2792.09	0.181367
2793.42	0.0495529
2794.75	0.0321903
2796.08	0.0716438
2797.41	0.053359
2798.74	0.0773191
2800.07	0.257779
2801.4	0.494841
2802.72	0.0327988
2804.05	0.368999
2805.38	0.0491915
2806.71	0.0707312
2808.04	0.0488901
2809.36	0.0123987
2810.69	0.117979
2812.02	0.266596
2813.34	0.090024
2814.67	-0.226616
2816	-0.371471
2817.32	0.221895
2818.65	-0.0345383
2819.97	0.0775766
2821.3	0.515201
2822.62	0.158429
2823.95	0.325317
2825.27	0.123461
2826.6	0.289925
2827.92	0.272806
2829.25	-0.154243
2830.57	0.0987568
2831.89	0.833261
2833.22	0.520198
2834.54	0.107759
2835.86	0.756304
2837.18	0.724883
2838.51	0.87688
2839.83	0.80229
2841.15	0.954057
2842.47	1.44545
2843.79	1.61236
2845.11	1.92141
2846.43	1.76482
2847.76	1.59454
2849.08	1.65042
2850.4	1.6636
2851.72	2.04371
2853.04	2.22534
2854.36	2.06734
2855.67	2.37541
2856.99	2.41496
2858.31	2.48282
2859.63	2.64952
2860.95	2.73125
2862.27	3.10905
2863.58	3.35922
2864.9	3.29852
2866.22	3.32245
2867.54	3.57233
2868.85	3.69573
2870.17	3.83373
2871.49	3.46447
2872.8	3.63057
2874.12	3.95074
2875.43	4.05817
2876.75	4.27681
2878.07	4.14243
2879.38	4.23283
2880.7	4.28135
2882.01	4.44321
2883.32	4.36752
2884.64	4.29309
2885.95	4.59851
2887.27	4.35657
2888.58	4.57727
2889.89	5.17565
2891.21	4.94523
2892.52	4.54603
2893.83	4.91747
2895.14	4.82694
2896.46	4.77951
2897.77	5.55905
2899.08	5.22032
2900.39	5.51228
2901.7	5.44113
2903.01	5.706
2904.32	5.66333
2905.63	6.27843
2906.94	6.12498
2908.25	6.37826
2909.56	6.15704
2910.87	6.59426
2912.18	7.32567
2913.49	7.35637
2914.8	7.67922
2916.11	7.52374
2917.42	7.35218
2918.72	7.24931
2920.03	7.94349
2921.34	8.21866
2922.65	8.20186
2923.95	8.91387
2925.26	8.70496
2926.57	8.5389
2927.88	8.84825
2929.18	9.24103
2930.49	8.8222
2931.79	9.32539
2933.1	9.12925
2934.4	9.31049
2935.71	8.96082
2937.01	8.9748
2938.32	8.52793
2939.62	8.72428
2940.93	8.69778
2942.23	8.2812
2943.54	8.25754
2944.84	8.16587
2946.14	7.18075
2947.45	7.32901
2948.75	6.69335
2950.05	7.04992
2951.35	6.10213
2952.66	6.74817
2953.96	6.04823
2955.26	6.10392
2956.56	6.37061
2957.86	6.49993
2959.16	6.2408
2960.46	5.43876
2961.77	5.61965
2963.07	5.40908
2964.37	4.7203
2965.66	5.11065
2966.96	4.97944
2968.26	5.07145
2969.56	4.27668
2970.86	4.57849
2972.16	4.44471
2973.46	4.12839
2974.76	4.36095
2976.06	4.17055
2977.35	4.04904
2978.65	3.81289
2979.95	3.25101
2981.25	3.32118
2982.54	2.98276
2983.84	3.31986
2985.14	3.13801
2986.43	3.09858
2987.73	2.83614
2989.02	2.94031
2990.32	2.63735
2991.62	1.78576
2992.91	2.25417
2994.21	1.83588
2995.5	2.30149
2996.8	1.2777
2998.09	1.6299
2999.38	1.19658
3000.68	1.67566
3001.97	1.25804
3003.26	1.59791
3004.56	0.803093
3005.85	1.22692
3007.14	1.29988
3008.43	0.784278
3009.73	0.366248
3011.02	0.660666
3012.31	0.786705
3013.6	0.689386
3014.89	0.536965
3016.19	0.524898
3017.48	0.70865
3018.77	0.350175
3020.06	0.618114
3021.35	0.17652
3022.64	0.220845
3023.93	0.167013
3025.22	0.0293713
3026.5	-0.274377
3027.79	0.267084
3029.08	0.117542
3030.37	0.273849
3031.66	-0.162186
3032.95	-0.0720444
3034.24	0.197897
3035.52	0.10855
3036.81	-0.4645
3038.1	0.09128
3039.39	0.0524063
3040.67	-0.221578
3041.96	0.341585
3043.25	0.36864
3044.53	-0.191987
3045.82	-0.0795174
3047.1	0.144352
3048.39	0.111062
3049.67	0.325827
3050.96	0.146599
3052.24	0.227666
3053.53	0.186098
3054.81	-0.0742569
3056.1	0.714703
3057.38	0.220572
3058.67	0.216702
3059.95	0.158176
3061.23	-0.13113
3062.52	0.288237
3063.8	0.532061
3065.08	0.655201
3066.36	0.426531
3067.65	0.199065
3068.93	-0.12311
3070.21	0.329761
3071.49	-0.0748987
3072.77	0.308152
3074.05	0.390783
3075.33	0.282233
3076.61	0.22788
3077.89	0.187696
3079.17	0.0809441
3080.45	0.165843
3081.73	-0.00522232
3083.01	-0.0934906
3084.29	0.239721
3085.57	-0.173136
3086.85	-0.233488
3088.13	-0.0500546
3089.41	0.268537
3090.68	-0.0510526
3091.96	0.158587
3093.24	-0.119844
3094.52	0.00913429
3095.79	0.355457
3097.07	0.390134
3098.35	0.194494
3099.62	0.568082
3100.9	0.331968
3102.18	0.800416
3103.45	0.497363
3104.73	0.750126
3106	0.651878
3107.28	0.446543
3108.55	0.296587
3109.83	0.581014
3111.1	0.271032
3112.38	0.151438
3113.65	0.76411
3114.93	0.672537
3116.2	0.594162
3117.47	0.704934
3118.75	0.34003
3120.02	0.665921
3121.29	0.638394
3122.57	0.515603
3123.84	0.25745
3125.11	0.582134
3126.38	0.379334
3127.65	0.556324
3128.92	0.760998
3130.2	0.682207
3131.47	1.04983
3132.74	1.40381
3134.01	0.460701
3135.28	0.787176
3136.55	0.78911
3137.82	0.831236
3139.09	0.846223
3140.36	1.03623
3141.63	1.14549
3142.9	1.24172
3144.17	1.11031
3145.43	1.02021
3146.7	1.27979
3147.97	1.28543
3149.24	1.35884
