200.554	0.895523
202.369	0.933821
204.183	0.972942
205.999	0.454672
207.813	-0.208529
209.626	0.367092
211.439	1.23136
213.253	0.829857
215.065	0.402405
216.877	0.386486
218.688	-0.379982
220.5	1.03406
222.312	0.56168
224.123	0.115772
225.933	0.468866
227.742	-0.241089
229.552	-0.806349
231.361	0.0758953
233.171	0.233097
234.98	-0.067234
236.787	0.261974
238.595	-0.248272
240.402	0.282942
242.209	-0.531439
244.015	1.16495
245.822	-0.0577679
247.627	-0.512075
249.435	-0.392324
251.24	0.590376
253.045	0.577492
254.849	0.537025
256.653	0.0860081
258.457	0.167309
260.26	-0.109467
262.063	-0.62323
263.866	0.624844
265.668	-0.365557
267.47	0.741013
269.271	0.184038
271.073	-0.278381
272.873	-0.261013
274.674	0.81435
276.474	0.415638
278.274	0.18202
280.073	0.0649471
281.872	0.810322
283.671	1.04569
285.47	0.0524349
287.268	0.0195923
289.065	0.514305
290.863	0.530561
292.66	0.525541
294.456	-0.00251198
296.253	0.740047
298.049	1.07786
299.844	0.699694
301.637	0.2735
303.432	0.41885
305.227	0.728554
307.021	-0.0849247
308.815	0.53228
310.609	0.03022
312.402	0.531282
314.195	0.273476
315.987	0.971912
317.777	1.34073
319.569	-0.00232506
321.36	-0.104767
323.151	-0.253517
324.942	0.576731
326.733	1.0739
328.521	0.567591
330.31	1.23073
332.1	1.03096
333.889	0.923077
335.677	0.332056
337.464	1.48306
339.252	0.308779
341.039	0.136452
342.826	1.1339
344.611	0.672918
346.398	0.237244
348.184	0.352411
349.97	0.922064
351.754	0.679943
353.539	0.293558
355.324	0.787769
357.106	1.15957
358.89	0.527361
360.674	0.607935
362.455	0.139162
364.239	0.263966
366.021	0.101988
367.804	0.555742
369.584	0.864527
371.366	-0.771288
373.145	0.883503
374.926	0.690557
376.707	0.545393
378.485	-1.10741
380.265	0.401329
382.045	0.662308
383.822	0.125839
385.601	-0.501417
387.378	0.61307
389.156	0.906889
390.934	-0.652826
392.71	-0.120514
394.487	-0.24461
396.262	0.477409
398.038	0.377655
399.813	-0.00438881
401.588	0.199833
403.362	0.872461
405.137	0.533571
406.912	0.0992794
408.685	0.673422
410.459	-0.0208607
412.23	0.223921
414.004	0.586813
415.775	0.270638
417.548	0.261137
419.318	-0.193003
421.089	0.620605
422.86	0.283663
424.63	0.485106
426.401	1.01334
428.17	0.319075
429.94	0.0464706
431.708	0.102448
433.478	-0.216448
435.245	-0.253052
437.012	0.250042
438.781	0.681231
440.547	-0.415956
442.315	0.125341
444.081	-0.369701
445.846	-0.422674
447.613	-0.267286
449.378	0.307821
451.142	0.134523
452.908	0.639088
454.672	0.373579
456.435	0.458002
458.2	0.169374
459.963	0.625977
461.725	0.478798
463.489	-0.0368137
465.251	0.242792
467.012	0.0401478
468.775	-0.343182
470.536	0.416292
472.296	0.782148
474.056	1.17007
475.817	0.483179
477.576	0.327274
479.335	0.44717
481.094	0.58839
482.854	0.357328
484.612	0.664413
486.37	-0.515446
488.127	0.265867
489.886	0.842325
491.642	0.394651
493.398	0.835419
495.154	-0.266203
496.91	0.994314
498.667	0.241468
500.422	0.377478
502.176	1.14612
503.93	0.739611
505.684	1.08227
507.438	0.528795
509.191	0.183388
510.946	1.05809
512.698	0.541351
514.45	0.915659
516.202	1.61634
517.954	0.879536
519.705	0.0236683
521.456	0.764746
523.206	1.12836
524.956	0.0594673
526.706	1.29055
528.456	1.39499
530.207	0.655443
531.956	0.899494
533.704	0.907475
535.452	0.375023
537.2	1.17254
538.947	0.0746593
540.694	0.469131
542.441	0.884359
544.188	0.157949
545.934	0.850546
547.68	1.21697
549.425	1.39763
551.17	1.06896
552.915	0.463842
554.659	1.2005
556.403	1.12839
558.145	0.665281
559.889	1.47115
561.632	0.435373
563.375	0.897505
565.117	-0.0188541
566.859	1.31836
568.601	0.796236
570.342	0.804676
572.083	0.219582
573.824	0.463915
575.565	0.643124
577.303	1.19305
579.043	0.919735
580.782	0.624802
582.521	0.49061
584.26	1.13682
585.998	-0.173531
587.734	0.445175
589.472	-0.134747
591.21	0.226725
592.947	1.53049
594.684	0.878304
596.418	-0.0728226
598.154	0.517441
599.89	-0.204418
601.626	0.475328
603.361	0.853216
605.094	0.584122
606.828	0.335541
608.562	0.453032
610.296	0.0882206
612.027	0.619419
613.761	-0.682388
615.493	0.172523
617.224	0.75222
618.956	0.757818
620.688	0.0744343
622.419	-0.564939
624.149	0.509319
625.879	0.25725
627.61	0.624187
629.338	0.766779
631.068	0.480745
632.797	0.564077
634.525	0.581104
636.254	-0.110291
637.98	-0.325951
639.708	0.0919971
641.436	0.412321
643.162	0.522156
644.889	-0.32691
646.614	-0.0363159
648.34	0.507755
650.067	0.98971
651.791	-0.40624
653.516	0.705437
655.239	0.323923
656.964	-0.304104
658.687	0.550102
660.411	0.241386
662.133	-0.00268936
663.857	0.0910149
665.58	0.774363
667.301	-0.443827
669.024	0.486071
670.744	-0.251938
672.464	-0.322845
674.186	0.618679
675.905	-0.176052
677.626	-0.32737
679.345	0.302164
681.065	-0.379553
682.783	0.0614185
684.503	0.475693
686.22	-0.149971
687.939	0.533783
689.656	-0.0282917
691.372	0.375603
693.09	0.432697
694.806	0.327038
696.523	-0.241156
698.239	1.09926
699.953	0.089077
701.67	-0.163534
703.384	-0.394682
705.098	1.07261
706.813	0.838451
708.526	0.48918
710.239	0.758318
711.954	-0.393064
713.666	0.858526
715.378	0.279413
717.091	0.52313
718.802	1.24567
720.513	0.827799
722.226	0.297104
723.936	0.518248
725.646	0.170485
727.355	0.140715
729.067	0.405123
730.776	0.192129
732.484	0.499704
734.192	0.308575
735.902	0.479557
737.61	0.380064
739.317	-0.575087
741.024	0.186363
742.731	-0.424952
744.439	-0.312506
746.145	0.0951195
747.851	0.167751
749.556	0.87278
751.262	-0.129072
752.966	1.12093
754.673	0.439283
756.377	0.908035
758.081	1.20017
759.784	1.36042
761.487	0.463453
763.19	0.716946
764.892	1.42187
766.594	0.860096
768.296	1.76344
770	0.763586
771.701	1.79466
773.402	1.28531
775.102	1.54396
776.803	1.98465
778.503	0.686987
780.202	0.861998
781.901	1.6275
783.6	1.35267
785.299	1.7092
786.997	0.974419
788.695	0.935205
790.393	1.18368
792.09	1.49434
793.787	1.16916
795.484	0.979502
797.18	0.54417
798.877	0.563175
800.572	1.44093
802.268	1.91565
803.963	0.772139
805.658	0.798141
807.35	1.564
809.044	1.38354
810.738	1.71713
812.432	1.17391
814.125	1.86271
815.818	1.34109
817.51	2.07282
819.202	1.66375
820.894	1.41204
822.584	1.63012
824.275	1.11376
825.966	1.51453
827.657	2.34244
829.347	1.81717
831.037	1.58766
832.725	1.92072
834.414	1.23289
836.103	0.903105
837.792	0.817978
839.481	0.998436
841.167	1.98011
842.854	1.08295
844.542	1.50299
846.229	1.74589
847.914	1.29944
849.6	1.39445
851.287	1.51698
852.973	1.62116
854.656	1.09903
856.341	2.23773
858.026	2.2521
859.711	1.74546
861.393	1.84237
863.077	1.3053
864.761	1.84701
866.442	0.718994
868.125	0.671515
869.808	1.34488
871.489	0.980232
873.171	1.06632
874.85	0.385145
876.532	1.14812
878.213	0.624855
879.892	1.25249
881.572	1.04423
883.251	0.65391
884.931	1.07409
886.61	0.904562
888.287	1.95031
889.966	0.533941
891.643	1.57268
893.321	1.39124
894.997	0.780256
896.675	0.775141
898.352	1.75607
900.028	1.29749
901.704	1.03995
903.379	0.647751
905.055	0.79248
906.729	1.33916
908.404	0.325348
910.077	0.228626
911.75	1.46858
913.425	1.41849
915.097	0.436752
916.771	1.18711
918.443	1.89165
920.116	1.66523
921.787	1.08656
923.46	1.46165
925.13	1.64083
926.8	1.42626
928.472	1.74505
930.141	0.124374
931.813	1.41795
933.481	1.45428
935.15	1.1822
936.82	1.13165
938.488	0.708
940.156	0.904388
941.825	0.94887
943.492	1.17135
945.158	0.621073
946.827	1.21613
948.493	0.946604
950.158	1.15883
951.824	0.772879
953.491	1.11523
955.156	0.292084
956.82	0.0479107
958.486	0.229139
960.15	1.12235
961.814	0.915329
963.477	1.12763
965.142	1.71265
966.804	-0.428841
968.467	0.808821
970.129	0.537865
971.79	0.420219
973.454	1.18824
975.115	0.742939
976.776	0.588823
978.436	1.45527
980.096	0.674915
981.756	-0.106754
983.417	0.669312
985.077	2.06133
986.736	1.94356
988.394	1.64509
990.052	1.05686
991.71	1.41825
993.368	0.696705
995.025	1.25649
996.682	0.690784
998.341	2.35253
999.998	2.75583
1001.65	2.84948
1003.31	2.58996
1004.97	0.922758
1006.62	1.14751
1008.28	0.976986
1009.93	1.22433
1011.58	0.353899
1013.24	0.86619
1014.89	0.524485
1016.54	1.12532
1018.2	0.413847
1019.85	0.426426
1021.5	1.73105
1023.16	1.0701
1024.81	1.19816
1026.46	1.93923
1028.11	1.52212
1029.76	0.797911
1031.41	1.40371
1033.06	2.02753
1034.71	1.83995
1036.36	1.93312
1038.01	1.91554
1039.66	2.61617
1041.31	2.64303
1042.95	2.78149
1044.6	3.01065
1046.25	2.83137
1047.9	1.87456
1049.54	1.74665
1051.19	2.03408
1052.84	2.49714
1054.48	2.35276
1056.13	1.25194
1057.77	2.19353
1059.42	2.02552
1061.06	1.13851
1062.71	0.728174
1064.35	1.72926
1066	1.27134
1067.64	0.289757
1069.28	1.65318
1070.93	1.32035
1072.57	1.2915
1074.21	1.37225
1075.85	0.652607
1077.49	1.15051
1079.13	1.13045
1080.78	1.52394
1082.42	1.35353
1084.06	0.986084
1085.7	0.962202
1087.34	1.3241
1088.97	0.425444
1090.61	1.53662
1092.25	0.957457
1093.89	0.918274
1095.53	0.858036
1097.17	0.627251
1098.8	0.356594
1100.44	0.994001
1102.08	1.54871
1103.71	1.05271
1105.35	0.15093
1106.99	1.61627
1108.62	0.499994
1110.26	0.757843
1111.89	0.453497
1113.52	0.318008
1115.16	1.0818
1116.79	0.96389
1118.43	1.21086
1120.06	1.45901
1121.69	0.231596
1123.32	1.14777
1124.96	0.696033
1126.59	0.631372
1128.22	1.1885
1129.85	1.53311
1131.48	0.403715
1133.11	0.579107
1134.75	1.05343
1136.37	1.07745
1138	1.33428
1139.63	0.54183
1141.26	1.39188
1142.89	1.66394
1144.52	0.357885
1146.15	0.78125
1147.78	-0.0297203
1149.4	0.141556
1151.03	0.697086
1152.66	0.421837
1154.28	1.10401
1155.91	0.188787
1157.54	-0.619688
1159.16	0.529852
1160.79	0.0645008
1162.41	0.558352
1164.04	0.735256
1165.66	0.381615
1167.29	0.452599
1168.91	0.0961571
1170.53	-0.157303
1172.16	-0.244469
1173.78	-0.335014
1175.4	0.251053
1177.02	-0.288233
1178.65	0.0210342
1180.27	0.881607
1181.89	-0.0762444
1183.51	0.300226
1185.13	0.232552
1186.75	0.543047
1188.37	0.111307
1189.99	0.856665
1191.61	-0.0244637
1193.23	0.439138
1194.85	0.71092
1196.47	1.17079
1198.08	1.08711
1199.7	0.149967
1201.32	0.473106
1202.94	1.15611
1204.55	1.25941
1206.17	1.13758
1207.79	1.18536
1209.4	0.879005
1211.02	1.30092
1212.63	0.509789
1214.25	0.923388
1215.86	0.561489
1217.48	1.11185
1219.09	0.890274
1220.71	1.14641
1222.32	1.67311
1223.93	2.1601
1225.54	0.951847
1227.16	1.19674
1228.77	0.906515
1230.38	1.46679
1231.99	1.11974
1233.6	1.76737
1235.22	1.83883
1236.83	1.72681
1238.44	1.18272
1240.05	1.90113
1241.66	2.33068
1243.26	1.51831
1244.87	1.88348
1246.48	2.57766
1248.09	1.55223
1249.7	2.09785
1251.31	2.22898
1252.92	2.38128
1254.52	1.91462
1256.13	2.36037
1257.74	1.96062
1259.34	2.12184
1260.95	2.6783
1262.55	1.8901
1264.16	2.59285
1265.76	2.34192
1267.37	2.66969
1268.97	3.14068
1270.58	2.11665
1272.18	2.50024
1273.78	2.81937
1275.39	2.47299
1276.99	3.30593
1278.59	3.45297
1280.2	3.28796
1281.8	2.58437
1283.4	3.95036
1285	3.41403
1286.6	3.68628
1288.2	4.16739
1289.8	3.76176
1291.4	4.01852
1293	3.48984
1294.6	3.3521
1296.2	3.68654
1297.8	4.57451
1299.4	4.15804
1301	3.96549
1302.6	4.24423
1304.19	3.6972
1305.79	2.94407
1307.39	3.11551
1308.99	3.65523
1310.58	3.04627
1312.18	3.50393
1313.77	3.00116
1315.37	3.6457
1316.96	3.71955
1318.56	3.99849
1320.15	4.58244
1321.75	3.88008
1323.34	3.58255
1324.94	3.26149
1326.53	3.08035
1328.12	3.32427
1329.72	3.95354
1331.31	4.38267
1332.9	3.54313
1334.49	3.53762
1336.08	3.53559
1337.67	2.70775
1339.27	2.64526
1340.86	3.34462
1342.45	3.13268
1344.04	3.37925
1345.63	2.81999
1347.22	2.66357
1348.8	3.03189
1350.39	2.28408
1351.98	2.98263
1353.57	3.38492
1355.16	2.55049
1356.75	3.11592
1358.33	3.22062
1359.92	2.7441
1361.51	3.36344
1363.09	3.32208
1364.68	2.48266
1366.27	3.05934
1367.85	2.60165
1369.44	2.44554
1371.02	3.18801
1372.61	2.2418
1374.19	2.63116
1375.77	3.12139
1377.36	2.65662
1378.94	4.00149
1380.52	2.49868
1382.11	3.40055
1383.69	2.7878
1385.27	2.94862
1386.85	3.10836
1388.43	3.70516
1390.02	2.51651
1391.6	3.21566
1393.18	3.95575
1394.76	3.01044
1396.34	3.41345
1397.92	3.21996
1399.5	2.07335
1401.08	2.51016
1402.65	2.56925
1404.23	2.70738
1405.81	3.77581
1407.39	3.63951
1408.97	3.80153
1410.54	3.76699
1412.12	3.45587
1413.7	3.10413
1415.27	4.42776
1416.85	4.2495
1418.43	4.22828
1420	3.91241
1421.58	4.52468
1423.15	3.89998
1424.73	4.91276
1426.3	4.46961
1427.87	5.79258
1429.45	6.30658
1431.02	5.71787
1432.6	6.48189
1434.17	5.503
1435.74	5.40867
1437.31	6.57318
1438.89	6.40228
1440.46	6.43037
1442.03	5.98905
1443.6	6.17827
1445.17	5.73944
1446.74	6.34271
1448.31	5.66871
1449.88	5.50639
1451.45	5.24678
1453.02	5.36193
1454.59	6.34348
1456.16	5.06256
1457.72	5.55075
1459.29	5.38659
1460.86	5.43489
1462.43	4.23947
1463.99	4.39818
1465.56	4.7902
1467.13	4.78818
1468.69	3.68759
1470.26	4.3169
1471.83	4.24199
1473.39	3.44378
1474.95	2.94165
1476.52	3.77376
1478.08	2.58662
1479.65	2.67373
1481.21	2.87819
1482.78	3.19997
1484.34	3.12946
1485.9	2.58799
1487.47	3.37684
1489.03	2.67439
1490.59	2.75129
1492.15	1.6309
1493.71	2.38303
1495.27	2.21299
1496.84	2.37236
1498.39	2.23904
1499.96	1.79629
1501.52	1.82265
1503.07	2.02588
1504.64	1.31989
1506.19	1.93188
1507.75	2.17396
1509.31	2.16223
1510.87	1.4535
1512.43	2.7103
1513.98	1.71145
1515.54	1.84956
1517.1	1.93097
1518.65	1.66864
1520.21	1.81032
1521.77	2.00946
1523.32	1.86339
1524.88	2.13596
1526.44	1.62404
1527.99	1.37817
1529.54	1.7973
1531.1	1.91149
1532.65	1.96956
1534.21	2.14291
1535.76	1.71278
1537.31	1.62557
1538.87	1.42668
1540.42	2.1528
1541.97	1.44604
1543.52	2.03893
1545.07	1.72781
1546.63	2.52493
1548.18	2.02552
1549.73	1.5458
1551.28	2.22828
1552.83	2.08746
1554.38	2.36001
1555.93	2.42958
1557.48	3.324
1559.03	2.52389
1560.57	2.25046
1562.12	1.84974
1563.67	3.03694
1565.22	2.77015
1566.77	2.93265
1568.31	3.05735
1569.86	1.83727
1571.41	2.76293
1572.95	3.07202
1574.5	2.89547
1576.05	2.81231
1577.59	3.02825
1579.14	1.9942
1580.68	2.58565
1582.23	3.40301
1583.77	2.78403
1585.31	3.10057
1586.86	3.53054
1588.4	3.38124
1589.95	3.69912
1591.49	3.15518
1593.03	3.86445
1594.57	3.56209
1596.11	4.14025
1597.66	3.68883
1599.2	4.19475
1600.74	4.59006
1602.28	4.0295
1603.82	4.89542
1605.36	4.40789
1606.9	4.29278
1608.44	4.1545
1609.98	4.85693
1611.52	3.41204
1613.06	4.36791
1614.6	4.92581
1616.13	4.35681
1617.67	3.6584
1619.21	4.25593
1620.75	3.93856
1622.28	3.09999
1623.82	3.21811
1625.36	3.29873
1626.89	3.3402
1628.43	3.69692
1629.96	3.62032
1631.5	4.49471
1633.04	4.30264
1634.57	4.2235
1636.11	3.82903
1637.64	4.1642
1639.17	3.82924
1640.71	3.51315
1642.24	4.05285
1643.77	3.88211
1645.31	4.69518
1646.84	4.16639
1648.37	4.6039
1649.9	4.299
1651.43	4.34919
1652.96	4.45766
1654.5	4.17907
1656.03	3.75369
1657.56	4.23624
1659.09	3.47578
1660.62	3.7314
1662.15	3.78015
1663.67	3.69707
1665.2	2.57869
1666.73	3.73275
1668.26	3.55964
1669.79	3.2424
1671.32	3.09431
1672.84	3.09588
1674.37	3.37455
1675.9	3.26588
1677.43	3.63405
1678.95	2.69353
1680.48	3.02038
1682	2.27962
1683.53	1.92475
1685.05	2.39623
1686.58	2.61107
1688.1	1.25038
1689.63	1.83361
1691.15	2.21529
1692.68	1.55362
1694.2	2.46545
1695.72	1.71238
1697.25	1.83658
1698.77	1.52168
1700.29	1.44352
1701.81	1.14556
1703.33	1.70338
1704.86	1.34877
1706.38	1.17577
1707.9	1.00248
1709.42	0.774849
1710.94	0.874399
1712.46	-0.041275
1713.98	1.29131
1715.5	1.33657
1717.02	0.441078
1718.54	1.4624
1720.06	1.16371
1721.57	1.04627
1723.09	0.605625
1724.61	0.56386
1726.13	0.92079
1727.64	0.631964
1729.16	1.02895
1730.68	0.692232
1732.19	0.983358
1733.71	0.817795
1735.23	0.937672
1736.74	0.237406
1738.26	0.946634
1739.77	0.336842
1741.29	0.103884
1742.8	0.591522
1744.31	0.745419
1745.83	0.679304
1747.34	0.228062
1748.85	0.260275
1750.37	0.843727
1751.88	0.724644
1753.39	0.204285
1754.91	0.401846
1756.42	0.518106
1757.93	1.23222
1759.44	0.397551
1760.95	0.2668
1762.46	0.426575
1763.97	0.426098
1765.48	0.376966
1766.99	0.640827
1768.5	0.528265
1770.01	0.208696
1771.52	0.70582
1773.03	0.346415
1774.54	0.577442
1776.04	0.0381775
1777.55	0.437513
1779.06	0.20611
1780.57	0.578117
1782.07	0.454235
1783.58	0.540676
1785.09	0.0738907
1786.59	-0.134891
1788.1	0.530569
1789.6	0.423138
1791.11	0.257999
1792.61	0.107367
1794.12	0.0828753
1795.62	0.186265
1797.13	0.272994
1798.63	0.317931
1800.13	0.395526
1801.64	-0.0961361
1803.14	0.439363
1804.64	0.0793324
1806.15	-0.0916147
1807.65	0.236243
1809.15	-0.049531
1810.65	0.113124
1812.15	-0.197331
1813.65	-0.0609694
1815.16	0.136045
1816.66	-0.103301
1818.15	0.417249
1819.66	0.804158
1821.16	0.642106
1822.65	0.221858
1824.15	-0.0549583
1825.65	0.37854
1827.15	0.1304
1828.65	-0.102327
1830.15	0.120085
1831.64	0.27718
1833.14	0.258835
1834.64	0.377212
1836.14	0.152254
1837.63	0.0792189
1839.13	0.090251
1840.62	0.48216
1842.12	0.116555
1843.62	0.140808
1845.11	0.187905
1846.61	-0.157043
1848.1	-0.164575
1849.6	-0.461096
1851.09	0.147114
1852.58	0.300231
1854.08	-0.245237
1855.57	0.0284557
1857.06	-0.321701
1858.55	0.0466185
1860.05	0.147723
1861.54	-0.0611591
1863.03	0.269221
1864.52	-0.210901
1866.01	0.316364
1867.5	0.33086
1869	0.0665417
1870.49	0.570069
1871.98	0.216368
1873.47	-0.276236
1874.96	0.297386
1876.44	0.65402
1877.93	-0.0610752
1879.42	0.172915
1880.91	0.0451374
1882.4	0.634091
1882.47	0.664234
1883.96	1.01213
1885.46	-0.314481
1886.95	-0.213077
1888.44	-0.130038
1889.94	0.318524
1891.43	0.333447
1892.93	0.750861
1894.42	0.197626
1895.91	0.272866
1897.4	0.19303
1898.89	-0.165279
1900.39	0.327162
1901.88	-0.435517
1903.37	0.625335
1904.86	-0.0553694
1906.35	0.236217
1907.84	0.232185
1909.33	0.263827
1910.82	0.279608
1912.31	-0.258233
1913.8	0.0375719
1915.29	0.0906715
1916.77	0.160563
1918.26	0.333533
1919.75	0.211086
1921.24	-0.327171
1922.73	-0.0333252
1924.21	-0.136436
1925.7	-0.358904
1927.19	0.0608702
1928.67	0.239388
1930.16	0.192821
1931.64	0.370104
1933.13	0.475759
1934.61	0.249557
1936.1	0.626324
1937.58	0.637527
1939.07	0.129528
1940.55	0.34786
1942.04	0.705359
1943.52	0.495009
1945	0.389745
1946.49	0.354156
1947.97	0.128675
1949.45	-0.356224
1950.93	0.500757
1952.42	0.322783
1953.9	0.831894
1955.38	-0.0689507
1956.86	0.285612
1958.34	0.417726
1959.82	0.379366
1961.3	0.307658
1962.78	-0.0550251
1964.26	0.164839
1965.74	0.383706
1967.22	0.190446
1968.7	-0.32866
1970.18	0.109186
1971.65	-0.717996
1973.13	0.162742
1974.61	0.0701532
1976.09	0.608613
1977.57	-0.198964
1979.04	0.798975
1980.52	0.213595
1982	-0.0143051
1983.47	0.454096
1984.95	-0.249941
1986.42	0.267856
1987.9	0.428897
1989.37	-0.137989
1990.85	0.17697
1992.32	0.137851
1993.8	-0.0855722
1995.27	-0.104705
1996.75	0.197877
1998.22	-0.276638
1999.69	0.126402
2001.17	0.0556421
2002.64	-0.066452
2004.11	0.114779
2005.58	0.0604305
2007.05	0.529445
2008.53	0.864982
2010	-0.0440111
2011.47	-0.00918007
2012.94	0.210896
2014.41	0.581712
2015.88	0.564157
2017.35	0.141476
2018.82	0.894558
2020.29	-0.219085
2021.76	0.397902
2023.23	0.209074
2024.7	0.692801
2026.16	-0.180555
2027.63	0.743285
2029.1	0.52899
2030.57	0.451063
2032.03	0.458605
2033.5	0.0976648
2034.97	0.475368
2036.44	0.214381
2037.9	0.204432
2039.37	0.748457
2040.83	0.368028
2042.3	0.626964
2043.76	0.618134
2045.23	0.863199
2046.69	0.0827847
2048.16	-0.158902
2049.62	0.289688
2051.08	0.787673
2052.55	0.271586
2054.01	0.629423
2055.47	1.0012
2056.94	-0.163566
2058.4	0.204618
2059.86	0.302703
2061.32	0.165608
2062.79	0.551702
2064.25	0.871938
2065.71	1.05915
2067.17	1.09633
2068.63	0.461304
2070.09	0.769321
2071.55	0.0337391
2073.01	1.26774
2074.47	1.18811
2075.93	0.299588
2077.39	0.235588
2078.85	0.255158
2080.31	0.627615
2081.76	0.544505
2083.22	0.948501
2084.68	1.09864
2086.13	0.456812
2087.59	0.672023
2089.05	1.0712
2090.51	0.478582
2091.96	1.2967
2093.42	1.00636
2094.87	0.950687
2096.33	0.894283
2097.78	0.803355
2099.24	0.627829
2100.69	1.03733
2102.15	1.21258
2103.6	1.37223
2105.06	1.30022
2106.51	0.963705
2107.96	0.862708
2109.42	0.829081
2110.87	0.928006
2112.32	0.974736
2113.77	1.5182
2115.23	1.55893
2116.68	1.86399
2118.13	1.0561
2119.58	0.749579
2121.03	1.17649
2122.48	1.19166
2123.93	1.37512
2125.38	1.94106
2126.83	0.865129
2128.28	1.82683
2129.73	2.13939
2131.18	1.93596
2132.63	1.63202
2134.08	2.35399
2135.53	1.22463
2136.97	1.99943
2138.42	1.96721
2139.87	2.15311
2141.32	2.16008
2142.76	2.45025
2144.21	2.60949
2145.66	1.97473
2147.1	2.24959
2148.55	2.5567
2150	1.96789
2151.44	2.12276
2152.89	2.62392
2154.33	2.34489
2155.78	2.49581
2157.22	3.37566
2158.66	2.94805
2160.11	2.22453
2161.55	2.59738
2163	2.82453
2164.44	2.93852
2165.88	2.92142
2167.32	2.88758
2168.77	3.26753
2170.21	2.71334
2171.65	3.05341
2173.09	3.29026
2174.53	2.5099
2175.97	2.72654
2177.41	2.67737
2178.85	2.28036
2180.29	2.99897
2181.73	2.97099
2183.17	2.16248
2184.61	2.86776
2186.05	2.92466
2187.49	1.85015
2188.93	2.68918
2190.37	2.87933
2191.81	2.12013
2193.24	2.54167
2194.68	3.02757
2196.12	2.0287
2197.56	2.85733
2198.99	2.33515
2200.43	2.89184
2201.87	1.57126
2203.3	2.59296
2204.74	1.74156
2206.17	1.37342
2207.61	1.55322
2209.04	1.89822
2210.48	2.1423
2211.91	1.88818
2213.35	2.07938
2214.78	1.85711
2216.21	1.20693
2217.65	0.724313
2219.08	1.10165
2220.51	1.67796
2221.95	1.89161
2223.38	1.2308
2224.81	1.88568
2226.24	1.12173
2227.67	1.04678
2229.1	1.70893
2230.54	1.85973
2231.97	1.63289
2233.4	1.37425
2234.83	0.659532
2236.26	1.07529
2237.69	0.660335
2239.11	1.19525
2240.54	1.0153
2241.97	0.9036
2243.4	1.57685
2244.83	1.04379
2246.26	0.786992
2247.69	1.68567
2249.11	0.477279
2250.54	0.684
2251.97	1.09919
2253.4	1.33332
2254.82	0.690061
2256.25	0.374813
2257.67	0.631516
2259.1	0.860091
2260.53	0.703952
2261.95	0.811365
2263.38	0.775343
2264.8	0.414824
2266.23	0.476123
2267.65	0.519986
2269.07	0.253234
2270.5	0.685029
2271.92	0.595177
2273.34	-0.065033
2274.77	0.203109
2276.19	0.406496
2277.61	0.056139
2279.03	0.879478
2280.46	0.741065
2281.88	0.0804567
2283.3	0.83874
2284.72	0.275641
2286.14	0.479759
2287.56	0.798853
2288.98	0.726857
2290.4	0.0835705
2291.82	0.322914
2293.24	0.562665
2294.66	0.737153
2296.08	0.715238
2297.5	-0.0109282
2298.92	0.622081
2300.34	0.305335
2301.76	0.44787
2303.17	0.377706
2304.59	0.636014
2306.01	0.0733328
2307.43	0.462564
2308.84	0.0622759
2310.26	-0.141901
2311.68	0.837478
2313.09	-0.124183
2314.51	-0.0160189
2315.92	0.570849
2317.34	0.368708
2318.75	-0.0966759
2320.17	-0.16705
2321.58	0.1569
2323	0.461696
2324.41	0.284303
2325.82	0.895363
2327.24	0.645674
2328.65	0.889387
2330.06	-0.00346184
2331.48	0.0772762
2332.89	-0.10368
2334.3	0.144596
2335.71	-0.380004
2337.12	0.0489054
2338.54	-0.214418
2339.95	-0.265619
2341.36	-0.186833
2342.77	1.08906
2344.18	-0.310047
2345.59	0.669544
2347	0.469047
2348.41	0.0396881
2349.82	0.313725
2351.23	0.177521
2352.64	0.350335
2354.04	-0.0823956
2355.45	-0.0589294
2356.86	0.64782
2358.27	-0.0621033
2359.68	0.12331
2361.08	-0.0486012
2362.49	0.314878
2363.9	0.46686
2365.3	0.456644
2366.71	0.301261
2368.12	-0.143519
2369.52	0.12386
2370.93	0.183271
2372.33	0.32523
2373.74	0.484736
2375.14	-0.0634918
2376.55	-0.11301
2377.95	-0.276638
2379.36	-0.0406427
2380.76	-0.016283
2382.16	-0.31487
2383.57	-0.18173
2384.97	0.350579
2386.37	0.530696
2387.78	0.711789
2389.18	0.591456
2390.58	0.106927
2391.98	-0.0725794
2393.38	0.0201797
2394.79	-0.188057
2396.19	-0.251965
2397.59	0.527463
2398.99	-0.122666
2400.39	0.10198
2401.79	0.612946
2403.19	0.313881
2404.59	-0.0173912
2405.99	0.491509
2407.39	0.221076
2408.78	0.155809
2410.18	-0.369641
2411.58	0.246456
2412.98	-0.419571
2414.38	-0.133346
2415.77	0.154984
2417.17	-0.251234
2418.57	0.0405502
2419.97	0.364704
2421.36	0.16608
2422.76	0.600557
2424.15	0.337522
2425.55	0.264644
2426.95	-0.584097
2428.34	0.549684
2429.74	0.00459671
2431.13	0.0154705
2432.52	0.105971
2433.92	-0.21713
2435.31	0.426948
2436.71	-0.0749912
2438.1	-0.0232325
2439.49	0.439525
2440.89	0.582973
2442.28	0.1222
2443.67	0.296032
2445.06	0.0887518
2446.46	0.21434
2447.85	0.355443
2449.24	0.41717
2450.63	0.431671
2452.02	0.0829258
2453.41	0.510913
2454.8	0.117385
2456.19	0.43688
2457.58	0.155763
2458.97	0.348961
2460.36	0.193311
2461.75	0.289451
2463.14	-0.358586
2464.53	0.320094
2465.92	0.745028
2467.31	-0.267075
2468.69	0.125912
2470.08	0.455137
2471.47	-0.288548
2472.86	0.401134
2474.24	0.521983
2475.63	-0.317957
2477.02	0.336017
2478.4	0.376321
2479.79	-0.00690556
2481.17	0.300642
2482.56	-0.00343895
2483.94	0.678519
2485.33	0.560211
2486.72	0.143502
2488.1	-0.258377
2489.48	-0.00585556
2490.87	-0.0811205
2492.25	-0.12438
2493.64	0.439614
2495.02	0.477077
2496.4	-0.243065
2497.79	0.541642
2499.17	0.0564508
2500.55	-0.212007
2501.93	-0.110298
2503.31	-0.319072
2504.69	0.489274
2506.08	-0.307594
2507.46	-0.0872869
2508.84	-0.297796
2510.22	-0.0618763
2511.6	0.512042
2512.98	0.0130615
2514.36	0.496496
2515.74	-0.0143309
2517.12	-0.247992
2518.5	0.37561
2519.88	-0.0250025
2521.25	0.735153
2522.63	-0.12455
2524.01	0.403607
2525.39	0.0306177
2526.77	-0.616328
2528.14	0.0773115
2529.52	0.20894
2530.9	-0.128348
2532.27	0.114528
2533.65	-0.00522518
2535.03	0.271161
2536.4	0.0309582
2537.78	0.184749
2539.15	0.959705
2540.53	-0.0586967
2541.9	-0.287802
2543.28	0.439471
2544.65	0.30298
2546.03	0.486929
2547.4	-0.0401487
2548.77	0.0863075
2550.15	0.683371
2551.52	0.460361
2552.89	0.43317
2554.27	-0.00539207
2555.64	-0.308683
2557.01	-0.233507
2558.38	0.129488
2559.75	-0.325963
2561.12	0.098628
2562.5	0.00878716
2563.87	0.268377
2565.24	0.316461
2566.61	0.971105
2567.98	0.701466
2569.35	0.65914
2570.72	0.298488
2572.09	0.422885
2573.46	0.532241
2574.83	0.308227
2576.19	0.478401
2577.56	0.390713
2578.93	0.0752029
2580.3	0.65375
2581.67	0.124731
2583.04	0.353248
2584.4	0.0810375
2585.77	0.354468
2587.14	0.537053
2588.5	0.310683
2589.87	0.463377
2591.23	0.267319
2592.6	-0.0203362
2593.97	0.55434
2595.33	-0.0844107
2596.7	0.865079
2598.06	-0.0333595
2599.43	0.0513411
2600.79	0.0604992
2602.15	0.176084
2603.52	0.35295
2604.88	0.289103
2606.25	0.964764
2607.61	0.221993
2608.97	0.262291
2610.33	0.73746
2611.7	0.291719
2613.06	0.190703
2614.42	-0.226817
2615.78	0.346454
2617.15	-0.0255756
2618.51	-0.54576
2619.87	0.118253
2621.23	0.558027
2622.59	0.101444
2623.95	-0.100322
2625.31	-0.361601
2626.67	0.152522
2628.03	0.337542
2629.39	-0.19295
2630.75	0.363142
2632.1	0.0707626
2633.46	0.0164213
2634.82	0.407368
2636.18	0.159894
2637.54	0.386959
2638.89	-0.230268
2640.25	-0.0473995
2641.61	0.239047
2642.97	0.200468
2644.32	-0.206886
2645.68	-0.20072
2647.03	-0.0772429
2648.39	0.14808
2649.75	0.327569
2651.1	-0.111878
2652.46	-0.125063
2653.81	-0.0205832
2655.17	-0.20838
2656.52	-0.0280857
2657.88	0.534251
2659.23	0.0879555
2660.58	-0.254892
2661.94	0.527704
2663.29	0.125409
2664.64	0.466749
2666	0.0770864
2667.35	-0.0650072
2668.7	0.652079
2670.05	0.189825
2671.4	-0.0237741
2672.76	0.112591
2674.11	0.133553
2675.46	-0.0188103
2676.81	0.598769
2678.16	0.201635
2679.51	0.154002
2680.86	0.194955
2682.21	0.165246
2683.56	0.0938606
2684.91	-0.222661
2686.26	0.491537
2687.61	-0.0567446
2688.96	0.278455
2690.3	0.0594158
2691.65	0.25849
2693	0.469501
2694.35	-0.0318403
2695.7	0.452501
2697.04	0.473714
2698.39	-0.00994682
2699.74	0.537191
2701.08	0.449941
2702.43	-0.0984716
2703.77	0.281754
2705.12	0.112244
2706.47	-0.0283384
2707.81	0.918843
2709.16	0.501591
2710.5	0.170518
2711.85	1.07352
2713.19	0.785295
2714.53	0.671188
2715.88	0.833153
2717.22	1.25676
2718.57	0.443598
2719.91	0.342444
2721.25	0.240523
2722.59	0.501662
2723.94	0.485504
2725.28	0.454076
2726.62	0.756776
2727.96	0.724165
2729.3	0.0653868
2730.65	0.439593
2731.99	0.333517
2733.33	0.431231
2734.67	0.412818
2736.01	0.525606
2737.35	0.245905
2738.69	0.111619
2740.03	0.3696
2741.37	0.554064
2742.71	0.112312
2744.05	-0.0978022
2745.38	0.562889
2746.72	0.351037
2748.06	0.109989
2749.4	0.391521
2750.74	0.0929651
2752.07	-0.233968
2753.41	0.193295
2754.75	-0.190818
2756.09	-0.241369
2757.42	0.0558424
2758.76	0.237455
2760.09	0.0866938
2761.43	0.00907707
2762.77	-0.0967283
2764.1	-0.288842
2765.44	0.228005
2766.77	0.657265
2768.11	-0.014369
2769.44	0.049777
2770.77	0.400583
2772.11	0.27217
2773.44	-0.103056
2774.77	0.242287
2776.11	-0.0756979
2777.44	-0.421379
2778.77	-0.161697
2780.11	0.558251
2781.44	0.258092
2782.77	0.36032
2784.1	0.505327
2785.43	-0.0092144
2786.77	-0.680387
2788.1	-0.462507
2789.43	-0.0577097
2790.76	0.0191889
2792.09	-0.0457125
2793.42	-0.26709
2794.75	0.297766
2796.08	0.633209
2797.41	0.0391006
2798.74	0.401152
2800.07	0.305465
2801.4	0.594584
2802.72	0.384051
2804.05	-0.154463
2805.38	-0.0379133
2806.71	0.333732
2808.04	-0.00734138
2809.36	-0.0785809
2810.69	0.00649738
2812.02	0.234267
2813.34	-0.500922
2814.67	0.0144224
2816	-0.0494118
2817.32	-0.338209
2818.65	0.281058
2819.97	0.645249
2821.3	0.200846
2822.62	0.166411
2823.95	0.329325
2825.27	0.760702
2826.6	0.427212
2827.92	0.264588
2829.25	0.541776
2830.57	0.380852
2831.89	0.630815
2833.22	0.441881
2834.54	1.32817
2835.86	1.10959
2837.18	1.00339
2838.51	1.08039
2839.83	1.42569
2841.15	1.72855
2842.47	2.88007
2843.79	2.20918
2845.11	2.98117
2846.43	3.52815
2847.76	3.83559
2849.08	4.05833
2850.4	3.47492
2851.72	4.14855
2853.04	3.95906
2854.36	5.22438
2855.67	5.18913
2856.99	4.84307
2858.31	5.1752
2859.63	5.45073
2860.95	5.45758
2862.27	6.00028
2863.58	5.48349
2864.9	6.10937
2866.22	6.00132
2867.54	6.30281
2868.85	6.46401
2870.17	7.04893
2871.49	6.60505
2872.8	6.86548
2874.12	7.42031
2875.43	7.26847
2876.75	7.60738
2878.07	7.8458
2879.38	7.61925
2880.7	8.05419
2882.01	7.92832
2883.32	7.98728
2884.64	8.00605
2885.95	8.47529
2887.27	8.48139
2888.58	8.62697
2889.89	8.827
2891.21	8.80083
2892.52	9.03969
2893.83	9.58617
2895.14	9.25073
2896.46	9.1832
2897.77	9.59369
2899.08	9.9782
2900.39	9.74882
2901.7	10.4857
2903.01	9.90818
2904.32	11.2892
2905.63	11.1882
2906.94	11.3961
2908.25	11.8856
2909.56	11.7336
2910.87	12.3804
2912.18	13.1116
2913.49	12.8055
2914.8	13.0283
2916.11	13.7932
2917.42	13.1408
2918.72	12.8783
2920.03	13.6505
2921.34	14.0461
2922.65	14.4444
2923.95	15.2511
2925.26	14.5508
2926.57	14.9143
2927.88	15.2781
2929.18	15.4454
2930.49	15.248
2931.79	16.07
2933.1	15.9687
2934.4	15.1687
2935.71	15.2075
2937.01	15.0093
2938.32	13.7215
2939.62	14.7121
2940.93	13.9712
2942.23	13.3579
2943.54	13.1803
2944.84	13.1734
2946.14	12.5538
2947.45	12.4807
2948.75	11.8194
2950.05	11.5613
2951.35	11.0755
2952.66	10.5718
2953.96	10.6114
2955.26	10.2023
2956.56	9.80892
2957.86	9.15365
2959.16	9.16148
2960.46	9.31488
2961.77	8.67359
2963.07	8.98705
2964.37	9.03333
2965.66	8.2622
2966.96	7.44502
2968.26	8.08685
2969.56	7.86982
2970.86	7.59622
2972.16	7.30904
2973.46	7.24762
2974.76	6.82029
2976.06	6.75776
2977.35	6.87599
2978.65	6.86433
2979.95	6.00479
2981.25	6.31125
2982.54	5.53338
2983.84	5.50194
2985.14	5.19149
2986.43	5.36183
2987.73	5.57714
2989.02	4.62813
2990.32	4.25585
2991.62	4.26226
2992.91	3.97177
2994.21	4.00231
2995.5	3.67969
2996.8	2.83657
2998.09	2.79379
2999.38	2.47099
3000.68	2.7524
3001.97	2.404
3003.26	2.36494
3004.56	2.08809
3005.85	2.04915
3007.14	1.72934
3008.43	1.53445
3009.73	1.19855
3011.02	1.72825
3012.31	1.39087
3013.6	0.593726
3014.89	1.22049
3016.19	0.120243
3017.48	0.47066
3018.77	0.612951
3020.06	0.588502
3021.35	0.104861
3022.64	0.731792
3023.93	0.370957
3025.22	-0.336964
3026.5	-0.0880661
3027.79	0.299577
3029.08	-0.348489
3030.37	-0.219375
3031.66	0.0640011
3032.95	0.487092
3034.24	-0.193433
3035.52	0.0777998
3036.81	0.0987101
3038.1	-0.241262
3039.39	0.0909328
3040.67	0.461218
3041.96	-0.0493231
3043.25	0.291387
3044.53	-0.0380411
3045.82	0.100982
3047.1	-0.248393
3048.39	-0.0336189
3049.67	-0.320429
3050.96	0.228041
3052.24	0.805235
3053.53	0.0727739
3054.81	0.56749
3056.1	0.0512228
3057.38	0.229042
3058.67	0.146727
3059.95	0.608861
3061.23	0.608539
3062.52	0.038744
3063.8	0.233201
3065.08	0.416649
3066.36	0.439447
3067.65	0.233007
3068.93	0.000170708
3070.21	0.827969
3071.49	0.32182
3072.77	0.289978
3074.05	0.0388794
3075.33	0.180729
3076.61	-0.0445719
3077.89	-0.0380535
3079.17	-0.00251198
3080.45	-0.2764
3081.73	0.0900126
3083.01	0.065259
3084.29	0.367534
3085.57	0.602448
3086.85	0.00900078
3088.13	0.0118561
3089.41	0.0545788
3090.68	0.0968189
3091.96	0.125487
3093.24	0.453042
3094.52	-0.317233
3095.79	-0.327229
3097.07	-0.133443
3098.35	0.35863
3099.62	-0.463798
3100.9	0.0283527
3102.18	0.114329
3103.45	0.133278
3104.73	0.0991592
3106	0.310076
3107.28	0.387361
3108.55	0.317703
3109.83	0.0740328
3111.1	0.427818
3112.38	0.200923
3113.65	0.367804
3114.93	0.0199833
3116.2	0.688579
3117.47	0.583379
3118.75	0.476718
3120.02	0.816239
3121.29	0.612133
3122.57	0.394011
3123.84	0.785661
3125.11	0.663064
3126.38	0.446828
3127.65	0.489085
3128.92	0.87061
3130.2	1.00947
3131.47	1.05412
3132.74	0.85573
3134.01	1.14354
3135.28	0.917645
3136.55	1.02874
3137.82	1.44941
3139.09	1.28997
3140.36	1.22511
3141.63	1.20117
3142.9	1.25881
3144.17	1.47862
3145.43	1.52503
3146.7	1.31822
3147.97	1.64904
3149.24	1.69959
