200.554	0.609093
202.369	0.678061
204.183	0.746616
205.999	0.695744
207.813	1.69054
209.626	1.03041
211.439	0.634884
213.253	0.648886
215.065	0.756754
216.877	-0.227842
218.688	0.0967464
220.5	0.325422
222.312	0.55599
224.123	0.57069
225.933	1.19068
227.742	0.43313
229.552	-0.373346
231.361	0.774149
233.171	0.858232
234.98	0.171328
236.787	-0.367407
238.595	-0.949146
240.402	-0.319818
242.209	0.845543
244.015	-0.0598049
245.822	0.722876
247.627	0.487747
249.435	1.0664
251.24	-0.077589
253.045	0.533743
254.849	0.34395
256.653	0.538954
258.457	-0.372795
260.26	-0.581335
262.063	0.370958
263.866	1.01397
265.668	0.551191
267.47	0.0887699
269.271	0.324131
271.073	1.11175
272.873	0.015625
274.674	0.0488548
276.474	-0.163309
278.274	0.511379
280.073	0.192692
281.872	0.230043
283.671	-0.483019
285.47	-0.525806
287.268	-0.0185795
289.065	-0.0159931
290.863	0.155973
292.66	0.474371
294.456	-0.232445
296.253	0.0690746
298.049	0.779058
299.844	0.74896
301.637	-0.428354
303.432	0.589373
305.227	0.171041
307.021	0.87163
308.815	0.545755
310.609	-0.135868
312.402	0.85305
314.195	0.654921
315.987	0.24707
317.777	0.057724
319.569	1.82551
321.36	0.117685
323.151	1.67706
324.942	1.11541
326.733	0.839685
328.521	0.777754
330.31	1.23985
332.1	0.455385
333.889	1.22096
335.677	0.928259
337.464	1.39517
339.252	1.37794
341.039	1.64352
342.826	1.38079
344.611	0.210108
346.398	0.522343
348.184	0.740465
349.97	1.12669
351.754	-0.181997
353.539	0.0116158
355.324	0.321571
357.106	0.508553
358.89	-0.404276
360.674	1.34813
362.455	0.525608
364.239	1.03378
366.021	-0.337599
367.804	0.949549
369.584	0.192776
371.366	0.903704
373.145	-0.234188
374.926	0.259981
376.707	0.186594
378.485	0.0674191
380.265	-0.190693
382.045	-0.233753
383.822	-0.555967
385.601	0.394623
387.378	0.266335
389.156	0.352242
390.934	-0.358082
392.71	1.42295
394.487	0.622072
396.262	0.127272
398.038	0.0553074
399.813	-0.346098
401.588	-0.325935
403.362	0.232733
405.137	0.178751
406.912	0.0288944
408.685	0.0887737
410.459	0.922335
412.23	0.44137
414.004	0.149303
415.775	0.210917
417.548	0.837622
419.318	-0.294107
421.089	-0.369471
422.86	0.282118
424.63	0.438944
426.401	-0.768238
428.17	0.158747
429.94	0.474056
431.708	0.366718
433.478	0.400969
435.245	0.975788
437.012	-0.186314
438.781	0.949688
440.547	0.767523
442.315	0.65056
444.081	0.481243
445.846	0.401106
447.613	0.411642
449.378	0.210539
451.142	1.06129
452.908	0.464104
454.672	0.89464
456.435	-0.0739746
458.2	-0.459328
459.963	0.808186
461.725	0.819956
463.489	0.277945
465.251	0.648554
467.012	0.817184
468.775	0.388338
470.536	0.126451
472.296	0.796432
474.056	0.0448761
475.817	0.592487
477.576	-0.68215
479.335	0.32144
481.094	0.973087
482.854	0.460566
484.612	0.556622
486.37	0.680893
488.127	0.134668
489.886	1.76213
491.642	1.06035
493.398	1.55066
495.154	0.989906
496.91	0.287374
498.667	0.660639
500.422	0.939531
502.176	0.912058
503.93	0.976162
505.684	1.64845
507.438	1.07147
509.191	1.33685
510.946	0.515795
512.698	0.772905
514.45	1.73203
516.202	1.01699
517.954	0.816561
519.705	0.566681
521.456	1.56035
523.206	0.931414
524.956	1.54653
526.706	0.941099
528.456	0.922476
530.207	1.72371
531.956	0.766399
533.704	1.58694
535.452	1.72491
537.2	0.737221
538.947	1.63867
540.694	1.78886
542.441	1.58721
544.188	1.64092
545.934	1.16005
547.68	1.63226
549.425	1.57086
551.17	1.46386
552.915	1.3113
554.659	1.15957
556.403	1.30893
558.145	1.29763
559.889	1.03423
561.632	-0.101942
563.375	0.651211
565.117	0.991039
566.859	1.37806
568.601	1.12398
570.342	1.05658
572.083	0.511118
573.824	0.566565
575.565	0.741323
577.303	-0.456345
579.043	0.575233
580.782	1.26517
582.521	-0.318983
584.26	0.691866
585.998	0.780907
587.734	0.291626
589.472	0.926439
591.21	-0.09762
592.947	-0.478767
594.684	0.635206
596.418	0.345877
598.154	-0.679771
599.89	-0.118887
601.626	0.140722
603.361	0.60396
605.094	1.22405
606.828	-0.38862
608.562	0.777054
610.296	-0.560432
612.027	1.17845
613.761	0.0747967
615.493	0.532213
617.224	-0.0870609
618.956	-0.11182
620.688	0.295565
622.419	1.06529
624.149	-0.271194
625.879	-0.395077
627.61	0.191692
629.338	0.737419
631.068	0.558886
632.797	1.48101
634.525	1.42473
636.254	0.522818
637.98	1.14563
639.708	0.574347
641.436	0.702868
643.162	0.756584
644.889	-0.263
646.614	0.289768
648.34	-0.312628
650.067	0.093401
651.791	-0.0816078
653.516	0.617002
655.239	1.6663
656.964	0.924606
658.687	0.867649
660.411	0.855026
662.133	0.518417
663.857	0.632387
665.58	2.93504
667.301	2.92417
669.024	-0.405006
670.744	0.658958
672.464	-0.468401
674.186	-0.285534
675.905	-0.0512505
677.626	0.278362
679.345	0.103619
681.065	1.0985
682.783	0.709873
684.503	-0.145128
686.22	-0.45318
687.939	0.109972
689.656	0.0256577
691.372	-0.244764
693.09	-0.585863
694.806	-0.49115
696.523	0.63728
698.239	0.173725
699.953	0.121538
701.67	0.0664635
703.384	0.284918
705.098	0.248678
706.813	0.48654
708.526	0.264391
710.239	0.408222
711.954	0.11591
713.666	0.463781
715.378	0.125021
717.091	-0.167622
718.802	1.18289
720.513	-0.613567
722.226	0.37145
723.936	0.649672
725.646	-0.00489235
727.355	1.04434
729.067	0.479498
730.776	-0.674755
732.484	-0.219742
734.192	0.43751
735.902	-0.285074
737.61	0.755898
739.317	0.149923
741.024	0.178585
742.731	0.976086
744.439	0.447819
746.145	0.306217
747.851	0.685635
749.556	0.168562
751.262	-0.255205
752.966	-0.0459747
754.673	0.616688
756.377	0.405767
758.081	0.693895
759.784	1.63939
761.487	0.807842
763.19	0.788662
764.892	0.768736
766.594	1.31082
768.296	0.989822
770	1.52242
771.701	1.25863
773.402	2.21245
775.102	0.88139
776.803	1.40597
778.503	1.73041
780.202	1.56127
781.901	1.14596
783.6	1.16067
785.299	1.82895
786.997	0.884134
788.695	1.53859
790.393	1.32479
792.09	0.833437
793.787	0.203667
795.484	0.88283
797.18	1.60817
798.877	2.04382
800.572	1.22313
802.268	1.12668
803.963	1.14439
805.658	1.36396
807.35	1.04205
809.044	1.59333
810.738	1.19849
812.432	2.34914
814.125	1.86102
815.818	1.17164
817.51	0.79649
819.202	1.40546
820.894	1.43331
822.584	1.48447
824.275	1.53761
825.966	1.03727
827.657	1.90148
829.347	2.14871
831.037	1.93604
832.725	1.12893
834.414	1.35171
836.103	1.6218
837.792	2.40496
839.481	1.91314
841.167	1.66261
842.854	2.19063
844.542	2.62836
846.229	1.45887
847.914	1.21
849.6	1.32505
851.287	1.73765
852.973	2.98528
854.656	3.56466
856.341	3.53823
858.026	2.99153
859.711	3.47454
861.393	3.41293
863.077	1.95012
864.761	2.89423
866.442	2.86718
868.125	2.11686
869.808	2.28978
871.489	1.01826
873.171	2.29526
874.85	0.774529
876.532	1.2619
878.213	2.47172
879.892	1.17598
881.572	1.8882
883.251	0.928019
884.931	2.17733
886.61	0.556324
888.287	1.77502
889.966	0.936504
891.643	1.5375
893.321	0.58042
894.997	1.48945
896.675	-0.146008
898.352	1.58758
900.028	0.847763
901.704	1.29495
903.379	0.62096
905.055	0.596224
906.729	0.527617
908.404	0.973494
910.077	1.22027
911.75	0.668036
913.425	1.05198
915.097	0.903276
916.771	1.55347
918.443	1.64832
920.116	1.56616
921.787	2.08299
923.46	0.502218
925.13	1.86577
926.8	1.79759
928.472	1.5794
930.141	1.85003
931.813	2.18852
933.481	1.71141
935.15	1.89664
936.82	1.33315
938.488	0.727953
940.156	0.875801
941.825	0.695904
943.492	0.892887
945.158	1.50887
946.827	1.83502
948.493	1.49409
950.158	0.927589
951.824	0.887835
953.491	0.495556
955.156	0.328138
956.82	1.07199
958.486	-0.138712
960.15	1.52589
961.814	1.40741
963.477	0.138773
965.142	0.0806236
966.804	0.435993
968.467	0.341858
970.129	1.26014
971.79	1.2249
973.454	0.969887
975.115	1.3159
976.776	0.162863
978.436	1.09266
980.096	1.29438
981.756	1.49508
983.417	0.82881
985.077	1.52987
986.736	1.82684
988.394	2.29582
990.052	1.19108
991.71	1.74333
993.368	1.58778
995.025	2.07284
996.682	2.29294
998.341	1.93943
999.998	3.23833
1001.65	3.25731
1003.31	1.82266
1004.97	1.81851
1006.62	0.825239
1008.28	1.15126
1009.93	1.19247
1011.58	1.65145
1013.24	1.16875
1014.89	1.19144
1016.54	1.08389
1018.2	0.605877
1019.85	1.44269
1021.5	1.31974
1023.16	1.65885
1024.81	1.3885
1026.46	2.38716
1028.11	2.40237
1029.76	2.17546
1031.41	1.87972
1033.06	2.58398
1034.71	2.69389
1036.36	2.84342
1038.01	2.83802
1039.66	3.7249
1041.31	4.93868
1042.95	3.98117
1044.6	5.3546
1046.25	3.90932
1047.9	4.20757
1049.54	4.07625
1051.19	4.31782
1052.84	3.08452
1054.48	2.78612
1056.13	3.07439
1057.77	2.40541
1059.42	2.08272
1061.06	2.32351
1062.71	2.21425
1064.35	2.23287
1066	1.79206
1067.64	1.8266
1069.28	1.53259
1070.93	0.846233
1072.57	0.919926
1074.21	1.40717
1075.85	0.877464
1077.49	2.30338
1079.13	1.88917
1080.78	1.95408
1082.42	2.43086
1084.06	1.90767
1085.7	1.72696
1087.34	2.55909
1088.97	2.58337
1090.61	2.08348
1092.25	0.327545
1093.89	1.53211
1095.53	1.67782
1097.17	2.66629
1098.8	1.67546
1100.44	1.33662
1102.08	1.3261
1103.71	0.24477
1105.35	0.909519
1106.99	0.457172
1108.62	1.53088
1110.26	1.93466
1111.89	1.00132
1113.52	1.58961
1115.16	0.799969
1116.79	0.524736
1118.43	1.70795
1120.06	0.770666
1121.69	1.33597
1123.32	1.19738
1124.96	1.27552
1126.59	1.97625
1128.22	1.26746
1129.85	1.33058
1131.48	1.1387
1133.11	0.242161
1134.75	0.820297
1136.37	1.90946
1138	1.0295
1139.63	0.89439
1141.26	0.351097
1142.89	0.745922
1144.52	0.714258
1146.15	0.471359
1147.78	0.806604
1149.4	-0.176931
1151.03	0.88603
1152.66	0.266178
1154.28	1.37011
1155.91	0.386644
1157.54	0.765142
1159.16	0.995579
1160.79	0.994352
1162.41	0.613461
1164.04	-0.253727
1165.66	-0.120333
1167.29	0.777721
1168.91	0.545965
1170.53	-0.264107
1172.16	0.174753
1173.78	0.205118
1175.4	0.359528
1177.02	-0.42029
1178.65	-0.181589
1180.27	0.100962
1181.89	-0.270224
1183.51	0.481197
1185.13	0.196426
1186.75	-0.386187
1188.37	0.0826759
1189.99	0.819473
1191.61	0.328579
1193.23	1.11738
1194.85	-0.281458
1196.47	0.671799
1198.08	0.138597
1199.7	0.489717
1201.32	0.679293
1202.94	1.04277
1204.55	0.64068
1206.17	1.55898
1207.79	1.60427
1209.4	0.96183
1211.02	0.85952
1212.63	0.252268
1214.25	0.910744
1215.86	0.937744
1217.48	1.18873
1219.09	0.584621
1220.71	1.64215
1222.32	1.1235
1223.93	1.39655
1225.54	1.77682
1227.16	1.56071
1228.77	0.997017
1230.38	1.20214
1231.99	1.6791
1233.6	2.30388
1235.22	2.51868
1236.83	2.44748
1238.44	2.87524
1240.05	2.60195
1241.66	2.55651
1243.26	1.97214
1244.87	2.89593
1246.48	2.80309
1248.09	3.45234
1249.7	3.31317
1251.31	3.35939
1252.92	2.62028
1254.52	3.31052
1256.13	2.80416
1257.74	3.17
1259.34	2.25629
1260.95	2.06893
1262.55	3.56004
1264.16	3.76789
1265.76	3.45659
1267.37	4.84277
1268.97	3.71813
1270.58	4.1038
1272.18	3.7815
1273.78	4.05748
1275.39	3.58433
1276.99	4.2899
1278.59	4.14335
1280.2	4.30574
1281.8	5.10873
1283.4	4.17368
1285	3.98547
1286.6	4.27546
1288.2	5.3537
1289.8	5.69032
1291.4	4.37523
1293	5.10554
1294.6	5.29627
1296.2	4.96671
1297.8	5.60282
1299.4	5.28429
1301	5.6214
1302.6	5.27454
1304.19	5.54284
1305.79	4.01995
1307.39	4.86036
1308.99	5.12378
1310.58	4.87436
1312.18	4.81089
1313.77	4.66797
1315.37	3.7518
1316.96	3.84022
1318.56	4.33804
1320.15	4.61044
1321.75	4.49264
1323.34	5.20484
1324.94	4.06082
1326.53	3.80882
1328.12	4.54929
1329.72	4.92518
1331.31	4.51622
1332.9	4.09441
1334.49	4.22478
1336.08	4.27882
1337.67	5.26193
1339.27	3.54098
1340.86	4.65739
1342.45	4.5785
1344.04	3.95144
1345.63	3.64404
1347.22	4.22023
1348.8	4.19921
1350.39	3.4048
1351.98	3.97866
1353.57	3.61809
1355.16	3.9209
1356.75	3.06556
1358.33	3.30809
1359.92	3.82734
1361.51	2.54687
1363.09	3.37987
1364.68	4.27079
1366.27	2.57139
1367.85	3.50464
1369.44	3.18645
1371.02	2.4545
1372.61	3.11944
1374.19	3.72765
1375.77	3.97956
1377.36	3.59489
1378.94	3.4475
1380.52	3.55588
1382.11	3.64062
1383.69	4.2983
1385.27	4.01843
1386.85	3.32039
1388.43	3.11993
1390.02	2.44515
1391.6	3.8171
1393.18	4.27794
1394.76	3.98593
1396.34	5.3392
1397.92	4.6875
1399.5	4.52866
1401.08	4.26818
1402.65	4.16467
1404.23	4.08103
1405.81	4.1572
1407.39	5.20424
1408.97	5.02802
1410.54	5.70268
1412.12	4.5206
1413.7	4.83768
1415.27	6.0002
1416.85	5.44341
1418.43	5.65479
1420	5.45336
1421.58	5.66889
1423.15	6.20399
1424.73	5.64168
1426.3	6.20501
1427.87	6.41562
1429.45	5.7986
1431.02	6.20228
1432.6	7.42882
1434.17	7.70754
1435.74	7.59142
1437.31	6.98457
1438.89	7.40247
1440.46	8.58984
1442.03	8.24714
1443.6	7.61186
1445.17	8.5304
1446.74	9.27273
1448.31	8.16788
1449.88	7.94844
1451.45	7.94669
1453.02	8.12362
1454.59	8.7345
1456.16	8.67647
1457.72	7.82907
1459.29	7.804
1460.86	7.87185
1462.43	6.98948
1463.99	5.74878
1465.56	6.09808
1467.13	5.34599
1468.69	5.95049
1470.26	5.04607
1471.83	4.51838
1473.39	4.46471
1474.95	3.21708
1476.52	3.06892
1478.08	3.58762
1479.65	3.2043
1481.21	3.87915
1482.78	3.71091
1484.34	4.14969
1485.9	3.80365
1487.47	3.49465
1489.03	3.02542
1490.59	3.04057
1492.15	2.81496
1493.71	1.88062
1495.27	2.114
1496.84	2.07117
1498.39	2.43654
1499.96	2.04462
1501.52	1.79244
1503.07	1.93181
1504.64	1.37576
1506.19	0.782633
1507.75	0.595003
1509.31	1.33226
1510.87	0.540514
1512.43	1.82964
1513.98	1.28621
1515.54	1.26365
1517.1	0.513302
1518.65	0.763805
1520.21	1.20683
1521.77	0.998857
1523.32	1.55487
1524.88	1.8402
1526.44	1.58821
1527.99	1.4677
1529.54	1.11792
1531.1	1.28175
1532.65	1.08629
1534.21	1.51857
1535.76	1.10149
1537.31	2.0103
1538.87	2.20187
1540.42	2.07351
1541.97	1.9456
1543.52	2.02467
1545.07	2.12181
1546.63	1.88009
1548.18	1.93861
1549.73	2.428
1551.28	2.29902
1552.83	2.58328
1554.38	1.89781
1555.93	1.9642
1557.48	1.90461
1559.03	2.6153
1560.57	2.6592
1562.12	2.07317
1563.67	3.44892
1565.22	2.94196
1566.77	2.32307
1568.31	3.58845
1569.86	3.86368
1571.41	3.3912
1572.95	3.6459
1574.5	3.19085
1576.05	3.40792
1577.59	4.59632
1579.14	3.95642
1580.68	3.67291
1582.23	3.42884
1583.77	3.00013
1585.31	3.69446
1586.86	3.17538
1588.4	4.67627
1589.95	3.95098
1591.49	3.24258
1593.03	5.22882
1594.57	4.38713
1596.11	5.08146
1597.66	3.80947
1599.2	6.04471
1600.74	6.59565
1602.28	5.4968
1603.82	6.27455
1605.36	5.20974
1606.9	4.79782
1608.44	3.94776
1609.98	4.35042
1611.52	4.72761
1613.06	5.06133
1614.6	4.28374
1616.13	4.18121
1617.67	4.39885
1619.21	3.57048
1620.75	3.85188
1622.28	4.69857
1623.82	3.13221
1625.36	3.32577
1626.89	3.85394
1628.43	4.06012
1629.96	5.32809
1631.5	4.74157
1633.04	5.14455
1634.57	4.82002
1636.11	5.37506
1637.64	5.07439
1639.17	5.68918
1640.71	4.42126
1642.24	4.90357
1643.77	4.78643
1645.31	5.74521
1646.84	5.69596
1648.37	5.92463
1649.9	5.96853
1651.43	5.0875
1652.96	6.12136
1654.5	5.73001
1656.03	5.09975
1657.56	4.46959
1659.09	6.11566
1660.62	4.31327
1662.15	4.6363
1663.67	5.10356
1665.2	4.51576
1666.73	4.52052
1668.26	4.58374
1669.79	4.57736
1671.32	4.04086
1672.84	4.55762
1674.37	4.68862
1675.9	2.99618
1677.43	4.04468
1678.95	2.62432
1680.48	3.11463
1682	2.94086
1683.53	2.80317
1685.05	2.4457
1686.58	2.34634
1688.1	3.03638
1689.63	2.20631
1691.15	2.31147
1692.68	0.861202
1694.2	1.40587
1695.72	1.91294
1697.25	1.56001
1698.77	0.841341
1700.29	1.76482
1701.81	1.37263
1703.33	1.52616
1704.86	1.332
1706.38	1.19153
1707.9	1.9958
1709.42	1.36363
1710.94	1.51309
1712.46	1.20945
1713.98	1.37775
1715.5	1.69072
1717.02	0.5741
1718.54	0.940842
1720.06	1.19842
1721.57	0.842627
1723.09	0.398741
1724.61	1.21917
1726.13	1.06976
1727.64	0.743963
1729.16	0.276905
1730.68	0.869244
1732.19	0.615141
1733.71	0.584515
1735.23	0.705324
1736.74	0.459515
1738.26	0.843075
1739.77	1.0516
1741.29	0.635443
1742.8	0.478361
1744.31	0.631174
1745.83	0.82937
1747.34	0.250132
1748.85	0.836498
1750.37	0.0162296
1751.88	0.735174
1753.39	0.00690269
1754.91	0.528397
1756.42	0.384148
1757.93	0.968437
1759.44	-0.999956
1760.95	0.954557
1762.46	0.202881
1763.97	0.0264721
1765.48	0.749077
1766.99	0.622362
1768.5	0.443174
1770.01	0.0371857
1771.52	0.0609493
1773.03	0.419502
1774.54	-0.0364933
1776.04	0.31435
1777.55	-0.276978
1779.06	-0.134375
1780.57	0.5662
1782.07	0.0166321
1783.58	-0.244593
1785.09	0.0628262
1786.59	0.14123
1788.1	0.658733
1789.6	0.3011
1791.11	-0.464111
1792.61	-0.0565262
1794.12	-0.369198
1795.62	-0.164633
1797.13	0.258648
1798.63	-0.481544
1800.13	0.378187
1801.64	0.8309
1803.14	-0.0558224
1804.64	-0.10828
1806.15	-0.224539
1807.65	-0.0925503
1809.15	-0.0160828
1810.65	-0.282925
1812.15	-0.298166
1813.65	-0.412634
1815.16	-0.0837173
1816.66	0.542
1818.15	0.459723
1819.66	0.00502205
1821.16	0.270132
1822.65	0.0650845
1824.15	0.0592365
1825.65	0.17341
1827.15	0.0743942
1828.65	0.025629
1830.15	-0.0849705
1831.64	0.00648308
1833.14	0.39687
1834.64	0.258184
1836.14	0.0309391
1837.63	0.0611095
1839.13	0.425385
1840.62	0.260601
1842.12	0.0374374
1843.62	0.402704
1845.11	0.503531
1846.61	0.290058
1848.1	0.13648
1849.6	0.442827
1851.09	-0.228275
1852.58	-0.220552
1854.08	0.174347
1855.57	0.594875
1857.06	-0.017786
1858.55	0.482769
1860.05	-0.282261
1861.54	0.24337
1863.03	-0.0318356
1864.52	0.255987
1866.01	0.0891571
1867.5	-0.206139
1869	-0.388391
1870.49	-0.6903
1871.98	0.0839844
1873.47	-0.0370331
1874.96	-0.151245
1876.44	0.745899
1877.93	1.44359
1879.42	0.602942
1880.91	0.270536
1882.4	-0.396858
1882.47	-0.434778
1883.96	0.367134
1885.46	0.0689964
1886.95	0.100235
1888.44	0.269604
1889.94	-0.117651
1891.43	0.836515
1892.93	-0.745058
1894.42	-0.549225
1895.91	0.39739
1897.4	-0.0104218
1898.89	0.207674
1900.39	0.180222
1901.88	0.340799
1903.37	-0.198013
1904.86	0.373123
1906.35	0.0558929
1907.84	-0.452154
1909.33	0.325914
1910.82	0.255049
1912.31	-0.230228
1913.8	0.0663357
1915.29	0.258963
1916.77	0.27747
1918.26	0.156187
1919.75	0.605806
1921.24	0.119553
1922.73	0.223127
1924.21	0.0687275
1925.7	0.107092
1927.19	-0.11203
1928.67	-0.208652
1930.16	0.387344
1931.64	0.271809
1933.13	0.586212
1934.61	0.498646
1936.1	-0.146025
1937.58	0.244991
1939.07	-0.0739498
1940.55	0.212418
1942.04	0.0514393
1943.52	0.220512
1945	0.0808544
1946.49	0.0455208
1947.97	0.319983
1949.45	0.0414772
1950.93	-0.34211
1952.42	-0.486235
1953.9	0.383194
1955.38	-0.192238
1956.86	-0.3025
1958.34	0.0521202
1959.82	-0.261181
1961.3	0.953018
1962.78	0.606882
1964.26	0.5348
1965.74	0.0678673
1967.22	0.849445
1968.7	0.362928
1970.18	-0.0558243
1971.65	0.225771
1973.13	-0.636778
1974.61	-0.201647
1976.09	0.727499
1977.57	0.190908
1979.04	0.438221
1980.52	-0.386497
1982	0.0474434
1983.47	0.938818
1984.95	0.283545
1986.42	-0.0490074
1987.9	0.466249
1989.37	-0.204075
1990.85	-0.0429096
1992.32	0.881021
1993.8	0.132456
1995.27	0.518448
1996.75	0.246235
1998.22	-0.279169
1999.69	1.23771
2001.17	0.980181
2002.64	-0.00344849
2004.11	0.412813
2005.58	0.627104
2007.05	0.775341
2008.53	0.588667
2010	0.740593
2011.47	0.237095
2012.94	0.137812
2014.41	0.99695
2015.88	0.895126
2017.35	0.80826
2018.82	-0.372993
2020.29	0.546055
2021.76	0.842453
2023.23	0.0817108
2024.7	0.480923
2026.16	0.513235
2027.63	0.330439
2029.1	0.586788
2030.57	0.711765
2032.03	0.184372
2033.5	0.614521
2034.97	0.25569
2036.44	1.22295
2037.9	0.895794
2039.37	0.752508
2040.83	0.575373
2042.3	0.230762
2043.76	0.0556183
2045.23	1.68264
2046.69	0.635969
2048.16	0.481632
2049.62	0.309668
2051.08	0.337837
2052.55	0.615891
2054.01	0.485508
2055.47	0.78997
2056.94	0.754238
2058.4	0.952721
2059.86	1.06642
2061.32	1.18083
2062.79	0.657223
2064.25	0.910086
2065.71	0.996698
2067.17	0.664358
2068.63	1.34307
2070.09	0.45715
2071.55	1.47352
2073.01	1.44594
2074.47	1.19887
2075.93	1.69201
2077.39	2.16755
2078.85	1.27816
2080.31	0.539438
2081.76	0.271149
2083.22	0.809587
2084.68	1.00965
2086.13	1.64539
2087.59	0.782785
2089.05	1.26457
2090.51	1.03993
2091.96	1.4869
2093.42	1.79898
2094.87	1.50642
2096.33	1.58188
2097.78	1.8568
2099.24	1.61111
2100.69	2.21793
2102.15	2.12241
2103.6	1.6113
2105.06	2.00481
2106.51	2.33427
2107.96	1.99874
2109.42	1.64751
2110.87	1.66212
2112.32	2.22382
2113.77	2.06512
2115.23	2.98466
2116.68	2.7534
2118.13	2.42351
2119.58	2.66134
2121.03	2.23952
2122.48	2.6018
2123.93	2.17123
2125.38	3.43353
2126.83	2.8879
2128.28	2.53916
2129.73	3.36408
2131.18	3.02595
2132.63	2.71942
2134.08	2.82667
2135.53	3.28271
2136.97	3.65897
2138.42	2.96505
2139.87	3.00261
2141.32	4.28363
2142.76	4.11303
2144.21	3.19941
2145.66	4.25484
2147.1	3.93626
2148.55	3.98037
2150	4.23788
2151.44	4.19493
2152.89	4.64673
2154.33	4.78173
2155.78	5.09781
2157.22	4.27094
2158.66	4.09178
2160.11	4.56169
2161.55	5.08555
2163	5.13343
2164.44	5.71592
2165.88	5.30526
2167.32	5.12646
2168.77	5.07799
2170.21	5.14169
2171.65	5.61627
2173.09	4.62224
2174.53	5.42144
2175.97	5.42062
2177.41	5.43684
2178.85	4.6568
2180.29	4.54413
2181.73	5.74706
2183.17	5.22225
2184.61	5.31338
2186.05	5.63762
2187.49	4.48115
2188.93	4.38944
2190.37	3.39879
2191.81	4.32176
2193.24	4.74381
2194.68	4.76322
2196.12	4.39552
2197.56	4.18982
2198.99	4.32947
2200.43	4.51628
2201.87	3.49036
2203.3	3.37982
2204.74	3.50399
2206.17	3.71322
2207.61	3.55906
2209.04	3.27219
2210.48	2.96734
2211.91	3.07415
2213.35	3.52623
2214.78	2.70544
2216.21	3.45516
2217.65	2.7382
2219.08	2.73373
2220.51	3.48955
2221.95	1.98735
2223.38	3.15368
2224.81	2.53753
2226.24	2.8728
2227.67	2.56263
2229.1	2.18449
2230.54	2.26477
2231.97	2.5246
2233.4	2.39154
2234.83	1.63899
2236.26	1.67449
2237.69	2.20301
2239.11	2.58805
2240.54	2.08003
2241.97	1.75553
2243.4	1.82519
2244.83	2.10773
2246.26	1.93225
2247.69	1.36209
2249.11	1.55401
2250.54	1.35006
2251.97	1.4357
2253.4	1.1941
2254.82	1.40837
2256.25	1.18684
2257.67	1.06774
2259.1	1.55479
2260.53	1.3178
2261.95	1.19943
2263.38	0.775736
2264.8	0.937275
2266.23	1.40726
2267.65	1.2742
2269.07	1.30184
2270.5	0.709211
2271.92	1.14102
2273.34	0.72575
2274.77	1.10865
2276.19	1.2966
2277.61	0.784203
2279.03	0.74444
2280.46	1.01437
2281.88	1.13739
2283.3	1.04817
2284.72	1.5954
2286.14	1.00075
2287.56	0.977966
2288.98	0.33539
2290.4	0.608187
2291.82	0.734642
2293.24	0.419901
2294.66	0.579321
2296.08	0.591394
2297.5	0.783487
2298.92	0.467974
2300.34	0.480335
2301.76	0.837626
2303.17	0.342731
2304.59	-0.00462723
2306.01	0.550781
2307.43	0.333817
2308.84	0.477209
2310.26	0.323545
2311.68	0.563734
2313.09	-0.0680981
2314.51	0.287975
2315.92	0.744541
2317.34	-0.0819283
2318.75	0.410351
2320.17	0.39147
2321.58	-0.619574
2323	0.263186
2324.41	1.19103
2325.82	0.958956
2327.24	0.723547
2328.65	1.16246
2330.06	0.925858
2331.48	0.427835
2332.89	0.278051
2334.3	-0.0673714
2335.71	-0.0830956
2337.12	0.936481
2338.54	0.753298
2339.95	-0.0564842
2341.36	0.430088
2342.77	0.209295
2344.18	-0.503307
2345.59	-0.0672207
2347	0.0904274
2348.41	-0.210382
2349.82	0.0283012
2351.23	0.0363045
2352.64	0.401688
2354.04	0.748182
2355.45	0.391626
2356.86	0.637566
2358.27	0.15094
2359.68	0.104288
2361.08	-0.0394688
2362.49	-0.977417
2363.9	0.191935
2365.3	0.242338
2366.71	-0.11108
2368.12	0.0217323
2369.52	-0.279261
2370.93	-0.480528
2372.33	0.319874
2373.74	0.30022
2375.14	0.039959
2376.55	0.213646
2377.95	0.224257
2379.36	0.10327
2380.76	0.797888
2382.16	0.157211
2383.57	0.685333
2384.97	0.44379
2386.37	0.171644
2387.78	-0.098156
2389.18	0.240789
2390.58	0.151497
2391.98	-0.205988
2393.38	-0.0677929
2394.79	0.32637
2396.19	-0.152781
2397.59	-0.169456
2398.99	0.00567055
2400.39	0.00695229
2401.79	0.437723
2403.19	-0.0208912
2404.59	0.139208
2405.99	0.0435905
2407.39	-0.291815
2408.78	0.68788
2410.18	0.0490131
2411.58	-0.271946
2412.98	0.50165
2414.38	0.501461
2415.77	0.219275
2417.17	0.27223
2418.57	-0.274639
2419.97	0.303486
2421.36	0.406422
2422.76	0.429487
2424.15	-0.371937
2425.55	0.236855
2426.95	0.45059
2428.34	0.729532
2429.74	0.15419
2431.13	0.626987
2432.52	-0.645636
2433.92	0.239517
2435.31	0.0905342
2436.71	0.192787
2438.1	0.0219193
2439.49	-0.0879402
2440.89	0.435627
2442.28	0.259249
2443.67	0.399767
2445.06	0.50808
2446.46	0.187899
2447.85	0.390692
2449.24	0.498211
2450.63	-0.343943
2452.02	0.271715
2453.41	0.0498676
2454.8	0.0671101
2456.19	0.133186
2457.58	0.65863
2458.97	0.85157
2460.36	0.537249
2461.75	0.0475082
2463.14	-0.36451
2464.53	0.0125866
2465.92	0.546669
2467.31	0.101368
2468.69	0.129705
2470.08	0.126076
2471.47	0.0585155
2472.86	0.304762
2474.24	0.20282
2475.63	0.382854
2477.02	0.436085
2478.4	-0.358978
2479.79	0.197079
2481.17	-0.533178
2482.56	-0.0246487
2483.94	0.184723
2485.33	-0.0615788
2486.72	0.362221
2488.1	-0.0910301
2489.48	0.203411
2490.87	0.169888
2492.25	0.106321
2493.64	0.293419
2495.02	0.405222
2496.4	0.193861
2497.79	0.340807
2499.17	-0.00718117
2500.55	0.155132
2501.93	0.222935
2503.31	-0.452492
2504.69	0.0439777
2506.08	-0.155243
2507.46	0.0456295
2508.84	0.0156498
2510.22	-0.151676
2511.6	-0.547575
2512.98	0.254408
2514.36	0.336857
2515.74	0.283178
2517.12	-0.166611
2518.5	1.11284
2519.88	0.236708
2521.25	0.216274
2522.63	-0.44648
2524.01	-0.179548
2525.39	0.542791
2526.77	-0.000558853
2528.14	-0.0858135
2529.52	-0.184067
2530.9	0.252787
2532.27	0.312799
2533.65	0.360353
2535.03	-0.152731
2536.4	-0.149286
2537.78	0.111151
2539.15	-0.587177
2540.53	-0.0721054
2541.9	-0.408073
2543.28	-0.303337
2544.65	0.333855
2546.03	0.0935402
2547.4	-0.0381622
2548.77	0.635872
2550.15	0.0509262
2551.52	-0.231575
2552.89	-0.288231
2554.27	-0.25584
2555.64	0.669905
2557.01	0.335119
2558.38	0.394463
2559.75	0.545233
2561.12	0.211992
2562.5	-0.0744095
2563.87	0.185932
2565.24	0.098587
2566.61	0.072361
2567.98	0.728294
2569.35	0.141531
2570.72	0.600504
2572.09	0.847401
2573.46	0.45783
2574.83	-0.310602
2576.19	0.527979
2577.56	0.290035
2578.93	0.294222
2580.3	-0.172338
2581.67	0.527826
2583.04	-0.167706
2584.4	0.0308342
2585.77	0.350481
2587.14	0.0791664
2588.5	-0.222038
2589.87	0.62878
2591.23	-0.475557
2592.6	0.192204
2593.97	0.44915
2595.33	-0.462149
2596.7	0.305429
2598.06	-0.00348854
2599.43	0.276802
2600.79	0.269836
2602.15	-0.023098
2603.52	0.304487
2604.88	0.0897083
2606.25	-0.124491
2607.61	0.490206
2608.97	0.379267
2610.33	0.28109
2611.7	-0.00021553
2613.06	0.00231552
2614.42	0.769392
2615.78	0.0487003
2617.15	0.36426
2618.51	0.0364056
2619.87	0.0249119
2621.23	0.254131
2622.59	-0.143488
2623.95	-0.0921307
2625.31	0.108303
2626.67	-0.258701
2628.03	-0.0148773
2629.39	-0.0996094
2630.75	-0.140009
2632.1	0.0126934
2633.46	0.0759239
2634.82	-0.187548
2636.18	0.0535755
2637.54	0.175722
2638.89	-0.412951
2640.25	-0.112719
2641.61	0.157988
2642.97	0.591362
2644.32	-0.0679913
2645.68	0.630701
2647.03	0.0450439
2648.39	0.0481358
2649.75	0.079031
2651.1	-0.0238342
2652.46	0.48967
2653.81	0.841129
2655.17	0.387228
2656.52	0.507502
2657.88	-0.101883
2659.23	-0.0358276
2660.58	-0.173697
2661.94	0.65288
2663.29	0.0897923
2664.64	0.503754
2666	0.565517
2667.35	-0.117092
2668.7	0.817549
2670.05	-0.38768
2671.4	0.67812
2672.76	0.145407
2674.11	0.32617
2675.46	0.0143948
2676.81	0.110271
2678.16	0.105839
2679.51	-0.0419579
2680.86	0.551739
2682.21	0.161907
2683.56	0.0643902
2684.91	-0.219818
2686.26	0.00460434
2687.61	0.22896
2688.96	-0.0279503
2690.3	-0.346272
2691.65	0.536617
2693	0.168106
2694.35	0.145948
2695.7	0.181351
2697.04	1.01461
2698.39	0.865122
2699.74	0.0820713
2701.08	0.634737
2702.43	0.17676
2703.77	0.503098
2705.12	-0.270979
2706.47	0.535294
2707.81	0.442135
2709.16	0.0577469
2710.5	0.325788
2711.85	0.535341
2713.19	0.497717
2714.53	0.270966
2715.88	0.509233
2717.22	0.55829
2718.57	0.432285
2719.91	0.363695
2721.25	0.337833
2722.59	0.616634
2723.94	0.210402
2725.28	0.851278
2726.62	0.938244
2727.96	0.893553
2729.3	0.644627
2730.65	0.817413
2731.99	0.437233
2733.33	0.566448
2734.67	-0.0167484
2736.01	-0.0613022
2737.35	-0.0183163
2738.69	0.76634
2740.03	-0.209181
2741.37	0.45763
2742.71	0.599585
2744.05	0.115118
2745.38	0.501379
2746.72	0.262014
2748.06	0.312756
2749.4	0.334509
2750.74	0.255108
2752.07	-0.258661
2753.41	0.605217
2754.75	0.758951
2756.09	0.15971
2757.42	0.0968838
2758.76	0.0635414
2760.09	0.363853
2761.43	0.20196
2762.77	0.330465
2764.1	0.199171
2765.44	0.1113
2766.77	0.0949097
2768.11	0.0911961
2769.44	0.113863
2770.77	-0.140976
2772.11	-0.06604
2773.44	0.670462
2774.77	0.265594
2776.11	-0.0666695
2777.44	0.00532341
2778.77	-0.223711
2780.11	-0.207081
2781.44	-0.491411
2782.77	-0.100655
2784.1	0.547628
2785.43	0.062727
2786.77	0.66736
2788.1	-0.359623
2789.43	0.0324669
2790.76	0.125666
2792.09	-0.165665
2793.42	0.416092
2794.75	0.040144
2796.08	-0.00763702
2797.41	0.329197
2798.74	0.00784111
2800.07	-0.000135422
2801.4	-0.151299
2802.72	-0.459536
2804.05	0.129848
2805.38	-0.0798702
2806.71	0.051075
2808.04	-0.175013
2809.36	0.706926
2810.69	-0.514275
2812.02	-0.171516
2813.34	0.655241
2814.67	0.520115
2816	0.175426
2817.32	0.201654
2818.65	0.470057
2819.97	0.15741
2821.3	0.127369
2822.62	0.0960083
2823.95	0.516779
2825.27	1.0641
2826.6	0.209272
2827.92	0.92742
2829.25	0.867897
2830.57	0.894304
2831.89	1.36
2833.22	0.806412
2834.54	1.37042
2835.86	1.26816
2837.18	1.33461
2838.51	2.23471
2839.83	2.4975
2841.15	3.05725
2842.47	3.80141
2843.79	4.53265
2845.11	4.6295
2846.43	4.7561
2847.76	6.28277
2849.08	6.63658
2850.4	6.41019
2851.72	5.84342
2853.04	7.23991
2854.36	7.109
2855.67	6.92112
2856.99	7.51021
2858.31	8.01452
2859.63	7.91139
2860.95	7.56783
2862.27	8.0142
2863.58	7.83843
2864.9	9.15777
2866.22	9.19263
2867.54	8.90375
2868.85	9.6736
2870.17	10.6839
2871.49	10.8205
2872.8	10.0403
2874.12	10.8789
2875.43	11.517
2876.75	11.8702
2878.07	11.9112
2879.38	12.12
2880.7	12.3576
2882.01	12.4987
2883.32	12.6707
2884.64	12.6627
2885.95	12.9653
2887.27	12.9312
2888.58	13.1626
2889.89	13.7003
2891.21	13.8847
2892.52	13.2963
2893.83	13.7166
2895.14	14.3055
2896.46	14.0423
2897.77	14.44
2899.08	14.3787
2900.39	15.257
2901.7	15.3531
2903.01	14.9884
2904.32	16.7501
2905.63	16.7781
2906.94	16.1923
2908.25	16.8537
2909.56	17.3919
2910.87	18.1699
2912.18	18.8503
2913.49	19.0247
2914.8	18.9851
2916.11	19.6123
2917.42	20.4024
2918.72	20.4894
2920.03	20.268
2921.34	21.6567
2922.65	20.8676
2923.95	21.9561
2925.26	22.2235
2926.57	22.5767
2927.88	23.4474
2929.18	22.2898
2930.49	23.0039
2931.79	23.0315
2933.1	22.7646
2934.4	22.5956
2935.71	23.1816
2937.01	22.7618
2938.32	21.8535
2939.62	22.4693
2940.93	21.0884
2942.23	19.5563
2943.54	20.0678
2944.84	19.1855
2946.14	18.5438
2947.45	18.6729
2948.75	17.388
2950.05	16.4771
2951.35	15.631
2952.66	15.6198
2953.96	14.6248
2955.26	14.4409
2956.56	14.4271
2957.86	14.1806
2959.16	13.8571
2960.46	14.185
2961.77	12.9207
2963.07	13.3823
2964.37	13.1976
2965.66	12.5032
2966.96	12.5628
2968.26	12.0144
2969.56	10.9153
2970.86	11.3907
2972.16	11.1776
2973.46	11.1905
2974.76	11.0768
2976.06	10.2998
2977.35	9.8714
2978.65	9.50922
2979.95	10.0015
2981.25	8.92821
2982.54	9.06388
2983.84	8.01921
2985.14	8.84714
2986.43	7.55654
2987.73	7.68898
2989.02	6.43271
2990.32	6.83535
2991.62	6.61858
2992.91	6.37128
2994.21	5.62929
2995.5	5.33454
2996.8	5.83855
2998.09	5.2189
2999.38	4.96505
3000.68	4.36211
3001.97	4.32163
3003.26	3.93186
3004.56	3.76675
3005.85	3.47517
3007.14	2.52457
3008.43	2.8463
3009.73	2.42467
3011.02	2.84035
3012.31	2.65409
3013.6	2.32859
3014.89	2.0463
3016.19	1.73808
3017.48	1.59894
3018.77	1.80899
3020.06	1.3376
3021.35	1.28288
3022.64	0.643206
3023.93	1.26542
3025.22	1.09468
3026.5	1.2008
3027.79	1.00326
3029.08	0.352116
3030.37	0.658323
3031.66	0.925833
3032.95	0.436123
3034.24	0.816952
3035.52	0.741308
3036.81	0.635605
3038.1	0.815805
3039.39	0.289988
3040.67	-0.0178318
3041.96	0.689068
3043.25	0.461819
3044.53	0.976082
3045.82	0.918249
3047.1	1.12465
3048.39	0.0660124
3049.67	0.322896
3050.96	1.37444
3052.24	0.762898
3053.53	0.806546
3054.81	0.535214
3056.1	0.930247
3057.38	0.654834
3058.67	1.00485
3059.95	0.659478
3061.23	1.14538
3062.52	0.544697
3063.8	0.545589
3065.08	0.984694
3066.36	0.352737
3067.65	0.919345
3068.93	0.752699
3070.21	0.313585
3071.49	0.6753
3072.77	0.0826941
3074.05	0.330862
3075.33	0.590583
3076.61	-0.0333147
3077.89	0.131519
3079.17	0.841099
3080.45	0.698803
3081.73	0.261436
3083.01	0.78984
3084.29	0.424426
3085.57	-0.348002
3086.85	0.235926
3088.13	-0.0636282
3089.41	-0.0794096
3090.68	0.528204
3091.96	-0.316264
3093.24	0.0336218
3094.52	0.072155
3095.79	0.0299892
3097.07	-0.0931931
3098.35	0.0953989
3099.62	-0.556338
3100.9	0.146847
3102.18	-0.0981073
3103.45	0.388801
3104.73	0.226881
3106	0.675577
3107.28	-0.0106001
3108.55	-0.0721207
3109.83	0.139248
3111.1	0.406929
3112.38	0.229466
3113.65	0.161257
3114.93	-0.0695515
3116.2	-0.0571661
3117.47	0.414889
3118.75	0.315345
3120.02	0.769834
3121.29	0.232668
3122.57	0.467307
3123.84	0.593099
3125.11	1.23377
3126.38	0.981624
3127.65	1.02863
3128.92	0.819835
3130.2	0.463321
3131.47	-0.0413275
3132.74	0.0218363
3134.01	0.705744
3135.28	0.605182
3136.55	0.355334
3137.82	0.738683
3139.09	1.14782
3140.36	0.586987
3141.63	1.22424
3142.9	0.638433
3144.17	0.887095
3145.43	0.761074
3146.7	1.24004
3147.97	1.34474
3149.24	0.874898
