200.554	0.159197
202.369	0.156946
204.183	0.155608
205.999	0.106745
207.813	0.228611
209.626	-0.913377
211.439	0.446705
213.253	-0.016016
215.065	0.855212
216.877	0.0284309
218.688	-0.385072
220.5	0.195079
222.312	-0.022603
224.123	-0.214838
225.933	0.367151
227.742	-0.0414276
229.552	-0.232428
231.361	0.348835
233.171	-0.0353565
234.98	0.0877552
236.787	0.236285
238.595	0.338702
240.402	-0.0866594
242.209	0.0204802
244.015	-0.329265
245.822	-0.510241
247.627	-0.13715
249.435	0.354746
251.24	0.626721
253.045	-0.020853
254.849	0.947034
256.653	0.105626
258.457	0.254066
260.26	0.428246
262.063	-0.527835
263.866	-0.61501
265.668	0.190411
267.47	0.345936
269.271	0.3327
271.073	0.00549316
272.873	0.135493
274.674	0.722496
276.474	0.56074
278.274	0.325227
280.073	-0.0562563
281.872	0.499713
283.671	0.259706
285.47	0.523512
287.268	0.0902786
289.065	0.137633
290.863	-0.101659
292.66	-0.195579
294.456	0.190583
296.253	-0.354554
298.049	0.392411
299.844	0.351083
301.637	0.309746
303.432	0.10068
305.227	0.296501
307.021	0.873035
308.815	0.0186911
310.609	-0.143137
312.402	0.458548
314.195	0.323484
315.987	0.380849
317.777	0.154283
319.569	0.167423
321.36	0.181801
323.151	-0.0652628
324.942	-0.0495853
326.733	-0.153039
328.521	-0.208932
330.31	0.475771
332.1	-0.298823
333.889	0.503702
335.677	-0.20289
337.464	-0.480758
339.252	0.268468
341.039	0.394157
342.826	0.447419
344.611	0.285697
346.398	0.220266
348.184	0.298924
349.97	-0.0993099
351.754	-0.234717
353.539	0.941921
355.324	0.494888
357.106	0.190099
358.89	0.170443
360.674	-0.707418
362.455	0.223719
364.239	0.154216
366.021	0.179283
367.804	0.156202
369.584	-0.270613
371.366	-0.460376
373.145	0.272407
374.926	0.436146
376.707	0.623295
378.485	0.551303
380.265	-0.0848846
382.045	0.458055
383.822	0.319427
385.601	-0.240828
387.378	0.305013
389.156	-0.369882
390.934	0.577053
392.71	0.350393
394.487	0.147923
396.262	0.157228
398.038	0.166714
399.813	-0.0822639
401.588	-0.378553
403.362	0.146723
405.137	0.506933
406.912	0.208925
408.685	-0.136429
410.459	-0.0123978
412.23	-0.0760479
414.004	-0.162664
415.775	0.0564709
417.548	0.487611
419.318	0.168542
421.089	-0.291148
422.86	-0.117333
424.63	-0.178834
426.401	0.768389
428.17	0.25935
429.94	0.336846
431.708	0.0623198
433.478	-0.211798
435.245	0.265471
437.012	0.179502
438.781	0.304145
440.547	0.755909
442.315	0.501818
444.081	-0.176009
445.846	0.0121651
447.613	-0.713729
449.378	0.385174
451.142	-0.0128813
452.908	-0.223165
454.672	0.126915
456.435	0.103577
458.2	0.313066
459.963	0.289673
461.725	0.197279
463.489	-0.404781
465.251	0.180766
467.012	0.00207043
468.775	0.337155
470.536	0.371937
472.296	0.0349951
474.056	0.348918
475.817	0.288834
477.576	0.156848
479.335	0.605567
481.094	0.703977
482.854	-0.152289
484.612	0.343451
486.37	-0.18389
488.127	-0.103702
489.886	0.281667
491.642	-0.265186
493.398	-0.0646963
495.154	0.0428047
496.91	0.220673
498.667	0.16432
500.422	0.59994
502.176	0.214192
503.93	-0.360883
505.684	-0.0210695
507.438	0.0357189
509.191	-0.026433
510.946	0.54528
512.698	-0.155027
514.45	0.437498
516.202	0.275818
517.954	0.371822
519.705	0.0672407
521.456	0.114712
523.206	-0.307929
524.956	0.349356
526.706	0.677535
528.456	-0.00275612
530.207	-0.0497217
531.956	0.371418
533.704	-0.0746994
535.452	0.671582
537.2	0.574085
538.947	-0.201527
540.694	0.11948
542.441	0.089694
544.188	0.711017
545.934	0.238823
547.68	0.673013
549.425	0.109697
551.17	-0.243743
552.915	0.305806
554.659	0.438489
556.403	0.57117
558.145	-0.241433
559.889	-0.245743
561.632	0.095726
563.375	0.000163078
565.117	0.135117
566.859	-0.0281219
568.601	-0.144528
570.342	0.199069
572.083	0.474871
573.824	0.132773
575.565	0.0905132
577.303	0.279194
579.043	0.147808
580.782	0.0858746
582.521	-0.251816
584.26	0.030426
585.998	0.63396
587.734	0.776572
589.472	-0.232265
591.21	0.11541
592.947	-0.112552
594.684	0.234543
596.418	-0.246585
598.154	0.238544
599.89	0.0791426
601.626	-0.380031
603.361	0.355753
605.094	0.0322618
606.828	0.420197
608.562	0.27883
610.296	0.36702
612.027	0.272072
613.761	-0.143043
615.493	0.290734
617.224	-0.146262
618.956	0.813562
620.688	0.420991
622.419	0.325101
624.149	0.411449
625.879	0.246433
627.61	-0.145676
629.338	0.605332
631.068	0.97025
632.797	0.766618
634.525	0.038928
636.254	0.817262
637.98	0.521142
639.708	0.291064
641.436	0.10414
643.162	0.188828
644.889	0.568259
646.614	0.333193
648.34	0.0320368
650.067	0.0974989
651.791	0.279899
653.516	0.102115
655.239	0.427449
656.964	0.618729
658.687	0.469262
660.411	0.501596
662.133	1.08063
663.857	0.538465
665.58	0.633674
667.301	0.384171
669.024	-0.140517
670.744	0.0215645
672.464	0.688897
674.186	0.488903
675.905	0.359221
677.626	0.138566
679.345	-0.0135775
681.065	0.775707
682.783	0.276205
684.503	0.096467
686.22	0.951105
687.939	0.768272
689.656	0.883835
691.372	0.422841
693.09	0.721405
694.806	0.512514
696.523	0.763324
698.239	0.8978
699.953	1.62925
701.67	1.00199
703.384	0.834229
705.098	0.734935
706.813	0.841832
708.526	1.15455
710.239	0.80194
711.954	0.770058
713.666	0.898047
715.378	0.637147
717.091	1.19855
718.802	1.21158
720.513	0.335923
722.226	0.919208
723.936	1.29677
725.646	0.968872
727.355	1.07278
729.067	1.26684
730.776	0.870718
732.484	0.565606
734.192	1.21111
735.902	1.51633
737.61	0.918155
739.317	0.998455
741.024	1.57539
742.731	1.31917
744.439	1.06452
746.145	1.10392
747.851	1.25703
749.556	0.848951
751.262	1.25179
752.966	0.801061
754.673	1.25132
756.377	0.780426
758.081	1.05351
759.784	0.629714
761.487	0.97286
763.19	1.49745
764.892	1.32251
766.594	1.10106
768.296	0.855103
770	1.87333
771.701	1.57836
773.402	1.50821
775.102	1.36982
776.803	1.63894
778.503	2.22582
780.202	1.79657
781.901	1.66221
783.6	1.52782
785.299	1.07535
786.997	2.00154
788.695	1.65714
790.393	1.6945
792.09	1.41293
793.787	2.34966
795.484	2.13399
797.18	1.78437
798.877	1.70709
800.572	1.65406
802.268	2.50223
803.963	2.09094
805.658	1.11781
807.35	2.12203
809.044	1.77669
810.738	1.9917
812.432	1.44313
814.125	1.99272
815.818	1.86959
817.51	1.88082
819.202	1.80267
820.894	1.79178
822.584	1.71433
824.275	1.54853
825.966	2.1864
827.657	1.42245
829.347	1.57443
831.037	1.70685
832.725	1.32942
834.414	1.22098
836.103	1.78239
837.792	1.49611
839.481	2.12396
841.167	1.79028
842.854	2.37123
844.542	2.08044
846.229	1.56667
847.914	1.54611
849.6	1.79623
851.287	2.00418
852.973	1.49697
854.656	1.30363
856.341	0.885043
858.026	1.65632
859.711	1.61729
861.393	1.95931
863.077	1.17374
864.761	1.08499
866.442	1.2659
868.125	1.22083
869.808	1.6715
871.489	1.26483
873.171	0.92552
874.85	2.09782
876.532	1.69073
878.213	1.64464
879.892	1.25982
881.572	1.37121
883.251	1.5948
884.931	1.38843
886.61	1.36138
888.287	0.904255
889.966	0.964766
891.643	0.325304
893.321	1.12683
894.997	1.81352
896.675	1.12676
898.352	0.70991
900.028	1.05577
901.704	1.04164
903.379	1.51931
905.055	0.878258
906.729	1.44424
908.404	1.58584
910.077	1.26031
911.75	1.24769
913.425	1.08011
915.097	1.04635
916.771	0.968296
918.443	1.17842
920.116	1.47678
921.787	1.11151
923.46	1.21201
925.13	0.894139
926.8	0.997697
928.472	1.25712
930.141	1.36301
931.813	1.75626
933.481	0.980448
935.15	0.624065
936.82	0.863601
938.488	1.17002
940.156	0.859962
941.825	0.881755
943.492	1.03655
945.158	0.639446
946.827	0.90341
948.493	1.18784
950.158	1.20564
951.824	0.538451
953.491	1.15092
955.156	0.50765
956.82	0.616548
958.486	0.595869
960.15	0.334688
961.814	1.04631
963.477	0.741921
965.142	0.678918
966.804	1.12239
968.467	0.457203
970.129	0.962834
971.79	0.737653
973.454	0.601438
975.115	0.134793
976.776	0.885987
978.436	0.753861
980.096	0.489412
981.756	0.224426
983.417	0.179561
985.077	1.04069
986.736	1.23575
988.394	0.499868
990.052	0.360618
991.71	0.220978
993.368	0.0150986
995.025	1.20016
996.682	0.3764
998.341	0.347275
999.998	1.44175
1001.65	0.354422
1003.31	0.500474
1004.97	0.338174
1006.62	0.417715
1008.28	0.980317
1009.93	0.664686
1011.58	0.305986
1013.24	0.737064
1014.89	0.488973
1016.54	1.35792
1018.2	0.279137
1019.85	0.754819
1021.5	0.290937
1023.16	0.243532
1024.81	0.349908
1026.46	0.303753
1028.11	-0.0701532
1029.76	0.691477
1031.41	0.534407
1033.06	0.572523
1034.71	0.456452
1036.36	0.53556
1038.01	0.396015
1039.66	1.30141
1041.31	1.14029
1042.95	0.458916
1044.6	0.540198
1046.25	0.883729
1047.9	1.07677
1049.54	0.83691
1051.19	0.663268
1052.84	0.772677
1054.48	0.273995
1056.13	0.600993
1057.77	1.01481
1059.42	0.863009
1061.06	0.427902
1062.71	0.0355597
1064.35	0.533926
1066	0.835596
1067.64	0.940542
1069.28	0.41451
1070.93	0.583243
1072.57	0.10055
1074.21	0.204499
1075.85	0.938272
1077.49	0.631926
1079.13	0.131568
1080.78	0.0655479
1082.42	0.801788
1084.06	0.474705
1085.7	0.14631
1087.34	0.639748
1088.97	-0.0383997
1090.61	0.472912
1092.25	1.24171
1093.89	0.972086
1095.53	0.681574
1097.17	0.263004
1098.8	0.557056
1100.44	0.701568
1102.08	0.223614
1103.71	0.478879
1105.35	-0.211256
1106.99	0.131547
1108.62	0.215923
1110.26	0.299321
1111.89	0.273841
1113.52	0.0536823
1115.16	0.326475
1116.79	0.147929
1118.43	0.612832
1120.06	0.585007
1121.69	0.365378
1123.32	0.553522
1124.96	0.314476
1126.59	0.867697
1128.22	0.523213
1129.85	0.307754
1131.48	0.734195
1133.11	0.134691
1134.75	0.197789
1136.37	0.132074
1138	0.364616
1139.63	0.0406303
1141.26	0.0790081
1142.89	0.180942
1144.52	0.58149
1146.15	0.27879
1147.78	0.701703
1149.4	0.0598879
1151.03	-0.048727
1152.66	0.268583
1154.28	0.968617
1155.91	0.263235
1157.54	0.473038
1159.16	-0.188986
1160.79	0.213257
1162.41	0.276132
1164.04	0.212279
1165.66	0.191358
1167.29	0.23396
1168.91	-0.340914
1170.53	0.71957
1172.16	0.7578
1173.78	-0.0972939
1175.4	0.553998
1177.02	-0.258792
1178.65	-0.180524
1180.27	-0.292282
1181.89	0.569869
1183.51	-0.132864
1185.13	0.263885
1186.75	0.300331
1188.37	0.229796
1189.99	0.0101509
1191.61	0.147243
1193.23	-0.0957003
1194.85	0.186172
1196.47	-0.056778
1198.08	-0.256396
1199.7	-0.18222
1201.32	0.269825
1202.94	-0.362245
1204.55	-0.0315285
1206.17	0.509368
1207.79	0.216717
1209.4	0.612691
1211.02	0.340402
1212.63	0.316928
1214.25	0.354047
1215.86	0.430808
1217.48	0.464272
1219.09	0.0812159
1220.71	0.155542
1222.32	0.375482
1223.93	0.368199
1225.54	0.382941
1227.16	0.233441
1228.77	0.292108
1230.38	-0.14441
1231.99	-0.0629311
1233.6	0.660225
1235.22	0.599005
1236.83	-0.0605869
1238.44	0.872332
1240.05	0.296693
1241.66	0.982632
1243.26	0.468625
1244.87	1.00903
1246.48	0.410497
1248.09	0.638772
1249.7	0.53532
1251.31	0.928129
1252.92	0.907362
1254.52	0.328805
1256.13	0.661297
1257.74	0.581181
1259.34	0.936596
1260.95	1.06531
1262.55	0.449036
1264.16	1.386
1265.76	1.07984
1267.37	0.378982
1268.97	0.319699
1270.58	0.591264
1272.18	0.778993
1273.78	0.509685
1275.39	0.654149
1276.99	0.859891
1278.59	1.04405
1280.2	0.7927
1281.8	0.396434
1283.4	0.890162
1285	1.05312
1286.6	0.534595
1288.2	0.761285
1289.8	0.678713
1291.4	1.0925
1293	0.927586
1294.6	0.823996
1296.2	0.43017
1297.8	0.303611
1299.4	0.794685
1301	0.56226
1302.6	1.17362
1304.19	1.12453
1305.79	0.828168
1307.39	1.23018
1308.99	0.831044
1310.58	1.0885
1312.18	1.07966
1313.77	0.335304
1315.37	0.859988
1316.96	0.751711
1318.56	1.1949
1320.15	1.20918
1321.75	0.733726
1323.34	0.766484
1324.94	0.939896
1326.53	0.583901
1328.12	1.16086
1329.72	0.927051
1331.31	1.24126
1332.9	0.829553
1334.49	0.703149
1336.08	0.21508
1337.67	0.655676
1339.27	0.349392
1340.86	0.444901
1342.45	0.518289
1344.04	1.15261
1345.63	0.419425
1347.22	0.710756
1348.8	0.682484
1350.39	0.476302
1351.98	1.27263
1353.57	0.810509
1355.16	0.869494
1356.75	0.569077
1358.33	0.528113
1359.92	0.68603
1361.51	0.443707
1363.09	0.859176
1364.68	0.695752
1366.27	0.652297
1367.85	0.928225
1369.44	0.88652
1371.02	1.28394
1372.61	1.20493
1374.19	1.04738
1375.77	0.353171
1377.36	1.09169
1378.94	0.894509
1380.52	1.29332
1382.11	0.576798
1383.69	0.814038
1385.27	0.712319
1386.85	0.967904
1388.43	1.28297
1390.02	0.546403
1391.6	0.823126
1393.18	0.544937
1394.76	0.961351
1396.34	0.663561
1397.92	1.19782
1399.5	1.07689
1401.08	1.37108
1402.65	1.03103
1404.23	1.00786
1405.81	0.629302
1407.39	0.726196
1408.97	1.15965
1410.54	0.664944
1412.12	0.466659
1413.7	0.781186
1415.27	1.01572
1416.85	0.618223
1418.43	1.00919
1420	0.9076
1421.58	1.24028
1423.15	1.27895
1424.73	1.51596
1426.3	0.9078
1427.87	0.910243
1429.45	1.20766
1431.02	0.972793
1432.6	1.89794
1434.17	1.48399
1435.74	1.03056
1437.31	1.46232
1438.89	0.951081
1440.46	1.3843
1442.03	1.30735
1443.6	1.87961
1445.17	1.66611
1446.74	1.49206
1448.31	1.65231
1449.88	1.47867
1451.45	1.62002
1453.02	1.62426
1454.59	1.21574
1456.16	1.31856
1457.72	1.65694
1459.29	1.65959
1460.86	1.22765
1462.43	1.01056
1463.99	1.02813
1465.56	1.06437
1467.13	1.41455
1468.69	1.07758
1470.26	1.09499
1471.83	0.995711
1473.39	0.740553
1474.95	0.270475
1476.52	1.23217
1478.08	0.88023
1479.65	1.21438
1481.21	1.05836
1482.78	0.529975
1484.34	0.981291
1485.9	0.315488
1487.47	0.373928
1489.03	1.21422
1490.59	0.50625
1492.15	0.286052
1493.71	0.982286
1495.27	0.77802
1496.84	0.729135
1498.39	0.543994
1499.96	0.806793
1501.52	0.44879
1503.07	0.111993
1504.64	0.144682
1506.19	0.448503
1507.75	0.519115
1509.31	-0.0295019
1510.87	0.753423
1512.43	-0.0657425
1513.98	0.906631
1515.54	0.588944
1517.1	0.579744
1518.65	0.206951
1520.21	0.448423
1521.77	0.479074
1523.32	0.853349
1524.88	-0.186625
1526.44	0.395658
1527.99	0.25209
1529.54	0.849917
1531.1	1.04737
1532.65	0.675981
1534.21	0.438933
1535.76	0.24123
1537.31	0.687133
1538.87	0.396663
1540.42	0.314497
1541.97	0.458601
1543.52	0.432962
1545.07	0.20039
1546.63	0.606639
1548.18	0.486588
1549.73	0.254299
1551.28	0.715406
1552.83	0.240828
1554.38	0.51551
1555.93	0.585571
1557.48	0.638474
1559.03	0.581146
1560.57	0.544201
1562.12	0.620604
1563.67	0.175609
1565.22	0.514664
1566.77	0.741912
1568.31	0.726373
1569.86	1.12112
1571.41	0.470229
1572.95	0.32305
1574.5	1.03445
1576.05	1.27921
1577.59	1.41218
1579.14	0.518719
1580.68	0.521895
1582.23	0.768558
1583.77	1.05346
1585.31	0.965462
1586.86	1.1022
1588.4	0.678013
1589.95	1.09533
1591.49	0.969692
1593.03	0.337961
1594.57	0.698333
1596.11	1.11518
1597.66	0.651776
1599.2	1.25739
1600.74	1.48902
1602.28	1.74007
1603.82	1.5782
1605.36	0.70157
1606.9	0.969424
1608.44	0.408588
1609.98	0.672689
1611.52	1.29162
1613.06	0.837811
1614.6	1.32173
1616.13	0.848158
1617.67	0.844222
1619.21	0.728957
1620.75	0.540214
1622.28	0.76468
1623.82	0.727679
1625.36	0.802988
1626.89	0.858839
1628.43	0.595439
1629.96	1.0416
1631.5	1.20602
1633.04	0.492068
1634.57	1.40322
1636.11	0.467125
1637.64	0.894083
1639.17	0.985691
1640.71	0.909506
1642.24	1.05634
1643.77	0.717908
1645.31	1.04867
1646.84	1.15503
1648.37	1.24238
1649.9	0.56873
1651.43	0.639074
1652.96	1.24831
1654.5	0.968114
1656.03	0.929612
1657.56	1.00221
1659.09	0.999936
1660.62	0.718803
1662.15	0.399723
1663.67	1.26313
1665.2	0.610194
1666.73	0.678364
1668.26	0.987163
1669.79	1.37067
1671.32	1.22092
1672.84	1.03545
1674.37	0.832053
1675.9	0.499647
1677.43	0.700435
1678.95	0.973661
1680.48	0.491858
1682	0.377438
1683.53	0.666834
1685.05	0.221952
1686.58	0.529799
1688.1	0.654407
1689.63	0.66931
1691.15	0.830888
1692.68	0.425067
1694.2	0.952409
1695.72	0.473578
1697.25	0.141192
1698.77	0.101043
1700.29	0.261303
1701.81	0.712672
1703.33	0.597943
1704.86	0.664957
1706.38	0.167435
1707.9	0.0885992
1709.42	0.336756
1710.94	-0.123166
1712.46	0.215623
1713.98	-0.0257435
1715.5	0.222075
1717.02	0.306643
1718.54	-0.0247135
1720.06	-0.138903
1721.57	-0.252748
1723.09	0.120826
1724.61	0.368637
1726.13	0.077158
1727.64	0.219104
1729.16	0.271833
1730.68	0.340886
1732.19	0.512714
1733.71	0.507722
1735.23	0.483684
1736.74	0.387105
1738.26	0.162942
1739.77	0.211613
1741.29	0.0221939
1742.8	0.306387
1744.31	0.0279932
1745.83	0.320328
1747.34	0.216669
1748.85	-0.0598979
1750.37	0.145608
1751.88	-0.061296
1753.39	-0.309851
1754.91	-0.0214262
1756.42	0.315391
1757.93	0.294886
1759.44	-0.0146065
1760.95	-0.0213642
1762.46	0.189422
1763.97	-0.206599
1765.48	-0.0285673
1766.99	-0.14347
1768.5	0.245745
1770.01	0.165597
1771.52	0.340147
1773.03	0.0545626
1774.54	-0.156438
1776.04	-0.0710673
1777.55	0.363435
1779.06	0.273632
1780.57	0.0681667
1782.07	0.0276098
1783.58	-0.0488906
1785.09	0.136868
1786.59	0.485647
1788.1	0.243896
1789.6	0.281287
1791.11	0.17907
1792.61	0.222906
1794.12	0.14326
1795.62	0.118539
1797.13	-0.0239544
1798.63	0.138945
1800.13	0.133333
1801.64	-0.116292
1803.14	-0.0406981
1804.64	0.110935
1806.15	0.0500565
1807.65	0.0366316
1809.15	0.31704
1810.65	0.361503
1812.15	-0.0373507
1813.65	0.0512943
1815.16	0.165654
1816.66	0.0942497
1818.15	-0.0817823
1819.66	0.31666
1821.16	0.200421
1822.65	0.430199
1824.15	0.362858
1825.65	0.0879054
1827.15	-0.139986
1828.65	0.392438
1830.15	0.0716119
1831.64	-0.0278115
1833.14	0.0553465
1834.64	-0.273112
1836.14	-0.284267
1837.63	0.00522375
1839.13	-0.186267
1840.62	0.0827203
1842.12	-0.0577946
1843.62	0.0798516
1845.11	0.0178194
1846.61	0.344514
1848.1	0.0732155
1849.6	0.232855
1851.09	0.186502
1852.58	0.110106
1854.08	-0.25205
1855.57	0.350683
1857.06	0.153496
1858.55	0.19365
1860.05	-0.0643525
1861.54	0.176016
1863.03	0.195996
1864.52	-0.0872736
1866.01	0.293599
1867.5	0.198921
1869	-0.241608
1870.49	0.347865
1871.98	-0.441516
1873.47	0.174953
1874.96	0.16878
1876.44	0.029191
1877.93	-0.187142
1879.42	0.182182
1880.91	-0.250743
1882.4	-0.0476298
1882.47	-0.0395179
1883.96	0.202737
1885.46	-0.0089283
1886.95	0.144626
1888.44	0.123489
1889.94	0.0851064
1891.43	-0.143731
1892.93	0.428677
1894.42	0.0289178
1895.91	-0.00440884
1897.4	0.171682
1898.89	0.365186
1900.39	0.00118065
1901.88	-0.0510545
1903.37	0.416985
1904.86	0.274981
1906.35	-0.00659895
1907.84	0.0420108
1909.33	0.0910645
1910.82	0.192921
1912.31	0.226109
1913.8	0.0343151
1915.29	-0.105294
1916.77	0.274996
1918.26	0.0480084
1919.75	0.236609
1921.24	0.0439286
1922.73	0.492385
1924.21	0.387389
1925.7	0.110303
1927.19	0.0591984
1928.67	-0.164495
1930.16	-0.163132
1931.64	-0.197036
1933.13	0.27004
1934.61	-0.112791
1936.1	0.195345
1937.58	0.0179563
1939.07	-0.0732155
1940.55	-0.164051
1942.04	0.194611
1943.52	0.208813
1945	-0.121126
1946.49	0.652782
1947.97	0.409237
1949.45	0.406402
1950.93	0.264948
1952.42	-0.0836449
1953.9	0.0663991
1955.38	-0.0587969
1956.86	-0.0633073
1958.34	0.550619
1959.82	0.032352
1961.3	-0.17632
1962.78	0.215269
1964.26	-0.0789323
1965.74	-0.0307841
1967.22	0.205013
1968.7	-0.363965
1970.18	-0.0951166
1971.65	0.190214
1973.13	0.0142202
1974.61	0.00911903
1976.09	-0.0128756
1977.57	0.391133
1979.04	0.062757
1980.52	-0.0780902
1982	0.444056
1983.47	0.438635
1984.95	-0.24603
1986.42	0.376103
1987.9	0.285454
1989.37	0.246013
1990.85	0.308734
1992.32	-0.202872
1993.8	0.216682
1995.27	0.231014
1996.75	-0.0752578
1998.22	-0.246237
1999.69	0.359148
2001.17	0.0522671
2002.64	0.318718
2004.11	0.298179
2005.58	0.126284
2007.05	-0.112222
2008.53	-0.063529
2010	-0.350847
2011.47	-0.0148053
2012.94	0.287548
2014.41	-0.167818
2015.88	-0.0347672
2017.35	0.383362
2018.82	-0.208226
2020.29	0.359658
2021.76	0.288659
2023.23	0.083715
2024.7	0.21518
2026.16	0.112727
2027.63	0.0618405
2029.1	0.0793109
2030.57	0.366338
2032.03	0.402653
2033.5	0.305141
2034.97	0.442669
2036.44	-0.0415826
2037.9	-0.0224638
2039.37	0.0467525
2040.83	0.0991249
2042.3	0.286346
2043.76	0.0201769
2045.23	-0.0435114
2046.69	-0.0561233
2048.16	0.335801
2049.62	0.0031848
2051.08	0.343851
2052.55	0.110021
2054.01	0.211897
2055.47	0.531473
2056.94	0.209078
2058.4	0.155816
2059.86	0.102435
2061.32	0.301988
2062.79	0.502107
2064.25	0.501065
2065.71	0.517747
2067.17	-0.0874934
2068.63	0.182894
2070.09	0.251627
2071.55	0.0679073
2073.01	0.372316
2074.47	0.339781
2075.93	0.121711
2077.39	0.223286
2078.85	0.543438
2080.31	0.20645
2081.76	0.390986
2083.22	0.507549
2084.68	0.320496
2086.13	0.0151739
2087.59	0.28126
2089.05	0.78202
2090.51	0.39182
2091.96	0.169844
2093.42	0.283625
2094.87	0.0113425
2096.33	0.375867
2097.78	0.186632
2099.24	0.449007
2100.69	0.376216
2102.15	0.40397
2103.6	0.766359
2105.06	0.311671
2106.51	0.375791
2107.96	0.524197
2109.42	0.856283
2110.87	0.287548
2112.32	0.534597
2113.77	0.679976
2115.23	0.357783
2116.68	0.434323
2118.13	0.328253
2119.58	0.455837
2121.03	0.983075
2122.48	0.433663
2123.93	0.648576
2125.38	0.416353
2126.83	0.780846
2128.28	0.680219
2129.73	0.46244
2131.18	0.475591
2132.63	0.785966
2134.08	0.450744
2135.53	1.04248
2136.97	0.84165
2138.42	0.940037
2139.87	0.891387
2141.32	0.811148
2142.76	0.814618
2144.21	0.851775
2145.66	0.657402
2147.1	0.727533
2148.55	0.962798
2150	0.832966
2151.44	0.901035
2152.89	1.01794
2154.33	0.968409
2155.78	1.11726
2157.22	1.08391
2158.66	1.29966
2160.11	0.506079
2161.55	0.741062
2163	1.34256
2164.44	0.718529
2165.88	1.04071
2167.32	1.3467
2168.77	0.77108
2170.21	0.891863
2171.65	0.761349
2173.09	1.32781
2174.53	0.878265
2175.97	0.794191
2177.41	0.876573
2178.85	1.05933
2180.29	1.01019
2181.73	1.02834
2183.17	0.913993
2184.61	0.982827
2186.05	0.985216
2187.49	0.405262
2188.93	0.990081
2190.37	0.809423
2191.81	0.828257
2193.24	0.763221
2194.68	0.996735
2196.12	0.879031
2197.56	0.992579
2198.99	0.971424
2200.43	0.749962
2201.87	0.661482
2203.3	0.722986
2204.74	0.602967
2206.17	0.500541
2207.61	0.597479
2209.04	0.478931
2210.48	0.575016
2211.91	0.521267
2213.35	1.04546
2214.78	0.396016
2216.21	0.523762
2217.65	0.569829
2219.08	0.765346
2220.51	0.219635
2221.95	0.416041
2223.38	0.397569
2224.81	0.295626
2226.24	0.702479
2227.67	0.383825
2229.1	0.540952
2230.54	0.713448
2231.97	0.705088
2233.4	0.385961
2234.83	0.411544
2236.26	0.405393
2237.69	0.335303
2239.11	0.837992
2240.54	-0.0607333
2241.97	0.118851
2243.4	-0.026731
2244.83	0.545694
2246.26	0.611969
2247.69	0.0897703
2249.11	0.479006
2250.54	0.426025
2251.97	0.469251
2253.4	0.0237613
2254.82	-0.0307627
2256.25	0.890049
2257.67	0.400099
2259.1	0.496995
2260.53	0.0610075
2261.95	0.162488
2263.38	-0.432918
2264.8	0.0763063
2266.23	0.472037
2267.65	0.379464
2269.07	0.155828
2270.5	0.517398
2271.92	0.390222
2273.34	-0.144326
2274.77	0.0702891
2276.19	0.480692
2277.61	0.174356
2279.03	-0.132082
2280.46	0.702739
2281.88	0.314582
2283.3	-0.106474
2284.72	0.173994
2286.14	-0.21445
2287.56	0.34419
2288.98	0.331903
2290.4	0.172906
2291.82	0.422696
2293.24	-0.161247
2294.66	0.219605
2296.08	-0.135855
2297.5	0.261601
2298.92	0.217113
2300.34	0.0416274
2301.76	0.259761
2303.17	0.199453
2304.59	0.286957
2306.01	-0.200306
2307.43	-0.293983
2308.84	0.154276
2310.26	0.322848
2311.68	0.129304
2313.09	0.182407
2314.51	0.466309
2315.92	0.273538
2317.34	0.196586
2318.75	0.268311
2320.17	0.191502
2321.58	0.410716
2323	0.298374
2324.41	0.332543
2325.82	0.364737
2327.24	0.312968
2328.65	0.771463
2330.06	0.587189
2331.48	0.420342
2332.89	0.402734
2334.3	0.0568175
2335.71	0.303516
2337.12	0.105681
2338.54	0.301732
2339.95	-0.111365
2341.36	-0.0485544
2342.77	0.112206
2344.18	-0.0880899
2345.59	-0.140401
2347	-0.405339
2348.41	-0.0315099
2349.82	-0.0837827
2351.23	0.190322
2352.64	0.0221705
2354.04	0.1146
2355.45	-0.217558
2356.86	0.0531602
2358.27	0.648563
2359.68	0.251683
2361.08	0.0504951
2362.49	0.222636
2363.9	-0.0915661
2365.3	-0.0491996
2366.71	0.494234
2368.12	-0.0608311
2369.52	0.208703
2370.93	-0.117504
2372.33	0.105584
2373.74	0.200485
2375.14	0.215181
2376.55	0.261746
2377.95	0.435994
2379.36	0.0944824
2380.76	0.249773
2382.16	0.146946
2383.57	0.267785
2384.97	0.244131
2386.37	0.284779
2387.78	0.326097
2389.18	0.24081
2390.58	0.204568
2391.98	0.137556
2393.38	-0.405854
2394.79	-0.168721
2396.19	0.211883
2397.59	-0.0906348
2398.99	-0.0270457
2400.39	0.0369382
2401.79	0.228243
2403.19	0.610112
2404.59	0.0706
2405.99	-0.104267
2407.39	-0.121109
2408.78	0.432358
2410.18	-0.108793
2411.58	0.0478868
2412.98	0.173419
2414.38	0.157458
2415.77	0.380225
2417.17	0.208376
2418.57	0.148139
2419.97	-0.545272
2421.36	0.18659
2422.76	-0.0479856
2424.15	-0.0610414
2425.55	0.179485
2426.95	0.198626
2428.34	0.281923
2429.74	-0.363433
2431.13	-0.0250111
2432.52	0.345624
2433.92	0.0809135
2435.31	-0.105483
2436.71	-0.102515
2438.1	0.0739603
2439.49	-0.00486374
2440.89	-0.00502825
2442.28	0.0895882
2443.67	0.23149
2445.06	-0.134446
2446.46	0.229115
2447.85	-0.168439
2449.24	0.147165
2450.63	0.415182
2452.02	0.00285482
2453.41	0.224376
2454.8	0.161771
2456.19	-0.0742168
2457.58	0.275379
2458.97	-0.166021
2460.36	-0.054276
2461.75	0.214876
2463.14	-0.212254
2464.53	0.039813
2465.92	0.0229359
2467.31	0.337489
2468.69	0.0994678
2470.08	0.145382
2471.47	0.190875
2472.86	0.204232
2474.24	0.0280051
2475.63	0.150362
2477.02	0.0993018
2478.4	0.221028
2479.79	0.185771
2481.17	0.135041
2482.56	0.523045
2483.94	0.205554
2485.33	0.153757
2486.72	0.194848
2488.1	0.0164313
2489.48	-0.00633383
2490.87	0.0330744
2492.25	0.430341
2493.64	0.206492
2495.02	0.0618272
2496.4	-0.314011
2497.79	0.256275
2499.17	-0.257484
2500.55	0.296496
2501.93	-0.00107002
2503.31	0.349587
2504.69	-0.0262136
2506.08	0.0913224
2507.46	0.285334
2508.84	0.171529
2510.22	0.150479
2511.6	0.20673
2512.98	-0.0890169
2514.36	0.121909
2515.74	0.103679
2517.12	0.11673
2518.5	0.176114
2519.88	-0.161709
2521.25	-0.0717349
2522.63	0.0481358
2524.01	-0.0616417
2525.39	0.056757
2526.77	-0.129835
2528.14	0.18632
2529.52	0.0315514
2530.9	0.273453
2532.27	0.106381
2533.65	0.122869
2535.03	-0.0271244
2536.4	-0.0707707
2537.78	0.355974
2539.15	-0.175053
2540.53	-0.00807238
2541.9	0.386143
2543.28	0.158238
2544.65	0.507601
2546.03	0.0692167
2547.4	0.466172
2548.77	0.196448
2550.15	0.306093
2551.52	0.127034
2552.89	-0.00728846
2554.27	-0.09694
2555.64	0.0554361
2557.01	0.207261
2558.38	0.0404487
2559.75	0.237768
2561.12	0.0262332
2562.5	0.466957
2563.87	0.195905
2565.24	-0.0747542
2566.61	0.367055
2567.98	0.339173
2569.35	0.402243
2570.72	0.0560851
2572.09	0.301076
2573.46	0.364267
2574.83	0.0940409
2576.19	0.127028
2577.56	0.40256
2578.93	0.0562534
2580.3	0.391984
2581.67	0.0753522
2583.04	0.22845
2584.4	0.275192
2585.77	0.261244
2587.14	0.20193
2588.5	0.18826
2589.87	0.00799894
2591.23	0.373199
2592.6	0.389448
2593.97	0.0868788
2595.33	0.0410562
2596.7	-0.111555
2598.06	0.264814
2599.43	0.186834
2600.79	-0.087409
2602.15	0.560302
2603.52	0.181491
2604.88	-0.0456142
2606.25	0.376268
2607.61	0.0285583
2608.97	-0.229107
2610.33	0.250596
2611.7	0.171618
2613.06	0.332352
2614.42	0.146595
2615.78	0.186069
2617.15	0.225643
2618.51	-0.228571
2619.87	0.20154
2621.23	0.272732
2622.59	-0.0591521
2623.95	0.0575933
2625.31	-0.00491714
2626.67	0.0666637
2628.03	0.197472
2629.39	0.000244141
2630.75	0.219737
2632.1	0.0671287
2633.46	0.434633
2634.82	0.178141
2636.18	0.619071
2637.54	-0.155836
2638.89	0.284688
2640.25	0.08846
2641.61	0.321489
2642.97	0.554426
2644.32	0.757674
2645.68	0.591763
2647.03	0.2341
2648.39	0.480329
2649.75	0.00431252
2651.1	0.645945
2652.46	-0.0357943
2653.81	0.20833
2655.17	-0.0897322
2656.52	-0.0202274
2657.88	0.313608
2659.23	0.150461
2660.58	-0.0267692
2661.94	0.322199
2663.29	0.275926
2664.64	0.345784
2666	0.487807
2667.35	0.133664
2668.7	0.0712433
2670.05	-0.049058
2671.4	0.0493536
2672.76	0.249875
2674.11	0.319997
2675.46	0.608276
2676.81	0.0407939
2678.16	0.228487
2679.51	-0.0762177
2680.86	0.0984821
2682.21	0.404655
2683.56	0.102903
2684.91	0.0194068
2686.26	0.255489
2687.61	0.46261
2688.96	0.509129
2690.3	0.176721
2691.65	0.133116
2693	-0.0423355
2694.35	0.390577
2695.7	0.301103
2697.04	0.168772
2698.39	0.182436
2699.74	0.284394
2701.08	0.214091
2702.43	0.260929
2703.77	0.0478926
2705.12	0.0960755
2706.47	0.0573316
2707.81	0.018342
2709.16	0.501585
2710.5	-0.0461917
2711.85	0.27702
2713.19	0.658442
2714.53	-0.108266
2715.88	0.273165
2717.22	0.10203
2718.57	0.308833
2719.91	0.29716
2721.25	0.285098
2722.59	0.316278
2723.94	0.434391
2725.28	0.697684
2726.62	0.422086
2727.96	0.408213
2729.3	0.423234
2730.65	0.496324
2731.99	0.292941
2733.33	0.351521
2734.67	-0.302494
2736.01	-0.0835662
2737.35	0.659029
2738.69	0.659839
2740.03	-0.00849771
2741.37	0.486132
2742.71	0.107803
2744.05	0.266797
2745.38	0.294398
2746.72	0.524908
2748.06	0.101851
2749.4	0.0564299
2750.74	-0.0177994
2752.07	0.473659
2753.41	0.109888
2754.75	0.297058
2756.09	-0.167543
2757.42	-0.0235963
2758.76	0.0480995
2760.09	0.409542
2761.43	-0.0535684
2762.77	0.453299
2764.1	0.468435
2765.44	0.208674
2766.77	0.614064
2768.11	-0.210929
2769.44	0.0913196
2770.77	0.666661
2772.11	0.113628
2773.44	0.0800109
2774.77	0.175725
2776.11	0.0695572
2777.44	0.0646138
2778.77	-0.213097
2780.11	0.329143
2781.44	0.339565
2782.77	0.0630312
2784.1	0.20273
2785.43	0.141563
2786.77	-0.0769358
2788.1	-0.437914
2789.43	-0.0682139
2790.76	0.00155401
2792.09	0.0719295
2793.42	-0.329075
2794.75	-0.143885
2796.08	0.198127
2797.41	0.0681119
2798.74	-0.0908408
2800.07	0.0211458
2801.4	0.246927
2802.72	0.443807
2804.05	0.184234
2805.38	0.2664
2806.71	0.12021
2808.04	-0.140103
2809.36	0.21074
2810.69	-0.26263
2812.02	-0.309106
2813.34	0.127587
2814.67	0.253163
2816	-0.0169883
2817.32	0.238298
2818.65	0.635814
2819.97	0.182941
2821.3	0.551747
2822.62	0.168829
2823.95	0.0830336
2825.27	0.152782
2826.6	0.0525866
2827.92	0.561662
2829.25	0.221668
2830.57	-0.0470924
2831.89	0.165637
2833.22	0.463238
2834.54	0.208536
2835.86	0.179914
2837.18	0.363097
2838.51	0.644845
2839.83	0.615132
2841.15	0.910689
2842.47	0.82481
2843.79	1.17764
2845.11	0.937489
2846.43	0.740285
2847.76	1.33483
2849.08	1.10971
2850.4	1.22353
2851.72	1.08252
2853.04	1.08242
2854.36	1.15263
2855.67	1.01072
2856.99	1.10899
2858.31	1.77224
2859.63	1.47496
2860.95	1.48827
2862.27	1.586
2863.58	1.66925
2864.9	1.66756
2866.22	1.67994
2867.54	1.84765
2868.85	1.63495
2870.17	1.67644
2871.49	1.64758
2872.8	1.87219
2874.12	2.12427
2875.43	1.65696
2876.75	1.62557
2878.07	2.08604
2879.38	1.84255
2880.7	1.86664
2882.01	2.03184
2883.32	2.2961
2884.64	2.04151
2885.95	1.70332
2887.27	1.78639
2888.58	2.26197
2889.89	2.20359
2891.21	2.04639
2892.52	1.87477
2893.83	2.13744
2895.14	2.1341
2896.46	2.22939
2897.77	2.5214
2899.08	2.28248
2900.39	2.08627
2901.7	2.36608
2903.01	2.59009
2904.32	2.38058
2905.63	2.45104
2906.94	2.28416
2908.25	2.49559
2909.56	2.79171
2910.87	3.07442
2912.18	2.53141
2913.49	2.51959
2914.8	2.53469
2916.11	2.73042
2917.42	2.67289
2918.72	3.24418
2920.03	3.26946
2921.34	3.15542
2922.65	3.58761
2923.95	3.61549
2925.26	3.23896
2926.57	3.03067
2927.88	3.31169
2929.18	2.73965
2930.49	3.43936
2931.79	3.04824
2933.1	3.16018
2934.4	3.1882
2935.71	3.53773
2937.01	3.41221
2938.32	3.1471
2939.62	3.27348
2940.93	2.89721
2942.23	2.91284
2943.54	2.87348
2944.84	2.84914
2946.14	2.68586
2947.45	2.63486
2948.75	2.47168
2950.05	2.58756
2951.35	2.75813
2952.66	2.33911
2953.96	2.38106
2955.26	2.24069
2956.56	1.98901
2957.86	2.3967
2959.16	2.14856
2960.46	2.16851
2961.77	1.92374
2963.07	2.24042
2964.37	1.9956
2965.66	1.77746
2966.96	1.81082
2968.26	1.82911
2969.56	1.87491
2970.86	2.17379
2972.16	1.54451
2973.46	1.59064
2974.76	1.38342
2976.06	1.52763
2977.35	1.164
2978.65	1.46084
2979.95	1.01016
2981.25	1.31859
2982.54	1.19027
2983.84	1.1607
2985.14	1.18818
2986.43	1.09035
2987.73	0.698599
2989.02	1.06645
2990.32	0.956746
2991.62	0.70612
2992.91	0.707667
2994.21	0.694168
2995.5	0.721905
2996.8	0.692852
2998.09	0.607487
2999.38	0.760828
3000.68	0.423699
3001.97	0.704004
3003.26	0.522055
3004.56	0.494393
3005.85	0.340494
3007.14	0.312206
3008.43	0.311249
3009.73	0.421422
3011.02	0.153552
3012.31	0.12306
3013.6	-0.0469246
3014.89	0.118217
3016.19	0.4369
3017.48	-0.0238662
3018.77	0.0589828
3020.06	-0.0668015
3021.35	-0.0120988
3022.64	-0.124818
3023.93	0.316949
3025.22	-0.03301
3026.5	0.129962
3027.79	0.209938
3029.08	0.0279717
3030.37	-0.235435
3031.66	0.0964537
3032.95	0.111417
3034.24	0.278454
3035.52	-0.148258
3036.81	0.00348997
3038.1	0.181129
3039.39	-0.0697718
3040.67	-0.0739942
3041.96	0.154352
3043.25	-0.00182295
3044.53	0.144228
3045.82	-0.187301
3047.1	-0.133955
3048.39	0.09867
3049.67	0.046227
3050.96	0.117943
3052.24	0.067533
3053.53	0.167251
3054.81	0.0481415
3056.1	-0.11269
3057.38	0.134675
3058.67	-0.0957499
3059.95	0.136787
3061.23	0.110764
3062.52	0.371166
3063.8	-0.237687
3065.08	-0.0565462
3066.36	0.11211
3067.65	-0.248642
3068.93	0.397149
3070.21	-0.0995493
3071.49	0.151054
3072.77	0.155824
3074.05	-0.0715652
3075.33	-0.136508
3076.61	-0.025146
3077.89	-0.0629082
3079.17	0.212274
3080.45	-0.0947618
3081.73	-0.0206366
3083.01	-0.108271
3084.29	-0.15465
3085.57	0.056879
3086.85	0.376687
3088.13	0.0308156
3089.41	-0.0577526
3090.68	-0.0517049
3091.96	-0.195033
3093.24	0.000901699
3094.52	0.0478201
3095.79	0.027153
3097.07	-0.0883284
3098.35	-0.0411811
3099.62	0.0193739
3100.9	-0.191114
3102.18	0.235042
3103.45	-0.25945
3104.73	0.0994363
3106	0.12045
3107.28	-0.0337052
3108.55	-0.078753
3109.83	-0.136478
3111.1	0.212764
3112.38	0.0481839
3113.65	-0.278775
3114.93	0.356489
3116.2	0.0154471
3117.47	0.29743
3118.75	-0.0860887
3120.02	0.0584359
3121.29	0.0800886
3122.57	0.263835
3123.84	-0.0539718
3125.11	-0.222424
3126.38	-0.133243
3127.65	0.0510306
3128.92	0.195031
3130.2	-0.188074
3131.47	0.0644302
3132.74	0.222079
3134.01	0.392796
3135.28	-0.193089
3136.55	-0.158172
3137.82	0.0380745
3139.09	0.0989985
3140.36	0.0789037
3141.63	0.0588727
3142.9	0.0525455
3144.17	0.194293
3145.43	-0.0393171
3146.7	0.291011
3147.97	0.165946
3149.24	0.108458
