200.554	-0.00889492
202.369	0.00732136
204.183	0.024498
205.999	0.261602
207.813	0.231407
209.626	0.273678
211.439	-0.316606
213.253	0.451818
215.065	0.563291
216.877	-0.392275
218.688	-0.183796
220.5	0.363931
222.312	0.283154
224.123	0.421041
225.933	0.341965
227.742	0.504644
229.552	-0.323115
231.361	-0.064559
233.171	0.483028
234.98	0.210767
236.787	-0.541977
238.595	-0.1354
240.402	0.587125
242.209	0.130881
244.015	-0.469089
245.822	-0.0318594
247.627	0.16273
249.435	-0.369687
251.24	0.229605
253.045	-0.139524
254.849	0.261928
256.653	0.325126
258.457	0.437422
260.26	0.599652
262.063	-0.271916
263.866	-0.684054
265.668	0.446852
267.47	-0.0602694
269.271	0.444552
271.073	-0.13619
272.873	0.318591
274.674	-0.0477753
276.474	0.186959
278.274	0.371513
280.073	-0.554026
281.872	0.0840073
283.671	-0.0503044
285.47	0.318744
287.268	-0.177659
289.065	0.118201
290.863	-0.352178
292.66	-0.150252
294.456	0.483545
296.253	0.496642
298.049	0.558696
299.844	0.0956526
301.637	0.0148458
303.432	0.172018
305.227	0.25622
307.021	0.768731
308.815	-0.00669098
310.609	0.124682
312.402	0.709738
314.195	-0.0371475
315.987	0.527665
317.777	-0.00103474
319.569	0.805736
321.36	0.0890045
323.151	0.58862
324.942	0.301838
326.733	0.85056
328.521	0.109495
330.31	0.0123711
332.1	1.10987
333.889	1.24932
335.677	0.524975
337.464	0.827079
339.252	0.265653
341.039	0.707384
342.826	0.980617
344.611	0.345675
346.398	1.45537
348.184	0.249073
349.97	0.667233
351.754	0.44082
353.539	0.357101
355.324	0.129217
357.106	0.0193768
358.89	0.718514
360.674	0.51068
362.455	-0.0547514
364.239	0.449883
366.021	-0.282355
367.804	0.386234
369.584	0.910378
371.366	0.437766
373.145	0.438625
374.926	0.72269
376.707	0.13288
378.485	0.29945
380.265	-0.0515699
382.045	-0.000641823
383.822	0.616007
385.601	0.434057
387.378	0.911506
389.156	0.356289
390.934	0.154672
392.71	-0.0225763
394.487	-0.363561
396.262	0.963221
398.038	0.669711
399.813	0.563872
401.588	0.809905
403.362	0.162717
405.137	0.430799
406.912	0.698053
408.685	0.18982
410.459	0.643864
412.23	-0.0756159
414.004	0.449229
415.775	-0.104591
417.548	0.938003
419.318	-0.130592
421.089	-0.542054
422.86	0.19636
424.63	0.182966
426.401	-0.089591
428.17	0.364757
429.94	0.48995
431.708	0.122233
433.478	0.0130777
435.245	0.350188
437.012	0.147468
438.781	0.460343
440.547	0.255383
442.315	0.0953779
444.081	0.331856
445.846	-0.511376
447.613	0.775373
449.378	0.258936
451.142	-0.0228415
452.908	0.0696764
454.672	0.0223284
456.435	-0.234718
458.2	0.533141
459.963	-0.398748
461.725	-0.072917
463.489	0.0449333
465.251	0.23482
467.012	0.0790291
468.775	-0.2136
470.536	0.0534344
472.296	0.344594
474.056	0.286041
475.817	0.551705
477.576	1.09478
479.335	0.820635
481.094	1.29085
482.854	0.363813
484.612	0.67247
486.37	0.330948
488.127	0.737225
489.886	0.0731926
491.642	0.0161285
493.398	0.824139
495.154	0.300735
496.91	0.712646
498.667	0.39865
500.422	0.740252
502.176	0.706197
503.93	0.577184
505.684	0.470287
507.438	-0.037941
509.191	-0.07763
510.946	0.892874
512.698	0.0029726
514.45	0.311611
516.202	0.665824
517.954	0.665841
519.705	0.0771484
521.456	0.991947
523.206	0.707685
524.956	0.799044
526.706	0.163092
528.456	0.254646
530.207	0.345985
531.956	0.998896
533.704	0.10536
535.452	0.217582
537.2	0.421687
538.947	0.670667
540.694	0.684711
542.441	0.464993
544.188	0.687412
545.934	0.909279
547.68	0.434613
549.425	0.610353
551.17	0.16076
552.915	0.406218
554.659	0.235466
556.403	0.734704
558.145	-0.0579195
559.889	0.556738
561.632	-0.371325
563.375	0.519702
565.117	0.789443
566.859	-0.0889654
568.601	0.733283
570.342	-0.279924
572.083	0.452431
573.824	0.750381
575.565	0.247273
577.303	0.273441
579.043	-0.112273
580.782	-0.0612278
582.521	0.150798
584.26	0.615365
585.998	0.803243
587.734	0.0927286
589.472	-0.0440569
591.21	0.623513
592.947	0.140185
594.684	0.162882
596.418	0.415693
598.154	0.415383
599.89	0.713763
601.626	0.436126
603.361	0.226274
605.094	-0.398703
606.828	-0.358008
608.562	0.164119
610.296	0.295373
612.027	0.151739
613.761	0.0778141
615.493	-0.499599
617.224	0.389799
618.956	0.453534
620.688	0.264308
622.419	0.508675
624.149	0.294688
625.879	0.240928
627.61	0.348144
629.338	0.411633
631.068	1.11638
632.797	0.522573
634.525	0.568715
636.254	0.500345
637.98	0.133405
639.708	0.402863
641.436	-0.10635
643.162	0.22601
644.889	0.693186
646.614	0.591248
648.34	0.286878
650.067	0.0314445
651.791	-0.265604
653.516	0.554726
655.239	0.310174
656.964	0.386225
658.687	0.80525
660.411	0.35754
662.133	0.478324
663.857	0.322701
665.58	0.667487
667.301	0.0958271
669.024	0.758322
670.744	0.232335
672.464	1.01243
674.186	0.101195
675.905	0.153291
677.626	0.229603
679.345	0.81147
681.065	0.910626
682.783	0.409863
684.503	0.366736
686.22	0.275546
687.939	0.32097
689.656	1.05639
691.372	0.362947
693.09	0.843629
694.806	0.240961
696.523	0.581611
698.239	0.322373
699.953	0.407249
701.67	0.0769472
703.384	1.63069
705.098	1.13759
706.813	1.01183
708.526	0.839967
710.239	1.26369
711.954	1.18267
713.666	0.80415
715.378	0.654613
717.091	0.824908
718.802	0.789712
720.513	1.05102
722.226	1.51696
723.936	1.18587
725.646	1.28711
727.355	0.956335
729.067	0.920688
730.776	1.49673
732.484	1.0295
734.192	1.03811
735.902	0.730333
737.61	0.559023
739.317	1.71967
741.024	1.59458
742.731	1.51603
744.439	1.03377
746.145	1.1835
747.851	0.839632
749.556	1.35196
751.262	0.718444
752.966	1.16586
754.673	1.36732
756.377	1.21034
758.081	0.829621
759.784	0.720262
761.487	1.24313
763.19	1.6319
764.892	1.59188
766.594	1.23427
768.296	1.21348
770	1.28094
771.701	1.79865
773.402	1.56871
775.102	1.42879
776.803	1.58341
778.503	1.49064
780.202	1.19582
781.901	1.4449
783.6	1.03792
785.299	1.87458
786.997	2.45993
788.695	1.81959
790.393	2.03586
792.09	1.8648
793.787	1.9182
795.484	1.49757
797.18	1.73222
798.877	1.40521
800.572	1.55308
802.268	1.94967
803.963	1.37959
805.658	1.66401
807.35	2.37421
809.044	1.98205
810.738	2.01552
812.432	1.71163
814.125	1.96775
815.818	1.23823
817.51	2.25449
819.202	1.68242
820.894	2.09396
822.584	1.79129
824.275	1.62367
825.966	1.43546
827.657	2.00688
829.347	1.53418
831.037	1.68819
832.725	1.62232
834.414	2.11579
836.103	1.36172
837.792	1.54388
839.481	1.0105
841.167	1.70368
842.854	2.01611
844.542	1.00974
846.229	1.47887
847.914	1.34635
849.6	1.37276
851.287	1.6256
852.973	1.02903
854.656	1.62137
856.341	1.47346
858.026	1.12174
859.711	1.53285
861.393	1.15459
863.077	0.819372
864.761	0.820699
866.442	1.85817
868.125	1.00139
869.808	1.24892
871.489	1.24809
873.171	1.1117
874.85	0.8398
876.532	1.17715
878.213	0.792352
879.892	1.31026
881.572	1.3764
883.251	0.787107
884.931	1.59634
886.61	0.75636
888.287	1.42692
889.966	1.30605
891.643	0.665506
893.321	0.835248
894.997	1.22859
896.675	1.46277
898.352	1.51582
900.028	1.14164
901.704	1.57401
903.379	0.774155
905.055	0.869975
906.729	1.14437
908.404	0.772241
910.077	1.00306
911.75	0.811616
913.425	1.35457
915.097	1.45279
916.771	1.24031
918.443	1.18329
920.116	1.48074
921.787	0.804943
923.46	1.74493
925.13	1.38205
926.8	1.35263
928.472	1.03801
930.141	1.7619
931.813	1.86844
933.481	0.408969
935.15	1.24399
936.82	1.48378
938.488	1.04077
940.156	0.885673
941.825	0.731712
943.492	0.26943
945.158	0.822037
946.827	1.17502
948.493	1.04056
950.158	1.3456
951.824	0.766817
953.491	0.100293
955.156	0.582209
956.82	0.691859
958.486	1.09147
960.15	0.633363
961.814	0.5295
963.477	0.977934
965.142	1.15979
966.804	0.586822
968.467	0.82962
970.129	0.539422
971.79	1.00056
973.454	0.621682
975.115	0.929836
976.776	0.841729
978.436	0.909897
980.096	1.03404
981.756	1.15781
983.417	0.27295
985.077	0.692248
986.736	0.467585
988.394	0.993546
990.052	0.478545
991.71	0.339186
993.368	0.597396
995.025	1.09821
996.682	1.17941
998.341	1.03999
999.998	1.58357
1001.65	1.06906
1003.31	0.950894
1004.97	1.33834
1006.62	1.21971
1008.28	0.79396
1009.93	0.456911
1011.58	0.64703
1013.24	0.311383
1014.89	0.699297
1016.54	0.321001
1018.2	0.753145
1019.85	0.463973
1021.5	0.241619
1023.16	1.02589
1024.81	0.106173
1026.46	0.847967
1028.11	0.715613
1029.76	1.12879
1031.41	0.492217
1033.06	0.312986
1034.71	0.786884
1036.36	-0.00564671
1038.01	0.422179
1039.66	0.958102
1041.31	0.602145
1042.95	0.90006
1044.6	0.938701
1046.25	0.696908
1047.9	0.826264
1049.54	1.13097
1051.19	1.61076
1052.84	0.592522
1054.48	0.747613
1056.13	0.772352
1057.77	0.492451
1059.42	0.255463
1061.06	0.583157
1062.71	0.692673
1064.35	0.953462
1066	0.582692
1067.64	1.03688
1069.28	0.577339
1070.93	0.182696
1072.57	0.482893
1074.21	0.349381
1075.85	-0.173461
1077.49	0.541298
1079.13	0.107771
1080.78	0.824251
1082.42	0.326345
1084.06	0.0444508
1085.7	0.259686
1087.34	0.949487
1088.97	0.142441
1090.61	0.784468
1092.25	0.386709
1093.89	0.162003
1095.53	0.865597
1097.17	0.728122
1098.8	0.549158
1100.44	0.393682
1102.08	0.476901
1103.71	0.174556
1105.35	-0.0189095
1106.99	0.00324154
1108.62	0.111093
1110.26	0.0458612
1111.89	0.0221767
1113.52	0.834754
1115.16	0.743546
1116.79	0.0512562
1118.43	0.43189
1120.06	0.191435
1121.69	-0.133438
1123.32	-0.0289679
1124.96	0.54701
1126.59	0.332092
1128.22	-0.245502
1129.85	0.204041
1131.48	0.354712
1133.11	0.12083
1134.75	0.485359
1136.37	0.336226
1138	0.314334
1139.63	0.355379
1141.26	0.181944
1142.89	0.434975
1144.52	0.581274
1146.15	0.00332451
1147.78	0.343081
1149.4	0.34258
1151.03	-0.168663
1152.66	-0.317673
1154.28	-0.147593
1155.91	-0.0843878
1157.54	0.340355
1159.16	0.127139
1160.79	-0.212732
1162.41	0.171444
1164.04	-0.102599
1165.66	0.0703087
1167.29	-0.0759907
1168.91	0.414496
1170.53	-0.13829
1172.16	0.199776
1173.78	-0.377105
1175.4	0.297373
1177.02	0.482798
1178.65	-0.0943689
1180.27	-0.37369
1181.89	0.130833
1183.51	0.170267
1185.13	0.040616
1186.75	0.100237
1188.37	0.179315
1189.99	0.551435
1191.61	-0.0264158
1193.23	-0.204758
1194.85	-0.236389
1196.47	-0.0372496
1198.08	0.245995
1199.7	-0.30625
1201.32	0.0849752
1202.94	0.227536
1204.55	-0.170212
1206.17	-0.00241947
1207.79	-0.000397682
1209.4	0.252154
1211.02	0.17013
1212.63	0.566031
1214.25	0.125932
1215.86	-0.0866432
1217.48	0.385947
1219.09	0.274846
1220.71	0.412992
1222.32	0.219749
1223.93	0.421724
1225.54	0.272864
1227.16	0.767085
1228.77	0.786469
1230.38	0.228168
1231.99	0.374115
1233.6	-0.0368767
1235.22	1.00006
1236.83	0.860117
1238.44	0.7418
1240.05	0.665423
1241.66	0.568484
1243.26	0.926304
1244.87	0.828266
1246.48	0.480895
1248.09	0.732635
1249.7	1.14914
1251.31	0.675711
1252.92	1.48508
1254.52	1.28159
1256.13	1.16194
1257.74	1.64345
1259.34	0.739923
1260.95	1.63762
1262.55	0.900494
1264.16	0.494265
1265.76	1.37217
1267.37	1.42071
1268.97	0.410951
1270.58	1.10015
1272.18	0.419918
1273.78	0.920506
1275.39	0.77742
1276.99	0.923613
1278.59	0.986055
1280.2	0.902919
1281.8	0.695397
1283.4	1.10879
1285	0.509133
1286.6	1.08907
1288.2	1.31838
1289.8	1.21788
1291.4	1.5518
1293	1.22439
1294.6	1.74326
1296.2	1.20729
1297.8	1.45452
1299.4	1.32847
1301	1.20108
1302.6	1.75238
1304.19	1.23165
1305.79	1.36906
1307.39	1.30031
1308.99	1.62119
1310.58	1.47008
1312.18	1.13547
1313.77	1.64076
1315.37	0.593266
1316.96	0.997962
1318.56	1.15775
1320.15	1.6433
1321.75	1.41422
1323.34	1.59096
1324.94	0.85093
1326.53	0.740649
1328.12	1.76536
1329.72	1.04692
1331.31	0.493563
1332.9	1.07485
1334.49	1.23338
1336.08	1.31256
1337.67	1.37199
1339.27	0.785648
1340.86	0.943688
1342.45	1.09939
1344.04	1.39356
1345.63	1.42501
1347.22	0.955374
1348.8	0.989181
1350.39	1.24545
1351.98	1.28386
1353.57	1.56417
1355.16	1.206
1356.75	1.20802
1358.33	1.22957
1359.92	0.651117
1361.51	1.20979
1363.09	1.36811
1364.68	0.409575
1366.27	1.08613
1367.85	0.84674
1369.44	0.469398
1371.02	0.790131
1372.61	1.11205
1374.19	0.280943
1375.77	1.10198
1377.36	0.669494
1378.94	1.23144
1380.52	0.220459
1382.11	1.11827
1383.69	0.503025
1385.27	0.821538
1386.85	0.622812
1388.43	0.424441
1390.02	0.842185
1391.6	0.685051
1393.18	0.806465
1394.76	0.630664
1396.34	0.791827
1397.92	0.15932
1399.5	0.992613
1401.08	0.695386
1402.65	0.912563
1404.23	1.56472
1405.81	0.65468
1407.39	0.754279
1408.97	0.558237
1410.54	0.303517
1412.12	0.917712
1413.7	0.780828
1415.27	0.603727
1416.85	0.642937
1418.43	0.602928
1420	0.976969
1421.58	1.23357
1423.15	1.70809
1424.73	1.08191
1426.3	0.712873
1427.87	0.875731
1429.45	1.31387
1431.02	0.668581
1432.6	1.30145
1434.17	1.12652
1435.74	1.50194
1437.31	1.42517
1438.89	1.50643
1440.46	1.33316
1442.03	1.73078
1443.6	1.42158
1445.17	1.66304
1446.74	2.06196
1448.31	2.10728
1449.88	1.32719
1451.45	1.98274
1453.02	1.53773
1454.59	1.68301
1456.16	1.31671
1457.72	1.69743
1459.29	1.64396
1460.86	1.84457
1462.43	1.72841
1463.99	1.86633
1465.56	1.35444
1467.13	0.901711
1468.69	0.508731
1470.26	1.45137
1471.83	1.43315
1473.39	1.23948
1474.95	0.772101
1476.52	0.834621
1478.08	0.720778
1479.65	1.5674
1481.21	1.13972
1482.78	0.868859
1484.34	1.10736
1485.9	1.22787
1487.47	1.07335
1489.03	0.819729
1490.59	0.779784
1492.15	0.87465
1493.71	0.693825
1495.27	0.453197
1496.84	0.368034
1498.39	0.691521
1499.96	0.839828
1501.52	0.950001
1503.07	0.401764
1504.64	0.281605
1506.19	0.607078
1507.75	0.486556
1509.31	0.558468
1510.87	0.571239
1512.43	0.718062
1513.98	0.690954
1515.54	0.77943
1517.1	0.541928
1518.65	0.113974
1520.21	0.415349
1521.77	0.276178
1523.32	0.691235
1524.88	0.264627
1526.44	0.16224
1527.99	0.0783405
1529.54	0.260355
1531.1	0.631717
1532.65	0.604398
1534.21	0.672668
1535.76	-0.0525818
1537.31	0.301506
1538.87	0.353499
1540.42	0.46229
1541.97	0.495591
1543.52	0.660461
1545.07	0.599211
1546.63	0.594215
1548.18	0.363938
1549.73	0.733859
1551.28	0.747458
1552.83	0.929885
1554.38	0.346647
1555.93	0.830116
1557.48	-0.122566
1559.03	0.382663
1560.57	0.329679
1562.12	0.800467
1563.67	0.526051
1565.22	0.942455
1566.77	0.892502
1568.31	0.786315
1569.86	1.1837
1571.41	0.498098
1572.95	0.857543
1574.5	0.824853
1576.05	1.09087
1577.59	1.6558
1579.14	0.988998
1580.68	0.95751
1582.23	0.945424
1583.77	1.08357
1585.31	0.904796
1586.86	1.13766
1588.4	1.10895
1589.95	1.47296
1591.49	1.1629
1593.03	1.07688
1594.57	1.12165
1596.11	1.27892
1597.66	1.24926
1599.2	1.33273
1600.74	1.41694
1602.28	0.788431
1603.82	1.41741
1605.36	0.994203
1606.9	1.22713
1608.44	1.55224
1609.98	1.14211
1611.52	1.1245
1613.06	1.2365
1614.6	1.00934
1616.13	0.744596
1617.67	1.00546
1619.21	1.04233
1620.75	1.11804
1622.28	1.06392
1623.82	1.048
1625.36	0.826167
1626.89	0.828249
1628.43	1.10974
1629.96	1.1092
1631.5	1.10768
1633.04	1.08712
1634.57	1.0109
1636.11	0.823586
1637.64	1.36461
1639.17	1.86851
1640.71	1.10478
1642.24	1.03029
1643.77	1.21548
1645.31	0.803878
1646.84	0.85686
1648.37	1.41117
1649.9	1.46376
1651.43	1.49869
1652.96	1.44206
1654.5	1.25677
1656.03	2.12862
1657.56	1.66578
1659.09	1.73957
1660.62	1.64538
1662.15	1.40188
1663.67	1.47187
1665.2	1.74438
1666.73	1.44474
1668.26	1.40481
1669.79	0.923996
1671.32	1.67945
1672.84	1.51449
1674.37	1.64467
1675.9	1.31427
1677.43	1.02008
1678.95	1.29535
1680.48	1.25678
1682	1.27265
1683.53	1.32491
1685.05	1.06524
1686.58	0.842912
1688.1	0.822865
1689.63	1.05965
1691.15	0.43589
1692.68	1.0572
1694.2	0.360891
1695.72	0.560904
1697.25	0.522933
1698.77	0.703808
1700.29	0.318327
1701.81	0.224656
1703.33	0.677302
1704.86	0.418577
1706.38	0.432766
1707.9	0.301239
1709.42	0.678415
1710.94	0.673934
1712.46	-0.164433
1713.98	0.448053
1715.5	0.317406
1717.02	0.0422087
1718.54	0.508281
1720.06	0.269292
1721.57	0.355613
1723.09	0.117813
1724.61	0.0794163
1726.13	0.420372
1727.64	-0.137757
1729.16	-0.208836
1730.68	0.367621
1732.19	0.225536
1733.71	-0.00446033
1735.23	0.669571
1736.74	0.549752
1738.26	0.11986
1739.77	0.40281
1741.29	0.349314
1742.8	0.16542
1744.31	-0.123762
1745.83	-0.0294809
1747.34	-0.108255
1748.85	0.323406
1750.37	-0.180222
1751.88	-0.0599661
1753.39	-0.110278
1754.91	0.16587
1756.42	0.194702
1757.93	0.19655
1759.44	0.314477
1760.95	0.237497
1762.46	-0.157252
1763.97	0.0497065
1765.48	-0.176502
1766.99	-0.220158
1768.5	0.0779028
1770.01	0.354697
1771.52	0.0485439
1773.03	0.220745
1774.54	-0.133636
1776.04	-0.0289783
1777.55	0.0485201
1779.06	-0.0983949
1780.57	0.326699
1782.07	0.186202
1783.58	0.0434103
1785.09	0.263501
1786.59	0.373544
1788.1	0.225574
1789.6	-0.174042
1791.11	-0.00100708
1792.61	-0.20964
1794.12	0.0121593
1795.62	-0.283838
1797.13	0.326022
1798.63	0.0569353
1800.13	0.273214
1801.64	0.0105801
1803.14	-0.0561533
1804.64	-0.10954
1806.15	-0.0953403
1807.65	-0.0110626
1809.15	0.0162945
1810.65	0.377065
1812.15	0.13505
1813.65	-0.100241
1815.16	0.00418139
1816.66	0.271174
1818.15	-0.0763297
1819.66	0.0716696
1821.16	-0.0195818
1822.65	-0.0674715
1824.15	0.155043
1825.65	0.238614
1827.15	0.230874
1828.65	0.137407
1830.15	0.0676608
1831.64	0.35804
1833.14	0.329921
1834.64	0.110882
1836.14	-0.290673
1837.63	-0.0719256
1839.13	-0.170638
1840.62	0.0283203
1842.12	-0.0671
1843.62	-0.245529
1845.11	-0.263066
1846.61	0.0804877
1848.1	0.221935
1849.6	0.123615
1851.09	-0.115785
1852.58	0.0128326
1854.08	0.0355239
1855.57	0.17567
1857.06	0.0187821
1858.55	0.106362
1860.05	0.0558658
1861.54	0.150382
1863.03	0.084281
1864.52	0.371516
1866.01	-0.137005
1867.5	0.0257192
1869	-0.0907154
1870.49	0.105219
1871.98	-0.0482178
1873.47	-0.00969696
1874.96	-0.124775
1876.44	-0.0405626
1877.93	0.225951
1879.42	0.256552
1880.91	0.0368834
1882.4	0.162142
1882.47	0.169191
1883.96	0.0467491
1885.46	0.481376
1886.95	-0.269551
1888.44	0.181019
1889.94	0.196269
1891.43	0.107965
1892.93	-0.0484967
1894.42	0.0226021
1895.91	0.268881
1897.4	0.324676
1898.89	-0.141421
1900.39	-0.138754
1901.88	-0.172183
1903.37	0.0190454
1904.86	0.591361
1906.35	0.1373
1907.84	0.0136042
1909.33	0.0120158
1910.82	-0.318482
1912.31	0.722352
1913.8	0.0635657
1915.29	-0.61223
1916.77	0.168293
1918.26	0.324022
1919.75	0.219361
1921.24	0.0627074
1922.73	0.235474
1924.21	-0.0931783
1925.7	0.115829
1927.19	-0.193635
1928.67	0.155328
1930.16	-0.170975
1931.64	0.212047
1933.13	0.16095
1934.61	0.644992
1936.1	0.123657
1937.58	0.0341458
1939.07	-0.211165
1940.55	0.165688
1942.04	0.145855
1943.52	0.0751734
1945	0.488117
1946.49	-0.0470109
1947.97	0.0556641
1949.45	0.0198455
1950.93	-0.0511975
1952.42	-0.122928
1953.9	0.389606
1955.38	-0.164051
1956.86	0.485421
1958.34	0.173567
1959.82	0.205754
1961.3	0.272675
1962.78	0.271161
1964.26	0.0125027
1965.74	0.0961671
1967.22	-0.163137
1968.7	-0.30294
1970.18	0.223595
1971.65	0.2709
1973.13	-0.535349
1974.61	0.450532
1976.09	0.412512
1977.57	0.493927
1979.04	-0.0204401
1980.52	0.0952368
1982	0.431593
1983.47	0.325578
1984.95	0.117582
1986.42	0.0284138
1987.9	0.312196
1989.37	0.189377
1990.85	0.101126
1992.32	0.402764
1993.8	0.282319
1995.27	0.0274787
1996.75	0.364473
1998.22	0.380356
1999.69	0.00757027
2001.17	-0.0785384
2002.64	-0.0806408
2004.11	0.625175
2005.58	0.033112
2007.05	0.115899
2008.53	0.0310221
2010	0.0479112
2011.47	0.233573
2012.94	-0.153018
2014.41	-0.169594
2015.88	0.217007
2017.35	0.131701
2018.82	0.180256
2020.29	0.429924
2021.76	0.208973
2023.23	0.122788
2024.7	-0.0297995
2026.16	0.00318098
2027.63	0.0708566
2029.1	0.0558882
2030.57	-0.343833
2032.03	-0.373805
2033.5	0.251296
2034.97	0.154734
2036.44	0.108196
2037.9	-0.358884
2039.37	0.114674
2040.83	0.504318
2042.3	0.373213
2043.76	-0.0937405
2045.23	0.281026
2046.69	0.0338626
2048.16	0.08991
2049.62	0.314308
2051.08	0.184004
2052.55	0.0692143
2054.01	0.458861
2055.47	0.391665
2056.94	0.491886
2058.4	0.304858
2059.86	0.218882
2061.32	0.049109
2062.79	0.435584
2064.25	0.671269
2065.71	0.554381
2067.17	0.387751
2068.63	0.137456
2070.09	0.274538
2071.55	0.512722
2073.01	0.683502
2074.47	0.685695
2075.93	0.721274
2077.39	0.301843
2078.85	0.673556
2080.31	0.186062
2081.76	0.0349383
2083.22	0.270485
2084.68	0.572603
2086.13	0.167371
2087.59	0.569034
2089.05	0.129652
2090.51	0.564001
2091.96	0.443808
2093.42	0.323668
2094.87	0.874265
2096.33	1.00478
2097.78	0.431066
2099.24	0.209096
2100.69	0.154416
2102.15	0.267082
2103.6	0.430348
2105.06	0.561117
2106.51	1.06
2107.96	0.792314
2109.42	0.324992
2110.87	0.590978
2112.32	0.422421
2113.77	0.98533
2115.23	0.880397
2116.68	0.558686
2118.13	0.569984
2119.58	0.964135
2121.03	0.364103
2122.48	0.993466
2123.93	0.612338
2125.38	0.895128
2126.83	0.846077
2128.28	1.02825
2129.73	0.79484
2131.18	1.02423
2132.63	0.640192
2134.08	1.11678
2135.53	1.11402
2136.97	0.583643
2138.42	0.749173
2139.87	1.54433
2141.32	1.06839
2142.76	0.857832
2144.21	1.47485
2145.66	1.19882
2147.1	1.40245
2148.55	1.53942
2150	1.57626
2151.44	1.6619
2152.89	1.1667
2154.33	1.26722
2155.78	1.4667
2157.22	1.43428
2158.66	1.68408
2160.11	1.2062
2161.55	1.5748
2163	1.29879
2164.44	1.60449
2165.88	1.33036
2167.32	1.45451
2168.77	1.67767
2170.21	1.36721
2171.65	1.95297
2173.09	1.97138
2174.53	1.38963
2175.97	1.53925
2177.41	1.73884
2178.85	1.30731
2180.29	1.27569
2181.73	0.812553
2183.17	1.66355
2184.61	2.01611
2186.05	1.40401
2187.49	1.32415
2188.93	1.02794
2190.37	1.18103
2191.81	1.00098
2193.24	1.05337
2194.68	1.18787
2196.12	1.27082
2197.56	1.13565
2198.99	1.2485
2200.43	1.27716
2201.87	1.02337
2203.3	0.753896
2204.74	0.983124
2206.17	0.632933
2207.61	1.17812
2209.04	0.994087
2210.48	1.09094
2211.91	1.05447
2213.35	1.28185
2214.78	1.16189
2216.21	0.679449
2217.65	0.891443
2219.08	0.790974
2220.51	0.938625
2221.95	0.394115
2223.38	0.393097
2224.81	1.18137
2226.24	0.61783
2227.67	0.842924
2229.1	0.688708
2230.54	0.648974
2231.97	0.75661
2233.4	0.782378
2234.83	0.432632
2236.26	0.623645
2237.69	0.717728
2239.11	0.992789
2240.54	0.486432
2241.97	1.07457
2243.4	0.163247
2244.83	0.866979
2246.26	0.640475
2247.69	0.787796
2249.11	0.232204
2250.54	0.718034
2251.97	0.192404
2253.4	-0.300474
2254.82	0.572522
2256.25	0.243855
2257.67	0.371835
2259.1	0.258708
2260.53	0.0343871
2261.95	0.380004
2263.38	0.532411
2264.8	0.63654
2266.23	0.39905
2267.65	0.290803
2269.07	0.24681
2270.5	-0.0583344
2271.92	0.482654
2273.34	0.50257
2274.77	0.213058
2276.19	0.559021
2277.61	0.0904164
2279.03	0.0780873
2280.46	0.505986
2281.88	0.0695395
2283.3	0.318014
2284.72	-0.102421
2286.14	0.260591
2287.56	-0.0943174
2288.98	0.743227
2290.4	0.388942
2291.82	0.426924
2293.24	0.072546
2294.66	-0.0203743
2296.08	0.377611
2297.5	0.104502
2298.92	0.289901
2300.34	0.131429
2301.76	-0.240124
2303.17	-0.00481749
2304.59	-0.130254
2306.01	0.565275
2307.43	0.143917
2308.84	0.313504
2310.26	0.482742
2311.68	0.174731
2313.09	0.228472
2314.51	0.101508
2315.92	0.320819
2317.34	0.162057
2318.75	-0.342672
2320.17	-0.237863
2321.58	0.0972385
2323	0.216525
2324.41	0.69702
2325.82	0.251491
2327.24	0.382073
2328.65	0.627216
2330.06	0.674553
2331.48	0.0969615
2332.89	0.0967612
2334.3	0.0478978
2335.71	0.130881
2337.12	-0.131888
2338.54	-0.197948
2339.95	-0.133371
2341.36	-0.0531917
2342.77	0.0100608
2344.18	-0.140009
2345.59	0.267561
2347	0.34727
2348.41	-0.0150552
2349.82	-0.0991158
2351.23	-0.0692263
2352.64	0.319172
2354.04	0.167616
2355.45	-0.000508308
2356.86	0.303644
2358.27	0.200473
2359.68	0.146368
2361.08	-0.215928
2362.49	-0.00999069
2363.9	-0.193283
2365.3	0.060607
2366.71	0.0231838
2368.12	0.196198
2369.52	0.45038
2370.93	0.012104
2372.33	0.0426712
2373.74	-0.264147
2375.14	0.604671
2376.55	-0.393917
2377.95	0.0227804
2379.36	-0.0443254
2380.76	0.144218
2382.16	0.0425868
2383.57	0.292802
2384.97	0.334236
2386.37	0.25606
2387.78	0.178782
2389.18	0.27004
2390.58	0.123205
2391.98	0.264114
2393.38	0.103362
2394.79	0.166114
2396.19	-0.168065
2397.59	0.05475
2398.99	0.436794
2400.39	-0.499458
2401.79	0.343823
2403.19	-0.21066
2404.59	-0.0665793
2405.99	-0.113708
2407.39	0.21929
2408.78	0.123132
2410.18	0.201149
2411.58	0.0732841
2412.98	0.342091
2414.38	0.215943
2415.77	-0.0356054
2417.17	0.204696
2418.57	0.271631
2419.97	-0.0253453
2421.36	-0.0532341
2422.76	0.0136571
2424.15	0.159558
2425.55	0.0361471
2426.95	0.0557365
2428.34	0.0443029
2429.74	-0.156696
2431.13	-0.0875754
2432.52	0.188112
2433.92	0.257196
2435.31	-0.0558352
2436.71	0.154161
2438.1	0.251731
2439.49	0.47529
2440.89	0.142151
2442.28	0.0151477
2443.67	0.221238
2445.06	0.363568
2446.46	-0.112684
2447.85	-0.160738
2449.24	0.361489
2450.63	0.313429
2452.02	-0.129857
2453.41	0.108142
2454.8	-0.175356
2456.19	-0.0627627
2457.58	-0.234644
2458.97	0.178609
2460.36	0.25922
2461.75	0.260096
2463.14	0.276123
2464.53	0.260054
2465.92	-0.230036
2467.31	0.227356
2468.69	0.132052
2470.08	0.0524502
2471.47	0.0513887
2472.86	0.097054
2474.24	0.157793
2475.63	0.328025
2477.02	0.151884
2478.4	-0.024024
2479.79	0.0672455
2481.17	-0.155095
2482.56	0.296587
2483.94	0.418417
2485.33	-0.821383
2486.72	-0.044055
2488.1	0.215699
2489.48	0.380683
2490.87	0.14042
2492.25	0.0410695
2493.64	-0.103798
2495.02	0.0784397
2496.4	-0.234647
2497.79	0.243361
2499.17	0.210148
2500.55	-0.00888157
2501.93	-0.0736289
2503.31	0.0771565
2504.69	0.180656
2506.08	-0.0401535
2507.46	0.278014
2508.84	0.0728412
2510.22	0.390612
2511.6	-0.289018
2512.98	0.0296021
2514.36	0.287097
2515.74	-0.342838
2517.12	-0.0535517
2518.5	0.0370841
2519.88	0.0666509
2521.25	-0.0567379
2522.63	-0.0583735
2524.01	0.168135
2525.39	-0.170181
2526.77	0.0552707
2528.14	-0.023665
2529.52	-0.132062
2530.9	0.12564
2532.27	0.00462627
2533.65	0.310147
2535.03	-0.264935
2536.4	0.269035
2537.78	0.149218
2539.15	0.134994
2540.53	0.104927
2541.9	0.529899
2543.28	-0.198323
2544.65	0.166665
2546.03	0.365668
2547.4	0.00443125
2548.77	0.250644
2550.15	0.421169
2551.52	0.454783
2552.89	0.01718
2554.27	-0.0721831
2555.64	-0.222911
2557.01	0.369217
2558.38	0.505992
2559.75	0.203281
2561.12	0.310357
2562.5	0.190603
2563.87	0.298654
2565.24	0.0433631
2566.61	0.0913539
2567.98	-0.0575976
2569.35	-0.0853019
2570.72	-0.32521
2572.09	0.0715041
2573.46	-0.047061
2574.83	0.137625
2576.19	0.716558
2577.56	-0.00842476
2578.93	-0.172644
2580.3	0.193576
2581.67	-0.183513
2583.04	-0.287939
2584.4	0.00162649
2585.77	0.0182357
2587.14	0.307749
2588.5	-0.0543227
2589.87	-0.00707579
2591.23	0.10069
2592.6	0.117168
2593.97	-0.26085
2595.33	-0.169979
2596.7	-0.125378
2598.06	0.342148
2599.43	0.128449
2600.79	0.00573254
2602.15	-0.297696
2603.52	0.00349569
2604.88	0.244525
2606.25	0.244199
2607.61	0.017446
2608.97	0.00124884
2610.33	0.0293212
2611.7	0.191772
2613.06	0.127447
2614.42	0.15275
2615.78	0.0127048
2617.15	-0.066926
2618.51	0.528015
2619.87	0.134917
2621.23	-0.00276566
2622.59	0.159019
2623.95	0.00719309
2625.31	0.213679
2626.67	0.240739
2628.03	0.163181
2629.39	-0.31654
2630.75	0.067265
2632.1	0.509838
2633.46	0.402045
2634.82	0.17566
2636.18	0.364869
2637.54	-0.0537992
2638.89	0.164926
2640.25	0.250268
2641.61	0.0104413
2642.97	0.170064
2644.32	0.211499
2645.68	0.636396
2647.03	0.234806
2648.39	-0.0636005
2649.75	0.12352
2651.1	0.162711
2652.46	-0.224346
2653.81	-0.0382776
2655.17	0.0600443
2656.52	0.378747
2657.88	0.0100121
2659.23	-0.211285
2660.58	0.00662231
2661.94	-0.0973005
2663.29	0.0321422
2664.64	0.0440192
2666	-0.309358
2667.35	-0.0941744
2668.7	0.17882
2670.05	0.116924
2671.4	0.331788
2672.76	0.16908
2674.11	0.355599
2675.46	0.0198569
2676.81	0.497351
2678.16	0.249837
2679.51	-0.0258651
2680.86	-0.213679
2682.21	-0.0526214
2683.56	-0.238638
2684.91	0.0401349
2686.26	0.319466
2687.61	0.163459
2688.96	0.093555
2690.3	0.515912
2691.65	0.0658007
2693	0.253127
2694.35	-0.0245509
2695.7	0.132683
2697.04	0.27573
2698.39	0.187984
2699.74	0.420151
2701.08	0.248286
2702.43	0.454171
2703.77	-0.324279
2705.12	0.0857677
2706.47	0.0466166
2707.81	0.0652738
2709.16	-0.148635
2710.5	0.319525
2711.85	0.206714
2713.19	0.471526
2714.53	0.460266
2715.88	0.507109
2717.22	0.495687
2718.57	0.163998
2719.91	0.0210242
2721.25	0.154159
2722.59	0.112285
2723.94	0.433921
2725.28	0.260323
2726.62	0.304748
2727.96	-0.0585999
2729.3	0.334649
2730.65	0.407573
2731.99	0.364056
2733.33	0.087863
2734.67	0.291863
2736.01	0.248734
2737.35	0.103909
2738.69	0.0899763
2740.03	0.352156
2741.37	0.0322943
2742.71	0.177233
2744.05	-0.027247
2745.38	0.0439487
2746.72	-0.43708
2748.06	0.301445
2749.4	0.371939
2750.74	0.268488
2752.07	0.0928311
2753.41	-0.010056
2754.75	0.17702
2756.09	-0.0269794
2757.42	-0.30314
2758.76	-0.188118
2760.09	0.361328
2761.43	0.129537
2762.77	0.361207
2764.1	0.202445
2765.44	-0.260141
2766.77	-0.231105
2768.11	0.231172
2769.44	-0.175369
2770.77	-0.221363
2772.11	0.222683
2773.44	0.102463
2774.77	0.010828
2776.11	0.00572824
2777.44	0.547802
2778.77	-0.104147
2780.11	-0.0218339
2781.44	0.0749745
2782.77	-0.100947
2784.1	0.26831
2785.43	-0.0795698
2786.77	-0.240666
2788.1	0.142758
2789.43	-0.0459347
2790.76	-0.0621452
2792.09	-0.134936
2793.42	0.307291
2794.75	-0.236784
2796.08	0.162188
2797.41	0.531929
2798.74	0.386916
2800.07	0.198843
2801.4	-0.117665
2802.72	0.207605
2804.05	0.104813
2805.38	0.0160332
2806.71	0.0834584
2808.04	0.0365057
2809.36	0.273521
2810.69	0.126738
2812.02	0.0799642
2813.34	0.0766678
2814.67	0.00361156
2816	0.0167642
2817.32	0.158354
2818.65	0.30041
2819.97	0.187363
2821.3	0.229877
2822.62	0.243509
2823.95	0.469149
2825.27	-0.226312
2826.6	0.282284
2827.92	0.295515
2829.25	0.110992
2830.57	0.337389
2831.89	0.210053
2833.22	0.167617
2834.54	-0.0165925
2835.86	0.124364
2837.18	0.335612
2838.51	0.291791
2839.83	0.318532
2841.15	0.260497
2842.47	0.966096
2843.79	0.89465
2845.11	1.31844
2846.43	0.965453
2847.76	1.03674
2849.08	1.24941
2850.4	0.89648
2851.72	0.924785
2853.04	1.1788
2854.36	1.00853
2855.67	0.795751
2856.99	1.20459
2858.31	1.6981
2859.63	1.24524
2860.95	1.68196
2862.27	1.7512
2863.58	1.73543
2864.9	2.21329
2866.22	1.77394
2867.54	1.80042
2868.85	1.78494
2870.17	1.89668
2871.49	2.64284
2872.8	1.58458
2874.12	2.01973
2875.43	2.17208
2876.75	2.46421
2878.07	2.24877
2879.38	2.08956
2880.7	2.09943
2882.01	2.41902
2883.32	2.19148
2884.64	2.7652
2885.95	2.32845
2887.27	1.97616
2888.58	2.70414
2889.89	2.57539
2891.21	2.74049
2892.52	2.45642
2893.83	2.53669
2895.14	2.96723
2896.46	3.09017
2897.77	2.48627
2899.08	2.83487
2900.39	3.08612
2901.7	2.94606
2903.01	2.76424
2904.32	3.11406
2905.63	3.01651
2906.94	3.08727
2908.25	3.15869
2909.56	3.51067
2910.87	3.3035
2912.18	4.0341
2913.49	3.79833
2914.8	3.64533
2916.11	3.75688
2917.42	3.86705
2918.72	4.03225
2920.03	4.09927
2921.34	4.22272
2922.65	4.47297
2923.95	4.47278
2925.26	4.44565
2926.57	4.64274
2927.88	4.82593
2929.18	4.21194
2930.49	4.81373
2931.79	4.7161
2933.1	4.73007
2934.4	5.02354
2935.71	4.77202
2937.01	5.21941
2938.32	4.1717
2939.62	4.34001
2940.93	4.71834
2942.23	4.51051
2943.54	4.2338
2944.84	3.59464
2946.14	3.89306
2947.45	3.53466
2948.75	3.80566
2950.05	3.6559
2951.35	3.61664
2952.66	3.50578
2953.96	3.11375
2955.26	3.4774
2956.56	3.29577
2957.86	2.97581
2959.16	3.34396
2960.46	2.91622
2961.77	2.93823
2963.07	2.90484
2964.37	2.9412
2965.66	2.4848
2966.96	2.65907
2968.26	2.53716
2969.56	2.89267
2970.86	3.02319
2972.16	3.05553
2973.46	2.31422
2974.76	2.40301
2976.06	2.39281
2977.35	2.01549
2978.65	2.08738
2979.95	2.38309
2981.25	1.90356
2982.54	2.01469
2983.84	2.12596
2985.14	1.8445
2986.43	1.43793
2987.73	1.53846
2989.02	1.1058
2990.32	1.23548
2991.62	1.42104
2992.91	1.0577
2994.21	1.49437
2995.5	0.834291
2996.8	1.46581
2998.09	1.04408
2999.38	0.650964
3000.68	0.651185
3001.97	0.820061
3003.26	0.82102
3004.56	0.836092
3005.85	0.6409
3007.14	0.893333
3008.43	0.753114
3009.73	0.62632
3011.02	0.303483
3012.31	-0.0890121
3013.6	0.342192
3014.89	0.438483
3016.19	-0.0916991
3017.48	0.367848
3018.77	0.159381
3020.06	0.577057
3021.35	0.674243
3022.64	0.506724
3023.93	0.213786
3025.22	0.558526
3026.5	0.182176
3027.79	-0.151585
3029.08	0.248839
3030.37	0.000450134
3031.66	0.236841
3032.95	0.183982
3034.24	0.531666
3035.52	0.368279
3036.81	0.0248065
3038.1	0.038661
3039.39	0.408877
3040.67	0.130965
3041.96	0.0589495
3043.25	0.137845
3044.53	0.107668
3045.82	0.0104651
3047.1	0.21566
3048.39	0.0128269
3049.67	0.0711479
3050.96	-0.0466981
3052.24	-0.259378
3053.53	0.346695
3054.81	0.515604
3056.1	0.383564
3057.38	0.509771
3058.67	0.349093
3059.95	0.201997
3061.23	-0.0943236
3062.52	0.113651
3063.8	0.281736
3065.08	0.219858
3066.36	0.227092
3067.65	0.22156
3068.93	0.461154
3070.21	0.129415
3071.49	0.0418334
3072.77	0.347733
3074.05	0.149529
3075.33	0.100228
3076.61	-0.0850778
3077.89	0.0830255
3079.17	-0.0331163
3080.45	0.231788
3081.73	0.0909538
3083.01	-0.0217605
3084.29	0.137443
3085.57	-0.151056
3086.85	0.116567
3088.13	-0.132073
3089.41	0.0259767
3090.68	-0.359123
3091.96	0.083415
3093.24	0.173249
3094.52	-0.021471
3095.79	0.123094
3097.07	0.064373
3098.35	-0.33317
3099.62	-0.0124354
3100.9	0.213275
3102.18	0.0191193
3103.45	0.407472
3104.73	0.159901
3106	-0.0869803
3107.28	0.330012
3108.55	0.179454
3109.83	0.354589
3111.1	0.368151
3112.38	0.219837
3113.65	0.369903
3114.93	-0.198349
3116.2	0.0463395
3117.47	0.209181
3118.75	-0.0899076
3120.02	0.356163
3121.29	0.082788
3122.57	0.120885
3123.84	0.253656
3125.11	0.251084
3126.38	0.154146
3127.65	-0.199286
3128.92	0.259455
3130.2	0.0557175
3131.47	0.122567
3132.74	0.108267
3134.01	0.431425
3135.28	0.443429
3136.55	0.387545
3137.82	0.533618
3139.09	0.692686
3140.36	0.434135
3141.63	0.189558
3142.9	0.510019
3144.17	0.669264
3145.43	0.466577
3146.7	0.640148
3147.97	0.39876
3149.24	0.506289
