200.398	0.132833
202.213	0.153062
204.027	0.174597
205.843	0.82957
207.657	-0.63082
209.47	-0.389441
211.283	0.919173
213.097	-0.0568953
214.909	-0.620605
216.721	0.14888
218.533	-0.00311852
220.344	0.765444
222.157	0.34884
223.967	0.127086
225.777	0.0753288
227.587	0.772552
229.396	0.937516
231.205	0.980977
233.016	0.131428
234.824	0.609187
236.632	0.750496
238.439	0.291572
240.247	0.630911
242.053	0.900685
243.86	1.00343
245.666	1.10626
247.474	1.44883
249.279	0.894846
251.085	1.61675
252.889	1.58664
254.694	1.81964
256.498	0.749846
258.301	1.73042
260.105	1.41133
261.908	1.86561
263.71	1.64746
265.513	1.31016
267.315	1.16599
269.116	0.900865
270.918	1.26152
272.718	0.84931
274.519	1.01405
276.319	0.260781
278.119	0.734764
279.918	0.483418
281.718	1.12053
283.516	1.20127
285.315	0.967727
287.113	0.781656
288.911	0.428054
290.708	0.267583
292.505	0.539675
294.302	0.167313
296.098	0.633839
297.894	0.216949
299.69	-0.199066
301.485	-0.137316
303.278	-0.0765409
305.073	0.149879
306.867	0.732738
308.661	1.02857
310.454	0.228707
312.247	0.645531
314.04	0.468716
315.833	1.03223
317.623	0.431032
319.415	0.569867
321.206	0.30501
322.997	0.970834
324.788	0.39718
326.579	0.443746
328.367	0.848463
330.156	0.440136
331.946	0.29312
333.735	0.144046
335.523	0.686466
337.31	0.293018
339.098	1.02167
340.885	0.552238
342.673	0.560263
344.458	0.735419
346.244	0.433307
348.03	0.514239
349.816	0.142149
351.6	-0.0865326
353.385	0.137678
355.17	0.718398
356.953	0.605643
358.737	0.705907
360.521	0.542703
362.304	0.426214
364.085	0.618118
365.868	0.428729
367.65	-0.0698042
369.431	-0.758056
371.212	0.0227509
372.994	0.422473
374.773	0.348174
376.554	-0.221649
378.332	-0.176571
380.112	-0.0599365
381.892	0.387304
383.669	0.247304
385.448	0.43808
387.225	0.865083
389.003	0.330009
390.781	0.547922
392.557	0.719775
394.334	-0.117438
396.109	0.454845
397.885	0.440177
399.66	0.895062
401.436	1.79578
403.211	1.59179
404.984	0.870203
406.759	1.06371
408.532	0.97468
410.306	1.09654
412.078	0.749019
413.851	1.29379
415.623	0.971188
417.395	1.75242
419.166	1.57249
420.938	1.3929
422.708	1.16603
424.477	1.31392
426.248	1.20247
428.017	1.32476
429.788	0.601401
431.556	0.394491
433.326	0.586958
435.093	0.45126
436.86	0.104335
438.629	0.460748
440.395	0.440003
442.163	1.02683
443.929	0.602426
445.694	-0.549826
447.461	0.194271
449.226	0.538963
450.99	0.299044
452.756	0.129938
454.52	0.124674
456.285	-0.276814
458.048	0.137291
459.811	0.504271
461.573	-0.0354385
463.337	0.752021
465.099	0.0313969
466.86	-0.0351963
468.623	0.412622
470.384	0.118923
472.144	-0.104507
473.906	-0.398781
475.666	0.772112
477.425	-0.0856075
479.184	-0.106956
480.944	-0.292498
482.703	0.593457
484.461	-0.172917
486.218	0.693387
487.975	0.607307
489.734	0.0338221
491.491	-0.305893
493.247	0.0321369
495.003	-0.190207
496.759	-0.0619164
498.516	0.230337
500.271	0.194303
502.025	0.227906
503.779	1.01218
505.533	0.103973
507.287	0.698153
509.042	0.185426
510.795	0.847041
512.547	0.212741
514.299	0.612036
516.051	-0.00195599
517.803	0.206125
519.554	0.530445
521.305	0.477649
523.055	0.518283
524.805	0.18308
526.555	0.880414
528.307	0.357826
530.056	1.07773
531.805	0.9298
533.553	0.593847
535.301	0.935309
537.049	0.409854
538.797	1.02774
540.544	0.0570593
542.291	0.252343
544.037	0.260589
545.783	-0.0333004
547.529	0.184323
549.275	-0.641476
551.02	0.480001
552.765	0.211357
554.509	0.590525
556.253	0.41524
557.997	0.194656
559.738	0.481962
561.482	-0.128349
563.224	0.3671
564.967	0.54072
566.709	0.967574
568.451	0.224058
570.192	0.308644
571.933	0.325962
573.674	0.00112534
575.415	-0.321664
577.153	0.137503
578.893	0.346027
580.632	0.371958
582.371	-0.130415
584.11	-0.357953
585.849	0.126183
587.587	-0.172927
589.323	0.0786762
591.06	0.260236
592.797	0.303138
594.534	0.29985
596.271	0.296624
598.005	-0.51184
599.741	-0.216341
601.476	0.377279
603.211	-0.272639
604.944	-0.532928
606.679	0.607239
608.413	-0.344579
610.147	0.517663
611.878	0.163764
613.611	-0.601571
615.344	-0.0132818
617.077	0.0936947
618.807	0.360384
620.539	0.0533495
622.27	-0.300489
623.999	0.122434
625.73	-0.209139
627.461	-0.584797
629.189	0.0461569
630.919	1.06736
632.648	-0.0539627
634.376	0.400553
636.105	0.284263
637.833	-0.0165634
639.559	0.0904961
641.287	-0.148025
643.013	-0.29779
644.74	-0.129982
646.467	0.333522
648.192	0.161929
649.918	0.0395155
651.642	-0.192115
653.368	0.46702
655.091	0.129972
656.816	0.865204
658.538	0.850988
660.263	1.06451
661.987	0.728492
663.708	0.4578
665.432	0.847001
667.153	1.32561
668.875	0.293902
670.596	0.429195
672.318	0.315089
674.037	0.570091
675.759	0.232132
677.478	0.262127
679.196	-0.350644
680.917	-0.0920486
682.635	0.30308
684.355	-0.270491
686.072	0.0973463
687.791	0.279348
689.508	0.598366
691.224	0.202482
692.942	-0.171066
694.658	0.2147
696.376	0.000534058
698.091	-0.191805
699.805	0.535068
701.522	-0.418983
703.236	-0.0398722
704.95	0.429823
706.665	0.163815
708.379	0.402278
710.093	0.708652
711.806	0.487554
713.518	-0.419714
715.23	0.0913029
716.943	0.624162
718.655	0.950884
720.366	0.388367
722.078	0.37354
723.788	0.131302
725.498	0.798708
727.208	1.26021
728.919	0.358823
730.628	0.410819
732.337	0.394345
734.045	0.513433
735.755	0.700127
737.463	0.412688
739.17	0.126545
740.877	1.17194
742.584	0.0997171
744.292	0.966491
745.998	0.551354
747.704	1.51043
749.409	1.00864
751.114	1.25072
752.819	0.797071
754.526	0.749841
756.23	1.49196
757.934	0.68297
759.637	0.460529
761.34	0.735077
763.043	1.07836
764.746	1.24128
766.448	1.01905
768.152	1.06578
769.853	0.883944
771.554	1.15199
773.255	0.468653
774.956	1.11889
776.656	1.02349
778.356	1.40439
780.056	1.1087
781.755	1.80961
783.454	1.71914
785.153	1.60472
786.851	1.03484
788.549	1.66104
790.247	1.62689
791.944	1.38613
793.641	1.3245
795.338	1.51074
797.034	1.38212
798.73	0.985342
800.426	1.78408
802.121	1.07635
803.817	1.87683
805.511	0.78819
807.206	0.868057
808.9	1.01393
810.592	1.71934
812.286	1.52564
813.979	1.15232
815.672	0.84648
817.364	0.608214
819.057	0.638618
820.748	1.69637
822.44	0.967809
824.129	1.51216
825.82	0.943216
827.511	1.17906
829.201	1.68509
830.891	1.74919
832.581	1.52707
834.269	1.39643
835.958	0.976918
837.646	1.51641
839.335	1.20669
841.023	0.760908
842.709	1.14003
844.396	1.22821
846.084	1.36183
847.77	1.63169
849.455	1.61379
851.141	1.06142
852.827	1.58612
854.513	0.87898
856.196	0.552032
857.881	1.32495
859.566	1.17478
861.248	0.819666
862.932	1.16068
864.616	1.70334
866.297	0.982825
867.98	1.09549
869.663	0.959581
871.343	0.98116
873.026	1.13788
874.707	0.933525
876.387	0.571156
878.068	0.953514
879.747	1.01985
881.428	0.814895
883.108	1.28639
884.786	0.10873
886.465	0.893448
888.143	0.818643
889.822	0.674452
891.498	1.18234
893.177	0.967328
894.855	0.953816
896.53	0.399591
898.208	1.12539
899.883	0.525079
901.56	0.776629
903.234	1.40736
904.91	1.32107
906.584	1.10135
908.26	0.793666
909.933	0.933089
911.608	1.5404
913.28	1.94734
914.955	1.79883
916.627	1.87252
918.298	2.03465
919.972	1.95301
921.643	2.22615
923.315	2.05812
924.986	2.77595
926.656	0.757486
928.328	0.707018
929.997	1.25381
931.668	0.830427
933.337	0.0545435
935.006	0.712786
936.676	0.842011
938.344	0.597256
940.012	1.34636
941.681	0.64111
943.348	0.929366
945.014	0.599648
946.683	0.511402
948.349	0.90676
950.015	0.0860395
951.682	1.09554
953.347	-0.167274
955.012	0.446442
956.676	0.732283
958.343	1.17629
960.006	0.343823
961.67	0.130492
963.333	0.00521469
964.998	0.342503
966.661	0.455946
968.323	0.964586
969.985	0.652166
971.649	1.31201
973.31	0.202886
974.971	1.06367
976.632	1.32947
978.293	0.446841
979.953	0.438584
981.615	0.429935
983.274	1.05075
984.933	0.451841
986.592	0.492603
988.251	0.464937
989.909	1.12136
991.567	1.22377
993.225	1.50253
994.884	1.20711
996.541	0.978357
998.198	1.14673
999.855	1.71128
1001.51	1.54792
1003.17	1.2302
1004.82	1.28637
1006.48	1.14452
1008.13	0.585763
1009.79	0.269536
1011.44	0.305092
1013.1	1.04243
1014.75	-0.126272
1016.4	0.348644
1018.06	0.451653
1019.71	0.861647
1021.36	0.616609
1023.01	0.241826
1024.66	0.370924
1026.32	0.741032
1027.97	0.411914
1029.62	0.278822
1031.27	1.01805
1032.92	0.270414
1034.57	0.612573
1036.22	1.32334
1037.87	1.29132
1039.52	1.06327
1041.16	1.27135
1042.81	0.915494
1044.46	1.04005
1046.11	1.21022
1047.76	1.88209
1049.4	1.55693
1051.05	1.68942
1052.7	1.43192
1054.34	1.56592
1055.99	1.93906
1057.63	1.61635
1059.28	1.87997
1060.92	1.64272
1062.57	1.01307
1064.21	0.665027
1065.85	0.576736
1067.5	0.574166
1069.14	0.809444
1070.78	0.891739
1072.43	0.84353
1074.07	0.817578
1075.71	0.315611
1077.35	0.465977
1078.99	0.357492
1080.63	-0.0970516
1082.27	0.85791
1083.91	0.944487
1085.55	0.075388
1087.19	1.00303
1088.83	0.563053
1090.47	0.96548
1092.11	1.10637
1093.75	0.90083
1095.39	0.307468
1097.03	0.147213
1098.66	0.484138
1100.3	0.521179
1101.94	0.840097
1103.57	0.881209
1105.21	0.257073
1106.84	0.752151
1108.48	0.300585
1110.11	0.578991
1111.75	-0.412624
1113.38	0.678618
1115.02	1.14455
1116.65	-0.107132
1118.29	0.958298
1119.92	0.20202
1121.55	0.411301
1123.19	1.09243
1124.82	0.832808
1126.45	0.681309
1128.08	0.65909
1129.71	0.402502
1131.34	0.0611134
1132.97	-0.10886
1134.6	-0.343063
1136.23	0.383891
1137.86	-0.450431
1139.49	-0.0680237
1141.12	0.291594
1142.75	0.458197
1144.38	0.155525
1146.01	0.173651
1147.64	-0.0842237
1149.26	0.55383
1150.89	0.489225
1152.52	0.552442
1154.15	0.530073
1155.77	0.400824
1157.4	0.0800018
1159.02	0.376564
1160.65	0.142288
1162.27	0.292038
1163.9	0.336594
1165.52	0.488053
1167.15	0.341583
1168.77	0.342765
1170.39	0.384559
1172.02	0.424106
1173.64	0.546486
1175.26	0.879383
1176.89	0.702316
1178.51	-0.194486
1180.13	0.244324
1181.75	0.387376
1183.37	0.319603
1184.99	0.209717
1186.61	0.288993
1188.23	0.978199
1189.85	0.146191
1191.47	0.4507
1193.09	0.0378046
1194.71	0.758862
1196.33	0.0940971
1197.94	0.835008
1199.56	0.969576
1201.18	0.730528
1202.8	0.578493
1204.41	0.742684
1206.03	1.20139
1207.65	0.952237
1209.26	0.870398
1210.88	0.704247
1212.49	1.07831
1214.11	0.949287
1215.72	0.359677
1217.34	1.4956
1218.95	1.27719
1220.57	1.30815
1222.18	1.65091
1223.79	0.875637
1225.41	0.765934
1227.02	0.968529
1228.63	1.81374
1230.24	1.68805
1231.85	0.943781
1233.47	1.17261
1235.08	1.27885
1236.69	1.77926
1238.3	1.22674
1239.91	1.17107
1241.52	1.28108
1243.13	1.82521
1244.74	1.10642
1246.34	1.40022
1247.95	1.13411
1249.56	1.77749
1251.17	1.69623
1252.78	1.71865
1254.38	1.08003
1255.99	1.24935
1257.6	0.820211
1259.2	1.19923
1260.81	1.22762
1262.42	1.23591
1264.02	0.912794
1265.63	1.1485
1267.23	1.15547
1268.84	1.01623
1270.44	1.26969
1272.04	1.60486
1273.65	1.48262
1275.25	0.633744
1276.85	1.04826
1278.46	0.695096
1280.06	1.0662
1281.66	1.35382
1283.26	0.917209
1284.86	1.32941
1286.46	1.45292
1288.07	2.11497
1289.67	1.62065
1291.27	1.08574
1292.87	1.58393
1294.47	1.50269
1296.06	2.14281
1297.66	1.81022
1299.26	1.7235
1300.86	1.65567
1302.46	1.50402
1304.06	1.74248
1305.65	2.26743
1307.25	1.68157
1308.85	2.2865
1310.44	2.17281
1312.04	1.97791
1313.64	2.00929
1315.23	1.49007
1316.83	2.13667
1318.42	1.96688
1320.02	1.83801
1321.61	2.68599
1323.2	1.9432
1324.8	1.91126
1326.39	1.79645
1327.99	2.04611
1329.58	1.74904
1331.17	1.35341
1332.76	2.47662
1334.36	2.89412
1335.95	1.13388
1337.54	2.05869
1339.13	1.91341
1340.72	1.88717
1342.31	2.52243
1343.9	2.1488
1345.49	1.69428
1347.08	1.52161
1348.67	1.99228
1350.26	1.3643
1351.85	1.08028
1353.43	1.23879
1355.02	1.77851
1356.61	1.97871
1358.2	1.87866
1359.78	1.85738
1361.37	1.71503
1362.96	1.73135
1364.54	1.68737
1366.13	1.74332
1367.71	1.08324
1369.3	1.71905
1370.88	1.02278
1372.47	0.985029
1374.05	1.54552
1375.64	1.2512
1377.22	1.65347
1378.8	1.29899
1380.39	1.42089
1381.97	1.60086
1383.55	0.924047
1385.13	0.823013
1386.72	1.75461
1388.3	1.37484
1389.88	0.658718
1391.46	1.29346
1393.04	1.13526
1394.62	1.41394
1396.2	1.1569
1397.78	1.23617
1399.36	1.67086
1400.94	1.58904
1402.52	1.82325
1404.1	1.54276
1405.68	0.887457
1407.25	1.85448
1408.83	1.57704
1410.41	1.53745
1411.98	1.32012
1413.56	1.47729
1415.14	1.65298
1416.71	1.94575
1418.29	1.2916
1419.87	1.32799
1421.44	1.42463
1423.02	1.66085
1424.59	1.26915
1426.16	1.78437
1427.74	1.23744
1429.31	1.71371
1430.89	2.09046
1432.46	1.58013
1434.03	2.36726
1435.6	2.46498
1437.18	2.50388
1438.75	2.56332
1440.32	3.09569
1441.89	2.74487
1443.46	2.45394
1445.03	3.12654
1446.6	2.50219
1448.17	2.03518
1449.74	2.88559
1451.31	2.22281
1452.88	2.9371
1454.45	2.29489
1456.02	2.08521
1457.59	2.60283
1459.16	2.44984
1460.72	2.66857
1462.29	1.97982
1463.86	2.13512
1465.43	1.93507
1466.99	1.69547
1468.56	1.51541
1470.13	2.08229
1471.69	1.88502
1473.26	1.8853
1474.82	1.18062
1476.38	1.55502
1477.95	1.55697
1479.51	0.872764
1481.08	1.30579
1482.64	1.73857
1484.2	1.4461
1485.77	1.56469
1487.33	1.01643
1488.89	0.956426
1490.46	1.01174
1492.02	0.947124
1493.58	1.25115
1495.14	0.73295
1496.7	1.44223
1498.26	1.33205
1499.82	1.1256
1501.38	0.687916
1502.94	1.08647
1504.5	1.3303
1506.06	0.857781
1507.62	1.02363
1509.18	0.357216
1510.73	0.771577
1512.29	0.933332
1513.85	1.0942
1515.41	0.908805
1516.96	0.724568
1518.52	1.07857
1520.08	1.01111
1521.63	0.580473
1523.19	0.551809
1524.75	1.19052
1526.3	0.854014
1527.85	1.05045
1529.41	0.8273
1530.96	1.02246
1532.52	1.16074
1534.07	1.41334
1535.62	0.947807
1537.18	0.654485
1538.73	0.589093
1540.28	1.46711
1541.84	0.93065
1543.39	1.03501
1544.94	1.32692
1546.49	1.16719
1548.04	1.04511
1549.59	1.24185
1551.14	1.2137
1552.69	0.905589
1554.25	1.27196
1555.79	1.32188
1557.34	1.59782
1558.89	1.11087
1560.44	0.645095
1561.99	0.890136
1563.54	1.11784
1565.08	1.08507
1566.63	0.847148
1568.18	1.2808
1569.73	1.45276
1571.27	1.28828
1572.82	2.07547
1574.37	1.23842
1575.91	1.18541
1577.46	1.15129
1579	1.47236
1580.55	1.14069
1582.09	1.18333
1583.64	1.73137
1585.18	1.4397
1586.73	1.33536
1588.27	1.53037
1589.81	1.42592
1591.35	1.00265
1592.9	1.23391
1594.44	1.9332
1595.98	1.17155
1597.52	1.02835
1599.06	1.33579
1600.61	1.71937
1602.15	1.9162
1603.69	1.75645
1605.23	1.78362
1606.77	1.86557
1608.31	1.70086
1609.85	1.32663
1611.39	1.49469
1612.93	1.62269
1614.46	1.42988
1616	1.74317
1617.54	1.86912
1619.08	1.58416
1620.61	1.31995
1622.15	1.2073
1623.69	0.852303
1625.23	1.47084
1626.76	1.9573
1628.3	1.54389
1629.83	1.26004
1631.37	1.06868
1632.9	1.06382
1634.44	1.73129
1635.97	2.04449
1637.51	1.72443
1639.04	2.22571
1640.57	2.01851
1642.11	1.30772
1643.64	1.47147
1645.17	2.0802
1646.71	2.07332
1648.24	2.01027
1649.77	2.13343
1651.3	1.53387
1652.83	2.53157
1654.36	2.04657
1655.89	2.00756
1657.42	1.87588
1658.96	2.0212
1660.48	2.10929
1662.01	2.39896
1663.54	1.707
1665.07	1.64342
1666.6	1.35884
1668.13	1.26034
1669.66	1.77195
1671.19	1.89795
1672.71	1.39894
1674.24	1.19543
1675.77	1.1943
1677.29	0.916205
1678.82	1.42813
1680.35	1.80958
1681.87	1.17904
1683.4	1.77916
1684.92	1.29588
1686.45	1.1437
1687.97	1.13886
1689.5	1.02458
1691.02	0.929014
1692.54	0.449328
1694.07	0.354164
1695.59	0.569704
1697.11	-0.0923386
1698.64	0.962573
1700.16	0.28194
1701.68	0.787073
1703.2	0.215563
1704.72	1.24681
1706.25	0.656441
1707.77	0.0848951
1709.29	0.803864
1710.81	0.414626
1712.33	-0.0100155
1713.85	0.254696
1715.37	0.356125
1716.89	-0.0491581
1718.41	0.0159702
1719.92	0.767111
1721.44	0.79546
1722.96	1.2571
1724.48	0.530169
1725.99	0.0937243
1727.51	-0.0528288
1729.03	0.215708
1730.55	0.0910482
1732.06	0.483953
1733.58	0.357746
1735.09	0.627091
1736.61	0.580957
1738.13	0.554193
1739.64	0.503838
1741.15	-0.0565147
1742.67	0.19695
1744.18	0.523204
1745.7	0.722771
1747.21	-0.0361948
1748.72	0.728903
1750.24	0.206571
1751.75	0.645978
1753.26	-0.390089
1754.77	0.547054
1756.29	-0.10704
1757.8	0.509974
1759.31	0.473774
1760.82	0.344003
1762.33	0.0484037
1763.84	0.475142
1765.35	0.38928
1766.86	0.389874
1768.37	0.133123
1769.88	0.559075
1771.39	0.328299
1772.9	0.402658
1774.4	0.396259
1775.91	0.0926552
1777.42	0.464754
1778.93	0.494043
1780.44	0.518297
1781.94	0.193964
1783.45	0.398358
1784.96	-0.201492
1786.46	0.133904
1787.97	0.53198
1789.47	0.100643
1790.98	0.362398
1792.48	0.289873
1793.99	0.478141
1795.49	0.147545
1797	0.236817
1798.5	0.523386
1800.01	0.19247
1801.51	0.191029
1803.01	0.121593
1804.51	-0.245699
1806.02	0.0674849
1807.52	0.234813
1809.02	0.189886
1810.52	0.362178
1812.02	0.463676
1813.52	0.471505
1815.02	0.18211
1816.53	0.325458
1818.03	0.333906
1819.52	0.350237
1821.02	0.103016
1822.52	0.188997
1824.02	0.0850935
1825.52	0.157338
1827.02	0.221536
1828.52	0.0162687
1830.02	0.180334
1831.51	0.0273418
1833.01	0.0832596
1834.51	0.139132
1836.01	0.0289803
1837.5	-0.290779
1839	0.0688486
1840.49	0.485825
1841.99	0.203848
1843.49	-0.000320435
1844.98	0.0984449
1846.48	0.00658703
1847.97	0.29659
1849.47	-0.126277
1850.96	0.149579
1852.45	0.337175
1853.95	-0.0150604
1855.44	0.0452318
1856.93	0.217721
1858.42	0.152131
1859.92	0.118208
1861.41	-0.0258904
1862.9	0.203825
1864.39	0.248754
1865.88	0.369846
1867.38	-0.103302
1868.87	-0.100085
1870.36	-0.0795908
1871.85	0.177891
1873.34	0.21629
1874.83	-0.102191
1876.32	0.328218
1877.81	0.455822
1879.29	-0.0331154
1880.78	-0.178026
1882.27	-0.312675
1882.53	-0.338888
1884.03	0.44342
1885.52	0.248394
1887.01	0.400864
1888.51	-0.404833
1890	0.182422
1891.5	-0.307958
1892.99	-0.0659771
1894.48	0.0910902
1895.97	0.0239229
1897.47	-0.0770807
1898.96	-0.160856
1900.45	-0.106622
1901.94	0.0501528
1903.43	-0.386445
1904.92	0.114367
1906.41	0.301057
1907.9	0.140227
1909.39	0.362124
1910.88	-0.0570297
1912.37	0.0455074
1913.86	-0.163524
1915.35	0.0438023
1916.84	-0.0787277
1918.33	-0.0804806
1919.81	0.194489
1921.3	0.538464
1922.79	0.103519
1924.28	0.258434
1925.76	0.154984
1927.25	0.0354729
1928.73	-0.412284
1930.22	0.0229635
1931.71	0.63053
1933.19	0.249333
1934.68	0.177804
1936.16	-0.137826
1937.65	0.11613
1939.13	0.00638199
1940.62	-0.24101
1942.1	0.168649
1943.58	-0.145367
1945.07	0.0591726
1946.55	0.212304
1948.03	0.0721092
1949.51	0.310143
1951	0.23687
1952.48	0.369084
1953.96	0.311306
1955.44	0.0473232
1956.92	0.144763
1958.4	-0.0317125
1959.88	-0.0699167
1961.36	0.544127
1962.84	0.112369
1964.32	0.280406
1965.8	-0.0489035
1967.28	-0.0705843
1968.76	-0.298235
1970.24	0.123275
1971.72	-0.190558
1973.2	-0.282108
1974.67	0.291755
1976.15	-0.0382977
1977.63	-0.384727
1979.1	0.511973
1980.58	0.0296564
1982.06	0.176729
1983.54	-0.0504398
1985.01	-0.0400209
1986.49	0.343216
1987.96	0.166597
1989.44	-0.568189
1990.91	0.391068
1992.39	-0.357956
1993.86	-0.344347
1995.33	-0.0425463
1996.81	0.496066
1998.28	0.156108
1999.75	0.372994
2001.23	-0.0353708
2002.7	0.433137
2004.17	0.479572
2005.65	-0.0633726
2007.12	0.13612
2008.59	-0.000191689
2010.06	-0.118602
2011.53	0.352799
2013	0.672667
2014.47	0.184173
2015.94	-0.153592
2017.41	0.113284
2018.88	0.278131
2020.35	0.00533485
2021.82	0.673082
2023.29	-0.270799
2024.76	0.448105
2026.23	-0.0900908
2027.69	0.228935
2029.16	0.197468
2030.63	0.352093
2032.1	0.189106
2033.56	0.44626
2035.03	0.23338
2036.5	0.120701
2037.96	0.108172
2039.43	0.145614
2040.89	0.0653353
2042.36	0.321761
2043.83	0.259643
2045.29	0.0639305
2046.75	0.0540991
2048.22	-0.20806
2049.68	-0.0495033
2051.15	-0.0605526
2052.61	0.213346
2054.07	0.198502
2055.54	0.0467377
2057	-0.0222359
2058.46	0.430309
2059.92	0.259095
2061.39	0.0211582
2062.85	-0.0641918
2064.31	0.00311279
2065.77	0.0547247
2067.23	-0.330256
2068.69	0.463539
2070.15	-0.408588
2071.61	0.352165
2073.07	-0.0319948
2074.53	0.257036
2075.99	-0.228914
2077.45	-0.277446
2078.91	-0.00645542
2080.37	0.297676
2081.82	0.264379
2083.28	0.0788326
2084.74	0.128131
2086.2	-0.395366
2087.65	0.0561085
2089.11	-0.249557
2090.57	-0.0344276
2092.02	0.432225
2093.48	-0.0581408
2094.94	0.256712
2096.39	-0.1668
2097.85	0.297173
2099.3	-0.0602903
2100.76	0.151015
2102.21	-0.205874
2103.66	-0.42775
2105.12	0.403481
2106.57	-0.449423
2108.03	-0.049736
2109.48	0.233407
2110.93	0.165727
2112.38	-0.120007
2113.84	-0.240784
2115.29	0.535381
2116.74	-0.103862
2118.19	0.520723
2119.64	0.0670214
2121.09	0.146903
2122.54	0.461094
2123.99	-0.184945
2125.45	-0.216629
2126.89	0.0332689
2128.34	-0.165565
2129.79	0.0981903
2131.24	0.443099
2132.69	-0.00778008
2134.14	0.435143
2135.59	0.117916
2137.04	0.100105
2138.48	-0.113966
2139.93	0.153312
2141.38	0.405949
2142.83	0.163981
2144.27	-0.143621
2145.72	-0.0872231
2147.17	0.449062
2148.61	-0.0418453
2150.06	-0.136364
2151.5	-0.0994196
2152.95	0.0856075
2154.39	0.0874929
2155.84	0.519619
2157.28	0.0241117
2158.73	0.241714
2160.17	0.311694
2161.61	-0.113512
2163.06	0.275295
2164.5	0.0855503
2165.94	0.1621
2167.38	0.471264
2168.83	0.29757
2170.27	0.271445
2171.71	-0.0397987
2173.15	0.279001
2174.59	0.296865
2176.03	0.197684
2177.47	0.630833
2178.91	0.0671921
2180.36	0.319308
2181.8	0.173363
2183.23	0.244202
2184.67	0.465074
2186.11	-0.129048
2187.55	0.0420341
2188.99	0.213235
2190.43	-0.231401
2191.87	0.106007
2193.3	0.259555
2194.74	0.261835
2196.18	0.328716
2197.62	0.0938959
2199.05	0.0403786
2200.49	0.0190601
2201.93	0.313052
2203.36	-0.288544
2204.8	-0.30789
2206.23	0.386511
2207.67	-0.0124893
2209.1	0.665015
2210.54	-0.0327311
2211.97	0.377467
2213.41	0.0920677
2214.84	0.318975
2216.27	0.447205
2217.71	0.24662
2219.14	-0.133801
2220.57	-0.0679111
2222.01	-0.216168
2223.44	0.178595
2224.87	0.176292
2226.3	0.0898323
2227.73	0.0674534
2229.16	0.43786
2230.6	0.0847807
2232.03	0.207463
2233.46	0.444762
2234.89	0.257286
2236.32	0.0388145
2237.75	0.132621
2239.18	0.195775
2240.61	-0.16298
2242.03	0.246919
2243.46	-0.206263
2244.89	0.123842
2246.32	-0.0197783
2247.75	0.242608
2249.17	-0.0192156
2250.6	0.0589142
2252.03	0.265212
2253.46	0.09618
2254.88	0.203986
2256.31	0.0697241
2257.73	-0.159121
2259.16	-0.0115862
2260.59	0.220276
2262.01	-0.0319614
2263.44	0.301997
2264.86	0.474174
2266.29	0.109543
2267.71	0.150357
2269.14	0.515668
2270.56	-0.0638876
2271.98	0.0395851
2273.4	0.0451918
2274.83	-0.291183
2276.25	0.00795841
2277.67	0.0466805
2279.09	-0.207946
2280.52	0.548261
2281.94	-0.0817223
2283.36	0.380981
2284.78	0.191211
2286.2	0.132174
2287.62	0.0898428
2289.04	0.439993
2290.46	0.366017
2291.88	0.37404
2293.3	0.333145
2294.72	0.423084
2296.14	-0.0435286
2297.56	-0.248589
2298.98	0.250683
2300.4	0.0786276
2301.82	0.0870934
2303.23	0.194323
2304.65	0.383916
2306.07	0.0644979
2307.49	0.0730009
2308.9	0.47542
2310.32	-0.109162
2311.73	-0.0695066
2313.15	-0.177948
2314.57	0.010253
2315.98	-0.558067
2317.4	0.38962
2318.81	-0.0458698
2320.23	0.0951748
2321.64	0.58164
2323.06	0.42256
2324.47	0.475325
2325.88	0.261499
2327.3	1.13428
2328.71	0.0770035
2330.12	0.305885
2331.54	-0.0242167
2332.95	0.206743
2334.36	0.191723
2335.77	-0.267177
2337.18	0.309769
2338.6	0.145438
2340.01	0.193578
2341.42	0.158491
2342.83	0.204931
2344.24	0.185677
2345.65	-0.0299101
2347.06	-0.277666
2348.47	0.244256
2349.88	0.192544
2351.29	0.254453
2352.7	0.0538301
2354.1	0.700987
2355.51	0.270259
2356.92	0.0354433
2358.33	0.354095
2359.74	0.152299
2361.14	0.308097
2362.55	-0.120113
2363.96	-0.272208
2365.36	0.158384
2366.77	0.28121
2368.18	-0.273624
2369.58	0.51256
2370.99	0.0578403
2372.39	0.136824
2373.8	0.29737
2375.2	0.426019
2376.61	0.103638
2378.01	-0.0427399
2379.42	0.178935
2380.82	0.14152
2382.22	0.00638294
2383.63	0.142834
2385.03	0.37465
2386.43	0.398681
2387.84	0.423685
2389.24	-0.0283089
2390.64	0.159129
2392.04	0.0928783
2393.44	0.298325
2394.84	0.520413
2396.25	0.154911
2397.65	-0.0348043
2399.05	0.268781
2400.45	0.112099
2401.85	0.368795
2403.25	0.0696182
2404.65	0.29411
2406.05	0.200042
2407.45	0.533408
2408.84	-0.0384216
2410.24	0.483682
2411.64	0.340097
2413.04	-0.119162
2414.44	0.547366
2415.83	0.107203
2417.23	0.0959921
2418.63	0.164956
2420.02	0.266028
2421.42	-0.10821
2422.82	0.0715399
2424.21	-0.00249004
2425.61	0.0344534
2427	-0.0548172
2428.4	-0.238317
2429.8	0.150037
2431.19	0.142803
2432.58	0.484973
2433.98	0.795101
2435.37	0.0238237
2436.77	0.156237
2438.16	0.302853
2439.55	0.114385
2440.95	0.210834
2442.34	0.306609
2443.73	0.259172
2445.12	-0.0104837
2446.51	0.227256
2447.91	0.274462
2449.3	0.0840063
2450.69	0.163134
2452.08	0.0845118
2453.47	0.0700903
2454.86	0.2781
2456.25	0.123003
2457.64	0.474448
2459.03	-0.075882
2460.42	0.0533009
2461.81	0.513562
2463.2	0.00852203
2464.59	-0.180816
2465.98	-0.0702705
2467.36	0.434703
2468.75	0.0871382
2470.14	-0.323414
2471.53	0.0540819
2472.92	-0.0736961
2474.3	0.3016
2475.69	-0.220991
2477.08	0.121285
2478.46	0.0703354
2479.85	0.47471
2481.23	0.141697
2482.62	0.48282
2484	-0.16337
2485.39	0.285406
2486.77	0.153963
2488.16	0.162033
2489.54	0.0757513
2490.93	0.191853
2492.31	0.35487
2493.69	0.0684261
2495.08	0.187366
2496.46	-0.265999
2497.84	0.196063
2499.23	0.0850868
2500.61	-0.13438
2501.99	0.171107
2503.37	0.0735226
2504.75	0.0985355
2506.13	0.0765848
2507.52	-0.530429
2508.9	0.0939102
2510.28	-0.157991
2511.66	0.112932
2513.04	0.399535
2514.42	-0.0944996
2515.8	-0.372585
2517.18	-0.2365
2518.55	-0.252881
2519.93	0.342169
2521.31	-0.224427
2522.69	-0.0584373
2524.07	-0.137615
2525.45	-0.11076
2526.82	0.0528088
2528.2	0.246982
2529.58	0.305244
2530.95	0.274022
2532.33	0.214311
2533.71	0.551149
2535.08	0.28106
2536.46	0.0413113
2537.84	0.226205
2539.21	0.0606651
2540.59	0.364963
2541.96	0.289212
2543.34	0.031745
2544.71	0.0180454
2546.08	0.233195
2547.46	-0.111553
2548.83	0.0148439
2550.2	-0.0103979
2551.58	-0.00581455
2552.95	0.134365
2554.32	0.030591
2555.7	0.426535
2557.07	0.00261116
2558.44	0.0488338
2559.81	0.565252
2561.18	0.339386
2562.55	0.311309
2563.93	-0.0040369
2565.3	0.42363
2566.67	0.457576
2568.04	0.567396
2569.41	0.5863
2570.78	0.180806
2572.15	0.487717
2573.51	0.0671387
2574.88	0.146873
2576.25	0.454062
2577.62	0.382153
2578.99	0.0370417
2580.36	-0.278148
2581.73	0.118876
2583.09	-0.0758514
2584.46	0.744901
2585.83	0.428553
2587.19	0.127551
2588.56	0.357249
2589.93	0.405175
2591.29	0.559024
2592.66	0.37897
2594.02	0.288956
2595.39	0.576429
2596.75	0.241903
2598.12	0.632965
2599.48	-0.0805349
2600.85	0.219283
2602.21	-0.190483
2603.58	0.0499468
2604.94	0.0191689
2606.3	0.048954
2607.67	0.591031
2609.03	0.302745
2610.39	-0.107067
2611.76	0.0541801
2613.12	0.454471
2614.48	0.192186
2615.84	-0.12988
2617.2	0.103588
2618.56	-0.0970478
2619.92	0.586346
2621.28	0.551774
2622.65	0.682209
2624.01	-0.202655
2625.37	0.256591
2626.72	0.252659
2628.08	0.844397
2629.44	0.154383
2630.8	0.41738
2632.16	0.114931
2633.52	0.0208645
2634.88	0.105012
2636.24	0.174153
2637.59	0.613611
2638.95	0.637846
2640.31	0.573442
2641.67	0.302464
2643.02	0.608331
2644.38	0.589177
2645.74	0.481439
2647.09	0.358653
2648.45	-0.0298471
2649.8	0.596828
2651.16	0.57467
2652.51	0.185051
2653.87	0.295274
2655.22	0.127616
2656.58	0.137184
2657.93	0.235811
2659.29	0.349931
2660.64	0.581354
2661.99	0.388567
2663.35	0.502036
2664.7	0.0014019
2666.05	0.011138
2667.41	0.195216
2668.76	0.422568
2670.11	0.795358
2671.46	0.295832
2672.81	0.248114
2674.16	-0.0312138
2675.51	0.16935
2676.87	0.268784
2678.22	0.455881
2679.57	0.527803
2680.92	0.0644493
2682.27	0.457831
2683.62	0.5046
2684.97	0.407411
2686.31	0.383227
2687.66	0.213694
2689.01	0.507334
2690.36	0.378122
2691.71	0.595239
2693.06	0.0560656
2694.4	0.197857
2695.75	0.324798
2697.1	0.640604
2698.45	0.769375
2699.79	0.262931
2701.14	0.250755
2702.49	0.167784
2703.83	0.43367
2705.18	-0.270973
2706.52	0.633765
2707.87	0.494234
2709.21	0.063797
2710.56	0.213495
2711.9	0.0579309
2713.25	0.265392
2714.59	0.0658998
2715.94	0.258797
2717.28	0.669806
2718.62	0.527917
2719.97	0.647461
2721.31	0.417249
2722.65	0.186425
2723.99	0.726491
2725.34	0.0579653
2726.68	0.276906
2728.02	0.451805
2729.36	0.306246
2730.7	0.407911
2732.04	0.174891
2733.39	0.494798
2734.73	0.567554
2736.07	0.204182
2737.41	0.553641
2738.75	0.321311
2740.08	-0.129398
2741.43	0.190105
2742.76	0.479722
2744.1	0.361486
2745.44	0.605819
2746.78	0.573561
2748.12	0.192744
2749.46	0.508731
2750.79	0.592616
2752.13	0.0678234
2753.47	-0.123021
2754.81	-0.226636
2756.14	0.104462
2757.48	0.421054
2758.81	0.0573864
2760.15	0.606099
2761.49	0.185614
2762.82	0.431347
2764.16	0.257792
2765.49	0.142108
2766.83	0.127208
2768.16	-0.033329
2769.5	0.166323
2770.83	-0.0837774
2772.16	-0.233928
2773.5	-0.341646
2774.83	0.28548
2776.17	0.392911
2777.5	0.457389
2778.83	0.105349
2780.16	0.343559
2781.5	-0.150592
2782.83	0.11661
2784.16	0.18261
2785.49	-0.109808
2786.82	-0.387327
2788.15	0.0946684
2789.49	0.319456
2790.82	0.230398
2792.15	0.213743
2793.48	0.068944
2794.81	0.0528736
2796.14	-0.22074
2797.46	0.0480061
2798.79	0.144616
2800.12	0.0265951
2801.45	-0.105874
2802.78	0.103767
2804.11	0.184651
2805.44	-0.10534
2806.76	0.131001
2808.09	-0.00346947
2809.42	0.131833
2810.75	0.139146
2812.07	0.260629
2813.4	-0.26921
2814.73	0.280453
2816.05	0.335268
2817.38	0.0794907
2818.7	0.122007
2820.03	0.277921
2821.36	0.234913
2822.68	0.120325
2824.01	0.359298
2825.33	0.144515
2826.65	0.184783
2827.98	0.253907
2829.3	0.0688028
2830.63	0.308908
2831.95	0.266115
2833.27	0.931005
2834.6	0.661297
2835.92	0.306183
2837.24	0.474126
2838.56	0.542496
2839.88	0.935865
2841.21	0.650516
2842.53	0.76154
2843.85	0.647106
2845.17	0.999836
2846.49	1.63589
2847.81	1.22654
2849.13	1.19879
2850.45	1.46753
2851.77	1.07143
2853.09	1.07055
2854.41	1.33774
2855.73	1.8731
2857.05	1.68783
2858.37	2.09591
2859.69	2.00956
2861	2.00777
2862.32	1.72328
2863.64	1.90426
2864.96	2.38118
2866.28	2.88603
2867.59	2.2345
2868.91	2.78225
2870.23	3.44306
2871.54	3.08898
2872.86	3.18568
2874.17	3.02786
2875.49	2.92526
2876.81	3.14532
2878.12	3.63158
2879.44	3.20286
2880.75	2.88742
2882.07	3.48641
2883.38	2.79408
2884.69	3.24054
2886.01	3.23828
2887.32	3.61504
2888.63	3.52808
2889.95	3.66471
2891.26	3.44971
2892.57	3.64063
2893.89	3.69111
2895.2	3.74197
2896.51	3.37383
2897.82	3.53888
2899.13	3.78897
2900.44	3.77411
2901.76	3.43807
2903.07	3.8017
2904.38	3.3542
2905.69	4.37568
2907	4.39075
2908.31	3.74928
2909.62	4.3958
2910.93	4.62339
2912.24	4.83708
2913.55	4.61598
2914.85	4.47723
2916.16	4.39257
2917.47	5.10394
2918.78	5.11422
2920.09	5.57186
2921.4	5.26102
2922.7	4.92382
2924.01	5.39901
2925.32	5.33035
2926.62	5.75167
2927.93	5.80962
2929.24	5.60153
2930.54	5.57454
2931.85	5.50508
2933.15	5.75685
2934.46	5.5613
2935.76	5.49172
2937.07	5.49222
2938.37	5.50691
2939.68	5.25645
2940.98	4.75505
2942.29	5.00919
2943.59	4.59386
2944.89	4.5713
2946.2	4.3822
2947.5	4.36152
2948.8	4.11664
2950.11	3.74437
2951.41	3.8322
2952.71	3.84803
2954.01	3.69437
2955.32	4.18429
2956.62	3.93324
2957.92	3.25051
2959.22	3.7185
2960.52	4.09182
2961.82	2.98192
2963.12	3.94758
2964.42	3.13104
2965.72	3.0846
2967.02	3.37368
2968.32	3.4507
2969.62	2.75353
2970.92	2.89984
2972.22	2.87772
2973.51	2.71526
2974.81	2.69349
2976.11	2.38946
2977.41	2.81624
2978.71	2.41047
2980	2.5942
2981.3	2.80455
2982.6	2.56403
2983.9	2.33817
2985.19	1.95908
2986.49	2.01741
2987.78	1.8525
2989.08	1.49194
2990.38	1.67975
2991.67	1.88114
2992.97	1.56143
2994.26	1.35287
2995.56	1.11515
2996.85	1.43846
2998.14	1.17187
2999.44	0.779572
3000.73	0.346108
3002.03	1.00687
3003.32	1.14923
3004.61	0.745319
3005.91	0.91556
3007.2	0.749084
3008.49	0.483958
3009.78	0.204246
3011.07	0.0778656
3012.37	0.551608
3013.66	0.341067
3014.95	-0.0359592
3016.24	0.20123
3017.53	0.299712
3018.82	0.203858
3020.11	0.31683
3021.4	0.0400724
3022.69	0.151721
3023.98	0.636873
3025.27	0.24693
3026.56	0.660836
3027.85	0.00906181
3029.14	-0.225601
3030.43	-0.472175
3031.71	-0.0540895
3033	0.0196581
3034.29	-0.320288
3035.58	0.374147
3036.87	-0.0640106
3038.15	-0.158971
3039.44	0.377378
3040.73	0.251101
3042.01	0.247736
3043.3	0.121006
3044.59	0.283023
3045.87	-0.0183907
3047.16	0.543743
3048.44	-0.0527573
3049.73	-0.196058
3051.01	0.535741
3052.3	0.24494
3053.58	0.254424
3054.87	0.549754
3056.15	0.421056
3057.43	0.591215
3058.72	0.515135
3060	0.248275
3061.29	0.608131
3062.57	0.601506
3063.85	0.419702
3065.13	0.212523
3066.42	0.292417
3067.7	0.128715
3068.98	0.115021
3070.26	0.114699
3071.54	0.331151
3072.82	0.124768
3074.11	-0.273066
3075.39	0.170952
3076.67	0.111774
3077.95	-0.0554342
3079.23	0.267132
3080.51	0.224916
3081.79	0.428628
3083.07	0.321744
3084.35	0.174933
3085.63	0.096055
3086.9	0.0167503
3088.18	-0.361845
3089.46	0.0732918
3090.74	-0.197713
3092.02	0.141808
3093.29	0.31865
3094.57	0.0754251
3095.85	0.117381
3097.13	0.240824
3098.4	0.0525045
3099.68	0.460398
3100.95	0.231386
3102.23	0.476621
3103.51	0.343014
3104.78	0.00707388
3106.06	-0.273762
3107.33	-0.0257697
3108.61	0.182775
3109.88	0.243678
3111.16	-0.0192351
3112.43	0.165538
3113.71	0.296779
3114.98	0.536636
3116.25	0.450772
3117.53	0.241952
3118.8	0.46604
3120.07	0.661887
3121.35	0.368644
3122.62	0.197035
3123.89	0.553747
3125.16	0.612554
3126.44	0.333515
3127.71	0.664211
3128.98	0.454349
3130.25	0.69128
3131.52	0.374071
3132.79	0.746158
3134.06	0.698951
3135.33	0.880809
3136.6	0.751611
3137.87	0.365999
3139.14	1.00446
3140.41	0.632349
3141.68	0.731692
3142.95	0.549151
3144.22	0.689739
3145.49	0.777192
3146.76	0.503431
3148.02	0.61936
3149.29	1.1643
