200.398	0.343714
202.213	0.399115
204.027	0.457018
205.843	0.443928
207.657	0.309719
209.47	0.0286236
211.283	-0.959019
213.097	0.139139
214.909	0.0932198
216.721	0.118607
218.533	0.434477
220.344	-0.652781
222.157	0.585245
223.967	0.276327
225.777	0.379599
227.587	0.386169
229.396	-0.187746
231.205	0.806295
233.016	-0.0348473
234.824	-0.1514
236.632	0.963867
238.439	1.6491
240.247	2.58078
242.053	2.89107
243.86	1.95028
245.666	2.16689
247.474	3.65975
249.279	3.28744
251.085	4.54928
252.889	4.11397
254.694	3.96393
256.498	4.65658
258.301	4.74785
260.105	3.20476
261.908	3.54567
263.71	3.48092
265.513	3.32225
267.315	2.32073
269.116	3.12587
270.918	3.23006
272.718	1.74008
274.519	1.83799
276.319	2.48646
278.119	2.02171
279.918	1.60079
281.718	2.83639
283.516	1.5885
285.315	2.28553
287.113	1.03503
288.911	1.20144
290.708	1.17729
292.505	0.916466
294.302	0.491756
296.098	0.524767
297.894	0.488214
299.69	0.57209
301.485	0.0105057
303.278	0.259155
305.073	0.862843
306.867	1.2013
308.661	0.918833
310.454	0.232557
312.247	1.14489
314.04	0.512281
315.833	0.716955
317.623	0.591869
319.415	1.6134
321.206	1.01747
322.997	-0.030592
324.788	0.615044
326.579	0.97504
328.367	0.665812
330.156	0.713287
331.946	0.5429
333.735	0.153278
335.523	0.500694
337.31	0.388466
339.098	0.678383
340.885	0.127556
342.673	-0.0662251
344.458	0.0264988
346.244	0.048317
348.03	-0.119659
349.816	-0.262793
351.6	-0.11956
353.385	0.0700893
355.17	0.138042
356.953	0.131489
358.737	0.479464
360.521	-0.00912666
362.304	0.119558
364.085	-0.110401
365.868	0.15727
367.65	-0.123264
369.431	-0.215532
371.212	1.13531
372.994	1.01457
374.773	0.893087
376.554	0.700979
378.332	0.34515
380.112	0.533581
381.892	1.17119
383.669	0.610867
385.448	0.970671
387.225	1.26213
389.003	1.34429
390.781	1.54588
392.557	2.33621
394.334	2.39977
396.109	2.34667
397.885	2.71646
399.66	3.32066
401.436	3.47754
403.211	3.56235
404.984	3.55129
406.759	4.33674
408.532	2.88989
410.306	2.7572
412.078	3.68057
413.851	3.68938
415.623	4.4037
417.395	4.01712
419.166	4.26559
420.938	5.45358
422.708	4.52859
424.477	3.85985
426.248	3.75217
428.017	2.53902
429.788	1.9351
431.556	1.33108
433.326	0.938921
435.093	0.430048
436.86	0.343491
438.629	1.14723
440.395	0.422388
442.163	0.819515
443.929	1.02395
445.694	0.357168
447.461	2.02922
449.226	0.680511
450.99	0.712692
452.756	0.558611
454.52	0.125273
456.285	1.53373
458.048	0.331202
459.811	0.270807
461.573	1.18843
463.337	1.22494
465.099	0.685661
466.86	1.4073
468.623	0.787058
470.384	0.216911
472.144	-0.0267677
473.906	0.63578
475.666	-0.0790749
477.425	0.878296
479.184	0.387356
480.944	0.639502
482.703	1.05476
484.461	0.191404
486.218	1.54492
487.975	0.596724
489.734	1.84426
491.491	0.598345
493.247	0.496529
495.003	0.628801
496.759	0.714275
498.516	-0.0207806
500.271	0.742638
502.025	1.08347
503.779	0.694717
505.533	1.57208
507.287	0.566113
509.042	0.849718
510.795	0.776981
512.547	1.14781
514.299	1.63289
516.051	2.27933
517.803	1.9113
519.554	2.57549
521.305	2.29736
523.055	1.57209
524.805	2.34918
526.555	2.18695
528.307	0.453924
530.056	2.2845
531.805	1.98077
533.553	1.88617
535.301	2.13983
537.049	1.6653
538.797	1.37515
540.544	1.43265
542.291	1.72102
544.037	1.63545
545.783	1.22459
547.529	1.0007
549.275	1.38054
551.02	1.50524
552.765	1.49123
554.509	0.460913
556.253	1.25682
557.997	0.806662
559.738	2.10943
561.482	1.43141
563.224	0.548742
564.967	1.92122
566.709	0.238167
568.451	0.188816
570.192	0.784286
571.933	1.74939
573.674	1.77737
575.415	0.524788
577.153	1.18005
578.893	1.47148
580.632	0.639587
582.371	0.749296
584.11	-0.1306
585.849	1.14844
587.587	1.06817
589.323	-0.0271835
591.06	0.853857
592.797	0.997421
594.534	0.657425
596.271	0.0183983
598.005	1.26588
599.741	0.672007
601.476	0.858507
603.211	1.1571
604.944	0.555603
606.679	0.342257
608.413	-0.171288
610.147	0.233393
611.878	0.54685
613.611	0.196768
615.344	-0.518244
617.077	0.371431
618.807	0.70974
620.539	1.0682
622.27	0.30246
623.999	0.175852
625.73	0.848789
627.461	0.198952
629.189	0.535336
630.919	0.785465
632.648	0.97179
634.376	0.293434
636.105	0.80127
637.833	0.552134
639.559	0.43405
641.287	0.925232
643.013	0.0427227
644.74	1.09411
646.467	1.21142
648.192	-0.0766315
649.918	0.711178
651.642	0.280302
653.368	0.494366
655.091	0.306778
656.816	0.784397
658.538	0.877821
660.263	0.765308
661.987	0.854677
663.708	1.0533
665.432	0.354944
667.153	0.978151
668.875	1.09655
670.596	1.05626
672.318	-0.0552673
674.037	-0.132113
675.759	0.0707207
677.478	-0.0902805
679.196	0.208204
680.917	0.666147
682.635	0.223675
684.355	-1.14486
686.072	0.382635
687.791	0.433352
689.508	0.0439835
691.224	-1.17632
692.942	-0.601271
694.658	0.893427
696.376	-0.216694
698.091	0.789074
699.805	0.0884571
701.522	1.29475
703.236	0.222046
704.95	0.228632
706.665	0.119221
708.379	-0.472506
710.093	-0.147642
711.806	1.16033
713.518	0.589657
715.23	0.38516
716.943	-0.64113
718.655	0.136768
720.366	0.389439
722.078	0.437008
723.788	0.439157
725.498	0.645645
727.208	-0.125565
728.919	0.306353
730.628	0.532455
732.337	-0.443129
734.045	0.279684
735.755	-0.35511
737.463	0.231495
739.17	0.0965023
740.877	0.211794
742.584	0.847622
744.292	-0.765726
745.998	0.123468
747.704	0.295141
749.409	0.537153
751.114	0.0172558
752.819	0.0850048
754.526	-0.384201
756.23	0.207258
757.934	1.02774
759.637	-0.941225
761.34	0.877253
763.043	1.27825
764.746	0.956837
766.448	0.700369
768.152	0.484879
769.853	0.60372
771.554	0.446772
773.255	1.0329
774.956	0.758623
776.656	1.32205
778.356	1.88836
780.056	1.21444
781.755	1.74181
783.454	1.45529
785.153	1.46053
786.851	1.21165
788.549	0.955906
790.247	0.105032
791.944	1.55478
793.641	0.96603
795.338	1.57325
797.034	0.558521
798.73	0.945305
800.426	0.705347
802.121	0.851276
803.817	1.29103
805.511	1.73018
807.206	0.526857
808.9	0.84934
810.592	0.832249
812.286	0.835489
813.979	0.613369
815.672	0.704462
817.364	1.26501
819.057	0.908442
820.748	2.09365
822.44	0.510965
824.129	1.36279
825.82	0.790392
827.511	2.36152
829.201	1.24338
830.891	1.71346
832.581	0.853514
834.269	1.06759
835.958	1.57427
837.646	1.65724
839.335	1.20189
841.023	1.47976
842.709	1.15154
844.396	0.531487
846.084	0.471342
847.77	1.53296
849.455	1.05742
851.141	0.139029
852.827	1.08363
854.513	1.20224
856.196	0.916557
857.881	-0.248892
859.566	1.97783
861.248	0.736113
862.932	1.04372
864.616	0.26693
866.297	-0.0615692
867.98	-0.0534191
869.663	-0.384548
871.343	0.862556
873.026	1.13949
874.707	-0.321068
876.387	0.361881
878.068	0.0519886
879.747	0.215874
881.428	0.0855503
883.108	0.427761
884.786	0.880453
886.465	0.494772
888.143	0.218626
889.822	-0.0608673
891.498	-0.253178
893.177	0.092289
894.855	0.974592
896.53	1.87535
898.208	0.795649
899.883	0.546116
901.56	-0.645775
903.234	-0.269554
904.91	0.395735
906.584	1.10454
908.26	0.765146
909.933	0.473135
911.608	0.606445
913.28	0.163319
914.955	0.54339
916.627	0.301811
918.298	-0.0724316
919.972	0.506306
921.643	0.222513
923.315	-0.213053
924.986	-0.114172
926.656	0.143307
928.328	0.426497
929.997	0.535948
931.668	0.867628
933.337	0.913141
935.006	0.606173
936.676	0.410503
938.344	0.657942
940.012	1.10674
941.681	0.698204
943.348	0.622301
945.014	0.413717
946.683	0.621946
948.349	1.55445
950.015	0.0765915
951.682	0.69249
953.347	0.712553
955.012	0.581781
956.676	0.920488
958.343	0.516994
960.006	0.583317
961.67	0.123419
963.333	0.834312
964.998	0.0162449
966.661	0.717953
968.323	0.970795
969.985	0.820297
971.649	1.48601
973.31	1.4227
974.971	0.456202
976.632	0.444937
978.293	1.1673
979.953	1.17264
981.615	1.17715
983.274	1.18958
984.933	1.39659
986.592	1.28861
988.251	1.30901
989.909	0.132172
991.567	1.18713
993.225	0.937269
994.884	1.32804
996.541	1.96136
998.198	3.58614
999.855	2.91667
1001.51	2.55533
1003.17	2.17135
1004.82	1.85303
1006.48	1.35903
1008.13	0.624474
1009.79	1.27422
1011.44	0.696085
1013.1	0.777306
1014.75	1.64795
1016.4	0.701593
1018.06	1.02657
1019.71	1.09075
1021.36	1.66032
1023.01	0.81159
1024.66	1.29874
1026.32	1.59061
1027.97	2.71284
1029.62	2.39136
1031.27	2.87499
1032.92	2.67736
1034.57	2.65011
1036.22	2.44484
1037.87	3.04369
1039.52	3.16236
1041.16	3.60882
1042.81	3.31905
1044.46	4.14236
1046.11	3.92783
1047.76	5.86865
1049.4	5.49031
1051.05	6.00616
1052.7	6.26394
1054.34	5.71898
1055.99	6.2171
1057.63	4.93202
1059.28	4.64528
1060.92	2.70411
1062.57	1.6957
1064.21	2.22877
1065.85	2.15031
1067.5	2.1777
1069.14	1.76799
1070.78	1.72608
1072.43	2.03112
1074.07	1.64275
1075.71	1.47417
1077.35	0.550032
1078.99	0.865328
1080.63	1.07415
1082.27	1.91189
1083.91	1.42476
1085.55	0.868721
1087.19	1.52136
1088.83	0.28413
1090.47	0.840109
1092.11	0.613878
1093.75	0.386776
1095.39	0.915577
1097.03	-0.235994
1098.66	0.362383
1100.3	1.58852
1101.94	1.11842
1103.57	1.42764
1105.21	0.729259
1106.84	-0.354549
1108.48	0.432184
1110.11	0.65704
1111.75	0.469488
1113.38	0.321041
1115.02	0.513073
1116.65	-0.0904503
1118.29	0.614752
1119.92	1.47066
1121.55	0.872086
1123.19	0.212593
1124.82	1.90961
1126.45	0.613359
1128.08	1.05188
1129.71	0.551308
1131.34	0.672329
1132.97	-0.146477
1134.6	-0.131763
1136.23	-0.0330467
1137.86	0.319494
1139.49	0.583403
1141.12	-0.158928
1142.75	-0.731155
1144.38	0.531702
1146.01	-0.592661
1147.64	-0.222004
1149.26	0.193195
1150.89	0.950247
1152.52	0.237675
1154.15	0.0781403
1155.77	0.662601
1157.4	0.310202
1159.02	1.25631
1160.65	-0.092474
1162.27	-0.31114
1163.9	0.854748
1165.52	0.108419
1167.15	0.849873
1168.77	0.759474
1170.39	0.707346
1172.02	-0.093256
1173.64	0.24905
1175.26	0.0785046
1176.89	-0.0931969
1178.51	0.117115
1180.13	1.09084
1181.75	0.479015
1183.37	0.905624
1184.99	0.507858
1186.61	0.0449524
1188.23	0.35936
1189.85	0.35203
1191.47	0.129301
1193.09	0.134485
1194.71	0.410469
1196.33	0.97917
1197.94	0.899532
1199.56	1.28464
1201.18	2.36457
1202.8	1.65433
1204.41	0.951849
1206.03	1.54911
1207.65	2.0663
1209.26	0.769455
1210.88	1.84861
1212.49	0.629362
1214.11	1.96858
1215.72	1.15537
1217.34	0.650787
1218.95	1.28743
1220.57	2.00537
1222.18	1.16818
1223.79	1.88981
1225.41	2.6764
1227.02	2.82463
1228.63	2.91451
1230.24	2.69768
1231.85	3.64182
1233.47	2.64621
1235.08	3.4729
1236.69	2.91816
1238.3	3.48246
1239.91	2.68418
1241.52	3.62349
1243.13	3.03146
1244.74	3.86487
1246.34	3.95068
1247.95	2.58517
1249.56	3.16265
1251.17	2.45646
1252.78	2.90934
1254.38	3.57088
1255.99	2.58063
1257.6	3.18646
1259.2	3.31979
1260.81	3.0831
1262.42	2.59912
1264.02	2.40492
1265.63	4.15747
1267.23	2.69619
1268.84	3.57447
1270.44	3.08168
1272.04	2.93846
1273.65	2.99977
1275.25	3.05837
1276.85	2.86572
1278.46	3.20954
1280.06	3.013
1281.66	3.54018
1283.26	3.19823
1284.86	3.31296
1286.46	3.30598
1288.07	3.50854
1289.67	3.34159
1291.27	3.21747
1292.87	2.92792
1294.47	3.56613
1296.06	3.84949
1297.66	4.93329
1299.26	4.13373
1300.86	4.42362
1302.46	4.27689
1304.06	3.16042
1305.65	3.91502
1307.25	4.39958
1308.85	3.79494
1310.44	4.81052
1312.04	3.92106
1313.64	4.24215
1315.23	4.32017
1316.83	4.38036
1318.42	4.6461
1320.02	5.19662
1321.61	4.86778
1323.2	4.61662
1324.8	4.1374
1326.39	3.89897
1327.99	4.6123
1329.58	4.47481
1331.17	5.25212
1332.76	4.74107
1334.36	4.51997
1335.95	4.42499
1337.54	4.33179
1339.13	3.91449
1340.72	4.2586
1342.31	5.15955
1343.9	4.48502
1345.49	5.17393
1347.08	3.81597
1348.67	4.18835
1350.26	3.32605
1351.85	3.57219
1353.43	4.38367
1355.02	3.39956
1356.61	2.61693
1358.2	3.49169
1359.78	3.32488
1361.37	3.37478
1362.96	3.90097
1364.54	1.77402
1366.13	3.27639
1367.71	2.17051
1369.3	2.78078
1370.88	3.27509
1372.47	2.61896
1374.05	2.4038
1375.64	4.16041
1377.22	2.2362
1378.8	3.99192
1380.39	3.15804
1381.97	2.5993
1383.55	2.81286
1385.13	3.26197
1386.72	2.31861
1388.3	3.48144
1389.88	3.01736
1391.46	2.37754
1393.04	2.31558
1394.62	2.05641
1396.2	2.27282
1397.78	2.58636
1399.36	1.60897
1400.94	2.9471
1402.52	2.24333
1404.1	2.6085
1405.68	1.98596
1407.25	2.53243
1408.83	2.90301
1410.41	2.38596
1411.98	3.11321
1413.56	3.34489
1415.14	2.98191
1416.71	4.0565
1418.29	3.00008
1419.87	2.87148
1421.44	3.17907
1423.02	3.56951
1424.59	3.51177
1426.16	2.78848
1427.74	3.5823
1429.31	3.90311
1430.89	4.83152
1432.46	4.30014
1434.03	5.16295
1435.6	6.14187
1437.18	6.07868
1438.75	6.50912
1440.32	7.11932
1441.89	7.5359
1443.46	6.34316
1445.03	6.11459
1446.6	7.10519
1448.17	7.11355
1449.74	6.76891
1451.31	7.27107
1452.88	6.59509
1454.45	6.43144
1456.02	6.5628
1457.59	6.22006
1459.16	7.015
1460.72	6.3287
1462.29	6.18786
1463.86	5.98311
1465.43	5.71622
1466.99	4.95734
1468.56	4.49475
1470.13	4.23138
1471.69	3.95182
1473.26	3.81276
1474.82	2.2053
1476.38	3.67779
1477.95	3.24858
1479.51	3.03494
1481.08	3.19347
1482.64	2.90098
1484.2	2.15756
1485.77	2.27544
1487.33	2.64583
1488.89	3.07113
1490.46	1.65161
1492.02	1.98777
1493.58	1.80952
1495.14	2.05596
1496.7	1.71412
1498.26	2.87082
1499.82	2.1797
1501.38	2.40552
1502.94	2.24631
1504.5	1.58614
1506.06	1.41192
1507.62	1.99062
1509.18	1.94715
1510.73	0.800724
1512.29	1.02299
1513.85	1.60932
1515.41	1.29106
1516.96	1.09039
1518.52	1.33326
1520.08	1.4049
1521.63	1.22818
1523.19	1.81561
1524.75	1.19677
1526.3	1.11065
1527.85	0.565247
1529.41	2.1114
1530.96	2.19102
1532.52	1.89249
1534.07	1.33206
1535.62	1.89178
1537.18	1.45141
1538.73	2.08978
1540.28	1.74738
1541.84	1.8581
1543.39	1.64839
1544.94	2.19058
1546.49	2.65597
1548.04	2.05042
1549.59	3.30161
1551.14	2.43484
1552.69	2.74969
1554.25	3.06653
1555.79	1.7432
1557.34	1.11698
1558.89	2.51166
1560.44	2.13859
1561.99	2.19908
1563.54	2.57986
1565.08	2.27199
1566.63	2.39359
1568.18	2.38396
1569.73	2.22396
1571.27	2.86556
1572.82	2.75971
1574.37	3.06414
1575.91	2.80859
1577.46	2.27356
1579	3.04645
1580.55	3.85855
1582.09	3.16039
1583.64	2.91259
1585.18	3.6385
1586.73	2.23505
1588.27	2.90699
1589.81	3.14859
1591.35	3.44533
1592.9	3.02942
1594.44	3.08067
1595.98	4.19997
1597.52	3.39069
1599.06	4.73887
1600.61	4.30826
1602.15	3.87857
1603.69	3.84278
1605.23	3.4294
1606.77	3.03076
1608.31	3.71678
1609.85	2.98682
1611.39	3.52839
1612.93	2.7118
1614.46	3.61916
1616	3.73629
1617.54	3.02972
1619.08	3.37624
1620.61	3.33334
1622.15	2.84495
1623.69	3.2577
1625.23	4.02618
1626.76	3.05182
1628.3	3.17827
1629.83	2.70235
1631.37	2.78467
1632.9	2.60423
1634.44	2.81674
1635.97	3.23642
1637.51	2.59521
1639.04	3.48502
1640.57	3.40526
1642.11	4.25539
1643.64	4.09616
1645.17	3.84062
1646.71	3.91751
1648.24	4.27205
1649.77	4.45995
1651.3	4.70603
1652.83	5.15945
1654.36	4.26235
1655.89	4.85055
1657.42	4.47477
1658.96	5.00466
1660.48	5.01201
1662.01	4.5156
1663.54	4.34926
1665.07	4.21842
1666.6	4.03332
1668.13	4.53387
1669.66	3.78467
1671.19	2.6166
1672.71	3.40489
1674.24	3.91791
1675.77	3.17817
1677.29	3.1361
1678.82	3.18306
1680.35	3.17183
1681.87	3.70971
1683.4	2.46471
1684.92	2.02892
1686.45	2.18143
1687.97	3.04979
1689.5	1.5735
1691.02	2.33319
1692.54	1.061
1694.07	1.43614
1695.59	1.11574
1697.11	1.21524
1698.64	1.05808
1700.16	0.899939
1701.68	1.56134
1703.2	1.309
1704.72	0.563847
1706.25	1.82015
1707.77	0.219301
1709.29	0.510017
1710.81	0.12892
1712.33	1.2721
1713.85	0.058466
1715.37	0.802153
1716.89	0.296366
1718.41	0.658546
1719.92	0.658783
1721.44	0.100101
1722.96	0.697592
1724.48	0.0897465
1725.99	0.530458
1727.51	0.416296
1729.03	0.0169563
1730.55	-0.0725002
1732.06	0.124453
1733.58	0.657848
1735.09	1.19106
1736.61	-0.227154
1738.13	0.501593
1739.64	0.2383
1741.15	-0.296005
1742.67	0.228439
1744.18	0.342318
1745.7	0.320742
1747.21	0.185217
1748.72	0.216776
1750.24	0.00765038
1751.75	-0.354565
1753.26	0.417374
1754.77	0.0182648
1756.29	0.750996
1757.8	0.0780029
1759.31	0.800238
1760.82	0.0680542
1762.33	0.55024
1763.84	-0.0365925
1765.35	0.294138
1766.86	0.195553
1768.37	0.340731
1769.88	-0.170364
1771.39	0.197218
1772.9	-0.351339
1774.4	0.619576
1775.91	0.0703526
1777.42	0.391836
1778.93	0.527775
1780.44	0.536192
1781.94	0.126457
1783.45	-0.160355
1784.96	0.0885353
1786.46	-0.184296
1787.97	0.264427
1789.47	-0.512264
1790.98	0.339556
1792.48	0.302952
1793.99	0.442785
1795.49	-0.0214691
1797	-0.133001
1798.5	0.152922
1800.01	0.362164
1801.51	0.168709
1803.01	0.0475712
1804.51	0.0469475
1806.02	0.403866
1807.52	0.362482
1809.02	-0.0810413
1810.52	0.141079
1812.02	0.0210457
1813.52	-0.179075
1815.02	-0.180061
1816.53	0.427351
1818.03	0.376307
1819.52	0.0961895
1821.02	-0.0222263
1822.52	0.298189
1824.02	0.275982
1825.52	0.567276
1827.02	0.142565
1828.52	-0.0453091
1830.02	0.502066
1831.51	-0.286325
1833.01	0.112835
1834.51	-0.11574
1836.01	-0.386766
1837.5	-0.133888
1839	-0.146738
1840.49	0.176964
1841.99	0.0993614
1843.49	-0.0690994
1844.98	-0.437078
1846.48	0.532043
1847.97	-0.221186
1849.47	-0.132366
1850.96	0.220558
1852.45	-0.167236
1853.95	0.395452
1855.44	0.602165
1856.93	0.325634
1858.42	-0.0926743
1859.92	0.207474
1861.41	0.0739117
1862.9	0.423525
1864.39	0.097971
1865.88	0.366806
1867.38	-0.1661
1868.87	0.0769463
1870.36	-0.00181007
1871.85	0.406923
1873.34	0.756744
1874.83	0.317852
1876.32	0.00832176
1877.81	0.276133
1879.29	0.29607
1880.78	-0.215662
1882.27	-0.380482
1882.53	-0.39467
1884.03	0.245617
1885.52	0.116562
1887.01	-0.258587
1888.51	0.00938034
1890	-0.122545
1891.5	-0.564684
1892.99	0.562571
1894.48	0.442823
1895.97	0.518646
1897.47	-0.237959
1898.96	0.987892
1900.45	0.227999
1901.94	-0.240625
1903.43	0.381769
1904.92	0.0958195
1906.41	0.0164814
1907.9	0.267107
1909.39	0.345606
1910.88	0.20109
1912.37	0.648951
1913.86	-0.0117683
1915.35	0.177698
1916.84	0.0888119
1918.33	0.206501
1919.81	0.357555
1921.3	0.24847
1922.79	0.573502
1924.28	0.641163
1925.76	0.209976
1927.25	-0.235559
1928.73	0.047802
1930.22	-0.136402
1931.71	0.421843
1933.19	0.1276
1934.68	0.0190678
1936.16	-0.422651
1937.65	0.187647
1939.13	0.554003
1940.62	0.126431
1942.1	0.0814056
1943.58	0.0565643
1945.07	0.20657
1946.55	-0.332029
1948.03	-0.233269
1949.51	0.500805
1951	0.0606575
1952.48	-0.0717793
1953.96	0.241486
1955.44	-0.201931
1956.92	-0.678045
1958.4	-0.293613
1959.88	-0.199207
1961.36	0.0509319
1962.84	-0.0585136
1964.32	0.25996
1965.8	0.525412
1967.28	0.600424
1968.76	0.0748692
1970.24	0.334658
1971.72	-0.124001
1973.2	-0.00181389
1974.67	0.308081
1976.15	0.226036
1977.63	0.110533
1979.1	0.165699
1980.58	-0.15349
1982.06	0.64917
1983.54	0.87236
1985.01	-0.19565
1986.49	0.00929451
1987.96	0.0274677
1989.44	0.266661
1990.91	-0.0341415
1992.39	-0.28126
1993.86	0.387501
1995.33	0.46653
1996.81	-0.247274
1998.28	0.795683
1999.75	-0.0540657
2001.23	-0.466028
2002.7	0.0824795
2004.17	0.225489
2005.65	0.0323009
2007.12	-0.0407543
2008.59	0.37714
2010.06	0.410036
2011.53	0.814737
2013	0.664064
2014.47	0.512272
2015.94	0.846312
2017.41	0.067625
2018.88	0.127846
2020.35	0.203344
2021.82	0.731804
2023.29	0.87462
2024.76	0.449085
2026.23	0.228415
2027.69	0.364008
2029.16	1.04047
2030.63	0.244568
2032.1	0.155771
2033.56	0.168959
2035.03	0.417259
2036.5	0.429483
2037.96	0.709127
2039.43	0.349165
2040.89	-0.0110931
2042.36	-0.252756
2043.83	0.617582
2045.29	0.414183
2046.75	0.414698
2048.22	-0.22403
2049.68	0.298632
2051.15	-0.0240288
2052.61	-0.401644
2054.07	0.885471
2055.54	-0.226921
2057	0.528696
2058.46	0.118912
2059.92	0.399637
2061.39	0.698132
2062.85	-0.314228
2064.31	0.0229568
2065.77	0.160843
2067.23	0.822744
2068.69	0.661671
2070.15	0.854952
2071.61	0.290865
2073.07	0.955404
2074.53	0.0533333
2075.99	0.261679
2077.45	-0.0361423
2078.91	0.725895
2080.37	1.03197
2081.82	1.1344
2083.28	0.628975
2084.74	0.374195
2086.2	0.437201
2087.65	0.616186
2089.11	0.138458
2090.57	0.181383
2092.02	0.190493
2093.48	0.568508
2094.94	0.794498
2096.39	0.247927
2097.85	0.236238
2099.3	-0.245705
2100.76	1.12847
2102.21	0.262058
2103.66	-1.41911
2105.12	0.676849
2106.57	0.0720196
2108.03	0.704622
2109.48	0.00386238
2110.93	0.769007
2112.38	0.713547
2113.84	0.153965
2115.29	0.506079
2116.74	0.0904827
2118.19	0.440525
2119.64	-0.00308037
2121.09	0.0234432
2122.54	0.668694
2123.99	-0.191402
2125.45	0.525599
2126.89	0.296759
2128.34	-0.150137
2129.79	0.31102
2131.24	0.0727768
2132.69	0.561033
2134.14	0.486206
2135.59	0.463173
2137.04	0.196127
2138.48	0.595089
2139.93	0.073513
2141.38	-0.443956
2142.83	0.364201
2144.27	-0.430016
2145.72	-0.032917
2147.17	0.330647
2148.61	0.21253
2150.06	0.307487
2151.5	0.781006
2152.95	0.357269
2154.39	0.677008
2155.84	0.233442
2157.28	0.220869
2158.73	0.707077
2160.17	0.302202
2161.61	-0.164642
2163.06	0.433868
2164.5	0.671986
2165.94	-0.41556
2167.38	0.123297
2168.83	0.327753
2170.27	0.145369
2171.71	0.523138
2173.15	0.180702
2174.59	0.899368
2176.03	0.452192
2177.47	0.60429
2178.91	0.242908
2180.36	0.349581
2181.8	0.175844
2183.23	0.236366
2184.67	0.597031
2186.11	1.1743
2187.55	0.370802
2188.99	0.549021
2190.43	0.411005
2191.87	-0.32708
2193.3	0.747648
2194.74	0.470428
2196.18	-0.0277481
2197.62	0.317938
2199.05	0.825127
2200.49	0.730801
2201.93	1.03467
2203.36	-0.551483
2204.8	0.801952
2206.23	0.283901
2207.67	0.380644
2209.1	0.476847
2210.54	0.35578
2211.97	-0.263939
2213.41	0.0078373
2214.84	0.212856
2216.27	0.0394974
2217.71	0.545668
2219.14	0.0321789
2220.57	1.18634
2222.01	0.181158
2223.44	-0.84165
2224.87	0.0595875
2226.3	0.807219
2227.73	0.513536
2229.16	0.315563
2230.6	0.0995865
2232.03	0.948654
2233.46	0.798113
2234.89	0.829792
2236.32	-0.0829811
2237.75	0.560701
2239.18	1.12702
2240.61	0.703308
2242.03	1.26317
2243.46	-0.0656109
2244.89	0.465904
2246.32	1.01204
2247.75	0.330696
2249.17	0.475485
2250.6	0.728273
2252.03	0.455145
2253.46	0.440468
2254.88	0.68655
2256.31	-0.0217304
2257.73	0.0883179
2259.16	0.092165
2260.59	0.557949
2262.01	0.446115
2263.44	0.111021
2264.86	-0.174938
2266.29	0.822399
2267.71	-0.312479
2269.14	0.42086
2270.56	-0.0195255
2271.98	0.7272
2273.4	-0.171127
2274.83	0.396481
2276.25	0.720469
2277.67	0.833229
2279.09	0.913628
2280.52	0.455801
2281.94	-0.149401
2283.36	0.827402
2284.78	0.434019
2286.2	-0.334408
2287.62	0.971323
2289.04	0.25374
2290.46	0.974611
2291.88	-0.134056
2293.3	0.27759
2294.72	0.607742
2296.14	0.348679
2297.56	0.334888
2298.98	-0.399618
2300.4	0.127758
2301.82	0.262798
2303.23	-0.126276
2304.65	-0.236292
2306.07	0.310312
2307.49	-0.0636024
2308.9	-0.11051
2310.32	-0.339859
2311.73	0.12047
2313.15	0.53163
2314.57	0.894749
2315.98	-0.551224
2317.4	-0.381992
2318.81	0.695219
2320.23	-0.140272
2321.64	1.01714
2323.06	0.849848
2324.47	-0.09939
2325.88	-0.113749
2327.3	0.60961
2328.71	0.308388
2330.12	-0.140224
2331.54	-0.0098629
2332.95	0.403088
2334.36	1.09779
2335.77	0.361654
2337.18	0.216736
2338.6	-0.0128536
2340.01	0.0998344
2341.42	0.209911
2342.83	-0.206633
2344.24	0.0660839
2345.65	-0.103333
2347.06	0.121296
2348.47	0.411211
2349.88	0.0454044
2351.29	-0.485384
2352.7	0.0274143
2354.1	0.602093
2355.51	0.342489
2356.92	0.163952
2358.33	0.538712
2359.74	0.084404
2361.14	0.231813
2362.55	-0.269638
2363.96	0.217621
2365.36	-0.0566654
2366.77	-0.216751
2368.18	0.416153
2369.58	0.40539
2370.99	-0.714071
2372.39	0.716696
2373.8	0.312973
2375.2	-0.0410976
2376.61	-0.267126
2378.01	0.581631
2379.42	0.348608
2380.82	0.400503
2382.22	-0.0645866
2383.63	-0.258657
2385.03	0.218918
2386.43	-0.0385017
2387.84	-0.293005
2389.24	0.173548
2390.64	-0.15394
2392.04	-0.318707
2393.44	0.0284805
2394.84	0.616051
2396.25	0.108051
2397.65	-0.143648
2399.05	0.57552
2400.45	-0.0387363
2401.85	-0.397823
2403.25	-0.153215
2404.65	0.249128
2406.05	0.299786
2407.45	0.30036
2408.84	-0.287945
2410.24	-0.369274
2411.64	-0.228157
2413.04	0.295002
2414.44	-0.27128
2415.83	0.417044
2417.23	-0.410984
2418.63	0.536551
2420.02	0.519316
2421.42	0.311663
2422.82	0.689194
2424.21	0.384747
2425.61	0.619167
2427	-0.0483761
2428.4	0.300619
2429.8	-0.39439
2431.19	0.276325
2432.58	0.614685
2433.98	0.554943
2435.37	-0.333954
2436.77	0.727282
2438.16	0.116306
2439.55	0.534607
2440.95	0.585033
2442.34	-0.0644836
2443.73	-0.0954113
2445.12	-0.142635
2446.51	-0.237791
2447.91	0.395752
2449.3	0.601002
2450.69	0.17333
2452.08	0.253859
2453.47	0.25725
2454.86	-0.116819
2456.25	-0.156809
2457.64	0.26273
2459.03	-0.0299492
2460.42	0.37178
2461.81	-0.0193081
2463.2	-0.28578
2464.59	-0.0479927
2465.98	-0.0638676
2467.36	0.0147343
2468.75	0.392899
2470.14	0.155119
2471.53	-0.304289
2472.92	-0.166315
2474.3	-0.0619755
2475.69	-0.557209
2477.08	-0.0467052
2478.46	-0.196758
2479.85	-0.895367
2481.23	0.35181
2482.62	0.562813
2484	0.521748
2485.39	0.212555
2486.77	-0.223953
2488.16	0.351982
2489.54	-0.119596
2490.93	0.0788956
2492.31	0.387037
2493.69	0.526453
2495.08	0.110668
2496.46	0.0243626
2497.84	0.621893
2499.23	0.414425
2500.61	-0.737143
2501.99	-0.096159
2503.37	0.108866
2504.75	0.311159
2506.13	-0.120319
2507.52	0.264206
2508.9	-0.0436039
2510.28	0.35677
2511.66	0.543205
2513.04	0.394115
2514.42	0.124998
2515.8	-0.0496349
2517.18	0.17564
2518.55	0.0198498
2519.93	0.0174656
2521.31	-0.260515
2522.69	-0.265116
2524.07	-0.0125618
2525.45	0.115852
2526.82	-0.25915
2528.2	0.265188
2529.58	-0.0447025
2530.95	0.318537
2532.33	-0.10424
2533.71	0.0539417
2535.08	0.0012455
2536.46	0.282644
2537.84	0.820517
2539.21	0.459612
2540.59	0.0359898
2541.96	0.704466
2543.34	0.356657
2544.71	0.29945
2546.08	0.548792
2547.46	-0.488026
2548.83	-0.65819
2550.2	0.112524
2551.58	0.260019
2552.95	0.420338
2554.32	0.0468082
2555.7	0.611732
2557.07	0.264864
2558.44	-0.0821609
2559.81	0.359949
2561.18	0.515259
2562.55	0.11146
2563.93	0.0577602
2565.3	0.611301
2566.67	0.847267
2568.04	0.098381
2569.41	-0.120094
2570.78	0.752665
2572.15	-0.32971
2573.51	0.619223
2574.88	0.492189
2576.25	-0.347376
2577.62	-0.110752
2578.99	0.110149
2580.36	0.0268936
2581.73	-0.0725861
2583.09	0.721518
2584.46	-0.167912
2585.83	0.549473
2587.19	0.206036
2588.56	-0.258108
2589.93	0.232805
2591.29	0.4051
2592.66	0.485231
2594.02	0.684406
2595.39	0.16905
2596.75	-0.817772
2598.12	0.418228
2599.48	0.139936
2600.85	0.330647
2602.21	0.386503
2603.58	-0.0239277
2604.94	0.54822
2606.3	-0.523752
2607.67	0.34938
2609.03	0.0440063
2610.39	0.925756
2611.76	-0.259117
2613.12	0.374477
2614.48	0.0434971
2615.84	0.43276
2617.2	0.237194
2618.56	0.118446
2619.92	0.375969
2621.28	0.859261
2622.65	0.476587
2624.01	0.184622
2625.37	0.415171
2626.72	0.540354
2628.08	0.0684376
2629.44	-0.00153923
2630.8	-0.176109
2632.16	0.318281
2633.52	0.484959
2634.88	0.324749
2636.24	0.461309
2637.59	0.449419
2638.95	0.630148
2640.31	0.544676
2641.67	-0.308735
2643.02	0.553446
2644.38	0.11573
2645.74	-0.336346
2647.09	0.508453
2648.45	0.436903
2649.8	0.731241
2651.16	0.596874
2652.51	0.829098
2653.87	0.034462
2655.22	0.445143
2656.58	0.00849342
2657.93	0.0144806
2659.29	0.432323
2660.64	0.514484
2661.99	0.581566
2663.35	0.720043
2664.7	1.11894
2666.05	0.771395
2667.41	-0.101505
2668.76	0.482893
2670.11	0.383211
2671.46	0.677589
2672.81	0.740732
2674.16	0.427856
2675.51	-0.434761
2676.87	0.721485
2678.22	0.239666
2679.57	0.151752
2680.92	0.776928
2682.27	0.31778
2683.62	0.731636
2684.97	0.350388
2686.31	0.289305
2687.66	0.518045
2689.01	-0.228809
2690.36	0.268473
2691.71	-0.138893
2693.06	0.233604
2694.4	0.153757
2695.75	-0.172853
2697.1	0.516399
2698.45	0.0644093
2699.79	0.253946
2701.14	0.216215
2702.49	-0.150892
2703.83	0.237886
2705.18	0.65732
2706.52	0.714659
2707.87	0.408566
2709.21	0.347971
2710.56	0.126598
2711.9	1.09556
2713.25	0.74243
2714.59	0.999388
2715.94	1.14001
2717.28	0.844
2718.62	0.838108
2719.97	0.976755
2721.31	0.677664
2722.65	1.19229
2723.99	0.541279
2725.34	0.122002
2726.68	0.778837
2728.02	0.983587
2729.36	0.765646
2730.7	0.430964
2732.04	0.547279
2733.39	0.809248
2734.73	0.184328
2736.07	0.301785
2737.41	0.375927
2738.75	0.697233
2740.08	0.087162
2741.43	0.566515
2742.76	0.767838
2744.1	0.269665
2745.44	0.467539
2746.78	0.431812
2748.12	-0.170467
2749.46	0.0693951
2750.79	0.556089
2752.13	-0.189232
2753.47	0.0665398
2754.81	0.742725
2756.14	-0.333685
2757.48	0.111284
2758.81	-0.0223789
2760.15	0.105505
2761.49	0.0174999
2762.82	0.104347
2764.16	0.119629
2765.49	0.236151
2766.83	0.423822
2768.16	-0.171984
2769.5	0.198076
2770.83	-0.0283985
2772.16	0.0308018
2773.5	0.433592
2774.83	0.488289
2776.17	-0.652733
2777.5	0.108782
2778.83	-0.0211143
2780.16	0.0516624
2781.5	-0.190786
2782.83	0.528835
2784.16	0.229111
2785.49	-0.342583
2786.82	0.103848
2788.15	-0.536894
2789.49	0.227106
2790.82	-0.208635
2792.15	-0.170305
2793.48	-0.373852
2794.81	-0.105579
2796.14	0.0188484
2797.46	-0.0152988
2798.79	0.406065
2800.12	-0.0731525
2801.45	-0.852167
2802.78	0.522057
2804.11	0.583153
2805.44	-0.425127
2806.76	0.402393
2808.09	0.117773
2809.42	0.202023
2810.75	0.101606
2812.07	-0.195799
2813.4	0.431911
2814.73	-0.0997963
2816.05	0.194569
2817.38	0.293274
2818.7	-0.1026
2820.03	-0.158279
2821.36	0.521925
2822.68	-0.0750885
2824.01	0.289965
2825.33	0.271545
2826.65	0.932976
2827.98	0.604401
2829.3	0.744551
2830.63	0.659405
2831.95	0.829618
2833.27	0.773207
2834.6	1.35292
2835.92	1.47837
2837.24	2.14006
2838.56	2.55981
2839.88	2.34242
2841.21	2.29509
2842.53	3.87445
2843.85	3.99937
2845.17	3.97087
2846.49	4.29741
2847.81	4.21512
2849.13	4.71239
2850.45	4.19123
2851.77	4.75706
2853.09	5.97152
2854.41	4.76828
2855.73	5.444
2857.05	5.58268
2858.37	5.70736
2859.69	6.36863
2861	7.04334
2862.32	6.60164
2863.64	7.93745
2864.96	8.5099
2866.28	8.17918
2867.59	8.66737
2868.91	9.63606
2870.23	9.8585
2871.54	10.6311
2872.86	9.86649
2874.17	10.2272
2875.49	10.7817
2876.81	11.065
2878.12	10.8953
2879.44	10.8515
2880.75	10.5558
2882.07	10.6421
2883.38	10.886
2884.69	10.4727
2886.01	10.0053
2887.32	10.7454
2888.63	10.1368
2889.95	10.929
2891.26	11.7181
2892.57	10.6127
2893.89	11.5112
2895.2	11.4437
2896.51	11.8547
2897.82	11.499
2899.13	11.916
2900.44	11.9017
2901.76	12.5322
2903.07	12.5759
2904.38	11.9905
2905.69	12.6789
2907	12.8934
2908.31	13.2643
2909.62	13.26
2910.93	14.3071
2912.24	14.5847
2913.55	15.1962
2914.85	15.9295
2916.16	16.1536
2917.47	16.0508
2918.78	16.5887
2920.09	16.944
2921.4	17.7765
2922.7	16.4598
2924.01	17.4261
2925.32	17.2358
2926.62	17.8022
2927.93	18.4667
2929.24	18.4312
2930.54	19.037
2931.85	17.6982
2933.15	18.4696
2934.46	18.514
2935.76	18.5308
2937.07	17.5281
2938.37	17.071
2939.68	17.2717
2940.98	16.2442
2942.29	16.2115
2943.59	15.2599
2944.89	14.1861
2946.2	13.8282
2947.5	13.9756
2948.8	13.8564
2950.11	12.754
2951.41	12.6684
2952.71	12.9696
2954.01	12.3009
2955.32	11.6593
2956.62	11.4823
2957.92	11.7589
2959.22	11.2591
2960.52	11.4809
2961.82	11.4004
2963.12	11.2518
2964.42	11.1717
2965.72	10.5819
2967.02	9.2703
2968.32	10.2739
2969.62	9.72917
2970.92	9.05736
2972.22	8.9629
2973.51	8.46128
2974.81	8.73365
2976.11	7.6388
2977.41	7.46968
2978.71	7.64814
2980	7.3997
2981.3	6.7962
2982.6	7.27477
2983.9	6.68542
2985.19	6.12759
2986.49	5.70054
2987.78	5.03858
2989.08	5.18026
2990.38	5.3087
2991.67	4.05863
2992.97	5.34977
2994.26	4.05193
2995.56	4.00207
2996.85	3.81005
2998.14	3.78613
2999.44	3.17382
3000.73	3.1103
3002.03	2.89424
3003.32	2.46929
3004.61	2.21308
3005.91	1.66238
3007.2	1.99257
3008.49	1.74684
3009.78	1.19166
3011.07	1.37603
3012.37	0.958857
3013.66	0.765633
3014.95	0.532021
3016.24	1.16424
3017.53	0.948404
3018.82	0.915098
3020.11	0.701365
3021.4	0.181143
3022.69	0.0763817
3023.98	0.136097
3025.27	-0.13871
3026.56	0.279131
3027.85	-0.229614
3029.14	0.329901
3030.43	0.0910339
3031.71	-0.254333
3033	-0.127371
3034.29	-0.455006
3035.58	0.058012
3036.87	0.0711937
3038.15	0.162886
3039.44	0.126152
3040.73	-0.230244
3042.01	0.51029
3043.3	-0.450714
3044.59	-0.503519
3045.87	0.28187
3047.16	0.429161
3048.44	0.0633678
3049.73	0.0307713
3051.01	-0.10696
3052.3	0.275961
3053.58	0.386177
3054.87	0.399508
3056.15	0.383177
3057.43	0.773361
3058.72	0.916145
3060	0.214098
3061.29	0.752262
3062.57	0.639603
3063.85	0.476192
3065.13	-0.0366726
3066.42	0.636818
3067.7	0.524464
3068.98	0.440401
3070.26	0.138243
3071.54	0.405458
3072.82	0.112375
3074.11	-0.0473461
3075.39	0.0492096
3076.67	0.0364647
3077.95	0.41855
3079.23	-0.309441
3080.51	0.228264
3081.79	0.267952
3083.07	-0.19113
3084.35	-0.29571
3085.63	-0.169235
3086.9	0.227921
3088.18	0.460787
3089.46	-0.271416
3090.74	-0.48859
3092.02	0.420256
3093.29	0.0543461
3094.57	0.204863
3095.85	-0.294582
3097.13	0.00642776
3098.4	0.375208
3099.68	-0.055687
3100.95	0.489027
3102.23	0.830715
3103.51	0.144217
3104.78	0.325809
3106.06	0.631155
3107.33	0.546457
3108.61	0.166763
3109.88	0.344717
3111.16	-0.00272942
3112.43	0.274714
3113.71	0.241966
3114.98	0.860125
3116.25	0.596428
3117.53	0.602112
3118.8	0.659719
3120.07	0.823559
3121.35	0.809175
3122.62	1.24093
3123.89	0.317585
3125.16	0.736248
3126.44	0.546837
3127.71	1.19808
3128.98	1.01191
3130.25	1.28675
3131.52	1.18347
3132.79	1.32355
3134.06	1.11182
3135.33	1.41239
3136.6	1.29334
3137.87	1.69943
3139.14	1.40391
3140.41	1.84912
3141.68	1.75612
3142.95	2.02721
3144.22	1.58787
3145.49	1.94247
3146.76	1.52112
3148.02	1.81233
3149.29	1.18105
