200.398	0.746632
202.213	0.766682
204.027	0.788734
205.843	0.545242
207.657	-0.329418
209.47	0.302656
211.283	0.0822754
213.097	0.369743
214.909	-0.218239
216.721	-0.370022
218.533	-0.472946
220.344	0.441975
222.157	1.13987
223.967	0.098093
225.777	0.677633
227.587	0.145779
229.396	0.434835
231.205	1.44682
233.016	0.334486
234.824	0.960003
236.632	1.29818
238.439	0.893055
240.247	2.51751
242.053	3.01409
243.86	3.2487
245.666	3.99052
247.474	4.27126
249.279	5.48826
251.085	5.22563
252.889	5.80173
254.694	4.90185
256.498	5.2557
258.301	5.85207
260.105	6.11462
261.908	5.44223
263.71	3.90659
265.513	4.58985
267.315	4.45493
269.116	4.43999
270.918	4.08588
272.718	3.75346
274.519	2.98418
276.319	2.88676
278.119	2.47242
279.918	2.51207
281.718	2.74013
283.516	1.64135
285.315	2.10342
287.113	1.79495
288.911	1.2473
290.708	1.54055
292.505	1.23745
294.302	0.794294
296.098	1.35865
297.894	0.586317
299.69	0.580099
301.485	1.38571
303.278	1.25805
305.073	0.841822
306.867	0.424229
308.661	1.17469
310.454	0.13842
312.247	0.224613
314.04	1.1472
315.833	0.287285
317.623	1.28818
319.415	1.05384
321.206	-0.29858
322.997	1.66384
324.788	0.646772
326.579	0.965799
328.367	0.663616
330.156	1.41176
331.946	0.60384
333.735	1.06015
335.523	-0.0427876
337.31	-0.264673
339.098	0.873339
340.885	-0.00117683
342.673	-0.37458
344.458	-0.0788231
346.244	-0.260141
348.03	0.25235
349.816	-0.141634
351.6	0.681868
353.385	0.0961418
355.17	-0.586584
356.953	1.25626
358.737	0.854609
360.521	0.260672
362.304	0.546261
364.085	0.544601
365.868	0.113907
367.65	0.608171
369.431	0.175043
371.212	0.191187
372.994	1.17598
374.773	-0.0637398
376.554	1.1308
378.332	1.47477
380.112	0.924574
381.892	1.50741
383.669	1.83316
385.448	1.17376
387.225	2.53825
389.003	1.43754
390.781	3.34563
392.557	2.62472
394.334	2.58627
396.109	3.67589
397.885	3.89691
399.66	4.82222
401.436	3.84412
403.211	5.35434
404.984	3.92694
406.759	3.8367
408.532	4.82511
410.306	3.74672
412.078	4.2412
413.851	5.0415
415.623	5.18634
417.395	4.95768
419.166	6.2559
420.938	5.44284
422.708	5.16893
424.477	5.10467
426.248	3.55927
428.017	3.09193
429.788	3.70332
431.556	2.1552
433.326	1.73444
435.093	1.52561
436.86	2.18512
438.629	0.801426
440.395	0.963913
442.163	0.0668354
443.929	1.29979
445.694	0.536165
447.461	0.0755634
449.226	0.222769
450.99	0.439884
452.756	0.166933
454.52	-0.105162
456.285	0.0659103
458.048	0.00351334
459.811	0.336847
461.573	0.0429993
463.337	-0.71254
465.099	0.20974
466.86	0.300665
468.623	0.234108
470.384	-0.410223
472.144	-0.169815
473.906	0.0229969
475.666	-0.369623
477.425	0.468102
479.184	0.160828
480.944	0.503723
482.703	0.427496
484.461	1.54127
486.218	0.329584
487.975	0.123384
489.734	0.737219
491.491	-0.18659
493.247	0.851864
495.003	0.466105
496.759	0.734879
498.516	0.441288
500.271	0.00555229
502.025	0.670925
503.779	0.231674
505.533	1.15278
507.287	1.57838
509.042	0.542677
510.795	1.59731
512.547	2.71955
514.299	2.16789
516.051	1.42524
517.803	0.986166
519.554	2.2849
521.305	1.6776
523.055	2.54933
524.805	2.26951
526.555	1.37995
528.307	1.89812
530.056	1.59532
531.805	2.25228
533.553	2.22794
535.301	1.40583
537.049	1.35332
538.797	1.78823
540.544	1.03031
542.291	2.39206
544.037	0.864773
545.783	1.4091
547.529	0.838371
549.275	0.802607
551.02	0.952564
552.765	0.269773
554.509	0.674791
556.253	1.1256
557.997	0.538511
559.738	1.15156
561.482	0.337349
563.224	0.330637
564.967	0.439976
566.709	0.963875
568.451	1.53466
570.192	0.661314
571.933	0.479574
573.674	0.347038
575.415	0.722713
577.153	0.161108
578.893	-0.329372
580.632	0.168814
582.371	0.483921
584.11	0.476442
585.849	0.650911
587.587	1.26
589.323	0.601389
591.06	0.930033
592.797	0.084137
594.534	0.733364
596.271	0.301289
598.005	0.835443
599.741	-0.448637
601.476	0.497204
603.211	0.22126
604.944	-0.218365
606.679	-0.154749
608.413	0.596029
610.147	-0.490526
611.878	0.214193
613.611	0.094305
615.344	-0.482527
617.077	0.384808
618.807	0.311533
620.539	0.21323
622.27	0.31838
623.999	0.787348
625.73	-0.275074
627.461	0.72056
629.189	0.715057
630.919	0.257992
632.648	-0.172052
634.376	0.815067
636.105	0.843216
637.833	0.982033
639.559	1.32063
641.287	0.398111
643.013	1.11267
644.74	-0.134985
646.467	0.576395
648.192	1.85864
649.918	0.192211
651.642	0.124743
653.368	0.678818
655.091	0.853785
656.816	0.920097
658.538	1.69528
660.263	1.03386
661.987	1.53265
663.708	0.907549
665.432	2.01418
667.153	1.51655
668.875	1.01692
670.596	0.426868
672.318	0.664225
674.037	0.609194
675.759	0.237682
677.478	1.3365
679.196	0.462841
680.917	0.0912838
682.635	0.428734
684.355	0.209789
686.072	0.677364
687.791	0.0823669
689.508	-0.49201
691.224	0.268101
692.942	0.0594387
694.658	0.724527
696.376	-0.800295
698.091	0.320704
699.805	-0.356548
701.522	0.597338
703.236	1.15739
704.95	0.497843
706.665	1.00853
708.379	0.623188
710.093	0.650009
711.806	-0.514448
713.518	0.541168
715.23	0.840281
716.943	0.750483
718.655	0.273226
720.366	0.685995
722.078	-0.17696
723.788	-0.492254
725.498	0.920473
727.208	0.126894
728.919	0.400356
730.628	-0.0304165
732.337	-0.076149
734.045	1.09952
735.755	1.07485
737.463	1.02838
739.17	0.0132504
740.877	0.489517
742.584	-0.0912743
744.292	-0.263474
745.998	0.287411
747.704	0.0532951
749.409	0.159338
751.114	0.335405
752.819	1.25637
754.526	0.650591
756.23	0.47514
757.934	0.39275
759.637	0.515993
761.34	0.664284
763.043	-0.0434341
764.746	1.95689
766.448	1.06561
768.152	1.25463
769.853	0.964449
771.554	2.68254
773.255	1.09604
774.956	2.10891
776.656	2.6479
778.356	1.96865
780.056	1.40555
781.755	1.83998
783.454	1.61883
785.153	1.57642
786.851	1.37072
788.549	1.63384
790.247	1.12074
791.944	1.28068
793.641	1.39166
795.338	1.07308
797.034	1.47805
798.73	1.86321
800.426	1.35135
802.121	2.2604
803.817	1.37105
805.511	1.35889
807.206	1.21023
808.9	1.08175
810.592	0.547045
812.286	1.64811
813.979	1.0209
815.672	0.125498
817.364	1.13275
819.057	0.842152
820.748	1.15527
822.44	0.866146
824.129	1.35947
825.82	1.45385
827.511	0.951128
829.201	1.30055
830.891	0.275423
832.581	1.0602
834.269	1.42661
835.958	0.635868
837.646	1.07135
839.335	0.946779
841.023	0.841181
842.709	0.710407
844.396	0.578447
846.084	1.45352
847.77	0.924118
849.455	1.04809
851.141	0.975962
852.827	1.08715
854.513	-0.033411
856.196	0.864967
857.881	0.683756
859.566	0.566317
861.248	0.422459
862.932	0.590431
864.616	0.214979
866.297	0.175503
867.98	0.991507
869.663	0.634109
871.343	1.33611
873.026	0.165337
874.707	0.754023
876.387	0.981844
878.068	0.758343
879.747	0.376595
881.428	0.626095
883.108	-0.68358
884.786	0.442648
886.465	0.279156
888.143	0.360676
889.822	0.438719
891.498	0.400845
893.177	-0.563219
894.855	0.361912
896.53	-0.447849
898.208	-0.472178
899.883	0.0624218
901.56	0.571575
903.234	0.272694
904.91	-0.428272
906.584	0.100649
908.26	0.384237
909.933	-0.533518
911.608	0.0430012
913.28	1.55334
914.955	0.685686
916.627	0.241308
918.298	-0.291058
919.972	-0.379452
921.643	-0.13471
923.315	0.487673
924.986	1.64283
926.656	0.0188103
928.328	0.540705
929.997	0.866476
931.668	0.311129
933.337	0.749302
935.006	1.9377
936.676	0.281635
938.344	-0.40197
940.012	0.571157
941.681	0.753027
943.348	0.605707
945.014	1.05401
946.683	0.241791
948.349	0.992794
950.015	0.746223
951.682	0.518993
953.347	0.843306
955.012	0.950277
956.676	0.600245
958.343	0.919022
960.006	0.383678
961.67	0.49177
963.333	0.577837
964.998	1.27968
966.661	0.0513229
968.323	0.431509
969.985	0.275957
971.649	1.09159
973.31	0.0723152
974.971	0.626455
976.632	0.499107
978.293	1.32638
979.953	0.960814
981.615	0.59425
983.274	2.19485
984.933	1.11243
986.592	1.46407
988.251	1.21389
989.909	0.695585
991.567	0.618271
993.225	0.916084
994.884	1.34614
996.541	2.15105
998.198	2.80063
999.855	2.80983
1001.51	2.42164
1003.17	2.7151
1004.82	1.02808
1006.48	1.23304
1008.13	1.72342
1009.79	0.765522
1011.44	1.16956
1013.1	0.960495
1014.75	1.51923
1016.4	0.874222
1018.06	1.08443
1019.71	1.36191
1021.36	1.31369
1023.01	1.50858
1024.66	1.66203
1026.32	1.99172
1027.97	3.34838
1029.62	2.21267
1031.27	2.45041
1032.92	3.31709
1034.57	2.71681
1036.22	2.39721
1037.87	3.23053
1039.52	3.32208
1041.16	3.71962
1042.81	3.96778
1044.46	4.15507
1046.11	4.6949
1047.76	6.08665
1049.4	6.24504
1051.05	8.92666
1052.7	8.54856
1054.34	7.30229
1055.99	7.22917
1057.63	8.04648
1059.28	6.42749
1060.92	5.82822
1062.57	4.24818
1064.21	3.79638
1065.85	2.40713
1067.5	2.68918
1069.14	3.09886
1070.78	1.53028
1072.43	1.15656
1074.07	1.97763
1075.71	1.86792
1077.35	1.7182
1078.99	1.8102
1080.63	1.51383
1082.27	0.935658
1083.91	2.71887
1085.55	1.80944
1087.19	1.89225
1088.83	2.42448
1090.47	1.9128
1092.11	1.80962
1093.75	2.50436
1095.39	1.1484
1097.03	1.13339
1098.66	0.561678
1100.3	0.985146
1101.94	0.681259
1103.57	0.640057
1105.21	0.214951
1106.84	0.65173
1108.48	0.0770226
1110.11	0.360046
1111.75	0.897047
1113.38	0.334055
1115.02	-0.574873
1116.65	0.425274
1118.29	1.46705
1119.92	0.345251
1121.55	0.490526
1123.19	0.402792
1124.82	0.231991
1126.45	-0.0435371
1128.08	0.495541
1129.71	0.608561
1131.34	-0.217709
1132.97	-0.594135
1134.6	1.0813
1136.23	-0.0449696
1137.86	0.172857
1139.49	-0.103596
1141.12	-0.296879
1142.75	0.468975
1144.38	0.701132
1146.01	0.145903
1147.64	0.126238
1149.26	0.0235062
1150.89	0.0498409
1152.52	-0.0941067
1154.15	0.697931
1155.77	0.168989
1157.4	-0.296129
1159.02	0.55855
1160.65	-0.775389
1162.27	-0.490322
1163.9	0.0948124
1165.52	0.319786
1167.15	0.395409
1168.77	0.0858116
1170.39	0.261087
1172.02	0.473972
1173.64	0.660952
1175.26	0.950567
1176.89	-0.28804
1178.51	0.721085
1180.13	0.375687
1181.75	1.15413
1183.37	0.136309
1184.99	0.873587
1186.61	-0.58836
1188.23	0.564241
1189.85	0.613762
1191.47	0.25832
1193.09	0.572683
1194.71	0.590118
1196.33	0.607454
1197.94	0.878227
1199.56	1.13176
1201.18	0.387804
1202.8	1.80233
1204.41	1.65683
1206.03	0.745089
1207.65	1.33924
1209.26	0.828539
1210.88	0.691463
1212.49	1.73865
1214.11	1.73726
1215.72	1.91735
1217.34	1.96749
1218.95	1.72376
1220.57	1.97834
1222.18	2.06821
1223.79	2.78278
1225.41	1.40904
1227.02	2.06898
1228.63	2.02871
1230.24	2.46737
1231.85	2.80564
1233.47	2.48568
1235.08	2.52046
1236.69	2.93054
1238.3	2.70267
1239.91	2.97286
1241.52	3.30583
1243.13	3.07953
1244.74	2.49937
1246.34	2.74414
1247.95	2.1585
1249.56	2.81234
1251.17	2.51352
1252.78	2.77381
1254.38	2.91184
1255.99	3.32166
1257.6	2.05926
1259.2	2.35139
1260.81	2.43909
1262.42	2.23829
1264.02	3.44613
1265.63	2.16711
1267.23	2.79242
1268.84	2.27527
1270.44	1.87968
1272.04	1.50206
1273.65	2.22064
1275.25	1.96221
1276.85	1.84651
1278.46	2.32947
1280.06	2.4584
1281.66	2.87616
1283.26	1.61807
1284.86	2.49238
1286.46	1.59056
1288.07	2.30402
1289.67	2.39973
1291.27	1.89759
1292.87	2.69707
1294.47	2.7301
1296.06	2.55326
1297.66	2.26907
1299.26	2.20772
1300.86	2.41051
1302.46	3.104
1304.06	2.72347
1305.65	2.15672
1307.25	3.2122
1308.85	2.95163
1310.44	2.32266
1312.04	3.33375
1313.64	2.87229
1315.23	2.67993
1316.83	2.20465
1318.42	3.20058
1320.02	2.58424
1321.61	2.985
1323.2	3.1368
1324.8	2.97859
1326.39	2.55305
1327.99	3.22174
1329.58	3.36364
1331.17	3.26669
1332.76	3.23662
1334.36	2.1628
1335.95	3.45577
1337.54	3.43799
1339.13	3.11624
1340.72	3.2739
1342.31	3.60656
1343.9	2.98831
1345.49	3.15129
1347.08	2.65227
1348.67	2.65962
1350.26	3.03377
1351.85	1.5543
1353.43	2.24105
1355.02	2.19139
1356.61	2.50254
1358.2	2.61267
1359.78	2.87997
1361.37	1.60724
1362.96	2.30842
1364.54	1.65216
1366.13	1.9337
1367.71	2.0378
1369.3	1.90613
1370.88	1.65894
1372.47	1.61452
1374.05	1.89149
1375.64	1.75248
1377.22	2.21077
1378.8	1.75245
1380.39	1.92827
1381.97	2.53819
1383.55	1.81186
1385.13	1.71946
1386.72	1.48679
1388.3	0.797979
1389.88	1.71926
1391.46	0.737364
1393.04	2.21803
1394.62	0.12908
1396.2	1.74869
1397.78	2.07711
1399.36	1.01555
1400.94	2.24983
1402.52	2.39249
1404.1	1.70395
1405.68	1.0768
1407.25	2.72549
1408.83	1.76721
1410.41	2.48996
1411.98	1.84973
1413.56	3.18236
1415.14	2.47909
1416.71	2.36576
1418.29	1.24622
1419.87	2.21681
1421.44	2.95302
1423.02	3.18127
1424.59	2.07571
1426.16	2.62712
1427.74	2.82586
1429.31	3.49635
1430.89	3.5345
1432.46	3.54973
1434.03	4.4868
1435.6	5.53997
1437.18	4.44999
1438.75	5.03349
1440.32	4.71568
1441.89	5.02967
1443.46	4.67758
1445.03	4.97523
1446.6	4.95899
1448.17	6.6534
1449.74	5.04623
1451.31	6.19277
1452.88	4.94206
1454.45	4.79356
1456.02	5.53037
1457.59	4.77007
1459.16	4.73417
1460.72	4.67361
1462.29	4.19452
1463.86	4.34029
1465.43	3.61787
1466.99	3.09158
1468.56	3.52883
1470.13	2.59443
1471.69	3.13523
1473.26	2.7177
1474.82	2.14571
1476.38	2.81033
1477.95	2.25965
1479.51	2.23822
1481.08	1.74614
1482.64	2.23383
1484.2	1.46704
1485.77	2.01215
1487.33	2.51581
1488.89	1.86046
1490.46	1.65073
1492.02	1.92416
1493.58	0.980022
1495.14	1.12561
1496.7	1.77438
1498.26	1.87587
1499.82	1.64819
1501.38	1.19097
1502.94	1.10649
1504.5	1.08274
1506.06	1.15665
1507.62	0.958029
1509.18	1.47186
1510.73	0.399099
1512.29	0.559946
1513.85	0.757835
1515.41	0.263582
1516.96	1.38484
1518.52	0.165995
1520.08	1.09699
1521.63	1.663
1523.19	0.812513
1524.75	0.782793
1526.3	2.12333
1527.85	1.00133
1529.41	1.64918
1530.96	1.68752
1532.52	1.06339
1534.07	0.424429
1535.62	0.376173
1537.18	1.21858
1538.73	1.58932
1540.28	0.923267
1541.84	1.1631
1543.39	1.49633
1544.94	1.5087
1546.49	1.25752
1548.04	1.86951
1549.59	1.43044
1551.14	2.67802
1552.69	2.01649
1554.25	1.11576
1555.79	2.29334
1557.34	1.14107
1558.89	1.87976
1560.44	1.54133
1561.99	1.09551
1563.54	0.652763
1565.08	2.20803
1566.63	1.93527
1568.18	1.73648
1569.73	2.13395
1571.27	2.19442
1572.82	2.62746
1574.37	2.10808
1575.91	0.99139
1577.46	2.19008
1579	1.9338
1580.55	1.30573
1582.09	2.28571
1583.64	2.2971
1585.18	1.9742
1586.73	2.06378
1588.27	2.69631
1589.81	2.58039
1591.35	2.5755
1592.9	2.60676
1594.44	2.22515
1595.98	1.99331
1597.52	2.53087
1599.06	3.05194
1600.61	3.21909
1602.15	3.23762
1603.69	3.50032
1605.23	3.34815
1606.77	3.04173
1608.31	2.89891
1609.85	3.25711
1611.39	3.21403
1612.93	2.56437
1614.46	2.0619
1616	2.96548
1617.54	2.16339
1619.08	2.26463
1620.61	2.6883
1622.15	3.00328
1623.69	2.01008
1625.23	2.00946
1626.76	2.88646
1628.3	2.46851
1629.83	2.73893
1631.37	2.6136
1632.9	1.90822
1634.44	2.56715
1635.97	2.3693
1637.51	2.64047
1639.04	2.9319
1640.57	2.19829
1642.11	2.67455
1643.64	3.3522
1645.17	2.92773
1646.71	3.80293
1648.24	2.78056
1649.77	2.35485
1651.3	2.95299
1652.83	3.33139
1654.36	2.93401
1655.89	4.11423
1657.42	3.57043
1658.96	2.71004
1660.48	3.38339
1662.01	3.79282
1663.54	3.27405
1665.07	3.99192
1666.6	3.63915
1668.13	2.93954
1669.66	3.12976
1671.19	3.34247
1672.71	2.50832
1674.24	2.67046
1675.77	2.51898
1677.29	1.59248
1678.82	2.06192
1680.35	3.37372
1681.87	1.74186
1683.4	2.0208
1684.92	2.26286
1686.45	2.52391
1687.97	1.90615
1689.5	1.51004
1691.02	2.04885
1692.54	1.36123
1694.07	1.44238
1695.59	2.03491
1697.11	1.34706
1698.64	1.20691
1700.16	1.41249
1701.68	1.23339
1703.2	0.469755
1704.72	0.452414
1706.25	1.01611
1707.77	1.17807
1709.29	1.92077
1710.81	-0.114279
1712.33	0.230034
1713.85	0.628563
1715.37	0.610287
1716.89	0.0311565
1718.41	0.880384
1719.92	0.662607
1721.44	0.716288
1722.96	-0.382471
1724.48	1.02739
1725.99	0.386339
1727.51	0.0555573
1729.03	-0.164291
1730.55	0.67865
1732.06	0.639179
1733.58	0.543776
1735.09	0.262083
1736.61	-0.0840282
1738.13	0.495672
1739.64	1.28826
1741.15	-0.258558
1742.67	0.485802
1744.18	0.392679
1745.7	0.384823
1747.21	0.94594
1748.72	0.497364
1750.24	0.441547
1751.75	-0.604774
1753.26	0.206177
1754.77	0.0431175
1756.29	0.624352
1757.8	0.120718
1759.31	0.803688
1760.82	0.268681
1762.33	0.433657
1763.84	0.441446
1765.35	-0.000860214
1766.86	0.922434
1768.37	0.981476
1769.88	-0.362959
1771.39	0.43021
1772.9	0.312527
1774.4	0.380098
1775.91	0.0290413
1777.42	0.160139
1778.93	0.184034
1780.44	0.479708
1781.94	0.0311756
1783.45	0.192417
1784.96	0.460032
1786.46	-0.19195
1787.97	0.906797
1789.47	0.164324
1790.98	0.102663
1792.48	-0.0177994
1793.99	0.466972
1795.49	-0.155476
1797	0.0341244
1798.5	0.074543
1800.01	0.154102
1801.51	0.0125885
1803.01	0.11289
1804.51	-0.128628
1806.02	0.0870037
1807.52	0.701883
1809.02	0.064909
1810.52	0.390619
1812.02	-0.448122
1813.52	0.280659
1815.02	0.447311
1816.53	-0.0937958
1818.03	0.793365
1819.52	0.545036
1821.02	0.0412102
1822.52	0.320744
1824.02	0.759474
1825.52	0.240665
1827.02	0.318399
1828.52	0.168659
1830.02	-0.175779
1831.51	-0.286213
1833.01	0.32461
1834.51	0.653109
1836.01	0.415968
1837.5	-0.390965
1839	0.314558
1840.49	0.281713
1841.99	-0.091898
1843.49	0.314472
1844.98	0.190975
1846.48	-0.404264
1847.97	0.333742
1849.47	0.215794
1850.96	-0.480755
1852.45	0.310064
1853.95	-0.0512619
1855.44	-0.00575256
1856.93	0.325109
1858.42	0.476036
1859.92	-0.107698
1861.41	-0.341496
1862.9	0.559595
1864.39	0.179863
1865.88	0.620398
1867.38	0.192375
1868.87	0.393299
1870.36	-0.177963
1871.85	0.320658
1873.34	0.529634
1874.83	-0.00907326
1876.32	-0.313532
1877.81	-0.428267
1879.29	0.00699806
1880.78	-0.0351677
1882.27	0.00365639
1882.53	0.0175171
1884.03	1.04248
1885.52	-0.235708
1887.01	0.313721
1888.51	0.0256443
1890	0.712744
1891.5	-0.632742
1892.99	-0.0605145
1894.48	0.48177
1895.97	-0.362623
1897.47	0.360237
1898.96	0.439478
1900.45	0.846495
1901.94	0.17046
1903.43	0.202852
1904.92	0.161755
1906.41	0.309668
1907.9	0.474751
1909.39	-0.139696
1910.88	0.0470715
1912.37	0.635195
1913.86	0.6003
1915.35	0.565699
1916.84	-0.0419044
1918.33	0.683922
1919.81	-0.0646591
1921.3	-0.137465
1922.79	0.102606
1924.28	0.41424
1925.76	0.0711403
1927.25	0.406162
1928.73	0.171684
1930.22	-0.149517
1931.71	0.0119629
1933.19	-0.453821
1934.68	0.183704
1936.16	-0.0315952
1937.65	-0.40547
1939.13	0.740421
1940.62	0.40069
1942.1	0.236322
1943.58	-0.200966
1945.07	-0.204449
1946.55	-0.362043
1948.03	-0.399504
1949.51	0.250149
1951	0.259447
1952.48	0.489904
1953.96	-0.141256
1955.44	0.224899
1956.92	0.299726
1958.4	0.977064
1959.88	-0.162558
1961.36	-0.116499
1962.84	1.07847
1964.32	-0.3151
1965.8	-0.510017
1967.28	0.183447
1968.76	-0.476934
1970.24	-0.232094
1971.72	-0.176167
1973.2	0.732956
1974.67	0.00370979
1976.15	-0.280863
1977.63	-0.138746
1979.1	-0.592253
1980.58	-0.296787
1982.06	0.456787
1983.54	0.681936
1985.01	0.277849
1986.49	0.670822
1987.96	0.385284
1989.44	-0.322248
1990.91	-0.299288
1992.39	0.453455
1993.86	-0.110388
1995.33	-0.147652
1996.81	-0.116117
1998.28	0.776625
1999.75	0.215715
2001.23	0.227348
2002.7	-0.0153465
2004.17	0.65217
2005.65	-0.061697
2007.12	-0.250763
2008.59	-0.319284
2010.06	0.186975
2011.53	-0.433292
2013	0.411068
2014.47	-0.10906
2015.94	0.681255
2017.41	0.00541306
2018.88	-0.386318
2020.35	0.749884
2021.82	0.507486
2023.29	0.820183
2024.76	-0.308117
2026.23	0.228136
2027.69	-0.154337
2029.16	0.540712
2030.63	0.0149555
2032.1	-0.256702
2033.56	0.228182
2035.03	-0.176641
2036.5	0.122787
2037.96	0.841055
2039.43	0.214048
2040.89	-0.0771618
2042.36	0.725487
2043.83	0.353281
2045.29	0.101088
2046.75	0.726154
2048.22	0.224138
2049.68	0.0241013
2051.15	0.967693
2052.61	0.642754
2054.07	0.177818
2055.54	-0.139999
2057	0.0106945
2058.46	0.176022
2059.92	-0.349783
2061.39	-0.33526
2062.85	0.0685768
2064.31	0.0205593
2065.77	0.0762291
2067.23	0.756861
2068.69	0.698662
2070.15	-0.233986
2071.61	0.31481
2073.07	0.695004
2074.53	0.451534
2075.99	0.746014
2077.45	0.163839
2078.91	-0.0320644
2080.37	0.461241
2081.82	0.21216
2083.28	0.365379
2084.74	0.314613
2086.2	0.985235
2087.65	0.644793
2089.11	-0.0997791
2090.57	-0.0546665
2092.02	0.124517
2093.48	0.0516014
2094.94	0.246426
2096.39	0.573801
2097.85	0.748245
2099.3	-0.602196
2100.76	-0.0282593
2102.21	0.010685
2103.66	-0.115219
2105.12	0.66366
2106.57	0.444607
2108.03	-1.18916
2109.48	0.346956
2110.93	0.163857
2112.38	0.57729
2113.84	-0.0466862
2115.29	0.424248
2116.74	0.227057
2118.19	0.695459
2119.64	-0.542871
2121.09	0.282339
2122.54	0.0505714
2123.99	0.104605
2125.45	1.02255
2126.89	-0.51413
2128.34	-0.925671
2129.79	0.846888
2131.24	0.0639534
2132.69	0.670229
2134.14	-0.0311279
2135.59	0.311983
2137.04	-0.151276
2138.48	-0.345182
2139.93	0.37468
2141.38	0.768373
2142.83	-0.140976
2144.27	0.968929
2145.72	0.259586
2147.17	0.674789
2148.61	0.293659
2150.06	0.158607
2151.5	0.981989
2152.95	0.692783
2154.39	-0.0955677
2155.84	0.374126
2157.28	0.363564
2158.73	-0.357462
2160.17	-0.0647125
2161.61	0.36508
2163.06	0.18643
2164.5	-0.0549698
2165.94	0.651751
2167.38	-0.352024
2168.83	0.884644
2170.27	0.371702
2171.71	0.88452
2173.15	0.327818
2174.59	0.333279
2176.03	0.719786
2177.47	0.574606
2178.91	0.780539
2180.36	0.0413036
2181.8	0.235302
2183.23	0.896446
2184.67	0.0616074
2186.11	0.224804
2187.55	0.454683
2188.99	0.668135
2190.43	0.731823
2191.87	0.545139
2193.3	0.273273
2194.74	0.297796
2196.18	0.184603
2197.62	0.865135
2199.05	-0.321709
2200.49	0.500925
2201.93	0.143211
2203.36	0.0697136
2204.8	0.0156555
2206.23	0.411715
2207.67	0.709396
2209.1	0.774534
2210.54	0.523146
2211.97	0.534149
2213.41	-0.663397
2214.84	0.00691414
2216.27	-0.246536
2217.71	0.624989
2219.14	-0.0017643
2220.57	0.29731
2222.01	0.629513
2223.44	0.613695
2224.87	-0.690031
2226.3	-0.383795
2227.73	-0.18079
2229.16	0.872601
2230.6	-0.0796776
2232.03	0.477188
2233.46	-0.128597
2234.89	0.0209961
2236.32	0.140621
2237.75	1.162
2239.18	0.702354
2240.61	0.10154
2242.03	0.223211
2243.46	0.511173
2244.89	0.849024
2246.32	0.614294
2247.75	0.245024
2249.17	-0.259945
2250.6	0.142328
2252.03	0.474419
2253.46	0.348415
2254.88	-0.426441
2256.31	0.0861454
2257.73	0.6528
2259.16	0.236914
2260.59	-0.252569
2262.01	0.367611
2263.44	0.424078
2264.86	0.725147
2266.29	0.570332
2267.71	0.380749
2269.14	0.188635
2270.56	-0.0707874
2271.98	0.677919
2273.4	0.18874
2274.83	0.676983
2276.25	0.628279
2277.67	-0.137096
2279.09	-0.0549717
2280.52	0.46735
2281.94	0.451345
2283.36	-0.282747
2284.78	0.582153
2286.2	-0.282169
2287.62	0.650017
2289.04	-0.114716
2290.46	0.395523
2291.88	0.77614
2293.3	-0.0855389
2294.72	0.262741
2296.14	0.431051
2297.56	0.140848
2298.98	0.227331
2300.4	-0.439541
2301.82	-0.122478
2303.23	0.212027
2304.65	0.366722
2306.07	0.0943813
2307.49	0.642439
2308.9	0.334787
2310.32	0.748917
2311.73	-0.318144
2313.15	-0.234156
2314.57	0.476374
2315.98	-0.243256
2317.4	0.175194
2318.81	0.743608
2320.23	0.157471
2321.64	0.821995
2323.06	0.772314
2324.47	1.16211
2325.88	0.522877
2327.3	0.27557
2328.71	0.619886
2330.12	0.0584011
2331.54	-0.220364
2332.95	-0.529011
2334.36	0.086071
2335.77	0.323156
2337.18	0.11492
2338.6	0.446863
2340.01	0.676954
2341.42	-0.0645599
2342.83	0.473631
2344.24	0.0598488
2345.65	0.0898266
2347.06	1.16876
2348.47	0.00392342
2349.88	-0.702385
2351.29	0.0615501
2352.7	0.00515175
2354.1	0.419659
2355.51	0.55447
2356.92	0.248512
2358.33	0.105795
2359.74	0.581108
2361.14	0.163025
2362.55	0.18355
2363.96	-0.0877609
2365.36	-0.585091
2366.77	-0.272835
2368.18	0.201754
2369.58	0.274851
2370.99	0.12557
2372.39	-0.293989
2373.8	-0.61397
2375.2	0.483749
2376.61	-0.270666
2378.01	0.388012
2379.42	0.0938663
2380.82	-0.123747
2382.22	0.361042
2383.63	0.410021
2385.03	-0.0375957
2386.43	0.155975
2387.84	0.351406
2389.24	-0.215799
2390.64	-0.269035
2392.04	0.269808
2393.44	0.0309029
2394.84	-0.603231
2396.25	-0.169922
2397.65	0.0898552
2399.05	0.25563
2400.45	0.311396
2401.85	-0.0767765
2403.25	0.0275917
2404.65	-0.265951
2406.05	0.105185
2407.45	0.315058
2408.84	0.173828
2410.24	0.713505
2411.64	0.0332966
2413.04	0.369308
2414.44	0.154219
2415.83	0.275375
2417.23	0.0199661
2418.63	-0.344055
2420.02	-0.279684
2421.42	0.814028
2422.82	0.259571
2424.21	0.0686703
2425.61	-0.0111866
2427	0.00533104
2428.4	0.816685
2429.8	0.298847
2431.19	-0.217695
2432.58	-0.19462
2433.98	0.383078
2435.37	0.179867
2436.77	-0.0430412
2438.16	-0.174427
2439.55	0.628199
2440.95	-0.00110435
2442.34	0.638594
2443.73	-0.103426
2445.12	0.328453
2446.51	0.283945
2447.91	0.191601
2449.3	-0.0907707
2450.69	0.229342
2452.08	-0.0983829
2453.47	-0.0600185
2454.86	0.581621
2456.25	0.418116
2457.64	0.476892
2459.03	-0.208109
2460.42	0.244272
2461.81	-0.649456
2463.2	-0.185318
2464.59	0.30864
2465.98	0.0749912
2467.36	-0.316534
2468.75	0.649088
2470.14	0.115091
2471.53	0.242517
2472.92	0.431108
2474.3	-0.0593834
2475.69	-0.0788631
2477.08	0.230841
2478.46	-0.135366
2479.85	-0.0141182
2481.23	0.405283
2482.62	-0.30418
2484	0.63006
2485.39	-0.0817356
2486.77	-0.201221
2488.16	0.00457573
2489.54	0.784643
2490.93	-0.196373
2492.31	0.365294
2493.69	0.167515
2495.08	-0.104061
2496.46	-0.372057
2497.84	-0.327784
2499.23	0.135006
2500.61	-0.0842342
2501.99	0.158598
2503.37	-0.296232
2504.75	0.234831
2506.13	-0.0225582
2507.52	-0.14146
2508.9	0.493526
2510.28	-0.0235538
2511.66	-0.0930786
2513.04	0.421938
2514.42	0.494093
2515.8	-0.656116
2517.18	-0.426296
2518.55	-0.33301
2519.93	-0.239395
2521.31	0.189482
2522.69	0.478878
2524.07	0.613272
2525.45	0.151302
2526.82	-0.29533
2528.2	-0.299006
2529.58	0.216972
2530.95	0.781897
2532.33	0.043951
2533.71	-0.0826511
2535.08	-0.177099
2536.46	0.0777626
2537.84	0.406929
2539.21	0.126123
2540.59	-0.0199203
2541.96	0.212681
2543.34	-0.0700493
2544.71	0.529253
2546.08	0.373049
2547.46	-0.0834904
2548.83	0.508774
2550.2	0.555119
2551.58	-0.143332
2552.95	0.506617
2554.32	0.0461636
2555.7	0.190548
2557.07	0.348675
2558.44	-0.0546455
2559.81	-0.260023
2561.18	0.308943
2562.55	0.121582
2563.93	-0.458313
2565.3	0.205446
2566.67	0.112135
2568.04	0.216042
2569.41	0.380623
2570.78	-0.167164
2572.15	0.24003
2573.51	0.223028
2574.88	-0.0514507
2576.25	0.523111
2577.62	-0.100225
2578.99	0.367546
2580.36	0.546398
2581.73	0.299667
2583.09	0.506912
2584.46	-0.0293064
2585.83	-0.186563
2587.19	-0.282892
2588.56	-0.439356
2589.93	-0.00452805
2591.29	0.778484
2592.66	0.0601788
2594.02	0.0824394
2595.39	0.692816
2596.75	0.180069
2598.12	-0.439968
2599.48	0.24004
2600.85	-0.289284
2602.21	-0.137243
2603.58	-0.391314
2604.94	0.397337
2606.3	-0.0359421
2607.67	0.178711
2609.03	0.0897198
2610.39	0.675705
2611.76	0.399748
2613.12	-0.0890675
2614.48	0.157257
2615.84	-0.137739
2617.2	-0.236694
2618.56	-0.13932
2619.92	-0.145008
2621.28	0.0454502
2622.65	0.700109
2624.01	0.294283
2625.37	-0.111128
2626.72	0.0649872
2628.08	-0.013258
2629.44	0.190805
2630.8	0.602346
2632.16	0.195347
2633.52	0.531595
2634.88	0.377457
2636.24	0.979828
2637.59	1.00331
2638.95	0.375418
2640.31	0.66617
2641.67	0.247519
2643.02	-0.0221043
2644.38	-0.217127
2645.74	0.355072
2647.09	0.365309
2648.45	-0.27422
2649.8	0.395163
2651.16	-0.114456
2652.51	-0.168507
2653.87	0.364923
2655.22	0.811197
2656.58	0.585712
2657.93	0.114557
2659.29	0.084959
2660.64	0.611982
2661.99	0.641258
2663.35	0.376944
2664.7	0.0672226
2666.05	-0.156328
2667.41	0.348022
2668.76	-0.269882
2670.11	0.20509
2671.46	-0.00273895
2672.81	-0.252371
2674.16	0.0951538
2675.51	0.254988
2676.87	-0.585041
2678.22	-0.567209
2679.57	0.482008
2680.92	0.489496
2682.27	0.20989
2683.62	0.339075
2684.97	0.427069
2686.31	-0.16573
2687.66	0.111576
2689.01	0.83629
2690.36	0.163389
2691.71	0.473289
2693.06	-0.236185
2694.4	0.0822906
2695.75	0.240589
2697.1	0.747841
2698.45	0.779945
2699.79	0.222445
2701.14	0.465509
2702.49	0.50943
2703.83	0.512415
2705.18	0.299183
2706.52	0.332443
2707.87	-0.186337
2709.21	0.396814
2710.56	-0.400091
2711.9	0.632193
2713.25	0.0227776
2714.59	0.459387
2715.94	0.0527935
2717.28	0.111044
2718.62	0.517864
2719.97	-0.298273
2721.31	0.747087
2722.65	0.830923
2723.99	1.10286
2725.34	0.820635
2726.68	0.886837
2728.02	0.501089
2729.36	0.464108
2730.7	-0.00971603
2732.04	0.738573
2733.39	0.410429
2734.73	-0.164518
2736.07	0.846451
2737.41	0.665024
2738.75	-0.0981522
2740.08	0.345181
2741.43	0.162094
2742.76	0.631744
2744.1	0.678057
2745.44	0.606646
2746.78	-0.0756245
2748.12	0.505079
2749.46	0.664633
2750.79	0.157383
2752.13	0.129539
2753.47	0.508055
2754.81	-0.0984516
2756.14	-0.400114
2757.48	0.0661831
2758.81	1.03949
2760.15	0.65283
2761.49	0.42664
2762.82	-0.08778
2764.16	0.310137
2765.49	0.346279
2766.83	0.381361
2768.16	0.674629
2769.5	0.285131
2770.83	0.268337
2772.16	0.37838
2773.5	-0.293316
2774.83	0.534199
2776.17	0.323105
2777.5	0.213972
2778.83	0.250107
2780.16	0.158062
2781.5	0.296667
2782.83	-0.0669823
2784.16	0.0429993
2785.49	-0.420488
2786.82	0.577976
2788.15	-0.127008
2789.49	-0.185619
2790.82	0.201223
2792.15	-0.468452
2793.48	-0.336243
2794.81	0.23905
2796.14	0.584694
2797.46	-0.12813
2798.79	0.471872
2800.12	0.185532
2801.45	0.184143
2802.78	0.353413
2804.11	0.493402
2805.44	0.219194
2806.76	-0.18416
2808.09	0.649
2809.42	0.655661
2810.75	-0.402678
2812.07	-0.0532074
2813.4	0.227484
2814.73	-0.410299
2816.05	0.358788
2817.38	0.634167
2818.7	-0.208817
2820.03	0.52149
2821.36	0.386187
2822.68	0.631992
2824.01	0.564571
2825.33	0.397238
2826.65	0.59827
2827.98	0.64468
2829.3	0.805637
2830.63	0.458048
2831.95	0.139294
2833.27	1.41994
2834.6	1.62399
2835.92	1.37398
2837.24	2.3679
2838.56	2.37014
2839.88	2.42845
2841.21	3.05251
2842.53	2.85749
2843.85	3.08811
2845.17	3.74443
2846.49	3.82285
2847.81	3.29444
2849.13	3.92501
2850.45	4.31463
2851.77	3.96807
2853.09	3.98778
2854.41	4.41634
2855.73	4.54763
2857.05	4.7495
2858.37	4.31584
2859.69	5.28038
2861	5.12873
2862.32	6.0916
2863.64	6.64384
2864.96	7.03992
2866.28	7.3652
2867.59	6.87303
2868.91	7.59479
2870.23	7.97903
2871.54	8.49044
2872.86	7.59166
2874.17	7.9031
2875.49	8.60608
2876.81	8.30608
2878.12	8.9893
2879.44	8.05375
2880.75	8.44128
2882.07	8.3107
2883.38	7.97222
2884.69	8.02953
2886.01	8.06022
2887.32	7.64198
2888.63	8.47167
2889.95	8.10663
2891.26	8.16043
2892.57	8.61912
2893.89	8.53067
2895.2	8.45722
2896.51	8.94575
2897.82	9.28269
2899.13	8.65672
2900.44	9.55775
2901.76	9.11692
2903.07	9.82367
2904.38	9.9852
2905.69	9.57399
2907	9.17813
2908.31	10.0572
2909.62	10.7287
2910.93	11.192
2912.24	11.2916
2913.55	12.5233
2914.85	11.8755
2916.16	12.0493
2917.47	13.1708
2918.78	12.6382
2920.09	12.9587
2921.4	13.057
2922.7	12.8788
2924.01	14.2698
2925.32	14.1261
2926.62	14.1657
2927.93	14.527
2929.24	14.1044
2930.54	14.6171
2931.85	14.4855
2933.15	14.2554
2934.46	14.3608
2935.76	14.4524
2937.07	14.4607
2938.37	13.3654
2939.68	14.2832
2940.98	13.3019
2942.29	12.4764
2943.59	12.0031
2944.89	11.7006
2946.2	12.4078
2947.5	10.8504
2948.8	10.9988
2950.11	10.4586
2951.41	9.95601
2952.71	9.95302
2954.01	9.65277
2955.32	9.22575
2956.62	9.45875
2957.92	9.05262
2959.22	8.62461
2960.52	9.26727
2961.82	9.53703
2963.12	8.96728
2964.42	8.24093
2965.72	8.24092
2967.02	8.3917
2968.32	7.9772
2969.62	7.39198
2970.92	7.43917
2972.22	7.00873
2973.51	6.62107
2974.81	7.27488
2976.11	6.50553
2977.41	6.33857
2978.71	5.82985
2980	6.31686
2981.3	6.16737
2982.6	5.39788
2983.9	4.54547
2985.19	5.15776
2986.49	4.77547
2987.78	3.69394
2989.08	4.65222
2990.38	4.14967
2991.67	3.7444
2992.97	3.70227
2994.26	3.72763
2995.56	3.63812
2996.85	2.64853
2998.14	3.31529
2999.44	2.6635
3000.73	2.53224
3002.03	2.76682
3003.32	2.84808
3004.61	1.86493
3005.91	1.96016
3007.2	1.62007
3008.49	1.5164
3009.78	1.17328
3011.07	1.90492
3012.37	1.19656
3013.66	1.10315
3014.95	0.899303
3016.24	0.948032
3017.53	1.16542
3018.82	0.590599
3020.11	0.54509
3021.4	0.0401001
3022.69	0.534096
3023.98	0.400848
3025.27	0.460402
3026.56	0.200882
3027.85	0.205818
3029.14	0.226954
3030.43	0.610495
3031.71	-0.121807
3033	0.266966
3034.29	0.0213661
3035.58	0.023243
3036.87	0.587746
3038.15	0.431408
3039.44	0.409061
3040.73	0.823336
3042.01	-0.0143623
3043.3	0.150753
3044.59	0.139359
3045.87	-0.0188999
3047.16	0.456141
3048.44	0.184628
3049.73	0.177189
3051.01	-0.00424385
3052.3	0.716684
3053.58	0.864584
3054.87	0.479116
3056.15	1.14182
3057.43	0.49308
3058.72	0.865236
3060	0.691826
3061.29	0.764423
3062.57	0.39027
3063.85	-0.171003
3065.13	0.984127
3066.42	0.347658
3067.7	0.216366
3068.98	0.915461
3070.26	0.158981
3071.54	0.148804
3072.82	0.476213
3074.11	0.705816
3075.39	0.281147
3076.67	0.209404
3077.95	0.301558
3079.23	-0.309568
3080.51	0.0187454
3081.79	0.268911
3083.07	-0.604272
3084.35	0.043478
3085.63	-0.0275908
3086.9	0.199134
3088.18	0.329533
3089.46	-0.124989
3090.74	0.505366
3092.02	0.267033
3093.29	0.1513
3094.57	0.321126
3095.85	0.206846
3097.13	0.201359
3098.4	0.15522
3099.68	0.285104
3100.95	-0.0321512
3102.23	0.206264
3103.51	0.309852
3104.78	0.441639
3106.06	0.182557
3107.33	0.588608
3108.61	0.103719
3109.88	0.487287
3111.16	0.35865
3112.43	0.204515
3113.71	0.511973
3114.98	0.67065
3116.25	0.652317
3117.53	0.727289
3118.8	0.298291
3120.07	0.341992
3121.35	1.44144
3122.62	0.777267
3123.89	0.993885
3125.16	0.168298
3126.44	0.982044
3127.71	1.29595
3128.98	1.20515
3130.25	1.26404
3131.52	1.26916
3132.79	0.99045
3134.06	1.02202
3135.33	1.45766
3136.6	0.987845
3137.87	1.50199
3139.14	0.896703
3140.41	1.53053
3141.68	1.3567
3142.95	1.06308
3144.22	1.95254
3145.49	1.60787
3146.76	1.6273
3148.02	1.07222
3149.29	1.21537
