200.398	-0.0257893
202.213	-0.00616264
204.027	0.0144081
205.843	0.863586
207.657	0.642939
209.47	0.0330429
211.283	1.00091
213.097	-0.267412
214.909	-0.274364
216.721	-0.0639935
218.533	-0.217072
220.344	-0.175283
222.157	-0.0594368
223.967	1.19412
225.777	-0.500746
227.587	-0.3097
229.396	-0.336594
231.205	0.697742
233.016	0.524509
234.824	0.0626698
236.632	0.446878
238.439	0.304064
240.247	1.39466
242.053	1.01883
243.86	1.07934
245.666	1.28483
247.474	1.82614
249.279	1.88029
251.085	1.47042
252.889	2.62489
254.694	1.89363
256.498	2.3679
258.301	2.14429
260.105	2.67067
261.908	1.24917
263.71	1.03522
265.513	1.76286
267.315	2.10592
269.116	2.20765
270.918	1.46429
272.718	1.61098
274.519	0.742743
276.319	0.932726
278.119	1.40879
279.918	1.35123
281.718	1.00146
283.516	0.91367
285.315	1.18404
287.113	1.54855
288.911	0.809347
290.708	0.120716
292.505	1.13482
294.302	0.643147
296.098	-0.371464
297.894	-0.379656
299.69	0.32979
301.485	-0.155661
303.278	0.718878
305.073	0.32589
306.867	-0.0443668
308.661	-0.486116
310.454	-0.521536
312.247	0.207048
314.04	0.152065
315.833	0.981129
317.623	0.146292
319.415	0.480936
321.206	-0.183201
322.997	-0.298229
324.788	-0.555813
326.579	0.929487
328.367	-0.235664
330.156	0.150675
331.946	0.296423
333.735	-0.32605
335.523	0.316145
337.31	0.0214825
339.098	0.513027
340.885	0.786448
342.673	0.12598
344.458	-0.17565
346.244	0.144743
348.03	0.609322
349.816	0.0241413
351.6	-0.775523
353.385	-0.382523
355.17	-0.0867805
356.953	0.158943
358.737	0.998032
360.521	-0.309187
362.304	-0.640395
364.085	0.40682
365.868	0.239481
367.65	-0.213678
369.431	0.447105
371.212	0.252357
372.994	-0.27438
374.773	-0.304261
376.554	0.63381
378.332	-0.315796
380.112	-0.413985
381.892	0.00764656
383.669	1.04226
385.448	0.573256
387.225	0.811726
389.003	0.182768
390.781	0.166397
392.557	1.23166
394.334	1.10022
396.109	1.15734
397.885	1.63744
399.66	1.5536
401.436	1.51603
403.211	2.08805
404.984	2.21244
406.759	1.88929
408.532	2.10516
410.306	2.48464
412.078	2.18345
413.851	2.44628
415.623	2.26459
417.395	2.74141
419.166	2.63288
420.938	2.5953
422.708	2.7451
424.477	2.54153
426.248	2.05457
428.017	1.02618
429.788	1.35852
431.556	0.587606
433.326	0.967313
435.093	0.549627
436.86	0.225806
438.629	0.511088
440.395	0.113458
442.163	0.0880785
443.929	0.76246
445.694	0.402033
447.461	-0.00673199
449.226	0.356073
450.99	0.484704
452.756	-0.226773
454.52	0.346194
456.285	0.125762
458.048	0.743832
459.811	0.779235
461.573	1.02498
463.337	0.250381
465.099	0.502707
466.86	0.271809
468.623	0.556721
470.384	-1.01529
472.144	0.39046
473.906	0.0970917
475.666	-0.688543
477.425	1.27077
479.184	0.222048
480.944	-0.269276
482.703	0.613759
484.461	0.986276
486.218	0.0110216
487.975	0.110748
489.734	0.400619
491.491	0.365911
493.247	0.238834
495.003	-0.0985708
496.759	1.52954
498.516	0.887538
500.271	0.337386
502.025	1.19343
503.779	0.546069
505.533	0.342441
507.287	1.05339
509.042	1.40945
510.795	1.66874
512.547	0.466305
514.299	0.24957
516.051	0.995103
517.803	0.938537
519.554	0.88024
521.305	0.397722
523.055	0.924657
524.805	0.887309
526.555	0.4746
528.307	1.00021
530.056	1.71258
531.805	1.55687
533.553	1.07222
535.301	0.656341
537.049	1.64092
538.797	1.01017
540.544	0.751777
542.291	1.09815
544.037	-0.0227299
545.783	0.834127
547.529	0.969728
549.275	0.549042
551.02	0.84753
552.765	0.752428
554.509	0.58853
556.253	1.51032
557.997	0.56304
559.738	0.954708
561.482	0.77113
563.224	0.956888
564.967	0.798616
566.709	0.710581
568.451	0.0271168
570.192	0.424633
571.933	1.03067
573.674	0.240093
575.415	0.829006
577.153	0.273743
578.893	0.363167
580.632	-0.0512409
582.371	0.108644
584.11	-0.444855
585.849	0.839405
587.587	-0.132122
589.323	0.48144
591.06	0.449236
592.797	0.554129
594.534	-0.422615
596.271	0.740362
598.005	-0.144321
599.741	0.39682
601.476	-0.489722
603.211	0.0248737
604.944	0.168879
606.679	0.0807095
608.413	0.0830555
610.147	0.0391941
611.878	-0.439677
613.611	0.000291824
615.344	0.0514164
617.077	-0.217913
618.807	0.634356
620.539	-0.0496712
622.27	-0.186007
623.999	-0.346495
625.73	0.109911
627.461	0.361952
629.189	0.343231
630.919	0.807718
632.648	0.477148
634.376	0.285389
636.105	0.755106
637.833	0.514332
639.559	0.314653
641.287	0.77145
643.013	0.402832
644.74	0.624514
646.467	0.0500069
648.192	0.570633
649.918	-0.0628223
651.642	0.401083
653.368	0.16724
655.091	0.416578
656.816	0.78425
658.538	0.744184
660.263	-0.163624
661.987	1.55057
663.708	1.41219
665.432	0.766264
667.153	0.871124
668.875	0.265564
670.596	-0.362072
672.318	0.775238
674.037	0.383739
675.759	0.270435
677.478	0.319757
679.196	0.668102
680.917	-0.202885
682.635	0.486126
684.355	0.136511
686.072	0.681213
687.791	2.62838
689.508	3.28407
691.224	2.51018
692.942	0.491201
694.658	0.267721
696.376	0.756466
698.091	0.506229
699.805	0.369045
701.522	0.068964
703.236	0.893814
704.95	0.292294
706.665	0.585749
708.379	0.488184
710.093	0.825409
711.806	0.840923
713.518	-0.173477
715.23	0.299007
716.943	-0.0514793
718.655	0.442856
720.366	-0.248583
722.078	0.883173
723.788	-0.193926
725.498	0.572025
727.208	0.518446
728.919	0.305351
730.628	0.613327
732.337	-0.0085659
734.045	0.501688
735.755	1.10134
737.463	0.458481
739.17	0.742918
740.877	0.149368
742.584	1.38333
744.292	0.974607
745.998	0.141205
747.704	0.570562
749.409	0.282209
751.114	-0.116377
752.819	0.994204
754.526	-0.929731
756.23	0.343355
757.934	0.336658
759.637	0.264814
761.34	0.532974
763.043	1.79524
764.746	0.123671
766.448	1.27227
768.152	0.678429
769.853	0.849276
771.554	1.42374
773.255	1.02333
774.956	1.95614
776.656	1.42006
778.356	0.81834
780.056	1.19152
781.755	1.54426
783.454	1.24128
785.153	1.07213
786.851	1.91769
788.549	0.290688
790.247	1.41912
791.944	0.800961
793.641	0.971344
795.338	0.802435
797.034	0.995878
798.73	0.741322
800.426	1.05284
802.121	0.871534
803.817	2.37827
805.511	0.466602
807.206	0.847176
808.9	0.753788
810.592	1.19714
812.286	0.943039
813.979	1.04681
815.672	2.11259
817.364	0.894909
819.057	1.9143
820.748	0.632195
822.44	1.89645
824.129	1.53252
825.82	0.592064
827.511	1.46025
829.201	1.41958
830.891	1.00554
832.581	1.37597
834.269	0.947987
835.958	1.27969
837.646	0.808113
839.335	1.27194
841.023	0.70595
842.709	0.986349
844.396	2.42793
846.084	1.3679
847.77	1.40586
849.455	2.02981
851.141	1.36045
852.827	0.514013
854.513	0.206009
856.196	0.99777
857.881	1.13729
859.566	0.261629
861.248	0.935293
862.932	0.795904
864.616	1.12743
866.297	1.34482
867.98	-0.152552
869.663	0.739311
871.343	1.31515
873.026	1.1463
874.707	0.774172
876.387	0.469662
878.068	0.368214
879.747	0.108578
881.428	0.277206
883.108	0.580109
884.786	0.384531
886.465	0.299461
888.143	0.369726
889.822	0.978403
891.498	1.26826
893.177	1.17244
894.855	0.12957
896.53	-0.553566
898.208	0.604408
899.883	0.883423
901.56	0.129652
903.234	0.182344
904.91	-0.0560608
906.584	0.688646
908.26	0.540773
909.933	0.595198
911.608	0.673269
913.28	1.4192
914.955	1.52041
916.627	0.867319
918.298	-0.22793
919.972	0.317495
921.643	0.796507
923.315	0.547178
924.986	0.985846
926.656	0.809071
928.328	0.591293
929.997	0.971693
931.668	0.669231
933.337	1.09537
935.006	1.03645
936.676	0.867989
938.344	0.877512
940.012	0.867136
941.681	0.241247
943.348	1.09483
945.014	1.37479
946.683	0.990608
948.349	0.890074
950.015	0.344727
951.682	1.34176
953.347	0.81637
955.012	0.889301
956.676	0.415819
958.343	0.830235
960.006	-0.31698
961.67	0.0832367
963.333	-0.134958
964.998	1.14772
966.661	1.16562
968.323	1.55448
969.985	0.346407
971.649	0.574766
973.31	0.538387
974.971	0.703573
976.632	1.31437
978.293	0.667297
979.953	0.950541
981.615	1.23331
983.274	1.09313
984.933	0.882961
986.592	0.801807
988.251	1.46958
989.909	1.71419
991.567	1.2058
993.225	1.47068
994.884	0.85239
996.541	1.66907
998.198	2.22017
999.855	2.65998
1001.51	1.90928
1003.17	1.75289
1004.82	1.26618
1006.48	1.17547
1008.13	1.37055
1009.79	0.205393
1011.44	0.6654
1013.1	1.12565
1014.75	1.01659
1016.4	1.43379
1018.06	1.34827
1019.71	1.19871
1021.36	0.788868
1023.01	0.621773
1024.66	2.16119
1026.32	0.751366
1027.97	1.50504
1029.62	1.42719
1031.27	1.28155
1032.92	1.8097
1034.57	1.5486
1036.22	1.41596
1037.87	1.36897
1039.52	2.23605
1041.16	2.16771
1042.81	2.36287
1044.46	2.36576
1046.11	2.11192
1047.76	2.36149
1049.4	3.04873
1051.05	3.80389
1052.7	4.71314
1054.34	3.29858
1055.99	3.75257
1057.63	2.98877
1059.28	3.0499
1060.92	3.43585
1062.57	2.68947
1064.21	2.24564
1065.85	1.77805
1067.5	0.721678
1069.14	1.22835
1070.78	1.49444
1072.43	1.32585
1074.07	1.39695
1075.71	0.971062
1077.35	0.309374
1078.99	1.03805
1080.63	0.96583
1082.27	0.459984
1083.91	0.928303
1085.55	0.938198
1087.19	1.89754
1088.83	0.83791
1090.47	0.641806
1092.11	0.508558
1093.75	0.288172
1095.39	0.931465
1097.03	-0.0200882
1098.66	0.691021
1100.3	0.887783
1101.94	-0.160032
1103.57	0.129927
1105.21	0.465286
1106.84	0.909256
1108.48	0.320366
1110.11	0.0306931
1111.75	0.469032
1113.38	0.775013
1115.02	0.863482
1116.65	0.950615
1118.29	0.501799
1119.92	1.14747
1121.55	0.595221
1123.19	1.00867
1124.82	0.289801
1126.45	1.26278
1128.08	0.20528
1129.71	0.539299
1131.34	0.510897
1132.97	0.611364
1134.6	0.94672
1136.23	0.490023
1137.86	-0.694981
1139.49	1.66426
1141.12	-0.0583305
1142.75	-0.0518265
1144.38	0.680033
1146.01	-0.0158825
1147.64	0.377424
1149.26	-0.463539
1150.89	-0.195545
1152.52	0.839001
1154.15	0.403385
1155.77	0.32905
1157.4	0.488518
1159.02	0.563448
1160.65	0.023283
1162.27	-0.195671
1163.9	0.203897
1165.52	-0.735033
1167.15	1.2385
1168.77	0.254656
1170.39	0.543205
1172.02	0.615334
1173.64	0.131865
1175.26	0.092144
1176.89	0.856955
1178.51	0.0745811
1180.13	-0.00682068
1181.75	0.357805
1183.37	-0.439505
1184.99	0.0320072
1186.61	-0.406761
1188.23	0.0804615
1189.85	0.457638
1191.47	-0.180311
1193.09	0.420866
1194.71	0.241903
1196.33	1.02785
1197.94	1.08057
1199.56	0.446409
1201.18	0.674788
1202.8	0.678341
1204.41	0.353098
1206.03	0.804277
1207.65	0.36091
1209.26	0.752666
1210.88	0.245995
1212.49	1.44599
1214.11	0.931734
1215.72	0.955025
1217.34	2.11876
1218.95	0.846581
1220.57	1.46581
1222.18	0.902981
1223.79	1.9184
1225.41	1.92073
1227.02	1.3261
1228.63	1.58296
1230.24	1.30461
1231.85	1.31822
1233.47	2.03698
1235.08	2.53086
1236.69	1.9525
1238.3	1.66555
1239.91	2.16566
1241.52	1.73569
1243.13	2.09103
1244.74	1.51383
1246.34	1.70012
1247.95	1.92572
1249.56	2.41869
1251.17	1.31791
1252.78	2.6793
1254.38	1.87014
1255.99	1.10455
1257.6	1.04462
1259.2	1.64913
1260.81	1.17944
1262.42	2.01498
1264.02	1.33902
1265.63	1.63577
1267.23	1.43376
1268.84	1.14687
1270.44	1.25181
1272.04	1.45834
1273.65	1.10302
1275.25	2.13462
1276.85	1.65107
1278.46	1.9326
1280.06	2.41968
1281.66	1.68457
1283.26	1.52952
1284.86	1.31362
1286.46	1.8025
1288.07	1.96252
1289.67	2.06238
1291.27	1.54339
1292.87	1.62356
1294.47	1.68162
1296.06	2.64581
1297.66	2.38798
1299.26	2.04441
1300.86	1.69818
1302.46	2.0297
1304.06	1.7824
1305.65	2.39759
1307.25	2.35318
1308.85	2.7801
1310.44	2.44777
1312.04	2.60822
1313.64	2.70856
1315.23	2.50422
1316.83	2.7106
1318.42	1.75493
1320.02	3.36927
1321.61	2.92176
1323.2	3.00094
1324.8	1.75498
1326.39	2.78283
1327.99	1.98204
1329.58	2.19678
1331.17	3.40516
1332.76	2.87814
1334.36	2.33657
1335.95	3.33281
1337.54	3.11911
1339.13	2.54152
1340.72	2.30369
1342.31	2.36366
1343.9	3.20329
1345.49	2.41224
1347.08	1.22215
1348.67	2.66205
1350.26	1.34249
1351.85	2.11016
1353.43	2.1616
1355.02	1.63619
1356.61	1.35168
1358.2	1.86556
1359.78	1.73816
1361.37	1.6885
1362.96	2.13581
1364.54	2.20302
1366.13	2.23077
1367.71	1.78218
1369.3	1.95356
1370.88	1.74965
1372.47	1.30992
1374.05	2.10622
1375.64	1.84937
1377.22	1.97083
1378.8	2.33009
1380.39	2.0107
1381.97	1.96719
1383.55	2.37832
1385.13	1.7136
1386.72	1.88291
1388.3	1.39701
1389.88	1.42896
1391.46	1.78021
1393.04	1.89488
1394.62	1.43516
1396.2	1.47105
1397.78	2.27859
1399.36	1.89453
1400.94	0.43927
1402.52	1.71597
1404.1	1.76457
1405.68	1.73506
1407.25	1.94454
1408.83	1.60243
1410.41	1.38017
1411.98	2.3033
1413.56	1.80334
1415.14	2.17005
1416.71	1.44992
1418.29	2.1291
1419.87	1.98079
1421.44	2.11047
1423.02	2.32211
1424.59	2.18292
1426.16	2.97153
1427.74	1.98999
1429.31	1.99204
1430.89	2.48428
1432.46	2.97392
1434.03	3.20544
1435.6	2.62946
1437.18	3.80402
1438.75	3.99676
1440.32	3.99516
1441.89	3.36687
1443.46	4.13554
1445.03	3.84385
1446.6	5.26258
1448.17	3.98884
1449.74	4.28824
1451.31	3.64498
1452.88	3.35667
1454.45	4.17069
1456.02	3.48969
1457.59	2.92515
1459.16	3.00726
1460.72	3.73506
1462.29	3.21898
1463.86	2.77829
1465.43	2.72869
1466.99	2.48185
1468.56	2.88388
1470.13	2.58094
1471.69	1.67253
1473.26	2.33589
1474.82	1.52998
1476.38	1.17616
1477.95	1.72449
1479.51	1.21404
1481.08	0.762316
1482.64	2.28982
1484.2	1.07347
1485.77	1.61994
1487.33	1.71415
1488.89	1.19865
1490.46	0.77767
1492.02	1.19354
1493.58	0.490768
1495.14	0.332109
1496.7	1.34064
1498.26	0.594631
1499.82	1.3287
1501.38	1.4808
1502.94	0.490891
1504.5	0.802896
1506.06	1.36659
1507.62	2.04398
1509.18	1.03702
1510.73	1.12979
1512.29	1.14333
1513.85	0.886543
1515.41	1.66868
1516.96	1.06785
1518.52	1.71648
1520.08	1.31148
1521.63	1.7306
1523.19	0.791059
1524.75	1.43663
1526.3	0.820034
1527.85	1.23135
1529.41	0.727551
1530.96	1.38335
1532.52	0.369684
1534.07	0.93231
1535.62	1.17415
1537.18	1.58748
1538.73	1.28423
1540.28	1.1898
1541.84	0.474133
1543.39	1.35938
1544.94	1.88521
1546.49	1.37647
1548.04	0.211693
1549.59	0.679922
1551.14	1.25992
1552.69	0.904463
1554.25	0.327265
1555.79	1.39731
1557.34	1.05103
1558.89	0.914381
1560.44	1.2668
1561.99	1.3054
1563.54	1.57027
1565.08	1.22073
1566.63	0.162209
1568.18	0.857365
1569.73	1.0666
1571.27	0.995077
1572.82	1.01629
1574.37	1.63457
1575.91	1.24484
1577.46	1.3969
1579	1.12042
1580.55	1.53602
1582.09	1.5612
1583.64	1.99915
1585.18	2.13998
1586.73	1.59027
1588.27	1.50802
1589.81	1.50015
1591.35	1.69729
1592.9	2.21191
1594.44	1.63984
1595.98	2.51016
1597.52	1.71385
1599.06	2.28708
1600.61	2.26207
1602.15	1.91899
1603.69	2.58959
1605.23	1.9068
1606.77	2.53617
1608.31	1.82716
1609.85	1.45159
1611.39	1.82291
1612.93	1.60757
1614.46	2.14042
1616	1.97762
1617.54	2.11584
1619.08	1.46947
1620.61	1.89428
1622.15	1.31068
1623.69	1.75873
1625.23	2.24423
1626.76	1.79226
1628.3	2.38552
1629.83	2.30209
1631.37	2.70235
1632.9	2.5222
1634.44	2.02549
1635.97	2.31464
1637.51	2.36306
1639.04	2.48742
1640.57	2.63047
1642.11	2.30639
1643.64	2.22234
1645.17	1.96831
1646.71	2.3449
1648.24	2.72022
1649.77	2.55726
1651.3	2.15536
1652.83	2.68393
1654.36	2.04647
1655.89	3.07899
1657.42	2.92491
1658.96	3.08418
1660.48	2.83321
1662.01	2.61634
1663.54	2.21238
1665.07	2.0479
1666.6	2.40112
1668.13	2.25814
1669.66	1.67613
1671.19	1.87167
1672.71	2.01418
1674.24	2.41549
1675.77	1.69312
1677.29	2.60753
1678.82	0.630703
1680.35	2.07347
1681.87	1.2712
1683.4	2.01164
1684.92	1.90713
1686.45	1.71177
1687.97	1.5176
1689.5	1.25124
1691.02	1.29694
1692.54	1.14148
1694.07	1.05921
1695.59	0.684162
1697.11	0.820601
1698.64	0.663998
1700.16	0.269428
1701.68	0.603827
1703.2	0.335131
1704.72	0.812323
1706.25	0.287029
1707.77	-0.00167465
1709.29	0.781605
1710.81	0.728857
1712.33	-0.211929
1713.85	0.461655
1715.37	-0.259644
1716.89	0.232021
1718.41	0.451481
1719.92	0.291212
1721.44	0.239801
1722.96	0.3158
1724.48	-0.00259972
1725.99	0.708477
1727.51	0.48572
1729.03	0.895077
1730.55	0.386503
1732.06	0.450626
1733.58	0.0352325
1735.09	0.194969
1736.61	0.338047
1738.13	0.582296
1739.64	0.356064
1741.15	0.578192
1742.67	0.0111313
1744.18	-0.117599
1745.7	0.517012
1747.21	0.172422
1748.72	0.718836
1750.24	-0.162901
1751.75	0.0612144
1753.26	-0.533512
1754.77	0.308931
1756.29	0.382092
1757.8	0.587336
1759.31	0.259411
1760.82	0.0494385
1762.33	0.452326
1763.84	-0.013773
1765.35	0.325096
1766.86	0.352055
1768.37	-0.19029
1769.88	0.430382
1771.39	-0.0460377
1772.9	-0.0424747
1774.4	0.408382
1775.91	-0.238245
1777.42	0.256678
1778.93	0.0608139
1780.44	0.148731
1781.94	0.0726185
1783.45	-0.297497
1784.96	0.010006
1786.46	0.140352
1787.97	-0.588902
1789.47	-0.253683
1790.98	0.297539
1792.48	-0.612247
1793.99	-0.042326
1795.49	0.18446
1797	0.632149
1798.5	0.309259
1800.01	0.104193
1801.51	-0.344023
1803.01	0.542662
1804.51	-0.0117359
1806.02	0.164419
1807.52	0.060318
1809.02	0.12973
1810.52	0.409254
1812.02	0.195883
1813.52	0.508106
1815.02	-0.216761
1816.53	-0.140757
1818.03	-0.0716972
1819.52	-0.121864
1821.02	0.147034
1822.52	-0.0741577
1824.02	0.0801735
1825.52	0.263493
1827.02	-0.299801
1828.52	0.384512
1830.02	-0.104492
1831.51	0.379389
1833.01	0.374222
1834.51	0.513792
1836.01	-0.0416451
1837.5	0.00428963
1839	-0.257982
1840.49	0.173496
1841.99	0.386097
1843.49	0.457188
1844.98	-0.0703163
1846.48	-0.221926
1847.97	-0.0786839
1849.47	-0.138292
1850.96	0.231504
1852.45	-0.0601063
1853.95	-0.0215702
1855.44	0.433771
1856.93	0.597418
1858.42	0.427448
1859.92	-0.212292
1861.41	0.178596
1862.9	0.275932
1864.39	0.713799
1865.88	-0.143078
1867.38	0.294086
1868.87	-0.313944
1870.36	0.288301
1871.85	0.16518
1873.34	-0.15222
1874.83	0.187006
1876.32	-0.0353012
1877.81	0.0291767
1879.29	-0.101686
1880.78	0.431988
1882.27	0.747808
1882.53	0.795223
1884.03	-0.272602
1885.52	0.279406
1887.01	0.602755
1888.51	0.15881
1890	-0.0232716
1891.5	0.179392
1892.99	0.159126
1894.48	0.559799
1895.97	0.129055
1897.47	0.465092
1898.96	0.105244
1900.45	0.282578
1901.94	-0.308733
1903.43	0.279291
1904.92	0.359898
1906.41	0.299847
1907.9	-0.0380249
1909.39	0.250515
1910.88	-0.587103
1912.37	-0.468399
1913.86	0.501202
1915.35	0.0313854
1916.84	-0.196173
1918.33	0.511261
1919.81	0.177795
1921.3	0.104189
1922.79	0.221939
1924.28	0.427979
1925.76	0.151577
1927.25	0.725639
1928.73	0.0198765
1930.22	0.889694
1931.71	0.476515
1933.19	-0.0607624
1934.68	-0.307028
1936.16	0.0145817
1937.65	0.247028
1939.13	0.0808601
1940.62	0.105453
1942.1	-0.00631714
1943.58	0.246374
1945.07	0.60409
1946.55	0.117651
1948.03	0.285936
1949.51	0.0908585
1951	0.031723
1952.48	0.12569
1953.96	0.201208
1955.44	0.0187359
1956.92	-0.179888
1958.4	0.0521622
1959.88	0.0281334
1961.36	-0.149096
1962.84	-0.445747
1964.32	-0.194252
1965.8	0.0560436
1967.28	0.407415
1968.76	0.261017
1970.24	0.763153
1971.72	-0.563543
1973.2	0.484028
1974.67	0.558117
1976.15	0.359777
1977.63	0.366463
1979.1	0.0669899
1980.58	0.244135
1982.06	-0.12324
1983.54	0.341637
1985.01	0.0583572
1986.49	0.165089
1987.96	-0.185928
1989.44	-0.180141
1990.91	0.250034
1992.39	0.326412
1993.86	0.320238
1995.33	0.163651
1996.81	0.075634
1998.28	0.646259
1999.75	0.405277
2001.23	0.669506
2002.7	-0.0120258
2004.17	-0.0188274
2005.65	0.160408
2007.12	0.206261
2008.59	0.557085
2010.06	0.892694
2011.53	-0.083683
2013	0.202644
2014.47	-0.134596
2015.94	-0.0357742
2017.41	-0.0397053
2018.88	-0.0116348
2020.35	0.704229
2021.82	0.445065
2023.29	0.253986
2024.76	0.266022
2026.23	0.0120621
2027.69	0.431955
2029.16	0.36845
2030.63	0.559282
2032.1	0.131296
2033.56	0.0733128
2035.03	0.149635
2036.5	0.17485
2037.96	-0.00259972
2039.43	-0.231316
2040.89	0.615623
2042.36	1.02658
2043.83	0.36286
2045.29	0.0202045
2046.75	-0.119247
2048.22	-0.190847
2049.68	0.259333
2051.15	0.0840607
2052.61	0.984966
2054.07	0.128363
2055.54	-0.175131
2057	-0.0597191
2058.46	0.306816
2059.92	0.302197
2061.39	0.0963688
2062.85	0.178469
2064.31	0.144741
2065.77	0.533745
2067.23	0.133484
2068.69	0.643227
2070.15	0.598246
2071.61	-0.17054
2073.07	0.339867
2074.53	0.14263
2075.99	0.534111
2077.45	-0.338123
2078.91	0.186604
2080.37	0.0368462
2081.82	0.104912
2083.28	0.036993
2084.74	-0.0828133
2086.2	0.334318
2087.65	0.396801
2089.11	0.223131
2090.57	0.200413
2092.02	0.177578
2093.48	0.272055
2094.94	-0.371946
2096.39	-0.01054
2097.85	-0.203575
2099.3	-0.330582
2100.76	-0.0399246
2102.21	0.451246
2103.66	0.25873
2105.12	-0.198032
2106.57	0.0489922
2108.03	0.16449
2109.48	0.530712
2110.93	0.612301
2112.38	0.307964
2113.84	0.500193
2115.29	-0.09305
2116.74	-0.421017
2118.19	0.0162563
2119.64	0.389042
2121.09	-0.329758
2122.54	0.199545
2123.99	0.184221
2125.45	0.253075
2126.89	0.172199
2128.34	0.0894375
2129.79	0.517765
2131.24	0.0985432
2132.69	0.704508
2134.14	0.432955
2135.59	0.312057
2137.04	0.177578
2138.48	0.294594
2139.93	-0.0144672
2141.38	0.588669
2142.83	-0.211136
2144.27	0.296589
2145.72	-0.0390587
2147.17	-0.209961
2148.61	0.330042
2150.06	-0.241243
2151.5	0.0138741
2152.95	0.731142
2154.39	0.204185
2155.84	1.08462
2157.28	0.225718
2158.73	0.163368
2160.17	-0.178133
2161.61	0.858864
2163.06	-0.271673
2164.5	-0.23941
2165.94	0.558163
2167.38	0.26017
2168.83	0.292332
2170.27	0.00520897
2171.71	-0.119619
2173.15	0.184528
2174.59	-0.212505
2176.03	0.620169
2177.47	-0.026886
2178.91	0.458172
2180.36	-0.052496
2181.8	1.28401
2183.23	0.310476
2184.67	0.0689945
2186.11	-0.322155
2187.55	0.168468
2188.99	0.592808
2190.43	0.234938
2191.87	-0.0236568
2193.3	0.0326633
2194.74	0.186464
2196.18	0.153748
2197.62	0.0508213
2199.05	-0.221445
2200.49	0.451818
2201.93	-0.420198
2203.36	0.054081
2204.8	0.413746
2206.23	0.0126305
2207.67	-0.834435
2209.1	0.355703
2210.54	0.186073
2211.97	0.461359
2213.41	0.0240993
2214.84	0.28096
2216.27	0.63765
2217.71	0.171253
2219.14	-0.0120144
2220.57	-0.0286751
2222.01	0.696568
2223.44	0.299664
2224.87	0.34507
2226.3	-0.386223
2227.73	-0.428915
2229.16	0.412952
2230.6	-0.175692
2232.03	-0.0424156
2233.46	0.647612
2234.89	-0.313833
2236.32	-0.0623264
2237.75	-0.297972
2239.18	0.579723
2240.61	0.302509
2242.03	0.371395
2243.46	0.556856
2244.89	0.433121
2246.32	0.145002
2247.75	-0.146074
2249.17	0.471863
2250.6	0.4006
2252.03	-0.145981
2253.46	0.168695
2254.88	0.645832
2256.31	0.0535622
2257.73	-0.12781
2259.16	0.426378
2260.59	-0.100882
2262.01	0.431273
2263.44	0.106266
2264.86	0.106472
2266.29	-0.1054
2267.71	0.234131
2269.14	0.246698
2270.56	0.0786552
2271.98	0.495747
2273.4	0.407808
2274.83	0.93903
2276.25	0.069622
2277.67	0.99292
2279.09	-0.12097
2280.52	0.0689964
2281.94	0.275122
2283.36	-0.465076
2284.78	-0.16115
2286.2	0.257605
2287.62	-0.139082
2289.04	0.314169
2290.46	0.0659065
2291.88	0.324743
2293.3	0.338726
2294.72	0.189064
2296.14	-0.288258
2297.56	0.314699
2298.98	0.394028
2300.4	0.408249
2301.82	0.127863
2303.23	0.307121
2304.65	0.0272579
2306.07	0.469585
2307.49	0.205135
2308.9	0.169525
2310.32	0.461645
2311.73	0.0787582
2313.15	-0.205696
2314.57	-0.555422
2315.98	0.10042
2317.4	0.148787
2318.81	-0.247021
2320.23	0.131491
2321.64	0.0792332
2323.06	1.06309
2324.47	0.590115
2325.88	0.508823
2327.3	0.30888
2328.71	0.799856
2330.12	0.582399
2331.54	-0.110527
2332.95	0.268984
2334.36	-0.123402
2335.77	-0.0874233
2337.18	0.687757
2338.6	0.523432
2340.01	0.126949
2341.42	-0.369444
2342.83	0.233366
2344.24	0.294119
2345.65	0.552002
2347.06	0.646338
2348.47	-0.0287209
2349.88	-0.163837
2351.29	-0.2185
2352.7	-0.0626183
2354.1	0.482794
2355.51	-0.441208
2356.92	-0.338112
2358.33	-0.511787
2359.74	0.16
2361.14	-0.0458717
2362.55	0.0729237
2363.96	0.0293007
2365.36	0.454851
2366.77	0.621283
2368.18	0.158913
2369.58	0.118809
2370.99	0.919533
2372.39	0.0947742
2373.8	-0.244114
2375.2	-0.501507
2376.61	0.302511
2378.01	0.219215
2379.42	-0.156166
2380.82	-0.229073
2382.22	-0.561056
2383.63	0.403318
2385.03	0.629072
2386.43	0.31189
2387.84	-0.00282097
2389.24	0.195583
2390.64	-0.0977707
2392.04	0.136908
2393.44	0.245941
2394.84	0.0543098
2396.25	0.166252
2397.65	0.422377
2399.05	0.536489
2400.45	-0.0315723
2401.85	0.22711
2403.25	0.0887623
2404.65	0.362587
2406.05	0.317127
2407.45	0.0636272
2408.84	0.12603
2410.24	0.0292263
2411.64	-0.114584
2413.04	0.677628
2414.44	0.126081
2415.83	0.0208111
2417.23	0.044735
2418.63	-0.0087738
2420.02	0.191792
2421.42	0.170435
2422.82	0.702894
2424.21	-0.206917
2425.61	0.38858
2427	0.557337
2428.4	0.727852
2429.8	0.154963
2431.19	0.661867
2432.58	0.0106716
2433.98	-0.0862255
2435.37	0.513668
2436.77	-0.0489388
2438.16	0.354689
2439.55	-0.0861835
2440.95	0.82123
2442.34	0.71102
2443.73	0.251226
2445.12	0.632113
2446.51	0.298916
2447.91	0.853199
2449.3	-0.256254
2450.69	-0.176813
2452.08	-0.191404
2453.47	0.444218
2454.86	0.321836
2456.25	-0.178818
2457.64	0.554987
2459.03	0.402655
2460.42	-0.0195961
2461.81	0.805815
2463.2	0.127674
2464.59	0.128269
2465.98	0.349375
2467.36	0.0491905
2468.75	0.459185
2470.14	-0.077837
2471.53	0.346329
2472.92	0.13858
2474.3	-0.275011
2475.69	0.380426
2477.08	0.688332
2478.46	0.430275
2479.85	0.141569
2481.23	0.0888348
2482.62	-0.574974
2484	0.170311
2485.39	0.333931
2486.77	-0.411077
2488.16	-0.438635
2489.54	-0.0934715
2490.93	0.281645
2492.31	0.1283
2493.69	0.0239296
2495.08	-0.139738
2496.46	0.706717
2497.84	0.42289
2499.23	0.35667
2500.61	-0.0349197
2501.99	-0.365561
2503.37	0.41428
2504.75	0.0340157
2506.13	0.53163
2507.52	-0.295925
2508.9	0.0777245
2510.28	-0.0554104
2511.66	0.549347
2513.04	0.296097
2514.42	0.366571
2515.8	-0.0358582
2517.18	0.144953
2518.55	0.265436
2519.93	0.172194
2521.31	-0.135279
2522.69	-0.367304
2524.07	0.314571
2525.45	0.856888
2526.82	-0.399054
2528.2	0.0214825
2529.58	0.59553
2530.95	0.199306
2532.33	0.019289
2533.71	0.297688
2535.08	0.0304852
2536.46	0.705118
2537.84	0.816313
2539.21	0.454777
2540.59	-0.151094
2541.96	0.441767
2543.34	-0.118351
2544.71	0.21839
2546.08	0.572521
2547.46	0.489124
2548.83	0.513554
2550.2	-0.175091
2551.58	0.273388
2552.95	-0.251099
2554.32	0.224079
2555.7	0.21192
2557.07	0.42622
2558.44	0.397535
2559.81	0.702875
2561.18	0.145201
2562.55	0.134466
2563.93	-0.117632
2565.3	0.449381
2566.67	-0.0439186
2568.04	0.250971
2569.41	-0.196736
2570.78	0.0830212
2572.15	0.302256
2573.51	-0.114998
2574.88	-0.228942
2576.25	0.0968151
2577.62	-0.00206375
2578.99	0.45965
2580.36	0.283867
2581.73	0.167952
2583.09	0.460705
2584.46	0.161711
2585.83	0.423529
2587.19	0.38238
2588.56	0.0233345
2589.93	0.270712
2591.29	0.108673
2592.66	0.460949
2594.02	0.129879
2595.39	0.266514
2596.75	0.582712
2598.12	0.458355
2599.48	-0.0143223
2600.85	0.390133
2602.21	-0.503692
2603.58	0.159372
2604.94	-0.0522594
2606.3	-0.278464
2607.67	0.429768
2609.03	0.0958576
2610.39	0.618573
2611.76	0.0694399
2613.12	0.541533
2614.48	0.515535
2615.84	0.29401
2617.2	0.328206
2618.56	0.558177
2619.92	0.609669
2621.28	0.154112
2622.65	0.41741
2624.01	0.143237
2625.37	1.03326
2626.72	0.564582
2628.08	0.00652599
2629.44	0.29744
2630.8	0.260186
2632.16	0.0741253
2633.52	0.111081
2634.88	0.236966
2636.24	-0.260269
2637.59	0.636156
2638.95	0.524425
2640.31	-0.001091
2641.67	0.15472
2643.02	-0.191459
2644.38	0.836086
2645.74	0.0475054
2647.09	-0.401638
2648.45	0.28282
2649.8	-0.0949888
2651.16	0.202909
2652.51	-0.32279
2653.87	0.0185671
2655.22	0.375305
2656.58	0.572406
2657.93	-0.106751
2659.29	-0.30072
2660.64	0.222697
2661.99	0.0584583
2663.35	0.652786
2664.7	0.383648
2666.05	0.230132
2667.41	0.57145
2668.76	0.0529089
2670.11	0.597846
2671.46	0.299685
2672.81	0.351842
2674.16	0.100152
2675.51	0.38684
2676.87	-0.181663
2678.22	0.411744
2679.57	-0.00861549
2680.92	-0.00645351
2682.27	0.0558958
2683.62	0.337962
2684.97	-0.146823
2686.31	0.689345
2687.66	-0.0563507
2689.01	0.298736
2690.36	0.462005
2691.71	0.520185
2693.06	0.459372
2694.4	0.10677
2695.75	0.464329
2697.1	0.46055
2698.45	0.459203
2699.79	0.547903
2701.14	0.553019
2702.49	0.47406
2703.83	0.223139
2705.18	0.378898
2706.52	0.447869
2707.87	0.211657
2709.21	0.787446
2710.56	0.898229
2711.9	-0.0809546
2713.25	0.40664
2714.59	0.196684
2715.94	0.175507
2717.28	0.183136
2718.62	0.277574
2719.97	0.167658
2721.31	0.55168
2722.65	0.920312
2723.99	1.09887
2725.34	0.796239
2726.68	0.522003
2728.02	0.145319
2729.36	0.510424
2730.7	0.438653
2732.04	0.425029
2733.39	0.644318
2734.73	0.223885
2736.07	0.763828
2737.41	0.620402
2738.75	0.186085
2740.08	0.245789
2741.43	0.784419
2742.76	0.0278358
2744.1	0.0260553
2745.44	0.197466
2746.78	0.396989
2748.12	0.0444107
2749.46	0.374138
2750.79	0.87799
2752.13	0.207631
2753.47	0.248322
2754.81	-0.391637
2756.14	0.576732
2757.48	0.647106
2758.81	-0.208533
2760.15	0.369743
2761.49	-0.266837
2762.82	-0.294689
2764.16	-0.452201
2765.49	0.345195
2766.83	-0.435281
2768.16	0.8078
2769.5	1.03559
2770.83	0.407729
2772.16	0.60122
2773.5	0.301862
2774.83	0.46331
2776.17	-0.124599
2777.5	0.282183
2778.83	0.114127
2780.16	0.0622311
2781.5	0.484891
2782.83	-0.327024
2784.16	0.210134
2785.49	0.273581
2786.82	0.523489
2788.15	0.05832
2789.49	-0.0901508
2790.82	0.0920925
2792.15	0.518723
2793.48	0.0168371
2794.81	0.00117111
2796.14	-0.486609
2797.46	-0.318027
2798.79	0.206382
2800.12	0.372766
2801.45	-0.246078
2802.78	-0.094739
2804.11	-0.115041
2805.44	0.0063076
2806.76	-0.0159311
2808.09	0.117156
2809.42	0.135579
2810.75	0.111427
2812.07	-0.408257
2813.4	-0.0742846
2814.73	0.191121
2816.05	0.0905027
2817.38	-0.149767
2818.7	0.0929441
2820.03	-0.117881
2821.36	0.478355
2822.68	0.152122
2824.01	0.391577
2825.33	0.247845
2826.65	0.755672
2827.98	-0.0241413
2829.3	0.44309
2830.63	0.0192947
2831.95	0.402789
2833.27	0.262422
2834.6	0.815036
2835.92	1.04112
2837.24	0.388885
2838.56	0.995111
2839.88	0.893558
2841.21	1.42847
2842.53	1.7095
2843.85	1.62421
2845.17	1.86536
2846.49	2.07941
2847.81	2.2235
2849.13	2.29698
2850.45	2.15791
2851.77	2.27234
2853.09	2.5554
2854.41	2.38549
2855.73	2.10227
2857.05	2.45481
2858.37	3.0051
2859.69	3.01855
2861	3.20113
2862.32	3.17128
2863.64	4.02994
2864.96	3.71653
2866.28	4.44712
2867.59	4.28937
2868.91	4.37225
2870.23	4.76607
2871.54	4.73722
2872.86	4.48238
2874.17	4.81802
2875.49	5.91204
2876.81	5.31357
2878.12	5.30511
2879.44	5.04297
2880.75	4.75364
2882.07	5.56199
2883.38	4.53194
2884.69	4.86628
2886.01	5.44025
2887.32	4.70888
2888.63	4.44008
2889.95	5.02568
2891.26	4.93627
2892.57	4.57951
2893.89	5.28747
2895.2	5.35139
2896.51	4.81492
2897.82	5.42819
2899.13	5.98718
2900.44	6.18382
2901.76	5.65395
2903.07	6.01977
2904.38	5.84034
2905.69	6.01114
2907	5.56755
2908.31	6.76211
2909.62	6.58746
2910.93	6.69372
2912.24	6.52007
2913.55	7.14297
2914.85	6.62935
2916.16	6.86861
2917.47	7.65075
2918.78	8.10881
2920.09	8.24461
2921.4	8.25579
2922.7	8.2414
2924.01	8.20171
2925.32	9.12868
2926.62	8.98057
2927.93	7.74212
2929.24	8.57198
2930.54	8.21254
2931.85	8.99857
2933.15	8.56796
2934.46	8.90612
2935.76	8.28016
2937.07	8.66081
2938.37	8.48283
2939.68	7.59277
2940.98	7.89144
2942.29	7.88429
2943.59	7.80949
2944.89	7.45757
2946.2	6.91181
2947.5	5.55524
2948.8	6.00281
2950.11	5.11867
2951.41	5.84157
2952.71	5.87518
2954.01	5.69638
2955.32	5.629
2956.62	5.10132
2957.92	5.38902
2959.22	5.51355
2960.52	5.81117
2961.82	4.92126
2963.12	5.49049
2964.42	5.14704
2965.72	5.1519
2967.02	4.46523
2968.32	4.84428
2969.62	4.67383
2970.92	4.33434
2972.22	4.83937
2973.51	4.14915
2974.81	3.69788
2976.11	3.44247
2977.41	3.71995
2978.71	2.98077
2980	3.49175
2981.3	2.81819
2982.6	3.21321
2983.9	3.72099
2985.19	3.34498
2986.49	2.74706
2987.78	2.53124
2989.08	2.62636
2990.38	2.13176
2991.67	2.43744
2992.97	2.15107
2994.26	2.38248
2995.56	2.30279
2996.85	1.57608
2998.14	1.70571
2999.44	1.73751
3000.73	1.48985
3002.03	1.3556
3003.32	1.2082
3004.61	0.75296
3005.91	0.423644
3007.2	1.15745
3008.49	0.727921
3009.78	1.61171
3011.07	0.508951
3012.37	0.691603
3013.66	0.511312
3014.95	0.29027
3016.24	-0.0127659
3017.53	0.0200615
3018.82	-0.12709
3020.11	-0.00963306
3021.4	-0.198769
3022.69	0.138768
3023.98	0.418643
3025.27	0.18379
3026.56	-0.0232182
3027.85	-0.0490532
3029.14	0.0930643
3030.43	0.251482
3031.71	-0.0709562
3033	-0.722533
3034.29	0.00699806
3035.58	-0.0511446
3036.87	0.550369
3038.15	0.183633
3039.44	-0.419579
3040.73	0.350451
3042.01	0.0051918
3043.3	0.222825
3044.59	0.509917
3045.87	0.170431
3047.16	-0.478645
3048.44	-0.453776
3049.73	0.270793
3051.01	0.438435
3052.3	-0.0201035
3053.58	0.312925
3054.87	0.126462
3056.15	0.456601
3057.43	0.198506
3058.72	0.36175
3060	0.538039
3061.29	0.184176
3062.57	0.00930882
3063.85	0.353714
3065.13	0.224954
3066.42	0.275493
3067.7	0.667834
3068.98	0.245138
3070.26	0.420397
3071.54	-0.140151
3072.82	-0.0226059
3074.11	-0.287733
3075.39	-0.228001
3076.67	-0.168756
3077.95	0.108418
3079.23	0.0617018
3080.51	0.0312748
3081.79	0.47846
3083.07	0.263238
3084.35	-0.303517
3085.63	0.6362
3086.9	-0.0532608
3088.18	0.274118
3089.46	0.233945
3090.74	0.0167217
3092.02	0.2743
3093.29	0.0167551
3094.57	-0.00949764
3095.85	0.697034
3097.13	0.224229
3098.4	0.402204
3099.68	0.458054
3100.95	0.351314
3102.23	0.0688429
3103.51	0.558844
3104.78	0.264602
3106.06	1.16283
3107.33	0.831217
3108.61	0.352734
3109.88	0.349879
3111.16	0.57905
3112.43	0.240957
3113.71	0.608123
3114.98	0.636789
3116.25	0.583448
3117.53	0.148977
3118.8	0.78423
3120.07	0.671789
3121.35	0.924
3122.62	0.782158
3123.89	0.667363
3125.16	0.918738
3126.44	0.358784
3127.71	0.86924
3128.98	1.29929
3130.25	0.742883
3131.52	0.646707
3132.79	1.28024
3134.06	1.34555
3135.33	1.45055
3136.6	1.68948
3137.87	1.50944
3139.14	1.34268
3140.41	1.16265
3141.68	1.62869
3142.95	1.57069
3144.22	1.17824
3145.49	1.24375
3146.76	1.60553
3148.02	1.218
3149.29	1.39446
