200.398	0.0544109
202.213	0.0856361
204.027	0.122648
205.843	0.258696
207.657	-0.431473
209.47	-0.344278
211.283	0.0809383
213.097	0.673256
214.909	0.60778
216.721	0.15346
218.533	0.547522
220.344	0.264399
222.157	-0.161854
223.967	0.0908527
225.777	-0.259832
227.587	0.718531
229.396	0.7778
231.205	0.16017
233.016	0.965832
234.824	0.951427
236.632	1.27675
238.439	0.955017
240.247	0.854843
242.053	1.48219
243.86	2.35387
245.666	2.09202
247.474	2.64791
249.279	2.64333
251.085	3.5982
252.889	3.84686
254.694	3.31954
256.498	3.63561
258.301	3.88067
260.105	3.62307
261.908	3.53822
263.71	2.75826
265.513	3.32965
267.315	2.98623
269.116	2.52151
270.918	2.3443
272.718	3.32207
274.519	1.69308
276.319	1.82096
278.119	1.70419
279.918	3.00463
281.718	1.55543
283.516	1.71602
285.315	2.32994
287.113	2.65297
288.911	1.32077
290.708	0.878805
292.505	0.894722
294.302	1.22442
296.098	0.528435
297.894	0.313007
299.69	0.0747375
301.485	0.76778
303.278	0.694721
305.073	0.762615
306.867	0.97171
308.661	0.679419
310.454	0.269196
312.247	1.12368
314.04	0.40909
315.833	0.912352
317.623	0.656874
319.415	0.952034
321.206	0.534569
322.997	0.69042
324.788	1.1813
326.579	0.407497
328.367	-0.367779
330.156	0.504324
331.946	0.466326
333.735	0.975441
335.523	0.715044
337.31	0.928883
339.098	0.588442
340.885	1.27354
342.673	0.307018
344.458	0.129583
346.244	0.215818
348.03	1.01951
349.816	-0.0383625
351.6	-0.117203
353.385	0.542715
355.17	-0.159401
356.953	0.233427
358.737	0.0514526
360.521	-0.251539
362.304	0.0390663
364.085	-0.837339
365.868	0.495819
367.65	-0.263639
369.431	0.731424
371.212	0.419975
372.994	0.746641
374.773	0.457315
376.554	0.404692
378.332	0.1644
380.112	0.75065
381.892	0.23164
383.669	0.280212
385.448	0.189957
387.225	0.383924
389.003	0.509274
390.781	0.824221
392.557	1.46935
394.334	1.9277
396.109	0.954206
397.885	2.1885
399.66	2.55352
401.436	2.33047
403.211	2.83425
404.984	2.89018
406.759	2.96799
408.532	2.97404
410.306	2.95586
412.078	2.9377
413.851	3.22542
415.623	2.52906
417.395	3.89921
419.166	3.11199
420.938	3.3109
422.708	2.80515
424.477	2.86129
426.248	3.87805
428.017	2.73321
429.788	2.4325
431.556	1.82662
433.326	1.43261
435.093	1.18005
436.86	0.645798
438.629	1.0725
440.395	1.09746
442.163	0.790174
443.929	-0.060133
445.694	0.375645
447.461	-0.291708
449.226	-0.117001
450.99	0.0574608
452.756	0.769035
454.52	0.66346
456.285	1.00079
458.048	1.1044
459.811	0.439945
461.573	1.01011
463.337	0.606226
465.099	0.300013
466.86	0.347624
468.623	0.16781
470.384	0.805296
472.144	1.30514
473.906	-0.198055
475.666	1.06581
477.425	0.53245
479.184	0.391443
480.944	0.807476
482.703	0.571468
484.461	0.873253
486.218	0.503128
487.975	0.859272
489.734	0.799934
491.491	0.812529
493.247	0.00867844
495.003	0.162563
496.759	0.620872
498.516	1.00921
500.271	0.506235
502.025	0.23588
503.779	0.715057
505.533	1.45128
507.287	1.10396
509.042	1.38849
510.795	0.352379
512.547	0.58367
514.299	1.16504
516.051	1.46126
517.803	1.44918
519.554	2.09329
521.305	1.6309
523.055	1.47327
524.805	0.986708
526.555	1.55624
528.307	1.65622
530.056	1.28721
531.805	1.85466
533.553	2.34962
535.301	1.62519
537.049	1.71705
538.797	0.21829
540.544	1.12248
542.291	1.27755
544.037	1.03591
545.783	0.980618
547.529	1.34351
549.275	0.523699
551.02	0.33135
552.765	1.01872
554.509	1.1966
556.253	0.520517
557.997	0.399935
559.738	0.0961933
561.482	0.71476
563.224	0.344315
564.967	0.412231
566.709	1.10146
568.451	-0.228916
570.192	-0.0185528
571.933	-0.195839
573.674	0.157537
575.415	0.445396
577.153	0.415308
578.893	0.364792
580.632	0.361673
582.371	0.519661
584.11	0.125071
585.849	-0.501717
587.587	0.0420208
589.323	-0.0374985
591.06	0.0192146
592.797	0.373987
594.534	1.05051
596.271	-0.113478
598.005	0.263958
599.741	-0.670633
601.476	0.141687
603.211	0.353409
604.944	0.0334702
606.679	-0.0359573
608.413	-0.543242
610.147	0.602186
611.878	0.210335
613.611	-0.22554
615.344	0.463242
617.077	0.0521698
618.807	-0.313683
620.539	0.600647
622.27	0.32196
623.999	0.247694
625.73	0.607418
627.461	0.55768
629.189	-0.150064
630.919	0.401915
632.648	0.843735
634.376	0.123886
636.105	1.16097
637.833	0.916592
639.559	-0.177345
641.287	0.913624
643.013	0.630831
644.74	0.80127
646.467	0.607868
648.192	0.236481
649.918	0.734818
651.642	0.967791
653.368	0.844894
655.091	0.66029
656.816	-0.112036
658.538	1.14462
660.263	1.05701
661.987	1.12607
663.708	0.847918
665.432	0.770432
667.153	1.16932
668.875	0.880566
670.596	0.158266
672.318	1.04114
674.037	0.326801
675.759	1.10538
677.478	0.0525627
679.196	0.582731
680.917	0.767303
682.635	-0.753716
684.355	-0.0477638
686.072	-0.588432
687.791	0.73325
689.508	-0.0199127
691.224	0.100763
692.942	0.496637
694.658	-0.583015
696.376	-0.39765
698.091	-0.421747
699.805	0.0810966
701.522	0.213217
703.236	0.320385
704.95	-0.0563087
706.665	0.346796
708.379	1.23007
710.093	0.0947113
711.806	0.494463
713.518	0.0465679
715.23	-0.103851
716.943	-0.391171
718.655	-0.0846882
720.366	0.700186
722.078	0.641375
723.788	0.0594883
725.498	0.16037
727.208	-0.398172
728.919	0.200787
730.628	0.480396
732.337	-0.0339928
734.045	0.402506
735.755	0.499088
737.463	0.821987
739.17	0.581543
740.877	0.861805
742.584	0.896166
744.292	0.010006
745.998	0.725168
747.704	0.137665
749.409	0.81255
751.114	0.837517
752.819	0.775028
754.526	0.35519
756.23	0.928167
757.934	0.82914
759.637	0.597656
761.34	0.322973
763.043	0.838652
764.746	0.677307
766.448	0.55888
768.152	0.979448
769.853	0.491747
771.554	0.927183
773.255	0.432747
774.956	0.68358
776.656	1.52318
778.356	1.16688
780.056	1.62761
781.755	0.959677
783.454	1.01591
785.153	0.368437
786.851	0.350412
788.549	0.281387
790.247	0.0932693
791.944	1.30166
793.641	1.21766
795.338	0.388723
797.034	0.599669
798.73	1.39886
800.426	0.242273
802.121	0.844408
803.817	1.87468
805.511	1.57757
807.206	0.60507
808.9	0.978813
810.592	1.61916
812.286	1.47184
813.979	1.14434
815.672	1.46609
817.364	1.20562
819.057	0.789255
820.748	1.60208
822.44	0.473061
824.129	0.77424
825.82	1.14443
827.511	1.22871
829.201	1.2291
830.891	0.544931
832.581	1.15802
834.269	1.10709
835.958	1.48194
837.646	1.58917
839.335	1.18077
841.023	1.52845
842.709	0.823626
844.396	1.07836
846.084	1.78143
847.77	0.610147
849.455	0.650482
851.141	0.762815
852.827	1.21533
854.513	1.02003
856.196	1.04873
857.881	0.78315
859.566	1.52652
861.248	1.77205
862.932	0.550259
864.616	0.474264
866.297	0.824774
867.98	-0.0434341
869.663	0.259895
871.343	0.0664959
873.026	0.301292
874.707	0.445755
876.387	0.500034
878.068	1.07346
879.747	0.0442181
881.428	0.639465
883.108	0.307825
884.786	-0.0935459
886.465	0.427902
888.143	0.562544
889.822	0.175272
891.498	-0.169327
893.177	0.722597
894.855	0.148182
896.53	1.21381
898.208	0.97274
899.883	0.371433
901.56	0.800501
903.234	0.153316
904.91	0.58003
906.584	0.537397
908.26	-0.262016
909.933	-0.367533
911.608	0.41869
913.28	0.0268269
914.955	0.0582638
916.627	-0.35387
918.298	1.45091
919.972	0.57328
921.643	0.362022
923.315	0.418499
924.986	0.433918
926.656	1.13741
928.328	0.629786
929.997	1.02975
931.668	-0.223776
933.337	0.134071
935.006	0.205441
936.676	1.11567
938.344	0.616066
940.012	0.471748
941.681	0.484236
943.348	0.0348873
945.014	0.688686
946.683	0.590019
948.349	0.818853
950.015	1.06584
951.682	0.405542
953.347	1.22339
955.012	0.323936
956.676	0.554655
958.343	1.43167
960.006	0.196495
961.67	1.08339
963.333	0.158945
964.998	0.800406
966.661	0.353008
968.323	0.298077
969.985	-1.15488
971.649	0.531721
973.31	-0.214102
974.971	1.07749
976.632	1.31134
978.293	0.0884609
979.953	-0.137884
981.615	-0.365036
983.274	1.26475
984.933	1.65103
986.592	0.815504
988.251	0.839567
989.909	0.750391
991.567	0.726213
993.225	-0.00512123
994.884	0.0371399
996.541	2.08726
998.198	1.70957
999.855	1.92682
1001.51	2.40721
1003.17	2.04975
1004.82	1.0323
1006.48	1.24666
1008.13	0.275122
1009.79	0.578379
1011.44	0.377735
1013.1	0.309792
1014.75	0.417978
1016.4	0.0452423
1018.06	0.330362
1019.71	1.0324
1021.36	0.839685
1023.01	0.408993
1024.66	1.13879
1026.32	1.32339
1027.97	1.59546
1029.62	1.51661
1031.27	0.430569
1032.92	2.09266
1034.57	1.58942
1036.22	1.12741
1037.87	0.0760517
1039.52	1.18111
1041.16	1.69853
1042.81	1.52244
1044.46	2.08905
1046.11	2.37719
1047.76	3.08214
1049.4	4.8116
1051.05	4.19867
1052.7	4.56518
1054.34	3.82461
1055.99	4.12699
1057.63	4.2984
1059.28	4.29478
1060.92	2.33261
1062.57	2.17328
1064.21	0.946491
1065.85	1.34824
1067.5	1.79089
1069.14	-0.137037
1070.78	0.866915
1072.43	0.371914
1074.07	0.616009
1075.71	0.254725
1077.35	0.265083
1078.99	0.473257
1080.63	0.704762
1082.27	0.546011
1083.91	0.927572
1085.55	0.503538
1087.19	1.44054
1088.83	0.834585
1090.47	0.809828
1092.11	1.12836
1093.75	1.07802
1095.39	-0.00756454
1097.03	0.311686
1098.66	0.784073
1100.3	0.463017
1101.94	0.447643
1103.57	0.694227
1105.21	0.233799
1106.84	0.247952
1108.48	0.541107
1110.11	0.0579147
1111.75	-0.277824
1113.38	-0.101044
1115.02	0.0513878
1116.65	0.288137
1118.29	-0.0326862
1119.92	0.291042
1121.55	0.680752
1123.19	0.687119
1124.82	-0.0317745
1126.45	0.107208
1128.08	0.354698
1129.71	0.667788
1131.34	0.61862
1132.97	0.484652
1134.6	0.00844574
1136.23	0.38599
1137.86	0.483391
1139.49	-0.340294
1141.12	-0.759785
1142.75	0.100359
1144.38	-0.511757
1146.01	-0.269176
1147.64	0.0391655
1149.26	0.839209
1150.89	0.724043
1152.52	0.161818
1154.15	0.00365257
1155.77	0.483223
1157.4	0.0473251
1159.02	0.803516
1160.65	-0.416458
1162.27	0.386229
1163.9	-0.701273
1165.52	0.296017
1167.15	0.718792
1168.77	-0.200092
1170.39	0.323116
1172.02	-0.36916
1173.64	0.952543
1175.26	-0.0641079
1176.89	0.0643387
1178.51	0.362438
1180.13	0.132381
1181.75	-0.0319767
1183.37	-0.279245
1184.99	0.720579
1186.61	-0.0142956
1188.23	0.704296
1189.85	0.658449
1191.47	-0.149454
1193.09	0.534143
1194.71	-0.0877075
1196.33	0.0469475
1197.94	0.0993958
1199.56	0.720089
1201.18	0.968531
1202.8	0.575239
1204.41	0.981207
1206.03	0.682318
1207.65	0.574331
1209.26	0.613111
1210.88	1.63045
1212.49	0.662798
1214.11	1.6499
1215.72	0.756596
1217.34	1.27534
1218.95	1.45816
1220.57	1.05899
1222.18	1.63682
1223.79	0.745211
1225.41	1.07998
1227.02	2.14196
1228.63	2.02714
1230.24	2.61832
1231.85	2.0751
1233.47	1.96893
1235.08	2.32032
1236.69	1.66176
1238.3	2.08038
1239.91	3.16249
1241.52	2.52892
1243.13	2.22533
1244.74	2.95448
1246.34	1.9846
1247.95	3.28853
1249.56	2.41796
1251.17	1.15379
1252.78	2.26915
1254.38	2.70337
1255.99	1.63015
1257.6	2.049
1259.2	1.6016
1260.81	1.79766
1262.42	1.97429
1264.02	2.0476
1265.63	1.78854
1267.23	1.94226
1268.84	2.50861
1270.44	2.49217
1272.04	2.5355
1273.65	1.78863
1275.25	2.05543
1276.85	1.40818
1278.46	1.29812
1280.06	2.57407
1281.66	1.42668
1283.26	2.49408
1284.86	1.82473
1286.46	2.62564
1288.07	1.98175
1289.67	2.08415
1291.27	2.91099
1292.87	2.43585
1294.47	2.76487
1296.06	2.9256
1297.66	2.21545
1299.26	2.43064
1300.86	2.4359
1302.46	2.43825
1304.06	2.87055
1305.65	2.78635
1307.25	3.23505
1308.85	2.98457
1310.44	3.04198
1312.04	3.53004
1313.64	3.13947
1315.23	3.20147
1316.83	3.49027
1318.42	2.78028
1320.02	2.76434
1321.61	3.84633
1323.2	4.53607
1324.8	3.85811
1326.39	2.40694
1327.99	3.53289
1329.58	2.75385
1331.17	3.11285
1332.76	3.98149
1334.36	3.8446
1335.95	3.08641
1337.54	3.31873
1339.13	4.07345
1340.72	3.33269
1342.31	3.0308
1343.9	3.56909
1345.49	3.0192
1347.08	2.59106
1348.67	3.42968
1350.26	3.27187
1351.85	2.82044
1353.43	2.59431
1355.02	2.79123
1356.61	3.60846
1358.2	3.1258
1359.78	3.34015
1361.37	2.83322
1362.96	2.4644
1364.54	2.71317
1366.13	2.46407
1367.71	3.1132
1369.3	1.89344
1370.88	2.07081
1372.47	1.83344
1374.05	2.17576
1375.64	1.66408
1377.22	2.40629
1378.8	3.4061
1380.39	2.39382
1381.97	2.7713
1383.55	1.93245
1385.13	2.20503
1386.72	1.52262
1388.3	2.54895
1389.88	1.61078
1391.46	1.35003
1393.04	1.94429
1394.62	2.10287
1396.2	0.952326
1397.78	1.70387
1399.36	2.61115
1400.94	2.2874
1402.52	1.03222
1404.1	1.87539
1405.68	2.26403
1407.25	2.16018
1408.83	2.15723
1410.41	2.41231
1411.98	1.95633
1413.56	1.99284
1415.14	2.30346
1416.71	2.2568
1418.29	2.64285
1419.87	2.95037
1421.44	0.995705
1423.02	2.6876
1424.59	1.72563
1426.16	3.7584
1427.74	3.03708
1429.31	3.49612
1430.89	3.67747
1432.46	4.26919
1434.03	4.68115
1435.6	4.24602
1437.18	4.16549
1438.75	4.69615
1440.32	4.87538
1441.89	4.01545
1443.46	4.2972
1445.03	5.77888
1446.6	5.49223
1448.17	5.54011
1449.74	5.86396
1451.31	4.63578
1452.88	4.88351
1454.45	4.44385
1456.02	4.98775
1457.59	4.29054
1459.16	4.59383
1460.72	4.16473
1462.29	4.10499
1463.86	3.88391
1465.43	3.97479
1466.99	3.04312
1468.56	2.72191
1470.13	3.44318
1471.69	3.51923
1473.26	2.73489
1474.82	2.6195
1476.38	1.93656
1477.95	2.11669
1479.51	1.885
1481.08	2.24114
1482.64	1.65634
1484.2	1.8356
1485.77	2.62131
1487.33	2.38649
1488.89	2.10961
1490.46	1.71131
1492.02	1.69957
1493.58	1.19446
1495.14	2.26663
1496.7	1.57986
1498.26	0.719095
1499.82	0.639135
1501.38	1.5906
1502.94	0.991327
1504.5	1.9453
1506.06	1.60125
1507.62	1.77861
1509.18	1.16117
1510.73	1.4494
1512.29	0.983253
1513.85	0.940847
1515.41	1.39864
1516.96	1.05034
1518.52	1.56754
1520.08	1.37632
1521.63	1.03293
1523.19	1.16747
1524.75	1.33811
1526.3	0.781479
1527.85	1.30959
1529.41	1.41655
1530.96	1.71302
1532.52	1.82017
1534.07	2.00488
1535.62	1.77547
1537.18	1.13313
1538.73	1.4753
1540.28	1.30855
1541.84	1.59454
1543.39	2.18091
1544.94	1.63753
1546.49	1.99632
1548.04	1.19068
1549.59	0.667738
1551.14	2.71161
1552.69	1.46024
1554.25	1.31602
1555.79	2.5199
1557.34	2.06512
1558.89	1.54072
1560.44	1.17024
1561.99	0.579641
1563.54	1.55865
1565.08	2.46462
1566.63	2.32609
1568.18	2.13102
1569.73	2.60701
1571.27	2.48483
1572.82	2.26862
1574.37	2.08942
1575.91	1.40623
1577.46	2.79567
1579	2.05787
1580.55	1.54542
1582.09	2.04305
1583.64	1.72091
1585.18	2.7645
1586.73	3.08096
1588.27	2.25713
1589.81	2.70456
1591.35	2.02822
1592.9	2.54873
1594.44	3.29362
1595.98	2.42776
1597.52	3.45525
1599.06	2.55387
1600.61	3.43544
1602.15	3.54953
1603.69	3.40086
1605.23	3.87047
1606.77	2.81497
1608.31	2.82581
1609.85	3.92136
1611.39	3.03802
1612.93	2.67649
1614.46	2.59379
1616	2.81019
1617.54	2.39003
1619.08	2.64745
1620.61	2.15901
1622.15	2.62896
1623.69	2.16467
1625.23	2.43071
1626.76	2.45169
1628.3	3.44255
1629.83	1.97959
1631.37	2.40336
1632.9	2.58284
1634.44	2.42673
1635.97	2.60846
1637.51	2.92273
1639.04	2.92136
1640.57	3.29289
1642.11	3.19702
1643.64	3.3035
1645.17	2.64404
1646.71	3.93584
1648.24	2.90225
1649.77	3.18935
1651.3	2.77317
1652.83	3.23209
1654.36	3.48937
1655.89	3.95194
1657.42	2.93183
1658.96	3.72582
1660.48	3.70152
1662.01	4.00675
1663.54	3.21807
1665.07	3.53746
1666.6	3.69101
1668.13	3.12762
1669.66	2.29194
1671.19	3.74521
1672.71	2.47404
1674.24	1.81243
1675.77	2.5499
1677.29	2.45696
1678.82	2.25126
1680.35	2.26395
1681.87	2.27488
1683.4	1.93608
1684.92	1.63458
1686.45	1.05913
1687.97	1.6584
1689.5	1.04889
1691.02	1.53915
1692.54	1.0409
1694.07	1.25639
1695.59	2.05632
1697.11	0.972795
1698.64	0.985441
1700.16	0.540855
1701.68	-0.123135
1703.2	0.54298
1704.72	0.16889
1706.25	0.758755
1707.77	0.528877
1709.29	0.971277
1710.81	0.215303
1712.33	0.258862
1713.85	0.646944
1715.37	-0.105925
1716.89	0.155258
1718.41	0.469934
1719.92	0.621418
1721.44	0.321947
1722.96	0.312626
1724.48	0.287512
1725.99	0.787504
1727.51	-0.239985
1729.03	0.139029
1730.55	0.571735
1732.06	1.06663
1733.58	-0.380739
1735.09	-0.366394
1736.61	-0.35
1738.13	0.291292
1739.64	0.146992
1741.15	0.227898
1742.67	-0.208553
1744.18	0.328987
1745.7	0.226883
1747.21	0.275293
1748.72	-0.613644
1750.24	0.419945
1751.75	0.466831
1753.26	-0.603243
1754.77	0.054472
1756.29	0.100405
1757.8	-0.18638
1759.31	0.478388
1760.82	-0.18441
1762.33	-0.31245
1763.84	0.346832
1765.35	0.0793743
1766.86	0.268621
1768.37	0.862007
1769.88	0.0834293
1771.39	0.117912
1772.9	0.107742
1774.4	0.053915
1775.91	0.0833797
1777.42	0.130106
1778.93	0.129295
1780.44	0.166323
1781.94	-0.0782108
1783.45	-0.0884762
1784.96	0.132095
1786.46	-0.0367718
1787.97	0.228537
1789.47	0.0239449
1790.98	-0.114471
1792.48	-0.195908
1793.99	-0.172661
1795.49	-0.249708
1797	0.467409
1798.5	0.118309
1800.01	-0.0874615
1801.51	0.387068
1803.01	-0.651445
1804.51	-0.00511932
1806.02	0.00647354
1807.52	0.188635
1809.02	-0.369865
1810.52	-0.0145683
1812.02	-0.439577
1813.52	0.364731
1815.02	-0.146927
1816.53	0.728695
1818.03	-0.0122833
1819.52	-0.188782
1821.02	0.0103092
1822.52	0.172264
1824.02	-0.0299397
1825.52	0.254152
1827.02	0.171522
1828.52	-0.168552
1830.02	0.0674477
1831.51	-0.114473
1833.01	0.528954
1834.51	-0.101158
1836.01	0.506334
1837.5	0.147148
1839	-0.407312
1840.49	0.340391
1841.99	0.0569267
1843.49	-0.288694
1844.98	-0.0937538
1846.48	0.332306
1847.97	-0.46629
1849.47	-0.134468
1850.96	-0.128721
1852.45	-0.0945988
1853.95	-0.105272
1855.44	0.53919
1856.93	0.147423
1858.42	0.320116
1859.92	0.165203
1861.41	-0.218571
1862.9	0.267254
1864.39	0.169678
1865.88	0.148628
1867.38	0.0798588
1868.87	0.911737
1870.36	0.428095
1871.85	0.396347
1873.34	1.00298
1874.83	0.405771
1876.32	0.314554
1877.81	0.686577
1879.29	0.363886
1880.78	1.03211
1882.27	0.810219
1882.53	0.733648
1884.03	0.451298
1885.52	0.0798435
1887.01	0.0198364
1888.51	0.794071
1890	-0.589325
1891.5	-0.264418
1892.99	0.586271
1894.48	-0.279324
1895.97	-0.236572
1897.47	-0.156719
1898.96	0.114223
1900.45	-0.452597
1901.94	0.454832
1903.43	0.417906
1904.92	-0.40526
1906.41	0.264418
1907.9	-0.282211
1909.39	0.54459
1910.88	0.644638
1912.37	1.21555
1913.86	0.972725
1915.35	0.816971
1916.84	0.192261
1918.33	0.675638
1919.81	0.325817
1921.3	0.530252
1922.79	0.787691
1924.28	0.545456
1925.76	0.393064
1927.25	0.260984
1928.73	-0.129019
1930.22	0.43321
1931.71	0.352562
1933.19	-0.338118
1934.68	-0.0985489
1936.16	-0.244368
1937.65	-0.0820065
1939.13	0.597242
1940.62	0.274958
1942.1	0.421408
1943.58	-0.481579
1945.07	0.532587
1946.55	-0.642172
1948.03	-0.696632
1949.51	0.470051
1951	0.221058
1952.48	0.382772
1953.96	-0.00755119
1955.44	0.117979
1956.92	0.381804
1958.4	-0.554142
1959.88	-0.33777
1961.36	-0.154392
1962.84	0.406483
1964.32	-0.164368
1965.8	0.428417
1967.28	0.573694
1968.76	0.152529
1970.24	-0.69701
1971.72	0.0595016
1973.2	0.592918
1974.67	-0.0851059
1976.15	0.192783
1977.63	0.40266
1979.1	-0.136356
1980.58	0.924192
1982.06	-0.0399494
1983.54	0.746012
1985.01	0.00232124
1986.49	0.0392475
1987.96	0.398069
1989.44	-0.12331
1990.91	-0.320568
1992.39	0.381369
1993.86	0.764212
1995.33	0.0844212
1996.81	0.403044
1998.28	1.02537
1999.75	0.160437
2001.23	-0.0473518
2002.7	0.148521
2004.17	0.630417
2005.65	-0.386839
2007.12	0.417898
2008.59	0.416479
2010.06	0.518503
2011.53	-0.388014
2013	1.12954
2014.47	0.205357
2015.94	0.356194
2017.41	0.403532
2018.88	0.230013
2020.35	0.172798
2021.82	-0.304573
2023.29	0.125847
2024.76	0.0547104
2026.23	0.0875225
2027.69	-0.00990105
2029.16	-0.472237
2030.63	0.394209
2032.1	0.676445
2033.56	1.26239
2035.03	0.421301
2036.5	1.12407
2037.96	0.599119
2039.43	0.140072
2040.89	0.941446
2042.36	0.298243
2043.83	-0.208706
2045.29	0.363367
2046.75	0.12993
2048.22	-0.00183105
2049.68	0.792374
2051.15	0.690859
2052.61	0.129652
2054.07	-0.09935
2055.54	0.796772
2057	-0.806227
2058.46	0.0500183
2059.92	0.332474
2061.39	0.801071
2062.85	-0.226444
2064.31	0.398535
2065.77	-0.118219
2067.23	1.25221
2068.69	0.571119
2070.15	-0.193405
2071.61	0.203684
2073.07	0.566826
2074.53	0.28945
2075.99	0.667892
2077.45	0.0349464
2078.91	0.647097
2080.37	0.601238
2081.82	-0.119574
2083.28	0.94235
2084.74	0.604998
2086.2	0.669567
2087.65	-0.478195
2089.11	0.743626
2090.57	0.435144
2092.02	-0.00752449
2093.48	0.65748
2094.94	-0.238539
2096.39	0.490898
2097.85	0.329935
2099.3	0.686333
2100.76	0.255365
2102.21	0.37711
2103.66	-0.15032
2105.12	0.110718
2106.57	0.375229
2108.03	0.6591
2109.48	-0.140108
2110.93	-0.0234528
2112.38	0.0563202
2113.84	-0.517916
2115.29	0.951138
2116.74	0.270758
2118.19	-0.125216
2119.64	0.711216
2121.09	0.141716
2122.54	-0.355854
2123.99	0.344486
2125.45	0.58214
2126.89	-0.0430794
2128.34	0.0586529
2129.79	-0.290663
2131.24	0.0360451
2132.69	0.178268
2134.14	0.799995
2135.59	0.232706
2137.04	0.149075
2138.48	0.169453
2139.93	0.360008
2141.38	-0.403879
2142.83	0.587662
2144.27	0.473272
2145.72	1.23632
2147.17	0.409729
2148.61	0.342779
2150.06	0.422647
2151.5	0.00291824
2152.95	-0.319979
2154.39	0.779974
2155.84	0.370981
2157.28	0.310152
2158.73	-0.06357
2160.17	0.11272
2161.61	0.939802
2163.06	0.744423
2164.5	0.0716381
2165.94	0.113977
2167.38	0.338898
2168.83	0.744339
2170.27	-0.451046
2171.71	0.343859
2173.15	1.20058
2174.59	0.0908413
2176.03	0.526617
2177.47	0.530447
2178.91	0.669233
2180.36	0.544518
2181.8	0.638191
2183.23	0.949579
2184.67	-0.13534
2186.11	0.176949
2187.55	0.189907
2188.99	-0.1465
2190.43	0.0162945
2191.87	0.378265
2193.3	0.57193
2194.74	0.296055
2196.18	0.631521
2197.62	0.296146
2199.05	1.28692
2200.49	0.612127
2201.93	0.0873852
2203.36	-0.434937
2204.8	0.306301
2206.23	0.386475
2207.67	0.202888
2209.1	0.300508
2210.54	0.379488
2211.97	0.174627
2213.41	0.463987
2214.84	0.0258751
2216.27	0.266651
2217.71	0.510075
2219.14	0.904917
2220.57	1.12042
2222.01	0.396723
2223.44	0.198875
2224.87	0.738632
2226.3	0.0720329
2227.73	0.651682
2229.16	0.471371
2230.6	0.322233
2232.03	0.0254002
2233.46	0.49925
2234.89	0.712471
2236.32	1.67989
2237.75	0.707445
2239.18	0.703896
2240.61	0.460997
2242.03	0.516508
2243.46	0.0370464
2244.89	0.210909
2246.32	-0.155174
2247.75	0.534807
2249.17	0.322138
2250.6	0.934717
2252.03	0.662735
2253.46	0.291443
2254.88	0.00285149
2256.31	-0.0542297
2257.73	0.900869
2259.16	0.792206
2260.59	0.253252
2262.01	0.742981
2263.44	-0.0618649
2264.86	0.433189
2266.29	0.618925
2267.71	-0.482435
2269.14	0.235661
2270.56	0.46377
2271.98	-0.253733
2273.4	0.0377464
2274.83	0.818283
2276.25	-0.127438
2277.67	1.17597
2279.09	0.409824
2280.52	0.295406
2281.94	0.0174789
2283.36	1.01174
2284.78	0.244165
2286.2	-0.0498562
2287.62	0.359005
2289.04	0.654972
2290.46	0.462006
2291.88	0.253273
2293.3	0.20822
2294.72	0.735725
2296.14	0.608713
2297.56	0.268568
2298.98	0.747393
2300.4	0.817404
2301.82	0.70784
2303.23	0.221586
2304.65	1.09766
2306.07	1.2354
2307.49	0.370022
2308.9	0.55447
2310.32	0.0797539
2311.73	0.524824
2313.15	-0.0994358
2314.57	0.791229
2315.98	0.713003
2317.4	0.43907
2318.81	0.0506115
2320.23	-0.140965
2321.64	1.16599
2323.06	0.818268
2324.47	0.596302
2325.88	0.186975
2327.3	1.30718
2328.71	0.116875
2330.12	1.39909
2331.54	0.32814
2332.95	0.758644
2334.36	0.730471
2335.77	-0.0702076
2337.18	0.213785
2338.6	0.675901
2340.01	-0.459314
2341.42	0.457045
2342.83	0.0580444
2344.24	0.266285
2345.65	-0.360861
2347.06	-0.626148
2348.47	0.107473
2349.88	0.74103
2351.29	0.194708
2352.7	0.23465
2354.1	0.141541
2355.51	0.079422
2356.92	-0.0648479
2358.33	0.409174
2359.74	-0.0273209
2361.14	-0.349031
2362.55	0.140549
2363.96	-0.521074
2365.36	-0.356304
2366.77	0.293419
2368.18	-0.283628
2369.58	0.207691
2370.99	0.363182
2372.39	0.570295
2373.8	0.31288
2375.2	0.539583
2376.61	0.0732841
2378.01	-0.0254936
2379.42	0.241444
2380.82	-0.138506
2382.22	-0.152519
2383.63	-0.00861931
2385.03	0.310249
2386.43	0.214039
2387.84	0.120386
2389.24	-0.448309
2390.64	-0.534863
2392.04	0.400566
2393.44	-0.444595
2394.84	0.0809689
2396.25	0.226364
2397.65	-0.786873
2399.05	0.045023
2400.45	0.877832
2401.85	0.488171
2403.25	-0.203007
2404.65	-0.497932
2406.05	-0.0964489
2407.45	0.508657
2408.84	0.397488
2410.24	0.475782
2411.64	-0.25341
2413.04	-0.140541
2414.44	-0.119488
2415.83	-0.094696
2417.23	0.155142
2418.63	0.15403
2420.02	0.328077
2421.42	0.422674
2422.82	0.484705
2424.21	0.371725
2425.61	0.0211868
2427	0.289989
2428.4	0.545286
2429.8	0.739819
2431.19	-0.348919
2432.58	0.196796
2433.98	0.0270119
2435.37	1.06158
2436.77	0.45611
2438.16	1.10177
2439.55	0.171213
2440.95	0.493286
2442.34	0.448626
2443.73	-0.167988
2445.12	-0.276983
2446.51	-0.259445
2447.91	0.312393
2449.3	0.455997
2450.69	0.61591
2452.08	0.254778
2453.47	-0.610449
2454.86	-0.397385
2456.25	-0.00862694
2457.64	0.855412
2459.03	0.0423641
2460.42	-0.566376
2461.81	0.293495
2463.2	-0.208422
2464.59	0.631474
2465.98	-0.440973
2467.36	-0.423534
2468.75	-0.0749035
2470.14	0.146734
2471.53	0.0990295
2472.92	0.301687
2474.3	0.454885
2475.69	0.96797
2477.08	0.190453
2478.46	0.246403
2479.85	0.632221
2481.23	-0.0169735
2482.62	1.21476
2484	0.846508
2485.39	0.179453
2486.77	0.0263996
2488.16	0.0113564
2489.54	0.493156
2490.93	-0.707544
2492.31	0.521023
2493.69	0.227827
2495.08	0.078289
2496.46	-0.284782
2497.84	0.408081
2499.23	0.326773
2500.61	0.291117
2501.99	-0.302841
2503.37	0.136301
2504.75	0.294672
2506.13	0.189194
2507.52	0.329575
2508.9	0.16251
2510.28	0.119761
2511.66	0.12476
2513.04	0.438311
2514.42	0.0490131
2515.8	-0.291571
2517.18	-0.0485153
2518.55	0.226219
2519.93	0.103817
2521.31	0.133598
2522.69	0.466955
2524.07	0.477413
2525.45	0.562233
2526.82	-0.084692
2528.2	0.381189
2529.58	0.119341
2530.95	-0.0166168
2532.33	-0.178633
2533.71	-0.139675
2535.08	-0.387589
2536.46	0.275928
2537.84	-0.140858
2539.21	0.548794
2540.59	0.431271
2541.96	0.55574
2543.34	0.46842
2544.71	0.383337
2546.08	-0.0171165
2547.46	0.404627
2548.83	0.054903
2550.2	0.661188
2551.58	0.143404
2552.95	0.124071
2554.32	0.299404
2555.7	-0.483389
2557.07	0.750114
2558.44	0.587584
2559.81	0.971565
2561.18	0.00785446
2562.55	0.349335
2563.93	0.328558
2565.3	0.278555
2566.67	-0.149668
2568.04	0.225517
2569.41	0.0703144
2570.78	0.218224
2572.15	0.123735
2573.51	0.529676
2574.88	-0.276859
2576.25	0.356848
2577.62	0.702393
2578.99	0.334738
2580.36	0.421083
2581.73	-0.312401
2583.09	0.848476
2584.46	0.356104
2585.83	0.0304585
2587.19	-0.0523243
2588.56	0.289747
2589.93	0.147089
2591.29	0.0950699
2592.66	0.51161
2594.02	0.668438
2595.39	0.353134
2596.75	0.277668
2598.12	0.517977
2599.48	0.923361
2600.85	0.180199
2602.21	0.390541
2603.58	0.345757
2604.94	0.558954
2606.3	-0.0873165
2607.67	0.442228
2609.03	-0.236509
2610.39	0.392935
2611.76	0.280706
2613.12	0.316143
2614.48	0.22941
2615.84	-0.382982
2617.2	0.0407772
2618.56	-0.163767
2619.92	0.397106
2621.28	-0.341906
2622.65	-0.152163
2624.01	0.694921
2625.37	0.287287
2626.72	0.192732
2628.08	-0.528349
2629.44	0.0165424
2630.8	0.336906
2632.16	-0.0867958
2633.52	0.812078
2634.88	0.640816
2636.24	-0.0344563
2637.59	0.565687
2638.95	0.0841618
2640.31	-0.322243
2641.67	0.130056
2643.02	0.153986
2644.38	0.104498
2645.74	0.71875
2647.09	0.24024
2648.45	0.0406265
2649.8	0.295546
2651.16	0.239567
2652.51	0.00670815
2653.87	0.170998
2655.22	-0.0296078
2656.58	0.124327
2657.93	-0.0703697
2659.29	0.0153008
2660.64	0.218863
2661.99	-0.0165482
2663.35	0.46253
2664.7	0.00484467
2666.05	0.406487
2667.41	-0.57814
2668.76	-0.323664
2670.11	0.19297
2671.46	0.070406
2672.81	0.792316
2674.16	0.12085
2675.51	-0.12755
2676.87	-0.388842
2678.22	0.482916
2679.57	0.0802612
2680.92	0.376226
2682.27	0.269173
2683.62	-0.139486
2684.97	0.454819
2686.31	0.0639839
2687.66	0.543371
2689.01	0.0474091
2690.36	0.548964
2691.71	0.291138
2693.06	0.682602
2694.4	0.418764
2695.75	0.31418
2697.1	-0.00605774
2698.45	0.183916
2699.79	1.72451
2701.14	0.170742
2702.49	-0.452932
2703.83	0.504951
2705.18	0.551619
2706.52	0.206833
2707.87	0.60113
2709.21	0.181837
2710.56	-0.296791
2711.9	0.603638
2713.25	-0.19585
2714.59	0.326744
2715.94	0.35515
2717.28	0.775917
2718.62	-0.0839481
2719.97	0.437256
2721.31	1.14675
2722.65	0.428806
2723.99	0.248159
2725.34	0.343
2726.68	0.757128
2728.02	0.544601
2729.36	0.433397
2730.7	0.00175476
2732.04	0.632193
2733.39	0.418978
2734.73	0.904421
2736.07	0.677612
2737.41	1.01838
2738.75	0.559187
2740.08	-0.220476
2741.43	-0.0559845
2742.76	0.281361
2744.1	0.762177
2745.44	0.645515
2746.78	0.716667
2748.12	0.279274
2749.46	0.248621
2750.79	0.131454
2752.13	0.449934
2753.47	-0.129789
2754.81	-0.389973
2756.14	0.088995
2757.48	-0.199339
2758.81	-0.51586
2760.15	0.239677
2761.49	-0.364138
2762.82	-0.257681
2764.16	0.225706
2765.49	0.246027
2766.83	0.887337
2768.16	0.108683
2769.5	0.411802
2770.83	0.711109
2772.16	0.31353
2773.5	-0.0282288
2774.83	0.335695
2776.17	0.454016
2777.5	0.0837307
2778.83	0.0317402
2780.16	-0.0907745
2781.5	0.620556
2782.83	0.714087
2784.16	0.248043
2785.49	0.642492
2786.82	0.306429
2788.15	0.0722084
2789.49	-0.159885
2790.82	0.740227
2792.15	-0.0883961
2793.48	0.156622
2794.81	0.944723
2796.14	0.445688
2797.46	0.559811
2798.79	0.0442543
2800.12	0.170332
2801.45	0.153013
2802.78	0.0782204
2804.11	0.002882
2805.44	0.766884
2806.76	-0.449932
2808.09	0.737099
2809.42	0.0169601
2810.75	-0.176563
2812.07	0.0573597
2813.4	-0.0183258
2814.73	0.334827
2816.05	-0.527765
2817.38	-0.0126877
2818.7	-0.119902
2820.03	0.821756
2821.36	-0.0518494
2822.68	0.320183
2824.01	-0.442835
2825.33	0.720068
2826.65	0.94788
2827.98	0.454802
2829.3	0.444546
2830.63	0.576982
2831.95	0.200325
2833.27	1.45137
2834.6	1.58334
2835.92	1.43103
2837.24	1.78682
2838.56	1.717
2839.88	1.92956
2841.21	2.41089
2842.53	2.69516
2843.85	2.9527
2845.17	3.04244
2846.49	3.4164
2847.81	3.16943
2849.13	2.99317
2850.45	3.50874
2851.77	3.54255
2853.09	3.43377
2854.41	3.60669
2855.73	4.86701
2857.05	4.0362
2858.37	3.912
2859.69	4.53628
2861	4.32687
2862.32	4.68144
2863.64	5.43013
2864.96	6.12134
2866.28	6.82624
2867.59	6.88273
2868.91	6.39045
2870.23	6.18138
2871.54	7.26957
2872.86	7.22927
2874.17	6.67984
2875.49	7.57883
2876.81	8.0097
2878.12	7.56562
2879.44	7.81039
2880.75	7.83084
2882.07	6.61702
2883.38	7.16235
2884.69	7.35875
2886.01	7.30388
2887.32	7.01063
2888.63	7.62848
2889.95	7.20602
2891.26	6.99211
2892.57	6.53862
2893.89	7.19186
2895.2	7.34132
2896.51	7.49268
2897.82	7.45063
2899.13	7.13131
2900.44	7.76528
2901.76	8.05059
2903.07	7.93074
2904.38	8.21688
2905.69	8.67155
2907	8.47019
2908.31	9.278
2909.62	9.36058
2910.93	8.96879
2912.24	9.1647
2913.55	10.2128
2914.85	9.96966
2916.16	9.90427
2917.47	10.8148
2918.78	10.4351
2920.09	10.6987
2921.4	11.2434
2922.7	10.9243
2924.01	11.2516
2925.32	11.5957
2926.62	12.3048
2927.93	11.9237
2929.24	12.3245
2930.54	11.8712
2931.85	11.92
2933.15	11.5208
2934.46	11.8905
2935.76	12.0926
2937.07	11.7361
2938.37	11.6736
2939.68	11.8773
2940.98	10.9225
2942.29	10.0395
2943.59	10.0256
2944.89	9.44182
2946.2	8.10513
2947.5	9.25922
2948.8	8.5941
2950.11	8.23396
2951.41	8.12172
2952.71	7.96318
2954.01	7.98352
2955.32	7.37309
2956.62	7.2127
2957.92	7.70075
2959.22	6.76699
2960.52	7.46365
2961.82	7.26863
2963.12	6.55601
2964.42	6.75366
2965.72	6.94841
2967.02	6.26824
2968.32	6.82177
2969.62	6.12235
2970.92	5.87243
2972.22	5.72154
2973.51	6.24685
2974.81	5.56185
2976.11	5.43829
2977.41	5.00206
2978.71	5.3364
2980	5.0614
2981.3	4.99465
2982.6	4.25156
2983.9	4.56428
2985.19	4.54197
2986.49	3.72217
2987.78	3.27115
2989.08	3.77793
2990.38	3.24542
2991.67	3.09126
2992.97	2.94884
2994.26	2.83173
2995.56	2.15033
2996.85	2.57698
2998.14	2.68001
2999.44	2.0962
3000.73	1.94874
3002.03	2.06904
3003.32	1.65774
3004.61	1.84931
3005.91	1.18594
3007.2	1.3756
3008.49	1.28341
3009.78	1.04952
3011.07	0.478964
3012.37	1.38824
3013.66	0.510471
3014.95	0.55501
3016.24	0.614988
3017.53	0.593046
3018.82	-0.304314
3020.11	0.7743
3021.4	0.252354
3022.69	0.604242
3023.98	0.842382
3025.27	-0.266392
3026.56	-0.0300217
3027.85	-0.30501
3029.14	-0.189953
3030.43	0.246008
3031.71	0.436214
3033	-0.0063591
3034.29	-0.171888
3035.58	-0.214256
3036.87	0.567825
3038.15	0.104998
3039.44	-0.498709
3040.73	0.0226555
3042.01	-0.0906792
3043.3	0.824139
3044.59	-0.0135345
3045.87	0.535406
3047.16	0.323257
3048.44	-0.320179
3049.73	0.488327
3051.01	-0.0918236
3052.3	-0.397125
3053.58	0.157293
3054.87	0.43738
3056.15	0.57864
3057.43	0.103962
3058.72	0.10491
3060	0.568239
3061.29	0.337889
3062.57	0.259605
3063.85	-0.155457
3065.13	0.343903
3066.42	-0.0509167
3067.7	-0.0628395
3068.98	0.59248
3070.26	-0.588676
3071.54	-0.262028
3072.82	-0.0467644
3074.11	0.736685
3075.39	0.607058
3076.67	0.463272
3077.95	-0.0187244
3079.23	0.465433
3080.51	0.410101
3081.79	0.616089
3083.07	0.146616
3084.35	-0.606369
3085.63	-0.38229
3086.9	-0.131891
3088.18	0.225653
3089.46	-0.137629
3090.74	0.149595
3092.02	0.0837173
3093.29	0.547237
3094.57	0.116278
3095.85	0.391188
3097.13	0.27313
3098.4	0.615856
3099.68	0.321331
3100.95	-0.0408955
3102.23	0.748367
3103.51	0.684946
3104.78	0.324999
3106.06	0.115749
3107.33	0.17926
3108.61	0.421045
3109.88	0.367523
3111.16	0.00477791
3112.43	0.727139
3113.71	-0.0937252
3114.98	0.521749
3116.25	0.282372
3117.53	0.787045
3118.8	0.692625
3120.07	-0.489034
3121.35	0.415834
3122.62	0.61417
3123.89	0.473348
3125.16	0.441451
3126.44	0.437679
3127.71	0.692313
3128.98	1.00211
3130.25	1.23148
3131.52	0.609432
3132.79	1.16317
3134.06	1.09444
3135.33	1.32168
3136.6	1.07524
3137.87	0.841598
3139.14	1.14641
3140.41	0.73712
3141.68	1.32386
3142.95	1.18482
3144.22	1.59763
3145.49	0.844142
3146.76	1.36689
3148.02	1.43504
3149.29	1.1028
