200.398	0.135704
202.213	0.158346
204.027	0.183712
205.843	-0.445929
207.657	0.116726
209.47	0.264986
211.283	-0.438801
213.097	-0.148718
214.909	0.502926
216.721	0.449686
218.533	-0.862843
220.344	0.513983
222.157	-0.213774
223.967	0.632256
225.777	0.294353
227.587	-0.139738
229.396	-0.115295
231.205	0.801197
233.016	0.606575
234.824	0.846699
236.632	0.00404358
238.439	1.55136
240.247	2.04259
242.053	2.80355
243.86	3.61607
245.666	2.78825
247.474	3.35724
249.279	3.67979
251.085	3.77882
252.889	5.6823
254.694	4.95084
256.498	4.65315
258.301	4.71889
260.105	5.55903
261.908	4.76501
263.71	4.98649
265.513	3.98159
267.315	4.32674
269.116	3.73137
270.918	3.64049
272.718	3.76431
274.519	2.46282
276.319	2.72536
278.119	2.02029
279.918	2.29953
281.718	1.10628
283.516	2.65299
285.315	1.31096
287.113	1.41015
288.911	0.166309
290.708	0.746666
292.505	0.610201
294.302	1.36173
296.098	0.3937
297.894	0.336615
299.69	0.830004
301.485	1.25114
303.278	0.643793
305.073	1.3712
306.867	1.16588
308.661	0.388165
310.454	0.0886765
312.247	0.934668
314.04	0.997307
315.833	0.801352
317.623	0.703846
319.415	0.990265
321.206	0.421036
322.997	-0.0996552
324.788	1.14557
326.579	0.625704
328.367	1.22766
330.156	1.99654
331.946	0.276627
333.735	0.657755
335.523	0.628473
337.31	0.930067
339.098	0.964577
340.885	0.565687
342.673	1.05001
344.458	0.864704
346.244	0.465431
348.03	0.449677
349.816	0.196104
351.6	0.396185
353.385	0.475904
355.17	0.124336
356.953	-0.276987
358.737	-0.132145
360.521	-0.322943
362.304	0.0559864
364.085	-0.0901604
365.868	-0.546227
367.65	1.13333
369.431	0.531683
371.212	-0.283529
372.994	0.652597
374.773	0.616909
376.554	1.45473
378.332	1.34843
380.112	1.10264
381.892	0.812359
383.669	1.13642
385.448	1.27441
387.225	1.06209
389.003	1.60373
390.781	2.14701
392.557	2.22208
394.334	2.2984
396.109	2.49292
397.885	3.67412
399.66	3.77471
401.436	4.29723
403.211	4.34867
404.984	4.58638
406.759	4.51715
408.532	4.28228
410.306	4.72748
412.078	3.36552
413.851	4.44526
415.623	4.56436
417.395	5.13112
419.166	4.87815
420.938	6.01055
422.708	5.24142
424.477	5.24533
426.248	5.27067
428.017	3.51001
429.788	2.49972
431.556	2.05284
433.326	1.84131
435.093	1.34885
436.86	1.72474
438.629	1.34833
440.395	0.969284
442.163	0.328653
443.929	0.950581
445.694	0.86537
447.461	0.637474
449.226	0.736414
450.99	0.695101
452.756	0.537683
454.52	0.707518
456.285	-0.171812
458.048	0.160992
459.811	0.400251
461.573	0.151978
463.337	0.418047
465.099	0.36297
466.86	0.336382
468.623	0.384525
470.384	0.320015
472.144	0.489384
473.906	0.564562
475.666	0.0309906
477.425	-0.110813
479.184	0.442795
480.944	0.901203
482.703	0.102068
484.461	-0.0428276
486.218	0.211729
487.975	1.33282
489.734	0.756647
491.491	1.53553
493.247	0.377909
495.003	0.785458
496.759	0.163689
498.516	0.407169
500.271	0.908213
502.025	0.775225
503.779	1.03967
505.533	0.385685
507.287	0.551451
509.042	0.643915
510.795	0.803997
512.547	1.10229
514.299	1.39768
516.051	0.937485
517.803	2.00381
519.554	2.1505
521.305	1.33213
523.055	1.82871
524.805	1.85488
526.555	1.97478
528.307	1.74289
530.056	1.8157
531.805	1.86422
533.553	1.48975
535.301	1.0433
537.049	1.34267
538.797	1.42855
540.544	1.18537
542.291	1.57001
544.037	1.37127
545.783	1.24261
547.529	1.25382
549.275	0.940916
551.02	1.46277
552.765	0.850388
554.509	1.07152
556.253	0.69253
557.997	0.315016
559.738	0.722511
561.482	0.969181
563.224	0.756538
564.967	0.384449
566.709	0.519432
568.451	0.678738
570.192	0.335054
571.933	0.108927
573.674	1.14763
575.415	0.721643
577.153	1.26258
578.893	-0.0528469
580.632	0.58427
582.371	0.969545
584.11	0.204723
585.849	0.403294
587.587	0.645594
589.323	0.655569
591.06	0.433603
592.797	0.463654
594.534	0.51639
596.271	0.822266
598.005	0.737
599.741	0.213943
601.476	0.471527
603.211	-0.0323372
604.944	1.41547
606.679	0.676388
608.413	-0.499878
610.147	-0.0685425
611.878	0.409052
613.611	0.40617
615.344	0.267111
617.077	0.747131
618.807	0.905243
620.539	1.31286
622.27	0.871071
623.999	-0.280542
625.73	0.0541744
627.461	0.139248
629.189	-0.0458832
630.919	0.914431
632.648	0.532467
634.376	0.40369
636.105	0.845043
637.833	0.758142
639.559	0.734468
641.287	1.34352
643.013	0.898365
644.74	0.952194
646.467	1.00638
648.192	1.10962
649.918	0.969015
651.642	-0.0272713
653.368	0.711084
655.091	0.729067
656.816	1.18437
658.538	1.11845
660.263	1.34832
661.987	1.48418
663.708	1.18138
665.432	2.08502
667.153	1.63597
668.875	1.6882
670.596	1.53584
672.318	1.04408
674.037	0.76285
675.759	1.40236
677.478	0.302063
679.196	-0.0421333
680.917	0.300875
682.635	-0.716316
684.355	0.839357
686.072	0.596302
687.791	0.303864
689.508	-0.175074
691.224	0.565382
692.942	-0.330872
694.658	-0.376204
696.376	-0.0779762
698.091	0.332945
699.805	-0.248352
701.522	-0.187401
703.236	0.400291
704.95	0.48048
706.665	0.421749
708.379	0.201771
710.093	0.187553
711.806	-0.193634
713.518	-0.208813
715.23	0.0269947
716.943	0.330688
718.655	-0.164387
720.366	-0.0429096
722.078	0.830082
723.788	1.24666
725.498	0.38921
727.208	0.713768
728.919	1.17301
730.628	-0.228529
732.337	0.432919
734.045	-0.921062
735.755	0.349594
737.463	-0.278355
739.17	0.156429
740.877	0.457033
742.584	0.71443
744.292	0.72645
745.998	0.223671
747.704	1.05125
749.409	0.554005
751.114	1.04902
752.819	0.736866
754.526	1.70966
756.23	1.2457
757.934	0.469246
759.637	1.38449
761.34	1.17598
763.043	1.64519
764.746	0.601818
766.448	1.04613
768.152	1.10312
769.853	0.748896
771.554	1.38556
773.255	1.81585
774.956	1.13712
776.656	2.01953
778.356	2.02269
780.056	1.91589
781.755	1.11004
783.454	1.07353
785.153	2.05358
786.851	1.53517
788.549	1.0333
790.247	0.955181
791.944	1.09782
793.641	1.19175
795.338	1.21715
797.034	1.22162
798.73	1.76977
800.426	0.497652
802.121	1.68189
803.817	1.51719
805.511	1.77951
807.206	0.759207
808.9	2.34269
810.592	1.47564
812.286	1.39276
813.979	1.73451
815.672	1.60502
817.364	1.07299
819.057	2.03936
820.748	0.726679
822.44	1.1126
824.129	2.65893
825.82	1.13092
827.511	0.454992
829.201	1.4549
830.891	1.43623
832.581	1.82428
834.269	1.74894
835.958	1.51954
837.646	1.08873
839.335	1.43675
841.023	-0.16136
842.709	0.672348
844.396	0.991385
846.084	0.708292
847.77	1.30042
849.455	1.00305
851.141	1.31478
852.827	1.40689
854.513	1.07489
856.196	0.40502
857.881	0.473698
859.566	0.606813
861.248	1.45711
862.932	1.11108
864.616	0.784672
866.297	0.320913
867.98	0.689922
869.663	0.787535
871.343	0.298067
873.026	0.507397
874.707	-0.118238
876.387	0.068388
878.068	0.458214
879.747	0.554522
881.428	0.153479
883.108	0.247667
884.786	0.317184
886.465	0.699877
888.143	1.05668
889.822	0.462757
891.498	0.204569
893.177	0.0341072
894.855	-0.0934353
896.53	0.653887
898.208	-0.0171719
899.883	0.432961
901.56	0.947552
903.234	1.03456
904.91	0.293907
906.584	0.604658
908.26	0.826622
909.933	-0.375395
911.608	0.651518
913.28	0.655479
914.955	0.482471
916.627	0.731428
918.298	-0.172705
919.972	0.2535
921.643	0.923372
923.315	0.201744
924.986	-0.0737915
926.656	0.868999
928.328	1.08611
929.997	0.77614
931.668	1.28407
933.337	0.932127
935.006	0.867384
936.676	0.340324
938.344	0.653139
940.012	0.28471
941.681	1.28638
943.348	1.27509
945.014	1.06492
946.683	-0.273415
948.349	0.437351
950.015	1.25436
951.682	0.413561
953.347	0.168793
955.012	0.985615
956.676	0.595188
958.343	0.476021
960.006	-0.277473
961.67	0.0977879
963.333	-0.1012
964.998	-0.325842
966.661	0.0635014
968.323	0.0268688
969.985	-0.169012
971.649	-0.0128574
973.31	-0.519377
974.971	1.03362
976.632	0.356852
978.293	-0.604567
979.953	-0.281643
981.615	0.0407543
983.274	0.493423
984.933	0.632177
986.592	0.191034
988.251	0.520708
989.909	0.803133
991.567	-0.0433407
993.225	0.193035
994.884	0.738297
996.541	1.4597
998.198	1.23209
999.855	2.61286
1001.51	1.70072
1003.17	0.898823
1004.82	1.70267
1006.48	1.14256
1008.13	0.188196
1009.79	0.83778
1011.44	0.368969
1013.1	0.756454
1014.75	0.0491371
1016.4	1.22612
1018.06	0.52125
1019.71	1.39345
1021.36	1.48017
1023.01	1.6349
1024.66	0.720886
1026.32	1.44735
1027.97	2.17373
1029.62	2.89851
1031.27	2.15683
1032.92	2.0669
1034.57	2.0823
1036.22	2.13806
1037.87	2.80168
1039.52	3.68161
1041.16	2.73457
1042.81	2.444
1044.46	2.80961
1046.11	3.09268
1047.76	3.72767
1049.4	4.77933
1051.05	6.33396
1052.7	6.08817
1054.34	6.2562
1055.99	5.83748
1057.63	6.54826
1059.28	5.97517
1060.92	4.68264
1062.57	4.40995
1064.21	2.39548
1065.85	1.94426
1067.5	2.12093
1069.14	2.27343
1070.78	1.55555
1072.43	0.924763
1074.07	1.31531
1075.71	1.07882
1077.35	1.36592
1078.99	0.354725
1080.63	0.711489
1082.27	1.58871
1083.91	1.1196
1085.55	1.49241
1087.19	0.365238
1088.83	1.29178
1090.47	0.568512
1092.11	0.448997
1093.75	0.782047
1095.39	0.510607
1097.03	0.995914
1098.66	0.277237
1100.3	0.123037
1101.94	1.2213
1103.57	0.94606
1105.21	0.630978
1106.84	0.962574
1108.48	0.196712
1110.11	-0.227209
1111.75	-0.224453
1113.38	0.290323
1115.02	0.0931816
1116.65	0.0450916
1118.29	0.554585
1119.92	0.529266
1121.55	0.227863
1123.19	0.613998
1124.82	-0.15325
1126.45	0.686098
1128.08	0.393412
1129.71	0.658363
1131.34	0.475599
1132.97	0.977665
1134.6	0.282333
1136.23	0.0346222
1137.86	-0.236683
1139.49	-0.339579
1141.12	-0.25251
1142.75	-0.0813828
1144.38	0.409733
1146.01	0.411539
1147.64	-0.0106926
1149.26	0.506731
1150.89	0.492523
1152.52	1.05336
1154.15	-0.111341
1155.77	-0.254686
1157.4	-0.504644
1159.02	0.628803
1160.65	-0.150238
1162.27	-0.331194
1163.9	0.510698
1165.52	0.375742
1167.15	0.346603
1168.77	0.400137
1170.39	-0.80418
1172.02	-0.354788
1173.64	0.238749
1175.26	0.149651
1176.89	0.84375
1178.51	-0.602278
1180.13	0.135588
1181.75	0.28216
1183.37	-0.204147
1184.99	0.683676
1186.61	0.449171
1188.23	0.991936
1189.85	0.981012
1191.47	0.333939
1193.09	0.778181
1194.71	0.48435
1196.33	1.02995
1197.94	1.36675
1199.56	1.16305
1201.18	1.61305
1202.8	1.7138
1204.41	1.57036
1206.03	1.5783
1207.65	1.29749
1209.26	1.64332
1210.88	1.00695
1212.49	1.40941
1214.11	1.76452
1215.72	0.989275
1217.34	1.77117
1218.95	1.50986
1220.57	0.875025
1222.18	1.19698
1223.79	0.941086
1225.41	1.91076
1227.02	2.53108
1228.63	1.54095
1230.24	1.93998
1231.85	2.11432
1233.47	1.96089
1235.08	2.05852
1236.69	2.17979
1238.3	2.73779
1239.91	2.59469
1241.52	1.62472
1243.13	1.97758
1244.74	2.86673
1246.34	1.9119
1247.95	2.29955
1249.56	2.43699
1251.17	2.78044
1252.78	2.23485
1254.38	2.04269
1255.99	2.22548
1257.6	1.439
1259.2	1.85518
1260.81	1.75631
1262.42	2.2798
1264.02	2.18234
1265.63	2.35328
1267.23	1.17521
1268.84	2.39935
1270.44	1.6723
1272.04	1.62688
1273.65	2.53266
1275.25	1.32147
1276.85	1.82857
1278.46	2.35406
1280.06	1.98724
1281.66	2.40645
1283.26	1.74973
1284.86	2.60442
1286.46	2.07562
1288.07	2.16967
1289.67	1.60465
1291.27	2.42552
1292.87	2.75018
1294.47	2.70115
1296.06	1.80228
1297.66	2.07685
1299.26	2.63592
1300.86	2.59263
1302.46	2.87585
1304.06	3.17668
1305.65	2.38546
1307.25	2.78572
1308.85	2.67147
1310.44	2.2295
1312.04	2.97674
1313.64	2.41539
1315.23	2.10269
1316.83	3.22211
1318.42	2.62743
1320.02	2.99164
1321.61	2.37528
1323.2	3.01803
1324.8	3.30941
1326.39	3.25138
1327.99	2.64451
1329.58	2.26321
1331.17	3.88885
1332.76	3.67815
1334.36	3.31208
1335.95	2.9104
1337.54	3.01488
1339.13	2.21067
1340.72	2.33005
1342.31	1.961
1343.9	2.97482
1345.49	3.03971
1347.08	2.10195
1348.67	2.73277
1350.26	2.82815
1351.85	2.16988
1353.43	2.11724
1355.02	2.82749
1356.61	1.64009
1358.2	3.18911
1359.78	2.77776
1361.37	3.34202
1362.96	2.74645
1364.54	1.8516
1366.13	1.35683
1367.71	1.2827
1369.3	2.42581
1370.88	2.15878
1372.47	1.21881
1374.05	1.97305
1375.64	2.21168
1377.22	1.91339
1378.8	2.44965
1380.39	1.47118
1381.97	1.70329
1383.55	4.17913
1385.13	4.30479
1386.72	1.68734
1388.3	2.24998
1389.88	1.74188
1391.46	0.502222
1393.04	1.18948
1394.62	1.34191
1396.2	1.69218
1397.78	1.58463
1399.36	2.2871
1400.94	1.83776
1402.52	1.62492
1404.1	2.42115
1405.68	1.93253
1407.25	1.58488
1408.83	1.71384
1410.41	2.16011
1411.98	1.81621
1413.56	2.10277
1415.14	2.52494
1416.71	2.45147
1418.29	2.00254
1419.87	2.5398
1421.44	1.50397
1423.02	2.57905
1424.59	2.67384
1426.16	2.92941
1427.74	2.00553
1429.31	3.36424
1430.89	2.90985
1432.46	3.92846
1434.03	3.31113
1435.6	3.97128
1437.18	5.24099
1438.75	4.34985
1440.32	3.79587
1441.89	5.68152
1443.46	4.42466
1445.03	4.26944
1446.6	6.23751
1448.17	4.15694
1449.74	5.22224
1451.31	4.95207
1452.88	5.4503
1454.45	4.80892
1456.02	4.81651
1457.59	4.86182
1459.16	4.52983
1460.72	3.97675
1462.29	4.63865
1463.86	3.74203
1465.43	3.9243
1466.99	3.90888
1468.56	4.28705
1470.13	2.56742
1471.69	2.48033
1473.26	2.21953
1474.82	2.09817
1476.38	2.15441
1477.95	2.48542
1479.51	2.28695
1481.08	1.4611
1482.64	1.8111
1484.2	2.06271
1485.77	1.92157
1487.33	1.89612
1488.89	1.74991
1490.46	2.08834
1492.02	1.40404
1493.58	2.04356
1495.14	1.5845
1496.7	0.967749
1498.26	0.351908
1499.82	1.50756
1501.38	1.22654
1502.94	1.56977
1504.5	0.965239
1506.06	1.02074
1507.62	0.977928
1509.18	1.00991
1510.73	1.09683
1512.29	1.52812
1513.85	0.398312
1515.41	0.405865
1516.96	0.338079
1518.52	1.07773
1520.08	0.725471
1521.63	0.833752
1523.19	1.01752
1524.75	0.83614
1526.3	0.366686
1527.85	0.524532
1529.41	0.88962
1530.96	1.80424
1532.52	1.02995
1534.07	1.66134
1535.62	0.969818
1537.18	1.58597
1538.73	1.63644
1540.28	1.85751
1541.84	0.835133
1543.39	1.60244
1544.94	0.412317
1546.49	1.34652
1548.04	1.94065
1549.59	2.42095
1551.14	1.47767
1552.69	1.13617
1554.25	1.35832
1555.79	1.13539
1557.34	1.2905
1558.89	1.45043
1560.44	2.04423
1561.99	1.05647
1563.54	2.3103
1565.08	1.90536
1566.63	1.42599
1568.18	2.55104
1569.73	1.41682
1571.27	1.38282
1572.82	1.66544
1574.37	1.16369
1575.91	2.23007
1577.46	2.00893
1579	1.82617
1580.55	1.90637
1582.09	1.85788
1583.64	2.89506
1585.18	2.23429
1586.73	1.49957
1588.27	1.9991
1589.81	1.65656
1591.35	2.49195
1592.9	1.75384
1594.44	2.21327
1595.98	2.56065
1597.52	2.44077
1599.06	2.73502
1600.61	3.20024
1602.15	2.35343
1603.69	2.98924
1605.23	2.27135
1606.77	2.52672
1608.31	1.85623
1609.85	1.83773
1611.39	2.20794
1612.93	2.72299
1614.46	2.55837
1616	2.89913
1617.54	1.79729
1619.08	1.44898
1620.61	1.66658
1622.15	1.70032
1623.69	1.81111
1625.23	2.48361
1626.76	1.02051
1628.3	2.36138
1629.83	1.62187
1631.37	1.25423
1632.9	1.87593
1634.44	2.72158
1635.97	2.87806
1637.51	2.2722
1639.04	1.68713
1640.57	1.23311
1642.11	2.32425
1643.64	3.33714
1645.17	2.37315
1646.71	2.22626
1648.24	1.53987
1649.77	1.83949
1651.3	1.78855
1652.83	1.49968
1654.36	2.93822
1655.89	1.94943
1657.42	2.51763
1658.96	2.80568
1660.48	2.18307
1662.01	1.72398
1663.54	2.1869
1665.07	2.20429
1666.6	2.05637
1668.13	2.11425
1669.66	2.76572
1671.19	2.55451
1672.71	1.70168
1674.24	1.73453
1675.77	1.26979
1677.29	2.5334
1678.82	1.14421
1680.35	1.77621
1681.87	1.56028
1683.4	1.93133
1684.92	1.6965
1686.45	0.710918
1687.97	1.37723
1689.5	0.834787
1691.02	0.641439
1692.54	1.08904
1694.07	0.87756
1695.59	1.10466
1697.11	1.29433
1698.64	0.989885
1700.16	0.629948
1701.68	0.871046
1703.2	0.654711
1704.72	0.437311
1706.25	0.273695
1707.77	0.0186977
1709.29	0.12722
1710.81	0.38092
1712.33	0.743446
1713.85	1.10579
1715.37	0.381559
1716.89	-0.124569
1718.41	0.454184
1719.92	0.291439
1721.44	1.03153
1722.96	0.527855
1724.48	0.207645
1725.99	0.215248
1727.51	-0.0257664
1729.03	0.635683
1730.55	0.576965
1732.06	0.357119
1733.58	-0.127825
1735.09	0.342779
1736.61	0.0191803
1738.13	0.00774574
1739.64	-0.55147
1741.15	0.447296
1742.67	0.294678
1744.18	0.536091
1745.7	-0.0108032
1747.21	0.294569
1748.72	0.785053
1750.24	-0.184626
1751.75	-0.645544
1753.26	-0.0150108
1754.77	0.00685692
1756.29	0.179108
1757.8	0.56106
1759.31	0.0510845
1760.82	-0.514032
1762.33	-0.765665
1763.84	0.212919
1765.35	0.11343
1766.86	0.342958
1768.37	-0.34944
1769.88	-0.404392
1771.39	-0.0906715
1772.9	-0.239647
1774.4	0.440037
1775.91	0.6036
1777.42	0.45204
1778.93	0.200266
1780.44	-0.601862
1781.94	0.237387
1783.45	0.000436783
1784.96	0.309399
1786.46	0.434206
1787.97	0.104164
1789.47	-0.283497
1790.98	0.183317
1792.48	0.269625
1793.99	0.0872917
1795.49	-0.0792904
1797	-0.0679455
1798.5	0.050272
1800.01	0.339466
1801.51	-0.108465
1803.01	0.0219841
1804.51	0.552486
1806.02	0.0466042
1807.52	0.241013
1809.02	0.0568867
1810.52	0.392218
1812.02	0.100342
1813.52	0.111698
1815.02	-0.176292
1816.53	-0.320881
1818.03	0.286137
1819.52	0.421999
1821.02	-0.203726
1822.52	-0.230356
1824.02	-0.0166245
1825.52	0.131962
1827.02	0.0715179
1828.52	0.000171661
1830.02	0.0851059
1831.51	0.268442
1833.01	0.276028
1834.51	-0.135706
1836.01	-0.0595417
1837.5	-0.534658
1839	0.117208
1840.49	0.457331
1841.99	0.856325
1843.49	0.184284
1844.98	0.00840569
1846.48	0.0151653
1847.97	0.185234
1849.47	0.531931
1850.96	0.304705
1852.45	0.121857
1853.95	0.438999
1855.44	0.12845
1856.93	-0.2136
1858.42	0.590679
1859.92	0.422293
1861.41	0.31811
1862.9	0.300415
1864.39	0.8207
1865.88	0.571611
1867.38	0.658173
1868.87	0.275703
1870.36	0.497589
1871.85	-0.229469
1873.34	0.19272
1874.83	0.438534
1876.32	0.483915
1877.81	-0.00772095
1879.29	0.429153
1880.78	0.289066
1882.27	-0.23135
1882.53	-0.334049
1884.03	-0.687653
1885.52	0.525246
1887.01	1.02055
1888.51	0.452068
1890	-0.271814
1891.5	0.729382
1892.99	0.169645
1894.48	0.345314
1895.97	0.107981
1897.47	0.377251
1898.96	-0.0146828
1900.45	0.199415
1901.94	0.130758
1903.43	0.265991
1904.92	0.484079
1906.41	0.352306
1907.9	-0.0224934
1909.39	0.14282
1910.88	0.588223
1912.37	0.654263
1913.86	0.635164
1915.35	0.113478
1916.84	0.11121
1918.33	0.35014
1919.81	0.293165
1921.3	-0.370222
1922.79	0.0415039
1924.28	0.299646
1925.76	0.266598
1927.25	0.946318
1928.73	-0.155378
1930.22	0.231798
1931.71	-0.249014
1933.19	0.25329
1934.68	0.0408287
1936.16	-0.124113
1937.65	0.883654
1939.13	0.385605
1940.62	-0.352678
1942.1	-0.500996
1943.58	0.0954094
1945.07	0.0729504
1946.55	0.689396
1948.03	-0.108307
1949.51	0.212282
1951	0.512638
1952.48	0.810101
1953.96	0.21143
1955.44	0.558483
1956.92	0.665749
1958.4	0.12265
1959.88	-0.606539
1961.36	0.432549
1962.84	0.442945
1964.32	0.00738716
1965.8	-0.771618
1967.28	-0.678757
1968.76	0.0280228
1970.24	0.236591
1971.72	-0.0511684
1973.2	0.429415
1974.67	-0.199038
1976.15	0.844191
1977.63	0.745325
1979.1	0.0852127
1980.58	0.0722771
1982.06	0.704826
1983.54	-0.447861
1985.01	0.182463
1986.49	0.302338
1987.96	0.1
1989.44	0.457708
1990.91	0.326019
1992.39	0.129459
1993.86	0.155647
1995.33	1.01214
1996.81	0.112349
1998.28	0.851217
1999.75	0.862444
2001.23	0.298223
2002.7	0.272911
2004.17	0.162968
2005.65	0.35737
2007.12	0.469475
2008.59	0.617807
2010.06	0.819016
2011.53	0.769163
2013	0.0293999
2014.47	0.786442
2015.94	-0.0740967
2017.41	0.274342
2018.88	0.805155
2020.35	0.073801
2021.82	0.199272
2023.29	0.963381
2024.76	0.990805
2026.23	0.132553
2027.69	0.368759
2029.16	0.474905
2030.63	0.735767
2032.1	0.193981
2033.56	0.391798
2035.03	0.875237
2036.5	0.467587
2037.96	0.276695
2039.43	-0.0329914
2040.89	-0.10762
2042.36	0.390461
2043.83	-0.336962
2045.29	-0.0528603
2046.75	1.04168
2048.22	0.403208
2049.68	0.95981
2051.15	0.468718
2052.61	0.0911255
2054.07	0.551762
2055.54	0.333033
2057	0.734369
2058.46	1.09952
2059.92	-0.119362
2061.39	1.13893
2062.85	0.446138
2064.31	0.665253
2065.77	0.415903
2067.23	0.10157
2068.69	0.950136
2070.15	0.772968
2071.61	0.309725
2073.07	0.889915
2074.53	1.20008
2075.99	0.296873
2077.45	0.133595
2078.91	0.659681
2080.37	0.477249
2081.82	0.798437
2083.28	0.0235519
2084.74	0.324051
2086.2	1.14382
2087.65	0.716969
2089.11	0.339796
2090.57	0.281603
2092.02	1.59991
2093.48	0.466778
2094.94	0.20624
2096.39	0.749153
2097.85	-0.167553
2099.3	0.455091
2100.76	0.607693
2102.21	0.627001
2103.66	0.431461
2105.12	0.139523
2106.57	0.502214
2108.03	0.233742
2109.48	0.23311
2110.93	0.614452
2112.38	0.658697
2113.84	0.548414
2115.29	0.201033
2116.74	0.41707
2118.19	1.11527
2119.64	0.156269
2121.09	0.29846
2122.54	-0.0186729
2123.99	0.596775
2125.45	-0.0297565
2126.89	0.851883
2128.34	0.354733
2129.79	0.417604
2131.24	0.626047
2132.69	-0.392714
2134.14	0.144644
2135.59	1.01418
2137.04	0.101868
2138.48	-0.193718
2139.93	0.209711
2141.38	0.898537
2142.83	0.0530357
2144.27	0.465868
2145.72	0.498745
2147.17	0.464645
2148.61	0.793255
2150.06	-0.321526
2151.5	0.615303
2152.95	0.522406
2154.39	0.858158
2155.84	0.248352
2157.28	0.135826
2158.73	0.472382
2160.17	0.530766
2161.61	0.444553
2163.06	0.263538
2164.5	0.335058
2165.94	0.641277
2167.38	0.748327
2168.83	0.570187
2170.27	0.50371
2171.71	1.014
2173.15	0.404758
2174.59	0.839968
2176.03	-0.1234
2177.47	0.859478
2178.91	0.181515
2180.36	0.00485992
2181.8	0.711643
2183.23	0.472212
2184.67	0.399763
2186.11	0.0280285
2187.55	0.0555515
2188.99	0.216337
2190.43	0.293921
2191.87	1.10338
2193.3	0.795538
2194.74	-0.248306
2196.18	0.201675
2197.62	0.163801
2199.05	0.653652
2200.49	0.508785
2201.93	0.911604
2203.36	0.121044
2204.8	0.0970268
2206.23	0.45685
2207.67	0.271044
2209.1	0.532024
2210.54	0.161797
2211.97	0.550295
2213.41	0.903244
2214.84	0.644245
2216.27	0.453192
2217.71	0.710768
2219.14	0.707521
2220.57	0.475756
2222.01	0.508158
2223.44	0.868179
2224.87	0.697273
2226.3	0.373941
2227.73	1.26334
2229.16	0.176752
2230.6	-0.154915
2232.03	0.464016
2233.46	0.476667
2234.89	0.327776
2236.32	0.901073
2237.75	0.285992
2239.18	0.55773
2240.61	0.4431
2242.03	0.773649
2243.46	0.552946
2244.89	0.757263
2246.32	0.160595
2247.75	0.40793
2249.17	1.02437
2250.6	0.314554
2252.03	0.284822
2253.46	0.952168
2254.88	0.0431423
2256.31	0.292065
2257.73	0.514433
2259.16	0.614449
2260.59	0.300404
2262.01	1.17756
2263.44	0.143461
2264.86	0.929049
2266.29	0.787729
2267.71	0.741732
2269.14	0.546747
2270.56	0.235531
2271.98	1.04634
2273.4	0.391262
2274.83	0.550627
2276.25	0.922415
2277.67	-0.416428
2279.09	0.559145
2280.52	0.801285
2281.94	0.6028
2283.36	0.534492
2284.78	0.0583019
2286.2	0.62711
2287.62	-0.109015
2289.04	0.00489426
2290.46	0.250648
2291.88	0.791595
2293.3	0.335712
2294.72	0.337498
2296.14	0.371794
2297.56	0.0129642
2298.98	-0.0839252
2300.4	0.311302
2301.82	0.592842
2303.23	1.15433
2304.65	0.567787
2306.07	0.735903
2307.49	0.443171
2308.9	0.576107
2310.32	0.756905
2311.73	0.788687
2313.15	0.162237
2314.57	0.441725
2315.98	-0.0505638
2317.4	0.233063
2318.81	0.468718
2320.23	0.407114
2321.64	-0.119501
2323.06	1.21359
2324.47	0.758144
2325.88	0.610235
2327.3	0.688797
2328.71	0.748745
2330.12	0.990326
2331.54	0.78956
2332.95	0.723639
2334.36	0.528435
2335.77	0.514933
2337.18	0.467335
2338.6	0.104799
2340.01	-0.178288
2341.42	0.25902
2342.83	0.169275
2344.24	0.145164
2345.65	0.25293
2347.06	0.361313
2348.47	0.355062
2349.88	0.233282
2351.29	0.420187
2352.7	0.130514
2354.1	0.458918
2355.51	0.181715
2356.92	-0.226053
2358.33	0.0338192
2359.74	0.0172691
2361.14	-0.015234
2362.55	0.925068
2363.96	-0.112785
2365.36	-0.0646057
2366.77	-0.403908
2368.18	0.0178528
2369.58	-0.300472
2370.99	-0.0345459
2372.39	-0.264889
2373.8	0.554316
2375.2	0.311481
2376.61	0.502268
2378.01	0.207569
2379.42	-0.122967
2380.82	0.441624
2382.22	0.295729
2383.63	0.452093
2385.03	0.0155773
2386.43	0.364048
2387.84	0.714113
2389.24	0.317327
2390.64	0.24324
2392.04	-0.0345898
2393.44	-0.134407
2394.84	0.213375
2396.25	0.0381012
2397.65	0.595701
2399.05	0.407759
2400.45	-0.0806084
2401.85	0.289732
2403.25	0.437737
2404.65	0.425919
2406.05	0.268938
2407.45	-0.27121
2408.84	0.281374
2410.24	0.578897
2411.64	0.258841
2413.04	-0.0904427
2414.44	0.117968
2415.83	0.425165
2417.23	-0.419807
2418.63	-0.217564
2420.02	0.524176
2421.42	0.600584
2422.82	0.327541
2424.21	-0.0889168
2425.61	0.160234
2427	-0.508425
2428.4	0.34676
2429.8	-0.000289917
2431.19	0.209515
2432.58	0.705662
2433.98	0.597378
2435.37	-0.0859413
2436.77	0.0528069
2438.16	-0.00308037
2439.55	0.604816
2440.95	0.908247
2442.34	0.432163
2443.73	0.447584
2445.12	0.177019
2446.51	0.603867
2447.91	-0.0793362
2449.3	0.0458927
2450.69	0.440773
2452.08	0.124521
2453.47	-0.64835
2454.86	-0.0581455
2456.25	0.185699
2457.64	0.303801
2459.03	0.247498
2460.42	-0.094965
2461.81	-0.0599403
2463.2	-0.12183
2464.59	0.209785
2465.98	-0.407204
2467.36	-0.124134
2468.75	-0.456804
2470.14	0.550829
2471.53	0.452877
2472.92	0.0696678
2474.3	-0.850277
2475.69	-0.0716782
2477.08	-0.332603
2478.46	0.741632
2479.85	0.0414104
2481.23	0.173761
2482.62	-0.555973
2484	0.0135746
2485.39	0.157564
2486.77	0.0639458
2488.16	-0.21957
2489.54	0.321651
2490.93	0.44087
2492.31	-0.247135
2493.69	-0.0301819
2495.08	-0.213497
2496.46	-0.0832405
2497.84	0.560177
2499.23	0.0425587
2500.61	0.112541
2501.99	-0.252346
2503.37	-0.294868
2504.75	0.508743
2506.13	0.276688
2507.52	0.152237
2508.9	0.305124
2510.28	-0.047966
2511.66	-0.245251
2513.04	0.479568
2514.42	0.118008
2515.8	0.218458
2517.18	0.045475
2518.55	-0.0647335
2519.93	-0.26605
2521.31	0.0361614
2522.69	-0.64052
2524.07	-0.357517
2525.45	0.0146847
2526.82	-0.0864563
2528.2	0.300522
2529.58	0.40093
2530.95	0.155855
2532.33	-0.282162
2533.71	0.225452
2535.08	0.233538
2536.46	0.0136261
2537.84	0.399654
2539.21	-0.507877
2540.59	0.161974
2541.96	0.390295
2543.34	0.285406
2544.71	0.395185
2546.08	0.477846
2547.46	0.412066
2548.83	0.21199
2550.2	-0.13973
2551.58	0.0535698
2552.95	0.229366
2554.32	0.11412
2555.7	0.224171
2557.07	0.332727
2558.44	0.1073
2559.81	0.125244
2561.18	-0.0676117
2562.55	-0.107204
2563.93	0.460884
2565.3	0.166307
2566.67	-0.27916
2568.04	0.427372
2569.41	0.406525
2570.78	0.643341
2572.15	0.319477
2573.51	0.101904
2574.88	0.1726
2576.25	0.167587
2577.62	0.20788
2578.99	0.0353146
2580.36	0.0741386
2581.73	-0.130699
2583.09	0.436785
2584.46	0.0333195
2585.83	0.0239353
2587.19	0.499876
2588.56	0.49128
2589.93	-0.0777454
2591.29	0.156137
2592.66	0.267572
2594.02	-0.335094
2595.39	1.11947
2596.75	-0.169554
2598.12	0.2199
2599.48	0.18461
2600.85	0.0438881
2602.21	0.206663
2603.58	0.838993
2604.94	0.159517
2606.3	-0.066412
2607.67	0.234755
2609.03	-0.0392208
2610.39	0.331675
2611.76	0.337406
2613.12	0.219828
2614.48	-0.0947838
2615.84	0.445894
2617.2	0.371489
2618.56	-0.27026
2619.92	0.243324
2621.28	0.444012
2622.65	0.421677
2624.01	0.773302
2625.37	0.348385
2626.72	-0.0169544
2628.08	0.258133
2629.44	-0.0486546
2630.8	-0.191833
2632.16	0.229858
2633.52	-0.270168
2634.88	0.106222
2636.24	0.0667076
2637.59	-0.032032
2638.95	-0.248907
2640.31	-0.0212002
2641.67	0.487732
2643.02	0.331896
2644.38	0.590094
2645.74	0.478935
2647.09	0.455353
2648.45	0.32691
2649.8	0.0935822
2651.16	0.682211
2652.51	-0.258472
2653.87	0.358463
2655.22	0.404535
2656.58	0.526638
2657.93	0.0222435
2659.29	0.266817
2660.64	0.365999
2661.99	-0.499805
2663.35	0.737091
2664.7	-0.204483
2666.05	0.311895
2667.41	0.563929
2668.76	0.218311
2670.11	-0.271521
2671.46	-0.134073
2672.81	-0.0533066
2674.16	0.0144501
2675.51	0.359404
2676.87	0.168726
2678.22	-0.0926151
2679.57	0.141331
2680.92	0.305397
2682.27	0.0520916
2683.62	0.0482979
2684.97	0.409573
2686.31	0.0177822
2687.66	-0.200495
2689.01	0.318563
2690.36	-0.124727
2691.71	-0.195133
2693.06	0.252995
2694.4	0.422729
2695.75	0.664293
2697.1	-0.0632915
2698.45	0.212156
2699.79	0.520756
2701.14	0.0519142
2702.49	0.32543
2703.83	-0.0212593
2705.18	0.865379
2706.52	0.28805
2707.87	0.0432625
2709.21	0.203754
2710.56	0.203665
2711.9	0.290052
2713.25	0.332571
2714.59	0.273197
2715.94	0.635311
2717.28	0.211903
2718.62	-0.183285
2719.97	0.249855
2721.31	0.682032
2722.65	0.123329
2723.99	0.49493
2725.34	0.341442
2726.68	0.623659
2728.02	0.366549
2729.36	0.0215759
2730.7	0.81127
2732.04	0.640493
2733.39	0.717302
2734.73	0.387283
2736.07	0.290569
2737.41	0.470554
2738.75	0.301453
2740.08	0.480766
2741.43	0.702467
2742.76	0.297352
2744.1	0.123209
2745.44	0.194599
2746.78	0.235826
2748.12	0.421713
2749.46	0.201324
2750.79	0.358713
2752.13	-0.150238
2753.47	0.617128
2754.81	-0.397575
2756.14	-0.252602
2757.48	0.616686
2758.81	0.574213
2760.15	0.17095
2761.49	0.405792
2762.82	0.627348
2764.16	0.0828419
2765.49	0.247324
2766.83	0.150246
2768.16	0.23892
2769.5	0.107433
2770.83	0.0446758
2772.16	0.18078
2773.5	-0.580517
2774.83	0.388128
2776.17	-0.200615
2777.5	0.291948
2778.83	-0.135193
2780.16	0.12937
2781.5	0.494925
2782.83	0.458424
2784.16	-0.123131
2785.49	0.356619
2786.82	0.120102
2788.15	-0.200726
2789.49	-0.132952
2790.82	0.0657444
2792.15	0.0947037
2793.48	-0.21825
2794.81	0.0978909
2796.14	-0.387075
2797.46	-0.244604
2798.79	0.0962963
2800.12	-0.106472
2801.45	0.289433
2802.78	0.199713
2804.11	-0.14707
2805.44	-0.0530243
2806.76	0.181746
2808.09	-0.140068
2809.42	-0.29187
2810.75	0.238291
2812.07	0.442833
2813.4	0.508196
2814.73	-0.131664
2816.05	0.153791
2817.38	-0.139132
2818.7	0.0371552
2820.03	0.114265
2821.36	0.0910683
2822.68	-0.344723
2824.01	0.535753
2825.33	0.508448
2826.65	0.0989342
2827.98	0.696138
2829.3	1.2663
2830.63	0.747595
2831.95	0.640003
2833.27	1.2825
2834.6	1.23057
2835.92	1.88502
2837.24	1.47667
2838.56	1.52006
2839.88	1.8599
2841.21	1.93122
2842.53	2.62555
2843.85	2.34616
2845.17	3.31234
2846.49	3.44633
2847.81	4.01942
2849.13	2.84004
2850.45	2.91778
2851.77	3.57377
2853.09	3.35217
2854.41	3.66662
2855.73	4.17832
2857.05	4.5062
2858.37	4.5234
2859.69	4.15926
2861	5.00913
2862.32	5.44847
2863.64	5.74551
2864.96	5.64664
2866.28	5.95685
2867.59	6.32401
2868.91	6.7345
2870.23	6.73713
2871.54	7.31812
2872.86	6.93988
2874.17	6.79936
2875.49	6.30406
2876.81	6.94675
2878.12	6.92536
2879.44	8.15489
2880.75	7.47238
2882.07	7.9588
2883.38	6.63593
2884.69	7.25398
2886.01	7.29775
2887.32	7.17329
2888.63	7.20211
2889.95	7.60765
2891.26	7.39377
2892.57	6.91222
2893.89	7.80357
2895.2	8.00896
2896.51	7.89438
2897.82	7.78261
2899.13	8.52699
2900.44	7.7624
2901.76	8.38401
2903.07	7.45344
2904.38	8.60741
2905.69	8.75499
2907	8.55433
2908.31	8.9852
2909.62	8.90067
2910.93	9.58723
2912.24	9.64419
2913.55	10.0212
2914.85	9.80676
2916.16	10.0079
2917.47	10.625
2918.78	10.9733
2920.09	11.4608
2921.4	11.013
2922.7	11.5332
2924.01	11.6095
2925.32	12.192
2926.62	11.8535
2927.93	11.529
2929.24	11.5671
2930.54	11.7156
2931.85	11.793
2933.15	12.3311
2934.46	12.4217
2935.76	12.0514
2937.07	12.1848
2938.37	11.4941
2939.68	11.2793
2940.98	10.5766
2942.29	10.6307
2943.59	10.0588
2944.89	9.90935
2946.2	9.76266
2947.5	9.08567
2948.8	9.45733
2950.11	9.23844
2951.41	9.08518
2952.71	8.53525
2954.01	8.22008
2955.32	8.45004
2956.62	8.12218
2957.92	7.65923
2959.22	7.94457
2960.52	7.8165
2961.82	7.7072
2963.12	7.76793
2964.42	7.51853
2965.72	7.33566
2967.02	6.78322
2968.32	7.05672
2969.62	6.87855
2970.92	6.62967
2972.22	6.6909
2973.51	5.65531
2974.81	5.50595
2976.11	5.49585
2977.41	5.65173
2978.71	5.25443
2980	5.1769
2981.3	5.37771
2982.6	4.76124
2983.9	5.10208
2985.19	4.26474
2986.49	4.30259
2987.78	4.02071
2989.08	4.06441
2990.38	3.99634
2991.67	3.23842
2992.97	3.51804
2994.26	3.13416
2995.56	3.04276
2996.85	2.36
2998.14	2.81402
2999.44	2.67907
3000.73	2.37724
3002.03	2.24523
3003.32	1.77798
3004.61	1.85759
3005.91	1.33435
3007.2	1.62195
3008.49	1.82335
3009.78	0.610163
3011.07	1.73023
3012.37	1.21412
3013.66	1.14519
3014.95	1.13311
3016.24	0.913746
3017.53	0.334455
3018.82	0.522316
3020.11	0.654528
3021.4	0.604853
3022.69	0.594917
3023.98	0.0137348
3025.27	-0.152245
3026.56	-0.110657
3027.85	0.250183
3029.14	0.0461388
3030.43	-0.209412
3031.71	-0.0608158
3033	0.435223
3034.29	0.269234
3035.58	-0.256536
3036.87	-0.0954189
3038.15	0.323126
3039.44	-0.171774
3040.73	-0.188095
3042.01	-0.0143166
3043.3	-0.430498
3044.59	0.21036
3045.87	0.347637
3047.16	-0.0566425
3048.44	0.104837
3049.73	-0.247511
3051.01	-0.2549
3052.3	0.10799
3053.58	0.0615559
3054.87	0.19101
3056.15	0.713463
3057.43	0.374132
3058.72	0.360262
3060	0.332155
3061.29	0.141649
3062.57	0.239214
3063.85	0.367077
3065.13	0.675215
3066.42	0.130142
3067.7	0.34874
3068.98	0.119537
3070.26	0.501675
3071.54	0.569033
3072.82	0.0623798
3074.11	0.16485
3075.39	0.197121
3076.67	0.296484
3077.95	0.138803
3079.23	0.295822
3080.51	-0.222021
3081.79	0.226942
3083.07	0.285404
3084.35	0.0876884
3085.63	-0.204964
3086.9	-0.105097
3088.18	0.536093
3089.46	0.293392
3090.74	0.0225449
3092.02	0.104195
3093.29	-0.220747
3094.57	0.0789299
3095.85	-0.176769
3097.13	-0.0526047
3098.4	-0.172579
3099.68	0.479534
3100.95	0.00676727
3102.23	0.888628
3103.51	0.105408
3104.78	-0.0130005
3106.06	0.276327
3107.33	-0.0141888
3108.61	0.347275
3109.88	0.115719
3111.16	0.685179
3112.43	0.511835
3113.71	0.16317
3114.98	0.627558
3116.25	1.22677
3117.53	0.0880947
3118.8	0.913361
3120.07	-0.325403
3121.35	0.644165
3122.62	0.242939
3123.89	1.10136
3125.16	0.470072
3126.44	0.557629
3127.71	0.903515
3128.98	0.492998
3130.25	0.935373
3131.52	0.864059
3132.79	0.549276
3134.06	0.733622
3135.33	0.862587
3136.6	0.922586
3137.87	1.10266
3139.14	1.1738
3140.41	0.665684
3141.68	0.9923
3142.95	1.13096
3144.22	0.94832
3145.49	1.27712
3146.76	0.27994
3148.02	0.772648
3149.29	1.22589
