200.398	0.0432634
202.213	0.0512371
204.027	0.060874
205.843	0.777158
207.657	-0.330012
209.47	0.531753
211.283	0.784343
213.097	0.0157557
214.909	-0.461902
216.721	-0.0911016
218.533	-0.13241
220.344	-0.24544
222.157	0.295979
223.967	-0.0323429
225.777	0.341303
227.587	0.0384951
229.396	-0.16776
231.205	-0.0605822
233.016	0.842338
234.824	0.418731
236.632	0.334537
238.439	1.09657
240.247	0.897733
242.053	1.2323
243.86	1.85855
245.666	1.20641
247.474	1.44528
249.279	1.58435
251.085	1.21243
252.889	1.97155
254.694	2.12464
256.498	1.96362
258.301	2.26181
260.105	2.24899
261.908	2.55214
263.71	1.581
265.513	2.17741
267.315	1.4251
269.116	2.74529
270.918	1.48526
272.718	0.922779
274.519	0.647923
276.319	0.877405
278.119	1.32141
279.918	0.510064
281.718	0.780313
283.516	1.04785
285.315	0.616349
287.113	0.832796
288.911	0.401442
290.708	0.522855
292.505	0.2149
294.302	0.650911
296.098	0.299406
297.894	1.14464
299.69	0.437086
301.485	0.374754
303.278	0.502524
305.073	0.0559902
306.867	0.276653
308.661	0.258437
310.454	0.312424
312.247	0.725144
314.04	0.473053
315.833	0.366288
317.623	1.02392
319.415	-0.00743675
321.206	1.08314
322.997	1.4844
324.788	0.144947
326.579	-0.0737448
328.367	0.710524
330.156	0.53879
331.946	0.0784693
333.735	-0.0253582
335.523	0.538285
337.31	-0.312647
339.098	0.102134
340.885	0.17996
342.673	-0.00622559
344.458	0.381136
346.244	-0.258213
348.03	0.106616
349.816	0.352584
351.6	0.0495939
353.385	-0.30158
355.17	-0.343645
356.953	-0.124931
358.737	0.377947
360.521	0.640634
362.304	-0.502237
364.085	0.13911
365.868	0.137074
367.65	0.70375
369.431	0.746589
371.212	0.740861
372.994	0.592288
374.773	-0.0999699
376.554	-0.129615
378.332	-0.0642233
380.112	0.308404
381.892	0.305247
383.669	0.750666
385.448	0.98568
387.225	0.517202
389.003	0.896237
390.781	0.383952
392.557	0.859248
394.334	0.842206
396.109	0.637836
397.885	1.56098
399.66	1.02783
401.436	1.41015
403.211	1.32192
404.984	1.60849
406.759	1.58873
408.532	1.94382
410.306	1.64108
412.078	2.37115
413.851	1.06017
415.623	2.63646
417.395	2.3603
419.166	2.13204
420.938	1.62254
422.708	2.61496
424.477	2.24503
426.248	1.52165
428.017	1.14929
429.788	1.52748
431.556	1.03717
433.326	0.523893
435.093	0.7152
436.86	-0.126138
438.629	0.557227
440.395	0.0653906
442.163	0.861441
443.929	0.950605
445.694	0.756052
447.461	0.326117
449.226	-0.010148
450.99	0.565475
452.756	-0.0266809
454.52	0.315475
456.285	-0.135369
458.048	0.276027
459.811	-0.220707
461.573	-0.18105
463.337	-0.0466013
465.099	0.532187
466.86	0.463965
468.623	0.30632
470.384	-0.011734
472.144	0.205928
473.906	0.632537
475.666	0.288661
477.425	0.570781
479.184	-0.0579996
480.944	0.0107622
482.703	-0.129954
484.461	0.33632
486.218	0.339278
487.975	0.345044
489.734	0.236901
491.491	0.993671
493.247	0.420943
495.003	0.642606
496.759	0.95824
498.516	0.524374
500.271	0.206396
502.025	0.544234
503.779	0.176845
505.533	0.113052
507.287	0.94106
509.042	0.685647
510.795	0.73385
512.547	0.521135
514.299	0.353526
516.051	0.819359
517.803	0.836509
519.554	0.899308
521.305	0.867046
523.055	0.317513
524.805	0.801019
526.555	0.55675
528.307	0.523787
530.056	0.490746
531.805	-0.0346222
533.553	0.703634
535.301	1.39257
537.049	0.933342
538.797	0.939993
540.544	1.08494
542.291	0.156937
544.037	0.696329
545.783	0.653434
547.529	1.05185
549.275	0.383278
551.02	0.804874
552.765	0.161751
554.509	0.23657
556.253	0.473156
557.997	0.317748
559.738	0.416733
561.482	0.792505
563.224	0.938436
564.967	0.0965805
566.709	-0.00824165
568.451	0.783451
570.192	0.657865
571.933	0.235967
573.674	0.343977
575.415	0.362554
577.153	-0.0526247
578.893	-0.282713
580.632	0.797129
582.371	0.407601
584.11	-0.281834
585.849	0.774775
587.587	0.151069
589.323	-0.0833206
591.06	0.233232
592.797	0.848186
594.534	0.358555
596.271	-0.246046
598.005	0.046608
599.741	0.131756
601.476	-0.0141821
603.211	0.206302
604.944	0.148899
606.679	0.618313
608.413	0.0756559
610.147	0.451445
611.878	-0.204799
613.611	0.562104
615.344	0.0916653
617.077	0.194609
618.807	0.0220423
620.539	0.0771618
622.27	0.0619869
623.999	0.205725
625.73	0.554771
627.461	0.311132
629.189	0.00182343
630.919	0.0835886
632.648	-0.242725
634.376	-0.544876
636.105	-0.345251
637.833	-0.0563526
639.559	0.685505
641.287	0.7841
643.013	-0.419809
644.74	0.152657
646.467	-0.367528
648.192	0.183789
649.918	0.602147
651.642	0.730074
653.368	0.749684
655.091	0.273451
656.816	0.710258
658.538	0.579494
660.263	0.676163
661.987	0.33706
663.708	0.839991
665.432	0.31137
667.153	0.282952
668.875	0.779481
670.596	1.32276
672.318	0.793487
674.037	0.724964
675.759	-0.211701
677.478	0.847587
679.196	0.554256
680.917	-0.17767
682.635	0.283259
684.355	0.281648
686.072	0.461625
687.791	0.155908
689.508	-0.704151
691.224	0.438841
692.942	0.291066
694.658	0.741184
696.376	0.0614891
698.091	0.715809
699.805	1.16086
701.522	0.0399723
703.236	0.0683575
704.95	0.807769
706.665	0.0535936
708.379	0.859437
710.093	-0.307115
711.806	1.2522
713.518	0.360883
715.23	0.293582
716.943	0.842755
718.655	0.0908041
720.366	0.252062
722.078	0.732024
723.788	-0.176674
725.498	0.689242
727.208	1.07628
728.919	0.418165
730.628	0.372821
732.337	0.621486
734.045	0.891986
735.755	0.981133
737.463	1.07059
739.17	1.09308
740.877	0.981573
742.584	0.218561
744.292	0.381253
745.998	0.748141
747.704	1.22907
749.409	0.272035
751.114	0.553899
752.819	0.612511
754.526	0.785394
756.23	0.600232
757.934	0.799685
759.637	0.415503
761.34	1.36246
763.043	0.73218
764.746	0.619989
766.448	0.257713
768.152	1.27169
769.853	1.19819
771.554	1.18977
773.255	1.56383
774.956	1.16837
776.656	1.94934
778.356	1.82762
780.056	1.73058
781.755	0.345516
783.454	0.996608
785.153	1.17133
786.851	1.32045
788.549	1.62381
790.247	2.28439
791.944	1.40329
793.641	1.0634
795.338	1.6937
797.034	1.67039
798.73	1.40157
800.426	1.6307
802.121	1.54658
803.817	1.26107
805.511	1.13299
807.206	1.61066
808.9	1.00832
810.592	1.30287
812.286	1.84238
813.979	1.55119
815.672	1.84218
817.364	1.05893
819.057	1.03694
820.748	0.546247
822.44	1.79722
824.129	1.82103
825.82	1.86895
827.511	1.96424
829.201	1.39512
830.891	1.74323
832.581	1.24875
834.269	1.29167
835.958	1.31375
837.646	1.0009
839.335	0.998852
841.023	0.324655
842.709	0.586741
844.396	1.25048
846.084	0.887142
847.77	1.15189
849.455	1.03974
851.141	1.06506
852.827	0.577493
854.513	1.03256
856.196	0.837051
857.881	0.639764
859.566	1.16006
861.248	0.958195
862.932	0.663819
864.616	0.525255
866.297	1.55765
867.98	0.830882
869.663	0.14829
871.343	0.953818
873.026	1.28555
874.707	0.624448
876.387	0.233979
878.068	0.9042
879.747	0.355542
881.428	0.935047
883.108	0.317177
884.786	0.623497
886.465	0.183115
888.143	-0.439495
889.822	0.650325
891.498	1.03835
893.177	1.10872
894.855	0.88485
896.53	0.390184
898.208	0.254458
899.883	0.835649
901.56	0.249297
903.234	0.491611
904.91	-0.406807
906.584	0.460685
908.26	0.301263
909.933	0.343771
911.608	0.209337
913.28	0.587279
914.955	0.276612
916.627	0.632131
918.298	0.54363
919.972	0.0125484
921.643	0.832589
923.315	0.768517
924.986	0.507884
926.656	-0.125397
928.328	0.391717
929.997	0.446788
931.668	0.811642
933.337	0.294366
935.006	0.659752
936.676	0.628599
938.344	0.223647
940.012	0.878938
941.681	1.18308
943.348	1.40014
945.014	-0.479603
946.683	0.309563
948.349	-0.00721836
950.015	0.401896
951.682	0.434055
953.347	0.267706
955.012	0.588505
956.676	0.846723
958.343	0.535888
960.006	-0.146678
961.67	0.210063
963.333	0.545157
964.998	0.812161
966.661	0.345706
968.323	0.339978
969.985	0.818122
971.649	-0.120784
973.31	0.666149
974.971	-0.115266
976.632	0.543159
978.293	0.208394
979.953	0.339074
981.615	0.469363
983.274	0.664358
984.933	0.0376778
986.592	0.669969
988.251	0.392317
989.909	0.378537
991.567	0.0986423
993.225	1.16614
994.884	0.996313
996.541	0.738602
998.198	1.47337
999.855	1.12717
1001.51	1.15521
1003.17	0.368335
1004.82	0.747637
1006.48	0.203229
1008.13	0.362453
1009.79	0.631596
1011.44	0.835172
1013.1	0.798035
1014.75	0.191995
1016.4	0.550399
1018.06	0.88724
1019.71	0.721833
1021.36	0.339355
1023.01	0.658068
1024.66	0.300507
1026.32	0.337199
1027.97	1.31348
1029.62	0.540927
1031.27	0.793539
1032.92	1.15289
1034.57	0.527682
1036.22	0.381009
1037.87	0.865136
1039.52	0.760583
1041.16	1.1356
1042.81	0.511999
1044.46	2.10765
1046.11	2.03252
1047.76	1.76486
1049.4	2.06438
1051.05	1.99664
1052.7	2.4298
1054.34	2.99412
1055.99	2.58066
1057.63	1.66659
1059.28	1.68639
1060.92	1.59651
1062.57	1.67942
1064.21	0.891219
1065.85	0.188679
1067.5	0.745495
1069.14	0.496699
1070.78	-0.100299
1072.43	-0.0674868
1074.07	0.0743818
1075.71	-0.0644665
1077.35	1.44673
1078.99	0.834237
1080.63	0.353037
1082.27	-0.171481
1083.91	0.582174
1085.55	1.11656
1087.19	-0.0640841
1088.83	0.182866
1090.47	-0.113909
1092.11	0.798713
1093.75	0.0459728
1095.39	-0.27365
1097.03	-0.225163
1098.66	0.363571
1100.3	-0.0363636
1101.94	0.685674
1103.57	0.441676
1105.21	-0.703739
1106.84	0.0660887
1108.48	0.168726
1110.11	0.0978718
1111.75	-0.641368
1113.38	0.0571823
1115.02	0.538477
1116.65	-0.31183
1118.29	0.232592
1119.92	0.327296
1121.55	0.166331
1123.19	0.263825
1124.82	-0.215032
1126.45	0.248719
1128.08	1.26932
1129.71	-0.296517
1131.34	0.148457
1132.97	-0.0261593
1134.6	0.20523
1136.23	-0.0558567
1137.86	-0.061861
1139.49	-0.304461
1141.12	0.0495405
1142.75	0.0610199
1144.38	0.691156
1146.01	0.298346
1147.64	0.269491
1149.26	-0.0350771
1150.89	0.406705
1152.52	0.720551
1154.15	0.139585
1155.77	0.175589
1157.4	-0.320529
1159.02	0.970757
1160.65	0.114861
1162.27	-0.335212
1163.9	0.194203
1165.52	-0.10486
1167.15	0.191102
1168.77	0.65565
1170.39	0.0974073
1172.02	-0.378184
1173.64	0.163406
1175.26	0.0235605
1176.89	0.307111
1178.51	-0.0238295
1180.13	-0.501513
1181.75	-0.194651
1183.37	0.239628
1184.99	0.483329
1186.61	0.38758
1188.23	0.141967
1189.85	0.694971
1191.47	-0.377145
1193.09	0.254335
1194.71	0.0640469
1196.33	-0.209599
1197.94	0.81691
1199.56	0.274827
1201.18	0.113304
1202.8	-0.545319
1204.41	-0.490072
1206.03	1.09119
1207.65	0.212157
1209.26	-0.269866
1210.88	0.415139
1212.49	-0.0701504
1214.11	0.192078
1215.72	-0.486209
1217.34	1.47609
1218.95	0.191056
1220.57	0.527685
1222.18	0.512005
1223.79	1.01614
1225.41	1.31464
1227.02	0.518304
1228.63	0.117826
1230.24	0.815274
1231.85	1.30735
1233.47	0.746984
1235.08	1.3459
1236.69	1.3886
1238.3	0.771322
1239.91	1.4782
1241.52	1.31703
1243.13	1.15532
1244.74	1.11659
1246.34	0.434874
1247.95	1.48985
1249.56	1.1159
1251.17	0.700179
1252.78	1.52593
1254.38	0.82201
1255.99	0.429914
1257.6	0.039485
1259.2	0.416132
1260.81	1.10477
1262.42	0.924926
1264.02	0.330699
1265.63	1.0203
1267.23	0.735047
1268.84	1.25688
1270.44	0.885769
1272.04	0.969247
1273.65	0.491447
1275.25	1.17315
1276.85	0.796315
1278.46	0.998543
1280.06	0.619925
1281.66	1.15184
1283.26	0.586968
1284.86	0.953884
1286.46	0.949708
1288.07	1.38107
1289.67	1.44168
1291.27	1.25511
1292.87	1.31641
1294.47	1.58323
1296.06	0.154552
1297.66	1.01609
1299.26	1.70928
1300.86	1.45091
1302.46	1.68544
1304.06	1.95922
1305.65	0.853889
1307.25	1.72167
1308.85	2.36148
1310.44	1.50383
1312.04	1.54931
1313.64	1.28904
1315.23	1.15329
1316.83	1.97881
1318.42	1.6206
1320.02	2.09866
1321.61	1.94313
1323.2	1.45996
1324.8	1.42238
1326.39	0.997066
1327.99	1.464
1329.58	1.44453
1331.17	1.32627
1332.76	1.09031
1334.36	1.7868
1335.95	1.65757
1337.54	1.79157
1339.13	1.36011
1340.72	1.95405
1342.31	2.12112
1343.9	1.1591
1345.49	1.14119
1347.08	1.48431
1348.67	1.50865
1350.26	1.79679
1351.85	1.62844
1353.43	0.563737
1355.02	-0.118526
1356.61	1.9377
1358.2	0.95577
1359.78	2.04988
1361.37	1.74421
1362.96	1.65696
1364.54	0.951221
1366.13	1.32255
1367.71	1.63491
1369.3	1.35163
1370.88	1.3891
1372.47	1.34906
1374.05	2.00717
1375.64	0.955124
1377.22	1.21653
1378.8	0.959842
1380.39	1.71646
1381.97	1.25739
1383.55	1.49259
1385.13	1.14962
1386.72	1.30293
1388.3	1.17827
1389.88	0.91574
1391.46	1.28972
1393.04	1.01005
1394.62	1.22696
1396.2	0.57106
1397.78	1.203
1399.36	0.901683
1400.94	0.698217
1402.52	1.36504
1404.1	0.626403
1405.68	0.976829
1407.25	1.2689
1408.83	1.12738
1410.41	0.92749
1411.98	0.865921
1413.56	1.13912
1415.14	1.50939
1416.71	1.16804
1418.29	0.826418
1419.87	0.859893
1421.44	0.678276
1423.02	1.26678
1424.59	1.87722
1426.16	1.40709
1427.74	2.04006
1429.31	1.4917
1430.89	1.96548
1432.46	2.02408
1434.03	2.55326
1435.6	2.80603
1437.18	2.78368
1438.75	1.99593
1440.32	2.25167
1441.89	2.35169
1443.46	2.41353
1445.03	2.49567
1446.6	2.20466
1448.17	2.16939
1449.74	2.42944
1451.31	2.72963
1452.88	2.22448
1454.45	2.13281
1456.02	2.67069
1457.59	2.97168
1459.16	1.55849
1460.72	2.62228
1462.29	1.89237
1463.86	1.77004
1465.43	1.66574
1466.99	1.44309
1468.56	2.49735
1470.13	1.98203
1471.69	1.15502
1473.26	0.800805
1474.82	1.54604
1476.38	1.38981
1477.95	1.2534
1479.51	0.724887
1481.08	0.960752
1482.64	0.941667
1484.2	0.88321
1485.77	0.745911
1487.33	1.13636
1488.89	1.52459
1490.46	1.28346
1492.02	1.80181
1493.58	1.45632
1495.14	0.777073
1496.7	0.760248
1498.26	1.01549
1499.82	0.979366
1501.38	0.78961
1502.94	0.776615
1504.5	0.82313
1506.06	1.12166
1507.62	0.877199
1509.18	-0.0251637
1510.73	0.867387
1512.29	0.330263
1513.85	1.17971
1515.41	0.623952
1516.96	0.857625
1518.52	0.708367
1520.08	0.579559
1521.63	0.183453
1523.19	0.475878
1524.75	1.28195
1526.3	0.31121
1527.85	0.693596
1529.41	0.959933
1530.96	1.07356
1532.52	0.903171
1534.07	1.5489
1535.62	0.624745
1537.18	1.4235
1538.73	0.768308
1540.28	1.35956
1541.84	1.1021
1543.39	1.40961
1544.94	1.22735
1546.49	1.1766
1548.04	0.938053
1549.59	1.03731
1551.14	0.518721
1552.69	0.694054
1554.25	1.15079
1555.79	1.17934
1557.34	0.463907
1558.89	1.31938
1560.44	0.927418
1561.99	1.22822
1563.54	1.56811
1565.08	0.808148
1566.63	1.31714
1568.18	1.24735
1569.73	1.58762
1571.27	1.33
1572.82	0.530565
1574.37	1.31762
1575.91	1.09668
1577.46	0.539994
1579	1.53343
1580.55	0.903549
1582.09	0.946951
1583.64	1.90703
1585.18	0.981409
1586.73	1.47673
1588.27	1.59862
1589.81	0.560198
1591.35	1.52324
1592.9	1.68106
1594.44	1.83851
1595.98	1.54645
1597.52	1.31105
1599.06	1.41397
1600.61	1.93076
1602.15	1.15379
1603.69	1.72805
1605.23	1.38133
1606.77	1.53972
1608.31	0.868221
1609.85	1.5465
1611.39	1.54459
1612.93	1.72741
1614.46	1.81412
1616	1.48736
1617.54	1.53656
1619.08	0.83806
1620.61	1.4908
1622.15	1.41504
1623.69	1.28446
1625.23	1.0417
1626.76	1.2471
1628.3	0.440187
1629.83	0.735225
1631.37	1.14053
1632.9	0.92835
1634.44	1.01549
1635.97	2.27916
1637.51	1.75275
1639.04	0.985379
1640.57	1.48597
1642.11	1.7431
1643.64	1.40247
1645.17	1.33953
1646.71	1.23807
1648.24	0.281507
1649.77	1.01655
1651.3	1.06542
1652.83	1.52414
1654.36	1.24256
1655.89	0.999235
1657.42	1.18218
1658.96	1.2898
1660.48	1.48797
1662.01	2.09069
1663.54	1.24885
1665.07	1.40484
1666.6	1.54261
1668.13	0.612103
1669.66	0.661822
1671.19	1.3954
1672.71	1.19075
1674.24	0.876465
1675.77	0.782974
1677.29	0.688406
1678.82	1.56734
1680.35	1.32221
1681.87	0.929204
1683.4	0.536158
1684.92	0.767631
1686.45	1.47613
1687.97	0.296626
1689.5	0.401338
1691.02	0.579546
1692.54	0.336797
1694.07	0.368567
1695.59	0.21725
1697.11	0.266713
1698.64	0.571291
1700.16	0.309102
1701.68	0.648343
1703.2	0.00210667
1704.72	0.412242
1706.25	0.184193
1707.77	-0.0620947
1709.29	0.527449
1710.81	0.154226
1712.33	0.742946
1713.85	0.117029
1715.37	0.650848
1716.89	-0.299529
1718.41	0.450331
1719.92	-0.119388
1721.44	0.178137
1722.96	-0.155025
1724.48	0.018218
1725.99	-0.0949583
1727.51	0.0639238
1729.03	-0.0457458
1730.55	0.365951
1732.06	0.0430422
1733.58	-0.538597
1735.09	-0.122094
1736.61	0.0811987
1738.13	0.063735
1739.64	-0.0289736
1741.15	0.0757885
1742.67	0.663864
1744.18	0.404211
1745.7	0.0467901
1747.21	0.376967
1748.72	0.0142689
1750.24	0.843226
1751.75	0.106149
1753.26	0.508717
1754.77	0.221491
1756.29	-0.0244522
1757.8	0.300415
1759.31	0.294674
1760.82	-0.0308065
1762.33	-0.146235
1763.84	0.152126
1765.35	0.111856
1766.86	-0.38174
1768.37	0.257371
1769.88	0.54179
1771.39	-0.0975752
1772.9	0.126617
1774.4	0.101956
1775.91	0.420884
1777.42	0.0542698
1778.93	0.403675
1780.44	-0.208016
1781.94	0.18885
1783.45	0.424629
1784.96	0.0837774
1786.46	0.154559
1787.97	0.162617
1789.47	0.335374
1790.98	0.0614061
1792.48	0.177829
1793.99	0.241428
1795.49	0.241696
1797	0.497339
1798.5	-0.0489359
1800.01	0.144061
1801.51	-0.1031
1803.01	0.164395
1804.51	-0.160541
1806.02	0.0680504
1807.52	0.527093
1809.02	-0.0168629
1810.52	0.32632
1812.02	0.37186
1813.52	-0.0472298
1815.02	-0.0372562
1816.53	0.466832
1818.03	0.20709
1819.52	-0.245956
1821.02	0.337234
1822.52	0.173645
1824.02	-0.194417
1825.52	0.157665
1827.02	0.0552578
1828.52	0.388788
1830.02	0.199501
1831.51	0.344248
1833.01	0.248109
1834.51	0.0606918
1836.01	0.106032
1837.5	0.34524
1839	0.471374
1840.49	0.42595
1841.99	-0.0423346
1843.49	0.298956
1844.98	0.00945473
1846.48	0.107102
1847.97	0.205474
1849.47	0.0364256
1850.96	0.140829
1852.45	0.133755
1853.95	-0.0306091
1855.44	-0.0481176
1856.93	-0.148826
1858.42	-0.384308
1859.92	-0.326345
1861.41	0.166193
1862.9	0.16553
1864.39	0.642686
1865.88	0.374271
1867.38	0.0834856
1868.87	0.106388
1870.36	0.10073
1871.85	0.25636
1873.34	0.490709
1874.83	0.16012
1876.32	0.216156
1877.81	0.217673
1879.29	-0.232389
1880.78	-0.0922613
1882.27	0.0808344
1882.53	0.109697
1884.03	-0.0845385
1885.52	0.0686913
1887.01	0.429453
1888.51	0.0927515
1890	0.0698957
1891.5	0.0138111
1892.99	0.151484
1894.48	0.34411
1895.97	0.347917
1897.47	0.126958
1898.96	0.584154
1900.45	0.465779
1901.94	-0.00305748
1903.43	0.134247
1904.92	-0.130579
1906.41	-0.153102
1907.9	0.154303
1909.39	0.427645
1910.88	0.511393
1912.37	0.371017
1913.86	0.0928593
1915.35	0.49123
1916.84	0.178121
1918.33	-0.0143356
1919.81	0.451051
1921.3	0.257815
1922.79	0.186561
1924.28	0.255215
1925.76	0.291011
1927.25	0.241921
1928.73	0.124579
1930.22	0.37081
1931.71	0.200212
1933.19	-0.578629
1934.68	-0.0614986
1936.16	0.00284481
1937.65	-0.245912
1939.13	-0.771481
1940.62	0.309925
1942.1	0.269642
1943.58	0.662294
1945.07	0.831863
1946.55	0.0882769
1948.03	0.120309
1949.51	0.0478201
1951	0.318225
1952.48	0.328784
1953.96	0.080513
1955.44	0.794745
1956.92	0.478319
1958.4	0.609598
1959.88	-0.0643282
1961.36	0.1034
1962.84	0.579828
1964.32	0.250336
1965.8	0.297109
1967.28	0.205844
1968.76	-0.0573692
1970.24	-0.0134649
1971.72	-0.0724983
1973.2	0.0562286
1974.67	-0.633751
1976.15	0.433024
1977.63	0.510745
1979.1	-0.0752859
1980.58	0.411036
1982.06	-0.259439
1983.54	-0.148062
1985.01	-0.0712881
1986.49	0.0389099
1987.96	-0.071393
1989.44	0.462468
1990.91	0.539726
1992.39	0.330866
1993.86	0.123806
1995.33	0.340669
1996.81	0.338452
1998.28	0.84284
1999.75	0.0800323
2001.23	0.380014
2002.7	0.0549021
2004.17	0.10078
2005.65	0.433587
2007.12	0.413586
2008.59	-0.261622
2010.06	0.310618
2011.53	0.344848
2013	-0.260432
2014.47	0.210854
2015.94	-0.0595055
2017.41	0.240745
2018.88	0.00154305
2020.35	0.333016
2021.82	0.495996
2023.29	0.239717
2024.76	0.203013
2026.23	-0.200852
2027.69	0.303293
2029.16	0.0885067
2030.63	0.0434723
2032.1	-0.100783
2033.56	0.192067
2035.03	-0.287379
2036.5	0.122616
2037.96	0.868104
2039.43	0.504074
2040.89	0.122991
2042.36	0.213136
2043.83	0.27085
2045.29	0.548779
2046.75	-0.6029
2048.22	0.333457
2049.68	0.27594
2051.15	0.520297
2052.61	0.307048
2054.07	0.731804
2055.54	-0.0603695
2057	0.140341
2058.46	0.356549
2059.92	-0.0677109
2061.39	0.266673
2062.85	0.130792
2064.31	-0.0708027
2065.77	0.116228
2067.23	-0.149847
2068.69	0.409649
2070.15	-0.19172
2071.61	-0.153408
2073.07	0.389834
2074.53	-0.0607147
2075.99	0.414375
2077.45	-0.171998
2078.91	0.487194
2080.37	0.455235
2081.82	0.371917
2083.28	0.102448
2084.74	-0.0670357
2086.2	0.452175
2087.65	0.213388
2089.11	0.226278
2090.57	0.373228
2092.02	0.754947
2093.48	0.0958023
2094.94	-0.110211
2096.39	0.0184813
2097.85	0.447493
2099.3	0.238969
2100.76	-0.00315189
2102.21	0.290152
2103.66	0.300421
2105.12	0.295959
2106.57	0.393716
2108.03	0.309559
2109.48	-0.207582
2110.93	0.124932
2112.38	-0.0446396
2113.84	0.033246
2115.29	-0.573545
2116.74	0.598209
2118.19	0.107415
2119.64	0.482488
2121.09	-0.00262165
2122.54	-0.103031
2123.99	-0.035449
2125.45	-0.265388
2126.89	0.150945
2128.34	0.366756
2129.79	0.14956
2131.24	0.642805
2132.69	-0.189878
2134.14	-0.244122
2135.59	0.248461
2137.04	0.0651312
2138.48	0.215109
2139.93	0.880189
2141.38	0.622256
2142.83	-0.212811
2144.27	-0.236969
2145.72	0.16936
2147.17	0.277572
2148.61	0.285564
2150.06	-0.2047
2151.5	0.281013
2152.95	0.135736
2154.39	-0.060421
2155.84	0.488303
2157.28	0.109396
2158.73	0.013155
2160.17	0.21699
2161.61	0.589141
2163.06	-0.0470476
2164.5	0.147696
2165.94	0.310718
2167.38	-0.273811
2168.83	-0.328572
2170.27	-0.319304
2171.71	-0.196484
2173.15	0.206485
2174.59	0.258137
2176.03	0.242426
2177.47	0.626064
2178.91	0.744708
2180.36	0.415905
2181.8	0.570532
2183.23	-0.072175
2184.67	0.333169
2186.11	0.206426
2187.55	0.412447
2188.99	0.435551
2190.43	-0.190543
2191.87	0.314863
2193.3	0.469676
2194.74	0.189698
2196.18	0.4232
2197.62	-0.0950413
2199.05	0.199584
2200.49	-0.0227318
2201.93	-0.078908
2203.36	0.214327
2204.8	-0.137877
2206.23	0.224386
2207.67	0.47114
2209.1	0.469028
2210.54	0.184405
2211.97	0.494122
2213.41	0.0750399
2214.84	-0.0958662
2216.27	-0.117127
2217.71	0.407674
2219.14	-0.204058
2220.57	0.207988
2222.01	0.685895
2223.44	0.0421295
2224.87	0.319052
2226.3	-0.147346
2227.73	0.206632
2229.16	0.640157
2230.6	0.284144
2232.03	0.534906
2233.46	0.507268
2234.89	0.562586
2236.32	0.946304
2237.75	0.41767
2239.18	0.055686
2240.61	0.56144
2242.03	0.0748148
2243.46	0.454487
2244.89	0.23121
2246.32	0.0232658
2247.75	0.220767
2249.17	0.496484
2250.6	0.60564
2252.03	0.14228
2253.46	-0.142616
2254.88	0.304547
2256.31	-0.172237
2257.73	0.279866
2259.16	-0.010375
2260.59	0.206642
2262.01	0.183904
2263.44	0.439603
2264.86	0.224765
2266.29	0.187999
2267.71	-0.0777311
2269.14	0.403595
2270.56	-0.174104
2271.98	0.354403
2273.4	0.671158
2274.83	0.564651
2276.25	0.132516
2277.67	0.564229
2279.09	0.213751
2280.52	0.0260735
2281.94	0.751517
2283.36	0.204624
2284.78	0.685607
2286.2	0.269404
2287.62	-0.309769
2289.04	0.728355
2290.46	0.362608
2291.88	0.0296736
2293.3	0.187261
2294.72	-0.129532
2296.14	-0.0375099
2297.56	0.398398
2298.98	0.163066
2300.4	0.190052
2301.82	0.266665
2303.23	0.0648718
2304.65	0.0272474
2306.07	-0.043376
2307.49	-0.0159912
2308.9	0.0270586
2310.32	0.463937
2311.73	0.0286942
2313.15	0.136118
2314.57	0.145447
2315.98	0.0570631
2317.4	0.282771
2318.81	-0.150001
2320.23	-0.154761
2321.64	0.135889
2323.06	0.0608473
2324.47	0.246429
2325.88	0.692551
2327.3	0.674023
2328.71	0.407138
2330.12	0.157317
2331.54	0.0901594
2332.95	-0.353836
2334.36	0.00989151
2335.77	0.637021
2337.18	0.0625868
2338.6	0.029604
2340.01	-0.0379
2341.42	-0.221665
2342.83	0.644349
2344.24	-0.0160084
2345.65	-0.527593
2347.06	-0.0390139
2348.47	-0.042057
2349.88	0.216071
2351.29	0.227489
2352.7	0.319074
2354.1	0.066432
2355.51	-0.0726299
2356.92	0.439389
2358.33	0.29968
2359.74	0.599132
2361.14	0.459881
2362.55	0.0939198
2363.96	0.457372
2365.36	-0.0212889
2366.77	0.228586
2368.18	0.0590734
2369.58	0.375333
2370.99	-0.451387
2372.39	-0.292434
2373.8	-0.0194769
2375.2	0.269897
2376.61	0.124059
2378.01	-0.167945
2379.42	-0.365388
2380.82	-0.0351496
2382.22	0.228194
2383.63	-0.00687313
2385.03	0.909943
2386.43	0.49115
2387.84	0.0746679
2389.24	-0.0920801
2390.64	-0.113312
2392.04	0.137837
2393.44	-0.039443
2394.84	0.118666
2396.25	0.00741577
2397.65	0.167355
2399.05	-0.402836
2400.45	0.187604
2401.85	0.15885
2403.25	-0.330389
2404.65	0.68843
2406.05	0.530783
2407.45	0.213159
2408.84	0.386282
2410.24	0.495321
2411.64	-0.124192
2413.04	-0.346052
2414.44	-0.185976
2415.83	-0.0871658
2417.23	-0.318892
2418.63	0.0998249
2420.02	0.265835
2421.42	0.209961
2422.82	0.0109634
2424.21	-0.140967
2425.61	0.657939
2427	0.0789928
2428.4	0.309579
2429.8	0.00251007
2431.19	0.37847
2432.58	0.453384
2433.98	0.797582
2435.37	0.298288
2436.77	0.336782
2438.16	-0.00830746
2439.55	0.121335
2440.95	0.233688
2442.34	-0.273934
2443.73	0.583053
2445.12	-0.273942
2446.51	0.12206
2447.91	-0.163919
2449.3	-0.243742
2450.69	0.199325
2452.08	0.373759
2453.47	-0.0203857
2454.86	0.457007
2456.25	0.634763
2457.64	0.0853519
2459.03	0.200085
2460.42	-0.302816
2461.81	0.236819
2463.2	-0.0311003
2464.59	-0.23648
2465.98	-0.0789042
2467.36	0.33096
2468.75	-0.127426
2470.14	0.029377
2471.53	0.0277338
2472.92	0.245634
2474.3	0.477856
2475.69	-0.329423
2477.08	-0.55442
2478.46	0.178839
2479.85	0.252102
2481.23	-0.0978518
2482.62	0.226336
2484	0.173597
2485.39	0.182213
2486.77	0.00166607
2488.16	-0.258087
2489.54	0.0115986
2490.93	0.124732
2492.31	-0.321257
2493.69	0.182472
2495.08	0.144205
2496.46	-0.186643
2497.84	0.258672
2499.23	-0.0237103
2500.61	0.0804892
2501.99	-0.1257
2503.37	-0.240302
2504.75	-0.00119495
2506.13	-0.102468
2507.52	-0.157699
2508.9	-0.0742655
2510.28	-0.0364704
2511.66	-0.18193
2513.04	0.0418777
2514.42	0.343151
2515.8	0.14019
2517.18	-0.0766783
2518.55	0.0285454
2519.93	-0.0800238
2521.31	0.437313
2522.69	0.266223
2524.07	0.109371
2525.45	0.271755
2526.82	0.189839
2528.2	-0.165235
2529.58	0.0595808
2530.95	0.134464
2532.33	-0.12253
2533.71	0.184666
2535.08	-0.251565
2536.46	-0.0801554
2537.84	0.166234
2539.21	-0.0748501
2540.59	0.229573
2541.96	0.0475864
2543.34	0.503359
2544.71	0.247221
2546.08	-0.204219
2547.46	0.347236
2548.83	0.111168
2550.2	0.375854
2551.58	0.0632219
2552.95	-0.0686617
2554.32	-0.1565
2555.7	-0.351786
2557.07	0.11961
2558.44	0.241797
2559.81	0.333993
2561.18	0.426935
2562.55	0.248016
2563.93	-0.172473
2565.3	-0.0164909
2566.67	0.367177
2568.04	-0.158306
2569.41	0.528656
2570.78	0.200175
2572.15	-0.188907
2573.51	-0.077692
2574.88	0.473312
2576.25	-0.476499
2577.62	-0.24391
2578.99	0.458442
2580.36	0.311176
2581.73	-0.00348186
2583.09	0.212015
2584.46	0.30584
2585.83	0.157043
2587.19	0.387362
2588.56	-0.473273
2589.93	0.287896
2591.29	0.215341
2592.66	0.399697
2594.02	0.0677509
2595.39	0.38567
2596.75	0.535307
2598.12	0.169261
2599.48	0.679969
2600.85	0.132545
2602.21	0.0999203
2603.58	0.430583
2604.94	-0.219017
2606.3	0.39922
2607.67	0.0213308
2609.03	0.00427437
2610.39	0.211425
2611.76	0.310998
2613.12	-0.10253
2614.48	0.0394163
2615.84	0.360755
2617.2	-0.322567
2618.56	0.269267
2619.92	0.292576
2621.28	-0.206403
2622.65	0.088006
2624.01	0.307694
2625.37	0.855304
2626.72	0.104449
2628.08	0.114135
2629.44	0.793396
2630.8	0.0132523
2632.16	-0.290095
2633.52	0.357633
2634.88	0.024704
2636.24	0.122339
2637.59	0.27907
2638.95	0.243149
2640.31	0.340655
2641.67	0.467973
2643.02	-0.187444
2644.38	-0.531682
2645.74	-0.123176
2647.09	0.254685
2648.45	-0.0171394
2649.8	0.681577
2651.16	-0.0774708
2652.51	-0.159876
2653.87	0.242344
2655.22	0.0878973
2656.58	0.0378189
2657.93	0.50175
2659.29	0.512982
2660.64	-0.0600452
2661.99	0.11261
2663.35	0.999912
2664.7	0.118735
2666.05	-0.0038538
2667.41	0.06252
2668.76	0.114093
2670.11	0.442428
2671.46	0.218555
2672.81	0.141214
2674.16	0.544093
2675.51	-0.184732
2676.87	0.0164537
2678.22	0.523001
2679.57	0.291001
2680.92	0.0461178
2682.27	0.397405
2683.62	0.416992
2684.97	0.0463572
2686.31	0.909512
2687.66	-0.0123138
2689.01	0.0799398
2690.36	0.126258
2691.71	0.387656
2693.06	0.196915
2694.4	0.61397
2695.75	0.682491
2697.1	-0.044838
2698.45	0.171496
2699.79	0.39016
2701.14	0.263834
2702.49	0.212052
2703.83	0.00235558
2705.18	0.503603
2706.52	0.193148
2707.87	0.389906
2709.21	0.1072
2710.56	0.593404
2711.9	0.0481367
2713.25	0.374205
2714.59	0.206162
2715.94	0.270575
2717.28	0.233016
2718.62	0.427832
2719.97	0.593109
2721.31	0.335734
2722.65	0.354128
2723.99	0.430064
2725.34	0.607262
2726.68	0.376356
2728.02	0.290556
2729.36	-0.159376
2730.7	0.729239
2732.04	-0.142792
2733.39	0.512939
2734.73	0.252424
2736.07	0.38495
2737.41	0.532203
2738.75	-0.018652
2740.08	0.288196
2741.43	0.0563192
2742.76	0.245186
2744.1	0.447495
2745.44	0.358216
2746.78	0.297434
2748.12	0.323525
2749.46	0.0014534
2750.79	0.216543
2752.13	0.19988
2753.47	0.285016
2754.81	-0.267123
2756.14	0.1372
2757.48	0.324329
2758.81	-0.0528231
2760.15	-0.429253
2761.49	0.294907
2762.82	0.165884
2764.16	0.239902
2765.49	-0.293775
2766.83	0.17023
2768.16	0.271182
2769.5	0.138891
2770.83	-0.0820599
2772.16	0.056386
2773.5	0.0200148
2774.83	0.271264
2776.17	0.161922
2777.5	-0.105
2778.83	0.276403
2780.16	-0.0748749
2781.5	0.106125
2782.83	0.229624
2784.16	0.152107
2785.49	-0.240635
2786.82	-0.1313
2788.15	-0.0643272
2789.49	0.161065
2790.82	0.37326
2792.15	0.400584
2793.48	0.242743
2794.81	-0.115046
2796.14	0.15556
2797.46	0.225267
2798.79	-0.44833
2800.12	0.091157
2801.45	0.187567
2802.78	-0.0300589
2804.11	-0.162318
2805.44	0.075264
2806.76	0.0128136
2808.09	-0.135773
2809.42	-0.48367
2810.75	0.0778694
2812.07	-0.325524
2813.4	0.52126
2814.73	0.206831
2816.05	0.206509
2817.38	0.448753
2818.7	-0.342826
2820.03	-0.312309
2821.36	0.553802
2822.68	0.370137
2824.01	-0.0552073
2825.33	0.510683
2826.65	0.48161
2827.98	0.424999
2829.3	0.567425
2830.63	0.809614
2831.95	1.16535
2833.27	0.629237
2834.6	0.913655
2835.92	0.277431
2837.24	1.09804
2838.56	1.32353
2839.88	1.56276
2841.21	1.97169
2842.53	1.92877
2843.85	2.65007
2845.17	2.90604
2846.49	2.27267
2847.81	2.20516
2849.13	1.75608
2850.45	2.26767
2851.77	2.45346
2853.09	2.66674
2854.41	1.70655
2855.73	2.17337
2857.05	2.8802
2858.37	2.97957
2859.69	2.72584
2861	3.20619
2862.32	2.50006
2863.64	3.57205
2864.96	3.95173
2866.28	3.54123
2867.59	3.44161
2868.91	3.87852
2870.23	3.2586
2871.54	3.58352
2872.86	3.93616
2874.17	4.38617
2875.49	3.79204
2876.81	4.40754
2878.12	4.27546
2879.44	4.39624
2880.75	4.48929
2882.07	4.40086
2883.38	4.1175
2884.69	4.22891
2886.01	3.84986
2887.32	4.28512
2888.63	4.3407
2889.95	4.46525
2891.26	4.3501
2892.57	4.44439
2893.89	4.2302
2895.2	4.10078
2896.51	4.72852
2897.82	4.29395
2899.13	4.68656
2900.44	4.03104
2901.76	4.69125
2903.07	4.16275
2904.38	4.38983
2905.69	4.47745
2907	4.91558
2908.31	4.73945
2909.62	5.27806
2910.93	5.27194
2912.24	5.12586
2913.55	5.14666
2914.85	5.79554
2916.16	5.32199
2917.47	5.37826
2918.78	5.32121
2920.09	5.23603
2921.4	5.6692
2922.7	5.81036
2924.01	5.50618
2925.32	5.56704
2926.62	6.39765
2927.93	5.78851
2929.24	5.6961
2930.54	5.42123
2931.85	5.70495
2933.15	5.8066
2934.46	6.02005
2935.76	5.21344
2937.07	5.63697
2938.37	5.73934
2939.68	5.75828
2940.98	5.61026
2942.29	4.68087
2943.59	4.60543
2944.89	4.95117
2946.2	4.47357
2947.5	3.92647
2948.8	4.69436
2950.11	4.81726
2951.41	4.26574
2952.71	3.65571
2954.01	3.88409
2955.32	4.33591
2956.62	3.61311
2957.92	3.83079
2959.22	3.74407
2960.52	3.53484
2961.82	3.44016
2963.12	3.31831
2964.42	3.78527
2965.72	3.35195
2967.02	3.46418
2968.32	3.1109
2969.62	3.29082
2970.92	3.0347
2972.22	2.58191
2973.51	2.2138
2974.81	2.21151
2976.11	2.81391
2977.41	2.17575
2978.71	2.42251
2980	2.484
2981.3	2.17793
2982.6	2.32151
2983.9	1.86092
2985.19	1.96428
2986.49	1.7464
2987.78	1.53049
2989.08	1.45643
2990.38	1.24221
2991.67	1.75826
2992.97	1.09245
2994.26	1.08565
2995.56	0.951052
2996.85	0.970111
2998.14	0.890697
2999.44	0.657422
3000.73	0.719525
3002.03	0.768377
3003.32	1.35027
3004.61	0.993457
3005.91	0.356491
3007.2	0.475163
3008.49	0.620685
3009.78	0.499263
3011.07	0.418992
3012.37	0.701339
3013.66	0.243928
3014.95	0.401175
3016.24	-0.220914
3017.53	0.230802
3018.82	0.153988
3020.11	0.286036
3021.4	-0.263622
3022.69	0.200323
3023.98	0.0378571
3025.27	-0.347049
3026.56	0.293481
3027.85	-0.145799
3029.14	-0.320114
3030.43	0.115734
3031.71	0.194043
3033	0.0114737
3034.29	0.0917215
3035.58	-0.132194
3036.87	0.331846
3038.15	0.200575
3039.44	0.149692
3040.73	-0.782676
3042.01	0.207891
3043.3	0.57896
3044.59	0.0468941
3045.87	-0.180843
3047.16	0.387079
3048.44	0.384007
3049.73	0.151872
3051.01	0.222249
3052.3	0.744054
3053.58	0.50182
3054.87	-0.000333786
3056.15	0.205645
3057.43	0.178394
3058.72	0.2456
3060	0.217146
3061.29	0.202908
3062.57	-0.177176
3063.85	0.668577
3065.13	0.510105
3066.42	0.475978
3067.7	0.0353832
3068.98	0.329595
3070.26	-0.0972157
3071.54	0.426991
3072.82	0.364861
3074.11	0.858566
3075.39	0.80716
3076.67	1.10852
3077.95	0.13436
3079.23	0.804283
3080.51	0.716316
3081.79	0.535671
3083.07	0.750188
3084.35	0.43662
3085.63	0.218112
3086.9	0.446971
3088.18	0.308542
3089.46	0.332183
3090.74	0.667418
3092.02	0.527601
3093.29	-0.100134
3094.57	0.303512
3095.85	-0.0382404
3097.13	0.582841
3098.4	0.526049
3099.68	0.0627222
3100.95	0.588513
3102.23	0.166256
3103.51	0.584092
3104.78	0.203935
3106.06	0.867055
3107.33	0.529982
3108.61	1.1688
3109.88	0.496375
3111.16	0.75929
3112.43	0.576523
3113.71	0.841462
3114.98	0.80846
3116.25	1.22242
3117.53	0.740344
3118.8	0.745101
3120.07	0.802805
3121.35	0.778041
3122.62	0.72555
3123.89	0.686534
3125.16	1.37907
3126.44	1.07022
3127.71	0.870759
3128.98	1.28088
3130.25	0.907172
3131.52	0.844821
3132.79	1.17436
3134.06	1.20616
3135.33	1.33187
3136.6	1.33536
3137.87	1.44619
3139.14	1.52955
3140.41	1.50503
3141.68	1.46732
3142.95	1.28247
3144.22	0.669129
3145.49	1.7077
3146.76	1.53938
3148.02	1.30538
3149.29	1.72862
