200.398	0.1756
202.213	0.220568
204.027	0.268028
205.843	-0.314875
207.657	-0.0944729
209.47	-0.312702
211.283	0.268536
213.097	0.215307
214.909	-0.0343094
216.721	0.102919
218.533	0.0946274
220.344	0.377941
222.157	0.783733
223.967	0.320515
225.777	1.23637
227.587	0.653872
229.396	-0.0497131
231.205	0.718374
233.016	-0.0830326
234.824	0.708273
236.632	0.247982
238.439	0.852547
240.247	1.36587
242.053	0.702742
243.86	2.09241
245.666	2.42135
247.474	3.59222
249.279	3.7673
251.085	3.8625
252.889	4.7233
254.694	4.4451
256.498	4.2383
258.301	4.0817
260.105	5.42278
261.908	4.7446
263.71	5.05828
265.513	3.23025
267.315	5.16199
269.116	4.68322
270.918	3.38255
272.718	3.13972
274.519	3.59273
276.319	2.71593
278.119	3.23294
279.918	3.81703
281.718	2.85504
283.516	1.45721
285.315	1.42808
287.113	2.76523
288.911	1.36605
290.708	1.7437
292.505	1.76436
294.302	1.90791
296.098	-0.121222
297.894	1.27118
299.69	0.10717
301.485	1.09308
303.278	-0.120169
305.073	0.71739
306.867	0.311672
308.661	0.477844
310.454	1.33573
312.247	0.885324
314.04	0.509947
315.833	1.0194
317.623	1.34206
319.415	0.977293
321.206	0.0902786
322.997	1.04009
324.788	1.08511
326.579	0.34239
328.367	1.19884
330.156	0.835676
331.946	0.780479
333.735	0.769402
335.523	0.0597801
337.31	0.996336
339.098	0.851511
340.885	1.18157
342.673	0.362011
344.458	-0.672232
346.244	0.110415
348.03	-0.252337
349.816	0.102173
351.6	-0.116364
353.385	0.594625
355.17	0.301035
356.953	-0.615122
358.737	0.373283
360.521	-0.571051
362.304	0.125898
364.085	-0.202394
365.868	-0.317936
367.65	-0.245119
369.431	0.845268
371.212	0.889204
372.994	1.16799
374.773	0.31078
376.554	-0.143244
378.332	0.182774
380.112	2.01751
381.892	0.862062
383.669	-0.194923
385.448	0.515017
387.225	1.17969
389.003	0.671629
390.781	0.917353
392.557	1.23508
394.334	1.81235
396.109	1.89717
397.885	2.17006
399.66	2.55992
401.436	3.25411
403.211	3.99372
404.984	4.02677
406.759	3.42389
408.532	2.74923
410.306	3.2476
412.078	3.29981
413.851	3.63447
415.623	3.97065
417.395	3.62824
419.166	3.87393
420.938	3.79171
422.708	4.83558
424.477	4.98583
426.248	3.79559
428.017	3.75355
429.788	2.72438
431.556	2.51668
433.326	2.96675
435.093	1.18792
436.86	1.68551
438.629	1.47745
440.395	1.1489
442.163	0.558081
443.929	0.0334625
445.694	0.559687
447.461	0.567371
449.226	0.807713
450.99	0.0196495
452.756	0.37731
454.52	0.524845
456.285	-0.237
458.048	-0.951471
459.811	0.382956
461.573	0.0888386
463.337	0.379141
465.099	0.0699615
466.86	0.277857
468.623	0.0730515
470.384	0.15107
472.144	0.253773
473.906	0.634462
475.666	1.5008
477.425	0.61557
479.184	-0.06427
480.944	0.255262
482.703	0.36524
484.461	0.430927
486.218	1.17619
487.975	0.994349
489.734	1.28322
491.491	0.360968
493.247	0.46653
495.003	0.970255
496.759	1.02994
498.516	0.807922
500.271	0.842405
502.025	1.32143
503.779	1.61131
505.533	1.52293
507.287	1.03159
509.042	0.559895
510.795	2.01383
512.547	2.28793
514.299	1.24083
516.051	1.22598
517.803	1.53761
519.554	1.94068
521.305	2.08308
523.055	1.89536
524.805	2.27054
526.555	2.90322
528.307	1.7298
530.056	1.93996
531.805	2.38313
533.553	2.00462
535.301	1.13266
537.049	1.73122
538.797	1.01794
540.544	1.726
542.291	1.38226
544.037	1.48036
545.783	1.36889
547.529	1.76857
549.275	0.823215
551.02	1.40873
552.765	0.674791
554.509	1.97616
556.253	1.26711
557.997	1.71329
559.738	1.37639
561.482	1.54767
563.224	1.58192
564.967	1.06574
566.709	0.712435
568.451	0.958151
570.192	0.792839
571.933	0.860041
573.674	0.655558
575.415	-0.049736
577.153	1.24468
578.893	0.568754
580.632	0.537037
582.371	1.51663
584.11	0.886703
585.849	1.47287
587.587	0.952301
589.323	1.46407
591.06	0.501175
592.797	-0.232939
594.534	0.850122
596.271	0.322701
598.005	0.0252781
599.741	-0.0428848
601.476	-0.41188
603.211	-0.162514
604.944	-0.146358
606.679	0.257462
608.413	0.314453
610.147	1.01356
611.878	0.359529
613.611	0.624907
615.344	-0.0022831
617.077	0.95223
618.807	0.943047
620.539	0.771139
622.27	0.779564
623.999	0.511627
625.73	0.655048
627.461	-0.226852
629.189	0.288399
630.919	0.694431
632.648	-0.0587025
634.376	0.673954
636.105	1.08665
637.833	1.33578
639.559	0.871189
641.287	0.514158
643.013	-0.144239
644.74	0.447783
646.467	0.152014
648.192	0.997326
649.918	1.34882
651.642	0.141277
653.368	0.737658
655.091	0.250523
656.816	0.792408
658.538	1.01863
660.263	0.856621
661.987	1.12471
663.708	1.18229
665.432	1.50859
667.153	1.46467
668.875	0.824106
670.596	0.207567
672.318	0.807821
674.037	0.40671
675.759	0.307844
677.478	0.831203
679.196	0.0699577
680.917	-0.23509
682.635	0.35273
684.355	1.16671
686.072	0.963541
687.791	-0.510254
689.508	0.132284
691.224	0.335562
692.942	-0.107582
694.658	0.138657
696.376	-0.607605
698.091	0.255381
699.805	-0.334791
701.522	0.406866
703.236	0.20315
704.95	-0.805817
706.665	0.457521
708.379	-0.0248795
710.093	-0.209597
711.806	-0.00561523
713.518	-0.100098
715.23	-0.0120964
716.943	0.94313
718.655	-0.49839
720.366	0.661228
722.078	-0.00267601
723.788	0.631615
725.498	0.377916
727.208	0.555532
728.919	1.09486
730.628	0.498594
732.337	-0.640991
734.045	0.0764923
735.755	0.543875
737.463	0.130484
739.17	-0.506302
740.877	0.933912
742.584	0.414869
744.292	-0.0555382
745.998	-0.61235
747.704	0.341524
749.409	0.0833015
751.114	0.0978889
752.819	0.430246
754.526	-0.0441685
756.23	0.227112
757.934	-0.308514
759.637	-0.0980606
761.34	0.182835
763.043	1.23255
764.746	1.76402
766.448	0.350611
768.152	1.44078
769.853	1.66756
771.554	1.23386
773.255	0.706347
774.956	1.28569
776.656	0.577318
778.356	2.06507
780.056	1.0012
781.755	1.22892
783.454	2.0683
785.153	1.2985
786.851	0.206352
788.549	0.0355263
790.247	1.19221
791.944	0.804176
793.641	1.06786
795.338	1.12722
797.034	0.467161
798.73	0.104536
800.426	1.27691
802.121	0.494024
803.817	1.44506
805.511	1.83306
807.206	1.36499
808.9	0.759989
810.592	0.759033
812.286	0.912863
813.979	0.773806
815.672	1.39552
817.364	1.03185
819.057	0.847696
820.748	1.02149
822.44	1.79827
824.129	0.948051
825.82	1.8847
827.511	1.08795
829.201	1.56728
830.891	0.271881
832.581	1.38844
834.269	0.906052
835.958	0.782433
837.646	1.90816
839.335	0.911263
841.023	0.714062
842.709	1.07226
844.396	1.22825
846.084	0.670523
847.77	0.541222
849.455	1.26751
851.141	1.08262
852.827	0.902
854.513	1.08233
856.196	1.39759
857.881	0.586838
859.566	0.895987
861.248	0.638525
862.932	0.805021
864.616	0.315117
866.297	0.0707397
867.98	-0.581137
869.663	1.15636
871.343	0.119234
873.026	0.908705
874.707	1.38233
876.387	0.75037
878.068	-0.0848598
879.747	0.00500298
881.428	0.319817
883.108	0.633051
884.786	1.03409
886.465	0.935148
888.143	0.719774
889.822	-0.807177
891.498	-0.172207
893.177	0.120974
894.855	0.0284004
896.53	0.495529
898.208	0.82453
899.883	-0.195316
901.56	-0.296162
903.234	0.586555
904.91	-0.209713
906.584	0.447428
908.26	-0.0104065
909.933	0.492489
911.608	-0.204967
913.28	0.523077
914.955	-0.303759
916.627	0.135603
918.298	-0.57848
919.972	0.258869
921.643	0.852669
923.315	0.453375
924.986	-0.316982
926.656	-0.441875
928.328	-0.364103
929.997	0.334492
931.668	-0.0245552
933.337	0.0363865
935.006	1.20061
936.676	0.623228
938.344	0.555262
940.012	0.490229
941.681	0.957581
943.348	0.14724
945.014	0.174978
946.683	1.03893
948.349	0.772783
950.015	0.965471
951.682	0.603342
953.347	0.153271
955.012	0.831627
956.676	0.458113
958.343	0.312939
960.006	0.0200615
961.67	1.25481
963.333	0.236639
964.998	-0.30019
966.661	-0.401281
968.323	-0.132938
969.985	-0.599817
971.649	-0.206141
973.31	0.254742
974.971	-0.0107536
976.632	1.03301
978.293	0.377663
979.953	0.409706
981.615	0.440931
983.274	1.11095
984.933	-0.437538
986.592	0.997229
988.251	0.634501
989.909	0.976488
991.567	1.82469
993.225	0.992775
994.884	1.97211
996.541	2.28881
998.198	2.53894
999.855	3.44926
1001.51	3.30031
1003.17	2.73223
1004.82	2.49388
1006.48	2.14564
1008.13	2.19345
1009.79	1.45205
1011.44	1.48033
1013.1	0.698858
1014.75	1.97831
1016.4	0.849274
1018.06	1.21064
1019.71	0.436447
1021.36	1.54576
1023.01	1.06174
1024.66	1.47649
1026.32	1.08423
1027.97	2.00318
1029.62	2.22118
1031.27	2.89448
1032.92	2.18758
1034.57	3.04776
1036.22	1.76632
1037.87	2.00944
1039.52	2.68719
1041.16	3.49613
1042.81	3.52504
1044.46	3.4285
1046.11	3.7937
1047.76	4.22937
1049.4	5.21282
1051.05	6.67808
1052.7	5.66984
1054.34	6.87881
1055.99	5.4585
1057.63	6.36281
1059.28	6.43976
1060.92	4.57949
1062.57	3.26034
1064.21	3.0693
1065.85	2.54929
1067.5	2.09164
1069.14	1.63157
1070.78	1.97357
1072.43	0.144192
1074.07	1.35524
1075.71	0.789482
1077.35	1.09501
1078.99	1.79416
1080.63	1.23771
1082.27	1.02831
1083.91	0.838411
1085.55	0.839447
1087.19	0.726768
1088.83	1.62645
1090.47	1.67615
1092.11	1.16037
1093.75	1.52959
1095.39	0.582333
1097.03	0.458082
1098.66	1.02693
1100.3	1.31978
1101.94	0.498627
1103.57	0.45723
1105.21	0.82811
1106.84	0.576851
1108.48	0.00235939
1110.11	0.543365
1111.75	1.27333
1113.38	0.752317
1115.02	0.335793
1116.65	0.669035
1118.29	0.830494
1119.92	0.972105
1121.55	1.45888
1123.19	1.04916
1124.82	0.278824
1126.45	1.56467
1128.08	0.649445
1129.71	0.955248
1131.34	0.00119781
1132.97	-0.28912
1134.6	0.339476
1136.23	0.538874
1137.86	-0.503891
1139.49	0.0742149
1141.12	-0.973444
1142.75	0.795261
1144.38	0.600304
1146.01	0.066227
1147.64	0.387602
1149.26	-0.0345268
1150.89	0.503422
1152.52	0.168121
1154.15	1.13074
1155.77	-0.0152836
1157.4	-0.309914
1159.02	0.438745
1160.65	0.700228
1162.27	0.11418
1163.9	0.147558
1165.52	0.522585
1167.15	-0.102268
1168.77	-0.0282154
1170.39	0.275143
1172.02	1.16791
1173.64	0.929476
1175.26	-0.83971
1176.89	0.317806
1178.51	0.944439
1180.13	0.217308
1181.75	-0.316027
1183.37	0.379335
1184.99	0.524717
1186.61	0.730825
1188.23	-0.164951
1189.85	0.874779
1191.47	0.49633
1193.09	0.808378
1194.71	0.277391
1196.33	0.188152
1197.94	0.729727
1199.56	-0.0219765
1201.18	0.487877
1202.8	1.19213
1204.41	2.15338
1206.03	1.305
1207.65	1.14927
1209.26	1.18225
1210.88	1.25481
1212.49	1.135
1214.11	2.30107
1215.72	1.73083
1217.34	1.36434
1218.95	1.30728
1220.57	1.43672
1222.18	1.79588
1223.79	1.41195
1225.41	2.5237
1227.02	3.28664
1228.63	1.55031
1230.24	2.6723
1231.85	2.66026
1233.47	2.92047
1235.08	2.60563
1236.69	2.76971
1238.3	3.08161
1239.91	2.71333
1241.52	2.966
1243.13	2.39038
1244.74	2.22621
1246.34	2.47301
1247.95	2.9652
1249.56	3.84819
1251.17	3.07499
1252.78	3.523
1254.38	2.91818
1255.99	2.89568
1257.6	3.95255
1259.2	3.70976
1260.81	3.09696
1262.42	3.14787
1264.02	2.28749
1265.63	3.08321
1267.23	2.73727
1268.84	2.8446
1270.44	2.16107
1272.04	2.11725
1273.65	2.60954
1275.25	2.99519
1276.85	3.75092
1278.46	3.34367
1280.06	1.85817
1281.66	2.44278
1283.26	2.28235
1284.86	3.63319
1286.46	3.26986
1288.07	3.46785
1289.67	2.71792
1291.27	2.85827
1292.87	3.82488
1294.47	3.03319
1296.06	2.8371
1297.66	4.16411
1299.26	3.21529
1300.86	3.52086
1302.46	3.8428
1304.06	4.24357
1305.65	4.20965
1307.25	4.89298
1308.85	3.23515
1310.44	3.13833
1312.04	3.45223
1313.64	3.33823
1315.23	4.26945
1316.83	4.99788
1318.42	4.01315
1320.02	4.57909
1321.61	4.04145
1323.2	4.53809
1324.8	4.25589
1326.39	4.3964
1327.99	3.88589
1329.58	4.24893
1331.17	4.02922
1332.76	4.86739
1334.36	4.31794
1335.95	4.64203
1337.54	3.71716
1339.13	3.75905
1340.72	3.71545
1342.31	3.88688
1343.9	3.91127
1345.49	3.91201
1347.08	3.49177
1348.67	4.27929
1350.26	3.91199
1351.85	3.77309
1353.43	3.02087
1355.02	3.01273
1356.61	3.62526
1358.2	3.87667
1359.78	2.96689
1361.37	3.55165
1362.96	3.2555
1364.54	2.50005
1366.13	2.08486
1367.71	3.42486
1369.3	1.96049
1370.88	1.95397
1372.47	3.14538
1374.05	1.99212
1375.64	2.55214
1377.22	2.9534
1378.8	2.5772
1380.39	3.39194
1381.97	2.86969
1383.55	2.14498
1385.13	2.53099
1386.72	2.27948
1388.3	3.61722
1389.88	2.97081
1391.46	1.95059
1393.04	2.20296
1394.62	2.57543
1396.2	1.57907
1397.78	2.46445
1399.36	2.89053
1400.94	3.21429
1402.52	2.98164
1404.1	1.99732
1405.68	2.65673
1407.25	3.43668
1408.83	3.50739
1410.41	2.88837
1411.98	2.68435
1413.56	3.26836
1415.14	2.74423
1416.71	2.77021
1418.29	3.26796
1419.87	3.0372
1421.44	3.40054
1423.02	4.24084
1424.59	3.57046
1426.16	4.61647
1427.74	4.44402
1429.31	3.58192
1430.89	5.0593
1432.46	4.56485
1434.03	4.67739
1435.6	5.16207
1437.18	6.37449
1438.75	6.66481
1440.32	6.40805
1441.89	7.13718
1443.46	5.78548
1445.03	7.97274
1446.6	7.27156
1448.17	7.23915
1449.74	7.56155
1451.31	8.71144
1452.88	6.71701
1454.45	7.28025
1456.02	7.45021
1457.59	7.02783
1459.16	6.5422
1460.72	6.66102
1462.29	5.94733
1463.86	6.25138
1465.43	5.70631
1466.99	5.5731
1468.56	5.16623
1470.13	3.99724
1471.69	4.06859
1473.26	4.55511
1474.82	3.41638
1476.38	3.73025
1477.95	2.82894
1479.51	2.67257
1481.08	2.26117
1482.64	2.31996
1484.2	2.82903
1485.77	2.7884
1487.33	2.04047
1488.89	1.40666
1490.46	1.58991
1492.02	1.6297
1493.58	1.23324
1495.14	2.66626
1496.7	1.38395
1498.26	1.77765
1499.82	2.0359
1501.38	1.36485
1502.94	1.06725
1504.5	0.424124
1506.06	1.44782
1507.62	1.44285
1509.18	1.41556
1510.73	1.0376
1512.29	1.17826
1513.85	1.60612
1515.41	1.20673
1516.96	1.30928
1518.52	0.85771
1520.08	0.677197
1521.63	0.708179
1523.19	1.59838
1524.75	1.07145
1526.3	0.847958
1527.85	1.72676
1529.41	1.59355
1530.96	1.66951
1532.52	0.760654
1534.07	0.936241
1535.62	0.982027
1537.18	1.52174
1538.73	1.1187
1540.28	1.60388
1541.84	0.863964
1543.39	2.12019
1544.94	1.62476
1546.49	0.923096
1548.04	1.76097
1549.59	1.49109
1551.14	2.28963
1552.69	2.02183
1554.25	1.92549
1555.79	1.62799
1557.34	1.85872
1558.89	3.04667
1560.44	2.13181
1561.99	2.21073
1563.54	1.64013
1565.08	2.22804
1566.63	2.77918
1568.18	2.09798
1569.73	2.36748
1571.27	3.34522
1572.82	2.21276
1574.37	3.2826
1575.91	3.08314
1577.46	3.89239
1579	2.1826
1580.55	3.55521
1582.09	3.43663
1583.64	3.20852
1585.18	2.64618
1586.73	2.58973
1588.27	3.18837
1589.81	2.49582
1591.35	3.69206
1592.9	3.85782
1594.44	4.02277
1595.98	4.2254
1597.52	4.56063
1599.06	4.93571
1600.61	4.30046
1602.15	5.18631
1603.69	4.83377
1605.23	4.5352
1606.77	4.53288
1608.31	4.01702
1609.85	3.73836
1611.39	4.01632
1612.93	4.23154
1614.46	3.80426
1616	3.0197
1617.54	3.3996
1619.08	2.84583
1620.61	2.80271
1622.15	2.87612
1623.69	2.83977
1625.23	3.2716
1626.76	3.04607
1628.3	4.48188
1629.83	3.42505
1631.37	2.38474
1632.9	3.52974
1634.44	3.46084
1635.97	3.20787
1637.51	3.4615
1639.04	4.18302
1640.57	3.65557
1642.11	3.57383
1643.64	4.4385
1645.17	3.51197
1646.71	2.99296
1648.24	4.18322
1649.77	4.74151
1651.3	4.72684
1652.83	3.91856
1654.36	4.80173
1655.89	5.22301
1657.42	4.99541
1658.96	4.26554
1660.48	4.38392
1662.01	4.66413
1663.54	4.27479
1665.07	4.65999
1666.6	3.84595
1668.13	4.5487
1669.66	4.81288
1671.19	4.74992
1672.71	3.91693
1674.24	5.95875
1675.77	7.20722
1677.29	6.88794
1678.82	6.10538
1680.35	7.15864
1681.87	2.84269
1683.4	2.14857
1684.92	2.37308
1686.45	3.02011
1687.97	2.9896
1689.5	1.95283
1691.02	2.21788
1692.54	0.616291
1694.07	0.717234
1695.59	1.54889
1697.11	1.04506
1698.64	1.83738
1700.16	1.84271
1701.68	1.02578
1703.2	0.937277
1704.72	1.10224
1706.25	0.646938
1707.77	1.88223
1709.29	0.426893
1710.81	0.807241
1712.33	1.65893
1713.85	-0.00868797
1715.37	-0.0802746
1716.89	0.336472
1718.41	0.0653458
1719.92	0.679329
1721.44	-0.114582
1722.96	1.07754
1724.48	0.469233
1725.99	0.027523
1727.51	0.472109
1729.03	-0.898167
1730.55	0.787956
1732.06	-0.356907
1733.58	0.198378
1735.09	0.0865784
1736.61	-0.260216
1738.13	0.298895
1739.64	0.955511
1741.15	0.102634
1742.67	0.12743
1744.18	0.125439
1745.7	-0.00671005
1747.21	0.101101
1748.72	0.536671
1750.24	0.496559
1751.75	-0.165344
1753.26	0.119389
1754.77	0.412115
1756.29	0.0595284
1757.8	-0.2927
1759.31	-0.0306225
1760.82	-0.016201
1762.33	-0.108456
1763.84	0.175131
1765.35	0.344921
1766.86	0.469238
1768.37	0.18689
1769.88	0.0635433
1771.39	-0.11619
1772.9	0.0155716
1774.4	0.104307
1775.91	-0.498507
1777.42	-0.244499
1778.93	0.270992
1780.44	0.294241
1781.94	0.0199242
1783.45	0.025198
1784.96	0.0770111
1786.46	0.0498199
1787.97	-0.104227
1789.47	0.00343323
1790.98	0.0156193
1792.48	0.287939
1793.99	0.633881
1795.49	0.0120773
1797	0.186428
1798.5	0.312712
1800.01	0.429304
1801.51	0.0215054
1803.01	0.558104
1804.51	-0.0635567
1806.02	-0.171726
1807.52	-0.375921
1809.02	0.196018
1810.52	-0.574375
1812.02	0.0166931
1813.52	0.0780621
1815.02	0.428207
1816.53	0.262041
1818.03	0.400751
1819.52	0.117764
1821.02	0.388517
1822.52	-0.417233
1824.02	0.246292
1825.52	0.0561543
1827.02	0.17989
1828.52	0.0154762
1830.02	-0.118202
1831.51	0.37166
1833.01	0.339314
1834.51	0.54899
1836.01	0.395437
1837.5	0.00157738
1839	-0.017601
1840.49	0.313362
1841.99	-0.262007
1843.49	0.0803032
1844.98	-0.0606956
1846.48	0.172976
1847.97	-0.480988
1849.47	0.327827
1850.96	0.493717
1852.45	-0.275644
1853.95	-0.0442066
1855.44	0.601336
1856.93	0.524632
1858.42	0.523363
1859.92	0.661329
1861.41	-0.0485229
1862.9	-0.228018
1864.39	0.174681
1865.88	-0.35416
1867.38	0.211657
1868.87	-0.0195122
1870.36	0.287601
1871.85	0.350731
1873.34	0.259722
1874.83	0.0602379
1876.32	0.339428
1877.81	0.207645
1879.29	-0.0420628
1880.78	-0.474092
1882.27	0.211309
1882.53	0.378384
1884.03	0.531988
1885.52	-0.327581
1887.01	0.76178
1888.51	0.734394
1890	-0.0230598
1891.5	0.301416
1892.99	0.195875
1894.48	0.843468
1895.97	0.191788
1897.47	-0.00538063
1898.96	0.110159
1900.45	0.588049
1901.94	0.0694885
1903.43	0.189297
1904.92	0.183031
1906.41	0.191795
1907.9	0.0789394
1909.39	0.315178
1910.88	0.467321
1912.37	0.361929
1913.86	-0.071207
1915.35	0.363127
1916.84	0.258873
1918.33	0.603706
1919.81	0.271267
1921.3	0.319849
1922.79	-0.0978565
1924.28	-0.166483
1925.76	0.426134
1927.25	0.641129
1928.73	0.425289
1930.22	-0.01581
1931.71	0.025528
1933.19	-0.560764
1934.68	-0.165289
1936.16	0.0519218
1937.65	0.507423
1939.13	0.477163
1940.62	0.18886
1942.1	1.05975
1943.58	0.208044
1945.07	-0.105814
1946.55	0.58152
1948.03	-0.0936871
1949.51	0.676426
1951	-0.588846
1952.48	0.00298691
1953.96	-0.71447
1955.44	-0.451685
1956.92	-0.0507202
1958.4	-0.248869
1959.88	-0.616169
1961.36	0.321651
1962.84	-0.214727
1964.32	0.173981
1965.8	0.680731
1967.28	0.774115
1968.76	0.283855
1970.24	0.0830574
1971.72	0.342945
1973.2	0.551113
1974.67	0.58873
1976.15	0.405289
1977.63	0.0012188
1979.1	0.380995
1980.58	-0.0222588
1982.06	-0.0175133
1983.54	0.105267
1985.01	0.192953
1986.49	0.296724
1987.96	-0.175888
1989.44	0.487776
1990.91	0.627949
1992.39	0.872295
1993.86	0.527819
1995.33	0.304417
1996.81	-0.00197601
1998.28	-0.223812
1999.75	0.144125
2001.23	1.21871
2002.7	0.266829
2004.17	0.326965
2005.65	-0.656616
2007.12	0.181915
2008.59	0.332331
2010.06	0.333769
2011.53	0.505146
2013	-0.249063
2014.47	0.35882
2015.94	0.341661
2017.41	-0.82181
2018.88	0.383587
2020.35	0.393286
2021.82	-0.269175
2023.29	0.379263
2024.76	0.425488
2026.23	-0.296347
2027.69	-0.326033
2029.16	0.118296
2030.63	-0.205009
2032.1	0.833673
2033.56	0.0111008
2035.03	0.0444012
2036.5	0.160582
2037.96	0.157658
2039.43	-0.451454
2040.89	0.199781
2042.36	0.0453873
2043.83	0.750933
2045.29	0.265045
2046.75	0.55538
2048.22	0.493225
2049.68	0.548033
2051.15	0.296366
2052.61	-0.044342
2054.07	0.638323
2055.54	0.826668
2057	1.19622
2058.46	0.299299
2059.92	0.44696
2061.39	0.59576
2062.85	0.275604
2064.31	0.0259113
2065.77	0.0148354
2067.23	1.4199
2068.69	0.117189
2070.15	-0.158049
2071.61	0.0382175
2073.07	0.116272
2074.53	0.496693
2075.99	0.455189
2077.45	0.732588
2078.91	0.604647
2080.37	0.828993
2081.82	0.344515
2083.28	0.615734
2084.74	0.800491
2086.2	0.511948
2087.65	-0.064003
2089.11	0.737457
2090.57	0.428921
2092.02	0.808811
2093.48	1.05381
2094.94	0.224508
2096.39	0.232746
2097.85	0.523779
2099.3	0.461121
2100.76	0.514706
2102.21	0.702559
2103.66	0.625423
2105.12	0.134956
2106.57	0.449753
2108.03	0.55061
2109.48	0.635735
2110.93	0.735929
2112.38	0.365639
2113.84	0.673573
2115.29	0.693544
2116.74	0.976854
2118.19	0.31386
2119.64	-0.0454559
2121.09	0.480396
2122.54	0.729504
2123.99	0.617926
2125.45	0.624336
2126.89	0.961596
2128.34	0.699097
2129.79	0.0848026
2131.24	0.378294
2132.69	0.603012
2134.14	0.41383
2135.59	0.805828
2137.04	-0.137077
2138.48	-0.0828018
2139.93	0.257685
2141.38	-0.273247
2142.83	0.306726
2144.27	-0.58338
2145.72	0.0156765
2147.17	0.233603
2148.61	0.38369
2150.06	0.581142
2151.5	0.427933
2152.95	0.222244
2154.39	0.942131
2155.84	0.0702019
2157.28	0.291971
2158.73	-0.345665
2160.17	-0.11832
2161.61	0.94244
2163.06	0.251804
2164.5	0.510197
2165.94	0.55547
2167.38	0.334721
2168.83	0.958672
2170.27	0.347534
2171.71	0.595255
2173.15	0.471697
2174.59	0.211311
2176.03	0.830833
2177.47	0.336678
2178.91	0.293636
2180.36	1.21757
2181.8	1.12983
2183.23	0.528193
2184.67	0.542561
2186.11	0.440693
2187.55	0.771473
2188.99	0.470104
2190.43	0.76782
2191.87	0.798534
2193.3	1.42657
2194.74	0.402626
2196.18	-0.243174
2197.62	0.420513
2199.05	0.230766
2200.49	0.802729
2201.93	0.80895
2203.36	0.136803
2204.8	0.380489
2206.23	0.195877
2207.67	1.02345
2209.1	0.243574
2210.54	0.339483
2211.97	-0.0636921
2213.41	0.358067
2214.84	0.465071
2216.27	0.524096
2217.71	0.239799
2219.14	-0.073761
2220.57	0.736305
2222.01	0.5574
2223.44	0.475481
2224.87	0.455629
2226.3	0.792999
2227.73	0.1716
2229.16	0.516769
2230.6	0.219233
2232.03	-0.0946121
2233.46	0.149544
2234.89	0.869495
2236.32	0.513218
2237.75	0.390575
2239.18	0.110258
2240.61	-0.311026
2242.03	0.120926
2243.46	0.507389
2244.89	0.536049
2246.32	0.220337
2247.75	1.00921
2249.17	0.422092
2250.6	0.0899773
2252.03	0.0464687
2253.46	0.537333
2254.88	0.378269
2256.31	0.353449
2257.73	-0.183926
2259.16	0.471266
2260.59	0.599262
2262.01	0.507027
2263.44	0.256823
2264.86	0.137165
2266.29	0.422859
2267.71	0.364985
2269.14	0.808964
2270.56	0.241632
2271.98	0.584429
2273.4	0.454578
2274.83	-0.0334454
2276.25	0.700888
2277.67	0.0833702
2279.09	-0.354959
2280.52	0.592419
2281.94	0.789604
2283.36	0.0403748
2284.78	0.318987
2286.2	0.418808
2287.62	1.05855
2289.04	0.572987
2290.46	0.464014
2291.88	0.355749
2293.3	-0.12842
2294.72	0.48316
2296.14	0.734917
2297.56	0.806602
2298.98	-0.0716972
2300.4	0.901844
2301.82	0.0569248
2303.23	0.376806
2304.65	0.53331
2306.07	0.361298
2307.49	0.779655
2308.9	-0.101788
2310.32	-0.031786
2311.73	0.0700397
2313.15	0.204748
2314.57	0.686329
2315.98	0.297638
2317.4	0.256752
2318.81	-0.39286
2320.23	0.655006
2321.64	0.611696
2323.06	0.562996
2324.47	-0.0699234
2325.88	0.462498
2327.3	0.626986
2328.71	0.228811
2330.12	0.25988
2331.54	0.705002
2332.95	0.428816
2334.36	-0.0751476
2335.77	0.145638
2337.18	0.134809
2338.6	-0.125328
2340.01	0.827538
2341.42	0.446472
2342.83	0.556776
2344.24	-0.317122
2345.65	0.187572
2347.06	0.217457
2348.47	-0.0308723
2349.88	0.0635738
2351.29	0.776882
2352.7	0.212317
2354.1	-0.370169
2355.51	-0.0894909
2356.92	0.0594082
2358.33	0.126591
2359.74	-0.130951
2361.14	0.472519
2362.55	0.393749
2363.96	0.282448
2365.36	0.769855
2366.77	-0.634073
2368.18	-0.0153618
2369.58	-0.330513
2370.99	-0.303013
2372.39	-0.465212
2373.8	0.47051
2375.2	0.5534
2376.61	0.281218
2378.01	0.617315
2379.42	0.289816
2380.82	0.134777
2382.22	0.24869
2383.63	0.0395565
2385.03	0.406097
2386.43	0.277639
2387.84	0.152006
2389.24	0.141565
2390.64	-0.136147
2392.04	-0.187319
2393.44	-0.187927
2394.84	0.131855
2396.25	0.310255
2397.65	-0.193087
2399.05	0.13168
2400.45	-0.0983238
2401.85	0.355623
2403.25	-0.492708
2404.65	0.30958
2406.05	0.140783
2407.45	0.413818
2408.84	0.050024
2410.24	0.303885
2411.64	-0.265734
2413.04	0.640192
2414.44	-0.160776
2415.83	-0.197552
2417.23	0.655891
2418.63	0.387861
2420.02	0.120762
2421.42	0.154192
2422.82	0.281725
2424.21	0.0440826
2425.61	0.361179
2427	-0.397926
2428.4	0.33518
2429.8	0.199152
2431.19	0.255312
2432.58	0.423056
2433.98	0.0971928
2435.37	0.00626945
2436.77	0.0383568
2438.16	0.352261
2439.55	0.440096
2440.95	-0.252777
2442.34	-0.0100784
2443.73	0.0729771
2445.12	-0.0982933
2446.51	0.158222
2447.91	0.319065
2449.3	0.432207
2450.69	-0.43578
2452.08	-0.30451
2453.47	0.256008
2454.86	0.328207
2456.25	-0.372801
2457.64	0.00276947
2459.03	-0.144085
2460.42	-0.57711
2461.81	-0.521999
2463.2	0.0841618
2464.59	0.0879154
2465.98	-0.240793
2467.36	-0.0169811
2468.75	0.159159
2470.14	0.208416
2471.53	0.36672
2472.92	-0.0441456
2474.3	-0.456556
2475.69	0.3883
2477.08	-0.136591
2478.46	-0.535128
2479.85	0.605227
2481.23	0.239021
2482.62	0.217896
2484	-0.211491
2485.39	0.295898
2486.77	-0.294437
2488.16	-0.106161
2489.54	0.515997
2490.93	-0.0933819
2492.31	0.512676
2493.69	0.530254
2495.08	0.691145
2496.46	-0.105711
2497.84	0.603371
2499.23	0.460928
2500.61	-0.502007
2501.99	-0.275518
2503.37	-0.561569
2504.75	0.0606289
2506.13	-0.167585
2507.52	-0.103537
2508.9	0.652534
2510.28	0.348528
2511.66	-0.0144653
2513.04	0.192501
2514.42	-0.333708
2515.8	-0.168037
2517.18	0.336031
2518.55	0.458813
2519.93	0.383305
2521.31	-0.0135765
2522.69	0.137718
2524.07	-0.0337543
2525.45	0.798967
2526.82	0.182985
2528.2	0.436399
2529.58	0.41876
2530.95	0.314293
2532.33	0.29047
2533.71	-0.443697
2535.08	-0.157967
2536.46	-0.0698757
2537.84	0.806351
2539.21	0.67728
2540.59	0.394163
2541.96	0.41379
2543.34	0.874165
2544.71	0.517536
2546.08	-0.229996
2547.46	0.390942
2548.83	0.817125
2550.2	0.333168
2551.58	0.86458
2552.95	0.361544
2554.32	-0.0835724
2555.7	0.0455952
2557.07	0.294561
2558.44	-0.154474
2559.81	0.640511
2561.18	0.542372
2562.55	0.112619
2563.93	0.139128
2565.3	0.697166
2566.67	0.922525
2568.04	0.602552
2569.41	0.570559
2570.78	0.0232124
2572.15	0.173182
2573.51	0.672024
2574.88	0.443539
2576.25	0.230255
2577.62	0.562584
2578.99	0.0603695
2580.36	0.0879116
2581.73	-0.219227
2583.09	0.00335503
2584.46	-0.199217
2585.83	0.174135
2587.19	-0.149488
2588.56	0.451946
2589.93	-0.340643
2591.29	0.23037
2592.66	-0.0484562
2594.02	-0.102095
2595.39	0.538197
2596.75	-0.338434
2598.12	0.175518
2599.48	0.264551
2600.85	-0.00886345
2602.21	0.142202
2603.58	-0.127752
2604.94	0.403742
2606.3	0.528103
2607.67	0.123749
2609.03	0.305298
2610.39	-0.254614
2611.76	0.0105648
2613.12	0.166992
2614.48	0.215925
2615.84	0.804256
2617.2	0.132853
2618.56	0.0334702
2619.92	-0.228275
2621.28	0.20013
2622.65	0.13624
2624.01	0.491159
2625.37	0.173969
2626.72	0.408287
2628.08	0.805298
2629.44	-0.0200481
2630.8	-0.47271
2632.16	0.368408
2633.52	0.64361
2634.88	0.146515
2636.24	-0.231211
2637.59	-0.53426
2638.95	0.732763
2640.31	0.829441
2641.67	-0.19685
2643.02	0.448431
2644.38	0.443708
2645.74	0.306023
2647.09	0.963507
2648.45	-0.11997
2649.8	0.209032
2651.16	0.0210724
2652.51	-0.299484
2653.87	-0.0759754
2655.22	0.237
2656.58	1.10889
2657.93	0.445894
2659.29	0.415098
2660.64	0.195347
2661.99	0.516165
2663.35	0.29464
2664.7	0.479942
2666.05	0.735901
2667.41	0.494692
2668.76	-0.212328
2670.11	-0.160906
2671.46	0.284374
2672.81	-0.170139
2674.16	0.800653
2675.51	-0.390701
2676.87	-0.418823
2678.22	0.424957
2679.57	0.124968
2680.92	1.26313
2682.27	0.418167
2683.62	-0.336813
2684.97	-0.0308437
2686.31	0.320055
2687.66	0.293373
2689.01	-0.0993404
2690.36	0.403625
2691.71	-0.0707588
2693.06	-0.171535
2694.4	0.102308
2695.75	0.418871
2697.1	0.562908
2698.45	0.536469
2699.79	-0.0357494
2701.14	0.3957
2702.49	-0.371035
2703.83	0.57428
2705.18	0.376482
2706.52	0.584749
2707.87	0.429714
2709.21	0.229961
2710.56	0.275934
2711.9	0.364798
2713.25	1.04914
2714.59	0.658072
2715.94	0.688267
2717.28	0.456308
2718.62	0.878193
2719.97	0.368044
2721.31	0.0748329
2722.65	0.59535
2723.99	0.648933
2725.34	0.745037
2726.68	0.738255
2728.02	1.05081
2729.36	1.56641
2730.7	0.597345
2732.04	0.80687
2733.39	1.01658
2734.73	0.732155
2736.07	0.375586
2737.41	0.441177
2738.75	0.783031
2740.08	0.0916996
2741.43	0.809692
2742.76	0.711666
2744.1	0.524664
2745.44	0.568605
2746.78	0.204796
2748.12	0.784302
2749.46	0.637981
2750.79	-0.305368
2752.13	0.27491
2753.47	0.333635
2754.81	0.697027
2756.14	0.292912
2757.48	0.00528908
2758.81	-0.0354309
2760.15	0.170895
2761.49	0.36392
2762.82	0.384491
2764.16	0.232244
2765.49	0.181257
2766.83	-0.00108528
2768.16	-0.0121422
2769.5	0.50853
2770.83	-0.131117
2772.16	0.251905
2773.5	-0.161898
2774.83	0.0867767
2776.17	-0.0683861
2777.5	0.583567
2778.83	0.272436
2780.16	0.322355
2781.5	0.588446
2782.83	0.237335
2784.16	0.288111
2785.49	-0.177181
2786.82	-0.383583
2788.15	-0.330816
2789.49	-0.118765
2790.82	0.195484
2792.15	-0.00321198
2793.48	-0.272116
2794.81	0.116631
2796.14	-0.15291
2797.46	0.219095
2798.79	-0.0530987
2800.12	0.102011
2801.45	-0.0860596
2802.78	-0.103336
2804.11	0.13526
2805.44	-0.539024
2806.76	0.0954742
2808.09	0.0732594
2809.42	-0.00682259
2810.75	0.0127068
2812.07	0.246603
2813.4	0.241995
2814.73	-0.255127
2816.05	0.243855
2817.38	0.334511
2818.7	0.625084
2820.03	-0.062294
2821.36	0.170486
2822.68	0.684965
2824.01	0.687609
2825.33	-0.132166
2826.65	0.634598
2827.98	0.213064
2829.3	0.953926
2830.63	0.775745
2831.95	0.796309
2833.27	1.0432
2834.6	1.34586
2835.92	1.44906
2837.24	2.10265
2838.56	2.24556
2839.88	2.57169
2841.21	3.18069
2842.53	3.56441
2843.85	4.26069
2845.17	3.71525
2846.49	5.13593
2847.81	4.43776
2849.13	3.90918
2850.45	5.07588
2851.77	4.48863
2853.09	5.18612
2854.41	5.13348
2855.73	5.40531
2857.05	5.42275
2858.37	5.99119
2859.69	5.71207
2861	6.27979
2862.32	6.88877
2863.64	7.89162
2864.96	7.82086
2866.28	8.59644
2867.59	9.76727
2868.91	9.71221
2870.23	10.0391
2871.54	9.46419
2872.86	10.5799
2874.17	11.2279
2875.49	10.5061
2876.81	10.5278
2878.12	10.8145
2879.44	10.5093
2880.75	10.5568
2882.07	11
2883.38	11.6567
2884.69	11.1506
2886.01	10.6605
2887.32	10.4796
2888.63	10.7465
2889.95	11.1513
2891.26	11.0485
2892.57	10.5096
2893.89	11.5957
2895.2	11.5337
2896.51	11.1103
2897.82	11.5857
2899.13	11.5743
2900.44	12.4186
2901.76	12.0332
2903.07	11.6903
2904.38	12.2152
2905.69	12.531
2907	12.6666
2908.31	12.5948
2909.62	13.8126
2910.93	13.885
2912.24	13.9294
2913.55	14.7696
2914.85	15.9838
2916.16	15.8488
2917.47	15.5691
2918.78	16.252
2920.09	16.2067
2921.4	17.2261
2922.7	17.0606
2924.01	17.1929
2925.32	17.9017
2926.62	18.2631
2927.93	17.9116
2929.24	18.7753
2930.54	18.4769
2931.85	18.7502
2933.15	19.0507
2934.46	18.3447
2935.76	19.1625
2937.07	18.2479
2938.37	17.292
2939.68	17.8881
2940.98	16.9347
2942.29	16.4869
2943.59	16.35
2944.89	15.5459
2946.2	15.1504
2947.5	14.6723
2948.8	14.1652
2950.11	13.8366
2951.41	13.6428
2952.71	13.1497
2954.01	13.0027
2955.32	12.1549
2956.62	12.2614
2957.92	11.6038
2959.22	11.9473
2960.52	11.8925
2961.82	11.5769
2963.12	11.4734
2964.42	10.0766
2965.72	9.95266
2967.02	9.92258
2968.32	9.38289
2969.62	9.86744
2970.92	9.87369
2972.22	9.16324
2973.51	8.39706
2974.81	8.77065
2976.11	8.49512
2977.41	8.04718
2978.71	8.28469
2980	7.30696
2981.3	7.57875
2982.6	7.53944
2983.9	7.16364
2985.19	6.6083
2986.49	6.73169
2987.78	6.04391
2989.08	5.4852
2990.38	5.61579
2991.67	5.45002
2992.97	5.11294
2994.26	4.59006
2995.56	4.02249
2996.85	3.87473
2998.14	3.67046
2999.44	3.55117
3000.73	3.51747
3002.03	3.51334
3003.32	2.52942
3004.61	3.04529
3005.91	2.46791
3007.2	1.84748
3008.49	1.88323
3009.78	1.03594
3011.07	1.47351
3012.37	0.694824
3013.66	1.11711
3014.95	1.0519
3016.24	0.946712
3017.53	0.690353
3018.82	0.365982
3020.11	0.821005
3021.4	0.871439
3022.69	0.336527
3023.98	0.438553
3025.27	0.427763
3026.56	-0.137459
3027.85	0.115938
3029.14	-0.153826
3030.43	0.450771
3031.71	0.215822
3033	-0.0992031
3034.29	-0.0820045
3035.58	0.20994
3036.87	-0.287243
3038.15	0.631195
3039.44	0.291225
3040.73	-0.436401
3042.01	0.441725
3043.3	0.152376
3044.59	1.05673
3045.87	-0.00582314
3047.16	-0.296139
3048.44	0.00645828
3049.73	0.341082
3051.01	0.256348
3052.3	0.460161
3053.58	0.445774
3054.87	0.8256
3056.15	1.03915
3057.43	0.513891
3058.72	1.07731
3060	0.849789
3061.29	0.120022
3062.57	0.767088
3063.85	0.913904
3065.13	0.683775
3066.42	0.851341
3067.7	0.640724
3068.98	0.131865
3070.26	0.38398
3071.54	0.566233
3072.82	0.310568
3074.11	0.0522671
3075.39	0.00952721
3076.67	0.210629
3077.95	0.222553
3079.23	0.35918
3080.51	-0.43668
3081.79	-0.129965
3083.07	-0.0373726
3084.35	0.396168
3085.63	0.327976
3086.9	0.190971
3088.18	-0.205454
3089.46	0.238174
3090.74	-0.309826
3092.02	-0.0709419
3093.29	0.0733662
3094.57	0.150621
3095.85	-0.286612
3097.13	-0.0726643
3098.4	-0.251837
3099.68	0.0431576
3100.95	-0.0413532
3102.23	-0.00364876
3103.51	-0.0464344
3104.78	-0.169106
3106.06	0.549135
3107.33	0.0786152
3108.61	-0.0510921
3109.88	0.336071
3111.16	0.0217133
3112.43	0.413355
3113.71	0.535395
3114.98	0.359388
3116.25	0.562033
3117.53	0.301811
3118.8	-0.00149918
3120.07	0.859282
3121.35	0.49753
3122.62	0.378796
3123.89	0.815273
3125.16	0.642668
3126.44	0.376619
3127.71	0.328733
3128.98	0.566252
3130.25	1.10208
3131.52	0.475506
3132.79	0.592447
3134.06	0.816715
3135.33	1.0533
3136.6	0.600412
3137.87	0.996572
3139.14	1.33762
3140.41	0.897288
3141.68	1.11696
3142.95	1.01471
3144.22	1.5315
3145.49	1.20392
3146.76	1.20035
3148.02	1.2923
3149.29	0.943791
