200.388	0.0907526
202.204	0.127438
204.019	0.164446
205.832	0.688403
207.646	-0.83033
209.459	0.300241
211.274	0.0925293
213.087	0.635892
214.899	0.570705
216.711	0.335015
218.524	0.268931
220.335	0.0337029
222.146	0.307251
223.956	-0.120116
225.766	0.15395
227.576	-0.079752
229.388	-0.120705
231.197	0.103004
233.005	-0.204844
234.813	0.114497
236.621	-0.144135
238.429	0.201429
240.236	0.428449
242.045	0.536889
243.852	0.646388
245.658	0.466074
247.464	0.235623
249.269	0.340381
251.074	1.89057
252.879	0.878478
254.683	1.26435
256.487	1.04632
258.291	0.87721
260.094	1.26367
261.897	0.543549
263.702	1.36665
265.504	1.01013
267.306	0.701788
269.108	0.368691
270.909	0.902419
272.71	1.14559
274.511	1.26659
276.311	1.00003
278.111	1.04486
279.91	0.798434
281.709	1.07964
283.508	0.348293
285.306	0.793982
287.105	0.373749
288.9	0.481615
290.698	0.589751
292.495	0.914134
294.291	0.593515
296.088	0.0114737
297.884	0.362816
299.679	0.929251
301.475	0.897887
303.27	1.00884
305.064	0.975147
306.858	1.36971
308.652	0.452315
310.444	0.89427
312.237	0.360313
314.03	0.994789
315.822	0.630676
317.615	1.19685
319.406	0.5259
321.198	0.451221
322.987	0.591651
324.778	0.756408
326.568	1.39888
328.358	0.703879
330.148	0.533211
331.935	0.743803
333.724	1.0725
335.513	0.848783
337.301	0.766298
339.089	0.586014
340.875	1.07382
342.662	1.46468
344.449	0.445258
346.236	0.979496
348.02	0.749832
349.806	0.42519
351.592	1.15081
353.375	0.92099
355.16	1.00032
356.944	0.744407
358.728	1.01165
360.51	1.30114
362.294	0.803887
364.077	1.18636
365.858	0.545812
367.64	0.475235
369.422	0.854428
371.202	1.01873
372.983	1.3002
374.764	1.32058
376.543	1.43531
378.324	1.14934
380.102	1.02968
381.881	1.17022
383.661	1.00596
385.438	1.0547
387.216	1.66849
388.993	0.732531
390.771	1.48897
392.548	1.23616
394.324	1.61801
396.101	0.755548
397.875	1.04387
399.651	0.650897
401.425	1.07952
403.201	0.497521
404.974	1.32399
406.749	0.975354
408.524	0.626195
410.296	1.1453
412.07	1.31216
413.841	0.82231
415.614	0.802471
417.385	0.830293
419.156	0.858712
420.928	1.02821
422.698	1.1975
424.469	0.685343
426.238	0.31309
428.009	0.573885
429.777	0.669827
431.548	0.366684
433.315	0.580153
435.083	0.676565
436.852	0.538259
438.618	1.33807
440.387	0.634514
442.153	0.0467157
443.919	0.371797
445.686	0.343302
447.451	0.40731
449.218	0.353782
450.982	0.0901232
452.746	-0.0327539
454.512	-0.201903
456.275	0.141953
458.038	-0.283415
459.803	0.129645
461.565	0.286868
463.327	0.143121
465.091	-0.0913324
466.852	0.420329
468.613	-0.064765
470.374	0.474689
472.136	-0.00844955
473.896	0.0893002
475.655	0.674695
477.415	0.9555
479.176	0.791884
480.934	0.650572
482.692	0.625834
484.45	0.835086
486.21	0.440576
487.967	0.420731
489.724	1.00924
491.481	0.922771
493.237	0.603217
494.995	0.236547
496.75	0.618181
498.506	0.4614
500.26	-0.118176
502.015	0.262973
503.769	0.573472
505.525	0.084259
507.279	0.627927
509.032	0.464913
510.785	0.959144
512.537	0.181286
514.289	0.272664
516.041	0.339241
517.793	0.639845
519.546	-0.259621
521.297	1.07321
523.047	0.713387
524.797	0.353739
526.547	1.19088
528.297	0.620374
530.046	0.378475
531.795	0.511241
533.543	0.760165
535.291	0.493063
537.039	0.552268
538.787	0.0263681
540.534	0.596596
542.281	1.07157
544.027	0.870336
545.773	0.739272
547.519	0.144526
549.264	0.5019
551.01	0.0713682
552.754	-0.172972
554.499	1.06225
556.243	0.26386
557.987	0.15927
559.73	0.262714
561.474	0.274444
563.216	0.332728
564.959	0.069705
566.701	-0.307202
568.441	-0.200805
570.182	-0.00177288
571.923	0.267203
573.664	0.468822
575.405	0.144524
577.145	0.165913
578.885	-0.132784
580.624	-0.0635195
582.361	-0.177857
584.1	-0.0168447
585.839	-0.684503
587.577	0.601735
589.315	0.207814
591.052	0.158092
592.787	0.26895
594.524	0.49471
596.26	-0.130722
597.997	-0.157958
599.732	-0.0244179
601.466	-0.0526161
603.201	-0.219892
604.936	-0.112456
606.67	0.0396824
608.403	0.213892
610.136	-0.186015
611.87	-0.126268
613.603	0.0717201
615.334	-0.142324
617.067	0.400064
618.799	-0.0431576
620.529	0.337163
622.26	0.0753727
623.991	-0.118279
625.72	-0.0603762
627.451	-0.18426
629.181	0.697874
630.909	-0.175103
632.638	0.208949
634.368	0.845238
636.095	-0.184843
637.823	0.290064
639.551	0.146214
641.277	0.319101
643.005	0.443856
644.73	0.271187
646.457	-0.196661
648.184	0.224428
649.908	0.534349
651.634	0.0752869
653.357	0.415257
655.083	-0.355771
656.806	-0.146944
658.53	-0.187462
660.253	0.136724
661.977	0.460178
663.7	0.302101
665.422	0.141617
667.145	-0.157932
668.865	-0.366815
670.588	0.431302
672.308	0.247705
674.027	0.386816
675.749	0.276108
677.468	0.00583363
679.188	0.148643
680.907	0.428835
682.627	0.201746
684.345	-0.142673
686.064	0.17862
687.781	0.268334
689.498	-0.195745
691.216	0.122681
692.932	-0.181358
694.65	-0.140506
696.366	0.751531
698.081	0.237743
699.797	-0.0927191
701.512	0.473072
703.228	0.0719948
704.942	0.0153522
706.655	0.646854
708.371	0.611961
710.083	0.393488
711.796	0.678732
713.51	0.13974
715.222	0.241444
716.934	0.890912
718.645	0.444355
720.358	0.591349
722.068	0.624423
723.779	0.179707
725.49	0.826877
727.2	0.337008
728.909	0.369601
730.618	0.175032
732.329	0.705258
734.037	0.781751
735.745	1.08418
737.453	0.641207
739.16	0.380194
740.869	0.233226
742.576	0.718332
744.282	0.798875
745.988	0.633156
747.694	0.491384
749.401	0.238458
751.107	0.79648
752.811	0.56849
754.516	0.544205
756.22	0.341243
757.924	1.10769
759.627	0.727416
761.332	0.663366
763.035	1.4797
764.738	0.919722
766.44	1.05838
768.142	0.743409
769.843	0.69756
771.544	0.875973
773.245	1.50532
774.946	1.29749
776.646	1.20324
778.346	1.20065
780.046	0.973367
781.745	1.2674
783.444	0.815022
785.143	1.24426
786.841	1.03763
788.539	1.00921
790.237	1.38492
791.934	1.9157
793.631	1.36005
795.328	1.86538
797.024	1.58181
798.72	1.39039
800.416	1.47109
802.112	0.923182
803.807	1.11856
805.502	1.35866
807.196	1.55287
808.89	1.4089
810.584	1.35377
812.278	1.25297
813.971	1.5551
815.664	1.02816
817.354	1.15077
819.047	1.38498
820.739	1.77528
822.43	1.36205
824.122	1.10628
825.813	1.81033
827.503	0.889739
829.192	1.73152
830.882	1.01717
832.571	1.26316
834.261	1.82348
835.95	1.8725
837.637	1.43046
839.325	0.696608
841.013	1.50196
842.701	1.14472
844.389	1.56893
846.074	1.27868
847.761	2.01844
849.447	1.3071
851.131	1.7391
852.817	1.25488
854.503	1.64566
856.188	1.92486
857.871	1.34918
859.556	1.42346
861.24	1.63121
862.922	1.09416
864.606	0.735711
866.289	1.25535
867.97	0.444277
869.653	0.872873
871.336	0.895299
873.016	1.21083
874.698	0.262815
876.379	0.939355
878.058	0.735873
879.739	1.34487
881.418	0.915225
883.098	0.868661
884.778	1.18229
886.456	0.704595
888.135	0.451348
889.812	0.602826
891.49	0.504879
893.167	0.428401
894.845	0.981027
896.523	0.879726
898.198	0.440848
899.875	1.61717
901.55	0.773501
903.226	0.602673
904.901	0.677936
906.576	0.8648
908.25	0.962611
909.925	0.459711
911.598	0.826342
913.271	0.726159
914.945	0.648705
916.617	1.05951
918.291	0.76026
919.962	1.01523
921.635	0.695041
923.306	1.12798
924.978	0.877
926.648	0.848823
928.318	0.778101
929.989	0.818913
931.659	1.16926
933.328	1.14474
934.998	0.436625
936.666	0.743567
938.336	0.963024
940.004	0.411648
941.671	0.434775
943.34	1.05437
945.007	0.857528
946.673	0.593377
948.339	0.41585
950.007	0.324928
951.672	0.585925
953.337	0.00864983
955.004	1.08675
956.669	0.425159
958.333	0.604445
959.997	0.477452
961.662	0.263391
963.326	0.336329
964.989	0.87237
966.651	0.565707
968.315	0.366991
969.977	0.852178
971.639	0.340982
973.301	0.980297
974.962	0.868922
976.624	0.471714
978.285	0.938478
979.945	0.819756
981.605	0.700638
983.264	0.657737
984.924	0.723742
986.583	1.11978
988.243	0.606738
989.901	0.601564
991.56	-0.155654
993.217	0.214289
994.875	0.981209
996.532	0.666306
998.188	1.21167
999.845	0.830641
1001.5	1.00027
1003.16	1.0372
1004.81	0.831848
1006.47	0.0113401
1008.12	0.619484
1009.78	1.44649
1011.43	0.342957
1013.09	0.0302248
1014.74	0.594359
1016.39	0.589024
1018.05	0.234058
1019.7	0.645614
1021.35	0.270706
1023	0.0500059
1024.65	0.879253
1026.31	0.703644
1027.96	0.418859
1029.61	0.592363
1031.26	0.917556
1032.91	0.891708
1034.56	0.427938
1036.21	0.704764
1037.86	0.305026
1039.51	1.47307
1041.16	0.356029
1042.8	0.915466
1044.45	0.476461
1046.1	0.647734
1047.75	0.972702
1049.39	0.864854
1051.04	1.10572
1052.69	0.695709
1054.33	1.1116
1055.98	1.2234
1057.62	0.356713
1059.27	0.902514
1060.91	0.75201
1062.56	0.47028
1064.2	0.339914
1065.85	0.534718
1067.49	0.293742
1069.13	0.160651
1070.77	0.700261
1072.42	0.219015
1074.06	0.0423412
1075.7	0.343868
1077.34	0.646418
1078.98	0.147695
1080.62	0.755624
1082.27	0.1926
1083.91	0.951483
1085.55	0.668086
1087.18	0.44798
1088.82	0.875797
1090.46	0.370928
1092.1	0.687243
1093.74	0.462526
1095.38	0.389398
1097.02	0.295546
1098.65	0.246121
1100.29	0.801086
1101.93	0.776274
1103.56	0.667107
1105.2	0.645264
1106.84	0.602473
1108.47	0.107823
1110.11	0.257405
1111.74	0.0616016
1113.38	1.06748
1115.01	-0.0329037
1116.64	0.00460339
1118.28	0.513751
1119.91	0.680017
1121.54	0.183208
1123.18	0.244309
1124.81	0.734148
1126.44	0.368909
1128.07	0.603319
1129.7	0.239616
1131.33	0.325476
1132.97	0.411586
1134.6	0.198305
1136.23	0.176862
1137.86	0.90234
1139.49	-0.061204
1141.11	0.256115
1142.74	0.188522
1144.37	0.334351
1146	0.310081
1147.63	0.0735674
1149.26	-0.311169
1150.88	-0.290585
1152.51	0.155901
1154.14	-0.334891
1155.76	0.536341
1157.39	-0.210105
1159.01	0.320362
1160.64	0.17082
1162.27	0.660173
1163.89	0.916516
1165.51	0.216565
1167.14	0.855887
1168.76	0.324851
1170.39	-0.101256
1172.01	0.214786
1173.63	-0.00193596
1175.25	0.671564
1176.88	0.24113
1178.5	0.319889
1180.12	0.483796
1181.74	0.0771236
1183.36	0.20009
1184.98	-0.268668
1186.6	0.381511
1188.22	-0.0257053
1189.84	0.198389
1191.46	0.357091
1193.08	-0.0537243
1194.7	0.207673
1196.32	-0.181659
1197.94	0.038043
1199.55	0.739718
1201.17	0.355611
1202.79	0.454791
1204.41	0.410161
1206.02	0.284084
1207.64	0.785138
1209.25	0.472836
1210.87	0.618737
1212.48	0.22091
1214.1	0.800803
1215.71	0.836403
1217.33	0.537325
1218.94	0.258593
1220.56	0.727622
1222.17	0.242302
1223.79	1.06438
1225.4	0.664952
1227.01	1.05381
1228.62	0.967874
1230.23	0.883214
1231.85	0.923755
1233.46	0.80007
1235.07	0.760228
1236.68	0.990203
1238.29	1.42795
1239.9	1.26688
1241.51	0.774977
1243.12	0.716985
1244.73	0.513413
1246.34	1.24005
1247.94	1.38631
1249.55	1.67659
1251.16	0.828649
1252.77	1.11875
1254.37	0.892362
1255.98	1.0186
1257.59	0.918455
1259.2	0.964202
1260.8	0.762418
1262.41	1.16144
1264.01	0.794341
1265.62	1.87717
1267.22	0.596894
1268.83	0.870066
1270.43	0.789849
1272.03	1.04038
1273.64	1.33135
1275.24	0.895756
1276.85	0.645975
1278.45	1.14131
1280.05	1.32505
1281.65	0.928787
1283.25	1.38114
1284.85	0.923699
1286.46	0.426047
1288.06	1.06633
1289.66	0.901297
1291.26	1.52199
1292.86	1.19207
1294.46	1.15074
1296.06	0.942998
1297.66	1.51834
1299.25	1.55501
1300.85	1.17779
1302.45	1.21191
1304.05	1.40966
1305.65	1.7502
1307.24	0.795616
1308.84	1.42246
1310.43	1.88399
1312.03	1.34173
1313.63	1.25121
1315.22	1.97916
1316.82	1.11426
1318.41	1.41418
1320.01	1.44851
1321.6	1.31897
1323.2	0.964321
1324.79	0.994994
1326.38	1.67385
1327.98	1.37718
1329.57	1.83091
1331.16	1.03116
1332.76	1.08376
1334.35	1.01725
1335.94	1.21471
1337.53	1.08983
1339.12	0.823397
1340.71	1.48233
1342.3	1.1319
1343.89	1.26268
1345.48	1.61287
1347.07	1.46089
1348.66	1.53122
1350.25	1.00341
1351.84	1.25884
1353.43	1.09617
1355.01	1.53451
1356.6	0.853997
1358.19	0.992502
1359.77	1.0102
1361.36	1.14659
1362.95	1.04262
1364.53	0.79884
1366.12	0.794622
1367.71	1.10975
1369.29	0.928081
1370.88	1.06627
1372.46	0.907249
1374.04	1.02789
1375.63	1.26857
1377.21	1.1711
1378.8	0.774672
1380.38	0.755378
1381.96	1.11282
1383.54	0.733006
1385.13	0.909073
1386.71	0.548083
1388.29	0.902428
1389.87	0.919614
1391.45	0.937628
1393.03	1.03574
1394.61	1.11436
1396.19	0.716874
1397.77	0.873991
1399.35	0.93096
1400.93	0.887912
1402.51	0.804719
1404.09	0.899602
1405.67	1.07394
1407.24	1.38729
1408.82	0.258884
1410.4	0.929152
1411.98	0.789379
1413.55	0.333312
1415.13	1.25795
1416.71	0.642616
1418.28	0.87506
1419.86	0.851423
1421.43	0.986305
1423.01	1.4769
1424.58	0.886427
1426.16	1.04517
1427.73	0.653344
1429.31	0.891124
1430.88	1.32486
1432.45	1.69831
1434.02	1.55908
1435.6	1.00644
1437.17	1.69293
1438.74	1.04314
1440.31	1.75064
1441.88	1.77113
1443.45	1.92991
1445.03	1.95153
1446.6	1.69816
1448.17	1.95597
1449.74	1.5457
1451.3	2.15821
1452.87	2.1225
1454.44	1.43803
1456.01	1.71733
1457.58	1.66157
1459.15	2.15561
1460.72	1.60485
1462.28	2.35086
1463.85	1.91465
1465.42	1.3794
1466.98	1.09971
1468.55	1.11513
1470.12	1.07249
1471.68	1.38408
1473.25	1.46118
1474.81	1.38218
1476.38	1.2644
1477.94	1.02914
1479.51	1.08791
1481.07	1.10735
1482.63	0.969919
1484.2	1.10671
1485.76	0.812136
1487.32	0.94784
1488.88	0.67107
1490.45	0.275418
1492.01	0.582155
1493.57	0.88629
1495.13	0.368567
1496.69	0.942218
1498.25	0.735711
1499.81	0.918927
1501.37	1.0445
1502.93	1.09339
1504.49	0.60058
1506.05	0.321872
1507.61	0.217189
1509.17	0.710656
1510.73	0.159887
1512.28	0.920137
1513.84	0.196
1515.4	0.607979
1516.96	0.501098
1518.51	0.740375
1520.07	-0.0930119
1521.63	0.682958
1523.18	0.635034
1524.74	0.490996
1526.29	0.613304
1527.85	0.33449
1529.4	0.778475
1530.96	0.518573
1532.51	0.297784
1534.06	-0.0541792
1535.62	0.427895
1537.17	0.588571
1538.72	0.353186
1540.28	0.36378
1541.83	0.280257
1543.38	1.02489
1544.93	0.395334
1546.48	0.236394
1548.03	0.509165
1549.59	0.537657
1551.14	0.753498
1552.69	0.744894
1554.24	0.718502
1555.79	0.338602
1557.34	0.595452
1558.88	0.368774
1560.43	0.498442
1561.98	0.480356
1563.53	0.892429
1565.08	0.334917
1566.62	0.561137
1568.17	0.469925
1569.72	0.788987
1571.27	0.0063858
1572.81	0.996846
1574.36	0.624475
1575.9	0.364114
1577.45	0.701307
1579	0.572175
1580.54	0.350223
1582.09	1.24946
1583.63	1.04778
1585.17	0.846704
1586.72	0.851609
1588.26	0.5387
1589.8	1.19836
1591.35	0.884745
1592.89	1.03857
1594.43	1.28585
1595.97	1.51456
1597.52	1.01288
1599.06	0.51147
1600.6	0.854402
1602.14	0.578776
1603.68	1.14788
1605.22	1.13453
1606.76	1.21383
1608.3	1.17851
1609.84	1.46043
1611.38	1.2514
1612.92	1.26591
1614.46	1.12893
1615.99	0.597775
1617.53	1.2111
1619.07	1.11293
1620.61	1.4096
1622.14	1.0896
1623.68	1.10754
1625.22	0.432947
1626.75	1.01182
1628.29	1.08401
1629.82	0.986472
1631.36	1.29917
1632.9	0.751862
1634.43	0.392133
1635.96	0.593248
1637.5	0.869635
1639.03	1.03456
1640.57	0.863976
1642.1	0.674325
1643.63	0.949343
1645.16	0.962372
1646.7	0.639764
1648.23	1.2278
1649.76	0.645512
1651.29	1.49378
1652.82	1.35931
1654.36	0.910906
1655.89	1.11217
1657.42	1.01682
1658.95	0.939331
1660.48	1.08284
1662.01	1.40977
1663.53	0.884726
1665.06	1.3758
1666.59	1.27582
1668.12	0.623752
1669.65	0.729597
1671.18	0.892036
1672.7	0.76071
1674.23	0.501025
1675.76	0.46222
1677.29	0.956449
1678.81	1.54122
1680.34	1.31535
1681.86	0.886834
1683.39	0.880858
1684.91	1.11349
1686.44	0.557586
1687.96	0.625937
1689.49	0.822826
1691.01	0.65357
1692.54	0.630968
1694.06	0.992457
1695.58	0.603845
1697.11	0.452944
1698.63	0.283621
1700.15	0.39798
1701.67	0.321662
1703.2	0.2481
1704.72	0.223107
1706.24	0.361468
1707.76	0.00846958
1709.28	0.309879
1710.8	-0.278414
1712.32	0.403744
1713.84	0.0522079
1715.36	0.407334
1716.88	-0.432013
1718.4	-0.149546
1719.91	0.078208
1721.43	0.107247
1722.95	0.154793
1724.47	0.0950985
1725.99	0.216762
1727.5	-0.146421
1729.02	-0.0045681
1730.54	-0.218342
1732.05	-7.34329e-005
1733.57	0.209947
1735.09	0.234419
1736.6	0.289536
1738.12	0.325774
1739.63	-0.053215
1741.15	-0.704594
1742.66	0.284598
1744.18	-0.00160503
1745.69	0.199658
1747.2	0.178291
1748.72	-0.0550032
1750.23	0.289084
1751.74	0.0843735
1753.25	0.086647
1754.77	0.353106
1756.28	0.0127106
1757.79	0.156004
1759.3	0.200574
1760.81	-0.124854
1762.32	-0.0319796
1763.83	-0.103325
1765.34	-0.322635
1766.85	-0.302958
1768.36	-0.0770721
1769.87	0.106144
1771.38	0.405566
1772.89	-0.104792
1774.4	-0.0262861
1775.91	-0.17749
1777.41	-0.141142
1778.92	0.0962191
1780.43	0.120646
1781.94	-0.0560999
1783.44	-0.0814199
1784.95	0.0193272
1786.45	-0.0515022
1787.96	0.263812
1789.47	0.106681
1790.97	0.197653
1792.47	0.254417
1793.98	0.468416
1795.48	0.233123
1796.99	0.320088
1798.49	0.0622044
1800	0.115234
1801.5	-0.330355
1803	0.249193
1804.51	0.130094
1806.01	0.126736
1807.51	-0.134428
1809.01	0.24716
1810.51	0.0605965
1812.02	0.138982
1813.52	0.181316
1815.02	-0.0523109
1816.52	-0.236175
1818.02	-0.0622854
1819.52	0.0166883
1821.02	-0.145549
1822.52	0.0452108
1824.02	0.383762
1825.51	0.0140886
1827.01	0.242826
1828.51	-0.330911
1830.01	-0.291328
1831.51	0.36838
1833	0.0846786
1834.5	-0.184649
1836	0.00246143
1837.49	-0.115994
1838.99	-0.131052
1840.49	0.100682
1841.98	-0.00610161
1843.48	0.222214
1844.97	0.0694237
1846.47	0.155978
1847.96	0.127911
1849.46	-0.336144
1850.95	-0.157354
1852.45	0.317042
1853.94	0.139233
1855.43	0.157148
1856.92	-0.18319
1858.42	-0.0541849
1859.91	-0.0188704
1861.4	0.0738859
1862.89	0.0971174
1864.39	0.101338
1865.88	-0.224683
1867.37	0.29725
1868.86	0.235127
1870.35	0.0810461
1871.84	0.279928
1873.33	0.115321
1874.82	0.0779629
1876.31	0.0754118
1877.8	0.0939636
1879.29	0.0948639
1880.77	0.327537
1882.26	-0.104636
1882.52	-0.21027
1884.02	-0.0029974
1885.51	0.412527
1887.01	0.165004
1888.5	0.230604
1889.99	0.174538
1891.49	0.206405
1892.98	0.257142
1894.47	0.257431
1895.96	0.120082
1897.46	0.453053
1898.95	0.0206757
1900.44	0.370115
1901.93	0.317931
1903.42	0.0380211
1904.91	0.330639
1906.4	-0.0206146
1907.89	0.20153
1909.38	0.319885
1910.87	-0.0814924
1912.36	-0.134869
1913.85	-0.239733
1915.34	0.0196829
1916.83	0.226695
1918.32	0.225125
1919.8	-0.383281
1921.29	0.151806
1922.78	0.548424
1924.27	0.0800905
1925.75	-0.0235291
1927.24	0.237394
1928.73	0.273892
1930.21	-0.157168
1931.7	0.121
1933.18	0.0515156
1934.67	0.0843048
1936.15	0.115531
1937.64	-0.00998497
1939.12	0.209815
1940.61	0.291467
1942.09	0.304807
1943.57	0.629635
1945.06	0.213571
1946.54	0.0394821
1948.02	-0.100231
1949.51	-0.39554
1950.99	0.0833511
1952.47	-0.00697136
1953.95	-0.149282
1955.43	0.120938
1956.91	0.425517
1958.39	-0.00760651
1959.87	0.418119
1961.36	-0.167681
1962.84	0.104196
1964.32	0.409951
1965.79	-0.278265
1967.27	0.437066
1968.75	-0.114799
1970.23	0.20526
1971.71	-0.0902643
1973.19	0.365587
1974.66	-0.0489683
1976.14	-0.0196276
1977.62	-0.364877
1979.1	0.362768
1980.57	-0.441462
1982.05	0.0981092
1983.53	0.0421438
1985	0.376351
1986.48	0.150127
1987.95	0.0259256
1989.43	-0.0639162
1990.9	-0.33917
1992.38	0.130925
1993.85	-0.0578308
1995.33	0.176801
1996.8	0.0231276
1998.27	0.241076
1999.75	0.188363
2001.22	0.135131
2002.69	-0.137765
2004.16	0.0952282
2005.64	0.328308
2007.11	-0.263425
2008.58	0.190074
2010.05	0.172783
2011.52	-0.029171
2012.99	0.27392
2014.46	-0.0292873
2015.93	0.255782
2017.4	0.0521116
2018.87	0.318545
2020.34	0.248173
2021.81	-0.19171
2023.28	-0.127298
2024.75	0.206228
2026.22	0.020647
2027.69	-0.0796852
2029.15	-0.128339
2030.62	-0.209358
2032.09	-0.00426292
2033.56	0.302134
2035.02	-0.146953
2036.49	0.243256
2037.95	-0.206955
2039.42	-0.136713
2040.89	0.202474
2042.35	0.340405
2043.82	-0.109574
2045.28	0.114013
2046.75	0.355342
2048.21	0.294019
2049.67	0.400874
2051.14	-0.150694
2052.6	0.257302
2054.06	0.056571
2055.53	0.0397635
2056.99	-0.197426
2058.45	0.441081
2059.92	0.270421
2061.38	0.133965
2062.84	0.284505
2064.3	0.402269
2065.76	0.133901
2067.22	-0.234656
2068.68	0.0873327
2070.14	0.308693
2071.6	0.227133
2073.06	0.212776
2074.52	0.19818
2075.98	0.183276
2077.44	0.488006
2078.9	0.186124
2080.36	-0.0656261
2081.82	0.136765
2083.27	0.220651
2084.73	-0.0159082
2086.19	0.0498161
2087.65	0.400771
2089.1	0.24684
2090.56	0.546397
2092.01	-0.0777845
2093.47	0.456397
2094.93	0.0338612
2096.38	0.214738
2097.84	0.143549
2099.29	-0.195879
2100.75	0.1004
2102.2	0.162481
2103.66	0.225233
2105.11	0.172262
2106.56	0.270754
2108.02	-0.0301294
2109.47	0.186364
2110.92	0.302242
2112.37	0.466818
2113.83	0.563019
2115.28	0.308149
2116.73	0.102754
2118.18	-0.234882
2119.63	0.607632
2121.09	0.604866
2122.54	0.355166
2123.99	0.0405903
2125.44	0.406491
2126.89	0.390766
2128.34	0.357556
2129.79	0.0248461
2131.23	0.436575
2132.68	0.0360584
2134.13	0.165351
2135.58	0.758167
2137.03	0.608084
2138.48	-0.118617
2139.92	0.412428
2141.37	0.796327
2142.82	0.0571003
2144.26	0.426278
2145.71	0.415238
2147.16	0.321138
2148.6	0.325784
2150.05	0.213693
2151.49	0.465201
2152.94	0.202211
2154.38	0.816632
2155.83	0.188024
2157.27	0.967637
2158.72	0.505486
2160.16	0.392381
2161.6	0.628787
2163.05	0.618368
2164.49	0.824996
2165.93	0.650849
2167.38	0.775429
2168.82	0.782842
2170.26	0.655563
2171.7	0.825719
2173.14	0.761209
2174.58	0.712069
2176.03	0.429587
2177.47	0.912236
2178.91	0.530933
2180.35	0.549561
2181.79	0.519099
2183.23	0.539045
2184.67	0.442825
2186.1	0.579541
2187.54	0.450106
2188.98	0.603571
2190.42	0.55734
2191.86	0.977005
2193.3	0.297183
2194.73	0.565176
2196.17	0.947966
2197.61	0.413544
2199.05	0.676262
2200.48	0.688438
2201.92	0.418216
2203.35	0.580323
2204.79	0.759808
2206.22	0.542305
2207.66	0.275782
2209.09	0.522668
2210.53	0.305185
2211.96	0.28555
2213.4	0.166094
2214.83	0.608279
2216.27	0.142556
2217.7	0.123814
2219.13	0.633878
2220.56	0.451976
2222	0.501038
2223.43	0.236398
2224.86	0.250696
2226.29	0.329264
2227.72	0.291137
2229.16	0.629649
2230.59	-0.0175943
2232.02	-0.335846
2233.45	-0.0147982
2234.88	0.469737
2236.31	0.366288
2237.74	0.297101
2239.17	0.556035
2240.6	-0.211011
2242.03	0.426435
2243.45	0.0374241
2244.88	0.61106
2246.31	0.596914
2247.74	0.467137
2249.17	0.0420237
2250.59	0.527696
2252.02	0.457582
2253.45	-0.0359945
2254.87	0.218946
2256.3	0.361113
2257.73	-0.0789032
2259.15	0.00299644
2260.58	0.119896
2262	0.0117731
2263.43	0.116086
2264.85	0.302043
2266.28	0.0326023
2267.7	0.152615
2269.13	0.581119
2270.55	0.244037
2271.97	0.313388
2273.4	-0.33399
2274.82	0.69628
2276.24	0.260769
2277.66	0.216352
2279.09	-0.317106
2280.51	-0.0844755
2281.93	-0.0801954
2283.35	0.201357
2284.77	-0.0880737
2286.19	0.650882
2287.61	-0.0136003
2289.04	0.105886
2290.46	0.144113
2291.88	0.11723
2293.29	0.237619
2294.71	0.292646
2296.13	0.314906
2297.55	0.566387
2298.97	0.228354
2300.39	0.136044
2301.81	0.20787
2303.23	0.247207
2304.64	0.171824
2306.06	0.523293
2307.48	0.0860929
2308.89	-0.0232296
2310.31	0.0970612
2311.73	-0.0954623
2313.14	0.0903034
2314.56	0.177784
2315.97	0.397721
2317.39	0.486782
2318.8	0.131268
2320.22	-0.0599146
2321.63	0.358274
2323.05	0.180851
2324.46	0.017808
2325.88	0.46326
2327.29	0.774867
2328.7	0.937072
2330.12	0.143943
2331.53	-0.104292
2332.94	-0.055119
2334.35	0.0441332
2335.76	-0.0209446
2337.18	-0.0206051
2338.59	0.291236
2340	-0.00622559
2341.41	0.418358
2342.82	-0.0770836
2344.23	0.034893
2345.64	-0.033318
2347.05	0.210006
2348.46	0.256629
2349.87	0.302838
2351.28	-0.158465
2352.69	-0.0155969
2354.1	-0.200154
2355.5	-0.270848
2356.91	0.260752
2358.32	0.189384
2359.73	0.15077
2361.14	0.19347
2362.54	0.317127
2363.95	0.278461
2365.36	0.0618653
2366.76	0.039825
2368.17	0.00221062
2369.58	0.449509
2370.98	0.397628
2372.39	-0.297366
2373.79	-0.121233
2375.2	0.119468
2376.6	0.102197
2378	0.309093
2379.41	0.305412
2380.81	-0.0529552
2382.22	0.373856
2383.62	0.270339
2385.02	0.246818
2386.42	0.239697
2387.83	0.233399
2389.23	0.323859
2390.63	0.144493
2392.03	-0.2246
2393.43	-0.162763
2394.84	-0.132081
2396.24	-0.100811
2397.64	0.0104518
2399.04	0.0427146
2400.44	0.456666
2401.84	0.251307
2403.24	-0.128649
2404.64	0.20572
2406.04	0.269291
2407.44	0.0780888
2408.83	0.425566
2410.23	0.13833
2411.63	0.0575442
2413.03	-0.30751
2414.43	-0.0696135
2415.83	-0.416257
2417.22	0.0139699
2418.62	0.207582
2420.02	0.132362
2421.41	0.0411601
2422.81	0.250625
2424.21	0.142993
2425.6	-0.0438457
2427	-0.0718017
2428.39	0.392441
2429.79	-0.299889
2431.18	-0.325809
2432.58	-0.224629
2433.97	0.177955
2435.36	-0.18274
2436.76	0.217782
2438.15	-0.0662231
2439.54	0.236433
2440.94	0.506341
2442.33	0.489818
2443.72	0.155674
2445.11	0.218168
2446.51	0.248755
2447.9	-0.0219126
2449.29	0.198687
2450.68	-0.277372
2452.07	-0.0561943
2453.46	-0.72058
2454.85	0.0556684
2456.24	0.0888333
2457.63	-0.209897
2459.02	0.26629
2460.41	0.473003
2461.8	-0.0958414
2463.19	0.109402
2464.58	0.219173
2465.97	-0.00306463
2467.36	-0.272553
2468.75	0.0577168
2470.13	0.324418
2471.52	-0.197691
2472.91	0.193868
2474.29	0.316607
2475.68	0.391372
2477.07	0.104171
2478.45	0.209994
2479.84	-0.186349
2481.22	0.0138998
2482.61	0.401779
2484	-0.0097723
2485.38	0.141652
2486.77	0.057405
2488.15	-0.0588412
2489.54	0.0738859
2490.92	0.408461
2492.3	-0.0190201
2493.69	0.0523114
2495.07	0.093658
2496.45	-0.0189443
2497.84	-0.022203
2499.22	0.268866
2500.6	0.157075
2501.98	-0.140711
2503.36	0.00894785
2504.74	0.172937
2506.13	0.0894852
2507.51	0.113728
2508.89	0.107275
2510.27	-0.190575
2511.65	-0.165086
2513.03	0.443511
2514.41	0.163537
2515.79	0.298019
2517.17	-0.178832
2518.55	0.0791769
2519.93	0.153699
2521.3	0.120994
2522.68	0.286159
2524.06	-0.266527
2525.44	0.0954213
2526.82	0.197667
2528.19	-0.0498528
2529.57	-0.220035
2530.95	0.219273
2532.32	-0.0543628
2533.7	-0.159578
2535.08	0.115656
2536.45	-0.125696
2537.83	0.376748
2539.2	0.0732145
2540.58	0.0423884
2541.95	0.102321
2543.33	0.359694
2544.7	0.192973
2546.08	-0.078764
2547.45	0.0904665
2548.82	0.123956
2550.2	-0.0397487
2551.57	0.281717
2552.94	0.192632
2554.32	0.360589
2555.69	0.0573401
2557.06	-0.170424
2558.43	0.178024
2559.8	0.253653
2561.17	0.299417
2562.55	-0.108886
2563.92	-0.107458
2565.29	0.182267
2566.66	0.0479012
2568.03	0.171243
2569.4	0.446166
2570.77	0.327037
2572.14	0.556559
2573.51	-0.0930152
2574.88	-0.0300913
2576.24	-0.1339
2577.61	0.0199652
2578.98	0.113
2580.35	-0.00655746
2581.72	0.267755
2583.09	0.465889
2584.45	0.163487
2585.82	-0.0327883
2587.19	0.0590534
2588.55	-0.167218
2589.92	0.000655651
2591.28	0.183552
2592.65	-0.14916
2594.02	0.0477381
2595.38	0.243618
2596.75	0.120544
2598.11	0.102774
2599.48	0.0695648
2600.84	-0.00884199
2602.2	0.185112
2603.57	0.198339
2604.93	0.408233
2606.3	0.346637
2607.66	0.0133734
2609.02	-0.10934
2610.38	0.369505
2611.75	-0.161906
2613.11	-0.272398
2614.47	0.352694
2615.83	0.18097
2617.19	0.174693
2618.56	0.0641456
2619.92	0.388433
2621.28	0.0848832
2622.64	-0.337296
2624	-0.221145
2625.36	-0.0604272
2626.72	0.0252929
2628.08	0.393715
2629.44	0.180604
2630.8	0.131298
2632.15	-0.0518236
2633.51	0.22578
2634.87	0.295123
2636.23	0.230855
2637.59	0.374132
2638.94	0.280323
2640.3	-0.0203128
2641.66	0.0493269
2643.02	0.119114
2644.37	0.085618
2645.73	-0.0954242
2647.08	0.268881
2648.44	0.204835
2649.8	0.257889
2651.15	0.457222
2652.51	0.0977988
2653.86	-0.0993137
2655.22	0.158984
2656.57	-0.0947776
2657.92	0.501749
2659.28	0.0890422
2660.63	0.320476
2661.99	-0.0330172
2663.34	0.387462
2664.69	0.0914598
2666.04	0.49529
2667.4	-0.0638018
2668.75	-0.0104856
2670.1	0.203035
2671.45	-0.0921669
2672.81	0.252912
2674.16	0.235098
2675.51	-0.261149
2676.86	0.331679
2678.21	0.112468
2679.56	0.213132
2680.91	0.155228
2682.26	-0.0900726
2683.61	0.390663
2684.96	0.0602245
2686.31	0.1653
2687.66	-0.136101
2689	-0.220905
2690.35	0.302568
2691.7	0.055017
2693.05	-0.36782
2694.4	0.13695
2695.74	0.307688
2697.09	0.000790596
2698.44	0.0428152
2699.79	-0.0729685
2701.13	0.44993
2702.48	0.250176
2703.82	0.196156
2705.17	-0.0169082
2706.52	0.32105
2707.86	0.470435
2709.21	0.0098772
2710.55	0.0423846
2711.9	-0.0996428
2713.24	-0.0529714
2714.58	0.211713
2715.93	0.520117
2717.27	-0.116791
2718.61	0.322283
2719.96	0.0627856
2721.3	0.574124
2722.64	0.532059
2723.99	0.125658
2725.33	-0.441259
2726.67	0.257823
2728.01	-0.091341
2729.35	-0.0040741
2730.7	0.126699
2732.04	0.0100908
2733.38	0.00996399
2734.72	0.126359
2736.06	0.213832
2737.4	0.0105438
2738.74	0.127211
2740.08	0.185481
2741.42	0.44688
2742.76	0.198802
2744.09	0.0374236
2745.43	0.384066
2746.77	0.0330186
2748.11	-0.129198
2749.45	0.448725
2750.79	0.25769
2752.12	0.328001
2753.46	-0.224709
2754.8	0.0634098
2756.13	-0.0251012
2757.47	-0.200292
2758.81	0.218352
2760.14	0.0582399
2761.48	0.173565
2762.81	0.173543
2764.15	0.275093
2765.49	0.448973
2766.82	-0.0720024
2768.15	0.0283394
2769.49	-0.103841
2770.82	0.167468
2772.16	0.220609
2773.49	0.128445
2774.82	0.180114
2776.16	-0.0852256
2777.49	-0.565656
2778.82	-0.0957537
2780.16	0.0721369
2781.49	0.311888
2782.82	0.0347748
2784.15	0.116522
2785.48	-0.160154
2786.81	0.00770426
2788.15	0.0469747
2789.48	-0.27079
2790.81	-0.20135
2792.14	0.154686
2793.47	-0.0322466
2794.8	0.195413
2796.13	0.2655
2797.46	-0.0363193
2798.79	0.0613732
2800.12	0.0444388
2801.44	-0.44346
2802.77	-0.146852
2804.1	0.149235
2805.43	0.216729
2806.76	0.212434
2808.08	-0.147995
2809.41	0.244985
2810.74	0.182958
2812.07	0.277673
2813.39	0.0471025
2814.72	0.115768
2816.05	0.341614
2817.37	0.256615
2818.7	0.370595
2820.02	0.0026927
2821.35	-0.223843
2822.67	-0.0399413
2824	0.157528
2825.32	0.326273
2826.65	0.268407
2827.97	0.211037
2829.29	-0.114783
2830.62	0.310127
2831.94	0.0698943
2833.26	0.409986
2834.59	0.410067
2835.91	0.636141
2837.23	0.536222
2838.55	0.464244
2839.88	0.491118
2841.2	0.814979
2842.52	0.828105
2843.84	0.601569
2845.16	1.11061
2846.48	0.645069
2847.8	0.801686
2849.12	0.873545
2850.44	0.973423
2851.76	1.12941
2853.08	1.41211
2854.4	1.17156
2855.72	1.18524
2857.04	1.36842
2858.36	1.39623
2859.68	1.36754
2861	1.40931
2862.32	1.80372
2863.63	2.05648
2864.95	1.89967
2866.27	2.19434
2867.58	2.15063
2868.9	2.45987
2870.22	2.31827
2871.53	2.59975
2872.85	2.31715
2874.17	2.83711
2875.48	2.39797
2876.8	2.29606
2878.11	2.92521
2879.43	2.21739
2880.74	2.22748
2882.06	1.99946
2883.37	2.27815
2884.69	2.93665
2886	2.71105
2887.31	2.71017
2888.63	2.51244
2889.94	3.19783
2891.25	3.1528
2892.57	2.30834
2893.88	2.69729
2895.19	2.33009
2896.5	2.84575
2897.82	2.74634
2899.13	3.24954
2900.44	2.94198
2901.75	2.85873
2903.06	3.04146
2904.37	2.91658
2905.68	2.79197
2906.99	3.10148
2908.3	3.24391
2909.61	2.91144
2910.92	3.54497
2912.23	3.84284
2913.54	4.08412
2914.85	3.13407
2916.16	3.94645
2917.46	3.97333
2918.77	4.13919
2920.08	4.01108
2921.39	4.49887
2922.7	4.45642
2924	4.12176
2925.31	4.40323
2926.62	4.67132
2927.92	4.6599
2929.23	4.75997
2930.53	4.66379
2931.84	4.67902
2933.15	5.04345
2934.45	4.59715
2935.76	4.44452
2937.06	4.92093
2938.37	4.54507
2939.67	4.28128
2940.98	4.22758
2942.28	3.99299
2943.58	3.77342
2944.89	3.7367
2946.19	3.56115
2947.49	4.01562
2948.8	3.68642
2950.1	3.72
2951.4	3.17789
2952.7	3.48822
2954.01	3.39123
2955.31	3.11195
2956.61	3.00148
2957.91	3.36869
2959.21	3.10841
2960.51	2.80835
2961.81	2.94427
2963.11	2.73035
2964.41	2.62796
2965.71	3.10019
2967.01	2.74222
2968.31	2.7202
2969.61	2.38815
2970.91	2.64657
2972.21	2.69434
2973.51	2.33435
2974.81	2.62168
2976.1	2.50027
2977.4	2.37768
2978.7	2.12685
2980	2.25463
2981.29	2.29672
2982.59	1.93037
2983.89	1.48027
2985.18	1.46711
2986.48	1.82059
2987.78	1.61324
2989.07	1.95481
2990.37	1.57994
2991.66	1.31703
2992.96	1.16565
2994.25	1.23804
2995.55	1.33748
2996.84	1.47829
2998.14	0.903094
2999.43	1.01593
3000.72	0.329926
3002.02	1.04656
3003.31	0.76822
3004.6	0.350058
3005.9	0.604117
3007.19	0.507512
3008.48	0.522201
3009.77	0.20053
3011.07	0.35372
3012.36	0.576116
3013.65	0.323841
3014.94	0.378982
3016.23	0.225688
3017.52	0.504815
3018.81	0.491871
3020.1	0.42338
3021.39	-0.034586
3022.68	0.396225
3023.97	0.409184
3025.26	-0.0360656
3026.55	0.031805
3027.84	0.279819
3029.13	0.625147
3030.42	0.43248
3031.71	0.420887
3033	0.285994
3034.28	0.0134726
3035.57	0.320088
3036.86	-0.0778832
3038.15	0.115564
3039.43	-0.119573
3040.72	-0.094347
3042.01	-0.166032
3043.29	0.379184
3044.58	0.321416
3045.86	0.0601506
3047.15	0.00617599
3048.44	0.131756
3049.72	0.122578
3051.01	0.101132
3052.29	0.053102
3053.58	0.0869713
3054.86	0.338543
3056.14	0.439054
3057.43	0.606664
3058.71	0.146657
3060	0.653658
3061.28	0.0717621
3062.56	-0.0734596
3063.84	0.204076
3065.13	0.197325
3066.41	-0.202472
3067.69	0.323084
3068.97	0.237176
3070.25	0.0694022
3071.54	0.213698
3072.82	0.180125
3074.1	0.335798
3075.38	0.205163
3076.66	0.12868
3077.94	0.283358
3079.22	0.0318003
3080.5	-0.136953
3081.78	0.0890212
3083.06	0.11258
3084.34	-0.216052
3085.62	-0.0154648
3086.9	-0.15453
3088.17	-0.0498834
3089.45	0.0677295
3090.73	-0.00506401
3092.01	0.627493
3093.29	0.432524
3094.56	0.563352
3095.84	0.206261
3097.12	0.0798202
3098.4	0.00758886
3099.67	0.246902
3100.95	0.147337
3102.22	0.41352
3103.5	0.0840907
3104.77	0.228995
3106.05	0.0226102
3107.33	0.588402
3108.6	-0.211755
3109.88	0.477729
3111.15	0.247695
3112.43	0.00462294
3113.7	0.303742
3114.97	0.128611
3116.25	0.210587
3117.52	0.413916
3118.79	0.263635
3120.07	0.464994
3121.34	0.326476
3122.61	0.241715
3123.88	0.332937
3125.16	0.329436
3126.43	0.353372
3127.7	0.634832
3128.97	0.213271
3130.24	0.31957
3131.51	0.101487
3132.78	0.342811
3134.05	0.28648
3135.33	0.567221
3136.59	0.523307
3137.86	0.573345
3139.14	0.367002
3140.41	0.349254
3141.67	0.371905
3142.94	0.408197
3144.21	0.511957
3145.48	0.294106
3146.75	0.46591
3148.02	0.27633
3149.28	0.609629
