200.388	1.46535
202.204	1.46526
204.019	1.46675
205.832	1.6156
207.646	0.525075
209.459	1.50081
211.274	1.33307
213.087	1.64972
214.899	0.558059
216.711	1.04299
218.524	1.3095
220.335	0.535832
222.146	1.3125
223.956	0.0829134
225.766	1.19952
227.576	0.455466
229.388	0.170664
231.197	0.609802
233.005	0.421171
234.813	-0.321313
236.621	0.842574
238.429	0.779293
240.236	0.719085
242.045	0.854598
243.852	0.0753632
245.658	0.647183
247.464	1.12147
249.269	1.37582
251.074	1.09553
252.879	1.05367
254.683	2.0231
256.487	1.2311
258.291	1.35677
260.094	0.858113
261.897	1.56657
263.702	1.33776
265.504	0.363464
267.306	0.859551
269.108	0.728988
270.909	0.501226
272.71	0.947426
274.511	1.31986
276.311	0.364651
278.111	0.8539
279.91	0.882956
281.709	0.524644
283.508	0.597775
285.306	-0.00347137
287.105	0.379797
288.9	0.450694
290.698	0.4266
292.495	0.116934
294.291	0.264096
296.088	-0.0652494
297.884	-0.0583391
299.679	0.642193
301.475	-0.210239
303.27	-0.537541
305.064	-0.102043
306.858	-0.121072
308.652	0.0981522
310.444	0.508466
312.237	0.395945
314.03	0.714129
315.822	0.796454
317.615	0.118997
319.406	-0.199549
321.198	0.841638
322.987	0.215672
324.778	-0.219431
326.568	0.586786
328.358	0.93999
330.148	0.528028
331.935	0.688425
333.724	0.0575924
335.513	0.237823
337.301	-0.27832
339.089	0.471439
340.875	0.310278
342.662	0.483055
344.449	0.24951
346.236	-0.126501
348.02	0.0478125
349.806	0.00789261
351.592	-0.0557013
353.375	0.715428
355.16	0.00606632
356.944	-0.274917
358.728	0.181767
360.51	0.0889387
362.294	-0.0761042
364.077	0.733247
365.858	0.23384
367.64	-0.123061
369.422	-0.0770378
371.202	0.204886
372.983	0.31985
374.764	-0.203895
376.543	0.147123
378.324	-0.492368
380.102	0.378213
381.881	0.354201
383.661	0.778731
385.438	0.945792
387.216	0.85581
388.993	0.344519
390.771	1.07953
392.548	0.429874
394.324	0.344729
396.101	0.283627
397.875	0.269704
399.651	0.16175
401.425	0.358729
403.201	0.672534
404.974	0.304423
406.749	0.45224
408.524	0.92807
410.296	0.816553
412.07	1.01029
413.841	0.312872
415.614	-0.242727
417.385	0.821683
419.156	0.385235
420.928	0.371557
422.698	-0.182217
424.469	1.09436
426.238	0.679724
428.009	-0.017498
429.777	-0.0813475
431.548	0.558959
433.315	-0.161632
435.083	0.268266
436.852	-0.0762596
438.618	-0.2337
440.387	0.123643
442.153	-0.013978
443.919	-0.0834961
445.686	-0.154957
447.451	-0.0403776
449.218	0.0267229
450.982	0.187304
452.746	0.161283
454.512	0.368892
456.275	0.249928
458.038	-0.33473
459.803	0.0124664
461.565	0.197156
463.327	-0.267381
465.091	0.456121
466.852	0.416027
468.613	-0.271662
470.374	0.600369
472.136	0.590022
473.896	0.252959
475.655	0.169859
477.415	-0.265136
479.176	0.089797
480.934	0.466839
482.692	-0.041048
484.45	0.0812464
486.21	0.22909
487.967	0.309613
489.724	0.462633
491.481	0.920632
493.237	0.399015
494.995	0.531569
496.75	0.336597
498.506	0.164413
500.26	0.296302
502.015	0.615488
503.769	0.370486
505.525	0.946499
507.279	0.486896
509.032	0.636775
510.785	-0.0386295
512.537	0.813576
514.289	0.346375
516.041	0.701136
517.793	0.489904
519.546	0.254184
521.297	0.182309
523.047	0.321342
524.797	0.741667
526.547	0.52815
528.297	1.15902
530.046	0.336194
531.795	-0.251938
533.543	0.657875
535.291	0.255283
537.039	0.903447
538.787	0.35807
540.534	1.09516
542.281	-0.080452
544.027	0.979783
545.773	1.13119
547.519	0.0988064
549.264	0.436914
551.01	-0.730642
552.754	-0.0911446
554.499	0.131289
556.243	0.16892
557.987	0.506727
559.73	0.199389
561.474	-0.175808
563.216	0.232338
564.959	0.732507
566.701	0.497717
568.441	-0.103171
570.182	0.399216
571.923	0.375162
573.664	0.0777493
575.405	0.172332
577.145	0.383591
578.885	-0.597159
580.624	0.2824
582.361	0.151936
584.1	0.250701
585.839	0.256444
587.577	0.559852
589.315	-0.0813017
591.052	0.01266
592.787	-0.0550222
594.524	-0.398962
596.26	0.016386
597.997	0.730802
599.732	1.23775
601.466	-0.48766
603.201	0.316008
604.936	0.220975
606.67	0.193496
608.403	-0.179339
610.136	-0.299459
611.87	0.177444
613.603	-0.239431
615.334	0.376155
617.067	-0.199838
618.799	-0.157548
620.529	0.272723
622.26	0.0148458
623.991	-0.175074
625.72	-0.182009
627.451	-0.119365
629.181	0.12787
630.909	0.331929
632.638	-0.0321808
634.368	0.677546
636.095	0.291532
637.823	0.200378
639.551	0.44864
641.277	0.374052
643.005	0.319583
644.73	0.195447
646.457	1.0727
648.184	0.905032
649.908	-0.59946
651.634	0.331833
653.357	0.0403395
655.083	-0.270579
656.806	0.536111
658.53	0.0919657
660.253	0.445079
661.977	0.271929
663.7	0.187409
665.422	0.0315619
667.145	0.811091
668.865	0.263453
670.588	0.768542
672.308	0.864198
674.027	0.756658
675.749	0.330554
677.468	-0.0261097
679.188	0.879908
680.907	0.706151
682.627	0.208022
684.345	1.34127
686.064	0.0322399
687.781	1.047
689.498	0.333202
691.216	1.0006
692.932	0.791965
694.65	0.881929
696.366	-0.0194378
698.081	0.436607
699.797	0.0395365
701.512	1.06751
703.228	1.03591
704.942	0.337461
706.655	1.03942
708.371	1.60222
710.083	0.720101
711.796	1.99107
713.51	0.994944
715.222	0.754514
716.934	0.674273
718.645	0.708327
720.358	0.879244
722.068	0.59461
723.779	1.22065
725.49	0.936124
727.2	1.28777
728.909	1.07098
730.618	1.23949
732.329	1.04484
734.037	1.93637
735.745	0.565865
737.453	1.29846
739.16	1.51154
740.869	1.52247
742.576	0.723833
744.282	0.895742
745.988	1.45159
747.694	0.726289
749.401	1.32985
751.107	0.922611
752.811	0.944141
754.516	0.832181
756.22	1.23936
757.924	1.01814
759.627	1.36149
761.332	1.18804
763.035	1.78207
764.738	1.99287
766.44	1.63781
768.142	2.2297
769.843	1.62105
771.544	1.50732
773.245	1.61806
774.946	1.68297
776.646	1.90669
778.346	2.17707
780.046	1.47679
781.745	2.47418
783.444	1.95617
785.143	2.07046
786.841	2.00103
788.539	1.38486
790.237	1.28582
791.934	1.56813
793.631	2.57066
795.328	2.10455
797.024	2.06852
798.72	2.07944
800.416	1.84483
802.112	2.01706
803.807	1.98756
805.502	1.26104
807.196	1.86
808.89	2.05279
810.584	2.40106
812.278	1.33497
813.971	2.17442
815.664	2.31816
817.354	1.70107
819.047	1.9567
820.739	1.81011
822.43	1.90961
824.122	1.98751
825.813	1.75489
827.503	1.52481
829.192	1.89913
830.882	2.29905
832.571	1.96721
834.261	1.905
835.95	2.51304
837.637	1.47011
839.325	1.45194
841.013	2.03512
842.701	1.61169
844.389	2.28242
846.074	1.65775
847.761	2.5774
849.447	2.09127
851.131	1.76403
852.817	1.93148
854.503	1.62917
856.188	2.0673
857.871	2.21278
859.556	1.81656
861.24	2.58854
862.922	1.94018
864.606	1.80808
866.289	1.6748
867.97	2.375
869.653	1.87962
871.336	1.9927
873.016	1.83484
874.698	1.65424
876.379	1.11252
878.058	1.54115
879.739	2.4438
881.418	1.60794
883.098	1.38071
884.778	2.01011
886.456	1.19328
888.135	1.75144
889.812	1.76612
891.49	1.30578
893.167	1.49769
894.845	1.21541
896.523	1.94407
898.198	1.72692
899.875	2.1148
901.55	1.58222
903.226	1.67683
904.901	1.838
906.576	1.24005
908.25	1.78126
909.925	1.58727
911.598	1.3947
913.271	1.64779
914.945	1.9896
916.617	1.90935
918.291	2.18375
919.962	1.7492
921.635	1.82483
923.306	1.83528
924.978	1.78124
926.648	1.81768
928.318	1.26005
929.989	1.38818
931.659	1.98037
933.328	1.80058
934.998	1.35633
936.666	1.37577
938.336	1.90338
940.004	2.14565
941.671	1.90406
943.34	1.97215
945.007	1.73114
946.673	1.66537
948.339	2.30389
950.007	1.41719
951.672	1.54439
953.337	1.31859
955.004	2.15296
956.669	2.32882
958.333	2.04533
959.997	0.948192
961.662	1.81718
963.326	1.60426
964.989	1.30074
966.651	1.65775
968.315	1.50279
969.977	0.947191
971.639	1.85058
973.301	2.40022
974.962	1.95629
976.624	2.00097
978.285	1.78198
979.945	1.63005
981.605	1.47762
983.264	1.61143
984.924	2.25221
986.583	1.14187
988.243	2.10983
989.901	1.96976
991.56	1.65221
993.217	2.30664
994.875	1.79042
996.532	2.13533
998.188	2.43571
999.845	2.16251
1001.5	2.61589
1003.16	2.4079
1004.81	2.33173
1006.47	1.99178
1008.12	2.22338
1009.78	1.59916
1011.43	2.29208
1013.09	1.77924
1014.74	1.88076
1016.39	1.04127
1018.05	1.27536
1019.7	1.99125
1021.35	2.29239
1023	1.37062
1024.65	1.8927
1026.31	2.1094
1027.96	2.0639
1029.61	1.55892
1031.26	1.51141
1032.91	2.55364
1034.56	2.0655
1036.21	1.72891
1037.86	1.58789
1039.51	1.99112
1041.16	2.52496
1042.8	2.19012
1044.45	2.35743
1046.1	2.20115
1047.75	2.11236
1049.39	1.76494
1051.04	2.67873
1052.69	2.35553
1054.33	1.924
1055.98	2.27472
1057.62	1.77741
1059.27	1.62723
1060.91	1.60673
1062.56	1.4331
1064.2	1.43236
1065.85	1.79999
1067.49	1.64456
1069.13	1.1839
1070.77	1.89553
1072.42	0.739541
1074.06	1.21236
1075.7	1.38228
1077.34	1.07648
1078.98	1.401
1080.62	1.05416
1082.27	1.70482
1083.91	1.48713
1085.55	1.54948
1087.18	0.547748
1088.82	0.995646
1090.46	1.48421
1092.1	1.43012
1093.74	1.11632
1095.38	1.6663
1097.02	1.00901
1098.65	1.53898
1100.29	1.05842
1101.93	1.41969
1103.56	1.7182
1105.2	1.37285
1106.84	1.20033
1108.47	1.60817
1110.11	1.77814
1111.74	1.64526
1113.38	1.91872
1115.01	1.11694
1116.64	1.02345
1118.28	1.29461
1119.91	1.56613
1121.54	1.77423
1123.18	2.02616
1124.81	1.18792
1126.44	1.86982
1128.07	2.03906
1129.7	0.926215
1131.33	1.41771
1132.97	1.37503
1134.6	1.26809
1136.23	0.861246
1137.86	1.45768
1139.49	0.813492
1141.11	0.851887
1142.74	1.29508
1144.37	1.07675
1146	1.09386
1147.63	1.13333
1149.26	0.854166
1150.88	1.1934
1152.51	1.12789
1154.14	0.912993
1155.76	0.889302
1157.39	1.07821
1159.01	1.41625
1160.64	1.3723
1162.27	1.05321
1163.89	1.41567
1165.51	1.16214
1167.14	1.12096
1168.76	1.35498
1170.39	-0.113331
1172.01	0.499391
1173.63	0.982134
1175.25	1.2082
1176.88	0.140126
1178.5	-0.248268
1180.12	0.380624
1181.74	0.755742
1183.36	0.496895
1184.98	0.724404
1186.6	1.68971
1188.22	0.668372
1189.84	0.574147
1191.46	0.751735
1193.08	0.63282
1194.7	0.807224
1196.32	0.624674
1197.94	1.15549
1199.55	1.72873
1201.17	1.40505
1202.79	0.897065
1204.41	0.956041
1206.02	0.954788
1207.64	1.70608
1209.25	0.913934
1210.87	0.308873
1212.48	1.39114
1214.1	1.57388
1215.71	0.858404
1217.33	1.26544
1218.94	1.08856
1220.56	0.828832
1222.17	0.61181
1223.79	1.66047
1225.4	1.13556
1227.01	1.13039
1228.62	0.981996
1230.23	1.49675
1231.85	1.61982
1233.46	1.7649
1235.07	0.940015
1236.68	1.29455
1238.29	1.23688
1239.9	1.65554
1241.51	1.26799
1243.12	1.72812
1244.73	1.83578
1246.34	1.44565
1247.94	1.46819
1249.55	1.48984
1251.16	1.75934
1252.77	1.82213
1254.37	1.69957
1255.98	1.76438
1257.59	1.49963
1259.2	0.987773
1260.8	1.61507
1262.41	1.39436
1264.01	2.29215
1265.62	2.2369
1267.22	2.32583
1268.83	1.21121
1270.43	1.15255
1272.03	1.54888
1273.64	2.37935
1275.24	1.30139
1276.85	1.13467
1278.45	2.08574
1280.05	1.73082
1281.65	1.43792
1283.25	1.6212
1284.85	1.45335
1286.46	1.86543
1288.06	1.53443
1289.66	1.63856
1291.26	1.76393
1292.86	1.53795
1294.46	2.24084
1296.06	1.92994
1297.66	2.15413
1299.25	1.90159
1300.85	2.65781
1302.45	2.38135
1304.05	2.2894
1305.65	2.01171
1307.24	2.28849
1308.84	1.1487
1310.43	2.36814
1312.03	1.86572
1313.63	2.2037
1315.22	2.09266
1316.82	1.88083
1318.41	2.22086
1320.01	1.74479
1321.6	2.00179
1323.2	1.34081
1324.79	2.08184
1326.38	1.82466
1327.98	2.58115
1329.57	1.99987
1331.16	2.65552
1332.76	1.97889
1334.35	1.97232
1335.94	2.49235
1337.53	2.48814
1339.12	3.14837
1340.71	2.55686
1342.3	2.36621
1343.89	1.79162
1345.48	2.64246
1347.07	2.2079
1348.66	2.27707
1350.25	2.24894
1351.84	2.08391
1353.43	2.50131
1355.01	1.78077
1356.6	1.6206
1358.19	2.45888
1359.77	1.49825
1361.36	2.4533
1362.95	1.61098
1364.53	1.78593
1366.12	2.21993
1367.71	1.63877
1369.29	1.21874
1370.88	2.19363
1372.46	1.45853
1374.04	1.32178
1375.63	1.66335
1377.21	1.12953
1378.8	1.98809
1380.38	1.3531
1381.96	1.89051
1383.54	1.37212
1385.13	1.23065
1386.71	1.76424
1388.29	1.58258
1389.87	1.36212
1391.45	1.51984
1393.03	1.4205
1394.61	1.22249
1396.19	1.8572
1397.77	1.49961
1399.35	0.883531
1400.93	0.940319
1402.51	1.76836
1404.09	1.54688
1405.67	1.4844
1407.24	1.58106
1408.82	1.18467
1410.4	1.22369
1411.98	1.04544
1413.55	1.28121
1415.13	1.63416
1416.71	1.57163
1418.28	1.33129
1419.86	1.8204
1421.43	1.30603
1423.01	1.85676
1424.58	1.85808
1426.16	2.07742
1427.73	1.47078
1429.31	2.10385
1430.88	1.94858
1432.45	1.87068
1434.02	2.18513
1435.6	2.28249
1437.17	3.10745
1438.74	2.7928
1440.31	2.32228
1441.88	2.81599
1443.45	2.99612
1445.03	3.01953
1446.6	3.29869
1448.17	2.24139
1449.74	3.24845
1451.3	3.17491
1452.87	3.31837
1454.44	2.97061
1456.01	3.13423
1457.58	3.13971
1459.15	3.00585
1460.72	2.53531
1462.28	2.12168
1463.85	2.23734
1465.42	2.15499
1466.98	2.32764
1468.55	1.63661
1470.12	1.00612
1471.68	2.47645
1473.25	1.57405
1474.81	1.39849
1476.38	1.5764
1477.94	1.63676
1479.51	1.44221
1481.07	1.42398
1482.63	1.60163
1484.2	2.05338
1485.76	1.15286
1487.32	1.34866
1488.88	1.40582
1490.45	0.952095
1492.01	1.23953
1493.57	1.6607
1495.13	1.23989
1496.69	0.701915
1498.25	1.06015
1499.81	0.757238
1501.37	0.339725
1502.93	1.20433
1504.49	1.25452
1506.05	1.20814
1507.61	1.18052
1509.17	0.630171
1510.73	0.813044
1512.28	0.686136
1513.84	0.597583
1515.4	0.56709
1516.96	0.537288
1518.51	0.604271
1520.07	0.805859
1521.63	0.375801
1523.18	0.691804
1524.74	1.23534
1526.29	0.384447
1527.85	1.11525
1529.4	0.550362
1530.96	0.784488
1532.51	0.430688
1534.06	0.760501
1535.62	0.825813
1537.17	0.986516
1538.72	1.01553
1540.28	0.309515
1541.83	0.754147
1543.38	0.727288
1544.93	1.15151
1546.48	0.860891
1548.03	0.608187
1549.59	1.04949
1551.14	0.87215
1552.69	1.40656
1554.24	1.19343
1555.79	0.440554
1557.34	0.773136
1558.88	0.491776
1560.43	0.734946
1561.98	0.43882
1563.53	0.871476
1565.08	0.91304
1566.62	0.880097
1568.17	0.828239
1569.72	0.999952
1571.27	0.947258
1572.81	1.39825
1574.36	0.635711
1575.9	0.265186
1577.45	1.12695
1579	0.514353
1580.54	0.723835
1582.09	0.896859
1583.63	1.36978
1585.17	0.928121
1586.72	0.785804
1588.26	0.998907
1589.8	0.78161
1591.35	0.807033
1592.89	1.20645
1594.43	1.17499
1595.97	0.993639
1597.52	1.56229
1599.06	1.58837
1600.6	1.16506
1602.14	0.985851
1603.68	1.23835
1605.22	1.50917
1606.76	1.64716
1608.3	0.899619
1609.84	0.995318
1611.38	0.769069
1612.92	1.12306
1614.46	1.1749
1615.99	1.33869
1617.53	1.24031
1619.07	1.04963
1620.61	0.916905
1622.14	1.34747
1623.68	1.59161
1625.22	0.84367
1626.75	1.42396
1628.29	1.49738
1629.82	1.43826
1631.36	1.78916
1632.9	0.981094
1634.43	1.25698
1635.96	1.10431
1637.5	1.68013
1639.03	1.65965
1640.57	1.71381
1642.1	1.26426
1643.63	1.83803
1645.16	1.6282
1646.7	1.21304
1648.23	1.52277
1649.76	2.05528
1651.29	1.58611
1652.82	1.71239
1654.36	1.58028
1655.89	2.32015
1657.42	1.66984
1658.95	1.74149
1660.48	1.83012
1662.01	2.36099
1663.53	2.0948
1665.06	2.30854
1666.59	1.91329
1668.12	1.64894
1669.65	2.05017
1671.18	2.12113
1672.7	1.54865
1674.23	1.65842
1675.76	1.17878
1677.29	1.17708
1678.81	1.08222
1680.34	0.765659
1681.86	1.36736
1683.39	1.50884
1684.91	1.11801
1686.44	1.0765
1687.96	0.888899
1689.49	0.830165
1691.01	0.368955
1692.54	1.72006
1694.06	0.947928
1695.58	0.340936
1697.11	0.830647
1698.63	0.662013
1700.15	0.438367
1701.67	0.396826
1703.2	0.372961
1704.72	0.876634
1706.24	0.0507107
1707.76	0.643891
1709.28	0.454886
1710.8	1.04667
1712.32	0.368315
1713.84	0.88706
1715.36	0.192117
1716.88	0.891034
1718.4	0.522329
1719.91	0.0096941
1721.43	0.418262
1722.95	0.718597
1724.47	0.515117
1725.99	0.385311
1727.5	0.419073
1729.02	0.813801
1730.54	0.111612
1732.05	0.305938
1733.57	0.195742
1735.09	0.153106
1736.6	0.369955
1738.12	0.693986
1739.63	0.356354
1741.15	0.279316
1742.66	0.514776
1744.18	-0.326057
1745.69	0.365417
1747.2	0.229747
1748.72	0.285426
1750.23	0.275215
1751.74	0.186452
1753.25	0.219985
1754.77	0.508247
1756.28	0.144612
1757.79	-0.159772
1759.3	0.217648
1760.81	-0.204241
1762.32	0.248011
1763.83	-0.0626106
1765.34	-0.0406628
1766.85	-0.193378
1768.36	0.317914
1769.87	0.0309258
1771.38	0.102536
1772.89	0.265346
1774.4	0.247469
1775.91	0.222091
1777.41	-0.201982
1778.92	-0.196748
1780.43	-0.0293493
1781.94	-0.397923
1783.44	-0.0477505
1784.95	0.201056
1786.45	-0.358633
1787.96	0.0261164
1789.47	0.00747871
1790.97	0.0833473
1792.47	0.0452938
1793.98	0.0412169
1795.48	0.0353432
1796.99	0.0797615
1798.49	0.218704
1800	-0.0289459
1801.5	0.190937
1803	0.505334
1804.51	0.507734
1806.01	0.217425
1807.51	0.479959
1809.01	0.185991
1810.51	-0.0933714
1812.02	0.261459
1813.52	0.526125
1815.02	0.211985
1816.52	0.0307178
1818.02	0.429852
1819.52	0.288175
1821.02	0.176312
1822.52	0.184404
1824.02	0.615429
1825.51	0.339331
1827.01	-0.258645
1828.51	-0.204797
1830.01	0.334841
1831.51	-0.00117683
1833	0.339026
1834.5	0.0324335
1836	-0.319641
1837.49	-0.11726
1838.99	-0.273677
1840.49	0.374822
1841.98	0.366334
1843.48	-0.182042
1844.97	0.167137
1846.47	0.311402
1847.96	0.233431
1849.46	-0.0131655
1850.95	0.254418
1852.45	0.496662
1853.94	0.584795
1855.43	0.288022
1856.92	0.41383
1858.42	-0.0129662
1859.91	0.131214
1861.4	0.140086
1862.89	0.142828
1864.39	0.166405
1865.88	0.434356
1867.37	0.336397
1868.86	0.146796
1870.35	-0.0449486
1871.84	-0.351318
1873.33	0.442549
1874.82	0.19714
1876.31	0.205146
1877.8	0.245152
1879.29	-0.153969
1880.77	0.173131
1882.26	0.539514
1882.52	0.60152
1884.02	0.268245
1885.51	0.0214863
1887.01	0.209458
1888.5	-0.0559101
1889.99	0.409942
1891.49	0.893826
1892.98	0.422971
1894.47	-0.341293
1895.96	0.147899
1897.46	0.0120611
1898.95	0.189167
1900.44	0.260863
1901.93	-0.0866814
1903.42	0.468368
1904.91	0.0653534
1906.4	0.495842
1907.89	-0.116059
1909.38	0.0196333
1910.87	-0.15611
1912.36	0.27633
1913.85	0.657168
1915.34	0.39638
1916.83	-0.107382
1918.32	-0.14349
1919.8	0.0278778
1921.29	0.441529
1922.78	0.249326
1924.27	0.854544
1925.75	0.422232
1927.24	0.614349
1928.73	0.322426
1930.21	-0.0215483
1931.7	0.101148
1933.18	0.256927
1934.67	0.254943
1936.15	-0.285179
1937.64	0.643742
1939.12	-0.00139809
1940.61	-0.16189
1942.09	0.16191
1943.57	0.0552673
1945.06	0.225537
1946.54	0.396109
1948.02	0.0665588
1949.51	0.132672
1950.99	0.28375
1952.47	0.347619
1953.95	0.256021
1955.43	0.198828
1956.91	0.193655
1958.39	0.515312
1959.87	-0.12319
1961.36	-0.0918036
1962.84	0.316854
1964.32	0.0567951
1965.79	0.121814
1967.27	-0.019352
1968.75	-0.246565
1970.23	-0.0296774
1971.71	0.34035
1973.19	0.180682
1974.66	0.788853
1976.14	0.561222
1977.62	0.180805
1979.1	0.00526714
1980.57	-0.0680122
1982.05	0.300583
1983.53	0.277659
1985	0.407173
1986.48	-0.159152
1987.95	0.326088
1989.43	-0.25591
1990.9	0.365119
1992.38	-0.163682
1993.85	0.35724
1995.33	0.354757
1996.8	-0.00201035
1998.27	0.164959
1999.75	0.0105925
2001.22	-0.211787
2002.69	0.324523
2004.16	0.270119
2005.64	-0.221965
2007.11	0.0956278
2008.58	-0.225856
2010.05	-0.192747
2011.52	-0.243264
2012.99	0.244887
2014.46	0.092967
2015.93	-0.177474
2017.4	0.526764
2018.87	0.103212
2020.34	0.620401
2021.81	0.0285368
2023.28	0.243303
2024.75	0.592966
2026.22	0.0043745
2027.69	-0.179948
2029.15	0.526254
2030.62	0.227533
2032.09	-0.053503
2033.56	-0.250285
2035.02	0.274908
2036.49	0.22888
2037.95	0.367094
2039.42	0.185621
2040.89	0.0880585
2042.35	0.159002
2043.82	0.129867
2045.28	0.168984
2046.75	0.107927
2048.21	0.468271
2049.67	0.289326
2051.14	-0.160645
2052.6	0.0789614
2054.06	0.29985
2055.53	0.569414
2056.99	0.129322
2058.45	0.446969
2059.92	0.528366
2061.38	-0.0128222
2062.84	-0.148823
2064.3	0.204346
2065.76	-0.299763
2067.22	0.274078
2068.68	0.175394
2070.14	-0.0913057
2071.6	0.0460367
2073.06	-0.00194073
2074.52	0.943307
2075.98	-0.0819721
2077.44	0.458447
2078.9	0.173279
2080.36	-0.230212
2081.82	0.258141
2083.27	0.0218086
2084.73	0.222347
2086.19	0.253753
2087.65	0.0490818
2089.1	0.213894
2090.56	0.159959
2092.01	0.559287
2093.47	0.404373
2094.93	0.316435
2096.38	0.127514
2097.84	0.57458
2099.29	0.568453
2100.75	-0.0400314
2102.2	0.0544643
2103.66	0.333373
2105.11	0.246148
2106.56	0.210522
2108.02	0.309464
2109.47	0.525445
2110.92	0.290647
2112.37	-0.0120201
2113.83	0.416589
2115.28	0.343702
2116.73	0.0871134
2118.18	0.678404
2119.63	0.506716
2121.09	-0.176975
2122.54	0.103745
2123.99	0.286354
2125.44	-0.0941544
2126.89	0.735455
2128.34	0.270782
2129.79	0.616875
2131.23	0.431292
2132.68	0.162297
2134.13	-0.0733299
2135.58	0.386533
2137.03	0.649197
2138.48	0.285722
2139.92	0.568797
2141.37	0.043685
2142.82	0.280146
2144.26	0.302398
2145.71	0.854426
2147.16	0.744312
2148.6	0.186253
2150.05	0.256521
2151.49	0.292668
2152.94	0.294668
2154.38	0.759746
2155.83	0.495322
2157.27	0.313853
2158.72	0.51412
2160.16	0.632943
2161.6	0.488509
2163.05	0.511661
2164.49	1.16684
2165.93	0.595291
2167.38	1.10275
2168.82	0.612278
2170.26	0.684918
2171.7	0.855206
2173.14	0.674109
2174.58	0.707822
2176.03	1.00699
2177.47	0.591292
2178.91	1.0909
2180.35	1.04288
2181.79	1.31173
2183.23	0.766439
2184.67	0.803414
2186.1	0.424585
2187.54	0.811038
2188.98	0.898114
2190.42	1.38471
2191.86	0.77238
2193.3	0.841757
2194.73	0.310359
2196.17	0.909138
2197.61	0.923045
2199.05	0.536022
2200.48	0.347821
2201.92	1.23888
2203.35	0.337576
2204.79	0.648962
2206.22	0.828527
2207.66	0.511514
2209.09	0.625126
2210.53	0.704705
2211.96	0.882367
2213.4	0.645743
2214.83	0.987419
2216.27	0.0582857
2217.7	0.0717611
2219.13	0.696633
2220.56	0.151494
2222	0.331981
2223.43	0.429241
2224.86	0.030982
2226.29	0.158025
2227.72	0.283176
2229.16	0.258931
2230.59	0.250328
2232.02	0.37261
2233.45	0.363955
2234.88	-0.00362587
2236.31	0.447525
2237.74	0.213972
2239.17	0.47216
2240.6	0.275546
2242.03	0.358159
2243.45	0.13218
2244.88	0.395892
2246.31	0.169595
2247.74	0.235264
2249.17	0.298654
2250.59	0.652878
2252.02	0.369855
2253.45	0.3141
2254.87	0.258752
2256.3	0.464754
2257.73	0.494516
2259.15	0.121724
2260.58	0.14138
2262	0.260954
2263.43	0.138704
2264.85	0.309143
2266.28	0.0403738
2267.7	0.144678
2269.13	0.264392
2270.55	0.0252056
2271.97	0.306421
2273.4	0.587573
2274.82	0.412827
2276.24	-0.0062027
2277.66	0.259262
2279.09	0.459723
2280.51	0.171032
2281.93	0.20827
2283.35	0.261745
2284.77	0.478477
2286.19	0.401735
2287.61	-0.262468
2289.04	-0.158982
2290.46	0.157403
2291.88	0.180091
2293.29	-0.0587463
2294.71	-0.0687532
2296.13	0.297622
2297.55	0.500492
2298.97	0.0319042
2300.39	0.366205
2301.81	0.0943937
2303.23	-0.24302
2304.64	-0.137427
2306.06	0.13243
2307.48	-0.205756
2308.89	0.638744
2310.31	0.315738
2311.73	-0.452034
2313.14	0.0137329
2314.56	-0.392152
2315.97	0.322106
2317.39	0.0658216
2318.8	0.419655
2320.22	0.361288
2321.63	-0.0118151
2323.05	0.520634
2324.46	0.175982
2325.88	0.357033
2327.29	0.635079
2328.7	0.862546
2330.12	0.678179
2331.53	0.494969
2332.94	0.132071
2334.35	0.198081
2335.76	-0.0153389
2337.18	0.24782
2338.59	0.164541
2340	-0.232075
2341.41	-0.235085
2342.82	-0.0252695
2344.23	0.282624
2345.64	0.0167828
2347.05	0.111906
2348.46	-0.104069
2349.87	0.23602
2351.28	-0.0626945
2352.69	0.0463619
2354.1	0.137926
2355.5	0.000377655
2356.91	-0.0883884
2358.32	-0.0468836
2359.73	0.0109053
2361.14	-0.174788
2362.54	0.320835
2363.95	-0.577537
2365.36	-0.422453
2366.76	0.330441
2368.17	0.0814333
2369.58	0.0920572
2370.98	-0.0249119
2372.39	0.375168
2373.79	0.0190773
2375.2	-0.12705
2376.6	0.354036
2378	0.206362
2379.41	-0.039155
2380.81	0.0511246
2382.22	-0.0847511
2383.62	-0.0770931
2385.02	0.0422506
2386.42	0.0179358
2387.83	-0.00540447
2389.23	0.116023
2390.63	0.350077
2392.03	-0.210981
2393.43	-0.00657749
2394.84	0.0394316
2396.24	0.086133
2397.64	-0.0890379
2399.04	0.0701466
2400.44	-0.0244017
2401.84	-0.039176
2403.24	0.120787
2404.64	-0.100766
2406.04	0.137237
2407.44	0.040884
2408.83	0.134108
2410.23	-0.153546
2411.63	-0.107979
2413.03	-0.330853
2414.43	-0.362326
2415.83	-0.0282221
2417.22	0.307229
2418.62	0.137033
2420.02	0.0621872
2421.41	0.0188637
2422.81	0.260328
2424.21	0.311419
2425.6	0.140737
2427	-0.140409
2428.39	0.260894
2429.79	-0.668747
2431.18	0.0833969
2432.58	-0.0208321
2433.97	-0.332148
2435.36	-0.0887861
2436.76	0.200832
2438.15	0.202884
2439.54	0.155905
2440.94	0.298543
2442.33	0.0912704
2443.72	0.185338
2445.11	0.215691
2446.51	0.182432
2447.9	0.307528
2449.29	0.194885
2450.68	-0.0124226
2452.07	-0.155712
2453.46	0.303151
2454.85	0.193186
2456.24	0.526908
2457.63	-0.0406942
2459.02	0.182451
2460.41	0.3575
2461.8	-0.116624
2463.19	-0.0223007
2464.58	-0.00764942
2465.97	0.180387
2467.36	-0.0896206
2468.75	0.113896
2470.13	0.159303
2471.52	0.109609
2472.91	0.138016
2474.29	-0.196489
2475.68	0.0351095
2477.07	0.313099
2478.45	0.0566235
2479.84	0.114565
2481.22	0.0785093
2482.61	0.230438
2484	-0.181927
2485.38	-0.0157909
2486.77	0.133214
2488.15	-0.218612
2489.54	-0.180721
2490.92	-0.111961
2492.3	0.283583
2493.69	-0.17467
2495.07	-0.180762
2496.45	-0.0305738
2497.84	0.0892868
2499.22	-0.518221
2500.6	0.189504
2501.98	0.215312
2503.36	0.0393171
2504.74	-0.276105
2506.13	0.317574
2507.51	0.032403
2508.89	-0.082901
2510.27	0.247835
2511.65	-0.00443172
2513.03	0.0358171
2514.41	0.459802
2515.79	0.103502
2517.17	0.268561
2518.55	0.357567
2519.93	-0.0728884
2521.3	-0.0449877
2522.68	0.0432549
2524.06	0.222019
2525.44	-0.103174
2526.82	0.104843
2528.19	-0.371768
2529.57	0.232992
2530.95	0.10921
2532.32	0.260782
2533.7	0.0795002
2535.08	0.233229
2536.45	0.250175
2537.83	0.0385485
2539.2	-0.0676908
2540.58	0.204838
2541.95	0.233957
2543.33	-0.0552807
2544.7	0.217759
2546.08	0.218991
2547.45	0.206347
2548.82	-0.00262833
2550.2	0.456058
2551.57	0.443907
2552.94	0.582526
2554.32	0.416492
2555.69	-0.0235567
2557.06	0.203398
2558.43	0.308776
2559.8	0.490171
2561.17	0.232528
2562.55	0.112027
2563.92	0.31039
2565.29	0.190968
2566.66	0.299118
2568.03	0.134578
2569.4	0.485332
2570.77	0.472354
2572.14	0.0804768
2573.51	0.113074
2574.88	0.160929
2576.24	0.11786
2577.61	0.165672
2578.98	0.182927
2580.35	0.0330153
2581.72	0.231419
2583.09	-0.222539
2584.45	0.0964899
2585.82	0.142548
2587.19	0.325123
2588.55	0.356312
2589.92	0.569468
2591.28	0.0096283
2592.65	-0.156641
2594.02	0.206517
2595.38	0.15952
2596.75	0.383924
2598.11	0.244168
2599.48	0.134398
2600.84	0.0399752
2602.2	0.263315
2603.57	0.185237
2604.93	-0.178888
2606.3	-0.0598526
2607.66	0.224625
2609.02	0.0558224
2610.38	0.42817
2611.75	0.196544
2613.11	0.264806
2614.47	0.241978
2615.83	0.188893
2617.19	-0.208628
2618.56	-0.110544
2619.92	-0.071701
2621.28	-0.346169
2622.64	-0.14158
2624	0.018178
2625.36	0.0135174
2626.72	-0.185258
2628.08	0.241752
2629.44	0.667785
2630.8	0.378786
2632.15	-0.192329
2633.51	-0.0198812
2634.87	0.048357
2636.23	0.205428
2637.59	-0.0230417
2638.94	0.31153
2640.3	-0.0348072
2641.66	0.284905
2643.02	0.0873919
2644.37	-0.139196
2645.73	0.298307
2647.08	0.0566397
2648.44	0.595278
2649.8	0.131398
2651.15	0.211617
2652.51	0.0123043
2653.86	0.180392
2655.22	0.0557919
2656.57	0.401216
2657.92	-0.189342
2659.28	-0.120004
2660.63	0.110519
2661.99	0.36989
2663.34	0.248585
2664.69	-0.150766
2666.04	0.149759
2667.4	0.522169
2668.75	0.122111
2670.1	-0.291573
2671.45	-0.282467
2672.81	-0.18556
2674.16	0.245863
2675.51	0.25652
2676.86	0.383835
2678.21	-0.0538683
2679.56	0.00253868
2680.91	-0.0124865
2682.26	0.0897131
2683.61	-0.053339
2684.96	0.312206
2686.31	0.0110254
2687.66	-0.26149
2689	0.219579
2690.35	-0.070466
2691.7	0.406919
2693.05	0.0698996
2694.4	0.0946827
2695.74	-0.214088
2697.09	0.0574961
2698.44	0.185397
2699.79	0.416369
2701.13	-0.103778
2702.48	0.333417
2703.82	0.395281
2705.17	0.428772
2706.52	0.375327
2707.86	0.2635
2709.21	0.296321
2710.55	0.096405
2711.9	0.0849161
2713.24	0.334833
2714.58	0.323193
2715.93	0.19515
2717.27	0.459581
2718.61	0.171056
2719.96	0.173028
2721.3	0.0289907
2722.64	-0.159255
2723.99	0.336101
2725.33	0.379788
2726.67	0.219295
2728.01	0.116697
2729.35	0.0720739
2730.7	0.52202
2732.04	0.448072
2733.38	0.228764
2734.72	0.70787
2736.06	0.328998
2737.4	0.401175
2738.74	0.662379
2740.08	-0.0510359
2741.42	0.572898
2742.76	0.381835
2744.09	-0.0714779
2745.43	0.143125
2746.77	0.211894
2748.11	0.323945
2749.45	0.145768
2750.79	0.359529
2752.12	0.544403
2753.46	0.149694
2754.8	0.161093
2756.13	0.0422764
2757.47	0.0395327
2758.81	0.123917
2760.14	0.324456
2761.48	-0.111277
2762.81	0.509873
2764.15	0.0316429
2765.49	0.218992
2766.82	0.0875578
2768.15	0.374655
2769.49	0.255351
2770.82	0.279097
2772.16	-0.0596743
2773.49	-0.514441
2774.82	0.112253
2776.16	-0.0400114
2777.49	0.0242414
2778.82	0.132106
2780.16	0.297844
2781.49	-0.182528
2782.82	-0.116823
2784.15	-0.180338
2785.48	-0.00014782
2786.81	-0.135101
2788.15	-0.197802
2789.48	0.0551262
2790.81	0.151464
2792.14	0.248574
2793.47	0.103119
2794.8	0.229321
2796.13	-0.00209618
2797.46	-0.291085
2798.79	-0.00931835
2800.12	0.100512
2801.44	-0.00401878
2802.77	-0.208458
2804.1	0.24257
2805.43	-0.16191
2806.76	-0.011426
2808.08	-0.0467091
2809.41	-0.0681658
2810.74	0.0382452
2812.07	0.017416
2813.39	0.0829039
2814.72	0.263287
2816.05	0.402601
2817.37	-0.108876
2818.7	-0.237016
2820.02	-0.0108004
2821.35	0.0165253
2822.67	-0.197754
2824	0.409146
2825.32	0.3355
2826.65	0.545161
2827.97	0.415503
2829.29	0.258186
2830.62	0.441146
2831.94	0.426152
2833.26	0.496031
2834.59	0.48064
2835.91	0.464728
2837.23	1.00007
2838.55	0.544487
2839.88	0.979856
2841.2	0.580964
2842.52	0.903599
2843.84	1.62256
2845.16	1.3247
2846.48	1.66352
2847.8	1.56464
2849.12	1.80501
2850.44	1.19701
2851.76	2.07255
2853.08	1.90158
2854.4	2.06936
2855.72	1.41743
2857.04	2.6445
2858.36	2.7272
2859.68	2.31558
2861	2.48282
2862.32	2.24024
2863.63	3.11235
2864.95	3.17943
2866.27	3.68375
2867.58	3.86377
2868.9	3.52256
2870.22	3.88688
2871.53	4.03987
2872.85	4.122
2874.17	4.55544
2875.48	4.57881
2876.8	4.65709
2878.11	4.74834
2879.43	4.45941
2880.74	4.53665
2882.06	4.64293
2883.37	4.39936
2884.69	4.40988
2886	3.59291
2887.31	4.53076
2888.63	4.34512
2889.94	4.28488
2891.25	4.58823
2892.57	4.5542
2893.88	4.68812
2895.19	4.54232
2896.5	4.57961
2897.82	5.28986
2899.13	4.92381
2900.44	4.9226
2901.75	4.86602
2903.06	5.71892
2904.37	4.9634
2905.68	5.2713
2906.99	5.48198
2908.3	5.87558
2909.61	6.01852
2910.92	5.84038
2912.23	6.25006
2913.54	6.18295
2914.85	6.08607
2916.16	6.25304
2917.46	6.29203
2918.77	6.95935
2920.08	7.10854
2921.39	6.86701
2922.7	7.17239
2924	6.99025
2925.31	7.35475
2926.62	7.65019
2927.92	7.38654
2929.23	7.38802
2930.53	7.82218
2931.84	7.48684
2933.15	7.94798
2934.45	7.78005
2935.76	7.36076
2937.06	7.98985
2938.37	7.36148
2939.67	7.43219
2940.98	7.51754
2942.28	6.96119
2943.58	7.03519
2944.89	6.57971
2946.19	6.40512
2947.49	6.30112
2948.8	5.91683
2950.1	5.92294
2951.4	6.319
2952.7	5.01844
2954.01	5.29854
2955.31	4.8782
2956.61	5.14484
2957.91	4.728
2959.21	4.69217
2960.51	5.0798
2961.81	4.33484
2963.11	4.26311
2964.41	4.68205
2965.71	4.63633
2967.01	4.13891
2968.31	4.0473
2969.61	4.26415
2970.91	4.17155
2972.21	4.20588
2973.51	3.57923
2974.81	3.36047
2976.1	3.11276
2977.4	3.13115
2978.7	3.24622
2980	3.3593
2981.29	2.79541
2982.59	2.70957
2983.89	2.39923
2985.18	2.87738
2986.48	2.55605
2987.78	2.44722
2989.07	2.45194
2990.37	2.59754
2991.66	1.89936
2992.96	1.91682
2994.25	2.07341
2995.55	1.76516
2996.84	1.76522
2998.14	1.13358
2999.43	1.21814
3000.72	1.42942
3002.02	1.29079
3003.31	1.25081
3004.6	0.734715
3005.9	1.45102
3007.19	1.06029
3008.48	0.920866
3009.77	0.542961
3011.07	0.500139
3012.36	0.177731
3013.65	0.664967
3014.94	0.190072
3016.23	0.496702
3017.52	0.0102015
3018.81	0.317945
3020.1	0.319513
3021.39	0.32065
3022.68	0.015378
3023.97	-0.0961018
3025.26	-0.582434
3026.55	0.0400009
3027.84	0.149784
3029.13	0.0670071
3030.42	-0.235141
3031.71	-0.148747
3033	-0.144158
3034.28	0.233413
3035.57	0.113566
3036.86	0.254478
3038.15	0.0627317
3039.43	0.433645
3040.72	0.114832
3042.01	-0.0668087
3043.29	0.10838
3044.58	0.174524
3045.86	0.625105
3047.15	0.120988
3048.44	0.234465
3049.72	-0.15485
3051.01	0.317388
3052.29	0.0126591
3053.58	-0.169147
3054.86	0.22145
3056.14	-0.30292
3057.43	0.0581522
3058.71	0.499833
3060	0.164642
3061.28	-0.0608578
3062.56	0.490181
3063.84	0.539222
3065.13	0.345254
3066.41	0.19363
3067.69	0.315028
3068.97	0.124146
3070.25	0.218602
3071.54	0.217027
3072.82	0.635781
3074.1	0.11504
3075.38	0.164461
3076.66	0.240697
3077.94	0.371624
3079.22	0.069459
3080.5	0.298111
3081.78	0.216448
3083.06	-0.0673633
3084.34	-0.309788
3085.62	0.0721164
3086.9	-0.0891933
3088.17	0.278182
3089.45	0.129107
3090.73	-0.223881
3092.01	0.00654602
3093.29	0.0607653
3094.56	-0.386422
3095.84	0.0888791
3097.12	0.320158
3098.4	0.0498857
3099.67	-0.0577517
3100.95	0.376473
3102.22	0.133488
3103.5	0.188835
3104.77	0.285361
3106.05	0.409757
3107.33	-0.0196676
3108.6	0.0527554
3109.88	-0.103756
3111.15	0.0792112
3112.43	0.222525
3113.7	0.176742
3114.97	0.483447
3116.25	-0.118633
3117.52	0.322582
3118.79	0.342339
3120.07	0.279659
3121.34	0.419483
3122.61	0.0978928
3123.88	-0.0745325
3125.16	0.525217
3126.43	0.204669
3127.7	0.250331
3128.97	0.634708
3130.24	0.316217
3131.51	0.660441
3132.78	0.355766
3134.05	0.942475
3135.33	0.79917
3136.59	0.93878
3137.86	0.44411
3139.14	0.286663
3140.41	0.479337
3141.67	0.456664
3142.94	0.62255
3144.21	0.788759
3145.48	0.499322
3146.75	0.747346
3148.02	0.687701
3149.28	0.80288
