200.388	0.492844
202.204	0.506072
204.019	0.520359
205.832	0.876263
207.646	0.697456
209.459	-0.0404673
211.274	0.0957804
213.087	-0.643131
214.899	0.509956
216.711	-0.399323
218.524	0.703116
220.335	0.0378675
222.146	-0.383651
223.956	-0.0784426
225.766	0.0821524
227.576	0.0737143
229.388	0.0650454
231.197	-0.185435
233.005	0.360182
234.813	-0.0829239
236.621	0.9219
238.429	0.289587
240.236	0.672281
242.045	0.0931416
243.852	0.214569
245.658	0.698226
247.464	1.03598
249.269	0.526062
251.074	0.737341
252.879	0.800893
254.683	0.741967
256.487	0.658566
258.291	0.552027
260.094	0.0136576
261.897	0.706038
263.702	0.532971
265.504	0.433342
267.306	0.285939
269.108	0.258786
270.909	0.881846
272.71	0.17782
274.511	-0.26234
276.311	-0.245888
278.111	0.299001
279.91	0.43203
281.709	0.996123
283.508	0.16257
285.306	0.242101
287.105	0.200709
288.9	-0.296165
290.698	0.238735
292.495	0.055974
294.291	-0.172771
296.088	-0.0172243
297.884	0.617323
299.679	0.391927
301.475	-0.335004
303.27	-0.0832491
305.064	0.286472
306.858	-0.156051
308.652	0.283711
310.444	0.199387
312.237	0.473619
314.03	0.67798
315.822	0.0984983
317.615	0.116157
319.406	0.349821
321.198	0.58492
322.987	0.272627
324.778	0.437735
326.568	0.149567
328.358	0.267016
330.148	0.312284
331.935	-0.0501451
333.724	-0.27091
335.513	0.654856
337.301	1.00411
339.089	-0.203979
340.875	-0.0497255
342.662	0.749024
344.449	0.376226
346.236	-0.0674143
348.02	-0.24741
349.806	-0.235797
351.592	-0.582128
353.375	0.240456
355.16	1.27627
356.944	1.90453
358.728	0.767226
360.51	-0.346085
362.294	0.111897
364.077	0.449547
365.858	0.500829
367.64	0.171476
369.422	0.576986
371.202	0.672858
372.983	0.46022
374.764	0.0586233
376.543	0.460611
378.324	-0.0102386
380.102	0.463084
381.881	0.607225
383.661	0.79955
385.438	0.851975
387.216	1.28166
388.993	0.37331
390.771	0.452888
392.548	0.956031
394.324	0.543926
396.101	0.601949
397.875	0.23735
399.651	1.39927
401.425	0.822707
403.201	0.644814
404.974	0.254806
406.749	0.192918
408.524	0.975658
410.296	1.28827
412.07	0.239646
413.841	0.787406
415.614	0.538054
417.385	1.32197
419.156	1.33234
420.928	0.310345
422.698	0.649316
424.469	0.565126
426.238	0.879097
428.009	-0.00503159
429.777	0.612741
431.548	-0.224804
433.315	0.158454
435.083	0.189998
436.852	0.550132
438.618	0.815706
440.387	0.281964
442.153	0.544044
443.919	0.217605
445.686	-0.18054
447.451	0.263367
449.218	0.448766
450.982	-0.0202713
452.746	0.258827
454.512	0.257804
456.275	-0.139443
458.038	-0.0238419
459.803	-0.07127
461.565	0.137794
463.327	0.138907
465.091	-0.206193
466.852	0.0323906
468.613	-0.0981998
470.374	-0.296805
472.136	0.0169401
473.896	0.26053
475.655	0.293011
477.415	0.369935
479.176	0.514863
480.934	0.169571
482.692	0.52314
484.45	0.621638
486.21	1.0483
487.967	1.01142
489.724	0.323637
491.481	0.38285
493.237	0.419488
494.995	-0.10483
496.75	0.446537
498.506	0.951789
500.26	0.871222
502.015	0.69597
503.769	0.589996
505.525	0.224198
507.279	1.10293
509.032	0.639937
510.785	0.127972
512.537	-0.0327225
514.289	0.346324
516.041	0.817998
517.793	1.14707
519.546	0.957638
521.297	0.955542
523.047	0.718088
524.797	0.128581
526.547	0.595325
528.297	-0.181081
530.046	0.472738
531.795	0.0480585
533.543	0.278526
535.291	1.0923
537.039	0.688055
538.787	0.259771
540.534	0.460877
542.281	0.777162
544.027	0.0918732
545.773	0.593274
547.519	0.00280857
549.264	0.920822
551.01	0.401272
552.754	-0.163213
554.499	0.33661
556.243	0.143148
557.987	0.20411
559.73	0.426713
561.474	0.212097
563.216	0.458435
564.959	0.521106
566.701	0.791074
568.441	0.0284281
570.182	0.575577
571.923	0.183097
573.664	0.044693
575.405	1.03209
577.145	-0.273073
578.885	-0.338235
580.624	0.492988
582.361	-0.283353
584.1	0.640306
585.839	0.482802
587.577	0.00189114
589.315	-0.158282
591.052	0.094758
592.787	-0.089879
594.524	-0.481748
596.26	0.299768
597.997	0.460054
599.732	0.251895
601.466	-0.647131
603.201	0.269881
604.936	-0.194462
606.67	0.144588
608.403	0.0231638
610.136	-0.121252
611.87	0.170735
613.603	0.0963335
615.334	0.274762
617.067	0.269961
618.799	-0.0788383
620.529	-0.313869
622.26	0.502518
623.991	0.471098
625.72	0.576738
627.451	0.0668135
629.181	-0.486422
630.909	-0.284261
632.638	0.535892
634.368	0.0564184
636.095	0.786376
637.823	-0.402726
639.551	0.414331
641.277	0.269846
643.005	0.305449
644.73	0.635701
646.457	0.374104
648.184	0.501127
649.908	0.517454
651.634	0.469375
653.357	0.0387039
655.083	0.315893
656.806	0.937346
658.53	0.0339622
660.253	-0.0502644
661.977	0.914439
663.7	0.278618
665.422	0.0969973
667.145	0.370755
668.865	0.986871
670.588	0.50576
672.308	0.209308
674.027	0.922464
675.749	-0.0571642
677.468	0.339152
679.188	0.552739
680.907	0.32902
682.627	0.678371
684.345	0.335477
686.064	0.727182
687.781	0.426529
689.498	0.447181
691.216	0.605307
692.932	1.2235
694.65	0.1825
696.366	0.453458
698.081	0.584991
699.797	1.1984
701.512	0.706077
703.228	-0.0624485
704.942	0.800079
706.655	1.17886
708.371	1.02915
710.083	0.558502
711.796	0.935344
713.51	0.373364
715.222	0.566338
716.934	1.71785
718.645	1.01961
720.358	0.824169
722.068	1.17577
723.779	1.11727
725.49	0.353982
727.2	0.409445
728.909	0.782099
730.618	1.38031
732.329	0.799193
734.037	1.14669
735.745	1.22228
737.453	1.38838
739.16	1.44205
740.869	1.20354
742.576	1.25945
744.282	1.00146
745.988	1.21769
747.694	1.00773
749.401	1.40648
751.107	1.10922
752.811	0.858225
754.516	0.720972
756.22	1.53026
757.924	1.44115
759.627	1.26331
761.332	1.13148
763.035	1.27074
764.738	1.43256
766.44	0.893071
768.142	1.02939
769.843	1.16369
771.544	1.61261
773.245	1.24599
774.946	1.62505
776.646	1.71062
778.346	1.4583
780.046	2.04423
781.745	1.95296
783.444	1.72606
785.143	2.1544
786.841	1.42594
788.539	1.32821
790.237	1.70231
791.934	1.71147
793.631	2.23825
795.328	1.5906
797.024	1.44085
798.72	2.37397
800.416	1.75471
802.112	1.34005
803.807	1.78103
805.502	1.32232
807.196	1.64966
808.89	1.43651
810.584	1.87324
812.278	2.26351
813.971	1.46501
815.664	2.07794
817.354	2.24241
819.047	1.98202
820.739	1.92319
822.43	1.82019
824.122	2.05258
825.813	2.24151
827.503	1.45239
829.192	1.62404
830.882	1.95458
832.571	1.95401
834.261	1.97794
835.95	1.44538
837.637	1.26912
839.325	1.8954
841.013	1.38143
842.701	1.71479
844.389	1.15388
846.074	1.91206
847.761	1.59917
849.447	1.26602
851.131	1.2931
852.817	1.81524
854.503	2.09265
856.188	1.11267
857.871	1.56858
859.556	0.921063
861.24	1.66687
862.922	1.53327
864.606	1.53345
866.289	0.518213
867.97	0.561603
869.653	0.965426
871.336	1.12094
873.016	1.93056
874.698	1.54443
876.379	1.09048
878.058	1.51664
879.739	1.42363
881.418	0.652994
883.098	0.920063
884.778	0.892615
886.456	1.08953
888.135	1.44273
889.812	0.621372
891.49	1.19679
893.167	0.959363
894.845	1.14866
896.523	0.999333
898.198	1.54549
899.875	1.6184
901.55	1.06295
903.226	1.13483
904.901	0.491151
906.576	0.942997
908.25	0.97074
909.925	1.24421
911.598	1.00632
913.271	0.769579
914.945	1.75487
916.617	1.42955
918.291	0.617169
919.962	0.514953
921.635	1.27617
923.306	1.10882
924.978	0.567739
926.648	1.39795
928.318	1.14766
929.989	1.25183
931.659	1.37873
933.328	1.13086
934.998	1.28024
936.666	1.20945
938.336	1.22773
940.004	0.806072
941.671	0.87081
943.34	1.37763
945.007	1.11209
946.673	1.26477
948.339	0.51062
950.007	1.16724
951.672	1.38101
953.337	0.977073
955.004	0.905557
956.669	0.902861
958.333	0.660668
959.997	0.729977
961.662	0.933468
963.326	0.584603
964.989	0.145271
966.651	1.11906
968.315	0.519485
969.977	0.758562
971.639	0.79757
973.301	1.01386
974.962	0.634422
976.624	0.721136
978.285	0.89785
979.945	0.89833
981.605	0.898465
983.264	0.91944
984.924	1.20415
986.583	1.19894
988.243	1.36885
989.901	1.33826
991.56	0.931282
993.217	1.25346
994.875	1.33251
996.532	0.970337
998.188	1.00544
999.845	0.357159
1001.5	1.16276
1003.16	1.72477
1004.81	0.812194
1006.47	0.538082
1008.12	0.923253
1009.78	0.627901
1011.43	0.59653
1013.09	0.456055
1014.74	0.819914
1016.39	0.72402
1018.05	0.716245
1019.7	0.293703
1021.35	0.659559
1023	1.33229
1024.65	0.563358
1026.31	1.06265
1027.96	1.08117
1029.61	1.31754
1031.26	1.18126
1032.91	0.825131
1034.56	1.64585
1036.21	1.15586
1037.86	0.665702
1039.51	0.959835
1041.16	1.51515
1042.8	1.83195
1044.45	1.56364
1046.1	1.47138
1047.75	0.79479
1049.39	1.50988
1051.04	1.46621
1052.69	1.51031
1054.33	0.902951
1055.98	0.643078
1057.62	1.3828
1059.27	0.991684
1060.91	0.773765
1062.56	0.489808
1064.2	0.270194
1065.85	0.853991
1067.49	1.04522
1069.13	0.518355
1070.77	0.534148
1072.42	-0.275094
1074.06	0.283734
1075.7	0.582833
1077.34	0.774642
1078.98	0.121943
1080.62	0.185658
1082.27	0.271075
1083.91	-0.359833
1085.55	0.308643
1087.18	0.714703
1088.82	-0.289256
1090.46	0.913511
1092.1	0.362023
1093.74	0.674862
1095.38	0.922531
1097.02	0.911861
1098.65	-0.0882893
1100.29	0.615223
1101.93	0.41613
1103.56	-0.0177078
1105.2	0.66839
1106.84	0.107493
1108.47	-0.044939
1110.11	0.83371
1111.74	1.21593
1113.38	-0.272818
1115.01	0.471642
1116.64	0.485069
1118.28	0.284176
1119.91	0.426965
1121.54	0.656212
1123.18	0.715069
1124.81	0.475355
1126.44	0.942493
1128.07	-0.236401
1129.7	0.339063
1131.33	0.209437
1132.97	0.422175
1134.6	0.827148
1136.23	-0.0509558
1137.86	0.245509
1139.49	0.262945
1141.11	0.685014
1142.74	0.231227
1144.37	0.140567
1146	0.626241
1147.63	-0.272738
1149.26	-0.211603
1150.88	0.531586
1152.51	-0.301394
1154.14	-0.00592518
1155.76	0.18257
1157.39	-0.224928
1159.01	0.133846
1160.64	-0.187236
1162.27	0.640987
1163.89	0.0455894
1165.51	-0.166573
1167.14	-0.145065
1168.76	-0.188309
1170.39	0.383272
1172.01	-0.385891
1173.63	-0.242941
1175.25	0.195651
1176.88	0.717821
1178.5	0.3073
1180.12	0.0673914
1181.74	0.0613489
1183.36	-0.0920143
1184.98	0.177467
1186.6	0.255701
1188.22	0.0579481
1189.84	0.912542
1191.46	0.963251
1193.08	0.570673
1194.7	-0.0316734
1196.32	0.0385723
1197.94	-0.204603
1199.55	-0.257354
1201.17	-0.0361738
1202.79	0.625655
1204.41	-0.0880671
1206.02	-0.0689468
1207.64	0.285255
1209.25	-0.0486774
1210.87	0.409291
1212.48	1.19896
1214.1	0.151851
1215.71	0.623921
1217.33	-0.00920486
1218.94	0.563184
1220.56	0.469925
1222.17	0.00419998
1223.79	0.866638
1225.4	1.605
1227.01	1.35078
1228.62	1.16039
1230.23	0.495947
1231.85	1.36274
1233.46	1.11442
1235.07	0.970769
1236.68	0.849029
1238.29	0.997062
1239.9	1.14587
1241.51	0.757206
1243.12	0.450788
1244.73	0.826339
1246.34	0.600854
1247.94	0.870966
1249.55	1.05749
1251.16	0.519569
1252.77	0.995532
1254.37	1.34802
1255.98	0.688093
1257.59	1.08433
1259.2	0.67492
1260.8	1.05275
1262.41	0.561649
1264.01	0.650251
1265.62	1.46382
1267.22	1.21999
1268.83	0.850682
1270.43	1.06077
1272.03	1.35274
1273.64	1.18748
1275.24	1.16632
1276.85	0.916262
1278.45	0.789806
1280.05	0.41434
1281.65	0.721883
1283.25	0.905113
1284.85	1.29551
1286.46	0.673568
1288.06	0.569696
1289.66	1.06607
1291.26	1.48022
1292.86	0.716516
1294.46	0.902584
1296.06	0.984038
1297.66	1.27025
1299.25	1.22432
1300.85	0.929482
1302.45	1.3548
1304.05	1.5108
1305.65	1.00782
1307.24	2.02513
1308.84	1.97311
1310.43	1.36786
1312.03	1.19417
1313.63	0.653451
1315.22	1.32033
1316.82	0.986597
1318.41	1.26605
1320.01	1.2188
1321.6	1.4559
1323.2	1.06012
1324.79	1.51713
1326.38	0.97677
1327.98	1.08597
1329.57	1.01315
1331.16	1.18477
1332.76	1.66138
1334.35	1.41274
1335.94	0.924026
1337.53	2.1508
1339.12	1.03734
1340.71	1.49477
1342.3	1.22476
1343.89	1.77735
1345.48	1.9861
1347.07	1.2118
1348.66	1.68288
1350.25	0.994912
1351.84	0.950605
1353.43	1.1284
1355.01	0.647873
1356.6	0.98729
1358.19	0.72682
1359.77	1.12456
1361.36	0.722467
1362.95	1.01811
1364.53	1.09372
1366.12	0.551806
1367.71	1.30568
1369.29	0.925466
1370.88	1.42259
1372.46	0.945992
1374.04	1.14716
1375.63	0.87149
1377.21	0.83472
1378.8	0.976555
1380.38	1.13725
1381.96	1.17718
1383.54	1.23559
1385.13	0.676689
1386.71	0.972112
1388.29	0.870222
1389.87	0.31254
1391.45	0.530022
1393.03	0.569633
1394.61	0.550131
1396.19	1.26415
1397.77	0.430861
1399.35	0.667185
1400.93	0.961744
1402.51	0.839674
1404.09	0.401138
1405.67	1.26861
1407.24	0.71309
1408.82	0.870167
1410.4	1.24497
1411.98	0.632193
1413.55	0.84831
1415.13	1.06333
1416.71	0.863108
1418.28	0.426151
1419.86	0.856719
1421.43	1.44545
1423.01	0.716547
1424.58	0.954043
1426.16	0.523645
1427.73	1.2354
1429.31	1.35646
1430.88	1.53561
1432.45	1.55606
1434.02	1.22131
1435.6	1.35827
1437.17	1.29871
1438.74	1.79031
1440.31	1.6539
1441.88	2.1278
1443.45	1.63948
1445.03	2.42908
1446.6	2.07896
1448.17	1.86655
1449.74	2.5784
1451.3	2.28817
1452.87	1.86079
1454.44	1.59101
1456.01	2.24585
1457.58	1.75888
1459.15	1.27044
1460.72	1.98066
1462.28	2.15737
1463.85	1.82079
1465.42	1.24744
1466.98	1.93151
1468.55	1.47645
1470.12	1.72924
1471.68	1.45339
1473.25	1.41419
1474.81	0.885629
1476.38	0.63216
1477.94	0.908201
1479.51	1.0861
1481.07	0.675854
1482.63	1.28467
1484.2	0.893883
1485.76	1.44321
1487.32	1.75646
1488.88	0.619321
1490.45	0.381474
1492.01	1.08026
1493.57	1.44347
1495.13	0.945452
1496.69	1.22687
1498.25	0.22291
1499.81	0.660234
1501.37	1.01995
1502.93	0.0807581
1504.49	0.558706
1506.05	-0.280286
1507.61	0.583613
1509.17	0.652641
1510.73	0.488763
1512.28	0.864001
1513.84	0.160007
1515.4	0.342204
1516.96	0.601306
1518.51	0.32364
1520.07	-0.31675
1521.63	0.613545
1523.18	0.738717
1524.74	0.881885
1526.29	0.318144
1527.85	0.34523
1529.4	0.276596
1530.96	0.416954
1532.51	0.576377
1534.06	-0.210607
1535.62	0.348282
1537.17	-0.0756512
1538.72	-0.120522
1540.28	0.645928
1541.83	0.638613
1543.38	0.273612
1544.93	0.115958
1546.48	0.559452
1548.03	0.551537
1549.59	0.506104
1551.14	0.311138
1552.69	0.809193
1554.24	0.653115
1555.79	0.18117
1557.34	0.626172
1558.88	0.41966
1560.43	0.924062
1561.98	0.758458
1563.53	0.724609
1565.08	0.728678
1566.62	0.303649
1568.17	0.120919
1569.72	0.553758
1571.27	0.314269
1572.81	0.746493
1574.36	0.842566
1575.9	0.994662
1577.45	0.680259
1579	0.664946
1580.54	0.818281
1582.09	0.785693
1583.63	0.585801
1585.17	1.19011
1586.72	0.131483
1588.26	1.05473
1589.8	1.06168
1591.35	0.0948267
1592.89	0.88697
1594.43	1.13612
1595.97	1.1044
1597.52	1.22301
1599.06	1.02364
1600.6	1.51889
1602.14	0.851504
1603.68	1.00966
1605.22	1.41154
1606.76	0.590797
1608.3	1.44058
1609.84	0.89722
1611.38	1.12205
1612.92	0.743692
1614.46	0.964998
1615.99	0.810416
1617.53	1.12506
1619.07	0.915954
1620.61	1.00818
1622.14	0.221746
1623.68	0.522246
1625.22	0.878881
1626.75	0.411201
1628.29	1.32699
1629.82	0.800668
1631.36	1.1896
1632.9	0.830486
1634.43	1.10676
1635.96	1.06635
1637.5	1.51184
1639.03	0.932267
1640.57	0.893644
1642.1	1.54375
1643.63	1.09352
1645.16	1.21943
1646.7	1.56734
1648.23	1.91437
1649.76	1.40713
1651.29	1.34693
1652.82	1.2139
1654.36	2.36147
1655.89	1.30334
1657.42	1.52435
1658.95	1.61475
1660.48	1.00026
1662.01	1.1435
1663.53	1.39624
1665.06	1.86959
1666.59	1.12444
1668.12	1.43273
1669.65	1.35509
1671.18	0.910589
1672.7	1.83059
1674.23	1.42474
1675.76	1.01889
1677.29	0.70451
1678.81	0.830806
1680.34	1.21331
1681.86	0.694196
1683.39	1.16696
1684.91	0.978532
1686.44	1.0291
1687.96	1.00675
1689.49	1.16803
1691.01	0.340682
1692.54	0.520777
1694.06	0.792088
1695.58	0.697303
1697.11	0.584088
1698.63	0.580216
1700.15	0.302159
1701.67	0.27927
1703.2	0.237619
1704.72	0.122634
1706.24	0.171124
1707.76	0.110167
1709.28	0.503304
1710.8	0.224357
1712.32	0.236168
1713.84	0.37495
1715.36	0.260125
1716.88	-0.0535564
1718.4	-0.204186
1719.91	0.169041
1721.43	-0.0536327
1722.95	-0.25739
1724.47	0.0986099
1725.99	0.0592804
1727.5	0.219305
1729.02	0.344226
1730.54	0.430821
1732.05	0.300227
1733.57	0.435069
1735.09	-0.157903
1736.6	0.0480814
1738.12	0.0136776
1739.63	-0.025528
1741.15	0.231232
1742.66	0.163994
1744.18	0.265953
1745.69	-0.487819
1747.2	0.320484
1748.72	0.197491
1750.23	0.018858
1751.74	0.176284
1753.25	0.151699
1754.77	-0.0978022
1756.28	0.191328
1757.79	0.365777
1759.3	-0.130871
1760.81	-0.0325413
1762.32	0.0543718
1763.83	0.330063
1765.34	0.0886192
1766.85	0.477082
1768.36	0.372085
1769.87	-0.650968
1771.38	0.177765
1772.89	0.0988216
1774.4	0.258567
1775.91	0.134227
1777.41	-0.057868
1778.92	0.0789757
1780.43	0.245592
1781.94	-0.0324955
1783.44	-0.0436201
1784.95	0.0155106
1786.45	-0.261037
1787.96	0.116384
1789.47	0.028801
1790.97	0.358877
1792.47	-0.0836124
1793.98	-0.11972
1795.48	0.00689983
1796.99	0.120777
1798.49	0.141235
1800	0.0480185
1801.5	0.292545
1803	-0.0384731
1804.51	0.447939
1806.01	0.610025
1807.51	-0.0616121
1809.01	0.299076
1810.51	-0.0250845
1812.02	-0.376398
1813.52	-0.022994
1815.02	0.00102997
1816.52	-0.295584
1818.02	0.196784
1819.52	0.143568
1821.02	0.0613194
1822.52	0.104901
1824.02	-0.0753126
1825.51	0.114419
1827.01	0.134977
1828.51	0.339873
1830.01	-0.00903034
1831.51	0.370259
1833	-0.0467596
1834.5	0.0873537
1836	0.222144
1837.49	0.00254726
1838.99	-0.0331202
1840.49	-0.180343
1841.98	0.228026
1843.48	-0.0578613
1844.97	0.22387
1846.47	0.0528412
1847.96	0.0448055
1849.46	0.382826
1850.95	0.159683
1852.45	0.338055
1853.94	0.131441
1855.43	0.218095
1856.92	0.0275402
1858.42	-0.139031
1859.91	0.0910387
1861.4	0.334135
1862.89	0.159711
1864.39	-0.0390396
1865.88	0.0792322
1867.37	0.0569334
1868.86	0.0391302
1870.35	-0.0195313
1871.84	0.0495996
1873.33	-0.0974903
1874.82	-0.0262032
1876.31	0.0907993
1877.8	-0.184839
1879.29	-0.294113
1880.77	-0.0758867
1882.26	-0.0102692
1882.52	-0.00502682
1884.02	0.115202
1885.51	-0.0616617
1887.01	-0.065033
1888.5	-0.190745
1889.99	-0.246548
1891.49	-0.00572395
1892.98	0.323421
1894.47	0.27181
1895.96	-0.178185
1897.46	0.329015
1898.95	0.349249
1900.44	-0.275211
1901.93	0.420861
1903.42	0.0192795
1904.91	-0.140056
1906.4	0.412346
1907.89	-0.0951328
1909.38	0.0927534
1910.87	0.142595
1912.36	0.193294
1913.85	-0.310461
1915.34	-0.0683041
1916.83	0.2948
1918.32	-0.0534248
1919.8	0.0659428
1921.29	0.548878
1922.78	0.0276165
1924.27	0.165332
1925.75	0.0790863
1927.24	0.184319
1928.73	0.151699
1930.21	0.0497723
1931.7	-0.174167
1933.18	0.379721
1934.67	0.360366
1936.15	0.304739
1937.64	0.17882
1939.12	0.259947
1940.61	0.427592
1942.09	0.216238
1943.57	0.264882
1945.06	0.159157
1946.54	0.0538731
1948.02	0.448199
1949.51	0.204109
1950.99	0.062562
1952.47	0.505308
1953.95	0.15591
1955.43	0.47706
1956.91	0.17998
1958.39	0.501785
1959.87	-0.0680199
1961.36	-0.156662
1962.84	0.097764
1964.32	0.351799
1965.79	-0.0970049
1967.27	0.00167656
1968.75	-0.122754
1970.23	0.111358
1971.71	0.0374327
1973.19	-0.17298
1974.66	0.179836
1976.14	-0.0301189
1977.62	0.0669641
1979.1	0.317211
1980.57	-0.232369
1982.05	-0.0674477
1983.53	0.181886
1985	0.0571136
1986.48	0.000123978
1987.95	-0.107637
1989.43	0.00521755
1990.9	0.101636
1992.38	0.418725
1993.85	0.229353
1995.33	0.328236
1996.8	0.292341
1998.27	0.104444
1999.75	0.101957
2001.22	0.233875
2002.69	0.449513
2004.16	-0.211818
2005.64	0.324159
2007.11	0.0519428
2008.58	0.285985
2010.05	-0.0347862
2011.52	0.284722
2012.99	0.301242
2014.46	-0.120201
2015.93	-0.0543022
2017.4	0.212505
2018.87	0.226119
2020.34	0.323188
2021.81	0.0505562
2023.28	0.097435
2024.75	-0.224077
2026.22	0.378303
2027.69	0.37811
2029.15	-0.0566721
2030.62	0.0465574
2032.09	0.318601
2033.56	0.0876827
2035.02	0.0749121
2036.49	-0.0726366
2037.95	0.165698
2039.42	0.672668
2040.89	0.339278
2042.35	0.628253
2043.82	0.295828
2045.28	0.182809
2046.75	-0.0474281
2048.21	0.3962
2049.67	0.0984097
2051.14	-0.20064
2052.6	0.0383396
2054.06	0.326221
2055.53	-0.0453148
2056.99	0.0540094
2058.45	-0.117122
2059.92	-0.13668
2061.38	-0.223176
2062.84	0.0614653
2064.3	0.330129
2065.76	0.397786
2067.22	0.365314
2068.68	0.350265
2070.14	0.503861
2071.6	0.371356
2073.06	0.070303
2074.52	0.459335
2075.98	0.376568
2077.44	0.613394
2078.9	0.0246601
2080.36	0.327991
2081.82	0.243478
2083.27	0.276163
2084.73	0.19031
2086.19	0.0365057
2087.65	-0.0505075
2089.1	0.65203
2090.56	0.261844
2092.01	0.426
2093.47	0.052948
2094.93	0.350863
2096.38	0.698218
2097.84	0.190274
2099.29	0.519238
2100.75	-0.155985
2102.2	0.573665
2103.66	0.735357
2105.11	0.147147
2106.56	0.211461
2108.02	-0.0568104
2109.47	0.542464
2110.92	0.207373
2112.37	0.187842
2113.83	0.299908
2115.28	0.393608
2116.73	0.0207787
2118.18	0.0641441
2119.63	0.0589161
2121.09	0.271182
2122.54	0.153463
2123.99	0.352256
2125.44	-0.194511
2126.89	0.419152
2128.34	-0.062376
2129.79	0.217322
2131.23	-0.0344429
2132.68	0.160233
2134.13	0.553165
2135.58	0.367743
2137.03	0.283068
2138.48	0.497674
2139.92	0.598423
2141.37	0.585101
2142.82	0.606017
2144.26	0.627593
2145.71	0.351419
2147.16	0.339646
2148.6	0.989768
2150.05	0.678517
2151.49	0.183914
2152.94	0.201953
2154.38	0.56716
2155.83	0.567394
2157.27	0.783045
2158.72	0.452743
2160.16	0.819467
2161.6	0.823507
2163.05	0.796219
2164.49	0.720637
2165.93	0.778605
2167.38	0.720272
2168.82	0.627596
2170.26	0.982162
2171.7	0.719331
2173.14	0.620897
2174.58	0.737375
2176.03	0.786721
2177.47	1.03577
2178.91	0.936378
2180.35	0.322582
2181.79	0.973213
2183.23	0.510403
2184.67	0.696388
2186.1	0.832611
2187.54	0.702684
2188.98	0.772451
2190.42	0.858882
2191.86	0.845186
2193.3	0.614305
2194.73	0.415433
2196.17	0.68096
2197.61	0.528417
2199.05	0.524019
2200.48	0.452163
2201.92	0.496477
2203.35	0.0602264
2204.79	0.421431
2206.22	0.600939
2207.66	0.383217
2209.09	0.695412
2210.53	0.526563
2211.96	0.390013
2213.4	0.831433
2214.83	0.462756
2216.27	0.243715
2217.7	0.487948
2219.13	0.683684
2220.56	0.715285
2222	0.120723
2223.43	0.497913
2224.86	0.527626
2226.29	0.308788
2227.72	0.401072
2229.16	0.229141
2230.59	0.335711
2232.02	0.277969
2233.45	0.269721
2234.88	0.131406
2236.31	0.680613
2237.74	0.348979
2239.17	0.215394
2240.6	0.507948
2242.03	0.296565
2243.45	0.640955
2244.88	-0.123425
2246.31	0.563246
2247.74	-0.0564432
2249.17	0.153609
2250.59	0.0192041
2252.02	0.648365
2253.45	0.169749
2254.87	0.228441
2256.3	0.028677
2257.73	0.350628
2259.15	0.172223
2260.58	0.402274
2262	0.018034
2263.43	0.0734529
2264.85	0.145476
2266.28	0.412368
2267.7	0.0280313
2269.13	0.146999
2270.55	0.118766
2271.97	0.138882
2273.4	-0.052886
2274.82	0.390656
2276.24	0.231725
2277.66	0.138083
2279.09	0.3216
2280.51	0.227947
2281.93	0.0199451
2283.35	-0.057724
2284.77	0.305215
2286.19	-0.00069046
2287.61	0.150759
2289.04	0.0904007
2290.46	0.422544
2291.88	0.183091
2293.29	0.237929
2294.71	-0.247137
2296.13	0.200314
2297.55	-0.105183
2298.97	0.113351
2300.39	0.250312
2301.81	0.354877
2303.23	-0.0651674
2304.64	0.187508
2306.06	0.144757
2307.48	0.0523386
2308.89	0.222326
2310.31	0.210994
2311.73	0.281509
2313.14	0.417847
2314.56	-0.103716
2315.97	0.0501432
2317.39	0.204893
2318.8	-0.117806
2320.22	0.185677
2321.63	0.158379
2323.05	0.0137167
2324.46	0.0648603
2325.88	0.460287
2327.29	0.243588
2328.7	0.784471
2330.12	0.715497
2331.53	-0.340309
2332.94	0.169256
2334.35	-0.028162
2335.76	0.13666
2337.18	0.0542765
2338.59	0.217616
2340	0.0510559
2341.41	-0.0505438
2342.82	0.356232
2344.23	0.172042
2345.64	0.0703077
2347.05	0.116387
2348.46	0.0642281
2349.87	-0.0373068
2351.28	-0.417325
2352.69	0.00265121
2354.1	-0.00326538
2355.5	-0.238029
2356.91	-0.0981236
2358.32	0.399269
2359.73	0.197091
2361.14	0.384954
2362.54	-0.0761108
2363.95	0.143915
2365.36	0.250175
2366.76	-0.015316
2368.17	0.0754986
2369.58	0.0219612
2370.98	-0.143053
2372.39	0.112267
2373.79	0.352197
2375.2	-0.0354452
2376.6	0.0595636
2378	-0.0395155
2379.41	-0.0917282
2380.81	0.336141
2382.22	0.120328
2383.62	0.208438
2385.02	-0.0718136
2386.42	0.104335
2387.83	0.249027
2389.23	-0.0916939
2390.63	0.0791798
2392.03	0.0758114
2393.43	0.0575142
2394.84	0.0241337
2396.24	0.388913
2397.64	0.197823
2399.04	0.515856
2400.44	0.310017
2401.84	0.295167
2403.24	-0.307239
2404.64	0.328721
2406.04	0.0269814
2407.44	-0.354777
2408.83	-0.0232477
2410.23	0.275924
2411.63	0.0363407
2413.03	0.320363
2414.43	-0.32865
2415.83	0.258727
2417.22	0.293282
2418.62	-0.0354328
2420.02	0.0636988
2421.41	-0.0431709
2422.81	0.261503
2424.21	-0.226242
2425.6	-0.222808
2427	0.383379
2428.39	0.356559
2429.79	0.124498
2431.18	-0.329232
2432.58	0.343866
2433.97	0.334161
2435.36	0.00559998
2436.76	-0.22918
2438.15	0.0112391
2439.54	0.107397
2440.94	0.12322
2442.33	-0.0678558
2443.72	0.121769
2445.11	0.358652
2446.51	-0.102415
2447.9	0.118229
2449.29	-0.310783
2450.68	-0.121708
2452.07	0.210165
2453.46	0.321063
2454.85	0.195458
2456.24	0.165483
2457.63	0.325642
2459.02	-0.00468826
2460.41	0.0124273
2461.8	-0.255827
2463.19	-0.0821123
2464.58	0.0435257
2465.97	-0.0365314
2467.36	-0.290247
2468.75	0.118896
2470.13	-0.00873375
2471.52	-0.0263329
2472.91	-0.0760679
2474.29	-0.26814
2475.68	-0.287505
2477.07	0.0543118
2478.45	-0.107019
2479.84	0.265591
2481.22	0.230109
2482.61	0.037941
2484	0.143072
2485.38	-0.0812664
2486.77	-0.15
2488.15	0.0612659
2489.54	0.193368
2490.92	-0.00185966
2492.3	0.161428
2493.69	-0.249134
2495.07	0.040453
2496.45	-0.165253
2497.84	0.1258
2499.22	0.200016
2500.6	0.382078
2501.98	0.161257
2503.36	-0.168211
2504.74	0.273355
2506.13	0.081645
2507.51	-0.0329237
2508.89	-0.14712
2510.27	-0.306738
2511.65	-0.265994
2513.03	0.373209
2514.41	0.0932178
2515.79	-0.0936804
2517.17	0.0569277
2518.55	0.0397158
2519.93	-0.130117
2521.3	0.188704
2522.68	0.00283432
2524.06	-0.214092
2525.44	0.269693
2526.82	0.0215034
2528.19	-0.149823
2529.57	0.0450592
2530.95	0.438825
2532.32	-0.305598
2533.7	0.166953
2535.08	-0.180255
2536.45	-0.0869064
2537.83	0.0209951
2539.2	-0.0087328
2540.58	0.142959
2541.95	0.263843
2543.33	0.157325
2544.7	-0.160676
2546.08	-0.219579
2547.45	0.132217
2548.82	-0.288818
2550.2	0.0791216
2551.57	0.264609
2552.94	0.0242901
2554.32	-0.444619
2555.69	-0.00389099
2557.06	0.0417385
2558.43	0.254013
2559.8	0.13293
2561.17	0.315543
2562.55	0.347189
2563.92	0.394569
2565.29	-0.315321
2566.66	-0.0854282
2568.03	0.387054
2569.4	0.0714827
2570.77	0.286366
2572.14	-0.0292006
2573.51	-0.177983
2574.88	0.158417
2576.24	-0.172184
2577.61	-0.260308
2578.98	0.0304241
2580.35	0.15405
2581.72	-0.0108156
2583.09	0.0362492
2584.45	0.128554
2585.82	0.129844
2587.19	0.328282
2588.55	-0.230899
2589.92	0.195148
2591.28	-0.0760403
2592.65	0.606943
2594.02	0.561751
2595.38	0.167254
2596.75	-0.182518
2598.11	0.132949
2599.48	0.0394783
2600.84	0.29375
2602.2	-0.357893
2603.57	0.0634766
2604.93	0.620851
2606.3	-0.149407
2607.66	0.121027
2609.02	0.360276
2610.38	0.161266
2611.75	-0.249449
2613.11	0.0762424
2614.47	-0.155218
2615.83	-0.131359
2617.19	0.26742
2618.56	0.426405
2619.92	-0.012661
2621.28	0.28234
2622.64	0.0544605
2624	0.409475
2625.36	0.152153
2626.72	0.610712
2628.08	-0.332421
2629.44	-0.0981407
2630.8	0.0463152
2632.15	0.130974
2633.51	0.0817642
2634.87	-0.190022
2636.23	0.0576496
2637.59	0.127095
2638.94	-0.158874
2640.3	0.103163
2641.66	0.158076
2643.02	-0.126595
2644.37	0.0764627
2645.73	0.308673
2647.08	0.186357
2648.44	0.16667
2649.8	0.499403
2651.15	0.125156
2652.51	0.177257
2653.86	0.317489
2655.22	0.0770931
2656.57	0.204308
2657.92	-0.296905
2659.28	0.432107
2660.63	-0.0381813
2661.99	-0.361997
2663.34	0.380229
2664.69	0.142788
2666.04	0.342507
2667.4	0.0750952
2668.75	0.405044
2670.1	0.269135
2671.45	0.235726
2672.81	0.0867424
2674.16	-0.192159
2675.51	0.11036
2676.86	-0.00760078
2678.21	0.339266
2679.56	0.121256
2680.91	0.368269
2682.26	0.384467
2683.61	0.126334
2684.96	0.0140553
2686.31	0.410003
2687.66	0.399649
2689	0.257469
2690.35	-0.0605803
2691.7	0.650224
2693.05	-0.0192366
2694.4	0.253531
2695.74	-0.169813
2697.09	0.363894
2698.44	0.521942
2699.79	0.116911
2701.13	-0.127154
2702.48	0.223961
2703.82	0.156106
2705.17	0.291662
2706.52	0.151816
2707.86	0.0406027
2709.21	0.132155
2710.55	0.528372
2711.9	-0.266603
2713.24	-0.103152
2714.58	0.0748739
2715.93	0.0203018
2717.27	0.183731
2718.61	-0.0457921
2719.96	0.393581
2721.3	0.556161
2722.64	0.267092
2723.99	0.341409
2725.33	0.284301
2726.67	0.61981
2728.01	0.387358
2729.35	0.445755
2730.7	0.256638
2732.04	0.198472
2733.38	0.416795
2734.72	0.518879
2736.06	0.475705
2737.4	0.170879
2738.74	0.287816
2740.08	0.346328
2741.42	0.0844831
2742.76	0.359985
2744.09	0.300412
2745.43	0.153099
2746.77	0.19427
2748.11	0.162644
2749.45	0.0730529
2750.79	0.230273
2752.12	0.532595
2753.46	0.226241
2754.8	0.195529
2756.13	-0.298512
2757.47	-0.0681367
2758.81	0.0899744
2760.14	0.0168128
2761.48	0.76898
2762.81	0.436237
2764.15	0.566862
2765.49	-0.0259571
2766.82	-0.054903
2768.15	-0.113628
2769.49	0.37592
2770.82	0.401156
2772.16	0.323923
2773.49	0.231359
2774.82	0.0951657
2776.16	0.4921
2777.49	0.125964
2778.82	-0.0089674
2780.16	0.402857
2781.49	0.168205
2782.82	0.249678
2784.15	0.130204
2785.48	-0.275774
2786.81	0.049408
2788.15	-0.112025
2789.48	-0.344102
2790.81	0.24006
2792.14	0.00960302
2793.47	0.194251
2794.8	-0.064189
2796.13	0.348726
2797.46	-0.0533042
2798.79	0.201211
2800.12	0.126849
2801.44	-0.104622
2802.77	-0.207731
2804.1	0.259044
2805.43	-0.0442114
2806.76	0.0366282
2808.08	0.614549
2809.41	0.21056
2810.74	0.219039
2812.07	0.199706
2813.39	0.167312
2814.72	0.15052
2816.05	0.234348
2817.37	-0.0776196
2818.7	0.404705
2820.02	0.0507956
2821.35	-0.0484037
2822.67	0.446966
2824	0.176475
2825.32	0.613991
2826.65	-0.0248985
2827.97	0.56874
2829.29	0.539868
2830.62	0.511467
2831.94	0.440814
2833.26	0.426727
2834.59	0.539716
2835.91	0.340855
2837.23	0.792405
2838.55	0.691634
2839.88	0.944251
2841.2	0.64545
2842.52	0.785381
2843.84	0.897626
2845.16	1.10948
2846.48	1.50567
2847.8	1.35105
2849.12	1.62046
2850.44	1.47969
2851.76	1.50804
2853.08	1.38041
2854.4	1.80352
2855.72	1.92962
2857.04	1.81551
2858.36	2.15347
2859.68	1.89818
2861	2.23582
2862.32	2.00833
2863.63	2.40156
2864.95	2.83665
2866.27	3.01756
2867.58	2.70506
2868.9	3.49295
2870.22	3.56204
2871.53	2.94059
2872.85	3.74248
2874.17	3.23284
2875.48	3.21536
2876.8	3.57684
2878.11	3.71196
2879.43	3.01686
2880.74	3.85493
2882.06	3.10547
2883.37	3.07398
2884.69	3.6613
2886	3.74362
2887.31	3.6716
2888.63	3.52897
2889.94	3.96071
2891.25	3.39568
2892.57	4.00776
2893.88	3.97469
2895.19	4.05407
2896.5	3.63036
2897.82	4.21556
2899.13	4.07409
2900.44	4.21331
2901.75	4.00331
2903.06	4.40901
2904.37	3.76578
2905.68	4.47961
2906.99	4.32683
2908.3	4.66451
2909.61	4.47152
2910.92	4.32104
2912.23	4.60441
2913.54	5.06907
2914.85	5.15429
2916.16	5.08363
2917.46	5.72506
2918.77	4.88198
2920.08	5.57774
2921.39	5.30904
2922.7	5.11168
2924	5.34916
2925.31	5.54591
2926.62	5.7573
2927.92	5.64723
2929.23	5.87227
2930.53	6.50212
2931.84	6.1808
2933.15	5.92912
2934.45	6.18061
2935.76	5.87316
2937.06	5.66375
2938.37	5.87378
2939.67	5.53912
2940.98	5.205
2942.28	5.75214
2943.58	5.07076
2944.89	4.65611
2946.19	5.22138
2947.49	4.92027
2948.8	4.53469
2950.1	4.3717
2951.4	4.20685
2952.7	4.88023
2954.01	3.96993
2955.31	3.82943
2956.61	4.01175
2957.91	4.04212
2959.21	4.28525
2960.51	4.1252
2961.81	4.05118
2963.11	3.69726
2964.41	3.80556
2965.71	3.72995
2967.01	3.61042
2968.31	3.61596
2969.61	3.31137
2970.91	3.30187
2972.21	3.12383
2973.51	3.11491
2974.81	2.86667
2976.1	3.26535
2977.4	2.93063
2978.7	2.32668
2980	2.53767
2981.29	2.71909
2982.59	2.19653
2983.89	2.29331
2985.18	2.36299
2986.48	2.27955
2987.78	1.8744
2989.07	1.69503
2990.37	1.6705
2991.66	1.9547
2992.96	1.4368
2994.25	1.17074
2995.55	1.40941
2996.84	1.29618
2998.14	1.37929
2999.43	1.32229
3000.72	1.0415
3002.02	1.08386
3003.31	0.972449
3004.6	1.28146
3005.9	0.581728
3007.19	0.55385
3008.48	0.51122
3009.77	0.621601
3011.07	0.521534
3012.36	0.588734
3013.65	0.586061
3014.94	0.346806
3016.23	0.610035
3017.52	0.428144
3018.81	0.0799751
3020.1	-0.253837
3021.39	-0.0317049
3022.68	0.203251
3023.97	0.312025
3025.26	0.031683
3026.55	0.125625
3027.84	0.385859
3029.13	-0.0860538
3030.42	0.121106
3031.71	0.329422
3033	-0.179288
3034.28	-0.190529
3035.57	-0.0229044
3036.86	0.253655
3038.15	-0.119342
3039.43	0.0708508
3040.72	-0.111969
3042.01	-0.171621
3043.29	-0.0941133
3044.58	0.0934739
3045.86	-0.196387
3047.15	-0.0602155
3048.44	0.269067
3049.72	0.313492
3051.01	0.0592246
3052.29	0.146916
3053.58	0.316495
3054.86	0.471765
3056.14	0.230438
3057.43	0.383576
3058.71	0.372293
3060	0.306289
3061.28	-0.00422192
3062.56	-0.000679016
3063.84	0.46643
3065.13	0.513399
3066.41	0.561752
3067.69	0.461553
3068.97	0.0489349
3070.25	0.275193
3071.54	0.351059
3072.82	0.466525
3074.1	0.145704
3075.38	0.272634
3076.66	-0.157667
3077.94	-0.139232
3079.22	-0.174093
3080.5	0.0501766
3081.78	0.411533
3083.06	-0.121232
3084.34	0.201344
3085.62	-0.208755
3086.9	-0.117165
3088.17	0.0688086
3089.45	0.0505323
3090.73	0.00469828
3092.01	-0.0276828
3093.29	0.184242
3094.56	-0.240987
3095.84	0.0121312
3097.12	0.170361
3098.4	0.0709753
3099.67	-0.109795
3100.95	0.0345569
3102.22	-0.200278
3103.5	-0.136869
3104.77	0.157094
3106.05	0.316326
3107.33	0.151649
3108.6	-0.039104
3109.88	0.299015
3111.15	0.0289578
3112.43	-0.105092
3113.7	0.0321755
3114.97	-0.0337834
3116.25	0.265923
3117.52	-0.343762
3118.79	0.320431
3120.07	0.196925
3121.34	-0.130759
3122.61	0.110435
3123.88	0.0261579
3125.16	0.0910726
3126.43	-0.0601897
3127.7	0.222147
3128.97	0.328984
3130.24	0.368506
3131.51	0.0566912
3132.78	0.109778
3134.05	0.311082
3135.33	0.417219
3136.59	0.401259
3137.86	0.196105
3139.14	0.597105
3140.41	0.176267
3141.67	0.495835
3142.94	0.479257
3144.21	0.288663
3145.48	0.152618
3146.75	0.406198
3148.02	0.258183
3149.28	0.914255
