200.388	0.217167
202.204	0.235744
204.019	0.255764
205.832	0.252492
207.646	0.395412
209.459	0.246066
211.274	0.265716
213.087	0.162519
214.899	0.106743
216.711	0.244271
218.524	0.187863
220.335	0.30156
222.146	0.222578
223.956	-0.483964
225.766	-0.295102
227.576	0.0386229
229.388	-0.159547
231.197	0.245214
233.005	0.0702438
234.813	0.353907
236.621	-0.446081
238.429	0.226614
240.236	-0.0381069
242.045	0.519321
243.852	0.451484
245.658	-0.0508432
247.464	0.965837
249.269	0.676072
251.074	0.938085
252.879	0.158954
254.683	1.16362
256.487	1.15403
258.291	0.976657
260.094	0.729004
261.897	0.387265
263.702	0.119686
265.504	0.672432
267.306	0.79201
269.108	0.236354
270.909	0.499326
272.71	0.640523
274.511	-0.20836
276.311	0.797341
278.111	0.571459
279.91	-0.258633
281.709	0.402376
283.508	0.362867
285.306	0.489981
287.105	0.567918
288.9	0.66961
290.698	0.604219
292.495	0.683994
294.291	0.526213
296.088	0.274635
297.884	0.502482
299.679	0.65909
301.475	0.815429
303.27	0.230571
305.064	1.12447
306.858	0.418279
308.652	0.499226
310.444	0.247075
312.237	0.448953
314.03	-0.133269
315.822	0.12
317.615	0.137105
319.406	0.560897
321.198	0.199844
322.987	0.030055
324.778	-0.115557
326.568	0.837104
328.358	0.811171
330.148	0.234648
331.935	0.134559
333.724	0.271835
335.513	0.023983
337.301	0.778646
339.089	0.908676
340.875	-0.111121
342.662	0.255429
344.449	0.717134
346.236	0.486347
348.02	0.137094
349.806	0.719631
351.592	-0.106219
353.375	-0.168688
355.16	0.292583
356.944	0.0128965
358.728	-0.0773134
360.51	-0.0495996
362.294	0.0722485
364.077	-0.330046
365.858	0.0277987
367.64	0.645245
369.422	0.288323
371.202	0.499655
372.983	0.757035
374.764	0.280752
376.543	1.57607
378.324	1.05342
380.102	1.4988
381.881	1.28573
383.661	0.768781
385.438	0.935738
387.216	0.822008
388.993	0.709681
390.771	0.387189
392.548	0.535419
394.324	0.379051
396.101	0.411016
397.875	1.1477
399.651	0.921311
401.425	0.48303
403.201	1.1245
404.974	0.332399
406.749	0.314581
408.524	0.601304
410.296	0.183341
412.07	0.868594
413.841	0.638961
415.614	0.504049
417.385	0.956669
419.156	0.940801
420.928	0.40893
422.698	1.07383
424.469	1.12774
426.238	0.758018
428.009	0.739486
429.777	0.344826
431.548	0.396147
433.315	0.659028
435.083	0.687617
436.852	0.645817
438.618	-0.241605
440.387	1.40388
442.153	0.770816
443.919	0.792259
445.686	0.647513
447.451	0.876073
449.218	-0.369575
450.982	0.209457
452.746	-0.145915
454.512	0.525878
456.275	0.147788
458.038	0.235925
459.803	0.230898
461.565	0.31963
463.327	0.386712
465.091	-0.0780067
466.852	0.459633
468.613	0.140553
470.374	0.265222
472.136	0.204665
473.896	0.00360584
475.655	0.499228
477.415	0.340407
479.176	1.01806
480.934	0.529807
482.692	-0.121255
484.45	0.230446
486.21	0.654287
487.967	0.591475
489.724	0.857528
491.481	0.284911
493.237	0.880302
494.995	0.284412
496.75	0.904539
498.506	1.1975
500.26	0.693176
502.015	0.492375
503.769	0.548645
505.525	0.345204
507.279	0.375158
509.032	-0.161136
510.785	0.194674
512.537	0.407667
514.289	0.501339
516.041	0.405247
517.793	0.425443
519.546	0.279939
521.297	0.88561
523.047	1.53708
524.797	-0.0187082
526.547	0.585375
528.297	0.673041
530.046	0.45587
531.795	0.589838
533.543	0.535515
535.291	0.784039
537.039	0.35283
538.787	0.504535
540.534	0.747856
542.281	0.407348
544.027	0.904755
545.773	0.959418
547.519	0.921338
549.264	0.651832
551.01	0.360055
552.754	0.948148
554.499	-0.475085
556.243	0.436354
557.987	0.262566
559.73	0.366151
561.474	0.193964
563.216	-0.0692863
564.959	0.541966
566.701	0.00460052
568.441	0.364148
570.182	0.334411
571.923	-0.0378761
573.664	0.417597
575.405	0.783324
577.145	-0.133839
578.885	-0.292585
580.624	0.858521
582.361	0.103723
584.1	-0.330493
585.839	0.429788
587.577	0.568043
589.315	-0.192304
591.052	-0.1255
592.787	0.0787773
594.524	0.0067873
596.26	0.187933
597.997	-0.137081
599.732	0.204742
601.466	-0.305483
603.201	0.0570831
604.936	-0.156888
606.67	-0.165276
608.403	0.376613
610.136	0.252097
611.87	0.19706
613.603	0.257604
615.334	0.387652
617.067	0.151276
618.799	0.189388
620.529	0.661242
622.26	-0.332938
623.991	0.227757
625.72	-0.4231
627.451	0.731548
629.181	0.472389
630.909	-0.126202
632.638	0.121822
634.368	0.439634
636.095	-0.132966
637.823	-0.25087
639.551	0.0392265
641.277	-0.654878
643.005	0.632155
644.73	0.64042
646.457	0.42145
648.184	0.204885
649.908	0.650958
651.634	0.260514
653.357	0.0106745
655.083	0.787859
656.806	0.749401
658.53	0.803255
660.253	0.674286
661.977	-0.0960913
663.7	0.0211496
665.422	0.936082
667.145	-0.0715113
668.865	0.314762
670.588	0.40445
672.308	0.770978
674.027	0.316317
675.749	0.230116
677.468	0.627005
679.188	0.680457
680.907	0.48008
682.627	0.875563
684.345	0.279294
686.064	0.27897
687.781	0.990892
689.498	0.688235
691.216	1.12182
692.932	0.057456
694.65	0.673775
696.366	0.621022
698.081	-0.0776091
699.797	0.787666
701.512	0.477882
703.228	1.08673
704.942	-0.189394
706.655	0.555416
708.371	0.610636
710.083	0.207085
711.796	0.193021
713.51	0.841961
715.222	1.07818
716.934	0.49195
718.645	0.499986
720.358	0.348646
722.068	0.835402
723.779	1.23039
725.49	1.2381
727.2	0.56408
728.909	0.00428581
730.618	0.306574
732.329	-0.00366592
734.037	0.206909
735.745	0.349301
737.453	0.424049
739.16	0.364021
740.869	0.440369
742.576	1.05856
744.282	0.619366
745.988	1.17234
747.694	0.129228
749.401	0.347624
751.107	0.904745
752.811	0.878505
754.516	0.966277
756.22	1.05575
757.924	0.764281
759.627	1.10493
761.332	0.162242
763.035	0.843265
764.738	1.14122
766.44	0.760562
768.142	0.784417
769.843	1.28079
771.544	0.960948
773.245	1.18219
774.946	0.950625
776.646	1.26227
778.346	1.14572
780.046	1.18914
781.745	1.82209
783.444	1.59572
785.143	2.00184
786.841	1.81682
788.539	1.1756
790.237	1.54913
791.934	1.62522
793.631	0.841208
795.328	1.18625
797.024	1.30621
798.72	1.36022
800.416	2.29402
802.112	1.81121
803.807	1.8469
805.502	1.32043
807.196	1.46763
808.89	1.16424
810.584	1.66783
812.278	2.03506
813.971	1.99772
815.664	1.51239
817.354	2.36993
819.047	1.88512
820.739	1.80326
822.43	1.69965
824.122	2.1545
825.813	2.52124
827.503	1.79872
829.192	1.92602
830.882	1.87863
832.571	1.67856
834.261	1.39162
835.95	1.64085
837.637	1.66704
839.325	1.64735
841.013	1.55883
842.701	1.62513
844.389	1.40033
846.074	1.93607
847.761	1.1549
849.447	1.40478
851.131	1.72497
852.817	1.64455
854.503	1.3856
856.188	1.01364
857.871	1.24681
859.556	0.983548
861.24	0.875535
862.922	0.788147
864.606	1.55567
866.289	1.71398
867.97	0.834368
869.653	1.41983
871.336	1.2833
873.016	0.853212
874.698	0.829051
876.379	1.50446
878.058	0.871013
879.739	0.485595
881.418	1.61224
883.098	1.06761
884.778	0.860432
886.456	0.742078
888.135	1.41176
889.812	0.861333
891.49	1.03105
893.167	0.838748
894.845	1.613
896.523	1.08075
898.198	1.02004
899.875	0.644353
901.55	1.43374
903.226	0.586977
904.901	1.41831
906.576	1.06474
908.25	0.712733
909.925	0.674232
911.598	0.547813
913.271	1.06694
914.945	0.652874
916.617	1.30449
918.291	0.913136
919.962	0.52264
921.635	1.52711
923.306	1.31542
924.978	1.32675
926.648	1.27392
928.318	1.53207
929.989	0.842638
931.659	1.67664
933.328	1.29741
934.998	1.35961
936.666	1.02528
938.336	1.55204
940.004	1.24209
941.671	1.04373
943.34	0.802002
945.007	1.17803
946.673	0.625849
948.339	1.04289
950.007	1.47976
951.672	1.09863
953.337	1.44554
955.004	1.41911
956.669	1.24144
958.333	1.24384
959.997	0.653501
961.662	1.19065
963.326	0.888556
964.989	1.07084
966.651	1.05121
968.315	0.85139
969.977	1.48988
971.639	0.401796
973.301	1.08373
974.962	0.661405
976.624	0.506411
978.285	1.79091
979.945	1.67181
981.605	1.55222
983.264	1.11004
984.924	2.30377
986.583	1.23711
988.243	1.62917
989.901	1.37809
991.56	0.883361
993.217	1.27248
994.875	1.21974
996.532	1.67461
998.188	0.894167
999.845	1.85523
1001.5	1.9778
1003.16	1.85759
1004.81	1.60518
1006.47	1.88038
1008.12	1.27691
1009.78	0.784362
1011.43	1.03858
1013.09	0.438247
1014.74	1.15328
1016.39	0.576345
1018.05	0.50382
1019.7	1.2852
1021.35	1.10516
1023	0.77348
1024.65	0.901963
1026.31	0.921832
1027.96	0.679545
1029.61	1.0265
1031.26	1.39376
1032.91	1.38778
1034.56	0.987115
1036.21	0.716182
1037.86	1.49039
1039.51	1.32719
1041.16	1.0562
1042.8	1.1566
1044.45	1.4544
1046.1	1.1678
1047.75	1.20928
1049.39	1.18751
1051.04	1.23238
1052.69	1.23476
1054.33	1.49835
1055.98	0.610134
1057.62	0.87339
1059.27	0.831791
1060.91	0.615503
1062.56	0.833216
1064.2	0.745473
1065.85	1.33049
1067.49	0.175279
1069.13	-0.0677824
1070.77	0.274972
1072.42	-0.272734
1074.06	0.938025
1075.7	0.305306
1077.34	0.736981
1078.98	0.150743
1080.62	0.58458
1082.27	1.04011
1083.91	0.757424
1085.55	0.191246
1087.18	0.663307
1088.82	0.829379
1090.46	0.75519
1092.1	0.593287
1093.74	0.387865
1095.38	0.700818
1097.02	0.0224543
1098.65	-0.201038
1100.29	0.309517
1101.93	0.52035
1103.56	0.345782
1105.2	0.667463
1106.84	0.150946
1108.47	0.15037
1110.11	1.03017
1111.74	0.811533
1113.38	0.183074
1115.01	0.04772
1116.64	0.169289
1118.28	0.440834
1119.91	0.39136
1121.54	0.749864
1123.18	0.788155
1124.81	0.314057
1126.44	0.589824
1128.07	0.0750933
1129.7	0.566225
1131.33	0.630293
1132.97	0.50229
1134.6	0.16042
1136.23	0.15992
1137.86	-0.119476
1139.49	1.28743
1141.11	0.0872765
1142.74	-0.130709
1144.37	0.334119
1146	0.351539
1147.63	0.668334
1149.26	-0.0793524
1150.88	0.281489
1152.51	0.258867
1154.14	-0.402802
1155.76	0.255021
1157.39	-0.236646
1159.01	-0.281001
1160.64	0.185883
1162.27	0.143503
1163.89	0.251054
1165.51	-0.00227833
1167.14	0.424524
1168.76	0.0635233
1170.39	-0.214129
1172.01	0.313667
1173.63	0.032114
1175.25	0.513346
1176.88	0.336028
1178.5	-0.0738487
1180.12	-0.418904
1181.74	-0.149123
1183.36	0.121052
1184.98	0.327602
1186.6	-0.311737
1188.22	0.356312
1189.84	0.0513706
1191.46	0.271351
1193.08	0.699335
1194.7	0.306316
1196.32	0.585295
1197.94	-0.014925
1199.55	0.684841
1201.17	0.215682
1202.79	-0.0827742
1204.41	1.12453
1206.02	0.24703
1207.64	0.456174
1209.25	0.0606871
1210.87	0.269319
1212.48	0.580263
1214.1	0.659238
1215.71	0.173368
1217.33	0.580832
1218.94	0.404408
1220.56	0.767914
1222.17	0.0944605
1223.79	0.045187
1225.4	0.494517
1227.01	0.92423
1228.62	0.403646
1230.23	0.608531
1231.85	0.0291166
1233.46	0.608609
1235.07	0.79669
1236.68	0.965463
1238.29	0.763326
1239.9	0.830688
1241.51	1.00173
1243.12	0.903544
1244.73	0.369936
1246.34	0.890451
1247.94	1.2236
1249.55	1.22475
1251.16	0.625572
1252.77	1.20578
1254.37	1.80737
1255.98	0.32109
1257.59	0.470153
1259.2	1.15854
1260.8	1.12387
1262.41	1.93873
1264.01	0.579147
1265.62	1.04173
1267.22	0.571
1268.83	0.472204
1270.43	1.09794
1272.03	0.395562
1273.64	0.542141
1275.24	0.646129
1276.85	0.2517
1278.45	1.01667
1280.05	0.84854
1281.65	0.804371
1283.25	0.843082
1284.85	1.25456
1286.46	0.943182
1288.06	0.447104
1289.66	0.675483
1291.26	0.780401
1292.86	0.864561
1294.46	1.07185
1296.06	1.36023
1297.66	1.58461
1299.25	1.12598
1300.85	1.42901
1302.45	1.29752
1304.05	0.918176
1305.65	1.64894
1307.24	1.22747
1308.84	0.970637
1310.43	1.71854
1312.03	0.909354
1313.63	1.55473
1315.22	0.606175
1316.82	1.62035
1318.41	1.30747
1320.01	1.34152
1321.6	1.2523
1323.2	1.50745
1324.79	1.1299
1326.38	1.50277
1327.98	1.00218
1329.57	1.47532
1331.16	1.6255
1332.76	0.848465
1334.35	1.004
1335.94	1.32261
1337.53	1.27851
1339.12	1.21361
1340.71	1.28794
1342.3	1.90304
1343.89	1.1476
1345.48	1.21574
1347.07	1.28371
1348.66	0.552197
1350.25	1.5659
1351.84	1.02101
1353.43	0.758934
1355.01	0.798329
1356.6	0.898096
1358.19	1.0373
1359.77	0.416533
1361.36	0.753167
1362.95	1.80662
1364.53	0.705287
1366.12	0.482153
1367.71	0.658378
1369.29	1.01491
1370.88	1.19369
1372.46	0.737237
1374.04	0.361707
1375.63	0.40478
1377.21	1.24394
1378.8	1.12743
1380.38	0.711323
1381.96	0.274006
1383.54	0.591181
1385.13	0.986485
1386.71	0.308026
1388.29	0.543804
1389.87	1.41526
1391.45	1.19574
1393.03	0.64003
1394.61	1.1957
1396.19	0.680171
1397.77	0.75883
1399.35	0.915568
1400.93	0.595733
1402.51	0.513072
1404.09	1.20199
1405.67	1.5546
1407.24	0.998685
1408.82	0.365134
1410.4	0.779449
1411.98	1.66741
1413.55	1.13283
1415.13	1.20929
1416.71	0.594434
1418.28	1.28061
1419.86	1.90726
1421.43	0.703342
1423.01	0.919328
1424.58	0.999305
1426.16	1.10041
1427.73	1.02502
1429.31	1.14618
1430.88	1.18759
1432.45	0.853765
1434.02	1.3059
1435.6	0.872211
1437.17	1.20574
1438.74	1.85441
1440.31	2.01269
1441.88	1.54321
1443.45	2.07688
1445.03	1.86421
1446.6	2.30037
1448.17	2.18636
1449.74	2.36755
1451.3	2.09711
1452.87	2.02388
1454.44	1.71503
1456.01	2.19305
1457.58	1.98173
1459.15	1.7295
1460.72	2.34113
1462.28	1.92717
1463.85	1.39351
1465.42	1.5273
1466.98	1.38547
1468.55	1.49939
1470.12	1.8497
1471.68	0.925939
1473.25	1.45527
1474.81	1.43624
1476.38	1.53536
1477.94	0.497515
1479.51	1.14564
1481.07	0.617496
1482.63	0.873271
1484.2	0.795719
1485.76	0.678625
1487.32	1.03078
1488.88	0.970096
1490.45	-0.0905457
1492.01	1.11591
1493.57	1.10668
1495.13	0.529547
1496.69	0.790406
1498.25	0.330245
1499.81	0.0661612
1501.37	0.425072
1502.93	0.571175
1504.49	0.621137
1506.05	0.187364
1507.61	0.643372
1509.17	0.343847
1510.73	0.873438
1512.28	0.244388
1513.84	0.251624
1515.4	0.105227
1516.96	0.382174
1518.51	0.275785
1520.07	0.246925
1521.63	0.19924
1523.18	0.762973
1524.74	0.0835457
1526.29	0.358073
1527.85	0.954525
1529.4	0.597907
1530.96	0.565005
1532.51	0.191433
1534.06	0.747732
1535.62	0.755285
1537.17	0.34824
1538.72	0.395823
1540.28	0.236322
1541.83	0.793118
1543.38	0.332401
1544.93	0.925272
1546.48	0.446074
1548.03	0.305387
1549.59	0.483586
1551.14	0.586706
1552.69	0.484384
1554.24	0.981369
1555.79	0.153073
1557.34	0.279701
1558.88	0.930779
1560.43	0.968044
1561.98	0.447514
1563.53	0.749087
1565.08	0.920789
1566.62	0.700772
1568.17	0.648417
1569.72	0.800951
1571.27	0.934399
1572.81	1.03018
1574.36	1.01379
1575.9	1.07208
1577.45	1.1866
1579	0.648152
1580.54	1.26794
1582.09	0.899009
1583.63	0.400061
1585.17	0.742567
1586.72	0.711974
1588.26	1.13042
1589.8	0.632127
1591.35	0.99402
1592.89	0.831327
1594.43	0.518352
1595.97	1.04832
1597.52	1.01681
1599.06	0.892265
1600.6	1.06853
1602.14	2.03378
1603.68	1.70435
1605.22	1.6932
1606.76	1.41735
1608.3	1.00755
1609.84	1.21534
1611.38	0.988239
1612.92	0.984416
1614.46	1.69228
1615.99	1.59216
1617.53	1.02405
1619.07	1.30094
1620.61	1.5044
1622.14	0.60465
1623.68	1.07282
1625.22	1.07296
1626.75	1.07227
1628.29	1.63139
1629.82	0.636293
1631.36	1.24833
1632.9	1.14937
1634.43	0.826818
1635.96	1.25181
1637.5	1.37906
1639.03	1.26459
1640.57	1.46711
1642.1	1.78056
1643.63	1.36624
1645.16	1.47202
1646.7	1.61376
1648.23	1.55046
1649.76	1.59908
1651.29	1.14771
1652.82	1.25468
1654.36	1.14037
1655.89	1.3049
1657.42	1.58047
1658.95	1.57713
1660.48	1.22056
1662.01	1.45475
1663.53	1.24356
1665.06	1.25366
1666.59	1.35638
1668.12	1.93968
1669.65	1.98949
1671.18	0.861862
1672.7	1.67034
1674.23	1.42931
1675.76	0.709492
1677.29	1.01988
1678.81	1.18164
1680.34	0.919128
1681.86	1.26239
1683.39	0.851942
1684.91	0.588876
1686.44	1.2985
1687.96	0.688119
1689.49	0.921535
1691.01	0.624014
1692.54	0.619692
1694.06	0.560429
1695.58	0.482748
1697.11	0.404867
1698.63	0.691914
1700.15	0.248118
1701.67	0.0231628
1703.2	0.727365
1704.72	0.155119
1706.24	0.43845
1707.76	0.302838
1709.28	0.494287
1710.8	0.268083
1712.32	0.0787039
1713.84	0.886312
1715.36	0.769409
1716.88	0.634522
1718.4	0.535854
1719.91	0.563662
1721.43	-0.202304
1722.95	0.295585
1724.47	0.451538
1725.99	0.518734
1727.5	-0.546626
1729.02	0.351268
1730.54	0.456229
1732.05	0.433638
1733.57	-0.326921
1735.09	0.835119
1736.6	0.379761
1738.12	0.122674
1739.63	0.621908
1741.15	0.202598
1742.66	-0.0256701
1744.18	-0.141337
1745.69	0.173404
1747.2	-0.129123
1748.72	0.704226
1750.23	-0.0836849
1751.74	0.0577593
1753.25	-0.198209
1754.77	0.226008
1756.28	0.48455
1757.79	0.654328
1759.3	-0.214702
1760.81	-0.0421677
1762.32	-0.330131
1763.83	-0.0284891
1765.34	0.498549
1766.85	0.016593
1768.36	0.579639
1769.87	0.363826
1771.38	0.38212
1772.89	0.338606
1774.4	0.349934
1775.91	0.259213
1777.41	0.0219727
1778.92	0.0412312
1780.43	-0.333402
1781.94	0.379226
1783.44	-0.209977
1784.95	0.21442
1786.45	0.209992
1787.96	0.299461
1789.47	0.198535
1790.97	-0.115428
1792.47	-0.0279341
1793.98	0.226583
1795.48	0.144854
1796.99	0.255264
1798.49	-0.0740156
1800	0.259544
1801.5	0.349754
1803	0.0175638
1804.51	0.0357494
1806.01	-0.103971
1807.51	0.176384
1809.01	-0.15239
1810.51	-0.162089
1812.02	-0.200591
1813.52	-0.128521
1815.02	0.0759554
1816.52	0.443846
1818.02	0.248446
1819.52	0.469749
1821.02	0.304597
1822.52	-0.120575
1824.02	0.0599108
1825.51	0.060214
1827.01	0.13931
1828.51	-0.0679626
1830.01	-0.261619
1831.51	0.101649
1833	0.299519
1834.5	-0.133812
1836	0.157798
1837.49	0.27484
1838.99	0.347012
1840.49	0.324567
1841.98	0.232504
1843.48	0.343397
1844.97	0.216146
1846.47	0.183323
1847.96	0.239852
1849.46	-0.00278187
1850.95	-0.064312
1852.45	0.297396
1853.94	0.227767
1855.43	0.125628
1856.92	0.0226288
1858.42	-0.142442
1859.91	-0.163737
1861.4	-0.0429859
1862.89	-0.231464
1864.39	-0.178127
1865.88	0.0951853
1867.37	0.0747643
1868.86	-0.117415
1870.35	0.0112352
1871.84	0.158799
1873.33	0.305552
1874.82	0.35947
1876.31	0.167239
1877.8	-0.00706196
1879.29	-0.361659
1880.77	0.102272
1882.26	0.0180674
1882.52	-0.0261488
1884.02	-0.133895
1885.51	-0.0682173
1887.01	0.135725
1888.5	0.199583
1889.99	0.367999
1891.49	-0.00166321
1892.98	0.0480928
1894.47	0.0999956
1895.96	0.13636
1897.46	0.312881
1898.95	0.193631
1900.44	-0.0486393
1901.93	0.316038
1903.42	0.0697699
1904.91	-0.0563517
1906.4	0.390067
1907.89	0.297668
1909.38	-0.0195494
1910.87	0.237187
1912.36	0.113225
1913.85	0.215469
1915.34	0.300452
1916.83	0.402344
1918.32	0.347545
1919.8	-0.0889454
1921.29	0.548631
1922.78	0.21664
1924.27	0.526431
1925.75	-0.149196
1927.24	0.232488
1928.73	-0.112183
1930.21	0.218379
1931.7	-0.110019
1933.18	0.183273
1934.67	0.526248
1936.15	0.261342
1937.64	0.081748
1939.12	-0.115443
1940.61	0.20599
1942.09	-0.110461
1943.57	0.178383
1945.06	0.261116
1946.54	0.706278
1948.02	-0.62416
1949.51	-0.128448
1950.99	0.417302
1952.47	0.23861
1953.95	0.197021
1955.43	0.636526
1956.91	0.148637
1958.39	0.0397329
1959.87	-0.136795
1961.36	0.321919
1962.84	0.0606213
1964.32	0.467506
1965.79	0.11993
1967.27	-0.433491
1968.75	0.0734692
1970.23	-0.036274
1971.71	-0.299895
1973.19	-0.204764
1974.66	-0.0584965
1976.14	0.104823
1977.62	0.251097
1979.1	0.567521
1980.57	-0.137105
1982.05	-0.348033
1983.53	-0.10038
1985	0.0107403
1986.48	-0.302611
1987.95	0.45215
1989.43	-0.267105
1990.9	0.403094
1992.38	-0.0595579
1993.85	0.32473
1995.33	0.540709
1996.8	0.0137653
1998.27	0.26399
1999.75	0.564168
2001.22	-0.0310087
2002.69	-0.120217
2004.16	0.599676
2005.64	0.257744
2007.11	0.0517607
2008.58	0.453234
2010.05	0.603061
2011.52	0.433674
2012.99	-0.156377
2014.46	-0.0231209
2015.93	0.193291
2017.4	0.240306
2018.87	-0.0331192
2020.34	0.19714
2021.81	0.225466
2023.28	-0.0143995
2024.75	-0.0349903
2026.22	-0.322554
2027.69	0.347655
2029.15	-0.00349236
2030.62	0.0327063
2032.09	0.120431
2033.56	0.15843
2035.02	-0.072237
2036.49	-0.0179319
2037.95	0.0693941
2039.42	0.122684
2040.89	-0.143464
2042.35	-0.123439
2043.82	-0.0688839
2045.28	0.491601
2046.75	0.161246
2048.21	0.0499115
2049.67	0.106621
2051.14	-0.00642395
2052.6	0.0472937
2054.06	-0.00231552
2055.53	0.131514
2056.99	0.213066
2058.45	0.361007
2059.92	0.323343
2061.38	0.11785
2062.84	0.0649576
2064.3	-0.070859
2065.76	-0.0876617
2067.22	0.334092
2068.68	0.302189
2070.14	0.489497
2071.6	0.222376
2073.06	0.510663
2074.52	0.192483
2075.98	0.210662
2077.44	-0.175759
2078.9	0.447761
2080.36	0.38028
2081.82	0.32898
2083.27	0.260062
2084.73	0.291263
2086.19	-0.0485191
2087.65	0.451959
2089.1	0.430487
2090.56	0.375194
2092.01	0.0848303
2093.47	0.415504
2094.93	0.611355
2096.38	0.538211
2097.84	-0.17209
2099.29	0.00490665
2100.75	0.632768
2102.2	0.307464
2103.66	1.11913
2105.11	0.546235
2106.56	0.159084
2108.02	0.123695
2109.47	0.00535488
2110.92	-0.0802002
2112.37	0.0660725
2113.83	0.143597
2115.28	-0.296683
2116.73	-0.105515
2118.18	0.351437
2119.63	0.244931
2121.09	0.223781
2122.54	0.702477
2123.99	0.154647
2125.44	0.453343
2126.89	0.469831
2128.34	0.120449
2129.79	-0.114341
2131.23	0.577075
2132.68	0.223982
2134.13	0.251748
2135.58	0.247334
2137.03	0.740497
2138.48	0.442409
2139.92	0.0804873
2141.37	0.860956
2142.82	0.717291
2144.26	0.0945539
2145.71	0.381726
2147.16	0.47011
2148.6	0.342507
2150.05	0.694257
2151.49	0.498181
2152.94	0.6323
2154.38	0.516915
2155.83	0.467277
2157.27	0.59995
2158.72	0.55124
2160.16	0.553777
2161.6	0.740654
2163.05	0.548546
2164.49	0.623446
2165.93	0.732662
2167.38	0.542877
2168.82	0.468002
2170.26	0.124882
2171.7	0.694126
2173.14	0.645688
2174.58	1.1778
2176.03	0.677957
2177.47	0.893499
2178.91	0.577877
2180.35	0.928455
2181.79	0.581787
2183.23	0.618206
2184.67	0.255785
2186.1	0.592031
2187.54	1.14475
2188.98	0.665891
2190.42	0.78608
2191.86	0.706216
2193.3	0.259157
2194.73	0.926067
2196.17	0.392145
2197.61	0.0725813
2199.05	0.499641
2200.48	0.243693
2201.92	0.203775
2203.35	0.678969
2204.79	0.806671
2206.22	0.206258
2207.66	0.335915
2209.09	0.332784
2210.53	0.196344
2211.96	0.654373
2213.4	0.119149
2214.83	-0.167704
2216.27	0.289283
2217.7	0.285123
2219.13	0.4803
2220.56	0.412591
2222	0.888952
2223.43	0.540386
2224.86	0.174016
2226.29	0.530105
2227.72	0.669925
2229.16	0.561551
2230.59	0.0915499
2232.02	0.425284
2233.45	0.202074
2234.88	-0.0361319
2236.31	-0.0274878
2237.74	0.309464
2239.17	0.0282011
2240.6	0.353019
2242.03	0.0763855
2243.45	0.176356
2244.88	0.0157814
2246.31	0.245917
2247.74	0.245838
2249.17	0.129112
2250.59	0.303142
2252.02	0.393439
2253.45	0.563862
2254.87	-0.0617733
2256.3	0.289365
2257.73	0.0424786
2259.15	0.0748701
2260.58	0.0619917
2262	0.603837
2263.43	0.612209
2264.85	0.620965
2266.28	0.0439224
2267.7	0.311296
2269.13	0.122123
2270.55	0.143506
2271.97	0.148025
2273.4	0.380341
2274.82	0.661736
2276.24	0.19399
2277.66	1.14416
2279.09	0.252731
2280.51	0.600086
2281.93	0.458132
2283.35	0.430204
2284.77	0.288084
2286.19	-0.115017
2287.61	0.200506
2289.04	-0.152918
2290.46	0.0494184
2291.88	0.170517
2293.29	0.422701
2294.71	0.13515
2296.13	0.10915
2297.55	0.197691
2298.97	-0.0249004
2300.39	0.293402
2301.81	0.415561
2303.23	-0.052434
2304.64	0.020957
2306.06	0.406381
2307.48	0.216681
2308.89	0.469986
2310.31	0.541891
2311.73	0.218574
2313.14	0.0595522
2314.56	0.526369
2315.97	-0.0264969
2317.39	0.178887
2318.8	0.38503
2320.22	0.376701
2321.63	0.0865288
2323.05	0.35509
2324.46	0.109288
2325.88	0.487836
2327.29	0.418792
2328.7	0.43129
2330.12	0.18046
2331.53	0.540088
2332.94	0.571639
2334.35	0.373876
2335.76	0.242307
2337.18	-0.136432
2338.59	0.388147
2340	0.253596
2341.41	0.085207
2342.82	0.261047
2344.23	0.239814
2345.64	0.415606
2347.05	0.198426
2348.46	0.29256
2349.87	0.206167
2351.28	0.200694
2352.69	0.145046
2354.1	-0.335857
2355.5	0.112486
2356.91	0.52691
2358.32	0.143431
2359.73	-0.0766039
2361.14	0.158374
2362.54	0.0199385
2363.95	0.0274258
2365.36	-0.0945892
2366.76	-0.151489
2368.17	0.147613
2369.58	0.495783
2370.98	-0.154372
2372.39	-0.334947
2373.79	-0.272645
2375.2	-0.209947
2376.6	0.125775
2378	0.218671
2379.41	0.100706
2380.81	0.237786
2382.22	0.180449
2383.62	0.0260754
2385.02	0.495603
2386.42	0.269512
2387.83	0.0450125
2389.23	0.101398
2390.63	-0.0160542
2392.03	-0.625483
2393.43	0.26264
2394.84	0.18071
2396.24	0.22688
2397.64	0.337358
2399.04	0.0512466
2400.44	-0.281806
2401.84	0.0527258
2403.24	0.276036
2404.64	0.562337
2406.04	-0.0414867
2407.44	-0.138245
2408.83	0.224087
2410.23	-0.000847816
2411.63	0.281685
2413.03	-0.464437
2414.43	0.374612
2415.83	-0.0354786
2417.22	-0.127358
2418.62	-0.24986
2420.02	0.198165
2421.41	0.123486
2422.81	0.238478
2424.21	0.178868
2425.6	0.119317
2427	0.123755
2428.39	0.192636
2429.79	0.104113
2431.18	-0.0471354
2432.58	-0.579348
2433.97	-0.016778
2435.36	0.0841665
2436.76	0.358169
2438.15	0.677996
2439.54	0.106566
2440.94	-0.0845556
2442.33	0.263532
2443.72	0.325377
2445.11	-0.0888824
2446.51	-0.344434
2447.9	0.192447
2449.29	0.269457
2450.68	0.0775051
2452.07	-0.477699
2453.46	0.424055
2454.85	0.0924625
2456.24	0.315449
2457.63	-0.0781078
2459.02	0.113421
2460.41	0.146082
2461.8	0.130327
2463.19	-0.407947
2464.58	-0.109145
2465.97	-0.316302
2467.36	0.297443
2468.75	0.0427675
2470.13	0.166585
2471.52	0.494644
2472.91	0.0338354
2474.29	0.0134878
2475.68	0.417107
2477.07	-0.154845
2478.45	0.0435801
2479.84	0.116343
2481.22	-0.0616865
2482.61	0.340169
2484	0.161598
2485.38	-0.111553
2486.77	-0.135522
2488.15	0.0577354
2489.54	0.124946
2490.92	-0.337372
2492.3	0.461178
2493.69	0.0790939
2495.07	0.0096426
2496.45	0.143301
2497.84	0.355225
2499.22	-0.268645
2500.6	0.56189
2501.98	-0.248026
2503.36	0.131258
2504.74	-0.0311499
2506.13	-0.178546
2507.51	0.335887
2508.89	0.326618
2510.27	0.0414562
2511.65	0.0951567
2513.03	-0.294838
2514.41	0.174529
2515.79	-0.0751266
2517.17	0.196543
2518.55	0.0251856
2519.93	-0.0846643
2521.3	-0.209983
2522.68	-0.137497
2524.06	-0.0965939
2525.44	0.0196104
2526.82	0.363712
2528.19	-0.205193
2529.57	0.261974
2530.95	0.152984
2532.32	0.137264
2533.7	0.0927982
2535.08	-0.391387
2536.45	0.0207472
2537.83	0.295322
2539.2	-0.0844088
2540.58	-0.130898
2541.95	0.338245
2543.33	0.382572
2544.7	0.27622
2546.08	0.580928
2547.45	0.128714
2548.82	0.663565
2550.2	0.424805
2551.57	0.109508
2552.94	0.521542
2554.32	-0.145159
2555.69	-0.418241
2557.06	0.385067
2558.43	0.0656891
2559.8	-0.329002
2561.17	-0.222749
2562.55	-0.206719
2563.92	-0.462784
2565.29	0.190886
2566.66	0.43571
2568.03	-0.274116
2569.4	-0.135262
2570.77	-0.254065
2572.14	0.187998
2573.51	0.0390272
2574.88	0.2843
2576.24	0.165787
2577.61	0.350407
2578.98	0.0950489
2580.35	0.385132
2581.72	0.295635
2583.09	0.236021
2584.45	0.236762
2585.82	0.404181
2587.19	-0.277064
2588.55	0.0119743
2589.92	0.63451
2591.28	0.135446
2592.65	-0.333773
2594.02	0.120296
2595.38	0.254878
2596.75	0.100513
2598.11	0.520208
2599.48	0.349306
2600.84	-0.183904
2602.2	0.250588
2603.57	0.277891
2604.93	-0.177012
2606.3	0.0625257
2607.66	0.105479
2609.02	0.162461
2610.38	0.17274
2611.75	0.377049
2613.11	-0.097043
2614.47	0.164896
2615.83	-0.0692081
2617.19	-0.16766
2618.56	0.303891
2619.92	0.251821
2621.28	0.290441
2622.64	0.269873
2624	-0.347668
2625.36	0.169642
2626.72	-0.178947
2628.08	-0.229414
2629.44	0.270752
2630.8	0.546721
2632.15	0.197742
2633.51	0.29488
2634.87	-0.127645
2636.23	0.177142
2637.59	0.170242
2638.94	0.17821
2640.3	-0.316654
2641.66	-0.381747
2643.02	0.410404
2644.37	0.0649204
2645.73	-0.265425
2647.08	0.229764
2648.44	0.42875
2649.8	0.479219
2651.15	0.220014
2652.51	0.210609
2653.86	-0.0185757
2655.22	-0.0412378
2656.57	0.303585
2657.92	0.137047
2659.28	0.161962
2660.63	-0.0904646
2661.99	0.24176
2663.34	0.412243
2664.69	-0.148296
2666.04	-0.125522
2667.4	-0.00133514
2668.75	0.297273
2670.1	0.115582
2671.45	0.283747
2672.81	-0.0561008
2674.16	0.0698996
2675.51	0.210975
2676.86	0.20752
2678.21	0.335402
2679.56	-0.0142698
2680.91	0.420324
2682.26	0.290913
2683.61	0.539954
2684.96	0.0795622
2686.31	0.112785
2687.66	0.102299
2689	0.162992
2690.35	0.134573
2691.7	0.365223
2693.05	0.390743
2694.4	0.299036
2695.74	0.352123
2697.09	0.507307
2698.44	0.0847282
2699.79	0.214552
2701.13	0.013422
2702.48	0.320968
2703.82	0.093853
2705.17	0.664536
2706.52	0.133488
2707.86	0.240113
2709.21	0.331833
2710.55	0.481245
2711.9	0.209149
2713.24	0.0965567
2714.58	0.405354
2715.93	0.597935
2717.27	0.237782
2718.61	0.00805759
2719.96	0.534445
2721.3	0.129056
2722.64	0.348839
2723.99	0.364298
2725.33	0.102673
2726.67	0.117149
2728.01	0.0584774
2729.35	0.494308
2730.7	0.682498
2732.04	0.841508
2733.38	0.564181
2734.72	0.141679
2736.06	0.373995
2737.4	0.170135
2738.74	0.242591
2740.08	0.0820713
2741.42	0.0809631
2742.76	-0.0808153
2744.09	0.439711
2745.43	0.102
2746.77	0.21421
2748.11	0.20997
2749.45	0.220302
2750.79	0.0713253
2752.12	0.241724
2753.46	0.310837
2754.8	-0.0835037
2756.13	-0.042922
2757.47	0.49013
2758.81	-0.207232
2760.14	-0.0643911
2761.48	0.455219
2762.81	0.165002
2764.15	-0.153729
2765.49	-0.313291
2766.82	0.163201
2768.15	0.218987
2769.49	-0.348541
2770.82	-0.16578
2772.16	0.101813
2773.49	0.367755
2774.82	0.401904
2776.16	0.19107
2777.49	0.240096
2778.82	0.304097
2780.16	0.0525007
2781.49	-0.184004
2782.82	-0.420081
2784.15	0.075511
2785.48	-0.0315256
2786.81	0.0766411
2788.15	0.228227
2789.48	-0.034318
2790.81	0.0476933
2792.14	-0.269756
2793.47	0.0281782
2794.8	0.297452
2796.13	0.12326
2797.46	0.0913496
2798.79	0.330068
2800.12	-0.231154
2801.44	-0.292898
2802.77	-0.169451
2804.1	0.124575
2805.43	0.232596
2806.76	-0.0445433
2808.08	0.0192919
2809.41	-0.0311623
2810.74	0.103103
2812.07	0.0676107
2813.39	0.0477123
2814.72	0.228063
2816.05	-0.0151653
2817.37	0.154055
2818.7	-0.0587091
2820.02	0.21045
2821.35	0.209779
2822.67	0.0807629
2824	0.531934
2825.32	0.132601
2826.65	0.399091
2827.97	0.283828
2829.29	0.367486
2830.62	-0.0295925
2831.94	0.2814
2833.26	-0.0163565
2834.59	0.718789
2835.91	0.589905
2837.23	0.828293
2838.55	0.387039
2839.88	0.638722
2841.2	1.20144
2842.52	1.41105
2843.84	1.76276
2845.16	1.70552
2846.48	1.46537
2847.8	1.83339
2849.12	2.11669
2850.44	2.25829
2851.76	2.11657
2853.08	2.38406
2854.4	2.50969
2855.72	2.02751
2857.04	2.26591
2858.36	2.29246
2859.68	2.4602
2861	2.40176
2862.32	2.58294
2863.63	2.56598
2864.95	2.81678
2866.27	3.40598
2867.58	3.05034
2868.9	3.48503
2870.22	3.42671
2871.53	3.90426
2872.85	3.40886
2874.17	3.9272
2875.48	4.03537
2876.8	3.8041
2878.11	4.09265
2879.43	4.21174
2880.74	3.95162
2882.06	4.00192
2883.37	4.32042
2884.69	4.55579
2886	3.96364
2887.31	4.21395
2888.63	4.28116
2889.94	4.01065
2891.25	4.41228
2892.57	4.1961
2893.88	4.09198
2895.19	4.56253
2896.5	4.38992
2897.82	4.55465
2899.13	4.20302
2900.44	5.01365
2901.75	4.74767
2903.06	4.70582
2904.37	4.98587
2905.68	5.19635
2906.99	5.93911
2908.3	4.72465
2909.61	5.02203
2910.92	5.34826
2912.23	5.54865
2913.54	5.83213
2914.85	5.9738
2916.16	5.72122
2917.46	6.13846
2918.77	5.78465
2920.08	6.36793
2921.39	6.28062
2922.7	6.32081
2924	6.47466
2925.31	6.5182
2926.62	6.63248
2927.92	6.98449
2929.23	6.53917
2930.53	6.58243
2931.84	6.72294
2933.15	6.7373
2934.45	6.7097
2935.76	6.87793
2937.06	6.17994
2938.37	6.4884
2939.67	6.41993
2940.98	6.29624
2942.28	6.10379
2943.58	5.66127
2944.89	6.04512
2946.19	5.71749
2947.49	5.69821
2948.8	5.13275
2950.1	5.36356
2951.4	5.38221
2952.7	4.36227
2954.01	4.58688
2955.31	4.54499
2956.61	4.5182
2957.91	4.26995
2959.21	4.43094
2960.51	4.39936
2961.81	4.14599
2963.11	4.35619
2964.41	4.14484
2965.71	3.86127
2967.01	3.92678
2968.31	3.82201
2969.61	3.56159
2970.91	3.82133
2972.21	3.74392
2973.51	3.37139
2974.81	2.99866
2976.1	3.04741
2977.4	3.15099
2978.7	3.11172
2980	2.57767
2981.29	2.9148
2982.59	2.54773
2983.89	2.35009
2985.18	2.36473
2986.48	2.31093
2987.78	2.4978
2989.07	2.08165
2990.37	2.08742
2991.66	1.67099
2992.96	1.91388
2994.25	1.59316
2995.55	1.27129
2996.84	1.48232
2998.14	1.44032
2999.43	1.23034
3000.72	0.909006
3002.02	0.742798
3003.31	0.927509
3004.6	0.635977
3005.9	0.554397
3007.19	0.808149
3008.48	0.962751
3009.77	0.598772
3011.07	0.443998
3012.36	0.624043
3013.65	0.231851
3014.94	0.342594
3016.23	0.412227
3017.52	0.357382
3018.81	-0.100289
3020.1	0.0128422
3021.39	0.292149
3022.68	-0.0409889
3023.97	0.166492
3025.26	-0.167952
3026.55	-0.0310783
3027.84	-0.0737829
3029.13	0.0784521
3030.42	0.0940676
3031.71	0.346206
3033	-0.118443
3034.28	0.149064
3035.57	0.0157242
3036.86	0.184346
3038.15	-0.227931
3039.43	-0.0635738
3040.72	-0.451152
3042.01	-0.0426388
3043.29	0.0220451
3044.58	-0.117732
3045.86	0.15493
3047.15	0.252075
3048.44	0.0652142
3049.72	-0.228127
3051.01	0.149185
3052.29	0.254512
3053.58	0.496343
3054.86	0.109817
3056.14	0.540558
3057.43	0.247191
3058.71	0.252942
3060	0.272003
3061.28	0.128219
3062.56	0.352988
3063.84	0.348112
3065.13	0.249959
3066.41	0.221495
3067.69	-0.349612
3068.97	0.208318
3070.25	0.208501
3071.54	0.19412
3072.82	0.137547
3074.1	0.283493
3075.38	0.251593
3076.66	0.287262
3077.94	0.364136
3079.22	-0.0190392
3080.5	-0.359518
3081.78	0.0750904
3083.06	0.158505
3084.34	-0.164257
3085.62	0.435847
3086.9	0.166944
3088.17	0.0193748
3089.45	-0.0339479
3090.73	0.00724792
3092.01	0.0889978
3093.29	0.0759907
3094.56	0.0498247
3095.84	0.322325
3097.12	0.0390816
3098.4	-0.203399
3099.67	0.163857
3100.95	0.28702
3102.22	0.0446072
3103.5	-0.0483751
3104.77	0.0217543
3106.05	-0.380903
3107.33	-0.0516415
3108.6	-0.140679
3109.88	0.0963974
3111.15	0.388944
3112.43	0.357576
3113.7	0.353833
3114.97	0.350125
3116.25	0.0746861
3117.52	0.0287504
3118.79	0.524131
3120.07	0.24518
3121.34	0.42627
3122.61	0.416846
3123.88	0.380163
3125.16	0.492713
3126.43	0.456863
3127.7	0.651782
3128.97	0.400946
3130.24	0.475237
3131.51	0.522645
3132.78	0.218575
3134.05	0.0629721
3135.33	0.298489
3136.59	0.789454
3137.86	0.969139
3139.14	0.339903
3140.41	0.397991
3141.67	0.536792
3142.94	0.272702
3144.21	0.26476
3145.48	0.794179
3146.75	0.345132
3148.02	0.513777
3149.28	0.602621
