200.388	0.646997
202.204	0.661842
204.019	0.678043
205.832	0.841909
207.646	0.69035
209.459	0.587133
211.274	-0.221586
213.087	0.255526
214.899	0.803448
216.711	-0.05583
218.524	0.539665
220.335	0.0704803
222.146	0.450068
223.956	-0.402227
225.766	0.366507
227.576	-0.338587
229.388	-0.0774651
231.197	-0.203316
233.005	0.273815
234.813	-0.165104
236.621	0.266031
238.429	0.242205
240.236	0.607868
242.045	0.470953
243.852	1.03573
245.658	0.611752
247.464	1.29605
249.269	1.30075
251.074	0.962885
252.879	1.44178
254.683	1.24222
256.487	1.54862
258.291	0.819852
260.094	1.66023
261.897	1.1063
263.702	1.37427
265.504	0.704467
267.306	0.468946
269.108	-0.224931
270.909	0.815842
272.71	0.14343
274.511	-0.000442505
276.311	1.29988
278.111	0.211213
279.91	0.445395
281.709	0.459813
283.508	0.856365
285.306	0.673514
287.105	-0.0620975
288.9	-0.00491047
290.698	-0.138332
292.495	0.448494
294.291	-0.637554
296.088	0.00121689
297.884	0.545529
299.679	0.134687
301.475	0.488316
303.27	0.291471
305.064	0.498818
306.858	-0.249415
308.652	0.576213
310.444	0.0198936
312.237	-0.272168
314.03	-0.180685
315.822	-0.134148
317.615	0.200829
319.406	0.0141973
321.198	0.663395
322.987	0.384461
324.778	0.463917
326.568	-0.936604
328.358	0.0261383
330.148	0.032979
331.935	0.109962
333.724	0.0889864
335.513	0.854718
337.301	-0.512489
339.089	-0.47071
340.875	0.358062
342.662	-0.201448
344.449	-0.426031
346.236	0.592289
348.02	0.345468
349.806	0.0996056
351.592	0.211997
353.375	0.15657
355.16	-0.2342
356.944	-0.936433
358.728	-0.209903
360.51	1.01423
362.294	0.617087
364.077	0.0292301
365.858	0.344129
367.64	0.823514
369.422	-0.382838
371.202	0.378109
372.983	0.828801
374.764	0.994314
376.543	0.899879
378.324	1.23091
380.102	1.6098
381.881	2.24881
383.661	1.31304
385.438	1.53242
387.216	2.12955
388.993	2.07036
390.771	1.77802
392.548	1.15834
394.324	0.891971
396.101	1.87092
397.875	1.48797
399.651	0.705485
401.425	0.979273
403.201	0.430094
404.974	0.654917
406.749	1.25433
408.524	1.5474
410.296	1.6051
412.07	0.348609
413.841	1.18151
415.614	0.607537
417.385	1.16105
419.156	1.10551
420.928	0.90959
422.698	1.27664
424.469	0.938498
426.238	0.434603
428.009	0.774627
429.777	0.245353
431.548	-0.0257034
433.315	-0.0850964
435.083	0.70089
436.852	0.125648
438.618	0.699438
440.387	1.08331
442.153	0.478787
443.919	0.270203
445.686	-0.0813732
447.451	-0.106471
449.218	0.288671
450.982	0.0523825
452.746	0.0503855
454.512	-0.557752
456.275	-0.628885
458.038	0.999975
459.803	0.462162
461.565	0.739984
463.327	-0.328346
465.091	-0.0913725
466.852	0.451575
468.613	0.347836
470.374	0.339829
472.136	-0.0162334
473.896	0.76712
475.655	0.500533
477.415	0.836273
479.176	0.563579
480.934	0.149606
482.692	0.2715
484.45	0.464856
486.21	0.195115
487.967	0.0214472
489.724	0.200323
491.481	0.521026
493.237	0.726446
494.995	0.909193
496.75	1.16235
498.506	1.46241
500.26	0.824278
502.015	0.770831
503.769	-0.0356245
505.525	0.847418
507.279	0.741789
509.032	0.586747
510.785	1.32338
512.537	1.30479
514.289	0.154467
516.041	1.11972
517.793	1.21249
519.546	0.833478
521.297	1.27602
523.047	1.24766
524.797	1.38327
526.547	1.07296
528.297	1.20848
530.046	0.92187
531.795	0.845769
533.543	1.18991
535.291	0.993839
537.039	1.09979
538.787	1.13337
540.534	1.3283
542.281	0.846001
544.027	1.29484
545.773	0.882729
547.519	1.02887
549.264	0.479532
551.01	0.649604
552.754	0.380053
554.499	0.619684
556.243	0.766849
557.987	0.868142
559.73	0.670444
561.474	0.174634
563.216	0.715525
564.959	0.176126
566.701	0.695004
568.441	0.479759
570.182	0.748125
571.923	0.0776739
573.664	0.510849
575.405	-0.452834
577.145	0.260524
578.885	0.149836
580.624	0.683236
582.361	0.11436
584.1	0.601722
585.839	-0.268875
587.577	0.537532
589.315	-0.106982
591.052	-0.33881
592.787	0.0497885
594.524	-0.0450497
596.26	-0.0248251
597.997	0.202403
599.732	-0.353086
601.466	0.194551
603.201	0.257248
604.936	0.0419426
606.67	-0.0601597
608.403	0.181129
610.136	0.192343
611.87	-0.185797
613.603	0.767304
615.334	0.322548
617.067	0.840645
618.799	0.876688
620.529	0.819565
622.26	0.394622
623.991	0.060379
625.72	0.0234995
627.451	0.444639
629.181	0.617072
630.909	0.131093
632.638	0.948752
634.368	0.969439
636.095	-0.128782
637.823	0.459733
639.551	0.838868
641.277	1.05366
643.005	1.19605
644.73	0.516521
646.457	0.111502
648.184	0.277935
649.908	0.312197
651.634	0.215486
653.357	0.692488
655.083	0.833694
656.806	0.158872
658.53	0.259083
660.253	0.541515
661.977	0.251373
663.7	1.07732
665.422	0.163032
667.145	0.388773
668.865	0.544799
670.588	0.86183
672.308	0.88434
674.027	0.773026
675.749	0.458415
677.468	0.649797
679.188	0.359557
680.907	0.917974
682.627	0.531505
684.345	0.187504
686.064	0.462088
687.781	0.0666075
689.498	-0.00805569
691.216	0.330855
692.932	1.0835
694.65	0.84454
696.366	0.420007
698.081	0.500447
699.797	0.210841
701.512	0.770826
703.228	0.409382
704.942	0.483787
706.655	0.350757
708.371	0.400762
710.083	0.312659
711.796	1.25439
713.51	0.638575
715.222	0.869117
716.934	0.688164
718.645	0.188263
720.358	-0.0826406
722.068	0.603589
723.779	0.856406
725.49	1.67693
727.2	0.451385
728.909	0.884017
730.618	1.17914
732.329	1.58633
734.037	0.521728
735.745	1.19973
737.453	0.61234
739.16	1.04218
740.869	0.706191
742.576	1.67893
744.282	1.05396
745.988	0.926718
747.694	1.094
749.401	1.12813
751.107	0.466865
752.811	0.392182
754.516	0.746794
756.22	1.23867
757.924	1.44044
759.627	1.5319
761.332	1.10662
763.035	0.613804
764.738	0.932793
766.44	1.02477
768.142	1.09171
769.843	0.816487
771.544	1.69161
773.245	1.86366
774.946	1.15309
776.646	1.43813
778.346	1.61191
780.046	1.62961
781.745	0.766664
783.444	1.96286
785.143	1.80001
786.841	2.04127
788.539	1.32736
790.237	1.71772
791.934	1.38033
793.631	0.792757
795.328	1.80748
797.024	1.13116
798.72	1.35905
800.416	1.79176
802.112	1.73115
803.807	1.5142
805.502	1.63446
807.196	1.14679
808.89	1.35417
810.584	1.46985
812.278	1.69614
813.971	1.04737
815.664	1.47389
817.354	1.74305
819.047	1.58718
820.739	1.61044
822.43	1.61186
824.122	1.45829
825.813	1.75254
827.503	1.73765
829.192	2.14981
830.882	1.51958
832.571	1.51696
834.261	1.74031
835.95	1.05097
837.637	1.90052
839.325	1.49897
841.013	1.65327
842.701	1.35887
844.389	1.35408
846.074	1.3278
847.761	1.57223
849.447	1.30577
851.131	1.6918
852.817	1.4762
854.503	0.925011
856.188	1.11371
857.871	1.07647
859.556	2.25196
861.24	1.44503
862.922	0.860092
864.606	1.37712
866.289	0.833614
867.97	1.16832
869.653	1.32208
871.336	0.325017
873.016	0.906608
874.698	0.969276
876.379	1.03197
878.058	1.29785
879.739	1.08962
881.418	0.609958
883.098	0.941988
884.778	0.324398
886.456	0.833583
888.135	0.708577
889.812	1.28056
891.49	0.790514
893.167	0.524481
894.845	1.04476
896.523	1.04553
898.198	1.17964
899.875	1.1326
901.55	0.569217
903.226	2.1546
904.901	0.65154
906.576	1.25071
908.25	1.73785
909.925	2.22513
911.598	1.4002
913.271	0.444596
914.945	0.579329
916.617	0.935756
918.291	1.38005
919.962	0.783002
921.635	0.519602
923.306	0.987657
924.978	1.05968
926.648	1.28882
928.318	0.151784
929.989	1.00313
931.659	1.01677
933.328	0.677855
934.998	1.86123
936.666	1.2585
938.336	0.7894
940.004	0.410205
941.671	0.517928
943.34	1.20047
945.007	0.867944
946.673	0.577898
948.339	1.41106
950.007	1.11568
951.672	0.355327
953.337	1.3378
955.004	1.19735
956.669	1.10497
958.333	0.112814
959.997	0.381719
961.662	0.145207
963.326	0.880885
964.989	1.01806
966.651	1.06305
968.315	1.23675
969.977	0.80996
971.639	0.205022
973.301	0.64026
974.962	0.812036
976.624	1.40662
978.285	0.919742
979.945	1.00897
981.605	1.09775
983.264	0.719787
984.924	0.981011
986.583	1.26129
988.243	1.18472
989.901	1.41592
991.56	0.695536
993.217	0.505809
994.875	1.59675
996.532	1.31877
998.188	1.28363
999.845	1.99744
1001.5	2.37943
1003.16	2.29809
1004.81	1.07277
1006.47	2.00262
1008.12	1.06472
1009.78	0.764987
1011.43	0.356656
1013.09	1.30833
1014.74	0.331919
1016.39	1.43691
1018.05	0.375311
1019.7	0.628116
1021.35	0.860359
1023	1.02851
1024.65	1.39474
1026.31	0.996964
1027.96	1.73554
1029.61	1.337
1031.26	2.02884
1032.91	2.41208
1034.56	1.89773
1036.21	1.83972
1037.86	2.02011
1039.51	1.61228
1041.16	1.01029
1042.8	2.12831
1044.45	1.59656
1046.1	1.19853
1047.75	2.7581
1049.39	1.77924
1051.04	1.75793
1052.69	1.65102
1054.33	1.13181
1055.98	1.1123
1057.62	0.483683
1059.27	0.658624
1060.91	0.0716457
1062.56	0.266336
1064.2	0.351009
1065.85	0.890714
1067.49	0.559231
1069.13	0.117916
1070.77	0.414363
1072.42	0.102534
1074.06	0.529354
1075.7	0.241529
1077.34	1.10513
1078.98	0.517493
1080.62	0.624983
1082.27	-0.156533
1083.91	0.491905
1085.55	0.725982
1087.18	0.415264
1088.82	0.188493
1090.46	0.110987
1092.1	0.421017
1093.74	0.40573
1095.38	0.800648
1097.02	0.743317
1098.65	0.515738
1100.29	0.592395
1101.93	0.456573
1103.56	0.452533
1105.2	0.859126
1106.84	0.0406055
1108.47	1.11435
1110.11	-0.1574
1111.74	0.0524244
1113.38	0.539022
1115.01	0.443585
1116.64	0.626234
1118.28	1.02314
1119.91	0.43498
1121.54	-0.0439739
1123.18	0.0997448
1124.81	0.694076
1126.44	0.198467
1128.07	0.645161
1129.7	0.943079
1131.33	0.66457
1132.97	0.493462
1134.6	0.557364
1136.23	0.492126
1137.86	-0.0873966
1139.49	0.54924
1141.11	0.543366
1142.74	-0.210147
1144.37	-0.19494
1146	0.226254
1147.63	0.286198
1149.26	0.347379
1150.88	0.494481
1152.51	0.343427
1154.14	0.106814
1155.76	0.380552
1157.39	0.419874
1159.01	0.0980864
1160.64	0.458137
1162.27	0.479497
1163.89	-0.00792599
1165.51	0.10076
1167.14	0.315452
1168.76	0.294781
1170.39	-0.110862
1172.01	-0.433971
1173.63	-0.143499
1175.25	-0.131009
1176.88	0.0714703
1178.5	0.485703
1180.12	0.244121
1181.74	-0.0381603
1183.36	-0.2134
1184.98	0.837211
1186.6	-0.0152493
1188.22	0.228405
1189.84	0.510926
1191.46	0.43211
1193.08	0.393289
1194.7	0.64726
1196.32	-0.168792
1197.94	0.505283
1199.55	0.280872
1201.17	0.812536
1202.79	1.76491
1204.41	0.633305
1206.02	0.736753
1207.64	0.75875
1209.25	0.718657
1210.87	0.531463
1212.48	0.717215
1214.1	0.524457
1215.71	1.0366
1217.33	0.359364
1218.94	1.46908
1220.56	0.458785
1222.17	0.758052
1223.79	0.31264
1225.4	0.263518
1227.01	0.9616
1228.62	0.337311
1230.23	1.16269
1231.85	1.78267
1233.46	2.05295
1235.07	1.62246
1236.68	1.83457
1238.29	1.42816
1239.9	1.84976
1241.51	2.18918
1243.12	2.13518
1244.73	1.39716
1246.34	1.15407
1247.94	1.57162
1249.55	0.787897
1251.16	2.07261
1252.77	1.22676
1254.37	2.14021
1255.98	1.91769
1257.59	0.579921
1259.2	1.74711
1260.8	2.06769
1262.41	1.18823
1264.01	1.09537
1265.62	1.72716
1267.22	1.23892
1268.83	1.03931
1270.43	1.43941
1272.03	1.56843
1273.64	0.88732
1275.24	1.01335
1276.85	1.75961
1278.45	2.11055
1280.05	1.25927
1281.65	1.40171
1283.25	1.04764
1284.85	1.66657
1286.46	1.58352
1288.06	1.87411
1289.66	1.36006
1291.26	0.991575
1292.86	1.88343
1294.46	2.31947
1296.06	1.30768
1297.66	1.63607
1299.25	1.36329
1300.85	1.27416
1302.45	1.90428
1304.05	2.40831
1305.65	2.10839
1307.24	1.99311
1308.84	1.73398
1310.43	2.09021
1312.03	1.95489
1313.63	2.25047
1315.22	1.87272
1316.82	2.04834
1318.41	1.67372
1320.01	1.60535
1321.6	1.18949
1323.2	2.03386
1324.79	2.73149
1326.38	1.67925
1327.98	1.62228
1329.57	1.52567
1331.16	2.17994
1332.76	2.20987
1334.35	1.476
1335.94	2.11777
1337.53	2.31605
1339.12	1.848
1340.71	2.14348
1342.3	2.41507
1343.89	2.24071
1345.48	1.7839
1347.07	2.09018
1348.66	1.83748
1350.25	1.98926
1351.84	1.68475
1353.43	2.0035
1355.01	1.60457
1356.6	1.20648
1358.19	1.4073
1359.77	1.12733
1361.36	1.64438
1362.95	2.11968
1364.53	1.75653
1366.12	1.2945
1367.71	1.09301
1369.29	1.68972
1370.88	1.07422
1372.46	1.83399
1374.04	1.34183
1375.63	1.54714
1377.21	0.419415
1378.8	1.61915
1380.38	1.46425
1381.96	1.64561
1383.54	1.46692
1385.13	1.48559
1386.71	1.44389
1388.29	1.56129
1389.87	1.32227
1391.45	1.36255
1393.03	1.40403
1394.61	1.42626
1396.19	0.754223
1397.77	1.72685
1399.35	1.78576
1400.93	0.27849
1402.51	1.32541
1404.09	0.452081
1405.67	1.18204
1407.24	1.65563
1408.82	1.51765
1410.4	0.452204
1411.98	1.04608
1413.55	1.24392
1415.13	1.87434
1416.71	0.649049
1418.28	1.59255
1419.86	1.0186
1421.43	1.1359
1423.01	1.82627
1424.58	1.37731
1426.16	1.91444
1427.73	1.40928
1429.31	1.33675
1430.88	1.65655
1432.45	2.58454
1434.02	1.16944
1435.6	2.97983
1437.17	3.19684
1438.74	2.74658
1440.31	2.8877
1441.88	2.6766
1443.45	2.91864
1445.03	3.08273
1446.6	3.20782
1448.17	3.17589
1449.74	3.08543
1451.3	2.68106
1452.87	2.98539
1454.44	3.03476
1456.01	2.67092
1457.58	3.66383
1459.15	3.00173
1460.72	3.065
1462.28	2.92848
1463.85	2.84835
1465.42	2.74684
1466.98	2.05547
1468.55	1.79729
1470.12	1.85466
1471.68	1.3644
1473.25	1.71936
1474.81	2.29107
1476.38	1.92215
1477.94	1.45546
1479.51	2.26293
1481.07	1.95285
1482.63	1.77989
1484.2	1.45001
1485.76	1.10014
1487.32	1.78732
1488.88	2.27628
1490.45	1.3335
1492.01	1.69863
1493.57	1.9816
1495.13	2.08549
1496.69	1.79763
1498.25	1.74357
1499.81	2.1569
1501.37	1.36729
1502.93	2.24903
1504.49	0.902316
1506.05	1.1652
1507.61	1.9102
1509.17	1.02926
1510.73	1.15196
1512.28	0.945381
1513.84	0.873432
1515.4	1.22477
1516.96	0.692952
1518.51	1.31411
1520.07	0.785465
1521.63	0.851479
1523.18	0.687517
1524.74	0.770974
1526.29	1.00529
1527.85	0.761516
1529.4	0.726731
1530.96	1.79323
1532.51	1.47331
1534.06	0.606381
1535.62	0.632071
1537.17	0.205625
1538.72	0.366182
1540.28	0.922976
1541.83	0.951356
1543.38	0.64075
1544.93	1.02613
1546.48	1.07231
1548.03	1.19316
1549.59	1.08877
1551.14	1.45296
1552.69	1.01276
1554.24	0.948541
1555.79	0.643611
1557.34	0.901554
1558.88	0.956836
1560.43	0.492516
1561.98	1.37372
1563.53	0.857453
1565.08	0.584489
1566.62	1.35665
1568.17	1.27013
1569.72	0.64173
1571.27	1.48733
1572.81	0.484502
1574.36	0.881462
1575.9	0.942424
1577.45	1.153
1579	0.97213
1580.54	1.27755
1582.09	0.687744
1583.63	1.05157
1585.17	1.41671
1586.72	1.44633
1588.26	1.38267
1589.8	1.78645
1591.35	0.935752
1592.89	1.76898
1594.43	1.60954
1595.97	1.71234
1597.52	1.89075
1599.06	1.50777
1600.6	2.41983
1602.14	1.55054
1603.68	2.44547
1605.22	2.0252
1606.76	1.7153
1608.3	2.1542
1609.84	1.68748
1611.38	2.00658
1612.92	1.55241
1614.46	1.99762
1615.99	2.59158
1617.53	1.236
1619.07	1.79456
1620.61	1.4559
1622.14	1.19435
1623.68	1.68298
1625.22	1.27305
1626.75	1.38621
1628.29	1.83419
1629.82	1.9431
1631.36	1.54563
1632.9	1.72698
1634.43	1.92718
1635.96	1.90443
1637.5	1.32359
1639.03	2.19831
1640.57	1.78654
1642.1	2.54786
1643.63	2.22681
1645.16	2.48111
1646.7	1.87822
1648.23	2.29765
1649.76	2.43847
1651.29	2.45067
1652.82	2.11235
1654.36	2.36934
1655.89	1.86723
1657.42	2.5327
1658.95	2.4927
1660.48	2.67288
1662.01	2.62855
1663.53	2.80426
1665.06	2.94177
1666.59	3.098
1668.12	2.44421
1669.65	2.64141
1671.18	2.10374
1672.7	1.84444
1674.23	2.17531
1675.76	2.04543
1677.29	1.804
1678.81	1.92905
1680.34	1.7214
1681.86	1.64143
1683.39	1.23049
1684.91	1.389
1686.44	1.32773
1687.96	1.12054
1689.49	1.42707
1691.01	1.0562
1692.54	0.777299
1694.06	0.352251
1695.58	0.84148
1697.11	1.25672
1698.63	1.37878
1700.15	1.06203
1701.67	0.963745
1703.2	0.992311
1704.72	0.874303
1706.24	0.737576
1707.76	0.855154
1709.28	0.40928
1710.8	0.182053
1712.32	0.100488
1713.84	1.05201
1715.36	0.408966
1716.88	0.472308
1718.4	-0.259876
1719.91	0.453682
1721.43	-0.0606794
1722.95	0.0575552
1724.47	-0.14732
1725.99	0.316098
1727.5	0.618987
1729.02	0.16732
1730.54	0.739669
1732.05	0.237013
1733.57	0.288144
1735.09	0.576257
1736.6	0.704716
1738.12	-0.249585
1739.63	0.126216
1741.15	0.283631
1742.66	0.42515
1744.18	0.220355
1745.69	-0.2538
1747.2	0.474614
1748.72	0.0539951
1750.23	0.262001
1751.74	0.230369
1753.25	-0.227393
1754.77	0.165325
1756.28	0.0674286
1757.79	0.154305
1759.3	0.373549
1760.81	0.348553
1762.32	0.296892
1763.83	0.809711
1765.34	0.678424
1766.85	-0.490321
1768.36	0.527618
1769.87	0.534267
1771.38	-0.157088
1772.89	-0.200237
1774.4	-0.22553
1775.91	-0.24962
1777.41	0.163434
1778.92	0.0118217
1780.43	0.118672
1781.94	0.0272732
1783.44	0.474459
1784.95	-0.195592
1786.45	-0.109333
1787.96	-0.0854225
1789.47	-0.202531
1790.97	0.0338449
1792.47	0.0713453
1793.98	0.17416
1795.48	0.0490456
1796.99	0.0520115
1798.49	0.216767
1800	-0.159264
1801.5	-0.518049
1803	0.106947
1804.51	0.14267
1806.01	-0.139316
1807.51	0.16111
1809.01	-0.140862
1810.51	0.230746
1812.02	0.137628
1813.52	-0.161607
1815.02	0.331954
1816.52	0.351092
1818.02	0.266395
1819.52	0.147614
1821.02	0.111812
1822.52	0.0267878
1824.02	0.140986
1825.51	0.0223637
1827.01	0.0230827
1828.51	0.213638
1830.01	0.0860147
1831.51	0.63858
1833	0.331549
1834.5	0.19072
1836	-0.0302172
1837.49	0.173833
1838.99	0.164522
1840.49	0.0850744
1841.98	-0.132605
1843.48	-0.0690594
1844.97	0.353818
1846.47	0.409266
1847.96	-0.00387669
1849.46	0.168501
1850.95	-0.0124226
1852.45	0.0250521
1853.94	0.120077
1855.43	0.243831
1856.92	0.146406
1858.42	-0.0278797
1859.91	0.0719252
1861.4	0.243773
1862.89	-0.33526
1864.39	0.132077
1865.88	0.31977
1867.37	0.179216
1868.86	-0.0755129
1870.35	0.224656
1871.84	0.345585
1873.33	0.306154
1874.82	0.0871563
1876.31	0.108188
1877.8	0.00374699
1879.29	0.222586
1880.77	0.0142384
1882.26	0.0740061
1882.52	0.0947762
1884.02	0.230892
1885.51	0.13929
1887.01	-0.0405111
1888.5	-0.133782
1889.99	0.0864697
1891.49	-0.666048
1892.98	0.218324
1894.47	0.0270166
1895.96	-0.0231056
1897.46	0.0148449
1898.95	0.139636
1900.44	0.0891142
1901.93	0.401692
1903.42	0.25953
1904.91	0.202385
1906.4	-0.0990391
1907.89	0.29441
1909.38	0.0460873
1910.87	-0.252822
1912.36	0.316983
1913.85	-0.24001
1915.34	-0.13774
1916.83	0.293446
1918.32	-0.229588
1919.8	-0.337074
1921.29	0.144288
1922.78	0.0371742
1924.27	-0.466889
1925.75	0.502123
1927.24	0.468512
1928.73	0.037571
1930.21	0.628159
1931.7	0.178669
1933.18	-0.0130377
1934.67	0.29493
1936.15	0.617619
1937.64	0.177486
1939.12	-0.0380955
1940.61	0.472221
1942.09	0.361851
1943.57	0.0287971
1945.06	-0.0786467
1946.54	0.228224
1948.02	-0.171986
1949.51	0.185068
1950.99	0.76425
1952.47	0.377855
1953.95	0.21469
1955.43	-0.240487
1956.91	-0.265227
1958.39	0.0542154
1959.87	-0.0888472
1961.36	0.317663
1962.84	0.415597
1964.32	-0.0521936
1965.79	0.198998
1967.27	-0.475239
1968.75	0.424064
1970.23	0.278702
1971.71	0.0819311
1973.19	0.0389853
1974.66	-0.106112
1976.14	0.226464
1977.62	0.081912
1979.1	0.24408
1980.57	-0.00225163
1982.05	0.00648499
1983.53	-0.206014
1985	0.345154
1986.48	0.420238
1987.95	0.190131
1989.43	-0.0561113
1990.9	-0.148802
1992.38	0.453321
1993.85	0.532183
1995.33	0.189662
1996.8	-0.033761
1998.27	0.300232
1999.75	1.05545
2001.22	0.307307
2002.69	0.0483046
2004.16	-0.0926294
2005.64	0.188276
2007.11	0.318381
2008.58	0.180295
2010.05	-0.225894
2011.52	0.395586
2012.99	0.192256
2014.46	0.0893831
2015.93	0.170562
2017.4	0.0318136
2018.87	0.362746
2020.34	0.255748
2021.81	0.232622
2023.28	0.00854969
2024.75	0.725356
2026.22	0.403393
2027.69	-0.0170574
2029.15	0.386421
2030.62	0.0704927
2032.09	0.124931
2033.56	-0.155681
2035.02	-0.117418
2036.49	0.00435066
2037.95	0.310308
2039.42	0.34696
2040.89	0.148207
2042.35	0.403882
2043.82	0.425276
2045.28	0.515272
2046.75	-0.151194
2048.21	0.00747395
2049.67	0.502956
2051.14	0.373629
2052.6	-0.415641
2054.06	-0.212455
2055.53	-0.0116167
2056.99	-0.0318747
2058.45	-0.154296
2059.92	0.396903
2061.38	-0.0956602
2062.84	0.27166
2064.3	-0.218101
2065.76	0.40429
2067.22	0.489313
2068.68	0.373213
2070.14	0.341702
2071.6	0.360776
2073.06	0.312319
2074.52	-0.157487
2075.98	0.214203
2077.44	-0.138712
2078.9	-0.323746
2080.36	0.399926
2081.82	-0.08953
2083.27	0.00943851
2084.73	0.241988
2086.19	0.540656
2087.65	0.0479641
2089.1	0.311428
2090.56	0.456769
2092.01	0.467552
2093.47	-0.0587444
2094.93	0.069232
2096.38	0.0623178
2097.84	0.473231
2099.29	0.0961027
2100.75	0.321138
2102.2	-0.339495
2103.66	0.187511
2105.11	0.648872
2106.56	0.160832
2108.02	0.32502
2109.47	0.689698
2110.92	0.169933
2112.37	0.43192
2113.83	0.341589
2115.28	0.715089
2116.73	0.321974
2118.18	0.644203
2119.63	0.287278
2121.09	-0.414978
2122.54	0.345284
2123.99	0.941382
2125.44	0.062561
2126.89	0.294391
2128.34	0.491652
2129.79	0.38866
2131.23	0.532433
2132.68	0.112173
2134.13	0.618759
2135.58	0.580249
2137.03	0.841305
2138.48	0.4603
2139.92	0.742988
2141.37	0.465981
2142.82	0.240041
2144.26	0.478018
2145.71	0.63364
2147.16	0.457859
2148.6	0.52955
2150.05	0.467585
2151.49	0.222017
2152.94	0.55504
2154.38	0.920094
2155.83	0.754323
2157.27	0.307087
2158.72	0.771911
2160.16	0.857552
2161.6	0.481635
2163.05	0.820802
2164.49	0.731095
2165.93	1.02428
2167.38	0.42061
2168.82	0.878743
2170.26	0.619765
2171.7	1.03986
2173.14	1.04148
2174.58	0.941393
2176.03	0.956958
2177.47	0.756644
2178.91	1.20581
2180.35	0.675407
2181.79	1.27679
2183.23	0.781592
2184.67	1.21806
2186.1	1.08918
2187.54	1.15997
2188.98	1.08106
2190.42	1.03541
2191.86	0.772947
2193.3	0.875719
2194.73	0.393978
2196.17	1.00856
2197.61	0.871276
2199.05	0.864791
2200.48	1.07288
2201.92	0.732573
2203.35	1.09046
2204.79	0.520904
2206.22	0.119071
2207.66	0.662593
2209.09	0.77488
2210.53	0.952199
2211.96	0.383598
2213.4	0.789955
2214.83	0.53488
2216.27	0.710132
2217.7	0.243349
2219.13	0.306367
2220.56	0.304563
2222	0.73145
2223.43	0.267444
2224.86	0.493599
2226.29	-0.039773
2227.72	0.510591
2229.16	0.549014
2230.59	0.307398
2232.02	0.410152
2233.45	0.463949
2234.88	0.665838
2236.31	-0.0785666
2237.74	0.535308
2239.17	0.40047
2240.6	0.007514
2242.03	0.13903
2243.45	0.304832
2244.88	0.275414
2246.31	0.000460625
2247.74	0.229033
2249.17	0.291562
2250.59	0.302134
2252.02	-0.0477829
2253.45	0.203489
2254.87	-0.0327101
2256.3	0.204209
2257.73	0.135713
2259.15	-0.269587
2260.58	0.0428724
2262	-0.0957336
2263.43	0.449788
2264.85	0.0213127
2266.28	-0.0991859
2267.7	-0.0907021
2269.13	0.160694
2270.55	0.394903
2271.97	0.270325
2273.4	0.17803
2274.82	0.297592
2276.24	0.0590248
2277.66	0.130251
2279.09	0.576573
2280.51	0.468635
2281.93	0.360468
2283.35	0.154249
2284.77	-0.0846424
2286.19	0.0683947
2287.61	0.107724
2289.04	0.0333548
2290.46	0.0248327
2291.88	-0.0323515
2293.29	0.270384
2294.71	0.393389
2296.13	0.189022
2297.55	0.459305
2298.97	0.336713
2300.39	0.624037
2301.81	0.0429459
2303.23	0.265568
2304.64	-0.217188
2306.06	-0.207838
2307.48	0.228285
2308.89	0.105166
2310.31	0.392271
2311.73	0.0210543
2313.14	-0.169436
2314.56	0.0684385
2315.97	0.521562
2317.39	-0.242963
2318.8	0.442935
2320.22	-0.107742
2321.63	0.0326242
2323.05	-0.242042
2324.46	-0.189734
2325.88	0.849472
2327.29	0.28592
2328.7	0.924993
2330.12	0.690643
2331.53	0.30962
2332.94	0.341894
2334.35	-0.101825
2335.76	0.507833
2337.18	0.113362
2338.59	0.276794
2340	-0.087307
2341.41	0.0239639
2342.82	0.347748
2344.23	-0.345719
2345.64	0.273216
2347.05	-0.434925
2348.46	-0.0454245
2349.87	-0.000449181
2351.28	0.337658
2352.69	0.0695705
2354.1	-0.182981
2355.5	-0.305549
2356.91	-0.412016
2358.32	0.034708
2359.73	0.464403
2361.14	0.065589
2362.54	-0.137842
2363.95	-0.146632
2365.36	0.200458
2366.76	0.110717
2368.17	0.52248
2369.58	0.0799866
2370.98	0.123591
2372.39	0.281731
2373.79	-0.0902939
2375.2	0.327254
2376.6	-0.0444298
2378	-0.0151749
2379.41	-0.534327
2380.81	-0.123701
2382.22	0.091774
2383.62	0.145389
2385.02	-0.169366
2386.42	0.164243
2387.83	0.498316
2389.23	0.171709
2390.63	-0.232244
2392.03	0.146064
2393.43	0.111588
2394.84	0.650835
2396.24	-0.192488
2397.64	-0.303294
2399.04	0.0475073
2400.44	0.510036
2401.84	0.385162
2403.24	0.276271
2404.64	0.500358
2406.04	0.167562
2407.44	0.325612
2408.83	-0.0885057
2410.23	-0.296584
2411.63	-0.0763922
2413.03	0.065505
2414.43	-0.186779
2415.83	0.607819
2417.22	-0.178905
2418.62	-0.172867
2420.02	0.0395555
2421.41	0.537022
2422.81	0.543052
2424.21	-0.164312
2425.6	-0.60237
2427	0.228035
2428.39	0.108788
2429.79	0.466552
2431.18	0.381305
2432.58	0.153316
2433.97	-0.282028
2435.36	0.0274954
2436.76	0.287501
2438.15	0.164129
2439.54	0.43614
2440.94	0.532062
2442.33	-0.103055
2443.72	0.340947
2445.11	0.260922
2446.51	0.386858
2447.9	0.0687761
2449.29	-0.344083
2450.68	-0.502945
2452.07	0.146205
2453.46	0.242187
2454.85	-0.309335
2456.24	0.421531
2457.63	0.140385
2459.02	0.238669
2460.41	0.0989418
2461.8	-0.0576391
2463.19	0.480248
2464.58	-0.294397
2465.97	-0.0738831
2467.36	0.0515985
2468.75	0.129558
2470.13	-0.108238
2471.52	0.331386
2472.91	0.233974
2474.29	-0.0690079
2475.68	0.193864
2477.07	0.345791
2478.45	-0.52339
2479.84	0.0213118
2481.22	-0.0618029
2482.61	0.340807
2484	0.945632
2485.38	0.468978
2486.77	-0.102035
2488.15	-0.0646544
2489.54	0.0651426
2490.92	0.381167
2492.3	-0.499826
2493.69	-0.166256
2495.07	0.354543
2496.45	0.783163
2497.84	-0.243593
2499.22	0.232829
2500.6	0.0739756
2501.98	0.161586
2503.36	0.0624437
2504.74	-0.222825
2506.13	0.816771
2507.51	0.391599
2508.89	0.29039
2510.27	-0.0250206
2511.65	0.351463
2513.03	0.191821
2514.41	0.0795679
2515.79	0.121713
2517.17	0.531978
2518.55	0.0405083
2519.93	0.00821018
2521.3	0.0366821
2522.68	0.0795021
2524.06	0.212653
2525.44	0.375105
2526.82	0.110546
2528.19	0.0751848
2529.57	-0.338803
2530.95	0.176837
2532.32	-0.186911
2533.7	-0.275256
2535.08	-0.104379
2536.45	0.0512428
2537.83	-0.2042
2539.2	0.222623
2540.58	-0.126227
2541.95	0.0710516
2543.33	-0.21696
2544.7	0.239572
2546.08	0.227428
2547.45	-0.359474
2548.82	0.0559025
2550.2	0.0769835
2551.57	0.99282
2552.94	-0.141344
2554.32	0.407622
2555.69	0.166249
2557.06	-0.045433
2558.43	-0.105546
2559.8	-0.180442
2561.17	0.169764
2562.55	0.00546169
2563.92	-0.0822649
2565.29	0.0427284
2566.66	0.304446
2568.03	0.308662
2569.4	0.358359
2570.77	0.271638
2572.14	-0.0727186
2573.51	-0.0380526
2574.88	0.0876951
2576.24	0.516725
2577.61	0.354384
2578.98	0.297849
2580.35	0.165013
2581.72	-0.377771
2583.09	-0.102258
2584.45	0.460913
2585.82	0.265982
2587.19	-0.292521
2588.55	0.255666
2589.92	0.5766
2591.28	0.0941782
2592.65	0.38396
2594.02	0.0514469
2595.38	0.1569
2596.75	-0.056983
2598.11	-0.286842
2599.48	0.375072
2600.84	0.55282
2602.2	0.459225
2603.57	0.276059
2604.93	-0.117454
2606.3	0.00244045
2607.66	0.0614967
2609.02	0.3153
2610.38	0.642472
2611.75	-0.0861902
2613.11	0.508039
2614.47	0.409068
2615.83	0.129857
2617.19	0.211277
2618.56	0.0387602
2619.92	0.331448
2621.28	0.191043
2622.64	0.484861
2624	0.16638
2625.36	0.280989
2626.72	0.0670242
2628.08	0.374446
2629.44	0.308733
2630.8	0.0791759
2632.15	0.31067
2633.51	0.00697231
2634.87	0.11929
2636.23	0.527973
2637.59	0.180247
2638.94	0.499411
2640.3	0.0489616
2641.66	0.501328
2643.02	0.273855
2644.37	0.696484
2645.73	0.0562267
2647.08	-0.170888
2648.44	-0.0745153
2649.8	0.285484
2651.15	0.188114
2652.51	0.14925
2653.86	0.345481
2655.22	0.307819
2656.57	0.388871
2657.92	0.207924
2659.28	0.0576477
2660.63	0.492926
2661.99	-0.0515881
2663.34	-0.216559
2664.69	0.230644
2666.04	0.136527
2667.4	0.143911
2668.75	0.209389
2670.1	0.304214
2671.45	0.225127
2672.81	0.248703
2674.16	0.185951
2675.51	0.138549
2676.86	0.657765
2678.21	0.147753
2679.56	0.480138
2680.91	-0.157548
2682.26	0.699716
2683.61	0.340727
2684.96	-0.191191
2686.31	0.220305
2687.66	0.0948095
2689	0.359642
2690.35	0.0705671
2691.7	0.0839167
2693.05	0.312835
2694.4	-0.0108089
2695.74	0.520686
2697.09	-0.00498104
2698.44	0.0941372
2699.79	0.137511
2701.13	0.313528
2702.48	-0.000861168
2703.82	0.0192003
2705.17	-0.0470257
2706.52	-0.113256
2707.86	0.589169
2709.21	0.391584
2710.55	0.00453091
2711.9	-0.0926256
2713.24	0.362144
2714.58	0.410096
2715.93	0.0799274
2717.27	0.563845
2718.61	0.480288
2719.96	0.59989
2721.3	0.296853
2722.64	0.08039
2723.99	0.183476
2725.33	0.373302
2726.67	0.227828
2728.01	0.431219
2729.35	0.314081
2730.7	-0.239756
2732.04	0.0503082
2733.38	0.253119
2734.72	0.354286
2736.06	0.455702
2737.4	0.629993
2738.74	0.237042
2740.08	0.454561
2741.42	0.249712
2742.76	0.654605
2744.09	0.27354
2745.43	0.298633
2746.77	0.511891
2748.11	0.173113
2749.45	0.502084
2750.79	0.33793
2752.12	0.000266075
2753.46	-0.162951
2754.8	-0.00711632
2756.13	-0.358139
2757.47	0.435122
2758.81	-0.0600615
2760.14	0.0822878
2761.48	0.586993
2762.81	0.252991
2764.15	-0.00820923
2765.49	0.236982
2766.82	0.336845
2768.15	0.43541
2769.49	0.358637
2770.82	0.279921
2772.16	0.0117073
2773.49	-0.142058
2774.82	0.150609
2776.16	0.140199
2777.49	-0.0711975
2778.82	0.236153
2780.16	-0.18914
2781.49	0.291266
2782.82	-0.018158
2784.15	0.160348
2785.48	0.166588
2786.81	-0.170694
2788.15	0.452153
2789.48	0.259864
2790.81	-0.288598
2792.14	-0.478243
2793.47	-0.166893
2794.8	0.101486
2796.13	-0.130807
2797.46	0.0790968
2798.79	0.216689
2800.12	0.225133
2801.44	0.133334
2802.77	-0.186781
2804.1	0.00609589
2805.43	0.297856
2806.76	0.033329
2808.08	0.479442
2809.41	0.284758
2810.74	0.132995
2812.07	0.067399
2813.39	0.230323
2814.72	-0.18623
2816.05	0.590018
2817.37	-0.134793
2818.7	0.218409
2820.02	0.118062
2821.35	0.215538
2822.67	0.170371
2824	0.606078
2825.32	0.00708675
2826.65	-0.039279
2827.97	0.198208
2829.29	0.294806
2830.62	0.108898
2831.94	0.432883
2833.26	0.601055
2834.59	0.528149
2835.91	0.596103
2837.23	0.762342
2838.55	0.758145
2839.88	0.852652
2841.2	0.848276
2842.52	1.55122
2843.84	1.15245
2845.16	1.80055
2846.48	1.20584
2847.8	1.47372
2849.12	2.05259
2850.44	2.19292
2851.76	2.34668
2853.08	2.14636
2854.4	2.55315
2855.72	2.28139
2857.04	2.61712
2858.36	3.10819
2859.68	3.00596
2861	3.03058
2862.32	3.02648
2863.63	3.27591
2864.95	3.75058
2866.27	4.18263
2867.58	4.40332
2868.9	4.49767
2870.22	4.98738
2871.53	4.91336
2872.85	4.9235
2874.17	5.46791
2875.48	4.9821
2876.8	4.7484
2878.11	5.0062
2879.43	5.0945
2880.74	4.81775
2882.06	4.80943
2883.37	5.5892
2884.69	5.02209
2886	4.97558
2887.31	5.43446
2888.63	4.92428
2889.94	5.25484
2891.25	5.009
2892.57	4.79047
2893.88	4.74001
2895.19	5.46027
2896.5	5.41134
2897.82	5.32207
2899.13	6.12982
2900.44	6.09924
2901.75	5.76165
2903.06	6.29168
2904.37	6.37428
2905.68	6.66714
2906.99	6.45734
2908.3	7.1021
2909.61	6.54513
2910.92	6.70254
2912.23	7.54591
2913.54	7.5064
2914.85	7.11468
2916.16	7.61628
2917.46	7.90532
2918.77	8.69628
2920.08	9.02492
2921.39	9.13075
2922.7	8.91707
2924	8.13264
2925.31	9.53066
2926.62	8.84695
2927.92	9.00204
2929.23	9.18451
2930.53	9.07253
2931.84	9.53294
2933.15	9.7972
2934.45	9.90763
2935.76	9.4173
2937.06	9.09503
2938.37	9.96089
2939.67	9.65339
2940.98	8.85768
2942.28	8.97165
2943.58	8.62637
2944.89	8.21323
2946.19	8.61286
2947.49	7.48876
2948.8	7.62313
2950.1	6.8318
2951.4	7.01771
2952.7	6.43065
2954.01	6.20564
2955.31	6.4001
2956.61	6.56783
2957.91	6.02479
2959.21	5.59756
2960.51	5.98653
2961.81	6.0426
2963.11	6.15607
2964.41	6.26891
2965.71	5.93025
2967.01	5.40607
2968.31	5.39973
2969.61	5.35011
2970.91	5.30031
2972.21	5.2791
2973.51	4.61108
2974.81	4.84362
2976.1	4.70932
2977.4	4.68578
2978.7	4.18102
2980	4.57483
2981.29	4.48802
2982.59	3.72534
2983.89	3.7933
2985.18	3.56769
2986.48	3.24605
2987.78	3.2779
2989.07	3.00208
2990.37	2.8672
2991.66	3.15331
2992.96	2.31364
2994.25	1.8659
2995.55	1.9647
2996.84	1.99226
2998.14	1.82306
2999.43	1.27567
3000.72	1.17819
3002.02	1.41801
3003.31	1.22392
3004.6	0.848036
3005.9	1.39634
3007.19	1.04757
3008.48	1.3696
3009.77	1.04687
3011.07	0.765508
3012.36	0.98665
3013.65	0.579723
3014.94	0.299498
3016.23	0.522155
3017.52	0.202641
3018.81	0.343429
3020.1	0.581586
3021.39	-0.431937
3022.68	0.235423
3023.97	0.165028
3025.26	0.13541
3026.55	-0.309876
3027.84	0.394841
3029.13	0.0215101
3030.42	0.0652781
3031.71	0.483919
3033	0.55861
3034.28	0.205965
3035.57	0.239213
3036.86	-0.129062
3038.15	0.079525
3039.43	-0.265147
3040.72	-0.41855
3042.01	-0.160869
3043.29	0.219459
3044.58	-0.166515
3045.86	0.0386076
3047.15	0.669802
3048.44	0.252215
3049.72	-0.0391693
3051.01	0.3541
3052.29	0.3255
3053.58	0.0514565
3054.86	0.30876
3056.14	0.0736761
3057.43	0.246396
3058.71	0.717711
3060	0.221473
3061.28	0.393207
3062.56	0.634195
3063.84	0.605067
3065.13	0.347089
3066.41	0.621366
3067.69	0.380522
3068.97	0.140254
3070.25	0.511721
3071.54	0.0933456
3072.82	-7.62939e-005
3074.1	0.190528
3075.38	0.366252
3076.66	0.473572
3077.94	-0.151488
3079.22	-0.15034
3080.5	0.0563564
3081.78	-0.0331945
3083.06	0.408093
3084.34	0.212861
3085.62	-0.280795
3086.9	-0.014926
3088.17	-0.0484123
3089.45	0.134488
3090.73	0.411863
3092.01	-0.111348
3093.29	-0.105005
3094.56	0.0239286
3095.84	0.099102
3097.12	0.472762
3098.4	0.100938
3099.67	0.0408936
3100.95	-0.249376
3102.22	-0.038146
3103.5	-0.23266
3104.77	0.0204163
3106.05	0.00386429
3107.33	0.232267
3108.6	0.232139
3109.88	0.612607
3111.15	0.588566
3112.43	0.403187
3113.7	0.259041
3114.97	0.345402
3116.25	0.661901
3117.52	0.2316
3118.79	0.586625
3120.07	0.669099
3121.34	0.804697
3122.61	0.302629
3123.88	1.00652
3125.16	0.139606
3126.43	0.23512
3127.7	0.602112
3128.97	0.509923
3130.24	0.364383
3131.51	1.1114
3132.78	0.898553
3134.05	0.550549
3135.33	0.431912
3136.59	1.06837
3137.86	0.207104
3139.14	1.08463
3140.41	0.776306
3141.67	1.28911
3142.94	0.861171
3144.21	0.944993
3145.48	1.23094
3146.75	1.22276
3148.02	0.787028
3149.28	0.941948
