200.388	-0.354625
202.204	-0.361317
204.019	-0.366301
205.832	1.06516
207.646	0.940308
209.459	0.645466
211.274	0.471722
213.087	0.758504
214.899	0.340786
216.711	0.965732
218.524	0.52458
220.335	0.71443
222.146	0.228189
223.956	1.29121
225.766	0.904361
227.576	0.566716
229.388	0.567471
231.197	0.543935
233.005	0.303387
234.813	0.956004
236.621	0.669782
238.429	0.265821
240.236	0.395211
242.045	1.17855
243.852	1.02368
245.658	0.772574
247.464	1.31677
249.269	1.0135
251.074	0.731276
252.879	0.929199
254.683	0.763464
256.487	1.10403
258.291	0.457427
260.094	1.33122
261.897	0.858234
263.702	0.435711
265.504	0.376045
267.306	0.678619
269.108	1.12599
270.909	0.584467
272.71	-0.15098
274.511	0.00448132
276.311	0.230833
278.111	0.190338
279.91	-0.165079
281.709	-0.136812
283.508	0.0340252
285.306	-0.0610008
287.105	0.731635
288.9	0.395942
290.698	-0.105746
292.495	0.52002
294.291	0.788062
296.088	0.6752
297.884	0.635635
299.679	0.0235405
301.475	0.415083
303.27	0.161057
305.064	-0.141555
306.858	0.46172
308.652	0.492148
310.444	-0.19145
312.237	0.556019
314.03	-0.00457573
315.822	0.389599
317.615	-0.0951357
319.406	0.422314
321.198	0.488845
322.987	0.0557337
324.778	-0.47261
326.568	0.19254
328.358	-0.00160599
330.148	-0.10086
331.935	0.0857344
333.724	-0.135852
335.513	-0.000647545
337.301	0.634824
339.089	0.621996
340.875	0.679301
342.662	0.401113
344.449	0.14712
346.236	-0.344853
348.02	0.47765
349.806	0.226201
351.592	-0.144271
353.375	-0.467274
355.16	0.282445
356.944	0.0527058
358.728	0.679795
360.51	0.0427618
362.294	-0.213499
364.077	-0.351156
365.858	0.461085
367.64	-0.129262
369.422	0.086935
371.202	0.0886898
372.983	-0.00485229
374.764	0.374168
376.543	0.209539
378.324	0.470385
380.102	0.519776
381.881	0.947092
383.661	0.716742
385.438	0.629305
387.216	0.0264883
388.993	0.740905
390.771	0.0235157
392.548	0.411076
394.324	0.916778
396.101	0.483654
397.875	0.849216
399.651	0.0168819
401.425	1.20407
403.201	1.23975
404.974	0.194277
406.749	0.533782
408.524	1.06039
410.296	-0.174022
412.07	0.469638
413.841	0.855466
415.614	0.678965
417.385	0.127995
419.156	0.633716
420.928	-0.221338
422.698	-0.0909348
424.469	0.437955
426.238	-0.1844
428.009	0.671392
429.777	0.259005
431.548	-0.153298
433.315	0.46745
435.083	0.0559349
436.852	0.418965
438.618	0.358858
440.387	0.602331
442.153	-0.329311
443.919	-0.0666504
445.686	-0.157639
447.451	0.101346
449.218	0.38276
450.982	-0.0604954
452.746	-0.105771
454.512	0.525747
456.275	-0.265457
458.038	0.155486
459.803	0.668934
461.565	-0.445447
463.327	-0.0926762
465.091	0.424922
466.852	-0.332496
468.613	0.00502777
470.374	-0.32954
472.136	0.150654
473.896	0.25816
475.655	0.829752
477.415	0.374252
479.176	0.848441
480.934	0.366426
482.692	0.1641
484.45	-0.0836105
486.21	0.299596
487.967	0.638749
489.724	0.374158
491.481	0.367078
493.237	0.54763
494.995	0.40137
496.75	0.41858
498.506	0.552661
500.26	0.545785
502.015	0.937187
503.769	0.576611
505.525	0.472839
507.279	0.414484
509.032	0.448532
510.785	0.410288
512.537	0.276207
514.289	0.822891
516.041	0.497482
517.793	1.51142
519.546	0.760355
521.297	0.338054
523.047	0.714102
524.797	0.713954
526.547	0.12729
528.297	0.643259
530.046	0.502401
531.795	1.27472
533.543	0.711018
535.291	0.637999
537.039	0.51684
538.787	0.0908813
540.534	0.783985
542.281	0.519558
544.027	0.0226707
545.773	0.200796
547.519	0.285819
549.264	0.231791
551.01	0.40967
552.754	1.00371
554.499	0.464426
556.243	0.711371
557.987	0.473948
559.73	-0.292432
561.474	0.0250168
563.216	0.112494
564.959	0.568195
566.701	0.242933
568.441	0.492827
570.182	0.169853
571.923	0.559682
573.664	0.974026
575.405	0.289141
577.145	0.54657
578.885	-0.0437899
580.624	-0.0597239
582.361	0.200169
584.1	-0.114969
585.839	0.580511
587.577	0.170878
589.315	-0.0101271
591.052	0.475071
592.787	-0.167703
594.524	-0.0284185
596.26	-0.23424
597.997	-0.0950146
599.732	0.0898438
601.466	0.112802
603.201	0.157449
604.936	0.568384
606.67	0.288191
608.403	0.214084
610.136	0.369358
611.87	-0.323829
613.603	0.543496
615.334	0.0127316
617.067	0.628078
618.799	1.0134
620.529	0.641814
622.26	0.292158
623.991	0.4678
625.72	-0.133581
627.451	0.157155
629.181	0.654916
630.909	0.333426
632.638	0.538914
634.368	0.63148
636.095	1.34011
637.823	0.357758
639.551	1.31268
641.277	0.712502
643.005	0.156035
644.73	0.418855
646.457	0.408402
648.184	0.536189
649.908	0.530691
651.634	0.960855
653.357	0.440685
655.083	0.924269
656.806	0.659775
658.53	0.373003
660.253	0.404655
661.977	1.07422
663.7	0.62254
665.422	0.807925
667.145	0.64832
668.865	0.373395
670.588	0.830954
672.308	1.22215
674.027	0.837794
675.749	0.730183
677.468	-0.0187178
679.188	0.586078
680.907	0.271507
682.627	0.552761
684.345	1.0163
686.064	0.533937
687.781	1.40851
689.498	0.554497
691.216	1.17382
692.932	1.12443
694.65	0.843881
696.366	0.562357
698.081	0.026495
699.797	0.410187
701.512	0.861296
703.228	0.690256
704.942	0.817253
706.655	0.897574
708.371	0.358109
710.083	1.1939
711.796	0.928964
713.51	1.12157
715.222	0.970801
716.934	0.843039
718.645	0.898055
720.358	0.588432
722.068	1.0993
723.779	0.835723
725.49	1.0953
727.2	1.3314
728.909	0.47734
730.618	0.508565
732.329	1.28669
734.037	1.06749
735.745	0.826138
737.453	1.12753
739.16	0.774758
740.869	1.32521
742.576	0.952514
744.282	0.89684
745.988	1.02267
747.694	1.41979
749.401	1.25578
751.107	1.04818
752.811	0.841887
754.516	1.5818
756.22	1.49098
757.924	1.26661
759.627	1.20122
761.332	1.52018
763.035	1.3438
764.738	1.18948
766.44	1.03379
768.142	1.28295
769.843	1.77877
771.544	1.11922
773.245	1.65659
774.946	1.42455
776.646	2.21047
778.346	2.45512
780.046	1.5481
781.745	1.50148
783.444	1.63608
785.143	2.10916
786.841	1.7649
788.539	1.34948
790.237	1.4286
791.934	1.95676
793.631	1.6467
795.328	1.56242
797.024	2.13278
798.72	1.57788
800.416	1.88091
802.112	2.27514
803.807	2.01764
805.502	2.02994
807.196	1.50208
808.89	1.96164
810.584	1.70119
812.278	1.48495
813.971	1.98539
815.664	1.92502
817.354	1.84231
819.047	2.4526
820.739	2.28045
822.43	2.15358
824.122	1.80476
825.813	2.34918
827.503	1.18024
829.192	2.17492
830.882	2.10373
832.571	1.61229
834.261	1.67994
835.95	1.25808
837.637	1.59435
839.325	1.63954
841.013	0.70028
842.701	2.08269
844.389	1.31985
846.074	1.96543
847.761	2.45672
849.447	1.9444
851.131	1.90425
852.817	1.35063
854.503	2.38995
856.188	1.05041
857.871	1.97787
859.556	1.53259
861.24	1.85028
862.922	1.42314
864.606	1.19706
866.289	0.744411
867.97	1.19281
869.653	1.09963
871.336	0.780491
873.016	1.49882
874.698	1.26958
876.379	1.33363
878.058	1.23972
879.739	1.23595
881.418	1.93164
883.098	1.29466
884.778	1.40151
886.456	1.23603
888.135	1.15923
889.812	1.14851
891.49	0.910851
893.167	1.10005
894.845	2.16524
896.523	1.36144
898.198	1.16449
899.875	0.944522
901.55	0.813852
903.226	1.37658
904.901	0.954319
906.576	1.24758
908.25	0.894215
909.925	0.631598
911.598	0.54842
913.271	1.62181
914.945	0.695128
916.617	1.47839
918.291	0.952484
919.962	1.35763
921.635	0.590096
923.306	1.65965
924.978	1.27142
926.648	0.841416
928.318	0.634212
929.989	1.22279
931.659	0.752841
933.328	1.25397
934.998	1.40222
936.666	0.933334
938.336	0.840288
940.004	1.36604
941.671	0.834325
943.34	1.05339
945.007	1.33867
946.673	1.04897
948.339	1.59614
950.007	1.36866
951.672	0.809007
953.337	1.06573
955.004	1.39002
956.669	0.768936
958.333	0.922983
959.997	1.89677
961.662	0.819449
963.326	0.823628
964.989	1.00308
966.651	1.37906
968.315	0.690107
969.977	0.662685
971.639	0.700672
973.301	0.91596
974.962	0.778843
976.624	0.709924
978.285	0.885882
979.945	1.16226
981.605	1.43843
983.264	1.39229
984.924	1.01199
986.583	1.1165
988.243	0.887145
989.901	1.29792
991.56	1.13291
993.217	0.791178
994.875	1.53158
996.532	1.05784
998.188	1.5989
999.845	2.09499
1001.5	2.23767
1003.16	1.74144
1004.81	1.0036
1006.47	0.969905
1008.12	0.804606
1009.78	0.442358
1011.43	1.2872
1013.09	1.34247
1014.74	0.587674
1016.39	0.60035
1018.05	0.154042
1019.7	1.2618
1021.35	1.07986
1023	0.789941
1024.65	1.04752
1026.31	0.803101
1027.96	0.689884
1029.61	1.2533
1031.26	0.832362
1032.91	1.5889
1034.56	1.25191
1036.21	1.13185
1037.86	1.09817
1039.51	1.60861
1041.16	1.2054
1042.8	1.58671
1044.45	1.73054
1046.1	1.39862
1047.75	2.02453
1049.39	1.47956
1051.04	0.479819
1052.69	1.50102
1054.33	1.02375
1055.98	0.828834
1057.62	0.916154
1059.27	0.350729
1060.91	0.697782
1062.56	0.391727
1064.2	0.584845
1065.85	0.168132
1067.49	0.402516
1069.13	0.787832
1070.77	0.607496
1072.42	0.644223
1074.06	0.464419
1075.7	0.654547
1077.34	0.650787
1078.98	1.29891
1080.62	0.039607
1082.27	0.450068
1083.91	-0.13775
1085.55	0.16183
1087.18	0.199171
1088.82	0.299325
1090.46	0.527345
1092.1	0.27815
1093.74	-0.2519
1095.38	0.923711
1097.02	-0.208553
1098.65	0.601001
1100.29	-0.375494
1101.93	0.243222
1103.56	0.174946
1105.2	0.258636
1106.84	0.127863
1108.47	-0.110661
1110.11	0.380876
1111.74	0.634108
1113.38	0.283909
1115.01	0.448045
1116.64	-0.161006
1118.28	0.581474
1119.91	0.423839
1121.54	0.353084
1123.18	0.326314
1124.81	0.514563
1126.44	-0.408626
1128.07	0.358802
1129.7	0.72045
1131.33	-0.0290709
1132.97	0.205227
1134.6	0.524888
1136.23	0.501878
1137.86	-0.163217
1139.49	0.260242
1141.11	-0.0649338
1142.74	0.548587
1144.37	0.457765
1146	0.410378
1147.63	-0.126119
1149.26	-0.320509
1150.88	-0.0456772
1152.51	0.0799942
1154.14	0.65235
1155.76	0.117241
1157.39	-0.290015
1159.01	0.00522232
1160.64	-0.52817
1162.27	0.0453377
1163.89	0.492234
1165.51	0.216795
1167.14	0.00492096
1168.76	-0.633153
1170.39	0.130202
1172.01	0.402411
1173.63	-0.325436
1175.25	0.0284758
1176.88	0.190495
1178.5	0.204161
1180.12	-0.098999
1181.74	-0.0200796
1183.36	-0.00396729
1184.98	-0.0723066
1186.6	0.111941
1188.22	0.146585
1189.84	-0.242421
1191.46	0.209654
1193.08	-0.160981
1194.7	0.2034
1196.32	-0.146113
1197.94	-0.263449
1199.55	0.91789
1201.17	-0.136392
1202.79	0.56765
1204.41	0.313638
1206.02	0.333329
1207.64	0.563069
1209.25	0.813971
1210.87	0.250603
1212.48	0.66572
1214.1	0.307119
1215.71	0.23816
1217.33	0.62509
1218.94	0.511369
1220.56	0.273175
1222.17	0.76201
1223.79	0.463879
1225.4	0.51981
1227.01	0.43243
1228.62	0.739608
1230.23	0.965196
1231.85	1.00593
1233.46	0.469266
1235.07	0.905377
1236.68	1.30149
1238.29	1.30608
1239.9	0.794502
1241.51	1.39982
1243.12	0.743099
1244.73	0.623322
1246.34	0.585242
1247.94	1.43588
1249.55	1.31311
1251.16	1.33481
1252.77	1.08783
1254.37	1.15191
1255.98	1.09307
1257.59	1.2838
1259.2	1.57938
1260.8	1.02747
1262.41	0.744905
1264.01	0.255039
1265.62	1.23574
1267.22	1.42859
1268.83	1.35098
1270.43	0.795329
1272.03	0.528807
1273.64	0.738091
1275.24	1.00846
1276.85	0.283041
1278.45	0.841576
1280.05	0.819251
1281.65	1.10707
1283.25	1.33267
1284.85	0.731479
1286.46	1.41337
1288.06	1.95137
1289.66	1.78763
1291.26	0.839326
1292.86	1.60605
1294.46	1.48349
1296.06	0.863944
1297.66	1.6882
1299.25	1.33376
1300.85	1.57601
1302.45	1.17791
1304.05	1.54092
1305.65	0.997809
1307.24	0.516876
1308.84	1.12399
1310.43	1.25845
1312.03	1.53631
1313.63	1.24177
1315.22	0.948867
1316.82	1.43334
1318.41	1.14243
1320.01	1.66735
1321.6	1.29419
1323.2	0.675879
1324.79	1.21571
1326.38	1.95572
1327.98	1.51724
1329.57	1.18168
1331.16	1.5767
1332.76	1.448
1334.35	1.52393
1335.94	1.3998
1337.53	1.29666
1339.12	1.03173
1340.71	1.24885
1342.3	1.44319
1343.89	0.991712
1345.48	1.2026
1347.07	1.45308
1348.66	1.08389
1350.25	1.81879
1351.84	0.715402
1353.43	0.814924
1355.01	0.236225
1356.6	0.657375
1358.19	0.558498
1359.77	0.578548
1361.36	1.27609
1362.95	0.974563
1364.53	0.832479
1366.12	1.14906
1367.71	1.06786
1369.29	0.629708
1370.88	0.591344
1372.46	1.13149
1374.04	0.478928
1375.63	0.702604
1377.21	0.866738
1378.8	0.930887
1380.38	0.516444
1381.96	0.677687
1383.54	0.757932
1385.13	0.777415
1386.71	0.776504
1388.29	0.418289
1389.87	0.993992
1391.45	1.29243
1393.03	0.817907
1394.61	0.879556
1396.19	0.722894
1397.77	0.288075
1399.35	0.942387
1400.93	0.941507
1402.51	0.643058
1404.09	1.31428
1405.67	0.522096
1407.24	0.838387
1408.82	0.602117
1410.4	0.998642
1411.98	0.644543
1413.55	0.605919
1415.13	0.724237
1416.71	1.07819
1418.28	0.84002
1419.86	0.247834
1421.43	0.976535
1423.01	0.938663
1424.58	0.646705
1426.16	0.513584
1427.73	1.40456
1429.31	1.09465
1430.88	1.80726
1432.45	1.75094
1434.02	1.26072
1435.6	1.43895
1437.17	2.22675
1438.74	1.73731
1440.31	1.77982
1441.88	1.72514
1443.45	2.71289
1445.03	2.28609
1446.6	1.87911
1448.17	2.29784
1449.74	1.81263
1451.3	2.6452
1452.87	1.84639
1454.44	1.99189
1456.01	1.80295
1457.58	1.96747
1459.15	2.30777
1460.72	1.38662
1462.28	1.13268
1463.85	1.84076
1465.42	1.68209
1466.98	1.93567
1468.55	0.972077
1470.12	1.46256
1471.68	1.5223
1473.25	0.87713
1474.81	0.978224
1476.38	1.02093
1477.94	0.808887
1479.51	1.43973
1481.07	0.717919
1482.63	0.584127
1484.2	0.763741
1485.76	0.590319
1487.32	0.945002
1488.88	0.358356
1490.45	0.944407
1492.01	0.80394
1493.57	1.13018
1495.13	0.985489
1496.69	0.645089
1498.25	0.733379
1499.81	0.336102
1501.37	0.503846
1502.93	0.827605
1504.49	0.279809
1506.05	0.507633
1507.61	-0.039156
1509.17	0.418742
1510.73	0.565679
1512.28	0.69206
1513.84	0.625208
1515.4	0.328025
1516.96	0.972907
1518.51	0.524037
1520.07	0.479086
1521.63	1.02767
1523.18	0.427868
1524.74	0.878684
1526.29	0.77436
1527.85	0.250382
1529.4	0.354771
1530.96	0.154991
1532.51	0.733701
1534.06	0.686865
1535.62	0.792549
1537.17	0.313287
1538.72	0.251004
1540.28	0.434387
1541.83	0.598691
1543.38	0.649648
1544.93	0.437075
1546.48	0.281051
1548.03	0.20022
1549.59	1.24416
1551.14	0.900496
1552.69	0.819932
1554.24	0.516203
1555.79	0.812016
1557.34	-0.328012
1558.88	0.214182
1560.43	0.646021
1561.98	0.669024
1563.53	0.506646
1565.08	0.400809
1566.62	0.052454
1568.17	0.786295
1569.72	0.623953
1571.27	1.05852
1572.81	0.50344
1574.36	0.974893
1575.9	1.24103
1577.45	0.928663
1579	0.635358
1580.54	0.958781
1582.09	0.946948
1583.63	0.973342
1585.17	1.18741
1586.72	1.34609
1588.26	1.59859
1589.8	1.14003
1591.35	0.961442
1592.89	1.00692
1594.43	0.714956
1595.97	1.50952
1597.52	1.33042
1599.06	1.09563
1600.6	1.25529
1602.14	1.47192
1603.68	1.20054
1605.22	1.77361
1606.76	1.40601
1608.3	1.14894
1609.84	0.889441
1611.38	0.552505
1612.92	0.533103
1614.46	1.35697
1615.99	0.828842
1617.53	0.582981
1619.07	1.12539
1620.61	1.29432
1622.14	1.20248
1623.68	1.63577
1625.22	1.00203
1626.75	0.442616
1628.29	1.36024
1629.82	1.54633
1631.36	1.35727
1632.9	0.887789
1634.43	1.65117
1635.96	1.3884
1637.5	0.884403
1639.03	1.12718
1640.57	1.7426
1642.1	1.40679
1643.63	0.93979
1645.16	0.862859
1646.7	2.01239
1648.23	1.48749
1649.76	1.48365
1651.29	1.94475
1652.82	1.92446
1654.36	1.44193
1655.89	1.85011
1657.42	2.10975
1658.95	1.59045
1660.48	2.40311
1662.01	1.40016
1663.53	1.24773
1665.06	1.74136
1666.59	1.81005
1668.12	1.67692
1669.65	1.14003
1671.18	0.955275
1672.7	1.54541
1674.23	1.32549
1675.76	1.40003
1677.29	0.99518
1678.81	1.06783
1680.34	0.900292
1681.86	1.1915
1683.39	1.3167
1684.91	0.854557
1686.44	0.90684
1687.96	1.17946
1689.49	0.994213
1691.01	0.7728
1692.54	0.771297
1694.06	0.513645
1695.58	0.530309
1697.11	0.236067
1698.63	0.800101
1700.15	0.085494
1701.67	0.100809
1703.2	0.334235
1704.72	0.293585
1706.24	0.507255
1707.76	0.193048
1709.28	0.278881
1710.8	0.473528
1712.32	-0.238645
1713.84	0.518078
1715.36	0.477078
1716.88	-0.0523109
1718.4	0.196189
1719.91	0.155262
1721.43	0.818223
1722.95	-0.0337486
1724.47	-0.0187216
1725.99	0.465731
1727.5	0.627089
1729.02	0.44746
1730.54	0.0155945
1732.05	0.350951
1733.57	0.117002
1735.09	0.388526
1736.6	0.429517
1738.12	0.535805
1739.63	-0.139171
1741.15	0.0476923
1742.66	0.220424
1744.18	0.0508022
1745.69	0.0649719
1747.2	0.204991
1748.72	0.143999
1750.23	0.667844
1751.74	-0.229188
1753.25	-0.122908
1754.77	0.251236
1756.28	-0.189229
1757.79	-0.243226
1759.3	-0.0554209
1760.81	0.29011
1762.32	-0.173829
1763.83	0.00563335
1765.34	-0.0193243
1766.85	0.419397
1768.36	0.0674152
1769.87	-0.140712
1771.38	0.145024
1772.89	0.334983
1774.4	0.0718985
1775.91	0.370571
1777.41	0.0612783
1778.92	-0.263554
1780.43	0.263455
1781.94	0.0305777
1783.44	0.0801001
1784.95	-0.0391836
1786.45	0.0464163
1787.96	0.0453424
1789.47	0.408076
1790.97	0.637038
1792.47	0.116784
1793.98	0.106052
1795.48	0.234886
1796.99	0.37948
1798.49	0.182519
1800	0.526951
1801.5	0.198982
1803	0.168667
1804.51	0.110059
1806.01	-0.102532
1807.51	0.175268
1809.01	0.0445509
1810.51	-0.0592432
1812.02	-0.396209
1813.52	-0.0978518
1815.02	0.0809298
1816.52	0.12106
1818.02	-0.0825996
1819.52	-0.0275831
1821.02	0.248004
1822.52	-0.223265
1824.02	0.105807
1825.51	-0.00892448
1827.01	0.397591
1828.51	0.315202
1830.01	0.260989
1831.51	0.201368
1833	0.0551014
1834.5	-0.156076
1836	-0.0531864
1837.49	-0.323186
1838.99	0.3308
1840.49	0.120532
1841.98	-0.151476
1843.48	0.0555573
1844.97	0.197207
1846.47	0.221893
1847.96	0.149134
1849.46	0.0888071
1850.95	0.0941381
1852.45	-0.0377369
1853.94	0.0560522
1855.43	0.167541
1856.92	0.24062
1858.42	0.0596247
1859.91	0.075675
1861.4	0.0485888
1862.89	0.424933
1864.39	0.150839
1865.88	0.0916681
1867.37	-0.0466204
1868.86	-0.290954
1870.35	-0.018199
1871.84	0.522715
1873.33	0.284639
1874.82	0.36677
1876.31	0.0696058
1877.8	-0.129066
1879.29	0.115044
1880.77	-0.0492401
1882.26	-0.0258665
1882.52	-0.0129004
1884.02	0.195121
1885.51	0.332486
1887.01	-0.0885258
1888.5	0.0822458
1889.99	-0.0601435
1891.49	-0.2536
1892.98	0.30225
1894.47	0.355623
1895.96	-0.145812
1897.46	-0.055275
1898.95	-0.312719
1900.44	0.0724678
1901.93	0.0211401
1903.42	0.333264
1904.91	0.417686
1906.4	0.518571
1907.89	-0.214216
1909.38	0.373453
1910.87	0.250216
1912.36	-0.0454931
1913.85	0.145108
1915.34	0.144985
1916.83	0.369904
1918.32	0.0741882
1919.8	-0.20448
1921.29	-0.119326
1922.78	0.399072
1924.27	0.277569
1925.75	-0.344772
1927.24	0.0207195
1928.73	0.421551
1930.21	-0.216551
1931.7	0.304717
1933.18	0.460831
1934.67	0.00918865
1936.15	0.386684
1937.64	0.434003
1939.12	-0.24492
1940.61	0.0960989
1942.09	-0.0974197
1943.57	-0.548467
1945.06	0.294959
1946.54	-0.189172
1948.02	0.205675
1949.51	-0.0551252
1950.99	0.148198
1952.47	-0.183065
1953.95	-0.153365
1955.43	0.0136786
1956.91	-0.248421
1958.39	0.245611
1959.87	0.431093
1961.36	-0.154639
1962.84	0.391555
1964.32	-0.159394
1965.79	-0.539093
1967.27	0.210548
1968.75	-0.118945
1970.23	0.183835
1971.71	0.144309
1973.19	-0.0658941
1974.66	0.594135
1976.14	0.162612
1977.62	0.191727
1979.1	-0.102495
1980.57	-0.0221434
1982.05	-0.0270681
1983.53	0.324424
1985	-0.156632
1986.48	-0.213205
1987.95	-0.151085
1989.43	0.216068
1990.9	0.194156
1992.38	-0.0635605
1993.85	0.0857115
1995.33	0.10049
1996.8	0.031229
1998.27	0.282856
1999.75	0.128695
2001.22	0.193415
2002.69	0.0720415
2004.16	-0.0830708
2005.64	-0.288254
2007.11	0.467531
2008.58	0.230312
2010.05	0.229787
2011.52	-0.0226984
2012.99	-0.190913
2014.46	-0.00609207
2015.93	0.060113
2017.4	0.394464
2018.87	-0.230518
2020.34	0.186292
2021.81	0.115518
2023.28	-0.0723553
2024.75	-0.192164
2026.22	0.343432
2027.69	0.377145
2029.15	0.177579
2030.62	0.566478
2032.09	-0.083847
2033.56	-0.0962114
2035.02	0.546357
2036.49	0.0634308
2037.95	0.184612
2039.42	0.187806
2040.89	0.0396461
2042.35	0.0263147
2043.82	-0.0367451
2045.28	0.237587
2046.75	0.529777
2048.21	-0.120724
2049.67	0.525517
2051.14	0.0922108
2052.6	0.112434
2054.06	0.70426
2055.53	0.248675
2056.99	0.0784798
2058.45	0.194067
2059.92	-0.128543
2061.38	0.206164
2062.84	0.238487
2064.3	-0.148926
2065.76	0.558595
2067.22	0.358197
2068.68	0.360352
2070.14	0.160834
2071.6	0.298033
2073.06	0.165725
2074.52	-0.0847492
2075.98	-0.116665
2077.44	0.507834
2078.9	0.239405
2080.36	0.627244
2081.82	0.441987
2083.27	0.27294
2084.73	0.187372
2086.19	0.336618
2087.65	0.434674
2089.1	-0.022378
2090.56	0.327087
2092.01	0.42429
2093.47	0.236042
2094.93	0.316069
2096.38	0.110583
2097.84	-0.0785427
2099.29	0.351221
2100.75	0.512436
2102.2	0.272586
2103.66	-0.116368
2105.11	0.264106
2106.56	0.378688
2108.02	0.327483
2109.47	0.493422
2110.92	0.442019
2112.37	0.22269
2113.83	0.368255
2115.28	0.179214
2116.73	0.17247
2118.18	0.381973
2119.63	-0.270614
2121.09	0.572475
2122.54	0.571047
2123.99	0.222881
2125.44	-0.0250759
2126.89	0.356788
2128.34	0.173953
2129.79	0.321284
2131.23	0.251901
2132.68	0.529406
2134.13	0.21102
2135.58	0.571655
2137.03	0.685537
2138.48	0.156734
2139.92	0.191729
2141.37	0.360559
2142.82	0.646412
2144.26	0.734627
2145.71	0.359649
2147.16	0.563568
2148.6	0.502007
2150.05	0.572083
2151.49	0.243549
2152.94	0.775611
2154.38	0.428702
2155.83	0.677798
2157.27	0.628747
2158.72	0.0669098
2160.16	0.301455
2161.6	0.620632
2163.05	0.643457
2164.49	0.568282
2165.93	0.759482
2167.38	0.901033
2168.82	0.709223
2170.26	0.764917
2171.7	0.934984
2173.14	1.18628
2174.58	0.937108
2176.03	1.02002
2177.47	0.803821
2178.91	1.00408
2180.35	1.13882
2181.79	0.60941
2183.23	0.911933
2184.67	0.898827
2186.1	1.1187
2187.54	0.706393
2188.98	0.926376
2190.42	0.896753
2191.86	1.06663
2193.3	0.486534
2194.73	0.504498
2196.17	0.870229
2197.61	0.185516
2199.05	1.09611
2200.48	0.658566
2201.92	0.636578
2203.35	0.631863
2204.79	0.545347
2206.22	0.542815
2207.66	0.805882
2209.09	0.969192
2210.53	0.866725
2211.96	0.763345
2213.4	0.444454
2214.83	0.291062
2216.27	0.45208
2217.7	0.515052
2219.13	0.925509
2220.56	0.561743
2222	0.593875
2223.43	0.246356
2224.86	0.358864
2226.29	0.255629
2227.72	0.512629
2229.16	0.24229
2230.59	0.020978
2232.02	0.439028
2233.45	0.21805
2234.88	0.619642
2236.31	0.368183
2237.74	0.363587
2239.17	0.0671778
2240.6	0.392791
2242.03	0.589594
2243.45	0.542999
2244.88	0.431524
2246.31	-0.0883846
2247.74	0.662357
2249.17	0.204129
2250.59	-0.369822
2252.02	0.276253
2253.45	0.318651
2254.87	0.231283
2256.3	0.40524
2257.73	0.402848
2259.15	0.0301828
2260.58	0.0497694
2262	0.152884
2263.43	-0.310774
2264.85	0.167868
2266.28	0.451599
2267.7	0.490805
2269.13	0.447742
2270.55	0.306166
2271.97	0.0988798
2273.4	0.10305
2274.82	0.139894
2276.24	0.502824
2277.66	0.491267
2279.09	0.381957
2280.51	0.386685
2281.93	0.228179
2283.35	0.167397
2284.77	0.335089
2286.19	0.176627
2287.61	-0.0632048
2289.04	0.252583
2290.46	0.258538
2291.88	-0.176592
2293.29	-0.00687027
2294.71	0.441128
2296.13	0.201954
2297.55	0.126276
2298.97	0.345469
2300.39	-0.106935
2301.81	0.145611
2303.23	0.0541582
2304.64	0.0776682
2306.06	0.0190172
2307.48	0.255735
2308.89	-0.264027
2310.31	0.251227
2311.73	0.305852
2313.14	0.0643044
2314.56	0.399079
2315.97	-0.0884848
2317.39	0.528083
2318.8	0.189672
2320.22	0.295983
2321.63	0.74781
2323.05	0.125194
2324.46	0.193329
2325.88	0.325205
2327.29	0.438801
2328.7	0.221889
2330.12	0.384245
2331.53	0.0698872
2332.94	0.23415
2334.35	0.02073
2335.76	-0.0771952
2337.18	-0.126163
2338.59	0.103452
2340	0.200287
2341.41	0.312493
2342.82	0.112237
2344.23	0.387807
2345.64	-0.238107
2347.05	-0.142285
2348.46	0.182618
2349.87	-0.262112
2351.28	0.0776672
2352.69	-0.074028
2354.1	-0.324253
2355.5	-0.085639
2356.91	0.119579
2358.32	0.112885
2359.73	-0.267357
2361.14	-0.0624218
2362.54	0.174494
2363.95	0.0382996
2365.36	0.128842
2366.76	0.235537
2368.17	-0.0610189
2369.58	0.144036
2370.98	0.253362
2372.39	0.267215
2373.79	0.0566235
2375.2	0.812376
2376.6	0.183423
2378	0.358038
2379.41	0.225575
2380.81	-0.0849056
2382.22	0.229233
2383.62	0.205428
2385.02	0.197427
2386.42	0.133931
2387.83	0.0714607
2389.23	0.0979748
2390.63	0.237206
2392.03	-0.0524473
2393.43	0.375249
2394.84	-0.10318
2396.24	-0.183074
2397.64	0.15091
2399.04	-0.0867262
2400.44	-0.323783
2401.84	0.122533
2403.24	0.40994
2404.64	0.426949
2406.04	0.204968
2407.44	-0.303394
2408.83	0.250534
2410.23	0.217074
2411.63	0.294769
2413.03	-0.133566
2414.43	0.0254011
2415.83	0.16991
2417.22	-0.143391
2418.62	-0.0600328
2420.02	0.229597
2421.41	0.154891
2422.81	0.0322876
2424.21	0.78082
2425.6	-0.276894
2427	0.0444365
2428.39	0.430164
2429.79	0.21445
2431.18	0.25311
2432.58	0.355456
2433.97	0.282681
2435.36	0.0498581
2436.76	0.62581
2438.15	0.0245247
2439.54	0.327549
2440.94	0.1531
2442.33	-0.117018
2443.72	0.08883
2445.11	0.00882816
2446.51	0.166558
2447.9	0.00706577
2449.29	-0.073101
2450.68	-0.137148
2452.07	-0.390571
2453.46	-0.0260143
2454.85	0.24428
2456.24	0.0722647
2457.63	0.185308
2459.02	0.203281
2460.41	-0.000717163
2461.8	0.14241
2463.19	0.11081
2464.58	0.220848
2465.97	0.330489
2467.36	0.140014
2468.75	-0.0819054
2470.13	0.26393
2471.52	-0.399834
2472.91	0.291273
2474.29	-0.136972
2475.68	0.0482512
2477.07	0.122793
2478.45	0.212862
2479.84	0.491247
2481.22	0.142177
2482.61	0.0755892
2484	0.353049
2485.38	0.206857
2486.77	0.372286
2488.15	-0.181565
2489.54	0.215875
2490.92	0.160782
2492.3	0.526038
2493.69	0.130694
2495.07	-0.0298347
2496.45	0.0591297
2497.84	0.257211
2499.22	0.57911
2500.6	-0.0896902
2501.98	-0.140034
2503.36	0.0249481
2504.74	0.250428
2506.13	-0.0644712
2507.51	0.436784
2508.89	0.291352
2510.27	0.177372
2511.65	0.0949354
2513.03	0.24334
2514.41	-0.25094
2515.79	0.312429
2517.17	0.309873
2518.55	0.0938158
2519.93	0.000398636
2521.3	0.0748167
2522.68	0.255348
2524.06	0.160257
2525.44	0.399886
2526.82	-0.0920792
2528.19	-0.0198975
2529.57	0.311728
2530.95	0.0670099
2532.32	-0.358229
2533.7	0.220685
2535.08	0.0709867
2536.45	-0.109133
2537.83	0.287378
2539.2	0.348682
2540.58	-0.0463657
2541.95	0.104874
2543.33	0.0590296
2544.7	0.0898724
2546.08	0.303912
2547.45	0.731534
2548.82	0.310546
2550.2	0.329527
2551.57	0.287329
2552.94	0.122799
2554.32	0.0938358
2555.69	0.124686
2557.06	-0.436566
2558.43	-0.0120268
2559.8	-0.118045
2561.17	0.0796089
2562.55	-0.040431
2563.92	-0.205353
2565.29	-0.0061779
2566.66	0.556948
2568.03	0.453376
2569.4	0.3498
2570.77	0.337142
2572.14	-0.236311
2573.51	0.221019
2574.88	0.0872679
2576.24	-0.198089
2577.61	0.244218
2578.98	0.29211
2580.35	-0.175896
2581.72	0.204823
2583.09	0.160602
2584.45	0.131304
2585.82	0.223221
2587.19	0.0575628
2588.55	-0.289757
2589.92	0.0147123
2591.28	0.42509
2592.65	-0.452979
2594.02	0.0318632
2595.38	0.0459986
2596.75	0.255885
2598.11	0.192459
2599.48	0.446213
2600.84	0.110479
2602.2	0.530698
2603.57	0.392658
2604.93	0.376011
2606.3	-0.394656
2607.66	0.403115
2609.02	0.114201
2610.38	0.396768
2611.75	0.0304327
2613.11	0.114677
2614.47	-0.147495
2615.83	0.0257645
2617.19	0.288818
2618.56	0.0427666
2619.92	0.00738716
2621.28	0.19705
2622.64	-0.0164909
2624	0.427496
2625.36	0.423162
2626.72	0.105417
2628.08	0.0560074
2629.44	0.333933
2630.8	-0.117806
2632.15	0.352749
2633.51	0.332306
2634.87	0.148594
2636.23	0.113437
2637.59	0.167222
2638.94	0.591107
2640.3	0.112011
2641.66	-0.0260916
2643.02	0.471505
2644.37	0.0385132
2645.73	0.446925
2647.08	0.471052
2648.44	0.450239
2649.8	0.0165796
2651.15	-0.446326
2652.51	0.0459871
2653.86	0.229403
2655.22	0.354563
2656.57	0.173039
2657.92	-0.0510063
2659.28	0.179554
2660.63	0.293302
2661.99	0.0268135
2663.34	0.110569
2664.69	0.514529
2666.04	0.231627
2667.4	0.196424
2668.75	-0.115491
2670.1	-0.121111
2671.45	0.251792
2672.81	0.276084
2674.16	0.271915
2675.51	0.297352
2676.86	0.453895
2678.21	0.277401
2679.56	0.18883
2680.91	0.217299
2682.26	0.203444
2683.61	0.538774
2684.96	-0.082098
2686.31	0.09513
2687.66	0.170711
2689	0.404857
2690.35	0.0856829
2691.7	-0.0174913
2693.05	0.0520172
2694.4	-0.00999832
2695.74	0.493067
2697.09	0.315411
2698.44	0.0812492
2699.79	0.341111
2701.13	0.443419
2702.48	0.344489
2703.82	-0.0142918
2705.17	0.178017
2706.52	-0.354671
2707.86	0.0841274
2709.21	-0.0722857
2710.55	0.191943
2711.9	0.412499
2713.24	0.444138
2714.58	0.359435
2715.93	0.449084
2717.27	0.189579
2718.61	0.4243
2719.96	0.396834
2721.3	0.296126
2722.64	0.282226
2723.99	0.777288
2725.33	0.151129
2726.67	0.22325
2728.01	0.324146
2729.35	0.235595
2730.7	-0.158649
2732.04	0.290982
2733.38	0.347813
2734.72	0.17207
2736.06	0.403793
2737.4	0.184758
2738.74	0.387464
2740.08	0.24088
2741.42	-0.0660925
2742.76	0.353267
2744.09	0.32119
2745.43	0.114163
2746.77	0.168257
2748.11	0.352741
2749.45	0.0292902
2750.79	-0.13418
2752.12	0.0216608
2753.46	0.337029
2754.8	-0.0430794
2756.13	-0.234537
2757.47	0.385114
2758.81	0.266417
2760.14	0.19157
2761.48	0.218519
2762.81	0.332748
2764.15	0.0421429
2765.49	0.561774
2766.82	-0.307976
2768.15	-0.165844
2769.49	-0.314198
2770.82	0.013093
2772.16	0.035387
2773.49	-0.174242
2774.82	0.250273
2776.16	0.141042
2777.49	0.161878
2778.82	-0.032486
2780.16	0.0613384
2781.49	0.112253
2782.82	-0.0664291
2784.15	0.0275517
2785.48	-0.380245
2786.81	0.129316
2788.15	-0.0197229
2789.48	-0.167855
2790.81	0.0568562
2792.14	0.0820112
2793.47	-0.0782337
2794.8	0.204678
2796.13	0.0727587
2797.46	-0.0453453
2798.79	0.164474
2800.12	-0.225724
2801.44	0.154484
2802.77	-0.0504541
2804.1	0.00106621
2805.43	-0.0618458
2806.76	0.0739889
2808.08	-0.0896749
2809.41	-0.0687551
2810.74	0.221968
2812.07	0.00198841
2813.39	-0.27334
2814.72	0.431214
2816.05	0.045392
2817.37	0.256073
2818.7	-0.000397682
2820.02	0.0974836
2821.35	-0.0176725
2822.67	-0.161802
2824	0.345243
2825.32	0.39844
2826.65	-0.24223
2827.97	0.222208
2829.29	-0.0349245
2830.62	0.232211
2831.94	0.24474
2833.26	0.412915
2834.59	0.354291
2835.91	0.861266
2837.23	0.744951
2838.55	0.840416
2839.88	1.19017
2841.2	1.15812
2842.52	0.999312
2843.84	1.32176
2845.16	1.82865
2846.48	1.95463
2847.8	1.77009
2849.12	1.78344
2850.44	1.47139
2851.76	1.58286
2853.08	1.55245
2854.4	1.94557
2855.72	1.66022
2857.04	2.13776
2858.36	1.86664
2859.68	2.57002
2861	2.65172
2862.32	2.42246
2863.63	2.87037
2864.95	2.78157
2866.27	2.63638
2867.58	3.43644
2868.9	3.75725
2870.22	3.61323
2871.53	4.13194
2872.85	3.80458
2874.17	3.85693
2875.48	3.66858
2876.8	3.73256
2878.11	3.93628
2879.43	3.61909
2880.74	4.2022
2882.06	3.78818
2883.37	3.71277
2884.69	3.76487
2886	3.88783
2887.31	3.8003
2888.63	3.96491
2889.94	4.17062
2891.25	3.64611
2892.57	4.28463
2893.88	4.32002
2895.19	4.03375
2896.5	4.35053
2897.82	4.40246
2899.13	4.60947
2900.44	4.48162
2901.75	4.88591
2903.06	4.2833
2904.37	4.39426
2905.68	5.00909
2906.99	4.89725
2908.3	4.47858
2909.61	4.53646
2910.92	5.65861
2912.23	5.00355
2913.54	5.2994
2914.85	5.18772
2916.16	5.83006
2917.46	6.14846
2918.77	6.50747
2920.08	6.36256
2921.39	6.07875
2922.7	6.38367
2924	6.34073
2925.31	6.67658
2926.62	7.5584
2927.92	7.51773
2929.23	6.93139
2930.53	6.91757
2931.84	7.21074
2933.15	7.07027
2934.45	6.85993
2935.76	6.94328
2937.06	6.91505
2938.37	6.83117
2939.67	6.8315
2940.98	6.21763
2942.28	6.17769
2943.58	6.50255
2944.89	5.97639
2946.19	5.60513
2947.49	5.33224
2948.8	5.32483
2950.1	5.23219
2951.4	5.19357
2952.7	4.99884
2954.01	4.31259
2955.31	4.67603
2956.61	4.50849
2957.91	4.53916
2959.21	4.71285
2960.51	4.87579
2961.81	4.35437
2963.11	4.11367
2964.41	3.90014
2965.71	4.06417
2967.01	4.36716
2968.31	3.37555
2969.61	3.71852
2970.91	3.54115
2972.21	2.82945
2973.51	3.49688
2974.81	3.50312
2976.1	3.08634
2977.4	3.17506
2978.7	2.79738
2980	2.89665
2981.29	2.69901
2982.59	2.3322
2983.89	2.43004
2985.18	2.1214
2986.48	2.20796
2987.78	2.29606
2989.07	1.82316
2990.37	2.09539
2991.66	1.76286
2992.96	1.4715
2994.25	1.34762
2995.55	1.34915
2996.84	1.6027
2998.14	1.33663
2999.43	1.21138
3000.72	0.708243
3002.02	1.32744
3003.31	0.839748
3004.6	0.45058
3005.9	0.649627
3007.19	0.400059
3008.48	0.849526
3009.77	0.556591
3011.07	0.235431
3012.36	0.291367
3013.65	0.235676
3014.94	0.445401
3016.23	0.000859261
3017.52	0.379082
3018.81	0.0338993
3020.1	-0.241211
3021.39	0.150802
3022.68	0.236008
3023.97	-0.193247
3025.26	-0.0123525
3026.55	-0.0396919
3027.84	0.279483
3029.13	0.239821
3030.42	-0.0331011
3031.71	-0.318009
3033	0.0196152
3034.28	0.0124006
3035.57	0.197905
3036.86	0.175235
3038.15	0.219816
3039.43	-0.136535
3040.72	0.0425634
3042.01	-0.0952754
3043.29	-0.0133929
3044.58	-0.0539951
3045.86	-0.188527
3047.15	0.212142
3048.44	0.28699
3049.72	0.418591
3051.01	0.0742435
3052.29	0.3449
3053.58	0.110829
3054.86	0.258265
3056.14	0.309249
3057.43	0.263807
3058.71	0.14963
3060	0.457513
3061.28	0.49336
3062.56	0.244643
3063.84	0.283118
3065.13	0.472758
3066.41	0.56874
3067.69	0.557113
3068.97	0.32841
3070.25	0.589127
3071.54	0.332303
3072.82	-0.0751338
3074.1	0.0603662
3075.38	-0.402853
3076.66	-0.200343
3077.94	-0.255414
3079.22	0.192706
3080.5	0.0452838
3081.78	0.184409
3083.06	-0.0956798
3084.34	-0.00869513
3085.62	-0.0164747
3086.9	-0.0516806
3088.17	0.156918
3089.45	0.188535
3090.73	0.0841575
3092.01	0.0747986
3093.29	0.119997
3094.56	-0.0784774
3095.84	-0.384927
3097.12	-0.0267692
3098.4	0.14163
3099.67	0.147368
3100.95	0.288626
3102.22	-0.057467
3103.5	0.152138
3104.77	0.213406
3106.05	-0.157541
3107.33	-0.162022
3108.6	0.172939
3109.88	0.441488
3111.15	0.237387
3112.43	0.72486
3113.7	0.522208
3114.97	0.563566
3116.25	0.333444
3117.52	0.441653
3118.79	0.372673
3120.07	0.316425
3121.34	0.89672
3122.61	0.852805
3123.88	0.551559
3125.16	0.643603
3126.43	0.438432
3127.7	0.166542
3128.97	0.260705
3130.24	0.517597
3131.51	0.598939
3132.78	0.761351
3134.05	0.666903
3135.33	0.680268
3136.59	0.706762
3137.86	0.773431
3139.14	0.785997
3140.41	0.946665
3141.67	0.932513
3142.94	0.475549
3144.21	0.932953
3145.48	0.840431
3146.75	0.842813
3148.02	1.27477
3149.28	1.35888
