200.388	0.418055
202.204	0.497801
204.019	0.578905
205.832	-0.190178
207.646	0.937679
209.459	0.921043
211.274	0.732067
213.087	1.05013
214.899	0.516348
216.711	-0.28484
218.524	0.198408
220.335	1.11703
222.146	0.46331
223.956	0.415741
225.766	-0.235479
227.576	-0.137655
229.388	0.755888
231.197	0.343779
233.005	-0.38261
234.813	-0.433167
236.621	0.506048
238.429	-0.0706882
240.236	-0.0653954
242.045	0.328936
243.852	-0.239708
245.658	0.445562
247.464	0.0178242
249.269	0.0438709
251.074	0.523125
252.879	-0.957874
254.683	-0.00442123
256.487	-0.210485
258.291	0.717054
260.094	0.104225
261.897	-0.216681
263.702	0.500568
265.504	0.616835
267.306	0.299473
269.108	0.921148
270.909	0.335793
272.71	-0.420767
274.511	-0.528996
276.311	0.709776
278.111	-0.368858
279.91	-0.534855
281.709	-0.150583
283.508	0.494339
285.306	0.99122
287.105	0.26132
288.9	0.347639
290.698	0.266891
292.495	-0.0993156
294.291	0.445986
296.088	0.394909
297.884	0.297436
299.679	-0.277376
301.475	0.365677
303.27	-0.616933
305.064	0.618513
306.858	0.75363
308.652	0.72094
310.444	-0.764698
312.237	0.5151
314.03	0.915283
315.822	0.579811
317.615	0.413452
319.406	0.91609
321.198	0.252778
322.987	0.638843
324.778	0.214459
326.568	0.505658
328.358	-0.0874834
330.148	0.775558
331.935	0.417509
333.724	0.247673
335.513	0.744233
337.301	0.854086
339.089	0.481801
340.875	0.89612
342.662	0.734781
344.449	0.358087
346.236	0.459796
348.02	0.753179
349.806	0.473998
351.592	1.2449
353.375	0.821182
355.16	0.872928
356.944	0.159307
358.728	-0.222256
360.51	0.0376263
362.294	0.438279
364.077	-0.209354
365.858	-0.144537
367.64	-0.223645
369.422	0.24125
371.202	0.253567
372.983	0.122585
374.764	0.13286
376.543	0.190115
378.324	0.625042
380.102	-0.282622
381.881	-0.104474
383.661	-0.489511
385.438	0.44396
387.216	-0.313753
388.993	0.245925
390.771	0.430782
392.548	-0.0879526
394.324	0.0750389
396.101	1.15429
397.875	1.29411
399.651	0.822831
401.425	1.31363
403.201	-0.00529671
404.974	-0.104147
406.749	0.147981
408.524	1.17368
410.296	0.179526
412.07	0.476367
413.841	0.796946
415.614	0.367496
417.385	0.197124
419.156	0.215207
420.928	0.609043
422.698	0.0400105
424.469	0.526117
426.238	0.18904
428.009	0.437458
429.777	0.943088
431.548	-0.0772009
433.315	0.569201
435.083	0.13631
436.852	0.102227
438.618	0.747594
440.387	0.498884
442.153	0.317554
443.919	0.320615
445.686	1.11722
447.451	0.927444
449.218	0.783837
450.982	0.0797062
452.746	0.941155
454.512	0.495168
456.275	-0.183344
458.038	0.34988
459.803	0.0444374
461.565	0.112297
463.327	0.716668
465.091	0.533948
466.852	0.35536
468.613	0.25029
470.374	0.264106
472.136	-0.000417709
473.896	0.874457
475.655	1.09526
477.415	0.4275
479.176	0.478863
480.934	1.13414
482.692	0.950884
484.45	0.792528
486.21	0.823285
487.967	0.973742
489.724	0.754248
491.481	1.21287
493.237	1.20597
494.995	0.801765
496.75	0.53702
498.506	1.65361
500.26	0.989202
502.015	0.604219
503.769	0.663497
505.525	0.486066
507.279	0.541465
509.032	1.25325
510.785	1.63348
512.537	0.387583
514.289	0.998229
516.041	0.947839
517.793	0.142999
519.546	0.301004
521.297	1.37403
523.047	0.80125
524.797	0.604199
526.547	0.97026
528.297	0.538706
530.046	0.974469
531.795	0.753295
533.543	1.60787
535.291	0.845471
537.039	0.43266
538.787	0.485418
540.534	0.746118
542.281	0.0265942
544.027	0.564456
545.773	0.77556
547.519	0.893521
549.264	0.524683
551.01	0.735877
552.754	0.414803
554.499	1.20378
556.243	0.537227
557.987	0.933324
559.73	0.0621996
561.474	0.275314
563.216	1.01794
564.959	-0.00958443
566.701	0.412333
568.441	0.421658
570.182	0.547212
571.923	0.0093689
573.664	-0.0671473
575.405	1.35
577.145	0.246133
578.885	0.520844
580.624	0.245768
582.361	0.361242
584.1	0.108232
585.839	-0.284451
587.577	0.885098
589.315	0.580768
591.052	-0.070179
592.787	0.566479
594.524	0.972764
596.26	-0.277421
597.997	0.105846
599.732	0.235526
601.466	0.202973
603.201	-0.0843954
604.936	-0.419679
606.67	0.530221
608.403	0.306641
610.136	0.220737
611.87	0.158518
613.603	-0.682051
615.334	-0.214569
617.067	0.436127
618.799	0.352757
620.529	0.290802
622.26	0.661703
623.991	-0.29513
625.72	-0.542512
627.451	-0.514233
629.181	-0.255078
630.909	0.167016
632.638	0.455196
634.368	0.494077
636.095	-0.403292
637.823	0.500211
639.551	-0.152333
641.277	-0.215551
643.005	0.0596037
644.73	0.514532
646.457	0.354743
648.184	0.197899
649.908	0.6593
651.634	0.444612
653.357	-0.0597897
655.083	0.0543079
656.806	0.0581884
658.53	-0.278298
660.253	0.205438
661.977	0.00279427
663.7	-0.226292
665.422	0.272539
667.145	0.197165
668.865	-0.131005
670.588	0.296462
672.308	-0.0281601
674.027	0.703829
675.749	0.156733
677.468	0.505333
679.188	0.556425
680.907	0.560265
682.627	0.124393
684.345	0.0531826
686.064	0.301379
687.781	0.73165
689.498	0.791858
691.216	-0.39294
692.932	-0.242577
694.65	0.505564
696.366	0.699408
698.081	0.0166092
699.797	0.483044
701.512	0.418376
703.228	0.0995417
704.942	1.04335
706.655	1.15878
708.371	1.11286
710.083	0.149931
711.796	-0.239547
713.51	0.0345345
715.222	0.193608
716.934	-0.309796
718.645	0.374062
720.358	-0.698016
722.068	0.896413
723.779	0.895523
725.49	0.598932
727.2	0.779479
728.909	0.618719
730.618	0.344261
732.329	0.273616
734.037	0.383867
735.745	0.765217
737.453	0.310865
739.16	0.196761
740.869	-0.0284786
742.576	-0.206581
744.282	0.900732
745.988	0.906391
747.694	0.0142899
749.401	0.564075
751.107	0.913255
752.811	-0.287623
754.516	0.312921
756.22	1.11848
757.924	0.801263
759.627	0.530963
761.332	0.803104
763.035	0.918588
764.738	0.49205
766.44	0.673461
768.142	0.106564
769.843	0.440724
771.544	0.907824
773.245	0.355292
774.946	1.20402
776.646	0.696815
778.346	1.77426
780.046	1.42956
781.745	1.6068
783.444	2.14662
785.143	1.44015
786.841	0.843311
788.539	1.60007
790.237	0.292962
791.934	0.814527
793.631	0.474771
795.328	1.62408
797.024	0.721597
798.72	1.4445
800.416	0.255972
802.112	1.23056
803.807	1.62071
805.502	0.549201
807.196	0.870684
808.89	0.763524
810.584	1.19345
812.278	1.21778
813.971	0.524251
815.664	2.02548
817.354	1.19789
819.047	1.35517
820.739	1.8251
822.43	1.96018
824.122	1.73953
825.813	1.96697
827.503	1.97469
829.192	1.94207
830.882	2.27047
832.571	2.02423
834.261	1.49137
835.95	2.05246
837.637	2.1454
839.325	1.65621
841.013	1.23131
842.701	1.69788
844.389	1.1136
846.074	1.82641
847.761	1.22308
849.447	0.488512
851.131	1.99563
852.817	1.76028
854.503	1.84013
856.188	1.40341
857.871	0.402164
859.556	0.859483
861.24	0.639409
862.922	1.02502
864.606	0.800634
866.289	0.822752
867.97	0.934171
869.653	1.18033
871.336	0.70431
873.016	0.0474033
874.698	1.10508
876.379	1.05733
878.058	0.332551
879.739	0.374962
881.418	1.56825
883.098	1.519
884.778	1.3553
886.456	1.52814
888.135	0.457641
889.812	0.581003
891.49	0.837331
893.167	0.393273
894.845	1.29834
896.523	0.401781
898.198	1.59412
899.875	1.88519
901.55	1.21096
903.226	0.313755
904.901	1.29589
906.576	1.29377
908.25	0.802162
909.925	1.64918
911.598	0.760592
913.271	1.49731
914.945	0.923162
916.617	0.416801
918.291	0.886489
919.962	0.181981
921.635	0.20958
923.306	1.71979
924.978	0.756222
926.648	0.414731
928.318	1.15755
929.989	1.61502
931.659	1.21299
933.328	1.38513
934.998	1.02816
936.666	0.671928
938.336	1.30947
940.004	1.46368
941.671	1.42129
943.34	1.62283
945.007	1.49328
946.673	0.743968
948.339	0.565881
950.007	1.59889
951.672	0.59973
953.337	0.924541
955.004	2.04526
956.669	0.832663
958.333	0.94797
959.997	0.582056
961.662	0.681925
963.326	0.78191
964.989	-0.0271149
966.651	1.28338
968.315	0.554588
969.977	0.840395
971.639	0.571787
973.301	1.25484
974.962	0.303497
976.624	0.836529
978.285	0.730533
979.945	0.669822
981.605	0.608612
983.264	1.18749
984.924	1.14372
986.583	1.22964
988.243	1.33489
989.901	1.54868
991.56	0.36889
993.217	0.692172
994.875	0.750339
996.532	0.698346
998.188	1.68275
999.845	2.51142
1001.5	3.18433
1003.16	3.34948
1004.81	2.74415
1006.47	2.20544
1008.12	1.57987
1009.78	1.17516
1011.43	0.596253
1013.09	1.00505
1014.74	0.756882
1016.39	0.422061
1018.05	0.329062
1019.7	0.937216
1021.35	0.715677
1023	0.780111
1024.65	0.933424
1026.31	0.912836
1027.96	0.957908
1029.61	1.28609
1031.26	0.36746
1032.91	2.32884
1034.56	1.40559
1036.21	0.830246
1037.86	1.10414
1039.51	0.267297
1041.16	0.890042
1042.8	0.861758
1044.45	0.510226
1046.1	0.0966902
1047.75	1.05429
1049.39	1.01531
1051.04	0.500447
1052.69	1.0729
1054.33	0.472811
1055.98	0.633218
1057.62	0.380273
1059.27	0.104827
1060.91	1.11134
1062.56	0.333752
1064.2	0.120229
1065.85	-0.464275
1067.49	0.514821
1069.13	0.927014
1070.77	0.165211
1072.42	0.87993
1074.06	0.574952
1075.7	0.55369
1077.34	0.8814
1078.98	1.2543
1080.62	0.609226
1082.27	0.63646
1083.91	0.857615
1085.55	1.033
1087.18	1.33523
1088.82	0.919389
1090.46	0.955869
1092.1	0.795937
1093.74	0.82988
1095.38	1.48972
1097.02	0.834647
1098.65	0.290381
1100.29	1.04105
1101.93	0.782507
1103.56	0.397756
1105.2	0.832511
1106.84	0.816439
1108.47	2.24084
1110.11	0.803523
1111.74	0.76176
1113.38	0.868008
1115.01	0.929318
1116.64	1.05397
1118.28	0.771277
1119.91	0.447111
1121.54	0.360332
1123.18	1.30256
1124.81	1.71069
1126.44	0.879378
1128.07	1.28998
1129.7	0.440054
1131.33	0.660162
1132.97	0.752451
1134.6	0.609443
1136.23	0.50834
1137.86	0.341684
1139.49	1.11324
1141.11	0.0678864
1142.74	0.32448
1144.37	0.772936
1146	0.752963
1147.63	-0.075386
1149.26	0.184617
1150.88	0.402635
1152.51	-0.146015
1154.14	0.816706
1155.76	0.565163
1157.39	0.0370016
1159.01	0.317904
1160.64	-0.0593376
1162.27	-0.519917
1163.89	-0.107305
1165.51	0.518685
1167.14	-0.0675507
1168.76	-0.144909
1170.39	-0.203292
1172.01	0.776674
1173.63	0.479079
1175.25	0.561939
1176.88	-0.0344963
1178.5	0.0692883
1180.12	0.872418
1181.74	-0.354987
1183.36	-0.0365868
1184.98	0.598527
1186.6	-0.183198
1188.22	-0.396314
1189.84	0.294642
1191.46	-0.408136
1193.08	0.423623
1194.7	0.0971289
1196.32	0.526345
1197.94	0.32754
1199.55	-0.0147104
1201.17	0.211195
1202.79	0.85811
1204.41	0.840286
1206.02	1.13865
1207.64	1.35551
1209.25	1.05132
1210.87	0.704388
1212.48	0.480325
1214.1	1.31605
1215.71	1.46018
1217.33	0.685979
1218.94	1.74051
1220.56	0.965796
1222.17	1.00245
1223.79	1.80752
1225.4	1.41271
1227.01	2.17953
1228.62	1.95496
1230.23	3.11783
1231.85	2.25624
1233.46	2.88497
1235.07	2.3169
1236.68	2.22609
1238.29	2.9638
1239.9	2.46224
1241.51	2.16759
1243.12	2.51366
1244.73	3.00351
1246.34	2.78828
1247.94	2.24034
1249.55	2.74647
1251.16	2.71408
1252.77	2.86816
1254.37	2.71307
1255.98	2.29078
1257.59	2.47023
1259.2	3.45859
1260.8	1.96505
1262.41	3.49445
1264.01	2.39425
1265.62	2.55672
1267.22	3.27783
1268.83	2.81602
1270.43	2.62196
1272.03	3.11048
1273.64	2.89241
1275.24	2.90082
1276.85	2.72124
1278.45	2.68548
1280.05	2.7316
1281.65	2.44602
1283.25	2.98834
1284.85	2.86929
1286.46	3.5166
1288.06	2.96647
1289.66	3.69925
1291.26	3.13094
1292.86	3.43042
1294.46	2.46851
1296.06	3.28122
1297.66	3.36828
1299.25	3.30815
1300.85	3.61677
1302.45	3.20189
1304.05	3.73289
1305.65	3.89161
1307.24	4.06967
1308.84	3.79549
1310.43	3.00955
1312.03	3.57701
1313.63	3.36733
1315.22	4.67173
1316.82	3.8317
1318.41	3.606
1320.01	4.15521
1321.6	3.15399
1323.2	3.47496
1324.79	3.58922
1326.38	3.98512
1327.98	4.03436
1329.57	3.96278
1331.16	4.23774
1332.76	3.58631
1334.35	3.88857
1335.94	3.99134
1337.53	4.55887
1339.12	4.17737
1340.71	3.83397
1342.3	4.03104
1343.89	3.56109
1345.48	3.8533
1347.07	3.32268
1348.66	3.11639
1350.25	3.87494
1351.84	2.97646
1353.43	2.56196
1355.01	2.96927
1356.6	3.0173
1358.19	2.94481
1359.77	3.17045
1361.36	2.69562
1362.95	2.67877
1364.53	2.70122
1366.12	2.50481
1367.71	1.9314
1369.29	3.01246
1370.88	2.2243
1372.46	1.97576
1374.04	2.38552
1375.63	2.27895
1377.21	2.29194
1378.8	2.14503
1380.38	2.03643
1381.96	2.20446
1383.54	2.07215
1385.13	2.47513
1386.71	1.60547
1388.29	1.74957
1389.87	2.23191
1391.45	2.23896
1393.03	2.18768
1394.61	1.81968
1396.19	1.64988
1397.77	1.43954
1399.35	1.64405
1400.93	1.86679
1402.51	1.81129
1404.09	1.97337
1405.67	1.58232
1407.24	2.08228
1408.82	1.75323
1410.4	2.05724
1411.98	2.32153
1413.55	2.01234
1415.13	1.64287
1416.71	2.37689
1418.28	2.79412
1419.86	2.48246
1421.43	2.29076
1423.01	1.6881
1424.58	2.58386
1426.16	2.30047
1427.73	2.07695
1429.31	2.34513
1430.88	2.53326
1432.45	3.15255
1434.02	3.33722
1435.6	3.63903
1437.17	3.92126
1438.74	4.42067
1440.31	4.70533
1441.88	4.69673
1443.45	4.29623
1445.03	4.70215
1446.6	5.246
1448.17	4.31586
1449.74	5.41088
1451.3	5.09124
1452.87	5.08704
1454.44	5.10315
1456.01	5.70949
1457.58	5.01616
1459.15	4.9897
1460.72	4.80295
1462.28	4.37707
1463.85	5.01071
1465.42	3.83359
1466.98	3.91431
1468.55	3.11195
1470.12	3.64614
1471.68	3.2596
1473.25	3.36523
1474.81	2.23662
1476.38	2.40301
1477.94	2.00098
1479.51	1.95176
1481.07	1.9808
1482.63	1.73534
1484.2	1.54852
1485.76	1.38087
1487.32	2.05442
1488.88	1.02243
1490.45	2.02388
1492.01	2.08241
1493.57	1.55171
1495.13	1.50734
1496.69	1.55894
1498.25	1.47379
1499.81	1.35068
1501.37	1.07401
1502.93	2.09889
1504.49	0.778622
1506.05	0.796856
1507.61	1.37511
1509.17	0.791647
1510.73	1.19206
1512.28	1.28192
1513.84	0.947551
1515.4	2.24812
1516.96	0.800859
1518.51	0.988044
1520.07	1.21394
1521.63	0.635963
1523.18	0.957204
1524.74	0.665734
1526.29	0.659673
1527.85	0.861854
1529.4	1.42399
1530.96	1.43379
1532.51	0.913301
1534.06	0.565769
1535.62	0.844605
1537.17	0.821745
1538.72	1.70586
1540.28	1.21219
1541.83	1.02104
1543.38	1.13124
1544.93	1.25975
1546.48	0.974466
1548.03	1.19614
1549.59	1.8484
1551.14	1.07645
1552.69	1.48519
1554.24	1.7449
1555.79	1.315
1557.34	0.943983
1558.88	0.91168
1560.43	0.863178
1561.98	1.41369
1563.53	1.35008
1565.08	1.45515
1566.62	1.70966
1568.17	1.53465
1569.72	1.82572
1571.27	1.55627
1572.81	1.58505
1574.36	1.91228
1575.9	1.54882
1577.45	1.63361
1579	1.90563
1580.54	2.25319
1582.09	1.5187
1583.63	1.6069
1585.17	2.16334
1586.72	2.68348
1588.26	0.903653
1589.8	1.51716
1591.35	2.05568
1592.89	2.3692
1594.43	2.30785
1595.97	1.87175
1597.52	2.03563
1599.06	2.83797
1600.6	2.59151
1602.14	2.77711
1603.68	2.92533
1605.22	3.16667
1606.76	2.57935
1608.3	3.39871
1609.84	2.71119
1611.38	2.34004
1612.92	3.20587
1614.46	2.6424
1615.99	2.79168
1617.53	2.77265
1619.07	1.70607
1620.61	2.06569
1622.14	2.7827
1623.68	2.20885
1625.22	2.57116
1626.75	2.22115
1628.29	2.5618
1629.82	2.32051
1631.36	1.96585
1632.9	2.5449
1634.43	2.07825
1635.96	2.99382
1637.5	2.88408
1639.03	2.86854
1640.57	2.70399
1642.1	3.65649
1643.63	3.58239
1645.16	4.13927
1646.7	3.87577
1648.23	3.68643
1649.76	3.60927
1651.29	4.16454
1652.82	4.3501
1654.36	4.4816
1655.89	4.41013
1657.42	5.28361
1658.95	4.11786
1660.48	4.74688
1662.01	4.57736
1663.53	4.23987
1665.06	4.5669
1666.59	5.11534
1668.12	4.81628
1669.65	4.77795
1671.18	3.94973
1672.7	4.17367
1674.23	4.01151
1675.76	3.70183
1677.29	3.61201
1678.81	3.09755
1680.34	2.87623
1681.86	3.07667
1683.39	3.31304
1684.91	2.99864
1686.44	2.96018
1687.96	2.37253
1689.49	2.33562
1691.01	2.02443
1692.54	1.38424
1694.06	1.89694
1695.58	1.75073
1697.11	1.87839
1698.63	1.18367
1700.15	1.03671
1701.67	1.14458
1703.2	1.68895
1704.72	1.63078
1706.24	0.298391
1707.76	0.585871
1709.28	1.07251
1710.8	1.64913
1712.32	0.611145
1713.84	0.770859
1715.36	1.03899
1716.88	-0.0500307
1718.4	0.687963
1719.91	0.485593
1721.43	0.518288
1722.95	0.353264
1724.47	0.568009
1725.99	0.135793
1727.5	0.767573
1729.02	0.410413
1730.54	0.251624
1732.05	0.608403
1733.57	0.870664
1735.09	1.32058
1736.6	0.319819
1738.12	0.868514
1739.63	0.486277
1741.15	0.189081
1742.66	-0.0299339
1744.18	0.0670633
1745.69	0.464478
1747.2	0.128301
1748.72	0.0821218
1750.23	0.398307
1751.74	0.299256
1753.25	0.258843
1754.77	0.23714
1756.28	0.459105
1757.79	0.111093
1759.3	0.192241
1760.81	0.142675
1762.32	0.262527
1763.83	0.22753
1765.34	0.215586
1766.85	0.189937
1768.36	0.0340815
1769.87	0.378759
1771.38	0.0751257
1772.89	0.234921
1774.4	0.269976
1775.91	0.206503
1777.41	0.43595
1778.92	-0.14637
1780.43	0.463582
1781.94	0.291663
1783.44	0.0991507
1784.95	0.36518
1786.45	0.0725718
1787.96	-0.18703
1789.47	-0.192685
1790.97	-0.061614
1792.47	0.167825
1793.98	0.0848827
1795.48	0.0525208
1796.99	0.301449
1798.49	-0.330741
1800	-0.257507
1801.5	0.0289021
1803	0.0959101
1804.51	0.165986
1806.01	-0.0242224
1807.51	0.228947
1809.01	0.362461
1810.51	-0.166962
1812.02	0.370798
1813.52	0.348315
1815.02	0.0394888
1816.52	-0.101559
1818.02	-0.204089
1819.52	-0.0397911
1821.02	-0.0266895
1822.52	-0.0223122
1824.02	0.0519104
1825.51	0.128652
1827.01	0.262956
1828.51	0.240923
1830.01	0.43149
1831.51	-0.0249138
1833	0.0295591
1834.5	-0.000289917
1836	0.188512
1837.49	-0.0392685
1838.99	0.437083
1840.49	0.0865278
1841.98	-0.128089
1843.48	0.242074
1844.97	0.142779
1846.47	0.20464
1847.96	-0.334639
1849.46	-0.32536
1850.95	-0.360357
1852.45	-0.122029
1853.94	0.0187092
1855.43	0.37953
1856.92	0.409081
1858.42	0.52557
1859.91	0.0592384
1861.4	0.436094
1862.89	0.30249
1864.39	0.263492
1865.88	0.212658
1867.37	0.289921
1868.86	0.173722
1870.35	0.239888
1871.84	0.248576
1873.33	0.00647259
1874.82	0.181521
1876.31	-0.0731955
1877.8	0.016428
1879.29	-0.0804214
1880.77	-0.355267
1882.26	-0.108134
1882.52	-0.0464783
1884.02	0.319733
1885.51	0.109671
1887.01	0.0903416
1888.5	0.140051
1889.99	0.0681381
1891.49	-0.315591
1892.98	0.224247
1894.47	0.192369
1895.96	0.40576
1897.46	0.0289249
1898.95	0.173647
1900.44	-0.152518
1901.93	-0.0456791
1903.42	-0.0105124
1904.91	-0.463802
1906.4	-0.187842
1907.89	-0.0337696
1909.38	0.39857
1910.87	-0.192029
1912.36	0.120794
1913.85	0.156648
1915.34	0.261953
1916.83	0.1241
1918.32	-0.204984
1919.8	0.0373812
1921.29	0.262152
1922.78	0.227529
1924.27	-0.152287
1925.75	0.12713
1927.24	0.061554
1928.73	-0.0379076
1930.21	0.260842
1931.7	0.0737944
1933.18	-0.0976257
1934.67	0.0751696
1936.15	-0.203975
1937.64	0.155558
1939.12	0.151218
1940.61	0.509838
1942.09	-0.23542
1943.57	0.108005
1945.06	0.228005
1946.54	-0.0825996
1948.02	-0.0486126
1949.51	0.105069
1950.99	-0.0524817
1952.47	0.425723
1953.95	0.472727
1955.43	0.330542
1956.91	0.429428
1958.39	-0.346278
1959.87	0.234847
1961.36	0.0444765
1962.84	0.317279
1964.32	-0.112814
1965.79	-0.0293589
1967.27	-0.015255
1968.75	0.254631
1970.23	0.147414
1971.71	0.227917
1973.19	-0.13553
1974.66	0.252103
1976.14	0.128082
1977.62	0.447275
1979.1	-0.629571
1980.57	-0.276196
1982.05	-0.0934792
1983.53	0.105622
1985	0.439827
1986.48	0.230489
1987.95	0.394279
1989.43	-0.0514221
1990.9	0.265801
1992.38	0.296224
1993.85	0.0404243
1995.33	0.411057
1996.8	0.359621
1998.27	-0.0464792
1999.75	0.138075
2001.22	0.0855198
2002.69	0.0324354
2004.16	0.36697
2005.64	0.0612793
2007.11	0.0093689
2008.58	-0.22664
2010.05	0.430723
2011.52	-0.0898151
2012.99	-0.0547304
2014.46	0.0135145
2015.93	0.148133
2017.4	0.483426
2018.87	0.296318
2020.34	0.377572
2021.81	-0.0116444
2023.28	0.120247
2024.75	-0.183293
2026.22	0.303082
2027.69	-0.0476255
2029.15	-0.128228
2030.62	0.228847
2032.09	-0.36929
2033.56	0.476423
2035.02	0.214373
2036.49	-0.0987129
2037.95	0.377167
2039.42	0.113307
2040.89	0.151846
2042.35	-0.0445518
2043.82	0.113008
2045.28	-0.0143242
2046.75	0.414669
2048.21	0.0527706
2049.67	0.0777569
2051.14	-0.0501528
2052.6	0.342901
2054.06	0.362877
2055.53	-0.141961
2056.99	0.380182
2058.45	0.563992
2059.92	0.343207
2061.38	0.358811
2062.84	0.577362
2064.3	-0.364221
2065.76	0.193283
2067.22	-0.0392237
2068.68	-0.0186214
2070.14	-0.300648
2071.6	-0.161798
2073.06	0.34736
2074.52	0.233272
2075.98	0.421898
2077.44	0.138577
2078.9	-0.060997
2080.36	0.159902
2081.82	0.464293
2083.27	0.111315
2084.73	0.212018
2086.19	0.109945
2087.65	-0.0768194
2089.1	0.408352
2090.56	0.456074
2092.01	0.419715
2093.47	0.282615
2094.93	0.782633
2096.38	0.32616
2097.84	0.57294
2099.29	0.283076
2100.75	0.277577
2102.2	0.322469
2103.66	0.217977
2105.11	0.281985
2106.56	0.180708
2108.02	0.44764
2109.47	0.331323
2110.92	-0.0856075
2112.37	0.396094
2113.83	0.25918
2115.28	0.603162
2116.73	0.529894
2118.18	0.374073
2119.63	0.137049
2121.09	0.400177
2122.54	0.615579
2123.99	0.467787
2125.44	0.735318
2126.89	0.571434
2128.34	0.721387
2129.79	1.01877
2131.23	0.237795
2132.68	0.764405
2134.13	0.380519
2135.58	0.576651
2137.03	0.493325
2138.48	1.50289
2139.92	0.895073
2141.37	0.718827
2142.82	0.957277
2144.26	0.799647
2145.71	0.807554
2147.16	1.31184
2148.6	0.77228
2150.05	0.811237
2151.49	1.08102
2152.94	0.95201
2154.38	1.31909
2155.83	1.47019
2157.27	1.1244
2158.72	1.32613
2160.16	1.34725
2161.6	1.50306
2163.05	1.6115
2164.49	1.57263
2165.93	1.93321
2167.38	1.89546
2168.82	1.62361
2170.26	1.46571
2171.7	1.60459
2173.14	1.97402
2174.58	1.27713
2176.03	1.39465
2177.47	1.49574
2178.91	1.53122
2180.35	1.78402
2181.79	1.37286
2183.23	1.02882
2184.67	1.5
2186.1	1.33929
2187.54	1.54461
2188.98	1.26742
2190.42	1.60601
2191.86	1.56148
2193.3	1.48273
2194.73	1.08604
2196.17	1.46967
2197.61	1.48458
2199.05	1.33111
2200.48	0.860924
2201.92	1.02214
2203.35	1.13412
2204.79	1.19753
2206.22	1.04664
2207.66	0.946229
2209.09	1.01129
2210.53	1.14158
2211.96	0.873553
2213.4	0.935586
2214.83	0.634006
2216.27	0.779193
2217.7	0.760556
2219.13	1.27108
2220.56	0.628287
2222	0.760645
2223.43	0.661451
2224.86	0.346702
2226.29	0.244328
2227.72	0.715691
2229.16	0.462029
2230.59	1.17592
2232.02	0.806447
2233.45	0.454494
2234.88	0.611048
2236.31	0.42558
2237.74	0.209568
2239.17	0.844391
2240.6	0.763351
2242.03	0.505053
2243.45	0.54179
2244.88	0.220098
2246.31	0.370692
2247.74	0.649947
2249.17	0.404894
2250.59	0.418235
2252.02	0.49467
2253.45	0.618783
2254.87	0.466809
2256.3	0.154397
2257.73	0.0397024
2259.15	0.13912
2260.58	0.128189
2262	0.152416
2263.43	-0.0489302
2264.85	0.302351
2266.28	0.637383
2267.7	0.158436
2269.13	0.345304
2270.55	0.124413
2271.97	0.2285
2273.4	0.381295
2274.82	0.485391
2276.24	0.149825
2277.66	0.694388
2279.09	0.473103
2280.51	0.382092
2281.93	0.453996
2283.35	0.330053
2284.77	0.238739
2286.19	0.0333595
2287.61	0.481382
2289.04	0.162529
2290.46	0.18702
2291.88	0.42436
2293.29	0.35131
2294.71	0.261809
2296.13	-0.00791645
2297.55	0.115077
2298.97	-0.0402718
2300.39	0.148641
2301.81	0.436419
2303.23	0.183404
2304.64	0.439159
2306.06	-0.0932217
2307.48	0.0964613
2308.89	0.0555754
2310.31	0.441555
2311.73	0.366759
2313.14	0.456412
2314.56	0.233845
2315.97	0.275392
2317.39	-0.0940332
2318.8	0.212498
2320.22	0.00780678
2321.63	0.445233
2323.05	-0.0269299
2324.46	0.52149
2325.88	0.423697
2327.29	0.390024
2328.7	0.734567
2330.12	0.568329
2331.53	0.485597
2332.94	-0.0566149
2334.35	-0.136868
2335.76	0.424756
2337.18	-0.214972
2338.59	0.0653095
2340	-0.13244
2341.41	-0.626585
2342.82	0.208644
2344.23	0.255529
2345.64	0.204326
2347.05	-0.0430422
2348.46	-0.273704
2349.87	0.16621
2351.28	0.294067
2352.69	0.257287
2354.1	-0.30262
2355.5	-0.0308599
2356.91	-0.346203
2358.32	-0.351873
2359.73	-0.0811977
2361.14	0.367538
2362.54	0.166791
2363.95	-0.244193
2365.36	-0.0881157
2366.76	0.277924
2368.17	0.143389
2369.58	0.365131
2370.98	-0.105115
2372.39	-0.122229
2373.79	-0.363682
2375.2	0.135916
2376.6	0.280704
2378	-0.138655
2379.41	0.0514469
2380.81	0.143078
2382.22	-0.0717163
2383.62	0.241518
2385.02	0.0258512
2386.42	-0.0929899
2387.83	-0.210598
2389.23	0.374837
2390.63	-0.281955
2392.03	0.177896
2393.43	0.0177498
2394.84	0.033618
2396.24	0.177429
2397.64	-0.0119123
2399.04	-0.0575209
2400.44	-0.0866919
2401.84	0.106854
2403.24	-0.366629
2404.64	-0.173453
2406.04	0.0663204
2407.44	0.0510302
2408.83	0.288633
2410.23	0.0659342
2411.63	0.097187
2413.03	-0.694204
2414.43	-0.328023
2415.83	-0.0870829
2417.22	0.28192
2418.62	0.240332
2420.02	0.325833
2421.41	0.221139
2422.81	0.290287
2424.21	0.327436
2425.6	0.22204
2427	0.085475
2428.39	0.17173
2429.79	-0.0739651
2431.18	0.045804
2432.58	0.14997
2433.97	-0.111618
2435.36	-0.0409975
2436.76	-0.1785
2438.15	-0.206424
2439.54	0.4632
2440.94	0.321565
2442.33	0.433393
2443.72	0.513065
2445.11	0.180067
2446.51	0.148403
2447.9	0.069068
2449.29	0.290737
2450.68	0.0691242
2452.07	-0.199229
2453.46	0.26127
2454.85	-0.305822
2456.24	0.314368
2457.63	-0.188255
2459.02	0.115663
2460.41	0.150038
2461.8	0.230932
2463.19	0.48475
2464.58	0.0899429
2465.97	0.105721
2467.36	0.326578
2468.75	0.152712
2470.13	0.231104
2471.52	-0.195494
2472.91	0.385847
2474.29	-0.0104456
2475.68	-0.218114
2477.07	-0.080081
2478.45	0.403154
2479.84	-0.14988
2481.22	-0.0276499
2482.61	0.156972
2484	-0.0818901
2485.38	0.0540714
2486.77	0.0166674
2488.15	0.118585
2489.54	0.0947495
2490.92	-0.25604
2492.3	-0.0458078
2493.69	-0.0678453
2495.07	0.113244
2496.45	0.0783787
2497.84	0.121927
2499.22	0.366918
2500.6	0.147165
2501.98	-0.119486
2503.36	0.0764952
2504.74	-0.31504
2506.13	0.218064
2507.51	0.287983
2508.89	0.281
2510.27	0.0287752
2511.65	0.20732
2513.03	-0.0121651
2514.41	0.0146933
2515.79	-0.0800095
2517.17	-0.0666981
2518.55	0.207072
2519.93	0.373768
2521.3	0.173435
2522.68	0.354182
2524.06	0.076169
2525.44	0.270232
2526.82	-0.191121
2528.19	0.185535
2529.57	0.273925
2530.95	0.257555
2532.32	0.197453
2533.7	0.39714
2535.08	0.157003
2536.45	0.26624
2537.83	0.0557089
2539.2	0.147948
2540.58	0.178489
2541.95	0.147882
2543.33	0.284472
2544.7	-0.200028
2546.08	0.242129
2547.45	0.0636854
2548.82	0.371593
2550.2	0.178917
2551.57	-0.120584
2552.94	-0.0265217
2554.32	-0.252262
2555.69	-0.114769
2557.06	0.128222
2558.43	0.113142
2559.8	0.416682
2561.17	0.326598
2562.55	-0.15679
2563.92	0.421275
2565.29	0.090538
2566.66	0.108594
2568.03	0.581387
2569.4	0.160016
2570.77	0.193281
2572.14	0.135633
2573.51	0.214474
2574.88	0.21761
2576.24	0.372375
2577.61	-0.246212
2578.98	0.423722
2580.35	0.441273
2581.72	0.139928
2583.09	0.141423
2584.45	0.460991
2585.82	0.613674
2587.19	0.357206
2588.55	-0.0960474
2589.92	0.375287
2591.28	0.179646
2592.65	-0.0164795
2594.02	0.316773
2595.38	0.0429621
2596.75	-0.00471878
2598.11	0.264462
2599.48	0.472413
2600.84	0.242028
2602.2	0.0124235
2603.57	0.0554504
2604.93	0.174477
2606.3	0.384116
2607.66	0.291647
2609.02	0.0777416
2610.38	0.525469
2611.75	0.0981331
2613.11	-0.0741339
2614.47	0.278821
2615.83	0.210581
2617.19	0.247634
2618.56	0.0606203
2619.92	0.248843
2621.28	0.183361
2622.64	0.432305
2624	0.307855
2625.36	0.168562
2626.72	0.744935
2628.08	0.127994
2629.44	0.285873
2630.8	0.487893
2632.15	0.525917
2633.51	0.370698
2634.87	0.467986
2636.23	0.401927
2637.59	0.424846
2638.94	0.270077
2640.3	0.0861197
2641.66	0.139235
2643.02	-0.0290442
2644.37	-0.137878
2645.73	-0.158153
2647.08	0.219174
2648.44	0.109059
2649.8	0.233676
2651.15	0.195559
2652.51	0.377437
2653.86	0.339095
2655.22	-0.00617695
2656.57	0.0896683
2657.92	0.581788
2659.28	0.0503235
2660.63	0.367872
2661.99	0.29034
2663.34	0.299846
2664.69	0.293817
2666.04	-0.252718
2667.4	-0.055687
2668.75	-0.0192804
2670.1	0.351981
2671.45	0.345221
2672.81	0.25197
2674.16	0.26115
2675.51	0.0241899
2676.86	0.382877
2678.21	0.147364
2679.56	0.246369
2680.91	0.128995
2682.26	0.143397
2683.61	0.492598
2684.96	0.451385
2686.31	0.0769262
2687.66	0.340672
2689	0.55967
2690.35	0.399325
2691.7	0.222442
2693.05	0.232568
2694.4	0.531596
2695.74	0.076457
2697.09	0.0425005
2698.44	-0.0914288
2699.79	0.167399
2701.13	0.457071
2702.48	-0.0191803
2703.82	0.128453
2705.17	0.247773
2706.52	0.5413
2707.86	0.123735
2709.21	0.474753
2710.55	0.331837
2711.9	0.144922
2713.24	0.451774
2714.58	0.148224
2715.93	0.411455
2717.27	0.68921
2718.61	0.312146
2719.96	0.12364
2721.3	0.443916
2722.64	0.676382
2723.99	0.442533
2725.33	0.470164
2726.67	0.468231
2728.01	0.62601
2729.35	0.230475
2730.7	0.591471
2732.04	0.661347
2733.38	0.818564
2734.72	0.481387
2736.06	0.958966
2737.4	0.0985985
2738.74	0.416263
2740.08	0.617256
2741.42	0.265117
2742.76	0.406624
2744.09	0.329262
2745.43	0.643465
2746.77	0.710045
2748.11	0.268291
2749.45	0.247708
2750.79	0.459382
2752.12	0.584182
2753.46	0.506243
2754.8	0.269158
2756.13	0.293065
2757.47	0.317114
2758.81	0.225616
2760.14	0.0766802
2761.48	-0.100638
2762.81	0.200084
2764.15	0.0814981
2765.49	0.266726
2766.82	-0.127273
2768.15	0.0419407
2769.49	0.253011
2770.82	0.288821
2772.16	0.366361
2773.49	0.197288
2774.82	-0.217216
2776.16	-0.299781
2777.49	0.0355206
2778.82	-0.18997
2780.16	0.0308886
2781.49	0.0938025
2782.82	0.041914
2784.15	0.205134
2785.48	-0.0905313
2786.81	-0.0418806
2788.15	-0.350622
2789.48	-0.100239
2790.81	-0.135145
2792.14	-0.0977058
2793.47	-0.0883865
2794.8	0.163923
2796.13	0.187117
2797.46	-0.0188704
2798.79	-0.0682917
2800.12	0.0673857
2801.44	-0.125471
2802.77	0.0951138
2804.1	-0.0268459
2805.43	0.292342
2806.76	0.169209
2808.08	-0.0540438
2809.41	-0.249019
2810.74	-0.00345516
2812.07	0.214018
2813.39	0.0637302
2814.72	0.241272
2816.05	0.193545
2817.37	0.0903978
2818.7	0.285553
2820.02	-0.185441
2821.35	0.136781
2822.67	0.21728
2824	0.410382
2825.32	0.348028
2826.65	0.526489
2827.97	0.323185
2829.29	0.601908
2830.62	0.470606
2831.94	0.636827
2833.26	0.902048
2834.59	1.22347
2835.91	0.412072
2837.23	1.01525
2838.55	1.27813
2839.88	1.76689
2841.2	1.37896
2842.52	1.93876
2843.84	2.32959
2845.16	2.28319
2846.48	2.39304
2847.8	2.60231
2849.12	2.35934
2850.44	2.75203
2851.76	2.93207
2853.08	2.99835
2854.4	3.34674
2855.72	3.24267
2857.04	3.73192
2858.36	3.57138
2859.68	4.00401
2861	4.52098
2862.32	4.35969
2863.63	4.946
2864.95	5.39053
2866.27	6.37082
2867.58	6.30741
2868.9	7.21761
2870.22	7.16953
2871.53	7.33317
2872.85	7.45404
2874.17	7.36233
2875.48	7.74786
2876.8	7.01908
2878.11	8.10495
2879.43	8.07814
2880.74	7.40533
2882.06	7.88652
2883.37	7.96177
2884.69	7.95431
2886	7.61094
2887.31	7.43626
2888.63	8.14498
2889.94	8.05247
2891.25	8.26716
2892.57	8.53671
2893.88	8.34347
2895.19	8.6411
2896.5	8.42195
2897.82	8.66645
2899.13	8.74468
2900.44	8.72629
2901.75	8.68071
2903.06	8.71943
2904.37	9.5137
2905.68	9.70698
2906.99	9.56552
2908.3	10.1668
2909.61	10.308
2910.92	10.9821
2912.23	11.6705
2913.54	11.9097
2914.85	11.6706
2916.16	12.5482
2917.46	12.807
2918.77	12.7279
2920.08	13.6976
2921.39	13.7731
2922.7	13.6133
2924	13.4701
2925.31	14.0141
2926.62	13.6086
2927.92	14.6432
2929.23	14.4609
2930.53	15.1443
2931.84	15.2536
2933.15	14.985
2934.45	15.7507
2935.76	15.1329
2937.06	15.2981
2938.37	14.8489
2939.67	14.7915
2940.98	14.7351
2942.28	14.0935
2943.58	13.8174
2944.89	13.4599
2946.19	12.433
2947.49	12.4559
2948.8	12.4644
2950.1	11.4488
2951.4	11.1439
2952.7	10.2055
2954.01	10.9032
2955.31	10.2981
2956.61	10.3245
2957.91	10.1585
2959.21	9.22688
2960.51	9.55981
2961.81	9.49003
2963.11	9.58983
2964.41	9.60468
2965.71	8.59173
2967.01	9.2757
2968.31	8.98797
2969.61	8.02389
2970.91	8.25474
2972.21	8.3174
2973.51	8.05703
2974.81	7.59948
2976.1	7.22525
2977.4	7.04611
2978.7	7.13189
2980	6.46891
2981.29	6.43758
2982.59	6.11008
2983.89	5.65688
2985.18	5.50082
2986.48	5.92326
2987.78	5.30808
2989.07	4.73657
2990.37	4.7276
2991.66	4.31043
2992.96	4.35563
2994.25	3.9635
2995.55	3.93525
2996.84	3.49889
2998.14	3.03462
2999.43	3.10419
3000.72	2.71178
3002.02	2.5588
3003.31	1.93011
3004.6	1.80632
3005.9	1.78039
3007.19	1.76781
3008.48	1.44646
3009.77	1.64181
3011.07	1.24922
3012.36	1.08015
3013.65	0.855633
3014.94	0.966609
3016.23	0.96692
3017.52	0.689795
3018.81	0.803311
3020.1	0.29109
3021.39	0.223823
3022.68	0.128026
3023.97	-0.0518694
3025.26	-0.107389
3026.55	0.695769
3027.84	0.183543
3029.13	0.351063
3030.42	0.534004
3031.71	0.249072
3033	0.490307
3034.28	0.0832586
3035.57	0.0898952
3036.86	0.495011
3038.15	0.40167
3039.43	-0.0651197
3040.72	-0.0101709
3042.01	0.633924
3043.29	0.385411
3044.58	0.357716
3045.86	0.140727
3047.15	0.15903
3048.44	0.521441
3049.72	0.0263481
3051.01	0.597836
3052.29	0.610862
3053.58	0.405771
3054.86	0.459317
3056.14	0.32085
3057.43	0.19503
3058.71	0.722563
3060	0.922516
3061.28	0.728209
3062.56	0.712247
3063.84	1.20117
3065.13	0.957832
3066.41	0.485281
3067.69	0.408318
3068.97	0.413541
3070.25	0.119416
3071.54	0.19171
3072.82	-0.0363579
3074.1	0.454995
3075.38	0.387953
3076.66	0.130661
3077.94	0.240756
3079.22	0.094368
3080.5	0.0720081
3081.78	0.295773
3083.06	0.222688
3084.34	-0.0394058
3085.62	0.241536
3086.9	0.0879145
3088.17	0.300177
3089.45	0.267536
3090.73	-0.0367899
3092.01	0.0796185
3093.29	-0.0749102
3094.56	0.354286
3095.84	-0.205917
3097.12	0.115548
3098.4	0.05758
3099.67	-0.135802
3100.95	-0.0174074
3102.22	-0.0206299
3103.5	0.139147
3104.77	-0.22824
3106.05	-0.012537
3107.33	-0.0663061
3108.6	0.206061
3109.88	-0.11568
3111.15	0.281321
3112.43	0.490044
3113.7	-0.0185666
3114.97	0.367366
3116.25	0.305792
3117.52	0.528337
3118.79	0.560046
3120.07	0.333143
3121.34	0.525887
3122.61	0.257345
3123.88	0.612216
3125.16	0.222558
3126.43	0.483606
3127.7	0.731856
3128.97	0.480395
3130.24	0.770591
3131.51	0.709596
3132.78	0.24338
3134.05	0.830987
3135.33	0.648308
3136.59	0.573428
3137.86	0.633272
3139.14	0.989315
3140.41	0.954584
3141.67	1.08165
3142.94	0.752374
3144.21	1.00179
3145.48	1.17129
3146.75	0.845693
3148.02	1.33879
3149.28	1.21635
