200.563	0.112534
202.377	0.153242
204.194	0.195427
206.008	0.579342
207.821	0.525667
209.634	0.71419
211.449	0.755144
213.262	-0.00695038
215.074	0.346064
216.885	1.30361
218.699	0.298233
220.51	0.0937805
222.321	0.689098
224.131	-0.189667
225.941	0.407223
227.751	-0.832227
229.562	0.343369
231.371	0.165478
233.18	-0.302183
234.988	-0.431351
236.796	0.526062
238.603	0.232836
240.411	-0.514813
242.219	0.042387
244.026	0.601719
245.832	-0.479938
247.638	-0.0196075
249.443	0.243795
251.248	0.0921535
253.053	-0.232327
254.857	0.164684
256.661	0.536598
258.465	0.0418291
260.268	0.152036
262.071	0.505783
263.874	0.30776
265.678	-0.105712
267.48	0.228067
269.282	-0.957268
271.083	0.073842
272.884	0.572964
274.684	0.105541
276.484	0.455375
278.284	0.0311527
280.084	0.158294
281.883	0.137878
283.682	0.259061
285.48	-0.222668
287.276	0.207398
289.074	-0.106635
290.871	0.275592
292.668	0.180315
294.465	-0.127949
296.261	-0.433901
298.057	-0.092967
299.853	-0.0144911
301.648	-0.557441
303.443	0.784838
305.237	-0.0713978
307.032	0.693724
308.823	0.218086
310.617	0.07728
312.41	-0.133229
314.203	0.753935
315.995	-0.189933
317.788	-0.0122528
319.579	0.882258
321.369	0.944818
323.16	-0.064641
324.951	0.404696
326.741	0.994046
328.531	0.723523
330.321	0.523296
332.108	0.608007
333.897	0.80987
335.686	1.03253
337.474	0.86889
339.26	0.295445
341.048	0.461467
342.835	0.434924
344.622	0.742792
346.406	0.453958
348.192	0.142363
349.978	-0.454946
351.764	-0.216738
353.547	0.235199
355.332	0.351357
357.116	0.227042
358.901	0.458343
360.682	0.592379
362.466	0.0109949
364.249	-0.0237598
366.03	0.320537
367.812	0.449441
369.594	-0.276764
371.374	0.442018
373.155	1.06353
374.936	0.596025
376.715	0.0824194
378.495	0.395867
380.273	-0.0910072
382.053	0.34243
383.832	0.330056
385.609	-0.620878
387.388	-0.0655537
389.164	0.114935
390.942	0.10872
392.72	-0.342668
394.495	-0.0653229
396.272	0.306393
398.047	0.795587
399.823	1.07312
401.597	-0.0828533
403.372	0.357397
405.145	0.51462
406.92	0.529815
408.693	0.21538
410.467	0.0883551
412.239	0.172563
414.012	0.13995
415.783	0.272475
417.556	0.570297
419.327	0.540419
421.099	0.745514
422.869	0.292906
424.64	0.379107
426.409	0.604799
428.18	0.0311041
429.948	0.160954
431.718	0.173357
433.486	-0.189393
435.253	0.83294
437.022	0.00106239
438.789	0.482387
440.558	0.281003
442.324	0.358336
444.089	0.455988
445.857	0.386928
447.622	-0.175182
449.386	0.291876
451.153	-0.293096
452.917	0.430469
454.682	0.220138
456.446	0.173173
458.208	0.40547
459.973	0.0324688
461.735	0.428267
463.497	-0.0806818
465.259	0.436261
467.022	0.306351
468.783	0.296163
470.544	0.474428
472.306	0.444165
474.066	0.622248
475.825	0.215662
477.585	0.830861
479.346	0.698108
481.104	0.237902
482.862	0.779451
484.62	0.670472
486.38	0.750503
488.137	0.996648
489.894	1.26926
491.65	0.236423
493.407	0.464369
495.164	0.646185
496.92	0.266281
498.675	0.564724
500.43	-0.966282
502.184	0.785257
503.939	0.753053
505.694	0.695644
507.448	0.965396
509.201	-0.272449
510.954	0.0868912
512.706	0.655951
514.459	1.0817
516.21	0.681978
517.962	0.304276
519.715	0.583647
521.466	0.861689
523.216	1.51447
524.966	1.90805
526.716	0.776388
528.466	0.911966
530.215	1.04719
531.964	0.361903
533.712	1.24446
535.46	1.25868
537.208	0.780073
538.955	0.860639
540.703	1.07926
542.449	0.597496
544.196	1.16315
545.942	0.844466
547.688	0.712422
549.433	0.279646
551.178	0.681657
552.923	-0.0503311
554.667	0.0743418
556.412	0.291406
558.155	1.10806
559.899	0.748943
561.642	0.552341
563.385	0.517825
565.127	0.231317
566.867	0.037919
568.609	-0.47562
570.35	1.35331
572.092	-0.0976038
573.832	0.403975
575.573	0.449135
577.313	0.703092
579.053	0.0407391
580.79	0.228562
582.529	0.0489693
584.268	-0.200549
586.006	0.307304
587.745	0.790722
589.482	0.122241
591.218	-0.133453
592.955	-0.274814
594.692	0.089776
596.428	0.155298
598.164	-0.193379
599.898	-0.105448
601.634	0.464383
603.369	1.03222
605.104	0.172305
606.836	0.598107
608.57	0.608978
610.304	0.504921
612.037	0.378713
613.769	0.0702944
615.501	0.63388
617.234	0.0746431
618.966	-0.0039978
620.696	0.739978
622.427	0.223226
624.159	0.186044
625.887	0.537292
627.618	0.433001
629.348	0.240246
631.076	0.301769
632.806	0.502918
634.535	0.888094
636.262	1.13587
637.99	0.445218
639.716	0.458475
641.444	0.193957
643.172	0.359538
644.897	0.614281
646.624	-0.177273
648.348	-0.0558138
650.075	0.183281
651.801	-0.322392
653.524	0.154181
655.249	-0.547247
656.972	0.233047
658.697	0.172697
660.419	0.476671
662.143	0.596301
663.865	0.621484
665.588	0.849125
667.309	0.845588
669.032	0.223542
670.752	0.33443
672.474	0.493769
674.194	0.542056
675.915	0.341137
677.634	0.508572
679.355	0.0792837
681.073	-0.398172
682.793	0.294663
684.511	0.225891
686.23	0.177447
687.947	0.794859
689.664	0.466553
691.382	0.160254
693.098	0.106501
694.816	0.604499
696.531	-0.349711
698.247	0.421534
699.963	0.661275
701.678	0.577263
703.392	0.101376
705.108	0.428993
706.821	0.709556
708.534	0.186543
710.249	0.557391
711.962	0.583764
713.674	0.380953
715.388	0.543833
717.099	0.432418
718.81	0.686285
720.523	0.119472
722.234	0.373603
723.944	0.104073
725.654	0.0621519
727.365	0.474131
729.075	0.431012
730.784	0.97677
732.492	0.864205
734.202	0.208619
735.91	1.06872
737.618	1.1148
739.325	0.936168
741.034	0.849323
742.741	1.1472
744.447	0.973816
746.153	0.892539
747.859	0.633232
749.564	1.23055
751.271	1.01981
752.976	1.30571
754.681	1.05365
756.385	0.916016
758.088	0.284971
759.792	1.50262
761.495	0.581466
763.2	1.60014
764.902	1.40056
766.604	1.31209
768.306	1.1532
770.008	1.05911
771.709	1.30152
773.41	1.88128
775.11	2.21166
776.811	1.88716
778.51	2.10718
780.21	1.08549
781.909	1.87463
783.608	2.2118
785.307	1.52883
787.005	1.65739
788.703	1.23847
790.401	1.17743
792.098	1.79093
793.795	1.90451
795.492	1.76944
797.188	1.5458
798.884	2.67601
800.58	2.0068
802.276	1.6777
803.971	1.57464
805.665	0.797043
807.36	1.86148
809.054	1.55339
810.748	2.18658
812.441	1.40495
814.135	2.39375
815.826	2.39566
817.518	1.50284
819.21	2.17596
820.902	2.80356
822.594	1.86894
824.285	2.05165
825.976	2.39215
827.665	1.64402
829.355	1.79089
831.045	1.34058
832.735	2.05242
834.424	1.56402
836.111	1.79016
837.8	2.28408
839.488	2.82151
841.177	1.23503
842.864	1.38864
844.55	2.27917
846.237	1.6959
847.924	1.6067
849.61	1.96829
851.295	1.70686
852.98	1.35791
854.666	1.88461
856.349	1.26647
858.034	1.18524
859.719	1.66422
861.403	1.37581
863.085	1.67064
864.769	1.31041
866.452	1.67014
868.133	1.21742
869.816	2.34268
871.498	2.29492
873.179	1.57006
874.86	1.11566
876.54	0.954558
878.221	1.65112
879.902	2.12199
881.58	1.59913
883.26	1.48156
884.938	1.22706
886.618	1.76063
888.297	1.0283
889.974	2.09847
891.653	1.81317
893.329	1.59398
895.007	1.14851
896.683	1.82634
898.36	1.55829
900.035	1.13254
901.712	1.17715
903.387	1.1762
905.063	1.04093
906.737	1.93305
908.412	0.68386
910.085	1.15336
911.76	1.20042
913.433	1.3817
915.107	1.51871
916.779	0.391191
918.452	-0.0916281
920.124	1.48569
921.797	2.19825
923.467	1.34204
925.138	1.24037
926.81	1.05304
928.48	0.978523
930.151	0.949837
931.82	1.60604
933.489	1.22561
935.16	0.382341
936.828	1.08372
938.496	1.23489
940.165	0.968712
941.833	1.82921
943.5	1.63193
945.168	0.970802
946.834	0.837638
948.5	0.900654
950.168	0.983176
951.834	0.997895
953.499	0.726097
955.163	0.412525
956.83	0.896562
958.494	1.29698
960.158	1.01736
961.821	0.695216
963.487	1.12396
965.15	0.865181
966.812	0.646791
968.474	0.999887
970.138	1.06256
971.8	0.792356
973.461	0.766237
975.123	0.896947
976.783	0.455146
978.446	0.369109
980.106	0.394506
981.766	0.419352
983.425	0.995849
985.084	2.10101
986.743	0.989647
988.402	1.20395
990.06	1.50482
991.72	0.39014
993.378	0.690103
995.035	1.14439
996.692	1.24537
998.349	1.58874
1000.01	1.99748
1001.66	2.16292
1003.32	1.99744
1004.97	2.02965
1006.63	1.53429
1008.28	0.710487
1009.94	1.07324
1011.59	0.690571
1013.25	0.681587
1014.9	0.476042
1016.55	0.774791
1018.21	1.3584
1019.86	1.0897
1021.51	0.560341
1023.16	0.64481
1024.81	1.38618
1026.47	1.25409
1028.12	0.925394
1029.77	1.66634
1031.42	1.24768
1033.07	1.52565
1034.72	1.84461
1036.37	1.68158
1038.02	2.08405
1039.67	2.1811
1041.31	2.17033
1042.96	3.33533
1044.61	2.39443
1046.26	2.69526
1047.91	2.13018
1049.55	2.06711
1051.2	2.30997
1052.84	1.33751
1054.49	2.4947
1056.14	1.58759
1057.78	2.00577
1059.43	2.42339
1061.07	2.14431
1062.72	1.51614
1064.36	1.86512
1066	1.9951
1067.65	1.62358
1069.29	1.79404
1070.93	1.09484
1072.58	1.32949
1074.22	1.4779
1075.86	1.06377
1077.5	0.933651
1079.14	1.36909
1080.78	1.32849
1082.42	1.24447
1084.06	1.54945
1085.7	1.22336
1087.34	1.67464
1088.98	1.73269
1090.62	1.13914
1092.26	1.34474
1093.9	1.16062
1095.54	0.696726
1097.17	0.946158
1098.81	1.69254
1100.45	1.45029
1102.09	0.737652
1103.72	1.12504
1105.36	1.21297
1106.99	1.15109
1108.63	1.26081
1110.27	1.36891
1111.9	1.08785
1113.53	1.19147
1115.17	1.18592
1116.8	1.67299
1118.43	1.10922
1120.07	1.44696
1121.7	1.31473
1123.33	1.44097
1124.97	2.06061
1126.6	2.0395
1128.23	1.95543
1129.86	1.42345
1131.49	0.849659
1133.12	0.939076
1134.75	0.90002
1136.38	0.817332
1138.01	0.904173
1139.64	0.51942
1141.27	0.347155
1142.9	0.87859
1144.53	0.343369
1146.16	0.449157
1147.78	0.236518
1149.41	0.366042
1151.04	0.389635
1152.67	0.157676
1154.29	0.159558
1155.92	0.586576
1157.54	-0.0505705
1159.17	0.440461
1160.8	0.145644
1162.42	0.554064
1164.05	-0.0355072
1165.67	0.0771971
1167.29	1.01874
1168.92	-0.188551
1170.54	-0.101083
1172.16	0.132534
1173.79	-0.612982
1175.41	0.316978
1177.03	-0.302535
1178.65	0.244205
1180.28	-0.203712
1181.9	0.725073
1183.52	0.744595
1185.14	-0.0599318
1186.76	-0.167928
1188.38	0.122981
1190	-0.116094
1191.62	0.127092
1193.24	0.556964
1194.86	0.501786
1196.47	0.551705
1198.09	0.163156
1199.71	0.384364
1201.33	0.587393
1202.95	0.229981
1204.56	0.732029
1206.18	1.15314
1207.8	1.49244
1209.41	0.872445
1211.03	0.689445
1212.64	0.462524
1214.26	0.878806
1215.87	0.812643
1217.49	0.224196
1219.1	0.736954
1220.71	1.12401
1222.33	0.412237
1223.94	1.0502
1225.55	1.37868
1227.16	1.54333
1228.78	1.23408
1230.39	1.40237
1232	1.57224
1233.61	1.47508
1235.22	1.33834
1236.83	2.21607
1238.44	1.89646
1240.05	1.37085
1241.66	2.25172
1243.27	2.51185
1244.88	1.7777
1246.49	2.38702
1248.1	1.6085
1249.71	1.65667
1251.32	1.76651
1252.92	1.48366
1254.53	1.80171
1256.14	1.95583
1257.74	2.38067
1259.35	2.00033
1260.96	1.68308
1262.56	1.96679
1264.17	2.10571
1265.77	2.4928
1267.38	2.00844
1268.98	2.04083
1270.59	2.13397
1272.19	2.05975
1273.79	2.66823
1275.4	1.98997
1277	2.40897
1278.6	3.32367
1280.21	2.62172
1281.81	2.68573
1283.41	2.17064
1285.01	2.79412
1286.61	2.75699
1288.21	2.59739
1289.81	2.76982
1291.41	3.50083
1293.01	3.52903
1294.61	3.94853
1296.21	3.29191
1297.81	3.85124
1299.41	3.70598
1301.01	3.06384
1302.6	3.286
1304.2	3.2594
1305.8	3.45793
1307.4	3.12134
1308.99	3.03123
1310.59	3.14627
1312.19	2.91367
1313.78	2.53952
1315.38	2.78047
1316.97	3.12449
1318.57	2.97914
1320.16	3.11919
1321.76	2.48362
1323.35	2.86442
1324.94	2.97764
1326.54	2.54055
1328.13	2.87418
1329.72	2.80294
1331.32	2.06688
1332.91	2.48709
1334.5	2.44541
1336.09	3.31406
1337.68	3.55729
1339.27	2.54952
1340.87	2.40673
1342.45	3.02577
1344.04	2.45485
1345.64	2.80719
1347.22	1.93602
1348.81	2.87177
1350.4	2.20836
1351.99	2.28945
1353.58	2.35331
1355.17	2.15906
1356.75	2.54485
1358.34	1.89104
1359.93	2.6541
1361.51	1.67861
1363.1	2.2589
1364.69	1.96093
1366.27	1.38475
1367.86	2.42328
1369.44	1.98959
1371.03	2.09544
1372.61	2.00418
1374.2	1.23793
1375.78	1.94497
1377.37	1.7965
1378.95	1.80649
1380.53	1.19829
1382.11	2.33908
1383.7	2.74164
1385.28	2.44681
1386.86	2.13177
1388.44	1.91658
1390.02	1.68264
1391.6	1.66835
1393.19	2.27007
1394.77	2.4555
1396.35	2.22414
1397.93	2.42799
1399.51	1.79807
1401.08	2.19727
1402.66	1.84312
1404.24	1.50913
1405.82	1.96712
1407.4	2.08986
1408.97	1.79875
1410.55	2.7331
1412.13	2.46228
1413.71	1.67757
1415.28	2.58905
1416.86	2.49276
1418.43	2.61286
1420.01	2.43788
1421.59	3.01283
1423.16	2.34953
1424.73	2.49573
1426.31	3.21441
1427.88	3.0678
1429.46	3.68836
1431.03	4.36652
1432.6	4.47205
1434.18	5.08752
1435.75	5.99694
1437.32	5.72656
1438.89	6.3421
1440.46	6.27129
1442.04	6.35934
1443.61	5.7607
1445.18	5.55573
1446.75	4.83996
1448.32	5.28409
1449.89	6.14166
1451.46	5.34858
1453.03	5.79507
1454.6	4.88499
1456.16	5.80425
1457.73	6.23075
1459.3	5.49398
1460.87	4.51825
1462.44	4.24822
1464	4.23154
1465.57	4.5277
1467.14	3.93911
1468.7	3.0965
1470.27	3.31569
1471.83	2.73202
1473.4	2.15016
1474.96	2.25588
1476.53	2.63661
1478.09	2.15476
1479.66	1.92777
1481.22	1.52429
1482.78	1.45394
1484.35	1.85366
1485.91	1.48873
1487.47	1.78879
1489.04	1.16674
1490.6	0.914655
1492.16	1.42261
1493.72	1.20422
1495.28	1.4522
1496.84	1.11375
1498.4	1.04831
1499.96	0.439636
1501.52	0.76545
1503.08	0.9175
1504.64	0.00475883
1506.2	0.623109
1507.76	0.659369
1509.32	0.578345
1510.88	0.399621
1512.44	0.162483
1513.99	0.117984
1515.55	0.189147
1517.11	1.20149
1518.66	1.25371
1520.22	0.387212
1521.78	0.498575
1523.33	0.0550079
1524.89	0.77597
1526.44	0.0830641
1528	0.514217
1529.55	0.449212
1531.11	0.7641
1532.66	0.491019
1534.21	0.352306
1535.77	0.423213
1537.32	0.192806
1538.87	0.812986
1540.43	0.678173
1541.98	0.732088
1543.53	1.61378
1545.08	1.08347
1546.63	0.873208
1548.18	0.982123
1549.74	1.29693
1551.29	0.993477
1552.84	0.84092
1554.39	1.00753
1555.94	1.30633
1557.48	1.28969
1559.03	0.902371
1560.58	1.2078
1562.13	0.768935
1563.68	1.41341
1565.23	1.49896
1566.78	1.41664
1568.32	1.14732
1569.87	1.02678
1571.42	1.61508
1572.96	1.58703
1574.51	1.59613
1576.05	1.17588
1577.6	0.531846
1579.14	1.64318
1580.69	1.22439
1582.24	1.42274
1583.78	1.67825
1585.32	1.28072
1586.87	1.33217
1588.41	1.62696
1589.95	1.62228
1591.5	1.29878
1593.04	2.17289
1594.58	1.82965
1596.12	2.55424
1597.67	2.24901
1599.21	2.54441
1600.75	2.1844
1602.29	2.72552
1603.83	2.45961
1605.37	2.68095
1606.91	2.65625
1608.45	2.34693
1609.99	2.4856
1611.53	1.77567
1613.07	1.89012
1614.6	1.53364
1616.14	1.8148
1617.68	1.57141
1619.22	2.09785
1620.75	1.87667
1622.29	1.71349
1623.83	2.2253
1625.37	1.70741
1626.9	2.47998
1628.44	1.32345
1629.97	1.26941
1631.51	2.12991
1633.04	1.8496
1634.58	2.11136
1636.11	2.15
1637.65	2.37627
1639.18	2.47264
1640.72	2.08437
1642.25	2.29168
1643.78	2.36701
1645.31	2.51509
1646.85	2.42006
1648.38	3.14232
1649.91	2.82435
1651.44	2.74934
1652.97	3.15829
1654.5	2.71554
1656.03	2.62604
1657.56	3.51844
1659.1	2.83477
1660.62	3.50126
1662.15	2.90701
1663.68	2.97752
1665.21	2.47465
1666.74	2.91425
1668.27	2.22975
1669.8	2.3037
1671.32	2.10311
1672.85	2.06979
1674.38	2.03701
1675.91	1.8382
1677.43	1.93292
1678.96	1.40073
1680.49	1.78705
1682.01	1.731
1683.54	1.63789
1685.06	1.96703
1686.59	1.72772
1688.11	1.69085
1689.64	1.39804
1691.16	1.45367
1692.68	1.76551
1694.21	1.1807
1695.73	1.34578
1697.25	1.14492
1698.78	1.07167
1700.3	0.833716
1701.82	0.960169
1703.34	0.466136
1704.86	1.06474
1706.39	0.879473
1707.91	1.1668
1709.43	1.8531
1710.95	0.669197
1712.47	0.720444
1713.99	0.0471144
1715.51	1.11271
1717.02	0.277327
1718.54	0.672033
1720.06	0.397892
1721.58	0.160487
1723.1	0.699297
1724.62	-0.13069
1726.13	0.410251
1727.65	0.394233
1729.17	0.39731
1730.68	0.798295
1732.2	0.698139
1733.72	0.414311
1735.23	0.514406
1736.75	0.664003
1738.26	1.04659
1739.78	0.866591
1741.29	0.620149
1742.81	0.874918
1744.32	0.288023
1745.84	0.595222
1747.35	0.178173
1748.86	0.128634
1750.37	0.0839081
1751.89	0.48284
1753.4	0.213339
1754.91	0.707144
1756.42	0.237068
1757.93	0.537709
1759.45	0.372245
1760.96	0.592989
1762.47	0.293722
1763.98	0.303515
1765.49	0.215351
1767	0.336151
1768.51	0.33938
1770.02	-0.067008
1771.53	0.0307188
1773.03	0.464164
1774.54	0.147555
1776.05	-0.128069
1777.56	0.102543
1779.07	-0.0920496
1780.57	0.033371
1782.08	0.082942
1783.59	0.14948
1785.09	-0.194266
1786.6	-0.0798187
1788.11	0.0378389
1789.61	-0.236547
1791.12	0.449802
1792.62	0.13539
1794.13	0.251321
1795.63	-0.370074
1797.13	0.436108
1798.64	0.448554
1800.14	0.277977
1801.65	-0.485696
1803.15	0.274706
1804.65	0.465627
1806.15	0.0333958
1807.66	-0.164302
1809.16	-0.122313
1810.66	-0.14495
1812.16	-0.0871325
1813.66	0.178358
1815.16	0.318746
1816.66	0.147884
1818.16	-0.0772009
1819.66	0.291822
1821.16	0.0265779
1822.66	-0.0868015
1824.16	0.0321999
1825.66	-0.0528231
1827.16	0.373471
1828.66	0.302767
1830.16	0.120426
1831.65	0.0188017
1833.15	-0.277708
1834.65	-0.000729561
1836.14	-0.437127
1837.64	0.0916786
1839.14	0.02773
1840.63	0.233791
1842.13	-0.0382509
1843.62	-0.0575838
1845.12	-0.118318
1846.61	0.213367
1848.11	0.271229
1849.6	0.329328
1851.1	0.421415
1852.59	0.47581
1854.08	0.335057
1855.58	0.308762
1857.07	0.279743
1858.56	0.376382
1860.05	0.297589
1861.55	0.170082
1863.04	0.338227
1864.53	0.278549
1866.02	-0.266576
1867.51	0.121618
1869	0.0326138
1870.49	-0.145575
1871.98	0.011652
1873.47	0.24796
1874.96	0.329534
1876.45	0.160042
1877.94	0.247504
1879.43	-0.164181
1880.92	0.183805
1882.41	0.122776
1882.51	0.11512
1884	0.516682
1885.5	0.167757
1886.99	0.0446148
1888.48	0.129934
1889.98	0.128352
1891.47	0.51041
1892.96	-0.0622835
1894.46	0.0451479
1895.95	-0.0196486
1897.44	-0.605334
1898.93	0.0262928
1900.42	0.187318
1901.91	0.311805
1903.41	-0.05264
1904.9	0.294349
1906.39	0.310013
1907.88	0.256147
1909.37	0.150904
1910.86	-0.334991
1912.35	-0.0737619
1913.83	-0.0895576
1915.32	-0.122595
1916.81	-0.121297
1918.3	-0.259225
1919.79	0.486109
1921.27	-0.102867
1922.76	0.295937
1924.25	0.418486
1925.74	0.196014
1927.22	-0.111873
1928.71	0.0483475
1930.19	0.399054
1931.68	-0.18619
1933.17	0.162136
1934.65	0.577651
1936.14	0.0566893
1937.62	0.261223
1939.11	0.46497
1940.59	0.0125952
1942.07	0.251955
1943.56	-0.284049
1945.04	0.0606985
1946.52	-0.197742
1948.01	-0.576894
1949.49	-0.0435038
1950.97	0.178434
1952.45	0.0721884
1953.93	0.223386
1955.42	0.185254
1956.9	-0.00697613
1958.38	0.436759
1959.86	0.194649
1961.34	-0.252423
1962.82	0.0723867
1964.3	0.174003
1965.78	-0.461376
1967.26	0.203966
1968.74	0.405987
1970.21	0.128494
1971.69	-0.507592
1973.17	0.325027
1974.65	0.184361
1976.13	0.248605
1977.6	0.159644
1979.08	0.121967
1980.56	-0.0687838
1982.03	-0.00448418
1983.51	-0.161414
1984.99	0.105866
1986.46	0.016304
1987.94	0.0285387
1989.41	0.142674
1990.89	-0.402638
1992.36	0.136104
1993.84	0.117468
1995.31	0.437698
1996.78	0.285158
1998.26	0.487333
1999.73	0.385017
2001.2	0.231496
2002.68	0.364309
2004.15	0.547404
2005.62	0.477925
2007.09	-0.0454655
2008.56	0.476465
2010.04	-0.0615435
2011.51	0.427997
2012.98	0.463026
2014.45	0.0263948
2015.92	0.245279
2017.39	0.479877
2018.86	0.125005
2020.33	0.52598
2021.8	-0.282751
2023.26	0.0510492
2024.73	0.385365
2026.2	0.0833149
2027.67	0.286037
2029.14	0.171651
2030.61	0.478051
2032.07	0.131183
2033.54	0.674331
2035.01	-0.159209
2036.47	0.199009
2037.94	-0.18247
2039.4	0.511086
2040.87	0.566082
2042.33	0.0666265
2043.8	0.206815
2045.27	0.364876
2046.73	0.0188255
2048.19	-0.0577555
2049.66	0.118052
2051.12	-0.364577
2052.59	-0.140746
2054.05	0.351148
2055.51	0.234055
2056.97	0.638132
2058.44	0.249049
2059.9	0.129597
2061.36	0.448427
2062.82	0.532262
2064.28	0.600322
2065.74	0.467514
2067.21	0.116846
2068.67	0.0360384
2070.13	0.174366
2071.59	0.514822
2073.05	0.333245
2074.51	0.690195
2075.96	0.187987
2077.42	0.190569
2078.88	0.276927
2080.34	-0.0581703
2081.8	0.31336
2083.26	0.347402
2084.72	0.683536
2086.17	0.345778
2087.63	0.427985
2089.09	0.173546
2090.54	0.355872
2092	0.789753
2093.45	0.434439
2094.91	0.498491
2096.37	0.277021
2097.82	0.607838
2099.28	0.652986
2100.73	0.831492
2102.19	0.525365
2103.64	0.454335
2105.09	0.368057
2106.55	0.800502
2108	0.566678
2109.45	0.550119
2110.91	0.182936
2112.36	0.214577
2113.81	0.394301
2115.26	0.522167
2116.72	0.632222
2118.17	0.74241
2119.62	0.754258
2121.07	0.320238
2122.52	0.950005
2123.97	0.735396
2125.42	1.08531
2126.87	0.324049
2128.32	0.805215
2129.77	0.737804
2131.22	1.23217
2132.67	0.847811
2134.11	1.04285
2135.56	1.28813
2137.01	0.493528
2138.46	0.874593
2139.91	1.40639
2141.35	1.13018
2142.8	1.03703
2144.25	1.2092
2145.7	1.33203
2147.14	0.974479
2148.59	1.01348
2150.03	1.13441
2151.48	1.33714
2152.92	1.73763
2154.37	1.35845
2155.81	1.09477
2157.26	1.69261
2158.7	1.19789
2160.15	1.59916
2161.59	1.57168
2163.03	1.87785
2164.47	1.32345
2165.92	1.05145
2167.36	2.30748
2168.8	1.48589
2170.24	1.36001
2171.69	1.94705
2173.13	1.41739
2174.57	1.58486
2176.01	1.61856
2177.45	1.81874
2178.89	1.6207
2180.33	2.03892
2181.77	1.74323
2183.21	1.61444
2184.65	1.90175
2186.09	2.00624
2187.53	1.5118
2188.97	1.76611
2190.4	1.55442
2191.84	1.50885
2193.28	1.51239
2194.72	1.53111
2196.16	1.06511
2197.59	1.74528
2199.03	1.59139
2200.47	1.27037
2201.9	1.3813
2203.34	1.19416
2204.77	1.42296
2206.21	1.30464
2207.64	1.20358
2209.08	1.58264
2210.51	1.19912
2211.95	1.11267
2213.38	1.60403
2214.82	0.574929
2216.25	1.00043
2217.68	0.766722
2219.12	0.649979
2220.55	1.16069
2221.98	1.25921
2223.41	0.566105
2224.85	1.0413
2226.28	0.296393
2227.71	0.603161
2229.14	0.957256
2230.57	0.784773
2232	0.972941
2233.43	0.506246
2234.86	0.662668
2236.29	0.248233
2237.72	0.60334
2239.15	0.470488
2240.58	-0.247401
2242.01	0.944991
2243.44	0.44237
2244.87	0.364186
2246.29	0.644181
2247.72	0.384303
2249.15	0.709224
2250.58	1.01514
2252.01	0.260641
2253.43	0.628681
2254.86	0.622658
2256.29	0.325913
2257.71	-0.162774
2259.14	0.535943
2260.56	0.296598
2261.99	0.773823
2263.41	1.09081
2264.84	0.67725
2266.26	0.490458
2267.69	0.497863
2269.11	0.11372
2270.53	0.363401
2271.96	0.238173
2273.38	0.145276
2274.8	0.0361252
2276.23	0.285589
2277.65	0.225693
2279.07	0.133225
2280.49	0.220019
2281.91	0.111001
2283.34	0.050786
2284.76	-0.12366
2286.18	-0.00417233
2287.6	0.360659
2289.02	0.170834
2290.44	0.0302935
2291.86	0.5438
2293.28	0.142045
2294.7	0.378004
2296.12	0.237601
2297.54	0.408152
2298.96	0.464215
2300.37	0.471345
2301.79	0.0688343
2303.21	0.420881
2304.63	0.395919
2306.04	0.403698
2307.46	0.77261
2308.88	0.122115
2310.3	0.276259
2311.71	0.314945
2313.13	0.485241
2314.54	0.524378
2315.96	0.728975
2317.37	0.193213
2318.79	0.448585
2320.2	0.17621
2321.62	0.116971
2323.03	0.600435
2324.45	0.503905
2325.86	0.504025
2327.27	0.452901
2328.69	0.648223
2330.1	0.464664
2331.51	0.18342
2332.92	0.0187359
2334.34	0.21699
2335.75	0.168653
2337.16	0.251458
2338.57	0.464737
2339.98	0.134374
2341.39	0.27964
2342.8	0.194433
2344.21	0.207693
2345.63	0.253982
2347.04	-0.043458
2348.45	0.0850954
2349.85	-0.0159168
2351.26	-0.0194855
2352.67	-0.220021
2354.08	0.313136
2355.49	0.176211
2356.9	0.234617
2358.3	-0.146304
2359.71	0.643519
2361.12	0.117116
2362.53	0.159264
2363.93	0.0230579
2365.34	-0.177638
2366.75	0.20408
2368.15	0.0689716
2369.56	0.209365
2370.97	-0.0843496
2372.37	0.590252
2373.77	0.266844
2375.18	0.298238
2376.59	0.393579
2377.99	0.15003
2379.39	0.322993
2380.8	0.253145
2382.2	0.4225
2383.6	-0.194263
2385.01	0.117991
2386.41	0.0304508
2387.81	-0.0560017
2389.21	-0.635371
2390.62	0.253113
2392.02	0.17033
2393.42	-0.0545368
2394.82	0.182872
2396.22	0.086935
2397.62	-0.580451
2399.02	-0.325363
2400.42	0.0571728
2401.82	0.249283
2403.22	-0.0509405
2404.62	0.140793
2406.02	0.236322
2407.42	0.0134811
2408.82	0.0755081
2410.22	0.152973
2411.62	-0.0229282
2413.01	0.15053
2414.41	0.388477
2415.81	0.232084
2417.21	0.425352
2418.6	0.413767
2420	0.244184
2421.4	-0.115664
2422.79	0.759734
2424.19	0.462566
2425.59	0.165373
2426.98	0.407466
2428.38	0.270077
2429.77	0.545907
2431.17	0.0928164
2432.56	0.0522003
2433.95	0.122189
2435.35	0.270536
2436.74	0.449196
2438.14	0.149633
2439.53	0.0553198
2440.92	0.1348
2442.31	-0.00857639
2443.71	-0.215614
2445.1	-0.248194
2446.49	0.258144
2447.88	0.177534
2449.27	0.287051
2450.67	0.539189
2452.06	0.190228
2453.45	0.364431
2454.84	0.349586
2456.23	0.129817
2457.62	-0.026329
2459.01	-0.0402632
2460.4	-0.165466
2461.79	-0.212365
2463.18	-0.149381
2464.57	-0.071228
2465.95	-0.135589
2467.34	0.00521088
2468.73	0.20893
2470.12	-0.171272
2471.5	0.189292
2472.89	0.375462
2474.28	0.16703
2475.67	0.115528
2477.05	0.346625
2478.44	-0.113724
2479.82	0.211416
2481.21	0.191249
2482.6	0.468718
2483.98	0.134719
2485.37	-0.230865
2486.75	-0.0968857
2488.13	-0.0735369
2489.52	0.0113344
2490.9	0.267022
2492.29	-0.0681362
2493.67	0.0798807
2495.05	0.0893068
2496.44	0.0999727
2497.82	-0.182816
2499.2	0.463757
2500.58	-0.0509815
2501.97	0.0833883
2503.35	0.0930061
2504.73	-0.037138
2506.11	0.0942926
2507.49	-0.190387
2508.87	-0.120733
2510.25	0.2256
2511.63	0.617901
2513.01	0.136539
2514.39	0.131659
2515.77	-0.362141
2517.15	-0.380375
2518.53	0.22876
2519.91	0.103943
2521.29	-0.0210171
2522.67	-0.177021
2524.05	0.108671
2525.42	0.179829
2526.8	0.250576
2528.18	0.230305
2529.55	0.135131
2530.93	0.436803
2532.31	0.056241
2533.69	-0.110115
2535.06	0.210416
2536.44	0.196658
2537.81	-0.0152617
2539.19	-0.0458221
2540.56	0.0442572
2541.94	0.437435
2543.31	-0.0342207
2544.69	-0.0648975
2546.06	-0.306723
2547.44	0.150389
2548.81	0.0167665
2550.18	0.110791
2551.56	0.0525923
2552.93	0.00863457
2554.3	0.600979
2555.67	0.372889
2557.04	-0.174208
2558.42	-0.129785
2559.79	-0.160943
2561.16	0.263106
2562.53	0.172408
2563.9	0.112615
2565.27	0.326017
2566.64	0.130501
2568.01	-0.322591
2569.38	0.376121
2570.75	0.271581
2572.12	0.0912638
2573.49	-0.0738478
2574.86	-0.193425
2576.23	-0.0401068
2577.6	0.204121
2578.97	-0.0522423
2580.33	0.358196
2581.7	0.358793
2583.07	0.237696
2584.44	0.192156
2585.8	0.192027
2587.17	0.404195
2588.54	-0.110958
2589.9	0.20756
2591.27	0.0864439
2592.64	-0.0502787
2594	0.0394573
2595.37	0.112961
2596.73	-0.102249
2598.1	0.0752802
2599.46	0.191725
2600.83	0.353437
2602.19	0.0926132
2603.55	0.255374
2604.92	-0.019042
2606.28	0.280142
2607.64	0.382738
2609.01	0.80085
2610.37	0.298387
2611.73	0.0510921
2613.09	0.163897
2614.46	0.0803785
2615.82	0.281853
2617.18	0.138347
2618.54	0.220358
2619.9	-0.101028
2621.26	0.0722494
2622.62	0.260738
2623.98	-0.625929
2625.34	0.115047
2626.7	-0.0697975
2628.06	-0.150424
2629.42	-0.112131
2630.78	0.0895338
2632.14	-0.0363131
2633.5	0.179613
2634.86	0.127988
2636.21	-0.0570745
2637.57	0.29158
2638.93	0.0918741
2640.29	-0.00381565
2641.64	0.107851
2643	0.160528
2644.36	0.685699
2645.71	-0.147199
2647.07	0.229507
2648.43	0.310304
2649.78	-0.316273
2651.14	-0.104376
2652.49	0.180183
2653.85	0.156264
2655.2	-0.101392
2656.56	0.184365
2657.91	0.046422
2659.26	-0.163606
2660.62	0.0656271
2661.97	0.00218964
2663.32	0.347174
2664.68	-0.360066
2666.03	0.128932
2667.38	0.412622
2668.74	0.229758
2670.09	0.367557
2671.44	0.113102
2672.79	0.150228
2674.14	0.347677
2675.49	-0.209262
2676.84	0.424557
2678.19	0.73949
2679.54	0.0401402
2680.89	0.0235004
2682.24	0.269028
2683.59	0.385322
2684.94	0.285099
2686.29	0.431968
2687.64	0.070756
2688.99	-0.030529
2690.34	0.0261536
2691.69	0.211581
2693.03	0.293734
2694.38	0.258761
2695.73	0.325057
2697.08	0.681614
2698.42	0.662765
2699.77	-0.0637579
2701.12	0.123767
2702.46	-0.092679
2703.81	0.778574
2705.15	0.462366
2706.5	0.319966
2707.85	0.612479
2709.19	0.64349
2710.54	0.848357
2711.88	0.922317
2713.22	0.487559
2714.57	0.692022
2715.91	0.75113
2717.26	0.853737
2718.6	0.403294
2719.94	0.737988
2721.29	0.883111
2722.63	0.387303
2723.97	0.400353
2725.31	0.73315
2726.66	0.774402
2728	0.655195
2729.34	0.419314
2730.68	0.648938
2732.02	0.354703
2733.36	0.220635
2734.7	0.683131
2736.04	0.593074
2737.38	0.357727
2738.72	0.296891
2740.06	0.293962
2741.4	0.697654
2742.74	0.48993
2744.08	0.368747
2745.42	0.0290537
2746.76	0.0957651
2748.09	0.350915
2749.43	-0.105072
2750.77	-0.06738
2752.11	0.245983
2753.45	0.399943
2754.78	0.0903568
2756.12	0.0562801
2757.46	0.26854
2758.79	-0.517898
2760.13	0.114742
2761.46	-0.135066
2762.8	-0.123886
2764.14	0.249335
2765.47	0.246333
2766.8	-0.0609541
2768.14	0.0792923
2769.47	0.261498
2770.81	-0.0348949
2772.14	0.230852
2773.48	-0.183084
2774.81	0.109521
2776.14	0.199897
2777.48	0.0602055
2778.81	-0.0211601
2780.14	-0.504242
2781.47	0.263028
2782.8	0.354865
2784.14	0.0305948
2785.47	0.0507021
2786.8	0.0709667
2788.13	-0.151626
2789.46	-0.115654
2790.79	-0.250419
2792.12	0.230512
2793.45	-0.246064
2794.78	0.063674
2796.11	-0.14146
2797.44	-0.275618
2798.77	0.146598
2800.1	0.254025
2801.43	-0.0383615
2802.76	0.168365
2804.09	-0.295177
2805.41	-0.0750151
2806.74	-0.0977154
2808.07	-0.24906
2809.4	0.0257549
2810.72	0.285964
2812.05	0.0497456
2813.38	0.283058
2814.71	0.163272
2816.03	0.0876293
2817.36	0.296678
2818.68	0.463842
2820.01	0.205823
2821.33	0.585133
2822.66	0.226746
2823.98	0.0519972
2825.31	0.273571
2826.63	0.650855
2827.96	0.929451
2829.28	0.783919
2830.6	1.14857
2831.93	1.01801
2833.25	1.46776
2834.57	1.93125
2835.9	2.21006
2837.22	2.85599
2838.54	3.72738
2839.86	3.96164
2841.18	5.0725
2842.5	5.06683
2843.83	6.16456
2845.15	6.89587
2846.47	6.44111
2847.79	6.38268
2849.11	7.24302
2850.43	7.32554
2851.75	7.68991
2853.07	6.86622
2854.39	7.31383
2855.71	7.16762
2857.03	7.38872
2858.35	7.70874
2859.66	7.16718
2860.98	8.40466
2862.3	7.60827
2863.62	8.20889
2864.94	8.06093
2866.25	8.29389
2867.57	8.86565
2868.89	8.77524
2870.2	9.20724
2871.52	9.3293
2872.84	10.2542
2874.15	10.7265
2875.47	11.2247
2876.78	11.7627
2878.1	12.7771
2879.41	12.3974
2880.73	12.1172
2882.04	12.1479
2883.36	12.2229
2884.67	11.7522
2885.99	11.311
2887.3	11.5298
2888.61	11.2285
2889.93	10.8137
2891.24	11.211
2892.55	10.5977
2893.86	10.6851
2895.18	11.3892
2896.49	11.3244
2897.8	11.3176
2899.11	10.7811
2900.42	11.1835
2901.73	11.335
2903.05	11.3609
2904.36	11.4571
2905.67	11.7076
2906.98	11.9312
2908.29	12.0864
2909.6	12.1733
2910.91	12.4012
2912.21	12.6012
2913.52	12.0581
2914.83	12.4084
2916.14	13.4135
2917.45	13.4218
2918.76	13.3163
2920.07	14.0217
2921.37	14.0289
2922.68	14.4858
2923.99	14.1205
2925.29	14.3585
2926.6	14.7235
2927.91	14.5714
2929.22	14.6004
2930.52	15.0618
2931.83	15.4524
2933.13	14.8501
2934.44	15.1563
2935.74	14.4285
2937.05	14.6375
2938.35	14.6373
2939.66	14.3022
2940.96	14.052
2942.26	12.9928
2943.57	12.8021
2944.87	11.7749
2946.18	11.2106
2947.48	11.6543
2948.78	10.6844
2950.08	10.5381
2951.39	9.99685
2952.69	9.97071
2953.99	9.64839
2955.29	9.82954
2956.59	9.08827
2957.9	8.93807
2959.2	9.17003
2960.5	8.24379
2961.8	8.45505
2963.1	8.35924
2964.4	8.12216
2965.7	8.41656
2967	8.16071
2968.3	7.41067
2969.6	7.37631
2970.9	7.59498
2972.19	6.54808
2973.49	6.61293
2974.79	6.88903
2976.09	6.19296
2977.39	5.74842
2978.68	5.93523
2979.98	5.41581
2981.28	4.85276
2982.58	4.59892
2983.87	5.07686
2985.17	4.783
2986.47	4.18223
2987.76	4.37048
2989.06	3.85751
2990.35	3.44329
2991.65	3.2534
2992.94	3.44178
2994.24	3.26328
2995.53	2.71836
2996.83	2.5802
2998.12	2.2736
2999.42	2.47262
3000.71	2.01322
3002	1.77921
3003.3	1.86824
3004.59	1.67729
3005.88	1.36023
3007.18	1.51878
3008.47	1.49446
3009.76	1.72093
3011.05	1.10798
3012.34	0.844621
3013.64	0.79104
3014.93	0.710241
3016.22	0.658308
3017.51	0.551695
3018.8	0.612885
3020.09	0.298738
3021.38	0.262619
3022.67	0.23969
3023.96	0.174291
3025.25	-0.224376
3026.54	0.333307
3027.83	0.586145
3029.12	0.231561
3030.41	-0.245123
3031.69	0.34374
3032.98	-0.060564
3034.27	-0.160483
3035.56	0.222145
3036.84	-0.279179
3038.13	0.127821
3039.42	0.0506325
3040.71	0.549426
3041.99	-0.244104
3043.28	-0.0347795
3044.57	0.229782
3045.85	0.345198
3047.14	-0.0289183
3048.42	-0.126844
3049.71	0.350852
3050.99	-0.38432
3052.28	-0.0539904
3053.56	0.590318
3054.85	0.115314
3056.13	0.130648
3057.41	0.513091
3058.7	0.213275
3059.98	0.4856
3061.26	0.445184
3062.55	0.555634
3063.83	0.0422077
3065.11	0.264915
3066.39	0.502814
3067.68	0.0485749
3068.96	0.465151
3070.24	0.36498
3071.52	0.563317
3072.8	-0.041759
3074.08	-0.470825
3075.36	-0.0577631
3076.65	-0.147657
3077.93	0.238195
3079.21	0.285822
3080.49	-0.0582094
3081.77	0.23714
3083.04	-0.171431
3084.32	0.017817
3085.6	-0.226815
3086.88	0.22049
3088.16	-0.079154
3089.44	0.0551071
3090.72	-0.0551319
3091.99	-0.314445
3093.27	-0.0442672
3094.55	-0.248286
3095.83	0.29402
3097.1	0.0637813
3098.38	-0.0848365
3099.66	0.173252
3100.93	-0.0562763
3102.21	0.0125995
3103.49	0.257972
3104.76	0.314502
3106.04	0.236681
3107.31	0.335962
3108.59	-0.0235991
3109.86	0.25422
3111.14	0.722956
3112.41	0.109447
3113.69	0.431142
3114.96	0.509303
3116.23	0.451781
3117.51	0.393684
3118.78	0.660351
3120.05	0.546462
3121.33	0.459139
3122.6	0.317422
3123.87	1.00222
3125.14	0.766243
3126.41	0.747785
3127.69	0.689637
3128.96	0.415973
3130.23	1.08958
3131.5	0.965777
3132.77	0.896307
3134.04	1.05649
3135.31	0.959821
3136.58	1.17341
3137.85	0.914705
3139.12	1.18178
3140.39	1.11208
3141.66	1.05645
3142.93	1.40468
3144.2	1.29669
3145.47	1.18992
3146.74	1.40611
3148	1.26127
3149.27	1.49254
