200.563	1.61566
202.377	1.65014
204.194	1.68676
206.008	2.23604
207.821	1.91034
209.634	1.85135
211.449	1.52332
213.262	1.12051
215.074	0.716391
216.885	1.4753
218.699	1.65224
220.51	1.15263
222.321	0.824867
224.131	1.0553
225.941	0.90004
227.751	0.600187
229.562	1.31415
231.371	-0.0490456
233.18	0.759697
234.988	0.748732
236.796	-0.296211
238.603	0.326153
240.411	-0.059248
242.219	-0.29603
244.026	0.98909
245.832	0.320238
247.638	1.19319
249.443	0.395363
251.248	1.06468
253.053	0.88393
254.857	0.603777
256.661	1.43234
258.465	0.28577
260.268	0.130875
262.071	0.437233
263.874	-0.0965729
265.678	1.20266
267.48	0.599018
269.282	0.259682
271.083	0.25629
272.884	-0.279631
274.684	-0.432276
276.484	0.786245
278.284	-0.240273
280.084	1.23531
281.883	0.515129
283.682	0.441959
285.48	-0.61861
287.276	-0.430416
289.074	-0.00276184
290.871	0.138012
292.668	-0.341364
294.465	0.474298
296.261	-0.310087
298.057	0.557056
299.853	-0.104584
301.648	-0.00191689
303.443	-0.0202618
305.237	-0.112415
307.032	1.29647
308.823	-0.300051
310.617	0.155081
312.41	-0.10252
314.203	0.357281
315.995	0.391695
317.788	1.38195
319.579	0.707912
321.369	0.17836
323.16	0.412783
324.951	0.26639
326.741	0.955667
328.531	-0.0749931
330.321	1.04346
332.108	0.462551
333.897	1.14614
335.686	-0.0405273
337.474	0.252197
339.26	1.09126
341.048	-0.0818233
342.835	0.824203
344.622	0.654169
346.406	0.532915
348.192	1.48746
349.978	-0.0880489
351.764	0.986334
353.547	0.531933
355.332	0.83913
357.116	0.452158
358.901	0.849476
360.682	0.0772839
362.466	0.208733
364.249	0.33857
366.03	0.0629711
367.812	0.735756
369.594	0.0778446
371.374	-0.177681
373.155	-0.102724
374.936	-0.288576
376.715	-0.14349
378.495	0.308674
380.273	0.384598
382.053	0.062315
383.832	-0.163208
385.609	-0.409807
387.388	0.168255
389.164	0.0195675
390.942	0.436274
392.72	0.548948
394.495	0.47473
396.272	0.776867
398.047	-0.189173
399.823	0.84074
401.597	0.883312
403.372	0.525364
405.145	0.330404
406.92	0.979471
408.693	0.594112
410.467	0.255226
412.239	0.573572
414.012	-0.0225925
415.783	0.297588
417.556	0.102909
419.327	0.800957
421.099	0.701557
422.869	1.21187
424.64	0.805338
426.409	1.03086
428.18	0.808752
429.948	1.28992
431.718	0.902519
433.486	0.750387
435.253	0.223288
437.022	0.986872
438.789	0.176605
440.558	0.372803
442.324	-0.0446339
444.089	0.190866
445.857	-0.350248
447.622	-0.0266361
449.386	0.622917
451.153	0.0566082
452.917	-0.484898
454.682	0.0709743
456.446	1.39492
458.208	0.597317
459.973	0.662003
461.735	0.867338
463.497	0.563953
465.259	0.543882
467.022	0.80769
468.783	0.193047
470.544	0.557764
472.306	0.737648
474.066	1.03264
475.825	0.625818
477.585	0.890402
479.346	1.12836
481.104	1.17815
482.862	1.7406
484.62	0.0693016
486.38	1.19648
488.137	0.929792
489.894	0.293203
491.65	0.801298
493.407	0.657106
495.164	1.09765
496.92	0.719412
498.675	1.15997
500.43	1.36588
502.184	0.186014
503.939	0.92878
505.694	1.22384
507.448	1.68121
509.201	1.21854
510.954	1.08198
512.706	1.27187
514.459	0.611872
516.21	0.561197
517.962	0.95516
519.715	1.13539
521.466	0.16276
523.216	1.4211
524.966	0.823517
526.716	0.414135
528.466	1.08366
530.215	0.627405
531.964	1.52921
533.712	1.39848
535.46	1.35921
537.208	1.73795
538.955	0.432447
540.703	1.55269
542.449	0.945313
544.196	0.75738
545.942	-0.359562
547.688	0.615013
549.433	0.892298
551.178	-0.0578823
552.923	0.914
554.667	-0.126007
556.412	0.498402
558.155	0.476564
559.899	0.847265
561.642	0.757921
563.385	0.232721
565.127	0.858498
566.867	0.565813
568.609	-0.276104
570.35	0.651539
572.092	-0.414864
573.832	-0.537598
575.573	0.352045
577.313	1.19905
579.053	0.465015
580.79	0.0531635
582.529	0.675097
584.268	0.491911
586.006	0.74365
587.745	0.441111
589.482	0.5734
591.218	0.312895
592.955	0.0974541
594.692	0.157822
596.428	0.126204
598.164	-0.296629
599.898	0.269133
601.634	0.580212
603.369	-0.00807571
605.104	0.0221004
606.836	-0.0419464
608.57	0.489685
610.304	-0.608946
612.037	-0.145798
613.769	-0.392462
615.501	-0.0877953
617.234	0.056509
618.966	0.978344
620.696	0.111929
622.427	-0.321121
624.159	-0.115028
625.887	0.319267
627.618	-0.477842
629.348	0.440758
631.076	0.176628
632.806	-0.19803
634.535	0.0223751
636.262	0.0367165
637.99	0.504446
639.716	0.419411
641.444	-0.377935
643.172	-0.2668
644.897	0.0469799
646.624	-0.230598
648.348	-0.345243
650.075	0.11372
651.801	1.054
653.524	4.64387
655.249	1.12232
656.972	-0.124037
658.697	0.77141
660.419	0.0933304
662.143	0.895655
663.865	0.460798
665.588	0.38694
667.309	0.080986
669.032	0.27685
670.752	-0.280642
672.474	0.423597
674.194	-0.401484
675.915	-0.26152
677.634	0.224968
679.355	-0.183165
681.073	0.325754
682.793	-0.594139
684.511	0.437893
686.23	0.0165367
687.947	0.191084
689.664	-0.258127
691.382	-0.294024
693.098	0.429138
694.816	0.160448
696.531	0.3967
698.247	-0.174986
699.963	0.0569115
701.678	-0.380323
703.392	-0.198122
705.108	0.212254
706.821	0.575241
708.534	0.386583
710.249	0.426624
711.962	0.305737
713.674	-0.730356
715.388	0.84005
717.099	0.786625
718.81	-0.680756
720.523	0.293242
722.234	0.423355
723.944	0.121044
725.654	0.114542
727.365	-0.074192
729.075	0.167849
730.784	0.748686
732.492	0.693624
734.202	0.276323
735.91	0.538046
737.618	0.890234
739.325	0.453465
741.034	-0.138643
742.741	0.511114
744.447	0.712208
746.153	0.0154991
747.859	-0.115908
749.564	-0.155008
751.271	0.61779
752.976	0.988062
754.681	1.54092
756.385	0.543943
758.088	0.40449
759.792	0.447657
761.495	0.98885
763.2	1.44151
764.902	0.833017
766.604	1.98412
768.306	1.55067
770.008	0.841646
771.709	0.988205
773.41	1.42633
775.11	1.63758
776.811	2.23425
778.51	1.16014
780.21	0.721678
781.909	1.32559
783.608	1.74905
785.307	1.24252
787.005	1.20707
788.703	1.16609
790.401	1.02895
792.098	1.40716
793.795	0.811108
795.492	0.96019
797.188	0.93038
798.884	1.48906
800.58	0.564781
802.276	2.05105
803.971	1.60327
805.665	1.33537
807.36	0.864027
809.054	0.570824
810.748	1.19606
812.441	1.25825
814.135	1.54342
815.826	1.1562
817.518	0.747185
819.21	1.8363
820.902	0.869669
822.594	1.28863
824.285	2.17664
825.976	2.39773
827.665	1.66494
829.355	1.47202
831.045	1.84138
832.735	1.4808
834.424	1.30198
836.111	1.88307
837.8	1.75026
839.488	1.41423
841.177	1.61124
842.864	0.242085
844.55	1.64264
846.237	0.988777
847.924	1.47811
849.61	1.39066
851.295	1.17319
852.98	1.18288
854.666	1.80009
856.349	0.755922
858.034	0.382299
859.719	1.67042
861.403	0.840498
863.085	1.17834
864.769	0.590227
866.452	1.05975
868.133	0.96471
869.816	1.79358
871.498	1.2462
873.179	1.12702
874.86	0.624111
876.54	1.15923
878.221	0.814329
879.902	1.0335
881.58	0.981203
883.26	1.44684
884.938	0.601215
886.618	1.08496
888.297	0.888807
889.974	1.18615
891.653	1.05232
893.329	1.74955
895.007	0.891026
896.683	0.818933
898.36	0.790113
900.035	0.804617
901.712	0.92968
903.387	1.09829
905.063	1.60135
906.737	-0.150488
908.412	0.153921
910.085	0.748732
911.76	0.565319
913.433	0.294653
915.107	1.75691
916.779	0.466045
918.452	1.72599
920.124	1.32338
921.797	0.568665
923.467	1.09933
925.138	0.461565
926.81	0.512238
928.48	-0.140381
930.151	0.577606
931.82	0.347849
933.489	-0.123997
935.16	0.63983
936.828	0.610369
938.496	0.251724
940.165	0.733404
941.833	0.202646
943.5	0.533525
945.168	0.687696
946.834	0.243847
948.5	0.944571
950.168	0.0527668
951.834	0.747869
953.499	0.251875
955.163	0.0677433
956.83	0.902985
958.494	0.928322
960.158	0.782177
961.821	0.638561
963.487	-0.080307
965.15	-0.0732117
966.812	0.371731
968.474	0.170267
970.138	-0.10113
971.8	0.223413
973.461	0.703606
975.123	0.434582
976.783	0.52272
978.446	0.525118
980.106	0.218872
981.766	-0.0882874
983.425	1.17386
985.084	1.03788
986.743	1.82768
988.402	0.556183
990.06	0.853605
991.72	0.464529
993.378	0.406984
995.035	0.636698
996.692	0.579624
998.349	0.875372
1000.01	0.994101
1001.66	2.16899
1003.32	2.17522
1004.97	1.49918
1006.63	0.801977
1008.28	1.79686
1009.94	0.66256
1011.59	0.868292
1013.25	0.724012
1014.9	1.43488
1016.55	0.941795
1018.21	0.187685
1019.86	0.376223
1021.51	0.850777
1023.16	0.671421
1024.81	0.515783
1026.47	0.295704
1028.12	0.862278
1029.77	-0.276428
1031.42	1.02926
1033.07	1.80715
1034.72	1.53389
1036.37	1.84707
1038.02	1.57015
1039.67	1.68541
1041.31	1.99765
1042.96	2.76856
1044.61	1.86932
1046.26	2.86424
1047.91	2.64644
1049.55	2.06279
1051.2	2.11142
1052.84	1.72715
1054.49	1.5173
1056.14	1.93767
1057.78	1.37942
1059.43	2.23334
1061.07	2.10771
1062.72	1.89361
1064.36	2.22132
1066	1.74256
1067.65	1.63142
1069.29	1.14923
1070.93	1.49146
1072.58	0.878189
1074.22	1.17772
1075.86	1.39231
1077.5	0.95878
1079.14	2.58777
1080.78	2.57008
1082.42	1.77172
1084.06	1.94738
1085.7	1.5129
1087.34	2.13649
1088.98	1.75936
1090.62	1.18478
1092.26	1.43041
1093.9	1.32921
1095.54	1.37971
1097.17	1.23777
1098.81	1.80952
1100.45	1.7382
1102.09	1.08971
1103.72	1.24097
1105.36	1.15805
1106.99	1.03316
1108.63	1.14426
1110.27	1.18876
1111.9	1.07983
1113.53	1.16134
1115.17	1.4981
1116.8	1.38288
1118.43	1.03234
1120.07	0.469395
1121.7	1.64333
1123.33	1.53408
1124.97	1.94031
1126.6	2.04858
1128.23	1.8376
1129.86	0.901165
1131.49	1.35568
1133.12	1.49003
1134.75	0.897329
1136.38	1.45768
1138.01	1.11841
1139.64	0.542183
1141.27	0.263544
1142.9	1.24329
1144.53	0.964087
1146.16	1.45397
1147.78	-0.0152168
1149.41	-0.0545006
1151.04	-0.0077095
1152.67	-0.301647
1154.29	0.553579
1155.92	-0.145987
1157.54	-0.24955
1159.17	0.732399
1160.8	0.184456
1162.42	0.191555
1164.05	1.07221
1165.67	-0.342525
1167.29	0.219593
1168.92	-0.219486
1170.54	0.0612526
1172.16	0.0834332
1173.79	0.569555
1175.41	-0.00788307
1177.03	-0.542856
1178.65	0.109602
1180.28	-0.295898
1181.9	0.971832
1183.52	-0.847263
1185.14	0.103584
1186.76	0.565905
1188.38	0.0329914
1190	-0.123032
1191.62	0.328447
1193.24	-0.401085
1194.86	-0.416164
1196.47	0.575233
1198.09	-0.00445557
1199.71	0.947054
1201.33	0.48032
1202.95	0.770836
1204.56	0.752756
1206.18	1.09326
1207.8	0.580704
1209.41	1.90434
1211.03	0.660709
1212.64	0.477909
1214.26	0.916403
1215.87	0.704838
1217.49	0.511263
1219.1	1.72934
1220.71	0.702974
1222.33	1.31825
1223.94	1.2925
1225.55	2.20132
1227.16	1.04272
1228.78	1.60454
1230.39	2.39574
1232	2.69274
1233.61	2.62002
1235.22	2.11574
1236.83	1.71708
1238.44	2.1885
1240.05	3.07495
1241.66	2.70046
1243.27	2.40787
1244.88	2.07228
1246.49	2.16928
1248.1	2.84377
1249.71	2.35808
1251.32	2.8443
1252.92	1.65544
1254.53	2.82609
1256.14	3.04738
1257.74	2.09196
1259.35	2.13159
1260.96	2.73176
1262.56	2.3807
1264.17	2.71301
1265.77	2.3609
1267.38	2.77414
1268.98	3.2272
1270.59	2.82826
1272.19	2.61388
1273.79	2.77075
1275.4	3.38168
1277	2.74719
1278.6	3.58228
1280.21	3.42167
1281.81	3.30205
1283.41	3.69999
1285.01	3.78855
1286.61	3.61013
1288.21	3.41321
1289.81	4.35475
1291.41	3.62334
1293.01	4.06951
1294.61	5.13377
1296.21	5.07958
1297.81	4.81561
1299.41	4.65165
1301.01	5.0208
1302.6	4.35694
1304.2	4.20681
1305.8	5.14511
1307.4	4.29381
1308.99	5.22845
1310.59	3.92757
1312.19	4.2474
1313.78	4.36366
1315.38	4.46132
1316.97	5.29572
1318.57	4.21229
1320.16	4.92411
1321.76	4.02376
1323.35	4.89225
1324.94	4.31227
1326.54	4.56321
1328.13	4.65028
1329.72	4.13104
1331.32	3.5152
1332.91	4.01622
1334.5	4.0565
1336.09	4.56398
1337.68	4.58789
1339.27	4.75141
1340.87	4.42786
1342.45	3.59754
1344.04	4.29264
1345.64	3.49855
1347.22	3.64925
1348.81	3.0619
1350.4	3.10071
1351.99	3.42428
1353.58	3.41158
1355.17	3.06153
1356.75	3.45161
1358.34	2.96169
1359.93	2.98947
1361.51	3.99318
1363.1	3.73756
1364.69	3.44175
1366.27	3.52535
1367.86	2.95333
1369.44	3.10073
1371.03	3.25072
1372.61	3.34357
1374.2	3.67731
1375.78	3.63422
1377.37	3.33256
1378.95	3.86562
1380.53	3.22271
1382.11	3.21405
1383.7	3.22282
1385.28	3.03097
1386.86	3.13648
1388.44	4.17553
1390.02	3.4286
1391.6	3.35858
1393.19	2.99252
1394.77	2.84546
1396.35	3.03515
1397.93	3.28284
1399.51	3.84545
1401.08	3.29667
1402.66	3.83604
1404.24	4.05828
1405.82	3.39158
1407.4	3.18171
1408.97	4.21833
1410.55	3.83311
1412.13	3.27026
1413.71	4.24625
1415.28	3.72016
1416.86	3.96204
1418.43	3.72995
1420.01	3.6761
1421.59	4.47109
1423.16	3.67422
1424.73	4.23883
1426.31	4.23503
1427.88	4.54711
1429.46	4.77985
1431.03	5.40435
1432.6	5.80984
1434.18	7.09842
1435.75	7.36267
1437.32	6.91948
1438.89	8.58136
1440.46	7.9062
1442.04	7.58705
1443.61	8.6255
1445.18	8.26945
1446.75	8.3265
1448.32	8.12834
1449.89	7.51796
1451.46	7.61631
1453.03	8.30586
1454.6	7.7572
1456.16	7.44421
1457.73	8.03483
1459.3	6.89077
1460.87	6.9434
1462.44	7.34607
1464	5.91609
1465.57	6.0969
1467.14	5.92324
1468.7	5.33829
1470.27	5.24632
1471.83	4.66624
1473.4	5.44184
1474.96	4.35579
1476.53	3.97667
1478.09	4.49961
1479.66	3.76775
1481.22	3.03588
1482.78	2.69594
1484.35	3.1004
1485.91	3.07303
1487.47	2.7504
1489.04	2.15146
1490.6	2.27372
1492.16	2.43102
1493.72	1.92013
1495.28	2.28508
1496.84	2.5304
1498.4	1.93806
1499.96	2.02839
1501.52	1.59629
1503.08	1.49678
1504.64	2.077
1506.2	1.76617
1507.76	1.35809
1509.32	0.852462
1510.88	1.83172
1512.44	1.32331
1513.99	1.27749
1515.55	0.847708
1517.11	0.784756
1518.66	1.14504
1520.22	1.37144
1521.78	0.774921
1523.33	1.53607
1524.89	1.47324
1526.44	0.608086
1528	0.676651
1529.55	1.04836
1531.11	0.602654
1532.66	1.4293
1534.21	1.08132
1535.77	1.05743
1537.32	1.96087
1538.87	1.59907
1540.43	1.20087
1541.98	0.954275
1543.53	1.1408
1545.08	1.0634
1546.63	1.64313
1548.18	1.41464
1549.74	1.58013
1551.29	1.20264
1552.84	1.63109
1554.39	1.61181
1555.94	1.40815
1557.48	1.56231
1559.03	1.81288
1560.58	1.74933
1562.13	2.11749
1563.68	1.6666
1565.23	1.72032
1566.78	2.31532
1568.32	2.03281
1569.87	2.19753
1571.42	1.82026
1572.96	1.68515
1574.51	2.25913
1576.05	1.80642
1577.6	1.8954
1579.14	2.19042
1580.69	2.07575
1582.24	2.09307
1583.78	2.1678
1585.32	2.80444
1586.87	2.80668
1588.41	3.29541
1589.95	2.26841
1591.5	2.6812
1593.04	2.7751
1594.58	2.90601
1596.12	2.94339
1597.67	3.13146
1599.21	3.43329
1600.75	3.77411
1602.29	3.49665
1603.83	3.21877
1605.37	3.69083
1606.91	3.14587
1608.45	3.34901
1609.99	3.36013
1611.53	3.59259
1613.07	3.22044
1614.6	2.26469
1616.14	3.41005
1617.68	2.79294
1619.22	2.89042
1620.75	2.24127
1622.29	2.43725
1623.83	3.00889
1625.37	2.13898
1626.9	3.53248
1628.44	2.67789
1629.97	3.11186
1631.51	3.30062
1633.04	2.89082
1634.58	3.00471
1636.11	2.91464
1637.65	3.46028
1639.18	3.14895
1640.72	3.37828
1642.25	3.36409
1643.78	3.8879
1645.31	3.19944
1646.85	4.10943
1648.38	3.71694
1649.91	3.34431
1651.44	4.5697
1652.97	4.20098
1654.5	4.11266
1656.03	3.89572
1657.56	3.8084
1659.1	4.905
1660.62	4.10998
1662.15	4.1827
1663.68	3.66177
1665.21	3.9718
1666.74	4.26356
1668.27	2.9709
1669.8	3.65453
1671.32	3.73209
1672.85	3.31417
1674.38	3.92841
1675.91	2.95856
1677.43	3.49697
1678.96	2.67175
1680.49	2.87514
1682.01	2.23182
1683.54	1.97437
1685.06	2.83669
1686.59	2.19477
1688.11	2.58068
1689.64	1.77612
1691.16	1.99804
1692.68	1.57932
1694.21	1.3072
1695.73	2.31473
1697.25	1.45706
1698.78	0.96499
1700.3	1.4765
1701.82	1.43936
1703.34	1.49244
1704.86	1.39885
1706.39	1.52299
1707.91	1.06473
1709.43	1.26097
1710.95	1.25737
1712.47	0.80074
1713.99	1.10598
1715.51	0.81343
1717.02	1.95008
1718.54	0.771397
1720.06	0.443215
1721.58	0.873579
1723.1	1.14188
1724.62	1.12313
1726.13	0.962399
1727.65	0.461876
1729.17	0.358985
1730.68	0.528856
1732.2	0.750909
1733.72	0.978077
1735.23	0.705116
1736.75	0.124479
1738.26	0.635592
1739.78	0.726163
1741.29	0.872856
1742.81	0.510358
1744.32	0.350422
1745.84	0.726559
1747.35	0.937629
1748.86	0.417234
1750.37	0.305197
1751.89	0.791771
1753.4	0.0343466
1754.91	0.343751
1756.42	0.42297
1757.93	0.726551
1759.45	0.456752
1760.96	0.237403
1762.47	-0.0274525
1763.98	0.1304
1765.49	0.0606279
1767	0.628489
1768.51	0.242467
1770.02	0.677498
1771.53	0.321816
1773.03	0.523542
1774.54	-0.189144
1776.05	0.395816
1777.56	0.347486
1779.07	-0.0297575
1780.57	-0.0577612
1782.08	0.124056
1783.59	-0.184951
1785.09	-0.182621
1786.6	0.488264
1788.11	0.346352
1789.61	0.108764
1791.12	0.209058
1792.62	0.129754
1794.13	-0.234143
1795.63	0.0784311
1797.13	0.361084
1798.64	0.0799551
1800.14	-0.262023
1801.65	-0.0301819
1803.15	0.0638561
1804.65	0.098074
1806.15	-0.0851269
1807.66	-0.212147
1809.16	-0.112214
1810.66	-0.117967
1812.16	-0.0286551
1813.66	0.411247
1815.16	0.107602
1816.66	0.155951
1818.16	0.377085
1819.66	0.14761
1821.16	0.336921
1822.66	0.285861
1824.16	0.447576
1825.66	-0.379081
1827.16	-0.0120497
1828.66	-0.101751
1830.16	0.314871
1831.65	0.232188
1833.15	-0.0856924
1834.65	-0.271939
1836.14	0.340673
1837.64	-0.158661
1839.14	0.205322
1840.63	-0.349258
1842.13	-0.0705366
1843.62	-0.0551662
1845.12	0.0574627
1846.61	0.222792
1848.11	-0.0455713
1849.6	-0.203756
1851.1	-0.0459404
1852.59	-0.107855
1854.08	-0.471166
1855.58	0.0667076
1857.07	-0.125886
1858.56	-0.241131
1860.05	0.390629
1861.55	0.152776
1863.04	0.298665
1864.53	0.377108
1866.02	0.456662
1867.51	-0.100267
1869	-0.0233622
1870.49	-0.0652647
1871.98	0.14524
1873.47	-0.355781
1874.96	0.334292
1876.45	0.303142
1877.94	-0.0596857
1879.43	-0.0805416
1880.92	-0.218028
1882.41	0.471377
1882.51	0.522633
1884	0.314439
1885.5	0.174962
1886.99	0.365293
1888.48	0.0672588
1889.98	0.0655527
1891.47	0.239096
1892.96	-0.0199099
1894.46	-0.137253
1895.95	-0.0960083
1897.44	0.1377
1898.93	-0.0983171
1900.42	0.760206
1901.91	0.503046
1903.41	0.191249
1904.9	0.086215
1906.39	0.206014
1907.88	0.568734
1909.37	0.0467215
1910.86	1.14008
1912.35	0.91575
1913.83	0.258761
1915.32	0.555866
1916.81	0.349597
1918.3	0.870603
1919.79	0.0391474
1921.27	0.195367
1922.76	0.611774
1924.25	0.128974
1925.74	0.0287094
1927.22	-0.260528
1928.71	0.299458
1930.19	0.25345
1931.68	0.414119
1933.17	-0.206462
1934.65	0.0882387
1936.14	0.259258
1937.62	-0.194057
1939.11	-0.198195
1940.59	-0.115619
1942.07	0.175089
1943.56	0.346211
1945.04	0.173528
1946.52	0.260062
1948.01	0.156651
1949.49	0.414036
1950.97	-0.294422
1952.45	-0.0741529
1953.93	0.231004
1955.42	0.10602
1956.9	0.204964
1958.38	-0.107178
1959.86	0.0108547
1961.34	0.180965
1962.82	-0.300114
1964.3	0.161262
1965.78	0.107778
1967.26	0.104737
1968.74	0.186303
1970.21	0.130191
1971.69	0.21042
1973.17	0.170958
1974.65	0.21696
1976.13	0.280179
1977.6	0.326508
1979.08	-0.12071
1980.56	0.334151
1982.03	0.244205
1983.51	-0.185761
1984.99	0.131269
1986.46	0.294822
1987.94	0.271667
1989.41	-0.25906
1990.89	-0.145077
1992.36	0.815681
1993.84	0.373742
1995.31	0.643088
1996.78	0.456739
1998.26	0.186021
1999.73	-0.355218
2001.2	-0.103716
2002.68	0.13001
2004.15	0.127287
2005.62	-0.0603371
2007.09	0.140591
2008.56	-0.162491
2010.04	-0.0265474
2011.51	0.463566
2012.98	-0.224554
2014.45	0.19764
2015.92	0.332582
2017.39	-0.0215511
2018.86	0.783411
2020.33	0.914719
2021.8	0.0212698
2023.26	-0.216221
2024.73	-0.385349
2026.2	0.235553
2027.67	0.271163
2029.14	0.0572357
2030.61	0.14704
2032.07	0.0536156
2033.54	0.548353
2035.01	-0.031353
2036.47	0.664743
2037.94	0.537126
2039.4	-0.39784
2040.87	-0.12295
2042.33	0.421587
2043.8	0.0423803
2045.27	0.118424
2046.73	-0.208485
2048.19	-0.063674
2049.66	0.198833
2051.12	0.291618
2052.59	0.382329
2054.05	-0.00166607
2055.51	0.438293
2056.97	0.471548
2058.44	0.18349
2059.9	0.400741
2061.36	0.567865
2062.82	0.163703
2064.28	0.232328
2065.74	-0.1689
2067.21	0.491259
2068.67	0.0751419
2070.13	0.652509
2071.59	0.371517
2073.05	0.140763
2074.51	0.128511
2075.96	0.132649
2077.42	0.557304
2078.88	0.274121
2080.34	1.10169
2081.8	0.143639
2083.26	0.161322
2084.72	0.245304
2086.17	0.429161
2087.63	0.225293
2089.09	0.676469
2090.54	0.505411
2092	0.200113
2093.45	0.197055
2094.91	0.327818
2096.37	0.172843
2097.82	0.067421
2099.28	0.396449
2100.73	0.741257
2102.19	0.701496
2103.64	0.228778
2105.09	0.776424
2106.55	0.157691
2108	0.358044
2109.45	0.692171
2110.91	0.425274
2112.36	0.240112
2113.81	0.669014
2115.26	0.529357
2116.72	0.471814
2118.17	1.01276
2119.62	0.0608664
2121.07	0.373485
2122.52	0.240665
2123.97	0.590741
2125.42	0.626604
2126.87	0.827923
2128.32	1.14385
2129.77	0.943968
2131.22	0.626523
2132.67	0.8049
2134.11	1.21461
2135.56	1.12895
2137.01	1.72308
2138.46	1.17932
2139.91	1.03491
2141.35	1.09111
2142.8	1.19861
2144.25	0.976248
2145.7	1.16766
2147.14	1.72307
2148.59	1.26768
2150.03	1.72198
2151.48	1.04833
2152.92	1.20169
2154.37	1.48645
2155.81	1.14098
2157.26	1.75644
2158.7	1.84278
2160.15	1.98072
2161.59	2.00525
2163.03	1.58484
2164.47	2.12836
2165.92	2.54106
2167.36	1.87432
2168.8	2.11953
2170.24	2.41234
2171.69	2.53584
2173.13	1.92447
2174.57	2.30918
2176.01	1.9778
2177.45	2.09575
2178.89	1.98201
2180.33	1.81981
2181.77	1.97477
2183.21	1.93108
2184.65	1.95432
2186.09	2.11076
2187.53	1.71822
2188.97	1.69172
2190.4	2.13125
2191.84	2.02118
2193.28	1.59367
2194.72	1.34743
2196.16	1.24857
2197.59	1.94566
2199.03	1.42572
2200.47	1.61945
2201.9	1.79607
2203.34	1.35951
2204.77	1.05767
2206.21	1.12218
2207.64	1.53528
2209.08	1.53381
2210.51	1.26644
2211.95	1.54383
2213.38	0.943736
2214.82	0.773757
2216.25	1.0835
2217.68	1.26245
2219.12	0.783329
2220.55	1.01462
2221.98	0.949306
2223.41	0.981943
2224.85	1.22674
2226.28	1.18912
2227.71	0.425872
2229.14	0.746322
2230.57	0.851764
2232	0.301208
2233.43	0.701622
2234.86	0.742448
2236.29	0.768456
2237.72	0.845539
2239.15	0.354033
2240.58	1.07263
2242.01	0.782247
2243.44	0.330486
2244.87	0.499015
2246.29	0.487277
2247.72	0.995341
2249.15	-0.113721
2250.58	0.583888
2252.01	0.496782
2253.43	0.782714
2254.86	0.304909
2256.29	0.219397
2257.71	0.250641
2259.14	0.269355
2260.56	0.405482
2261.99	0.171578
2263.41	0.719108
2264.84	0.243927
2266.26	0.727075
2267.69	0.624007
2269.11	0.0964766
2270.53	0.560589
2271.96	0.30781
2273.38	0.543274
2274.8	0.534598
2276.23	0.412146
2277.65	0.58323
2279.07	0.330634
2280.49	0.289818
2281.91	1.03174
2283.34	0.0608664
2284.76	-0.110818
2286.18	0.305317
2287.6	0.183345
2289.02	0.110866
2290.44	0.087882
2291.86	0.555656
2293.28	0.386199
2294.7	0.641956
2296.12	0.0957632
2297.54	0.0239248
2298.96	0.361649
2300.37	0.536014
2301.79	0.464954
2303.21	0.0988979
2304.63	-0.0539417
2306.04	-0.354841
2307.46	0.296538
2308.88	0.224531
2310.3	0.365462
2311.71	0.308564
2313.13	-0.423035
2314.54	-0.101204
2315.96	0.386471
2317.37	0.216623
2318.79	-0.134146
2320.2	-0.172211
2321.62	0.0193214
2323.03	-0.171012
2324.45	0.427854
2325.86	0.792542
2327.27	0.495046
2328.69	0.921969
2330.1	0.228606
2331.51	0.673087
2332.92	0.147695
2334.34	0.0186214
2335.75	-0.389719
2337.16	0.122581
2338.57	0.0579033
2339.98	-0.583304
2341.39	-0.338177
2342.8	0.184983
2344.21	-0.276596
2345.63	-0.409448
2347.04	0.277186
2348.45	0.144571
2349.85	0.109786
2351.26	0.139439
2352.67	-0.469193
2354.08	-0.294679
2355.49	0.269824
2356.9	0.458201
2358.3	-0.0532694
2359.71	0.167644
2361.12	0.371993
2362.53	0.429976
2363.93	-0.0953522
2365.34	-0.215169
2366.75	-0.318331
2368.15	0.128401
2369.56	0.607887
2370.97	0.508083
2372.37	0.490742
2373.77	0.201013
2375.18	-0.168431
2376.59	-0.0553408
2377.99	0.297474
2379.39	0.0532932
2380.8	-0.144452
2382.2	-0.327547
2383.6	-0.142996
2385.01	0.152769
2386.41	0.256595
2387.81	0.361351
2389.21	-0.250029
2390.62	0.0971127
2392.02	0.44525
2393.42	-0.00128746
2394.82	0.0308256
2396.22	-0.0633745
2397.62	0.12937
2399.02	-0.0903721
2400.42	0.230736
2401.82	0.170928
2403.22	0.190605
2404.62	0.130404
2406.02	-0.486438
2407.42	0.133647
2408.82	0.149503
2410.22	-0.0728731
2411.62	-0.294757
2413.01	0.276381
2414.41	0.231314
2415.81	-0.0176458
2417.21	-0.0274315
2418.6	-0.305251
2420	0.0666103
2421.4	0.232551
2422.79	-0.0455151
2424.19	-0.181409
2425.59	0.284877
2426.98	0.577608
2428.38	0.617963
2429.77	0.183799
2431.17	0.924321
2432.56	0.681532
2433.95	-0.118049
2435.35	-0.061739
2436.74	0.564709
2438.14	0.0611372
2439.53	0.0166836
2440.92	0.399838
2442.31	0.258159
2443.71	0.259012
2445.1	-0.216217
2446.49	0.0380564
2447.88	-0.167649
2449.27	0.561369
2450.67	-0.0716419
2452.06	0.072051
2453.45	0.137505
2454.84	0.20401
2456.23	0.0499239
2457.62	-0.230286
2459.01	0.517427
2460.4	-0.0325632
2461.79	0.222971
2463.18	0.145415
2464.57	0.288338
2465.95	-0.0904179
2467.34	0.32029
2468.73	-0.295042
2470.12	-0.310772
2471.5	-0.0118017
2472.89	0.443494
2474.28	0.267497
2475.67	0.562802
2477.05	-0.243088
2478.44	-0.199709
2479.82	0.314548
2481.21	0.420524
2482.6	0.557572
2483.98	0.083251
2485.37	0.828547
2486.75	0.35221
2488.13	0.000341415
2489.52	0.318509
2490.9	-0.033618
2492.29	-0.166603
2493.67	0.167844
2495.05	0.0379095
2496.44	-0.105721
2497.82	0.108167
2499.2	0.198267
2500.58	0.38061
2501.97	0.283464
2503.35	0.293299
2504.73	0.178536
2506.11	-0.414452
2507.49	-0.22152
2508.87	0.232466
2510.25	0.163836
2511.63	-0.118648
2513.01	-0.0930891
2514.39	-0.189054
2515.77	-0.161375
2517.15	0.00487804
2518.53	0.477388
2519.91	-0.135328
2521.29	0.244986
2522.67	-0.0170546
2524.05	-0.24931
2525.42	-0.00966454
2526.8	0.183544
2528.18	0.163901
2529.55	0.145645
2530.93	0.174973
2532.31	0.236787
2533.69	0.406656
2535.06	0.288758
2536.44	0.125234
2537.81	0.219116
2539.19	0.00798416
2540.56	0.388027
2541.94	0.342346
2543.31	0.0845985
2544.69	0.267926
2546.06	0.483077
2547.44	-0.210337
2548.81	0.386677
2550.18	0.10389
2551.56	0.169448
2552.93	0.0820704
2554.3	0.403098
2555.67	-0.0205841
2557.04	0.0405741
2558.42	0.0863371
2559.79	0.268806
2561.16	0.542784
2562.53	0.635633
2563.9	0.426133
2565.27	0.247489
2566.64	0.720771
2568.01	0.254569
2569.38	0.576411
2570.75	0.170738
2572.12	0.325869
2573.49	0.435626
2574.86	0.0452166
2576.23	0.306683
2577.6	0.189013
2578.97	0.419765
2580.33	0.301295
2581.7	-0.0451603
2583.07	0.396324
2584.44	0.246153
2585.8	0.0655966
2587.17	0.627871
2588.54	0.12938
2589.9	0.328184
2591.27	0.193398
2592.64	0.224694
2594	0.709382
2595.37	0.43525
2596.73	0.689734
2598.1	0.473907
2599.46	0.333388
2600.83	0.0118017
2602.19	0.657699
2603.55	0.111284
2604.92	0.57701
2606.28	0.439255
2607.64	0.165451
2609.01	0.373076
2610.37	0.232464
2611.73	0.511736
2613.09	0.337882
2614.46	0.598927
2615.82	-0.0562887
2617.18	0.204502
2618.54	-0.118569
2619.9	0.323
2621.26	0.630216
2622.62	0.698577
2623.98	0.632739
2625.34	0.387809
2626.7	0.202506
2628.06	-0.251212
2629.42	0.144056
2630.78	0.30036
2632.14	0.367037
2633.5	0.448355
2634.86	0.618524
2636.21	0.195141
2637.57	0.172474
2638.93	0.312738
2640.29	0.452945
2641.64	0.667152
2643	0.142727
2644.36	0.283547
2645.71	0.424037
2647.07	0.151012
2648.43	-0.122495
2649.78	0.692404
2651.14	0.24048
2652.49	0.126804
2653.85	0.145631
2655.2	0.370524
2656.56	0.0252161
2657.91	0.311186
2659.26	0.305368
2660.62	0.563247
2661.97	0.221468
2663.32	0.507323
2664.68	0.207872
2666.03	0.680857
2667.38	0.278012
2668.74	0.0212708
2670.09	0.347253
2671.44	0.295341
2672.79	0.331459
2674.14	0.310216
2675.49	0.594511
2676.84	0.7777
2678.19	0.0623808
2679.54	0.23299
2680.89	0.172863
2682.24	0.172218
2683.59	0.535575
2684.94	0.581223
2686.29	0.293768
2687.64	0.934838
2688.99	0.57292
2690.34	0.0925512
2691.69	0.451762
2693.03	0.460517
2694.38	0.43894
2695.73	0.417101
2697.08	0.10631
2698.42	0.347634
2699.77	0.171082
2701.12	0.387703
2702.46	0.171785
2703.81	1.21772
2705.15	0.221136
2706.5	0.558062
2707.85	0.677258
2709.19	0.795988
2710.54	0.551211
2711.88	0.523782
2713.22	0.96111
2714.57	0.671811
2715.91	0.54216
2717.26	0.892171
2718.6	1.25655
2719.94	0.689292
2721.29	0.717875
2722.63	0.905886
2723.97	0.874918
2725.31	0.726875
2726.66	0.97128
2728	0.895006
2729.34	1.09487
2730.68	1.23626
2732.02	0.868331
2733.36	0.67514
2734.7	1.18038
2736.04	0.929466
2737.38	0.664199
2738.72	0.980633
2740.06	0.802226
2741.4	0.739515
2742.74	0.588701
2744.08	0.320743
2745.42	0.604161
2746.76	0.88674
2748.09	0.457548
2749.43	0.144812
2750.77	-0.0659142
2752.11	0.274719
2753.45	0.977711
2754.78	0.10124
2756.12	0.166897
2757.46	0.435415
2758.79	0.211916
2760.13	0.727112
2761.46	0.620516
2762.8	-0.165516
2764.14	-0.0105801
2765.47	0.24559
2766.8	0.284112
2768.14	0.205681
2769.47	0.00993538
2770.81	0.18821
2772.14	0.0900602
2773.48	0.337002
2774.81	0.0925913
2776.14	0.0357752
2777.48	0.267302
2778.81	0.312218
2780.14	-0.0302658
2781.47	0.245622
2782.8	-0.325484
2784.14	0.150999
2785.47	-0.204461
2786.8	0.257153
2788.13	0.260769
2789.46	-0.0207663
2790.79	-0.286617
2792.12	0.235067
2793.45	-0.558049
2794.78	0.421425
2796.11	0.0997438
2797.44	-0.2939
2798.77	-0.388148
2800.1	0.24499
2801.43	0.0925941
2802.76	0.225235
2804.09	-0.497659
2805.41	-0.26607
2806.74	0.0783148
2808.07	0.1938
2809.4	0.479086
2810.72	-0.272729
2812.05	0.453169
2813.38	0.10175
2814.71	-0.304158
2816.03	0.440144
2817.36	0.547941
2818.68	0.443937
2820.01	0.736811
2821.33	0.164512
2822.66	0.470034
2823.98	0.802933
2825.31	0.483616
2826.63	0.929202
2827.96	0.27096
2829.28	0.732046
2830.6	1.68916
2831.93	0.749681
2833.25	1.28231
2834.57	1.36151
2835.9	1.38338
2837.22	2.39492
2838.54	2.68391
2839.86	3.08555
2841.18	3.35991
2842.5	4.5112
2843.83	4.75868
2845.15	5.85534
2846.47	6.09103
2847.79	6.85037
2849.11	7.46852
2850.43	7.23808
2851.75	7.67099
2853.07	7.62233
2854.39	7.60119
2855.71	8.13071
2857.03	8.46228
2858.35	7.94641
2859.66	7.84022
2860.98	8.53859
2862.3	8.45965
2863.62	9.11392
2864.94	9.18883
2866.25	9.37652
2867.57	9.50823
2868.89	10.4163
2870.2	10.324
2871.52	10.1898
2872.84	10.9007
2874.15	11.2717
2875.47	11.3303
2876.78	11.5836
2878.1	11.8068
2879.41	12.1136
2880.73	12.0552
2882.04	12.3359
2883.36	12.7451
2884.67	12.1312
2885.99	13.0492
2887.3	12.1424
2888.61	12.7365
2889.93	12.7534
2891.24	12.4741
2892.55	12.6141
2893.86	12.8797
2895.18	13.2159
2896.49	13.1058
2897.8	13.0821
2899.11	14.2499
2900.42	13.7545
2901.73	14.1836
2903.05	13.4242
2904.36	13.938
2905.67	14.4525
2906.98	14.3248
2908.29	14.5347
2909.6	15.1384
2910.91	14.6941
2912.21	15.4814
2913.52	15.2874
2914.83	15.2443
2916.14	16.2054
2917.45	16.6027
2918.76	17.0815
2920.07	16.9163
2921.37	16.9065
2922.68	17.347
2923.99	17.5949
2925.29	18.167
2926.6	18.1955
2927.91	18.0145
2929.22	18.0704
2930.52	17.9852
2931.83	18.2206
2933.13	18.2876
2934.44	19.3609
2935.74	18.1983
2937.05	18.4477
2938.35	17.985
2939.66	17.1596
2940.96	16.629
2942.26	17.0925
2943.57	15.9236
2944.87	16.0574
2946.18	15.3409
2947.48	14.989
2948.78	14.7624
2950.08	14.0434
2951.39	13.9085
2952.69	12.6075
2953.99	12.9
2955.29	12.6598
2956.59	12.7574
2957.9	11.8094
2959.2	11.5105
2960.5	11.4411
2961.8	10.871
2963.1	10.6805
2964.4	10.8959
2965.7	10.2381
2967	9.75931
2968.3	9.91039
2969.6	9.83524
2970.9	9.42235
2972.19	8.55972
2973.49	8.78097
2974.79	8.63648
2976.09	8.44868
2977.39	7.76579
2978.68	7.43202
2979.98	7.39102
2981.28	7.08046
2982.58	7.17716
2983.87	6.55746
2985.17	5.54669
2986.47	5.87398
2987.76	5.69797
2989.06	5.13032
2990.35	5.22374
2991.65	4.45921
2992.94	4.45211
2994.24	4.06377
2995.53	3.63186
2996.83	3.7328
2998.12	3.70717
2999.42	2.88256
3000.71	3.18133
3002	2.75209
3003.3	2.05771
3004.59	1.92442
3005.88	1.41293
3007.18	1.69906
3008.47	1.32637
3009.76	1.76402
3011.05	1.64131
3012.34	0.792362
3013.64	1.31208
3014.93	1.14874
3016.22	0.65249
3017.51	0.353011
3018.8	0.527905
3020.09	0.452614
3021.38	0.0296078
3022.67	0.828519
3023.96	0.223496
3025.25	0.741766
3026.54	0.0539904
3027.83	-0.0781136
3029.12	0.109677
3030.41	-0.115093
3031.69	0.00779152
3032.98	-0.226707
3034.27	-0.00494385
3035.56	0.519759
3036.84	-0.267314
3038.13	0.115714
3039.42	0.289454
3040.71	0.0761509
3041.99	-0.178661
3043.28	0.252748
3044.57	0.273776
3045.85	0.0100899
3047.14	-0.168011
3048.42	0.0533829
3049.71	0.495975
3050.99	0.176606
3052.28	-0.0184669
3053.56	0.0597057
3054.85	-0.0263424
3056.13	0.527677
3057.41	0.221329
3058.7	0.459558
3059.98	0.193717
3061.26	-0.125454
3062.55	-0.102715
3063.83	0.724278
3065.11	0.0578814
3066.39	0.603613
3067.68	0.212921
3068.96	0.394134
3070.24	-0.0909767
3071.52	-0.0192223
3072.8	-0.234172
3074.08	0.392667
3075.36	-0.0552206
3076.65	0.0133991
3077.93	0.232103
3079.21	0.316678
3080.49	-0.573193
3081.77	-0.199124
3083.04	-0.0401659
3084.32	-0.0698719
3085.6	0.00952435
3086.88	0.170197
3088.16	-0.0360527
3089.44	0.178033
3090.72	0.215506
3091.99	-0.0181112
3093.27	0.223719
3094.55	0.289968
3095.83	0.533252
3097.1	-0.0905867
3098.38	0.058754
3099.66	0.31673
3100.93	0.304004
3102.21	0.657486
3103.49	0.253422
3104.76	0.5545
3106.04	0.369654
3107.31	0.646536
3108.59	0.654515
3109.86	0.488319
3111.14	0.553887
3112.41	0.878267
3113.69	0.756742
3114.96	0.933744
3116.23	0.473505
3117.51	0.92126
3118.78	0.662993
3120.05	1.04135
3121.33	1.09355
3122.6	0.955816
3123.87	1.02164
3125.14	0.898701
3126.41	1.03413
3127.69	1.36012
3128.96	1.37605
3130.23	1.52814
3131.5	1.32949
3132.77	1.21248
3134.04	1.0282
3135.31	1.51904
3136.58	1.57761
3137.85	1.66308
3139.12	1.86987
3140.39	1.61907
3141.66	1.88055
3142.93	1.94108
3144.2	1.94901
3145.47	1.94503
3146.74	2.11686
3148	1.87457
3149.27	2.49097
