200.563	1.40238
202.377	1.42266
204.194	1.44557
206.008	1.85998
207.821	0.257244
209.634	-0.299809
211.449	1.76497
213.262	0.427078
215.074	0.908329
216.885	1.21853
218.699	1.94063
220.51	1.23555
222.321	0.823936
224.131	0.608379
225.941	0.660341
227.751	-0.156876
229.562	0.982031
231.371	0.284924
233.18	0.770294
234.988	0.967035
236.796	0.997925
238.603	0.527349
240.411	0.423727
242.219	0.493708
244.026	1.19382
245.832	1.36366
247.638	0.878706
249.443	0.702209
251.248	0.0368366
253.053	-0.874603
254.857	0.575769
256.661	0.64999
258.465	0.943064
260.268	-0.181753
262.071	-0.0254021
263.874	0.375353
265.678	0.48942
267.48	-0.0945721
269.282	0.116243
271.083	0.229284
272.884	0.798349
274.684	0.086937
276.484	-0.723755
278.284	-0.790359
280.084	0.464073
281.883	0.244955
283.682	-0.530422
285.48	0.735092
287.276	0.724773
289.074	0.0434456
290.871	0.275351
292.668	-0.495543
294.465	0.603529
296.261	0.437431
298.057	0.464958
299.853	0.111324
301.648	0.784651
303.443	-0.215376
305.237	-1.0498
307.032	0.500076
308.823	0.188675
310.617	0.331594
312.41	-0.02318
314.203	-0.612463
315.995	-0.221689
317.788	-0.160669
319.579	1.26144
321.369	0.422827
323.16	0.0143242
324.951	-0.536903
326.741	1.29925
328.531	0.437384
330.321	0.744617
332.108	0.786655
333.897	0.562128
335.686	-0.600039
337.474	0.530521
339.26	0.532209
341.048	0.0765457
342.835	0.336863
344.622	0.0713253
346.406	0.213093
348.192	0.547251
349.978	1.14489
351.764	-0.310246
353.547	0.954357
355.332	0.021574
357.116	0.42214
358.901	1.58218
360.682	0.47616
362.466	1.03557
364.249	0.166029
366.03	0.222986
367.812	0.135904
369.594	1.16165
371.374	0.715054
373.155	-0.205105
374.936	-0.0604897
376.715	0.650457
378.495	-0.0301609
380.273	1.01199
382.053	0.995607
383.832	-0.805601
385.609	-0.321966
387.388	0.70401
389.164	0.110661
390.942	0.975685
392.72	0.738394
394.495	0.455362
396.272	-0.132231
398.047	0.125748
399.823	0.265965
401.597	0.0529404
403.372	0.825144
405.145	0.797182
406.92	0.462469
408.693	0.220547
410.467	0.21282
412.239	0.651049
414.012	0.550325
415.783	0.709127
417.556	0.236019
419.327	-0.235968
421.099	1.12309
422.869	0.697899
424.64	0.412027
426.409	1.22763
428.18	0.186941
429.948	0.366022
431.718	1.24916
433.486	1.28792
435.253	0.0834846
437.022	0.639151
438.789	0.606569
440.558	0.594444
442.324	0.390574
444.089	0.862377
445.857	0.556793
447.622	0.670582
449.386	0.105164
451.153	0.2885
452.917	1.94271
454.682	0.189365
456.446	0.722649
458.208	0.276703
459.973	0.366781
461.735	-0.192989
463.497	0.459476
465.259	0.16354
467.022	-0.289465
468.783	0.401329
470.544	0.142731
472.306	0.699341
474.066	1.837
475.825	0.852346
477.585	0.165625
479.346	-0.221945
481.104	0.483389
482.862	1.11905
484.62	0.522669
486.38	1.30446
488.137	0.692579
489.894	0.597124
491.65	1.06381
493.407	0.340878
495.164	1.60494
496.92	0.787596
498.675	-0.149084
500.43	0.928486
502.184	0.598207
503.939	1.65143
505.694	1.38743
507.448	0.156004
509.201	1.7905
510.954	1.06952
512.706	0.69805
514.459	1.24119
516.21	1.09913
517.962	0.813549
519.715	0.690678
521.466	0.96579
523.216	0.0889626
524.966	0.127945
526.716	1.36314
528.466	1.42474
530.215	1.22822
531.964	1.07781
533.712	0.08325
535.46	0.72489
537.208	1.22242
538.955	0.852354
540.703	0.573938
542.449	1.06314
544.196	1.03859
545.942	0.433142
547.688	0.107927
549.433	0.780617
551.178	1.61425
552.923	0.110327
554.667	0.504532
556.412	1.47543
558.155	0.000930786
559.899	0.7187
561.642	0.561586
563.385	0.474817
565.127	0.504213
566.867	0.787477
568.609	0.796486
570.35	0.555172
572.092	0.156158
573.832	-0.124838
575.573	-0.563065
577.313	-0.768917
579.053	0.198246
580.79	0.248947
582.529	0.828341
584.268	0.211597
586.006	-0.522722
587.745	-0.914843
589.482	0.370136
591.218	0.779163
592.955	-0.0322781
594.692	0.329342
596.428	0.115816
598.164	0.339296
599.898	0.331919
601.634	0.483826
603.369	0.5411
605.104	0.825256
606.836	-0.0193405
608.57	-0.72682
610.304	0.0580006
612.037	-0.671003
613.769	-0.366123
615.501	0.0772114
617.234	-0.143936
618.966	0.962236
620.696	0.485781
622.427	0.236086
624.159	-0.837875
625.887	0.465347
627.618	-0.217117
629.348	0.268705
631.076	0.370996
632.806	-0.184559
634.535	0.585426
636.262	0.441763
637.99	0.522795
639.716	-0.154715
641.444	-0.130356
643.172	0.11717
644.897	-0.0934029
646.624	0.834377
648.348	-0.349329
650.075	0.110168
651.801	0.213409
653.524	0.847094
655.249	0.509922
656.972	-0.0511627
658.697	0.39131
660.419	-0.170319
662.143	-0.462059
663.865	0.0640793
665.588	0.76897
667.309	0.0298233
669.032	-0.276423
670.752	0.12796
672.474	-0.0587196
674.194	-0.240999
675.915	-0.213306
677.634	0.413277
679.355	-0.543564
681.073	0.748852
682.793	0.613356
684.511	0.956873
686.23	0.582819
687.947	-0.116978
689.664	0.424833
691.382	-0.578108
693.098	-0.0619659
694.816	0.337439
696.531	1.1032
698.247	0.392864
699.963	0.140766
701.678	0.00168037
703.392	-0.0241528
705.108	-0.303976
706.821	0.287678
708.534	-0.0625763
710.249	0.595045
711.962	-0.168447
713.674	0.349585
715.388	0.797688
717.099	0.0120697
718.81	0.391314
720.523	0.245989
722.234	-0.581898
723.944	0.411772
725.654	0.744251
727.365	0.530426
729.075	0.815372
730.784	0.418806
732.492	0.679014
734.202	0.19169
735.91	0.67732
737.618	0.620808
739.325	0.227331
741.034	-0.276365
742.741	-0.0112057
744.447	0.16609
746.153	0.210838
747.859	-0.754177
749.564	0.465431
751.271	0.495152
752.976	0.437397
754.681	0.764719
756.385	1.02756
758.088	1.20356
759.792	1.40512
761.495	0.459219
763.2	1.54365
764.902	1.9291
766.604	1.40892
768.306	0.884544
770.008	1.30533
771.709	1.45097
773.41	1.86527
775.11	0.876814
776.811	1.85665
778.51	1.39198
780.21	2.28712
781.909	1.26189
783.608	2.20513
785.307	1.62986
787.005	1.07243
788.703	1.48224
790.401	1.11636
792.098	1.67246
793.795	2.11165
795.492	1.10595
797.188	1.32087
798.884	1.29094
800.58	1.5571
802.276	0.970814
803.971	1.44319
805.665	1.5102
807.36	1.3733
809.054	1.41391
810.748	2.70883
812.441	1.28687
814.135	2.42017
815.826	1.35738
817.518	1.54878
819.21	1.40479
820.902	1.57399
822.594	2.54689
824.285	1.73637
825.976	2.17757
827.665	1.68721
829.355	1.71473
831.045	2.41638
832.735	1.8541
834.424	1.76355
836.111	1.80863
837.8	1.94257
839.488	2.05198
841.177	2.06899
842.864	2.19513
844.55	2.25343
846.237	2.31323
847.924	1.48231
849.61	2.40061
851.295	1.78016
852.98	0.893347
854.666	1.15085
856.349	0.891832
858.034	2.65381
859.719	1.4225
861.403	1.85219
863.085	2.0088
864.769	1.9151
866.452	1.9097
868.133	2.44424
869.816	2.34658
871.498	2.00013
873.179	1.85625
874.86	2.38911
876.54	1.02655
878.221	2.07866
879.902	2.11506
881.58	2.06041
883.26	1.89138
884.938	2.32962
886.618	3.05822
888.297	2.20378
889.974	2.60961
891.653	2.15551
893.329	2.32987
895.007	1.669
896.683	2.44581
898.36	1.80429
900.035	1.72304
901.712	0.833826
903.387	0.81839
905.063	1.38363
906.737	0.965994
908.412	1.70983
910.085	1.45178
911.76	1.04036
913.433	0.320024
915.107	0.356598
916.779	0.725954
918.452	1.51553
920.124	1.30764
921.797	1.05704
923.467	1.67126
925.138	2.31009
926.81	1.36243
928.48	0.7721
930.151	1.75123
931.82	1.25317
933.489	1.54996
935.16	1.8691
936.828	1.79216
938.496	1.12162
940.165	0.740242
941.833	0.75828
943.5	0.976347
945.168	0.245087
946.834	1.05653
948.5	0.584093
950.168	1.23357
951.834	1.24058
953.499	0.630356
955.163	0.641087
956.83	1.69384
958.494	0.371307
960.158	1.03954
961.821	0.452564
963.487	0.439131
965.15	-0.0864429
966.812	0.355865
968.474	0.17338
970.138	-0.300659
971.8	0.329887
973.461	-0.122362
975.123	0.335043
976.783	0.154732
978.446	0.463963
980.106	0.509081
981.766	0.553387
983.425	0.949196
985.084	1.23042
986.743	0.533539
988.402	0.519415
990.06	0.480791
991.72	-0.199886
993.378	0.0476055
995.035	0.780666
996.692	0.961637
998.349	1.82585
1000.01	0.396955
1001.66	1.34731
1003.32	0.799168
1004.97	1.0868
1006.63	0.846443
1008.28	0.343246
1009.94	-0.0707722
1011.59	0.876251
1013.25	0.267057
1014.9	0.29458
1016.55	0.0164642
1018.21	0.199181
1019.86	0.186558
1021.51	0.219784
1023.16	1.17325
1024.81	1.51642
1026.47	0.833689
1028.12	1.37469
1029.77	1.14959
1031.42	0.703684
1033.07	1.58648
1034.72	1.98496
1036.37	1.76962
1038.02	1.61832
1039.67	3.03435
1041.31	1.90507
1042.96	1.8018
1044.61	1.70245
1046.26	2.06346
1047.91	2.73247
1049.55	2.53635
1051.2	2.5819
1052.84	2.71613
1054.49	3.35105
1056.14	4.48615
1057.78	6.20802
1059.43	6.27681
1061.07	7.40945
1062.72	6.67012
1064.36	4.05858
1066	4.57567
1067.65	3.35132
1069.29	2.86424
1070.93	2.5499
1072.58	2.99534
1074.22	1.70583
1075.86	2.63194
1077.5	2.34616
1079.14	1.93308
1080.78	1.8686
1082.42	1.97752
1084.06	1.3473
1085.7	1.86272
1087.34	1.98342
1088.98	1.81807
1090.62	2.79594
1092.26	1.91066
1093.9	2.60243
1095.54	2.38733
1097.17	2.3254
1098.81	2.09435
1100.45	1.95358
1102.09	2.07535
1103.72	1.81371
1105.36	1.83459
1106.99	1.83514
1108.63	0.867279
1110.27	1.61746
1111.9	1.65462
1113.53	1.90311
1115.17	1.63353
1116.8	1.38457
1118.43	2.57257
1120.07	2.38951
1121.7	2.53012
1123.33	3.78589
1124.97	4.33698
1126.6	5.89508
1128.23	6.12861
1129.86	4.18304
1131.49	2.64551
1133.12	2.90461
1134.75	1.32506
1136.38	1.0696
1138.01	0.876162
1139.64	0.829899
1141.27	1.08053
1142.9	0.0923595
1144.53	0.427837
1146.16	1.19086
1147.78	0.84721
1149.41	-0.0909328
1151.04	0.037344
1152.67	0.335924
1154.29	0.229172
1155.92	0.398386
1157.54	-0.32625
1159.17	0.545546
1160.8	-0.324955
1162.42	-0.129816
1164.05	-0.1453
1165.67	0.796984
1167.29	-0.111086
1168.92	-0.0220013
1170.54	-0.297646
1172.16	0.124151
1173.79	0.244762
1175.41	0.150644
1177.03	0.373701
1178.65	0.363937
1180.28	-0.0676479
1181.9	0.0743103
1183.52	-0.437929
1185.14	0.127985
1186.76	-0.36447
1188.38	0.0266743
1190	-0.198002
1191.62	0.605556
1193.24	-0.0885048
1194.86	0.0785294
1196.47	-0.278803
1198.09	-0.319164
1199.71	0.501514
1201.33	-0.0744381
1202.95	0.587717
1204.56	0.294472
1206.18	-0.328125
1207.8	-0.322107
1209.41	-0.0653095
1211.03	-0.143934
1212.64	0.399548
1214.26	0.000432968
1215.87	-0.381704
1217.49	-0.267372
1219.1	0.302006
1220.71	-0.167782
1222.33	0.0491543
1223.94	0.744776
1225.55	1.42172
1227.16	1.37676
1228.78	-0.0922928
1230.39	0.861347
1232	0.928076
1233.61	0.873276
1235.22	1.56508
1236.83	1.74274
1238.44	1.52979
1240.05	0.842522
1241.66	1.00331
1243.27	1.55656
1244.88	1.26005
1246.49	1.14765
1248.1	1.24016
1249.71	1.57944
1251.32	1.46297
1252.92	2.25719
1254.53	2.61853
1256.14	2.40309
1257.74	1.94201
1259.35	2.00051
1260.96	2.10227
1262.56	0.817656
1264.17	1.83157
1265.77	2.32728
1267.38	1.95113
1268.98	3.02411
1270.59	2.29126
1272.19	2.42698
1273.79	3.07881
1275.4	3.14792
1277	2.53117
1278.6	2.65882
1280.21	3.63401
1281.81	3.13834
1283.41	3.13989
1285.01	3.78374
1286.61	3.9744
1288.21	5.20073
1289.81	7.52405
1291.41	8.52565
1293.01	10.7457
1294.61	10.4841
1296.21	9.43413
1297.81	9.49521
1299.41	7.73624
1301.01	6.42928
1302.6	5.94529
1304.2	5.68624
1305.8	6.18665
1307.4	5.083
1308.99	5.2324
1310.59	4.72582
1312.19	4.1189
1313.78	3.29
1315.38	3.77251
1316.97	3.84799
1318.57	3.57775
1320.16	4.02107
1321.76	4.42086
1323.35	3.31067
1324.94	3.80474
1326.54	3.3203
1328.13	2.87657
1329.72	3.62982
1331.32	2.66592
1332.91	2.90078
1334.5	1.92864
1336.09	2.85776
1337.68	3.80708
1339.27	2.81884
1340.87	2.81523
1342.45	3.77295
1344.04	2.47335
1345.64	2.8207
1347.22	2.86704
1348.81	1.99561
1350.4	2.41166
1351.99	2.91241
1353.58	2.55732
1355.17	2.12517
1356.75	2.79294
1358.34	2.34076
1359.93	2.26631
1361.51	2.50907
1363.1	2.39084
1364.69	2.61098
1366.27	2.37322
1367.86	2.59545
1369.44	2.54139
1371.03	3.30627
1372.61	2.20342
1374.2	2.35659
1375.78	2.3519
1377.37	1.79019
1378.95	2.68001
1380.53	2.47326
1382.11	2.04503
1383.7	2.15131
1385.28	1.83812
1386.86	2.06075
1388.44	1.668
1390.02	2.07091
1391.6	2.93175
1393.19	2.28611
1394.77	2.81166
1396.35	2.4046
1397.93	1.75841
1399.51	1.7447
1401.08	2.5015
1402.66	2.38542
1404.24	3.23883
1405.82	3.44001
1407.4	3.12901
1408.97	3.76842
1410.55	3.3814
1412.13	3.8238
1413.71	4.42247
1415.28	5.4724
1416.86	5.00095
1418.43	5.9285
1420.01	5.28008
1421.59	5.50119
1423.16	6.29672
1424.73	5.69844
1426.31	7.16977
1427.88	7.77635
1429.46	7.41771
1431.03	9.73346
1432.6	11.8093
1434.18	12.5635
1435.75	14.0829
1437.32	13.7933
1438.89	14.7446
1440.46	13.9692
1442.04	13.6292
1443.61	13.3109
1445.18	12.9741
1446.75	11.7729
1448.32	11.9873
1449.89	12.0061
1451.46	12.3998
1453.03	10.8284
1454.6	12.5425
1456.16	11.5616
1457.73	10.6964
1459.3	11.2051
1460.87	11.2169
1462.44	9.98412
1464	9.31806
1465.57	9.02325
1467.14	7.90292
1468.7	7.60935
1470.27	6.9651
1471.83	5.83366
1473.4	5.48984
1474.96	5.71659
1476.53	4.47371
1478.09	4.52522
1479.66	4.63539
1481.22	3.96133
1482.78	3.69876
1484.35	3.63191
1485.91	2.93739
1487.47	2.80945
1489.04	2.54175
1490.6	2.27045
1492.16	1.68226
1493.72	2.34074
1495.28	1.51163
1496.84	1.65661
1498.4	1.93704
1499.96	1.16853
1501.52	1.25804
1503.08	1.31088
1504.64	1.79152
1506.2	0.645802
1507.76	1.53146
1509.32	0.829226
1510.88	0.878845
1512.44	0.579845
1513.99	1.45487
1515.55	1.52079
1517.11	0.858335
1518.66	1.73286
1520.22	0.806223
1521.78	1.02989
1523.33	0.698147
1524.89	0.881041
1526.44	0.71837
1528	0.706694
1529.55	0.370852
1531.11	0.947268
1532.66	1.29558
1534.21	1.56901
1535.77	1.31427
1537.32	1.25086
1538.87	1.60412
1540.43	1.4106
1541.98	1.29296
1543.53	1.15652
1545.08	1.80955
1546.63	0.732994
1548.18	1.17802
1549.74	1.95942
1551.29	1.33539
1552.84	1.23735
1554.39	1.34691
1555.94	1.64576
1557.48	1.25707
1559.03	0.648563
1560.58	1.70418
1562.13	1.06504
1563.68	1.56595
1565.23	2.10534
1566.78	2.02915
1568.32	2.34439
1569.87	1.42696
1571.42	1.98334
1572.96	1.79251
1574.51	1.09737
1576.05	2.15701
1577.6	2.26502
1579.14	1.5337
1580.69	2.05446
1582.24	1.3256
1583.78	2.48478
1585.32	1.79595
1586.87	1.57487
1588.41	1.82143
1589.95	1.65606
1591.5	1.97639
1593.04	2.74542
1594.58	2.82131
1596.12	2.9723
1597.67	2.8056
1599.21	3.69009
1600.75	3.15107
1602.29	3.58837
1603.83	3.40629
1605.37	2.35834
1606.91	2.77274
1608.45	2.48795
1609.99	3.04438
1611.53	2.75047
1613.07	2.50929
1614.6	2.4348
1616.14	2.20961
1617.68	1.83572
1619.22	1.67055
1620.75	1.88286
1622.29	2.45333
1623.83	2.10778
1625.37	1.46279
1626.9	1.93939
1628.44	1.79587
1629.97	1.03277
1631.51	2.49253
1633.04	2.73583
1634.58	2.30751
1636.11	1.54536
1637.65	2.4081
1639.18	1.92902
1640.72	2.04663
1642.25	3.05709
1643.78	1.79284
1645.31	2.16525
1646.85	2.57263
1648.38	2.3657
1649.91	3.23679
1651.44	2.77266
1652.97	3.05333
1654.5	2.74263
1656.03	2.80398
1657.56	2.38334
1659.1	2.68375
1660.62	2.18536
1662.15	2.51725
1663.68	2.10714
1665.21	2.12144
1666.74	3.09606
1668.27	2.33791
1669.8	2.76315
1671.32	1.56948
1672.85	1.90739
1674.38	1.67503
1675.91	2.49162
1677.43	1.79703
1678.96	2.20464
1680.49	2.18699
1682.01	1.9658
1683.54	1.56068
1685.06	1.44983
1686.59	1.74319
1688.11	0.937368
1689.64	1.25051
1691.16	1.4905
1692.68	1.63886
1694.21	1.18332
1695.73	1.73337
1697.25	0.345573
1698.78	1.29605
1700.3	1.00361
1701.82	1.13001
1703.34	0.653765
1704.86	0.960215
1706.39	1.31989
1707.91	1.16945
1709.43	1.23704
1710.95	0.832848
1712.47	1.22743
1713.99	0.299131
1715.51	1.32742
1717.02	0.726051
1718.54	1.82414
1720.06	1.47572
1721.58	1.21841
1723.1	1.08878
1724.62	0.961182
1726.13	0.241938
1727.65	1.57766
1729.17	1.04284
1730.68	1.10029
1732.2	1.61426
1733.72	0.868176
1735.23	0.611504
1736.75	0.772795
1738.26	1.35478
1739.78	0.78545
1741.29	1.00925
1742.81	0.635914
1744.32	0.625278
1745.84	0.867588
1747.35	0.864498
1748.86	0.752462
1750.37	0.288343
1751.89	1.16335
1753.4	0.933794
1754.91	0.872667
1756.42	0.899298
1757.93	0.33967
1759.45	0.308874
1760.96	0.216125
1762.47	-0.254248
1763.98	0.442169
1765.49	-0.230148
1767	0.234604
1768.51	0.574654
1770.02	-0.0428486
1771.53	-0.0731964
1773.03	0.0459805
1774.54	-0.433331
1776.05	-0.109999
1777.56	0.355314
1779.07	0.363838
1780.57	0.487715
1782.08	0.492336
1783.59	0.360447
1785.09	-0.329679
1786.6	-0.0566235
1788.11	0.136404
1789.61	0.225588
1791.12	0.0272503
1792.62	-0.00635529
1794.13	0.030735
1795.63	0.360516
1797.13	-0.180593
1798.64	0.131962
1800.14	0.511419
1801.65	0.0750351
1803.15	-0.0106926
1804.65	-0.196014
1806.15	0.0815735
1807.66	0.145823
1809.16	-0.176524
1810.66	0.204559
1812.16	0.319574
1813.66	-0.101192
1815.16	-0.195661
1816.66	0.132608
1818.16	0.126585
1819.66	-0.154311
1821.16	-0.0252848
1822.66	0.077198
1824.16	-0.388035
1825.66	0.250405
1827.16	0.208427
1828.66	-0.0998926
1830.16	-0.098628
1831.65	0.104271
1833.15	0.085269
1834.65	-0.0504313
1836.14	-0.20747
1837.64	-0.279959
1839.14	0.0501919
1840.63	-0.00675583
1842.13	-0.0371399
1843.62	-0.0335579
1845.12	0.23109
1846.61	-0.0853176
1848.11	-0.0908289
1849.6	-0.376405
1851.1	0.0957823
1852.59	0.0456572
1854.08	0.252595
1855.58	0.0422668
1857.07	-0.154305
1858.56	-0.089159
1860.05	-0.0234919
1861.55	0.458586
1863.04	-0.249032
1864.53	0.230379
1866.02	0.0733662
1867.51	0.588808
1869	0.218747
1870.49	-0.058691
1871.98	-0.360202
1873.47	0.20337
1874.96	-0.0141945
1876.45	0.286469
1877.94	0.0954485
1879.43	0.182575
1880.92	0.116667
1882.41	0.311492
1882.51	0.327263
1884	0.0671473
1885.5	0.520341
1886.99	0.344584
1888.48	-0.632631
1889.98	0.40969
1891.47	0.548336
1892.96	0.359286
1894.46	-0.10479
1895.95	-0.375083
1897.44	0.764615
1898.93	0.408613
1900.42	0.485697
1901.91	0.055521
1903.41	0.231201
1904.9	0.074008
1906.39	0.454206
1907.88	-0.399003
1909.37	-0.295772
1910.86	0.121206
1912.35	-0.379957
1913.83	-0.0995264
1915.32	-0.217883
1916.81	0.512753
1918.3	0.392826
1919.79	0.0122862
1921.27	0.636425
1922.76	-0.0032053
1924.25	0.553468
1925.74	0.332913
1927.22	-0.335958
1928.71	-0.571046
1930.19	0.128847
1931.68	0.100194
1933.17	-0.104022
1934.65	-0.0687284
1936.14	0.205973
1937.62	0.340016
1939.11	0.71497
1940.59	0.381946
1942.07	-0.0700607
1943.56	0.722108
1945.04	0.446006
1946.52	0.412072
1948.01	0.532864
1949.49	0.445578
1950.97	0.21893
1952.45	0.593218
1953.93	0.570518
1955.42	0.685149
1956.9	0.628555
1958.38	0.556026
1959.86	0.107422
1961.34	0.517481
1962.82	0.156233
1964.3	-0.290693
1965.78	0.392191
1967.26	0.405708
1968.74	0.229929
1970.21	0.429425
1971.69	0.952698
1973.17	-0.146374
1974.65	0.495984
1976.13	0.711628
1977.6	0.569575
1979.08	0.836384
1980.56	0.286302
1982.03	0.382604
1983.51	0.699078
1984.99	0.420425
1986.46	0.464008
1987.94	0.30412
1989.41	0.128042
1990.89	0.122541
1992.36	0.693637
1993.84	0.691067
1995.31	0.402616
1996.78	0.148882
1998.26	0.199244
1999.73	0.502085
2001.2	0.634896
2002.68	0.395663
2004.15	0.459861
2005.62	-0.132612
2007.09	0.30406
2008.56	0.253678
2010.04	-0.165628
2011.51	0.0893793
2012.98	0.0582762
2014.45	1.03619
2015.92	0.414057
2017.39	0.463492
2018.86	0.578732
2020.33	0.35687
2021.8	1.02503
2023.26	0.232745
2024.73	0.38205
2026.2	0.214506
2027.67	0.552547
2029.14	0.188612
2030.61	0.262964
2032.07	0.406073
2033.54	-0.104618
2035.01	0.576628
2036.47	0.921714
2037.94	0.526733
2039.4	0.685505
2040.87	1.14682
2042.33	-0.0556469
2043.8	0.710321
2045.27	0.233175
2046.73	0.413419
2048.19	0.35853
2049.66	0.0165253
2051.12	0.262712
2052.59	0.911248
2054.05	0.494344
2055.51	0.327492
2056.97	0.411287
2058.44	0.122958
2059.9	0.35673
2061.36	0.355254
2062.82	0.590765
2064.28	0.255639
2065.74	0.157834
2067.21	0.633611
2068.67	0.942122
2070.13	0.611576
2071.59	0.735603
2073.05	0.539501
2074.51	0.326069
2075.96	0.246769
2077.42	0.234225
2078.88	0.473619
2080.34	0.644868
2081.8	0.59628
2083.26	1.05157
2084.72	0.327409
2086.17	0.746377
2087.63	0.239181
2089.09	0.622471
2090.54	0.45072
2092	0.900186
2093.45	0.510048
2094.91	0.55593
2096.37	0.0981436
2097.82	0.695029
2099.28	0.31932
2100.73	1.0808
2102.19	0.939125
2103.64	0.331469
2105.09	0.794759
2106.55	0.15885
2108	0.442386
2109.45	0.176075
2110.91	0.609195
2112.36	0.806566
2113.81	0.501318
2115.26	0.543296
2116.72	0.40084
2118.17	0.458441
2119.62	1.2982
2121.07	1.09504
2122.52	0.397763
2123.97	0.8805
2125.42	0.485419
2126.87	0.388436
2128.32	0.273314
2129.77	1.11715
2131.22	1.65997
2132.67	0.760742
2134.11	0.78888
2135.56	1.18201
2137.01	0.635094
2138.46	0.983829
2139.91	0.95551
2141.35	1.1117
2142.8	0.575422
2144.25	1.16471
2145.7	0.976866
2147.14	1.10296
2148.59	0.814053
2150.03	1.18624
2151.48	1.49064
2152.92	0.766144
2154.37	1.05101
2155.81	1.69953
2157.26	1.86764
2158.7	0.84427
2160.15	1.26418
2161.59	1.50482
2163.03	1.9145
2164.47	1.4148
2165.92	1.46367
2167.36	1.92784
2168.8	1.50976
2170.24	1.85338
2171.69	1.12901
2173.13	1.31626
2174.57	1.38479
2176.01	1.83482
2177.45	1.22085
2178.89	1.60579
2180.33	1.57667
2181.77	1.34947
2183.21	1.57219
2184.65	1.62911
2186.09	1.8359
2187.53	1.75994
2188.97	1.66737
2190.4	1.92428
2191.84	1.66474
2193.28	1.42056
2194.72	1.44057
2196.16	1.30779
2197.59	1.25502
2199.03	2.18049
2200.47	0.743534
2201.9	1.25094
2203.34	1.21116
2204.77	0.808423
2206.21	0.656362
2207.64	1.06855
2209.08	1.33106
2210.51	1.07897
2211.95	1.00748
2213.38	0.753024
2214.82	1.12635
2216.25	0.806865
2217.68	1.41343
2219.12	0.867124
2220.55	1.32825
2221.98	0.586208
2223.41	0.403704
2224.85	0.96018
2226.28	1.10181
2227.71	0.681491
2229.14	0.703314
2230.57	0.379305
2232	0.612809
2233.43	1.38639
2234.86	0.180998
2236.29	0.678806
2237.72	1.08039
2239.15	0.472966
2240.58	1.05998
2242.01	0.720088
2243.44	0.757374
2244.87	0.208063
2246.29	0.424335
2247.72	-0.0631781
2249.15	0.359179
2250.58	0.109632
2252.01	0.215792
2253.43	0.67817
2254.86	0.376543
2256.29	0.645875
2257.71	0.545453
2259.14	1.13104
2260.56	0.47212
2261.99	0.368638
2263.41	0.527455
2264.84	0.719491
2266.26	0.87864
2267.69	0.483537
2269.11	1.25835
2270.53	0.192802
2271.96	0.689023
2273.38	0.680297
2274.8	0.394753
2276.23	0.793744
2277.65	0.378314
2279.07	1.15284
2280.49	0.5416
2281.91	0.256056
2283.34	0.655451
2284.76	0.483929
2286.18	0.133109
2287.6	0.435767
2289.02	0.575981
2290.44	0.864009
2291.86	0.2046
2293.28	0.329826
2294.7	0.569643
2296.12	0.465783
2297.54	0.656495
2298.96	0.192142
2300.37	0.121014
2301.79	0.00106525
2303.21	0.718137
2304.63	0.56623
2306.04	-0.275736
2307.46	0.474742
2308.88	-0.155768
2310.3	0.725142
2311.71	0.750619
2313.13	0.381145
2314.54	0.85149
2315.96	0.170724
2317.37	0.33077
2318.79	0.129042
2320.2	-0.155741
2321.62	-0.128972
2323.03	0.224997
2324.45	0.278288
2325.86	0.608438
2327.27	1.08399
2328.69	0.717215
2330.1	0.334659
2331.51	0.134982
2332.92	0.644903
2334.34	0.0205898
2335.75	-0.125978
2337.16	0.302453
2338.57	0.433136
2339.98	0.167486
2341.39	0.656021
2342.8	0.142017
2344.21	0.432213
2345.63	-0.408406
2347.04	-0.232034
2348.45	0.058753
2349.85	0.299497
2351.26	-0.131542
2352.67	-0.106119
2354.08	0.619397
2355.49	0.445827
2356.9	0.386051
2358.3	0.440168
2359.71	-0.171796
2361.12	0.0129681
2362.53	0.278375
2363.93	0.154341
2365.34	0.240779
2366.75	-0.351452
2368.15	0.156307
2369.56	0.325968
2370.97	0.207306
2372.37	0.364782
2373.77	0.507607
2375.18	-0.121692
2376.59	-0.139637
2377.99	-0.48082
2379.39	0.124105
2380.8	0.0993118
2382.2	0.328881
2383.6	0.332221
2385.01	-0.064744
2386.41	-0.276433
2387.81	-0.486283
2389.21	-0.223566
2390.62	-0.18243
2392.02	-0.314673
2393.42	0.0480309
2394.82	0.252622
2396.22	0.378666
2397.62	0.0606213
2399.02	0.140878
2400.42	0.0947819
2401.82	-0.284367
2403.22	0.55951
2404.62	0.132238
2406.02	-0.0739546
2407.42	0.0200071
2408.82	0.191928
2410.22	0.886204
2411.62	0.154218
2413.01	0.70692
2414.41	0.0738888
2415.81	0.139931
2417.21	0.524696
2418.6	0.293481
2420	0.585392
2421.4	0.0693769
2422.79	0.107106
2424.19	-0.299251
2425.59	-0.0400953
2426.98	0.235756
2428.38	0.560654
2429.77	0.459068
2431.17	0.231575
2432.56	0.258111
2433.95	0.0614834
2435.35	0.498422
2436.74	0.313483
2438.14	-0.191683
2439.53	0.0954943
2440.92	0.539863
2442.31	0.221065
2443.71	-0.224917
2445.1	0.138099
2446.49	0.468826
2447.88	0.434539
2449.27	-0.217536
2450.67	0.192124
2452.06	0.143273
2453.45	0.427942
2454.84	-0.013896
2456.23	0.0832996
2457.62	0.149333
2459.01	0.0569363
2460.4	0.200869
2461.79	0.0272341
2463.18	0.374015
2464.57	0.150812
2465.95	-0.104302
2467.34	-0.201514
2468.73	0.158824
2470.12	0.0926838
2471.5	0.609091
2472.89	-0.199478
2474.28	0.298403
2475.67	-0.0706673
2477.05	0.236081
2478.44	0.259534
2479.82	0.0948792
2481.21	0.620636
2482.6	0.0643883
2483.98	-0.648252
2485.37	-0.172336
2486.75	0.0821352
2488.13	-0.102649
2489.52	0.0858574
2490.9	-0.597988
2492.29	0.306201
2493.67	-0.513612
2495.05	0.206003
2496.44	-0.0346737
2497.82	-0.165246
2499.2	0.0917339
2500.58	-0.100738
2501.97	0.154045
2503.35	-0.627708
2504.73	0.28743
2506.11	0.275117
2507.49	0.339355
2508.87	0.0961418
2510.25	-0.299483
2511.63	-0.432524
2513.01	-0.119642
2514.39	0.255292
2515.77	0.523892
2517.15	0.19681
2518.53	-0.434834
2519.91	0.279149
2521.29	-0.306232
2522.67	0.145942
2524.05	0.535154
2525.42	-0.0985231
2526.8	0.0297623
2528.18	-0.31326
2529.55	0.258202
2530.93	0.0259619
2532.31	0.252352
2533.69	0.602362
2535.06	-0.12519
2536.44	0.392988
2537.81	0.666964
2539.19	0.088768
2540.56	-0.0349789
2541.94	0.0684042
2543.31	0.278317
2544.69	0.0040226
2546.06	0.141232
2547.44	-0.3264
2548.81	0.162936
2550.18	0.318732
2551.56	0.534497
2552.93	0.30867
2554.3	-0.389241
2555.67	0.0343599
2557.04	-0.149848
2558.42	0.105534
2559.79	-0.0481415
2561.16	0.708436
2562.53	-0.292129
2563.9	0.541966
2565.27	0.0280046
2566.64	0.0296431
2568.01	-0.0443754
2569.38	0.00283337
2570.75	0.337999
2572.12	0.0366163
2573.49	0.190058
2574.86	0.677158
2576.23	0.466962
2577.6	0.393043
2578.97	0.212587
2580.33	0.137678
2581.7	0.44116
2583.07	0.577196
2584.44	0.333787
2585.8	0.30253
2587.17	0.30175
2588.54	0.164847
2589.9	-0.168895
2591.27	0.315487
2592.64	-0.0797949
2594	0.538716
2595.37	0.398024
2596.73	0.391957
2598.1	0.324064
2599.46	-0.197971
2600.83	0.202435
2602.19	0.512551
2603.55	0.310188
2604.92	0.667192
2606.28	0.873401
2607.64	0.400357
2609.01	0.303115
2610.37	0.158827
2611.73	0.479149
2613.09	0.601511
2614.46	0.692252
2615.82	0.257137
2617.18	0.662709
2618.54	0.214794
2619.9	0.472179
2621.26	0.32662
2622.62	0.167157
2623.98	-0.0664034
2625.34	0.207583
2626.7	-0.17536
2628.06	0.305955
2629.42	-0.0180235
2630.78	0.416913
2632.14	0.41982
2633.5	0.467161
2634.86	0.187824
2636.21	0.502066
2637.57	0.119285
2638.93	0.64035
2640.29	0.139983
2641.64	0.379938
2643	1.12225
2644.36	0.756576
2645.71	0.760053
2647.07	0.585937
2648.43	0.720237
2649.78	0.823469
2651.14	0.528369
2652.49	0.938231
2653.85	0.232575
2655.2	0.218351
2656.56	0.410934
2657.91	0.883204
2659.26	0.478693
2660.62	0.952554
2661.97	0.431915
2663.32	0.772583
2664.68	0.469196
2666.03	1.15675
2667.38	0.180989
2668.74	0.327853
2670.09	1.02781
2671.44	1.17506
2672.79	0.887275
2674.14	0.818704
2675.49	0.504406
2676.84	1.10536
2678.19	0.648195
2679.54	0.87417
2680.89	0.478393
2682.24	0.693542
2683.59	0.214669
2684.94	1.21664
2686.29	0.217674
2687.64	0.857945
2688.99	0.654535
2690.34	0.17243
2691.69	0.746968
2693.03	0.564111
2694.38	0.68427
2695.73	0.557581
2697.08	0.967963
2698.42	0.887841
2699.77	0.998828
2701.12	1.30105
2702.46	1.05559
2703.81	1.0871
2705.15	1.03255
2706.5	1.35516
2707.85	1.05362
2709.19	1.70922
2710.54	1.85635
2711.88	1.77064
2713.22	1.46663
2714.57	2.61588
2715.91	2.2099
2717.26	2.03612
2718.6	2.48733
2719.94	2.16684
2721.29	2.55849
2722.63	2.22156
2723.97	2.68424
2725.31	2.52019
2726.66	2.41363
2728	1.86986
2729.34	2.37348
2730.68	2.35289
2732.02	2.11399
2733.36	1.4389
2734.7	1.50606
2736.04	1.16631
2737.38	1.30678
2738.72	1.549
2740.06	1.36901
2741.4	1.13005
2742.74	1.25346
2744.08	0.925049
2745.42	1.27855
2746.76	0.977522
2748.09	0.429651
2749.43	0.535201
2750.77	0.452448
2752.11	0.515146
2753.45	0.0854349
2754.78	0.192342
2756.12	0.154552
2757.46	0.522476
2758.79	0.355015
2760.13	0.66587
2761.46	0.355199
2762.8	0.711003
2764.14	0.314908
2765.47	0.0345888
2766.8	-0.043889
2768.14	-0.123846
2769.47	-0.335963
2770.81	0.273499
2772.14	-0.23207
2773.48	-0.247952
2774.81	-0.0052166
2776.14	0.337829
2777.48	0.0907936
2778.81	0.0032692
2780.14	-0.126383
2781.47	0.161128
2782.8	-0.0538855
2784.14	0.218891
2785.47	0.376616
2786.8	0.262302
2788.13	0.449575
2789.46	0.595056
2790.79	-0.116171
2792.12	-0.225123
2793.45	0.0956068
2794.78	-0.326898
2796.11	0.307603
2797.44	0.12665
2798.77	0.14479
2800.1	0.447633
2801.43	-0.291611
2802.76	0.552202
2804.09	0.268913
2805.41	0.554903
2806.74	0.882204
2808.07	0.482556
2809.4	0.494938
2810.72	0.194923
2812.05	0.847167
2813.38	0.578692
2814.71	1.16366
2816.03	1.29731
2817.36	1.16371
2818.68	1.37138
2820.01	1.45154
2821.33	1.00651
2822.66	1.76494
2823.98	1.75688
2825.31	1.88984
2826.63	2.7592
2827.96	3.37438
2829.28	3.26857
2830.6	3.74417
2831.93	4.58825
2833.25	5.30479
2834.57	7.03965
2835.9	8.54654
2837.22	10.3204
2838.54	12.46
2839.86	15.602
2841.18	19.0396
2842.5	21.6857
2843.83	23.7539
2845.15	25.8814
2846.47	25.5807
2847.79	27.1615
2849.11	27.8803
2850.43	27.0291
2851.75	27.5749
2853.07	26.5498
2854.39	26.7667
2855.71	25.4145
2857.03	25.7579
2858.35	25.9319
2859.66	25.2868
2860.98	25.3331
2862.3	24.9828
2863.62	25.5205
2864.94	25.69
2866.25	25.8452
2867.57	25.9167
2868.89	26.8642
2870.2	27.503
2871.52	29.1995
2872.84	28.8085
2874.15	31.5004
2875.47	33.8481
2876.78	36.4565
2878.1	38.7207
2879.41	40.0668
2880.73	40.0216
2882.04	38.3789
2883.36	36.1389
2884.67	34.1014
2885.99	33.2048
2887.3	32.0985
2888.61	30.9768
2889.93	30.2873
2891.24	29.9314
2892.55	29.5173
2893.86	29.1309
2895.18	29.1104
2896.49	28.9112
2897.8	28.9963
2899.11	29.3093
2900.42	29.8912
2901.73	29.0341
2903.05	28.9194
2904.36	28.5675
2905.67	27.4194
2906.98	28.0079
2908.29	27.1867
2909.6	27.4596
2910.91	27.329
2912.21	27.0444
2913.52	27.0931
2914.83	27.5431
2916.14	26.9931
2917.45	28.0616
2918.76	26.8314
2920.07	27.7275
2921.37	28.2758
2922.68	27.7237
2923.99	27.5401
2925.29	28.5346
2926.6	28.2314
2927.91	28.1241
2929.22	27.75
2930.52	27.9474
2931.83	28.2271
2933.13	27.4296
2934.44	27.7085
2935.74	27.1633
2937.05	26.2555
2938.35	25.572
2939.66	24.9873
2940.96	23.3145
2942.26	22.5385
2943.57	21.5144
2944.87	20.4659
2946.18	19.4202
2947.48	18.5853
2948.78	17.5673
2950.08	17.8199
2951.39	17.1299
2952.69	16.1689
2953.99	16.5067
2955.29	16.0316
2956.59	15.9788
2957.9	15.4135
2959.2	15.2048
2960.5	14.1206
2961.8	13.6009
2963.1	13.5034
2964.4	13.3485
2965.7	12.572
2967	12.4797
2968.3	10.9926
2969.6	10.881
2970.9	10.7834
2972.19	10.6022
2973.49	9.7181
2974.79	8.42551
2976.09	8.98969
2977.39	8.41094
2978.68	8.72993
2979.98	7.15903
2981.28	7.17665
2982.58	5.89929
2983.87	6.36715
2985.17	6.00778
2986.47	5.59552
2987.76	5.38311
2989.06	4.99016
2990.35	4.73843
2991.65	4.45788
2992.94	4.10535
2994.24	3.96154
2995.53	3.60524
2996.83	3.50078
2998.12	3.2138
2999.42	2.63317
3000.71	2.54495
3002	1.91141
3003.3	2.28816
3004.59	1.57246
3005.88	2.13136
3007.18	0.911286
3008.47	1.49606
3009.76	1.43572
3011.05	1.47225
3012.34	0.740361
3013.64	0.330734
3014.93	0.92637
3016.22	1.20221
3017.51	0.142716
3018.8	0.268332
3020.09	0.352507
3021.38	0.0470343
3022.67	0.574242
3023.96	-0.0108328
3025.25	0.208341
3026.54	0.0253706
3027.83	-0.128491
3029.12	-0.44593
3030.41	0.151656
3031.69	0.116003
3032.98	0.20669
3034.27	-0.0468502
3035.56	0.333902
3036.84	-0.362893
3038.13	-0.0830145
3039.42	-0.0539455
3040.71	-0.0957956
3041.99	0.0261068
3043.28	-0.0987768
3044.57	0.435443
3045.85	-0.354836
3047.14	0.294559
3048.42	-0.18596
3049.71	-0.321174
3050.99	0.0650492
3052.28	0.330112
3053.56	0.336299
3054.85	0.682901
3056.13	0.359813
3057.41	0.240078
3058.7	0.896185
3059.98	0.680095
3061.26	0.301935
3062.55	-0.00588226
3063.83	0.50489
3065.11	0.270617
3066.39	0.0933132
3067.68	0.652186
3068.96	0.409935
3070.24	0.00447845
3071.52	0.686138
3072.8	0.019949
3074.08	0.521718
3075.36	0.600863
3076.65	0.231771
3077.93	0.121984
3079.21	0.136504
3080.49	-0.103973
3081.77	0.648614
3083.04	0.413375
3084.32	0.179608
3085.6	0.177118
3086.88	0.0250692
3088.16	0.0488977
3089.44	0.533649
3090.72	-0.040369
3091.99	0.295109
3093.27	0.671876
3094.55	-0.143892
3095.83	0.356767
3097.1	0.681681
3098.38	0.153068
3099.66	0.288994
3100.93	0.723286
3102.21	0.684021
3103.49	0.469743
3104.76	0.459924
3106.04	0.627695
3107.31	0.93267
3108.59	1.17211
3109.86	0.682858
3111.14	1.42751
3112.41	0.995975
3113.69	0.755006
3114.96	0.432953
3116.23	1.22266
3117.51	1.26608
3118.78	1.49837
3120.05	1.59394
3121.33	1.58021
3122.6	1.45782
3123.87	1.28163
3125.14	1.07954
3126.41	1.97521
3127.69	1.54585
3128.96	1.84858
3130.23	2.15227
3131.5	2.18637
3132.77	2.15338
3134.04	1.999
3135.31	2.10111
3136.58	2.06818
3137.85	2.3184
3139.12	2.23169
3140.39	2.52241
3141.66	2.65225
3142.93	2.89058
3144.2	2.47212
3145.47	2.82078
3146.74	2.96969
3148	3.13349
3149.27	3.24536
