200.563	0.30695
202.377	0.393768
204.194	0.481819
206.008	-0.401966
207.821	-0.531532
209.634	0.333666
211.449	1.07393
213.262	0.353786
215.074	-0.295265
216.885	0.145632
218.699	0.440262
220.51	-0.329845
222.321	-0.638281
224.131	0.505213
225.941	0.31901
227.751	-0.543898
229.562	0.3312
231.371	0.359116
233.18	0.313543
234.988	0.0270748
236.796	0.538124
238.603	0.0883045
240.411	0.293358
242.219	0.0198975
244.026	0.471579
245.832	-0.549458
247.638	-0.271034
249.443	0.484985
251.248	0.655193
253.053	0.699024
254.857	0.739147
256.661	0.223557
258.465	0.528898
260.268	0.0897808
262.071	0.0392151
263.874	-0.00891685
265.678	0.137102
267.48	-0.753227
269.282	0.596785
271.083	-0.489824
272.884	0.229109
274.684	-0.0917282
276.484	0.307264
278.284	0.413069
280.084	0.538757
281.883	0.202848
283.682	0.440836
285.48	-0.333582
287.276	-0.556242
289.074	0.563848
290.871	0.149778
292.668	0.360649
294.465	-0.431009
296.261	0.0952263
298.057	-0.453005
299.853	0.146317
301.648	-0.330322
303.443	0.337454
305.237	0.429308
307.032	-0.315691
308.823	0.298052
310.617	1.31686
312.41	0.193203
314.203	0.406151
315.995	0.217131
317.788	0.507116
319.579	0.275417
321.369	0.450254
323.16	0.673975
324.951	0.89831
326.741	-0.142839
328.531	0.773087
330.321	1.06693
332.108	1.21495
333.897	1.45534
335.686	0.686474
337.474	0.511358
339.26	-0.00265884
341.048	1.20253
342.835	-0.391691
344.622	1.59904
346.406	0.531614
348.192	0.80295
349.978	0.167557
351.764	-0.348555
353.547	0.303442
355.332	0.618982
357.116	0.240213
358.901	1.09835
360.682	-0.190115
362.466	0.187103
364.249	0.205517
366.03	0.198603
367.812	0.78343
369.594	0.416933
371.374	-0.163744
373.155	0.29636
374.936	-0.167049
376.715	-0.44072
378.495	-0.335901
380.273	0.382389
382.053	0.206783
383.832	0.668413
385.609	-0.184956
387.388	0.0921421
389.164	0.0182686
390.942	0.626932
392.72	0.414635
394.495	1.23641
396.272	0.860918
398.047	0.532242
399.823	0.766697
401.597	0.929668
403.372	0.926893
405.145	-0.181271
406.92	0.235735
408.693	0.980034
410.467	0.291449
412.239	0.964136
414.012	0.510862
415.783	1.18493
417.556	-0.181181
419.327	-0.0682716
421.099	0.256102
422.869	0.392088
424.64	-0.271477
426.409	-0.279488
428.18	0.532587
429.948	-0.111769
431.718	0.769377
433.486	-0.625742
435.253	-0.14291
437.022	-0.223587
438.789	0.680035
440.558	-0.390272
442.324	0.13154
444.089	0.0864868
445.857	-0.195962
447.622	-0.19919
449.386	0.264355
451.153	-0.0438461
452.917	0.255762
454.682	0.601732
456.446	0.807129
458.208	0.103607
459.973	0.96022
461.735	-0.183079
463.497	-0.206978
465.259	0.95793
467.022	-0.47507
468.783	0.280439
470.544	0.411572
472.306	0.380762
474.066	0.20875
475.825	0.662359
477.585	0.530033
479.346	1.55921
481.104	0.28056
482.862	0.353168
484.62	0.683882
486.38	-0.240157
488.137	0.120384
489.894	1.69753
491.65	1.17785
493.407	0.705022
495.164	0.465458
496.92	0.552895
498.675	0.733621
500.43	0.210214
502.184	1.23385
503.939	1.0125
505.694	1.0003
507.448	0.915024
509.201	0.28585
510.954	1.51241
512.706	1.11273
514.459	1.27507
516.21	1.27021
517.962	0.81634
519.715	1.11322
521.466	1.07953
523.216	0.716218
524.966	0.822268
526.716	1.58492
528.466	0.705554
530.215	0.811032
531.964	1.19664
533.712	1.18238
535.46	1.25953
537.208	0.469395
538.955	1.14901
540.703	1.05555
542.449	1.07732
544.196	1.40074
545.942	0.375694
547.688	0.884995
549.433	0.813974
551.178	0.465586
552.923	0.372635
554.667	0.187738
556.412	0.92688
558.155	0.650602
559.899	-0.430655
561.642	0.470411
563.385	0.749952
565.127	1.122
566.867	1.08123
568.609	0.513878
570.35	0.797941
572.092	0.625381
573.832	0.730995
575.573	-0.0550327
577.313	0.859501
579.053	0.00924492
580.79	0.996895
582.529	0.3311
584.268	0.491348
586.006	0.189953
587.745	0.346325
589.482	-0.511622
591.218	-0.013731
592.955	0.552319
594.692	0.450891
596.428	0.257505
598.164	-0.856226
599.898	0.307068
601.634	0.15753
603.369	0.856775
605.104	0.104723
606.836	-0.0514317
608.57	-0.300604
610.304	-0.182486
612.037	-0.132496
613.769	0.285618
615.501	-0.441418
617.234	0.32147
618.966	-0.0164013
620.696	0.468222
622.427	0.0580158
624.159	0.332697
625.887	0.150236
627.618	-0.304094
629.348	0.386339
631.076	0.464428
632.806	-0.731906
634.535	0.195698
636.262	0.255529
637.99	0.883026
639.716	0.798107
641.444	-0.158619
643.172	0.180923
644.897	-0.870881
646.624	-0.6009
648.348	0.831078
650.075	-0.141401
651.801	0.0517406
653.524	0.274267
655.249	-0.634754
656.972	-0.243763
658.697	0.468676
660.419	0.862347
662.143	0.134832
663.865	-0.620539
665.588	0.517048
667.309	0.211443
669.032	0.750801
670.752	0.125162
672.474	0.806934
674.194	-0.498755
675.915	-0.0838661
677.634	-0.561037
679.355	0.0175877
681.073	1.28538
682.793	0.366377
684.511	0.179245
686.23	0.886719
687.947	0.417234
689.664	-0.215418
691.382	0.0260124
693.098	0.0360794
694.816	-0.346657
696.531	0.512606
698.247	-0.103861
699.963	-0.192705
701.678	0.705559
703.392	0.153278
705.108	0.335472
706.821	1.27388
708.534	0.10051
710.249	-0.178061
711.962	0.321619
713.674	0.705568
715.388	0.288706
717.099	0.192205
718.81	0.36978
720.523	0.524542
722.234	0.201178
723.944	0.606499
725.654	0.169867
727.365	0.778231
729.075	0.499897
730.784	0.0626736
732.492	0.984499
734.202	0.999199
735.91	0.991461
737.618	1.02957
739.325	0.324408
741.034	0.208138
742.741	0.837437
744.447	0.297653
746.153	0.818419
747.859	0.868795
749.564	0.89897
751.271	0.549015
752.976	0.516195
754.681	1.27315
756.385	0.210176
758.088	0.882677
759.792	1.33311
761.495	0.794035
763.2	0.209911
764.902	1.43094
766.604	1.00223
768.306	0.547367
770.008	0.744389
771.709	0.621593
773.41	1.22017
775.11	0.597034
776.811	1.89682
778.51	1.43529
780.21	0.636993
781.909	1.8084
783.608	1.66814
785.307	1.77482
787.005	1.19832
788.703	1.47668
790.401	1.25168
792.098	1.24853
793.795	1.33314
795.492	1.0789
797.188	0.714064
798.884	1.4786
800.58	0.984842
802.276	1.12387
803.971	0.701679
805.665	1.83064
807.36	1.00243
809.054	1.52051
810.748	1.92377
812.441	1.60737
814.135	1.87309
815.826	2.58571
817.518	1.41831
819.21	2.28666
820.902	1.32294
822.594	1.92329
824.285	1.98911
825.976	2.74818
827.665	2.21862
829.355	2.56279
831.045	1.95473
832.735	2.26482
834.424	2.8241
836.111	2.71664
837.8	2.36315
839.488	2.31981
841.177	2.65342
842.864	2.15823
844.55	1.03641
846.237	1.54707
847.924	1.72579
849.61	2.42362
851.295	2.32078
852.98	1.2797
854.666	1.6293
856.349	1.61987
858.034	1.99076
859.719	2.47189
861.403	1.71204
863.085	1.64693
864.769	2.03036
866.452	1.6009
868.133	1.07996
869.816	2.04663
871.498	0.937834
873.179	2.06195
874.86	1.24578
876.54	0.971075
878.221	0.515802
879.902	2.18213
881.58	1.97446
883.26	1.53973
884.938	1.12572
886.618	1.5445
888.297	2.02803
889.974	1.44852
891.653	2.33192
893.329	2.33353
895.007	1.97302
896.683	1.70122
898.36	1.85485
900.035	1.8271
901.712	2.44768
903.387	1.52197
905.063	1.20163
906.737	1.55218
908.412	2.34887
910.085	1.38629
911.76	1.78428
913.433	1.78273
915.107	0.827108
916.779	0.605404
918.452	1.42558
920.124	1.27036
921.797	1.42613
923.467	0.699621
925.138	1.47903
926.81	1.28939
928.48	1.65467
930.151	2.35293
931.82	1.26508
933.489	1.70019
935.16	1.87085
936.828	1.22629
938.496	0.980364
940.165	1.61884
941.833	1.70815
943.5	1.82087
945.168	1.31533
946.834	1.18284
948.5	0.782278
950.168	2.18825
951.834	1.3852
953.499	1.22252
955.163	1.34946
956.83	1.39314
958.494	1.0014
960.158	0.812735
961.821	1.39953
963.487	1.50054
965.15	0.824465
966.812	0.563568
968.474	1.11655
970.138	0.847387
971.8	1.19628
973.461	1.19216
975.123	1.2128
976.783	0.197208
978.446	1.35171
980.106	0.881498
981.766	0.410292
983.425	1.38663
985.084	2.49243
986.743	1.97845
988.402	1.97041
990.06	1.82751
991.72	0.910175
993.378	1.31887
995.035	1.0651
996.692	1.45164
998.349	1.63927
1000.01	2.42122
1001.66	3.33362
1003.32	2.57157
1004.97	2.29379
1006.63	2.10414
1008.28	2.11267
1009.94	1.24411
1011.59	1.51784
1013.25	0.849716
1014.9	1.58488
1016.55	1.44436
1018.21	1.32684
1019.86	1.40776
1021.51	1.00955
1023.16	1.92499
1024.81	1.37761
1026.47	1.35586
1028.12	1.02823
1029.77	0.677732
1031.42	2.53105
1033.07	2.87377
1034.72	1.72948
1036.37	1.7397
1038.02	1.901
1039.67	1.8008
1041.31	1.91956
1042.96	2.06236
1044.61	1.73031
1046.26	2.24917
1047.91	1.46831
1049.55	0.951088
1051.2	1.52202
1052.84	0.834522
1054.49	1.36427
1056.14	1.65517
1057.78	1.48915
1059.43	1.17002
1061.07	1.50201
1062.72	1.78917
1064.36	2.18336
1066	2.31465
1067.65	1.85708
1069.29	1.37635
1070.93	1.32921
1072.58	2.1285
1074.22	2.0385
1075.86	1.82039
1077.5	1.95184
1079.14	2.38913
1080.78	2.41577
1082.42	1.6617
1084.06	1.18795
1085.7	1.75195
1087.34	1.81353
1088.98	1.45991
1090.62	1.38499
1092.26	1.15685
1093.9	1.64094
1095.54	1.90881
1097.17	1.91911
1098.81	0.768864
1100.45	1.21618
1102.09	1.62345
1103.72	0.377209
1105.36	1.30611
1106.99	1.09586
1108.63	0.713049
1110.27	1.36045
1111.9	0.779633
1113.53	0.905424
1115.17	1.30803
1116.8	0.808157
1118.43	1.8527
1120.07	1.89028
1121.7	1.80123
1123.33	1.00795
1124.97	1.5649
1126.6	1.39588
1128.23	1.65603
1129.86	0.741446
1131.49	1.88045
1133.12	0.689672
1134.75	0.738605
1136.38	1.38483
1138.01	0.255482
1139.64	0.577234
1141.27	0.683556
1142.9	0.106155
1144.53	0.148129
1146.16	0.638956
1147.78	0.449141
1149.41	0.19702
1151.04	-0.0754852
1152.67	0.631687
1154.29	0.614088
1155.92	-0.042635
1157.54	0.151915
1159.17	0.55971
1160.8	0.564785
1162.42	0.0827637
1164.05	1.13333
1165.67	0.611336
1167.29	0.747959
1168.92	-0.350349
1170.54	-0.00575638
1172.16	-0.408144
1173.79	0.206139
1175.41	-0.0522175
1177.03	-0.0565815
1178.65	0.193649
1180.28	0.0214024
1181.9	-0.677925
1183.52	0.569593
1185.14	0.125381
1186.76	-0.0454025
1188.38	0.203308
1190	0.15324
1191.62	0.773754
1193.24	-0.144459
1194.86	0.429094
1196.47	0.477104
1198.09	0.819763
1199.71	1.18558
1201.33	1.24143
1202.95	0.800827
1204.56	0.615597
1206.18	0.434076
1207.8	1.19355
1209.41	0.180187
1211.03	1.20957
1212.64	1.44315
1214.26	1.50591
1215.87	1.14825
1217.49	1.24578
1219.1	1.88168
1220.71	0.606459
1222.33	0.807381
1223.94	1.17585
1225.55	2.1261
1227.16	1.71218
1228.78	1.81824
1230.39	1.86443
1232	1.89207
1233.61	2.25254
1235.22	3.06992
1236.83	2.17403
1238.44	2.62348
1240.05	2.76414
1241.66	2.13986
1243.27	2.3215
1244.88	1.36375
1246.49	2.12158
1248.1	2.89833
1249.71	2.26669
1251.32	1.88295
1252.92	3.15453
1254.53	2.79326
1256.14	2.72358
1257.74	2.78027
1259.35	3.23224
1260.96	2.60967
1262.56	3.10573
1264.17	3.45715
1265.77	2.79259
1267.38	3.10052
1268.98	2.74339
1270.59	3.37954
1272.19	2.85267
1273.79	3.1118
1275.4	3.01665
1277	3.56221
1278.6	2.78021
1280.21	3.34357
1281.81	3.14017
1283.41	2.91651
1285.01	3.89343
1286.61	4.41659
1288.21	3.59809
1289.81	4.35212
1291.41	4.28038
1293.01	5.42741
1294.61	5.70496
1296.21	5.40143
1297.81	5.28064
1299.41	4.90908
1301.01	5.7307
1302.6	4.69476
1304.2	6.49858
1305.8	5.54272
1307.4	5.01903
1308.99	4.72154
1310.59	5.22394
1312.19	4.57972
1313.78	4.81767
1315.38	4.66892
1316.97	4.01185
1318.57	5.62132
1320.16	4.53716
1321.76	4.14544
1323.35	4.48403
1324.94	4.24947
1326.54	4.19557
1328.13	4.16112
1329.72	3.29786
1331.32	4.44169
1332.91	3.62767
1334.5	4.5958
1336.09	3.79006
1337.68	3.24829
1339.27	3.3105
1340.87	3.77236
1342.45	3.54536
1344.04	3.33534
1345.64	3.74622
1347.22	3.73554
1348.81	2.84679
1350.4	3.02472
1351.99	2.72691
1353.58	2.31299
1355.17	2.24129
1356.75	2.1702
1358.34	2.65769
1359.93	2.34445
1361.51	1.75024
1363.1	2.53162
1364.69	2.33473
1366.27	1.81975
1367.86	2.12317
1369.44	2.26914
1371.03	1.50202
1372.61	2.54817
1374.2	2.06396
1375.78	2.55584
1377.37	2.86876
1378.95	2.54399
1380.53	2.59551
1382.11	1.78935
1383.7	2.17459
1385.28	1.38518
1386.86	2.76124
1388.44	1.8726
1390.02	1.72028
1391.6	2.14498
1393.19	2.29302
1394.77	2.54075
1396.35	2.05435
1397.93	1.52734
1399.51	2.36623
1401.08	1.99468
1402.66	2.59244
1404.24	2.3191
1405.82	2.2447
1407.4	2.40899
1408.97	2.7129
1410.55	2.24713
1412.13	2.92678
1413.71	2.99299
1415.28	3.01806
1416.86	3.0022
1418.43	3.08426
1420.01	2.89111
1421.59	3.05448
1423.16	3.6142
1424.73	3.94045
1426.31	2.91087
1427.88	4.22436
1429.46	4.75002
1431.03	5.11641
1432.6	5.69692
1434.18	6.76709
1435.75	7.24577
1437.32	6.7416
1438.89	7.04514
1440.46	7.86167
1442.04	8.22809
1443.61	7.61333
1445.18	8.09997
1446.75	8.56738
1448.32	8.22923
1449.89	8.36349
1451.46	8.59713
1453.03	7.416
1454.6	6.86456
1456.16	7.57198
1457.73	7.92397
1459.3	7.58444
1460.87	6.74926
1462.44	6.40238
1464	5.02991
1465.57	4.81632
1467.14	5.11305
1468.7	4.13408
1470.27	4.43324
1471.83	4.49883
1473.4	3.5465
1474.96	3.69401
1476.53	2.4501
1478.09	2.85341
1479.66	2.53123
1481.22	1.97376
1482.78	2.3765
1484.35	1.70124
1485.91	1.7504
1487.47	1.17152
1489.04	2.05914
1490.6	1.51451
1492.16	1.2408
1493.72	0.573536
1495.28	0.626798
1496.84	0.697818
1498.4	0.495943
1499.96	0.237164
1501.52	0.640585
1503.08	0.482577
1504.64	1.13987
1506.2	0.363943
1507.76	0.536028
1509.32	0.609564
1510.88	0.719753
1512.44	0.674187
1513.99	0.512733
1515.55	0.659503
1517.11	0.326951
1518.66	0.111381
1520.22	0.356869
1521.78	0.200285
1523.33	0.13907
1524.89	0.66857
1526.44	0.585117
1528	-0.0706959
1529.55	0.358239
1531.11	0.861907
1532.66	1.25123
1534.21	0.561655
1535.77	0.89664
1537.32	0.741114
1538.87	0.398207
1540.43	0.471333
1541.98	0.845823
1543.53	0.579581
1545.08	0.745945
1546.63	0.817731
1548.18	0.401317
1549.74	0.379289
1551.29	1.18142
1552.84	1.51516
1554.39	1.19568
1555.94	0.673452
1557.48	1.05047
1559.03	1.37417
1560.58	0.991729
1562.13	1.33928
1563.68	1.87509
1565.23	1.44162
1566.78	0.653528
1568.32	1.52595
1569.87	1.61396
1571.42	1.55202
1572.96	1.63898
1574.51	1.66969
1576.05	1.14039
1577.6	1.39545
1579.14	1.48313
1580.69	1.85186
1582.24	1.04533
1583.78	1.73416
1585.32	2.08816
1586.87	1.714
1588.41	1.76988
1589.95	2.16226
1591.5	1.99262
1593.04	1.9719
1594.58	1.7634
1596.12	2.64156
1597.67	3.29606
1599.21	2.4146
1600.75	2.88413
1602.29	3.11083
1603.83	2.86818
1605.37	3.67619
1606.91	2.94133
1608.45	2.40963
1609.99	3.18978
1611.53	2.57541
1613.07	2.2964
1614.6	3.08541
1616.14	2.54117
1617.68	2.31705
1619.22	2.82569
1620.75	2.64342
1622.29	2.1264
1623.83	1.81671
1625.37	2.21836
1626.9	3.01159
1628.44	2.60488
1629.97	2.27105
1631.51	3.05724
1633.04	2.29167
1634.58	3.05817
1636.11	2.64979
1637.65	2.37378
1639.18	3.57172
1640.72	3.52015
1642.25	2.83413
1643.78	3.93437
1645.31	3.78454
1646.85	4.32136
1648.38	4.33663
1649.91	4.66826
1651.44	4.53732
1652.97	4.35309
1654.5	4.26364
1656.03	5.1576
1657.56	4.06825
1659.1	3.99693
1660.62	4.70085
1662.15	4.27292
1663.68	3.78817
1665.21	4.26365
1666.74	4.49914
1668.27	3.70349
1669.8	3.79606
1671.32	3.90948
1672.85	3.60101
1674.38	3.56963
1675.91	3.13277
1677.43	2.84204
1678.96	2.14504
1680.49	2.62375
1682.01	3.02718
1683.54	3.09905
1685.06	2.67553
1686.59	2.19809
1688.11	1.79521
1689.64	1.37504
1691.16	1.63306
1692.68	1.34192
1694.21	1.34359
1695.73	1.27184
1697.25	1.45556
1698.78	1.69331
1700.3	0.543128
1701.82	0.816139
1703.34	1.01501
1704.86	1.1581
1706.39	1.10013
1707.91	0.660083
1709.43	1.12879
1710.95	1.27015
1712.47	0.921987
1713.99	1.28116
1715.51	0.843335
1717.02	0.984883
1718.54	0.113949
1720.06	-0.123658
1721.58	0.974449
1723.1	0.899846
1724.62	0.448503
1726.13	0.863898
1727.65	0.57888
1729.17	0.673312
1730.68	0.786314
1732.2	1.19822
1733.72	0.670416
1735.23	1.12215
1736.75	1.02636
1738.26	0.363324
1739.78	1.18691
1741.29	0.81688
1742.81	1.19485
1744.32	0.857765
1745.84	0.947394
1747.35	0.907661
1748.86	-0.104212
1750.37	0.83524
1751.89	0.319813
1753.4	0.224287
1754.91	0.16556
1756.42	0.153535
1757.93	0.542021
1759.45	0.114841
1760.96	-0.218424
1762.47	0.0166559
1763.98	-0.0140219
1765.49	0.0800323
1767	0.27482
1768.51	0.132068
1770.02	0.166306
1771.53	0.0587406
1773.03	0.614912
1774.54	0.323699
1776.05	0.641999
1777.56	0.32016
1779.07	0.485032
1780.57	0.357507
1782.08	-0.147154
1783.59	0.214144
1785.09	-0.0651283
1786.6	-0.137609
1788.11	0.110692
1789.61	0.37034
1791.12	-0.0539961
1792.62	0.0380402
1794.13	-0.11864
1795.63	0.0191212
1797.13	0.147245
1798.64	0.185675
1800.14	0.125656
1801.65	-0.349423
1803.15	-0.0394344
1804.65	0.0888424
1806.15	0.0521421
1807.66	-0.195345
1809.16	0.280797
1810.66	0.124245
1812.16	-0.0218706
1813.66	-0.117558
1815.16	0.176304
1816.66	-0.368513
1818.16	-0.175121
1819.66	0.203021
1821.16	0.0820303
1822.66	-0.224262
1824.16	0.0178337
1825.66	0.310025
1827.16	-0.0377769
1828.66	0.106547
1830.16	-0.130136
1831.65	0.265596
1833.15	0.362255
1834.65	0.0260572
1836.14	0.190821
1837.64	0.358436
1839.14	0.0878153
1840.63	0.16761
1842.13	-0.0747967
1843.62	-0.160171
1845.12	-0.104126
1846.61	0.182519
1848.11	0.24273
1849.6	0.0358009
1851.1	0.41197
1852.59	0.252756
1854.08	-0.0136919
1855.58	0.168725
1857.07	0.0468855
1858.56	0.0188446
1860.05	-0.474743
1861.55	0.328111
1863.04	0.0311556
1864.53	0.212356
1866.02	-0.199213
1867.51	0.366889
1869	0.16334
1870.49	0.303878
1871.98	-0.163621
1873.47	0.430831
1874.96	-0.119688
1876.45	0.494146
1877.94	-0.111826
1879.43	-0.339085
1880.92	0.0728159
1882.41	0.243625
1882.51	0.255235
1884	-0.248755
1885.5	0.152744
1886.99	-0.300724
1888.48	-0.0928955
1889.98	0.254116
1891.47	-0.250082
1892.96	-0.0912323
1894.46	-0.103954
1895.95	0.615599
1897.44	0.206076
1898.93	-0.221158
1900.42	-0.0583172
1901.91	0.119825
1903.41	-0.104412
1904.9	0.538794
1906.39	-0.22703
1907.88	0.449198
1909.37	-0.158887
1910.86	-0.00184631
1912.35	-0.121292
1913.83	-0.153253
1915.32	-0.705302
1916.81	0.0947218
1918.3	0.304354
1919.79	-0.214465
1921.27	-0.369346
1922.76	-0.194642
1924.25	-0.192054
1925.74	0.504416
1927.22	0.405936
1928.71	-0.0379925
1930.19	0.383754
1931.68	0.527425
1933.17	0.547931
1934.65	0.0467453
1936.14	0.235828
1937.62	0.474982
1939.11	0.108436
1940.59	0.657894
1942.07	-0.0864935
1943.56	0.223447
1945.04	-0.000297546
1946.52	0.293756
1948.01	0.656252
1949.49	-0.188378
1950.97	0.292258
1952.45	-0.519407
1953.93	0.096468
1955.42	0.144319
1956.9	0.00369835
1958.38	-0.170212
1959.86	0.308846
1961.34	0.513826
1962.82	0.376099
1964.3	0.169705
1965.78	0.356705
1967.26	-0.0222034
1968.74	0.385286
1970.21	0.124834
1971.69	0.274322
1973.17	0.184547
1974.65	0.402026
1976.13	0.210368
1977.6	0.547194
1979.08	0.202846
1980.56	-0.226142
1982.03	0.416122
1983.51	0.224764
1984.99	0.61033
1986.46	0.604879
1987.94	0.345199
1989.41	-0.0999699
1990.89	-0.154442
1992.36	-0.0723705
1993.84	0.348985
1995.31	-0.276689
1996.78	-0.158066
1998.26	-0.191559
1999.73	0.0783081
2001.2	0.313422
2002.68	-0.211332
2004.15	0.528593
2005.62	-0.0292263
2007.09	0.559715
2008.56	0.139182
2010.04	0.679581
2011.51	0.126345
2012.98	0.0614204
2014.45	0.349374
2015.92	0.266061
2017.39	0.635704
2018.86	0.516431
2020.33	-0.157944
2021.8	-0.0257349
2023.26	-0.0107594
2024.73	0.0890779
2026.2	0.509045
2027.67	-0.0252752
2029.14	0.499002
2030.61	0.555431
2032.07	-0.058094
2033.54	0.235105
2035.01	0.34376
2036.47	0.200012
2037.94	0.441955
2039.4	0.532222
2040.87	0.387099
2042.33	0.175121
2043.8	0.216266
2045.27	0.140788
2046.73	0.655456
2048.19	0.884706
2049.66	0.00140953
2051.12	0.684078
2052.59	0.0665483
2054.05	0.323551
2055.51	0.392767
2056.97	0.34215
2058.44	0.122011
2059.9	0.289232
2061.36	0.423155
2062.82	0.726363
2064.28	0.391233
2065.74	0.562336
2067.21	0.684056
2068.67	0.419456
2070.13	0.50869
2071.59	0.749547
2073.05	0.687194
2074.51	-0.301681
2075.96	0.729691
2077.42	-0.260189
2078.88	0.433429
2080.34	-0.00180149
2081.8	0.218977
2083.26	0.455666
2084.72	0.539817
2086.17	0.942554
2087.63	0.570682
2089.09	-0.036685
2090.54	-0.0893984
2092	0.479014
2093.45	0.492989
2094.91	0.607229
2096.37	0.988853
2097.82	0.648894
2099.28	0.710261
2100.73	0.888161
2102.19	0.297402
2103.64	0.827334
2105.09	0.941065
2106.55	0.806289
2108	1.03993
2109.45	0.52354
2110.91	0.656874
2112.36	0.571796
2113.81	0.834318
2115.26	0.661734
2116.72	1.07011
2118.17	0.697493
2119.62	1.14048
2121.07	0.905294
2122.52	0.805518
2123.97	1.10566
2125.42	1.04183
2126.87	1.24295
2128.32	0.978538
2129.77	0.977594
2131.22	1.58774
2132.67	1.054
2134.11	0.98401
2135.56	1.26233
2137.01	1.09607
2138.46	1.44462
2139.91	1.56429
2141.35	1.55396
2142.8	1.84289
2144.25	1.43813
2145.7	1.51317
2147.14	1.40574
2148.59	1.52927
2150.03	2.11556
2151.48	1.42488
2152.92	1.76006
2154.37	2.69057
2155.81	1.58255
2157.26	2.23072
2158.7	1.95218
2160.15	2.2718
2161.59	2.31226
2163.03	2.75325
2164.47	2.76561
2165.92	2.24794
2167.36	2.21122
2168.8	3.00422
2170.24	2.99714
2171.69	3.16994
2173.13	3.20678
2174.57	2.60947
2176.01	2.21107
2177.45	3.10999
2178.89	2.82935
2180.33	2.79953
2181.77	2.92062
2183.21	2.57696
2184.65	2.71594
2186.09	2.60552
2187.53	2.71141
2188.97	2.55111
2190.4	2.59046
2191.84	1.63054
2193.28	2.28444
2194.72	2.85326
2196.16	2.25413
2197.59	2.30148
2199.03	1.94731
2200.47	2.30661
2201.9	2.08405
2203.34	2.36042
2204.77	1.01302
2206.21	1.35883
2207.64	1.80445
2209.08	1.25588
2210.51	1.36886
2211.95	1.23227
2213.38	1.26016
2214.82	1.53558
2216.25	1.43176
2217.68	1.77499
2219.12	1.29503
2220.55	1.16276
2221.98	1.1626
2223.41	0.963832
2224.85	1.60325
2226.28	1.18645
2227.71	1.31065
2229.14	1.26866
2230.57	1.48818
2232	0.871187
2233.43	1.09072
2234.86	0.83653
2236.29	0.535327
2237.72	1.28138
2239.15	0.788949
2240.58	0.642027
2242.01	0.839949
2243.44	0.599074
2244.87	0.896919
2246.29	1.01452
2247.72	0.983287
2249.15	0.802557
2250.58	0.456256
2252.01	0.857009
2253.43	0.605463
2254.86	1.18333
2256.29	0.512045
2257.71	0.574729
2259.14	0.413816
2260.56	0.95424
2261.99	0.865072
2263.41	0.290649
2264.84	0.528506
2266.26	0.684885
2267.69	0.417443
2269.11	0.490374
2270.53	0.383283
2271.96	0.71512
2273.38	0.330278
2274.8	0.53179
2276.23	0.489246
2277.65	0.300211
2279.07	0.518711
2280.49	0.704637
2281.91	0.384855
2283.34	0.635823
2284.76	0.772715
2286.18	0.175416
2287.6	0.410936
2289.02	0.761485
2290.44	0.459208
2291.86	0.696485
2293.28	0.247245
2294.7	0.484755
2296.12	-0.145176
2297.54	0.190436
2298.96	0.0512953
2300.37	0.125313
2301.79	-0.16101
2303.21	0.0284863
2304.63	0.349683
2306.04	0.227695
2307.46	-0.0755844
2308.88	0.113357
2310.3	0.186606
2311.71	0.275851
2313.13	0.496727
2314.54	0.273823
2315.96	-0.261231
2317.37	0.209106
2318.79	0.499171
2320.2	-0.0518999
2321.62	0.253211
2323.03	0.45718
2324.45	0.130169
2325.86	0.21297
2327.27	0.343104
2328.69	1.29615
2330.1	0.452973
2331.51	-0.305936
2332.92	0.401831
2334.34	0.17237
2335.75	-0.319886
2337.16	0.601949
2338.57	0.420471
2339.98	0.402028
2341.39	0.480938
2342.8	0.115995
2344.21	-0.0353174
2345.63	-0.0713902
2347.04	0.236883
2348.45	-0.0117331
2349.85	-0.0314779
2351.26	-0.0521326
2352.67	0.0893803
2354.08	-0.0479097
2355.49	0.30323
2356.9	-0.388866
2358.3	-0.136175
2359.71	-0.160097
2361.12	0.0271387
2362.53	0.100464
2363.93	0.400241
2365.34	0.505147
2366.75	0.286837
2368.15	0.00512314
2369.56	0.160703
2370.97	-0.439975
2372.37	0.0571718
2373.77	0.651647
2375.18	0.409092
2376.59	-0.0428743
2377.99	0.260087
2379.39	0.480392
2380.8	0.312951
2382.2	0.368567
2383.6	0.0545454
2385.01	0.41281
2386.41	0.499074
2387.81	0.586265
2389.21	-0.0905323
2390.62	0.159374
2392.02	0.426269
2393.42	-0.117401
2394.82	0.374253
2396.22	-0.0557194
2397.62	0.294123
2399.02	-0.245312
2400.42	0.137463
2401.82	-0.0513268
2403.22	0.0934973
2404.62	0.0472803
2406.02	4.86374e-005
2407.42	0.4436
2408.82	0.0927801
2410.22	0.471042
2411.62	0.421407
2413.01	-0.0547714
2414.41	0.436663
2415.81	-0.130915
2417.21	-0.301091
2418.6	0.147292
2420	0.738818
2421.4	0.30081
2422.79	0.194902
2424.19	0.468884
2425.59	0.156672
2426.98	0.463093
2428.38	0.104882
2429.77	0.41368
2431.17	0.390399
2432.56	0.399047
2433.95	0.375281
2435.35	-0.190029
2436.74	0.291297
2438.14	0.325911
2439.53	0.34301
2440.92	0.184264
2442.31	0.231307
2443.71	0.40489
2445.1	0.213285
2446.49	0.560693
2447.88	0.55897
2449.27	-0.266472
2450.67	0.0173998
2452.06	-0.0940151
2453.45	0.539243
2454.84	0.0342197
2456.23	-0.137633
2457.62	0.371085
2459.01	0.626472
2460.4	-0.289195
2461.79	0.280731
2463.18	-0.130592
2464.57	-0.194747
2465.95	-0.0223389
2467.34	0.386571
2468.73	-0.293665
2470.12	-0.0114956
2471.5	0.2856
2472.89	0.613011
2474.28	0.24636
2475.67	0.398517
2477.05	0.0469923
2478.44	0.44978
2479.82	-0.214952
2481.21	0.219141
2482.6	0.354785
2483.98	0.160879
2485.37	0.294668
2486.75	0.286171
2488.13	0.401153
2489.52	0.156455
2490.9	0.285724
2492.29	0.508545
2493.67	0.499261
2495.05	-0.00473213
2496.44	0.0206766
2497.82	0.109028
2499.2	-0.0191126
2500.58	-0.379489
2501.97	0.0325155
2503.35	0.149245
2504.73	-0.182684
2506.11	-0.283547
2507.49	-0.0612907
2508.87	0.160604
2510.25	0.0292969
2511.63	0.0831347
2513.01	0.0151644
2514.39	-0.0516634
2515.77	0.0663137
2517.15	-0.350323
2518.53	-0.00142384
2519.91	0.225069
2521.29	0.0080862
2522.67	0.187404
2524.05	-0.153142
2525.42	0.115573
2526.8	-0.164691
2528.18	0.0276394
2529.55	-0.250386
2530.93	0.096879
2532.31	-0.237836
2533.69	0.0217047
2535.06	0.084569
2536.44	0.405653
2537.81	0.0878534
2539.19	0.194236
2540.56	0.0566092
2541.94	0.0855618
2543.31	-0.112783
2544.69	0.114701
2546.06	0.510444
2547.44	0.043088
2548.81	0.031785
2550.18	-0.419471
2551.56	0.418546
2552.93	0.0565977
2554.3	0.209362
2555.67	0.0423479
2557.04	-0.292116
2558.42	-0.15651
2559.79	0.161228
2561.16	-0.202577
2562.53	-0.186663
2563.9	0.572472
2565.27	0.0137186
2566.64	0.773676
2568.01	-0.118114
2569.38	0.141859
2570.75	-0.219577
2572.12	0.510326
2573.49	0.148994
2574.86	0.0454292
2576.23	0.184451
2577.6	-0.267932
2578.97	0.0829916
2580.33	0.509317
2581.7	0.0708342
2583.07	0.192908
2584.44	0.193373
2585.8	-0.00329971
2587.17	0.300368
2588.54	0.0434494
2589.9	0.241333
2591.27	-0.0307331
2592.64	-0.318461
2594	0.271565
2595.37	0.269403
2596.73	0.598947
2598.1	0.427902
2599.46	-0.091176
2600.83	0.266839
2602.19	-0.296172
2603.55	0.0780535
2604.92	-0.0755014
2606.28	0.178571
2607.64	0.175716
2609.01	-0.00903511
2610.37	0.467683
2611.73	0.159436
2613.09	-0.164771
2614.46	-0.294035
2615.82	0.086834
2617.18	-0.102457
2618.54	-0.365561
2619.9	-0.163436
2621.26	0.0691414
2622.62	-0.146253
2623.98	0.430327
2625.34	0.513618
2626.7	0.253494
2628.06	0.0529165
2629.42	-0.371095
2630.78	-0.0508032
2632.14	0.0755653
2633.5	0.231359
2634.86	0.297802
2636.21	0.156467
2637.57	0.311687
2638.93	0.348256
2640.29	-0.354789
2641.64	0.25927
2643	0.429571
2644.36	-0.344987
2645.71	0.371433
2647.07	0.157593
2648.43	-0.0862331
2649.78	0.0078373
2651.14	0.556608
2652.49	-0.129779
2653.85	-0.0809708
2655.2	0.261769
2656.56	-0.185618
2657.91	-0.469998
2659.26	-0.123978
2660.62	0.251419
2661.97	0.392434
2663.32	-0.0809078
2664.68	0.671432
2666.03	-0.0222349
2667.38	0.0132542
2668.74	-0.0679426
2670.09	-0.105039
2671.44	0.396488
2672.79	0.0698938
2674.14	-0.0522451
2675.49	0.465078
2676.84	0.402292
2678.19	0.267857
2679.54	0.55502
2680.89	0.263474
2682.24	0.422884
2683.59	0.511314
2684.94	0.194866
2686.29	0.328608
2687.64	0.244531
2688.99	0.202503
2690.34	0.0858002
2691.69	0.489381
2693.03	0.295918
2694.38	0.478409
2695.73	0.559001
2697.08	0.278123
2698.42	0.375563
2699.77	0.547457
2701.12	0.0988903
2702.46	0.564542
2703.81	0.191396
2705.15	0.31148
2706.5	0.301208
2707.85	0.50826
2709.19	0.714965
2710.54	1.03749
2711.88	0.880501
2713.22	1.07196
2714.57	0.245947
2715.91	0.335368
2717.26	1.23913
2718.6	0.528219
2719.94	1.14064
2721.29	1.31607
2722.63	0.937796
2723.97	0.762606
2725.31	1.16905
2726.66	0.585223
2728	0.801509
2729.34	1.26482
2730.68	0.985737
2732.02	1.53594
2733.36	0.39869
2734.7	0.890985
2736.04	0.438066
2737.38	0.567121
2738.72	0.477984
2740.06	0.664841
2741.4	0.647481
2742.74	0.178638
2744.08	0.508465
2745.42	0.343331
2746.76	0.352025
2748.09	0.128224
2749.43	0.51403
2750.77	0.348646
2752.11	0.517148
2753.45	0.540897
2754.78	-0.13058
2756.12	0.762757
2757.46	0.120939
2758.79	0.275954
2760.13	-0.017292
2761.46	-0.121719
2762.8	-0.138731
2764.14	0.379997
2765.47	0.131841
2766.8	0.215901
2768.14	-0.0194235
2769.47	0.0763655
2770.81	0.372584
2772.14	0.219003
2773.48	-0.00779629
2774.81	0.284092
2776.14	0.532188
2777.48	0.175848
2778.81	0.022109
2780.14	0.127901
2781.47	0.162145
2782.8	0.0672941
2784.14	-0.213957
2785.47	-0.136559
2786.8	0.198766
2788.13	-0.167111
2789.46	-0.159654
2790.79	0.0634232
2792.12	0.358814
2793.45	-0.188749
2794.78	-0.378714
2796.11	0.0739889
2797.44	-0.0455971
2798.77	0.491003
2800.1	0.0132961
2801.43	-0.0934191
2802.76	0.127666
2804.09	0.376701
2805.41	-0.158432
2806.74	0.16034
2808.07	0.0938444
2809.4	0.268526
2810.72	0.485566
2812.05	0.0786533
2813.38	0.69485
2814.71	0.66021
2816.03	0.599156
2817.36	0.440389
2818.68	0.849355
2820.01	0.365412
2821.33	0.759651
2822.66	0.982886
2823.98	0.652648
2825.31	1.05865
2826.63	1.30875
2827.96	1.14886
2829.28	1.24462
2830.6	1.29855
2831.93	1.57928
2833.25	1.69005
2834.57	2.225
2835.9	2.43362
2837.22	2.4716
2838.54	3.20205
2839.86	3.96008
2841.18	4.66133
2842.5	5.2923
2843.83	6.41885
2845.15	7.60308
2846.47	8.02536
2847.79	8.88655
2849.11	9.97403
2850.43	10.7217
2851.75	10.2387
2853.07	10.5743
2854.39	10.6122
2855.71	10.7628
2857.03	11.2523
2858.35	10.414
2859.66	10.8047
2860.98	10.8701
2862.3	11.4571
2863.62	10.8575
2864.94	11.0196
2866.25	12.4511
2867.57	13.3325
2868.89	12.9737
2870.2	13.5182
2871.52	13.9926
2872.84	14.4661
2874.15	14.036
2875.47	14.0684
2876.78	14.3517
2878.1	13.9433
2879.41	14.2378
2880.73	14.5749
2882.04	14.6748
2883.36	15.072
2884.67	14.9096
2885.99	15.0858
2887.3	14.1813
2888.61	15.9984
2889.93	15.2456
2891.24	16.23
2892.55	15.9087
2893.86	15.8393
2895.18	15.7009
2896.49	15.7186
2897.8	16.6343
2899.11	15.6495
2900.42	15.9818
2901.73	16.7349
2903.05	17.5024
2904.36	17.7806
2905.67	17.7659
2906.98	17.165
2908.29	17.7411
2909.6	17.8997
2910.91	18.1857
2912.21	18.2199
2913.52	19.4983
2914.83	19.5554
2916.14	19.6502
2917.45	19.8809
2918.76	20.5427
2920.07	20.812
2921.37	20.1321
2922.68	20.518
2923.99	20.9213
2925.29	21.7888
2926.6	21.0084
2927.91	21.7379
2929.22	22.2429
2930.52	21.4463
2931.83	22.0464
2933.13	22.4222
2934.44	22.6861
2935.74	22.1955
2937.05	21.6775
2938.35	21.2159
2939.66	20.2799
2940.96	19.9461
2942.26	19.1533
2943.57	18.4749
2944.87	17.9392
2946.18	16.5807
2947.48	17.755
2948.78	16.0744
2950.08	15.2303
2951.39	15.7963
2952.69	14.776
2953.99	14.705
2955.29	14.3252
2956.59	13.7653
2957.9	13.6716
2959.2	13.3454
2960.5	13.0526
2961.8	12.4974
2963.1	12.1954
2964.4	11.9342
2965.7	12.2177
2967	11.4864
2968.3	10.4427
2969.6	10.4797
2970.9	10.8963
2972.19	10.0616
2973.49	9.94482
2974.79	9.34943
2976.09	9.31583
2977.39	8.942
2978.68	8.38208
2979.98	7.93189
2981.28	8.07067
2982.58	6.9847
2983.87	6.96873
2985.17	6.40651
2986.47	5.79089
2987.76	6.07713
2989.06	6.28077
2990.35	5.31849
2991.65	5.29704
2992.94	4.66969
2994.24	4.82743
2995.53	4.05631
2996.83	4.60443
2998.12	3.70636
2999.42	3.44072
3000.71	3.58277
3002	3.08089
3003.3	2.45391
3004.59	2.69606
3005.88	2.50362
3007.18	1.8346
3008.47	1.90666
3009.76	1.90756
3011.05	1.62804
3012.34	1.90689
3013.64	1.93425
3014.93	1.02825
3016.22	1.05788
3017.51	0.448128
3018.8	0.841684
3020.09	1.06812
3021.38	0.807368
3022.67	0.532066
3023.96	0.769497
3025.25	0.229224
3026.54	0.423868
3027.83	0.342082
3029.12	0.870266
3030.41	0.404943
3031.69	-0.126926
3032.98	0.143753
3034.27	0.111147
3035.56	-0.266827
3036.84	0.415754
3038.13	0.599327
3039.42	0.628867
3040.71	0.738875
3041.99	0.545535
3043.28	0.73653
3044.57	0.722911
3045.85	0.547513
3047.14	0.64859
3048.42	0.602521
3049.71	0.504767
3050.99	1.32351
3052.28	0.396761
3053.56	0.548195
3054.85	0.848969
3056.13	0.72561
3057.41	0.723738
3058.7	0.898073
3059.98	0.649893
3061.26	1.01494
3062.55	0.714545
3063.83	0.470685
3065.11	0.881588
3066.39	1.45753
3067.68	0.784166
3068.96	0.274456
3070.24	0.798111
3071.52	0.518414
3072.8	0.618144
3074.08	0.390125
3075.36	0.446616
3076.65	0.25836
3077.93	0.0573492
3079.21	0.265006
3080.49	0.583062
3081.77	0.252061
3083.04	0.03127
3084.32	-0.0935984
3085.6	0.080348
3086.88	0.131791
3088.16	-0.0481892
3089.44	-0.120218
3090.72	0.0787907
3091.99	-0.346333
3093.27	-0.0520449
3094.55	0.296904
3095.83	0.25305
3097.1	-0.0616179
3098.38	-0.199844
3099.66	0.366626
3100.93	0.404578
3102.21	0.442781
3103.49	0.210714
3104.76	-0.236996
3106.04	0.114975
3107.31	0.116301
3108.59	0.186715
3109.86	0.326286
3111.14	0.23712
3112.41	0.0677299
3113.69	0.115721
3114.96	0.353684
3116.23	0.198256
3117.51	0.177589
3118.78	0.210133
3120.05	0.268723
3121.33	0.434885
3122.6	0.451384
3123.87	0.481369
3125.14	0.457653
3126.41	0.475323
3127.69	0.37212
3128.96	0.445662
3130.23	0.749648
3131.5	0.864629
3132.77	0.722878
3134.04	0.527023
3135.31	0.830451
3136.58	0.606996
3137.85	0.221726
3139.12	0.564337
3140.39	1.06794
3141.66	0.777649
3142.93	0.931879
3144.2	1.54313
3145.47	0.70567
3146.74	1.15745
3148	0.953212
3149.27	0.884147
