200.554	0.343084
202.369	0.381861
204.183	0.421192
205.999	0.583561
207.813	-0.0804806
209.626	0.494473
211.439	0.727058
213.253	1.24857
215.065	-0.00299454
216.877	-0.0903053
218.688	0.0889912
220.5	-0.239286
222.312	0.474312
224.123	0.076334
225.933	-0.0305004
227.742	0.225103
229.552	0.0693531
231.361	0.130045
233.171	-0.243988
234.98	0.00971603
236.787	0.0963993
238.595	0.113888
240.402	0.327963
242.209	-0.51549
244.015	0.0413933
245.822	-0.415194
247.627	0.574013
249.435	-0.227432
251.24	-0.188639
253.045	-0.202276
254.849	0.481026
256.653	0.126305
258.457	1.02628
260.26	-0.023201
262.063	-0.178175
263.866	0.247406
265.668	0.409533
267.47	0.114201
269.271	0.469002
271.073	0.26804
272.873	-0.24827
274.674	0.438702
276.474	0.447952
278.274	-0.413214
280.073	0.457378
281.872	-0.385101
283.671	-0.050787
285.47	0.0404873
287.268	0.946352
289.065	-0.235488
290.863	0.574125
292.66	0.331221
294.456	0.30625
296.253	1.16806
298.049	0.429529
299.844	-0.0211401
301.637	-0.471971
303.432	0.413198
305.227	0.985382
307.021	0.172143
308.815	0.217551
310.609	0.597259
312.402	1.07371
314.195	0.123768
315.987	0.462538
317.777	-0.291539
319.569	0.0282345
321.36	0.278382
323.151	0.529857
324.942	0.543554
326.733	0.461823
328.521	0.498931
330.31	0.46327
332.1	0.329968
333.889	0.576665
335.677	1.08333
337.464	0.533445
339.252	1.00915
341.039	0.860312
342.826	0.877604
344.611	0.966425
346.398	1.29478
348.184	1.88663
349.97	0.3543
351.754	0.254568
353.539	0.368697
355.324	0.838854
357.106	0.0904989
358.89	0.50848
360.674	-0.0760355
362.455	-0.351846
364.239	1.08349
366.021	1.06611
367.804	0.786376
369.584	0.0315409
371.366	0.626923
373.145	1.24348
374.926	0.747364
376.707	1.12577
378.485	0.2073
380.265	0.210687
382.045	0.356969
383.822	0.504901
385.601	1.05418
387.378	0.0304394
389.156	-0.0983438
390.934	-0.0143356
392.71	0.023777
394.487	-0.172118
396.262	-0.0857706
398.038	0.259002
399.813	-0.0542145
401.588	0.101594
403.362	0.138917
405.137	0.950089
406.912	1.14931
408.685	0.619628
410.459	0.887688
412.23	-0.0881605
414.004	0.81407
415.775	0.708238
417.548	0.74439
419.318	0.0539608
421.089	0.255517
422.86	0.38626
424.63	0.891492
426.401	0.59709
428.17	0.536104
429.94	0.873402
431.708	0.553382
433.478	0.797119
435.245	0.68927
437.012	1.23846
438.781	0.190557
440.547	0.806589
442.315	0.316669
444.081	0.972552
445.846	0.757934
447.613	0.799217
449.378	0.325277
451.142	0.389618
452.908	0.47762
454.672	0.845647
456.435	0.630359
458.2	0.228832
459.963	0.782053
461.725	1.10299
463.489	0.519607
465.251	0.730301
467.012	0.294674
468.775	1.14127
470.536	0.689057
472.296	1.19123
474.056	0.202598
475.817	1.12028
477.576	1.17307
479.335	0.547413
481.094	0.735563
482.854	1.13354
484.612	0.741467
486.37	-0.276832
488.127	0.991376
489.886	0.771429
491.642	1.2297
493.398	1.01215
495.154	0.841231
496.91	0.388896
498.667	0.802217
500.422	0.676107
502.176	0.783463
503.93	1.12446
505.684	1.67561
507.438	1.1904
509.191	0.114163
510.946	0.705526
512.698	1.29458
514.45	0.892984
516.202	0.74812
517.954	1.00123
519.705	0.852952
521.456	0.93857
523.206	1.25816
524.956	0.215778
526.706	1.02762
528.456	0.947674
530.207	0.867586
531.956	0.833749
533.704	0.494369
535.452	0.668172
537.2	0.161829
538.947	0.14456
540.694	0.731839
542.441	0.268427
544.188	1.24781
545.934	0.691304
547.68	0.60051
549.425	0.579813
551.17	0.46685
552.915	0.261867
554.659	1.00488
556.403	0.0387516
558.145	-0.0255909
559.889	0.947581
561.632	0.262589
563.375	0.522577
565.117	0.553216
566.859	-0.425875
568.601	0.319121
570.342	0.170047
572.083	0.550794
573.824	0.108134
575.565	0.585762
577.303	0.423596
579.043	0.355131
580.782	0.333662
582.521	-0.262218
584.26	0.956747
585.998	0.54215
587.734	0.332403
589.472	0.373818
591.21	0.41383
592.947	1.02824
594.684	0.123929
596.418	0.439077
598.154	0.201984
599.89	0.171377
601.626	-0.205559
603.361	0.105678
605.094	0.322573
606.828	0.284539
608.562	-0.328743
610.296	-0.0234928
612.027	0.0757208
613.761	0.955526
615.493	0.300135
617.224	0.0578365
618.956	0.0210028
620.688	0.394566
622.419	-0.0805769
624.149	-0.0305691
625.879	-0.117664
627.61	0.253564
629.338	0.741583
631.068	0.297506
632.797	0.0162773
634.525	0.672274
636.254	0.323494
637.98	-0.00519085
639.708	-0.0411758
641.436	0.0552998
643.162	0.125268
644.889	0.261579
646.614	-0.147684
648.34	-0.826226
650.067	0.0909595
651.791	0.0592737
653.516	0.647146
655.239	-0.146843
656.964	-0.392385
658.687	0.457063
660.411	0.189457
662.133	0.352855
663.857	-0.195479
665.58	0.395213
667.301	0.0915594
669.024	0.198431
670.744	0.0320816
672.464	-0.291693
674.186	0.257982
675.905	0.559544
677.626	0.955337
679.345	0.157719
681.065	-0.27511
682.783	-0.159091
684.503	0.437399
686.22	0.271492
687.939	0.264381
689.656	0.808514
691.372	0.983022
693.09	0.419436
694.806	-0.23733
696.523	0.348111
698.239	-0.748965
699.953	0.38497
701.67	0.251198
703.384	0.254093
705.098	0.990851
706.813	0.0504465
708.526	-0.453417
710.239	0.715535
711.954	0.165042
713.666	0.324099
715.378	0.802499
717.091	-0.158368
718.802	0.639029
720.513	0.637633
722.226	1.63837
723.936	0.726391
725.646	0.634131
727.355	0.564299
729.067	0.516622
730.776	0.15103
732.484	-0.259682
734.192	0.73282
735.902	0.774171
737.61	0.883784
739.317	0.655882
741.024	0.452397
742.731	0.0933504
744.439	0.907375
746.145	0.282588
747.851	0.222721
749.556	1.44693
751.262	0.243827
752.966	0.684623
754.673	0.655168
756.377	0.672957
758.081	0.512949
759.784	0.963248
761.487	0.198306
763.19	0.989907
764.892	0.743544
766.594	0.653316
768.296	1.21586
770	0.916269
771.701	1.17893
773.402	1.07773
775.102	0.840264
776.803	1.03329
778.503	1.49965
780.202	0.905494
781.901	1.76061
783.6	0.896441
785.299	1.52412
786.997	0.925915
788.695	1.13793
790.393	0.417577
792.09	0.914777
793.787	0.64117
795.484	0.818894
797.18	1.53857
798.877	0.728292
800.572	1.18212
802.268	1.21015
803.963	1.62144
805.658	1.44769
807.35	1.52
809.044	1.25361
810.738	1.70389
812.432	1.77093
814.125	1.56817
815.818	1.49971
817.51	1.56553
819.202	1.43023
820.894	1.60804
822.584	1.38461
824.275	1.54177
825.966	1.70096
827.657	1.3956
829.347	1.38412
831.037	1.71135
832.725	1.3524
834.414	1.35297
836.103	1.31041
837.792	1.31209
839.481	1.6023
841.167	1.30958
842.854	0.545548
844.542	1.34484
846.229	1.98913
847.914	0.847832
849.6	1.11863
851.287	0.453032
852.973	1.35809
854.656	1.70539
856.341	1.33431
858.026	1.27556
859.711	1.55172
861.393	1.35264
863.077	1.01572
864.761	1.7584
866.442	1.37299
868.125	1.16681
869.808	1.23052
871.489	1.54193
873.171	1.0861
874.85	1.98388
876.532	1.52794
878.213	1.04934
879.892	1.69912
881.572	1.28744
883.251	0.716588
884.931	1.0245
886.61	0.946541
888.287	1.49798
889.966	1.16703
891.643	0.969428
893.321	1.28802
894.997	0.659344
896.675	0.502236
898.352	1.15235
900.028	0.543596
901.704	1.92891
903.379	1.11727
905.055	1.20125
906.729	0.303424
908.404	1.45962
910.077	1.05588
911.75	0.320712
913.425	-0.100858
915.097	0.788866
916.771	0.789715
918.443	0.85699
920.116	0.835765
921.787	1.0146
923.46	0.951784
925.13	0.273121
926.8	1.25386
928.472	1.06666
930.141	0.109137
931.813	1.05039
933.481	0.293181
935.15	1.14663
936.82	0.765519
938.488	1.06952
940.156	1.48574
941.825	0.734809
943.492	0.646626
945.158	1.79414
946.827	0.247129
948.493	0.595589
950.158	1.05146
951.824	0.44632
953.491	0.547513
955.156	0.54088
956.82	0.604651
958.486	-0.495798
960.15	0.702276
961.814	-0.260549
963.477	0.256043
965.142	0.682257
966.804	0.595864
968.467	0.416718
970.129	-0.340689
971.79	-0.258486
973.454	0.355202
975.115	0.572973
976.776	0.528166
978.436	0.352879
980.096	0.687428
981.756	1.02152
983.417	0.202429
985.077	0.642165
986.736	0.326142
988.394	0.0297871
990.052	1.61141
991.71	0.69313
993.368	-0.0917902
995.025	0.183907
996.682	-0.0479155
998.341	1.13158
999.998	0.832994
1001.65	1.04067
1003.31	0.741274
1004.97	0.595754
1006.62	0.494251
1008.28	0.0417795
1009.93	0.0512762
1011.58	0.214941
1013.24	-0.0372791
1014.89	0.850348
1016.54	-0.0573969
1018.2	-0.0225668
1019.85	0.778934
1021.5	-0.0363789
1023.16	0.199615
1024.81	0.262139
1026.46	1.00293
1028.11	1.08808
1029.76	1.78386
1031.41	1.73476
1033.06	1.20282
1034.71	1.51967
1036.36	1.6377
1038.01	0.708668
1039.66	1.34822
1041.31	1.13966
1042.95	1.71605
1044.6	1.09978
1046.25	1.52965
1047.9	1.48466
1049.54	1.00798
1051.19	0.533216
1052.84	0.928539
1054.48	0.542333
1056.13	1.35137
1057.77	2.1168
1059.42	0.990097
1061.06	1.38422
1062.71	1.71189
1064.35	2.14674
1066	0.231905
1067.64	1.46759
1069.28	0.65878
1070.93	1.19602
1072.57	1.53728
1074.21	0.51218
1075.85	0.725808
1077.49	0.876376
1079.13	1.07223
1080.78	1.11747
1082.42	0.88075
1084.06	0.794406
1085.7	0.748896
1087.34	1.45855
1088.97	0.691736
1090.61	0.658922
1092.25	0.775682
1093.89	1.04267
1095.53	0.683848
1097.17	0.327032
1098.8	0.834486
1100.44	1.06422
1102.08	0.414577
1103.71	0.757668
1105.35	0.844547
1106.99	0.738706
1108.62	1.44956
1110.26	0.975845
1111.89	0.800809
1113.52	0.730812
1115.16	1.53911
1116.79	1.22994
1118.43	1.22155
1120.06	0.721584
1121.69	0.930383
1123.32	1.2691
1124.96	1.33102
1126.59	1.30877
1128.22	1.35196
1129.85	1.03283
1131.48	0.629185
1133.11	0.781866
1134.75	0.977056
1136.37	0.658226
1138	0.466084
1139.63	0.891625
1141.26	0.632081
1142.89	0.585427
1144.52	0.496436
1146.15	-0.039031
1147.78	0.748639
1149.4	-0.145884
1151.03	0.962934
1152.66	1.11296
1154.28	0.623672
1155.91	0.0489416
1157.54	0.580735
1159.16	-0.376012
1160.79	-0.1189
1162.41	0.309915
1164.04	-0.0677319
1165.66	0.469632
1167.29	0.156073
1168.91	0.244827
1170.53	-0.370419
1172.16	-0.15955
1173.78	0.366927
1175.4	-0.297183
1177.02	0.0777035
1178.65	-0.0559816
1180.27	-0.273047
1181.89	0.378797
1183.51	0.438929
1185.13	0.562374
1186.75	-0.519384
1188.37	-0.547055
1189.99	0.160132
1191.61	0.947099
1193.23	-0.477661
1194.85	-0.724051
1196.47	0.43496
1198.08	0.398972
1199.7	0.512207
1201.32	0.106573
1202.94	0.331997
1204.55	-0.169298
1206.17	-0.583658
1207.79	-0.349298
1209.4	0.323416
1211.02	0.681799
1212.63	0.161685
1214.25	0.326304
1215.86	0.653893
1217.48	0.562169
1219.09	0.94705
1220.71	0.915867
1222.32	0.885881
1223.93	0.816506
1225.54	1.43285
1227.16	1.34732
1228.77	0.20929
1230.38	1.10027
1231.99	0.40099
1233.6	1.58459
1235.22	1.61264
1236.83	1.78732
1238.44	0.97136
1240.05	1.93443
1241.66	1.36764
1243.26	1.48273
1244.87	0.789654
1246.48	1.48132
1248.09	1.21956
1249.7	1.41186
1251.31	1.91398
1252.92	1.85788
1254.52	1.41001
1256.13	1.23275
1257.74	1.92626
1259.34	2.41501
1260.95	2.2017
1262.55	2.13393
1264.16	2.1697
1265.76	2.01828
1267.37	1.6583
1268.97	1.98082
1270.58	2.21881
1272.18	2.49656
1273.78	1.69452
1275.39	1.8239
1276.99	1.03998
1278.59	2.14031
1280.2	2.53481
1281.8	2.14206
1283.4	2.99107
1285	3.15794
1286.6	2.85077
1288.2	2.46285
1289.8	2.53119
1291.4	3.69547
1293	2.91716
1294.6	3.4392
1296.2	3.19462
1297.8	3.03006
1299.4	3.19293
1301	2.98196
1302.6	3.09881
1304.19	3.56369
1305.79	3.63583
1307.39	3.04979
1308.99	1.89013
1310.58	3.31496
1312.18	3.16124
1313.77	3.05003
1315.37	2.12341
1316.96	2.7515
1318.56	2.42065
1320.15	3.08895
1321.75	3.18427
1323.34	2.74775
1324.94	3.10194
1326.53	2.9252
1328.12	2.16018
1329.72	2.51165
1331.31	2.01556
1332.9	2.43324
1334.49	1.76361
1336.08	2.32821
1337.67	1.96527
1339.27	2.16597
1340.86	2.30327
1342.45	1.91374
1344.04	2.64746
1345.63	2.33389
1347.22	2.1217
1348.8	2.03292
1350.39	1.94821
1351.98	1.82762
1353.57	1.37045
1355.16	2.15473
1356.75	1.82013
1358.33	2.16417
1359.92	1.94736
1361.51	1.5095
1363.09	2.16792
1364.68	2.58582
1366.27	1.52934
1367.85	1.7099
1369.44	1.71306
1371.02	2.15624
1372.61	1.30806
1374.19	1.91422
1375.77	1.66579
1377.36	1.43732
1378.94	2.38207
1380.52	1.97205
1382.11	1.38107
1383.69	1.92189
1385.27	1.4868
1386.85	2.48184
1388.43	2.04649
1390.02	2.10882
1391.6	1.27962
1393.18	1.95973
1394.76	0.676594
1396.34	2.54645
1397.92	2.33274
1399.5	1.89961
1401.08	2.61402
1402.65	1.86203
1404.23	2.1989
1405.81	2.57582
1407.39	2.10391
1408.97	2.22645
1410.54	2.6262
1412.12	2.15678
1413.7	2.49598
1415.27	2.43881
1416.85	1.55212
1418.43	1.63155
1420	2.4009
1421.58	1.97018
1423.15	2.52648
1424.73	2.71124
1426.3	3.07512
1427.87	3.28239
1429.45	4.0009
1431.02	4.56029
1432.6	4.72389
1434.17	5.02341
1435.74	4.83032
1437.31	5.69941
1438.89	6.39256
1440.46	6.28162
1442.03	5.62224
1443.6	5.94683
1445.17	5.52528
1446.74	5.92955
1448.31	5.1154
1449.88	4.59652
1451.45	4.94348
1453.02	5.27184
1454.59	5.75835
1456.16	4.7299
1457.72	5.41194
1459.29	4.67475
1460.86	4.93809
1462.43	3.87986
1463.99	4.3731
1465.56	3.11478
1467.13	3.64479
1468.69	3.21286
1470.26	3.23419
1471.83	3.12005
1473.39	3.18423
1474.95	2.48487
1476.52	1.80596
1478.08	1.6959
1479.65	2.19341
1481.21	1.92623
1482.78	2.26649
1484.34	1.37201
1485.9	2.00525
1487.47	1.38355
1489.03	1.85649
1490.59	1.32821
1492.15	1.50113
1493.71	1.47509
1495.27	1.23183
1496.84	1.611
1498.39	0.860348
1499.96	1.20071
1501.52	1.2313
1503.07	1.06969
1504.64	0.754671
1506.19	1.02126
1507.75	1.36372
1509.31	0.197144
1510.87	0.883781
1512.43	0.854486
1513.98	0.613028
1515.54	0.641563
1517.1	0.978056
1518.65	0.720493
1520.21	0.368608
1521.77	0.610867
1523.32	0.374262
1524.88	0.557015
1526.44	1.25259
1527.99	0.459872
1529.54	0.391032
1531.1	1.11978
1532.65	0.804524
1534.21	1.49498
1535.76	0.312951
1537.31	0.62743
1538.87	1.24422
1540.42	0.351898
1541.97	0.422108
1543.52	0.793121
1545.07	1.0127
1546.63	1.1376
1548.18	0.642854
1549.73	1.12367
1551.28	1.30421
1552.83	1.20461
1554.38	1.05055
1555.93	1.21627
1557.48	1.30976
1559.03	1.10754
1560.57	0.945512
1562.12	0.804471
1563.67	1.15003
1565.22	1.30988
1566.77	0.592762
1568.31	1.55487
1569.86	1.13531
1571.41	0.976442
1572.95	1.50783
1574.5	1.31098
1576.05	1.24485
1577.59	1.51503
1579.14	1.37511
1580.68	1.62819
1582.23	1.69575
1583.77	1.57777
1585.31	1.87193
1586.86	1.77442
1588.4	1.69567
1589.95	1.99075
1591.49	1.77994
1593.03	1.10013
1594.57	1.50587
1596.11	2.39906
1597.66	2.58124
1599.2	2.53959
1600.74	2.29262
1602.28	2.25253
1603.82	1.83673
1605.36	2.17094
1606.9	2.59723
1608.44	1.61093
1609.98	1.86159
1611.52	1.90201
1613.06	2.01457
1614.6	2.23769
1616.13	1.37212
1617.67	2.00784
1619.21	2.4573
1620.75	1.59776
1622.28	1.4709
1623.82	1.98175
1625.36	1.51906
1626.89	1.65421
1628.43	1.61897
1629.96	1.63781
1631.5	1.74854
1633.04	1.74651
1634.57	2.17428
1636.11	1.94983
1637.64	2.21184
1639.17	2.1949
1640.71	1.69342
1642.24	1.60118
1643.77	2.28941
1645.31	2.58424
1646.84	2.11489
1648.37	1.96166
1649.9	2.7562
1651.43	3.16156
1652.96	2.0476
1654.5	2.86442
1656.03	2.16179
1657.56	2.9973
1659.09	2.34923
1660.62	2.99554
1662.15	2.65833
1663.67	2.56015
1665.2	1.63017
1666.73	2.93521
1668.26	2.2115
1669.79	1.63836
1671.32	2.02598
1672.84	1.71501
1674.37	1.4969
1675.9	2.43832
1677.43	2.08963
1678.95	1.59239
1680.48	2.41782
1682	2.32243
1683.53	1.14334
1685.05	1.4522
1686.58	1.41276
1688.1	0.860826
1689.63	1.02444
1691.15	1.53607
1692.68	0.6199
1694.2	0.929996
1695.72	0.691071
1697.25	0.945337
1698.77	0.614467
1700.29	1.12282
1701.81	0.900254
1703.33	0.112227
1704.86	0.435375
1706.38	0.939295
1707.9	0.860229
1709.42	0.781179
1710.94	0.593495
1712.46	0.859649
1713.98	1.3611
1715.5	1.49975
1717.02	1.34867
1718.54	0.149441
1720.06	0.143847
1721.57	0.210668
1723.09	0.638725
1724.61	0.220845
1726.13	0.20143
1727.64	0.777854
1729.16	0.833421
1730.68	1.45923
1732.19	0.473899
1733.71	1.00275
1735.23	0.482525
1736.74	1.49159
1738.26	0.874778
1739.77	0.537961
1741.29	0.746155
1742.8	0.317927
1744.31	0.786762
1745.83	0.073534
1747.34	0.45403
1748.85	0.299335
1750.37	-0.101932
1751.88	0.328425
1753.39	0.483571
1754.91	0.492092
1756.42	0.461389
1757.93	0.360097
1759.44	-0.113888
1760.95	-0.265585
1762.46	0.027854
1763.97	0.615111
1765.48	0.127793
1766.99	0.529902
1768.5	0.205984
1770.01	0.0298939
1771.52	0.170578
1773.03	0.0725517
1774.54	0.312946
1776.04	0.349234
1777.55	0.662144
1779.06	0.223626
1780.57	0.415325
1782.07	0.288862
1783.58	0.200985
1785.09	0.347371
1786.59	0.0578671
1788.1	0.0605574
1789.6	-0.0163479
1791.11	0.138515
1792.61	-0.159739
1794.12	-0.0491972
1795.62	-0.183644
1797.13	0.129361
1798.63	-0.0502863
1800.13	0.214824
1801.64	-0.000116348
1803.14	0.00618744
1804.64	0.182825
1806.15	0.31349
1807.65	-0.113251
1809.15	-0.103601
1810.65	-0.00333405
1812.15	0.112452
1813.65	-0.114724
1815.16	0.210102
1816.66	-0.0198126
1818.15	0.1212
1819.66	-0.0738163
1821.16	-0.0536232
1822.65	-0.20143
1824.15	0.0865135
1825.65	0.163185
1827.15	-0.367591
1828.65	-0.262542
1830.15	0.0539398
1831.64	0.35156
1833.14	0.394659
1834.64	0.0368662
1836.14	0.146591
1837.63	0.0175848
1839.13	0.117894
1840.62	0.436528
1842.12	-0.131483
1843.62	-0.0706806
1845.11	0.0402794
1846.61	0.115793
1848.1	-0.0656891
1849.6	0.284626
1851.09	-0.126588
1852.58	-0.252905
1854.08	-0.298315
1855.57	0.057744
1857.06	0.0101337
1858.55	0.219991
1860.05	-0.33154
1861.54	0.0856762
1863.03	0.179214
1864.52	0.201461
1866.01	-0.154553
1867.5	-0.254218
1869	0.456923
1870.49	-0.289129
1871.98	-0.0432205
1873.47	0.525805
1874.96	0.251132
1876.44	0.44965
1877.93	0.0822077
1879.42	-0.23973
1880.91	0.196582
1882.4	-0.0716772
1882.47	-0.0853615
1883.96	0.263642
1885.46	-0.137883
1886.95	0.104347
1888.44	0.0149288
1889.94	0.204166
1891.43	0.203074
1892.93	0.377773
1894.42	0.206945
1895.91	0.38576
1897.4	0.496137
1898.89	-0.2285
1900.39	-0.13687
1901.88	0.161613
1903.37	-0.394318
1904.86	-0.0302219
1906.35	0.488916
1907.84	0.104434
1909.33	0.085535
1910.82	0.345385
1912.31	0.207209
1913.8	0.659478
1915.29	-0.4316
1916.77	-0.395726
1918.26	0.19414
1919.75	0.263298
1921.24	0.176378
1922.73	0.176556
1924.21	0.420143
1925.7	0.266894
1927.19	0.357327
1928.67	0.362017
1930.16	0.366694
1931.64	0.249196
1933.13	0.614798
1934.61	0.458734
1936.1	-0.0799274
1937.58	0.590914
1939.07	0.1717
1940.55	0.444058
1942.04	0.0785713
1943.52	-0.181798
1945	0.662698
1946.49	0.352118
1947.97	-0.113627
1949.45	0.367574
1950.93	0.365018
1952.42	0.481769
1953.9	0.0645685
1955.38	0.19769
1956.86	0.0219707
1958.34	-0.0669212
1959.82	-0.292094
1961.3	-0.327801
1962.78	0.339516
1964.26	0.252216
1965.74	-0.0753555
1967.22	0.315454
1968.7	-0.184458
1970.18	0.529193
1971.65	-0.0395517
1973.13	-0.0955133
1974.61	-0.253627
1976.09	0.40681
1977.57	0.48744
1979.04	-0.265978
1980.52	-0.303992
1982	-0.0361795
1983.47	-0.142786
1984.95	0.41234
1986.42	0.304845
1987.9	-0.107573
1989.37	0.344658
1990.85	-0.286038
1992.32	-0.289091
1993.8	0.199272
1995.27	-0.224349
1996.75	-0.0896568
1998.22	-0.00574017
1999.69	-0.41196
2001.17	0.582083
2002.64	-0.280752
2004.11	-0.131415
2005.58	0.220342
2007.05	0.437913
2008.53	0.504937
2010	0.337294
2011.47	0.103026
2012.94	-0.114268
2014.41	0.357996
2015.88	0.290766
2017.35	-0.349339
2018.82	-0.149332
2020.29	-0.134991
2021.76	0.265403
2023.23	0.330052
2024.7	0.0599985
2026.16	-0.0575323
2027.63	0.447209
2029.1	0.299586
2030.57	-0.0142231
2032.03	0.277076
2033.5	-0.0519524
2034.97	0.559202
2036.44	-0.123171
2037.9	0.554482
2039.37	-0.398268
2040.83	-0.0235147
2042.3	-0.203037
2043.76	0.206861
2045.23	0.264773
2046.69	0.0542679
2048.16	-0.223459
2049.62	-0.0467739
2051.08	-0.0565405
2052.55	0.252354
2054.01	0.019495
2055.47	0.830106
2056.94	-0.215715
2058.4	0.187428
2059.86	0.539488
2061.32	0.251917
2062.79	-0.101847
2064.25	-0.168192
2065.71	0.305148
2067.17	0.341923
2068.63	0.73287
2070.09	0.568822
2071.55	0.135442
2073.01	0.509991
2074.47	0.076025
2075.93	0.113132
2077.39	0.486617
2078.85	0.000787735
2080.31	0.743706
2081.76	0.340911
2083.22	0.375123
2084.68	0.256979
2086.13	0.339902
2087.59	-0.183295
2089.05	0.402708
2090.51	0.668723
2091.96	0.363555
2093.42	0.00826931
2094.87	0.223276
2096.33	0.63859
2097.78	0.516599
2099.24	0.661799
2100.69	0.555516
2102.15	0.0820103
2103.6	0.678843
2105.06	0.675672
2106.51	0.123649
2107.96	0.623999
2109.42	0.657651
2110.87	0.357274
2112.32	0.605469
2113.77	0.335129
2115.23	-0.202969
2116.68	0.0900431
2118.13	-0.364614
2119.58	0.842716
2121.03	0.823219
2122.48	0.656844
2123.93	0.840548
2125.38	1.07479
2126.83	0.695259
2128.28	0.99431
2129.73	0.860685
2131.18	-0.0362759
2132.63	0.755187
2134.08	0.0898657
2135.53	0.930779
2136.97	0.566108
2138.42	1.01355
2139.87	0.868275
2141.32	0.857181
2142.76	0.963272
2144.21	0.425073
2145.66	0.978906
2147.1	0.589124
2148.55	1.20864
2150	0.982577
2151.44	1.36828
2152.89	1.10663
2154.33	0.711426
2155.78	0.845867
2157.22	1.26195
2158.66	1.215
2160.11	0.887997
2161.55	1.64002
2163	1.51624
2164.44	1.24491
2165.88	1.2399
2167.32	1.33451
2168.77	1.11215
2170.21	1.26999
2171.65	1.55849
2173.09	1.24575
2174.53	1.14759
2175.97	1.38133
2177.41	1.54868
2178.85	1.76677
2180.29	1.86969
2181.73	1.67444
2183.17	1.1473
2184.61	1.50187
2186.05	1.47405
2187.49	1.4296
2188.93	1.61817
2190.37	0.82472
2191.81	1.3459
2193.24	1.31689
2194.68	1.4861
2196.12	0.704262
2197.56	1.33489
2198.99	1.49715
2200.43	1.05971
2201.87	0.855144
2203.3	0.933649
2204.74	1.27864
2206.17	1.02789
2207.61	0.927122
2209.04	0.925617
2210.48	1.22114
2211.91	1.23392
2213.35	0.782914
2214.78	0.596649
2216.21	0.9065
2217.65	0.458405
2219.08	0.754254
2220.51	0.73769
2221.95	0.836695
2223.38	1.11606
2224.81	0.800728
2226.24	0.730586
2227.67	0.510625
2229.1	0.388111
2230.54	0.822732
2231.97	0.780872
2233.4	0.772147
2234.83	0.404572
2236.26	0.545488
2237.69	0.410473
2239.11	0.620439
2240.54	0.653153
2241.97	0.573815
2243.4	0.36549
2244.83	0.0271044
2246.26	0.356777
2247.69	-0.0492506
2249.11	0.194676
2250.54	0.549869
2251.97	0.121134
2253.4	0.684163
2254.82	-0.0533419
2256.25	0.0561495
2257.67	-0.0104036
2259.1	0.0560188
2260.53	0.49888
2261.95	0.117013
2263.38	-0.133457
2264.8	0.119933
2266.23	0.633407
2267.65	0.479511
2269.07	0.61735
2270.5	-0.1573
2271.92	-0.0373812
2273.34	0.473248
2274.77	0.283731
2276.19	-0.0848885
2277.61	0.00284958
2279.03	0.416759
2280.46	0.129635
2281.88	0.184754
2283.3	0.35399
2284.72	-0.113079
2286.14	0.317599
2287.56	0.259102
2288.98	0.184728
2290.4	0.355865
2291.82	0.16783
2293.24	0.764769
2294.66	0.00422192
2296.08	0.323231
2297.5	0.445937
2298.92	0.323061
2300.34	0.24945
2301.76	0.077714
2303.17	0.185013
2304.59	0.161287
2306.01	0.203152
2307.43	0.573292
2308.84	-0.0924578
2310.26	0.0299196
2311.68	0.447995
2313.09	0.109385
2314.51	-0.44299
2315.92	-0.204638
2317.34	0.39724
2318.75	-0.104153
2320.17	0.0533991
2321.58	0.539908
2323	0.0838366
2324.41	0.400731
2325.82	0.58291
2327.24	0.218754
2328.65	0.216646
2330.06	0.494725
2331.48	-0.115528
2332.89	-0.427824
2334.3	-0.228931
2335.71	0.184023
2337.12	0.300261
2338.54	-0.0285616
2339.95	0.167451
2341.36	-0.196199
2342.77	0.359051
2344.18	0.552695
2345.59	0.500545
2347	0.26862
2348.41	-0.175781
2349.82	0.263345
2351.23	0.243276
2352.64	-0.153538
2354.04	0.314124
2355.45	0.356236
2356.86	0.365278
2358.27	0.000142097
2359.68	0.1721
2361.08	0.684644
2362.49	0.531328
2363.9	0.345817
2365.3	-0.227654
2366.71	-0.0562792
2368.12	-0.336695
2369.52	0.320142
2370.93	-0.505603
2372.33	0.0244341
2373.74	-0.00855637
2375.14	0.296965
2376.55	0.10305
2377.95	-0.316975
2379.36	-0.0953798
2380.76	0.573479
2382.16	0.325269
2383.57	0.0925665
2384.97	-0.0438986
2386.37	0.115965
2387.78	0.276446
2389.18	0.11108
2390.58	0.425375
2391.98	0.247019
2393.38	0.340542
2394.79	-0.201245
2396.19	-0.0899706
2397.59	-0.423087
2398.99	0.118502
2400.39	0.422115
2401.79	0.455967
2403.19	0.219877
2404.59	0.380417
2405.99	0.428787
2407.39	-0.380808
2408.78	0.0940809
2410.18	-0.14523
2411.58	-0.130594
2412.98	0.439175
2414.38	0.265878
2415.77	0.315945
2417.17	-0.21823
2418.57	-0.323992
2419.97	-0.0967979
2421.36	-0.0597239
2422.76	0.293827
2424.15	-0.160935
2425.55	0.366707
2426.95	-0.13512
2428.34	-0.0655355
2429.74	0.607798
2431.13	-0.161356
2432.52	-0.169086
2433.92	0.0290861
2435.31	0.0673132
2436.71	0.231008
2438.1	0.504183
2439.49	-0.00259495
2440.89	0.17267
2442.28	0.299555
2443.67	0.0292892
2445.06	-0.145801
2446.46	0.487659
2447.85	0.0744534
2449.24	0.120955
2450.63	0.880158
2452.02	-0.0700235
2453.41	0.468636
2454.8	0.311933
2456.19	-0.160312
2457.58	-0.0626822
2458.97	0.525088
2460.36	0.194828
2461.75	-0.31014
2463.14	-0.373141
2464.53	0.195229
2465.92	-0.0426588
2467.31	0.0668163
2468.69	0.144561
2470.08	0.253544
2471.47	0.0781679
2472.86	0.280302
2474.24	0.418316
2475.63	-0.388471
2477.02	0.440228
2478.4	0.246673
2479.79	0.430208
2481.17	0.190275
2482.56	0.15432
2483.94	0.290103
2485.33	0.143111
2486.72	0.0576334
2488.1	0.127151
2489.48	0.304718
2490.87	0.434919
2492.25	-0.196375
2493.64	-0.343693
2495.02	0.0226316
2496.4	0.141689
2497.79	-0.156673
2499.17	0.195789
2500.55	0.299913
2501.93	-0.307956
2503.31	0.442978
2504.69	0.127046
2506.08	0.350347
2507.46	0.00336075
2508.84	0.379838
2510.22	0.448804
2511.6	0.303548
2512.98	-0.162473
2514.36	0.0777893
2515.74	0.686009
2517.12	0.330629
2518.5	0.0985861
2519.88	0.600476
2521.25	-0.0897579
2522.63	-0.0167379
2524.01	0.57384
2525.39	0.309187
2526.77	0.0446157
2528.14	-0.112615
2529.52	0.142098
2530.9	0.215877
2532.27	0.124347
2533.65	-0.11755
2535.03	-0.252263
2536.4	-0.23508
2537.78	-0.294559
2539.15	0.222074
2540.53	-0.0216675
2541.9	-0.250513
2543.28	-0.26654
2544.65	0.158221
2546.03	-0.0831871
2547.4	0.283493
2548.77	0.256764
2550.15	0.321191
2551.52	0.46098
2552.89	0.220312
2554.27	0.388191
2555.64	-0.0519228
2557.01	0.220406
2558.38	0.143638
2559.75	0.021698
2561.12	0.248976
2562.5	0.0374079
2563.87	0.0538235
2565.24	0.419248
2566.61	0.0575495
2567.98	0.393047
2569.35	0.395144
2570.72	0.291116
2572.09	0.429627
2573.46	0.0376816
2574.83	0.434072
2576.19	0.224111
2577.56	0.180802
2578.93	0.622437
2580.3	0.563289
2581.67	0.397501
2583.04	0.24644
2584.4	0.292187
2585.77	0.140779
2587.14	0.535151
2588.5	0.308281
2589.87	-0.0548334
2591.23	0.248714
2592.6	0.703187
2593.97	0.232487
2595.33	0.639183
2596.7	0.242072
2598.06	0.252879
2599.43	0.505102
2600.79	0.273581
2602.15	-0.440422
2603.52	0.0998907
2604.88	0.112235
2606.25	0.064455
2607.61	0.272688
2608.97	0.344137
2610.33	0.248422
2611.7	0.256659
2613.06	0.0379543
2614.42	-0.151189
2615.78	0.605098
2617.15	-0.0191031
2618.51	-0.0573473
2619.87	-0.349076
2621.23	0.466937
2622.59	0.535256
2623.95	0.320023
2625.31	0.492998
2626.67	0.0391073
2628.03	0.181525
2629.39	0.189347
2630.75	-0.0709248
2632.1	-0.00386715
2633.46	-0.263791
2634.82	-0.434299
2636.18	0.448375
2637.54	-0.107811
2638.89	0.343777
2640.25	0.543279
2641.61	0.254891
2642.97	0.380882
2644.32	-0.054121
2645.68	0.278533
2647.03	0.0500488
2648.39	0.233562
2649.75	0.0478935
2651.1	0.273413
2652.46	0.160283
2653.81	-0.0404444
2655.17	0.0531607
2656.52	0.221037
2657.88	0.258248
2659.23	0.150153
2660.58	0.232724
2661.94	0.183518
2663.29	0.26514
2664.64	0.783604
2666	-0.216515
2667.35	0.664378
2668.7	0.189435
2670.05	0.137489
2671.4	0.391525
2672.76	0.500627
2674.11	0.37796
2675.46	0.198025
2676.81	-0.0101357
2678.16	0.000130653
2679.51	0.272297
2680.86	0.66152
2682.21	0.414186
2683.56	0.298692
2684.91	0.0827217
2686.26	0.360493
2687.61	0.348017
2688.96	0.24707
2690.3	0.419991
2691.65	0.213348
2693	0.599878
2694.35	0.535314
2695.7	0.166192
2697.04	0.797629
2698.39	0.315031
2699.74	0.500627
2701.08	0.326251
2702.43	0.631551
2703.77	-0.0325375
2705.12	0.709625
2706.47	0.466271
2707.81	0.570636
2709.16	0.195548
2710.5	1.05407
2711.85	0.416595
2713.19	0.258054
2714.53	0.782491
2715.88	0.580167
2717.22	0.23211
2718.57	0.494567
2719.91	0.974969
2721.25	0.610892
2722.59	0.886538
2723.94	0.826847
2725.28	0.66472
2726.62	0.691338
2727.96	0.382816
2729.3	0.77256
2730.65	0.652751
2731.99	0.620205
2733.33	0.704126
2734.67	0.424592
2736.01	0.348949
2737.35	0.607982
2738.69	0.517921
2740.03	0.122199
2741.37	0.293077
2742.71	0.0706348
2744.05	0.501478
2745.38	0.437332
2746.72	0.212969
2748.06	0.119185
2749.4	0.562355
2750.74	0.280207
2752.07	0.361016
2753.41	0.224638
2754.75	0.0160971
2756.09	0.300285
2757.42	-0.0091877
2758.76	0.0436792
2760.09	-0.091198
2761.43	0.0349874
2762.77	0.161684
2764.1	0.317677
2765.44	0.0830069
2766.77	0.0937977
2768.11	-0.229135
2769.44	-0.177382
2770.77	-0.112873
2772.11	0.108856
2773.44	-0.219305
2774.77	0.187701
2776.11	-0.111904
2777.44	0.380964
2778.77	0.240928
2780.11	0.10171
2781.44	0.135384
2782.77	0.169127
2784.1	0.188409
2785.43	-0.00736046
2786.77	-0.403212
2788.1	0.332829
2789.43	-0.21871
2790.76	0.117996
2792.09	0.112242
2793.42	0.0641584
2794.75	0.0733299
2796.08	-0.260799
2797.41	-0.138267
2798.74	0.183431
2800.07	0.147538
2801.4	0.111366
2802.72	0.203324
2804.05	0.209383
2805.38	0.172196
2806.71	0.0631733
2808.04	0.23802
2809.36	0.0283537
2810.69	-0.152581
2812.02	-0.0629539
2813.34	0.226416
2814.67	0.176961
2816	0.299356
2817.32	0.309693
2818.65	0.44833
2819.97	0.374409
2821.3	0.214943
2822.62	0.692423
2823.95	0.333045
2825.27	0.440843
2826.6	0.647757
2827.92	0.444618
2829.25	0.794346
2830.57	0.649154
2831.89	1.1271
2833.22	1.26526
2834.54	1.64363
2835.86	2.06374
2837.18	2.39811
2838.51	3.02878
2839.83	3.74367
2841.15	4.41591
2842.47	5.0037
2843.79	5.8609
2845.11	5.81472
2846.43	7.08397
2847.76	7.70388
2849.08	7.3911
2850.4	7.96825
2851.72	7.90847
2853.04	7.52269
2854.36	7.56023
2855.67	7.62568
2856.99	7.26728
2858.31	7.48821
2859.63	8.0339
2860.95	8.09904
2862.27	7.71185
2863.58	8.62268
2864.9	8.58719
2866.22	8.52346
2867.54	8.75639
2868.85	9.51175
2870.17	9.15393
2871.49	9.57184
2872.8	9.96098
2874.12	10.6727
2875.43	10.4664
2876.75	11.4549
2878.07	11.4135
2879.38	11.0622
2880.7	11.6677
2882.01	11.066
2883.32	11.3797
2884.64	10.8247
2885.95	10.6502
2887.27	11.0655
2888.58	10.5818
2889.89	10.5738
2891.21	10.9008
2892.52	11.4366
2893.83	10.8648
2895.14	10.8124
2896.46	11.3074
2897.77	11.2445
2899.08	11.2255
2900.39	10.9004
2901.7	11.3457
2903.01	11.2598
2904.32	11.5099
2905.63	11.8585
2906.94	12.1663
2908.25	12.0699
2909.56	11.6254
2910.87	12.1895
2912.18	12.264
2913.49	12.3231
2914.8	12.5758
2916.11	12.3353
2917.42	12.4978
2918.72	13.6099
2920.03	13.4061
2921.34	13.008
2922.65	13.1436
2923.95	13.6313
2925.26	14.205
2926.57	13.6758
2927.88	13.9574
2929.18	13.7911
2930.49	13.3862
2931.79	13.931
2933.1	14.2098
2934.4	14.0132
2935.71	13.0064
2937.01	14.1243
2938.32	13.3699
2939.62	12.658
2940.93	12.0449
2942.23	12.0203
2943.54	11.9419
2944.84	11.3486
2946.14	10.813
2947.45	10.46
2948.75	9.79854
2950.05	9.44292
2951.35	9.57452
2952.66	9.00302
2953.96	9.07345
2955.26	9.04528
2956.56	8.86453
2957.86	8.37909
2959.16	7.85572
2960.46	8.26079
2961.77	7.95474
2963.07	7.50933
2964.37	7.39955
2965.66	6.80996
2966.96	7.11689
2968.26	6.56457
2969.56	6.62958
2970.86	6.70857
2972.16	6.46453
2973.46	5.96768
2974.76	5.72405
2976.06	5.40913
2977.35	5.10653
2978.65	5.60421
2979.95	4.86057
2981.25	3.90453
2982.54	4.41135
2983.84	3.3858
2985.14	3.78201
2986.43	3.54778
2987.73	3.76531
2989.02	3.21144
2990.32	3.31855
2991.62	2.5538
2992.91	2.35005
2994.21	2.13084
2995.5	2.17733
2996.8	2.26509
2998.09	1.93159
2999.38	1.78115
3000.68	2.12237
3001.97	1.67929
3003.26	1.22314
3004.56	1.56603
3005.85	0.788223
3007.14	1.17228
3008.43	1.07943
3009.73	1.2654
3011.02	0.793614
3012.31	0.461775
3013.6	0.535151
3014.89	0.441751
3016.19	0.307661
3017.48	0.244382
3018.77	0.293261
3020.06	0.0781336
3021.35	0.349403
3022.64	-0.00548458
3023.93	0.249846
3025.22	0.573322
3026.5	0.18967
3027.79	0.167225
3029.08	0.298335
3030.37	-0.1215
3031.66	-0.0694723
3032.95	0.135782
3034.24	-0.0587492
3035.52	-0.184514
3036.81	-0.0907831
3038.1	0.249028
3039.39	-0.184444
3040.67	0.192479
3041.96	-0.434459
3043.25	-0.387903
3044.53	0.494621
3045.82	0.160225
3047.1	-0.211782
3048.39	0.1841
3049.67	0.0636415
3050.96	0.24551
3052.24	0.33299
3053.53	0.134204
3054.81	0.357905
3056.1	0.0622644
3057.38	0.133924
3058.67	0.341097
3059.95	-0.173745
3061.23	0.38767
3062.52	0.256157
3063.8	-0.0638428
3065.08	0.406722
3066.36	0.212924
3067.65	0.306038
3068.93	-0.307289
3070.21	0.0992565
3071.49	0.16517
3072.77	-0.00118637
3074.05	-0.114161
3075.33	-0.0240107
3076.61	0.242475
3077.89	0.06145
3079.17	-0.294379
3080.45	0.152188
3081.73	0.370065
3083.01	0.141932
3084.29	0.0233335
3085.57	0.0407677
3086.85	-0.430617
3088.13	0.0204964
3089.41	0.0232258
3090.68	0.188581
3091.96	0.299727
3093.24	0.0857506
3094.52	0.482725
3095.79	0.785255
3097.07	0.396724
3098.35	0.618478
3099.62	0.230542
3100.9	0.479701
3102.18	0.702009
3103.45	0.369724
3104.73	0.43101
3106	0.371576
3107.28	0.63825
3108.55	0.365041
3109.83	0.661736
3111.1	0.729794
3112.38	0.731343
3113.65	0.855651
3114.93	0.682135
3116.2	0.372725
3117.47	0.645823
3118.75	0.484085
3120.02	0.701327
3121.29	0.958499
3122.57	0.876397
3123.84	0.821595
3125.11	0.970513
3126.38	0.605812
3127.65	0.945943
3128.92	1.0163
3130.2	1.01979
3131.47	1.33464
3132.74	0.582119
3134.01	0.937763
3135.28	1.49545
3136.55	1.18879
3137.82	1.28691
3139.09	0.926905
3140.36	1.34842
3141.63	1.62175
3142.9	1.54607
3144.17	1.60576
3145.43	1.96155
3146.7	1.67462
3147.97	1.99214
3149.24	1.81492
