200.563	0.903343
202.377	0.928886
204.194	0.953491
206.008	0.323708
207.821	0.692039
209.634	0.767647
211.449	1.18118
213.262	1.49461
215.074	0.447378
216.885	0.685289
218.699	0.414791
220.51	0.36408
222.321	0.0012207
224.131	0.00351143
225.941	-0.0653019
227.751	1.77463
229.562	0.714983
231.371	0.0173531
233.18	0.453806
234.988	0.866833
236.796	0.246103
238.603	0.690817
240.411	0.948299
242.219	-0.0910816
244.026	0.849733
245.832	0.0535927
247.638	0.17112
249.443	1.27323
251.248	0.316513
253.053	1.0924
254.857	0.368567
256.661	0.271761
258.465	0.514442
260.268	-0.0342979
262.071	0.192219
263.874	-0.300371
265.678	0.823671
267.48	0.141388
269.282	0.374275
271.083	-0.623936
272.884	-0.394936
274.684	-0.699127
276.484	0.247007
278.284	0.345461
280.084	0.993605
281.883	0.0481777
283.682	0.158485
285.48	-0.454988
287.276	-0.180725
289.074	0.716532
290.871	0.200624
292.668	-0.455082
294.465	0.137266
296.261	0.277933
298.057	-0.296133
299.853	-0.319214
301.648	-0.175447
303.443	0.229113
305.237	0.702343
307.032	0.0045414
308.823	0.284479
310.617	0.0413284
312.41	-0.103699
314.203	0.659784
315.995	0.308084
317.788	-0.111216
319.579	0.06814
321.369	-0.441128
323.16	0.290897
324.951	0.905441
326.741	1.42553
328.531	-0.324051
330.321	0.696085
332.108	0.47094
333.897	0.74444
335.686	0.917725
337.474	1.10999
339.26	0.412453
341.048	0.764328
342.835	0.946928
344.622	-0.0174942
346.406	0.954582
348.192	-0.316853
349.978	0.275442
351.764	0.175367
353.547	-0.116795
355.332	-0.244034
357.116	0.365185
358.901	0.7803
360.682	-0.0935059
362.466	0.102789
364.249	1.20068
366.03	0.465944
367.812	0.0631008
369.594	0.489021
371.374	0.69902
373.155	-0.133915
374.936	0.333954
376.715	1.03697
378.495	0.56074
380.273	-0.2423
382.053	-0.0999756
383.832	0.0213337
385.609	0.709408
387.388	0.0366611
389.164	-0.445335
390.942	0.343199
392.72	0.0529976
394.495	0.42164
396.272	0.53277
398.047	1.37215
399.823	0.120844
401.597	0.0428562
403.372	1.39626
405.145	0.14089
406.92	0.434065
408.693	0.162354
410.467	0.476892
412.239	0.603643
414.012	0.308952
415.783	0.532042
417.556	0.334536
419.327	0.044466
421.099	0.247713
422.869	0.825985
424.64	-0.0292263
426.409	0.240351
428.18	0.155998
429.948	0.986052
431.718	0.196482
433.486	0.628103
435.253	-0.512012
437.022	1.04677
438.789	-0.470545
440.558	-0.606236
442.324	0.0513992
444.089	-0.140148
445.857	0.461044
447.622	1.08208
449.386	0.274693
451.153	0.753843
452.917	0.485916
454.682	-0.0610218
456.446	0.022068
458.208	0.197838
459.973	-0.0220795
461.735	0.503927
463.497	0.0566292
465.259	0.10276
467.022	0.66618
468.783	0.491812
470.544	0.553808
472.306	0.0585804
474.066	0.608793
475.825	1.22545
477.585	0.672806
479.346	0.0461998
481.104	-0.116533
482.862	0.117071
484.62	0.958796
486.38	0.104389
488.137	0.908762
489.894	0.83222
491.65	0.501053
493.407	0.778206
495.164	0.541773
496.92	0.0237122
498.675	0.956785
500.43	1.70287
502.184	0.805685
503.939	1.29095
505.694	0.71657
507.448	0.161949
509.201	0.944431
510.954	1.34728
512.706	2.26432
514.459	1.03663
516.21	1.75874
517.962	0.972609
519.715	1.36014
521.466	1.34619
523.216	1.40161
524.966	0.329901
526.716	0.174116
528.466	0.252964
530.215	0.495472
531.964	1.27542
533.712	0.601395
535.46	1.00151
537.208	0.299507
538.955	1.06644
540.703	1.05957
542.449	0.724844
544.196	1.36709
545.942	1.17126
547.688	0.18725
549.433	1.10679
551.178	0.704914
552.923	0.97504
554.667	1.03705
556.412	-0.377674
558.155	0.839899
559.899	0.697062
561.642	0.71682
563.385	1.42783
565.127	0.277401
566.867	0.00276756
568.609	0.0286064
570.35	0.33209
572.092	0.59252
573.832	0.581261
575.573	1.00982
577.313	0.0425205
579.053	0.179296
580.79	0.202961
582.529	0.134882
584.268	0.479326
586.006	0.706743
587.745	0.517384
589.482	0.785406
591.218	0.269133
592.955	1.13216
594.692	0.545382
596.428	-0.340385
598.164	-1.11121
599.898	-0.134348
601.634	0.012373
603.369	-0.188726
605.104	0.802519
606.836	-0.346876
608.57	-0.27969
610.304	0.131403
612.037	0.221985
613.769	0.314243
615.501	0.568281
617.234	0.478798
618.966	0.433954
620.696	-0.254194
622.427	0.359585
624.159	-0.0808296
625.887	-0.0636787
627.618	0.503714
629.348	0.869627
631.076	-0.0598755
632.806	-0.460114
634.535	0.0774765
636.262	-0.41284
637.99	0.804983
639.716	-0.425512
641.444	0.277281
643.172	-0.211239
644.897	0.254734
646.624	0.106499
648.348	0.417383
650.075	-0.355679
651.801	1.15205
653.524	0.123404
655.249	0.306488
656.972	0.358194
658.697	0.799528
660.419	-0.311003
662.143	-0.330833
663.865	0.0328274
665.588	0.871712
667.309	-0.0539646
669.032	0.459387
670.752	0.197002
672.474	0.236225
674.194	0.418226
675.915	0.375942
677.634	1.66708
679.355	1.05467
681.073	1.19741
682.793	0.0478668
684.511	0.779861
686.23	0.149403
687.947	0.229221
689.664	0.398867
691.382	0.0371056
693.098	0.664457
694.816	0.184467
696.531	0.600521
698.247	-0.321444
699.963	-0.0489159
701.678	-0.0320911
703.392	0.442314
705.108	0.133654
706.821	-0.106823
708.534	0.248352
710.249	0.418768
711.962	0.817039
713.674	0.344791
715.388	0.901201
717.099	0.155212
718.81	0.756536
720.523	-0.169794
722.234	0.158218
723.944	0.440243
725.654	0.516918
727.365	0.34293
729.075	-0.285452
730.784	0.469191
732.492	1.04037
734.202	1.63253
735.91	0.167044
737.618	0.71475
739.325	0.586195
741.034	0.820618
742.741	0.832148
744.447	0.891676
746.153	1.24681
747.859	1.19986
749.564	0.256203
751.271	0.0577316
752.976	-0.385382
754.681	0.951624
756.385	0.559692
758.088	-0.437181
759.792	0.888525
761.495	1.20381
763.2	0.505289
764.902	1.29543
766.604	0.954355
768.306	1.3549
770.008	1.25351
771.709	0.718019
773.41	0.609224
775.11	1.76577
776.811	1.09208
778.51	1.75531
780.21	2.06027
781.909	1.03301
783.608	1.72532
785.307	2.12115
787.005	2.10424
788.703	1.89923
790.401	1.30261
792.098	0.814024
793.795	0.797138
795.492	1.50162
797.188	1.84629
798.884	2.01397
800.58	1.26268
802.276	2.15747
803.971	1.00653
805.665	1.94669
807.36	2.03034
809.054	1.752
810.748	0.596272
812.441	2.19829
814.135	1.73534
815.826	1.698
817.518	1.43694
819.21	0.841272
820.902	1.00617
822.594	0.903923
824.285	2.49806
825.976	1.53097
827.665	2.48513
829.355	1.32941
831.045	1.49445
832.735	2.44556
834.424	1.66348
836.111	2.08713
837.8	1.32789
839.488	2.61959
841.177	1.49632
842.864	1.97822
844.55	1.47613
846.237	2.00363
847.924	2.80391
849.61	1.64177
851.295	2.23015
852.98	1.70317
854.666	1.87274
856.349	0.582052
858.034	1.28757
859.719	1.22555
861.403	1.20453
863.085	0.999725
864.769	1.94141
866.452	1.64177
868.133	1.36314
869.816	0.677437
871.498	0.374317
873.179	0.860352
874.86	1.21101
876.54	0.794542
878.221	0.806858
879.902	0.864105
881.58	1.23662
883.26	1.35921
884.938	2.42744
886.618	1.3706
888.297	1.55169
889.974	2.24771
891.653	1.51975
893.329	1.24021
895.007	1.29597
896.683	1.619
898.36	0.569342
900.035	1.1573
901.712	0.823582
903.387	1.36214
905.063	0.938017
906.737	2.01095
908.412	1.00957
910.085	-0.633232
911.76	0.33197
913.433	1.2079
915.107	1.12821
916.779	1.69208
918.452	1.34614
920.124	1.28902
921.797	0.193653
923.467	1.04778
925.138	0.822065
926.81	1.32932
928.48	0.802696
930.151	-0.00778961
931.82	1.5222
933.489	0.096323
935.16	1.16368
936.828	0.754189
938.496	0.986341
940.165	0.515499
941.833	0.731131
943.5	1.0588
945.168	0.503365
946.834	0.717743
948.5	0.994242
950.168	0.935368
951.834	0.300304
953.499	0.3276
955.163	0.402617
956.83	1.03519
958.494	0.263618
960.158	0.468666
961.821	0.942406
963.487	0.620625
965.15	0.471455
966.812	0.0727787
968.474	-0.0887585
970.138	-0.077774
971.8	0.196899
973.461	-0.058094
975.123	0.663277
976.783	-0.33621
978.446	0.790907
980.106	0.891113
981.766	0.990393
983.425	-0.51844
985.084	0.713366
986.743	0.479445
988.402	0.861143
990.06	0.13414
991.72	0.622002
993.378	-0.238249
995.035	-0.457109
996.692	-0.234207
998.349	0.429359
1000.01	0.430592
1001.66	1.55401
1003.32	1.7067
1004.97	0.385128
1006.63	0.16394
1008.28	0.558231
1009.94	-0.297989
1011.59	0.0978889
1013.25	0.253252
1014.9	0.256039
1016.55	-0.199917
1018.21	-0.369764
1019.86	0.402819
1021.51	0.958595
1023.16	0.445631
1024.81	0.415873
1026.47	0.91188
1028.12	0.424566
1029.77	1.05005
1031.42	0.864326
1033.07	0.478594
1034.72	1.2458
1036.37	1.31121
1038.02	1.52719
1039.67	1.6992
1041.31	2.28593
1042.96	1.46226
1044.61	1.73002
1046.26	1.76338
1047.91	1.54068
1049.55	2.10378
1051.2	2.3442
1052.84	1.8263
1054.49	1.89579
1056.14	2.40001
1057.78	1.90373
1059.43	2.8846
1061.07	2.60292
1062.72	2.34104
1064.36	1.85949
1066	1.96249
1067.65	1.84551
1069.29	2.31287
1070.93	2.03999
1072.58	1.22449
1074.22	2.16842
1075.86	1.83454
1077.5	1.02699
1079.14	1.04661
1080.78	1.80526
1082.42	1.37117
1084.06	1.06507
1085.7	1.29714
1087.34	0.895885
1088.98	1.00992
1090.62	1.66063
1092.26	1.72383
1093.9	2.1529
1095.54	1.74036
1097.17	0.748653
1098.81	0.838789
1100.45	0.588537
1102.09	1.87079
1103.72	0.488993
1105.36	2.14357
1106.99	1.92798
1108.63	1.15248
1110.27	1.62163
1111.9	0.625248
1113.53	0.528215
1115.17	0.729038
1116.8	1.9365
1118.43	0.870401
1120.07	1.04993
1121.7	0.482283
1123.33	2.0579
1124.97	2.24406
1126.6	2.64618
1128.23	2.9004
1129.86	2.1087
1131.49	0.997934
1133.12	0.443871
1134.75	1.79198
1136.38	1.15057
1138.01	2.04531
1139.64	1.52688
1141.27	1.81775
1142.9	1.36037
1144.53	1.28776
1146.16	0.72666
1147.78	-0.0448074
1149.41	-0.00421715
1151.04	0.0587387
1152.67	-0.495882
1154.29	0.588247
1155.92	1.30905
1157.54	-0.140923
1159.17	0.0486412
1160.8	0.495316
1162.42	0.540518
1164.05	0.417986
1165.67	0.190273
1167.29	-0.101889
1168.92	0.602703
1170.54	0.261614
1172.16	0.00127411
1173.79	0.119368
1175.41	-0.0624676
1177.03	-0.0543156
1178.65	-0.0456009
1180.28	-0.225735
1181.9	0.0618076
1183.52	0.0545597
1185.14	-0.248493
1186.76	0.0800743
1188.38	-0.080862
1190	0.681368
1191.62	-0.772863
1193.24	0.590374
1194.86	0.373594
1196.47	-0.597061
1198.09	-0.202036
1199.71	0.363392
1201.33	0.36908
1202.95	-0.161863
1204.56	0.670206
1206.18	0.0670204
1207.8	0.426638
1209.41	-0.318844
1211.03	0.164484
1212.64	0.455976
1214.26	0.97127
1215.87	0.897673
1217.49	0.591257
1219.1	0.865021
1220.71	0.951252
1222.33	0.541336
1223.94	1.25397
1225.55	0.706158
1227.16	0.741978
1228.78	0.594881
1230.39	1.07109
1232	1.59121
1233.61	0.336611
1235.22	0.614445
1236.83	1.34981
1238.44	1.96375
1240.05	1.85577
1241.66	1.12763
1243.27	1.5776
1244.88	1.61205
1246.49	1.51996
1248.1	2.12905
1249.71	1.6811
1251.32	1.56362
1252.92	1.57088
1254.53	1.68331
1256.14	2.06725
1257.74	1.50261
1259.35	1.91303
1260.96	2.11875
1262.56	1.31105
1264.17	2.26363
1265.77	1.51658
1267.38	2.86098
1268.98	2.37918
1270.59	1.99846
1272.19	2.07137
1273.79	1.93453
1275.4	2.27213
1277	2.79384
1278.6	2.7954
1280.21	2.58845
1281.81	3.02258
1283.41	3.16705
1285.01	2.87856
1286.61	3.04729
1288.21	3.75587
1289.81	3.12326
1291.41	5.15758
1293.01	5.00108
1294.61	5.11117
1296.21	5.34168
1297.81	4.72142
1299.41	4.63388
1301.01	4.41891
1302.6	4.40712
1304.2	4.37235
1305.8	3.84249
1307.4	4.48297
1308.99	3.87005
1310.59	3.21755
1312.19	4.43021
1313.78	2.75891
1315.38	4.2193
1316.97	2.69887
1318.57	3.73222
1320.16	3.01048
1321.76	3.83559
1323.35	3.37341
1324.94	4.16805
1326.54	3.63794
1328.13	3.75663
1329.72	3.61336
1331.32	4.10141
1332.91	3.05861
1334.5	3.093
1336.09	4.01906
1337.68	4.6025
1339.27	4.47802
1340.87	3.70486
1342.45	4.95996
1344.04	5.72503
1345.64	3.29373
1347.22	3.77621
1348.81	3.26045
1350.4	3.17197
1351.99	3.72982
1353.58	3.31255
1355.17	3.21845
1356.75	1.92632
1358.34	1.85238
1359.93	2.53506
1361.51	2.43625
1363.1	2.69465
1364.69	2.91212
1366.27	2.51237
1367.86	2.45357
1369.44	2.93519
1371.03	2.3851
1372.61	2.47523
1374.2	3.10525
1375.78	3.896
1377.37	3.43334
1378.95	2.90967
1380.53	2.06524
1382.11	3.247
1383.7	2.79433
1385.28	3.71113
1386.86	1.86458
1388.44	2.02579
1390.02	2.60528
1391.6	2.03562
1393.19	2.16243
1394.77	2.76601
1396.35	2.39721
1397.93	2.28459
1399.51	3.06131
1401.08	2.80522
1402.66	3.47833
1404.24	2.66701
1405.82	3.06396
1407.4	2.90925
1408.97	3.30991
1410.55	3.21771
1412.13	2.11835
1413.71	3.50538
1415.28	3.07388
1416.86	4.17892
1418.43	3.7643
1420.01	2.76009
1421.59	3.43312
1423.16	4.20799
1424.73	3.96317
1426.31	4.66622
1427.88	5.31151
1429.46	4.77505
1431.03	5.53524
1432.6	7.23672
1434.18	7.69545
1435.75	8.36907
1437.32	8.82666
1438.89	9.20758
1440.46	9.06067
1442.04	8.75934
1443.61	9.06925
1445.18	9.2427
1446.75	8.19802
1448.32	9.31593
1449.89	8.15441
1451.46	9.55007
1453.03	8.88277
1454.6	8.64897
1456.16	8.72967
1457.73	7.68669
1459.3	6.99416
1460.87	7.43828
1462.44	7.97544
1464	6.3249
1465.57	5.97027
1467.14	4.77053
1468.7	5.45779
1470.27	5.22441
1471.83	5.13143
1473.4	5.19812
1474.96	3.97253
1476.53	3.57179
1478.09	3.85751
1479.66	3.53534
1481.22	3.91858
1482.78	4.06631
1484.35	3.17518
1485.91	2.81237
1487.47	3.58369
1489.04	2.15858
1490.6	2.3544
1492.16	2.54478
1493.72	2.47576
1495.28	3.02693
1496.84	2.34682
1498.4	1.62904
1499.96	2.061
1501.52	1.42682
1503.08	1.92141
1504.64	1.39021
1506.2	1.69283
1507.76	1.99338
1509.32	0.803423
1510.88	0.732637
1512.44	1.14185
1513.99	0.510014
1515.55	1.64846
1517.11	1.76809
1518.66	1.39068
1520.22	2.22218
1521.78	2.61221
1523.33	3.86061
1524.89	4.83684
1526.44	5.38857
1528	6.01252
1529.55	5.43551
1531.11	4.06276
1532.66	3.07433
1534.21	1.56056
1535.77	2.22785
1537.32	1.7812
1538.87	1.5824
1540.43	1.57337
1541.98	2.07314
1543.53	1.44255
1545.08	1.13234
1546.63	1.34812
1548.18	1.67565
1549.74	1.47764
1551.29	1.33665
1552.84	1.459
1554.39	1.69541
1555.94	1.93465
1557.48	2.90559
1559.03	1.62265
1560.58	2.76982
1562.13	1.86845
1563.68	1.69709
1565.23	1.91876
1566.78	2.19661
1568.32	2.3433
1569.87	2.78776
1571.42	2.11135
1572.96	1.8076
1574.51	2.64221
1576.05	2.26348
1577.6	2.65062
1579.14	2.74004
1580.69	2.64419
1582.24	2.4941
1583.78	2.1403
1585.32	1.63839
1586.87	2.52066
1588.41	2.65574
1589.95	2.56584
1591.5	2.73687
1593.04	2.56986
1594.58	3.15132
1596.12	2.96505
1597.67	3.0608
1599.21	2.91436
1600.75	3.74487
1602.29	2.83171
1603.83	3.36343
1605.37	3.02974
1606.91	3.06841
1608.45	3.38442
1609.99	3.45068
1611.53	2.81629
1613.07	2.94786
1614.6	2.98251
1616.14	2.37855
1617.68	2.00139
1619.22	2.69512
1620.75	2.62384
1622.29	2.0314
1623.83	2.43312
1625.37	2.64747
1626.9	2.89734
1628.44	2.13379
1629.97	2.7702
1631.51	2.91767
1633.04	2.70923
1634.58	3.36043
1636.11	2.57625
1637.65	2.78325
1639.18	3.81173
1640.72	2.86401
1642.25	2.41847
1643.78	2.38046
1645.31	2.22813
1646.85	3.35699
1648.38	3.27581
1649.91	2.9172
1651.44	4.17569
1652.97	3.56252
1654.5	3.08222
1656.03	3.1967
1657.56	3.14409
1659.1	3.03408
1660.62	2.97667
1662.15	2.69403
1663.68	2.55712
1665.21	2.67776
1666.74	2.90979
1668.27	2.81204
1669.8	2.75466
1671.32	1.87155
1672.85	3.0175
1674.38	3.07732
1675.91	2.34482
1677.43	2.53109
1678.96	1.96051
1680.49	1.68233
1682.01	1.51307
1683.54	2.00434
1685.06	1.6694
1686.59	2.10586
1688.11	1.18652
1689.64	1.49632
1691.16	1.03732
1692.68	1.23768
1694.21	2.27902
1695.73	1.39936
1697.25	1.12298
1698.78	1.21133
1700.3	1.48108
1701.82	1.0198
1703.34	1.3415
1704.86	0.496071
1706.39	0.760843
1707.91	1.20632
1709.43	0.960669
1710.95	0.915209
1712.47	0.561958
1713.99	1.1879
1715.51	1.61379
1717.02	0.302454
1718.54	0.872423
1720.06	0.827335
1721.58	0.421864
1723.1	0.523022
1724.62	0.608173
1726.13	0.750072
1727.65	0.22872
1729.17	0.825386
1730.68	0.861902
1732.2	1.10648
1733.72	0.259384
1735.23	0.0449066
1736.75	1.14992
1738.26	0.607035
1739.78	0.842794
1741.29	0.39773
1742.81	0.754677
1744.32	0.560841
1745.84	0.559099
1747.35	1.19395
1748.86	0.666471
1750.37	0.271194
1751.89	0.374994
1753.4	0.567451
1754.91	-0.117262
1756.42	0.094162
1757.93	-0.149639
1759.45	0.480122
1760.96	-0.0597153
1762.47	0.139318
1763.98	-0.0860329
1765.49	0.658607
1767	0.24559
1768.51	0.191275
1770.02	0.372517
1771.53	0.348558
1773.03	-0.013052
1774.54	0.178167
1776.05	0.498358
1777.56	-0.0862293
1779.07	0.00863647
1780.57	0.121548
1782.08	0.0291004
1783.59	0.0317421
1785.09	0.128139
1786.6	-0.256647
1788.11	-0.231976
1789.61	0.301643
1791.12	0.229347
1792.62	0.866192
1794.13	-0.23045
1795.63	0.0403557
1797.13	0.217619
1798.64	0.247913
1800.14	0.526897
1801.65	-0.355987
1803.15	-0.0943413
1804.65	-0.204716
1806.15	-0.056488
1807.66	-0.231666
1809.16	0.25453
1810.66	-0.223737
1812.16	0.172491
1813.66	0.125608
1815.16	0.325489
1816.66	0.407606
1818.16	0.162903
1819.66	0.248463
1821.16	0.0555763
1822.66	0.472973
1824.16	0.352985
1825.66	-0.203247
1827.16	0.085556
1828.66	-0.221943
1830.16	-0.673014
1831.65	0.170429
1833.15	0.483951
1834.65	-0.234614
1836.14	-0.0288706
1837.64	0.178913
1839.14	0.683739
1840.63	-0.281191
1842.13	-0.279838
1843.62	-0.0657701
1845.12	-0.18604
1846.61	-0.0599318
1848.11	0.295451
1849.6	-0.153931
1851.1	-0.121634
1852.59	0.246791
1854.08	0.182782
1855.58	0.243545
1857.07	0.0631886
1858.56	0.0295925
1860.05	-0.453903
1861.55	0.265238
1863.04	0.225982
1864.53	0.326955
1866.02	0.35446
1867.51	0.0763483
1869	0.321116
1870.49	0.0331335
1871.98	0.59646
1873.47	0.367379
1874.96	0.607563
1876.45	0.313932
1877.94	0.461471
1879.43	0.507993
1880.92	1.00222
1882.41	0.476869
1882.51	0.438981
1884	0.492844
1885.5	0.493111
1886.99	0.31779
1888.48	0.489965
1889.98	0.314249
1891.47	-0.0858707
1892.96	0.507733
1894.46	-0.651928
1895.95	0.398847
1897.44	-0.0444021
1898.93	0.24259
1900.42	-0.341772
1901.91	0.86315
1903.41	0.412616
1904.9	0.533724
1906.39	0.583918
1907.88	0.668703
1909.37	0.285696
1910.86	0.00854301
1912.35	0.409449
1913.83	0.724336
1915.32	0.519028
1916.81	-0.310875
1918.3	0.141375
1919.79	0.176797
1921.27	0.315944
1922.76	0.420974
1924.25	0.319555
1925.74	0.410336
1927.22	0.520088
1928.71	0.734763
1930.19	0.96674
1931.68	0.262309
1933.17	0.611897
1934.65	0.387278
1936.14	0.869528
1937.62	0.225404
1939.11	0.307061
1940.59	-0.215322
1942.07	0.506721
1943.56	0.763942
1945.04	0.263588
1946.52	0.763996
1948.01	0.470974
1949.49	0.0908499
1950.97	0.587627
1952.45	0.531728
1953.93	-0.402007
1955.42	0.246266
1956.9	-0.307821
1958.38	-0.276709
1959.86	-0.244555
1961.34	0.302781
1962.82	0.130076
1964.3	0.539739
1965.78	0.263233
1967.26	-0.116763
1968.74	-0.189445
1970.21	0.916464
1971.69	-0.0805397
1973.17	0.0673418
1974.65	0.112806
1976.13	0.277769
1977.6	0.544943
1979.08	0.471477
1980.56	0.483097
1982.03	0.188445
1983.51	-0.140246
1984.99	-0.265299
1986.46	-0.0683079
1987.94	0.331691
1989.41	0.308181
1990.89	0.336491
1992.36	-0.276503
1993.84	0.245269
1995.31	0.531272
1996.78	0.260257
1998.26	0.681776
1999.73	0.39326
2001.2	0.239014
2002.68	-0.0170708
2004.15	0.839489
2005.62	0.0612688
2007.09	0.430175
2008.56	0.581378
2010.04	0.784366
2011.51	0.365287
2012.98	0.232518
2014.45	-0.321573
2015.92	0.486171
2017.39	0.06427
2018.86	0.666886
2020.33	0.226306
2021.8	-0.281242
2023.26	0.152153
2024.73	0.284326
2026.2	-0.403722
2027.67	-0.0831041
2029.14	0.591937
2030.61	0.0781174
2032.07	0.706617
2033.54	0.245123
2035.01	0.874829
2036.47	-0.209119
2037.94	0.587444
2039.4	0.257695
2040.87	0.0789948
2042.33	0.237041
2043.8	0.329024
2045.27	0.540226
2046.73	0.500263
2048.19	0.443877
2049.66	0.167823
2051.12	0.480119
2052.59	0.537233
2054.05	0.220512
2055.51	-0.216888
2056.97	0.473312
2058.44	0.470887
2059.9	0.114467
2061.36	0.146181
2062.82	0.633566
2064.28	0.0788412
2065.74	0.333519
2067.21	1.07753
2068.67	0.206803
2070.13	0.346333
2071.59	0.603836
2073.05	0.591771
2074.51	-0.279514
2075.96	-0.107344
2077.42	0.670544
2078.88	0.521593
2080.34	0.254073
2081.8	0.524522
2083.26	-0.131956
2084.72	0.977707
2086.17	0.874304
2087.63	0.854063
2089.09	0.043294
2090.54	0.476011
2092	0.505227
2093.45	0.114779
2094.91	0.495793
2096.37	1.0432
2097.82	0.935637
2099.28	0.710071
2100.73	0.501065
2102.19	0.275985
2103.64	0.436519
2105.09	0.281685
2106.55	0.0790215
2108	0.578557
2109.45	0.894947
2110.91	0.593548
2112.36	0.756916
2113.81	1.81671
2115.26	2.09028
2116.72	1.38101
2118.17	0.822944
2119.62	0.433764
2121.07	0.263597
2122.52	0.94226
2123.97	0.744015
2125.42	0.563397
2126.87	1.17825
2128.32	1.17803
2129.77	0.927096
2131.22	1.63496
2132.67	1.01655
2134.11	1.25901
2135.56	1.65123
2137.01	1.08678
2138.46	0.393255
2139.91	1.37179
2141.35	0.981128
2142.8	1.31965
2144.25	1.26241
2145.7	1.56945
2147.14	1.7107
2148.59	1.63573
2150.03	1.24458
2151.48	1.41507
2152.92	1.23608
2154.37	1.55288
2155.81	1.86889
2157.26	1.4892
2158.7	1.50819
2160.15	1.41326
2161.59	1.38725
2163.03	2.37541
2164.47	1.55888
2165.92	2.05412
2167.36	1.686
2168.8	2.13036
2170.24	1.69086
2171.69	1.54721
2173.13	1.79974
2174.57	1.38472
2176.01	2.36584
2177.45	2.46566
2178.89	1.8019
2180.33	1.58863
2181.77	2.19143
2183.21	2.19666
2184.65	2.21898
2186.09	2.22478
2187.53	2.21399
2188.97	1.75391
2190.4	1.84292
2191.84	1.7817
2193.28	1.36967
2194.72	1.62154
2196.16	2.00368
2197.59	1.38408
2199.03	1.52734
2200.47	1.40291
2201.9	1.62704
2203.34	1.50346
2204.77	0.668737
2206.21	1.19544
2207.64	0.976993
2209.08	1.48709
2210.51	1.01899
2211.95	1.02956
2213.38	1.23732
2214.82	1.21331
2216.25	1.12422
2217.68	1.72986
2219.12	1.11659
2220.55	1.47775
2221.98	1.34447
2223.41	0.930127
2224.85	0.711646
2226.28	0.704766
2227.71	1.22148
2229.14	0.421301
2230.57	0.835642
2232	0.363833
2233.43	0.859221
2234.86	0.68425
2236.29	1.29557
2237.72	0.66765
2239.15	1.07132
2240.58	0.727426
2242.01	0.304867
2243.44	0.650759
2244.87	0.850446
2246.29	1.01654
2247.72	0.429988
2249.15	0.90019
2250.58	0.975487
2252.01	1.0642
2253.43	0.793645
2254.86	0.394054
2256.29	0.744028
2257.71	0.7077
2259.14	1.09753
2260.56	1.02137
2261.99	0.186075
2263.41	1.0414
2264.84	1.67074
2266.26	1.81242
2267.69	1.15582
2269.11	-0.0561342
2270.53	0.63459
2271.96	-0.0591469
2273.38	0.56573
2274.8	0.702297
2276.23	0.529661
2277.65	0.503883
2279.07	-0.0434895
2280.49	0.354549
2281.91	-0.0139999
2283.34	0.742859
2284.76	0.569965
2286.18	0.576864
2287.6	0.208773
2289.02	0.412761
2290.44	0.584828
2291.86	0.675727
2293.28	0.407109
2294.7	0.0400438
2296.12	0.37638
2297.54	0.59829
2298.96	-0.17887
2300.37	-0.694213
2301.79	0.298935
2303.21	0.604436
2304.63	0.122593
2306.04	0.132832
2307.46	0.454765
2308.88	0.414548
2310.3	-0.202135
2311.71	0.200022
2313.13	-0.236785
2314.54	0.4624
2315.96	-0.0553122
2317.37	0.218425
2318.79	0.559067
2320.2	0.0255861
2321.62	0.0345182
2323.03	0.304779
2324.45	0.307572
2325.86	0.0265303
2327.27	0.171986
2328.69	1.45329
2330.1	0.0650682
2331.51	-0.168002
2332.92	-0.349909
2334.34	0.144128
2335.75	0.42446
2337.16	-0.036088
2338.57	0.22561
2339.98	0.321051
2341.39	0.464221
2342.8	-0.0336018
2344.21	-0.137225
2345.63	0.103846
2347.04	0.115728
2348.45	-0.49438
2349.85	0.269858
2351.26	0.263594
2352.67	0.41919
2354.08	0.377265
2355.49	0.0409746
2356.9	-0.0671511
2358.3	-0.0612593
2359.71	0.318477
2361.12	0.340491
2362.53	0.200303
2363.93	-0.377034
2365.34	0.3734
2366.75	-0.186549
2368.15	-0.00181198
2369.56	0.619619
2370.97	0.726261
2372.37	0.142076
2373.77	0.365144
2375.18	-0.0552444
2376.59	-0.0253115
2377.99	0.0834284
2379.39	-0.452965
2380.8	-0.0437107
2382.2	-0.00617599
2383.6	-0.0181189
2385.01	-0.36631
2386.41	-0.0341005
2387.81	0.298657
2389.21	0.0505562
2390.62	0.075573
2392.02	-0.327568
2393.42	0.17819
2394.82	-0.12644
2396.22	0.285625
2397.62	0.126201
2399.02	-0.334173
2400.42	-0.237624
2401.82	0.0340633
2403.22	0.0675135
2404.62	0.481486
2406.02	-0.0425749
2407.42	0.368521
2408.82	-0.236954
2410.22	0.283119
2411.62	-0.115936
2413.01	-0.0542011
2414.41	0.278494
2415.81	0.106668
2417.21	-0.0315132
2418.6	-0.390064
2420	-0.178078
2421.4	0.192238
2422.79	0.657201
2424.19	0.377168
2425.59	0.144677
2426.98	0.324939
2428.38	0.141951
2429.77	0.0871067
2431.17	0.0491114
2432.56	1.26544
2433.95	-0.233728
2435.35	0.599723
2436.74	0.00129223
2438.14	0.687479
2439.53	0.529603
2440.92	0.100432
2442.31	0.0358362
2443.71	0.478626
2445.1	0.381494
2446.49	-0.191437
2447.88	0.0916929
2449.27	-0.480834
2450.67	0.404122
2452.06	0.0546131
2453.45	0.133688
2454.84	0.293089
2456.23	0.263663
2457.62	0.266356
2459.01	-0.490378
2460.4	0.286239
2461.79	0.08109
2463.18	0.364848
2464.57	-0.363644
2465.95	0.360916
2467.34	0.437486
2468.73	0.387669
2470.12	0.0852575
2471.5	-0.10719
2472.89	-0.268916
2474.28	0.339828
2475.67	0.0815353
2477.05	0.404624
2478.44	-0.419341
2479.82	-0.284544
2481.21	-0.0242872
2482.6	0.110121
2483.98	-0.179051
2485.37	-0.484624
2486.75	0.0680761
2488.13	-0.0374928
2489.52	0.635306
2490.9	-0.359241
2492.29	-0.106975
2493.67	-0.0400934
2495.05	-0.28166
2496.44	0.316
2497.82	0.88306
2499.2	0.459137
2500.58	-0.165777
2501.97	-0.512686
2503.35	-0.381719
2504.73	-0.0671978
2506.11	0.353583
2507.49	0.234365
2508.87	-0.068903
2510.25	-0.524489
2511.63	-0.211134
2513.01	0.194709
2514.39	-0.241268
2515.77	-0.369234
2517.15	0.406576
2518.53	0.372027
2519.91	0.108562
2521.29	-0.0175657
2522.67	0.481282
2524.05	-0.836864
2525.42	0.101548
2526.8	0.352773
2528.18	-0.415284
2529.55	0.248645
2530.93	0.564594
2532.31	0.0775671
2533.69	-0.148983
2535.06	0.248435
2536.44	0.190014
2537.81	-0.309917
2539.19	-0.127629
2540.56	0.356998
2541.94	0.33988
2543.31	0.110744
2544.69	-0.101869
2546.06	-0.115463
2547.44	-0.369991
2548.81	-0.0923786
2550.18	0.306851
2551.56	0.295727
2552.93	0.207338
2554.3	-0.0495157
2555.67	0.0868349
2557.04	0.373954
2558.42	0.00867653
2559.79	-0.00737381
2561.16	-0.371247
2562.53	0.357023
2563.9	0.252579
2565.27	-0.0785313
2566.64	0.136257
2568.01	0.154177
2569.38	0.960204
2570.75	0.099062
2572.12	-0.45898
2573.49	0.559512
2574.86	0.0926228
2576.23	-0.0407639
2577.6	0.219925
2578.97	0.343834
2580.33	0.527865
2581.7	-0.153018
2583.07	-0.0459862
2584.44	-0.197054
2585.8	0.31877
2587.17	0.289011
2588.54	0.0928154
2589.9	0.0635014
2591.27	0.458298
2592.64	-0.0870991
2594	-0.406265
2595.37	0.757314
2596.73	0.101984
2598.1	0.338668
2599.46	-0.317535
2600.83	0.266178
2602.19	0.245893
2603.55	-0.256441
2604.92	0.404348
2606.28	-0.247399
2607.64	-0.130126
2609.01	0.0762358
2610.37	-0.0809126
2611.73	-0.616049
2613.09	0.216383
2614.46	0.865757
2615.82	-0.392354
2617.18	0.211236
2618.54	0.215474
2619.9	0.445297
2621.26	0.00300694
2622.62	0.279346
2623.98	0.242073
2625.34	0.324127
2626.7	0.0627022
2628.06	-0.0498514
2629.42	0.0159731
2630.78	0.319414
2632.14	-0.225184
2633.5	-0.293674
2634.86	0.424521
2636.21	0.385161
2637.57	0.849637
2638.93	0.247372
2640.29	0.075325
2641.64	0.539597
2643	0.47177
2644.36	0.153319
2645.71	-0.179579
2647.07	0.48984
2648.43	0.229177
2649.78	0.188464
2651.14	0.264377
2652.49	0.134029
2653.85	0.238986
2655.2	0.212911
2656.56	0.715767
2657.91	0.517134
2659.26	0.129935
2660.62	0.606416
2661.97	0.439169
2663.32	0.183545
2664.68	0.934142
2666.03	0.617723
2667.38	0.94226
2668.74	0.392398
2670.09	0.498575
2671.44	0.561747
2672.79	0.465962
2674.14	0.995684
2675.49	0.770977
2676.84	0.24268
2678.19	0.382929
2679.54	0.408347
2680.89	0.27585
2682.24	0.0871611
2683.59	0.625242
2684.94	0.787922
2686.29	0.313003
2687.64	-0.351153
2688.99	0.2747
2690.34	0.462603
2691.69	-0.107082
2693.03	0.481971
2694.38	0.72094
2695.73	0.582528
2697.08	0.850771
2698.42	0.541564
2699.77	0.495698
2701.12	0.466981
2702.46	0.0494671
2703.81	0.777991
2705.15	0.696107
2706.5	0.614233
2707.85	0.662465
2709.19	0.622997
2710.54	0.989502
2711.88	0.934545
2713.22	0.51603
2714.57	1.18732
2715.91	1.10283
2717.26	0.959863
2718.6	1.25285
2719.94	1.74908
2721.29	1.38608
2722.63	1.03673
2723.97	1.32699
2725.31	0.772322
2726.66	0.537272
2728	0.985776
2729.34	1.14275
2730.68	0.54282
2732.02	0.96137
2733.36	0.681694
2734.7	0.940519
2736.04	0.690557
2737.38	1.08076
2738.72	0.38014
2740.06	1.11889
2741.4	0.911605
2742.74	0.7615
2744.08	0.479567
2745.42	0.560028
2746.76	0.23313
2748.09	0.385215
2749.43	0.638774
2750.77	0.7909
2752.11	0.711332
2753.45	-0.00550079
2754.78	0.14768
2756.12	0.778916
2757.46	0.468856
2758.79	-0.0722704
2760.13	0.111061
2761.46	-0.327195
2762.8	0.508673
2764.14	0.245274
2765.47	0.184437
2766.8	0.354397
2768.14	0.493958
2769.47	0.0241652
2770.81	0.217355
2772.14	0.234901
2773.48	0.322972
2774.81	0.0784416
2776.14	0.367203
2777.48	0.195458
2778.81	0.384348
2780.14	0.0564289
2781.47	0.375674
2782.8	0.163635
2784.14	-0.16296
2785.47	0.198782
2786.8	-0.0698881
2788.13	0.192153
2789.46	-0.0170498
2790.79	0.0899267
2792.12	0.812843
2793.45	-0.565221
2794.78	0.058259
2796.11	-0.00489712
2797.44	-0.25453
2798.77	0.209085
2800.1	-0.0134001
2801.43	0.0777397
2802.76	0.168495
2804.09	0.216002
2805.41	0.376723
2806.74	0.393968
2808.07	0.253728
2809.4	0.454132
2810.72	0.498047
2812.05	0.471877
2813.38	0.248955
2814.71	0.723186
2816.03	0.816743
2817.36	0.897926
2818.68	0.498176
2820.01	0.367757
2821.33	0.860272
2822.66	0.416342
2823.98	1.41672
2825.31	0.645507
2826.63	1.09258
2827.96	1.42705
2829.28	1.12532
2830.6	1.60299
2831.93	1.81205
2833.25	2.74291
2834.57	3.41835
2835.9	3.69647
2837.22	4.31307
2838.54	5.80557
2839.86	6.20794
2841.18	7.50103
2842.5	9.58605
2843.83	9.87705
2845.15	10.5373
2846.47	11.7361
2847.79	12.187
2849.11	12.2281
2850.43	12.4522
2851.75	12.4913
2853.07	12.9388
2854.39	11.7743
2855.71	12.3192
2857.03	11.9457
2858.35	11.6996
2859.66	12.1455
2860.98	12.6756
2862.3	12.2447
2863.62	12.7446
2864.94	13.3282
2866.25	13.1356
2867.57	13.2117
2868.89	13.853
2870.2	14.4387
2871.52	14.3904
2872.84	15.5817
2874.15	15.7842
2875.47	17.4767
2876.78	18.0666
2878.1	18.1892
2879.41	18.9296
2880.73	18.3769
2882.04	18.8107
2883.36	17.59
2884.67	18.0578
2885.99	17.4462
2887.3	16.807
2888.61	16.3494
2889.93	16.0863
2891.24	15.5828
2892.55	16.6759
2893.86	16.2826
2895.18	15.9606
2896.49	16.6909
2897.8	17.0877
2899.11	17.2494
2900.42	15.6785
2901.73	16.9068
2903.05	16.7369
2904.36	16.0777
2905.67	16.972
2906.98	16.7627
2908.29	17.0731
2909.6	16.9102
2910.91	16.9866
2912.21	16.6151
2913.52	16.9696
2914.83	17.5728
2916.14	18.0596
2917.45	17.6464
2918.76	17.5668
2920.07	18.41
2921.37	18.5692
2922.68	18.8014
2923.99	18.7855
2925.29	19.1501
2926.6	18.9851
2927.91	18.7085
2929.22	19.1299
2930.52	19.4941
2931.83	19.8291
2933.13	19.4785
2934.44	19.3236
2935.74	18.8756
2937.05	18.2465
2938.35	18.0931
2939.66	17.5072
2940.96	17.0484
2942.26	17.2763
2943.57	16.3053
2944.87	15.9243
2946.18	14.7347
2947.48	13.7835
2948.78	13.7548
2950.08	13.7098
2951.39	13.0448
2952.69	13.0338
2953.99	11.8718
2955.29	12.7391
2956.59	12.0405
2957.9	12.382
2959.2	10.8954
2960.5	10.9822
2961.8	11.1015
2963.1	10.886
2964.4	10.7253
2965.7	9.98562
2967	9.57926
2968.3	8.59364
2969.6	9.57474
2970.9	8.84019
2972.19	8.00746
2973.49	7.87867
2974.79	8.03143
2976.09	7.57776
2977.39	6.51618
2978.68	7.22568
2979.98	6.84789
2981.28	6.32724
2982.58	5.84825
2983.87	6.22795
2985.17	5.73808
2986.47	5.54639
2987.76	4.38793
2989.06	4.67869
2990.35	4.22526
2991.65	4.05216
2992.94	3.59636
2994.24	3.6726
2995.53	2.45478
2996.83	3.25855
2998.12	2.44755
2999.42	2.52149
3000.71	2.70853
3002	1.64906
3003.3	1.62799
3004.59	1.63527
3005.88	1.39021
3007.18	1.66248
3008.47	1.44363
3009.76	1.15384
3011.05	0.835497
3012.34	0.866155
3013.64	0.980608
3014.93	0.76113
3016.22	0.766091
3017.51	0.660984
3018.8	0.278687
3020.09	0.203059
3021.38	0.238254
3022.67	0.508426
3023.96	0.346684
3025.25	0.225848
3026.54	0.229734
3027.83	0.192994
3029.12	0.0337296
3030.41	0.263987
3031.69	0.123528
3032.98	-0.0840321
3034.27	0.0266428
3035.56	0.371202
3036.84	0.0794468
3038.13	0.295388
3039.42	-0.166005
3040.71	-0.0236635
3041.99	-0.212234
3043.28	0.0247316
3044.57	-0.175467
3045.85	-0.208501
3047.14	0.171729
3048.42	-0.0318966
3049.71	-0.504959
3050.99	-0.00644302
3052.28	0.275129
3053.56	0.0793781
3054.85	0.11489
3056.13	0.217327
3057.41	0.181983
3058.7	0.064002
3059.98	0.204734
3061.26	0.536575
3062.55	0.1353
3063.83	-0.0594273
3065.11	0.0475283
3066.39	0.115943
3067.68	0.879539
3068.96	0.338727
3070.24	0.0969009
3071.52	0.479699
3072.8	0.0993929
3074.08	0.642126
3075.36	-0.270556
3076.65	0.107652
3077.93	-0.0566282
3079.21	0.174531
3080.49	0.285939
3081.77	0.0200748
3083.04	-0.0944796
3084.32	-0.0585155
3085.6	-0.212084
3086.88	0.109003
3088.16	-0.439258
3089.44	0.518397
3090.72	-0.0307999
3091.99	0.0715399
3093.27	0.242195
3094.55	0.0745211
3095.83	0.0703506
3097.1	-0.272253
3098.38	-0.0316534
3099.66	0.127702
3100.93	0.124644
3102.21	0.0543385
3103.49	0.0795803
3104.76	0.241239
3106.04	-0.0829611
3107.31	-0.134833
3108.59	0.166942
3109.86	0.118695
3111.14	0.370022
3112.41	0.379145
3113.69	0.551854
3114.96	0.765651
3116.23	0.287778
3117.51	0.907485
3118.78	0.780151
3120.05	0.96356
3121.33	0.820569
3122.6	0.92119
3123.87	1.04889
3125.14	1.35324
3126.41	1.11705
3127.69	0.692875
3128.96	0.865255
3130.23	1.20068
3131.5	0.982372
3132.77	0.845549
3134.04	1.30308
3135.31	1.30087
3136.58	1.16348
3137.85	1.02605
3139.12	1.34684
3140.39	1.81535
3141.66	1.97442
3142.93	1.62358
3144.2	1.51613
3145.47	1.58469
3146.74	1.74849
3148	1.99383
3149.27	1.83867
