200.554	0.0934639
202.369	0.136122
204.183	0.179682
205.999	-0.164597
207.813	0.09935
209.626	-0.0266819
211.439	0.2099
213.253	1.148
215.065	-0.0271511
216.877	0.204121
218.688	-0.0735359
220.5	1.31994
222.312	0.439425
224.123	0.769836
225.933	0.883179
227.742	-0.211439
229.552	0.167021
231.361	0.133875
233.171	0.751549
234.98	0.428699
236.787	-0.422373
238.595	0.682096
240.402	0.175262
242.209	-0.256275
244.015	0.785135
245.822	0.0169792
247.627	0.718422
249.435	0.667343
251.24	0.031826
253.045	0.357807
254.849	0.584311
256.653	0.568802
258.457	0.771372
260.26	-0.156057
262.063	-0.23735
263.866	-0.725958
265.668	0.762438
267.47	-0.230633
269.271	-0.0194893
271.073	0.961857
272.873	0.83234
274.674	0.917475
276.474	0.324959
278.274	0.0430946
280.073	0.143703
281.872	0.409494
283.671	0.551704
285.47	-0.0533619
287.268	0.181515
289.065	-0.111626
290.863	0.0998039
292.66	0.432367
294.456	0.264384
296.253	0.81588
298.049	-0.424022
299.844	0.201011
301.637	0.0847578
303.432	-0.677422
305.227	0.611433
307.021	0.633373
308.815	-0.465469
310.609	0.200583
312.402	-0.370719
314.195	-0.22512
315.987	-0.315138
317.777	0.597472
319.569	0.154801
321.36	0.571388
323.151	0.607861
324.942	0.143764
326.733	0.371558
328.521	0.622983
330.31	-0.130501
332.1	0.213593
333.889	-0.497477
335.677	0.223761
337.464	0.343324
339.252	0.890276
341.039	1.96052
342.826	-0.174539
344.611	0.320308
346.398	1.22146
348.184	0.738123
349.97	0.566005
351.754	0.298362
353.539	0.316221
355.324	0.165397
357.106	-0.130441
358.89	0.191563
360.674	1.03526
362.455	0.472297
364.239	0.788696
366.021	0.390691
367.804	1.17879
369.584	1.466
371.366	0.4485
373.145	0.82788
374.926	0.804027
376.707	-0.0694847
378.485	0.144204
380.265	0.759155
382.045	1.30409
383.822	0.368368
385.601	0.211366
387.378	0.314661
389.156	0.466427
390.934	0.243701
392.71	-0.0248575
394.487	0.740699
396.262	0.0976276
398.038	1.45088
399.813	0.549077
401.588	0.797385
403.362	0.739274
405.137	0.86785
406.912	0.408122
408.685	-0.00548267
410.459	-0.583773
412.23	0.45743
414.004	0.466408
415.775	0.99256
417.548	0.510914
419.318	0.898334
421.089	1.30962
422.86	0.523358
424.63	0.0879078
426.401	0.261397
428.17	0.175337
429.94	0.0415983
431.708	0.846596
433.478	0.267236
435.245	-0.217804
437.012	0.72867
438.781	-0.297418
440.547	0.997519
442.315	0.341728
444.081	0.644414
445.846	0.3114
447.613	1.47494
449.378	0.390944
451.142	0.640609
452.908	0.890263
454.672	0.160184
456.435	0.689659
458.2	-0.0162134
459.963	0.745046
461.725	0.227291
463.489	-0.0783987
465.251	0.874271
467.012	0.622756
468.775	0.421609
470.536	0.595037
472.296	0.699634
474.056	-0.0117779
475.817	0.787494
477.576	0.11627
479.335	1.16604
481.094	0.909806
482.854	1.11967
484.612	0.679198
486.37	0.754014
488.127	0.132792
489.886	0.866632
491.642	1.43973
493.398	1.43067
495.154	0.135532
496.91	0.453068
498.667	0.0443544
500.422	0.947498
502.176	0.654093
503.93	1.04002
505.684	1.00159
507.438	1.66644
509.191	1.34132
510.946	1.31933
512.698	0.73006
514.45	1.55026
516.202	1.23884
517.954	0.502378
519.705	1.08131
521.456	0.836194
523.206	1.27157
524.956	0.837738
526.706	1.08458
528.456	1.30773
530.207	0.593072
531.956	1.16666
533.704	0.427522
535.452	1.16108
537.2	0.839645
538.947	0.726738
540.694	0.682209
542.441	0.706419
544.188	0.334517
545.934	0.637243
547.68	0.452147
549.425	1.14867
551.17	0.454671
552.915	1.31211
554.659	0.0192423
556.403	0.391285
558.145	0.717054
559.889	-0.0628805
561.632	0.67856
563.375	1.00566
565.117	0.298894
566.859	-0.15331
568.601	1.41642
570.342	1.10465
572.083	0.359414
573.824	-0.314244
575.565	0.436996
577.303	0.341973
579.043	0.662071
580.782	0.24862
582.521	-0.234072
584.26	0.362508
585.998	0.728024
587.734	-0.150416
589.472	0.211446
591.21	0.0658083
592.947	0.241518
594.684	-0.526293
596.418	0.0403919
598.154	0.261891
599.89	0.229751
601.626	-0.240725
603.361	-0.0229635
605.094	0.284462
606.828	0.107131
608.562	-0.277855
610.296	0.232471
612.027	0.0548697
613.761	0.497637
615.493	0.574369
617.224	0.857481
618.956	-0.142934
620.688	0.641315
622.419	0.187509
624.149	0.670272
625.879	-0.766393
627.61	-0.350496
629.338	0.410224
631.068	0.831876
632.797	0.229817
634.525	0.382331
636.254	-0.082016
637.98	0.957561
639.708	0.760216
641.436	-0.171398
643.162	0.14814
644.889	0.533596
646.614	-0.559563
648.34	0.215655
650.067	-0.209428
651.791	-0.333311
653.516	0.389471
655.239	0.00344276
656.964	0.098279
658.687	-0.261243
660.411	0.130846
662.133	0.0416679
663.857	0.108902
665.58	0.264069
667.301	0.142093
669.024	-0.507006
670.744	0.0344353
672.464	0.418927
674.186	0.00597095
675.905	0.53531
677.626	0.103819
679.345	-0.25947
681.065	0.800481
682.783	0.801088
684.503	0.0157423
686.22	0.216992
687.939	0.139641
689.656	0.175879
691.372	-0.479998
693.09	0.153154
694.806	-0.159194
696.523	0.263968
698.239	0.662132
699.953	-0.437532
701.67	-0.0889587
703.384	0.257858
705.098	0.786899
706.813	0.12102
708.526	0.0288467
710.239	0.119558
711.954	-0.1796
713.666	0.298988
715.378	-0.0690479
717.091	0.841999
718.802	0.542665
720.513	0.768306
722.226	0.652221
723.936	0.331681
725.646	0.625277
727.355	0.191141
729.067	0.460569
730.776	0.0941267
732.484	-0.158898
734.192	1.08147
735.902	0.579169
737.61	0.733253
739.317	0.594852
741.024	0.345473
742.731	0.99928
744.439	0.641292
746.145	0.398332
747.851	-0.224818
749.556	0.841193
751.262	0.0646391
752.966	0.662064
754.673	0.991771
756.377	-0.00388241
758.081	0.555531
759.784	0.779768
761.487	0.983446
763.19	1.3236
764.892	1.00899
766.594	1.23452
768.296	0.869754
770	0.885907
771.701	0.695568
773.402	1.09115
775.102	0.830358
776.803	1.0679
778.503	1.30744
780.202	1.59462
781.901	1.29544
783.6	1.53941
785.299	1.03473
786.997	1.40925
788.695	1.28102
790.393	0.559926
792.09	0.852965
793.787	1.00776
795.484	1.07171
797.18	1.11444
798.877	0.574082
800.572	1.27497
802.268	1.45983
803.963	1.01587
805.658	1.38127
807.35	1.49797
809.044	0.647169
810.738	1.27682
812.432	1.16424
814.125	1.02862
815.818	0.982442
817.51	0.757378
819.202	1.42672
820.894	2.16223
822.584	1.40235
824.275	1.4475
825.966	1.49481
827.657	1.92405
829.347	1.48887
831.037	1.50382
832.725	1.14434
834.414	1.87997
836.103	1.39118
837.792	1.72726
839.481	1.72695
841.167	1.36683
842.854	1.96526
844.542	1.49064
846.229	0.614627
847.914	1.73082
849.6	1.12916
851.287	0.82149
852.973	0.964413
854.656	1.33337
856.341	0.916622
858.026	1.84647
859.711	0.952585
861.393	1.0455
863.077	1.31635
864.761	1.40522
866.442	1.62805
868.125	1.24119
869.808	1.71056
871.489	2.04428
873.171	1.72356
874.85	1.17702
876.532	1.19455
878.213	0.986441
879.892	1.27475
881.572	0.704706
883.251	0.517325
884.931	0.599222
886.61	1.06271
888.287	1.36563
889.966	0.808956
891.643	0.971851
893.321	0.907327
894.997	1.02116
896.675	1.11067
898.352	0.929028
900.028	0.791252
901.704	0.674987
903.379	0.849113
905.055	0.776711
906.729	1.12899
908.404	1.16932
910.077	1.27778
911.75	0.675597
913.425	0.764569
915.097	0.0324497
916.771	0.455215
918.443	1.51981
920.116	1.20991
921.787	0.768808
923.46	1.32486
925.13	1.08754
926.8	0.632582
928.472	1.12961
930.141	1.54004
931.813	1.02473
933.481	0.2453
935.15	-0.290992
936.82	1.04816
938.488	0.624216
940.156	0.268293
941.825	0.311182
943.492	-0.086153
945.158	-0.329426
946.827	0.19816
948.493	0.391985
950.158	0.869843
951.824	0.154331
953.491	0.542202
955.156	0.18265
956.82	0.841707
958.486	0.667791
960.15	-0.0759563
961.814	0.197618
963.477	0.714493
965.142	-0.141924
966.804	0.125359
968.467	-0.60703
970.129	-0.169741
971.79	0.398952
973.454	0.127874
975.115	-0.339932
976.776	-0.318552
978.436	0.390793
980.096	0.393383
981.756	0.395342
983.417	-0.556698
985.077	0.746374
986.736	0.651596
988.394	1.41697
990.052	0.322306
991.71	0.399164
993.368	0.608244
995.025	-0.0215244
996.682	1.26892
998.341	0.948341
999.998	0.958313
1001.65	0.901617
1003.31	1.15242
1004.97	-0.0709381
1006.62	0.091692
1008.28	0.14452
1009.93	0.768322
1011.58	0.975355
1013.24	0.547327
1014.89	0.624199
1016.54	0.526525
1018.2	0.670456
1019.85	0.225052
1021.5	0.85289
1023.16	0.979395
1024.81	0.451757
1026.46	0.274776
1028.11	0.75333
1029.76	0.684605
1031.41	0.679529
1033.06	1.58882
1034.71	1.09825
1036.36	1.15119
1038.01	1.57314
1039.66	0.775442
1041.31	1.82883
1042.95	1.8614
1044.6	2.0707
1046.25	1.93562
1047.9	2.30327
1049.54	1.78324
1051.19	1.74307
1052.84	2.16044
1054.48	2.23093
1056.13	1.88849
1057.77	2.30629
1059.42	2.81038
1061.06	2.16102
1062.71	1.64075
1064.35	3.22806
1066	2.0305
1067.64	2.17911
1069.28	1.80461
1070.93	1.60309
1072.57	0.989193
1074.21	1.65678
1075.85	1.80507
1077.49	2.86636
1079.13	1.45748
1080.78	1.84978
1082.42	1.30957
1084.06	1.46178
1085.7	1.80636
1087.34	1.10733
1088.97	2.28952
1090.61	0.438179
1092.25	1.29013
1093.89	0.887268
1095.53	0.507101
1097.17	0.581625
1098.8	1.06744
1100.44	1.14645
1102.08	0.970275
1103.71	1.01217
1105.35	0.432349
1106.99	-0.232522
1108.62	0.607602
1110.26	1.29521
1111.89	0.754811
1113.52	0.169425
1115.16	0.978202
1116.79	0.841145
1118.43	0.683072
1120.06	1.70461
1121.69	1.46336
1123.32	2.27282
1124.96	2.99774
1126.59	2.50462
1128.22	1.84203
1129.85	1.11673
1131.48	1.46149
1133.11	1.05846
1134.75	0.484257
1136.37	0.91368
1138	0.700256
1139.63	0.228787
1141.26	0.439369
1142.89	0.179576
1144.52	0.154914
1146.15	0.685638
1147.78	0.407686
1149.4	0.259078
1151.03	0.0899801
1152.66	0.197779
1154.28	0.688194
1155.91	-0.205633
1157.54	0.283856
1159.16	-0.842792
1160.79	0.0737877
1162.41	0.757899
1164.04	0.231591
1165.66	0.195065
1167.29	0.136833
1168.91	-0.263198
1170.53	0.163292
1172.16	0.310346
1173.78	0.19978
1175.4	-0.124615
1177.02	0.0595131
1178.65	0.0954504
1180.27	0.0477676
1181.89	-0.273458
1183.51	-0.0013752
1185.13	0.291524
1186.75	0.899284
1188.37	0.111109
1189.99	0.0801325
1191.61	-0.0799417
1193.23	-0.073637
1194.85	-0.110518
1196.47	0.481759
1198.08	0.592417
1199.7	0.433726
1201.32	0.801373
1202.94	0.337508
1204.55	0.650312
1206.17	0.674102
1207.79	0.741612
1209.4	0.371428
1211.02	0.500594
1212.63	0.710423
1214.25	0.228995
1215.86	0.660945
1217.48	0.236582
1219.09	0.351848
1220.71	0.653583
1222.32	0.147081
1223.93	0.34788
1225.54	0.92335
1227.16	0.610691
1228.77	1.08645
1230.38	1.43977
1231.99	1.19538
1233.6	1.03567
1235.22	0.836601
1236.83	0.86674
1238.44	0.67105
1240.05	1.75835
1241.66	1.35722
1243.26	1.22427
1244.87	1.85566
1246.48	1.61643
1248.09	1.39627
1249.7	1.09223
1251.31	1.57393
1252.92	1.78699
1254.52	1.85644
1256.13	1.55533
1257.74	1.69055
1259.34	2.07602
1260.95	2.11123
1262.55	1.65022
1264.16	2.16251
1265.76	1.26531
1267.37	1.96253
1268.97	1.47678
1270.58	2.3992
1272.18	2.40765
1273.78	2.22779
1275.39	2.08784
1276.99	1.69779
1278.59	2.34241
1280.2	2.34366
1281.8	2.71697
1283.4	2.51093
1285	3.23655
1286.6	3.13632
1288.2	2.19054
1289.8	3.0031
1291.4	3.63033
1293	5.04237
1294.6	4.82061
1296.2	4.61717
1297.8	3.77101
1299.4	4.09872
1301	4.75314
1302.6	3.24153
1304.19	4.11807
1305.79	4.78605
1307.39	3.72671
1308.99	3.32557
1310.58	3.64253
1312.18	3.42729
1313.77	3.33651
1315.37	3.26805
1316.96	3.75255
1318.56	3.36
1320.15	2.84547
1321.75	3.28749
1323.34	2.66798
1324.94	2.83958
1326.53	3.43476
1328.12	3.11527
1329.72	2.61545
1331.31	3.09019
1332.9	2.13323
1334.49	2.17072
1336.08	2.2107
1337.67	2.53378
1339.27	2.14989
1340.86	2.28746
1342.45	1.91832
1344.04	2.6121
1345.63	2.51963
1347.22	2.46787
1348.8	2.01846
1350.39	2.25422
1351.98	2.33372
1353.57	2.17652
1355.16	2.1014
1356.75	2.00686
1358.33	1.91166
1359.92	2.45399
1361.51	1.65691
1363.09	1.65727
1364.68	2.77348
1366.27	2.2551
1367.85	2.21652
1369.44	1.14485
1371.02	1.66805
1372.61	2.15339
1374.19	1.88432
1375.77	1.89485
1377.36	2.38304
1378.94	2.29333
1380.52	1.9234
1382.11	1.90958
1383.69	2.29143
1385.27	1.79683
1386.85	2.494
1388.43	2.03908
1390.02	1.34744
1391.6	2.10618
1393.18	2.33011
1394.76	2.07851
1396.34	2.52067
1397.92	1.95047
1399.5	2.46886
1401.08	2.13366
1402.65	2.23335
1404.23	2.43184
1405.81	3.08576
1407.39	3.08829
1408.97	2.4995
1410.54	2.6032
1412.12	2.94367
1413.7	3.04602
1415.27	2.73242
1416.85	3.08822
1418.43	2.83205
1420	3.44349
1421.58	3.58365
1423.15	4.19886
1424.73	4.08849
1426.3	3.66539
1427.87	4.18792
1429.45	4.37531
1431.02	5.70255
1432.6	5.94497
1434.17	6.30349
1435.74	7.88028
1437.31	8.19831
1438.89	7.92807
1440.46	8.48546
1442.03	6.98124
1443.6	6.97207
1445.17	7.25846
1446.74	6.93591
1448.31	6.5743
1449.88	6.84229
1451.45	6.77701
1453.02	7.10607
1454.59	7.00319
1456.16	7.25431
1457.72	6.7957
1459.29	6.55092
1460.86	6.4405
1462.43	5.38218
1463.99	5.48181
1465.56	5.10766
1467.13	4.45831
1468.69	4.51711
1470.26	4.26347
1471.83	3.34502
1473.39	3.64483
1474.95	2.80846
1476.52	2.58081
1478.08	2.86309
1479.65	2.00825
1481.21	2.32943
1482.78	2.29763
1484.34	1.83455
1485.9	2.03708
1487.47	1.1807
1489.03	1.04719
1490.59	1.86974
1492.15	0.947798
1493.71	0.942209
1495.27	1.36319
1496.84	1.19704
1498.39	1.32289
1499.96	0.283261
1501.52	1.11114
1503.07	1.12455
1504.64	0.751725
1506.19	0.670269
1507.75	1.01344
1509.31	1.45093
1510.87	0.998105
1512.43	1.29663
1513.98	0.650846
1515.54	1.39085
1517.1	1.07414
1518.65	1.52631
1520.21	1.38463
1521.77	0.382523
1523.32	1.31241
1524.88	0.578135
1526.44	0.816513
1527.99	0.672122
1529.54	0.147087
1531.1	0.914556
1532.65	0.694777
1534.21	0.439009
1535.76	0.885148
1537.31	0.198095
1538.87	0.626977
1540.42	0.565296
1541.97	1.1443
1543.52	0.0847883
1545.07	0.944678
1546.63	1.29542
1548.18	0.519498
1549.73	1.30073
1551.28	0.582786
1552.83	1.43826
1554.38	0.499458
1555.93	1.74917
1557.48	1.46946
1559.03	1.13697
1560.57	1.27382
1562.12	1.48761
1563.67	1.40452
1565.22	1.22892
1566.77	1.46393
1568.31	1.23204
1569.86	1.76479
1571.41	1.08368
1572.95	1.57813
1574.5	1.41903
1576.05	0.737254
1577.59	1.92257
1579.14	1.24165
1580.68	1.45776
1582.23	1.7498
1583.77	1.70696
1585.31	1.62778
1586.86	1.64274
1588.4	1.71397
1589.95	2.38369
1591.49	2.77243
1593.03	1.73756
1594.57	2.46231
1596.11	2.66294
1597.66	2.73316
1599.2	2.35445
1600.74	2.55802
1602.28	2.53723
1603.82	2.49755
1605.36	2.55065
1606.9	2.86471
1608.44	2.02922
1609.98	2.12991
1611.52	2.26462
1613.06	2.17088
1614.6	1.60612
1616.13	1.66041
1617.67	2.05275
1619.21	1.86567
1620.75	1.53115
1622.28	2.11625
1623.82	1.27952
1625.36	1.84688
1626.89	2.01984
1628.43	1.62947
1629.96	1.96664
1631.5	1.74125
1633.04	1.79572
1634.57	1.64527
1636.11	1.79469
1637.64	1.94532
1639.17	1.76114
1640.71	1.94982
1642.24	1.28044
1643.77	2.09964
1645.31	1.85544
1646.84	2.26103
1648.37	2.68416
1649.9	2.23466
1651.43	2.06558
1652.96	2.21383
1654.5	2.14112
1656.03	2.60685
1657.56	2.1457
1659.09	2.57266
1660.62	2.27527
1662.15	2.53099
1663.67	2.74763
1665.2	2.07656
1666.73	2.03459
1668.26	3.00863
1669.79	1.67984
1671.32	2.14163
1672.84	1.77584
1674.37	1.39245
1675.9	1.30342
1677.43	1.15804
1678.95	1.39752
1680.48	1.80071
1682	1.54084
1683.53	1.15231
1685.05	1.24149
1686.58	1.03763
1688.1	1.62274
1689.63	0.870547
1691.15	1.21798
1692.68	1.29066
1694.2	1.16194
1695.72	0.758877
1697.25	1.15978
1698.77	0.427567
1700.29	0.735812
1701.81	0.550504
1703.33	1.09357
1704.86	1.03409
1706.38	0.883062
1707.9	1.16815
1709.42	1.01672
1710.94	0.829373
1712.46	0.388741
1713.98	1.05417
1715.5	0.795372
1717.02	0.790104
1718.54	1.30871
1720.06	0.923499
1721.57	1.06239
1723.09	0.805281
1724.61	0.51394
1726.13	0.837026
1727.64	1.26973
1729.16	0.569882
1730.68	0.754389
1732.19	0.52977
1733.71	0.51389
1735.23	0.735951
1736.74	0.64907
1738.26	0.575443
1739.77	0.904087
1741.29	0.935832
1742.8	0.703148
1744.31	0.409767
1745.83	0.219673
1747.34	0.28379
1748.85	0.0466604
1750.37	0.661842
1751.88	0.521323
1753.39	0.542375
1754.91	0.39094
1756.42	0.886638
1757.93	0.438521
1759.44	0.176257
1760.95	0.24291
1762.46	-0.0807476
1763.97	0.352229
1765.48	0.653845
1766.99	0.204778
1768.5	0.285595
1770.01	0.793403
1771.52	-0.108133
1773.03	0.558915
1774.54	0.293077
1776.04	0.306214
1777.55	0.322688
1779.06	0.0435514
1780.57	-0.160448
1782.07	0.387898
1783.58	-0.179283
1785.09	-0.226619
1786.59	0.0509195
1788.1	-0.00352287
1789.6	-0.0678711
1791.11	0.229645
1792.61	0.0690575
1794.12	-0.00926971
1795.62	-0.0632248
1797.13	0.0363913
1798.63	0.231215
1800.13	0.243085
1801.64	0.0888538
1803.14	-0.15646
1804.64	-0.30585
1806.15	0.267522
1807.65	-0.0841265
1809.15	0.0386086
1810.65	0.0195904
1812.15	-0.0734949
1813.65	-0.0228281
1815.16	0.149661
1816.66	0.200385
1818.15	0.114006
1819.66	-0.274331
1821.16	-0.0748978
1822.65	0.0776711
1824.15	0.265491
1825.65	0.276664
1827.15	0.344477
1828.65	0.0900412
1830.15	0.256805
1831.64	0.377802
1833.14	0.148021
1834.64	0.0425797
1836.14	0.372998
1837.63	-0.214375
1839.13	-0.277025
1840.62	0.165931
1842.12	0.068181
1843.62	-0.346338
1845.11	-0.106093
1846.61	-0.18056
1848.1	0.22844
1849.6	-0.0629797
1851.09	0.153071
1852.58	0.166519
1854.08	0.0196905
1855.57	0.325461
1857.06	0.552309
1858.55	0.0893793
1860.05	-0.34352
1861.54	0.0309935
1863.03	0.113976
1864.52	-0.248874
1866.01	-0.0290585
1867.5	0.254845
1869	-0.0143709
1870.49	-0.043951
1871.98	0.330434
1873.47	-0.149946
1874.96	0.710964
1876.44	0.0394421
1877.93	0.207988
1879.42	0.536996
1880.91	0.130219
1882.4	-0.00333977
1882.47	-0.00921249
1883.96	0.0782328
1885.46	0.269187
1886.95	0.458843
1888.44	-0.292416
1889.94	0.00123882
1891.43	0.139272
1892.93	0.17488
1894.42	-0.378348
1895.91	-0.355942
1897.4	0.258824
1898.89	0.00400066
1900.39	0.495926
1901.88	-0.0231657
1903.37	0.23831
1904.86	0.0457706
1906.35	0.0435038
1907.84	0.232183
1909.33	-0.377036
1910.82	-0.22119
1912.31	-0.0469913
1913.8	0.54409
1915.29	0.320085
1916.77	0.0264006
1918.26	0.0268354
1919.75	0.338576
1921.24	-0.129478
1922.73	0.0439177
1924.21	0.287544
1925.7	0.549846
1927.19	0.744285
1928.67	0.368258
1930.16	0.00944233
1931.64	-0.0733213
1933.13	0.0845804
1934.61	0.0844278
1936.1	-0.177347
1937.58	-0.146374
1939.07	0.229531
1940.55	0.208111
1942.04	0.0842161
1943.52	-0.228005
1945	-0.314748
1946.49	0.133454
1947.97	0.339842
1949.45	-0.109462
1950.93	0.301325
1952.42	0.177035
1953.9	-0.0682096
1955.38	-0.210148
1956.86	0.369806
1958.34	0.0402756
1959.82	0.0722485
1961.3	0.447821
1962.78	0.154882
1964.26	0.153232
1965.74	0.116711
1967.22	0.233416
1968.7	0.00704765
1970.18	-0.527438
1971.65	-0.122046
1973.13	0.589901
1974.61	0.294622
1976.09	-0.204556
1977.57	0.319134
1979.04	0.212444
1980.52	-0.0982571
1982	0.237197
1983.47	0.469896
1984.95	0.124713
1986.42	0.831289
1987.9	-0.42916
1989.37	-0.247885
1990.85	0.306228
1992.32	0.218102
1993.8	-0.0546427
1995.27	-0.309255
1996.75	0.180182
1998.22	-0.0738163
1999.69	-0.159327
2001.17	-0.0936251
2002.64	-0.028594
2004.11	0.0361843
2005.58	0.0675821
2007.05	0.0324678
2008.53	0.301627
2010	0.302375
2011.47	0.219633
2012.94	-0.250121
2014.41	-0.0470829
2015.88	0.373657
2017.35	0.0361767
2018.82	-0.133944
2020.29	0.0146637
2021.76	0.0957479
2023.23	0.294623
2024.7	0.0580416
2026.16	0.309494
2027.63	-0.359833
2029.1	0.213833
2030.57	0.40345
2032.03	-0.00973129
2033.5	0.0810461
2034.97	0.104712
2036.44	0.0607491
2037.9	-0.101513
2039.37	0.122221
2040.83	0.22828
2042.3	0.687939
2043.76	0.105972
2045.23	0.416501
2046.69	0.273705
2048.16	0.434368
2049.62	0.460002
2051.08	0.197778
2052.55	-0.0158939
2054.01	0.780089
2055.47	0.831766
2056.94	0.375886
2058.4	0.0878
2059.86	0.372407
2061.32	0.0679569
2062.79	0.0171728
2064.25	0.472515
2065.71	0.491467
2067.17	-0.0270491
2068.63	0.111497
2070.09	-0.00202084
2071.55	-0.115491
2073.01	-0.0776138
2074.47	0.633515
2075.93	0.333934
2077.39	0.134912
2078.85	0.373247
2080.31	0.34158
2081.76	-0.0106592
2083.22	0.410739
2084.68	0.410302
2086.13	-0.280739
2087.59	0.356374
2089.05	0.706667
2090.51	0.350843
2091.96	0.347857
2093.42	0.0259552
2094.87	0.727099
2096.33	-0.198936
2097.78	0.198605
2099.24	0.0425062
2100.69	0.187256
2102.15	0.281888
2103.6	0.377365
2105.06	-0.426952
2106.51	-0.0277262
2107.96	0.289121
2109.42	0.756334
2110.87	0.639212
2112.32	1.32037
2113.77	0.732963
2115.23	0.327362
2116.68	0.237177
2118.13	0.28037
2119.58	0.806415
2121.03	0.620843
2122.48	0.786128
2123.93	0.820538
2125.38	0.0433178
2126.83	0.59234
2128.28	0.460369
2129.73	0.939913
2131.18	-0.0732088
2132.63	0.784263
2134.08	0.697703
2135.53	0.628705
2136.97	0.396244
2138.42	0.513144
2139.87	0.913278
2141.32	0.538639
2142.76	0.347141
2144.21	1.14887
2145.66	1.02467
2147.1	1.18147
2148.55	0.476365
2150	1.09513
2151.44	1.08329
2152.89	1.08676
2154.33	0.956651
2155.78	1.37267
2157.22	1.02668
2158.66	1.12883
2160.11	1.16633
2161.55	0.874593
2163	1.04909
2164.44	1.29203
2165.88	1.63603
2167.32	1.01684
2168.77	0.777944
2170.21	1.30174
2171.65	1.09128
2173.09	0.878367
2174.53	1.01307
2175.97	1.14698
2177.41	0.748971
2178.85	1.39937
2180.29	1.26954
2181.73	1.37357
2183.17	1.39524
2184.61	1.41728
2186.05	1.02353
2187.49	1.029
2188.93	0.951304
2190.37	1.38958
2191.81	1.17839
2193.24	1.38251
2194.68	1.10217
2196.12	1.16923
2197.56	0.917644
2198.99	0.630947
2200.43	0.775363
2201.87	1.01895
2203.3	1.26294
2204.74	1.52458
2206.17	0.693425
2207.61	0.625744
2209.04	0.822893
2210.48	0.125166
2211.91	0.965394
2213.35	0.365501
2214.78	1.08769
2216.21	0.885208
2217.65	0.981315
2219.08	1.11185
2220.51	0.369644
2221.95	0.567504
2223.38	1.1763
2224.81	0.169104
2226.24	0.707924
2227.67	0.339622
2229.1	0.9559
2230.54	1.01207
2231.97	0.34678
2233.4	0.272564
2234.83	0.510071
2236.26	0.764846
2237.69	0.857893
2239.11	-0.237969
2240.54	0.740941
2241.97	0.20485
2243.4	0.485815
2244.83	0.212691
2246.26	0.444476
2247.69	0.494976
2249.11	-0.321131
2250.54	0.180717
2251.97	0.663446
2253.4	0.42869
2254.82	0.958292
2256.25	0.33609
2257.67	0.0582056
2259.1	0.319189
2260.53	0.0644197
2261.95	0.137019
2263.38	0.633866
2264.8	-0.200838
2266.23	0.491537
2267.65	0.337761
2269.07	0.312946
2270.5	-0.0221586
2271.92	0.423523
2273.34	0.152584
2274.77	0.354022
2276.19	0.409139
2277.61	0.073348
2279.03	0.601484
2280.46	-0.27254
2281.88	0.434991
2283.3	0.636992
2284.72	-0.107343
2286.14	0.307105
2287.56	0.428316
2288.98	0.239795
2290.4	0.0843
2291.82	0.125166
2293.24	-0.0463905
2294.66	-0.0545082
2296.08	-0.0136271
2297.5	-0.136534
2298.92	0.182825
2300.34	0.191268
2301.76	0.462416
2303.17	-0.0369072
2304.59	-0.0769577
2306.01	0.375556
2307.43	0.30233
2308.84	0.294138
2310.26	0.548333
2311.68	0.210034
2313.09	0.0524502
2314.51	-0.0224924
2315.92	0.00213528
2317.34	0.291291
2318.75	0.0373259
2320.17	0.442564
2321.58	0.120888
2323	0.0773888
2324.41	-0.150362
2325.82	0.0648232
2327.24	0.640628
2328.65	0.951136
2330.06	0.553203
2331.48	0.255511
2332.89	0.28854
2334.3	0.585855
2335.71	-0.333987
2337.12	0.0289478
2338.54	0.0946083
2339.95	0.0438395
2341.36	-0.0901136
2342.77	-0.0603981
2344.18	0.428415
2345.59	0.294095
2347	-0.0854053
2348.41	-0.267962
2349.82	0.203637
2351.23	0.493858
2352.64	-0.066884
2354.04	-0.268744
2355.45	-0.177595
2356.86	-0.0219202
2358.27	-0.0130253
2359.68	0.0122366
2361.08	0.42709
2362.49	0.273571
2363.9	0.201229
2365.3	0.226048
2366.71	0.20253
2368.12	0.0667267
2369.52	0.0291567
2370.93	-0.0390673
2372.33	-0.0895443
2373.74	0.360404
2375.14	-0.187533
2376.55	0.117332
2377.95	-0.0456781
2379.36	0.432471
2380.76	-0.151711
2382.16	-0.319433
2383.57	-0.263599
2384.97	0.367654
2386.37	0.135064
2387.78	-0.0959692
2389.18	-0.101953
2390.58	0.387407
2391.98	0.288386
2393.38	-0.175274
2394.79	0.300858
2396.19	0.0302143
2397.59	-0.0487833
2398.99	0.0635996
2400.39	0.3036
2401.79	0.146805
2403.19	0.0695171
2404.59	0.0871058
2405.99	-0.00741959
2407.39	0.880808
2408.78	0.371583
2410.18	-0.169267
2411.58	0.225414
2412.98	0.0188684
2414.38	-0.265245
2415.77	-0.0726738
2417.17	-0.211038
2418.57	-0.0475311
2419.97	-0.0735712
2421.36	0.248734
2422.76	0.285566
2424.15	0.195299
2425.55	0.057518
2426.95	0.459137
2428.34	0.51318
2429.74	0.282936
2431.13	0.481749
2432.52	0.220578
2433.92	0.165034
2435.31	0.155812
2436.71	0.303722
2438.1	0.338596
2439.49	-0.0411167
2440.89	0.0705509
2442.28	0.133859
2443.67	0.101549
2445.06	0.370414
2446.46	-0.0111904
2447.85	-0.313389
2449.24	-0.0134182
2450.63	0.254866
2452.02	0.476058
2453.41	0.254975
2454.8	-0.265584
2456.19	0.0848217
2457.58	-0.165525
2458.97	0.279928
2460.36	-0.129373
2461.75	-0.159983
2463.14	0.20364
2464.53	0.42409
2465.92	-0.129868
2467.31	-0.115191
2468.69	0.325415
2470.08	0.528804
2471.47	0.305842
2472.86	0.476147
2474.24	0.173016
2475.63	0.058301
2477.02	-0.135283
2478.4	-0.265822
2479.79	0.51417
2481.17	-0.0396833
2482.56	-0.0130396
2483.94	-0.190486
2485.33	0.335183
2486.72	-0.0477123
2488.1	-0.0721226
2489.48	-0.0194359
2490.87	-0.247262
2492.25	0.085659
2493.64	0.279258
2495.02	0.411976
2496.4	0.390968
2497.79	-0.264025
2499.17	0.243114
2500.55	-0.209826
2501.93	0.140705
2503.31	-0.0972805
2504.69	-0.104477
2506.08	0.426896
2507.46	0.033289
2508.84	0.194141
2510.22	-0.259193
2511.6	0.14829
2512.98	-0.0725813
2514.36	0.0142326
2515.74	0.652946
2517.12	0.0221186
2518.5	0.0194845
2519.88	-0.227441
2521.25	0.0296059
2522.63	0.0566444
2524.01	-0.374919
2525.39	-0.578048
2526.77	0.193419
2528.14	0.111974
2529.52	-0.150595
2530.9	0.196861
2532.27	-0.320074
2533.65	0.0307264
2535.03	0.412716
2536.4	-0.0409193
2537.78	0.0516157
2539.15	0.0670738
2540.53	-0.343586
2541.9	0.201762
2543.28	-0.163336
2544.65	0.489029
2546.03	0.0960646
2547.4	-0.310643
2548.77	-0.200665
2550.15	0.0915623
2551.52	0.170869
2552.89	0.11252
2554.27	0.128819
2555.64	0.40195
2557.01	0.295054
2558.38	0.430638
2559.75	0.126812
2561.12	-0.145961
2562.5	-0.00875854
2563.87	0.053318
2565.24	0.0552731
2566.61	0.33029
2567.98	-0.0917149
2569.35	-0.195483
2570.72	-0.526637
2572.09	0.673117
2573.46	0.0843906
2574.83	0.147544
2576.19	0.150092
2577.56	0.107057
2578.93	0.367001
2580.3	0.156473
2581.67	0.157728
2583.04	-0.493419
2584.4	0.249974
2585.77	-0.00731945
2587.14	0.493386
2588.5	0.615333
2589.87	-0.126421
2591.23	0.313757
2592.6	0.616928
2593.97	0.222175
2595.33	0.129283
2596.7	0.232
2598.06	0.121845
2599.43	0.510258
2600.79	-0.0989771
2602.15	0.637115
2603.52	0.361897
2604.88	0.238476
2606.25	-0.00529289
2607.61	0.0674038
2608.97	0.0938454
2610.33	0.28452
2611.7	0.112115
2613.06	-0.136596
2614.42	0.66577
2615.78	0.130578
2617.15	0.196343
2618.51	0.412441
2619.87	0.0754032
2621.23	0.36777
2622.59	0.286782
2623.95	0.131512
2625.31	0.424062
2626.67	-0.313056
2628.03	-0.542871
2629.39	0.0611448
2630.75	-0.198997
2632.1	0.314182
2633.46	0.247138
2634.82	0.580893
2636.18	-0.257553
2637.54	0.431619
2638.89	0.468233
2640.25	0.283021
2641.61	0.216659
2642.97	0.475723
2644.32	0.158859
2645.68	0.00462151
2647.03	0.631454
2648.39	0.50522
2649.75	0.304606
2651.1	0.676877
2652.46	-0.0241442
2653.81	0.259464
2655.17	0.264875
2656.52	-0.0360098
2657.88	0.294251
2659.23	0.435022
2660.58	0.122885
2661.94	0.161638
2663.29	0.433346
2664.64	0.440975
2666	0.330958
2667.35	0.847169
2668.7	0.284807
2670.05	0.640315
2671.4	0.487021
2672.76	-0.0430965
2674.11	0.488257
2675.46	-0.0253296
2676.81	0.158617
2678.16	0.227149
2679.51	0.195112
2680.86	0.1933
2682.21	-0.227558
2683.56	0.599919
2684.91	0.529654
2686.26	0.184256
2687.61	0.97062
2688.96	0.318682
2690.3	0.361418
2691.65	0.0390635
2693	0.658115
2694.35	0.709801
2695.7	0.52926
2697.04	0.668304
2698.39	0.53366
2699.74	0.0391359
2701.08	0.574804
2702.43	0.562108
2703.77	0.492757
2705.12	0.916906
2706.47	0.949917
2707.81	1.0842
2709.16	1.01483
2710.5	1.42412
2711.85	0.438759
2713.19	0.949286
2714.53	0.893147
2715.88	0.967748
2717.22	0.896765
2718.57	0.883606
2719.91	1.23374
2721.25	1.07404
2722.59	1.43763
2723.94	1.23296
2725.28	1.39159
2726.62	1.09849
2727.96	1.28527
2729.3	0.816829
2730.65	0.784811
2731.99	0.796387
2733.33	0.909883
2734.67	0.863567
2736.01	1.19567
2737.35	1.07705
2738.69	0.420309
2740.03	0.999435
2741.37	0.487315
2742.71	0.178089
2744.05	0.783748
2745.38	0.61823
2746.72	0.684632
2748.06	0.373312
2749.4	0.178372
2750.74	0.44792
2752.07	0.413112
2753.41	0.190199
2754.75	-0.220717
2756.09	0.353679
2757.42	-0.11462
2758.76	0.300656
2760.09	0.310956
2761.43	0.0324144
2762.77	-0.173149
2764.1	-0.305963
2765.44	0.0242262
2766.77	0.382776
2768.11	-0.113278
2769.44	0.43049
2770.77	0.206043
2772.11	0.384561
2773.44	0.373915
2774.77	0.0598192
2776.11	0.0342712
2777.44	-0.048378
2778.77	-0.619196
2780.11	0.147873
2781.44	-0.0191908
2782.77	-0.0423985
2784.1	0.278556
2785.43	0.255065
2786.77	0.174515
2788.1	-0.00554657
2789.43	0.0444231
2790.76	0.0668325
2792.09	-0.167193
2793.42	0.156968
2794.75	0.0237131
2796.08	-0.0812912
2797.41	0.0702286
2798.74	-0.0931644
2800.07	0.442381
2801.4	0.306637
2802.72	0.327624
2804.05	0.134512
2805.38	0.325637
2806.71	0.259579
2808.04	0.733308
2809.36	0.210908
2810.69	0.370981
2812.02	0.361245
2813.34	0.395463
2814.67	0.431457
2816	0.540127
2817.32	0.395089
2818.65	0.477608
2819.97	0.460958
2821.3	0.897305
2822.62	0.723359
2823.95	1.14372
2825.27	0.501083
2826.6	1.23243
2827.92	2.10573
2829.25	1.47898
2830.57	1.54662
2831.89	1.74199
2833.22	2.29115
2834.54	3.13706
2835.86	3.81222
2837.18	3.58077
2838.51	5.24426
2839.83	6.12871
2841.15	7.18253
2842.47	8.50523
2843.79	9.33416
2845.11	11.1396
2846.43	10.9114
2847.76	11.8713
2849.08	12.4638
2850.4	11.9816
2851.72	12.5723
2853.04	11.6779
2854.36	11.1219
2855.67	11.3144
2856.99	11.973
2858.31	12.0666
2859.63	11.9907
2860.95	11.7874
2862.27	11.1599
2863.58	11.6328
2864.9	12.0484
2866.22	11.4622
2867.54	12.5128
2868.85	12.1257
2870.17	12.8675
2871.49	12.5946
2872.8	13.787
2874.12	14.4841
2875.43	15.3332
2876.75	15.9679
2878.07	15.5585
2879.38	16.9491
2880.7	16.1461
2882.01	15.8517
2883.32	15.1529
2884.64	15.4115
2885.95	14.7311
2887.27	14.3318
2888.58	14.3668
2889.89	14.6946
2891.21	14.5715
2892.52	15.1339
2893.83	14.3505
2895.14	14.8989
2896.46	14.8328
2897.77	14.5032
2899.08	14.554
2900.39	15.5438
2901.7	14.6322
2903.01	14.0569
2904.32	15.1744
2905.63	14.6841
2906.94	14.9223
2908.25	14.8825
2909.56	14.8446
2910.87	14.4861
2912.18	15.2893
2913.49	15.5452
2914.8	15.4343
2916.11	14.9697
2917.42	15.5517
2918.72	15.1658
2920.03	14.6679
2921.34	16.311
2922.65	15.9568
2923.95	16.2347
2925.26	16.6549
2926.57	16.0561
2927.88	16.1144
2929.18	16.1161
2930.49	16.5082
2931.79	16.0604
2933.1	16.1714
2934.4	16.464
2935.71	15.7505
2937.01	14.7441
2938.32	15.5129
2939.62	14.2142
2940.93	13.9505
2942.23	13.7863
2943.54	12.7719
2944.84	12.85
2946.14	11.5738
2947.45	11.8089
2948.75	10.7422
2950.05	11.0449
2951.35	9.97256
2952.66	10.1712
2953.96	9.94733
2955.26	9.33097
2956.56	9.59798
2957.86	9.35046
2959.16	8.95337
2960.46	9.19094
2961.77	8.84357
2963.07	8.45505
2964.37	8.07927
2965.66	7.85534
2966.96	7.86756
2968.26	7.48407
2969.56	7.02889
2970.86	6.77025
2972.16	6.80744
2973.46	6.31051
2974.76	6.48907
2976.06	5.89251
2977.35	6.02619
2978.65	5.56604
2979.95	5.13167
2981.25	4.86456
2982.54	4.82192
2983.84	4.02063
2985.14	4.21937
2986.43	4.0127
2987.73	3.62554
2989.02	3.50687
2990.32	3.00924
2991.62	3.03106
2992.91	2.98133
2994.21	2.28367
2995.5	2.24519
2996.8	2.76745
2998.09	2.11023
2999.38	2.29563
3000.68	1.50016
3001.97	1.72935
3003.26	1.69281
3004.56	1.89471
3005.85	1.28404
3007.14	1.19111
3008.43	0.649629
3009.73	0.778976
3011.02	0.725705
3012.31	0.979259
3013.6	0.786089
3014.89	0.426549
3016.19	0.57
3017.48	0.296643
3018.77	0.121766
3020.06	0.614894
3021.35	0.32873
3022.64	0.0559759
3023.93	0.254469
3025.22	-0.199793
3026.5	0.150018
3027.79	0.264595
3029.08	0.200691
3030.37	-0.178973
3031.66	0.0513067
3032.95	-0.172741
3034.24	-0.17527
3035.52	0.00114536
3036.81	0.258775
3038.1	-0.340027
3039.39	0.0511723
3040.67	-0.274938
3041.96	0.48324
3043.25	0.0469122
3044.53	-0.00381279
3045.82	0.371519
3047.1	-0.371291
3048.39	0.104903
3049.67	0.0237741
3050.96	-0.150756
3052.24	-0.146723
3053.53	0.567062
3054.81	0.147819
3056.1	0.095952
3057.38	-0.0251093
3058.67	-0.364752
3059.95	0.235364
3061.23	0.372691
3062.52	-0.100847
3063.8	0.393113
3065.08	0.113955
3066.36	0.380475
3067.65	0.335742
3068.93	0.0196848
3070.21	0.247497
3071.49	0.420174
3072.77	0.442013
3074.05	-0.217111
3075.33	-0.197177
3076.61	0.284295
3077.89	-0.143482
3079.17	0.190339
3080.45	-0.00313091
3081.73	0.348064
3083.01	-0.302936
3084.29	-0.573193
3085.57	0.0660686
3086.85	0.0944748
3088.13	0.366643
3089.41	0.217468
3090.68	0.298723
3091.96	-0.447553
3093.24	-0.0266218
3094.52	0.245552
3095.79	0.165677
3097.07	0.126871
3098.35	0.264462
3099.62	0.266607
3100.9	0.187635
3102.18	0.366342
3103.45	0.193521
3104.73	0.0486994
3106	0.13507
3107.28	0.0197191
3108.55	0.027566
3109.83	0.415854
3111.1	-0.0202284
3112.38	0.668746
3113.65	0.559549
3114.93	0.708097
3116.2	0.503928
3117.47	0.800823
3118.75	0.567799
3120.02	0.347458
3121.29	0.465435
3122.57	0.799818
3123.84	0.443143
3125.11	0.737223
3126.38	0.544589
3127.65	0.637213
3128.92	1.02824
3130.2	1.244
3131.47	0.716619
3132.74	0.973538
3134.01	0.568368
3135.28	0.581875
3136.55	0.743484
3137.82	0.972145
3139.09	0.984885
3140.36	1.07854
3141.63	1.30692
3142.9	0.769773
3144.17	1.02655
3145.43	1.1766
3146.7	1.39467
3147.97	1.23846
3149.24	1.53867
