200.563	1.72238
202.377	1.75098
204.194	1.7823
206.008	1.59737
207.821	2.14295
209.634	2.78445
211.449	2.4759
213.262	2.11644
215.074	2.02213
216.885	1.58775
218.699	2.34136
220.51	0.869274
222.321	1.84453
224.131	1.24982
225.941	2.92891
227.751	1.66006
229.562	1.16443
231.371	1.97153
233.18	1.23368
234.988	1.31759
236.796	0.0308533
238.603	0.0994129
240.411	0.0533676
242.219	1.04952
244.026	0.915821
245.832	1.62672
247.638	0.886026
249.443	0.501204
251.248	0.930418
253.053	1.20857
254.857	-0.181601
256.661	-0.027916
258.465	0.537472
260.268	0.480125
262.071	-0.560272
263.874	0.0895367
265.678	1.05532
267.48	1.03422
269.282	0.458076
271.083	0.338114
272.884	0.0951023
274.684	0.837563
276.484	0.0335083
278.284	-1.03916
280.084	0.775
281.883	0.681084
283.682	0.414864
285.48	-0.502583
287.276	-0.0517826
289.074	0.686028
290.871	0.322487
292.668	0.0105743
294.465	0.611645
296.261	-0.147207
298.057	-0.950766
299.853	-0.247498
301.648	-0.189924
303.443	0.534256
305.237	0.109596
307.032	0.708988
308.823	-0.0752258
310.617	0.357866
312.41	-0.445032
314.203	0.565926
315.995	0.652338
317.788	0.766745
319.579	0.765659
321.369	0.195168
323.16	0.126726
324.951	-0.0839844
326.741	0.397736
328.531	0.807844
330.321	1.33643
332.108	0.403681
333.897	1.16511
335.686	0.797195
337.474	0.447931
339.26	0.979162
341.048	0.526094
342.835	0.884329
344.622	0.883814
346.406	0.0963001
348.192	0.194336
349.978	0.00695038
351.764	-0.633841
353.547	0.203737
355.332	-0.0588303
357.116	0.343424
358.901	-0.568354
360.682	0.232985
362.466	0.697983
364.249	1.01785
366.03	0.147669
367.812	0.131666
369.594	0.374504
371.374	-0.853601
373.155	-0.708418
374.936	0.0263519
376.715	0.287514
378.495	0.525696
380.273	0.0116596
382.053	0.0189114
383.832	0.452328
385.609	0.0418167
387.388	0.503775
389.164	0.521528
390.942	-0.139645
392.72	0.0465164
394.495	-0.681974
396.272	1.59632
398.047	0.0466785
399.823	0.140532
401.597	0.750032
403.372	0.700361
405.145	0.202654
406.92	-0.0618248
408.693	-0.116341
410.467	1.2837
412.239	-0.226828
414.012	1.40831
415.783	-0.263605
417.556	1.06964
419.327	0.0812168
421.099	-0.249842
422.869	0.474632
424.64	0.235065
426.409	0.885403
428.18	0.712101
429.948	0.0447407
431.718	-0.106239
433.486	0.0954609
435.253	0.344751
437.022	0.101007
438.789	0.207569
440.558	0.404554
442.324	0.760948
444.089	1.22917
445.857	0.497755
447.622	-1.00753
449.386	0.598677
451.153	0.356579
452.917	-0.304632
454.682	0.878185
456.446	0.870392
458.208	0.536169
459.973	1.36603
461.735	-0.0592766
463.497	-0.270914
465.259	0.17337
467.022	0.461161
468.783	1.05712
470.544	1.00652
472.306	0.352022
474.066	0.975462
475.825	0.500568
477.585	1.04545
479.346	0.794107
481.104	0.70359
482.862	1.45187
484.62	1.03832
486.38	-9.53674e-006
488.137	0.946684
489.894	0.732801
491.65	0.684286
493.407	1.08099
495.164	0.987673
496.92	0.449038
498.675	-0.0210743
500.43	1.0547
502.184	0.464201
503.939	0.457888
505.694	1.55359
507.448	0.718838
509.201	1.056
510.954	1.83661
512.706	2.16648
514.459	1.33971
516.21	1.14506
517.962	1.22983
519.715	1.6412
521.466	1.46298
523.216	1.42463
524.966	1.55004
526.716	0.92453
528.466	0.885771
530.215	1.85432
531.964	1.15786
533.712	1.2092
535.46	1.93587
537.208	1.44275
538.955	1.78757
540.703	1.5458
542.449	1.06972
544.196	1.40801
545.942	1.16448
547.688	1.0843
549.433	0.935246
551.178	0.601696
552.923	1.12497
554.667	0.099472
556.412	0.900024
558.155	0.477684
559.899	1.20908
561.642	0.467247
563.385	1.13087
565.127	1.42707
566.867	0.920412
568.609	-0.295544
570.35	0.580173
572.092	0.976635
573.832	0.895035
575.573	0.978088
577.313	0.284792
579.053	-0.0847015
580.79	0.488754
582.529	-0.499746
584.268	-0.0421047
586.006	-0.391438
587.745	0.429396
589.482	1.04064
591.218	0.49938
592.955	0.785135
594.692	1.27755
596.428	-0.645729
598.164	-0.153427
599.898	0.268938
601.634	0.0221233
603.369	0.117403
605.104	0.232231
606.836	1.76852
608.57	0.247015
610.304	0.0580597
612.037	0.581432
613.769	-0.0631714
615.501	0.0733814
617.234	1.05777
618.966	0.62022
620.696	0.134697
622.427	0.333057
624.159	-0.0880222
625.887	-0.0287495
627.618	0.557915
629.348	0.190126
631.076	0.261417
632.806	1.09031
634.535	-0.566029
636.262	0.698084
637.99	0.0407047
639.716	0.335777
641.444	0.714926
643.172	0.335855
644.897	-0.227438
646.624	0.0299168
648.348	0.495827
650.075	0.0141907
651.801	0.450323
653.524	0.259108
655.249	0.0979347
656.972	1.14841
658.697	0.128744
660.419	0.269594
662.143	0.795254
663.865	0.0364342
665.588	0.825993
667.309	-0.675182
669.032	0.428844
670.752	0.00248718
672.474	-0.305376
674.194	0.0788689
675.915	0.170454
677.634	-0.606987
679.355	0.107176
681.073	-0.0532227
682.793	-0.356009
684.511	0.256882
686.23	0.12887
687.947	-0.0257778
689.664	-0.136831
691.382	0.165062
693.098	0.327303
694.816	-0.0189762
696.531	-0.436476
698.247	-0.396034
699.963	0.285801
701.678	0.642382
703.392	0.375816
705.108	-0.00691223
706.821	0.0687332
708.534	0.831184
710.249	0.170912
711.962	0.747095
713.674	0.841211
715.388	0.0205879
717.099	0.571178
718.81	0.756004
720.523	0.0520115
722.234	-0.559315
723.944	1.19659
725.654	0.880581
727.365	0.950453
729.075	-0.0699215
730.784	0.225388
732.492	0.247496
734.202	1.10611
735.91	0.900949
737.618	0.222879
739.325	1.37485
741.034	0.363226
742.741	0.324457
744.447	0.356319
746.153	0.0312691
747.859	0.429432
749.564	0.67297
751.271	0.514524
752.976	1.41626
754.681	0.74662
756.385	0.710188
758.088	0.0918026
759.792	0.850336
761.495	0.733084
763.2	1.02296
764.902	0.635181
766.604	0.425043
768.306	1.74778
770.008	1.43837
771.709	1.32772
773.41	1.39483
775.11	2.3428
776.811	1.84502
778.51	2.36784
780.21	2.28378
781.909	1.50093
783.608	1.84939
785.307	1.22194
787.005	1.42651
788.703	2.03115
790.401	0.501574
792.098	1.45416
793.795	1.13714
795.492	0.572107
797.188	1.11451
798.884	1.05178
800.58	1.44336
802.276	1.18532
803.971	0.186853
805.665	1.43673
807.36	1.85224
809.054	0.468143
810.748	0.766239
812.441	1.75696
814.135	0.795673
815.826	2.00687
817.518	1.13583
819.21	1.89781
820.902	1.65413
822.594	1.23327
824.285	1.41693
825.976	2.16075
827.665	2.95355
829.355	1.72607
831.045	2.02026
832.735	1.9202
834.424	1.26765
836.111	0.839649
837.8	2.03989
839.488	1.36299
841.177	0.726589
842.864	1.58388
844.55	0.25061
846.237	1.93593
847.924	0.943344
849.61	0.917509
851.295	1.05409
852.98	1.06082
854.666	1.24917
856.349	1.25776
858.034	0.117054
859.719	2.0536
861.403	1.93957
863.085	0.447359
864.769	0.84416
866.452	0.833389
868.133	0.821232
869.816	0.334438
871.498	1.83187
873.179	1.09585
874.86	1.44255
876.54	0.977034
878.221	1.73025
879.902	0.948473
881.58	1.47507
883.26	0.803492
884.938	0.648642
886.618	1.12254
888.297	2.35957
889.974	1.56224
891.653	1.30311
893.329	1.37904
895.007	1.22704
896.683	1.32011
898.36	1.59023
900.035	0.66881
901.712	1.11421
903.387	0.6847
905.063	0.68041
906.737	1.39103
908.412	1.70018
910.085	-0.594435
911.76	1.12189
913.433	0.258598
915.107	1.15173
916.779	0.357561
918.452	0.406841
920.124	1.16489
921.797	0.286051
923.467	1.00288
925.138	1.50178
926.81	1.54099
928.48	1.40775
930.151	-0.0023098
931.82	1.65655
933.489	0.888987
935.16	0.938213
936.828	0.150488
938.496	-0.260098
940.165	0.699644
941.833	0.824291
943.5	1.45826
945.168	1.16512
946.834	0.891165
948.5	0.0609684
950.168	0.219711
951.834	0.110954
953.499	0.134956
955.163	0.0746078
956.83	0.638315
958.494	0.482105
960.158	-0.72718
961.821	0.0755062
963.487	0.0610619
965.15	0.0425491
966.812	-0.159233
968.474	-0.212629
970.138	0.658415
971.8	0.620455
973.461	-0.367115
975.123	0.285448
976.783	0.256855
978.446	-0.144257
980.106	0.053421
981.766	0.250227
983.425	0.355335
985.084	0.920704
986.743	1.28173
988.402	1.21786
990.06	1.06263
991.72	0.928167
993.378	1.25739
995.035	1.63068
996.692	0.371412
998.349	1.45065
1000.01	1.86704
1001.66	1.48921
1003.32	2.80528
1004.97	0.930202
1006.63	2.04607
1008.28	0.613569
1009.94	0.522484
1011.59	0.191439
1013.25	0.650925
1014.9	0.760445
1016.55	0.279869
1018.21	0.0417938
1019.86	0.768269
1021.51	0.381813
1023.16	1.17865
1024.81	0.578928
1026.47	0.898588
1028.12	1.72075
1029.77	0.465736
1031.42	1.69801
1033.07	1.0262
1034.72	2.11818
1036.37	3.44509
1038.02	2.11033
1039.67	2.71481
1041.31	3.47254
1042.96	3.66771
1044.61	2.41189
1046.26	3.96407
1047.91	3.17538
1049.55	2.69527
1051.2	3.39135
1052.84	2.96015
1054.49	2.87746
1056.14	2.16444
1057.78	2.90694
1059.43	1.75683
1061.07	2.23568
1062.72	2.16898
1064.36	2.53478
1066	2.20212
1067.65	2.10591
1069.29	1.37728
1070.93	1.25573
1072.58	1.32944
1074.22	1.68653
1075.86	1.59063
1077.5	1.43319
1079.14	1.49584
1080.78	1.49537
1082.42	0.931036
1084.06	0.841534
1085.7	0.574642
1087.34	1.47291
1088.98	1.28238
1090.62	1.41235
1092.26	1.60402
1093.9	1.83737
1095.54	2.39453
1097.17	1.25011
1098.81	0.412685
1100.45	1.36746
1102.09	1.53009
1103.72	1.22393
1105.36	0.856682
1106.99	1.65232
1108.63	1.26419
1110.27	1.28191
1111.9	1.10223
1113.53	1.90678
1115.17	0.625034
1116.8	1.74621
1118.43	1.02272
1120.07	0.944717
1121.7	1.10494
1123.33	1.09654
1124.97	2.22461
1126.6	3.1832
1128.23	2.43277
1129.86	2.17632
1131.49	1.62217
1133.12	0.684114
1134.75	0.13063
1136.38	0.259649
1138.01	1.26209
1139.64	0.509478
1141.27	0.203411
1142.9	0.25927
1144.53	0.571461
1146.16	0.117764
1147.78	0.604507
1149.41	-0.483385
1151.04	0.113113
1152.67	-0.206316
1154.29	-0.377369
1155.92	0.81284
1157.54	-0.636053
1159.17	0.277802
1160.8	0.534216
1162.42	-0.227179
1164.05	0.0558186
1165.67	0.21246
1167.29	0.729877
1168.92	0.0752563
1170.54	1.09577
1172.16	0.0924988
1173.79	0.720789
1175.41	-0.139791
1177.03	-0.618595
1178.65	-0.121696
1180.28	-0.068224
1181.9	-0.30871
1183.52	0.234921
1185.14	-0.193966
1186.76	0.621113
1188.38	0.77688
1190	-0.105255
1191.62	1.15713
1193.24	0.646748
1194.86	0.198828
1196.47	0.0459061
1198.09	1.3195
1199.71	0.796125
1201.33	0.864868
1202.95	1.19081
1204.56	1.56477
1206.18	1.77704
1207.8	0.845184
1209.41	0.957127
1211.03	1.27549
1212.64	1.9229
1214.26	1.91804
1215.87	1.59514
1217.49	2.01713
1219.1	2.228
1220.71	2.39677
1222.33	1.88282
1223.94	2.57486
1225.55	1.98621
1227.16	2.1679
1228.78	2.27034
1230.39	2.95494
1232	2.75355
1233.61	1.9561
1235.22	2.5674
1236.83	2.72721
1238.44	4.02679
1240.05	3.65378
1241.66	3.65337
1243.27	3.7141
1244.88	3.89692
1246.49	3.35279
1248.1	4.44068
1249.71	4.32639
1251.32	3.65285
1252.92	3.35249
1254.53	5.10187
1256.14	4.124
1257.74	4.12165
1259.35	4.28802
1260.96	3.73235
1262.56	3.94376
1264.17	5.19117
1265.77	3.95155
1267.38	4.42968
1268.98	3.93101
1270.59	5.15041
1272.19	4.729
1273.79	4.32556
1275.4	4.64505
1277	5.27267
1278.6	6.2705
1280.21	4.73977
1281.81	4.69975
1283.41	5.92205
1285.01	5.34592
1286.61	6.07514
1288.21	5.6909
1289.81	5.0614
1291.41	6.54109
1293.01	7.58625
1294.61	6.7077
1296.21	7.82898
1297.81	6.71521
1299.41	6.93876
1301.01	7.52872
1302.6	7.55799
1304.2	6.67899
1305.8	6.64252
1307.4	7.77521
1308.99	6.44303
1310.59	6.46628
1312.19	7.00241
1313.78	6.39452
1315.38	6.60794
1316.97	6.6196
1318.57	6.71441
1320.16	5.85054
1321.76	6.65561
1323.35	6.64084
1324.94	7.06824
1326.54	5.54202
1328.13	6.02523
1329.72	5.82061
1331.32	5.88398
1332.91	6.55969
1334.5	5.96876
1336.09	6.25075
1337.68	7.17922
1339.27	6.67352
1340.87	6.46573
1342.45	5.54797
1344.04	6.39539
1345.64	6.61554
1347.22	6.43495
1348.81	5.79902
1350.4	6.1118
1351.99	6.73135
1353.58	5.97666
1355.17	5.38596
1356.75	6.01538
1358.34	5.08511
1359.93	6.74869
1361.51	5.87307
1363.1	6.85115
1364.69	6.07291
1366.27	5.55537
1367.86	6.75327
1369.44	5.30619
1371.03	5.19731
1372.61	5.92799
1374.2	6.22395
1375.78	5.62631
1377.37	5.66559
1378.95	5.14624
1380.53	4.72364
1382.11	5.94866
1383.7	5.04165
1385.28	6.27933
1386.86	5.03134
1388.44	5.61192
1390.02	5.10219
1391.6	4.53577
1393.19	4.96365
1394.77	5.4518
1396.35	5.44344
1397.93	4.85825
1399.51	4.74628
1401.08	5.64192
1402.66	6.11939
1404.24	5.13243
1405.82	4.74118
1407.4	5.93377
1408.97	5.1323
1410.55	5.81407
1412.13	4.95506
1413.71	6.28598
1415.28	5.91647
1416.86	6.82677
1418.43	6.21749
1420.01	6.59486
1421.59	7.30973
1423.16	6.47366
1424.73	6.1149
1426.31	7.57041
1427.88	7.76773
1429.46	8.65306
1431.03	8.33498
1432.6	8.91871
1434.18	9.51899
1435.75	9.17365
1437.32	12.1322
1438.89	12.4774
1440.46	12.1184
1442.04	11.0354
1443.61	10.1315
1445.18	11.2531
1446.75	11.884
1448.32	11.2574
1449.89	10.9659
1451.46	10.9117
1453.03	11.3509
1454.6	10.316
1456.16	10.9923
1457.73	10.5252
1459.3	11.2151
1460.87	10.1678
1462.44	10.7085
1464	9.45428
1465.57	8.19804
1467.14	7.45293
1468.7	7.96622
1470.27	6.93138
1471.83	6.31248
1473.4	6.50098
1474.96	5.29928
1476.53	4.90289
1478.09	5.95756
1479.66	5.11041
1481.22	5.55675
1482.78	4.29781
1484.35	4.58676
1485.91	4.32609
1487.47	5.57141
1489.04	4.58047
1490.6	4.01596
1492.16	2.58634
1493.72	3.65377
1495.28	4.01208
1496.84	3.66543
1498.4	3.14403
1499.96	3.15014
1501.52	3.41131
1503.08	3.98521
1504.64	3.72716
1506.2	2.94755
1507.76	2.76723
1509.32	2.52669
1510.88	3.65371
1512.44	3.29199
1513.99	2.83409
1515.55	2.89679
1517.11	3.07608
1518.66	2.22148
1520.22	3.28563
1521.78	3.52521
1523.33	3.5149
1524.89	2.92982
1526.44	2.68682
1528	2.97525
1529.55	2.78625
1531.11	2.82563
1532.66	3.62458
1534.21	2.58707
1535.77	3.59725
1537.32	3.304
1538.87	3.16407
1540.43	4.2132
1541.98	3.86658
1543.53	3.55799
1545.08	3.90746
1546.63	3.86127
1548.18	3.19563
1549.74	4.8178
1551.29	4.11552
1552.84	4.18291
1554.39	4.19659
1555.94	3.61627
1557.48	3.78779
1559.03	4.20669
1560.58	4.08921
1562.13	5.26297
1563.68	4.63002
1565.23	4.94997
1566.78	5.97931
1568.32	4.7312
1569.87	4.76973
1571.42	6.03925
1572.96	5.21737
1574.51	4.7124
1576.05	5.40221
1577.6	5.62588
1579.14	5.36527
1580.69	5.38632
1582.24	4.38224
1583.78	6.16335
1585.32	4.84522
1586.87	5.26605
1588.41	5.53788
1589.95	5.67831
1591.5	5.64915
1593.04	5.63743
1594.58	5.30651
1596.12	6.62433
1597.67	5.82621
1599.21	6.47299
1600.75	7.17848
1602.29	6.66587
1603.83	6.43423
1605.37	5.95617
1606.91	6.52645
1608.45	7.37354
1609.99	6.74827
1611.53	5.89149
1613.07	5.6687
1614.6	6.53132
1616.14	6.86665
1617.68	5.8534
1619.22	5.46261
1620.75	5.99369
1622.29	6.20973
1623.83	5.17347
1625.37	5.16694
1626.9	5.04605
1628.44	5.87595
1629.97	4.96247
1631.51	5.1873
1633.04	5.29885
1634.58	5.05643
1636.11	5.26412
1637.65	6.23859
1639.18	6.43088
1640.72	5.91484
1642.25	5.45333
1643.78	5.73413
1645.31	6.9046
1646.85	7.08555
1648.38	6.72662
1649.91	6.77781
1651.44	6.88727
1652.97	6.53627
1654.5	5.52104
1656.03	6.78775
1657.56	6.62666
1659.1	6.44499
1660.62	6.75976
1662.15	5.59036
1663.68	6.52693
1665.21	6.61098
1666.74	5.40412
1668.27	5.43744
1669.8	5.34551
1671.32	4.50201
1672.85	4.76689
1674.38	4.62754
1675.91	4.00888
1677.43	4.4928
1678.96	4.51368
1680.49	3.57589
1682.01	3.97866
1683.54	3.29679
1685.06	3.79036
1686.59	4.1191
1688.11	2.74407
1689.64	2.89181
1691.16	2.89346
1692.68	3.00504
1694.21	2.12861
1695.73	1.54513
1697.25	2.67914
1698.78	2.02149
1700.3	2.49503
1701.82	1.81776
1703.34	1.17654
1704.86	2.11921
1706.39	2.24054
1707.91	1.77929
1709.43	0.810085
1710.95	1.13113
1712.47	1.61518
1713.99	1.13858
1715.51	1.24212
1717.02	1.83364
1718.54	1.17686
1720.06	1.94747
1721.58	0.804773
1723.1	0.854977
1724.62	1.05144
1726.13	1.32263
1727.65	1.32655
1729.17	0.846735
1730.68	1.19487
1732.2	1.41189
1733.72	0.676641
1735.23	0.710236
1736.75	0.920279
1738.26	1.0941
1739.78	1.50594
1741.29	0.805483
1742.81	1.29871
1744.32	1.68393
1745.84	0.766563
1747.35	0.29315
1748.86	0.277388
1750.37	0.77354
1751.89	0.368948
1753.4	-0.0800781
1754.91	-0.0549831
1756.42	0.375765
1757.93	0.323196
1759.45	0.791565
1760.96	0.347782
1762.47	-0.0613766
1763.98	0.0958862
1765.49	0.682796
1767	0.60697
1768.51	0.0922108
1770.02	0.553596
1771.53	0.450939
1773.03	0.149101
1774.54	-0.0164909
1776.05	0.210733
1777.56	-0.0642796
1779.07	-0.0228977
1780.57	0.271061
1782.08	-0.1278
1783.59	0.184248
1785.09	0.434349
1786.6	0.260725
1788.11	0.230824
1789.61	-0.0533562
1791.12	0.226851
1792.62	-0.195133
1794.13	0.128912
1795.63	0.4461
1797.13	0.245911
1798.64	0.0204201
1800.14	0.321716
1801.65	0.411295
1803.15	0.0723343
1804.65	-0.00592995
1806.15	-0.0975876
1807.66	0.0857105
1809.16	0.157787
1810.66	-0.261496
1812.16	-0.107592
1813.66	0.26194
1815.16	-0.594538
1816.66	-0.0602894
1818.16	-0.0607338
1819.66	-0.312342
1821.16	0.0531025
1822.66	-0.0233612
1824.16	0.0925407
1825.66	-0.0630741
1827.16	-0.164198
1828.66	0.0152283
1830.16	0.427586
1831.65	0.752825
1833.15	-0.407068
1834.65	-0.0697746
1836.14	-0.0475044
1837.64	0.0904102
1839.14	0.34046
1840.63	0.255377
1842.13	0.213093
1843.62	0.0717812
1845.12	-0.0426006
1846.61	0.232986
1848.11	-0.427828
1849.6	0.11211
1851.1	0.310957
1852.59	0.224442
1854.08	-0.175083
1855.58	0.0285816
1857.07	0.0457802
1858.56	-0.592192
1860.05	0.0812836
1861.55	0.0389919
1863.04	0.0889912
1864.53	-0.195524
1866.02	0.0845623
1867.51	0.119909
1869	0.174393
1870.49	-0.172686
1871.98	-0.28545
1873.47	0.60531
1874.96	0.530966
1876.45	-0.42877
1877.94	0.167751
1879.43	-0.056839
1880.92	-0.566877
1882.41	0.717827
1882.51	0.814825
1884	0.379824
1885.5	-0.195902
1886.99	0.0805664
1888.48	-0.183949
1889.98	-0.0302868
1891.47	0.246887
1892.96	0.266287
1894.46	-0.266989
1895.95	0.193842
1897.44	0.778252
1898.93	0.771242
1900.42	0.188015
1901.91	-0.172363
1903.41	0.368176
1904.9	-0.311481
1906.39	0.536842
1907.88	-0.317616
1909.37	-0.146002
1910.86	0.235516
1912.35	-0.196701
1913.83	0.742521
1915.32	0.190294
1916.81	0.192377
1918.3	-0.777248
1919.79	0.0721054
1921.27	0.123924
1922.76	0.0552807
1924.25	0.0749512
1925.74	-0.0070076
1927.22	0.467134
1928.71	0.665642
1930.19	-0.22682
1931.68	0.143154
1933.17	-0.00926399
1934.65	0.319521
1936.14	0.800331
1937.62	0.932283
1939.11	-0.12916
1940.59	-0.946917
1942.07	0.274292
1943.56	-0.107872
1945.04	-0.125916
1946.52	0.115379
1948.01	0.717955
1949.49	0.577814
1950.97	-0.0979996
1952.45	0.13707
1953.93	0.525408
1955.42	0.534975
1956.9	0.631157
1958.38	0.282375
1959.86	0.673059
1961.34	-0.61591
1962.82	0.050539
1964.3	-0.0891857
1965.78	0.866192
1967.26	0.278774
1968.74	0.563026
1970.21	0.24744
1971.69	0.427063
1973.17	0.0601082
1974.65	0.478426
1976.13	0.0442963
1977.6	0.0879936
1979.08	0.0126648
1980.56	-0.521902
1982.03	0.490759
1983.51	0.108513
1984.99	-0.341759
1986.46	-0.435675
1987.94	-0.224455
1989.41	-0.0637779
1990.89	0.114895
1992.36	-0.0092411
1993.84	0.122292
1995.31	0.525723
1996.78	0.0850735
1998.26	0.641045
1999.73	0.706165
2001.2	0.246857
2002.68	0.444756
2004.15	0.422997
2005.62	0.317661
2007.09	-0.0387745
2008.56	0.0783501
2010.04	0.483328
2011.51	-0.188097
2012.98	0.487249
2014.45	0.370609
2015.92	0.403879
2017.39	0.418472
2018.86	0.834831
2020.33	0.728775
2021.8	0.337019
2023.26	0.44985
2024.73	0.346022
2026.2	0.177513
2027.67	-0.0719643
2029.14	0.234987
2030.61	-0.3277
2032.07	0.15163
2033.54	0.330067
2035.01	-0.0455875
2036.47	-0.623823
2037.94	1.11541
2039.4	0.266394
2040.87	-0.230095
2042.33	-0.255308
2043.8	0.259132
2045.27	0.456015
2046.73	0.301052
2048.19	0.449739
2049.66	0.513662
2051.12	0.289011
2052.59	-0.309885
2054.05	0.807825
2055.51	1.44967
2056.97	0.436264
2058.44	0.854256
2059.9	0.631491
2061.36	0.359188
2062.82	-0.0796623
2064.28	0.476595
2065.74	0.462542
2067.21	-0.0378666
2068.67	0.102377
2070.13	0.159096
2071.59	0.468483
2073.05	0.255693
2074.51	0.598021
2075.96	1.10812
2077.42	0.489204
2078.88	0.341002
2080.34	1.10119
2081.8	0.193279
2083.26	1.11913
2084.72	0.528494
2086.17	0.104988
2087.63	0.521313
2089.09	0.482643
2090.54	0.645163
2092	-0.502148
2093.45	1.28801
2094.91	0.627224
2096.37	0.686907
2097.82	0.510691
2099.28	0.96944
2100.73	0.841526
2102.19	0.797779
2103.64	0.505257
2105.09	0.566097
2106.55	1.26359
2108	0.678549
2109.45	0.694788
2110.91	0.476587
2112.36	1.08911
2113.81	1.13135
2115.26	0.621166
2116.72	0.924631
2118.17	1.26139
2119.62	0.820179
2121.07	1.37871
2122.52	0.812973
2123.97	1.41117
2125.42	0.800146
2126.87	1.13378
2128.32	0.968035
2129.77	1.46245
2131.22	1.55631
2132.67	0.738022
2134.11	1.07859
2135.56	1.60222
2137.01	1.03747
2138.46	1.69959
2139.91	1.58874
2141.35	1.89445
2142.8	1.55787
2144.25	1.93373
2145.7	2.52534
2147.14	1.84194
2148.59	2.018
2150.03	1.82791
2151.48	2.39789
2152.92	2.28655
2154.37	2.04095
2155.81	3.20259
2157.26	1.91251
2158.7	2.36331
2160.15	2.76716
2161.59	2.99257
2163.03	3.35472
2164.47	2.75839
2165.92	2.44527
2167.36	2.81271
2168.8	3.2117
2170.24	3.24143
2171.69	3.56608
2173.13	2.85513
2174.57	2.67361
2176.01	4.15391
2177.45	3.5058
2178.89	3.00913
2180.33	3.69501
2181.77	3.36861
2183.21	2.91039
2184.65	3.25098
2186.09	3.85802
2187.53	3.25071
2188.97	2.82631
2190.4	3.30056
2191.84	2.85876
2193.28	2.73164
2194.72	2.61839
2196.16	2.60127
2197.59	3.06248
2199.03	3.30334
2200.47	2.31206
2201.9	2.21845
2203.34	2.25904
2204.77	2.30182
2206.21	2.31357
2207.64	1.99509
2209.08	2.23956
2210.51	1.7705
2211.95	1.86232
2213.38	1.78719
2214.82	1.94312
2216.25	1.95148
2217.68	1.91266
2219.12	2.20625
2220.55	1.44633
2221.98	1.34641
2223.41	1.93711
2224.85	1.48706
2226.28	1.42903
2227.71	0.858091
2229.14	1.40249
2230.57	1.66525
2232	1.30427
2233.43	1.27202
2234.86	1.04509
2236.29	0.673899
2237.72	0.845098
2239.15	1.5093
2240.58	1.11678
2242.01	1.18471
2243.44	0.309134
2244.87	1.13058
2246.29	1.46145
2247.72	1.0389
2249.15	0.824255
2250.58	1.2571
2252.01	0.676546
2253.43	0.0465679
2254.86	0.393114
2256.29	-0.00498199
2257.71	0.607882
2259.14	0.917614
2260.56	0.697685
2261.99	-0.0856895
2263.41	0.546164
2264.84	0.724384
2266.26	1.09723
2267.69	1.27367
2269.11	0.21155
2270.53	1.13323
2271.96	1.02855
2273.38	0.825737
2274.8	0.655573
2276.23	0.420561
2277.65	1.09846
2279.07	0.13031
2280.49	0.319311
2281.91	0.133022
2283.34	-0.0861416
2284.76	0.184206
2286.18	0.308197
2287.6	0.743189
2289.02	1.163
2290.44	0.750589
2291.86	0.0768471
2293.28	0.0242348
2294.7	0.266029
2296.12	0.0659237
2297.54	0.438684
2298.96	0.549732
2300.37	0.153152
2301.79	0.166685
2303.21	0.295618
2304.63	0.0146236
2306.04	0.882824
2307.46	0.601034
2308.88	0.613823
2310.3	0.296577
2311.71	0.093483
2313.13	0.383804
2314.54	0.790295
2315.96	0.424606
2317.37	0.900318
2318.79	0.141106
2320.2	-0.338987
2321.62	0.300468
2323.03	0.0125008
2324.45	0.611256
2325.86	0.941408
2327.27	0.50939
2328.69	-0.0555286
2330.1	0.335855
2331.51	-0.35807
2332.92	0.152061
2334.34	0.104105
2335.75	0.0566635
2337.16	0.468899
2338.57	0.451542
2339.98	-0.307467
2341.39	0.312025
2342.8	0.355345
2344.21	0.49692
2345.63	0.212713
2347.04	0.388035
2348.45	0.579578
2349.85	0.00129128
2351.26	0.174271
2352.67	0.149094
2354.08	0.154776
2355.49	0.468809
2356.9	-0.097723
2358.3	0.524204
2359.71	0.43014
2361.12	0.385162
2362.53	-0.210999
2363.93	0.975447
2365.34	0.185461
2366.75	-0.327742
2368.15	-0.257555
2369.56	-0.637262
2370.97	0.162777
2372.37	0.0621624
2373.77	-0.116938
2375.18	0.284332
2376.59	0.234053
2377.99	0.213926
2379.39	0.062315
2380.8	0.453564
2382.2	0.103634
2383.6	0.217207
2385.01	0.234055
2386.41	0.307512
2387.81	0.382534
2389.21	0.531464
2390.62	0.618866
2392.02	0.50149
2393.42	0.465786
2394.82	0.35223
2396.22	0.240141
2397.62	0.510782
2399.02	0.544064
2400.42	0.657732
2401.82	-0.117502
2403.22	0.219271
2404.62	0.571096
2406.02	0.698849
2407.42	0.332777
2408.82	0.409554
2410.22	0.041748
2411.62	0.546089
2413.01	-0.0886974
2414.41	0.371771
2415.81	-0.273252
2417.21	-0.0133553
2418.6	-0.210865
2420	0.0356884
2421.4	-0.0663548
2422.79	0.131897
2424.19	0.123686
2425.59	-0.280598
2426.98	0.409525
2428.38	0.768711
2429.77	-0.0119076
2431.17	0.255358
2432.56	0.586687
2433.95	0.774357
2435.35	0.435711
2436.74	0.300579
2438.14	0.384912
2439.53	-0.121037
2440.92	0.721321
2442.31	0.307962
2443.71	0.259306
2445.1	-0.202061
2446.49	0.478176
2447.88	0.206701
2449.27	-0.00121689
2450.67	-0.176874
2452.06	0.0917549
2453.45	-0.0655537
2454.84	-0.237011
2456.23	0.320541
2457.62	-0.370993
2459.01	0.155161
2460.4	-0.15806
2461.79	-0.377821
2463.18	-0.251219
2464.57	0.442951
2465.95	-0.190626
2467.34	-0.00300789
2468.73	-0.415249
2470.12	0.33955
2471.5	0.115429
2472.89	-0.0467396
2474.28	0.325079
2475.67	0.0816021
2477.05	-0.0364876
2478.44	0.63072
2479.82	0.324245
2481.21	0.28512
2482.6	0.167583
2483.98	0.503313
2485.37	0.0390968
2486.75	0.011097
2488.13	0.246332
2489.52	-0.143852
2490.9	-0.0975494
2492.29	0.586908
2493.67	-0.172237
2495.05	0.28266
2496.44	0.212162
2497.82	0.406715
2499.2	0.338388
2500.58	-0.132643
2501.97	0.291954
2503.35	0.0345287
2504.73	-0.347519
2506.11	0.0558701
2507.49	0.319345
2508.87	0.21348
2510.25	-0.106377
2511.63	-0.224937
2513.01	-0.341862
2514.39	-0.0281448
2515.77	0.0571423
2517.15	0.587385
2518.53	-0.181458
2519.91	0.930372
2521.29	0.528503
2522.67	0.873707
2524.05	0.54565
2525.42	0.0337791
2526.8	-0.310297
2528.18	0.168541
2529.55	-0.111544
2530.93	0.0827675
2532.31	0.325701
2533.69	0.586353
2535.06	-0.108767
2536.44	-0.181044
2537.81	0.535355
2539.19	-0.269096
2540.56	0.00328255
2541.94	-0.210924
2543.31	0.258247
2544.69	0.759089
2546.06	0.124584
2547.44	0.554222
2548.81	-0.000545502
2550.18	0.704103
2551.56	0.49745
2552.93	0.50144
2554.3	0.290947
2555.67	0.427702
2557.04	0.13859
2558.42	0.289085
2559.79	0.333851
2561.16	0.561474
2562.53	0.244684
2563.9	0.110889
2565.27	0.0233669
2566.64	0.451536
2568.01	0.425245
2569.38	0.110975
2570.75	0.524178
2572.12	0.785887
2573.49	-0.543877
2574.86	0.460913
2576.23	0.904949
2577.6	0.408823
2578.97	1.24652
2580.33	0.203302
2581.7	0.053894
2583.07	0.767965
2584.44	0.389896
2585.8	0.0875645
2587.17	0.285656
2588.54	-0.455592
2589.9	0.83416
2591.27	0.335358
2592.64	0.563015
2594	0.804152
2595.37	0.558514
2596.73	-0.430662
2598.1	0.0924568
2599.46	0.538616
2600.83	0.198675
2602.19	0.177177
2603.55	0.760775
2604.92	0.575392
2606.28	1.08441
2607.64	0.506714
2609.01	0.123779
2610.37	0.401678
2611.73	0.541128
2613.09	0.933647
2614.46	0.0620022
2615.82	0.452078
2617.18	0.58692
2618.54	0.602831
2619.9	0.365808
2621.26	-0.407719
2622.62	0.0311356
2623.98	-0.172279
2625.34	0.683926
2626.7	0.10689
2628.06	0.0962486
2629.42	-0.257459
2630.78	0.876759
2632.14	0.120913
2633.5	0.688154
2634.86	0.823975
2636.21	0.0548477
2637.57	0.0278034
2638.93	0.533886
2640.29	0.32929
2641.64	0.702028
2643	0.794052
2644.36	0.487654
2645.71	0.874866
2647.07	0.464649
2648.43	0.613411
2649.78	1.03987
2651.14	0.567299
2652.49	0.594343
2653.85	0.70974
2655.2	0.928946
2656.56	0.373697
2657.91	0.567923
2659.26	0.880693
2660.62	0.111946
2661.97	0.205904
2663.32	0.517679
2664.68	0.185204
2666.03	0.7414
2667.38	0.68364
2668.74	0.815033
2670.09	0.452032
2671.44	0.337715
2672.79	0.457239
2674.14	0.534237
2675.49	0.989635
2676.84	-0.164715
2678.19	0.176891
2679.54	0.41836
2680.89	0.0963116
2682.24	0.269495
2683.59	0.256477
2684.94	0.25979
2686.29	0.858904
2687.64	0.471106
2688.99	0.385656
2690.34	0.340443
2691.69	0.857698
2693.03	0.747671
2694.38	0.954765
2695.73	0.190212
2697.08	0.383614
2698.42	0.62277
2699.77	1.03886
2701.12	1.18332
2702.46	1.01221
2703.81	0.654728
2705.15	1.48674
2706.5	1.14479
2707.85	1.45495
2709.19	1.09674
2710.54	1.33285
2711.88	1.56853
2713.22	0.990297
2714.57	1.06565
2715.91	1.51893
2717.26	1.69581
2718.6	1.0721
2719.94	1.10212
2721.29	0.374435
2722.63	2.09079
2723.97	1.52114
2725.31	1.75107
2726.66	1.26697
2728	1.93199
2729.34	1.78141
2730.68	2.1398
2732.02	1.55234
2733.36	1.08154
2734.7	0.523888
2736.04	0.112146
2737.38	1.22779
2738.72	1.13619
2740.06	1.23311
2741.4	0.572927
2742.74	1.01648
2744.08	0.208542
2745.42	0.823591
2746.76	0.682121
2748.09	0.525858
2749.43	0.906599
2750.77	0.562241
2752.11	1.016
2753.45	0.281485
2754.78	0.996582
2756.12	0.567259
2757.46	0.57288
2758.79	0.332886
2760.13	0.614763
2761.46	1.02773
2762.8	0.26952
2764.14	0.0328941
2765.47	0.432873
2766.8	0.383406
2768.14	0.201937
2769.47	0.220465
2770.81	0.539576
2772.14	0.610006
2773.48	0.360777
2774.81	0.629831
2776.14	0.552599
2777.48	0.418598
2778.81	0.372189
2780.14	0.125675
2781.47	-0.0624409
2782.8	0.108627
2784.14	0.379711
2785.47	-0.109232
2786.8	-0.0099659
2788.13	-0.181852
2789.46	-0.0516109
2790.79	-0.234398
2792.12	0.213539
2793.45	-0.224123
2794.78	-0.032671
2796.11	-0.227747
2797.44	0.133284
2798.77	0.164536
2800.1	0.60878
2801.43	0.181875
2802.76	0.0971794
2804.09	0.42531
2805.41	0.59552
2806.74	0.308811
2808.07	0.41943
2809.4	0.770628
2810.72	0.439663
2812.05	0.947645
2813.38	0.010643
2814.71	0.707792
2816.03	0.741278
2817.36	0.86211
2818.68	1.1259
2820.01	0.0857582
2821.33	0.717192
2822.66	1.12041
2823.98	1.25298
2825.31	1.4414
2826.63	1.559
2827.96	1.55023
2829.28	2.37792
2830.6	2.41379
2831.93	2.3369
2833.25	2.89688
2834.57	3.42778
2835.9	3.7593
2837.22	4.72617
2838.54	5.57838
2839.86	6.99528
2841.18	8.17136
2842.5	8.92402
2843.83	10.0598
2845.15	11.4237
2846.47	12.0264
2847.79	12.5454
2849.11	12.1176
2850.43	12.9044
2851.75	12.7003
2853.07	12.3251
2854.39	12.6412
2855.71	13.3805
2857.03	12.6927
2858.35	12.5703
2859.66	13.5777
2860.98	13.0593
2862.3	14.1778
2863.62	14.2502
2864.94	13.9407
2866.25	14.8163
2867.57	14.973
2868.89	15.4836
2870.2	16.1081
2871.52	16.7047
2872.84	16.8494
2874.15	17.5693
2875.47	18.2572
2876.78	19.9687
2878.1	20.9017
2879.41	22.564
2880.73	23.2557
2882.04	22.8259
2883.36	21.8105
2884.67	21.5435
2885.99	19.8048
2887.3	18.7548
2888.61	18.3774
2889.93	18.0398
2891.24	17.2931
2892.55	18.3812
2893.86	17.0582
2895.18	18.048
2896.49	18.0598
2897.8	18.6627
2899.11	18.4152
2900.42	18.1844
2901.73	18.3609
2903.05	18.9856
2904.36	18.9394
2905.67	18.7263
2906.98	19.5221
2908.29	19.9429
2909.6	19.9748
2910.91	20.3165
2912.21	20.3364
2913.52	20.844
2914.83	21.4173
2916.14	22.4751
2917.45	21.778
2918.76	21.7217
2920.07	22.5881
2921.37	23.3442
2922.68	23.6008
2923.99	23.2888
2925.29	23.9312
2926.6	24.1843
2927.91	24.0462
2929.22	23.3617
2930.52	24.465
2931.83	24.3924
2933.13	23.5363
2934.44	25.7413
2935.74	24.1868
2937.05	24.2264
2938.35	23.7914
2939.66	22.9523
2940.96	22.7297
2942.26	22.5936
2943.57	20.7144
2944.87	20.7398
2946.18	20.0137
2947.48	19.0372
2948.78	17.9613
2950.08	17.5816
2951.39	16.4826
2952.69	16.8627
2953.99	16.1047
2955.29	16.6898
2956.59	16.1296
2957.9	15.0572
2959.2	15.1959
2960.5	14.9643
2961.8	14.4157
2963.1	13.9528
2964.4	13.2212
2965.7	13.1452
2967	12.292
2968.3	12.6298
2969.6	12.1222
2970.9	11.5578
2972.19	10.8815
2973.49	10.7125
2974.79	10.642
2976.09	9.72534
2977.39	10.1149
2978.68	8.76853
2979.98	9.38923
2981.28	9.17617
2982.58	8.34313
2983.87	8.08814
2985.17	8.10313
2986.47	6.84319
2987.76	6.85176
2989.06	6.14618
2990.35	5.46942
2991.65	5.55063
2992.94	5.65776
2994.24	5.5935
2995.53	4.16437
2996.83	4.06866
2998.12	4.14112
2999.42	3.33052
3000.71	3.65767
3002	3.32726
3003.3	3.23642
3004.59	2.8799
3005.88	2.7333
3007.18	2.19377
3008.47	1.62521
3009.76	1.75478
3011.05	1.24012
3012.34	1.40968
3013.64	1.31412
3014.93	1.23372
3016.22	1.09938
3017.51	0.604998
3018.8	0.877792
3020.09	1.13679
3021.38	0.269062
3022.67	0.56773
3023.96	0.350792
3025.25	0.548901
3026.54	0.0262146
3027.83	-0.00998116
3029.12	-0.0160351
3030.41	0.243639
3031.69	0.271452
3032.98	0.177408
3034.27	-0.260651
3035.56	-0.0231142
3036.84	0.11545
3038.13	0.0577917
3039.42	-0.140733
3040.71	-0.121626
3041.99	-0.419709
3043.28	0.187829
3044.57	0.179766
3045.85	-0.262247
3047.14	0.243703
3048.42	0.65835
3049.71	-0.110153
3050.99	0.585252
3052.28	0.436549
3053.56	0.0153618
3054.85	0.6984
3056.13	0.615689
3057.41	0.340351
3058.7	0.622675
3059.98	0.56411
3061.26	0.493065
3062.55	0.56037
3063.83	0.929852
3065.11	0.459799
3066.39	0.210421
3067.68	0.262466
3068.96	0.00291252
3070.24	0.28727
3071.52	0.502378
3072.8	-0.0732222
3074.08	-0.120322
3075.36	0.456305
3076.65	-0.393748
3077.93	0.088378
3079.21	-0.0922852
3080.49	0.0152769
3081.77	0.438181
3083.04	0.429879
3084.32	-0.200809
3085.6	-0.34252
3086.88	0.0446606
3088.16	-0.396958
3089.44	0.219285
3090.72	-0.0470791
3091.99	0.188835
3093.27	-0.171386
3094.55	-0.0151005
3095.83	-0.00699711
3097.1	-0.21513
3098.38	0.0380402
3099.66	0.467505
3100.93	-0.0240545
3102.21	-0.257374
3103.49	0.268611
3104.76	0.687531
3106.04	0.296221
3107.31	0.407917
3108.59	0.846887
3109.86	0.300392
3111.14	0.419432
3112.41	0.852042
3113.69	1.13728
3114.96	0.487782
3116.23	0.868208
3117.51	0.759502
3118.78	1.08337
3120.05	0.836093
3121.33	0.98097
3122.6	1.07105
3123.87	1.22895
3125.14	1.52315
3126.41	1.14188
3127.69	1.38492
3128.96	0.899091
3130.23	1.49647
3131.5	1.22935
3132.77	1.19254
3134.04	1.61498
3135.31	1.1862
3136.58	1.95839
3137.85	1.93387
3139.12	1.7343
3140.39	2.00646
3141.66	2.18499
3142.93	2.06891
3144.2	2.02173
3145.47	2.39248
3146.74	2.75134
3148	3.15185
3149.27	2.99154
