200.388	0.00190419
202.204	0.0277336
204.019	0.0546631
205.832	-0.0148541
207.646	-0.0111277
209.459	-0.0321751
211.274	0.480147
213.087	0.480845
214.899	0.31066
216.711	0.60063
218.524	-0.0543759
220.335	0.284347
222.146	0.236436
223.956	0.165202
225.766	0.481209
227.576	-0.338375
229.388	-0.0468603
231.197	0.7748
233.005	-0.0692161
234.813	-0.04414
236.621	-0.0180396
238.429	-0.038361
240.236	-0.321649
242.045	-0.0726181
243.852	0.225998
245.658	0.500706
247.464	0.170613
249.269	0.369123
251.074	0.299116
252.879	-0.232039
254.683	0.731255
256.487	0.752753
258.291	-0.116747
260.094	-0.0446206
261.897	-0.211762
263.702	-0.208811
265.504	-0.0845152
267.306	0.13651
269.108	0.260894
270.909	0.0952303
272.71	-0.167989
274.511	-0.215505
276.311	-0.264474
278.111	-0.363248
279.91	0.25886
281.709	0.685778
283.508	0.340664
285.306	0.235051
287.105	0.5369
288.9	0.262589
290.698	0.68413
292.495	0.292294
294.291	0.165527
296.088	0.877001
297.884	-0.2514
299.679	0.0788167
301.475	0.480303
303.27	-0.265322
305.064	0.110231
306.858	0.29369
308.652	0.47666
310.444	0.278632
312.237	0.319972
314.03	0.243658
315.822	0.240402
317.615	0.167266
319.406	1.0007
321.198	0.834867
322.987	0.454926
324.778	0.409004
326.568	-0.0905687
328.358	0.197401
330.148	0.222131
331.935	-0.184732
333.724	0.26793
335.513	0.694966
337.301	0.282376
339.089	0.489977
340.875	0.0263409
342.662	0.112101
344.449	0.221555
346.236	0.164099
348.02	0.560912
349.806	-0.235667
351.592	-0.0294583
353.375	-0.134065
355.16	-0.167952
356.944	0.321594
358.728	0.380476
360.51	0.0809731
362.294	0.161796
364.077	0.313115
365.858	0.154647
367.64	0.826495
369.422	0.429169
371.202	0.102901
372.983	0.178921
374.764	0.0180564
376.543	0.0227937
378.324	0.145821
380.102	0.0101921
381.881	0.0405285
383.661	-0.351511
385.438	0.40986
387.216	0.584087
388.993	0.90011
390.771	0.41834
392.548	0.00785981
394.324	-0.0498396
396.101	-0.201185
397.875	0.211154
399.651	0.599888
401.425	0.307063
403.201	0.506909
404.974	0.071907
406.749	-0.269735
408.524	-0.048341
410.296	-0.320309
412.07	-0.240161
413.841	0.027953
415.614	0.507742
417.385	0.425039
419.156	0.507129
420.928	-0.0911826
422.698	-0.00916656
424.469	0.494844
426.238	0.012045
428.009	0.209313
429.777	0.124398
431.548	0.156784
433.315	0.799575
435.083	0.715068
436.852	-0.308257
438.618	0.122932
440.387	0.200839
442.153	-0.215616
443.919	-0.000509182
445.686	0.282993
447.451	0.190449
449.218	0.658832
450.982	-0.11187
452.746	0.192821
454.512	0.380556
456.275	0.00858406
458.038	0.522024
459.803	0.103844
461.565	-0.0574105
463.327	0.015164
465.091	-0.11951
466.852	0.282565
468.613	0.036259
470.374	-0.115649
472.136	-0.127581
473.896	0.139256
475.655	0.241816
477.415	0.855036
479.176	0.488229
480.934	0.167102
482.692	0.0556954
484.45	0.806958
486.21	0.395324
487.967	0.264905
489.724	0.019441
491.481	0.264652
493.237	-0.353636
494.995	0.617336
496.75	0.583476
498.506	0.94758
500.26	0.561491
502.015	0.24456
503.771	0.959824
505.525	0.311844
507.279	-0.0559016
509.032	0.327526
510.785	0.474499
512.537	0.478935
514.289	0.223219
516.041	0.789762
517.793	0.672902
519.546	0.367147
521.297	0.389933
523.047	0.69406
524.797	0.645573
526.547	1.32432
528.297	0.947259
530.046	0.781391
531.795	0.217164
533.543	0.495586
535.291	0.398369
537.039	0.22999
538.787	0.177463
540.534	0.567128
542.281	0.675647
544.027	0.41129
545.773	1.12346
547.519	0.627195
549.264	0.688665
551.01	0.379671
552.754	0.39534
554.499	0.873264
556.243	0.219333
557.987	0.3972
559.73	0.367778
561.474	0.960411
563.216	0.586507
564.959	-0.246054
566.701	0.370167
568.441	-0.0697623
570.182	0.661925
571.923	0.52248
573.664	0.178043
575.405	0.248006
577.145	0.204652
578.885	0.667402
580.624	0.258502
582.361	-0.288588
584.1	0.473784
585.839	0.315994
587.577	-0.119007
589.315	0.181054
591.052	0.388329
592.787	-0.0720938
594.524	0.801756
596.26	0.295182
597.997	0.179696
599.732	0.339991
601.466	-0.58159
603.201	-0.146924
604.936	0.654138
606.67	-0.407877
608.403	-0.114494
610.136	-0.142929
611.87	0.196021
613.603	0.214276
615.334	0.164321
617.067	0.160379
618.799	-0.00428098
620.529	0.0134736
622.26	0.670722
623.991	0.411906
625.72	0.06203
627.451	0.05586
629.181	0.0512432
630.909	0.253883
632.638	0.252834
634.368	0.686352
636.095	0.161053
637.823	0.478908
639.551	0.5662
641.277	0.240322
643.005	0.66489
644.73	0.495589
646.457	0.053792
648.184	0.114254
649.908	0.540706
651.634	0.742996
653.357	0.244108
655.083	0.452599
656.806	-0.24736
658.53	0.328476
660.253	0.266336
661.977	0.499708
663.7	0.777209
665.422	0.618506
667.145	0.93824
668.865	0.639839
670.588	0.479072
672.308	0.640204
674.027	0.620382
675.749	1.03787
677.468	0.401901
679.188	0.591617
680.907	0.642966
682.627	0.3478
684.345	0.925198
686.064	1.20198
687.781	0.717401
689.498	0.623298
691.216	0.758888
692.932	1.19338
694.65	1.00527
696.366	1.06965
698.081	0.902733
699.797	0.711811
701.512	1.00304
703.228	1.06322
704.942	0.571466
706.655	0.699627
708.371	1.12533
710.083	0.702216
711.796	0.851835
713.51	1.59561
715.222	1.46946
716.934	1.22932
718.645	0.898431
720.358	1.73064
722.068	1.69623
723.779	1.41163
725.49	1.1274
727.2	1.07056
728.909	1.46731
730.618	0.956055
732.329	1.28344
734.037	1.31585
735.745	1.55166
737.453	1.58408
739.16	1.16583
740.869	1.44793
742.576	1.21258
744.282	1.22636
745.988	1.30887
747.694	1.39255
749.401	1.18496
751.107	1.29344
752.811	1.42554
754.516	1.28893
756.22	1.53611
757.924	1.85243
759.627	1.24673
761.332	1.38522
763.035	1.00547
764.738	1.61845
766.44	1.39533
768.142	1.306
769.843	1.80263
771.544	1.43826
773.245	2.11278
774.946	1.81446
776.646	1.78793
778.346	2.28261
780.046	1.85159
781.745	1.9191
783.444	2.3942
785.143	2.73275
786.841	2.23157
788.539	2.11233
790.237	2.03538
791.934	1.72999
793.631	1.5817
795.328	1.79431
797.024	1.75937
798.72	1.97367
800.416	1.46905
802.112	1.95613
803.807	2.24105
805.502	1.6489
807.196	1.48349
808.89	1.96849
810.584	1.50927
812.278	2.61959
813.971	1.73344
815.664	1.56492
817.354	2.26901
819.047	2.18972
820.739	1.6641
822.43	1.83135
824.122	2.51186
825.813	2.10089
827.503	2.31592
829.192	2.35519
830.882	2.48637
832.571	2.50891
834.261	2.62268
835.95	1.75622
837.637	1.91519
839.325	1.47045
841.013	2.0068
842.701	2.29646
844.389	1.66955
846.074	1.95932
847.761	1.89305
849.447	2.20923
851.131	1.69968
852.817	1.52716
854.503	1.62438
856.188	1.4971
857.871	1.95318
859.556	1.1485
861.24	1.26428
862.922	1.08593
864.606	1.67258
866.289	0.861106
867.97	1.76236
869.653	1.37806
871.336	1.44447
873.016	0.901589
874.698	1.28359
876.379	1.1241
878.058	0.874295
879.739	1.23381
881.418	1.66083
883.098	0.935923
884.778	0.616483
886.456	1.35679
888.135	1.57641
889.812	0.824762
891.49	1.83059
893.167	1.59522
894.845	1.51666
896.523	0.920237
898.198	0.863132
899.875	1.63533
901.55	0.791864
903.226	0.956937
904.901	1.79191
906.576	1.33033
908.25	1.11565
909.925	1.25852
911.598	1.1794
913.271	0.945467
914.945	1.11196
916.617	1.14511
918.291	1.11164
919.962	1.12261
921.635	1.06764
923.306	0.925295
924.978	0.740304
926.648	1.4623
928.318	1.21404
929.989	0.989062
931.659	1.31637
933.328	1.00408
934.998	1.08905
936.666	1.17436
938.336	1.08395
940.004	1.76652
941.671	0.641443
943.34	1.2597
945.007	0.973251
946.673	1.45838
948.339	0.772058
950.007	1.32018
951.672	0.785871
953.337	0.737106
955.004	0.424974
956.669	0.953021
958.333	1.52811
959.997	0.406703
961.662	0.853383
963.326	0.83649
964.989	0.552822
966.651	0.33314
968.315	0.907677
969.977	0.617573
971.639	0.857646
973.301	0.943155
974.962	0.808701
976.624	0.808446
978.285	1.00856
979.945	1.09876
981.605	1.18871
983.264	1.72032
984.924	1.74108
986.583	1.75991
988.243	0.914207
989.901	1.24015
991.56	1.12314
993.217	0.63061
994.875	0.778888
996.532	0.882969
998.188	1.11921
999.845	1.4211
1001.5	1.12767
1003.16	1.34042
1004.81	1.09074
1006.47	0.643539
1008.12	0.811942
1009.78	1.19982
1011.43	0.973511
1013.09	0.55064
1014.74	0.36955
1016.39	0.539256
1018.05	1.1687
1019.7	0.967141
1021.35	0.591729
1023	0.567188
1024.65	1.06797
1026.31	0.542103
1027.96	0.278592
1029.61	1.01959
1031.26	1.10403
1032.91	1.51449
1034.56	0.788487
1036.21	1.13055
1037.86	1.10101
1039.51	1.59384
1041.16	1.78196
1042.8	1.51452
1044.45	1.37933
1046.1	1.98449
1047.75	1.9831
1049.39	1.04944
1051.04	1.09419
1052.69	0.878995
1054.33	0.185989
1055.98	0.9489
1057.62	0.277134
1059.27	1.03974
1060.91	0.671274
1062.56	0.606548
1064.2	0.519323
1065.85	0.583439
1067.49	0.298884
1069.13	0.187527
1070.77	0.249457
1072.42	0.875583
1074.06	0.872327
1075.7	0.696414
1077.34	0.109656
1078.98	0.846839
1080.62	0.717248
1082.27	0.154009
1083.91	0.392407
1085.55	0.304286
1087.18	0.712946
1088.82	0.44815
1090.46	0.182275
1092.1	0.369848
1093.74	0.470238
1095.38	-0.0767007
1097.02	0.994734
1098.65	0.730078
1100.29	1.13462
1101.93	0.894875
1103.56	0.140545
1105.2	0.656661
1106.84	0.700007
1108.47	0.183992
1110.11	0.312328
1111.74	0.159928
1113.38	0.650812
1115.01	0.624834
1116.64	-0.0237776
1118.28	-0.049717
1119.91	0.16056
1121.54	0.00736677
1123.18	0.368839
1124.81	0.110375
1126.44	0.301946
1128.07	-0.211627
1129.7	0.280459
1131.33	0.0460071
1132.97	0.966233
1134.6	0.261667
1136.23	0.988733
1137.86	0.347107
1139.49	0.174802
1141.11	-0.297076
1142.74	0.0206415
1144.37	0.786009
1146	0.570567
1147.63	-0.0701245
1149.26	0.440758
1150.88	-0.219702
1152.51	0.0997499
1154.14	-0.39022
1155.76	-0.0714575
1157.39	0.119337
1159.01	-0.00875723
1160.64	0.416757
1162.27	0.183913
1163.89	-0.409523
1165.51	0.039292
1167.14	-0.0436043
1168.76	0.595538
1170.39	0.127837
1172.01	0.25377
1173.63	0.356888
1175.25	0.183021
1176.88	0.157366
1178.5	-0.143483
1180.12	-0.147014
1181.74	0.31554
1183.36	0.0381332
1184.98	-0.450189
1186.6	0.0749965
1188.22	-0.0981234
1189.84	0.402037
1191.46	0.183724
1193.08	-0.20348
1194.7	0.291545
1196.32	0.281976
1197.94	0.58724
1199.55	0.433061
1201.17	0.0304135
1202.79	0.465721
1204.41	0.130491
1206.02	-0.286228
1207.64	0.341356
1209.25	0.0720878
1210.87	0.177713
1212.48	0.344508
1214.1	0.488531
1215.71	0.255714
1217.33	0.229846
1218.94	0.0369201
1220.56	0.57086
1222.17	1.00056
1223.79	0.974681
1225.4	0.950147
1227.01	0.844193
1228.62	1.00844
1230.23	0.760127
1231.85	0.430292
1233.46	0.659606
1235.07	0.827914
1236.68	1.41065
1238.29	0.733394
1239.9	1.54527
1241.51	1.13741
1243.12	1.49455
1244.73	1.60286
1246.34	1.35849
1247.94	1.05113
1249.55	1.15696
1251.16	0.97285
1252.77	1.2647
1254.37	1.30891
1255.98	1.37474
1257.59	1.00724
1259.2	1.40621
1260.8	0.998933
1262.41	1.83423
1264.01	1.22013
1265.62	1.45487
1267.22	1.2331
1268.83	0.657973
1270.43	1.32588
1272.03	1.39165
1273.64	1.3943
1275.24	1.58262
1276.85	1.33485
1278.45	0.941516
1280.05	1.45903
1281.65	0.878874
1283.25	1.60264
1284.85	1.39568
1286.46	1.27234
1288.06	0.83994
1289.66	1.85504
1291.26	1.5686
1292.86	1.77803
1294.46	1.90412
1296.06	1.84314
1297.66	1.67752
1299.25	2.27393
1300.85	1.5899
1302.45	1.60619
1304.05	1.20998
1305.65	1.36901
1307.24	1.75319
1308.84	1.52079
1310.43	1.2684
1312.03	1.40582
1313.63	1.17547
1315.22	1.21203
1316.82	1.35143
1318.41	1.75636
1320.01	1.34512
1321.6	1.4634
1323.2	1.49876
1324.79	1.41055
1326.38	1.86944
1327.98	1.45482
1329.57	1.14294
1331.16	1.64213
1332.76	1.45523
1334.35	1.21004
1335.94	1.97555
1337.53	1.47015
1339.12	1.1462
1340.71	1.44572
1342.3	1.924
1343.89	1.33413
1345.48	1.52762
1347.07	1.03889
1348.66	1.2337
1350.25	1.13002
1351.84	1.06866
1353.43	0.889172
1355.01	0.810856
1356.6	0.89278
1358.19	1.49372
1359.77	0.895294
1361.36	0.795477
1362.95	0.814747
1364.53	1.29221
1366.12	0.812933
1367.71	0.832668
1369.29	0.813558
1370.88	0.536907
1372.46	0.91812
1374.04	0.723178
1375.63	1.04616
1377.21	0.155422
1378.8	0.896008
1380.38	1.11837
1381.96	0.484178
1383.54	0.684505
1385.13	0.804342
1386.71	0.466721
1388.29	0.407533
1389.87	0.448153
1391.45	0.826782
1393.03	0.45201
1394.61	0.474413
1396.19	0.516506
1397.77	1.09325
1399.35	0.618543
1400.93	0.836667
1402.51	0.578989
1404.09	0.380899
1405.67	0.95458
1407.24	0.678535
1408.82	0.798568
1410.4	1.1955
1411.98	1.09851
1413.55	0.803706
1415.13	0.764895
1416.71	1.2776
1418.28	1.04041
1419.86	0.862831
1421.43	1.0407
1423.01	0.609519
1424.58	0.63253
1426.16	1.22734
1427.73	0.681063
1429.31	1.09903
1430.88	0.728965
1432.45	1.53876
1434.02	1.93419
1435.6	1.03095
1437.17	1.17043
1438.74	1.70357
1440.31	1.13678
1441.88	1.12118
1443.45	1.63681
1445.03	1.48458
1446.6	1.64697
1448.17	1.43603
1449.74	1.71677
1451.3	1.46709
1452.87	1.68978
1454.44	1.46047
1456.01	1.56553
1457.58	1.70946
1459.15	1.83265
1460.72	1.93464
1462.28	1.79883
1463.85	1.44531
1465.42	1.22875
1466.98	1.22817
1468.55	0.540701
1470.12	0.776935
1471.68	0.641141
1473.25	1.11427
1474.81	1.01919
1476.38	0.630386
1477.94	0.339795
1479.51	1.02934
1481.07	1.20902
1482.63	1.38859
1484.2	0.843008
1485.76	1.00259
1487.32	0.515162
1488.88	0.947176
1490.45	0.809835
1492.01	0.534032
1493.57	0.960142
1495.13	0.486364
1496.69	0.714309
1498.25	0.649544
1499.81	0.857459
1501.37	0.541594
1502.93	0.731589
1504.49	0.282566
1506.05	0.879926
1507.61	0.972855
1509.17	0.369254
1510.73	0.653722
1512.28	0.801875
1513.84	0.314154
1515.4	0.635146
1516.96	0.130259
1518.51	-0.085194
1520.07	0.313275
1521.63	0.00305698
1523.18	0.362285
1524.74	0.166427
1526.29	0.561381
1527.85	0.573706
1529.4	0.604552
1530.96	0.369432
1532.51	0.400819
1534.06	0.2813
1535.62	0.333116
1537.17	0.763448
1538.72	0.419557
1540.28	0.774372
1541.83	0.450391
1543.38	0.57865
1544.93	-0.0267707
1546.48	0.458261
1548.03	0.360497
1549.59	-0.0182599
1551.14	0.315436
1552.69	0.68626
1554.24	0.702019
1555.79	0.700167
1557.34	0.401056
1558.88	-0.101523
1560.43	0.404946
1561.98	0.334242
1563.53	1.1599
1565.08	1.25854
1566.62	0.909429
1568.17	0.634689
1569.72	1.06889
1571.27	0.550823
1572.81	0.405827
1574.36	0.783394
1575.9	0.768957
1577.45	0.88535
1579	0.684696
1580.54	0.615171
1582.09	0.77033
1583.63	0.739407
1585.17	0.447409
1586.72	1.01558
1588.26	1.45341
1589.8	0.824883
1591.35	0.831956
1592.89	1.13824
1594.43	1.61303
1595.97	1.00144
1597.52	1.12072
1599.06	0.959365
1600.6	1.45498
1602.14	1.29458
1603.68	0.927467
1605.22	1.06671
1606.76	1.37413
1608.3	1.32296
1609.84	0.536902
1611.38	1.00823
1612.92	1.32735
1614.46	1.45733
1615.99	0.930274
1617.53	0.741623
1619.07	0.81635
1620.61	1.00454
1622.14	0.950315
1623.68	1.64564
1625.22	1.06794
1626.75	1.10744
1628.29	0.790421
1629.82	1.20187
1631.36	1.29428
1632.9	1.55433
1634.43	1.57162
1635.96	1.19774
1637.5	1.45906
1639.03	1.83258
1640.57	1.79587
1642.1	2.31756
1643.63	1.68333
1645.16	1.94199
1646.7	1.86477
1648.23	1.89883
1649.76	1.7289
1651.29	2.50642
1652.82	1.70765
1654.36	2.04154
1655.89	2.04215
1657.42	2.15391
1658.95	2.06117
1660.48	2.28208
1662.01	1.76143
1663.53	2.14629
1665.06	1.88353
1666.59	2.24896
1668.12	1.85865
1669.65	1.72815
1671.18	1.80174
1672.7	1.61836
1674.23	1.67489
1675.76	1.63918
1677.29	1.34516
1678.81	1.45519
1680.34	1.69292
1681.86	1.67245
1683.39	0.751937
1684.91	1.3007
1686.44	1.11547
1687.96	0.839182
1689.49	1.07644
1691.01	0.837592
1692.54	1.40428
1694.06	0.799691
1695.58	0.981707
1697.11	0.688245
1698.63	0.77833
1700.15	0.886214
1701.67	0.391678
1703.2	0.42591
1704.72	0.550709
1706.24	0.62035
1707.76	0.326048
1709.28	0.613414
1710.8	0.119968
1712.32	0.407194
1713.84	0.784657
1715.36	0.292597
1716.88	0.253495
1718.4	0.340868
1719.91	0.211336
1721.43	0.298646
1722.95	0.422288
1724.47	0.52849
1725.99	0.185378
1727.5	0.383591
1729.02	0.708399
1730.54	0.814259
1732.05	0.259216
1733.57	0.190038
1735.09	0.733764
1736.6	0.310987
1738.12	0.186077
1739.63	0.565304
1741.15	0.104729
1742.66	0.444722
1744.18	0.288809
1745.69	0.32958
1747.2	0.0120755
1748.72	0.247649
1750.23	0.559042
1751.74	0.313632
1753.25	0.383392
1754.77	0.335116
1756.28	-0.072773
1757.79	0.116461
1759.3	0.0859452
1760.81	-0.232726
1762.32	0.216914
1763.83	0.238201
1765.34	-0.0437987
1766.85	0.176098
1768.36	0.194368
1769.87	0.449536
1771.38	0.212149
1772.89	0.386555
1774.4	0.0849942
1775.91	0.116637
1777.41	0.241194
1778.92	0.0875635
1780.43	0.145512
1781.94	0.0235197
1783.44	0.206897
1784.95	0.0745208
1786.45	0.209853
1787.96	0.0673849
1789.47	0.124924
1790.97	0.367602
1792.48	0.323632
1793.98	-0.147758
1795.48	-0.00732218
1796.99	-0.00834694
1798.49	-0.10538
1800	-0.0737184
1801.5	0.054807
1803	-0.0399159
1804.51	-0.0422733
1806.01	0.427795
1807.51	-0.100807
1809.01	-0.0598851
1810.51	-0.0411526
1812.02	0.218408
1813.52	0.0389543
1815.02	-0.017801
1816.52	-0.0571474
1818.02	0.215662
1819.52	0.071335
1821.02	0.133271
1822.52	0.0781169
1824.02	0.0168949
1825.51	-0.126597
1827.01	0.0609181
1828.51	0.244604
1830.01	-0.151196
1831.51	-0.0297317
1833	0.0247597
1834.5	0.0874362
1836	0.0771306
1837.5	0.295611
1838.99	0.109209
1840.49	0.125956
1841.98	-0.0855596
1843.48	0.239442
1844.97	0.361183
1846.47	-0.133851
1847.96	0.101659
1849.46	0.113719
1850.95	0.060955
1852.45	0.0632813
1853.94	0.204371
1855.43	0.0744141
1856.92	-0.0800174
1858.42	-0.0179594
1859.91	-0.0881648
1861.4	0.0200415
1862.89	0.10814
1864.39	0.0495436
1865.88	-0.00704305
1867.37	0.0215518
1868.86	-0.243163
1870.35	-0.120713
1871.84	-0.0327888
1873.33	0.0140993
1874.82	0.352761
1876.31	0.300402
1877.8	0.0596232
1879.29	0.122556
1880.77	-0.00717866
1882.26	-0.118325
1882.51	-0.136738
1884	-0.346175
1885.5	-0.033248
1886.99	0.121988
1888.48	0.119998
1889.98	0.257333
1891.47	-0.126438
1892.97	-0.178429
1894.46	0.344655
1895.95	-0.000398222
1897.44	-0.0492794
1898.93	-0.115651
1900.42	0.165155
1901.92	0.427326
1903.41	0.14888
1904.9	0.1998
1906.39	0.2153
1907.88	0.317581
1909.37	0.211941
1910.86	0.17651
1912.35	0.0377087
1913.84	0.350333
1915.32	-0.048046
1916.81	-0.0651065
1918.3	0.0214366
1919.79	0.00362551
1921.28	-0.100854
1922.76	0.141342
1924.25	0.124397
1925.74	0.212186
1927.22	0.300797
1928.71	0.0782712
1930.2	0.184684
1931.68	-0.211696
1933.17	0.22204
1934.65	0.186861
1936.14	0.0466155
1937.62	-0.111668
1939.11	0.00636189
1940.59	0.383454
1942.08	-0.257445
1943.56	0.0690531
1945.04	-0.345552
1946.53	0.171288
1948.01	-0.329143
1949.49	-0.00286322
1950.97	0.132982
1952.45	0.28517
1953.94	0.195972
1955.42	-0.0478255
1956.9	0.000916448
1958.38	0.0329435
1959.86	0.0997941
1961.34	0.0641181
1962.82	0.165741
1964.3	0.335675
1965.78	0.419437
1967.26	0.0918028
1968.74	-0.201733
1970.22	-0.136371
1971.69	0.16783
1973.17	0.130179
1974.65	-0.197296
1976.13	-0.353741
1977.61	-0.135139
1979.08	0.117286
1980.56	0.0291544
1982.03	0.348974
1983.51	-0.334077
1984.99	0.0359857
1986.46	0.16785
1987.94	-0.0394438
1989.41	-0.0599208
1990.89	-0.21526
1992.36	0.475929
1993.84	0.35574
1995.31	-0.287583
1996.78	0.100374
1998.26	-0.339474
1999.73	0.0479037
2001.2	0.0801466
2002.68	0.16258
2004.15	-0.244056
2005.62	0.0744888
2007.09	0.056441
2008.56	-0.162954
2010.04	0.00559553
2011.51	0.292321
2012.98	0.25922
2014.45	0.343608
2015.92	0.259118
2017.39	0.207617
2018.86	-0.113444
2020.33	-0.0481592
2021.8	-0.03343
2023.27	0.317225
2024.74	0.215154
2026.2	0.0972769
2027.67	0.248871
2029.14	0.250642
2030.61	0.052121
2032.07	-0.0115257
2033.54	0.328044
2035.01	0.231217
2036.47	0.184433
2037.94	0.137217
2039.41	0.291355
2040.87	0.00844752
2042.34	0.347816
2043.8	-0.22032
2045.27	-0.283435
2046.73	0.647242
2048.2	0.265241
2049.66	0.152246
2051.12	0.0721207
2052.59	0.00765631
2054.05	0.363471
2055.51	0.02652
2056.98	0.261855
2058.44	-0.295576
2059.9	0.427445
2061.36	0.308339
2062.82	0.206764
2064.29	0.493085
2065.75	0.477209
2067.21	0.175904
2068.67	0.144299
2070.13	0.096088
2071.59	0.0310779
2073.05	0.235344
2074.51	0.0016369
2075.97	-0.164991
2077.43	0.358563
2078.88	0.174529
2080.34	0.293264
2081.8	0.579912
2083.26	-0.0598654
2084.72	0.7305
2086.17	0.392705
2087.63	0.441427
2089.09	0.792278
2090.54	0.201967
2092	0.0990709
2093.46	0.382147
2094.91	0.379624
2096.37	0.259407
2097.82	0.440311
2099.28	0.603736
2100.73	0.264969
2102.19	0.394766
2103.64	0.725386
2105.09	0.706149
2106.55	0.471159
2108	0.55404
2109.46	0.520428
2110.91	0.836493
2112.36	0.734698
2113.81	0.798175
2115.27	0.577396
2116.72	0.805136
2118.17	0.634079
2119.62	0.680103
2121.07	0.644632
2122.52	0.759973
2123.97	0.743769
2125.42	1.1592
2126.87	0.67906
2128.32	0.712147
2129.77	0.959548
2131.22	0.891001
2132.67	0.838429
2134.12	1.19945
2135.57	0.849753
2137.01	0.931253
2138.46	1.17945
2139.91	1.33003
2141.36	1.34979
2142.8	0.973683
2144.25	1.39189
2145.7	1.21477
2147.14	1.55052
2148.59	1.45535
2150.03	1.79011
2151.48	1.54422
2152.92	1.39685
2154.37	1.46419
2155.81	1.39858
2157.26	1.76373
2158.7	1.93068
2160.15	2.01597
2161.59	1.37372
2163.03	1.54489
2164.48	1.68438
2165.92	1.67537
2167.36	2.3973
2168.8	2.03864
2170.25	1.77781
2171.69	2.04731
2173.13	2.41494
2174.57	2.13252
2176.01	2.19889
2177.45	1.83309
2178.89	2.19958
2180.33	2.05153
2181.77	1.98738
2183.21	2.60557
2184.65	2.15973
2186.09	1.89679
2187.53	1.85008
2188.97	2.15287
2190.41	2.05627
2191.84	1.60978
2193.28	1.46225
2194.72	1.46345
2196.16	1.36326
2197.59	1.3114
2199.03	1.98977
2200.47	1.55306
2201.9	1.69795
2203.34	1.52796
2204.78	1.57466
2206.21	1.53934
2207.65	1.48794
2209.08	1.3702
2210.51	1.00365
2211.95	1.39759
2213.38	1.24492
2214.82	1.24099
2216.25	0.989966
2217.68	1.0041
2219.12	1.33255
2220.55	0.589905
2221.98	0.902605
2223.42	0.868569
2224.85	1.03107
2226.28	0.961611
2227.71	0.841604
2229.14	0.73722
2230.57	0.698066
2232	0.527718
2233.43	0.619863
2234.86	0.679674
2236.29	0.429883
2237.72	0.524508
2239.15	0.277807
2240.58	0.620005
2242.01	0.588332
2243.44	0.639173
2244.87	0.527198
2246.3	0.365789
2247.73	0.366325
2249.15	0.495669
2250.58	0.737217
2252.01	0.114318
2253.43	0.955478
2254.86	0.544294
2256.29	0.443343
2257.71	0.717508
2259.14	0.588135
2260.56	0.347455
2261.99	0.254562
2263.41	0.585031
2264.84	0.428609
2266.26	0.369305
2267.69	0.439484
2269.11	0.606663
2270.54	0.28497
2271.96	0.386075
2273.38	0.487089
2274.81	0.457886
2276.23	0.379944
2277.65	0.139121
2279.07	0.59922
2280.49	0.407249
2281.92	0.508677
2283.34	0.381681
2284.76	0.352569
2286.18	0.519474
2287.6	0.311213
2289.02	0.152141
2290.44	0.123967
2291.86	0.0632824
2293.28	0.215243
2294.7	0.38368
2296.12	0.241197
2297.54	0.327806
2298.96	-0.0605655
2300.38	0.0589339
2301.79	0.424713
2303.21	0.0363928
2304.63	0.222298
2306.05	0.293382
2307.46	0.134245
2308.88	0.0403247
2310.3	0.110344
2311.71	0.278809
2313.13	0.167627
2314.55	0.106043
2315.96	0.0614053
2317.38	-0.196892
2318.79	0.039382
2320.21	-0.0376216
2321.62	0.264038
2323.03	0.0693772
2324.45	0.73117
2325.86	0.153581
2327.27	0.680045
2328.69	0.760361
2330.1	0.494828
2331.51	0.230238
2332.93	0.081892
2334.34	-0.0821988
2335.75	-0.11443
2337.16	0.0503993
2338.57	0.247305
2339.99	0.2953
2341.4	-0.248654
2342.81	0.159555
2344.22	0.206391
2345.63	-0.107195
2347.04	-0.190877
2348.45	0.183901
2349.86	-0.145481
2351.26	-0.0499444
2352.67	0.224398
2354.08	0.415956
2355.49	-0.0616931
2356.9	0.0801577
2358.31	-0.315069
2359.71	0.20049
2361.12	0.0333569
2362.53	-0.149641
2363.94	-0.21896
2365.34	0.19718
2366.75	-0.0500397
2368.15	0.0911592
2369.56	-0.364018
2370.97	-0.0599552
2372.37	0.0513374
2373.78	0.22766
2375.18	0.355834
2376.59	0.274461
2377.99	0.433571
2379.39	0.334204
2380.8	0.169542
2382.2	0.0522654
2383.61	0.126788
2385.01	-0.0869725
2386.41	-0.0602921
2387.81	-0.0330366
2389.22	-0.00498737
2390.62	-0.103535
2392.02	0.451635
2393.42	0.195404
2394.82	0.178616
2396.22	-0.0761038
2397.63	-0.123587
2399.02	0.147146
2400.43	0.11629
2401.82	0.149209
2403.23	-0.0719455
2404.62	-0.0709895
2406.02	0.151591
2407.42	0.325735
2408.82	0.0550614
2410.22	0.244099
2411.62	0.385568
2413.02	0.305808
2414.41	-0.0104324
2415.81	0.0386
2417.21	0.136085
2418.61	0.455944
2420	0.554474
2421.4	0.336159
2422.79	0.0541278
2424.19	0.152092
2425.59	0.0758065
2426.98	-0.0952312
2428.38	0.225723
2429.77	0.071798
2431.17	0.203854
2432.56	-0.028963
2433.96	0.102917
2435.35	0.218195
2436.74	-0.0171092
2438.14	-0.0469865
2439.53	0.224034
2440.92	0.00195954
2442.32	0.208243
2443.71	-0.17296
2445.1	0.112199
2446.49	0.127474
2447.88	0.0317056
2449.28	0.141932
2450.67	0.33139
2452.06	-0.222801
2453.45	0.109996
2454.84	0.0161127
2456.23	0.0809441
2457.62	-0.122904
2459.01	-0.073763
2460.4	0.0540361
2461.79	0.544853
2463.18	-0.0558009
2464.57	-0.00866986
2465.96	0.338255
2467.34	0.227028
2468.73	0.336755
2470.12	-0.121521
2471.51	0.019322
2472.89	0.191024
2474.28	0.125803
2475.67	0.123125
2477.05	0.0258698
2478.44	0.431277
2479.83	0.114319
2481.21	0.189979
2482.6	-0.141882
2483.98	0.168301
2485.37	0.352175
2486.75	0.253611
2488.14	0.0608272
2489.52	0.242002
2490.9	-0.106588
2492.29	0.0901313
2493.67	0.457955
2495.06	0.205541
2496.44	-0.0764987
2497.82	0.21559
2499.2	-0.0342696
2500.59	0.180008
2501.97	-0.0548022
2503.35	0.0189169
2504.73	0.400346
2506.11	0.24121
2507.49	-0.364092
2508.88	0.13894
2510.26	0.0883235
2511.63	0.0996449
2513.01	-0.118426
2514.39	-0.0904654
2515.77	0.213576
2517.15	-0.124672
2518.53	-0.125801
2519.91	-0.142087
2521.29	0.0858277
2522.67	-0.312788
2524.05	-0.131851
2525.42	-0.012647
2526.8	0.212762
2528.18	-0.0183727
2529.56	0.0861183
2530.93	0.14603
2532.31	0.298296
2533.69	0.13247
2535.06	-0.199926
2536.44	0.33363
2537.81	0.122281
2539.19	-0.013754
2540.56	-0.165493
2541.94	-0.317387
2543.31	-0.195897
2544.69	0.153641
2546.06	0.109599
2547.44	0.051273
2548.81	0.00871409
2550.18	0.102772
2551.56	0.424158
2552.93	0.213723
2554.3	0.260519
2555.68	0.170084
2557.05	0.185454
2558.42	0.200716
2559.79	0.140362
2561.16	0.095575
2562.53	0.127034
2563.9	0.355912
2565.28	0.191106
2566.64	-0.0947663
2568.02	0.27108
2569.38	0.0155696
2570.76	-0.118713
2572.12	0.0804821
2573.49	0.0675415
2574.86	0.236579
2576.23	0.0418054
2577.6	-0.274356
2578.97	0.0309788
2580.34	0.245099
2581.7	0.246638
2583.07	0.0962805
2584.44	0.142858
2585.81	0.174223
2587.17	0.145039
2588.54	-0.126492
2589.91	-0.200901
2591.27	0.0731485
2592.64	-0.00167774
2594	0.0441422
2595.37	-0.0925122
2596.73	-0.123828
2598.1	0.086379
2599.46	-0.0214295
2600.83	0.0824946
2602.19	0.0960473
2603.55	0.0345895
2604.92	-0.0113275
2606.28	0.199367
2607.64	0.0628628
2609.01	0.0765907
2610.37	0.0593144
2611.73	0.176568
2613.09	-0.0981786
2614.46	0.0476475
2615.82	-0.0771175
2617.18	0.1583
2618.54	-0.0406207
2619.9	0.165373
2621.26	-0.121854
2622.62	0.114673
2623.98	-0.0819854
2625.34	0.139402
2626.7	0.390133
2628.06	0.0740096
2629.42	-0.0631854
2630.78	0.127
2632.14	0.212736
2633.5	0.120043
2634.86	0.205586
2636.22	0.305795
2637.57	-0.14244
2638.93	0.254033
2640.29	0.250535
2641.64	0.395066
2643	0.0964027
2644.36	0.285455
2645.72	0.223391
2647.07	-0.118963
2648.43	0.0395366
2649.78	0.447348
2651.14	0.324606
2652.49	-0.0184129
2653.85	0.387641
2655.2	0.16319
2656.56	-0.191901
2657.91	0.581323
2659.27	0.198662
2660.62	-0.007847
2661.97	0.0634196
2663.33	0.221821
2664.68	0.218874
2666.03	0.0841016
2667.38	0.182367
2668.74	0.163908
2670.09	0.203867
2671.44	0.142369
2672.79	0.386544
2674.14	0.0209699
2675.49	0.120662
2676.84	0.264195
2678.2	0.292072
2679.55	0.175546
2680.89	0.422268
2682.24	0.147921
2683.59	-0.31413
2684.94	-0.166541
2686.29	-0.062069
2687.64	0.0278559
2688.99	0.131512
2690.34	0.103324
2691.69	0.00126091
2693.04	0.275392
2694.38	-0.0314785
2695.73	-0.0628003
2697.08	0.268469
2698.43	0.383199
2699.77	-0.0800477
2701.12	0.312291
2702.46	0.155464
2703.81	0.187668
2705.16	0.350753
2706.5	0.267462
2707.85	0.0678121
2709.19	0.0709325
2710.54	-0.0859571
2711.88	0.0328609
2713.23	-0.197102
2714.57	-0.092933
2715.92	-0.0178289
2717.26	-0.000961989
2718.6	0.161214
2719.95	0.20679
2721.29	0.397584
2722.63	0.0786439
2723.97	0.312424
2725.32	0.313001
2726.66	0.458844
2728	0.196919
2729.34	0.0803841
2730.68	0.225676
2732.02	-0.0510049
2733.36	0.167029
2734.7	0.297865
2736.04	0.312469
2737.39	0.661678
2738.72	0.298219
2740.06	-0.00720827
2741.4	-0.109344
2742.74	0.238757
2744.08	-0.0242087
2745.42	0.119329
2746.76	0.175308
2748.1	0.361736
2749.44	0.272355
2750.77	-0.019853
2752.11	0.326239
2753.45	0.23747
2754.78	0.467623
2756.12	0.0604432
2757.46	-0.230549
2758.79	-0.0579874
2760.13	0.216072
2761.47	-0.0884534
2762.8	0.0849183
2764.14	0.417651
2765.47	0.0847985
2766.81	-0.233865
2768.14	0.372644
2769.48	0.52962
2770.81	0.251805
2772.14	0.36323
2773.48	0.156252
2774.81	0.151053
2776.14	0.174632
2777.48	-0.161366
2778.81	-0.0794197
2780.14	0.0889893
2781.47	0.156871
2782.81	0.109913
2784.14	-0.00874014
2785.47	-0.170252
2786.8	0.0552829
2788.13	-0.348947
2789.46	0.19207
2790.79	-0.0962594
2792.12	-0.0550002
2793.46	-0.0849158
2794.79	0.17105
2796.11	0.212324
2797.44	-0.089636
2798.77	0.13651
2800.1	0.076717
2801.43	-0.125874
2802.76	0.0137841
2804.09	0.0106058
2805.42	-0.0213703
2806.74	-0.210305
2808.07	0.013045
2809.4	0.207323
2810.73	0.0320903
2812.05	0.382601
2813.38	0.0810948
2814.71	-0.318339
2816.03	0.204783
2817.36	0.119107
2818.68	0.0763821
2820.01	0.260444
2821.33	0.0331539
2822.66	0.173873
2823.98	0.0732282
2825.31	0.368976
2826.63	0.0840037
2827.96	0.266739
2829.28	0.407358
2830.61	0.208556
2831.93	-0.0325412
2833.25	0.405773
2834.57	0.093645
2835.9	0.432225
2837.22	0.64295
2838.54	0.386436
2839.86	0.822847
2841.18	0.764266
2842.51	0.96045
2843.83	1.05813
2845.15	0.958495
2846.47	0.802805
2847.79	1.01483
2849.11	1.21277
2850.43	1.36808
2851.75	1.56541
2853.07	1.64924
2854.39	1.50664
2855.71	1.37806
2857.03	1.43314
2858.35	1.79899
2859.67	2.17882
2860.98	1.86651
2862.3	2.25992
2863.62	2.01772
2864.94	2.41037
2866.25	2.49245
2867.57	2.20802
2868.89	2.77005
2870.21	2.88112
2871.52	2.68218
2872.84	2.77904
2874.15	2.94568
2875.47	3.06907
2876.78	2.82537
2878.1	3.07372
2879.42	3.15278
2880.73	3.232
2882.04	2.59532
2883.36	2.67626
2884.67	3.15108
2885.99	2.85409
2887.3	2.9222
2888.61	2.93378
2889.93	2.95875
2891.24	3.40364
2892.55	3.4692
2893.87	3.07225
2895.18	3.22207
2896.49	3.35843
2897.8	3.29968
2899.11	3.52165
2900.42	3.54837
2901.74	3.77133
2903.05	3.40695
2904.36	4.0638
2905.67	3.75573
2906.98	4.51119
2908.29	4.38617
2909.6	4.52771
2910.91	4.86573
2912.22	4.86796
2913.53	5.06548
2914.83	4.84174
2916.14	5.40039
2917.45	5.4955
2918.76	5.5756
2920.07	5.90722
2921.37	5.77786
2922.68	5.70565
2923.99	6.06809
2925.3	6.02623
2926.6	6.34841
2927.91	6.33517
2929.22	7.02055
2930.52	6.76871
2931.83	6.50243
2933.13	6.44558
2934.44	6.79403
2935.74	6.45773
2937.05	6.4151
2938.35	6.37264
2939.66	6.58196
2940.96	5.96734
2942.27	6.55528
2943.57	5.90061
2944.87	6.2815
2946.18	5.33517
2947.48	5.59191
2948.78	5.30276
2950.09	5.43239
2951.39	5.14032
2952.69	5.15451
2953.99	4.49535
2955.29	4.98389
2956.6	4.21338
2957.9	4.80238
2959.2	3.81189
2960.5	4.06969
2961.8	4.14734
2963.1	4.39414
2964.4	4.26177
2965.7	3.55199
2967	3.47254
2968.3	3.78554
2969.6	3.45119
2970.9	3.24315
2972.2	3.47137
2973.49	2.82751
2974.79	3.18272
2976.09	2.50976
2977.39	2.97616
2978.69	2.70898
2979.98	2.49677
2981.28	2.39618
2982.58	2.73121
2983.88	2.47573
2985.17	2.58675
2986.47	2.23523
2987.76	2.06764
2989.06	1.80247
2990.36	1.98721
2991.65	1.82023
2992.95	1.84917
2994.24	1.83492
2995.54	1.15961
2996.83	1.21432
2998.12	1.03023
2999.42	1.2673
3000.71	1.4625
3002	1.36367
3003.3	1.1111
3004.59	1.01284
3005.88	1.06849
3007.18	0.731669
3008.47	0.968156
3009.76	0.728278
3011.05	0.502114
3012.35	0.708767
3013.64	0.663978
3014.93	0.563797
3016.22	0.519999
3017.51	0.810951
3018.8	0.37841
3020.09	0.363615
3021.38	0.26512
3022.67	0.41614
3023.96	0.358029
3025.25	0.27172
3026.54	0.407007
3027.83	0.18261
3029.12	0.0147129
3030.41	0.221168
3031.69	0.000365607
3032.98	0.180852
3034.27	0.306255
3035.56	0.307024
3036.85	-0.0378462
3038.13	0.374189
3039.42	0.439994
3040.71	0.0371394
3041.99	0.12878
3043.28	0.110471
3044.57	0.517146
3045.85	0.66432
3047.14	0.403096
3048.42	0.321526
3049.71	-0.017676
3050.99	0.285792
3052.28	0.275988
3053.56	0.389009
3054.85	0.706154
3056.13	0.667742
3057.42	0.683019
3058.7	0.493279
3059.98	0.140161
3061.27	0.195963
3062.55	0.238811
3063.83	0.323436
3065.11	0.504354
3066.4	0.414432
3067.68	0.189299
3068.96	0.317987
3070.24	0.432934
3071.52	0.275231
3072.8	0.225448
3074.09	0.147582
3075.37	0.123448
3076.65	0.24848
3077.93	0.265096
3079.21	-0.0295611
3080.49	0.233206
3081.77	-0.208283
3083.05	0.205756
3084.32	-0.112265
3085.61	0.207533
3086.88	0.065612
3088.16	-0.0632541
3089.44	0.0924224
3090.72	0.112033
3092	-0.139793
3093.27	-0.0251717
3094.55	0.00826684
3095.83	0.191052
3097.11	0.0620619
3098.38	-0.148225
3099.66	0.2648
3100.94	-0.243581
3102.21	-0.115131
3103.49	-0.203157
3104.76	0.00701377
3106.04	-0.0665485
3107.31	0.185357
3108.59	0.0320454
3109.86	-0.0934422
3111.14	0.0254486
3112.41	0.212725
3113.69	0.278513
3114.96	0.208817
3116.23	-0.0104215
3117.51	0.0409043
3118.78	0.0914821
3120.05	0.127706
3121.33	0.136136
3122.6	-0.113341
3123.87	-0.0240881
3125.14	0.471436
3126.42	0.100707
3127.69	-0.0257789
3128.96	-0.111206
3130.23	0.398607
3131.5	0.151291
3132.77	0.201325
3134.04	0.210553
3135.31	0.0979128
3136.58	0.241358
3137.85	0.141588
3139.12	0.149481
3140.39	0.278402
3141.66	0.555098
3142.93	0.441906
3144.2	0.503807
3145.47	0.257565
3146.74	0.0792357
3148	0.31694
3149.27	-0.00750772
