200.563	0.183825
202.377	0.189339
204.194	0.196735
206.008	0.861745
207.821	0.967385
209.634	0.635126
211.449	0.545113
213.262	0.769588
215.074	0.580512
216.885	0.560933
218.699	-0.0396528
220.51	0.0389233
222.321	0.384419
224.131	0.101912
225.941	-0.566387
227.751	0.0462751
229.562	0.0303812
231.371	0.641577
233.18	0.335357
234.988	-0.476469
236.796	-0.0571089
238.603	-0.262551
240.411	-0.0558605
242.219	-0.112156
244.026	0.170494
245.832	0.525791
247.638	0.59019
249.443	0.483049
251.248	0.131568
253.053	-0.29459
254.857	0.315426
256.661	-0.304997
258.465	-0.128709
260.268	-0.0231943
262.071	0.999557
263.874	0.217224
265.678	0.206841
267.48	0.196826
269.282	-0.295543
271.083	0.272066
272.884	0.0431042
274.684	0.439741
276.484	0.762455
278.284	1.05912
280.084	0.679193
281.883	0.586571
283.682	0.203764
285.48	0.396942
287.276	1.02107
289.074	0.301435
290.871	0.254698
292.668	-0.149617
294.465	0.476687
296.261	0.410504
298.057	0.178201
299.853	0.448317
301.648	0.670364
303.443	0.509459
305.237	0.419122
307.032	0.0895605
308.823	0.40384
310.617	0.408717
312.41	0.72448
314.203	1.51808
315.995	0.81351
317.788	1.27772
319.579	0.14769
321.369	0.328848
323.16	0.129468
324.951	0.0735207
326.741	0.0654287
328.531	0.0571623
330.321	0.62207
332.108	0.684141
333.897	1.39061
335.686	0.707246
337.474	0.619775
339.26	0.745593
341.048	0.654618
342.835	0.443475
344.622	0.256452
346.406	0.595601
348.192	0.815924
349.978	-0.252384
351.764	0.255071
353.547	-0.0972328
355.332	0.599261
357.116	0.0779514
358.901	0.509099
360.682	0.00991249
362.466	0.272049
364.249	0.41421
366.03	0.365421
367.812	0.244783
369.594	0.550345
371.374	0.664977
373.155	0.447478
374.936	0.466468
376.715	0.414746
378.495	0.811723
380.273	0.384468
382.053	-0.0172539
383.832	0.500212
385.609	0.548263
387.388	-0.0368586
389.164	0.319175
390.942	0.0889177
392.72	0.446675
394.495	0.358866
396.272	0.107087
398.047	0.231198
399.823	0.707515
401.597	0.854624
403.372	0.202547
405.145	0.324872
406.92	0.516936
408.693	0.168393
410.467	0.359604
412.239	0.410028
414.012	0.672119
415.783	0.442224
417.556	0.33053
419.327	0.641912
421.099	0.625092
422.869	1.101
424.64	0.496398
426.409	0.618618
428.18	-0.10506
429.948	0.3446
431.718	-0.0741816
433.486	-0.0466318
435.253	0.802723
437.022	0.290858
438.789	-0.174733
440.558	0.062336
442.324	0.531891
444.089	0.0377169
445.857	0.0109301
447.622	0.0298996
449.386	-0.021699
451.153	-0.189877
452.917	-0.194016
454.682	-0.0579681
456.446	0.567298
458.208	0.236704
459.973	0.325601
461.735	-0.0499306
463.497	0.459739
465.259	0.0653381
467.022	0.324472
468.783	0.563168
470.544	0.617928
472.306	0.394121
474.066	0.192584
475.825	0.268644
477.585	0.598882
479.346	-0.0976124
481.104	0.649207
482.862	0.161762
484.62	0.72366
486.38	0.588884
488.137	0.735921
489.894	0.908618
491.65	0.522449
493.407	0.346595
495.164	0.848918
496.92	0.205013
498.675	-0.370054
500.43	0.695101
502.184	0.423544
503.939	0.385577
505.694	0.76952
507.448	-0.164436
509.201	0.404954
510.954	-0.109286
512.706	0.433759
514.459	-0.0129147
516.21	0.174412
517.962	0.689718
519.715	0.710001
521.466	0.612053
523.216	0.138026
524.966	0.274559
526.716	0.270207
528.466	0.664492
530.215	0.472437
531.964	0.444127
533.712	0.485268
535.46	0.12757
537.208	0.937503
538.955	0.227064
540.703	0.403105
542.449	0.438231
544.196	0.682288
545.942	0.251971
547.688	-0.0146618
549.433	0.809052
551.178	-0.244337
552.923	0.300697
554.667	0.428899
556.412	-0.458429
558.155	0.201324
559.899	0.814285
561.642	0.644169
563.385	0.290953
565.127	0.444529
566.867	-0.0215893
568.609	0.31714
570.35	0.450117
572.092	0.263268
573.832	0.00934887
575.573	0.124238
577.313	0.21788
579.053	0.106289
580.79	0.202052
582.529	0.343972
584.268	0.715389
586.006	-0.224884
587.745	0.213365
589.482	-0.246683
591.218	0.0746174
592.955	0.142363
594.692	-0.434215
596.428	-0.412539
598.164	0.483369
599.898	0.34361
601.634	0.364054
603.369	-0.352695
605.104	0.35494
606.836	0.095645
608.57	0.318099
610.304	-0.102384
612.037	0.280904
613.769	0.114391
615.501	-0.0971622
617.234	0.333079
618.966	0.92277
620.696	0.366319
622.427	-0.510981
624.159	0.16652
625.887	0.454809
627.618	0.173122
629.348	0.213177
631.076	-0.0182486
632.806	0.140224
634.535	0.025857
636.262	0.230667
637.99	0.068532
639.716	0.451506
641.444	-0.195149
643.172	0.319037
644.897	0.466893
646.624	0.523876
648.348	-0.190063
650.075	0.326737
651.801	0.279142
653.524	0.599087
655.249	0.399548
656.972	0.839488
658.697	0.232672
660.419	0.696607
662.143	0.383247
663.865	0.707006
665.588	0.548509
667.309	0.662436
669.032	0.56986
670.752	0.203583
672.474	-0.0695028
674.194	0.392263
675.915	0.558842
677.634	0.26803
679.355	0.137512
681.073	0.626493
682.793	0.401246
684.511	0.47287
686.23	0.634706
687.947	1.20965
689.664	0.631904
691.382	0.721378
693.098	1.01752
694.816	0.667934
696.531	0.432598
698.247	0.725666
699.963	0.810153
701.678	0.686425
703.392	0.791722
705.108	0.850226
706.821	0.449158
708.534	0.621561
710.249	0.609996
711.962	0.712564
713.674	0.951876
715.388	0.962036
717.099	0.949322
718.81	0.868297
720.523	1.03827
722.234	0.798253
723.944	0.21742
725.654	0.72858
727.365	0.648037
729.075	0.748763
730.784	1.18889
732.492	0.359571
734.202	0.798629
735.91	1.34989
737.618	1.1102
739.325	1.14237
741.034	0.882449
742.741	0.804338
744.447	0.952787
746.153	0.944982
747.859	0.713603
749.564	0.910991
751.271	1.19958
752.976	0.904674
754.681	0.521054
756.385	1.534
758.088	1.13083
759.792	0.751192
761.495	1.43181
763.2	1.27907
764.902	1.19353
766.604	1.80715
768.306	1.13096
770.008	0.859122
771.709	1.80638
773.41	1.87033
775.11	1.30073
776.811	1.0257
778.51	1.8373
780.21	2.01745
781.909	2.10834
783.608	1.33938
785.307	1.15737
787.005	1.44834
788.703	1.87185
790.401	1.95232
792.098	1.80389
793.795	1.87989
795.492	1.30138
797.188	1.26574
798.884	1.70471
800.58	2.05493
802.276	1.50635
803.971	1.72348
805.665	1.8728
807.36	1.07743
809.054	0.955418
810.748	1.43832
812.441	2.18866
814.135	1.61537
815.826	1.60243
817.518	1.65655
819.21	1.82237
820.902	1.6085
822.594	1.55154
824.285	1.13876
825.976	1.73062
827.665	1.45544
829.355	1.69535
831.045	1.40378
832.735	1.5159
834.424	1.42955
836.111	1.72323
837.8	1.99468
839.488	1.23801
841.177	1.37265
842.864	0.947498
844.55	1.4603
846.237	1.81758
847.924	1.28249
849.61	1.19677
851.295	1.71794
852.98	0.919458
854.666	1.69095
856.349	1.20586
858.034	1.39324
859.719	0.94916
861.403	0.930528
863.085	1.63123
864.769	0.505719
866.452	1.11448
868.133	0.933708
869.816	0.865183
871.498	0.97678
873.179	0.975411
874.86	0.83857
876.54	1.08534
878.221	1.28703
879.902	0.834035
881.58	0.944942
883.26	0.987407
884.938	1.0965
886.618	1.29444
888.297	1.55835
889.974	1.05372
891.653	1.49468
893.329	0.897807
895.007	0.86322
896.683	1.34466
898.36	0.858546
900.035	0.933316
901.712	0.536652
903.387	1.10256
905.063	1.354
906.737	1.4042
908.412	0.919888
910.085	0.482091
911.76	1.18052
913.433	1.30043
915.107	0.820969
916.779	0.386805
918.452	1.12789
920.124	0.716424
921.797	0.792893
923.467	0.583017
925.138	1.12602
926.81	0.809157
928.48	0.91353
930.151	0.445277
931.82	0.727963
933.489	1.14315
935.16	1.09519
936.828	0.694803
938.496	0.934878
940.165	1.17616
941.833	0.602454
943.5	0.360148
945.168	0.470675
946.834	1.52931
948.5	1.30585
950.168	0.705325
951.834	1.18499
953.499	0.716129
955.163	0.844418
956.83	0.710794
958.494	0.756717
960.158	0.717053
961.821	0.502034
963.487	0.90546
965.15	0.821053
966.812	1.02153
968.474	0.577638
970.138	-0.133684
971.8	0.857614
973.461	0.477932
975.123	0.342981
976.783	0.364537
978.446	0.520213
980.106	0.211848
981.766	-0.0971184
983.425	0.522324
985.084	0.0994902
986.743	0.670785
988.402	0.775396
990.06	0.989256
991.72	0.605558
993.378	0.310499
995.035	0.523558
996.692	0.736471
998.349	0.794755
1000.01	0.918823
1001.66	0.403726
1003.32	1.05519
1004.97	0.386003
1006.63	-0.172464
1008.28	0.807059
1009.94	0.446992
1011.59	0.526395
1013.25	0.0801592
1014.9	0.269982
1016.55	-0.152967
1018.21	0.978444
1019.86	0.447474
1021.51	0.46448
1023.16	0.329526
1024.81	0.217371
1026.47	-0.0690508
1028.12	0.30005
1029.77	0.537334
1031.42	0.511221
1033.07	0.505391
1034.72	0.694307
1036.37	0.947027
1038.02	0.915377
1039.67	1.0143
1041.31	1.87503
1042.96	1.62746
1044.61	2.01209
1046.26	1.8773
1047.91	1.65773
1049.55	1.83084
1051.2	1.09305
1052.84	1.18136
1054.49	0.770269
1056.14	1.03275
1057.78	0.425452
1059.43	-0.0520887
1061.07	0.10024
1062.72	0.860684
1064.36	0.337302
1066	0.269553
1067.65	0.831047
1069.29	0.413572
1070.93	0.495267
1072.58	0.468246
1074.22	0.159681
1075.86	0.24274
1077.5	0.0450926
1079.14	0.542553
1080.78	0.151608
1082.42	0.389453
1084.06	0.387869
1085.7	0.0812283
1087.34	0.53119
1088.98	0.545576
1090.62	0.147182
1092.26	0.267114
1093.9	0.537518
1095.54	0.138829
1097.17	0.819401
1098.81	0.595631
1100.45	0.0725069
1102.09	0.175712
1103.72	0.0869093
1105.36	0.902735
1106.99	0.0843391
1108.63	0.10447
1110.27	0.897519
1111.9	0.506419
1113.53	0.608118
1115.17	0.365019
1116.8	0.615059
1118.43	0.200356
1120.07	-0.0631828
1121.7	0.231226
1123.33	0.397935
1124.97	0.0947838
1126.6	0.327348
1128.23	0.218402
1129.86	0.559164
1131.49	0.130755
1133.12	0.707414
1134.75	0.428791
1136.38	0.149584
1138.01	0.189961
1139.64	-0.0485086
1141.27	0.032506
1142.9	0.710444
1144.53	0.470774
1146.16	-0.428826
1147.78	0.228807
1149.41	-0.00794697
1151.04	-0.0737514
1152.67	0.456699
1154.29	0.113668
1155.92	0.259943
1157.54	0.129433
1159.17	0.233323
1160.8	0.274208
1162.42	0.464996
1164.05	0.295284
1165.67	-0.554356
1167.29	-0.234878
1168.92	0.338643
1170.54	-0.17367
1172.16	0.18356
1173.79	0.0716295
1175.41	-0.465612
1177.03	0.163399
1178.65	0.0926638
1180.28	0.55186
1181.9	0.165219
1183.52	0.117906
1185.14	0.197397
1186.76	0.128027
1188.38	0.711168
1190	0.237432
1191.62	0.120729
1193.24	-0.249373
1194.86	0.304494
1196.47	-0.17035
1198.09	0.655033
1199.71	0.225445
1201.33	0.321366
1202.95	0.023037
1204.56	0.729239
1206.18	0.206087
1207.8	0.435378
1209.41	0.331073
1211.03	0.0799656
1212.64	0.515326
1214.26	0.364643
1215.87	0.440993
1217.49	0.0370417
1219.1	-0.0761385
1220.71	-0.0231066
1222.33	0.403756
1223.94	0.478841
1225.55	-0.148648
1227.16	0.63314
1228.78	0.277955
1230.39	0.00696182
1232	0.646753
1233.61	0.357454
1235.22	-0.157956
1236.83	0.691896
1238.44	0.612673
1240.05	0.285906
1241.66	0.476229
1243.27	0.459406
1244.88	0.876334
1246.49	0.857761
1248.1	1.18994
1249.71	0.362662
1251.32	0.321418
1252.92	0.673423
1254.53	0.509004
1256.14	0.780021
1257.74	0.286869
1259.35	0.829263
1260.96	0.834633
1262.56	1.04755
1264.17	0.784144
1265.77	0.996764
1267.38	0.773454
1268.98	0.714952
1270.59	0.800548
1272.19	0.781427
1273.79	0.636891
1275.4	1.25834
1277	0.801002
1278.6	1.19242
1280.21	1.06526
1281.81	1.1242
1283.41	0.479842
1285.01	0.973895
1286.61	0.931026
1288.21	0.827218
1289.81	0.683005
1291.41	1.13853
1293.01	0.891358
1294.61	0.953345
1296.21	1.38571
1297.81	1.11424
1299.41	1.13017
1301.01	1.227
1302.6	1.13705
1304.2	0.943387
1305.8	0.893294
1307.4	0.965994
1308.99	0.956192
1310.59	1.15135
1312.19	1.01896
1313.78	0.805818
1315.38	1.04355
1316.97	1.03684
1318.57	1.01027
1320.16	1.33013
1321.76	0.589341
1323.35	1.29311
1324.94	1.6074
1326.54	0.356506
1328.13	1.11523
1329.72	0.941319
1331.32	0.890771
1332.91	1.0446
1334.5	1.18023
1336.09	0.550531
1337.68	0.708527
1339.27	1.16798
1340.87	1.24239
1342.45	0.932176
1344.04	0.701037
1345.64	1.53332
1347.22	1.28116
1348.81	1.47197
1350.4	1.16471
1351.99	0.800455
1353.58	1.67811
1355.17	0.537841
1356.75	0.617393
1358.34	0.237009
1359.93	0.794481
1361.51	0.931285
1363.1	0.987322
1364.69	0.484796
1366.27	0.899593
1367.86	0.458486
1369.44	0.775373
1371.03	0.854654
1372.61	0.51742
1374.2	0.798135
1375.78	1.23867
1377.37	1.71911
1378.95	0.666784
1380.53	0.707877
1382.11	0.886902
1383.7	0.428197
1385.28	0.0285435
1386.86	0.781116
1388.44	1.17571
1390.02	0.439279
1391.6	0.775744
1393.19	1.09295
1394.77	0.636875
1396.35	1.27136
1397.93	0.873977
1399.51	0.356979
1401.08	0.710931
1402.66	0.846223
1404.24	0.684624
1405.82	1.17623
1407.4	0.936981
1408.97	1.19272
1410.55	0.777225
1412.13	1.36896
1413.71	0.814794
1415.28	0.713952
1416.86	1.10537
1418.43	0.786489
1420.01	0.586506
1421.59	0.998175
1423.16	1.39149
1424.73	0.585753
1426.31	0.765428
1427.88	1.04402
1429.46	1.06643
1431.03	1.42249
1432.6	1.12788
1434.18	0.694727
1435.75	1.00875
1437.32	1.14586
1438.89	1.34263
1440.46	1.63865
1442.04	1.4443
1443.61	1.56512
1445.18	0.860871
1446.75	1.04122
1448.32	1.65421
1449.89	1.14704
1451.46	1.3874
1453.03	1.60873
1454.6	0.925643
1456.16	1.12759
1457.73	1.939
1459.3	1.15507
1460.87	1.43206
1462.44	1.43158
1464	1.42942
1465.57	1.20996
1467.14	1.69754
1468.7	0.908899
1470.27	0.906877
1471.83	0.886369
1473.4	1.27879
1474.96	0.573735
1476.53	0.692765
1478.09	1.06672
1479.66	1.14648
1481.22	1.24573
1482.78	0.99211
1484.35	0.836392
1485.91	1.18968
1487.47	1.09153
1489.04	0.835414
1490.6	0.714607
1492.16	1.45195
1493.72	1.20911
1495.28	0.86739
1496.84	0.837153
1498.4	1.27376
1499.96	1.02972
1501.52	0.59326
1503.08	0.895815
1504.64	0.288082
1506.2	0.359162
1507.76	0.932257
1509.32	0.556541
1510.88	0.450638
1512.44	0.864405
1513.99	0.988084
1515.55	0.496603
1517.11	0.544482
1518.66	0.727234
1520.22	0.46967
1521.78	0.691156
1523.33	0.24288
1524.89	0.825666
1526.44	0.681494
1528	0.479634
1529.55	1.11435
1531.11	0.608155
1532.66	0.767469
1534.21	0.737955
1535.77	0.917611
1537.32	1.04118
1538.87	0.429133
1540.43	0.252324
1541.98	0.735245
1543.53	1.08539
1545.08	0.137419
1546.63	0.63728
1548.18	0.516827
1549.74	0.73394
1551.29	1.02572
1552.84	0.550559
1554.39	0.712649
1555.94	0.689162
1557.48	1.13413
1559.03	0.517226
1560.58	0.630086
1562.13	0.651232
1563.68	0.0204964
1565.23	0.752252
1566.78	1.14838
1568.32	0.592491
1569.87	0.63341
1571.42	0.897956
1572.96	0.135547
1574.51	1.25839
1576.05	0.962558
1577.6	0.46158
1579.14	0.595733
1580.69	0.730538
1582.24	1.22104
1583.78	0.834602
1585.32	0.59816
1586.87	0.661154
1588.41	1.00489
1589.95	1.32998
1591.5	0.494253
1593.04	0.556317
1594.58	0.468308
1596.12	0.698829
1597.67	0.89244
1599.21	0.543103
1600.75	0.850718
1602.29	0.764934
1603.83	1.16727
1605.37	0.705039
1606.91	1.40628
1608.45	0.865238
1609.99	1.09243
1611.53	1.01657
1613.07	0.769795
1614.6	1.2352
1616.14	0.743111
1617.68	0.851945
1619.22	0.512231
1620.75	0.642448
1622.29	1.03605
1623.83	1.03718
1625.37	1.46883
1626.9	1.33804
1628.44	0.719549
1629.97	0.24979
1631.51	0.788736
1633.04	0.598284
1634.58	1.02437
1636.11	0.555295
1637.65	0.740272
1639.18	1.05621
1640.72	0.794194
1642.25	0.941577
1643.78	0.845654
1645.31	0.934724
1646.85	1.41325
1648.38	1.14758
1649.91	0.901299
1651.44	1.32436
1652.97	1.26602
1654.5	1.00494
1656.03	1.17094
1657.56	0.854998
1659.1	1.61269
1660.62	0.924427
1662.15	0.975486
1663.68	1.30261
1665.21	1.31468
1666.74	0.736612
1668.27	0.455551
1669.8	0.342161
1671.32	0.98569
1672.85	0.672071
1674.38	0.469535
1675.91	1.00324
1677.43	0.229126
1678.96	0.429556
1680.49	0.794241
1682.01	0.0920944
1683.54	0.363708
1685.06	0.635056
1686.59	0.539661
1688.11	0.408165
1689.64	1.02824
1691.16	0.439538
1692.68	0.693287
1694.21	0.562606
1695.73	0.194235
1697.25	0.355866
1698.78	0.736106
1700.3	0.330724
1701.82	0.198908
1703.34	0.649862
1704.86	-0.011179
1706.39	-0.0893812
1707.91	-0.276773
1709.43	0.153606
1710.95	0.0933628
1712.47	0.269114
1713.99	0.408493
1715.51	0.420996
1717.02	0.144018
1718.54	0.53601
1720.06	0.313363
1721.58	0.434063
1723.1	-0.0577936
1724.62	-0.403846
1726.13	0.476192
1727.65	-0.0111971
1729.17	-0.0294676
1730.68	0.259095
1732.2	0.242114
1733.72	0.451037
1735.23	0.498701
1736.75	0.249667
1738.26	0.275616
1739.78	0.313904
1741.29	0.271078
1742.81	-0.115025
1744.32	0.138383
1745.84	-0.0368967
1747.35	0.214139
1748.86	-0.117861
1750.37	0.305406
1751.89	0.332502
1753.4	0.0438242
1754.91	0.0899038
1756.42	-0.343772
1757.93	0.0418415
1759.45	-0.298264
1760.96	-0.0961609
1762.47	-0.150417
1763.98	0.254316
1765.49	0.117054
1767	-0.125233
1768.51	0.148141
1770.02	-0.228013
1771.53	0.164218
1773.03	0.155293
1774.54	-0.1901
1776.05	-0.0209866
1777.56	0.12606
1779.07	0.354807
1780.57	0.0282516
1782.08	0.0166454
1783.59	0.14967
1785.09	-0.29706
1786.6	-0.131259
1788.11	0.287158
1789.61	-0.315467
1791.12	0.269758
1792.62	-0.126606
1794.13	0.248678
1795.63	-0.0394564
1797.13	0.40561
1798.64	0.364134
1800.14	0.0491419
1801.65	-0.129193
1803.15	0.0919132
1804.65	-0.0248241
1806.15	-0.0599089
1807.66	-0.125656
1809.16	0.0828323
1810.66	0.158613
1812.16	-0.112203
1813.66	-0.254149
1815.16	0.0880423
1816.66	0.225674
1818.16	-0.0344372
1819.66	0.239985
1821.16	0.00904179
1822.66	0.00618458
1824.16	-0.160822
1825.66	-0.113201
1827.16	0.0797815
1828.66	0.0324421
1830.16	0.112907
1831.65	0.0872345
1833.15	0.0652237
1834.65	0.317921
1836.14	-0.0402613
1837.64	0.141853
1839.14	-0.118874
1840.63	0.204682
1842.13	0.114054
1843.62	0.0122261
1845.12	0.00268173
1846.61	0.0218706
1848.11	0.182833
1849.6	-0.0838804
1851.1	-0.0888777
1852.59	0.368535
1854.08	0.0907955
1855.58	-0.105865
1857.07	-0.134915
1858.56	0.0696335
1860.05	0.154354
1861.55	-0.0544233
1863.04	0.243675
1864.53	0.140579
1866.02	-0.467588
1867.51	0.206409
1869	0.530414
1870.49	-0.390472
1871.98	0.254581
1873.47	0.209029
1874.96	-0.0498323
1876.45	0.0810289
1877.94	0.06106
1879.43	0.392435
1880.92	-0.166718
1882.41	-0.155801
1882.51	-0.153623
1884	-0.120201
1885.5	-0.209622
1886.99	0.135539
1888.48	0.16644
1889.98	-0.115659
1891.47	-0.118177
1892.96	-0.223285
1894.46	0.490726
1895.95	0.424111
1897.44	0.497581
1898.93	0.0317259
1900.42	-0.0700254
1901.91	0.139603
1903.41	-0.0353937
1904.9	0.257511
1906.39	0.167012
1907.88	-0.114447
1909.37	-0.0651894
1910.86	-0.257872
1912.35	-0.276004
1913.83	0.261481
1915.32	-0.0681419
1916.81	0.0180998
1918.3	0.103721
1919.79	0.0155315
1921.27	0.0831861
1922.76	0.22051
1924.25	0.202931
1925.74	0.550164
1927.22	0.206138
1928.71	-0.206473
1930.19	-0.0997086
1931.68	-0.0976744
1933.17	0.283745
1934.65	0.212976
1936.14	0.296114
1937.62	0.118464
1939.11	-0.111305
1940.59	0.194826
1942.07	-0.033453
1943.56	0.0501442
1945.04	0.151876
1946.52	0.0815859
1948.01	0.235133
1949.49	0.146584
1950.97	0.160332
1952.45	0.379525
1953.93	-0.0900335
1955.42	0.231402
1956.9	0.0376673
1958.38	-0.0177784
1959.86	-0.209598
1961.34	0.0280285
1962.82	-0.299938
1964.3	0.228826
1965.78	0.259945
1967.26	-0.0349159
1968.74	0.0290518
1970.21	0.109394
1971.69	-0.118122
1973.17	-0.174691
1974.65	0.0588808
1976.13	0.190063
1977.6	0.35532
1979.08	0.180049
1980.56	-0.199134
1982.03	0.322935
1983.51	0.181479
1984.99	0.0568342
1986.46	-0.152691
1987.94	-0.00601578
1989.41	0.25931
1990.89	-0.0503674
1992.36	0.114931
1993.84	-0.124569
1995.31	-0.0080986
1996.78	0.108779
1998.26	-0.145992
1999.73	0.206719
2001.2	0.0353642
2002.68	0.33589
2004.15	-0.324944
2005.62	-0.00747967
2007.09	0.125237
2008.56	0.124193
2010.04	0.292461
2011.51	-0.094224
2012.98	-0.0263004
2014.45	-0.0598106
2015.92	0.191881
2017.39	0.156515
2018.86	-0.0814571
2020.33	-0.017354
2021.8	-0.104615
2023.26	0.0939112
2024.73	0.309898
2026.2	-0.06003
2027.67	-0.126376
2029.14	0.211431
2030.61	0.064292
2032.07	-0.165769
2033.54	0.27604
2035.01	0.483052
2036.47	-0.234148
2037.94	-0.0113459
2039.4	0.194328
2040.87	-0.27238
2042.33	0.337211
2043.8	0.460214
2045.27	0.163647
2046.73	0.10334
2048.19	0.346522
2049.66	0.741294
2051.12	0.0899286
2052.59	-0.158781
2054.05	0.416925
2055.51	0.417277
2056.97	0.247512
2058.44	0.279184
2059.9	0.159054
2061.36	0.174159
2062.82	0.257473
2064.28	0.577483
2065.74	0.410529
2067.21	-0.142541
2068.67	-0.156462
2070.13	-0.153215
2071.59	-0.234073
2073.05	-0.0456963
2074.51	0.108765
2075.96	0.060811
2077.42	0.349273
2078.88	0.115254
2080.34	0.268059
2081.8	0.302372
2083.26	0.0834541
2084.72	0.0994396
2086.17	0.43423
2087.63	-0.139895
2089.09	0.529697
2090.54	0.240955
2092	0.170677
2093.45	0.268178
2094.91	0.0634327
2096.37	0.294164
2097.82	-0.0958271
2099.28	0.334144
2100.73	0.0440245
2102.19	0.239169
2103.64	0.38483
2105.09	0.214622
2106.55	0.313008
2108	0.145633
2109.45	0.445617
2110.91	0.428135
2112.36	0.459219
2113.81	0.838099
2115.26	0.232892
2116.72	-0.0397873
2118.17	0.518839
2119.62	-0.0506401
2121.07	0.311607
2122.52	0.377131
2123.97	0.941689
2125.42	0.263291
2126.87	0.645844
2128.32	0.695658
2129.77	0.528502
2131.22	0.277257
2132.67	0.555103
2134.11	-0.176532
2135.56	0.399645
2137.01	0.150459
2138.46	0.283432
2139.91	0.517555
2141.35	0.571678
2142.8	0.52791
2144.25	0.799141
2145.7	1.00456
2147.14	0.464756
2148.59	1.29858
2150.03	1.22072
2151.48	1.10856
2152.92	0.779862
2154.37	0.66566
2155.81	0.633803
2157.26	0.303856
2158.7	0.902301
2160.15	0.889287
2161.59	0.662747
2163.03	1.00171
2164.47	1.25981
2165.92	0.805342
2167.36	0.765478
2168.8	1.32292
2170.24	0.714726
2171.69	0.835833
2173.13	1.08793
2174.57	1.35508
2176.01	0.640299
2177.45	1.12314
2178.89	0.659028
2180.33	1.11041
2181.77	0.980865
2183.21	0.652388
2184.65	0.756554
2186.09	0.944014
2187.53	1.06502
2188.97	1.05299
2190.4	1.19073
2191.84	0.828782
2193.28	0.915493
2194.72	1.23385
2196.16	1.31704
2197.59	0.932041
2199.03	0.811597
2200.47	0.27479
2201.9	0.718151
2203.34	0.962481
2204.77	0.82634
2206.21	1.00638
2207.64	0.772691
2209.08	0.572134
2210.51	0.321288
2211.95	0.764386
2213.38	0.776317
2214.82	0.821103
2216.25	0.503344
2217.68	0.698591
2219.12	0.895013
2220.55	0.564714
2221.98	0.135882
2223.41	0.266766
2224.85	0.527819
2226.28	0.687975
2227.71	0.418605
2229.14	0.476824
2230.57	0.698121
2232	0.492623
2233.43	0.484304
2234.86	0.313279
2236.29	0.682959
2237.72	0.188539
2239.15	0.577824
2240.58	0.104461
2242.01	0.448672
2243.44	0.223345
2244.87	0.732404
2246.29	0.0337486
2247.72	0.263176
2249.15	0.213064
2250.58	-0.2792
2252.01	0.5785
2253.43	-0.0460978
2254.86	0.0618696
2256.29	0.122427
2257.71	0.28273
2259.14	0.527069
2260.56	0.0768948
2261.99	0.148456
2263.41	0.254253
2264.84	0.230524
2266.26	0.0437813
2267.69	0.246453
2269.11	0.301847
2270.53	0.372704
2271.96	-0.0128784
2273.38	-0.0242348
2274.8	0.778973
2276.23	0.00228882
2277.65	0.203279
2279.07	0.241422
2280.49	0.165373
2281.91	-0.0739536
2283.34	0.208586
2284.76	0.360744
2286.18	0.186756
2287.6	0.339609
2289.02	0.280695
2290.44	0.238513
2291.86	0.131206
2293.28	-0.286789
2294.7	0.145619
2296.12	-0.0109539
2297.54	0.258041
2298.96	0.379873
2300.37	0.190602
2301.79	0.198229
2303.21	-0.630544
2304.63	0.197859
2306.04	-0.056879
2307.46	0.0821209
2308.88	0.516563
2310.3	0.309381
2311.71	-0.16156
2313.13	0.140503
2314.54	0.262121
2315.96	0.104679
2317.37	0.227985
2318.79	0.368393
2320.2	0.0798798
2321.62	-0.144052
2323.03	0.323119
2324.45	0.210258
2325.86	0.474491
2327.27	0.241971
2328.69	0.651605
2330.1	0.583301
2331.51	0.450179
2332.92	0.269004
2334.34	0.171127
2335.75	0.0735693
2337.16	0.0249329
2338.57	0.254798
2339.98	0.0724354
2341.39	0.0534925
2342.8	0.378658
2344.21	0.0637484
2345.63	0.257601
2347.04	0.336866
2348.45	0.137797
2349.85	-0.0287027
2351.26	0.163843
2352.67	0.0610504
2354.08	0.00639915
2355.49	0.146728
2356.9	-0.332326
2358.3	0.214289
2359.71	0.0937109
2361.12	0.16826
2362.53	0.307487
2363.93	-0.152935
2365.34	0.0670557
2366.75	0.205969
2368.15	0.135349
2369.56	0.00141525
2370.97	0.239828
2372.37	0.0282717
2373.77	0.043437
2375.18	-0.262924
2376.59	-0.0545397
2377.99	-0.040432
2379.39	-0.0279474
2380.8	-0.290113
2382.2	0.360809
2383.6	0.0162706
2385.01	-0.359673
2386.41	-0.215075
2387.81	-0.0698948
2389.21	-0.043354
2390.62	0.127827
2392.02	-0.4005
2393.42	0.13891
2394.82	0.0583916
2396.22	0.0581799
2397.62	0.265243
2399.02	0.186807
2400.42	0.0771646
2401.82	0.317332
2403.22	-0.0618896
2404.62	0.00323009
2406.02	0.305532
2407.42	0.447951
2408.82	0.399062
2410.22	-0.141532
2411.62	0.190018
2413.01	-0.000487328
2414.41	0.491253
2415.81	0.129558
2417.21	0.497548
2418.6	0.0907507
2420	0.0642948
2421.4	0.354521
2422.79	0.1375
2424.19	0.268705
2425.59	0.193995
2426.98	0.341686
2428.38	0.284284
2429.77	-0.390676
2431.17	-0.0182838
2432.56	-0.232732
2433.95	0.171481
2435.35	0.0982237
2436.74	0.182262
2438.14	-0.116616
2439.53	-0.0990629
2440.92	0.155736
2442.31	-0.0823164
2443.71	0.123816
2445.1	-0.0986671
2446.49	-0.257704
2447.88	0.264701
2449.27	0.184688
2450.67	-0.338353
2452.06	0.136687
2453.45	0.485652
2454.84	0.297503
2456.23	0.252528
2457.62	0.61917
2459.01	0.479465
2460.4	0.370797
2461.79	0.103196
2463.18	0.214244
2464.57	-0.291582
2465.95	-0.0392666
2467.34	0.244297
2468.73	0.0384245
2470.12	-0.0728407
2471.5	0.225368
2472.89	0.175947
2474.28	-0.0631227
2475.67	0.342417
2477.05	0.196802
2478.44	-0.0114546
2479.82	-0.250589
2481.21	0.530012
2482.6	-0.0694151
2483.98	0.427463
2485.37	0.203081
2486.75	0.00919914
2488.13	0.204723
2489.52	-0.0841494
2490.9	-0.0144634
2492.29	0.117751
2493.67	0.0799704
2495.05	0.152257
2496.44	-0.192753
2497.82	0.207108
2499.2	-0.0588627
2500.58	-0.0618505
2501.97	0.0425529
2503.35	0.253849
2504.73	0.0627308
2506.11	-0.0515985
2507.49	0.00336742
2508.87	-0.0800257
2510.25	-0.193521
2511.63	0.246197
2513.01	0.0727644
2514.39	-0.176054
2515.77	-0.0256634
2517.15	-0.0582209
2518.53	0.200309
2519.91	-0.213601
2521.29	-0.321881
2522.67	0.454592
2524.05	0.252966
2525.42	0.309969
2526.8	-0.0293322
2528.18	-0.0481501
2529.55	0.223095
2530.93	0.161326
2532.31	0.283714
2533.69	0.0428858
2535.06	-0.090807
2536.44	0.0945177
2537.81	0.218372
2539.19	0.265247
2540.56	0.235303
2541.94	0.0683889
2543.31	0.0687618
2544.69	0.115519
2546.06	0.0270309
2547.44	0.243194
2548.81	0.172051
2550.18	-0.141802
2551.56	0.181168
2552.93	-0.0279455
2554.3	0.0957479
2555.67	0.0667448
2557.04	0.188851
2558.42	0.143953
2559.79	0.250944
2561.16	0.237203
2562.53	0.299916
2563.9	0.363244
2565.27	-0.300351
2566.64	0.218328
2568.01	0.0248566
2569.38	0.407303
2570.75	0.319934
2572.12	-0.11603
2573.49	0.22113
2574.86	0.0278492
2576.23	0.456175
2577.6	0.30833
2578.97	0.0237617
2580.33	-0.018569
2581.7	0.3784
2583.07	0.229114
2584.44	0.0341263
2585.8	0.339342
2587.17	0.462744
2588.54	0.161974
2589.9	0.240235
2591.27	0.121366
2592.64	0.0778008
2594	0.094018
2595.37	0.0788851
2596.73	0.123241
2598.1	-0.0299377
2599.46	-0.00190449
2600.83	0.298177
2602.19	-0.141549
2603.55	-0.0820208
2604.92	0.219474
2606.28	-0.233261
2607.64	0.00764656
2609.01	0.126918
2610.37	-0.131739
2611.73	0.120342
2613.09	0.175313
2614.46	0.229356
2615.82	-0.137145
2617.18	0.186899
2618.54	-0.0282078
2619.9	0.176847
2621.26	0.47207
2622.62	0.423774
2623.98	0.00249195
2625.34	0.238304
2626.7	0.0709124
2628.06	-0.141285
2629.42	0.271903
2630.78	0.178378
2632.14	-0.227301
2633.5	0.244016
2634.86	0.0318089
2636.21	-0.0614376
2637.57	-0.347183
2638.93	-0.129002
2640.29	0.000227928
2641.64	0.484331
2643	0.244154
2644.36	0.344044
2645.71	-0.0283632
2647.07	0.189033
2648.43	0.213889
2649.78	0.061264
2651.14	0.555074
2652.49	0.357299
2653.85	0.380224
2655.2	-0.00651455
2656.56	0.0625534
2657.91	0.161989
2659.26	0.130592
2660.62	0.15815
2661.97	0.390142
2663.32	0.110054
2664.68	0.106807
2666.03	0.0590277
2667.38	0.039978
2668.74	-0.226686
2670.09	-0.0997934
2671.44	0.143748
2672.79	0.358559
2674.14	-0.0942335
2675.49	0.0491447
2676.84	-0.0391579
2678.19	-0.0832129
2679.54	0.134596
2680.89	0.22292
2682.24	0.326979
2683.59	0.0262938
2684.94	0.103587
2686.29	0.0508318
2687.64	0.375278
2688.99	-0.0707655
2690.34	0.0911541
2691.69	0.468879
2693.03	0.220883
2694.38	0.0591059
2695.73	0.100202
2697.08	0.228789
2698.42	-0.133748
2699.77	0.345355
2701.12	0.420819
2702.46	0.396523
2703.81	0.112497
2705.15	0.307178
2706.5	0.139504
2707.85	0.609888
2709.19	0.426984
2710.54	0.53397
2711.88	-0.129165
2713.22	0.0499382
2714.57	-0.119761
2715.91	0.451912
2717.26	0.514723
2718.6	0.271804
2719.94	0.18845
2721.29	0.41022
2722.63	0.529658
2723.97	0.619497
2725.31	0.0247602
2726.66	0.230192
2728	0.0132093
2729.34	0.232594
2730.68	0.422676
2732.02	0.438095
2733.36	0.191758
2734.7	0.236565
2736.04	0.0197716
2737.38	0.283094
2738.72	0.284593
2740.06	0.169508
2741.4	0.330228
2742.74	0.330317
2744.08	0.0680904
2745.42	0.183121
2746.76	0.00718689
2748.09	0.310215
2749.43	0.366373
2750.77	-0.0269041
2752.11	0.145793
2753.45	0.391072
2754.78	-0.131497
2756.12	0.229904
2757.46	0.388547
2758.79	0.24338
2760.13	0.0986786
2761.46	0.113706
2762.8	0.244974
2764.14	0.173994
2765.47	0.189825
2766.8	0.0894613
2768.14	-0.0407286
2769.47	-0.0998287
2770.81	0.0130968
2772.14	-0.0343494
2773.48	0.191397
2774.81	-0.0883942
2776.14	0.237229
2777.48	0.36117
2778.81	0.111606
2780.14	0.00664806
2781.47	-0.198358
2782.8	-0.517808
2784.14	0.152681
2785.47	-0.12366
2786.8	0.331012
2788.13	0.0412912
2789.46	0.124666
2790.79	0.00865841
2792.12	0.179483
2793.45	0.121984
2794.78	-0.178405
2796.11	0.106845
2797.44	-0.537064
2798.77	0.018321
2800.1	0.230288
2801.43	0.0851536
2802.76	-0.174098
2804.09	0.0654287
2805.41	0.190313
2806.74	0.0297594
2808.07	0.0536785
2809.4	0.361377
2810.72	0.157385
2812.05	0.067831
2813.38	-0.00628281
2814.71	0.388988
2816.03	0.544571
2817.36	0.219411
2818.68	0.036622
2820.01	0.0664568
2821.33	0.0108099
2822.66	-0.088006
2823.98	0.152623
2825.31	0.25114
2826.63	0.179715
2827.96	0.0380497
2829.28	0.222593
2830.6	0.152775
2831.93	0.0973387
2833.25	0.381566
2834.57	0.679596
2835.9	0.453425
2837.22	0.21263
2838.54	0.112964
2839.86	0.578815
2841.18	0.535548
2842.5	0.591666
2843.83	0.42228
2845.15	0.380827
2846.47	0.608493
2847.79	0.765864
2849.11	0.626466
2850.43	0.797729
2851.75	1.06744
2853.07	0.728914
2854.39	0.799875
2855.71	0.630445
2857.03	0.85659
2858.35	0.828478
2859.66	0.63089
2860.98	0.885048
2862.3	0.715294
2863.62	0.813436
2864.94	1.15115
2866.25	1.02316
2867.57	1.14931
2868.89	1.09251
2870.2	0.923346
2871.52	1.52964
2872.84	0.937559
2874.15	1.59907
2875.47	1.44226
2876.78	1.80546
2878.1	1.52025
2879.41	1.60072
2880.73	1.63922
2882.04	1.03216
2883.36	1.3394
2884.67	1.21207
2885.99	1.91358
2887.3	1.56224
2888.61	1.60354
2889.93	1.77036
2891.24	1.83811
2892.55	1.45673
2893.86	1.56585
2895.18	1.42316
2896.49	1.46327
2897.8	1.91009
2899.11	1.74207
2900.42	1.78466
2901.73	2.02351
2903.05	1.82891
2904.36	1.62045
2905.67	2.19554
2906.98	1.95986
2908.29	2.38235
2909.6	2.20411
2910.91	1.94234
2912.21	1.91841
2913.52	2.43983
2914.83	2.59607
2916.14	1.9528
2917.45	2.44205
2918.76	2.63633
2920.07	1.97717
2921.37	2.54939
2922.68	2.43744
2923.99	2.98368
2925.29	2.91589
2926.6	2.35938
2927.91	2.58573
2929.22	2.99351
2930.52	2.89752
2931.83	3.06673
2933.13	2.9002
2934.44	2.91538
2935.74	3.16824
2937.05	2.8762
2938.35	2.9337
2939.66	2.68402
2940.96	2.82604
2942.26	2.68933
2943.57	3.08475
2944.87	2.50294
2946.18	2.83084
2947.48	2.27809
2948.78	2.83044
2950.08	2.23408
2951.39	2.08403
2952.69	2.3104
2953.99	2.50749
2955.29	1.97625
2956.59	2.31369
2957.9	2.42894
2959.2	2.30865
2960.5	2.30282
2961.8	2.00445
2963.1	2.19738
2964.4	1.63198
2965.7	1.86534
2967	1.80236
2968.3	1.55538
2969.6	2.10912
2970.9	1.77689
2972.19	1.64172
2973.49	1.38013
2974.79	1.48437
2976.09	1.34877
2977.39	1.29648
2978.68	1.00332
2979.98	0.933976
2981.28	1.18715
2982.58	1.29894
2983.87	0.97508
2985.17	0.989725
2986.47	1.16028
2987.76	1.16353
2989.06	1.26608
2990.35	0.680264
2991.65	0.712338
2992.94	0.771576
2994.24	1.08253
2995.53	1.11128
2996.83	0.647892
2998.12	0.521487
2999.42	0.577752
3000.71	0.802711
3002	0.34124
3003.3	0.314832
3004.59	0.31655
3005.88	0.233988
3007.18	0.192906
3008.47	0.346948
3009.76	0.220301
3011.05	0.554183
3012.34	0.133198
3013.64	0.270864
3014.93	0.129896
3016.22	0.00370789
3017.51	-0.0937819
3018.8	0.171098
3020.09	0.199336
3021.38	0.254901
3022.67	0.0178862
3023.96	0.0300722
3025.25	-0.0278368
3026.54	0.274233
3027.83	-0.088026
3029.12	-0.00618315
3030.41	-0.00594425
3031.69	-0.00429058
3032.98	-0.0430408
3034.27	-0.0400562
3035.56	0.100362
3036.84	0.0187707
3038.13	0.0182128
3039.42	-0.0117145
3040.71	0.135561
3041.99	-0.308681
3043.28	0.35842
3044.57	0.0800648
3045.85	0.405573
3047.14	-0.100683
3048.42	0.0513701
3049.71	-0.5453
3050.99	0.0606065
3052.28	0.0531592
3053.56	0.154881
3054.85	0.215006
3056.13	0.16496
3057.41	-0.186044
3058.7	0.0211258
3059.98	0.132455
3061.26	0.162336
3062.55	0.125103
3063.83	0.157215
3065.11	0.0684676
3066.39	0.266577
3067.68	0.0170083
3068.96	0.107725
3070.24	0.0758066
3071.52	-0.201777
3072.8	0.199455
3074.08	-0.080472
3075.36	0.0329437
3076.65	0.105157
3077.93	-0.202393
3079.21	-0.0880623
3080.49	0.0276232
3081.77	0.00914335
3083.04	-0.0216889
3084.32	0.138108
3085.6	-0.0548263
3086.88	-0.193983
3088.16	0.19551
3089.44	-0.189343
3090.72	0.0496426
3091.99	0.0306053
3093.27	-0.300259
3094.55	0.21006
3095.83	0.218781
3097.1	0.281795
3098.38	0.0600805
3099.66	0.17706
3100.93	-0.0312405
3102.21	0.0856318
3103.49	-0.176392
3104.76	0.225423
3106.04	0.316534
3107.31	0.17848
3108.59	0.0414391
3109.86	-0.108141
3111.14	-0.0808377
3112.41	0.123302
3113.69	-0.132715
3114.96	0.180382
3116.23	0.140667
3117.51	0.26282
3118.78	0.0312405
3120.05	0.191864
3121.33	0.161662
3122.6	-0.0859652
3123.87	0.384322
3125.14	0.312761
3126.41	0.255219
3127.69	0.292964
3128.96	0.0877409
3130.23	0.640135
3131.5	0.232607
3132.77	0.122447
3134.04	0.390174
3135.31	0.2656
3136.58	0.0461497
3137.85	0.0961013
3139.12	0.280299
3140.39	0.517819
3141.66	0.217063
3142.93	0.266426
3144.2	0.342999
3145.47	0.607854
3146.74	0.511042
3148	0.441785
3149.27	0.493702
