200.563	0.538312
202.377	0.554788
204.194	0.572319
206.008	0.517795
207.821	0.147563
209.634	0.603395
211.449	0.474909
213.262	0.369643
215.074	0.0937834
216.885	0.472231
218.699	0.341697
220.51	0.163564
222.321	0.397752
224.131	0.0765228
225.941	-0.0263758
227.751	0.0158291
229.562	0.00940895
231.371	0.340394
233.18	-0.0287199
234.988	-0.589999
236.796	0.176051
238.603	0.437626
240.411	0.508773
242.219	-0.213591
244.026	-0.018671
245.832	0.731454
247.638	0.201029
249.443	0.126668
251.248	-0.191955
253.053	0.18708
254.857	0.588373
256.661	0.24157
258.465	-0.200453
260.268	0.178477
262.071	-0.0190763
263.874	0.0980721
265.678	0.529488
267.48	0.648062
269.282	0.404799
271.083	0.35357
272.884	-0.0604029
274.684	0.271759
276.484	-0.120814
278.284	-0.322046
280.084	0.87202
281.883	0.209465
283.682	-0.141154
285.48	0.684786
287.276	0.356413
289.074	0.220572
290.871	0.397123
292.668	0.287441
294.465	0.514264
296.261	0.0489368
298.057	-0.534512
299.853	0.579161
301.648	0.856011
303.443	0.391709
305.237	-0.407432
307.032	0.820743
308.823	-0.193288
310.617	0.390569
312.41	0.212967
314.203	-0.796387
315.995	0.172366
317.788	0.0950508
319.579	-0.00473022
321.369	-0.103569
323.16	0.561351
324.951	-0.514519
326.741	-0.15897
328.531	0.961387
330.321	0.0503473
332.108	0.165724
333.897	0.303565
335.686	0.343764
337.474	0.0947018
339.26	0.609337
341.048	0.500459
342.835	0.0323925
344.622	0.209828
346.406	0.196525
348.192	0.756954
349.978	-0.162482
351.764	-0.0790939
353.547	0.290064
355.332	-0.00986481
357.116	0.142262
358.901	0.483655
360.682	-0.057538
362.466	0.400623
364.249	0.191647
366.03	0.386197
367.812	0.389806
369.594	-0.0104675
371.374	0.228787
373.155	0.0883551
374.936	0.136964
376.715	0.067524
378.495	0.564621
380.273	-0.0455265
382.053	0.264395
383.832	0.104642
385.609	-0.288811
387.388	0.400062
389.164	0.267316
390.942	0.229495
392.72	0.239404
394.495	0.249858
396.272	0.0258121
398.047	0.0131884
399.823	0.0708685
401.597	0.574415
403.372	0.37274
405.145	0.452205
406.92	0.249188
408.693	0.233507
410.467	0.475751
412.239	0.788344
414.012	0.256546
415.783	-0.063324
417.556	-0.335541
419.327	-0.419538
421.099	-0.104348
422.869	0.492373
424.64	-0.0148115
426.409	0.275321
428.18	0.40036
429.948	0.571883
431.718	0.297445
433.486	-0.0470657
435.253	0.453635
437.022	0.132874
438.789	0.421644
440.558	0.0988979
442.324	0.501625
444.089	0.151807
445.857	0.433246
447.622	-0.105986
449.386	0.0334415
451.153	0.14936
452.917	0.265374
454.682	0.567995
456.446	-0.225245
458.208	0.263433
459.973	0.262784
461.735	0.681351
463.497	-0.223811
465.259	0.0588064
467.022	0.0883055
468.783	0.236397
470.544	0.479288
472.306	0.164478
474.066	0.221117
475.825	1.02152
477.585	0.306049
479.346	0.497317
481.104	0.105386
482.862	0.6453
484.62	0.79039
486.38	1.00729
488.137	0.550464
489.894	-0.184933
491.65	0.340054
493.407	0.983359
495.164	0.903026
496.92	0.89266
498.675	0.577378
500.43	0.401802
502.184	0.319203
503.939	0.37659
505.694	0.174458
507.448	0.0178728
509.201	0.400868
510.954	0.429665
512.706	0.339363
514.459	0.13006
516.21	0.154851
517.962	0.672406
519.715	0.647991
521.466	0.152996
523.216	0.198188
524.966	0.806437
526.716	0.475706
528.466	1.2004
530.215	0.471357
531.964	0.585841
533.712	0.488774
535.46	0.250419
537.208	0.712231
538.955	0.424832
540.703	0.136979
542.449	0.617687
544.196	0.375768
545.942	-0.0282211
547.688	0.450769
549.433	0.48845
551.178	0.757791
552.923	0.101551
554.667	0.532808
556.412	0.0863466
558.155	0.309819
559.899	0.395102
561.642	0.112456
563.385	0.911799
565.127	0.101641
566.867	0.120049
568.609	0.437589
570.35	0.228016
572.092	0.432779
573.832	0.455471
575.573	0.38803
577.313	-0.366344
579.053	0.165429
580.79	0.0322523
582.529	0.358607
584.268	0.500842
586.006	0.0442638
587.745	-0.206653
589.482	0.185511
591.218	0.0707445
592.955	0.737785
594.692	-0.573939
596.428	0.0699902
598.164	0.0926895
599.898	-0.230035
601.634	-0.300401
603.369	0.249115
605.104	0.452144
606.836	-0.104417
608.57	-0.247707
610.304	0.0680656
612.037	0.016922
613.769	-0.400302
615.501	-0.0603418
617.234	0.164944
618.966	0.526981
620.696	-0.119444
622.427	0.0344191
624.159	0.0730524
625.887	0.0888329
627.618	0.0598907
629.348	0.48913
631.076	0.44114
632.806	0.0755081
634.535	0.532318
636.262	0.509545
637.99	0.188398
639.716	0.275718
641.444	0.269094
643.172	0.716099
644.897	0.569287
646.624	0.0136538
648.348	0.278879
650.075	0.569356
651.801	0.386095
653.524	0.115303
655.249	0.0745468
656.972	-0.0326796
658.697	1.00042
660.419	0.711704
662.143	-0.0129976
663.865	0.424747
665.588	0.3578
667.309	0.197661
669.032	-0.00889015
670.752	-0.16906
672.474	0.404649
674.194	-0.141068
675.915	0.666538
677.634	0.581882
679.355	0.26745
681.073	0.710182
682.793	0.0246325
684.511	0.648524
686.23	0.280967
687.947	0.741014
689.664	1.33842
691.382	0.0463066
693.098	0.895855
694.816	1.1918
696.531	1.00313
698.247	0.537207
699.963	0.737781
701.678	0.822129
703.392	1.4341
705.108	1.14888
706.821	0.611159
708.534	1.28921
710.249	0.843104
711.962	0.649241
713.674	0.912868
715.388	1.06157
717.099	1.27847
718.81	1.13011
720.523	0.913789
722.234	1.3128
723.944	1.2789
725.654	0.790289
727.365	0.870043
729.075	0.94928
730.784	1.48133
732.492	0.924958
734.202	0.731484
735.91	0.990489
737.618	0.391326
739.325	0.605977
741.034	1.49733
742.741	1.08207
744.447	1.02876
746.153	1.11181
747.859	0.993598
749.564	1.37148
751.271	1.25568
752.976	0.961123
754.681	0.937699
756.385	0.915587
758.088	0.939853
759.792	0.987958
761.495	1.73606
763.2	1.42523
764.902	1.11363
766.604	1.00392
768.306	1.81928
770.008	1.57039
771.709	1.34214
773.41	1.45181
775.11	1.74197
776.811	1.87437
778.51	2.05325
780.21	1.60037
781.909	2.16633
783.608	2.4159
785.307	2.23433
787.005	2.48047
788.703	1.52396
790.401	2.17112
792.098	1.66221
793.795	2.28166
795.492	2.02001
797.188	1.94004
798.884	1.81674
800.58	1.98789
802.276	2.0252
803.971	1.86069
805.665	1.76357
807.36	1.57588
809.054	2.08341
810.748	1.80377
812.441	1.81518
814.135	2.05009
815.826	1.6576
817.518	1.98144
819.21	2.21541
820.902	2.53847
822.594	1.47809
824.285	1.78007
825.976	2.4618
827.665	1.89769
829.355	2.60586
831.045	1.46844
832.735	2.33823
834.424	2.09622
836.111	1.81021
837.8	1.65755
839.488	2.15117
841.177	1.72785
842.864	2.26378
844.55	1.77157
846.237	1.52569
847.924	1.32601
849.61	1.73244
851.295	1.82823
852.98	1.41041
854.666	1.57594
856.349	1.5619
858.034	1.16454
859.719	1.73263
861.403	1.84949
863.085	1.33414
864.769	0.997493
866.452	1.02052
868.133	0.794961
869.816	1.60639
871.498	0.748552
873.179	2.21405
874.86	1.22041
876.54	1.30972
878.221	1.19594
879.902	1.14973
881.58	1.4418
883.26	1.10111
884.938	1.09805
886.618	0.980889
888.297	1.62948
889.974	1.03581
891.653	0.621761
893.329	1.37815
895.007	1.11975
896.683	1.62514
898.36	1.38755
900.035	1.12719
901.712	1.09073
903.387	1.36714
905.063	1.15104
906.737	0.801822
908.412	0.922122
910.085	0.9316
911.76	1.36448
913.433	0.952642
915.107	1.6964
916.779	1.59591
918.452	1.93874
920.124	1.70541
921.797	1.65001
923.467	1.30847
925.138	1.01308
926.81	0.91836
928.48	1.24455
930.151	0.931718
931.82	0.619593
933.489	1.12399
935.16	1.14315
936.828	0.853941
938.496	0.830189
940.165	1.00601
941.833	1.09471
943.5	0.919271
945.168	1.03051
946.834	1.03035
948.5	1.33756
950.168	1.40018
951.834	0.733656
953.499	0.574915
955.163	0.726342
956.83	0.968393
958.494	1.43403
960.158	1.04181
961.821	0.71665
963.487	1.0098
965.15	0.37279
966.812	0.0869579
968.474	0.705908
970.138	1.5
971.8	0.567834
973.461	1.31717
975.123	1.00626
976.783	1.31622
978.446	0.963993
980.106	1.04363
981.766	1.12291
983.425	0.614304
985.084	1.2772
986.743	1.0306
988.402	0.848904
990.06	0.091383
991.72	1.21259
993.378	0.742159
995.035	0.713832
996.692	1.08273
998.349	1.01021
1000.01	0.915516
1001.66	0.952705
1003.32	0.967448
1004.97	0.0802946
1006.63	0.908294
1008.28	0.242057
1009.94	0.652245
1011.59	0.97455
1013.25	0.529821
1014.9	0.414496
1016.55	0.255873
1018.21	0.316646
1019.86	0.465536
1021.51	0.505895
1023.16	0.634611
1024.81	1.11377
1026.47	0.8285
1028.12	1.19876
1029.77	1.21877
1031.42	0.538763
1033.07	0.621897
1034.72	1.29255
1036.37	1.15442
1038.02	1.53858
1039.67	1.33438
1041.31	2.37091
1042.96	1.77715
1044.61	2.51107
1046.26	2.37765
1047.91	1.98563
1049.55	1.70385
1051.2	1.42322
1052.84	1.42567
1054.49	0.972118
1056.14	1.14866
1057.78	0.998905
1059.43	0.609478
1061.07	0.849974
1062.72	0.763618
1064.36	0.459013
1066	0.0231419
1067.65	0.825356
1069.29	0.0185375
1070.93	0.536494
1072.58	0.359317
1074.22	0.725162
1075.86	0.397576
1077.5	-0.232318
1079.14	0.483399
1080.78	0.223875
1082.42	0.701573
1084.06	0.723076
1085.7	0.287919
1087.34	-0.126997
1088.98	0.45287
1090.62	0.554448
1092.26	0.935822
1093.9	0.689821
1095.54	0.358191
1097.17	0.114099
1098.81	0.948516
1100.45	0.513359
1102.09	0.854935
1103.72	0.487967
1105.36	0.810556
1106.99	0.380784
1108.63	0.595951
1110.27	0.229558
1111.9	0.721719
1113.53	0.460181
1115.17	0.605756
1116.8	0.471761
1118.43	0.852562
1120.07	0.162332
1121.7	0.330218
1123.33	0.648662
1124.97	0.497039
1126.6	0.859589
1128.23	0.474221
1129.86	0.880702
1131.49	0.496572
1133.12	0.347902
1134.75	-0.228389
1136.38	0.156676
1138.01	0.604789
1139.64	0.752538
1141.27	0.557684
1142.9	-0.106834
1144.53	0.210503
1146.16	0.293653
1147.78	0.633285
1149.41	0.0999746
1151.04	0.312809
1152.67	-0.113313
1154.29	-0.156313
1155.92	0.353724
1157.54	0.437838
1159.17	0.118122
1160.8	-0.477136
1162.42	0.0555706
1164.05	-0.26143
1165.67	0.463791
1167.29	-0.108216
1168.92	0.169321
1170.54	-0.0860348
1172.16	0.0608282
1173.79	0.248523
1175.41	0.159133
1177.03	0.196659
1178.65	-0.252842
1180.28	-0.637603
1181.9	0.353778
1183.52	0.329771
1185.14	0.00997543
1186.76	-0.0779819
1188.38	0.0859966
1190	0.0161915
1191.62	0.176507
1193.24	0.860739
1194.86	-0.26302
1196.47	0.503164
1198.09	0.681908
1199.71	0.359904
1201.33	0.583827
1202.95	-0.359465
1204.56	0.515998
1206.18	0.516395
1207.8	0.142391
1209.41	0.144129
1211.03	0.916804
1212.64	0.999492
1214.26	0.600821
1215.87	0.159083
1217.49	0.444644
1219.1	0.728795
1220.71	0.327291
1222.33	0.63227
1223.94	0.336946
1225.55	1.03717
1227.16	0.475654
1228.78	0.99141
1230.39	0.887626
1232	0.412902
1233.61	0.559422
1235.22	0.789663
1236.83	1.33103
1238.44	1.1499
1240.05	1.40354
1241.66	1.74019
1243.27	1.29049
1244.88	0.964033
1246.49	0.926302
1248.1	0.991136
1249.71	1.01391
1251.32	1.38811
1252.92	0.748894
1254.53	1.33075
1256.14	1.31377
1257.74	0.84278
1259.35	1.05548
1260.96	1.08277
1262.56	1.31757
1264.17	0.661757
1265.77	0.854756
1267.38	1.23378
1268.98	1.07306
1270.59	1.03577
1272.19	1.41222
1273.79	0.668155
1275.4	1.80967
1277	1.43707
1278.6	1.20894
1280.21	1.51879
1281.81	1.70392
1283.41	1.22702
1285.01	1.04053
1286.61	1.53716
1288.21	1.02177
1289.81	1.33396
1291.41	1.3779
1293.01	1.54567
1294.61	1.29953
1296.21	1.03167
1297.81	1.11349
1299.41	1.50321
1301.01	1.16949
1302.6	1.76209
1304.2	1.38556
1305.8	0.906332
1307.4	1.80353
1308.99	1.54978
1310.59	1.52202
1312.19	1.71984
1313.78	1.36583
1315.38	1.9737
1316.97	1.96897
1318.57	1.78115
1320.16	1.32845
1321.76	1.73108
1323.35	1.80594
1324.94	1.35055
1326.54	1.54458
1328.13	1.79843
1329.72	1.34361
1331.32	1.2958
1332.91	2.0987
1334.5	1.69106
1336.09	1.91095
1337.68	1.90922
1339.27	1.44323
1340.87	1.68122
1342.45	1.41377
1344.04	1.26568
1345.64	1.21736
1347.22	1.71073
1348.81	0.942786
1350.4	1.01894
1351.99	1.17721
1353.58	1.13719
1355.17	0.878471
1356.75	1.15968
1358.34	1.32047
1359.93	0.861271
1361.51	0.880553
1363.1	0.739526
1364.69	0.797736
1366.27	0.895957
1367.86	0.755823
1369.44	0.457613
1371.03	0.757788
1372.61	0.999326
1374.2	0.88364
1375.78	1.24606
1377.37	1.23049
1378.95	0.975648
1380.53	1.09797
1382.11	1.23897
1383.7	0.32482
1385.28	0.941058
1386.86	1.21861
1388.44	1.0195
1390.02	1.05934
1391.6	1.02057
1393.19	0.922988
1394.77	0.786097
1396.35	0.847366
1397.93	0.392593
1399.51	1.36394
1401.08	0.709579
1402.66	0.748196
1404.24	0.905462
1405.82	0.450072
1407.4	0.470158
1408.97	0.747778
1410.55	0.531835
1412.13	0.710878
1413.71	0.968235
1415.28	1.22458
1416.86	0.454508
1418.43	0.906907
1420.01	0.965167
1421.59	0.866808
1423.16	0.769881
1424.73	0.733428
1426.31	0.658662
1427.88	0.741772
1429.46	1.57257
1431.03	0.946041
1432.6	0.889329
1434.18	1.38266
1435.75	1.18701
1437.32	1.2276
1438.89	1.40642
1440.46	1.46816
1442.04	1.19664
1443.61	1.88874
1445.18	1.73611
1446.75	1.3674
1448.32	1.45089
1449.89	1.55433
1451.46	1.8745
1453.03	1.48728
1454.6	1.84772
1456.16	1.61798
1457.73	1.66304
1459.3	1.56916
1460.87	1.41467
1462.44	1.47497
1464	1.57309
1465.57	1.4343
1467.14	1.37394
1468.7	1.09803
1470.27	1.05866
1471.83	1.27531
1473.4	0.982861
1474.96	1.08337
1476.53	0.69403
1478.09	1.40271
1479.66	1.34668
1481.22	1.56496
1482.78	1.35197
1484.35	0.88419
1485.91	1.29778
1487.47	0.848741
1489.04	1.49511
1490.6	1.18041
1492.16	0.629575
1493.72	1.09344
1495.28	0.559847
1496.84	0.864422
1498.4	1.18749
1499.96	0.752376
1501.52	0.823907
1503.08	0.508476
1504.64	0.911205
1506.2	0.500427
1507.76	0.766691
1509.32	0.973533
1510.88	1.121
1512.44	0.0147986
1513.99	0.16205
1515.55	0.847229
1517.11	0.648211
1518.66	0.565362
1520.22	0.559828
1521.78	0.822313
1523.33	0.587003
1524.89	0.389707
1526.44	0.840269
1528	0.222627
1529.55	0.347749
1531.11	0.396577
1532.66	0.521538
1534.21	0.419719
1535.77	0.810749
1537.32	0.332663
1538.87	0.913052
1540.43	0.889239
1541.98	0.601827
1543.53	0.597156
1545.08	0.629915
1546.63	0.530958
1548.18	0.713485
1549.74	1.12051
1551.29	0.571998
1552.84	0.436528
1554.39	0.731943
1555.94	0.729288
1557.48	0.522833
1559.03	0.280883
1560.58	0.469658
1562.13	0.659698
1563.68	0.999915
1565.23	1.39667
1566.78	0.804521
1568.32	0.603942
1569.87	0.73898
1571.42	1.06038
1572.96	0.578861
1574.51	1.12392
1576.05	0.362271
1577.6	0.683522
1579.14	0.83713
1580.69	0.785903
1582.24	1.25827
1583.78	0.741457
1585.32	0.78558
1586.87	0.512289
1588.41	0.800001
1589.95	1.33102
1591.5	0.851205
1593.04	0.913694
1594.58	0.975981
1596.12	1.41308
1597.67	1.06365
1599.21	0.958279
1600.75	0.778363
1602.29	1.06787
1603.83	1.05716
1605.37	0.331897
1606.91	1.18362
1608.45	0.737093
1609.99	0.96522
1611.53	1.32281
1613.07	1.20891
1614.6	0.812529
1616.14	1.12901
1617.68	1.72668
1619.22	1.48175
1620.75	1.61294
1622.29	0.977601
1623.83	1.37282
1625.37	1.18765
1626.9	1.54455
1628.44	1.48849
1629.97	1.52472
1631.51	1.05539
1633.04	0.959841
1634.58	1.01402
1636.11	1.53525
1637.65	1.04978
1639.18	1.29226
1640.72	1.9073
1642.25	2.26045
1643.78	1.69986
1645.31	1.67841
1646.85	1.73055
1648.38	1.96816
1649.91	1.72307
1651.44	1.70189
1652.97	1.58912
1654.5	1.60723
1656.03	1.88535
1657.56	2.47817
1659.1	1.64365
1660.62	1.90087
1662.15	2.04544
1663.68	1.13513
1665.21	1.70333
1666.74	1.69888
1668.27	1.27129
1669.8	1.50908
1671.32	1.98749
1672.85	1.19566
1674.38	1.17804
1675.91	0.902449
1677.43	1.54651
1678.96	1.2693
1680.49	0.899518
1682.01	1.02562
1683.54	1.31654
1685.06	0.891532
1686.59	0.394008
1688.11	0.667194
1689.64	1.19685
1691.16	0.883965
1692.68	0.754444
1694.21	0.551822
1695.73	0.934253
1697.25	0.658285
1698.78	0.911887
1700.3	0.252337
1701.82	0.286216
1703.34	0.428914
1704.86	0.698395
1706.39	0.166518
1707.91	0.816899
1709.43	-0.241177
1710.95	0.0817857
1712.47	0.440604
1713.99	0.853299
1715.51	0.233569
1717.02	0.428698
1718.54	-0.027204
1720.06	0.221808
1721.58	0.290133
1723.1	0.466987
1724.62	0.0318913
1726.13	0.354638
1727.65	0.444191
1729.17	0.28256
1730.68	0.156698
1732.2	0.262098
1733.72	0.224293
1735.23	0.326894
1736.75	0.44534
1738.26	0.132108
1739.78	0.311142
1741.29	-0.179394
1742.81	0.328477
1744.32	-0.0300932
1745.84	0.194729
1747.35	0.361646
1748.86	0.129142
1750.37	0.302662
1751.89	-0.0596895
1753.4	-0.196446
1754.91	0.0901442
1756.42	0.116298
1757.93	0.417876
1759.45	0.398411
1760.96	0.108733
1762.47	0.12014
1763.98	0.25024
1765.49	-0.0516849
1767	0.165208
1768.51	-0.479756
1770.02	-0.040256
1771.53	0.0309644
1773.03	0.20505
1774.54	0.043695
1776.05	0.500703
1777.56	-0.0642133
1779.07	0.308262
1780.57	-0.16497
1782.08	0.0196648
1783.59	0.0180941
1785.09	0.0670524
1786.6	0.188632
1788.11	-0.0824223
1789.61	0.0115457
1791.12	-0.0429754
1792.62	0.0575323
1794.13	0.363724
1795.63	-0.00922823
1797.13	0.110106
1798.64	-0.434414
1800.14	0.0293937
1801.65	-0.0229321
1803.15	-0.285499
1804.65	0.204189
1806.15	0.0727324
1807.66	-0.0127511
1809.16	0.139456
1810.66	0.0223718
1812.16	0.0138483
1813.66	-0.336062
1815.16	0.230302
1816.66	-0.0288315
1818.16	0.340702
1819.66	-0.184789
1821.16	0.182495
1822.66	0.0307531
1824.16	-0.101166
1825.66	-0.122359
1827.16	-0.290066
1828.66	0.1205
1830.16	0.167253
1831.65	-0.249681
1833.15	-0.181158
1834.65	-0.13306
1836.14	0.00539541
1837.64	0.119573
1839.14	0.0663505
1840.63	-0.0065999
1842.13	-0.0286193
1843.62	0.0886135
1845.12	0.0516496
1846.61	0.100202
1848.11	0.0704622
1849.6	-0.0508981
1851.1	0.190539
1852.59	-0.0300035
1854.08	-0.184617
1855.58	0.175459
1857.07	0.327024
1858.56	-0.0635242
1860.05	-0.148737
1861.55	-0.0692377
1863.04	0.0734196
1864.53	0.210921
1866.02	0.100545
1867.51	0.212148
1869	0.0282106
1870.49	0.0157642
1871.98	0.165114
1873.47	0.260835
1874.96	0.0282164
1876.45	0.0843177
1877.94	-0.140656
1879.43	0.0232091
1880.92	0.304045
1882.41	-0.0327835
1882.51	-0.0584369
1884	-0.0589108
1885.5	0.271099
1886.99	-0.270755
1888.48	-0.446869
1889.98	0.369044
1891.47	0.471947
1892.96	0.176215
1894.46	0.316674
1895.95	0.110646
1897.44	0.287837
1898.93	0.0475392
1900.42	0.0325413
1901.91	0.398983
1903.41	-0.175265
1904.9	-0.0201139
1906.39	0.0821443
1907.88	-0.19777
1909.37	-0.0950971
1910.86	0.181725
1912.35	-0.0092659
1913.83	0.0257392
1915.32	0.0261283
1916.81	0.0956068
1918.3	0.233957
1919.79	0.0426583
1921.27	-0.0446682
1922.76	0.02421
1924.25	-0.131327
1925.74	0.423811
1927.22	-0.110854
1928.71	-0.039104
1930.19	0.396291
1931.68	-0.017436
1933.17	0.225732
1934.65	0.346211
1936.14	0.326816
1937.62	-0.367849
1939.11	-0.128919
1940.59	-0.114564
1942.07	0.228316
1943.56	0.192198
1945.04	-0.0156403
1946.52	0.432037
1948.01	-0.0513554
1949.49	-0.000942707
1950.97	-0.312916
1952.45	0.0974708
1953.93	0.214546
1955.42	0.331391
1956.9	-0.101127
1958.38	0.39419
1959.86	0.0661759
1961.34	0.013247
1962.82	0.354744
1964.3	-0.229362
1965.78	0.248415
1967.26	0.263037
1968.74	0.106066
1970.21	0.0855803
1971.69	0.252796
1973.17	0.129563
1974.65	0.125976
1976.13	0.139579
1977.6	0.357689
1979.08	-0.275475
1980.56	0.0787611
1982.03	-0.0265665
1983.51	0.156786
1984.99	-0.0507855
1986.46	0.0809727
1987.94	0.0769367
1989.41	0.157817
1990.89	-0.200881
1992.36	0.0842748
1993.84	-0.00199938
1995.31	0.48701
1996.78	-0.223412
1998.26	-0.392972
1999.73	-0.326374
2001.2	0.397841
2002.68	0.227055
2004.15	0.106899
2005.62	0.00396967
2007.09	0.0532889
2008.56	-0.166111
2010.04	-0.0480404
2011.51	-0.3336
2012.98	0.1047
2014.45	0.222809
2015.92	-0.0130491
2017.39	0.170993
2018.86	0.00121307
2020.33	-0.269646
2021.8	-0.154087
2023.26	0.196592
2024.73	0.463686
2026.2	0.245126
2027.67	0.329687
2029.14	0.0967603
2030.61	-0.168733
2032.07	-0.0140972
2033.54	-0.0604281
2035.01	-0.0396261
2036.47	0.0480981
2037.94	0.152265
2039.4	0.239362
2040.87	0.158348
2042.33	0.279358
2043.8	-0.25494
2045.27	0.102858
2046.73	0.0406899
2048.19	0.214528
2049.66	0.0512238
2051.12	0.241076
2052.59	-0.0592432
2054.05	-0.0405769
2055.51	0.0442052
2056.97	0.532464
2058.44	0.00867271
2059.9	0.529486
2061.36	0.141
2062.82	0.123717
2064.28	0.225037
2065.74	0.630043
2067.21	0.278428
2068.67	0.381671
2070.13	-0.0366325
2071.59	0.218421
2073.05	0.170353
2074.51	0.206266
2075.96	0.258765
2077.42	0.0415354
2078.88	0.160801
2080.34	0.0944777
2081.8	0.246613
2083.26	-0.207801
2084.72	0.532237
2086.17	0.379644
2087.63	-0.00871372
2089.09	0.275201
2090.54	0.424293
2092	0.354921
2093.45	0.285554
2094.91	0.400533
2096.37	0.112748
2097.82	0.494766
2099.28	0.474065
2100.73	0.352801
2102.19	0.298733
2103.64	0.746346
2105.09	0.243174
2106.55	0.42556
2108	0.642034
2109.45	0.558541
2110.91	0.791394
2112.36	0.8397
2113.81	0.603436
2115.26	0.565871
2116.72	0.594129
2118.17	0.539534
2119.62	0.950837
2121.07	0.965102
2122.52	0.91466
2123.97	0.51724
2125.42	0.269667
2126.87	0.900665
2128.32	0.635531
2129.77	0.700843
2131.22	1.11285
2132.67	0.878177
2134.11	0.842255
2135.56	0.922755
2137.01	0.938282
2138.46	1.43459
2139.91	1.00701
2141.35	0.828646
2142.8	1.11417
2144.25	1.21849
2145.7	1.17407
2147.14	1.0797
2148.59	1.05098
2150.03	1.17062
2151.48	1.33917
2152.92	1.30807
2154.37	1.69047
2155.81	1.39316
2157.26	1.85796
2158.7	1.41228
2160.15	1.63036
2161.59	1.43578
2163.03	1.29239
2164.47	1.33262
2165.92	1.39023
2167.36	1.46448
2168.8	1.48805
2170.24	1.52676
2171.69	1.66348
2173.13	1.21626
2174.57	0.96753
2176.01	1.54991
2177.45	1.76644
2178.89	1.98358
2180.33	1.6862
2181.77	1.62235
2183.21	1.59227
2184.65	1.2464
2186.09	1.48271
2187.53	1.63595
2188.97	1.45643
2190.4	1.42664
2191.84	1.44656
2193.28	1.39925
2194.72	1.06777
2196.16	1.48394
2197.59	1.01629
2199.03	1.21283
2200.47	1.49127
2201.9	1.40391
2203.34	1.06837
2204.77	1.67928
2206.21	0.948036
2207.64	0.979938
2209.08	0.846079
2210.51	1.35721
2211.95	0.907537
2213.38	0.804953
2214.82	0.702396
2216.25	0.864558
2217.68	0.928456
2219.12	0.828404
2220.55	0.959931
2221.98	0.745393
2223.41	0.892889
2224.85	1.00619
2226.28	0.509101
2227.71	0.84995
2229.14	0.712806
2230.57	0.722966
2232	0.765695
2233.43	0.464814
2234.86	0.590291
2236.29	0.536756
2237.72	0.419246
2239.15	0.743903
2240.58	0.613193
2242.01	0.48398
2243.44	0.535171
2244.87	0.668221
2246.29	0.605026
2247.72	0.768913
2249.15	0.425601
2250.58	0.651103
2252.01	0.240035
2253.43	0.414475
2254.86	0.540072
2256.29	0.536708
2257.71	0.502758
2259.14	-0.0480771
2260.56	0.295661
2261.99	0.365509
2263.41	0.225531
2264.84	0.508169
2266.26	0.156705
2267.69	0.503803
2269.11	0.199499
2270.53	0.415316
2271.96	0.22377
2273.38	0.374014
2274.8	0.328904
2276.23	0.39799
2277.65	0.467247
2279.07	0.17794
2280.49	0.524395
2281.91	0.430538
2283.34	0.0918489
2284.76	-0.279617
2286.18	0.638393
2287.6	0.414265
2289.02	0.566006
2290.44	-0.0498009
2291.86	0.445693
2293.28	-0.0395393
2294.7	-0.148904
2296.12	0.396315
2297.54	0.221435
2298.96	0.587062
2300.37	0.363122
2301.79	-0.106769
2303.21	-0.101147
2304.63	0.134403
2306.04	0.156641
2307.46	0.457973
2308.88	-0.457262
2310.3	0.287211
2311.71	0.22587
2313.13	0.246727
2314.54	0.103302
2315.96	0.0920453
2317.37	0.180211
2318.79	0.103967
2320.2	0.241885
2321.62	0.214098
2323.03	0.234378
2324.45	0.368411
2325.86	0.22017
2327.27	0.71387
2328.69	0.349422
2330.1	0.232592
2331.51	0.347039
2332.92	-0.0314827
2334.34	0.00220013
2335.75	0.118309
2337.16	-0.0455537
2338.57	0.29962
2339.98	0.134217
2341.39	0.148919
2342.8	-0.0993643
2344.21	0.325045
2345.63	-0.217859
2347.04	-0.235741
2348.45	0.0410676
2349.85	-0.271659
2351.26	0.069356
2352.67	-0.129881
2354.08	0.257961
2355.49	0.253296
2356.9	0.10184
2358.3	-0.211971
2359.71	-0.135087
2361.12	-0.139444
2362.53	-0.0140977
2363.93	0.0947104
2365.34	-0.00708246
2366.75	0.24703
2368.15	0.291191
2369.56	-0.147881
2370.97	-0.0533481
2372.37	0.0742621
2373.77	0.17029
2375.18	-0.119777
2376.59	-0.104167
2377.99	0.0714478
2379.39	0.165338
2380.8	0.129382
2382.2	0.300879
2383.6	0.118929
2385.01	-0.110747
2386.41	-0.115916
2387.81	-0.120423
2389.21	0.0991626
2390.62	-0.206429
2392.02	-0.0171852
2393.42	0.0611854
2394.82	0.012866
2396.22	0.139991
2397.62	-0.113928
2399.02	0.0617199
2400.42	-0.000628948
2401.82	0.413783
2403.22	0.288143
2404.62	0.463948
2406.02	0.13104
2407.42	0.479947
2408.82	0.38385
2410.22	0.366837
2411.62	0.0172968
2413.01	0.00124073
2414.41	-0.061367
2415.81	0.0987492
2417.21	-0.056776
2418.6	0.200023
2420	0.187959
2421.4	0.191648
2422.79	0.480235
2424.19	-0.0393891
2425.59	0.0113664
2426.98	0.284397
2428.38	0.320412
2429.77	0.404757
2431.17	0.0454397
2432.56	0.416146
2433.95	0.278568
2435.35	0.124151
2436.74	0.143327
2438.14	-0.0292997
2439.53	0.289587
2440.92	-0.0911121
2442.31	0.416996
2443.71	0.242166
2445.1	-0.218166
2446.49	0.495009
2447.88	0.0822835
2449.27	0.0975995
2450.67	0.223899
2452.06	0.33467
2453.45	0.398497
2454.84	0.225655
2456.23	0.274856
2457.62	-0.150241
2459.01	0.389424
2460.4	0.137808
2461.79	-0.0352669
2463.18	0.423389
2464.57	0.423074
2465.95	0.296175
2467.34	0.342947
2468.73	0.105622
2470.12	0.0891576
2471.5	0.198469
2472.89	0.244127
2474.28	0.163202
2475.67	0.223469
2477.05	0.0790253
2478.44	0.186044
2479.82	-0.114985
2481.21	0.196094
2482.6	0.067946
2483.98	-0.0759954
2485.37	0.0768356
2486.75	0.228518
2488.13	0.11374
2489.52	-0.00131702
2490.9	-0.147324
2492.29	0.0804734
2493.67	0.184304
2495.05	0.583664
2496.44	0.239327
2497.82	-0.336165
2499.2	0.11091
2500.58	0.448843
2501.97	0.121089
2503.35	0.549764
2504.73	0.390737
2506.11	-0.122831
2507.49	0.211045
2508.87	0.00618601
2510.25	0.508519
2511.63	-0.00226068
2513.01	0.132282
2514.39	0.0528107
2515.77	0.341444
2517.15	-0.241621
2518.53	-0.0439162
2519.91	-0.411685
2521.29	-0.214158
2522.67	0.0895209
2524.05	-0.00439501
2525.42	0.236588
2526.8	0.385604
2528.18	-0.119598
2529.55	0.45632
2530.93	-0.0310922
2532.31	-0.0306902
2533.69	0.411303
2535.06	0.322057
2536.44	-0.0102844
2537.81	0.188606
2539.19	-0.053721
2540.56	0.325964
2541.94	0.0980115
2543.31	0.249719
2544.69	0.144104
2546.06	-0.142582
2547.44	-0.170522
2548.81	0.029705
2550.18	0.0783238
2551.56	-0.0858593
2552.93	0.0527992
2554.3	-0.052115
2555.67	0.130605
2557.04	0.252146
2558.42	0.0550823
2559.79	0.222136
2561.16	0.374357
2562.53	0.314856
2563.9	0.0891185
2565.27	0.28802
2566.64	0.229488
2568.01	0.458971
2569.38	0.218641
2570.75	0.175322
2572.12	0.435174
2573.49	-0.184079
2574.86	0.348784
2576.23	-0.17952
2577.6	0.186607
2578.97	0.340326
2580.33	0.372478
2581.7	0.52561
2583.07	0.11745
2584.44	0.436856
2585.8	0.240767
2587.17	-0.152233
2588.54	0.379452
2589.9	0.380739
2591.27	-0.0120654
2592.64	0.231239
2594	0.0194006
2595.37	0.215795
2596.73	0.0025692
2598.1	0.152042
2599.46	0.149861
2600.83	0.0873089
2602.19	0.191313
2603.55	0.190048
2604.92	0.159023
2606.28	0.143254
2607.64	0.217728
2609.01	0.336716
2610.37	-0.0574641
2611.73	0.526213
2613.09	0.416296
2614.46	0.155759
2615.82	-0.044426
2617.18	0.0557675
2618.54	-0.29309
2619.9	-0.0721736
2621.26	0.373209
2622.62	0.17584
2623.98	0.441813
2625.34	0.304482
2626.7	0.0478473
2628.06	0.357571
2629.42	0.309238
2630.78	-0.006989
2632.14	-0.114678
2633.5	0.238242
2634.86	0.427304
2636.21	0.31943
2637.57	-0.0698304
2638.93	0.237461
2640.29	-0.0769982
2641.64	0.304033
2643	0.374483
2644.36	0.326857
2645.71	0.48577
2647.07	0.231376
2648.43	-0.0820632
2649.78	0.222519
2651.14	0.261369
2652.49	0.0355439
2653.85	0.19178
2655.2	0.187031
2656.56	-0.0219388
2657.91	0.0922308
2659.26	0.119156
2660.62	0.131736
2661.97	0.0857401
2663.32	0.185414
2664.68	0.211369
2666.03	-0.054996
2667.38	-0.131844
2668.74	0.0825844
2670.09	0.209567
2671.44	0.307663
2672.79	0.202682
2674.14	-0.046926
2675.49	0.0815272
2676.84	0.181259
2678.19	0.426437
2679.54	0.0196166
2680.89	-0.0528436
2682.24	0.00604439
2683.59	0.181814
2684.94	0.198823
2686.29	0.274238
2687.64	0.465705
2688.99	0.220832
2690.34	0.410168
2691.69	0.264218
2693.03	0.102686
2694.38	0.201583
2695.73	0.227762
2697.08	0.32679
2698.42	0.426715
2699.77	0.194865
2701.12	0.196014
2702.46	0.140351
2703.81	0.128901
2705.15	0.190312
2706.5	0.324346
2707.85	0.284171
2709.19	0.185584
2710.54	-0.247376
2711.88	0.481311
2713.22	0.193161
2714.57	0.326316
2715.91	0.241398
2717.26	0.0254202
2718.6	0.274673
2719.94	-0.0582786
2721.29	0.306874
2722.63	-0.0850997
2723.97	0.0465226
2725.31	0.177827
2726.66	0.0322952
2728	0.235835
2729.34	0.118999
2730.68	0.409491
2732.02	0.27797
2733.36	0.175632
2734.7	-0.0574689
2736.04	0.247758
2737.38	0.0149255
2738.72	0.0584173
2740.06	0.276225
2741.4	0.101043
2742.74	0.274332
2744.08	0.214478
2745.42	0.00891113
2746.76	-0.182295
2748.09	0.0764952
2749.43	-0.114695
2750.77	0.187518
2752.11	-0.119225
2753.45	-0.0197878
2754.78	0.239074
2756.12	0.0923266
2757.46	0.264333
2758.79	0.335105
2760.13	-0.143841
2761.46	0.159153
2762.8	0.0572786
2764.14	0.317376
2765.47	0.0855141
2766.8	0.142693
2768.14	0.31488
2769.47	0.254643
2770.81	-0.0956688
2772.14	0.015573
2773.48	-0.0328383
2774.81	0.437419
2776.14	-0.303112
2777.48	0.00846052
2778.81	0.089848
2780.14	-0.14465
2781.47	0.210191
2782.8	-0.167285
2784.14	-0.142745
2785.47	-0.017931
2786.8	-0.179611
2788.13	0.0171223
2789.46	0.0425205
2790.79	0.082859
2792.12	0.00936174
2793.45	0.136373
2794.78	-0.0224781
2796.11	0.118557
2797.44	-0.0122895
2798.77	0.413391
2800.1	0.124785
2801.43	0.121538
2802.76	0.289246
2804.09	0.0718122
2805.41	-0.387834
2806.74	0.277092
2808.07	0.158348
2809.4	-0.00317383
2810.72	0.247394
2812.05	-0.21151
2813.38	-0.385378
2814.71	0.235857
2816.03	0.0356913
2817.36	0.00649261
2818.68	-0.0931358
2820.01	-0.121885
2821.33	-0.0942578
2822.66	0.0462503
2823.98	0.0870719
2825.31	0.226763
2826.63	0.0690317
2827.96	0.0391698
2829.28	0.137139
2830.6	0.178814
2831.93	-0.147394
2833.25	0.191662
2834.57	-0.205551
2835.9	0.0338178
2837.22	0.0604849
2838.54	0.497049
2839.86	0.721099
2841.18	0.676483
2842.5	0.406049
2843.83	0.786307
2845.15	0.714813
2846.47	1.02537
2847.79	0.813314
2849.11	0.926333
2850.43	0.841261
2851.75	0.713423
2853.07	0.910277
2854.39	1.09267
2855.71	1.21835
2857.03	1.20272
2858.35	1.03176
2859.66	1.46811
2860.98	1.43823
2862.3	1.46458
2863.62	1.60355
2864.94	1.58702
2866.25	1.64102
2867.57	1.7516
2868.89	2.05987
2870.2	1.81856
2871.52	1.66203
2872.84	2.22411
2874.15	1.74272
2875.47	2.14817
2876.78	1.74996
2878.1	2.32243
2879.41	2.20495
2880.73	2.53762
2882.04	1.92932
2883.36	1.60319
2884.67	1.8677
2885.99	2.34311
2887.3	2.22892
2888.61	1.79171
2889.93	2.50442
2891.24	2.23442
2892.55	2.46873
2893.86	2.52058
2895.18	2.30663
2896.49	2.20545
2897.8	2.38502
2899.11	2.5933
2900.42	2.71822
2901.73	2.78755
2903.05	2.85704
2904.36	3.01057
2905.67	2.81465
2906.98	2.67512
2908.29	2.95587
2909.6	3.29334
2910.91	3.35152
2912.21	3.07379
2913.52	4.01337
2914.83	3.83191
2916.14	3.62103
2917.45	4.03875
2918.76	4.56732
2920.07	4.1723
2921.37	4.18358
2922.68	4.60129
2923.99	4.54485
2925.29	4.47544
2926.6	4.54635
2927.91	4.75712
2929.22	4.82779
2930.52	4.68829
2931.83	4.40861
2933.13	5.02335
2934.44	4.51983
2935.74	4.67335
2937.05	5.06457
2938.35	4.61748
2939.66	4.53398
2940.96	4.409
2942.26	4.27077
2943.57	4.63667
2944.87	4.5845
2946.18	4.00188
2947.48	4.00697
2948.78	4.01188
2950.08	3.80585
2951.39	3.66831
2952.69	4.07532
2953.99	3.23501
2955.29	3.59851
2956.59	3.43074
2957.9	3.15265
2959.2	3.00262
2960.5	3.35898
2961.8	3.03055
2963.1	3.13721
2964.4	2.9909
2965.7	2.61853
2967	2.69425
2968.3	2.76899
2969.6	2.61819
2970.9	2.94544
2972.19	2.35864
2973.49	2.16584
2974.79	2.29672
2976.09	2.53983
2977.39	2.51447
2978.68	2.4596
2979.98	2.31889
2981.28	1.52994
2982.58	1.86642
2983.87	1.93575
2985.17	1.79507
2986.47	1.47297
2987.76	1.8687
2989.06	1.40804
2990.35	1.25674
2991.65	1.17535
2992.94	1.23376
2994.24	1.30526
2995.53	0.898296
2996.83	0.757875
2998.12	0.827934
2999.42	0.842014
3000.71	0.828455
3002	0.773315
3003.3	0.928737
3004.59	0.607887
3005.88	0.623156
3007.18	0.512001
3008.47	0.34439
3009.76	0.288203
3011.05	0.245544
3012.34	-0.0765719
3013.64	0.355162
3014.93	0.382297
3016.22	0.326354
3017.51	0.354598
3018.8	0.564118
3020.09	0.245028
3021.38	0.301278
3022.67	0.0374074
3023.96	0.0508146
3025.25	0.146855
3026.54	0.408769
3027.83	-0.0489726
3029.12	0.144722
3030.41	-0.089057
3031.69	-0.0452852
3032.98	-0.0283628
3034.27	0.195827
3035.56	0.129805
3036.84	-0.0473695
3038.13	0.0224323
3039.42	0.310958
3040.71	-0.0345826
3041.99	0.004457
3043.28	0.125612
3044.57	0.247094
3045.85	0.273842
3047.14	0.329536
3048.42	0.619081
3049.71	0.159443
3050.99	0.165218
3052.28	0.30811
3053.56	0.355532
3054.85	0.116009
3056.13	0.189559
3057.41	0.139594
3058.7	0.402485
3059.98	0.324502
3061.26	0.151664
3062.55	0.306188
3063.83	0.14894
3065.11	0.264846
3066.39	0.109925
3067.68	0.608411
3068.96	-0.15731
3070.24	-0.0393186
3071.52	0.418143
3072.8	0.330706
3074.08	-0.24697
3075.36	-0.00952435
3076.65	0.186757
3077.93	0.0845556
3079.21	0.0375476
3080.49	0.0595264
3081.77	0.12338
3083.04	-0.0966773
3084.32	-0.180559
3085.6	0.224226
3086.88	0.0994878
3088.16	-0.0800219
3089.44	-0.246376
3090.72	0.116264
3091.99	-0.131782
3093.27	0.0816054
3094.55	-0.0574031
3095.83	0.0615129
3097.1	0.0991745
3098.38	0.367244
3099.66	0.0524979
3100.93	0.266213
3102.21	0.168443
3103.49	0.422989
3104.76	0.298865
3106.04	0.1348
3107.31	0.120357
3108.59	0.120264
3109.86	0.053329
3111.14	0.122533
3112.41	0.327859
3113.69	0.357573
3114.96	0.604244
3116.23	0.471113
3117.51	0.228819
3118.78	0.202768
3120.05	0.433647
3121.33	0.406199
3122.6	-0.00106239
3123.87	0.499514
3125.14	-0.110394
3126.41	0.403943
3127.69	0.282502
3128.96	0.391527
3130.23	0.473774
3131.5	0.502081
3132.77	0.530342
3134.04	0.558382
3135.31	0.329574
3136.58	-0.00721407
3137.85	0.384193
3139.12	0.491939
3140.39	0.464854
3141.66	0.545548
3142.93	0.478608
3144.2	0.586738
3145.47	0.655015
3146.74	0.804228
3148	0.806452
3149.27	0.809237
