200.563	0.0270481
202.377	0.0564728
204.194	0.0868521
206.008	-0.100947
207.821	0.683949
209.634	0.641323
211.449	0.0632496
213.262	-0.0543728
215.074	0.263615
216.885	0.0473137
218.699	0.364142
220.51	0.560002
222.321	0.369434
224.131	0.0831213
225.941	0.135802
227.751	0.64734
229.562	0.675076
231.371	0.629704
233.18	0.222155
234.988	0.0563726
236.796	0.470347
238.603	0.934313
240.411	0.412407
242.219	0.471067
244.026	-0.0722504
245.832	0.0836134
247.638	0.406975
249.443	0.558734
251.248	-0.210093
253.053	-0.0398674
254.857	0.36977
256.661	-0.1617
258.465	-0.282291
260.268	0.0563536
262.071	0.468825
263.874	0.376862
265.678	0.406267
267.48	-0.0943756
269.282	0.489116
271.083	0.662056
272.884	0.3998
274.684	0.570066
276.484	-0.442527
278.284	0.495517
280.084	0.250611
281.883	-0.140405
283.682	0.573582
285.48	-0.637069
287.276	0.0498857
289.074	0.136039
290.871	0.102901
292.668	0.214571
294.465	0.614494
296.261	0.17855
298.057	0.771533
299.853	0.552194
301.648	0.595436
303.443	0.685484
305.237	0.774167
307.032	-0.688451
308.823	0.067111
310.617	-0.0353479
312.41	0.387262
314.203	0.787321
315.995	-0.192029
317.788	1.04483
319.579	0.997291
321.369	0.164201
323.16	0.666415
324.951	0.572979
326.741	0.288417
328.531	0.289898
330.321	0.529737
332.108	0.266298
333.897	0.168486
335.686	0.307894
337.474	0.229774
339.26	0.388906
341.048	-0.00354576
342.835	0.368458
344.622	-0.502379
346.406	0.15642
348.192	-0.18748
349.978	-0.0295258
351.764	-0.205844
353.547	0.404748
355.332	-0.226432
357.116	0.619905
358.901	-0.0848236
360.682	0.377073
362.466	0.0283861
364.249	0.321465
366.03	0.732102
367.812	0.191869
369.594	0.671351
371.374	0.106853
373.155	0.158016
374.936	0.586772
376.715	-0.000371933
378.495	0.145143
380.273	0.314696
382.053	0.437915
383.832	0.256339
385.609	0.499239
387.388	0.883995
389.164	0.0245085
390.942	0.129195
392.72	0.140594
394.495	0.43428
396.272	0.986614
398.047	0.270772
399.823	0.588102
401.597	0.341265
403.372	0.681002
405.145	0.432796
406.92	0.653582
408.693	0.145877
410.467	0.130986
412.239	0.0456915
414.012	0.289284
415.783	0.486508
417.556	0.332484
419.327	0.0616236
421.099	0.0959892
422.869	0.529135
424.64	0.820836
426.409	0.782967
428.18	0.180895
429.948	0.799029
431.718	0.00879955
433.486	0.228101
435.253	0.635422
437.022	-0.295088
438.789	0.0410814
440.558	0.164661
442.324	0.872717
444.089	0.359028
445.857	0.593899
447.622	0.476219
449.386	0.101113
451.153	0.474328
452.917	-0.156548
454.682	0.473256
456.446	0.0765676
458.208	0.262534
459.973	0.262118
461.735	0.773894
463.497	0.124484
465.259	-0.0808516
467.022	0.204252
468.783	0.677746
470.544	0.153289
472.306	0.187201
474.066	0.360117
475.825	-0.0507221
477.585	0.0954294
479.346	0.705882
481.104	0.290517
482.862	0.713823
484.62	0.25316
486.38	0.283309
488.137	-0.0576162
489.894	0.185901
491.65	1.08435
493.407	0.746553
495.164	1.08657
496.92	0.631165
498.675	0.854134
500.43	0.584553
502.184	0.407774
503.939	0.652699
505.694	0.450308
507.448	0.411017
509.201	0.299719
510.954	0.469275
512.706	0.355061
514.459	0.192443
516.21	1.41659
517.962	0.969211
519.715	0.0980873
521.466	0.28438
523.216	0.681403
524.966	0.279821
526.716	0.934245
528.466	0.0171375
530.215	0.858387
531.964	0.31651
533.712	0.383091
535.46	0.284793
537.208	1.2837
538.955	0.551865
540.703	0.310199
542.449	0.347878
544.196	0.64102
545.942	0.538449
547.688	0.830806
549.433	0.844551
551.178	0.302769
552.923	0.224919
554.667	0.262929
556.412	0.00104713
558.155	-0.329161
559.899	0.171022
561.642	0.325541
563.385	-0.140688
565.127	-0.283953
566.867	-0.0589752
568.609	0.671478
570.35	-0.318836
572.092	-0.0455503
573.832	-0.183858
575.573	0.115203
577.313	0.0716066
579.053	0.419369
580.79	0.0331249
582.529	-0.146622
584.268	-0.166087
586.006	0.59552
587.745	0.321236
589.482	-0.2303
591.218	0.0225897
592.955	0.827231
594.692	-0.27787
596.428	-0.117524
598.164	-0.118263
599.898	0.455828
601.634	0.0859356
603.369	0.313009
605.104	-0.0820446
606.836	-0.454849
608.57	0.205456
610.304	0.337054
612.037	0.0790195
613.769	0.211696
615.501	-0.0676861
617.234	0.226018
618.966	-0.328306
620.696	-0.310787
622.427	-0.340058
624.159	0.475794
625.887	0.12558
627.618	0.301842
629.348	0.456884
631.076	0.134808
632.806	0.339345
634.535	0.248126
636.262	0.293507
637.99	0.428644
639.716	0.0136356
641.444	0.00699902
643.172	-0.0700302
644.897	-0.102372
646.624	0.252345
648.348	0.380908
650.075	0.739369
651.801	0.328702
653.524	0.375914
655.249	-0.279124
656.972	0.0456867
658.697	-0.0839844
660.419	0.150773
662.143	0.544475
663.865	0.182513
665.588	0.0924616
667.309	0.32091
669.032	0.251514
670.752	0.159948
672.474	0.642152
674.194	0.00486946
675.915	0.560322
677.634	-0.14411
679.355	0.689042
681.073	0.902157
682.793	-0.28948
684.511	0.679509
686.23	0.242882
687.947	0.196245
689.664	0.356005
691.382	0.215704
693.098	0.21308
694.816	0.670446
696.531	0.712304
698.247	0.200604
699.963	0.83871
701.678	1.1302
703.392	1.05276
705.108	0.239874
706.821	0.575175
708.534	0.772019
710.249	0.12047
711.962	0.0420322
713.674	0.672503
715.388	1.8958
717.099	0.400062
718.81	0.116025
720.523	0.539124
722.234	1.14382
723.944	0.905729
725.654	0.827069
727.365	0.566585
729.075	0.35161
730.784	0.816736
732.492	0.759768
734.202	0.589628
735.91	0.555519
737.618	0.521811
739.325	0.556444
741.034	0.862349
742.741	1.3491
744.447	1.45379
746.153	1.49222
747.859	1.23947
749.564	1.68535
751.271	1.2552
752.976	1.09615
754.681	1.16329
756.385	1.00676
758.088	0.78392
759.792	0.719802
761.495	1.3555
763.2	0.796705
764.902	1.74974
766.604	1.21169
768.306	0.987894
770.008	1.28212
771.709	1.59728
773.41	1.61722
775.11	1.41067
776.811	1.83776
778.51	2.6053
780.21	1.61047
781.909	1.90569
783.608	2.42751
785.307	1.52235
787.005	2.08623
788.703	1.90015
790.401	2.07306
792.098	1.88162
793.795	1.84712
795.492	1.67715
797.188	1.82389
798.884	2.03951
800.58	1.67138
802.276	1.41738
803.971	1.9063
805.665	1.0459
807.36	1.87069
809.054	2.04232
810.748	1.98823
812.441	2.18002
814.135	2.10215
815.826	1.30786
817.518	2.16999
819.21	1.48877
820.902	2.0816
822.594	1.66985
824.285	2.17359
825.976	1.76448
827.665	1.84778
829.355	2.00039
831.045	1.8663
832.735	1.86842
834.424	1.761
836.111	2.45732
837.8	1.92673
839.488	1.55077
841.177	1.8432
842.864	1.97821
844.55	1.44247
846.237	1.26479
847.924	2.25134
849.61	1.5184
851.295	1.81671
852.98	1.66899
854.666	1.05053
856.349	1.68851
858.034	1.76463
859.719	1.41178
861.403	1.32702
863.085	1.10557
864.769	1.24344
866.452	1.26789
868.133	1.44965
869.816	1.20256
871.498	0.616757
873.179	1.02329
874.86	0.910916
876.54	0.888796
878.221	0.844116
879.902	1.61197
881.58	1.20574
883.26	1.29548
884.938	1.45196
886.618	1.49429
888.297	1.10652
889.974	1.39421
891.653	1.49997
893.329	1.53684
895.007	1.10009
896.683	1.6073
898.36	0.495839
900.035	1.04582
901.712	1.77305
903.387	1.11079
905.063	0.695848
906.737	1.33116
908.412	1.58653
910.085	1.70855
911.76	1.3195
913.433	1.10965
915.107	1.54435
916.779	1.11321
918.452	1.08172
920.124	1.29395
921.797	1.46208
923.467	1.27734
925.138	1.02806
926.81	1.20016
928.48	0.689389
930.151	1.01845
931.82	1.52447
933.489	1.39083
935.16	1.52207
936.828	1.43315
938.496	1.49943
940.165	0.83896
941.833	0.444062
943.5	1.15289
945.168	0.956954
946.834	0.62749
948.5	1.02489
950.168	0.979164
951.834	0.51329
953.499	0.621243
955.163	0.620247
956.83	0.555433
958.494	1.02272
960.158	1.0293
961.821	0.507019
963.487	1.26595
965.15	0.785666
966.812	0.656674
968.474	0.525302
970.138	0.6356
971.8	1.05484
973.461	0.678264
975.123	1.18756
976.783	1.01291
978.446	0.419164
980.106	0.854587
981.766	1.28988
983.425	0.938206
985.084	1.22678
986.743	1.49129
988.402	1.20094
990.06	0.909773
991.72	0.596281
993.378	0.525983
995.035	0.720739
996.692	0.849193
998.349	0.955427
1000.01	1.39185
1001.66	1.69525
1003.32	0.853561
1004.97	1.33217
1006.63	0.755244
1008.28	0.662349
1009.94	0.899015
1011.59	1.3989
1013.25	-0.18339
1014.9	0.645805
1016.55	0.48934
1018.21	0.989863
1019.86	0.856402
1021.51	0.396003
1023.16	0.920375
1024.81	0.505628
1026.47	0.768868
1028.12	0.638754
1029.77	1.1198
1031.42	1.33745
1033.07	0.985934
1034.72	1.20057
1036.37	1.23932
1038.02	1.90904
1039.67	1.27168
1041.31	1.17967
1042.96	1.74107
1044.61	1.52136
1046.26	0.847495
1047.91	1.28311
1049.55	1.02516
1051.2	0.855146
1052.84	1.20714
1054.49	0.516569
1056.14	1.02109
1057.78	0.547297
1059.43	0.920884
1061.07	1.07655
1062.72	1.07933
1064.36	0.950834
1066	0.886677
1067.65	0.408687
1069.29	0.321268
1070.93	-0.309476
1072.58	0.601377
1074.22	0.0798759
1075.86	0.557343
1077.5	1.03568
1079.14	0.0837727
1080.78	0.498648
1082.42	0.826732
1084.06	0.720351
1085.7	0.764353
1087.34	1.04492
1088.98	0.673797
1090.62	0.453214
1092.26	0.772431
1093.9	0.766739
1095.54	0.13561
1097.17	0.885823
1098.81	0.688307
1100.45	0.514065
1102.09	0.685863
1103.72	0.945085
1105.36	0.882674
1106.99	0.369074
1108.63	0.737003
1110.27	0.587854
1111.9	0.136593
1113.53	0.844403
1115.17	0.777544
1116.8	0.688842
1118.43	-0.0427103
1120.07	0.46979
1121.7	0.340174
1123.33	0.810807
1124.97	0.960982
1126.6	1.11181
1128.23	0.600345
1129.86	0.367601
1131.49	0.11399
1133.12	0.0102882
1134.75	0.398112
1136.38	0.293744
1138.01	0.530429
1139.64	0.103848
1141.27	0.146516
1142.9	1.04228
1144.53	0.401712
1146.16	1.0414
1147.78	0.16839
1149.41	0.787928
1151.04	0.150859
1152.67	0.791754
1154.29	0.0695276
1155.92	0.0284414
1157.54	0.625551
1159.17	0.350587
1160.8	0.225319
1162.42	0.0797215
1164.05	-0.00129032
1165.67	-0.37961
1167.29	-0.311658
1168.92	0.116872
1170.54	0.0550528
1172.16	0.54409
1173.79	0.691453
1175.41	0.328445
1177.03	0.241176
1178.65	-0.0152206
1180.28	0.63946
1181.9	-0.207837
1183.52	0.489649
1185.14	0.0665016
1186.76	0.213203
1188.38	1.03348
1190	0.290922
1191.62	0.516801
1193.24	0.299428
1194.86	0.375922
1196.47	0.368412
1198.09	0.529198
1199.71	0.0845957
1201.33	0.938122
1202.95	0.414578
1204.56	0.311098
1206.18	0.251092
1207.8	0.546765
1209.41	0.738245
1211.03	1.01237
1212.64	0.742796
1214.26	0.784152
1215.87	0.303077
1217.49	0.736651
1219.1	0.233495
1220.71	0.914494
1222.33	0.868927
1223.94	0.76235
1225.55	0.843537
1227.16	0.843112
1228.78	0.843848
1230.39	0.96968
1232	1.38584
1233.61	0.810837
1235.22	0.939641
1236.83	1.09013
1238.44	1.38621
1240.05	1.78638
1241.66	1.44227
1243.27	1.49075
1244.88	1.57993
1246.49	1.44059
1248.1	1.46589
1249.71	1.55261
1251.32	1.45286
1252.92	1.60156
1254.53	1.41995
1256.14	1.69434
1257.74	1.14237
1259.35	1.79133
1260.96	1.48924
1262.56	1.47724
1264.17	1.73452
1265.77	1.63932
1267.38	1.83359
1268.98	2.02707
1270.59	1.92936
1272.19	1.39527
1273.79	1.8762
1275.4	1.94153
1277	1.09423
1278.6	1.90391
1280.21	1.88419
1281.81	1.88492
1283.41	1.96851
1285.01	2.40407
1286.61	2.26134
1288.21	2.11966
1289.81	1.99951
1291.41	1.79716
1293.01	2.00795
1294.61	1.97009
1296.21	1.84845
1297.81	1.91124
1299.41	1.14726
1301.01	1.94978
1302.6	2.31738
1304.2	2.00435
1305.8	1.7324
1307.4	1.85074
1308.99	2.13267
1310.59	2.06566
1312.19	2.30619
1313.78	2.05614
1315.38	1.62355
1316.97	1.88665
1318.57	1.9662
1320.16	2.0251
1321.76	1.53311
1323.35	1.95633
1324.94	2.53968
1326.54	2.38958
1328.13	1.97584
1329.72	1.64471
1331.32	1.59889
1332.91	1.65611
1334.5	2.15934
1336.09	2.92567
1337.68	2.38073
1339.27	1.65433
1340.87	1.93445
1342.45	2.23231
1344.04	2.04537
1345.64	1.85793
1347.22	1.55086
1348.81	1.40617
1350.4	1.56401
1351.99	1.50378
1353.58	1.56528
1355.17	1.88764
1356.75	1.73055
1358.34	1.33343
1359.93	1.45494
1361.51	1.59539
1363.1	1.41583
1364.69	1.21627
1366.27	0.877687
1367.86	1.257
1369.44	1.81614
1371.03	1.32142
1372.61	0.967321
1374.2	0.972312
1375.78	1.23648
1377.37	0.943541
1378.95	1.18743
1380.53	1.51001
1382.11	1.2346
1383.7	1.13722
1385.28	1.03912
1386.86	1.05996
1388.44	1.29933
1390.02	1.30087
1391.6	1.62062
1393.19	1.10767
1394.77	1.32907
1396.35	1.09413
1397.93	0.680317
1399.51	0.93969
1401.08	0.643545
1402.66	1.04004
1404.24	0.842605
1405.82	1.00171
1407.4	1.00323
1408.97	1.08444
1410.55	1.10674
1412.13	1.26717
1413.71	0.854557
1415.28	1.58589
1416.86	1.58616
1418.43	1.52699
1420.01	1.78336
1421.59	1.03625
1423.16	1.27514
1424.73	1.20036
1426.31	1.67768
1427.88	1.52558
1429.46	1.92433
1431.03	1.81051
1432.6	1.83346
1434.18	1.6195
1435.75	1.97562
1437.32	2.25308
1438.89	1.92171
1440.46	2.51505
1442.04	1.89068
1443.61	2.09234
1445.18	2.03883
1446.75	2.47685
1448.32	1.95185
1449.89	2.76386
1451.46	2.12147
1453.03	1.99064
1454.6	2.25348
1456.16	2.06381
1457.73	2.20802
1459.3	1.70164
1460.87	1.3906
1462.44	2.29787
1464	1.84618
1465.57	1.90501
1467.14	1.2367
1468.7	1.66883
1470.27	1.00237
1471.83	1.61242
1473.4	1.28159
1474.96	1.57901
1476.53	1.0924
1478.09	1.1941
1479.66	1.1585
1481.22	1.49521
1482.78	1.04787
1484.35	1.14916
1485.91	0.858308
1487.47	1.13489
1489.04	1.03823
1490.6	1.40972
1492.16	1.6811
1493.72	1.16888
1495.28	1.14401
1496.84	1.09885
1498.4	0.742313
1499.96	0.91183
1501.52	1.1012
1503.08	0.651192
1504.64	0.725798
1506.2	1.05207
1507.76	0.874415
1509.32	1.08261
1510.88	0.884208
1512.44	0.781945
1513.99	0.814373
1515.55	0.597
1517.11	0.975734
1518.66	0.913167
1520.22	0.583067
1521.78	0.598195
1523.33	0.460112
1524.89	0.684425
1526.44	0.278232
1528	0.633992
1529.55	0.836248
1531.11	0.791117
1532.66	0.519002
1534.21	1.15718
1535.77	0.754424
1537.32	1.1468
1538.87	0.557468
1540.43	0.931192
1541.98	0.626115
1543.53	0.566183
1545.08	0.694198
1546.63	1.17862
1548.18	0.479929
1549.74	1.07585
1551.29	0.678385
1552.84	1.10513
1554.39	0.728229
1555.94	0.577112
1557.48	1.23012
1559.03	0.671328
1560.58	0.841814
1562.13	0.360565
1563.68	1.2793
1565.23	0.83657
1566.78	1.19621
1568.32	0.939828
1569.87	1.35504
1571.42	1.13532
1572.96	1.38203
1574.51	1.38594
1576.05	1.27787
1577.6	1.4313
1579.14	1.36106
1580.69	0.787138
1582.24	0.867285
1583.78	0.742592
1585.32	1.42198
1586.87	0.924386
1588.41	1.45521
1589.95	1.51847
1591.5	1.54396
1593.04	0.857509
1594.58	1.85618
1596.12	1.18795
1597.67	0.894475
1599.21	1.87631
1600.75	1.73402
1602.29	2.09873
1603.83	1.24313
1605.37	1.36306
1606.91	1.27523
1608.45	1.33615
1609.99	1.97783
1611.53	1.17056
1613.07	1.50791
1614.6	1.54356
1616.14	1.31628
1617.68	2.13932
1619.22	1.91337
1620.75	1.48288
1622.29	1.74651
1623.83	1.58011
1625.37	1.82553
1626.9	1.45261
1628.44	0.985284
1629.97	1.7888
1631.51	1.39455
1633.04	1.43003
1634.58	1.48439
1636.11	1.72592
1637.65	1.83745
1639.18	2.09854
1640.72	1.80034
1642.25	1.63221
1643.78	1.7426
1645.31	1.90767
1646.85	2.29487
1648.38	2.29106
1649.91	1.50781
1651.44	2.13663
1652.97	2.63602
1654.5	2.13481
1656.03	2.39438
1657.56	2.52397
1659.1	2.0045
1660.62	2.16929
1662.15	2.11063
1663.68	2.27287
1665.21	2.37897
1666.74	1.80243
1668.27	2.50014
1669.8	2.05557
1671.32	2.11016
1672.85	2.1288
1674.38	1.66901
1675.91	1.3565
1677.43	1.89008
1678.96	1.99919
1680.49	1.57412
1682.01	1.38778
1683.54	1.60536
1685.06	1.40069
1686.59	1.34326
1688.11	0.809741
1689.64	1.22963
1691.16	1.53941
1692.68	1.35484
1694.21	0.822857
1695.73	1.07736
1697.25	0.911146
1698.78	0.744837
1700.3	1.19885
1701.82	0.88589
1703.34	0.75514
1704.86	0.605948
1706.39	0.784132
1707.91	0.925436
1709.43	0.46707
1710.95	0.608387
1712.47	0.241914
1713.99	0.473999
1715.51	0.379908
1717.02	1.06364
1718.54	0.372666
1720.06	0.639786
1721.58	0.401428
1723.1	0.235977
1724.62	0.161569
1726.13	0.538359
1727.65	0.35781
1729.17	0.376026
1730.68	0.682556
1732.2	0.275415
1733.72	0.432137
1735.23	0.560066
1736.75	0.370328
1738.26	0.488088
1739.78	0.363757
1741.29	0.760957
1742.81	0.685164
1744.32	0.336601
1745.84	0.521882
1747.35	0.0373373
1748.86	0.461846
1750.37	0.235991
1751.89	0.455426
1753.4	0.154174
1754.91	0.252652
1756.42	0.334133
1757.93	0.154963
1759.45	0.00307655
1760.96	0.0655985
1762.47	0.065836
1763.98	0.061986
1765.49	-0.0122299
1767	-0.0458069
1768.51	0.0718403
1770.02	-0.267212
1771.53	0.181305
1773.03	0.550141
1774.54	0.552832
1776.05	0.25076
1777.56	0.354791
1779.07	0.0384197
1780.57	0.0578198
1782.08	0.204682
1783.59	0.256367
1785.09	0.400747
1786.6	-0.0599828
1788.11	0.200617
1789.61	-0.0245004
1791.12	-0.220787
1792.62	0.178335
1794.13	0.126834
1795.63	0.229032
1797.13	0.255677
1798.64	0.0269074
1800.14	0.111865
1801.65	0.161557
1803.15	0.11618
1804.65	0.138912
1806.15	-0.0492821
1807.66	-0.0397911
1809.16	0.083972
1810.66	-0.103631
1812.16	-0.144981
1813.66	0.0958476
1815.16	-0.020328
1816.66	0.0280132
1818.16	0.00296736
1819.66	0.30368
1821.16	0.245114
1822.66	0.165504
1824.16	0.290096
1825.66	0.24846
1827.16	0.287648
1828.66	0.281954
1830.16	0.161674
1831.65	0.137003
1833.15	0.0132751
1834.65	0.0904188
1836.14	-0.342686
1837.64	-0.292741
1839.14	0.171683
1840.63	0.196785
1842.13	0.201358
1843.62	0.363374
1845.12	-0.389119
1846.61	0.292968
1848.11	0.325296
1849.6	0.129159
1851.1	-0.0768676
1852.59	-0.0146742
1854.08	0.150935
1855.58	0.0179849
1857.07	0.0147891
1858.56	0.424589
1860.05	0.214192
1861.55	0.0332537
1863.04	0.108759
1864.53	0.288516
1866.02	-0.160381
1867.51	0.116088
1869	0.119711
1870.49	0.178793
1871.98	-0.0535302
1873.47	0.206386
1874.96	-0.303164
1876.45	-0.0381589
1877.94	-0.123597
1879.43	0.0181575
1880.92	-0.114103
1882.41	0.202298
1882.51	0.225102
1884	-0.0548267
1885.5	0.135398
1886.99	0.394496
1888.48	0.287381
1889.98	-0.0108714
1891.47	0.248349
1892.96	0.299913
1894.46	-0.0470805
1895.95	0.319879
1897.44	0.322359
1898.93	0.011652
1900.42	0.152471
1901.91	-0.247122
1903.41	-0.265166
1904.9	-0.232019
1906.39	0.321785
1907.88	0.301933
1909.37	0.143677
1910.86	-0.100543
1912.35	0.107024
1913.83	0.124125
1915.32	0.592143
1916.81	-0.0671659
1918.3	0.0187545
1919.79	0.329554
1921.27	-0.0354362
1922.76	0.0676064
1924.25	-0.209662
1925.74	-0.191802
1927.22	-0.017406
1928.71	0.244048
1930.19	0.193851
1931.68	-0.133997
1933.17	-0.0991821
1934.65	0.0555754
1936.14	-0.136994
1937.62	0.344152
1939.11	0.599702
1940.59	0.164439
1942.07	-0.114377
1943.56	0.246058
1945.04	-0.10017
1946.52	0.140216
1948.01	-0.0333104
1949.49	0.344028
1950.97	0.186545
1952.45	0.217851
1953.93	0.0939388
1955.42	-0.0814199
1956.9	0.0528264
1958.38	0.290367
1959.86	0.202259
1961.34	-0.142577
1962.82	0.0100789
1964.3	0.128218
1965.78	0.143146
1967.26	-0.0649247
1968.74	0.0346756
1970.21	0.390124
1971.69	0.386184
1973.17	-0.146908
1974.65	0.0712934
1976.13	0.0847883
1977.6	-0.0889769
1979.08	0.299266
1980.56	-0.248574
1982.03	0.241113
1983.51	0.135383
1984.99	0.199302
1986.46	0.0763831
1987.94	0.173954
1989.41	0.254662
1990.89	-0.104253
1992.36	-0.191466
1993.84	-0.413157
1995.31	0.0249443
1996.78	-0.0606527
1998.26	0.242218
1999.73	0.105639
2001.2	-0.0650058
2002.68	0.388227
2004.15	-0.0862851
2005.62	0.467749
2007.09	-0.174031
2008.56	0.0271969
2010.04	-0.107774
2011.51	0.0101643
2012.98	-0.326328
2014.45	-0.158139
2015.92	0.497358
2017.39	0.193146
2018.86	-0.161842
2020.33	-0.0296035
2021.8	0.00163603
2023.26	0.0834284
2024.73	0.0482502
2026.2	0.248758
2027.67	0.18187
2029.14	0.132828
2030.61	-0.0494866
2032.07	-0.248005
2033.54	0.225172
2035.01	0.278849
2036.47	0.181106
2037.94	0.620628
2039.4	-0.0659881
2040.87	0.205246
2042.33	-0.246144
2043.8	-0.0413208
2045.27	0.214761
2046.73	0.0844083
2048.19	0.173125
2049.66	0.00890493
2051.12	0.197924
2052.59	0.200457
2054.05	-0.152462
2055.51	0.420923
2056.97	-0.0184107
2058.44	0.114934
2059.9	-0.0719757
2061.36	-0.0900865
2062.82	0.296352
2064.28	0.46456
2065.74	0.397871
2067.21	0.399129
2068.67	-0.0367789
2070.13	0.47009
2071.59	0.404741
2073.05	0.0698743
2074.51	-0.164209
2075.96	0.275054
2077.42	0.326766
2078.88	0.142434
2080.34	0.227222
2081.8	0.261094
2083.26	0.429143
2084.72	0.125392
2086.17	0.410083
2087.63	0.0383458
2089.09	0.322093
2090.54	0.639007
2092	0.200058
2093.45	0.499814
2094.91	0.245641
2096.37	0.77914
2097.82	0.373522
2099.28	0.386435
2100.73	0.382374
2102.19	0.194667
2103.64	0.191494
2105.09	0.155847
2106.55	0.288037
2108	0.4209
2109.45	0.237133
2110.91	0.253135
2112.36	0.601464
2113.81	0.74834
2115.26	0.461174
2116.72	0.489698
2118.17	0.667889
2119.62	0.664204
2121.07	1.19283
2122.52	0.66115
2123.97	0.794099
2125.42	0.662225
2126.87	1.30943
2128.32	0.447217
2129.77	1.04269
2131.22	1.15635
2132.67	1.13683
2134.11	0.654104
2135.56	1.06534
2137.01	0.964971
2138.46	1.54364
2139.91	1.11566
2141.35	1.39967
2142.8	1.20525
2144.25	1.32552
2145.7	1.51222
2147.14	1.35113
2148.59	1.53725
2150.03	1.44114
2151.48	1.44361
2152.92	1.52813
2154.37	1.66169
2155.81	1.56292
2157.26	1.72926
2158.7	1.76366
2160.15	1.35185
2161.59	1.83611
2163.03	1.85806
2164.47	1.5993
2165.92	1.93856
2167.36	1.58046
2168.8	1.88601
2170.24	1.64157
2171.69	1.51171
2173.13	1.69633
2174.57	1.99623
2176.01	1.84652
2177.45	1.431
2178.89	1.99709
2180.33	1.96543
2181.77	1.51884
2183.21	1.67129
2184.65	1.7076
2186.09	1.59426
2187.53	1.41434
2188.97	0.968117
2190.4	1.57038
2191.84	1.40682
2193.28	1.6589
2194.72	1.87661
2196.16	1.52681
2197.59	1.70806
2199.03	1.65491
2200.47	1.28529
2201.9	1.56358
2203.34	1.32769
2204.77	1.09295
2206.21	1.32331
2207.64	1.07347
2209.08	0.972742
2210.51	1.1529
2211.95	1.01781
2213.38	0.964972
2214.82	1.11031
2216.25	0.826743
2217.68	0.659832
2219.12	0.708365
2220.55	1.10371
2221.98	0.872641
2223.41	0.838912
2224.85	0.738324
2226.28	0.472054
2227.71	0.862638
2229.14	1.02158
2230.57	0.753035
2232	0.714345
2233.43	0.119421
2234.86	0.654531
2236.29	0.895411
2237.72	0.843243
2239.15	0.857836
2240.58	0.661882
2242.01	0.614131
2243.44	0.420506
2244.87	0.325002
2246.29	0.196425
2247.72	0.441896
2249.15	0.424872
2250.58	0.308546
2252.01	0.581811
2253.43	0.317328
2254.86	0.443465
2256.29	0.359356
2257.71	0.423048
2259.14	0.44005
2260.56	0.459143
2261.99	0.463763
2263.41	0.22592
2264.84	0.410559
2266.26	0.562641
2267.69	0.502825
2269.11	0.344647
2270.53	0.28348
2271.96	0.189357
2273.38	0.306791
2274.8	-0.096941
2276.23	0.232501
2277.65	0.122183
2279.07	0.517232
2280.49	0.129727
2281.91	-0.0133958
2283.34	0.0391345
2284.76	-0.10411
2286.18	0.0628543
2287.6	-0.0147586
2289.02	0.0385399
2290.44	0.288236
2291.86	-0.0665069
2293.28	0.249059
2294.7	0.0576782
2296.12	0.062499
2297.54	0.0672889
2298.96	-0.00979567
2300.37	0.126243
2301.79	-0.0325546
2303.21	-0.0108538
2304.63	0.40493
2306.04	0.164172
2307.46	0.0215268
2308.88	0.207155
2310.3	0.129416
2311.71	0.00200415
2313.13	0.318745
2314.54	0.12572
2315.96	-0.198691
2317.37	0.202007
2318.79	-0.0559306
2320.2	0.21349
2321.62	-0.243599
2323.03	0.00749302
2324.45	0.405605
2325.86	0.505005
2327.27	0.702047
2328.69	0.585172
2330.1	0.0897198
2331.51	0.0563512
2332.92	-0.305401
2334.34	-0.501855
2335.75	0.00931644
2337.16	0.273255
2338.57	0.273311
2339.98	-0.187525
2341.39	-0.172232
2342.8	0.121693
2344.21	0.0708003
2345.63	0.134882
2347.04	0.362875
2348.45	0.197756
2349.85	0.359756
2351.26	0.275787
2352.67	0.0116062
2354.08	-0.171146
2355.49	0.102415
2356.9	0.196065
2358.3	0.191893
2359.71	0.447774
2361.12	0.00528383
2362.53	-0.128231
2363.93	0.0947804
2365.34	-0.0710096
2366.75	0.103068
2368.15	-0.368617
2369.56	4.29153e-005
2370.97	0.272283
2372.37	0.0295725
2373.77	0.399708
2375.18	0.0293698
2376.59	-0.0673766
2377.99	-0.277286
2379.39	0.235151
2380.8	0.0553012
2382.2	-0.333592
2383.6	0.270802
2385.01	-0.198167
2386.41	-0.0186911
2387.81	0.00137949
2389.21	0.0939541
2390.62	0.235013
2392.02	0.265237
2393.42	0.184748
2394.82	-0.133644
2396.22	-0.30822
2397.62	0.0104117
2399.02	0.281583
2400.42	0.314694
2401.82	-0.0808439
2403.22	-0.110962
2404.62	0.176255
2406.02	-0.20394
2407.42	-0.156059
2408.82	0.271894
2410.22	0.160234
2411.62	-0.0145392
2413.01	-0.267802
2414.41	-0.14011
2415.81	0.115132
2417.21	-0.0878491
2418.6	0.18475
2420	0.0776038
2421.4	0.30299
2422.79	0.195507
2424.19	0.0561147
2425.59	-0.431898
2426.98	-0.222384
2428.38	0.178021
2429.77	0.341437
2431.17	0.156406
2432.56	0.384058
2433.95	0.0398073
2435.35	0.0440669
2436.74	-0.238658
2438.14	0.113131
2439.53	-0.29851
2440.92	0.13111
2442.31	0.36958
2443.71	0.163358
2445.1	-0.0428205
2446.49	0.147432
2447.88	0.115559
2449.27	-0.0430207
2450.67	0.226185
2452.06	-0.0109448
2453.45	0.116519
2454.84	0.1654
2456.23	0.198923
2457.62	0.169389
2459.01	-0.287295
2460.4	-0.0642209
2461.79	0.174049
2463.18	0.237782
2464.57	0.158864
2465.95	0.253517
2467.34	-0.125545
2468.73	0.237271
2470.12	0.205342
2471.5	0.236182
2472.89	0.108984
2474.28	0.170339
2475.67	0.451375
2477.05	0.18159
2478.44	0.0378361
2479.82	-0.121274
2481.21	-0.358427
2482.6	0.266464
2483.98	0.29515
2485.37	0.0885768
2486.75	0.0847573
2488.13	-0.138256
2489.52	0.30892
2490.9	0.101138
2492.29	-0.136869
2493.67	0.0456061
2495.05	0.244102
2496.44	0.102111
2497.82	0.394602
2499.2	0.238005
2500.58	0.0968661
2501.97	0.0636005
2503.35	0.184145
2504.73	-0.0817833
2506.11	-0.255115
2507.49	0.0181079
2508.87	-0.185788
2510.25	0.179245
2511.63	0.145069
2513.01	0.479361
2514.39	-0.105292
2515.77	0.0767817
2517.15	-0.429226
2518.53	0.0900145
2519.91	-0.0788145
2521.29	0.271634
2522.67	-0.233522
2524.05	-0.0826879
2525.42	-0.00875235
2526.8	0.0344219
2528.18	0.382099
2529.55	0.152213
2530.93	-0.106759
2532.31	0.197745
2533.69	-0.0894661
2535.06	-0.178673
2536.44	-0.252706
2537.81	-0.023334
2539.19	-0.068037
2540.56	-0.0525312
2541.94	0.0386038
2543.31	0.0995016
2544.69	-0.0211096
2546.06	0.16247
2547.44	0.134502
2548.81	0.0160651
2550.18	0.00386143
2551.56	-0.190775
2552.93	0.0237379
2554.3	-0.126648
2555.67	0.298948
2557.04	-0.0495992
2558.42	-0.0341296
2559.79	-0.00334835
2561.16	-0.199586
2562.53	-0.00134468
2563.9	0.12147
2565.27	0.123333
2566.64	0.049583
2568.01	-0.00896215
2569.38	-0.234232
2570.75	0.0406423
2572.12	-0.0482206
2573.49	-0.152204
2574.86	-0.0135942
2576.23	0.24634
2577.6	0.142365
2578.97	0.265665
2580.33	0.0399728
2581.7	0.102099
2583.07	0.0123467
2584.44	0.0285659
2585.8	0.120525
2587.17	0.197381
2588.54	0.31981
2589.9	0.275594
2591.27	0.322213
2592.64	0.277588
2594	0.202124
2595.37	0.186575
2596.73	-0.0567117
2598.1	0.198944
2599.46	0.363322
2600.83	-0.0466175
2602.19	-0.0178266
2603.55	-0.13959
2604.92	-0.336351
2606.28	0.206289
2607.64	0.0999217
2609.01	-0.0370607
2610.37	-0.129495
2611.73	0.394407
2613.09	0.119664
2614.46	-0.0198965
2615.82	0.245799
2617.18	0.241268
2618.54	-0.287029
2619.9	0.413115
2621.26	0.365028
2622.62	0.063355
2623.98	-0.0137782
2625.34	0.0136032
2626.7	0.204809
2628.06	-0.00682449
2629.42	-0.143901
2630.78	-0.0279813
2632.14	0.221466
2633.5	0.0991135
2634.86	0.303459
2636.21	0.0477109
2637.57	0.16281
2638.93	-0.151634
2640.29	-0.125213
2641.64	0.270912
2643	0.297315
2644.36	0.146634
2645.71	0.0846167
2647.07	0.435183
2648.43	-0.0254149
2649.78	0.0440221
2651.14	0.0687556
2652.49	0.328192
2653.85	0.264472
2655.2	-0.00383663
2656.56	0.183046
2657.91	0.326523
2659.26	0.104726
2660.62	-0.145818
2661.97	0.0714459
2663.32	0.24426
2664.68	0.0513902
2666.03	-0.0979614
2667.38	0.452124
2668.74	0.302281
2670.09	0.211059
2671.44	0.0185366
2672.79	-0.158787
2674.14	-0.0595918
2675.49	0.170493
2676.84	0.183111
2678.19	0.152644
2679.54	0.166242
2680.89	0.0210457
2682.24	0.0506172
2683.59	0.167974
2684.94	-0.0911045
2686.29	0.0417185
2687.64	-0.115767
2688.99	-0.0998797
2690.34	0.00203133
2691.69	0.233342
2693.03	0.187804
2694.38	0.31564
2695.73	0.0229135
2697.08	0.136467
2698.42	0.308701
2699.77	0.0910587
2701.12	0.0628185
2702.46	0.354219
2703.81	0.38571
2705.15	-0.0463347
2706.5	-0.0581279
2707.85	0.249131
2709.19	0.106347
2710.54	0.253629
2711.88	-0.0785599
2713.22	-0.178566
2714.57	0.230065
2715.91	0.217232
2717.26	0.146108
2718.6	0.0893192
2719.94	-0.0405045
2721.29	0.0912819
2722.63	0.106334
2723.97	0.4704
2725.31	-0.0828366
2726.66	-0.0832148
2728	0.20727
2729.34	-0.055459
2730.68	0.321989
2732.02	0.466531
2733.36	0.029213
2734.7	0.232093
2736.04	0.0423675
2737.38	0.129078
2738.72	-0.0460186
2740.06	-0.206718
2741.4	0.330236
2742.74	0.154237
2744.08	-0.0512166
2745.42	-0.0680914
2746.76	-0.419241
2748.09	-0.160576
2749.43	0.359041
2750.77	0.0226684
2752.11	-0.153811
2753.45	0.0178027
2754.78	0.0735021
2756.12	0.071311
2757.46	0.315375
2758.79	0.0383401
2760.13	0.109028
2761.46	0.208952
2762.8	0.034245
2764.14	-0.0534215
2765.47	-0.0976872
2766.8	-0.113308
2768.14	0.362254
2769.47	0.0269489
2770.81	-0.0633559
2772.14	-0.183336
2773.48	0.143507
2774.81	-0.121673
2776.14	-0.213576
2777.48	0.0834622
2778.81	0.322864
2780.14	0.159899
2781.47	0.0691743
2782.8	0.136486
2784.14	0.0458984
2785.47	0.098731
2786.8	0.180254
2788.13	-0.0529122
2789.46	-0.185174
2790.79	0.112312
2792.12	-0.147509
2793.45	0.36503
2794.78	0.0198531
2796.11	0.0461092
2797.44	0.0148454
2798.77	0.126005
2800.1	0.0226946
2801.43	-0.123503
2802.76	-0.0558214
2804.09	-0.00263691
2805.41	-0.00677681
2806.74	0.159479
2808.07	0.239724
2809.4	0.205855
2810.72	0.00163269
2812.05	-0.0174179
2813.38	-0.0782533
2814.71	0.0178628
2816.03	0.100705
2817.36	0.184279
2818.68	-0.0293932
2820.01	0.0687599
2821.33	0.0674005
2822.66	0.122273
2823.98	0.389218
2825.31	0.145867
2826.63	-0.182307
2827.96	0.580179
2829.28	-0.115303
2830.6	0.223019
2831.93	0.533145
2833.25	-0.00608683
2834.57	0.572689
2835.9	0.245266
2837.22	0.228869
2838.54	0.537532
2839.86	0.379205
2841.18	0.489652
2842.5	0.812359
2843.83	0.824481
2845.15	0.893646
2846.47	0.807795
2847.79	1.00486
2849.11	1.03235
2850.43	1.00311
2851.75	1.05832
2853.07	1.21209
2854.39	1.36554
2855.71	1.2645
2857.03	1.23411
2858.35	1.40151
2859.66	1.65358
2860.98	1.86309
2862.3	1.70523
2863.62	1.85767
2864.94	1.93928
2866.25	2.23243
2867.57	2.03202
2868.89	2.02943
2870.2	2.30912
2871.52	2.68751
2872.84	2.26226
2874.15	2.76657
2875.47	2.76267
2876.78	2.67344
2878.1	2.03487
2879.41	2.63436
2880.73	2.74148
2882.04	2.6946
2883.36	2.35363
2884.67	3.02455
2885.99	2.88144
2887.3	2.68232
2888.61	2.34264
2889.93	2.61978
2891.24	2.92413
2892.55	2.6531
2893.86	2.7044
2895.18	3.03598
2896.49	3.24196
2897.8	3.07085
2899.11	2.81668
2900.42	3.03885
2901.73	3.16344
2903.05	3.34413
2904.36	3.16127
2905.67	3.28635
2906.98	3.97138
2908.29	3.85981
2909.6	4.33656
2910.91	3.75041
2912.21	3.97587
2913.52	3.93482
2914.83	4.22866
2916.14	4.61906
2917.45	4.57412
2918.76	4.51438
2920.07	4.70629
2921.37	5.06643
2922.68	4.95218
2923.99	4.89508
2925.29	5.16046
2926.6	5.53824
2927.91	5.35694
2929.22	5.06346
2930.52	5.10504
2931.83	6.08283
2933.13	5.62051
2934.44	5.74528
2935.74	6.10773
2937.05	5.33834
2938.35	5.57534
2939.66	5.08596
2940.96	5.08611
2942.26	5.39443
2943.57	4.99108
2944.87	4.93825
2946.18	4.67662
2947.48	4.52726
2948.78	4.51756
2950.08	4.49294
2951.39	4.35483
2952.69	3.82306
2953.99	4.28432
2955.29	3.89123
2956.59	4.07282
2957.9	3.5562
2959.2	3.95163
2960.5	3.45312
2961.8	3.3902
2963.1	2.97711
2964.4	3.30711
2965.7	3.1448
2967	3.20594
2968.3	2.95681
2969.6	2.65073
2970.9	2.93515
2972.19	2.84011
2973.49	2.8016
2974.79	2.59418
2976.09	2.40029
2977.39	2.68417
2978.68	1.96709
2979.98	1.81207
2981.28	2.12057
2982.58	2.04867
2983.87	2.07549
2985.17	1.66745
2986.47	1.97736
2987.76	1.40309
2989.06	1.26516
2990.35	1.39447
2991.65	1.18618
2992.94	1.45502
2994.24	1.37163
2995.53	0.894213
2996.83	1.17482
2998.12	0.935823
2999.42	0.711263
3000.71	0.753689
3002	0.151753
3003.3	0.531382
3004.59	0.658745
3005.88	0.715866
3007.18	0.394605
3008.47	0.42289
3009.76	0.478539
3011.05	0.393909
3012.34	0.127647
3013.64	0.587259
3014.93	0.22403
3016.22	0.224022
3017.51	0.15495
3018.8	0.0167766
3020.09	-0.315847
3021.38	0.241212
3022.67	0.17201
3023.96	-0.23075
3025.25	0.115424
3026.54	-0.0654879
3027.83	0.00336599
3029.12	0.10053
3030.41	-0.132998
3031.69	0.06286
3032.98	-0.265276
3034.27	-0.192704
3035.56	0.238209
3036.84	0.0474372
3038.13	-0.0615473
3039.42	-0.00637054
3040.71	0.212621
3041.99	-0.0224886
3043.28	0.00348234
3044.57	0.0573769
3045.85	0.0712795
3047.14	0.1823
3048.42	0.103695
3049.71	0.0130157
3050.99	0.100898
3052.28	0.189394
3053.56	-0.0222154
3054.85	0.202415
3056.13	0.0717149
3057.41	0.267608
3058.7	0.163082
3059.98	0.221948
3061.26	0.144974
3062.55	0.0959959
3063.83	-0.047132
3065.11	0.164356
3066.39	0.186497
3067.68	0.0598292
3068.96	0.273442
3070.24	0.0654001
3071.52	-0.0615602
3072.8	0.150755
3074.08	0.185471
3075.36	-0.0113869
3076.65	0.0769992
3077.93	0.0163202
3079.21	0.0650234
3080.49	-0.197227
3081.77	-0.051404
3083.04	0.1903
3084.32	-0.123692
3085.6	0.0373478
3086.88	-0.0325313
3088.16	0.0465107
3089.44	-0.132692
3090.72	0.0543203
3091.99	0.0920196
3093.27	-0.00574541
3094.55	-0.0489411
3095.83	0.233559
3097.1	0.136538
3098.38	0.0260544
3099.66	0.0917764
3100.93	-0.194701
3102.21	0.331659
3103.49	-0.0219998
3104.76	-0.212627
3106.04	0.165777
3107.31	0.395952
3108.59	0.234473
3109.86	0.30388
3111.14	-0.221675
3112.41	0.201157
3113.69	0.218184
3114.96	0.275966
3116.23	0.360721
3117.51	0.350093
3118.78	-0.000249863
3120.05	-0.0527883
3121.33	0.178937
3122.6	0.193398
3123.87	0.356817
3125.14	0.425564
3126.41	0.602942
3127.69	0.550693
3128.96	0.296083
3130.23	0.515204
3131.5	0.126151
3132.77	0.480559
3134.04	0.56444
3135.31	0.607492
3136.58	0.407406
3137.85	0.692709
3139.12	0.573326
3140.39	0.454131
3141.66	0.779116
3142.93	0.552989
3144.2	0.448514
3145.47	0.452087
3146.74	0.630519
3148	0.621719
3149.27	0.466216
