200.563	0.221136
202.377	0.212894
204.194	0.20577
206.008	0.686186
207.821	0.267292
209.634	0.286133
211.449	-0.326977
213.262	0.297896
215.074	1.04273
216.885	0.283773
218.699	0.519302
220.51	0.537565
222.321	0.556923
224.131	-0.268826
225.941	0.646883
227.751	-0.515196
229.562	-0.0101957
231.371	0.397735
233.18	-0.352499
234.988	0.104189
236.796	0.344953
238.603	-0.0631008
240.411	0.736369
242.219	-0.366505
244.026	0.436852
245.832	-0.0380058
247.638	0.185998
249.443	-0.0988207
251.248	-0.603025
253.053	0.339374
254.857	0.700942
256.661	-0.0227728
258.465	0.122725
260.268	-0.0193462
262.071	-0.183649
263.874	-0.0813847
265.678	0.214772
267.48	0.198267
269.282	0.22997
271.083	0.0925226
272.884	-0.214399
274.684	0.0564642
276.484	0.205676
278.284	-0.0560961
280.084	0.186768
281.883	-0.0293751
283.682	-0.583094
285.48	0.13662
287.276	-0.0574503
289.074	0.588254
290.871	-0.107762
292.668	-0.442297
294.465	0.5167
296.261	0.137285
298.057	0.261163
299.853	-0.0922565
301.648	0.175578
303.443	0.32334
305.237	0.27923
307.032	-0.00388527
308.823	0.237763
310.617	0.00335407
312.41	0.00849724
314.203	0.753362
315.995	0.0950432
317.788	-0.609351
319.579	-0.00244999
321.369	0.653721
323.16	0.429064
324.951	0.0376635
326.741	0.0280905
328.531	-0.268236
330.321	0.0801973
332.108	0.404253
333.897	0.368391
335.686	-0.602415
337.474	-0.0434561
339.26	0.0831814
341.048	-0.2218
342.835	0.237897
344.622	-0.0433474
346.406	0.321076
348.192	0.256222
349.978	-0.21386
351.764	0.271101
353.547	0.373701
355.332	0.260797
357.116	0.337742
358.901	0.175323
360.682	0.51235
362.466	0.0154095
364.249	-0.267267
366.03	-0.169838
367.812	0.235443
369.594	0.141426
371.374	-0.331945
373.155	0.449138
374.936	-0.0477867
376.715	0.353543
378.495	-0.117825
380.273	-0.210486
382.053	-0.396073
383.832	0.0312595
385.609	0.576769
387.388	-0.0989218
389.164	-0.209365
390.942	0.268293
392.72	-0.0518503
394.495	0.262686
396.272	0.248861
398.047	-0.0231552
399.823	-0.0134001
401.597	0.0665331
403.372	0.0990639
405.145	0.647731
406.92	0.139027
408.693	0.357882
410.467	-0.0103388
412.239	-0.19055
414.012	0.0520992
415.783	0.31883
417.556	0.46901
419.327	0.291289
421.099	-0.120904
422.869	0.00652885
424.64	-0.00736618
426.409	-0.256722
428.18	-0.0606189
429.948	0.416801
431.718	0.518681
433.486	-0.106657
435.253	-0.426533
437.022	0.239348
438.789	0.458747
440.558	0.254532
442.324	0.119159
444.089	0.0525241
445.857	0.171934
447.622	0.00939322
449.386	0.150816
451.153	-0.128375
452.917	-0.243382
454.682	0.178473
456.446	0.343327
458.208	0.228413
459.973	0.0207319
461.735	-0.325539
463.497	-0.251777
465.259	0.00973606
467.022	-0.0982475
468.783	0.260747
470.544	0.272743
472.306	0.0292754
474.066	0.925781
475.825	-0.134936
477.585	0.805496
479.346	0.370136
481.104	0.446494
482.862	0.196974
484.62	0.810255
486.38	0.586769
488.137	0.318318
489.894	0.61106
491.65	0.321538
493.407	0.756412
495.164	0.209993
496.92	0.247715
498.675	0.33214
500.43	0.627418
502.184	0.312387
503.939	0.348473
505.694	0.31317
507.448	0.464818
509.201	0.850576
510.954	0.505744
512.706	0.536015
514.459	0.212107
516.21	0.49884
517.962	0.26707
519.715	0.551831
521.466	0.154364
523.216	0.414455
524.966	0.392476
526.716	-0.403592
528.466	0.301725
530.215	-0.00141811
531.964	0.679105
533.712	0.3985
535.46	0.210873
537.208	0.606637
538.955	0.97715
540.703	0.04004
542.449	0.501926
544.196	-0.0378647
545.942	0.260076
547.688	0.186158
549.433	0.135795
551.178	0.710894
552.923	-0.149112
554.667	0.587102
556.412	0.00640297
558.155	-0.134717
559.899	0.0703826
561.642	0.275563
563.385	-0.04813
565.127	-0.232984
566.867	-0.0955324
568.609	0.0882874
570.35	-0.0714445
572.092	0.0911722
573.832	0.186201
575.573	0.236744
577.313	0.449252
579.053	0.662956
580.79	0.601836
582.529	0.724554
584.268	0.180176
586.006	0.761463
587.745	0.1688
589.482	0.518257
591.218	0.659929
592.955	0.571099
594.692	0.298086
596.428	0.3472
598.164	0.649343
599.898	0.375996
601.634	0.769086
603.369	0.333039
605.104	0.424822
606.836	-0.1049
608.57	0.903887
610.304	0.672109
612.037	0.349249
613.769	0.371235
615.501	0.393719
617.234	-0.752131
618.966	0.18648
620.696	0.207793
622.427	0.250976
624.159	0.339148
625.887	0.609957
627.618	0.835651
629.348	0.857407
631.076	0.584495
632.806	0.358858
634.535	0.590417
636.262	0.593437
637.99	0.731961
639.716	0.206385
641.444	0.864923
643.172	0.928012
644.897	0.0793171
646.624	0.870169
648.348	0.343018
650.075	0.500549
651.801	0.38841
653.524	0.893
655.249	0.69569
656.972	0.909694
658.697	0.668947
660.419	0.723908
662.143	1.0517
663.865	0.303863
665.588	0.490738
667.309	0.607607
669.032	1.22711
670.752	0.65795
672.474	0.341697
674.194	0.851392
675.915	0.675903
677.634	0.661618
679.355	0.463602
681.073	0.425296
682.793	0.822647
684.511	0.827409
686.23	0.761457
687.947	0.970575
689.664	0.810296
691.382	1.2483
693.098	0.948627
694.816	0.970792
696.531	0.646702
698.247	1.2426
699.963	0.594444
701.678	1.4868
703.392	1.22815
705.108	0.762528
706.821	1.07741
708.534	0.657661
710.249	1.1318
711.962	1.147
713.674	1.32198
715.388	0.970883
717.099	1.37377
718.81	1.41103
720.523	1.33439
722.234	1.62232
723.944	0.999723
725.654	1.44645
727.365	1.2789
729.075	1.02053
730.784	1.53299
732.492	1.2062
734.202	0.834629
735.91	0.983658
737.618	1.2004
739.325	1.01123
741.034	0.980904
742.741	1.76247
744.447	1.59868
746.153	1.48123
747.859	0.91506
749.564	1.4748
751.271	1.29323
752.976	1.60755
754.681	1.40563
756.385	1.67741
758.088	0.914905
759.792	1.86498
761.495	1.82517
763.2	1.60518
764.902	1.67812
766.604	1.36603
768.306	1.36857
770.008	2.04768
771.709	1.66243
773.41	1.61518
775.11	1.43191
776.811	1.4978
778.51	1.24815
780.21	1.76856
781.909	2.38061
783.608	2.42732
785.307	2.08816
787.005	1.33939
788.703	2.55717
790.401	1.91632
792.098	1.59049
793.795	2.05419
795.492	1.74987
797.188	1.49193
798.884	2.04644
800.58	2.35414
802.276	2.57272
803.971	1.84715
805.665	1.72891
807.36	1.96955
809.054	2.4784
810.748	1.7289
812.441	2.48203
814.135	2.4045
815.826	2.37164
817.518	2.54006
819.21	2.28363
820.902	1.3802
822.594	1.92875
824.285	1.51844
825.976	2.02335
827.665	1.39361
829.355	2.10255
831.045	1.90082
832.735	1.65672
834.424	1.99364
836.111	2.42093
837.8	1.97805
839.488	1.95795
841.177	1.55674
842.864	2.62883
844.55	1.84619
846.237	1.73434
847.924	2.31706
849.61	1.3586
851.295	2.08016
852.98	1.59416
854.666	2.00544
856.349	1.3391
858.034	1.68235
859.719	1.59725
861.403	2.00592
863.085	2.14331
864.769	1.46838
866.452	1.2882
868.133	1.378
869.816	1.89597
871.498	1.35364
873.179	1.51035
874.86	0.787013
876.54	1.19182
878.221	1.73215
879.902	1.75332
881.58	1.34524
883.26	1.43315
884.938	1.85876
886.618	1.69623
888.297	1.66784
889.974	1.23226
891.653	1.53964
893.329	1.53025
895.007	1.87988
896.683	1.37379
898.36	1.67623
900.035	1.61837
901.712	1.78397
903.387	1.07608
905.063	1.21896
906.737	1.96428
908.412	0.880341
910.085	1.04653
911.76	0.523436
913.433	1.33526
915.107	1.27989
916.779	1.18027
918.452	1.52397
920.124	1.31362
921.797	1.36953
923.467	1.11682
925.138	1.32961
926.81	1.91895
928.48	0.853864
930.151	1.09219
931.82	1.37505
933.489	0.97416
935.16	1.16903
936.828	1.23186
938.496	0.633732
940.165	1.3819
941.833	1.38117
943.5	1.29272
945.168	1.15991
946.834	0.959874
948.5	1.0674
950.168	1.2396
951.834	0.859222
953.499	0.876145
955.163	1.09274
956.83	0.936614
958.494	0.628486
960.158	0.3221
961.821	0.590684
963.487	0.771074
965.15	0.928221
966.812	0.840022
968.474	1.12577
970.138	1.01164
971.8	0.852656
973.461	1.07007
975.123	0.934772
976.783	0.646052
978.446	0.491053
980.106	0.270023
981.766	0.0485349
983.425	0.800044
985.084	0.885989
986.743	0.748967
988.402	0.63278
990.06	0.957995
991.72	0.995058
993.378	0.855261
995.035	1.26753
996.692	0.399871
998.349	0.525335
1000.01	0.848769
1001.66	0.312673
1003.32	0.789216
1004.97	0.495186
1006.63	0.706882
1008.28	1.18186
1009.94	0.449559
1011.59	0.529916
1013.25	0.895403
1014.9	0.954111
1016.55	1.18819
1018.21	0.853563
1019.86	0.651098
1021.51	0.274674
1023.16	0.839146
1024.81	0.529953
1026.47	0.396073
1028.12	0.524395
1029.77	0.914319
1031.42	0.800767
1033.07	0.817015
1034.72	0.962844
1036.37	0.605973
1038.02	0.466866
1039.67	0.697954
1041.31	0.885723
1042.96	0.639536
1044.61	0.742579
1046.26	0.738447
1047.91	1.10497
1049.55	0.430303
1051.2	0.625285
1052.84	1.51613
1054.49	0.278106
1056.14	1.10432
1057.78	0.191496
1059.43	0.0824599
1061.07	0.451302
1062.72	0.493412
1064.36	0.339123
1066	0.510168
1067.65	0.528174
1069.29	0.523697
1070.93	0.25815
1072.58	0.622221
1074.22	0.400556
1075.86	-0.0370803
1077.5	0.155353
1079.14	0.587162
1080.78	0.889382
1082.42	0.107339
1084.06	0.408808
1085.7	0.167026
1087.34	-0.357748
1088.98	0.480722
1090.62	0.754156
1092.26	0.593893
1093.9	0.174428
1095.54	0.187397
1097.17	0.459616
1098.81	-0.150651
1100.45	-0.00544405
1102.09	0.0334044
1103.72	0.331651
1105.36	0.00696754
1106.99	0.650578
1108.63	0.476592
1110.27	0.280304
1111.9	0.57726
1113.53	0.421599
1115.17	0.372524
1116.8	-0.148855
1118.43	0.0808764
1120.07	0.289385
1121.7	0.284294
1123.33	-0.083838
1124.97	0.0838904
1126.6	-0.00452185
1128.23	0.378127
1129.86	0.632888
1131.49	0.0970082
1133.12	0.480651
1134.75	0.15872
1136.38	0.156959
1138.01	0.368073
1139.64	-0.0199051
1141.27	0.488363
1142.9	0.227599
1144.53	0.180489
1146.16	0.240547
1147.78	0.301279
1149.41	0.447838
1151.04	-0.00170898
1152.67	0.336844
1154.29	0.419478
1155.92	0.374066
1157.54	-0.182007
1159.17	0.0494928
1160.8	0.557959
1162.42	0.195393
1164.05	0.0249743
1165.67	-0.357711
1167.29	0.343742
1168.92	0.193889
1170.54	-0.0847101
1172.16	-0.322028
1173.79	0.395033
1175.41	0.113091
1177.03	0.0220032
1178.65	-0.132314
1180.28	-0.0742259
1181.9	0.174815
1183.52	-0.12562
1185.14	-0.108792
1186.76	0.118448
1188.38	-0.267704
1190	0.230634
1191.62	0.0738492
1193.24	-0.0626097
1194.86	0.136621
1196.47	0.272452
1198.09	-0.156624
1199.71	0.420422
1201.33	-0.0674219
1202.95	0.324363
1204.56	-0.075345
1206.18	0.423923
1207.8	0.381586
1209.41	-0.140338
1211.03	0.42177
1212.64	-0.539683
1214.26	0.290157
1215.87	0.117824
1217.49	0.0276713
1219.1	0.456456
1220.71	0.220051
1222.33	0.399408
1223.94	-0.104323
1225.55	0.532567
1227.16	0.942191
1228.78	0.111571
1230.39	0.750506
1232	0.397839
1233.61	0.542259
1235.22	0.460279
1236.83	0.11051
1238.44	0.298898
1240.05	0.529218
1241.66	0.677045
1243.27	0.183319
1244.88	0.392355
1246.49	0.704131
1248.1	0.290904
1249.71	0.539266
1251.32	0.580482
1252.92	0.435719
1254.53	0.850001
1256.14	0.189559
1257.74	0.336721
1259.35	0.629663
1260.96	0.17824
1262.56	0.927912
1264.17	0.435195
1265.77	0.729288
1267.38	0.110922
1268.98	0.466015
1270.59	0.385005
1272.19	0.676414
1273.79	0.552358
1275.4	0.282494
1277	0.0120778
1278.6	0.528392
1280.21	0.029285
1281.81	0.378949
1283.41	0.4181
1285.01	0.395607
1286.61	0.828609
1288.21	0.6215
1289.81	0.621811
1291.41	0.891126
1293.01	0.871035
1294.61	0.664427
1296.21	0.477564
1297.81	1.05339
1299.41	0.843346
1301.01	0.859165
1302.6	0.729817
1304.2	0.764585
1305.8	0.983759
1307.4	0.750281
1308.99	1.31712
1310.59	0.817196
1312.19	0.646161
1313.78	0.353368
1315.38	0.899589
1316.97	0.873991
1318.57	1.17527
1320.16	0.619781
1321.76	1.34765
1323.35	1.0555
1324.94	0.579662
1326.54	0.936174
1328.13	1.00755
1329.72	0.755303
1331.32	1.21273
1332.91	0.47901
1334.5	1.18165
1336.09	1.0372
1337.68	0.731957
1339.27	0.990869
1340.87	0.74456
1342.45	0.979926
1344.04	0.248508
1345.64	0.802775
1347.22	0.79451
1348.81	0.827665
1350.4	0.242321
1351.99	0.319685
1353.58	0.318506
1355.17	0.498151
1356.75	0.538082
1358.34	0.517719
1359.93	0.277004
1361.51	1.01367
1363.1	0.671765
1364.69	0.110736
1366.27	0.447119
1367.86	0.22619
1369.44	0.304951
1371.03	0.325018
1372.61	0.226718
1374.2	0.288436
1375.78	0.708803
1377.37	0.890471
1378.95	0.79314
1380.53	0.456257
1382.11	0.516336
1383.7	0.436201
1385.28	0.216267
1386.86	1.16834
1388.44	0.193522
1390.02	0.688888
1391.6	0.390898
1393.19	0.252367
1394.77	0.4315
1396.35	0.570739
1397.93	0.669699
1399.51	0.29227
1401.08	0.290765
1402.66	0.209673
1404.24	0.84085
1405.82	1.19498
1407.4	-0.170014
1408.97	0.225072
1410.55	0.0277123
1412.13	0.600519
1413.71	1.09352
1415.28	0.283197
1416.86	0.360435
1418.43	0.516159
1420.01	0.672002
1421.59	0.100027
1423.16	0.533517
1424.73	0.633492
1426.31	0.143954
1427.88	0.402713
1429.46	0.720309
1431.03	0.682905
1432.6	0.88076
1434.18	0.546627
1435.75	1.29403
1437.32	0.566625
1438.89	1.29473
1440.46	0.411813
1442.04	1.16094
1443.61	1.30137
1445.18	0.931104
1446.75	0.619907
1448.32	1.03611
1449.89	1.21672
1451.46	1.24047
1453.03	0.556653
1454.6	0.994086
1456.16	1.05783
1457.73	0.510991
1459.3	0.888064
1460.87	1.12601
1462.44	0.693493
1464	1.79386
1465.57	0.92687
1467.14	0.531996
1468.7	0.62866
1470.27	0.568938
1471.83	0.745532
1473.4	1.09936
1474.96	0.845789
1476.53	0.984749
1478.09	0.437603
1479.66	0.615817
1481.22	0.735115
1482.78	0.619154
1484.35	1.07133
1485.91	1.09207
1487.47	0.740044
1489.04	0.622102
1490.6	0.052814
1492.16	0.225607
1493.72	0.47459
1495.28	0.624135
1496.84	0.92836
1498.4	0.764663
1499.96	0.174319
1501.52	0.479099
1503.08	0.570839
1504.64	0.818063
1506.2	0.639183
1507.76	0.363441
1509.32	0.609006
1510.88	0.216408
1512.44	0.440748
1513.99	0.0869112
1515.55	0.0608697
1517.11	0.131344
1518.66	-0.373011
1520.22	0.503253
1521.78	0.000172138
1523.33	0.0521836
1524.89	0.218013
1526.44	0.0394998
1528	0.0892472
1529.55	-0.0326376
1531.11	0.263503
1532.66	0.142114
1534.21	0.0217319
1535.77	-0.0975938
1537.32	0.29414
1538.87	0.383597
1540.43	0.077198
1541.98	0.129363
1543.53	0.557725
1545.08	-0.0113177
1546.63	0.0591817
1548.18	0.448368
1549.74	0.593077
1551.29	-0.572971
1552.84	0.433449
1554.39	0.523005
1555.94	0.183982
1557.48	-0.115956
1559.03	0.27614
1560.58	0.352307
1562.13	-0.0553694
1563.68	0.395904
1565.23	0.530498
1566.78	0.515891
1568.32	0.370445
1569.87	0.560663
1571.42	0.097281
1572.96	0.604361
1574.51	0.12198
1576.05	0.70367
1577.6	0.818852
1579.14	0.654335
1580.69	1.0131
1582.24	0.121307
1583.78	0.275855
1585.32	0.356288
1586.87	0.43714
1588.41	0.611674
1589.95	0.206098
1591.5	0.342743
1593.04	0.0671806
1594.58	0.765253
1596.12	0.9017
1597.67	0.719951
1599.21	0.538577
1600.75	0.545164
1602.29	0.852401
1603.83	0.897014
1605.37	0.6593
1606.91	0.721035
1608.45	0.555729
1609.99	0.708178
1611.53	1.17819
1613.07	0.519518
1614.6	0.686387
1616.14	1.07781
1617.68	0.681923
1619.22	0.886881
1620.75	0.587201
1622.29	0.382336
1623.83	0.870808
1625.37	0.292181
1626.9	0.57404
1628.44	0.68638
1629.97	0.49838
1631.51	0.870463
1633.04	0.812251
1634.58	0.250377
1636.11	0.361354
1637.65	0.827245
1639.18	0.603467
1640.72	0.827121
1642.25	0.770668
1643.78	0.769268
1645.31	0.934411
1646.85	0.447828
1648.38	0.667804
1649.91	0.312203
1651.44	0.403133
1652.97	0.56907
1654.5	1.44022
1656.03	0.995328
1657.56	1.45852
1659.1	0.994677
1660.62	1.08555
1662.15	1.11967
1663.68	1.04193
1665.21	0.890018
1666.74	0.591025
1668.27	0.809673
1669.8	0.75274
1671.32	0.0337081
1672.85	0.107955
1674.38	0.661254
1675.91	0.569711
1677.43	0.772062
1678.96	0.182409
1680.49	0.548616
1682.01	0.785213
1683.54	0.176639
1685.06	0.504743
1686.59	0.245887
1688.11	0.00599003
1689.64	0.48104
1691.16	0.461438
1692.68	0.570008
1694.21	0.239436
1695.73	0.420944
1697.25	0.492429
1698.78	0.216619
1700.3	0.0503049
1701.82	-0.116176
1703.34	0.354982
1704.86	0.205894
1706.39	0.566134
1707.91	0.271135
1709.43	0.503294
1710.95	0.408473
1712.47	0.24143
1713.99	0.310295
1715.51	0.252378
1717.02	0.0317187
1718.54	-0.459758
1720.06	0.295442
1721.58	-0.249475
1723.1	-0.270313
1724.62	-0.0381823
1726.13	0.3567
1727.65	0.0322566
1729.17	0.176598
1730.68	-0.14606
1732.2	0.333794
1733.72	0.246279
1735.23	0.042068
1736.75	0.461137
1738.26	0.442648
1739.78	0.454834
1741.29	0.24055
1742.81	0.322587
1744.32	0.0767064
1745.84	-0.0109606
1747.35	-0.0906668
1748.86	-0.09168
1750.37	-0.0273886
1751.89	0.41074
1753.4	0.100557
1754.91	0.306197
1756.42	0.340305
1757.93	0.154064
1759.45	-0.0939183
1760.96	-0.227553
1762.47	-0.048945
1763.98	0.196236
1765.49	0.0672936
1767	-0.246758
1768.51	0.126472
1770.02	0.195034
1771.53	0.282339
1773.03	0.0180702
1774.54	-0.28698
1776.05	0.0864744
1777.56	-0.00970507
1779.07	0.236169
1780.57	0.0601468
1782.08	-0.0284472
1783.59	-0.24507
1785.09	0.0709629
1786.6	0.0106282
1788.11	-0.011682
1789.61	0.267818
1791.12	-0.0275116
1792.62	0.0601416
1794.13	-0.108088
1795.63	-0.0851092
1797.13	-0.0990195
1798.64	0.223721
1800.14	0.403092
1801.65	0.427977
1803.15	-0.012115
1804.65	0.00401592
1806.15	-0.159625
1807.66	0.0236712
1809.16	0.0989656
1810.66	0.11869
1812.16	0.111448
1813.66	0.051796
1815.16	-0.0805717
1816.66	0.175311
1818.16	-0.00533819
1819.66	0.29886
1821.16	0.0614758
1822.66	0.0353165
1824.16	0.14925
1825.66	-0.110103
1827.16	0.35293
1828.66	0.466162
1830.16	0.408473
1831.65	0.189019
1833.15	0.157055
1834.65	0.145063
1836.14	-0.129953
1837.64	0.143636
1839.14	0.118935
1840.63	-0.0679679
1842.13	-0.0684209
1843.62	0.27702
1845.12	0.424529
1846.61	0.326324
1848.11	0.0902123
1849.6	0.177108
1851.1	0.00844145
1852.59	0.180344
1854.08	0.121574
1855.58	0.252466
1857.07	0.452321
1858.56	-0.0722733
1860.05	0.109252
1861.55	0.32087
1863.04	0.213067
1864.53	0.21184
1866.02	0.0265861
1867.51	0.147836
1869	0.200819
1870.49	0.0622077
1871.98	-0.0521398
1873.47	0.263765
1874.96	0.227855
1876.45	0.48721
1877.94	-0.212746
1879.43	0.0477905
1880.92	-0.0232515
1882.41	0.436406
1882.51	0.472398
1884	-0.120848
1885.5	-0.365701
1886.99	-0.123242
1888.48	-0.0902886
1889.98	-0.00505114
1891.47	0.185141
1892.96	0.0981841
1894.46	0.186424
1895.95	0.275804
1897.44	0.104964
1898.93	0.455838
1900.42	0.110179
1901.91	0.0590715
1903.41	-0.0802417
1904.9	0.596539
1906.39	0.24697
1907.88	0.349232
1909.37	0.278265
1910.86	-0.0522227
1912.35	0.259958
1913.83	0.156175
1915.32	0.225904
1916.81	0.486069
1918.3	0.347058
1919.79	-0.0521064
1921.27	0.25907
1922.76	-0.10497
1924.25	0.0165224
1925.74	-0.138197
1927.22	0.00213623
1928.71	-0.428421
1930.19	0.127942
1931.68	0.112351
1933.17	0.320823
1934.65	0.129767
1936.14	0.110663
1937.62	-0.0994759
1939.11	0.433301
1940.59	0.188556
1942.07	0.341646
1943.56	0.0468645
1945.04	0.253013
1946.52	-0.0578609
1948.01	0.0966029
1949.49	-0.163011
1950.97	0.127892
1952.45	0.176898
1953.93	-0.0325184
1955.42	0.153511
1956.9	-0.0210543
1958.38	-0.246418
1959.86	0.146513
1961.34	0.265128
1962.82	0.109552
1964.3	0.365162
1965.78	-0.13332
1967.26	0.241113
1968.74	0.204109
1970.21	0.4573
1971.69	0.129191
1973.17	0.211143
1974.65	-0.0139604
1976.13	0.0340834
1977.6	-0.0370493
1979.08	0.079216
1980.56	0.569525
1982.03	0.141132
1983.51	0.324623
1984.99	0.236015
1986.46	-0.174882
1987.94	0.363873
1989.41	0.0722532
1990.89	0.0522876
1992.36	0.151405
1993.84	-0.0362525
1995.31	0.266899
1996.78	-0.206951
1998.26	0.180789
1999.73	-0.0229254
2001.2	0.127468
2002.68	0.19303
2004.15	0.157274
2005.62	0.59359
2007.09	-0.0478897
2008.56	0.237848
2010.04	-0.637569
2011.51	0.170961
2012.98	-0.0978732
2014.45	0.053792
2015.92	-0.0138655
2017.39	0.0860605
2018.86	0.151697
2020.33	0.0152445
2021.8	-0.0036211
2023.26	-0.240451
2024.73	0.194596
2026.2	0.345044
2027.67	-0.0569892
2029.14	-0.139274
2030.61	-0.287769
2032.07	0.000623703
2033.54	-0.482669
2035.01	0.226015
2036.47	0.195761
2037.94	0.131496
2039.4	0.2854
2040.87	-0.149031
2042.33	0.139607
2043.8	-0.0251932
2045.27	0.231184
2046.73	0.269486
2048.19	-0.0793819
2049.66	0.413842
2051.12	-0.256596
2052.59	-0.0178185
2054.05	-0.151267
2055.51	0.101943
2056.97	0.252913
2058.44	-0.136032
2059.9	0.384778
2061.36	-0.104772
2062.82	0.298685
2064.28	0.618543
2065.74	0.518372
2067.21	0.671283
2068.67	0.33657
2070.13	0.321841
2071.59	0.239813
2073.05	0.393385
2074.51	0.108977
2075.96	0.27897
2077.42	0.196108
2078.88	0.247678
2080.34	0.0463338
2081.8	-0.121683
2083.26	0.147556
2084.72	0.0795784
2086.17	0.145699
2087.63	0.345838
2089.09	0.209364
2090.54	0.0728793
2092	0.13794
2093.45	0.219651
2094.91	0.351398
2096.37	0.264753
2097.82	0.311728
2099.28	0.307972
2100.73	0.186929
2102.19	0.617647
2103.64	0.0798435
2105.09	-0.105937
2106.55	0.426769
2108	0.359468
2109.45	0.242432
2110.91	0.608509
2112.36	0.456796
2113.81	0.936786
2115.26	0.183534
2116.72	0.395123
2118.17	0.324188
2119.62	0.171314
2121.07	0.053143
2122.52	0.151998
2123.97	0.30157
2125.42	0.30235
2126.87	0.518487
2128.32	0.418885
2129.77	0.285211
2131.22	0.448851
2132.67	0.760704
2134.11	0.443532
2135.56	0.722504
2137.01	0.721335
2138.46	0.490174
2139.91	0.376084
2141.35	0.395367
2142.8	0.217066
2144.25	0.551919
2145.7	0.506502
2147.14	0.642964
2148.59	0.878441
2150.03	0.616406
2151.48	0.60208
2152.92	0.819009
2154.37	0.521698
2155.81	0.356632
2157.26	0.771423
2158.7	0.689741
2160.15	0.857501
2161.59	0.794618
2163.03	0.517511
2164.47	0.340715
2165.92	0.562712
2167.36	0.718521
2168.8	0.424922
2170.24	0.212952
2171.69	0.997549
2173.13	0.832627
2174.57	0.716603
2176.01	0.550295
2177.45	0.550455
2178.89	1.16629
2180.33	0.901657
2181.77	1.10321
2183.21	0.224337
2184.65	1.07516
2186.09	1.14447
2187.53	0.431791
2188.97	0.617551
2190.4	0.753429
2191.84	1.02235
2193.28	0.791295
2194.72	0.442715
2196.16	0.608974
2197.59	0.657228
2199.03	0.355014
2200.47	0.667231
2201.9	0.663416
2203.34	0.527349
2204.77	0.740432
2206.21	0.440278
2207.64	0.588065
2209.08	0.818401
2210.51	0.667274
2211.95	0.548665
2213.38	0.247849
2214.82	0.839294
2216.25	0.159373
2217.68	0.289408
2219.12	0.502637
2220.55	0.386619
2221.98	0.0565166
2223.41	0.500489
2224.85	0.778414
2226.28	0.314253
2227.71	-0.0188179
2229.14	0.206278
2230.57	0.397539
2232	0.194932
2233.43	0.614971
2234.86	0.298829
2236.29	0.457895
2237.72	0.29133
2239.15	0.420002
2240.58	0.093277
2242.01	0.452936
2243.44	0.601428
2244.87	0.0488267
2246.29	0.572296
2247.72	0.132333
2249.15	0.196503
2250.58	0.38939
2252.01	0.450501
2253.43	0.640977
2254.86	0.571361
2256.29	0.259384
2257.71	0.614736
2259.14	-0.0339036
2260.56	0.292992
2261.99	0.215987
2263.41	0.448611
2264.84	-0.309563
2266.26	0.280744
2267.69	-0.202579
2269.11	0.322081
2270.53	0.16281
2271.96	0.133358
2273.38	0.282919
2274.8	-0.0398059
2276.23	0.10998
2277.65	0.341454
2279.07	0.247051
2280.49	0.185168
2281.91	-0.0888724
2283.34	-0.0204921
2284.76	-0.180519
2286.18	-0.0629921
2287.6	0.152813
2289.02	0.222061
2290.44	0.0138655
2291.86	0.0018549
2293.28	0.0716963
2294.7	0.157943
2296.12	0.342417
2297.54	0.117622
2298.96	0.15479
2300.37	0.192118
2301.79	0.180487
2303.21	0.185449
2304.63	0.092042
2306.04	0.129873
2307.46	0.0196266
2308.88	0.155485
2310.3	-0.169391
2311.71	-0.149323
2313.13	0.265627
2314.54	0.335475
2315.96	-0.137505
2317.37	-0.0667286
2318.79	-0.0285392
2320.2	0.421878
2321.62	0.52543
2323.03	-0.0654955
2324.45	0.0350542
2325.86	0.365002
2327.27	0.330695
2328.69	0.641958
2330.1	0.42592
2331.51	0.243665
2332.92	-0.283273
2334.34	0.0298119
2335.75	0.112623
2337.16	0.0141821
2338.57	0.243948
2339.98	0.0619059
2341.39	0.0928946
2342.8	0.172719
2344.21	-0.206784
2345.63	0.250238
2347.04	-0.112064
2348.45	0.328192
2349.85	0.391378
2351.26	-0.347058
2352.67	-0.0233417
2354.08	-0.0924559
2355.49	0.359699
2356.9	-0.0360255
2358.3	0.187136
2359.71	-0.0937686
2361.12	-0.0494018
2362.53	0.140781
2363.93	-0.106796
2365.34	-0.224458
2366.75	0.223904
2368.15	0.0743966
2369.56	-0.0741262
2370.97	0.0525146
2372.37	0.292684
2373.77	0.0985508
2375.18	-0.352679
2376.59	-0.208454
2377.99	0.0957208
2379.39	0.0449338
2380.8	0.0894055
2382.2	-0.332208
2383.6	0.143434
2385.01	0.425798
2386.41	0.204493
2387.81	-0.015677
2389.21	0.299548
2390.62	-0.229239
2392.02	-0.135565
2393.42	0.260988
2394.82	0.0533752
2396.22	-0.233061
2397.62	0.180416
2399.02	0.260398
2400.42	0.0388665
2401.82	0.262372
2403.22	-0.292335
2404.62	0.359654
2406.02	-0.116305
2407.42	0.0262632
2408.82	0.199883
2410.22	0.0719175
2411.62	0.0709777
2413.01	-0.230303
2414.41	0.340238
2415.81	-0.117376
2417.21	0.0275292
2418.6	0.188927
2420	0.176436
2421.4	-0.216298
2422.79	-0.00737429
2424.19	0.264794
2425.59	0.267679
2426.98	0.00148869
2428.38	-0.0422812
2429.77	0.295193
2431.17	0.109839
2432.56	0.448299
2433.95	0.389648
2435.35	0.0600882
2436.74	0.190136
2438.14	-0.332273
2439.53	0.208888
2440.92	0.177457
2442.31	0.479025
2443.71	0.129565
2445.1	-0.076982
2446.49	0.192178
2447.88	-0.109496
2449.27	-0.0465856
2450.67	0.317258
2452.06	0.143055
2453.45	0.444199
2454.84	0.239583
2456.23	-0.106848
2457.62	0.179708
2459.01	0.0707064
2460.4	0.0562272
2461.79	0.120258
2463.18	-0.306263
2464.57	-0.0850873
2465.95	-0.0222211
2467.34	-0.148899
2468.73	-0.196607
2470.12	-0.102461
2471.5	0.306544
2472.89	-0.183321
2474.28	0.318705
2475.67	-0.171463
2477.05	0.0461745
2478.44	0.137788
2479.82	0.276442
2481.21	-0.133792
2482.6	0.161615
2483.98	0.284023
2485.37	-0.0948753
2486.75	0.166779
2488.13	0.30224
2489.52	-0.0462837
2490.9	0.0106564
2492.29	0.300971
2493.67	0.249757
2495.05	0.168574
2496.44	0.103917
2497.82	0.101911
2499.2	-0.0546818
2500.58	0.345554
2501.97	-0.244487
2503.35	-0.15475
2504.73	-0.158328
2506.11	-0.208532
2507.49	0.0182457
2508.87	0.321472
2510.25	0.0100474
2511.63	0.129285
2513.01	-0.0270805
2514.39	0.246264
2515.77	0.198398
2517.15	-0.215986
2518.53	0.0278759
2519.91	-0.0492935
2521.29	0.285813
2522.67	0.146911
2524.05	0.0228658
2525.42	0.0204458
2526.8	-0.058291
2528.18	-0.0757713
2529.55	0.135589
2530.93	-0.0625653
2532.31	0.196395
2533.69	0.0611992
2535.06	0.1696
2536.44	-0.132212
2537.81	0.188404
2539.19	0.128571
2540.56	0.0833812
2541.94	0.0227933
2543.31	0.174844
2544.69	0.41841
2546.06	0.177419
2547.44	0.119314
2548.81	0.122466
2550.18	-0.268842
2551.56	0.158939
2552.93	0.22192
2554.3	0.284177
2555.67	-0.07903
2557.04	0.118765
2558.42	0.104076
2559.79	0.301802
2561.16	0.136066
2562.53	0.440618
2563.9	-0.0424566
2565.27	0.0657873
2566.64	0.0832796
2568.01	0.191773
2569.38	-0.199864
2570.75	-0.0610499
2572.12	0.108118
2573.49	0.0196733
2574.86	-0.174839
2576.23	-0.0661392
2577.6	0.103182
2578.97	-0.061213
2580.33	0.320026
2581.7	0.306741
2583.07	0.126418
2584.44	-0.205631
2585.8	0.205105
2587.17	0.039887
2588.54	0.223403
2589.9	0.255431
2591.27	0.0600686
2592.64	0.27353
2594	-0.104425
2595.37	0.00174093
2596.73	0.167677
2598.1	0.060595
2599.46	0.285991
2600.83	0.148551
2602.19	0.04181
2603.55	-0.0945635
2604.92	0.161884
2606.28	0.176936
2607.64	0.191761
2609.01	0.145709
2610.37	0.370001
2611.73	-0.114323
2613.09	0.198342
2614.46	0.149348
2615.82	0.340367
2617.18	0.171386
2618.54	0.063055
2619.9	-0.224123
2621.26	-0.121597
2622.62	0.205262
2623.98	0.29293
2625.34	0.141688
2626.7	0.0799561
2628.06	0.0329895
2629.42	0.432583
2630.78	0.13214
2632.14	0.0402241
2633.5	0.200943
2634.86	0.257491
2636.21	-0.486897
2637.57	-0.0742745
2638.93	0.0860119
2640.29	-0.0941253
2641.64	-0.00771189
2643	-0.0246482
2644.36	-0.0414448
2645.71	0.118765
2647.07	0.204768
2648.43	0.231245
2649.78	0.374838
2651.14	0.400057
2652.49	-0.000893593
2653.85	0.068594
2655.2	0.343656
2656.56	0.164995
2657.91	0.221571
2659.26	0.410367
2660.62	0.102133
2661.97	-0.00128651
2663.32	0.333193
2664.68	0.0828395
2666.03	0.255301
2667.38	0.0336747
2668.74	0.161819
2670.09	0.158997
2671.44	0.0111389
2672.79	0.285282
2674.14	0.138395
2675.49	-0.211147
2676.84	0.325017
2678.19	-0.22653
2679.54	0.0347729
2680.89	0.1082
2682.24	0.312911
2683.59	-0.047039
2684.94	-0.261465
2686.29	0.0756502
2687.64	0.0645432
2688.99	0.47365
2690.34	0.0976977
2691.69	0.170539
2693.03	-0.221967
2694.38	0.298797
2695.73	0.340616
2697.08	0.36833
2698.42	-0.138878
2699.77	0.0647073
2701.12	0.25497
2702.46	0.0697389
2703.81	0.305316
2705.15	0.03405
2706.5	0.139685
2707.85	0.100131
2709.19	0.176405
2710.54	0.150819
2711.88	0.0959821
2713.22	-0.017117
2714.57	-0.0140395
2715.91	0.119854
2717.26	0.297361
2718.6	-0.0343828
2719.94	0.259167
2721.29	0.217788
2722.63	0.0014081
2723.97	-0.0552073
2725.31	0.149892
2726.66	0.369277
2728	0.340998
2729.34	0.327107
2730.68	0.225813
2732.02	-0.0355144
2733.36	0.226964
2734.7	0.271321
2736.04	-0.236886
2737.38	0.491283
2738.72	0.419489
2740.06	-0.0741849
2741.4	0.275263
2742.74	-0.0736313
2744.08	0.347437
2745.42	0.288383
2746.76	0.446898
2748.09	0.227746
2749.43	0.313498
2750.77	0.0802445
2752.11	0.122797
2753.45	0.324896
2754.78	0.20824
2756.12	0.0627809
2757.46	0.38086
2758.79	0.365999
2760.13	-0.0972524
2761.46	0.00433636
2762.8	0.0917435
2764.14	0.266167
2765.47	0.238009
2766.8	-0.209997
2768.14	0.252789
2769.47	0.0637841
2770.81	0.119651
2772.14	0.188968
2773.48	-0.233124
2774.81	-0.121438
2776.14	0.206076
2777.48	0.36056
2778.81	-0.103177
2780.14	-0.0198216
2781.47	0.0636296
2782.8	0.190083
2784.14	0.273301
2785.47	0.112744
2786.8	0.0384545
2788.13	-0.421911
2789.46	0.134526
2790.79	-0.00972414
2792.12	0.332772
2793.45	-0.468184
2794.78	-0.182575
2796.11	-0.0544848
2797.44	0.116025
2798.77	0.157531
2800.1	0.498418
2801.43	0.168336
2802.76	0.0380521
2804.09	0.420749
2805.41	-0.251229
2806.74	0.0450935
2808.07	0.027678
2809.4	0.0952783
2810.72	0.262191
2812.05	0.358311
2813.38	0.242348
2814.71	-0.0426497
2816.03	0.0986996
2817.36	-0.0994101
2818.68	0.000518322
2820.01	0.0437617
2821.33	0.1434
2822.66	0.0441766
2823.98	0.00124264
2825.31	0.241384
2826.63	0.141564
2827.96	-0.000349998
2829.28	0.25453
2830.6	0.283185
2831.93	0.12796
2833.25	0.383199
2834.57	0.298498
2835.9	0.19933
2837.22	0.142285
2838.54	0.537639
2839.86	0.33868
2841.18	0.663003
2842.5	0.42205
2843.83	0.534934
2845.15	0.973319
2846.47	1.03055
2847.79	0.791235
2849.11	1.07487
2850.43	0.835351
2851.75	0.864041
2853.07	0.779317
2854.39	0.962836
2855.71	0.792954
2857.03	0.905638
2858.35	0.721706
2859.66	1.08859
2860.98	1.03163
2862.3	0.79096
2863.62	0.931227
2864.94	0.704384
2866.25	0.759769
2867.57	1.21016
2868.89	1.04023
2870.2	0.997501
2871.52	1.05356
2872.84	1.44767
2874.15	1.46069
2875.47	1.43076
2876.78	1.55499
2878.1	1.48155
2879.41	1.08454
2880.73	1.5315
2882.04	1.68351
2883.36	1.20408
2884.67	1.4276
2885.99	1.5391
2887.3	1.45411
2888.61	1.48113
2889.93	1.15695
2891.24	1.08487
2892.55	1.26475
2893.86	1.58443
2895.18	1.10592
2896.49	1.39812
2897.8	1.27099
2899.11	1.28444
2900.42	1.10253
2901.73	2.04001
2903.05	1.46683
2904.36	1.38333
2905.67	1.88747
2906.98	1.37087
2908.29	2.02976
2909.6	1.79392
2910.91	1.75427
2912.21	1.46263
2913.52	1.71644
2914.83	1.67545
2916.14	1.89941
2917.45	2.06635
2918.76	1.29519
2920.07	2.48248
2921.37	1.97763
2922.68	2.04691
2923.99	2.39658
2925.29	1.79642
2926.6	2.28694
2927.91	2.1904
2929.22	2.13557
2930.52	2.48581
2931.83	2.08086
2933.13	2.38869
2934.44	2.45884
2935.74	2.19363
2937.05	2.30587
2938.35	2.29245
2939.66	2.30714
2940.96	2.01471
2942.26	2.3097
2943.57	2.38187
2944.87	2.35705
2946.18	1.84346
2947.48	1.93146
2948.78	1.92141
2950.08	1.88268
2951.39	1.92689
2952.69	1.80191
2953.99	1.8721
2955.29	1.78805
2956.59	1.48059
2957.9	1.2863
2959.2	1.2055
2960.5	1.64452
2961.8	1.58065
2963.1	1.54524
2964.4	1.53753
2965.7	1.47277
2967	1.21018
2968.3	1.42461
2969.6	1.10432
2970.9	1.16357
2972.19	1.3215
2973.49	1.11384
2974.79	1.28613
2976.09	1.13428
2977.39	0.911225
2978.68	1.0814
2979.98	0.884462
2981.28	0.729064
2982.58	0.64378
2983.87	1.09299
2985.17	0.938209
2986.47	0.896851
2987.76	0.75805
2989.06	0.732284
2990.35	1.02993
2991.65	0.751066
2992.94	0.668313
2994.24	1.0625
2995.53	0.570825
2996.83	0.668722
2998.12	0.696218
2999.42	0.373162
3000.71	0.541449
3002	0.0792336
3003.3	0.332203
3004.59	0.22087
3005.88	0.431531
3007.18	0.403674
3008.47	0.24938
3009.76	-0.101061
3011.05	0.0375447
3012.34	0.385093
3013.64	0.0903668
3014.93	0.144844
3016.22	0.464365
3017.51	0.143556
3018.8	0.463523
3020.09	0.11565
3021.38	0.309948
3022.67	0.114538
3023.96	0.446121
3025.25	0.346797
3026.54	-0.223404
3027.83	-0.224905
3029.12	0.271998
3030.41	0.133595
3031.69	0.43824
3032.98	0.163545
3034.27	0.317074
3035.56	0.221828
3036.84	-0.0120602
3038.13	0.290505
3039.42	-0.00051403
3040.71	0.0929642
3041.99	0.322834
3043.28	0.0311847
3044.57	-0.0401268
3045.85	0.108544
3047.14	0.0261073
3048.42	0.19106
3049.71	-0.038517
3050.99	-0.34884
3052.28	-0.317451
3053.56	0.396173
3054.85	0.24974
3056.13	0.293616
3057.41	0.00955725
3058.7	-0.02949
3059.98	0.367038
3061.26	-0.216424
3062.55	0.289424
3063.83	0.183938
3065.11	0.351427
3066.39	0.111998
3067.68	-0.330754
3068.96	-0.0798283
3070.24	-0.00578356
3071.52	-0.149881
3072.8	0.50761
3074.08	-0.0051837
3075.36	-0.368694
3076.65	-0.0666032
3077.93	0.194707
3079.21	0.0223284
3080.49	0.0273724
3081.77	-0.0886488
3083.04	-0.122472
3084.32	0.101962
3085.6	0.245118
3086.88	-0.182059
3088.16	0.150384
3089.44	-0.0876765
3090.72	0.148973
3091.99	0.358303
3093.27	0.0929255
3094.55	0.329616
3095.83	0.105425
3097.1	0.220286
3098.38	0.13177
3099.66	0.192261
3100.93	-0.126625
3102.21	0.272461
3103.49	0.333051
3104.76	-0.228661
3106.04	0.00877714
3107.31	0.0843797
3108.59	-0.00172758
3109.86	0.115888
3111.14	0.0988207
3112.41	0.1229
3113.69	0.458966
3114.96	0.0768104
3116.23	0.250093
3117.51	0.097384
3118.78	0.350852
3120.05	0.35943
3121.33	0.109784
3122.6	-0.0316491
3123.87	0.477117
3125.14	0.416899
3126.41	0.478858
3127.69	0.094707
3128.96	0.306273
3130.23	0.0312042
3131.5	0.45928
3132.77	0.0492387
3134.04	0.112026
3135.31	0.120432
3136.58	0.344349
3137.85	0.311485
3139.12	0.493967
3140.39	-0.131532
3141.66	0.454411
3142.93	0.193076
3144.2	0.429238
3145.47	0.6923
3146.74	0.36563
3148	0.562332
3149.27	0.41112
