200.554	1.94427
202.369	1.98347
204.183	2.02554
205.999	1.34085
207.813	3.1861
209.626	1.40817
211.439	2.25268
213.253	1.03033
215.065	-0.0470695
216.877	-0.0573978
218.688	0.707891
220.5	1.47408
222.312	0.548923
224.123	0.207493
225.933	-0.373579
227.742	-0.59132
229.552	0.0598373
231.361	-0.0869598
233.171	0.755173
234.98	-0.0659485
236.787	-0.35273
238.595	0.474569
240.402	0.488657
242.209	0.677238
244.015	0.242174
245.822	-0.0243397
247.627	0.574635
249.435	0.781403
251.24	-0.105598
253.045	1.34279
254.849	0.470339
256.653	0.297398
258.457	0.343859
260.26	1.04505
262.063	1.67871
263.866	0.654463
265.668	0.596533
267.47	0.25038
269.271	0.89187
271.073	1.82114
272.873	1.39772
274.674	1.04338
276.474	0.66127
278.274	1.55226
280.073	0.751837
281.872	0.934448
283.671	1.06442
285.47	1.3591
287.268	1.2196
289.065	1.46429
290.863	0.608809
292.66	0.38047
294.456	1.85465
296.253	1.51411
298.049	1.51127
299.844	1.77264
301.637	2.03346
303.432	1.38491
305.227	1.092
307.021	0.940475
308.815	1.83764
310.609	1.97309
312.402	2.84996
314.195	1.99259
315.987	2.18793
317.777	2.12594
319.569	2.49681
321.36	3.08559
323.151	3.03321
324.942	2.79113
326.733	2.38199
328.521	1.66114
330.31	2.99391
332.1	2.77041
333.889	2.54242
335.677	3.05082
337.464	3.05092
339.252	3.4525
341.039	2.86947
342.826	1.47231
344.611	2.394
346.398	1.66841
348.184	1.11225
349.97	1.91836
351.754	0.265863
353.539	0.688833
355.324	1.56233
357.106	0.524546
358.89	0.318853
360.674	-0.341606
362.455	-0.0751572
364.239	1.23542
366.021	0.309135
367.804	-0.0238991
369.584	-0.0737171
371.366	0.0168076
373.145	0.791651
374.926	1.37494
376.707	1.93357
378.485	0.889013
380.265	0.0608368
382.045	0.013567
383.822	0.29859
385.601	0.0221119
387.378	0.453573
389.156	0.370564
390.934	-0.0154686
392.71	-0.117794
394.487	0.227495
396.262	1.09025
398.038	-0.183907
399.813	-0.542654
401.588	0.201578
403.362	0.286657
405.137	0.158712
406.912	0.733591
408.685	0.837307
410.459	0.0248604
412.23	-0.223953
414.004	0.584213
415.775	0.431818
417.548	1.43104
419.318	0.76568
421.089	0.382322
422.86	1.35978
424.63	1.53753
426.401	0.774099
428.17	0.994699
429.94	0.134485
431.708	-0.303186
433.478	-0.176821
435.245	0.536953
437.012	0.264891
438.781	0.36673
440.547	0.676359
442.315	-0.214985
444.081	1.74968
445.846	0.170355
447.613	-0.54306
449.378	0.54427
451.142	0.975773
452.908	-0.646858
454.672	-0.773693
456.435	0.381401
458.2	-0.00260544
459.963	-0.316055
461.725	0.488615
463.489	-0.679682
465.251	0.43498
467.012	-0.256813
468.775	0.451435
470.536	0.140898
472.296	0.715416
474.056	0.520437
475.817	-0.0280266
477.576	0.513365
479.335	0.980898
481.094	1.09682
482.854	0.793905
484.612	0.726488
486.37	0.779737
488.127	0.534613
489.886	0.760092
491.642	0.661251
493.398	0.376617
495.154	0.0450001
496.91	0.0870094
498.667	-0.269926
500.422	0.89576
502.176	0.653599
503.93	1.27811
505.684	0.373032
507.438	0.921865
509.191	0.0562172
510.946	-0.107475
512.698	-0.0628433
514.45	0.307995
516.202	1.12271
517.954	0.805485
519.705	1.61459
521.456	0.91753
523.206	0.642782
524.956	1.28317
526.706	0.538759
528.456	-0.181442
530.207	0.411081
531.956	0.135435
533.704	0.700945
535.452	0.0234776
537.2	1.35379
538.947	0.92761
540.694	0.989443
542.441	0.606852
544.188	0.1313
545.934	0.191196
547.68	0.0888367
549.425	-0.198275
551.17	-0.0907154
552.915	-0.330009
554.659	0.794727
556.403	0.78669
558.145	0.571936
559.889	0.727192
561.632	0.492018
563.375	0.0283794
565.117	0.89967
566.859	0.898281
568.601	0.324646
570.342	-0.498678
572.083	0.56246
573.824	0.135601
575.565	0.446455
577.303	0.39365
579.043	0.963308
580.782	0.570326
582.521	-0.167686
584.26	-0.0340061
585.998	0.143568
587.734	-0.348576
589.472	0.398996
591.21	-0.0977402
592.947	0.945902
594.684	0.493658
596.418	-0.464718
598.154	0.46332
599.89	-0.33499
601.626	-0.375854
603.361	0.293585
605.094	0.223875
606.828	-0.216127
608.562	-0.565447
610.296	-0.134367
612.027	0.182476
613.761	0.661051
615.493	0.315496
617.224	0.405718
618.956	0.380182
620.688	-0.128336
622.419	0.344786
624.149	-0.21315
625.879	0.280455
627.61	0.729956
629.338	0.681067
631.068	1.27593
632.797	0.96224
634.525	1.51782
636.254	0.72588
637.98	0.272482
639.708	0.429777
641.436	0.854488
643.162	0.703825
644.889	-0.200422
646.614	-0.237963
648.34	-0.15806
650.067	-0.50375
651.791	-0.0239201
653.516	0.418295
655.239	-0.0878468
656.964	0.502499
658.687	0.389088
660.411	-0.159149
662.133	0.658621
663.857	-0.0126686
665.58	1.11665
667.301	0.0930653
669.024	0.57715
670.744	0.605473
672.464	-0.0718231
674.186	0.170868
675.905	0.395056
677.626	0.461391
679.345	0.0226307
681.065	0.201694
682.783	0.216347
684.503	0.410919
686.22	0.0259323
687.939	1.24989
689.656	0.14543
691.372	0.145027
693.09	-0.133102
694.806	0.877045
696.523	0.43408
698.239	1.20897
699.953	1.1523
701.67	1.00126
703.384	1.28511
705.098	2.00343
706.813	0.654139
708.526	1.59911
710.239	1.32738
711.954	0.414295
713.666	0.600008
715.378	1.0363
717.091	0.0789814
718.802	0.172787
720.513	0.266695
722.226	-0.0719833
723.936	0.20425
725.646	0.184196
727.355	0.163551
729.067	0.595869
730.776	0.935789
732.484	1.20632
734.192	0.548302
735.902	1.90313
737.61	3.86567
739.317	2.09867
741.024	3.28017
742.731	3.41072
744.439	5.26725
746.145	2.5524
747.851	1.86705
749.556	1.702
751.262	0.88727
752.966	-0.442389
754.673	0.479836
756.377	1.78791
758.081	0.893454
759.784	0.63158
761.487	1.07033
763.19	0.856272
764.892	1.90579
766.594	1.75683
768.296	1.08406
770	1.42412
771.701	1.44375
773.402	1.43803
775.102	1.68017
776.803	2.14945
778.503	1.62637
780.202	2.05593
781.901	2.71407
783.6	2.28645
785.299	1.33557
786.997	2.28138
788.695	1.88542
790.393	2.61426
792.09	2.2293
793.787	1.05166
795.484	2.17654
797.18	2.12927
798.877	1.63491
800.572	1.59475
802.268	1.73724
803.963	1.65592
805.658	1.4394
807.35	0.996756
809.044	1.78739
810.738	1.63224
812.432	2.19304
814.125	2.79662
815.818	2.34657
817.51	2.76944
819.202	3.01293
820.894	1.60396
822.584	1.51438
824.275	2.87565
825.966	1.40815
827.657	1.83939
829.347	2.05297
831.037	1.22561
832.725	1.87357
834.414	0.854172
836.103	3.11425
837.792	1.93943
839.481	1.67653
841.167	1.81241
842.854	1.43195
844.542	1.07278
846.229	1.67592
847.914	1.56731
849.6	1.01575
851.287	1.20694
852.973	2.2538
854.656	2.09277
856.341	2.02081
858.026	1.76656
859.711	2.02615
861.393	1.71959
863.077	1.81504
864.761	1.86301
866.442	1.14269
868.125	1.39038
869.808	1.59219
871.489	1.40995
873.171	2.10712
874.85	1.96944
876.532	1.47065
878.213	1.76168
879.892	1.48821
881.572	2.00405
883.251	1.70575
884.931	1.94703
886.61	1.10215
888.287	1.69863
889.966	1.34437
891.643	0.559481
893.321	1.57468
894.997	0.988493
896.675	1.2105
898.352	1.11575
900.028	1.28858
901.704	1.39221
903.379	2.07628
905.055	1.10458
906.729	1.05089
908.404	1.8902
910.077	1.88317
911.75	1.67771
913.425	1.09615
915.097	1.91512
916.771	1.44605
918.443	1.15503
920.116	1.50681
921.787	1.68213
923.46	1.70468
925.13	1.73043
926.8	1.56107
928.472	0.997808
930.141	0.724039
931.813	1.02524
933.481	1.4592
935.15	1.01109
936.82	1.02706
938.488	1.28732
940.156	1.74846
941.825	0.68992
943.492	0.625206
945.158	1.37674
946.827	0.00710487
948.493	0.642641
950.158	0.369617
951.824	0.888742
953.491	0.150644
955.156	0.0994625
956.82	0.406256
958.486	0.123606
960.15	0.640406
961.814	0.0120277
963.477	0.156063
965.142	0.916353
966.804	0.45524
968.467	1.0065
970.129	0.823679
971.79	1.14807
973.454	0.876232
975.115	0.36404
976.776	0.983162
978.436	1.539
980.096	1.97467
981.756	2.4097
983.417	1.2149
985.077	1.3665
986.736	1.38116
988.394	1.67991
990.052	3.01517
991.71	2.80071
993.368	2.51992
995.025	2.63697
996.682	2.22466
998.341	2.18755
999.998	3.11954
1001.65	2.26583
1003.31	1.6104
1004.97	0.691366
1006.62	1.1578
1008.28	1.20662
1009.93	0.641602
1011.58	0.275553
1013.24	0.52446
1014.89	-0.693661
1016.54	0.432646
1018.2	0.749208
1019.85	-0.0920677
1021.5	2.19565
1023.16	1.09638
1024.81	0.611343
1026.46	1.43862
1028.11	0.801794
1029.76	1.60568
1031.41	1.55498
1033.06	1.34829
1034.71	1.18218
1036.36	1.86383
1038.01	1.824
1039.66	3.11184
1041.31	2.70269
1042.95	2.49253
1044.6	2.98153
1046.25	2.47519
1047.9	2.55938
1049.54	2.29949
1051.19	1.17332
1052.84	2.74225
1054.48	1.81365
1056.13	1.01501
1057.77	2.15024
1059.42	2.02379
1061.06	0.65654
1062.71	1.65781
1064.35	1.02642
1066	1.00183
1067.64	1.34457
1069.28	1.59826
1070.93	0.786421
1072.57	0.51774
1074.21	0.944586
1075.85	1.69855
1077.49	1.5874
1079.13	1.73898
1080.78	1.89205
1082.42	1.02587
1084.06	1.02526
1085.7	1.43329
1087.34	2.5519
1088.97	1.34816
1090.61	1.02971
1092.25	1.27152
1093.89	1.18804
1095.53	0.910963
1097.17	1.71384
1098.8	1.7859
1100.44	0.268509
1102.08	0.434683
1103.71	0.991365
1105.35	1.1202
1106.99	0.34675
1108.62	0.49754
1110.26	0.581635
1111.89	1.37184
1113.52	1.27741
1115.16	0.923042
1116.79	0.353535
1118.43	0.642555
1120.06	1.27535
1121.69	1.18143
1123.32	1.7104
1124.96	1.36378
1126.59	1.0833
1128.22	1.76681
1129.85	0.548615
1131.48	1.72628
1133.11	0.852089
1134.75	0.53352
1136.37	0.406115
1138	0.447662
1139.63	-0.0684566
1141.26	-0.0736313
1142.89	0.859163
1144.52	-0.000137329
1146.15	0.784203
1147.78	0.823961
1149.4	-0.0720005
1151.03	0.609558
1152.66	-0.3915
1154.28	-0.136656
1155.91	1.35167
1157.54	1.09426
1159.16	0.646376
1160.79	0.987213
1162.41	0.713579
1164.04	1.88773
1165.66	-0.572918
1167.29	0.389019
1168.91	0.434582
1170.53	0.115522
1172.16	1.04638
1173.78	0.74136
1175.4	0.625319
1177.02	0.317736
1178.65	0.688887
1180.27	-0.0185757
1181.89	-0.363773
1183.51	-0.0731068
1185.13	-0.184227
1186.75	0.251944
1188.37	-0.286161
1189.99	-0.215748
1191.61	0.187784
1193.23	0.482363
1194.85	0.29175
1196.47	0.416307
1198.08	0.458664
1199.7	1.069
1201.32	0.70085
1202.94	1.19455
1204.55	0.73288
1206.17	2.19519
1207.79	1.07277
1209.4	1.87017
1211.02	1.08056
1212.63	1.41376
1214.25	1.97139
1215.86	1.19119
1217.48	1.03284
1219.09	0.810537
1220.71	0.941437
1222.32	0.596529
1223.93	0.37903
1225.54	1.05506
1227.16	1.23658
1228.77	1.68956
1230.38	2.57891
1231.99	1.36186
1233.6	2.04912
1235.22	2.51149
1236.83	3.24512
1238.44	3.67101
1240.05	4.96703
1241.66	5.1885
1243.26	5.03685
1244.87	4.92475
1246.48	4.12743
1248.09	4.11418
1249.7	3.85102
1251.31	2.55296
1252.92	2.43476
1254.52	2.58699
1256.13	2.59669
1257.74	3.35369
1259.34	2.93398
1260.95	2.59863
1262.55	2.0155
1264.16	2.92348
1265.76	1.57242
1267.37	2.39562
1268.97	1.97333
1270.58	2.23308
1272.18	2.32487
1273.78	3.0365
1275.39	2.99968
1276.99	3.06455
1278.59	3.79053
1280.2	2.65117
1281.8	2.98163
1283.4	3.47758
1285	2.25797
1286.6	2.98425
1288.2	2.98894
1289.8	2.85085
1291.4	3.70564
1293	2.78315
1294.6	3.67722
1296.2	4.23767
1297.8	3.34925
1299.4	3.11843
1301	4.57524
1302.6	3.30818
1304.19	3.66709
1305.79	3.94156
1307.39	3.35187
1308.99	3.8501
1310.58	4.01942
1312.18	2.81775
1313.77	2.88799
1315.37	3.51185
1316.96	3.42207
1318.56	2.86434
1320.15	4.0603
1321.75	3.58213
1323.34	2.89811
1324.94	2.59816
1326.53	3.43292
1328.12	2.76433
1329.72	2.84782
1331.31	2.59064
1332.9	2.7224
1334.49	3.56512
1336.08	3.15904
1337.67	3.58132
1339.27	2.93339
1340.86	3.61215
1342.45	3.44015
1344.04	2.2193
1345.63	2.56503
1347.22	2.46931
1348.8	2.27712
1350.39	2.95072
1351.98	3.32857
1353.57	3.27043
1355.16	2.89519
1356.75	2.96044
1358.33	2.26565
1359.92	2.32823
1361.51	2.78781
1363.09	2.00853
1364.68	2.4655
1366.27	3.04202
1367.85	2.90272
1369.44	3.54241
1371.02	3.22943
1372.61	3.25771
1374.19	3.22859
1375.77	3.04165
1377.36	3.01402
1378.94	3.68177
1380.52	3.79016
1382.11	3.75646
1383.69	2.90476
1385.27	2.60826
1386.85	3.34423
1388.43	3.00758
1390.02	2.91082
1391.6	2.93503
1393.18	4.28994
1394.76	3.10634
1396.34	2.71599
1397.92	2.89923
1399.5	2.52549
1401.08	3.14041
1402.65	3.516
1404.23	3.11964
1405.81	3.5355
1407.39	3.37961
1408.97	3.48247
1410.54	4.1591
1412.12	3.15676
1413.7	4.85807
1415.27	3.55699
1416.85	3.45833
1418.43	3.12253
1420	3.3591
1421.58	3.6371
1423.15	3.87887
1424.73	4.37989
1426.3	3.66324
1427.87	4.32542
1429.45	4.31775
1431.02	5.07568
1432.6	5.20116
1434.17	5.54088
1435.74	7.02009
1437.31	5.80546
1438.89	5.71356
1440.46	5.66327
1442.03	6.244
1443.6	6.76736
1445.17	7.19338
1446.74	6.81398
1448.31	7.12291
1449.88	6.13506
1451.45	7.66484
1453.02	6.40377
1454.59	6.24455
1456.16	6.18349
1457.72	6.21927
1459.29	6.64572
1460.86	5.82835
1462.43	5.79401
1463.99	5.12677
1465.56	4.92953
1467.13	4.49607
1468.69	4.61362
1470.26	3.63407
1471.83	4.01121
1473.39	3.56662
1474.95	3.69246
1476.52	3.07406
1478.08	2.69126
1479.65	1.91638
1481.21	3.06223
1482.78	2.20874
1484.34	2.25652
1485.9	1.93133
1487.47	1.36973
1489.03	1.84352
1490.59	1.33495
1492.15	2.21098
1493.71	1.79214
1495.27	1.6829
1496.84	1.06535
1498.39	1.81104
1499.96	1.99239
1501.52	2.38896
1503.07	1.15813
1504.64	2.1012
1506.19	1.41705
1507.75	1.52579
1509.31	1.57434
1510.87	0.810171
1512.43	1.45299
1513.98	1.13123
1515.54	1.57948
1517.1	1.72066
1518.65	1.30695
1520.21	1.58484
1521.77	1.15455
1523.32	1.20233
1524.88	1.7639
1526.44	1.90266
1527.99	1.82982
1529.54	1.66107
1531.1	1.41687
1532.65	0.77622
1534.21	1.16142
1535.76	1.50984
1537.31	0.82016
1538.87	1.22786
1540.42	1.46575
1541.97	1.17589
1543.52	1.84615
1545.07	2.3267
1546.63	0.476997
1548.18	1.29494
1549.73	2.24233
1551.28	1.54051
1552.83	2.00082
1554.38	2.16313
1555.93	2.23455
1557.48	1.93605
1559.03	2.07075
1560.57	1.92921
1562.12	1.67881
1563.67	2.1394
1565.22	2.39589
1566.77	2.14872
1568.31	3.45015
1569.86	2.43647
1571.41	2.26189
1572.95	2.31075
1574.5	3.44205
1576.05	2.72534
1577.59	3.31578
1579.14	3.27235
1580.68	3.28619
1582.23	2.89073
1583.77	3.78576
1585.31	3.07565
1586.86	3.61862
1588.4	3.45147
1589.95	3.7141
1591.49	2.79669
1593.03	3.78768
1594.57	4.01074
1596.11	3.72816
1597.66	3.74613
1599.2	4.02798
1600.74	4.4991
1602.28	4.38976
1603.82	4.59944
1605.36	3.94359
1606.9	4.84421
1608.44	4.51928
1609.98	4.45258
1611.52	5.45197
1613.06	5.39464
1614.6	4.43377
1616.13	5.78014
1617.67	5.34529
1619.21	5.26947
1620.75	4.56024
1622.28	4.47213
1623.82	3.44966
1625.36	3.7003
1626.89	3.46264
1628.43	3.20377
1629.96	3.50334
1631.5	3.3333
1633.04	2.73314
1634.57	2.89965
1636.11	3.34742
1637.64	2.90142
1639.17	2.71792
1640.71	2.92591
1642.24	2.27555
1643.77	3.5601
1645.31	2.4962
1646.84	3.44021
1648.37	2.69143
1649.9	2.85434
1651.43	2.29525
1652.96	2.66645
1654.5	2.85402
1656.03	3.04262
1657.56	3.7682
1659.09	3.12109
1660.62	2.63861
1662.15	2.96789
1663.67	2.11152
1665.2	2.8069
1666.73	2.67143
1668.26	2.53828
1669.79	2.4634
1671.32	2.24399
1672.84	2.52405
1674.37	2.01293
1675.9	2.20114
1677.43	1.9828
1678.95	2.48002
1680.48	1.26492
1682	2.42009
1683.53	1.97571
1685.05	2.15594
1686.58	2.06154
1688.1	1.69317
1689.63	1.91208
1691.15	1.43546
1692.68	0.922829
1694.2	1.27022
1695.72	1.26958
1697.25	1.305
1698.77	1.15711
1700.29	1.79331
1701.81	1.16932
1703.33	0.873171
1704.86	1.17735
1706.38	1.09812
1707.9	1.20027
1709.42	0.26684
1710.94	0.895784
1712.46	1.03441
1713.98	1.02816
1715.5	0.877184
1717.02	1.01571
1718.54	1.18987
1720.06	0.930235
1721.57	1.60952
1723.09	1.24319
1724.61	0.663046
1726.13	0.139971
1727.64	1.04165
1729.16	0.81082
1730.68	1.40783
1732.19	1.07286
1733.71	1.12541
1735.23	0.37184
1736.74	1.05597
1738.26	1.38043
1739.77	0.756876
1741.29	0.728146
1742.8	1.43402
1744.31	0.372652
1745.83	1.15276
1747.34	0.816622
1748.85	0.186584
1750.37	0.557817
1751.88	0.564545
1753.39	0.056551
1754.91	0.575964
1756.42	-0.149865
1757.93	0.658655
1759.44	0.761104
1760.95	0.541982
1762.46	0.316879
1763.97	0.171038
1765.48	0.0552959
1766.99	0.477135
1768.5	0.568448
1770.01	0.468885
1771.52	-0.150577
1773.03	0.162481
1774.54	0.463846
1776.04	0.202664
1777.55	0.275836
1779.06	0.0447216
1780.57	0.253938
1782.07	0.193112
1783.58	0.0662413
1785.09	0.0698652
1786.59	0.209052
1788.1	-0.167772
1789.6	-0.179217
1791.11	0.204476
1792.61	-0.0484705
1794.12	-0.12717
1795.62	0.224976
1797.13	0.140003
1798.63	0.177016
1800.13	0.104776
1801.64	-0.220497
1803.14	0.132665
1804.64	0.0478659
1806.15	-0.0255976
1807.65	0.0540066
1809.15	-0.045413
1810.65	0.025116
1812.15	0.248768
1813.65	0.175679
1815.16	0.197281
1816.66	-0.202444
1818.15	0.052228
1819.66	-0.0403337
1821.16	-0.181478
1822.65	0.128157
1824.15	0.279332
1825.65	0.448843
1827.15	0.169088
1828.65	-0.391749
1830.15	-0.196809
1831.64	0.0777493
1833.14	-0.288903
1834.64	-0.0541763
1836.14	0.00724316
1837.63	-0.0596313
1839.13	-0.321785
1840.62	-0.566006
1842.12	0.00131798
1843.62	0.0106249
1845.11	-0.135511
1846.61	0.100987
1848.1	0.123105
1849.6	-0.213693
1851.09	-0.28805
1852.58	0.467999
1854.08	0.0746536
1855.57	0.428966
1857.06	0.0725584
1858.55	-0.373578
1860.05	-0.0888281
1861.54	0.165635
1863.03	-0.043025
1864.52	0.0516233
1866.01	-0.033433
1867.5	0.531474
1869	-0.603196
1870.49	0.355165
1871.98	-0.233649
1873.47	-0.00829887
1874.96	-0.142585
1876.44	0.178826
1877.93	-0.0157833
1879.42	0.256361
1880.91	0.339508
1882.4	0.274143
1882.47	0.266359
1883.96	0.458522
1885.46	0.370404
1886.95	-0.433244
1888.44	-0.122804
1889.94	0.413724
1891.43	-0.109521
1892.93	0.291652
1894.42	0.0524616
1895.91	0.407003
1897.4	0.171801
1898.89	0.214699
1900.39	0.0297937
1901.88	0.503273
1903.37	-0.226394
1904.86	0.467524
1906.35	0.690277
1907.84	0.218069
1909.33	0.0597258
1910.82	0.145943
1912.31	0.164213
1913.8	0.617017
1915.29	0.133439
1916.77	0.0135841
1918.26	0.0662222
1919.75	0.274005
1921.24	0.221643
1922.73	0.169946
1924.21	0.639061
1925.7	-0.015275
1927.19	0.145822
1928.67	0.72358
1930.16	-0.18776
1931.64	0.440727
1933.13	-0.353081
1934.61	0.443143
1936.1	0.128606
1937.58	0.261968
1939.07	-0.0030756
1940.55	-0.146476
1942.04	0.419206
1943.52	0.382314
1945	0.691795
1946.49	0.12255
1947.97	0.0358496
1949.45	0.171965
1950.93	0.444057
1952.42	0.14643
1953.9	0.364083
1955.38	0.306309
1956.86	-0.0942335
1958.34	0.00452328
1959.82	0.0700521
1961.3	-0.137934
1962.78	0.271642
1964.26	0.492126
1965.74	0.163577
1967.22	0.176545
1968.7	-0.0339632
1970.18	-0.381916
1971.65	-0.251549
1973.13	-0.326314
1974.61	-0.179105
1976.09	0.479501
1977.57	-0.105906
1979.04	0.262829
1980.52	-0.202474
1982	0.0295115
1983.47	0.34563
1984.95	0.18545
1986.42	0.143814
1987.9	0.153028
1989.37	0.484478
1990.85	0.105772
1992.32	0.134964
1993.8	0.0474176
1995.27	0.0457754
1996.75	0.146222
1998.22	0.432343
1999.69	0.177333
2001.17	0.00590515
2002.64	0.103691
2004.11	0.251698
2005.58	0.484318
2007.05	-0.562179
2008.53	-0.360441
2010	-0.0227594
2011.47	0.0295115
2012.94	-0.305245
2014.41	-0.0515518
2015.88	-0.236619
2017.35	0.367443
2018.82	0.0450583
2020.29	0.293346
2021.76	0.205236
2023.23	0.0841427
2024.7	0.199296
2026.16	0.601427
2027.63	0.167172
2029.1	-0.180775
2030.57	0.211468
2032.03	0.0349283
2033.5	-0.0401936
2034.97	0.338041
2036.44	0.648729
2037.9	0.370595
2039.37	-0.44614
2040.83	-0.170693
2042.3	0.693952
2043.76	0.769775
2045.23	0.0058279
2046.69	0.437686
2048.16	0.533637
2049.62	-0.0786533
2051.08	0.284811
2052.55	0.140099
2054.01	0.329724
2055.47	0.162353
2056.94	0.0265245
2058.4	0.31074
2059.86	-0.163563
2061.32	0.255509
2062.79	-0.334372
2064.25	0.0200434
2065.71	0.0562258
2067.17	0.867908
2068.63	-0.0865431
2070.09	-0.485202
2071.55	0.294605
2073.01	-0.255765
2074.47	-0.13311
2075.93	0.224801
2077.39	0.363215
2078.85	0.181025
2080.31	0.284378
2081.76	0.252115
2083.22	0.572286
2084.68	0.133813
2086.13	0.182274
2087.59	0.734115
2089.05	0.27637
2090.51	0.154685
2091.96	0.452717
2093.42	0.196563
2094.87	0.35954
2096.33	0.136057
2097.78	0.129536
2099.24	0.172218
2100.69	0.598919
2102.15	0.791332
2103.6	0.634117
2105.06	0.629397
2106.51	0.493497
2107.96	0.309396
2109.42	0.559527
2110.87	0.508645
2112.32	0.938925
2113.77	0.699814
2115.23	0.391818
2116.68	0.764456
2118.13	-0.241776
2119.58	0.4984
2121.03	0.41122
2122.48	0.0286884
2123.93	0.262175
2125.38	0.165061
2126.83	0.996065
2128.28	0.89694
2129.73	0.281938
2131.18	0.57633
2132.63	0.521481
2134.08	0.499677
2135.53	0.71058
2136.97	1.22113
2138.42	0.891614
2139.87	1.04448
2141.32	0.472729
2142.76	0.266339
2144.21	0.755636
2145.66	0.633233
2147.1	1.42091
2148.55	1.09845
2150	0.757834
2151.44	0.448654
2152.89	0.966342
2154.33	0.770241
2155.78	1.13668
2157.22	0.608619
2158.66	1.58907
2160.11	0.898535
2161.55	0.691035
2163	1.79601
2164.44	0.963778
2165.88	0.945295
2167.32	0.910087
2168.77	0.923108
2170.21	1.23274
2171.65	0.557708
2173.09	1.3268
2174.53	0.995716
2175.97	1.47864
2177.41	0.880893
2178.85	1.01599
2180.29	1.01962
2181.73	1.20754
2183.17	0.864313
2184.61	0.887349
2186.05	1.52604
2187.49	1.01692
2188.93	1.20664
2190.37	1.26326
2191.81	0.853306
2193.24	0.708525
2194.68	0.89469
2196.12	0.828285
2197.56	0.925176
2198.99	1.0192
2200.43	1.16123
2201.87	0.539017
2203.3	0.814587
2204.74	0.627242
2206.17	0.408566
2207.61	1.18495
2209.04	0.685325
2210.48	0.83048
2211.91	0.626525
2213.35	1.14892
2214.78	0.4315
2216.21	0.854912
2217.65	0.339223
2219.08	1.47505
2220.51	1.12779
2221.95	0.418414
2223.38	0.911139
2224.81	0.857839
2226.24	0.801859
2227.67	1.0721
2229.1	0.912667
2230.54	0.637427
2231.97	0.706554
2233.4	1.25063
2234.83	0.421188
2236.26	0.559061
2237.69	0.715528
2239.11	0.401621
2240.54	0.401047
2241.97	0.827381
2243.4	0.83166
2244.83	0.673463
2246.26	0.449026
2247.69	0.613597
2249.11	0.774666
2250.54	0.703882
2251.97	-0.541636
2253.4	0.474205
2254.82	0.399981
2256.25	0.311856
2257.67	0.0489836
2259.1	-0.0633335
2260.53	0.47784
2261.95	0.487544
2263.38	0.775947
2264.8	0.15521
2266.23	0.655169
2267.65	0.0644474
2269.07	1.11548
2270.5	0.863554
2271.92	0.284994
2273.34	0.617901
2274.77	0.348356
2276.19	0.0952826
2277.61	0.0868301
2279.03	-0.42689
2280.46	0.869065
2281.88	0.632285
2283.3	0.00368023
2284.72	0.582394
2286.14	0.0517845
2287.56	-0.298965
2288.98	0.298056
2290.4	0.340611
2291.82	-0.0740719
2293.24	0.966597
2294.66	0.339297
2296.08	0.316946
2297.5	0.572864
2298.92	0.599713
2300.34	0.692433
2301.76	0.228189
2303.17	0.108439
2304.59	0.218622
2306.01	0.640848
2307.43	0.0278082
2308.84	0.399645
2310.26	0.145975
2311.68	0.5001
2313.09	0.706268
2314.51	0.304191
2315.92	0.314597
2317.34	0.0461674
2318.75	0.668317
2320.17	0.136292
2321.58	-0.0349073
2323	0.566609
2324.41	-0.0732203
2325.82	0.224092
2327.24	0.864785
2328.65	0.827771
2330.06	0.626328
2331.48	-0.281467
2332.89	0.393133
2334.3	0.377645
2335.71	0.379046
2337.12	0.182414
2338.54	0.050169
2339.95	-0.198764
2341.36	-0.301095
2342.77	0.0061779
2344.18	0.312959
2345.59	-0.117782
2347	-0.269089
2348.41	-0.223717
2349.82	-0.178967
2351.23	-0.266218
2352.64	-0.142491
2354.04	-0.60787
2355.45	0.181759
2356.86	-0.00780392
2358.27	-0.0831785
2359.68	0.605444
2361.08	0.172837
2362.49	0.146461
2363.9	-0.495486
2365.3	0.303779
2366.71	0.63292
2368.12	0.106604
2369.52	0.115204
2370.93	0.31927
2372.33	0.219087
2373.74	0.0400944
2375.14	0.0228672
2376.55	0.230363
2377.95	0.00182343
2379.36	-0.00383091
2380.76	0.292942
2382.16	-0.0385303
2383.57	-0.00231552
2384.97	0.20935
2386.37	0.213399
2387.78	0.218811
2389.18	-0.363885
2390.58	0.665448
2391.98	0.437412
2393.38	0.0839891
2394.79	-0.395
2396.19	0.431143
2397.59	0.0180521
2398.99	-0.250907
2400.39	-0.0424099
2401.79	0.372998
2403.19	0.327798
2404.59	-0.0672674
2405.99	-0.511062
2407.39	0.249975
2408.78	-0.212118
2410.18	0.292639
2411.58	0.100076
2412.98	-0.0910845
2414.38	0.432275
2415.77	0.292877
2417.17	0.393076
2418.57	0.478942
2419.97	0.0903368
2421.36	0.414224
2422.76	-0.197041
2424.15	0.173437
2425.55	-0.359169
2426.95	0.551078
2428.34	0.0838423
2429.74	0.616921
2431.13	0.294787
2432.52	0.607594
2433.92	-0.00124359
2435.31	-0.0244274
2436.71	0.506195
2438.1	0.684879
2439.49	0.575474
2440.89	0.385205
2442.28	0.527532
2443.67	0.145617
2445.06	0.176123
2446.46	0.460022
2447.85	0.0936975
2449.24	0.551359
2450.63	0.312284
2452.02	0.279972
2453.41	0.264708
2454.8	0.234971
2456.19	0.111426
2457.58	0.810947
2458.97	0.339711
2460.36	0.104898
2461.75	0.232574
2463.14	0.248277
2464.53	-0.289954
2465.92	-0.10177
2467.31	0.559649
2468.69	-0.0734501
2470.08	0.00341892
2471.47	-0.0781116
2472.86	0.18598
2474.24	-0.008008
2475.63	-0.21847
2477.02	0.340973
2478.4	-0.121426
2479.79	0.076231
2481.17	-0.259293
2482.56	0.110666
2483.94	0.0096693
2485.33	0.486181
2486.72	0.553728
2488.1	0.0575638
2489.48	0.449769
2490.87	0.249223
2492.25	-0.152142
2493.64	0.225424
2495.02	0.0613327
2496.4	0.581497
2497.79	0.0335112
2499.17	-0.420396
2500.55	-0.147159
2501.93	0.124476
2503.31	-0.439696
2504.69	0.0910645
2506.08	0.419394
2507.46	-0.0229912
2508.84	-0.295117
2510.22	-0.0131569
2511.6	0.422621
2512.98	0.705516
2514.36	0.483867
2515.74	-0.0728045
2517.12	0.427926
2518.5	0.0727806
2519.88	-0.00664806
2521.25	-0.468213
2522.63	0.16877
2524.01	0.178236
2525.39	0.659003
2526.77	-0.140638
2528.14	0.0049696
2529.52	0.3953
2530.9	0.802865
2532.27	0.179618
2533.65	-0.228541
2535.03	0.595084
2536.4	0.233637
2537.78	0.235797
2539.15	0.00865459
2540.53	-0.0222921
2541.9	0.0220623
2543.28	-0.388418
2544.65	0.143039
2546.03	0.539704
2547.4	0.17987
2548.77	0.382629
2550.15	0.646337
2551.52	0.150574
2552.89	-0.103857
2554.27	-0.329522
2555.64	0.080718
2557.01	0.671874
2558.38	0.0645485
2559.75	0.867753
2561.12	-0.0563869
2562.5	0.0360909
2563.87	0.220379
2565.24	0.23864
2566.61	0.029974
2567.98	0.124525
2569.35	0.476747
2570.72	0.192398
2572.09	0.54469
2573.46	0.245321
2574.83	0.461479
2576.19	0.359337
2577.56	0.21157
2578.93	0.397012
2580.3	0.142175
2581.67	0.205106
2583.04	0.267426
2584.4	0.0261402
2585.77	0.466919
2587.14	0.422757
2588.5	-0.272799
2589.87	0.259435
2591.23	0.41257
2592.6	0.216455
2593.97	0.352418
2595.33	0.183814
2596.7	0.619163
2598.06	0.356863
2599.43	0.109331
2600.79	0.360855
2602.15	-0.172463
2603.52	0.714725
2604.88	0.59108
2606.25	0.377348
2607.61	-0.00258923
2608.97	0.113886
2610.33	0.0626669
2611.7	-0.0959024
2613.06	-0.000409126
2614.42	0.318997
2615.78	0.06705
2617.15	0.505502
2618.51	0.509721
2619.87	-0.11333
2621.23	0.103088
2622.59	0.320016
2623.95	0.283161
2625.31	0.350734
2626.67	0.119561
2628.03	-0.171425
2629.39	0.386273
2630.75	-0.158255
2632.1	0.427744
2633.46	-0.0419559
2634.82	0.216318
2636.18	0.058856
2637.54	0.44989
2638.89	0.0704136
2640.25	0.0172396
2641.61	0.127153
2642.97	0.104369
2644.32	0.303324
2645.68	0.103557
2647.03	-0.0375748
2648.39	-0.0617218
2649.75	0.501553
2651.1	0.474546
2652.46	-0.140406
2653.81	0.111799
2655.17	0.203395
2656.52	0.223294
2657.88	0.186426
2659.23	-0.126931
2660.58	-0.132261
2661.94	-0.137791
2663.29	-0.64083
2664.64	-0.224876
2666	-0.0732317
2667.35	-0.199499
2668.7	0.256722
2670.05	0.0141897
2671.4	0.252625
2672.76	-0.162155
2674.11	0.194182
2675.46	0.492978
2676.81	0.0524492
2678.16	0.222413
2679.51	-0.128442
2680.86	-0.0136538
2682.21	0.0449543
2683.56	0.148914
2684.91	0.0513525
2686.26	0.273703
2687.61	-0.171649
2688.96	0.368169
2690.3	0.0198641
2691.65	0.162272
2693	0.345688
2694.35	0.164804
2695.7	0.534487
2697.04	-0.0223713
2698.39	0.523725
2699.74	-0.274337
2701.08	-0.0416031
2702.43	0.0631676
2703.77	0.633358
2705.12	0.291581
2706.47	0.370195
2707.81	0.245317
2709.16	0.468085
2710.5	0.196654
2711.85	0.810712
2713.19	0.189775
2714.53	0.484074
2715.88	0.429489
2717.22	0.345554
2718.57	0.275714
2719.91	0.496274
2721.25	0.0176306
2722.59	0.615149
2723.94	0.979095
2725.28	1.12399
2726.62	0.438593
2727.96	0.567773
2729.3	1.20585
2730.65	0.839536
2731.99	0.531433
2733.33	0.718122
2734.67	0.250493
2736.01	0.888638
2737.35	0.188893
2738.69	0.114541
2740.03	0.374291
2741.37	0.61869
2742.71	0.120563
2744.05	0.231965
2745.38	0.0372038
2746.72	0.887467
2748.06	0.0964241
2749.4	0.205682
2750.74	0.938784
2752.07	0.12046
2753.41	0.433523
2754.75	0.0222359
2756.09	-0.243752
2757.42	0.243593
2758.76	0.26783
2760.09	0.104507
2761.43	-0.246134
2762.77	0.214342
2764.1	0.0675669
2765.44	0.152301
2766.77	-0.270021
2768.11	-0.331997
2769.44	-0.150077
2770.77	0.303999
2772.11	0.2932
2773.44	0.295156
2774.77	-0.136322
2776.11	-0.0341978
2777.44	-0.190755
2778.77	-0.504407
2780.11	-0.0839138
2781.44	0.322132
2782.77	0.369012
2784.1	0.415733
2785.43	-0.110959
2786.77	0.0364847
2788.1	-0.502598
2789.43	0.219137
2790.76	-0.302619
2792.09	0.349644
2793.42	0.0445681
2794.75	-0.103073
2796.08	-0.279726
2797.41	0.271357
2798.74	-0.235448
2800.07	0.684683
2801.4	-0.0084486
2802.72	-0.20218
2804.05	0.0741653
2805.38	0.249825
2806.71	0.438533
2808.04	0.0854635
2809.36	0.272289
2810.69	0.558238
2812.02	-0.120292
2813.34	0.210793
2814.67	0.600582
2816	-0.0138741
2817.32	0.0681496
2818.65	0.618864
2819.97	0.588514
2821.3	0.0897579
2822.62	0.624529
2823.95	1.03057
2825.27	0.755923
2826.6	0.807173
2827.92	0.830927
2829.25	0.869773
2830.57	1.20668
2831.89	0.878635
2833.22	0.550549
2834.54	1.77894
2835.86	1.57689
2837.18	1.52964
2838.51	2.59917
2839.83	2.25358
2841.15	3.23734
2842.47	3.31674
2843.79	3.94852
2845.11	4.5109
2846.43	5.17341
2847.76	5.15835
2849.08	5.35538
2850.4	6.58366
2851.72	6.60955
2853.04	6.5213
2854.36	7.01163
2855.67	7.47317
2856.99	7.51074
2858.31	7.97216
2859.63	7.98152
2860.95	8.51297
2862.27	8.33767
2863.58	8.96616
2864.9	8.81767
2866.22	8.64099
2867.54	9.1842
2868.85	8.78344
2870.17	9.27192
2871.49	9.22503
2872.8	9.43128
2874.12	9.57954
2875.43	9.51416
2876.75	10.3335
2878.07	10.0807
2879.38	9.8275
2880.7	10.6998
2882.01	10.8564
2883.32	10.7907
2884.64	10.685
2885.95	10.651
2887.27	10.7156
2888.58	11.2281
2889.89	10.7568
2891.21	11.0692
2892.52	11.0715
2893.83	11.7739
2895.14	12.4485
2896.46	12.3406
2897.77	12.5011
2899.08	12.4541
2900.39	13.1225
2901.7	11.8896
2903.01	12.8813
2904.32	12.9362
2905.63	13.6212
2906.94	14.3495
2908.25	14.0166
2909.56	14.2594
2910.87	14.0418
2912.18	14.3422
2913.49	14.4449
2914.8	15.1325
2916.11	15.2841
2917.42	15.264
2918.72	15.2974
2920.03	15.9878
2921.34	15.9242
2922.65	15.8496
2923.95	16.3654
2925.26	16.7023
2926.57	17.0128
2927.88	16.4149
2929.18	16.5291
2930.49	15.8312
2931.79	15.7474
2933.1	16.0264
2934.4	16.3752
2935.71	15.5084
2937.01	15.6903
2938.32	15.0761
2939.62	14.8678
2940.93	14.0179
2942.23	13.7008
2943.54	13.4143
2944.84	12.5434
2946.14	12.3458
2947.45	12.1354
2948.75	11.1267
2950.05	11.2772
2951.35	10.9482
2952.66	9.46718
2953.96	9.97183
2955.26	9.60767
2956.56	9.17528
2957.86	9.30665
2959.16	9.23326
2960.46	9.50141
2961.77	8.73667
2963.07	9.34734
2964.37	8.46985
2965.66	8.3472
2966.96	7.99651
2968.26	8.59906
2969.56	8.45521
2970.86	7.9032
2972.16	7.63292
2973.46	7.05364
2974.76	6.6853
2976.06	6.68182
2977.35	6.40859
2978.65	6.076
2979.95	5.96566
2981.25	5.71229
2982.54	5.51439
2983.84	4.52996
2985.14	5.12231
2986.43	5.30963
2987.73	4.30529
2989.02	4.23029
2990.32	4.02942
2991.62	3.46241
2992.91	3.70889
2994.21	3.23661
2995.5	3.09984
2996.8	2.55483
2998.09	2.85203
2999.38	2.42003
3000.68	2.73252
3001.97	2.10678
3003.26	2.18287
3004.56	1.29267
3005.85	1.90115
3007.14	1.50043
3008.43	1.39267
3009.73	1.56335
3011.02	1.6628
3012.31	1.20302
3013.6	0.897502
3014.89	1.12295
3016.19	0.652802
3017.48	0.574409
3018.77	0.84495
3020.06	0.434043
3021.35	0.592946
3022.64	0.653237
3023.93	0.462218
3025.22	0.70025
3026.5	0.397399
3027.79	0.552621
3029.08	0.170247
3030.37	-0.00183392
3031.66	0.588283
3032.95	0.365291
3034.24	0.72279
3035.52	-0.21735
3036.81	0.289341
3038.1	0.351908
3039.39	0.218893
3040.67	0.509975
3041.96	0.442084
3043.25	0.717084
3044.53	1.0476
3045.82	0.682843
3047.1	0.909929
3048.39	0.526327
3049.67	1.1703
3050.96	1.28464
3052.24	1.4142
3053.53	1.31205
3054.81	0.786177
3056.1	0.750021
3057.38	1.69384
3058.67	0.891605
3059.95	0.784428
3061.23	0.89586
3062.52	1.07693
3063.8	0.770789
3065.08	0.807327
3066.36	1.02307
3067.65	0.832836
3068.93	0.466612
3070.21	0.54895
3071.49	0.793428
3072.77	0.669003
3074.05	0.556505
3075.33	0.279762
3076.61	0.451133
3077.89	0.202376
3079.17	0.362729
3080.45	0.539088
3081.73	0.20266
3083.01	-0.0366955
3084.29	0.105122
3085.57	0.233801
3086.85	0.538558
3088.13	0.394597
3089.41	0.168389
3090.68	0.37603
3091.96	0.0409498
3093.24	0.113409
3094.52	-0.572858
3095.79	0.151912
3097.07	-0.194083
3098.35	-0.187357
3099.62	0.225973
3100.9	0.327681
3102.18	0.321363
3103.45	0.342824
3104.73	0.21644
3106	0.470407
3107.28	0.468879
3108.55	0.360926
3109.83	0.254829
3111.1	0.583708
3112.38	0.169291
3113.65	0.433023
3114.93	0.480371
3116.2	0.351104
3117.47	0.763374
3118.75	0.726778
3120.02	0.471915
3121.29	0.243245
3122.57	0.231062
3123.84	0.36795
3125.11	0.952147
3126.38	0.399927
3127.65	1.17524
3128.92	0.828598
3130.2	0.65886
3131.47	0.368062
3132.74	0.983037
3134.01	1.00309
3135.28	0.644773
3136.55	1.25778
3137.82	1.18207
3139.09	0.809975
3140.36	1.08472
3141.63	1.48048
3142.9	1.45994
3144.17	1.48086
3145.43	1.51644
3146.7	1.6071
3147.97	1.67228
3149.24	1.28339
