200.554	1.70274
202.369	1.70745
204.183	1.71292
205.999	0.285414
207.813	1.09643
209.626	2.31927
211.439	1.52347
213.253	1.21213
215.065	0.657162
216.877	0.805222
218.688	-0.0878754
220.5	0.159052
222.312	0.721905
224.123	0.415571
225.933	0.98068
227.742	0.651918
229.552	1.11987
231.361	0.331781
233.171	0.0990753
234.98	0.0362549
236.787	-0.241098
238.595	0.063736
240.402	-0.30205
242.209	0.0350971
244.015	0.205997
245.822	0.111633
247.627	0.280445
249.435	0.493469
251.24	0.0979633
253.045	0.229422
254.849	0.382345
256.653	-0.381392
258.457	0.833282
260.26	0.195118
262.063	-0.222599
263.866	1.14533
265.668	0.949434
267.47	0.103525
269.271	0.823816
271.073	0.506485
272.873	0.717796
274.674	-0.158005
276.474	1.44676
278.274	-0.15724
280.073	-0.582821
281.872	-0.120459
283.671	0.386433
285.47	1.32264
287.268	-9.53674e-005
289.065	0.16654
290.863	0.166651
292.66	0.288818
294.456	0.772427
296.253	-0.104521
298.049	0.0249634
299.844	1.27826
301.637	0.667608
303.432	-0.516914
305.227	-0.389761
307.021	-0.168657
308.815	1.02934
310.609	0.678659
312.402	-0.0981388
314.195	0.104708
315.987	0.286993
317.777	-0.480135
319.569	0.37504
321.36	0.327314
323.151	0.948782
324.942	-0.0746174
326.733	0.739645
328.521	-0.237324
330.31	0.265818
332.1	0.217491
333.889	1.05163
335.677	0.279226
337.464	-0.209866
339.252	0.254799
341.039	0.573219
342.826	1.03357
344.611	0.251186
346.398	-0.123514
348.184	0.458426
349.97	-0.00930977
351.754	0.668917
353.539	0.463091
355.324	0.589609
357.106	0.117773
358.89	-0.0221119
360.674	-0.0683899
362.455	-0.306412
364.239	0.738703
366.021	0.284309
367.804	0.351612
369.584	-0.696972
371.366	-0.0394287
373.145	-0.61462
374.926	0.276079
376.707	0.126423
378.485	0.0724411
380.265	0.232241
382.045	0.111448
383.822	-0.0774021
385.601	-0.475292
387.378	0.210192
389.156	0.0515614
390.934	-0.316589
392.71	0.303143
394.487	0.360367
396.262	-0.0278893
398.038	-0.0636272
399.813	0.675495
401.588	0.61541
403.362	0.154993
405.137	0.186646
406.912	0.498896
408.685	0.763123
410.459	-0.475468
412.23	0.351799
414.004	0.0064106
415.775	-0.0091095
417.548	0.0472393
419.318	0.245567
421.089	-0.377033
422.86	0.290916
424.63	0.136183
426.401	0.449476
428.17	-0.271526
429.94	0.55608
431.708	0.444778
433.478	0.780075
435.245	-0.245169
437.012	-0.660208
438.781	0.871552
440.547	-0.0399227
442.315	0.640697
444.081	-0.136492
445.846	0.0915394
447.613	-0.267862
449.378	0.097559
451.142	0.15888
452.908	0.104012
454.672	0.0963326
456.435	-0.144375
458.2	0.12743
459.963	0.748074
461.725	0.369278
463.489	0.667791
465.251	0.366329
467.012	0.465012
468.775	-0.0125999
470.536	0.0241871
472.296	0.457632
474.056	-0.157463
475.817	0.4118
477.576	0.0924339
479.335	0.934671
481.094	1.21616
482.854	0.706148
484.612	0.268229
486.37	0.0199699
488.127	0.381237
489.886	-0.116476
491.642	0.530752
493.398	0.385845
495.154	0.708826
496.91	0.517288
498.667	1.00446
500.422	0.577072
502.176	0.147848
503.93	0.44462
505.684	0.246233
507.438	0.421534
509.191	0.147371
510.946	0.646822
512.698	0.908335
514.45	0.296623
516.202	0.294405
517.954	0.290144
519.705	0.80135
521.456	0.582453
523.206	0.29254
524.956	0.331207
526.706	0.369846
528.456	0.736761
530.207	0.775051
531.956	0.812595
533.704	1.29338
535.452	0.906
537.2	0.750439
538.947	-0.0375957
540.694	0.689791
542.441	0.552378
544.188	0.624041
545.934	0.277315
547.68	0.952875
549.425	0.143808
551.17	0.309469
552.915	0.683279
554.659	0.964256
556.403	0.691235
558.145	0.557869
559.889	0.978567
561.632	0.939226
563.375	-0.156988
565.117	0.0595589
566.859	0.0932102
568.601	0.334871
570.342	0.302839
572.083	1.25977
573.824	0.888992
575.565	-0.419123
577.303	0.294466
579.043	0.322157
580.782	0.282305
582.521	0.977932
584.26	0.385784
585.998	-0.39263
587.734	-0.368452
589.472	-0.438289
591.21	0.824806
592.947	0.660572
594.684	0.565136
596.418	0.630865
598.154	0.443474
599.89	0.485512
601.626	-0.0490074
603.361	-0.148544
605.094	0.462166
606.828	0.771362
608.562	-0.436739
610.296	0.536623
612.027	-0.256359
613.761	0.809875
615.493	-0.186186
617.224	-0.219019
618.956	0.594612
620.688	-0.105122
622.419	0.429089
624.149	-0.341797
625.879	0.190496
627.61	0.221792
629.338	0.370657
631.068	-0.275034
632.797	0.634472
634.525	0.678732
636.254	-0.0537815
637.98	0.443272
639.708	0.615921
641.436	0.00775719
643.162	-0.0111446
644.889	0.423275
646.614	-0.00676727
648.34	-0.205521
650.067	-0.0805912
651.791	-0.221813
653.516	-0.106503
655.239	0.0600243
656.964	0.617792
658.687	-0.0754795
660.411	0.438433
662.133	-0.351322
663.857	-0.34623
665.58	0.363604
667.301	-0.461527
669.024	0.290012
670.744	0.0367012
672.464	-0.144829
674.186	-0.162178
675.905	0.213631
677.626	-0.34853
679.345	0.489433
681.065	0.453657
682.783	0.805832
684.503	0.395079
686.22	-0.341839
687.939	-0.413782
689.656	0.618174
691.372	1.00401
693.09	0.0757618
694.806	0.0676498
696.523	0.080883
698.239	0.368359
699.953	0.262321
701.67	0.108433
703.384	0.780527
705.098	-0.134161
706.813	0.626867
708.526	0.468798
710.239	0.585268
711.954	0.471977
713.666	-0.350641
715.378	0.290361
717.091	1.22691
718.802	0.268734
720.513	0.0418243
722.226	0.225418
723.936	0.386045
725.646	0.0688229
727.355	-0.566303
729.067	0.705048
730.776	0.205082
732.484	0.339579
734.192	0.021019
735.902	0.200401
737.61	0.967129
739.317	0.492891
741.024	0.336676
742.731	0.0475483
744.439	0.548925
746.145	0.849657
747.851	-0.489708
749.556	-0.0719261
751.262	0.752705
752.966	0.25243
754.673	0.406721
756.377	1.59882
758.081	0.655506
759.784	0.434536
761.487	0.485641
763.19	0.966364
764.892	0.431156
766.594	1.13607
768.296	0.934404
770	1.45255
771.701	1.7865
773.402	1.39447
775.102	1.52181
776.803	1.74056
778.503	1.28322
780.202	1.80082
781.901	1.37035
783.6	0.917141
785.299	1.59358
786.997	0.975828
788.695	1.57509
790.393	1.06003
792.09	0.722059
793.787	1.73685
795.484	1.44104
797.18	1.10228
798.877	1.66764
800.572	1.51509
802.268	1.59001
803.963	2.04827
805.658	1.76402
807.35	1.54601
809.044	1.43851
810.738	1.39649
812.432	1.35299
814.125	1.30863
815.818	0.995317
817.51	1.21926
819.202	1.30886
820.894	1.97915
822.584	1.62272
824.275	1.37967
825.966	1.0725
827.657	2.08331
829.347	1.22765
831.037	1.69112
832.725	0.644526
834.414	0.737211
836.103	1.00999
837.792	0.724737
839.481	0.615896
841.167	0.928827
842.854	0.859989
844.542	1.17028
846.229	1.16898
847.914	1.30481
849.6	1.62387
851.287	1.47734
852.973	1.66996
854.656	1.39322
856.341	1.92423
858.026	2.16203
859.711	1.96974
861.393	1.95414
863.077	2.00332
864.761	1.91509
866.442	1.12635
868.125	1.86947
869.808	1.70998
871.489	1.61755
873.171	0.870489
874.85	1.02565
876.532	1.47424
878.213	1.87782
879.892	0.385189
881.572	0.178389
883.251	0.647659
884.931	0.550737
886.61	1.62513
888.287	0.485228
889.966	0.854534
891.643	0.409693
893.321	1.4045
894.997	0.61825
896.675	1.49502
898.352	0.818922
900.028	0.142752
901.704	0.721394
903.379	0.357998
905.055	0.933746
906.729	1.30764
908.404	1.23584
910.077	0.698111
911.75	0.363211
913.425	0.807873
915.097	0.27537
916.771	1.31881
918.443	0.565163
920.116	0.897972
921.787	0.58968
923.46	1.36685
925.13	1.08547
926.8	1.73483
928.472	1.04023
930.141	0.612865
931.813	0.981028
933.481	0.687719
935.15	0.880032
936.82	-0.0517578
938.488	1.33369
940.156	0.559814
941.825	1.22165
943.492	0.803741
945.158	0.870874
946.827	0.913977
948.493	0.556637
950.158	0.836233
951.824	0.716579
953.491	0.420761
955.156	0.612871
956.82	0.390612
958.486	1.01188
960.15	0.843782
961.814	-0.0730953
963.477	0.599977
965.142	1.55853
966.804	0.433439
968.467	0.830008
970.129	0.91333
971.79	0.707701
973.454	0.92318
975.115	0.345039
976.776	1.20743
978.436	0.855978
980.096	0.4058
981.756	-0.0453625
983.417	0.464052
985.077	-0.025919
986.736	0.410416
988.394	0.511673
990.052	1.62793
991.71	0.973928
993.368	0.541275
995.025	1.21297
996.682	0.648678
998.341	0.636169
999.998	1.17414
1001.65	1.07216
1003.31	0.969559
1004.97	1.68018
1006.62	0.763493
1008.28	0.155762
1009.93	0.273558
1011.58	0.720858
1013.24	0.510906
1014.89	0.652302
1016.54	0.487764
1018.2	-0.550919
1019.85	0.818403
1021.5	1.64189
1023.16	0.34668
1024.81	1.26084
1026.46	0.9739
1028.11	1.18954
1029.76	0.683052
1031.41	1.41953
1033.06	1.27944
1034.71	1.55113
1036.36	0.926195
1038.01	1.21575
1039.66	1.94007
1041.31	2.57752
1042.95	2.04282
1044.6	2.38096
1046.25	2.61386
1047.9	2.67645
1049.54	1.96026
1051.19	1.74579
1052.84	1.35888
1054.48	1.49394
1056.13	1.6725
1057.77	1.06798
1059.42	1.13641
1061.06	0.790571
1062.71	1.50884
1064.35	0.46422
1066	0.700693
1067.64	1.43506
1069.28	1.62409
1070.93	1.24724
1072.57	1.21782
1074.21	1.3195
1075.85	0.924072
1077.49	0.964882
1079.13	0.79097
1080.78	0.162964
1082.42	0.98772
1084.06	0.856787
1085.7	0.484629
1087.34	0.672592
1088.97	0.250557
1090.61	0.691618
1092.25	0.58955
1093.89	1.28586
1095.53	0.622053
1097.17	1.06022
1098.8	0.875452
1100.44	0.844679
1102.08	0.688143
1103.71	-0.0245819
1105.35	-0.390751
1106.99	0.254889
1108.62	0.426706
1110.26	0.381577
1111.89	-0.246489
1113.52	1.63659
1115.16	0.123524
1116.79	0.821054
1118.43	0.145897
1120.06	0.351166
1121.69	0.408007
1123.32	0.273981
1124.96	0.54821
1126.59	0.588472
1128.22	0.758358
1129.85	0.565926
1131.48	-0.0103054
1133.11	-0.201183
1134.75	0.484119
1136.37	0.227753
1138	0.375671
1139.63	0.564175
1141.26	1.0924
1142.89	0.424313
1144.52	0.098423
1146.15	0.285656
1147.78	0.239958
1149.4	-0.656448
1151.03	0.344025
1152.66	-0.0188618
1154.28	0.00104332
1155.91	-0.320242
1157.54	0.103132
1159.16	-0.0261002
1160.79	0.399057
1162.41	-0.00323105
1164.04	0.191519
1165.66	0.216982
1167.29	-0.4597
1168.91	-0.0538483
1170.53	0.795321
1172.16	0.472069
1173.78	-0.490759
1175.4	0.348993
1177.02	-0.424395
1178.65	0.18058
1180.27	-0.124285
1181.89	0.143883
1183.51	0.0322838
1185.13	0.195473
1186.75	0.166759
1188.37	0.219704
1189.99	0.184912
1191.61	-0.274023
1193.23	-0.271738
1194.85	-0.585676
1196.47	1.28164
1198.08	0.675137
1199.7	-0.554167
1201.32	0.0614834
1202.94	-0.572109
1204.55	0.385262
1206.17	0.239742
1207.79	0.597113
1209.4	0.767063
1211.02	0.455801
1212.63	0.892303
1214.25	-0.0506802
1215.86	0.190674
1217.48	0.137436
1219.09	0.0203323
1220.71	0.546822
1222.32	0.679455
1223.93	1.02121
1225.54	0.70253
1227.16	0.0557899
1228.77	0.549564
1230.38	0.817646
1231.99	0.364157
1233.6	0.718912
1235.22	0.600374
1236.83	0.463179
1238.44	0.0175323
1240.05	-0.365213
1241.66	0.0587921
1243.26	0.916878
1244.87	0.263456
1246.48	0.415253
1248.09	1.33099
1249.7	0.548735
1251.31	0.448864
1252.92	0.432163
1254.52	1.14061
1256.13	1.45793
1257.74	0.225864
1259.34	1.41628
1260.95	0.414709
1262.55	1.25618
1264.16	1.00035
1265.76	1.05446
1267.37	2.12305
1268.97	1.84282
1270.58	1.27038
1272.18	1.52544
1273.78	0.5555
1275.39	0.827879
1276.99	2.01032
1278.59	1.28484
1280.2	1.42851
1281.8	0.950676
1283.4	1.8802
1285	0.969521
1286.6	1.75615
1288.2	1.94482
1289.8	1.9077
1291.4	2.22273
1293	2.06227
1294.6	1.36339
1296.2	2.33537
1297.8	2.39547
1299.4	2.14305
1301	1.76462
1302.6	1.87895
1304.19	2.03259
1305.79	1.79407
1307.39	1.90425
1308.99	0.454662
1310.58	2.61476
1312.18	2.13034
1313.77	1.77094
1315.37	1.12791
1316.96	1.36543
1318.56	1.3791
1320.15	1.7798
1321.75	1.73012
1323.34	2.10514
1324.94	1.46005
1326.53	2.07269
1328.12	1.58815
1329.72	1.49059
1331.31	1.98252
1332.9	1.649
1334.49	1.92559
1336.08	1.0948
1337.67	1.45564
1339.27	1.59315
1340.86	2.09009
1342.45	1.65681
1344.04	1.66321
1345.63	1.24623
1347.22	2.0938
1348.8	1.6206
1350.39	1.51277
1351.98	0.449408
1353.57	1.18974
1355.16	2.41138
1356.75	1.53487
1358.33	2.59571
1359.92	1.91688
1361.51	2.33447
1363.09	1.7129
1364.68	1.11142
1366.27	1.68658
1367.85	1.88419
1369.44	1.22784
1371.02	2.08677
1372.61	1.77382
1374.19	1.00521
1375.77	2.06833
1377.36	1.8979
1378.94	1.98521
1380.52	1.77224
1382.11	1.75597
1383.69	1.99594
1385.27	1.3992
1386.85	1.69625
1388.43	1.61604
1390.02	1.87451
1391.6	2.11453
1393.18	1.80035
1394.76	1.98276
1396.34	1.96644
1397.92	1.69114
1399.5	1.94928
1401.08	2.1461
1402.65	1.98541
1404.23	1.74575
1405.81	1.3491
1407.39	2.61451
1408.97	2.28011
1410.54	2.10482
1412.12	1.96901
1413.7	2.30594
1415.27	2.70014
1416.85	2.34308
1418.43	1.69012
1420	3.02804
1421.58	2.94904
1423.15	2.61713
1424.73	2.64261
1426.3	3.51666
1427.87	3.3485
1429.45	2.70737
1431.02	3.36357
1432.6	2.87613
1434.17	3.48884
1435.74	3.60874
1437.31	3.8273
1438.89	3.88992
1440.46	3.71859
1442.03	4.19762
1443.6	3.83289
1445.17	3.97986
1446.74	4.1665
1448.31	3.90134
1449.88	3.71533
1451.45	3.31386
1453.02	2.83455
1454.59	3.89004
1456.16	3.19473
1457.72	3.58027
1459.29	4.10126
1460.86	2.92654
1462.43	3.12599
1463.99	2.65374
1465.56	3.12343
1467.13	2.86521
1468.69	2.62759
1470.26	2.47032
1471.83	2.07978
1473.39	2.26007
1474.95	2.04945
1476.52	2.0945
1478.08	1.59078
1479.65	1.85155
1481.21	1.81807
1482.78	1.13776
1484.34	1.82896
1485.9	2.12745
1487.47	1.24932
1489.03	1.09381
1490.59	1.44399
1492.15	1.02746
1493.71	1.27204
1495.27	0.849811
1496.84	0.85545
1498.39	1.09424
1499.96	1.2168
1501.52	1.39915
1503.07	1.2341
1504.64	0.935221
1506.19	0.346938
1507.75	0.590212
1509.31	0.869881
1510.87	0.548837
1512.43	0.130818
1513.98	0.38684
1515.54	0.0851574
1517.1	0.802625
1518.65	-0.14848
1520.21	0.244246
1521.77	0.483356
1523.32	-0.157814
1524.88	-0.245195
1526.44	-0.410241
1527.99	-0.252611
1529.54	1.12051
1531.1	0.439326
1532.65	0.443454
1534.21	0.562646
1535.76	0.607636
1537.31	1.01304
1538.87	0.720429
1540.42	1.01352
1541.97	-0.0312567
1543.52	0.977071
1545.07	0.892663
1546.63	0.507554
1548.18	0.479438
1549.73	0.844916
1551.28	1.11634
1552.83	0.452879
1554.38	1.1378
1555.93	0.703472
1557.48	1.33654
1559.03	0.98347
1560.57	1.43593
1562.12	1.20078
1563.67	0.967436
1565.22	1.23875
1566.77	1.3423
1568.31	0.922886
1569.86	1.45467
1571.41	1.14588
1572.95	1.04192
1574.5	1.62843
1576.05	1.46829
1577.59	0.972467
1579.14	1.84017
1580.68	1.66348
1582.23	1.73085
1583.77	1.74364
1585.31	1.86983
1586.86	1.94085
1588.4	1.54449
1589.95	2.00819
1591.49	1.49806
1593.03	1.90432
1594.57	2.81608
1596.11	2.06094
1597.66	2.24318
1599.2	2.68922
1600.74	2.21769
1602.28	2.04676
1603.82	2.26992
1605.36	2.4357
1606.9	2.56156
1608.44	2.1765
1609.98	2.89627
1611.52	2.74732
1613.06	2.426
1614.6	1.9339
1616.13	2.07942
1617.67	2.0007
1619.21	1.15599
1620.75	1.6254
1622.28	1.92829
1623.82	2.04522
1625.36	2.44286
1626.89	1.97809
1628.43	2.40932
1629.96	1.67841
1631.5	2.79668
1633.04	2.53086
1634.57	2.0606
1636.11	1.83479
1637.64	1.98373
1639.17	1.31329
1640.71	1.48196
1642.24	2.09652
1643.77	2.29897
1645.31	2.07112
1646.84	2.10236
1648.37	2.20737
1649.9	1.81164
1651.43	2.06755
1652.96	1.7689
1654.5	2.19542
1656.03	2.17785
1657.56	1.15959
1659.09	2.25213
1660.62	1.82349
1662.15	1.7444
1663.67	2.07019
1665.2	1.87739
1666.73	2.27609
1668.26	1.1639
1669.79	1.401
1671.32	1.58504
1672.84	1.31027
1674.37	1.79136
1675.9	1.20396
1677.43	1.46214
1678.95	1.27681
1680.48	0.906078
1682	1.34301
1683.53	0.824049
1685.05	1.59037
1686.58	0.485818
1688.1	1.19773
1689.63	0.425732
1691.15	1.083
1692.68	0.62342
1694.2	0.493406
1695.72	0.674016
1697.25	1.29251
1698.77	1.43493
1700.29	1.30269
1701.81	0.513194
1703.33	0.635037
1704.86	0.992487
1706.38	0.930137
1707.9	0.921946
1709.42	0.732011
1710.94	0.651424
1712.46	0.825096
1713.98	0.672637
1715.5	-0.185458
1717.02	0.603643
1718.54	0.614109
1720.06	0.985561
1721.57	0.436573
1723.09	0.682614
1724.61	-0.114959
1726.13	0.314946
1727.64	0.440616
1729.16	0.58576
1730.68	-0.381351
1732.19	0.599673
1733.71	0.117216
1735.23	0.238234
1736.74	0.835216
1738.26	0.409225
1739.77	0.861852
1741.29	0.867068
1742.8	0.60402
1744.31	0.188283
1745.83	0.624719
1747.34	0.571857
1748.85	-0.151335
1750.37	0.360374
1751.88	0.580708
1753.39	0.244173
1754.91	0.500239
1756.42	0.121486
1757.93	0.520461
1759.44	0.268589
1760.95	-0.0369444
1762.46	0.336907
1763.97	0.367633
1765.48	-0.365518
1766.99	0.350718
1768.5	0.244403
1770.01	0.225078
1771.52	0.613508
1773.03	0.661439
1774.54	0.499489
1776.04	0.223226
1777.55	-0.159835
1779.06	0.0134563
1780.57	-0.189206
1782.07	-0.0221634
1783.58	0.320022
1785.09	-0.224259
1786.59	0.129383
1788.1	0.240793
1789.6	-0.417154
1791.11	-0.233343
1792.61	0.130368
1794.12	0.496995
1795.62	0.0360622
1797.13	0.165077
1798.63	0.321683
1800.13	0.156515
1801.64	-0.445641
1803.14	-0.285659
1804.64	-0.164549
1806.15	0.00574017
1807.65	0.0516624
1809.15	0.0210161
1810.65	-0.084424
1812.15	-0.267146
1813.65	0.177142
1815.16	0.338613
1816.66	-0.0161428
1818.15	0.236638
1819.66	0.332822
1821.16	0.327018
1822.65	0.236378
1824.15	-0.148563
1825.65	-0.181039
1827.15	-0.300877
1828.65	-0.211237
1830.15	0.172863
1831.64	0.487542
1833.14	0.163338
1834.64	0.360241
1836.14	-0.0752306
1837.63	-0.0285435
1839.13	0.433896
1840.62	0.0799866
1842.12	0.0837288
1843.62	0.340552
1845.11	0.0500145
1846.61	-0.184683
1848.1	0.374859
1849.6	0.259443
1851.09	-0.146191
1852.58	-0.650764
1854.08	-0.0179472
1855.57	0.0791645
1857.06	0.238575
1858.55	-0.222732
1860.05	0.244623
1861.54	-0.238673
1863.03	0.30092
1864.52	0.0231905
1866.01	-0.0891581
1867.5	0.301358
1869	0.161704
1870.49	-0.199717
1871.98	-0.138268
1873.47	-0.158076
1874.96	0.224738
1876.44	-0.109661
1877.93	0.389864
1879.42	0.0964146
1880.91	-0.192461
1882.4	0.589488
1882.47	0.62959
1883.96	0.472889
1885.46	-0.277284
1886.95	0.870551
1888.44	0.136372
1889.94	-0.179237
1891.43	-0.0758953
1892.93	0.290288
1894.42	0.43285
1895.91	-0.0135975
1897.4	-0.0242424
1898.89	-0.574236
1900.39	0.039916
1901.88	0.234425
1903.37	0.0960073
1904.86	0.372903
1906.35	0.439903
1907.84	0.124707
1909.33	0.296621
1910.82	-0.241738
1912.31	0.453057
1913.8	-0.239148
1915.29	0.265542
1916.77	0.457527
1918.26	0.752662
1919.75	0.0420151
1921.24	0.145761
1922.73	0.284596
1924.21	0.182159
1925.7	0.115905
1927.19	0.0164747
1928.67	-0.0993986
1930.16	0.26955
1931.64	0.810667
1933.13	0.362741
1934.61	0.0164356
1936.1	-0.124237
1937.58	0.338802
1939.07	0.109413
1940.55	-0.222927
1942.04	0.222829
1943.52	0.42806
1945	0.0135441
1946.49	0.25491
1947.97	0.599239
1949.45	0.735579
1950.93	0.904822
1952.42	0.229373
1953.9	0.207426
1955.38	-0.0208454
1956.86	0.163824
1958.34	0.263368
1959.82	0.43242
1961.3	0.139107
1962.78	-0.393643
1964.26	0.136074
1965.74	0.527648
1967.22	0.575558
1968.7	0.383013
1970.18	0.617222
1971.65	0.37246
1973.13	0.0426073
1974.61	0.310316
1976.09	0.594922
1977.57	-0.176653
1979.04	-0.0619507
1980.52	-0.372691
1982	0.0817022
1983.47	0.450136
1984.95	0.393216
1986.42	0.183387
1987.9	0.0924711
1989.37	-0.167248
1990.85	-0.290356
1992.32	0.670344
1993.8	-0.0760183
1995.27	0.0242949
1996.75	0.344756
1998.22	0.259659
1999.69	0.207816
2001.17	0.290199
2002.64	0.860959
2004.11	0.217137
2005.58	0.180976
2007.05	0.701654
2008.53	0.313994
2010	0.197062
2011.47	0.181892
2012.94	0.318292
2014.41	0.218509
2015.88	0.386928
2017.35	0.0494576
2018.82	0.36678
2020.29	-0.35871
2021.76	0.646076
2023.23	-0.0282726
2024.7	0.154703
2026.16	0.456525
2027.63	0.709859
2029.1	0.646558
2030.57	0.182473
2032.03	0.0550823
2033.5	0.297594
2034.97	0.0700607
2036.44	-0.158114
2037.9	0.285004
2039.37	-0.0285015
2040.83	0.0275726
2042.3	0.336366
2043.76	0.141718
2045.23	0.251005
2046.69	0.159369
2048.16	0.472339
2049.62	0.0773897
2051.08	0.254017
2052.55	0.0071125
2054.01	0.516697
2055.47	0.501095
2056.94	0.0958843
2058.4	0.734616
2059.86	0.900938
2061.32	-0.0941248
2062.79	0.292792
2064.25	0.209623
2065.71	0.161468
2067.17	-0.0538626
2068.63	0.320638
2070.09	0.443165
2071.55	-0.20862
2073.01	-0.136739
2074.47	0.20424
2075.93	0.42695
2077.39	-0.31072
2078.85	0.230942
2080.31	0.216275
2081.76	0.537598
2083.22	0.756914
2084.68	0.301976
2086.13	0.216433
2087.59	0.651368
2089.05	0.950869
2090.51	0.561073
2091.96	0.322671
2093.42	0.873058
2094.87	0.466578
2096.33	0.613006
2097.78	0.205628
2099.24	0.500921
2100.69	0.728405
2102.15	0.504625
2103.6	0.850005
2105.06	0.52913
2106.51	0.0769539
2107.96	0.510444
2109.42	0.594037
2110.87	0.860277
2112.32	0.624653
2113.77	0.370335
2115.23	0.613416
2116.68	0.489087
2118.13	1.01315
2119.58	0.940622
2121.03	0.605355
2122.48	0.637827
2123.93	0.970739
2125.38	0.85682
2126.83	1.14052
2128.28	1.14099
2129.73	1.07328
2131.18	0.838202
2132.63	0.238105
2134.08	1.07786
2135.53	0.826454
2136.97	0.924289
2138.42	1.68559
2139.87	0.912489
2141.32	0.868742
2142.76	0.892715
2144.21	1.31463
2145.66	0.992359
2147.1	1.01713
2148.55	1.10732
2150	1.14671
2151.44	1.48301
2152.89	1.30433
2154.33	0.842857
2155.78	1.42453
2157.22	1.26072
2158.66	2.02548
2160.11	1.15208
2161.55	1.47377
2163	1.2677
2164.44	1.59433
2165.88	1.59059
2167.32	1.42063
2168.77	1.4153
2170.21	1.65706
2171.65	1.19737
2173.09	1.36712
2174.53	1.20227
2175.97	1.08654
2177.41	1.88557
2178.85	1.60475
2180.29	1.3918
2181.73	2.04464
2183.17	0.819323
2184.61	0.924587
2186.05	1.71206
2187.49	1.50152
2188.93	1.45738
2190.37	0.880537
2191.81	0.93578
2193.24	1.1899
2194.68	1.47558
2196.12	0.843232
2197.56	1.02397
2198.99	1.15233
2200.43	0.714165
2201.87	1.13973
2203.3	0.735961
2204.74	1.09686
2206.17	1.49191
2207.61	1.35724
2209.04	1.10655
2210.48	1.07024
2211.91	1.04917
2213.35	0.977512
2214.78	0.327624
2216.21	0.554201
2217.65	0.155029
2219.08	0.945146
2220.51	0.862103
2221.95	0.383776
2223.38	0.646281
2224.81	0.742109
2226.24	0.111547
2227.67	0.712934
2229.1	0.440985
2230.54	0.201385
2231.97	1.30576
2233.4	0.132723
2234.83	0.745502
2236.26	0.705129
2237.69	0.634249
2239.11	0.22327
2240.54	0.810205
2241.97	0.404404
2243.4	0.17969
2244.83	0.395859
2246.26	0.350264
2247.69	0.302691
2249.11	0.578443
2250.54	0.802096
2251.97	0.616094
2253.4	0.982167
2254.82	0.844229
2256.25	0.643459
2257.67	0.0241165
2259.1	0.17127
2260.53	-0.489144
2261.95	0.232749
2263.38	-0.114479
2264.8	0.220848
2266.23	0.1659
2267.65	0.467788
2269.07	0.915202
2270.5	-0.0707293
2271.92	-0.0645905
2273.34	0.267034
2274.77	0.826958
2276.19	0.0839024
2277.61	0.318577
2279.03	0.797998
2280.46	0.201358
2281.88	0.142513
2283.3	0.132453
2284.72	0.138745
2286.14	0.194276
2287.56	-0.157899
2288.98	0.486576
2290.4	-0.256823
2291.82	-0.313923
2293.24	0.46314
2294.66	0.390073
2296.08	0.398671
2297.5	0.374446
2298.92	0.268344
2300.34	0.113208
2301.76	0.450215
2303.17	0.295739
2304.59	0.0264101
2306.01	0.380784
2307.43	-0.185057
2308.84	0.957451
2310.26	0.0281363
2311.68	0.545173
2313.09	0.10813
2314.51	-0.213492
2315.92	0.387646
2317.34	0.232513
2318.75	-0.36727
2320.17	0.532912
2321.58	0.211537
2323	0.151635
2324.41	0.220788
2325.82	0.880949
2327.24	0.532365
2328.65	0.249012
2330.06	0.674445
2331.48	0.32679
2332.89	0.063139
2334.3	0.162739
2335.71	-0.395389
2337.12	0.72376
2338.54	0.131124
2339.95	-0.0352278
2341.36	-0.120502
2342.77	-0.0422211
2344.18	-0.144512
2345.59	-0.459412
2347	0.0126448
2348.41	-0.285189
2349.82	-0.157777
2351.23	0.181012
2352.64	0.0116873
2354.04	-0.3054
2355.45	0.730206
2356.86	-0.0442448
2358.27	0.175088
2359.68	-0.0283432
2361.08	0.418005
2362.49	0.231059
2363.9	0.562652
2365.3	0.100698
2366.71	-0.0206614
2368.12	-0.39937
2369.52	0.14337
2370.93	0.767517
2372.33	0.119915
2373.74	-0.123135
2375.14	0.326696
2376.55	-0.189673
2377.95	0.016777
2379.36	0.0121317
2380.76	0.294333
2382.16	0.606169
2383.57	0.259385
2384.97	-0.63078
2386.37	0.0554247
2387.78	0.741174
2389.18	0.0957365
2390.58	-0.0530682
2391.98	0.150084
2393.38	0.40202
2394.79	0.304897
2396.19	-0.0455904
2397.59	-0.490391
2398.99	0.193892
2400.39	0.25895
2401.79	0.10203
2403.19	0.151672
2404.59	-0.196109
2405.99	0.0743036
2407.39	0.390944
2408.78	-0.261188
2410.18	0.465964
2411.58	0.321238
2412.98	0.747792
2414.38	0.178296
2415.77	0.829866
2417.17	0.40667
2418.57	0.0162687
2419.97	0.164685
2421.36	0.281341
2422.76	-0.172742
2424.15	0.418417
2425.55	0.851312
2426.95	-0.22066
2428.34	0.261566
2429.74	0.253687
2431.13	-0.0547514
2432.52	0.0494633
2433.92	0.121381
2435.31	0.382587
2436.71	-0.00944519
2438.1	0.311504
2439.49	1.02781
2440.89	0.614974
2442.28	0.265164
2443.67	0.137383
2445.06	-0.117424
2446.46	0.119278
2447.85	0.197118
2449.24	-0.168677
2450.63	-0.153877
2452.02	-0.0118313
2453.41	0.131086
2454.8	0.0693636
2456.19	-0.339473
2457.58	-0.257482
2458.97	0.40954
2460.36	0.648692
2461.75	0.554659
2463.14	-0.599358
2464.53	0.442849
2465.92	-0.158648
2467.31	0.108453
2468.69	0.0596704
2470.08	0.136847
2471.47	0.292188
2472.86	0.225929
2474.24	0.111539
2475.63	0.468381
2477.02	0.588385
2478.4	-0.0614405
2479.79	0.215821
2481.17	-0.0089035
2482.56	-0.12368
2483.94	-0.395387
2485.33	0.114327
2486.72	-0.0345926
2488.1	0.00268459
2489.48	0.0233202
2490.87	0.650694
2492.25	-0.401764
2493.64	-0.254827
2495.02	-0.370278
2496.4	0.136019
2497.79	-0.240232
2499.17	0.204769
2500.55	0.277524
2501.93	0.287348
2503.31	0.24957
2504.69	0.071867
2506.08	-0.0908651
2507.46	0.285119
2508.84	-0.27742
2510.22	0.482536
2511.6	0.0450354
2512.98	0.0692034
2514.36	0.140368
2515.74	-0.0476723
2517.12	-0.769899
2518.5	0.0688124
2519.88	0.0816984
2521.25	0.323343
2522.63	-0.0619297
2524.01	-0.0511723
2525.39	0.00437641
2526.77	0.226977
2528.14	-0.204594
2529.52	0.21731
2530.9	0.38236
2532.27	0.534278
2533.65	-0.0717001
2535.03	0.189318
2536.4	-0.157393
2537.78	0.361013
2539.15	0.604649
2540.53	0.209365
2541.9	0.0718584
2543.28	-0.125937
2544.65	0.572383
2546.03	0.119325
2547.4	0.0622225
2548.77	0.157904
2550.15	0.557249
2551.52	-0.22762
2552.89	0.0334435
2554.27	-0.237948
2555.64	0.12683
2557.01	0.00533676
2558.38	0.111167
2559.75	0.232411
2561.12	0.11177
2562.5	0.0677452
2563.87	0.130548
2565.24	0.239363
2566.61	-0.348602
2567.98	0.306218
2569.35	-0.0088644
2570.72	-0.399779
2572.09	0.0126619
2573.46	0.789052
2574.83	0.15582
2576.19	0.401868
2577.56	0.359778
2578.93	0.196085
2580.3	0.183568
2581.67	0.231171
2583.04	0.369247
2584.4	-0.20554
2585.77	0.28079
2587.14	-0.0816164
2588.5	-0.0193768
2589.87	-0.0933905
2591.23	0.241607
2592.6	0.409285
2593.97	0.227448
2595.33	0.256409
2596.7	0.268866
2598.06	-0.143326
2599.43	-0.192689
2600.79	0.166084
2602.15	-0.365962
2603.52	0.024148
2604.88	0.339203
2606.25	0.337526
2607.61	0.561634
2608.97	0.226807
2610.33	-0.1092
2611.7	0.0502748
2613.06	-0.107794
2614.42	0.274234
2615.78	-0.00516605
2617.15	0.435823
2618.51	-0.216571
2619.87	-0.163538
2621.23	0.0697517
2622.59	0.318321
2623.95	0.298077
2625.31	0.17334
2626.67	-0.190147
2628.03	0.206438
2629.39	-0.0680237
2630.75	0.416454
2632.1	0.112092
2633.46	-0.132433
2634.82	0.306145
2636.18	0.284223
2637.54	0.0548506
2638.89	-0.174096
2640.25	-0.121403
2641.61	-0.34937
2642.97	0.221096
2644.32	-0.0357571
2645.68	0.268269
2647.03	-0.28368
2648.39	-0.128584
2649.75	0.599156
2651.1	0.13374
2652.46	-0.154924
2653.81	0.349497
2655.17	0.135644
2656.52	-0.0911064
2657.88	-0.198996
2659.23	0.103974
2660.58	0.173229
2661.94	0.227638
2663.29	-0.0254936
2664.64	0.49428
2666	0.108001
2667.35	-0.0888538
2668.7	0.413436
2670.05	0.158634
2671.4	0.00665283
2672.76	-0.260573
2674.11	0.388184
2675.46	0.0935307
2676.81	0.583335
2678.16	0.159891
2679.51	0.0567513
2680.86	0.288408
2682.21	-0.0438595
2683.56	-0.0701838
2684.91	0.296315
2686.26	0.329954
2687.61	0.334443
2688.96	0.134188
2690.3	0.0479021
2691.65	0.554399
2693	0.130008
2694.35	0.328254
2695.7	0.337598
2697.04	0.130402
2698.39	0.620075
2699.74	0.445695
2701.08	0.505301
2702.43	0.465519
2703.77	0.0793419
2705.12	0.0704403
2706.47	-0.0254192
2707.81	0.357167
2709.16	0.216957
2710.5	-0.0690756
2711.85	0.181828
2713.19	0.301927
2714.53	-0.522801
2715.88	0.745639
2717.22	-0.166966
2718.57	0.127081
2719.91	0.406255
2721.25	0.21924
2722.59	0.133432
2723.94	0.396339
2725.28	0.251132
2726.62	0.512976
2727.96	0.294089
2729.3	0.19134
2730.65	0.248477
2731.99	0.48013
2733.33	0.464537
2734.67	0.1728
2736.01	0.259526
2737.35	0.142806
2738.69	-0.148441
2740.03	0.0835686
2741.37	0.329475
2742.71	0.516321
2744.05	-0.00996399
2745.38	0.0153503
2746.72	0.35957
2748.06	0.383893
2749.4	0.379224
2750.74	0.0557346
2752.07	0.0807686
2753.41	0.164049
2754.75	0.421353
2756.09	0.0268993
2757.42	0.183105
2758.76	-0.109213
2760.09	0.178003
2761.43	-0.257815
2762.77	0.146306
2764.1	-0.230541
2765.44	0.347569
2766.77	0.346346
2768.11	0.0257368
2769.44	0.0651693
2770.77	-0.14296
2772.11	0.167346
2773.44	0.547979
2774.77	0.451447
2776.11	0.412614
2777.44	-0.43163
2778.77	0.308039
2780.11	-0.274795
2781.44	-0.138379
2782.77	0.227603
2784.1	-0.0380144
2785.43	-0.245989
2786.77	0.434553
2788.1	0.298965
2789.43	0.0357552
2790.76	-0.0544443
2792.09	-0.200782
2793.42	-0.389335
2794.75	0.236912
2796.08	-0.352066
2797.41	-0.0557766
2798.74	0.225317
2800.07	-0.193721
2801.4	0.35733
2802.72	0.323009
2804.05	0.145882
2805.38	0.495373
2806.71	0.288532
2808.04	0.28027
2809.36	0.143539
2810.69	0.03543
2812.02	0.04175
2813.34	0.049489
2814.67	-0.508048
2816	-0.0570841
2817.32	0.267626
2818.65	0.479717
2819.97	0.620986
2821.3	-0.117043
2822.62	0.0653486
2823.95	0.105198
2825.27	0.0454187
2826.6	-0.368311
2827.92	0.818662
2829.25	-0.145792
2830.57	0.872351
2831.89	0.60256
2833.22	0.658297
2834.54	0.515475
2835.86	0.839078
2837.18	0.77984
2838.51	1.15857
2839.83	1.02771
2841.15	1.17981
2842.47	1.8978
2843.79	1.90978
2845.11	1.95104
2846.43	2.19103
2847.76	2.30438
2849.08	2.21992
2850.4	2.77111
2851.72	3.34988
2853.04	3.2212
2854.36	2.92241
2855.67	2.93426
2856.99	3.12974
2858.31	3.74897
2859.63	3.18174
2860.95	3.43343
2862.27	3.27517
2863.58	3.21528
2864.9	4.11454
2866.22	3.72959
2867.54	4.55806
2868.85	3.87811
2870.17	4.58061
2871.49	4.57838
2872.8	4.22345
2874.12	4.67077
2875.43	4.86278
2876.75	4.58844
2878.07	4.72126
2879.38	5.31758
2880.7	5.02818
2882.01	5.20389
2883.32	5.17036
2884.64	5.26468
2885.95	5.24758
2887.27	5.35696
2888.58	6.02695
2889.89	5.88181
2891.21	5.97387
2892.52	5.6164
2893.83	5.77734
2895.14	5.99467
2896.46	5.93311
2897.77	6.40494
2899.08	6.31853
2900.39	7.07278
2901.7	6.62466
2903.01	6.61058
2904.32	6.33097
2905.63	7.10085
2906.94	7.06032
2908.25	6.96509
2909.56	7.109
2910.87	7.93961
2912.18	8.47668
2913.49	8.29879
2914.8	8.2447
2916.11	8.22992
2917.42	8.1707
2918.72	8.51569
2920.03	8.95807
2921.34	9.19147
2922.65	9.30092
2923.95	9.27283
2925.26	9.05092
2926.57	9.22144
2927.88	9.26629
2929.18	9.74398
2930.49	9.27017
2931.79	9.66238
2933.1	9.71866
2934.4	9.98455
2935.71	8.85303
2937.01	9.53867
2938.32	9.30226
2939.62	9.20606
2940.93	9.39015
2942.23	7.98253
2943.54	8.32346
2944.84	7.36645
2946.14	7.55739
2947.45	7.13384
2948.75	7.25555
2950.05	7.06774
2951.35	6.44325
2952.66	7.03425
2953.96	6.90905
2955.26	6.05541
2956.56	6.3649
2957.86	5.9914
2959.16	5.57957
2960.46	5.08723
2961.77	5.24197
2963.07	5.32799
2964.37	4.90808
2965.66	4.30314
2966.96	4.46843
2968.26	4.50556
2969.56	4.41514
2970.86	4.31047
2972.16	4.74077
2973.46	4.24305
2974.76	3.70288
2976.06	3.87976
2977.35	4.23812
2978.65	3.73531
2979.95	3.66673
2981.25	4.10297
2982.54	3.18782
2983.84	3.45485
2985.14	3.25937
2986.43	3.23468
2987.73	2.83265
2989.02	2.60066
2990.32	3.128
2991.62	2.30558
2992.91	2.67645
2994.21	2.37111
2995.5	2.4156
2996.8	2.2204
2998.09	1.61814
2999.38	1.90047
3000.68	1.67853
3001.97	1.5557
3003.26	1.41955
3004.56	1.73197
3005.85	1.60979
3007.14	1.58492
3008.43	0.999381
3009.73	1.14049
3011.02	0.861305
3012.31	0.763522
3013.6	0.903085
3014.89	0.290236
3016.19	0.751858
3017.48	0.517804
3018.77	0.938754
3020.06	0.566727
3021.35	0.125156
3022.64	0.294331
3023.93	0.267799
3025.22	0.0879049
3026.5	-0.0918751
3027.79	0.476525
3029.08	0.049922
3030.37	0.0818233
3031.66	0.267519
3032.95	0.0127373
3034.24	0.214062
3035.52	-0.247462
3036.81	-0.0619812
3038.1	-0.526306
3039.39	0.150356
3040.67	0.0676107
3041.96	0.0800743
3043.25	0.298076
3044.53	0.160711
3045.82	0.0668144
3047.1	0.153475
3048.39	0.17476
3049.67	0.198794
3050.96	-0.11621
3052.24	-0.37545
3053.53	-0.0750732
3054.81	-0.402948
3056.1	0.618381
3057.38	0.110846
3058.67	-0.0292063
3059.95	0.0893421
3061.23	0.194662
3062.52	0.151542
3063.8	-0.0121355
3065.08	-0.0106316
3066.36	0.11505
3067.65	-0.0977917
3068.93	0.22026
3070.21	-0.15542
3071.49	0.188818
3072.77	0.191661
3074.05	0.329023
3075.33	0.16625
3076.61	0.261337
3077.89	-0.0910101
3079.17	0.345291
3080.45	-0.0984201
3081.73	-0.322964
3083.01	-0.0304155
3084.29	0.208938
3085.57	-0.0535383
3086.85	0.117848
3088.13	-0.159394
3089.41	0.499143
3090.68	0.478551
3091.96	0.0644588
3093.24	0.220526
3094.52	0.607564
3095.79	-0.103301
3097.07	0.0539398
3098.35	0.346719
3099.62	0.354788
3100.9	0.159683
3102.18	0.27637
3103.45	-0.297008
3104.73	0.13227
3106	0.494735
3107.28	-0.10241
3108.55	0.438616
3109.83	-0.304682
3111.1	0.645445
3112.38	0.310546
3113.65	0.301279
3114.93	0.454825
3116.2	0.580951
3117.47	0.177279
3118.75	0.260647
3120.02	0.817518
3121.29	1.07485
3122.57	0.0845737
3123.84	0.707039
3125.11	0.219057
3126.38	0.733696
3127.65	0.77531
3128.92	0.452548
3130.2	0.955391
3131.47	0.931058
3132.74	0.771666
3134.01	0.747194
3135.28	0.654805
3136.55	1.27703
3137.82	0.805954
3139.09	0.941523
3140.36	1.33257
3141.63	0.943202
3142.9	1.54939
3144.17	1.13504
3145.43	1.94306
3146.7	1.34343
3147.97	0.745649
3149.24	1.36791
