200.554	0.870045
202.369	0.909897
204.183	0.949749
205.999	0.505041
207.813	-0.522369
209.626	1.34168
211.439	1.04001
213.253	0.590412
215.065	0.0906391
216.877	1.28695
218.688	1.14961
220.5	0.0214329
222.312	-0.0392857
224.123	0.336861
225.933	-0.0112953
227.742	-0.359135
229.552	-0.297035
231.361	0.0776138
233.171	0.0653591
234.98	0.0296516
236.787	0.430334
238.595	0.352945
240.402	0.85898
242.209	0.381073
244.015	1.06323
245.822	0.249296
247.627	0.0109081
249.435	-0.232908
251.24	0.65184
253.045	0.154955
254.849	-0.36902
256.653	0.143475
258.457	-0.11405
260.26	0.282284
262.063	0.320866
263.866	0.748106
265.668	0.117277
267.47	-0.0553436
269.271	-0.638567
271.073	-0.259274
272.873	-0.243889
274.674	1.07059
276.474	-0.0291653
278.274	-0.0476761
280.073	-0.022007
281.872	-0.529915
283.671	-0.078783
285.47	0.272608
287.268	0.717747
289.065	0.178993
290.863	-0.261446
292.66	0.952837
294.456	1.42705
296.253	0.038969
298.049	-0.485559
299.844	-0.244339
301.637	0.999353
303.432	0.115505
305.227	-0.268957
307.021	-0.177843
308.815	-0.01577
310.609	-0.257811
312.402	0.383856
314.195	1.05225
315.987	-0.228262
317.777	-0.600615
319.569	0.482983
321.36	0.35413
323.151	0.107395
324.942	0.934986
326.733	-0.122583
328.521	0.108141
330.31	0.79203
332.1	0.230402
333.889	0.956867
335.677	0.315239
337.464	0.195356
339.252	-0.167858
341.039	0.566133
342.826	0.772026
344.611	0.117489
346.398	0.801977
348.184	0.0070076
349.97	0.669571
351.754	0.47258
353.539	0.513102
355.324	-0.283464
357.106	0.420038
358.89	0.786516
360.674	-0.0643024
362.455	0.773682
364.239	-0.245754
366.021	0.611753
367.804	0.255661
369.584	1.15509
371.366	0.558695
373.145	0.435297
374.926	0.784014
376.707	-0.14254
378.485	0.419405
380.265	-0.666883
382.045	-0.195633
383.822	0.206823
385.601	-0.35247
387.378	0.10148
389.156	0.933155
390.934	1.22626
392.71	-0.240376
394.487	0.384388
396.262	-0.140902
398.038	0.179426
399.813	0.687283
401.588	1.14729
403.362	0.783863
405.137	0.606827
406.912	1.20321
408.685	0.0607758
410.459	0.842911
412.23	-0.04142
414.004	1.11683
415.775	0.586962
417.548	0.504576
419.318	-0.210182
421.089	0.741745
422.86	0.238012
424.63	0.272657
426.401	0.375889
428.17	0.641735
429.94	-0.501762
431.708	0.655006
433.478	-0.769335
435.245	0.036602
437.012	0.842466
438.781	0.520311
440.547	0.992989
442.315	0.171122
444.081	0.822536
445.846	-0.0767136
447.613	0.544373
449.378	0.836109
451.142	-0.3209
452.908	0.76557
454.672	0.80114
456.435	-0.0956306
458.2	0.266216
459.963	0.837097
461.725	0.478502
463.489	0.751083
465.251	0.935509
467.012	0.149897
468.775	0.159643
470.536	0.987015
472.296	1.0253
474.056	0.759331
475.817	0.140112
477.576	0.331579
479.335	0.216579
481.094	1.03137
482.854	0.681911
484.612	1.5228
486.37	0.201454
488.127	0.748083
489.886	0.576498
491.642	0.640232
493.398	0.378281
495.154	0.864672
496.91	0.930422
498.667	0.995714
500.422	1.29468
502.176	1.38155
503.93	0.738501
505.684	0.679804
507.438	0.994469
509.191	0.835718
510.946	1.40299
512.698	0.649323
514.45	1.02202
516.202	0.897758
517.954	1.19438
519.705	0.877525
521.456	0.230484
523.206	0.874708
524.956	0.696381
526.706	0.236715
528.456	1.16089
530.207	0.982471
531.956	0.686285
533.704	1.39522
535.452	1.79662
537.2	1.61013
538.947	1.28092
540.694	0.996561
542.441	0.874254
544.188	1.14694
545.934	1.55834
547.68	1.15693
549.425	0.756977
551.17	0.752024
552.915	0.955633
554.659	2.03722
556.403	0.324356
558.145	0.875505
559.889	0.136543
561.632	0.481897
563.375	0.597895
565.117	1.15166
566.859	0.741364
568.601	0.287354
570.342	0.340839
572.083	0.970695
573.824	0.915684
575.565	1.57563
577.303	1.34453
579.043	1.59822
580.782	0.912109
582.521	0.432322
584.26	1.0315
585.998	1.19203
587.734	0.0157433
589.472	-0.151058
591.21	0.830687
592.947	-0.0522041
594.684	0.560131
596.418	0.413353
598.154	0.864693
599.89	0.0499268
601.626	-0.19133
603.361	-1.05597
605.094	-0.313637
606.828	0.402481
608.562	0.358416
610.296	-0.420191
612.027	0.546341
613.761	0.13797
615.493	0.533466
617.224	1.24977
618.956	1.00254
620.688	0.249664
622.419	0.501619
624.149	0.545815
625.879	0.841286
627.61	1.11591
629.338	0.185093
631.068	0.172283
632.797	1.21336
634.525	0.636423
636.254	1.01728
637.98	0.367256
639.708	0.305174
641.436	-0.0366058
643.162	1.3036
644.889	1.34116
646.614	0.173956
648.34	0.626425
650.067	0.289795
651.791	0.733791
653.516	0.0722866
655.239	0.781666
656.964	-0.0286579
658.687	1.53193
660.411	0.99547
662.133	0.865696
663.857	0.273813
665.58	0.156525
667.301	-0.330526
669.024	0.301571
670.744	0.752625
672.464	0.613003
674.186	0.432472
675.905	-0.271229
677.626	0.0816669
679.345	-0.32247
681.065	0.856964
682.783	0.378105
684.503	0.170567
686.22	0.258228
687.939	0.135508
689.656	0.264015
691.372	-0.115679
693.09	-0.381445
694.806	0.249607
696.523	0.0034256
698.239	0.146372
699.953	0.263706
701.67	0.309603
703.384	0.146749
705.098	0.832466
706.813	-0.43454
708.526	0.638557
710.239	1.13636
711.954	1.54098
713.666	0.617723
715.378	0.152765
717.091	0.419111
718.802	-0.20437
720.513	0.951237
722.226	0.48844
723.936	-0.883482
725.646	0.269953
727.355	-0.169025
729.067	0.118059
730.776	0.970488
732.484	0.733479
734.192	0.360828
735.902	0.124649
737.61	1.60574
739.317	0.107782
741.024	0.0569229
742.731	0.751858
744.439	-0.0371609
746.145	0.437551
747.851	0.239813
749.556	0.494665
751.262	0.234745
752.966	0.584711
754.673	0.532583
756.377	0.753475
758.081	0.842554
759.784	0.506569
761.487	0.510538
763.19	1.07963
764.892	0.813501
766.594	1.20001
768.296	1.35718
770	1.08047
771.701	0.935349
773.402	1.4885
775.102	0.322329
776.803	0.898396
778.503	1.07008
780.202	1.5841
781.901	1.24091
783.6	1.75772
785.299	1.88762
786.997	1.67315
788.695	1.06765
790.393	1.76807
792.09	1.44514
793.787	1.05194
795.484	1.44853
797.18	0.877226
798.877	0.242558
800.572	1.21017
802.268	1.88712
803.963	1.71026
805.658	2.47734
807.35	1.3996
809.044	2.09464
810.738	1.59708
812.432	1.74868
814.125	1.76451
815.818	1.77984
817.51	1.63852
819.202	1.63169
820.894	0.888369
822.584	0.905655
824.275	2.35142
825.966	0.946171
827.657	1.12796
829.347	1.87185
831.037	1.41919
832.725	1.61807
834.414	2.11111
836.103	1.51374
837.792	1.11605
839.481	1.51949
841.167	1.29467
842.854	0.910755
844.542	0.861025
846.229	1.48327
847.914	1.95303
849.6	2.13745
851.287	2.48404
852.973	3.10424
854.656	2.89736
856.341	2.48745
858.026	2.569
859.711	2.62466
861.393	3.05936
863.077	2.90535
864.761	2.63579
866.442	2.22886
868.125	1.70766
869.808	1.79427
871.489	1.7675
873.171	1.62753
874.85	1.53251
876.532	1.32467
878.213	0.93626
879.892	1.63105
881.572	1.1739
883.251	0.602364
884.931	1.87973
886.61	0.513254
888.287	0.791431
889.966	0.840727
891.643	1.78848
893.321	0.885622
894.997	0.701885
896.675	0.943428
898.352	1.54177
900.028	0.723856
901.704	-0.0265598
903.379	0.678223
905.055	0.889229
906.729	1.27882
908.404	0.353519
910.077	0.389629
911.75	1.02805
913.425	1.06653
915.097	0.994659
916.771	0.612444
918.443	0.474634
920.116	0.757975
921.787	1.15261
923.46	2.16784
925.13	1.4622
926.8	1.44561
928.472	2.07258
930.141	1.37781
931.813	0.353727
933.481	1.80121
935.15	1.2856
936.82	1.9179
938.488	0.500929
940.156	1.22579
941.825	-0.318905
943.492	0.608507
945.158	0.277931
946.827	0.695461
948.493	0.734079
950.158	-0.312477
951.824	-0.478264
953.491	0.944214
955.156	0.627314
956.82	0.0734978
958.486	0.165556
960.15	0.351442
961.814	1.15904
963.477	-0.154699
965.142	0.826773
966.804	0.476122
968.467	0.650795
970.129	0.84343
971.79	0.0390301
973.454	0.629168
975.115	0.00593948
976.776	0.0718689
978.436	0.22924
980.096	0.376888
981.756	0.523758
983.417	0.833948
985.077	0.741705
986.736	1.48628
988.394	0.832905
990.052	1.30532
991.71	1.11295
993.368	1.93647
995.025	1.08167
996.682	1.90473
998.341	1.55821
999.998	1.65232
1001.65	2.31801
1003.31	1.77157
1004.97	1.64303
1006.62	0.45969
1008.28	-0.0409584
1009.93	0.973846
1011.58	-0.0730991
1013.24	-0.000116348
1014.89	0.139278
1016.54	0.410698
1018.2	-0.0610142
1019.85	0.715954
1021.5	0.292027
1023.16	0.548168
1024.81	0.740599
1026.46	0.803032
1028.11	1.41168
1029.76	1.31971
1031.41	1.33438
1033.06	0.778091
1034.71	1.22257
1036.36	1.293
1038.01	2.36371
1039.66	2.60549
1041.31	2.56569
1042.95	3.09406
1044.6	4.71216
1046.25	3.31467
1047.9	5.28827
1049.54	4.46409
1051.19	3.5776
1052.84	3.53993
1054.48	2.85116
1056.13	2.79236
1057.77	1.68938
1059.42	1.95475
1061.06	1.80563
1062.71	0.958981
1064.35	0.762749
1066	0.629618
1067.64	0.711653
1069.28	1.6172
1070.93	0.978857
1072.57	1.5347
1074.21	0.876112
1075.85	1.76021
1077.49	0.499794
1079.13	1.12882
1080.78	1.21723
1082.42	0.633322
1084.06	1.80383
1085.7	1.30131
1087.34	1.05482
1088.97	1.58377
1090.61	1.04812
1092.25	0.705492
1093.89	1.09676
1095.53	0.754202
1097.17	1.2547
1098.8	1.0896
1100.44	0.497906
1102.08	0.448679
1103.71	0.317055
1105.35	0.338675
1106.99	-0.133284
1108.62	0.619965
1110.26	0.704153
1111.89	0.376667
1113.52	1.57131
1115.16	0.572315
1116.79	1.09657
1118.43	-0.4161
1120.06	0.538294
1121.69	0.722824
1123.32	0.331535
1124.96	0.905319
1126.59	1.20251
1128.22	0.581696
1129.85	0.240517
1131.48	1.52539
1133.11	-0.182192
1134.75	0.824898
1136.37	-0.135868
1138	0.418678
1139.63	-0.1616
1141.26	1.02858
1142.89	0.253485
1144.52	0.503225
1146.15	0.0720234
1147.78	-0.143778
1149.4	-0.400326
1151.03	-0.357622
1152.66	0.00445557
1154.28	0.47208
1155.91	-0.763964
1157.54	0.53233
1159.16	0.254719
1160.79	0.468113
1162.41	0.279772
1164.04	0.0509682
1165.66	0.163338
1167.29	0.317625
1168.91	-0.423243
1170.53	0.150517
1172.16	0.188814
1173.78	-0.158663
1175.4	-0.31716
1177.02	0.456314
1178.65	0.0852623
1180.27	-0.199118
1181.89	0.00520515
1183.51	0.844826
1185.13	-0.302639
1186.75	0.19631
1188.37	0.22702
1189.99	0.148275
1191.61	0.360558
1193.23	0.316994
1194.85	-0.630798
1196.47	0.310982
1198.08	-0.297091
1199.7	0.5219
1201.32	-0.0557289
1202.94	0.145447
1204.55	0.602076
1206.17	0.0195255
1207.79	-0.247313
1209.4	-0.117287
1211.02	0.866072
1212.63	-0.406315
1214.25	0.714285
1215.86	1.24581
1217.48	0.857437
1219.09	0.675591
1220.71	0.514711
1222.32	0.293413
1223.93	0.53091
1225.54	0.377745
1227.16	0.786535
1228.77	1.30118
1230.38	0.701584
1231.99	1.88246
1233.6	1.26741
1235.22	1.31639
1236.83	0.995848
1238.44	1.31816
1240.05	0.00835419
1241.66	1.84219
1243.26	1.29694
1244.87	0.729174
1246.48	1.7319
1248.09	0.952984
1249.7	0.917511
1251.31	0.881464
1252.92	1.73536
1254.52	1.14281
1256.13	0.924829
1257.74	1.74368
1259.34	1.84105
1260.95	1.34001
1262.55	1.58503
1264.16	1.33306
1265.76	1.82605
1267.37	1.75812
1268.97	1.0662
1270.58	1.86484
1272.18	1.66609
1273.78	2.33592
1275.39	1.94633
1276.99	1.65858
1278.59	1.57645
1280.2	1.67947
1281.8	2.00947
1283.4	2.02913
1285	2.29811
1286.6	2.48614
1288.2	1.97359
1289.8	2.49638
1291.4	2.13156
1293	2.92359
1294.6	3.63109
1296.2	2.74514
1297.8	2.74399
1299.4	2.30601
1301	2.58694
1302.6	3.02957
1304.19	3.16067
1305.79	3.49551
1307.39	2.26779
1308.99	2.76526
1310.58	2.85184
1312.18	3.10287
1313.77	3.23236
1315.37	3.13906
1316.96	1.94548
1318.56	3.12139
1320.15	3.17398
1321.75	2.63373
1323.34	2.7423
1324.94	3.11109
1326.53	2.98883
1328.12	2.25762
1329.72	3.53391
1331.31	2.93001
1332.9	3.1808
1334.49	1.90162
1336.08	1.67665
1337.67	1.75546
1339.27	2.27614
1340.86	1.7251
1342.45	1.63338
1344.04	2.46239
1345.63	2.12291
1347.22	2.24589
1348.8	2.39225
1350.39	2.16331
1351.98	2.76005
1353.57	1.86111
1355.16	2.10467
1356.75	2.60856
1358.33	2.3521
1359.92	2.73278
1361.51	2.85135
1363.09	2.30978
1364.68	2.22664
1366.27	1.82539
1367.85	2.78038
1369.44	2.64236
1371.02	3.60201
1372.61	2.13678
1374.19	1.90775
1375.77	2.45611
1377.36	2.40767
1378.94	2.07951
1380.52	2.16705
1382.11	2.86844
1383.69	2.87063
1385.27	2.43342
1386.85	2.05528
1388.43	2.75014
1390.02	3.12828
1391.6	2.45645
1393.18	2.22308
1394.76	2.3079
1396.34	2.49138
1397.92	2.71284
1399.5	3.05084
1401.08	3.24784
1402.65	2.84956
1404.23	3.42106
1405.81	3.14291
1407.39	3.34124
1408.97	3.50178
1410.54	3.56454
1412.12	3.78506
1413.7	3.80667
1415.27	3.47105
1416.85	3.86352
1418.43	3.89999
1420	3.74026
1421.58	3.14994
1423.15	4.19732
1424.73	4.67723
1426.3	3.90028
1427.87	3.61651
1429.45	4.43429
1431.02	5.50574
1432.6	4.11444
1434.17	4.82658
1435.74	5.28165
1437.31	5.10784
1438.89	5.80073
1440.46	5.33622
1442.03	5.75837
1443.6	5.63188
1445.17	5.4473
1446.74	6.04934
1448.31	4.90233
1449.88	5.64309
1451.45	5.63797
1453.02	5.71276
1454.59	5.82774
1456.16	5.11623
1457.72	5.48524
1459.29	5.61512
1460.86	5.32763
1462.43	4.60307
1463.99	4.40627
1465.56	3.61762
1467.13	3.90946
1468.69	3.45579
1470.26	3.98571
1471.83	2.51678
1473.39	2.61992
1474.95	2.11672
1476.52	2.84974
1478.08	2.44572
1479.65	1.94365
1481.21	2.20584
1482.78	1.95828
1484.34	2.31787
1485.9	1.48156
1487.47	1.36863
1489.03	1.37049
1490.59	1.38811
1492.15	1.87043
1493.71	1.66378
1495.27	2.27324
1496.84	1.04758
1498.39	1.14777
1499.96	2.06507
1501.52	1.39071
1503.07	1.14685
1504.64	0.343336
1506.19	1.30319
1507.75	0.906258
1509.31	1.12617
1510.87	0.899452
1512.43	1.19185
1513.98	0.578243
1515.54	1.35046
1517.1	0.893414
1518.65	1.09094
1520.21	1.00193
1521.77	1.27701
1523.32	1.81832
1524.88	1.72674
1526.44	0.603699
1527.99	0.45282
1529.54	1.57511
1531.1	1.36525
1532.65	1.32769
1534.21	0.667196
1535.76	1.22083
1537.31	0.962734
1538.87	0.989651
1540.42	1.07381
1541.97	1.384
1543.52	1.20408
1545.07	0.648096
1546.63	1.10695
1548.18	1.32064
1549.73	1.08401
1551.28	2.04652
1552.83	1.62406
1554.38	1.85845
1555.93	2.37551
1557.48	1.38379
1559.03	1.64705
1560.57	1.31708
1562.12	1.96039
1563.67	2.30749
1565.22	1.72286
1566.77	2.23925
1568.31	2.06471
1569.86	1.94529
1571.41	2.23573
1572.95	1.31221
1574.5	1.35909
1576.05	1.87273
1577.59	1.41604
1579.14	2.69643
1580.68	3.08213
1582.23	1.91949
1583.77	2.2712
1585.31	2.26956
1586.86	2.69893
1588.4	3.24111
1589.95	3.05346
1591.49	3.25779
1593.03	2.48753
1594.57	2.59656
1596.11	2.76196
1597.66	3.37818
1599.2	3.05876
1600.74	3.49091
1602.28	3.60536
1603.82	3.04377
1605.36	2.8183
1606.9	3.20991
1608.44	2.75166
1609.98	2.19459
1611.52	2.9482
1613.06	3.13372
1614.6	3.65414
1616.13	2.99147
1617.67	3.26786
1619.21	2.68472
1620.75	2.49846
1622.28	2.63341
1623.82	2.88227
1625.36	3.3182
1626.89	2.38611
1628.43	3.28522
1629.96	2.57249
1631.5	3.16656
1633.04	2.56379
1634.57	2.78373
1636.11	3.21036
1637.64	2.68743
1639.17	3.28472
1640.71	2.81931
1642.24	2.74409
1643.77	2.94591
1645.31	2.79142
1646.84	3.36044
1648.37	3.94658
1649.9	3.23308
1651.43	3.20918
1652.96	3.35485
1654.5	2.68698
1656.03	3.67036
1657.56	3.50412
1659.09	3.02142
1660.62	3.23983
1662.15	2.34499
1663.67	3.00182
1665.2	2.12353
1666.73	2.85295
1668.26	3.2701
1669.79	1.99417
1671.32	1.77258
1672.84	1.77431
1674.37	1.86897
1675.9	2.25758
1677.43	2.11056
1678.95	1.7223
1680.48	2.4722
1682	1.56605
1683.53	1.5234
1685.05	2.27
1686.58	2.04445
1688.1	1.25192
1689.63	2.23786
1691.15	1.33745
1692.68	1.35306
1694.2	1.64285
1695.72	1.56635
1697.25	1.43458
1698.77	1.39355
1700.29	0.566956
1701.81	1.07168
1703.33	1.24652
1704.86	1.07398
1706.38	1.66496
1707.9	0.672823
1709.42	1.46217
1710.94	0.580805
1712.46	2.14902
1713.98	0.0916462
1715.5	0.626287
1717.02	0.544947
1718.54	0.987532
1720.06	0.490274
1721.57	0.769987
1723.09	1.15856
1724.61	0.918032
1726.13	0.572393
1727.64	0.283661
1729.16	0.176918
1730.68	0.411577
1732.19	0.888571
1733.71	0.727421
1735.23	0.913082
1736.74	-0.24287
1738.26	0.831343
1739.77	1.627
1741.29	0.210691
1742.8	1.22285
1744.31	0.0881672
1745.83	0.478685
1747.34	0.572863
1748.85	0.0441799
1750.37	0.429464
1751.88	0.959585
1753.39	0.167952
1754.91	-0.00489807
1756.42	0.360498
1757.93	0.133337
1759.44	0.522312
1760.95	0.279871
1762.46	0.195564
1763.97	0.427219
1765.48	0.117489
1766.99	0.464672
1768.5	0.495813
1770.01	0.0857582
1771.52	0.0802269
1773.03	0.0428944
1774.54	-0.0660906
1776.04	0.230717
1777.55	-0.288722
1779.06	0.116713
1780.57	0.721336
1782.07	0.568028
1783.58	0.5432
1785.09	0.233289
1786.59	-0.00379181
1788.1	-0.230067
1789.6	-0.242905
1791.11	0.319011
1792.61	0.164063
1794.12	-0.0312252
1795.62	-0.139245
1797.13	0.165522
1798.63	0.00542641
1800.13	0.457774
1801.64	-0.00286865
1803.14	0.0718956
1804.64	0.742512
1806.15	-0.38747
1807.65	0.152294
1809.15	-0.100873
1810.65	-0.179938
1812.15	-0.0236368
1813.65	0.413671
1815.16	0.236325
1816.66	0.262418
1818.15	0.21483
1819.66	0.0773811
1821.16	-0.00534058
1822.65	-0.221387
1824.15	-0.334151
1825.65	-0.145575
1827.15	0.0932808
1828.65	0.0257998
1830.15	0.300119
1831.64	-0.122836
1833.14	0.00371552
1834.64	-0.11036
1836.14	0.0569077
1837.63	-0.419191
1839.13	0.449373
1840.62	-0.197602
1842.12	-0.128493
1843.62	0.265775
1845.11	-0.424882
1846.61	0.192831
1848.1	0.85127
1849.6	0.300652
1851.09	0.354787
1852.58	0.325005
1854.08	-0.0456991
1855.57	0.419276
1857.06	0.423347
1858.55	0.387224
1860.05	0.227448
1861.54	0.129746
1863.03	0.235312
1864.52	-0.191768
1866.01	0.25181
1867.5	0.604747
1869	0.535253
1870.49	0.803411
1871.98	0.299349
1873.47	0.766911
1874.96	0.476135
1876.44	0.0704699
1877.93	0.297839
1879.42	-0.167091
1880.91	0.189999
1882.4	-0.218595
1882.47	-0.240518
1883.96	0.527141
1885.46	0.0731459
1886.95	0.837373
1888.44	0.450989
1889.94	0.0130787
1891.43	0.411867
1892.93	0.482602
1894.42	-0.156539
1895.91	-0.202099
1897.4	0.153674
1898.89	0.613855
1900.39	0.359269
1901.88	0.136866
1903.37	0.189971
1904.86	-0.0722132
1906.35	0.533285
1907.84	0.269779
1909.33	-0.287611
1910.82	0.250014
1912.31	-0.0612373
1913.8	0.0968332
1915.29	0.549804
1916.77	-0.0381489
1918.26	-0.158696
1919.75	0.0319872
1921.24	0.586105
1922.73	0.257392
1924.21	0.0167713
1925.7	-0.256639
1927.19	0.233351
1928.67	-0.0892944
1930.16	-0.152287
1931.64	0.389603
1933.13	0.115335
1934.61	-0.178916
1936.1	0.510626
1937.58	0.350183
1939.07	0.05093
1940.55	-0.0575771
1942.04	0.318566
1943.52	-0.114751
1945	0.160651
1946.49	0.350305
1947.97	0.0914259
1949.45	0.27948
1950.93	-0.016326
1952.42	-0.313268
1953.9	-0.0948639
1955.38	0.707326
1956.86	0.530208
1958.34	0.491698
1959.82	0.0941706
1961.3	0.109414
1962.78	-0.18355
1964.26	-0.0996103
1965.74	-0.050766
1967.22	-0.0886211
1968.7	-0.298512
1970.18	0.448162
1971.65	0.219747
1973.13	-0.383965
1974.61	-0.0315228
1976.09	0.712708
1977.57	0.638629
1979.04	-0.167122
1980.52	0.542069
1982	0.2981
1983.47	0.903331
1984.95	0.0982885
1986.42	0.00641918
1987.9	0.795894
1989.37	0.670196
1990.85	0.579589
1992.32	0.676638
1993.8	0.18352
1995.27	0.520183
1996.75	-0.105618
1998.22	0.366705
1999.69	0.53415
2001.17	0.616108
2002.64	-0.281094
2004.11	0.120441
2005.58	0.42097
2007.05	-0.456662
2008.53	-0.0188637
2010	0.908294
2011.47	0.169538
2012.94	0.55877
2014.41	1.09869
2015.88	0.358479
2017.35	0.542274
2018.82	0.16983
2020.29	0.0992975
2021.76	0.834681
2023.23	0.109488
2024.7	0.795546
2026.16	0.61079
2027.63	0.411629
2029.1	0.550301
2030.57	0.624052
2032.03	0.548378
2033.5	0.674911
2034.97	0.24735
2036.44	0.776443
2037.9	0.145566
2039.37	0.370904
2040.83	0.00785542
2042.3	0.569984
2043.76	0.544905
2045.23	0.487594
2046.69	0.330408
2048.16	0.123028
2049.62	0.673374
2051.08	0.362749
2052.55	0.673508
2054.01	0.374297
2055.47	0.106083
2056.94	0.779859
2058.4	0.508182
2059.86	0.0848207
2061.32	0.773673
2062.79	0.184071
2064.25	-0.0166311
2065.71	0.524719
2067.17	0.865444
2068.63	0.53395
2070.09	0.135567
2071.55	1.30287
2073.01	0.904357
2074.47	0.0169964
2075.93	0.391996
2077.39	0.816963
2078.85	0.83713
2080.31	0.587144
2081.76	0.572033
2083.22	0.555879
2084.68	1.19484
2086.13	1.29386
2087.59	0.534242
2089.05	0.379665
2090.51	0.510464
2091.96	1.02715
2093.42	1.22433
2094.87	0.783607
2096.33	0.996268
2097.78	1.5928
2099.24	1.78573
2100.69	0.924225
2102.15	0.966725
2103.6	0.910264
2105.06	1.08959
2106.51	1.30437
2107.96	1.15385
2109.42	1.13742
2110.87	1.38689
2112.32	1.26745
2113.77	1.51172
2115.23	1.66974
2116.68	1.39368
2118.13	0.969065
2119.58	1.4767
2121.03	1.738
2122.48	1.07359
2123.93	1.29072
2125.38	1.40942
2126.83	1.41167
2128.28	1.18026
2129.73	1.54332
2131.18	1.3408
2132.63	1.35235
2134.08	2.09167
2135.53	1.75671
2136.97	1.49054
2138.42	2.08683
2139.87	2.14085
2141.32	2.01583
2142.76	1.52895
2144.21	2.36622
2145.66	1.91355
2147.1	1.90707
2148.55	1.8333
2150	2.12254
2151.44	1.88003
2152.89	2.67972
2154.33	2.0365
2155.78	2.80076
2157.22	2.17348
2158.66	2.34253
2160.11	2.79538
2161.55	2.48912
2163	2.20231
2164.44	2.21632
2165.88	2.44764
2167.32	2.39676
2168.77	2.17789
2170.21	2.98704
2171.65	2.71179
2173.09	2.23352
2174.53	2.78425
2175.97	2.40245
2177.41	2.17072
2178.85	1.85714
2180.29	2.32655
2181.73	2.46493
2183.17	2.58771
2184.61	2.27857
2186.05	2.71806
2187.49	2.77505
2188.93	1.8336
2190.37	1.90712
2191.81	2.37981
2193.24	2.66828
2194.68	3.03779
2196.12	2.02251
2197.56	2.33569
2198.99	1.31542
2200.43	1.67393
2201.87	1.81576
2203.3	1.3777
2204.74	1.14088
2206.17	1.99979
2207.61	1.50037
2209.04	1.96158
2210.48	1.65976
2211.91	1.96868
2213.35	1.43291
2214.78	1.11239
2216.21	1.65154
2217.65	1.49894
2219.08	1.54637
2220.51	1.84247
2221.95	1.54532
2223.38	1.39556
2224.81	1.32609
2226.24	0.645145
2227.67	1.45883
2229.1	1.33269
2230.54	1.22194
2231.97	0.914405
2233.4	1.50824
2234.83	1.51334
2236.26	0.801451
2237.69	0.615566
2239.11	1.10178
2240.54	0.204243
2241.97	1.49531
2243.4	1.09205
2244.83	1.3092
2246.26	1.15022
2247.69	1.02143
2249.11	0.269886
2250.54	1.21008
2251.97	1.13683
2253.4	0.818364
2254.82	0.890806
2256.25	1.1926
2257.67	0.524118
2259.1	1.23942
2260.53	1.42391
2261.95	0.752207
2263.38	0.537138
2264.8	0.598611
2266.23	0.448262
2267.65	0.589384
2269.07	0.371187
2270.5	0.623694
2271.92	0.777834
2273.34	0.394301
2274.77	0.727468
2276.19	0.735211
2277.61	0.172809
2279.03	0.441628
2280.46	0.18869
2281.88	0.848844
2283.3	0.954464
2284.72	0.048439
2286.14	0.57867
2287.56	0.423986
2288.98	0.49853
2290.4	0.230621
2291.82	0.436968
2293.24	-0.174028
2294.66	0.457874
2296.08	1.05746
2297.5	0.609437
2298.92	0.0791893
2300.34	0.237102
2301.76	0.395593
2303.17	0.0624781
2304.59	0.500738
2306.01	0.380969
2307.43	0.129122
2308.84	0.632377
2310.26	0.526693
2311.68	0.157125
2313.09	0.675748
2314.51	-0.0556202
2315.92	0.497889
2317.34	0.295258
2318.75	0.19201
2320.17	-0.093091
2321.58	0.642982
2323	0.551466
2324.41	-0.0717249
2325.82	0.671328
2327.24	1.09784
2328.65	0.830415
2330.06	0.299989
2331.48	0.397024
2332.89	0.347541
2334.3	0.595577
2335.71	0.613608
2337.12	0.565189
2338.54	0.531764
2339.95	0.151532
2341.36	-0.180458
2342.77	0.406221
2344.18	-0.0903692
2345.59	0.118822
2347	0.459211
2348.41	0.799247
2349.82	0.647507
2351.23	0.184202
2352.64	-0.0838423
2354.04	-0.157001
2355.45	0.844775
2356.86	0.248162
2358.27	0.156981
2359.68	0.79733
2361.08	-0.235297
2362.49	0.663647
2363.9	0.264815
2365.3	-0.117067
2366.71	0.504143
2368.12	-0.0859575
2369.52	0.504149
2370.93	0.57948
2372.33	0.012351
2373.74	-0.182306
2375.14	-0.038166
2376.55	-0.00729179
2377.95	0.150634
2379.36	-0.449138
2380.76	0.362378
2382.16	0.512613
2383.57	0.324732
2384.97	-0.167032
2386.37	-0.105836
2387.78	-0.0434971
2389.18	-0.338305
2390.58	-0.105027
2391.98	0.241071
2393.38	-0.255059
2394.79	0.125279
2396.19	0.23608
2397.59	-0.0654621
2398.99	0.380809
2400.39	0.462255
2401.79	-0.0117645
2403.19	-0.120303
2404.59	-0.00702286
2405.99	-0.307756
2407.39	-0.133614
2408.78	-0.198693
2410.18	0.0844984
2411.58	0.225095
2412.98	0.0183382
2414.38	-0.0597658
2415.77	0.576697
2417.17	0.0278177
2418.57	-0.218952
2419.97	0.389959
2421.36	0.159411
2422.76	0.862984
2424.15	-0.445961
2425.55	-0.0120592
2426.95	0.105718
2428.34	0.161385
2429.74	0.805305
2431.13	0.641675
2432.52	0.811509
2433.92	0.21841
2435.31	0.639954
2436.71	0.106086
2438.1	0.205405
2439.49	0.175662
2440.89	0.509773
2442.28	0.477693
2443.67	0.47691
2445.06	-0.364816
2446.46	0.39526
2447.85	0.0451231
2449.24	0.281358
2450.63	0.248534
2452.02	0.0582323
2453.41	-0.257404
2454.8	-0.271074
2456.19	0.491386
2457.58	0.115347
2458.97	0.308549
2460.36	0.247828
2461.75	-0.430692
2463.14	0.233499
2464.53	0.0589437
2465.92	0.105155
2467.31	0.624733
2468.69	0.228603
2470.08	0.0375605
2471.47	0.287402
2472.86	0.346903
2474.24	0.436643
2475.63	0.430861
2477.02	0.000114441
2478.4	-0.115939
2479.79	0.490263
2481.17	0.264714
2482.56	0.133435
2483.94	0.283474
2485.33	-0.146756
2486.72	0.281526
2488.1	0.176608
2489.48	0.320163
2490.87	-0.284023
2492.25	0.279917
2493.64	0.0211201
2495.02	-0.0180016
2496.4	0.471809
2497.79	0.0638208
2499.17	0.183106
2500.55	-0.0539999
2501.93	-0.0445976
2503.31	0.179532
2504.69	0.371021
2506.08	0.314601
2507.46	0.165554
2508.84	0.0323668
2510.22	0.0536499
2511.6	0.413356
2512.98	-0.253483
2514.36	0.598403
2515.74	0.0727978
2517.12	0.160898
2518.5	0.173273
2519.88	0.231753
2521.25	-0.0614853
2522.63	0.133105
2524.01	-0.268666
2525.39	-0.396552
2526.77	0.0844736
2528.14	-0.195531
2529.52	0.195475
2530.9	0.0564003
2532.27	-0.0649033
2533.65	0.0589361
2535.03	-0.439046
2536.4	-0.116649
2537.78	0.417438
2539.15	-0.386583
2540.53	0.402814
2541.9	0.659884
2543.28	-0.0842333
2544.65	-0.189641
2546.03	0.207271
2547.4	0.0902576
2548.77	0.505478
2550.15	-0.0501261
2551.52	0.516456
2552.89	0.292559
2554.27	0.264385
2555.64	-0.0230742
2557.01	0.492644
2558.38	0.552938
2559.75	0.158793
2561.12	0.447639
2562.5	0.403959
2563.87	0.724866
2565.24	0.0917282
2566.61	-0.116736
2567.98	0.341737
2569.35	0.194029
2570.72	0.243325
2572.09	0.125944
2573.46	-0.0519753
2574.83	-0.0933514
2576.19	-0.240819
2577.56	0.657776
2578.93	0.221789
2580.3	-0.24507
2581.67	-0.227317
2583.04	0.0627899
2584.4	0.564711
2585.77	-0.722241
2587.14	-0.0838804
2588.5	-0.14252
2589.87	0.283963
2591.23	0.179838
2592.6	0.423544
2593.97	-0.667109
2595.33	0.346345
2596.7	-0.110815
2598.06	0.308733
2599.43	-0.210198
2600.79	-0.00310516
2602.15	-0.0371771
2603.52	0.337337
2604.88	0.440779
2606.25	0.604799
2607.61	-0.0912666
2608.97	0.0560713
2610.33	-0.0997744
2611.7	0.540339
2613.06	-0.145692
2614.42	0.159875
2615.78	0.164255
2617.15	-0.250818
2618.51	-0.199948
2619.87	-0.0283489
2621.23	0.218815
2622.59	0.361814
2623.95	0.176461
2625.31	0.0211267
2626.67	-0.149282
2628.03	-0.0666189
2629.39	0.11969
2630.75	-0.304633
2632.1	0.0297308
2633.46	0.378333
2634.82	0.13262
2636.18	-0.453857
2637.54	0.249787
2638.89	0.0343523
2640.25	0.15975
2641.61	-0.246891
2642.97	0.425909
2644.32	-0.142077
2645.68	0.0577641
2647.03	0.477866
2648.39	0.159768
2649.75	0.253051
2651.1	0.198085
2652.46	-0.312556
2653.81	-0.0736361
2655.17	0.371081
2656.52	-0.164628
2657.88	0.297407
2659.23	0.189725
2660.58	-0.0634289
2661.94	-0.374981
2663.29	0.554492
2664.64	-0.0218735
2666	-0.219334
2667.35	-0.0820112
2668.7	0.404397
2670.05	0.686703
2671.4	0.445946
2672.76	0.322713
2674.11	0.0843859
2675.46	0.00682545
2676.81	-0.0843477
2678.16	-0.0439777
2679.51	-0.0169334
2680.86	0.185585
2682.21	-0.277081
2683.56	0.160919
2684.91	0.121883
2686.26	-0.322722
2687.61	-0.28881
2688.96	0.411253
2690.3	0.092701
2691.65	0.163385
2693	0.275251
2694.35	0.0229826
2695.7	0.176452
2697.04	0.330628
2698.39	-0.0347452
2699.74	-0.0355349
2701.08	0.574418
2702.43	-0.247089
2703.77	0.0481548
2705.12	-0.264444
2706.47	0.0174189
2707.81	0.168566
2709.16	0.522469
2710.5	0.672743
2711.85	0.57573
2713.19	0.245935
2714.53	0.497246
2715.88	0.210638
2717.22	0.46178
2718.57	0.712666
2719.91	0.555683
2721.25	0.499814
2722.59	0.166643
2723.94	0.327598
2725.28	0.356894
2726.62	0.734928
2727.96	0.399274
2729.3	0.398008
2730.65	0.600216
2731.99	0.234909
2733.33	0.553514
2734.67	0.494121
2736.01	0.0859718
2737.35	0.594336
2738.69	1.00082
2740.03	0.607056
2741.37	0.387132
2742.71	-0.342491
2744.05	0.0898809
2745.38	0.114256
2746.72	0.00726223
2748.06	-0.21607
2749.4	0.460407
2750.74	-0.00915337
2752.07	-0.231515
2753.41	0.126327
2754.75	-0.0663729
2756.09	0.335081
2757.42	0.186298
2758.76	0.385393
2760.09	-0.341311
2761.43	0.119547
2762.77	-0.156948
2764.1	-0.490813
2765.44	-0.188035
2766.77	-0.392283
2768.11	-0.163839
2769.44	0.539769
2770.77	-0.0312176
2772.11	-0.242494
2773.44	0.540662
2774.77	-0.048007
2776.11	-0.246823
2777.44	-0.228908
2778.77	-0.19585
2780.11	0.326513
2781.44	0.374738
2782.77	0.121666
2784.1	0.227386
2785.43	-0.0827227
2786.77	0.295328
2788.1	0.08675
2789.43	0.351697
2790.76	0.245924
2792.09	0.284399
2793.42	0.0805569
2794.75	-0.0230684
2796.08	0.244373
2797.41	0.296579
2798.74	0.276499
2800.07	-0.0582237
2801.4	-0.20759
2802.72	0.241752
2804.05	0.319723
2805.38	-0.00184155
2806.71	0.0603867
2808.04	0.491385
2809.36	0.224657
2810.69	0.0435524
2812.02	-0.448631
2813.34	0.0684128
2814.67	0.374453
2816	-0.0120363
2817.32	0.340306
2818.65	-0.142691
2819.97	0.182252
2821.3	0.322283
2822.62	0.390425
2823.95	0.273396
2825.27	-0.0849228
2826.6	0.562417
2827.92	0.403227
2829.25	0.712116
2830.57	0.427136
2831.89	0.765368
2833.22	0.862872
2834.54	0.931583
2835.86	0.92877
2837.18	1.78824
2838.51	1.64225
2839.83	1.96268
2841.15	2.41033
2842.47	2.44853
2843.79	3.42059
2845.11	3.65886
2846.43	4.13848
2847.76	4.15243
2849.08	3.60109
2850.4	4.3213
2851.72	4.57423
2853.04	4.84034
2854.36	4.27197
2855.67	4.975
2856.99	4.77368
2858.31	4.99626
2859.63	4.45615
2860.95	4.66429
2862.27	5.53532
2863.58	5.02214
2864.9	6.13142
2866.22	5.50496
2867.54	5.99341
2868.85	6.53883
2870.17	6.19668
2871.49	6.36242
2872.8	7.10548
2874.12	7.02967
2875.43	7.64212
2876.75	7.42136
2878.07	7.73397
2879.38	8.17222
2880.7	8.06239
2882.01	8.10875
2883.32	7.79197
2884.64	7.9827
2885.95	7.99205
2887.27	7.62263
2888.58	8.31902
2889.89	8.57869
2891.21	8.59818
2892.52	8.89674
2893.83	8.78843
2895.14	9.21299
2896.46	8.70098
2897.77	8.55517
2899.08	8.94306
2900.39	9.5143
2901.7	9.75067
2903.01	9.69373
2904.32	10.1686
2905.63	10.1405
2906.94	10.1274
2908.25	10.4797
2909.56	10.7078
2910.87	10.4474
2912.18	10.4389
2913.49	11.353
2914.8	11.2984
2916.11	11.0865
2917.42	12.2152
2918.72	11.97
2920.03	12.0883
2921.34	11.9561
2922.65	13.0426
2923.95	12.2167
2925.26	13.0984
2926.57	12.5418
2927.88	12.8101
2929.18	12.9658
2930.49	13.4979
2931.79	14.1548
2933.1	13.4831
2934.4	13.4824
2935.71	13.0907
2937.01	12.9648
2938.32	13.3005
2939.62	12.9241
2940.93	12.5348
2942.23	11.9654
2943.54	11.552
2944.84	11.6444
2946.14	9.87913
2947.45	10.2403
2948.75	9.90158
2950.05	9.53264
2951.35	9.03436
2952.66	8.33662
2953.96	8.77059
2955.26	7.83188
2956.56	7.86063
2957.86	7.19297
2959.16	7.28566
2960.46	7.00491
2961.77	7.27406
2963.07	6.8857
2964.37	6.63637
2965.66	6.76369
2966.96	6.66355
2968.26	6.22369
2969.56	5.712
2970.86	6.32507
2972.16	6.50284
2973.46	5.73848
2974.76	5.17084
2976.06	5.17924
2977.35	5.2279
2978.65	5.42868
2979.95	5.85172
2981.25	4.45701
2982.54	5.0738
2983.84	4.56586
2985.14	4.18659
2986.43	4.56882
2987.73	3.60451
2989.02	4.11739
2990.32	3.80171
2991.62	3.49935
2992.91	3.13917
2994.21	3.22672
2995.5	2.97531
2996.8	2.18941
2998.09	2.82126
2999.38	2.87784
3000.68	2.37441
3001.97	2.04054
3003.26	2.29614
3004.56	2.07555
3005.85	1.58868
3007.14	1.63322
3008.43	1.1728
3009.73	0.90736
3011.02	1.31188
3012.31	1.24046
3013.6	1.08548
3014.89	0.596836
3016.19	0.249302
3017.48	0.293204
3018.77	0.866669
3020.06	0.660922
3021.35	-0.0733185
3022.64	0.108973
3023.93	0.123096
3025.22	-0.127281
3026.5	-0.169696
3027.79	-0.0314283
3029.08	0.232688
3030.37	0.180908
3031.66	-0.103314
3032.95	-0.0543118
3034.24	0.271255
3035.52	-0.190384
3036.81	-0.0190973
3038.1	0.0392733
3039.39	0.191201
3040.67	0.17558
3041.96	0.446927
3043.25	0.251444
3044.53	-0.352845
3045.82	0.0722055
3047.1	0.622628
3048.39	-0.0801334
3049.67	-0.547018
3050.96	-0.0151424
3052.24	0.217744
3053.53	-0.299652
3054.81	0.123622
3056.1	-0.000242233
3057.38	-0.343592
3058.67	0.593078
3059.95	0.452628
3061.23	0.258533
3062.52	0.310985
3063.8	-0.0423918
3065.08	0.558361
3066.36	0.0600815
3067.65	0.188798
3068.93	-0.470483
3070.21	-0.246111
3071.49	-0.131558
3072.77	-0.263387
3074.05	0.432463
3075.33	0.0665998
3076.61	0.352562
3077.89	-0.229785
3079.17	0.044796
3080.45	0.158717
3081.73	-0.159018
3083.01	-0.176403
3084.29	0.0244627
3085.57	0.0492353
3086.85	-0.102929
3088.13	-0.255975
3089.41	0.594468
3090.68	-0.116394
3091.96	0.0412045
3093.24	-0.207825
3094.52	0.140504
3095.79	0.245204
3097.07	0.363713
3098.35	0.0620804
3099.62	-0.0362034
3100.9	-0.147953
3102.18	0.0520697
3103.45	-0.275483
3104.73	0.237196
3106	0.371953
3107.28	-0.236117
3108.55	0.0506144
3109.83	0.176664
3111.1	0.00646973
3112.38	0.731398
3113.65	0.0755405
3114.93	0.612255
3116.2	0.294534
3117.47	0.0841122
3118.75	0.238475
3120.02	0.499948
3121.29	0.583867
3122.57	0.274014
3123.84	0.302957
3125.11	0.779126
3126.38	0.646642
3127.65	-0.107042
3128.92	0.49321
3130.2	0.701714
3131.47	0.653598
3132.74	0.619076
3134.01	0.179064
3135.28	0.953944
3136.55	0.432102
3137.82	0.463239
3139.09	0.857744
3140.36	0.968904
3141.63	1.09359
3142.9	0.614095
3144.17	0.861287
3145.43	1.02867
3146.7	1.22387
3147.97	1.00471
3149.24	0.97431
