200.554	2.04199
202.369	2.04716
204.183	2.05358
205.999	2.06299
207.813	2.36542
209.626	1.23333
211.439	1.26622
213.253	0.932644
215.065	1.51933
216.877	1.28049
218.688	0.824881
220.5	1.50951
222.312	0.551353
224.123	1.74857
225.933	0.965046
227.742	0.641869
229.552	0.270367
231.361	0.381214
233.171	1.33619
234.98	0.989735
236.787	0.767696
238.595	0.695879
240.402	0.365334
242.209	1.36658
244.015	0.587095
245.822	0.772556
247.627	-0.469524
249.435	0.672813
251.24	0.214828
253.045	0.789064
254.849	0.611509
256.653	1.90442
258.457	-0.199188
260.26	0.160358
262.063	0.669216
263.866	1.49561
265.668	0.831263
267.47	0.866787
269.271	0.516283
271.073	-0.12517
272.873	0.894634
274.674	0.802433
276.474	0.321083
278.274	1.25774
280.073	0.551363
281.872	-0.254892
283.671	0.114483
285.47	0.0237846
287.268	1.10784
289.065	0.511839
290.863	0.134737
292.66	-0.11862
294.456	0.373835
296.253	0.48703
298.049	-0.018404
299.844	0.314157
301.637	0.0730762
303.432	-0.408283
305.227	-0.74861
307.021	-0.184053
308.815	0.594229
310.609	0.587141
312.402	0.345097
314.195	-0.178322
315.987	0.279222
317.777	0.122108
319.569	1.11236
321.36	0.271214
323.151	0.552162
324.942	0.19043
326.733	0.927122
328.521	-0.127623
330.31	1.58825
332.1	0.528675
333.889	0.445311
335.677	0.285238
337.464	0.143843
339.252	1.67241
341.039	-0.103685
342.826	-0.182844
344.611	0.192148
346.398	1.49977
348.184	0.898287
349.97	-0.131187
351.754	-0.396307
353.539	0.864679
355.324	0.166523
357.106	0.109678
358.89	0.526508
360.674	0.392527
362.455	-0.0764599
364.239	-0.3799
366.021	-0.0667248
367.804	-0.111834
369.584	0.789621
371.366	0.597761
373.145	0.286469
374.926	-0.308414
376.707	-0.264332
378.485	-0.478338
380.265	-0.265654
382.045	-0.00341797
383.822	0.143972
385.601	0.811527
387.378	-0.163303
389.156	0.462645
390.934	-0.0130844
392.71	-0.157927
394.487	0.567711
396.262	0.237503
398.038	-0.303782
399.813	0.845613
401.588	-0.0963097
403.362	0.839331
405.137	-0.176142
406.912	0.38027
408.685	0.277752
410.459	0.033783
412.23	0.400263
414.004	0.368856
415.775	0.339231
417.548	0.428951
419.318	0.027441
421.089	0.659166
422.86	0.187237
424.63	0.347406
426.401	0.364611
428.17	-0.113102
429.94	-0.00494003
431.708	-0.342726
433.478	-0.280663
435.245	0.228144
437.012	-0.107998
438.781	0.563391
440.547	0.597544
442.315	-0.569378
444.081	0.205549
445.846	0.272396
447.613	0.570402
449.378	0.960398
451.142	0.181913
452.908	0.385952
454.672	0.356977
456.435	-0.0914841
458.2	-0.329964
459.963	0.64216
461.725	-0.757208
463.489	0.963083
465.251	0.0623741
467.012	0.0748043
468.775	-0.11565
470.536	0.163097
472.296	0.885622
474.056	0.349812
475.817	0.042244
477.576	0.731134
479.335	-0.4478
481.094	0.257887
482.854	0.288502
484.612	0.554867
486.37	0.662878
488.127	1.1257
489.886	0.451141
491.642	0.0114441
493.398	0.647314
495.154	0.559795
496.91	0.542118
498.667	1.36726
500.422	1.32498
502.176	0.717688
503.93	1.72804
505.684	1.18561
507.438	0.16885
509.191	1.92351
510.946	0.522144
512.698	0.528494
514.45	0.484217
516.202	0.648426
517.954	2.12659
519.705	0.427727
521.456	0.467272
523.206	0.623058
524.956	0.942472
526.706	1.89486
528.456	2.2836
530.207	1.45308
531.956	1.20792
533.704	0.77379
535.452	1.22616
537.2	1.46403
538.947	1.3945
540.694	1.22894
542.441	1.50435
544.188	1.59207
545.934	1.42394
547.68	1.16383
549.425	1.48441
551.17	0.901787
552.915	1.36168
554.659	1.26654
556.403	1.14918
558.145	1.1022
559.889	0.895237
561.632	0.897152
563.375	1.03846
565.117	1.75557
566.859	0.865479
568.601	1.60835
570.342	0.609156
572.083	-0.0419025
573.824	0.113993
575.565	1.55874
577.303	1.03468
579.043	1.52353
580.782	1.27969
582.521	1.28856
584.26	0.537342
585.998	0.587969
587.734	1.34872
589.472	0.795353
591.21	0.262659
592.947	0.441957
594.684	0.712919
596.418	1.23703
598.154	0.610687
599.89	0.604601
601.626	0.757475
603.361	0.792196
605.094	-0.0731983
606.828	0.48369
608.562	0.142494
610.296	0.902985
612.027	1.77851
613.761	0.408302
615.493	0.851336
617.224	1.11112
618.956	0.247194
620.688	1.37281
622.419	0.892818
624.149	0.068552
625.879	0.227709
627.61	0.0239658
629.338	0.943281
631.068	0.863838
632.797	1.17722
634.525	0.374767
636.254	1.16904
637.98	1.02317
639.708	0.756596
641.436	0.255037
643.162	1.48042
644.889	1.12972
646.614	1.05353
648.34	0.368402
650.067	0.0777569
651.791	0.386957
653.516	0.773636
655.239	1.37339
656.964	0.340134
658.687	0.355431
660.411	0.575012
662.133	1.08805
663.857	0.453541
665.58	0.132719
667.301	-1.06169
669.024	-0.0396099
670.744	0.481466
672.464	0.572588
674.186	-0.0862598
675.905	0.267225
677.626	1.03721
679.345	-0.00559044
681.065	0.11974
682.783	0.74725
684.503	0.633877
686.22	0.722952
687.939	0.485909
689.656	0.614832
691.372	0.396511
693.09	0.337917
694.806	0.784248
696.523	1.22804
698.239	1.16228
699.953	0.633366
701.67	-0.357725
703.384	0.419872
705.098	0.413925
706.813	1.11814
708.526	1.65975
710.239	0.710258
711.954	0.951832
713.666	1.10078
715.378	0.883348
717.091	1.07709
718.802	1.17948
720.513	0.552784
722.226	0.0640926
723.936	-0.19614
725.646	0.657625
727.355	0.26004
729.067	0.769775
730.776	-0.399986
732.484	0.605749
734.192	0.342087
735.902	1.23168
737.61	0.562477
739.317	0.888657
741.024	0.76573
742.731	1.43414
744.439	0.979244
746.145	1.31569
747.851	1.2277
749.556	0.288134
751.262	0.0489006
752.966	-0.142481
754.673	0.996504
756.377	1.14927
758.081	0.697767
759.784	1.24038
761.487	1.42551
763.19	0.799763
764.892	1.59498
766.594	1.03287
768.296	1.34756
770	1.3409
771.701	1.96278
773.402	1.17946
775.102	1.34491
776.803	1.42121
778.503	1.45528
780.202	1.62852
781.901	1.62337
783.6	0.894213
785.299	1.27123
786.997	1.23548
788.695	1.1926
790.393	0.825727
792.09	1.4704
793.787	1.43304
795.484	0.989202
797.18	2.35122
798.877	1.12512
800.572	1.32263
802.268	1.3656
803.963	1.81478
805.658	1.43144
807.35	2.0127
809.044	1.35553
810.738	1.72877
812.432	1.38184
814.125	0.765333
815.818	1.0895
817.51	1.77089
819.202	0.976339
820.894	0.920355
822.584	0.976925
824.275	2.41753
825.966	1.1189
827.657	1.18509
829.347	1.63601
831.037	1.82659
832.725	1.5113
834.414	0.754608
836.103	1.91746
837.792	1.74203
839.481	1.9433
841.167	2.18575
842.854	1.2188
844.542	1.79236
846.229	1.47377
847.914	2.27713
849.6	1.90124
851.287	1.39621
852.973	1.49981
854.656	2.68276
856.341	2.25037
858.026	2.33159
859.711	1.05879
861.393	1.96426
863.077	2.41641
864.761	2.50533
866.442	0.427921
868.125	2.00098
869.808	1.34086
871.489	2.03324
873.171	0.830254
874.85	2.35703
876.532	1.33417
878.213	1.77814
879.892	1.65765
881.572	1.96518
883.251	0.645573
884.931	1.26489
886.61	1.00059
888.287	1.18408
889.966	0.980402
891.643	1.06655
893.321	-0.111547
894.997	0.959667
896.675	1.03741
898.352	0.416597
900.028	1.43242
901.704	0.51734
903.379	0.453554
905.055	1.14927
906.729	1.46447
908.404	1.15619
910.077	1.65236
911.75	0.436749
913.425	0.469578
915.097	0.569778
916.771	1.40186
918.443	0.259947
920.116	0.891651
921.787	1.01482
923.46	1.25098
925.13	1.24771
926.8	1.315
928.472	1.80554
930.141	1.28369
931.813	0.940098
933.481	1.12668
935.15	0.938683
936.82	0.751764
938.488	1.14035
940.156	1.35541
941.825	0.713017
943.492	1.2415
945.158	-0.260757
946.827	1.50085
948.493	1.02882
950.158	1.17042
951.824	1.243
953.491	0.852676
955.156	-0.0628643
956.82	0.571638
958.486	-0.0655785
960.15	0.516855
961.814	-0.0230713
963.477	0.695824
965.142	0.239372
966.804	0.196747
968.467	0.324785
970.129	-0.41468
971.79	-0.0497665
973.454	0.139273
975.115	0.0442085
976.776	-0.179398
978.436	-0.510344
980.096	-0.120871
981.756	0.26787
983.417	0.44331
985.077	1.18982
986.736	1.57708
988.394	1.20765
990.052	1.36632
991.71	0.882469
993.368	0.597612
995.025	1.63776
996.682	1.17687
998.341	1.46608
999.998	1.64423
1001.65	1.24868
1003.31	1.18272
1004.97	0.346462
1006.62	0.543955
1008.28	0.30233
1009.93	0.083786
1011.58	0.590233
1013.24	-0.54652
1014.89	0.969217
1016.54	-0.0769577
1018.2	0.257605
1019.85	0.746876
1021.5	1.08524
1023.16	0.573637
1024.81	0.283041
1026.46	1.19572
1028.11	1.67121
1029.76	0.178877
1031.41	1.04304
1033.06	2.57946
1034.71	2.583
1036.36	1.86367
1038.01	1.60095
1039.66	3.25397
1041.31	3.86226
1042.95	2.95171
1044.6	4.02381
1046.25	2.84142
1047.9	3.38006
1049.54	3.44512
1051.19	3.12249
1052.84	1.65041
1054.48	2.30814
1056.13	2.24891
1057.77	1.36283
1059.42	1.80157
1061.06	1.5865
1062.71	2.32628
1064.35	1.28077
1066	1.36343
1067.64	1.11744
1069.28	0.934471
1070.93	0.815311
1072.57	1.41234
1074.21	0.968662
1075.85	0.831514
1077.49	0.545853
1079.13	1.10892
1080.78	0.307621
1082.42	1.73971
1084.06	0.567579
1085.7	0.107336
1087.34	1.28933
1088.97	0.473032
1090.61	0.584139
1092.25	0.541023
1093.89	1.20952
1095.53	1.55366
1097.17	1.14489
1098.8	0.330902
1100.44	0.620041
1102.08	0.31098
1103.71	1.0389
1105.35	0.930822
1106.99	0.415447
1108.62	0.307997
1110.26	1.16548
1111.89	-0.667845
1113.52	-0.312122
1115.16	0.018919
1116.79	0.605658
1118.43	0.377337
1120.06	-0.320292
1121.69	1.27628
1123.32	0.926329
1124.96	1.24228
1126.59	1.06825
1128.22	1.40944
1129.85	0.383902
1131.48	1.79719
1133.11	0.431896
1134.75	0.541409
1136.37	-0.162792
1138	0.797474
1139.63	0.195084
1141.26	-0.942837
1142.89	0.309143
1144.52	0.259317
1146.15	0.0406914
1147.78	0.357294
1149.4	0.228369
1151.03	-0.197556
1152.66	0.590506
1154.28	0.0787201
1155.91	0.119669
1157.54	-0.201321
1159.16	0.627352
1160.79	-0.434822
1162.41	-0.175787
1164.04	0.872229
1165.66	0.560673
1167.29	-0.113029
1168.91	0.14624
1170.53	-0.682514
1172.16	0.630556
1173.78	-0.333645
1175.4	-0.0688553
1177.02	0.639568
1178.65	-0.156408
1180.27	0.786112
1181.89	0.291182
1183.51	0.622906
1185.13	-0.56702
1186.75	-0.1952
1188.37	-0.144197
1189.99	0.323673
1191.61	-0.077034
1193.23	0.360754
1194.85	0.0397148
1196.47	-0.049593
1198.08	0.0311203
1199.7	0.429508
1201.32	-0.441732
1202.94	-0.762573
1204.55	0.404554
1206.17	0.720457
1207.79	-0.546167
1209.4	0.128002
1211.02	0.21604
1212.63	0.258318
1214.25	1.21216
1215.86	0.264685
1217.48	0.521156
1219.09	0.795609
1220.71	0.612665
1222.32	0.556231
1223.93	0.565083
1225.54	0.184145
1227.16	0.345247
1228.77	0.571499
1230.38	1.02799
1231.99	0.990999
1233.6	1.74232
1235.22	0.822515
1236.83	1.99313
1238.44	1.40932
1240.05	0.785473
1241.66	1.32004
1243.26	1.91608
1244.87	1.14481
1246.48	1.86088
1248.09	1.3537
1249.7	1.94141
1251.31	1.68014
1252.92	2.1435
1254.52	2.67066
1256.13	2.16634
1257.74	2.53381
1259.34	1.60067
1260.95	2.69769
1262.55	1.60159
1264.16	3.19777
1265.76	2.24507
1267.37	1.62169
1268.97	2.40558
1270.58	3.24934
1272.18	1.97565
1273.78	2.04719
1275.39	2.07488
1276.99	3.2193
1278.59	2.14453
1280.2	2.063
1281.8	2.20853
1283.4	2.43701
1285	2.31515
1286.6	2.98114
1288.2	2.492
1289.8	3.14184
1291.4	3.02821
1293	3.72012
1294.6	3.54227
1296.2	4.02205
1297.8	3.52716
1299.4	4.2664
1301	3.31036
1302.6	4.30951
1304.19	3.61705
1305.79	4.36315
1307.39	4.01801
1308.99	3.91908
1310.58	2.73434
1312.18	3.02699
1313.77	3.70952
1315.37	3.14696
1316.96	3.30226
1318.56	3.21387
1320.15	3.81835
1321.75	3.03444
1323.34	4.07948
1324.94	3.87804
1326.53	3.08498
1328.12	2.92113
1329.72	3.54881
1331.31	3.08704
1332.9	2.7732
1334.49	2.78838
1336.08	2.66619
1337.67	3.21088
1339.27	2.6245
1340.86	2.94113
1342.45	3.3727
1344.04	2.93429
1345.63	3.69878
1347.22	2.69763
1348.8	2.52413
1350.39	2.01671
1351.98	3.4961
1353.57	2.91989
1355.16	2.08736
1356.75	3.01448
1358.33	2.94119
1359.92	3.0653
1361.51	1.90935
1363.09	2.60775
1364.68	2.40748
1366.27	2.16826
1367.85	2.46894
1369.44	2.31449
1371.02	3.2382
1372.61	3.18995
1374.19	2.76642
1375.77	2.68275
1377.36	2.75843
1378.94	3.1313
1380.52	2.66593
1382.11	3.35126
1383.69	3.23757
1385.27	3.43955
1386.85	3.48134
1388.43	3.04696
1390.02	3.07117
1391.6	3.73256
1393.18	3.483
1394.76	2.40147
1396.34	2.70792
1397.92	3.88462
1399.5	4.38423
1401.08	2.82129
1402.65	3.81196
1404.23	3.69372
1405.81	4.28877
1407.39	4.23327
1408.97	3.54774
1410.54	3.89097
1412.12	4.05612
1413.7	3.78534
1415.27	4.30168
1416.85	4.02657
1418.43	4.32241
1420	4.67796
1421.58	5.39045
1423.15	5.04369
1424.73	5.19344
1426.3	4.95279
1427.87	4.73313
1429.45	5.6346
1431.02	4.95903
1432.6	6.81906
1434.17	6.23623
1435.74	6.59659
1437.31	6.7804
1438.89	7.89002
1440.46	6.8009
1442.03	7.30644
1443.6	7.16535
1445.17	6.94668
1446.74	7.47538
1448.31	7.57213
1449.88	7.76802
1451.45	7.13945
1453.02	7.49545
1454.59	7.79355
1456.16	6.47818
1457.72	6.85289
1459.29	6.77149
1460.86	6.74439
1462.43	7.16467
1463.99	5.88902
1465.56	5.16207
1467.13	4.33684
1468.69	5.02518
1470.26	5.08722
1471.83	3.83779
1473.39	3.80766
1474.95	3.48529
1476.52	4.22278
1478.08	4.03894
1479.65	3.95296
1481.21	3.70993
1482.78	2.95725
1484.34	3.57597
1485.9	3.54706
1487.47	2.79156
1489.03	2.79677
1490.59	2.56265
1492.15	2.08896
1493.71	2.3336
1495.27	2.94414
1496.84	1.66076
1498.39	2.11194
1499.96	2.50504
1501.52	1.75452
1503.07	1.35744
1504.64	1.05996
1506.19	0.957121
1507.75	1.04638
1509.31	1.84778
1510.87	1.37122
1512.43	1.02874
1513.98	0.224438
1515.54	1.69061
1517.1	1.2349
1518.65	1.14637
1520.21	1.42332
1521.77	1.48963
1523.32	1.26827
1524.88	1.48463
1526.44	1.31677
1527.99	1.28052
1529.54	0.634714
1531.1	1.85133
1532.65	1.32154
1534.21	2.00706
1535.76	1.14251
1537.31	1.01884
1538.87	0.99135
1540.42	1.54924
1541.97	1.05136
1543.52	1.89032
1545.07	1.89996
1546.63	1.74001
1548.18	1.56125
1549.73	2.00127
1551.28	1.99147
1552.83	1.62754
1554.38	2.33175
1555.93	1.97364
1557.48	2.75868
1559.03	2.05502
1560.57	1.71058
1562.12	2.09736
1563.67	1.85235
1565.22	1.96305
1566.77	2.61512
1568.31	2.52023
1569.86	2.51769
1571.41	2.4209
1572.95	2.24875
1574.5	3.17764
1576.05	2.07183
1577.59	2.06787
1579.14	3.27837
1580.68	2.54869
1582.23	2.94115
1583.77	2.75661
1585.31	3.99401
1586.86	3.53215
1588.4	3.50035
1589.95	3.78606
1591.49	3.67776
1593.03	3.43716
1594.57	3.06459
1596.11	4.20957
1597.66	3.96933
1599.2	4.18052
1600.74	4.22475
1602.28	4.70179
1603.82	4.63458
1605.36	5.22308
1606.9	4.26738
1608.44	4.32137
1609.98	4.42603
1611.52	3.73582
1613.06	4.01795
1614.6	3.58351
1616.13	3.71131
1617.67	4.14004
1619.21	3.39093
1620.75	3.78839
1622.28	3.68332
1623.82	3.91714
1625.36	4.41292
1626.89	4.06437
1628.43	4.6295
1629.96	4.27443
1631.5	4.02932
1633.04	4.00771
1634.57	4.06156
1636.11	4.09867
1637.64	5.16369
1639.17	4.45831
1640.71	3.88388
1642.24	4.18385
1643.77	3.64295
1645.31	4.53257
1646.84	4.39608
1648.37	4.5006
1649.9	3.99327
1651.43	4.23122
1652.96	3.41472
1654.5	3.78806
1656.03	4.60739
1657.56	4.16599
1659.09	4.63045
1660.62	4.25826
1662.15	3.56849
1663.67	3.91216
1665.2	2.86879
1666.73	2.5846
1668.26	3.17009
1669.79	3.16849
1671.32	3.17032
1672.84	3.24831
1674.37	2.48017
1675.9	2.24567
1677.43	2.67197
1678.95	1.8997
1680.48	2.54152
1682	2.35403
1683.53	2.22113
1685.05	2.93264
1686.58	1.97529
1688.1	1.20333
1689.63	2.26485
1691.15	1.51321
1692.68	1.12844
1694.2	1.58523
1695.72	1.71208
1697.25	1.21696
1698.77	1.98158
1700.29	1.43031
1701.81	1.11562
1703.33	0.72718
1704.86	0.775114
1706.38	1.11306
1707.9	1.35889
1709.42	0.913923
1710.94	1.08689
1712.46	0.280809
1713.98	1.30617
1715.5	0.103418
1717.02	0.982458
1718.54	1.31754
1720.06	0.13513
1721.57	1.24634
1723.09	1.23933
1724.61	1.32464
1726.13	0.782566
1727.64	0.60387
1729.16	1.3451
1730.68	0.357615
1732.19	0.427561
1733.71	0.445358
1735.23	0.391174
1736.74	0.399809
1738.26	0.68644
1739.77	0.686964
1741.29	0.599308
1742.8	0.119783
1744.31	-0.148552
1745.83	0.289139
1747.34	0.352798
1748.85	0.411188
1750.37	0.346258
1751.88	0.765858
1753.39	0.609625
1754.91	0.12323
1756.42	0.257118
1757.93	0.372778
1759.44	0.550167
1760.95	0.780586
1762.46	-0.135721
1763.97	0.18693
1765.48	0.815334
1766.99	0.0304394
1768.5	0.153011
1770.01	0.302059
1771.52	-0.0261059
1773.03	0.149029
1774.54	-0.173117
1776.04	-0.00923347
1777.55	0.0606575
1779.06	0.264353
1780.57	-0.0881424
1782.07	0.0105877
1783.58	0.184164
1785.09	0.426184
1786.59	0.377571
1788.1	0.411222
1789.6	-0.231407
1791.11	0.0246181
1792.61	-0.423206
1794.12	-0.0482788
1795.62	-0.0591488
1797.13	-0.491119
1798.63	0.304724
1800.13	0.0728722
1801.64	0.139879
1803.14	0.297821
1804.64	0.215183
1806.15	0.157825
1807.65	0.00268173
1809.15	-0.296881
1810.65	-0.0562325
1812.15	0.0187187
1813.65	-0.0690594
1815.16	0.235315
1816.66	-0.484774
1818.15	0.0971298
1819.66	0.47839
1821.16	0.202404
1822.65	0.0466003
1824.15	-0.251471
1825.65	0.185883
1827.15	-0.177858
1828.65	0.284109
1830.15	-0.225742
1831.64	-0.133366
1833.14	-0.276571
1834.64	0.578102
1836.14	0.46393
1837.63	-0.392296
1839.13	0.0366726
1840.62	0.171436
1842.12	-0.304544
1843.62	-0.0795307
1845.11	0.259348
1846.61	0.130501
1848.1	-0.293324
1849.6	0.106249
1851.09	0.220171
1852.58	0.251955
1854.08	-0.363689
1855.57	-0.0424061
1857.06	-0.160864
1858.55	-0.00255203
1860.05	-0.162714
1861.54	0.104784
1863.03	0.468546
1864.52	-0.244207
1866.01	0.222689
1867.5	0.127533
1869	0.238111
1870.49	0.544352
1871.98	0.643003
1873.47	-0.048521
1874.96	0.0609493
1876.44	0.192951
1877.93	0.190565
1879.42	-0.237474
1880.91	0.470755
1882.4	-0.166117
1882.47	-0.201899
1883.96	-0.00929832
1885.46	0.530283
1886.95	0.684568
1888.44	0.437315
1889.94	-0.070385
1891.43	0.328402
1892.93	0.329853
1894.42	0.351954
1895.91	-0.0230675
1897.4	0.455484
1898.89	0.238289
1900.39	0.297579
1901.88	0.440943
1903.37	0.563637
1904.86	-0.39423
1906.35	-0.205904
1907.84	-0.15682
1909.33	0.604881
1910.82	0.274502
1912.31	0.223486
1913.8	0.0347614
1915.29	-0.0149956
1916.77	-0.290699
1918.26	-0.35923
1919.75	0.767012
1921.24	0.853037
1922.73	0.264383
1924.21	-0.183969
1925.7	0.512297
1927.19	0.414116
1928.67	0.646074
1930.16	0.739527
1931.64	0.537163
1933.13	0.40147
1934.61	-0.0143108
1936.1	0.259319
1937.58	0.409424
1939.07	0.212856
1940.55	0.241482
1942.04	0.15073
1943.52	0.234419
1945	0.336832
1946.49	-0.0428276
1947.97	0.0943813
1949.45	0.247417
1950.93	-0.496799
1952.42	0.478954
1953.9	0.38623
1955.38	0.224695
1956.86	-0.485508
1958.34	-0.730318
1959.82	0.53595
1961.3	0.0873241
1962.78	0.17078
1964.26	-0.157343
1965.74	-0.160667
1967.22	0.29693
1968.7	0.786999
1970.18	0.249731
1971.65	0.600927
1973.13	0.0809803
1974.61	0.41474
1976.09	0.680149
1977.57	0.0597916
1979.04	0.410652
1980.52	0.114601
1982	-0.266359
1983.47	0.0151711
1984.95	-0.603922
1986.42	0.253056
1987.9	0.125685
1989.37	-0.492071
1990.85	0.0936909
1992.32	0.172932
1993.8	0.135502
1995.27	0.55583
1996.75	-0.374847
1998.22	0.654097
1999.69	-0.124846
2001.17	0.20953
2002.64	0.205366
2004.11	-0.0688038
2005.58	0.399231
2007.05	0.548117
2008.53	0.311287
2010	0.63167
2011.47	0.0102482
2012.94	0.584112
2014.41	-0.22286
2015.88	0.0964165
2017.35	1.10346
2018.82	0.0740376
2020.29	0.153561
2021.76	0.215912
2023.23	-0.00662041
2024.7	0.0911655
2026.16	0.694132
2027.63	0.192471
2029.1	0.481771
2030.57	-0.0317307
2032.03	0.17779
2033.5	0.841576
2034.97	0.850893
2036.44	0.254789
2037.9	0.766392
2039.37	-0.0502167
2040.83	1.11628
2042.3	0.0644913
2043.76	0.560768
2045.23	0.150373
2046.69	0.24596
2048.16	0.864401
2049.62	0.370623
2051.08	0.83567
2052.55	0.741728
2054.01	1.06611
2055.47	0.257439
2056.94	0.137848
2058.4	0.35392
2059.86	0.384192
2061.32	0.684517
2062.79	0.363262
2064.25	0.262693
2065.71	0.534134
2067.17	0.75658
2068.63	0.273235
2070.09	0.160675
2071.55	0.805784
2073.01	0.491079
2074.47	0.731522
2075.93	0.314638
2077.39	1.14326
2078.85	0.320831
2080.31	1.13104
2081.76	0.323759
2083.22	0.794893
2084.68	1.06252
2086.13	0.622095
2087.59	1.42517
2089.05	0.94944
2090.51	1.28007
2091.96	1.35839
2093.42	1.4868
2094.87	0.759295
2096.33	0.718945
2097.78	0.978937
2099.24	0.919413
2100.69	1.11021
2102.15	1.16738
2103.6	0.841843
2105.06	0.552376
2106.51	1.21657
2107.96	1.58208
2109.42	1.36447
2110.87	1.24606
2112.32	1.27534
2113.77	1.4347
2115.23	0.54254
2116.68	1.2296
2118.13	1.28477
2119.58	1.01022
2121.03	1.38642
2122.48	1.56685
2123.93	2.09815
2125.38	1.58602
2126.83	1.80305
2128.28	1.53749
2129.73	1.46842
2131.18	1.62889
2132.63	1.95321
2134.08	1.66493
2135.53	1.75865
2136.97	2.41692
2138.42	2.08677
2139.87	1.77673
2141.32	1.7837
2142.76	2.14015
2144.21	2.54774
2145.66	2.62497
2147.1	2.4037
2148.55	2.37985
2150	1.8905
2151.44	2.36013
2152.89	3.14281
2154.33	2.34983
2155.78	2.88143
2157.22	2.50194
2158.66	2.37225
2160.11	2.97389
2161.55	3.18139
2163	2.7792
2164.44	2.36288
2165.88	3.392
2167.32	3.64165
2168.77	2.69268
2170.21	3.13647
2171.65	3.24377
2173.09	2.93143
2174.53	2.98237
2175.97	3.11526
2177.41	3.01565
2178.85	2.6016
2180.29	2.48867
2181.73	1.92844
2183.17	2.88245
2184.61	2.85601
2186.05	2.76317
2187.49	2.20444
2188.93	3.07681
2190.37	2.85089
2191.81	3.02394
2193.24	2.14674
2194.68	2.4492
2196.12	2.83145
2197.56	2.72715
2198.99	2.05433
2200.43	2.34415
2201.87	2.1683
2203.3	1.67863
2204.74	1.90454
2206.17	2.26468
2207.61	1.996
2209.04	1.62792
2210.48	1.92087
2211.91	2.11242
2213.35	1.93864
2214.78	2.26035
2216.21	1.24564
2217.65	1.8674
2219.08	1.66629
2220.51	1.81313
2221.95	1.61408
2223.38	1.49631
2224.81	2.33126
2226.24	2.20757
2227.67	1.60417
2229.1	1.36086
2230.54	1.54316
2231.97	0.790564
2233.4	1.07134
2234.83	0.731443
2236.26	1.22741
2237.69	1.17031
2239.11	1.60613
2240.54	0.397772
2241.97	1.70473
2243.4	0.877274
2244.83	1.24116
2246.26	0.755781
2247.69	1.23001
2249.11	0.738338
2250.54	1.20449
2251.97	0.852892
2253.4	0.955709
2254.82	0.733829
2256.25	0.677113
2257.67	0.364872
2259.1	1.1771
2260.53	0.339506
2261.95	0.512043
2263.38	0.81749
2264.8	1.25392
2266.23	0.584579
2267.65	0.872993
2269.07	0.867109
2270.5	0.403982
2271.92	0.509619
2273.34	0.712694
2274.77	0.541339
2276.19	0.598352
2277.61	0.688308
2279.03	0.566508
2280.46	0.656537
2281.88	0.632236
2283.3	0.803531
2284.72	1.07288
2286.14	0.118537
2287.56	-0.215283
2288.98	0.300738
2290.4	0.376681
2291.82	0.0117998
2293.24	1.33129
2294.66	0.77037
2296.08	1.0436
2297.5	0.596455
2298.92	0.230919
2300.34	-0.298525
2301.76	0.106671
2303.17	0.381492
2304.59	0.197278
2306.01	0.111298
2307.43	-0.156069
2308.84	0.183632
2310.26	0.670595
2311.68	0.0551004
2313.09	0.212468
2314.51	0.469354
2315.92	0.217216
2317.34	0.196823
2318.75	0.012351
2320.17	0.190187
2321.58	0.316889
2323	0.572541
2324.41	0.428148
2325.82	0.395403
2327.24	0.293793
2328.65	0.504059
2330.06	0.664937
2331.48	0.267384
2332.89	-0.210243
2334.3	0.169469
2335.71	0.0888548
2337.12	0.00757217
2338.54	0.763191
2339.95	0.0865526
2341.36	0.164454
2342.77	-0.136092
2344.18	0.449285
2345.59	0.116534
2347	0.308832
2348.41	0.435497
2349.82	0.299625
2351.23	-0.474879
2352.64	0.350872
2354.04	-0.409267
2355.45	0.20019
2356.86	-0.722824
2358.27	0.324171
2359.68	0.621728
2361.08	0.415674
2362.49	0.566733
2363.9	0.40956
2365.3	-0.0224018
2366.71	-0.226888
2368.12	0.118967
2369.52	-0.0180435
2370.93	0.459923
2372.33	-0.558706
2373.74	0.534897
2375.14	-0.383802
2376.55	-0.22429
2377.95	0.576523
2379.36	0.168517
2380.76	0.159689
2382.16	0.340879
2383.57	0.215751
2384.97	-0.0854874
2386.37	-0.00190067
2387.78	0.0829678
2389.18	-0.0535688
2390.58	-0.203676
2391.98	0.874291
2393.38	1.02984
2394.79	0.152965
2396.19	0.29553
2397.59	0.359622
2398.99	0.520012
2400.39	0.220501
2401.79	0.46169
2403.19	-0.107053
2404.59	0.212996
2405.99	0.27749
2407.39	0.403814
2408.78	0.0369997
2410.18	-0.0922728
2411.58	0.0482521
2412.98	0.158304
2414.38	-0.141237
2415.77	-0.0266294
2417.17	0.0268879
2418.57	-0.0130262
2419.97	-0.16316
2421.36	0.858644
2422.76	-0.353611
2424.15	-0.251581
2425.55	-0.402992
2426.95	0.20712
2428.34	-0.132269
2429.74	0.164076
2431.13	-0.125194
2432.52	0.252268
2433.92	0.0575027
2435.31	0.242026
2436.71	-0.0048666
2438.1	0.0634165
2439.49	0.320107
2440.89	0.178071
2442.28	-0.075942
2443.67	-0.0287657
2445.06	-0.203996
2446.46	0.587795
2447.85	0.459486
2449.24	0.299574
2450.63	0.361839
2452.02	-0.0340652
2453.41	-0.0170298
2454.8	-0.362446
2456.19	0.147592
2457.58	0.00957966
2458.97	-0.270997
2460.36	0.396433
2461.75	0.303326
2463.14	0.00343037
2464.53	0.255726
2465.92	0.0334978
2467.31	-0.267642
2468.69	0.346539
2470.08	0.0293274
2471.47	-0.0991669
2472.86	0.133686
2474.24	-0.296243
2475.63	0.783492
2477.02	0.273355
2478.4	0.37642
2479.79	0.338346
2481.17	0.049736
2482.56	0.106168
2483.94	0.0521603
2485.33	0.653665
2486.72	0.36147
2488.1	0.130456
2489.48	0.303928
2490.87	-0.20819
2492.25	-0.0963993
2493.64	0.110025
2495.02	0.302743
2496.4	0.419761
2497.79	-0.375767
2499.17	0.362675
2500.55	0.186958
2501.93	-0.747105
2503.31	0.249031
2504.69	-0.331688
2506.08	0.597808
2507.46	0.12418
2508.84	0.143759
2510.22	-0.00495434
2511.6	-0.0602608
2512.98	0.284371
2514.36	-0.534204
2515.74	0.241682
2517.12	-0.114113
2518.5	0.662791
2519.88	0.186148
2521.25	0.427403
2522.63	-0.401175
2524.01	-0.269097
2525.39	-0.595631
2526.77	0.113404
2528.14	-0.410585
2529.52	-0.0197392
2530.9	0.434052
2532.27	0.540899
2533.65	0.0271597
2535.03	0.183203
2536.4	0.324009
2537.78	0.342172
2539.15	0.0549603
2540.53	-0.0513163
2541.9	-0.0519314
2543.28	-0.173528
2544.65	-0.0813417
2546.03	0.164488
2547.4	0.0634804
2548.77	0.494874
2550.15	-0.226625
2551.52	-0.0688887
2552.89	0.102536
2554.27	0.0900984
2555.64	-0.31834
2557.01	0.167362
2558.38	-0.302758
2559.75	0.0918589
2561.12	0.15372
2562.5	0.580335
2563.87	0.00772953
2565.24	0.542101
2566.61	0.12219
2567.98	-0.41886
2569.35	0.313148
2570.72	0.0448599
2572.09	0.337425
2573.46	-0.309685
2574.83	0.498588
2576.19	-0.0574541
2577.56	-0.174013
2578.93	0.49751
2580.3	-0.0900736
2581.67	0.231419
2583.04	0.18835
2584.4	0.402574
2585.77	0.298314
2587.14	0.527695
2588.5	0.711878
2589.87	0.0930357
2591.23	0.88335
2592.6	0.627231
2593.97	0.263765
2595.33	0.322777
2596.7	0.00154686
2598.06	0.450812
2599.43	0.641835
2600.79	-0.164515
2602.15	0.299409
2603.52	0.794192
2604.88	-0.174167
2606.25	0.0501976
2607.61	0.545294
2608.97	0.23973
2610.33	0.429511
2611.7	0.225424
2613.06	0.230179
2614.42	-0.0217934
2615.78	0.431536
2617.15	0.284634
2618.51	-0.430099
2619.87	-0.439016
2621.23	0.40556
2622.59	0.413034
2623.95	0.0177126
2625.31	-0.0936441
2626.67	-0.0263329
2628.03	0.0105057
2629.39	0.0914259
2630.75	-0.289395
2632.1	-0.446819
2633.46	0.331737
2634.82	-0.55339
2636.18	0.164527
2637.54	0.288495
2638.89	-0.224359
2640.25	0.269876
2641.61	0.216764
2642.97	-0.0278711
2644.32	0.171
2645.68	0.428476
2647.03	0.375315
2648.39	0.0117178
2649.75	0.47148
2651.1	0.635105
2652.46	0.269087
2653.81	-0.0371866
2655.17	-0.0925045
2656.52	0.293437
2657.88	0.402669
2659.23	0.323135
2660.58	0.361369
2661.94	0.457789
2663.29	-0.33789
2664.64	0.719828
2666	-0.165192
2667.35	-0.320981
2668.7	0.528044
2670.05	0.0811462
2671.4	0.973431
2672.76	0.0492926
2674.11	0.216459
2675.46	0.500524
2676.81	0.379035
2678.16	0.490787
2679.51	0.0963736
2680.86	0.298239
2682.21	-0.0778522
2683.56	-0.321554
2684.91	-0.114166
2686.26	0.282774
2687.61	0.0556488
2688.96	-0.202583
2690.3	0.0880327
2691.65	0.0852184
2693	0.340947
2694.35	0.638206
2695.7	0.760834
2697.04	0.391825
2698.39	0.532087
2699.74	0.472438
2701.08	0.734354
2702.43	0.0429926
2703.77	0.106441
2705.12	0.243313
2706.47	0.525446
2707.81	0.821891
2709.16	-0.362832
2710.5	0.817949
2711.85	0.895013
2713.19	0.594044
2714.53	1.19395
2715.88	0.732685
2717.22	0.692662
2718.57	0.724898
2719.91	0.276314
2721.25	1.16568
2722.59	0.671675
2723.94	0.846304
2725.28	0.612592
2726.62	1.13506
2727.96	0.798199
2729.3	0.475495
2730.65	0.851008
2731.99	0.702587
2733.33	0.75798
2734.67	-0.0300026
2736.01	0.418746
2737.35	1.08582
2738.69	0.283919
2740.03	0.499644
2741.37	0.554553
2742.71	0.492015
2744.05	0.26842
2745.38	0.610452
2746.72	0.254395
2748.06	0.391793
2749.4	-0.0657578
2750.74	0.463589
2752.07	0.181067
2753.41	-0.0574045
2754.75	0.226123
2756.09	-0.30141
2757.42	-0.104409
2758.76	0.295544
2760.09	-0.0566549
2761.43	-0.292178
2762.77	0.28343
2764.1	0.121579
2765.44	-0.373044
2766.77	0.274568
2768.11	0.00918484
2769.44	0.392445
2770.77	-0.152061
2772.11	0.341579
2773.44	0.428608
2774.77	0.485641
2776.11	0.412798
2777.44	0.0816231
2778.77	-0.0180168
2780.11	-0.102272
2781.44	0.187492
2782.77	-0.341004
2784.1	-0.166164
2785.43	0.338017
2786.77	-0.189457
2788.1	-0.271726
2789.43	-0.152344
2790.76	0.297385
2792.09	0.190533
2793.42	0.184599
2794.75	0.364546
2796.08	-0.342046
2797.41	-0.234968
2798.74	-0.200313
2800.07	0.104729
2801.4	0.337694
2802.72	0.156592
2804.05	0.00372314
2805.38	-0.163969
2806.71	0.336487
2808.04	-0.0751476
2809.36	0.294747
2810.69	0.0960121
2812.02	-0.115648
2813.34	0.568372
2814.67	0.446144
2816	0.128074
2817.32	-0.145442
2818.65	0.0214605
2819.97	0.443532
2821.3	0.467977
2822.62	0.576276
2823.95	1.02345
2825.27	0.534891
2826.6	0.117429
2827.92	0.40892
2829.25	0.927802
2830.57	0.683011
2831.89	1.69847
2833.22	1.69461
2834.54	1.43541
2835.86	2.16601
2837.18	2.14545
2838.51	2.59086
2839.83	3.60129
2841.15	3.52272
2842.47	4.66063
2843.79	4.44273
2845.11	5.73852
2846.43	5.87678
2847.76	6.36921
2849.08	6.29641
2850.4	6.49153
2851.72	6.78451
2853.04	6.48274
2854.36	7.09867
2855.67	7.03582
2856.99	7.56626
2858.31	7.39044
2859.63	8.09024
2860.95	7.85751
2862.27	8.00533
2863.58	9.05554
2864.9	8.96166
2866.22	7.8521
2867.54	8.06933
2868.85	8.80913
2870.17	9.40866
2871.49	9.64193
2872.8	9.7477
2874.12	10.5704
2875.43	10.8266
2876.75	11.9811
2878.07	11.5283
2879.38	12.0878
2880.7	12.6333
2882.01	11.8035
2883.32	12.5359
2884.64	11.796
2885.95	11.7178
2887.27	12.3416
2888.58	11.9398
2889.89	12.35
2891.21	12.1688
2892.52	12.1264
2893.83	11.8735
2895.14	13.064
2896.46	13.0517
2897.77	13.3779
2899.08	13.0491
2900.39	13.3099
2901.7	13.7117
2903.01	13.177
2904.32	14.5029
2905.63	13.9692
2906.94	15.1154
2908.25	15.0888
2909.56	15.1343
2910.87	15.5872
2912.18	15.8024
2913.49	15.5818
2914.8	16.3377
2916.11	15.8434
2917.42	17.2486
2918.72	16.3978
2920.03	17.8269
2921.34	17.3832
2922.65	17.8655
2923.95	18.2395
2925.26	18.351
2926.57	18.2825
2927.88	18.1303
2929.18	18.9278
2930.49	19.3325
2931.79	18.5896
2933.1	18.8386
2934.4	19.4788
2935.71	18.8196
2937.01	18.5662
2938.32	17.6845
2939.62	17.1948
2940.93	17.2096
2942.23	16.6675
2943.54	16.1842
2944.84	15.3965
2946.14	15.1706
2947.45	15.0301
2948.75	14.0073
2950.05	13.7093
2951.35	12.763
2952.66	12.4004
2953.96	12.4548
2955.26	12.2423
2956.56	11.6678
2957.86	10.8459
2959.16	10.8697
2960.46	10.3532
2961.77	10.191
2963.07	9.86212
2964.37	10.1636
2965.66	9.47911
2966.96	9.84461
2968.26	8.97043
2969.56	8.50198
2970.86	8.10341
2972.16	8.85895
2973.46	7.99737
2974.76	8.24747
2976.06	7.80662
2977.35	7.1801
2978.65	7.81741
2979.95	7.59228
2981.25	7.46305
2982.54	7.13583
2983.84	6.5987
2985.14	6.49993
2986.43	6.67137
2987.73	5.6937
2989.02	5.01326
2990.32	4.90963
2991.62	5.10034
2992.91	4.37563
2994.21	4.57611
2995.5	4.31081
2996.8	4.04434
2998.09	3.66548
2999.38	3.30154
3000.68	3.12129
3001.97	3.34889
3003.26	3.07283
3004.56	2.53114
3005.85	1.89141
3007.14	1.26519
3008.43	2.41512
3009.73	2.01014
3011.02	1.43675
3012.31	1.8688
3013.6	1.49114
3014.89	1.7004
3016.19	0.782395
3017.48	0.758064
3018.77	0.484373
3020.06	0.392111
3021.35	0.646868
3022.64	0.0944357
3023.93	0.0409632
3025.22	0.48556
3026.5	0.19496
3027.79	-0.135661
3029.08	0.269075
3030.37	-0.249783
3031.66	0.0770206
3032.95	0.295138
3034.24	-0.0657463
3035.52	0.649031
3036.81	-0.114196
3038.1	-0.148979
3039.39	0.267499
3040.67	0.103219
3041.96	-0.171842
3043.25	0.19813
3044.53	0.116994
3045.82	-0.152399
3047.1	-0.472057
3048.39	-0.268399
3049.67	0.484755
3050.96	0.0806656
3052.24	0.210472
3053.53	0.190494
3054.81	0.347059
3056.1	0.270146
3057.38	0.178043
3058.67	-0.0649433
3059.95	0.931144
3061.23	-0.0870943
3062.52	0.339335
3063.8	0.196909
3065.08	0.329286
3066.36	0.912935
3067.65	0.247851
3068.93	0.589834
3070.21	-0.0746918
3071.49	0.198057
3072.77	0.346622
3074.05	-0.322348
3075.33	0.0813599
3076.61	0.00903988
3077.89	0.575659
3079.17	0.261943
3080.45	-0.238692
3081.73	0.00972748
3083.01	0.12486
3084.29	0.0515528
3085.57	-0.224916
3086.85	-0.176109
3088.13	0.279075
3089.41	-0.162399
3090.68	0.155703
3091.96	0.039609
3093.24	-0.102999
3094.52	-0.136246
3095.79	0.400774
3097.07	-0.403955
3098.35	0.0523415
3099.62	0.183365
3100.9	-0.227327
3102.18	0.242908
3103.45	0.456442
3104.73	0.0619736
3106	0.427058
3107.28	0.266171
3108.55	0.174995
3109.83	-0.103617
3111.1	0.188242
3112.38	0.468368
3113.65	0.763355
3114.93	0.706481
3116.2	-0.00171947
3117.47	0.536585
3118.75	0.36828
3120.02	0.0494986
3121.29	0.394126
3122.57	0.507592
3123.84	0.878422
3125.11	0.951756
3126.38	1.10734
3127.65	0.641876
3128.92	1.2465
3130.2	0.918869
3131.47	0.537942
3132.74	0.954809
3134.01	0.803957
3135.28	0.7339
3136.55	1.66181
3137.82	1.02427
3139.09	1.11502
3140.36	1.11162
3141.63	0.947408
3142.9	1.63102
3144.17	1.44214
3145.43	1.10746
3146.7	1.09669
3147.97	1.43586
3149.24	2.21787
