200.554	1.35934
202.369	1.36585
204.183	1.37412
205.999	0.0706997
207.813	0.106022
209.626	0.796829
211.439	-0.28743
213.253	0.424025
215.065	0.696552
216.877	0.919563
218.688	0.876152
220.5	0.882328
222.312	0.744955
224.123	0.802635
225.933	0.52294
227.742	0.678541
229.552	0.254105
231.361	0.119028
233.171	-0.160892
234.98	-0.9221
236.787	0.51272
238.595	0.359503
240.402	0.668146
242.209	-0.490444
244.015	-0.369394
245.822	0.524094
247.627	0.329622
249.435	0.348574
251.24	1.03906
253.045	1.04941
254.849	0.79195
256.653	0.02808
258.457	0.519468
260.26	-0.384143
262.063	0.0885639
263.866	0.780651
265.668	0.19759
267.47	-0.43329
269.271	0.212845
271.073	0.0143032
272.873	1.11615
274.674	0.190731
276.474	0.0346069
278.274	0.35791
280.073	-0.164904
281.872	0.296827
283.671	0.634949
285.47	0.153601
287.268	0.344183
289.065	0.126965
290.863	0.127008
292.66	0.368483
294.456	0.229406
296.253	0.284077
298.049	0.29263
299.844	0.660408
301.637	0.621719
303.432	0.343107
305.227	-0.27112
307.021	-0.146573
308.815	0.0968399
310.609	0.245681
312.402	0.277272
314.195	0.430556
315.987	0.801087
317.777	-0.301977
319.569	0.669448
321.36	-0.14404
323.151	0.449955
324.942	0.210236
326.733	1.02113
328.521	0.279722
330.31	0.684062
332.1	0.489122
333.889	0.387182
335.677	0.114507
337.464	0.269161
339.252	-0.153437
341.039	0.450329
342.826	-0.0948668
344.611	0.220617
346.398	0.345674
348.184	0.591218
349.97	0.0497389
351.754	0.272344
353.539	0.0645609
355.324	1.00033
357.106	-0.0932884
358.89	0.694791
360.674	0.908666
362.455	0.430791
364.239	0.332986
366.021	0.448112
367.804	1.01282
369.584	0.555599
371.366	0.121723
373.145	0.610456
374.926	-0.060317
376.707	0.120372
378.485	0.278
380.265	-0.104974
382.045	-0.391257
383.822	-0.275262
385.601	0.312747
387.378	0.103258
389.156	0.2011
390.934	0.300503
392.71	0.142892
394.487	-0.765156
396.262	-0.169594
398.038	-0.0199881
399.813	0.223379
401.588	-0.238479
403.362	0.520127
405.137	0.00933933
406.912	-0.0797062
408.685	-0.263472
410.459	-0.00158119
412.23	0.330756
414.004	0.476039
415.775	0.55212
417.548	0.230679
419.318	0.00411892
421.089	0.388183
422.86	-0.14346
424.63	0.826236
426.401	0.127801
428.17	-0.524861
429.94	0.582407
431.708	0.0465946
433.478	0.661442
435.245	0.00954247
437.012	-0.2199
438.781	-0.333015
440.547	-0.21363
442.315	0.254507
444.081	0.414135
445.846	-0.225707
447.613	0.233721
449.378	0.434515
451.142	0.23804
452.908	-0.190959
454.672	0.104186
456.435	-0.207064
458.2	0.460073
459.963	0.59119
461.725	0.0954924
463.489	-0.071701
465.251	0.578252
467.012	-0.440331
468.775	0.171866
470.536	0.113043
472.296	0.311062
474.056	0.0424891
475.817	-0.438624
477.576	0.404646
479.335	0.802625
481.094	0.337282
482.854	0.40806
484.612	-0.148066
486.37	-0.118923
488.127	0.169938
489.886	0.532366
491.642	0.500202
493.398	0.328872
495.154	-0.240003
496.91	0.688204
498.667	-0.0458984
500.422	0.742393
502.176	0.287043
503.93	1.09804
505.684	0.827117
507.438	0.153922
509.191	0.371737
510.946	0.775439
512.698	0.164906
514.45	0.422689
516.202	0.631241
517.954	0.908359
519.705	1.01915
521.456	0.353325
523.206	1.14342
524.956	-0.0625906
526.706	-0.0474882
528.456	0.882061
530.207	0.849716
531.956	0.559149
533.704	0.291065
535.452	0.465909
537.2	-0.0160227
538.947	-0.592546
540.694	0.859161
542.441	1.002
544.188	0.213432
545.934	0.449096
547.68	0.104356
549.425	0.154902
551.17	0.39095
552.915	-0.0439386
554.659	0.515947
556.403	0.475041
558.145	0.11208
559.889	1.38629
561.632	0.564596
563.375	0.481223
565.117	0.123146
566.859	0.20303
568.601	0.467794
570.342	0.229215
572.083	0.176568
573.824	0.172462
575.565	0.377664
577.303	0.883942
579.043	0.221962
580.782	0.548224
582.521	-0.0212374
584.26	0.304546
585.998	0.399001
587.734	-0.382618
589.472	0.0760689
591.21	0.0272551
592.947	0.115724
594.684	-0.0720882
596.418	0.200352
598.154	0.472753
599.89	0.514516
601.626	0.34791
603.361	0.179366
605.094	0.100624
606.828	0.0659037
608.562	-0.406284
610.296	0.177624
612.027	0.669947
613.761	-0.762763
615.493	-0.107714
617.224	-0.460926
618.956	0.0326633
620.688	0.592793
622.419	0.532688
624.149	0.448499
625.879	0.707136
627.61	0.259554
629.338	0.249184
631.068	-0.16817
632.797	-0.0346994
634.525	0.305817
636.254	-0.472671
637.98	0.298341
639.708	0.311765
641.436	0.525781
643.162	-0.198632
644.889	-0.468258
646.614	0.58249
648.34	0.429967
650.067	1.12339
651.791	-0.312923
653.516	-0.198204
655.239	-0.0783129
656.964	-0.228016
658.687	0.694737
660.411	0.226737
662.133	-0.678614
663.857	0.193861
665.58	0.423339
667.301	0.60426
669.024	0.349591
670.744	0.119015
672.464	-0.0858231
674.186	0.239565
675.905	0.499955
677.626	1.08401
679.345	0.429095
681.065	0.369079
682.783	0.467206
684.503	1.04555
686.22	0.23953
687.939	1.22719
689.656	-0.320394
691.372	0.664623
693.09	0.819396
694.806	0.581406
696.523	0.18073
698.239	-0.175507
699.953	-0.579358
701.67	0.0733633
703.384	-0.0115328
705.098	1.005
706.813	0.206259
708.526	0.371221
710.239	0.122912
711.954	0.37808
713.666	0.129175
715.378	0.908723
717.091	0.522426
718.802	-0.113914
720.513	0.960392
722.226	0.712375
723.936	0.783398
725.646	0.331275
727.355	0.742537
729.067	0.97085
730.776	-0.00340176
732.484	0.337192
734.192	0.360088
735.902	0.654227
737.61	0.361342
739.317	0.137723
741.024	0.772501
742.731	1.20548
744.439	0.829611
746.145	0.253785
747.851	0.310353
749.556	-0.148439
751.262	0.901692
752.966	0.491792
754.673	0.758802
756.377	0.420585
758.081	0.985055
759.784	0.921524
761.487	1.15271
763.19	1.24963
764.892	1.143
766.594	0.537334
768.296	1.28461
770	1.12458
771.701	1.54935
773.402	0.705669
775.102	1.26333
776.803	1.09829
778.503	1.29703
780.202	1.52076
781.901	1.20333
783.6	1.90427
785.299	0.77016
786.997	2.14495
788.695	1.25123
790.393	0.760406
792.09	1.26068
793.787	1.32872
795.484	1.19327
797.18	1.62291
798.877	1.71665
800.572	1.20539
802.268	1.03421
803.963	1.7187
805.658	1.54814
807.35	1.82582
809.044	0.372262
810.738	1.29751
812.432	1.61459
814.125	0.787685
815.818	0.90198
817.51	0.568694
819.202	1.77805
820.894	1.40029
822.584	1.62618
824.275	2.23198
825.966	1.12356
827.657	0.843591
829.347	1.70362
831.037	1.76651
832.725	1.054
834.414	1.90438
836.103	1.73119
837.792	1.44581
839.481	1.71654
841.167	2.14138
842.854	1.49195
844.542	1.26614
846.229	1.80129
847.914	1.44516
849.6	2.03217
851.287	1.07881
852.973	1.24734
854.656	2.40491
856.341	1.85736
858.026	1.86902
859.711	0.797901
861.393	0.803361
863.077	1.05423
864.761	1.9119
866.442	0.920077
868.125	0.715989
869.808	1.07498
871.489	1.18548
873.171	1.09266
874.85	1.24789
876.532	1.08724
878.213	1.71651
879.892	0.720505
881.572	2.11666
883.251	0.667257
884.931	1.11246
886.61	0.584902
888.287	0.890055
889.966	1.21507
891.643	1.10927
893.321	0.48361
894.997	0.779703
896.675	0.309355
898.352	1.38784
900.028	0.242012
901.704	1.00187
903.379	0.617931
905.055	1.06147
906.729	-0.348149
908.404	0.386593
910.077	0.475214
911.75	0.453747
913.425	0.411076
915.097	1.01288
916.771	0.770681
918.443	0.75046
920.116	0.929691
921.787	1.15374
923.46	0.848707
925.13	0.944229
926.8	0.0268402
928.472	0.679682
930.141	1.40021
931.813	0.753571
933.481	0.747261
935.15	0.586815
936.82	1.22104
938.488	0.687674
940.156	1.41334
941.825	0.663038
943.492	0.420984
945.158	-0.0421925
946.827	0.949646
948.493	0.592234
950.158	0.474789
951.824	0.267378
953.491	-0.182337
955.156	1.00225
956.82	1.37511
958.486	0.120813
960.15	0.5028
961.814	0.40155
963.477	0.0345821
965.142	0.571411
966.804	0.573599
968.467	0.151146
970.129	0.876055
971.79	0.382938
973.454	0.819576
975.115	-0.0684185
976.776	0.240467
978.436	0.573788
980.096	0.399273
981.756	0.223988
983.417	1.15345
985.077	0.884497
986.736	0.324663
988.394	0.315571
990.052	0.304632
991.71	0.314852
993.368	-0.00647736
995.025	0.379063
996.682	0.278988
998.341	0.81835
999.998	0.365133
1001.65	0.748659
1003.31	-0.189346
1004.97	0.76462
1006.62	-0.34853
1008.28	0.143063
1009.93	0.831944
1011.58	0.380276
1013.24	0.433922
1014.89	-0.125185
1016.54	-0.289027
1018.2	-0.364425
1019.85	0.414373
1021.5	0.013567
1023.16	0.139219
1024.81	0.484783
1026.46	1.37741
1028.11	0.456308
1029.76	0.735962
1031.41	0.991709
1033.06	-0.261518
1034.71	-0.0977879
1036.36	0.129095
1038.01	0.572279
1039.66	1.01466
1041.31	1.06595
1042.95	0.336756
1044.6	1.39259
1046.25	0.865206
1047.9	1.34
1049.54	1.38301
1051.19	1.49318
1052.84	0.6705
1054.48	0.0870399
1056.13	1.003
1057.77	1.2232
1059.42	1.00783
1061.06	-0.0131721
1062.71	0.13875
1064.35	0.919794
1066	0.459845
1067.64	0.976398
1069.28	0.122398
1070.93	0.636202
1072.57	0.129204
1074.21	0.70826
1075.85	0.247393
1077.49	0.612867
1079.13	0.372978
1080.78	0.329393
1082.42	0.0255184
1084.06	0.630928
1085.7	1.16852
1087.34	0.120785
1088.97	0.500124
1090.61	0.832933
1092.25	0.903946
1093.89	0.0887032
1095.53	0.116693
1097.17	0.577036
1098.8	0.349512
1100.44	0.0604248
1102.08	-0.31155
1103.71	-0.0568142
1105.35	0.178246
1106.99	-0.274178
1108.62	0.133175
1110.26	0.474186
1111.89	0.124773
1113.52	0.675396
1115.16	0.257435
1116.79	0.311092
1118.43	0.150509
1120.06	-0.223022
1121.69	0.347485
1123.32	1.1331
1124.96	-0.369562
1126.59	-0.0305672
1128.22	0.672968
1129.85	0.4366
1131.48	0.00875092
1133.11	0.671644
1134.75	-0.0765991
1136.37	0.178833
1138	0.347061
1139.63	0.44923
1141.26	-0.0266628
1142.89	-0.161432
1144.52	-0.44511
1146.15	-0.0453053
1147.78	0.781849
1149.4	-0.264957
1151.03	-0.394655
1152.66	0.28488
1154.28	0.133242
1155.91	-0.0614948
1157.54	0.211781
1159.16	0.145172
1160.79	0.0374031
1162.41	0.611763
1164.04	-0.321959
1165.66	0.360949
1167.29	0.00156593
1168.91	0.53344
1170.53	0.339787
1172.16	-0.0479603
1173.78	0.220169
1175.4	0.443615
1177.02	0.411568
1178.65	-0.403786
1180.27	0.201269
1181.89	0.151157
1183.51	-0.320713
1185.13	-0.327234
1186.75	-0.10297
1188.37	0.223938
1189.99	-0.190474
1191.61	0.0878258
1193.23	0.867683
1194.85	-0.308271
1196.47	0.657509
1198.08	0.303205
1199.7	0.412607
1201.32	0.650846
1202.94	0.329212
1204.55	0.596298
1206.17	-0.00977516
1207.79	-0.133862
1209.4	0.117897
1211.02	0.243137
1212.63	0.240545
1214.25	-0.536434
1215.86	0.537355
1217.48	-0.223947
1219.09	0.219973
1220.71	0.24769
1222.32	-0.0553493
1223.93	1.13586
1225.54	0.857632
1227.16	0.851168
1228.77	1.32261
1230.38	-0.189119
1231.99	0.203503
1233.6	0.618496
1235.22	0.808018
1236.83	0.482695
1238.44	0.0554619
1240.05	0.890423
1241.66	0.609121
1243.26	-0.231468
1244.87	1.59573
1246.48	1.31094
1248.09	1.00384
1249.7	0.943893
1251.31	0.63526
1252.92	1.36131
1254.52	0.41305
1256.13	1.07985
1257.74	1.12809
1259.34	0.267687
1260.95	1.04339
1262.55	1.15771
1264.16	0.7335
1265.76	0.619173
1267.37	0.44146
1268.97	1.25738
1270.58	1.05589
1272.18	0.831992
1273.78	-0.11909
1275.39	1.78907
1276.99	0.876636
1278.59	1.14423
1280.2	1.2036
1281.8	1.09689
1283.4	2.31444
1285	0.988421
1286.6	1.11181
1288.2	1.58813
1289.8	0.825809
1291.4	1.44886
1293	1.05919
1294.6	1.59803
1296.2	1.01933
1297.8	1.47066
1299.4	1.65067
1301	1.68372
1302.6	1.48815
1304.19	1.90877
1305.79	1.19672
1307.39	1.06034
1308.99	2.44184
1310.58	2.16054
1312.18	1.83956
1313.77	2.11353
1315.37	1.61221
1316.96	1.62364
1318.56	1.96233
1320.15	1.811
1321.75	1.39359
1323.34	0.832067
1324.94	1.79339
1326.53	1.1669
1328.12	1.43314
1329.72	1.43648
1331.31	2.00862
1332.9	1.10836
1334.49	1.26292
1336.08	1.07674
1337.67	1.69825
1339.27	1.83417
1340.86	1.48378
1342.45	1.57324
1344.04	1.15691
1345.63	1.36221
1347.22	1.54733
1348.8	0.913597
1350.39	1.42556
1351.98	1.60083
1353.57	1.29936
1355.16	1.51977
1356.75	1.74058
1358.33	1.4212
1359.92	1.30019
1361.51	1.19756
1363.09	1.23336
1364.68	1.16893
1366.27	1.72264
1367.85	0.922959
1369.44	1.43968
1371.02	1.52051
1372.61	1.60353
1374.19	0.972007
1375.77	1.37621
1377.36	1.95963
1378.94	1.42786
1380.52	1.17307
1382.11	0.975965
1383.69	1.35362
1385.27	1.27226
1386.85	1.72669
1388.43	0.929965
1390.02	1.56413
1391.6	1.20715
1393.18	1.34754
1394.76	1.34961
1396.34	1.29185
1397.92	1.17351
1399.5	1.15273
1401.08	0.932434
1402.65	1.72096
1404.23	0.629244
1405.81	1.53656
1407.39	1.25855
1408.97	1.57483
1410.54	0.765839
1412.12	1.87259
1413.7	1.43797
1415.27	1.45603
1416.85	1.43329
1418.43	0.601941
1420	1.36762
1421.58	1.62237
1423.15	1.74172
1424.73	1.7259
1426.3	1.83019
1427.87	2.11245
1429.45	2.57136
1431.02	1.96588
1432.6	1.92934
1434.17	2.46177
1435.74	3.09152
1437.31	3.2101
1438.89	2.87784
1440.46	2.64568
1442.03	2.45446
1443.6	2.95227
1445.17	3.23456
1446.74	2.80959
1448.31	2.28654
1449.88	3.53324
1451.45	3.07044
1453.02	2.76572
1454.59	2.89424
1456.16	2.11761
1457.72	2.91393
1459.29	2.98006
1460.86	2.80708
1462.43	1.90311
1463.99	1.88207
1465.56	2.15414
1467.13	1.71823
1468.69	1.2834
1470.26	1.43913
1471.83	2.22428
1473.39	2.59886
1474.95	1.07249
1476.52	1.95884
1478.08	2.2766
1479.65	1.92771
1481.21	2.08832
1482.78	1.32771
1484.34	2.17376
1485.9	1.68679
1487.47	1.80586
1489.03	1.17871
1490.59	0.842682
1492.15	1.32478
1493.71	0.279158
1495.27	2.19827
1496.84	0.428675
1498.39	0.803645
1499.96	0.634418
1501.52	0.816676
1503.07	0.554393
1504.64	0.545797
1506.19	0.789221
1507.75	0.915134
1509.31	1.05845
1510.87	0.7944
1512.43	0.799435
1513.98	0.919341
1515.54	0.385789
1517.1	0.0848627
1518.65	0.495287
1520.21	0.465178
1521.77	0.89463
1523.32	0.672754
1524.88	0.488313
1526.44	0.836568
1527.99	0.268575
1529.54	1.10824
1531.1	0.92033
1532.65	0.430437
1534.21	0.927845
1535.76	0.120705
1537.31	0.601494
1538.87	0.440647
1540.42	0.827487
1541.97	1.10068
1543.52	0.770977
1545.07	0.704809
1546.63	0.337928
1548.18	0.77831
1549.73	0.674212
1551.28	1.357
1552.83	1.34721
1554.38	1.07735
1555.93	0.735435
1557.48	0.658033
1559.03	1.14348
1560.57	0.960081
1562.12	0.723243
1563.67	0.935821
1565.22	0.813442
1566.77	0.933753
1568.31	0.811094
1569.86	0.986454
1571.41	0.974579
1572.95	1.55961
1574.5	1.47243
1576.05	1.03061
1577.59	1.67186
1579.14	0.913629
1580.68	1.74336
1582.23	1.17392
1583.77	0.923088
1585.31	1.23388
1586.86	1.20915
1588.4	2.00757
1589.95	1.45901
1591.49	1.82655
1593.03	1.44457
1594.57	1.38035
1596.11	1.76586
1597.66	2.22726
1599.2	1.43384
1600.74	1.82265
1602.28	1.98734
1603.82	2.07701
1605.36	1.24503
1606.9	2.10166
1608.44	1.60215
1609.98	1.90711
1611.52	1.3064
1613.06	1.96132
1614.6	1.39358
1616.13	1.85748
1617.67	1.70306
1619.21	1.56946
1620.75	1.15743
1622.28	1.4405
1623.82	1.51879
1625.36	1.82166
1626.89	1.54299
1628.43	1.28112
1629.96	1.54088
1631.5	1.25678
1633.04	1.43938
1634.57	1.21161
1636.11	1.95553
1637.64	1.4321
1639.17	1.5998
1640.71	1.89785
1642.24	1.63576
1643.77	2.41484
1645.31	1.64661
1646.84	1.80771
1648.37	1.65225
1649.9	1.55338
1651.43	2.05
1652.96	1.89895
1654.5	1.78688
1656.03	1.63878
1657.56	1.63884
1659.09	1.48947
1660.62	0.967978
1662.15	1.36985
1663.67	1.93576
1665.2	1.53951
1666.73	1.25523
1668.26	1.24972
1669.79	1.26494
1671.32	0.527032
1672.84	1.41213
1674.37	1.00839
1675.9	0.880589
1677.43	0.843646
1678.95	0.253222
1680.48	1.04074
1682	1.03612
1683.53	0.975939
1685.05	1.26461
1686.58	0.489856
1688.1	0.816363
1689.63	0.630196
1691.15	0.920618
1692.68	0.954655
1694.2	0.403246
1695.72	0.546818
1697.25	0.196515
1698.77	0.686074
1700.29	0.681641
1701.81	0.566972
1703.33	0.488027
1704.86	0.353716
1706.38	0.673786
1707.9	0.556594
1709.42	0.566628
1710.94	0.486045
1712.46	0.659707
1713.98	0.0724325
1715.5	0.445597
1717.02	0.709521
1718.54	0.340272
1720.06	0.838246
1721.57	0.325346
1723.09	0.156674
1724.61	0.115876
1726.13	0.617334
1727.64	0.45442
1729.16	0.275105
1730.68	0.739812
1732.19	0.518904
1733.71	0.410573
1735.23	0.466796
1736.74	0.958852
1738.26	0.301229
1739.77	0.365189
1741.29	0.584152
1742.8	0.359015
1744.31	-0.028223
1745.83	0.434363
1747.34	0.206965
1748.85	0.355952
1750.37	-0.00541496
1751.88	0.268405
1753.39	0.885175
1754.91	-0.295309
1756.42	0.057539
1757.93	0.425527
1759.44	0.402425
1760.95	-0.151757
1762.46	0.176376
1763.97	-0.228604
1765.48	0.501821
1766.99	0.168789
1768.5	-0.162208
1770.01	0.0639591
1771.52	-0.143226
1773.03	0.348126
1774.54	-0.20256
1776.04	0.288537
1777.55	-0.0562601
1779.06	0.0434179
1780.57	-0.101363
1782.07	-0.0318718
1783.58	-0.120551
1785.09	-0.269792
1786.59	0.331393
1788.1	-0.173904
1789.6	0.139095
1791.11	0.0759802
1792.61	0.0769863
1794.12	-0.00365543
1795.62	0.109941
1797.13	0.134858
1798.63	0.213943
1800.13	0.0626841
1801.64	0.0568438
1803.14	-0.0161676
1804.64	0.0919609
1806.15	0.234396
1807.65	0.230336
1809.15	0.41802
1810.65	0.0967226
1812.15	0.0198927
1813.65	-0.14639
1815.16	-0.292561
1816.66	-0.063261
1818.15	-0.0286818
1819.66	-0.201378
1821.16	0.122742
1822.65	0.117279
1824.15	0.0515137
1825.65	-0.0753927
1827.15	0.00742626
1828.65	0.128073
1830.15	-0.188619
1831.64	0.18681
1833.14	0.482433
1834.64	0.173899
1836.14	0.180701
1837.63	-0.166205
1839.13	-0.204796
1840.62	0.0565577
1842.12	-0.157471
1843.62	0.110611
1845.11	0.487495
1846.61	0.0154495
1848.1	-0.376916
1849.6	-0.363814
1851.09	-0.0123787
1852.58	0.406075
1854.08	-0.176107
1855.57	0.318013
1857.06	0.132895
1858.55	-0.105911
1860.05	0.190393
1861.54	0.152624
1863.03	-0.0357761
1864.52	0.110259
1866.01	-0.0732603
1867.5	0.26992
1869	-0.166607
1870.49	0.717837
1871.98	0.158863
1873.47	-0.154022
1874.96	0.353922
1876.44	0.241846
1877.93	0.0565586
1879.42	-0.0557966
1880.91	0.131506
1882.4	0.191796
1882.47	0.193651
1883.96	-0.0858917
1885.46	0.0866833
1886.95	-0.0557346
1888.44	0.462708
1889.94	0.28489
1891.43	-0.204337
1892.93	-0.0997515
1894.42	0.19875
1895.91	-0.474077
1897.4	-0.032814
1898.89	0.338955
1900.39	0.0830345
1901.88	0.224801
1903.37	0.537742
1904.86	0.570059
1906.35	-0.04179
1907.84	0.371476
1909.33	-0.256215
1910.82	0.0375862
1912.31	0.748899
1913.8	0.246753
1915.29	0.438583
1916.77	0.0924006
1918.26	0.0055666
1919.75	0.264633
1921.24	0.436756
1922.73	0.574739
1924.21	-0.29014
1925.7	0.301013
1927.19	-0.231503
1928.67	0.137213
1930.16	0.176999
1931.64	0.388798
1933.13	0.252097
1934.61	0.182028
1936.1	-0.271155
1937.58	-0.120437
1939.07	0.253993
1940.55	0.265705
1942.04	-0.0664949
1943.52	-0.189802
1945	0.102141
1946.49	0.584121
1947.97	0.341669
1949.45	0.167193
1950.93	0.198
1952.42	0.0552921
1953.9	0.444957
1955.38	-0.0080843
1956.86	-0.150856
1958.34	0.342567
1959.82	0.236179
1961.3	0.490821
1962.78	-0.0257349
1964.26	0.263141
1965.74	-0.0141096
1967.22	0.170027
1968.7	-0.0233555
1970.18	0.449259
1971.65	0.527944
1973.13	-0.00806141
1974.61	0.258481
1976.09	0.388556
1977.57	0.552791
1979.04	0.478652
1980.52	0.370559
1982	-0.0776262
1983.47	0.204811
1984.95	0.0959282
1986.42	-0.09797
1987.9	0.0812254
1989.37	0.192868
1990.85	0.136099
1992.32	-0.0883493
1993.8	0.365134
1995.27	-0.262067
1996.75	0.193033
1998.22	0.174937
1999.69	0.00428677
2001.17	0.811628
2002.64	0.554839
2004.11	0.331783
2005.58	0.935085
2007.05	0.0736094
2008.53	0.207599
2010	0.24181
2011.47	-0.177682
2012.94	-0.681121
2014.41	0.14447
2015.88	0.161018
2017.35	0.0248461
2018.82	0.307828
2020.29	-0.0655966
2021.76	0.014555
2023.23	0.548285
2024.7	0.663247
2026.16	0.226389
2027.63	0.596891
2029.1	0.28196
2030.57	0.052844
2032.03	0.17746
2033.5	0.890463
2034.97	0.344481
2036.44	0.654305
2037.9	0.392187
2039.37	0.398249
2040.83	0.673154
2042.3	0.292991
2043.76	0.21645
2045.23	-0.0270767
2046.69	0.285837
2048.16	0.262673
2049.62	-0.0306158
2051.08	0.21391
2052.55	1.06346
2054.01	0.645499
2055.47	0.359811
2056.94	0.0553045
2058.4	0.406989
2059.86	0.000126839
2061.32	0.604403
2062.79	0.334194
2064.25	0.318048
2065.71	0.673637
2067.17	0.441486
2068.63	0.597322
2070.09	0.316028
2071.55	0.522982
2073.01	0.241495
2074.47	0.498407
2075.93	0.805377
2077.39	-0.100704
2078.85	0.541923
2080.31	0.695477
2081.76	0.545095
2083.22	0.326436
2084.68	0.897691
2086.13	0.72727
2087.59	0.371075
2089.05	0.552364
2090.51	0.59877
2091.96	0.443546
2093.42	0.691072
2094.87	0.4516
2096.33	0.278724
2097.78	0.942532
2099.24	0.700646
2100.69	0.558951
2102.15	0.584869
2103.6	0.394866
2105.06	0.490714
2106.51	0.638596
2107.96	0.671247
2109.42	0.871192
2110.87	0.820205
2112.32	0.817273
2113.77	0.828413
2115.23	0.604115
2116.68	1.02716
2118.13	0.901749
2119.58	0.79509
2121.03	1.42139
2122.48	1.08831
2123.93	0.591817
2125.38	0.776278
2126.83	1.07642
2128.28	0.894272
2129.73	0.942144
2131.18	0.789252
2132.63	0.701506
2134.08	0.779192
2135.53	1.18861
2136.97	1.20317
2138.42	0.956101
2139.87	0.910209
2141.32	1.04859
2142.76	1.22192
2144.21	1.1648
2145.66	1.42231
2147.1	1.53059
2148.55	1.62142
2150	0.567883
2151.44	1.76586
2152.89	1.91862
2154.33	1.49018
2155.78	1.80656
2157.22	1.27814
2158.66	0.734243
2160.11	1.51749
2161.55	1.97225
2163	1.25313
2164.44	2.04515
2165.88	1.5779
2167.32	1.64152
2168.77	2.10267
2170.21	1.76322
2171.65	1.38704
2173.09	1.80634
2174.53	1.47491
2175.97	1.80787
2177.41	1.12669
2178.85	1.79346
2180.29	1.66362
2181.73	1.83441
2183.17	1.42412
2184.61	1.44658
2186.05	1.71869
2187.49	1.64152
2188.93	1.46453
2190.37	1.25415
2191.81	1.29302
2193.24	1.68048
2194.68	1.08367
2196.12	1.48308
2197.56	1.54644
2198.99	0.742448
2200.43	1.06784
2201.87	1.29284
2203.3	1.65117
2204.74	1.43036
2206.17	0.929605
2207.61	0.844274
2209.04	0.52695
2210.48	1.11916
2211.91	1.03102
2213.35	1.1402
2214.78	0.968187
2216.21	0.533138
2217.65	1.23857
2219.08	0.658882
2220.51	0.723848
2221.95	0.805486
2223.38	0.787218
2224.81	0.470569
2226.24	0.661952
2227.67	0.867028
2229.1	0.954802
2230.54	1.1068
2231.97	0.340416
2233.4	1.213
2234.83	0.694919
2236.26	1.07808
2237.69	0.85895
2239.11	0.463404
2240.54	0.62569
2241.97	0.969971
2243.4	0.680026
2244.83	0.341698
2246.26	0.410242
2247.69	0.737477
2249.11	0.425589
2250.54	0.746149
2251.97	0.78687
2253.4	0.305805
2254.82	0.475873
2256.25	0.452872
2257.67	0.400815
2259.1	0.450233
2260.53	0.617476
2261.95	0.658568
2263.38	0.539701
2264.8	0.469955
2266.23	0.448421
2267.65	0.539592
2269.07	1.03634
2270.5	0.213599
2271.92	1.00165
2273.34	0.0145826
2274.77	0.0860195
2276.19	0.41846
2277.61	0.294985
2279.03	0.0248194
2280.46	0.586065
2281.88	0.0219812
2283.3	0.501612
2284.72	-0.144458
2286.14	0.352031
2287.56	0.47378
2288.98	-0.187761
2290.4	0.703068
2291.82	0.270942
2293.24	0.411013
2294.66	0.403929
2296.08	-0.0943413
2297.5	0.487649
2298.92	0.4149
2300.34	0.637361
2301.76	0.565294
2303.17	0.280287
2304.59	0.750282
2306.01	-0.142445
2307.43	0.130056
2308.84	0.402025
2310.26	0.42669
2311.68	0.154685
2313.09	0.129238
2314.51	0.449973
2315.92	0.195672
2317.34	-0.337824
2318.75	0.381546
2320.17	0.44168
2321.58	-0.440208
2323	0.341687
2324.41	0.311702
2325.82	0.591906
2327.24	0.737433
2328.65	0.189412
2330.06	0.383443
2331.48	0.0352154
2332.89	-0.0313663
2334.3	0.347581
2335.71	0.200325
2337.12	0.00318718
2338.54	0.150057
2339.95	0.114401
2341.36	-0.168931
2342.77	0.564837
2344.18	0.510344
2345.59	0.177679
2347	0.566536
2348.41	0.447526
2349.82	0.229964
2351.23	-0.0210962
2352.64	0.0371752
2354.04	-0.0202436
2355.45	0.100752
2356.86	-0.153525
2358.27	0.275815
2359.68	0.184475
2361.08	0.401845
2362.49	0.505236
2363.9	-0.26635
2365.3	0.0152664
2366.71	-0.0428762
2368.12	0.287422
2369.52	-0.171863
2370.93	-0.225584
2372.33	0.060955
2373.74	-0.214958
2375.14	0.28258
2376.55	0.183875
2377.95	0.18023
2379.36	0.254723
2380.76	-0.154927
2382.16	-0.14884
2383.57	0.112176
2384.97	0.27619
2386.37	0.200699
2387.78	0.126643
2389.18	-0.105016
2390.58	0.621414
2391.98	0.695764
2393.38	0.0714293
2394.79	0.530431
2396.19	-0.408942
2397.59	0.5604
2398.99	0.0841351
2400.39	0.307785
2401.79	-0.103521
2403.19	0.422361
2404.59	0.20127
2405.99	-0.0526791
2407.39	0.453855
2408.78	0.118198
2410.18	0.400565
2411.58	-0.172611
2412.98	0.237724
2414.38	-0.268689
2415.77	0.081995
2417.17	0.0546169
2418.57	0.0760641
2419.97	-0.0761328
2421.36	0.151623
2422.76	-0.143839
2424.15	-0.186282
2425.55	0.246718
2426.95	0.474527
2428.34	0.212231
2429.74	0.34762
2431.13	0.626973
2432.52	0.144855
2433.92	-0.0525484
2435.31	-0.172215
2436.71	-0.309891
2438.1	0.0428219
2439.49	0.202971
2440.89	0.0123291
2442.28	0.0432558
2443.67	0.0578632
2445.06	-0.0864172
2446.46	-0.119819
2447.85	0.417126
2449.24	0.272412
2450.63	0.0648108
2452.02	-0.284339
2453.41	0.0323792
2454.8	0.033762
2456.19	0.194333
2457.58	0.181366
2458.97	0.0891171
2460.36	-0.0197277
2461.75	0.534386
2463.14	0.312531
2464.53	0.216355
2465.92	-0.0539141
2467.31	-0.260954
2468.69	-0.104985
2470.08	0.397523
2471.47	0.284131
2472.86	0.343168
2474.24	0.212099
2475.63	0.111725
2477.02	0.309588
2478.4	0.0830021
2479.79	0.12377
2481.17	0.164717
2482.56	-0.0295
2483.94	0.339523
2485.33	-0.0910273
2486.72	0.00889778
2488.1	-0.0178156
2489.48	-0.294904
2490.87	-0.0578918
2492.25	0.17921
2493.64	-0.0796261
2495.02	0.0362663
2496.4	0.200254
2497.79	0.272322
2499.17	-0.166085
2500.55	-0.00107479
2501.93	0.487149
2503.31	0.123837
2504.69	-0.20922
2506.08	-0.234296
2507.46	-0.290466
2508.84	0.160986
2510.22	0.166679
2511.6	0.0658684
2512.98	0.0123482
2514.36	-0.407464
2515.74	0.20007
2517.12	-0.155776
2518.5	-0.0211935
2519.88	0.220485
2521.25	-0.118818
2522.63	0.258753
2524.01	0.177036
2525.39	0.323005
2526.77	-0.308311
2528.14	0.248766
2529.52	0.107108
2530.9	0.104644
2532.27	-0.00177193
2533.65	-0.136573
2535.03	-0.0576105
2536.4	0.127677
2537.78	-0.174082
2539.15	0.130436
2540.53	0.0540247
2541.9	-0.387147
2543.28	0.234406
2544.65	0.143864
2546.03	0.29778
2547.4	-0.0622606
2548.77	0.00363159
2550.15	0.403549
2551.52	-0.395985
2552.89	-0.301471
2554.27	0.155796
2555.64	0.171635
2557.01	0.110802
2558.38	0.641163
2559.75	-0.0259819
2561.12	0.611376
2562.5	-0.144739
2563.87	0.100263
2565.24	0.0731077
2566.61	-0.0294504
2567.98	0.156064
2569.35	0.114278
2570.72	0.0876389
2572.09	0.242948
2573.46	0.186171
2574.83	0.341763
2576.19	0.209377
2577.56	0.334627
2578.93	0.277618
2580.3	-0.128645
2581.67	0.616889
2583.04	0.0730534
2584.4	0.165683
2585.77	-0.0449533
2587.14	0.320568
2588.5	-0.0260077
2589.87	-0.266281
2591.23	0.251003
2592.6	-0.323391
2593.97	0.37379
2595.33	0.705658
2596.7	0.127515
2598.06	-0.057868
2599.43	-0.425034
2600.79	-0.474328
2602.15	0.322831
2603.52	-0.0572653
2604.88	0.0617313
2606.25	-0.150912
2607.61	0.23933
2608.97	0.160833
2610.33	0.412068
2611.7	0.224544
2613.06	0.0656996
2614.42	0.191454
2615.78	0.00140858
2617.15	0.321741
2618.51	-0.07656
2619.87	-0.263556
2621.23	-0.16512
2622.59	0.486799
2623.95	-0.340129
2625.31	0.0128775
2626.67	0.0817165
2628.03	-0.207646
2629.39	-0.169423
2630.75	0.299907
2632.1	-0.168249
2633.46	0.121855
2634.82	0.292712
2636.18	-0.18929
2637.54	0.322303
2638.89	-0.218118
2640.25	0.0414505
2641.61	0.227073
2642.97	-0.104232
2644.32	0.170468
2645.68	0.208652
2647.03	0.143031
2648.39	0.223829
2649.75	0.803662
2651.1	0.469835
2652.46	-0.128152
2653.81	0.507762
2655.17	0.249393
2656.52	0.242035
2657.88	0.0314531
2659.23	-0.236091
2660.58	0.257575
2661.94	-0.0239878
2663.29	0.175939
2664.64	0.345262
2666	0.177768
2667.35	-0.106762
2668.7	0.0895548
2670.05	0.00947762
2671.4	0.177436
2672.76	-0.075305
2674.11	0.326644
2675.46	0.293565
2676.81	-0.493106
2678.16	-0.0309658
2679.51	0.200063
2680.86	0.244024
2682.21	-0.11625
2683.56	0.308125
2684.91	0.0958862
2686.26	-0.115773
2687.61	0.107713
2688.96	0.402257
2690.3	0.142761
2691.65	0.490303
2693	0.240524
2694.35	0.163537
2695.7	0.448648
2697.04	0.444616
2698.39	-0.180247
2699.74	-0.237805
2701.08	0.127007
2702.43	0.349257
2703.77	0.558733
2705.12	0.276286
2706.47	0.124203
2707.81	0.145754
2709.16	0.500631
2710.5	0.346954
2711.85	0.32351
2713.19	0.241725
2714.53	0.159792
2715.88	0.426688
2717.22	0.053606
2718.57	0.130951
2719.91	0.440633
2721.25	0.342287
2722.59	0.839963
2723.94	0.361782
2725.28	0.188612
2726.62	0.335116
2727.96	0.248283
2729.3	0.219326
2730.65	0.248366
2731.99	0.815647
2733.33	0.175521
2734.67	0.350333
2736.01	0.307242
2737.35	0.104382
2738.69	0.745028
2740.03	0.410927
2741.37	0.512424
2742.71	0.133225
2744.05	0.538002
2745.38	0.37501
2746.72	0.356731
2748.06	0.280115
2749.4	-0.101068
2750.74	0.0114479
2752.07	0.0662537
2753.41	0.353239
2754.75	0.27808
2756.09	0.492847
2757.42	0.331252
2758.76	0.676771
2760.09	-0.149615
2761.43	0.573362
2762.77	0.414231
2764.1	-0.0627165
2765.44	0.0535955
2766.77	0.545418
2768.11	0.153455
2769.44	0.020155
2770.77	0.289551
2772.11	0.15228
2773.44	0.158007
2774.77	-0.0533428
2776.11	0.254138
2777.44	-0.143599
2778.77	0.2654
2780.11	-0.446347
2781.44	0.22198
2782.77	0.0428343
2784.1	0.136344
2785.43	-0.11429
2786.77	0.0366945
2788.1	0.102304
2789.43	-0.0456734
2790.76	-0.0349159
2792.09	0.119933
2793.42	-0.0819874
2794.75	0.459447
2796.08	0.357178
2797.41	-0.28861
2798.74	0.136157
2800.07	0.160326
2801.4	0.155559
2802.72	-0.17742
2804.05	0.273379
2805.38	0.338511
2806.71	0.146484
2808.04	-0.0604162
2809.36	-0.0828638
2810.69	0.263962
2812.02	0.313101
2813.34	0.363803
2814.67	-0.20726
2816	0.159573
2817.32	0.145244
2818.65	0.231002
2819.97	0.345155
2821.3	0.557884
2822.62	0.259439
2823.95	0.314386
2825.27	-0.0561495
2826.6	0.649783
2827.92	0.308437
2829.25	0.548429
2830.57	0.633356
2831.89	0.407186
2833.22	0.548993
2834.54	0.718647
2835.86	0.717739
2837.18	0.843395
2838.51	0.756163
2839.83	0.880792
2841.15	1.10445
2842.47	1.54063
2843.79	1.45469
2845.11	2.26017
2846.43	2.09145
2847.76	2.05048
2849.08	1.89649
2850.4	2.09543
2851.72	2.46325
2853.04	2.70305
2854.36	2.78677
2855.67	2.71475
2856.99	2.95349
2858.31	3.09338
2859.63	2.39998
2860.95	3.03385
2862.27	2.98937
2863.58	2.94436
2864.9	3.0683
2866.22	3.36139
2867.54	3.45726
2868.85	3.34223
2870.17	3.81998
2871.49	3.8327
2872.8	3.95776
2874.12	4.03942
2875.43	4.03492
2876.75	4.09918
2878.07	3.95105
2879.38	3.74636
2880.7	3.90779
2882.01	4.18263
2883.32	4.62735
2884.64	4.17467
2885.95	3.61082
2887.27	4.28243
2888.58	4.27959
2889.89	4.17742
2891.21	4.87331
2892.52	4.60057
2893.83	4.93019
2895.14	4.93797
2896.46	5.00296
2897.77	5.5173
2899.08	4.95571
2900.39	5.26286
2901.7	5.29092
2903.01	5.13747
2904.32	6.21513
2905.63	5.293
2906.94	5.93828
2908.25	6.12326
2909.56	6.04374
2910.87	6.27297
2912.18	6.51632
2913.49	6.12862
2914.8	6.4948
2916.11	6.36838
2917.42	6.53351
2918.72	5.84356
2920.03	6.6503
2921.34	6.88422
2922.65	7.10588
2923.95	7.51132
2925.26	7.63895
2926.57	7.2923
2927.88	7.0855
2929.18	7.36745
2930.49	7.29906
2931.79	7.59342
2933.1	7.46798
2934.4	7.23068
2935.71	7.25914
2937.01	6.75679
2938.32	7.59626
2939.62	7.17846
2940.93	6.70552
2942.23	6.96046
2943.54	6.40657
2944.84	6.7212
2946.14	6.64619
2947.45	6.13835
2948.75	5.83975
2950.05	5.86136
2951.35	5.44636
2952.66	5.18262
2953.96	5.67294
2955.26	5.33658
2956.56	4.72157
2957.86	4.73923
2959.16	4.92867
2960.46	4.54784
2961.77	4.5059
2963.07	4.50716
2964.37	4.60601
2965.66	4.35179
2966.96	4.13714
2968.26	4.15943
2969.56	4.27904
2970.86	4.25784
2972.16	3.91346
2973.46	4.20266
2974.76	3.68968
2976.06	3.69653
2977.35	3.58894
2978.65	3.23957
2979.95	3.38051
2981.25	3.06914
2982.54	3.08066
2983.84	3.02228
2985.14	2.93735
2986.43	2.65787
2987.73	2.33838
2989.02	2.49809
2990.32	2.50367
2991.62	2.2556
2992.91	2.07633
2994.21	1.58619
2995.5	1.6706
2996.8	1.99255
2998.09	1.78059
2999.38	1.77954
3000.68	1.27445
3001.97	0.966778
3003.26	1.61274
3004.56	1.05375
3005.85	0.998877
3007.14	0.775211
3008.43	0.634528
3009.73	1.03807
3011.02	0.895041
3012.31	0.807411
3013.6	0.789618
3014.89	0.396022
3016.19	0.491506
3017.48	0.184162
3018.77	0.420568
3020.06	0.948894
3021.35	0.530849
3022.64	0.723262
3023.93	0.372711
3025.22	0.40986
3026.5	-0.107456
3027.79	0.165542
3029.08	0.176876
3030.37	0.0797243
3031.66	-0.0290699
3032.95	0.374507
3034.24	-0.00835037
3035.52	0.105003
3036.81	-0.335038
3038.1	-0.15693
3039.39	0.197163
3040.67	-0.345232
3041.96	-0.022769
3043.25	0.06563
3044.53	-0.0640926
3045.82	-0.10924
3047.1	-0.164991
3048.39	0.178482
3049.67	0.210739
3050.96	-0.0140133
3052.24	0.199098
3053.53	-0.188101
3054.81	-0.00309277
3056.1	-0.0650988
3057.38	0.0486441
3058.67	0.433618
3059.95	0.000732422
3061.23	-0.145406
3062.52	0.0499306
3063.8	0.0974321
3065.08	0.2694
3066.36	0.388963
3067.65	0.333246
3068.93	0.169303
3070.21	-0.131038
3071.49	0.016264
3072.77	0.0530691
3074.05	-0.0070591
3075.33	-0.150011
3076.61	-0.0488806
3077.89	-0.313827
3079.17	0.549035
3080.45	0.15198
3081.73	-0.134236
3083.01	-0.0931463
3084.29	0.179621
3085.57	0.140461
3086.85	0.100665
3088.13	0.00556374
3089.41	-0.0362377
3090.68	-0.105834
3091.96	0.0821304
3093.24	0.188824
3094.52	-0.0567045
3095.79	-0.0441408
3097.07	0.117661
3098.35	0.103109
3099.62	-0.182637
3100.9	0.290219
3102.18	-0.0767555
3103.45	-0.0234652
3104.73	0.179384
3106	-0.293492
3107.28	-0.156062
3108.55	0.239925
3109.83	-0.39121
3111.1	0.305604
3112.38	0.13711
3113.65	0.0775023
3114.93	0.0991821
3116.2	0.296517
3117.47	0.0044651
3118.75	0.321166
3120.02	0.283646
3121.29	0.299011
3122.57	0.177961
3123.84	0.28698
3125.11	0.369046
3126.38	0.0185423
3127.65	0.44027
3128.92	0.145629
3130.2	0.284349
3131.47	0.260924
3132.74	0.372458
3134.01	-0.0703974
3135.28	0.49893
3136.55	0.527101
3137.82	0.257881
3139.09	0.109759
3140.36	0.486546
3141.63	0.405501
3142.9	0.217503
3144.17	0.500367
3145.43	0.0726185
3146.7	0.437383
3147.97	0.33369
3149.24	0.592439
