200.554	-0.0051899
202.369	0.0456505
204.183	0.0981941
205.999	1.10113
207.813	0.81517
209.626	0.990061
211.439	0.53104
213.253	0.603951
215.065	0.334972
216.877	0.259161
218.688	1.00704
220.5	-0.616611
222.312	-0.15626
224.123	-0.540899
225.933	0.28414
227.742	-0.340801
229.552	0.0722561
231.361	0.266615
233.171	1.64227
234.98	-0.0930729
236.787	-0.450642
238.595	0.135937
240.402	-0.405527
242.209	0.889591
244.015	0.451347
245.822	0.302
247.627	0.559727
249.435	0.256781
251.24	0.50284
253.045	1.08117
254.849	0.497639
256.653	-0.158365
258.457	0.320507
260.26	0.200006
262.063	0.613247
263.866	0.0178719
265.668	-0.57571
267.47	0.759048
269.271	0.044632
271.073	-0.237759
272.873	0.345465
274.674	-0.062664
276.474	-0.305204
278.274	-0.0451984
280.073	0.306963
281.872	0.341742
283.671	1.40679
285.47	0.328814
287.268	-0.244564
289.065	-0.529076
290.863	0.386015
292.66	-0.469053
294.456	1.1915
296.253	-0.111412
298.049	0.572355
299.844	-0.248623
301.637	0.0290451
303.432	-0.315929
305.227	-0.209639
307.021	-0.224514
308.815	0.403765
310.609	0.722725
312.402	0.829412
314.195	0.891672
315.987	0.028904
317.777	0.955467
319.569	0.57522
321.36	-0.256023
323.151	0.320278
324.942	0.611618
326.733	1.1422
328.521	0.549837
330.31	0.624771
332.1	0.21896
333.889	1.55602
335.677	0.161238
337.464	0.365034
339.252	0.253698
341.039	1.52639
342.826	0.955816
344.611	0.576731
346.398	0.294447
348.184	0.300133
349.97	0.211195
351.754	0.575659
353.539	-0.325876
355.324	0.321493
357.106	0.345783
358.89	0.701036
360.674	-0.18475
362.455	-0.000328064
364.239	-0.31698
366.021	-0.39698
367.804	0.0912228
369.584	-0.0634308
371.366	0.775286
373.145	-0.0216846
374.926	0.12763
376.707	0.111452
378.485	0.497086
380.265	-0.411921
382.045	0.0714321
383.822	-0.102175
385.601	-0.0381489
387.378	-0.324469
389.156	0.143105
390.934	0.236441
392.71	-0.302906
394.487	-0.394947
396.262	0.171129
398.038	0.619932
399.813	0.152296
401.588	0.200462
403.362	-0.128506
405.137	0.668423
406.912	0.289541
408.685	0.379095
410.459	-0.212761
412.23	0.0169926
414.004	0.646317
415.775	0.596361
417.548	-0.085638
419.318	0.969889
421.089	0.617832
422.86	0.12426
424.63	0.380365
426.401	0.939884
428.17	0.535177
429.94	0.411261
431.708	0.498486
433.478	0.116879
435.245	-0.1703
437.012	-0.105593
438.781	1.20155
440.547	0.557837
442.315	0.966051
444.081	0.502241
445.846	0.0120621
447.613	0.667202
449.378	0.759094
451.142	0.383728
452.908	-0.900805
454.672	0.849174
456.435	-0.153799
458.2	-0.247322
459.963	0.404005
461.725	-0.0139885
463.489	-0.475094
465.251	0.206942
467.012	-0.128342
468.775	1.44709
470.536	0.794777
472.296	0.584858
474.056	0.745682
475.817	1.25256
477.576	0.148054
479.335	0.950104
481.094	0.0265636
482.854	-0.337561
484.612	0.371801
486.37	0.572386
488.127	0.800365
489.886	0.402664
491.642	-0.647457
493.398	-0.553423
495.154	0.312853
496.91	0.314333
498.667	0.362083
500.422	1.06561
502.176	0.90057
503.93	0.169735
505.684	-0.0237122
507.438	0.297386
509.191	1.06282
510.946	1.49614
512.698	1.05573
514.45	0.965342
516.202	0.401829
517.954	1.05919
519.705	1.10291
521.456	0.534235
523.206	0.38788
524.956	1.08618
526.706	0.188511
528.456	0.97986
530.207	1.2077
531.956	1.31733
533.704	1.00388
535.452	1.10953
537.2	1.74972
538.947	1.89563
540.694	2.03885
542.441	1.1786
544.188	0.994276
545.934	1.36793
547.68	0.835955
549.425	1.18648
551.17	1.62922
552.915	1.09988
554.659	1.61173
556.403	0.576584
558.145	0.535744
559.889	-0.264393
561.632	-0.210478
563.375	0.534361
565.117	0.497692
566.859	0.094738
568.601	0.290592
570.342	-0.292013
572.083	0.160597
573.824	0.68487
575.565	1.1207
577.303	0.137148
579.043	0.532698
580.782	0.378729
582.521	-0.142967
584.26	0.437323
585.998	0.349148
587.734	0.21254
589.472	0.18866
591.21	0.370121
592.947	-0.231657
594.684	-0.281544
596.418	-0.193335
598.154	0.124826
599.89	0.465258
601.626	0.021904
603.361	-0.147682
605.094	-0.020977
606.828	-0.172508
608.562	0.547276
610.296	-0.0192108
612.027	-0.400669
613.761	0.0679207
615.493	0.308132
617.224	0.525517
618.956	0.947794
620.688	0.108648
622.419	-0.297224
624.149	-0.246893
625.879	0.191704
627.61	0.563253
629.338	0.0938168
631.068	-0.165747
632.797	0.696497
634.525	1.3098
636.254	1.03229
637.98	0.591532
639.708	1.14987
641.436	0.356367
643.162	-0.0986557
644.889	0.42388
646.614	0.741432
648.34	1.08483
650.067	0.729568
651.791	0.0408573
653.516	-0.0273571
655.239	-0.408195
656.964	0.238955
658.687	0.387547
660.411	0.238928
662.133	-0.324062
663.857	0.639162
665.58	-0.00154877
667.301	0.794598
669.024	-0.0341644
670.744	-0.198347
672.464	-0.588072
674.186	0.0336647
675.905	-0.142153
677.626	0.234533
679.345	-0.398485
681.065	0.574789
682.783	0.718075
684.503	0.742479
686.22	0.302635
687.939	0.043951
689.656	0.566446
691.372	-0.340528
693.09	0.0182571
694.806	0.122276
696.523	0.800114
698.239	0.623648
699.953	0.675095
701.67	0.126404
703.384	0.702812
705.098	0.358494
706.813	0.862801
708.526	0.654709
710.239	0.904465
711.954	0.283184
713.666	0.920389
715.378	0.162165
717.091	0.29557
718.802	0.657024
720.513	0.995356
722.226	0.559149
723.936	0.351295
725.646	-0.0610218
727.355	0.707853
729.067	-0.0230694
730.776	-0.458683
732.484	0.940268
734.192	0.978638
735.902	1.28822
737.61	-0.456764
739.317	1.41206
741.024	1.40868
742.731	1.24989
744.439	0.643541
746.145	0.715433
747.851	0.654804
749.556	0.304188
751.262	-0.246508
752.966	0.554611
754.673	0.863451
756.377	0.387449
758.081	0.206482
759.784	0.703747
761.487	0.36941
763.19	0.870329
764.892	0.94243
766.594	1.26111
768.296	1.44116
770	1.48168
771.701	2.49093
773.402	1.0554
775.102	2.08387
776.803	2.23152
778.503	1.36411
780.202	1.78834
781.901	1.21934
783.6	1.57806
785.299	1.82166
786.997	1.60821
788.695	1.50223
790.393	2.61178
792.09	1.13837
793.787	1.10979
795.484	1.87032
797.18	1.86496
798.877	0.894297
800.572	2.53892
802.268	0.989901
803.963	1.35484
805.658	1.71917
807.35	1.5649
809.044	1.04935
810.738	1.49733
812.432	1.1582
814.125	1.40115
815.818	1.91189
817.51	1.52704
819.202	2.23801
820.894	1.65303
822.584	2.25226
824.275	2.16094
825.966	2.45123
827.657	2.38893
829.347	2.13143
831.037	2.0355
832.725	1.34318
834.414	1.6348
836.103	1.32627
837.792	0.949986
839.481	1.55373
841.167	2.0211
842.854	1.43625
844.542	2.10176
846.229	1.62898
847.914	2.09834
849.6	2.70701
851.287	2.15688
852.973	2.34901
854.656	2.87981
856.341	2.13093
858.026	3.15474
859.711	3.27694
861.393	3.77853
863.077	2.74549
864.761	2.34013
866.442	2.40621
868.125	2.67406
869.808	1.27218
871.489	1.56106
873.171	1.44359
874.85	1.59674
876.532	1.14065
878.213	1.40672
879.892	1.60495
881.572	1.59937
883.251	1.61501
884.931	1.42545
886.61	1.21079
888.287	0.812933
889.966	1.24692
891.643	0.460823
893.321	1.65513
894.997	1.0454
896.675	1.49129
898.352	0.699432
900.028	1.231
901.704	1.64784
903.379	1.65994
905.055	0.844824
906.729	0.99197
908.404	2.20994
910.077	1.28917
911.75	0.638964
913.425	1.05798
915.097	0.344534
916.771	0.874666
918.443	1.7583
920.116	1.40065
921.787	1.15538
923.46	1.11156
925.13	2.04278
926.8	1.1219
928.472	1.92642
930.141	1.73984
931.813	2.21649
933.481	1.92142
935.15	2.48701
936.82	1.99472
938.488	1.43803
940.156	1.30269
941.825	1.94169
943.492	1.36869
945.158	1.05995
946.827	0.881392
948.493	1.47204
950.158	1.13212
951.824	1.07702
953.491	1.3089
955.156	0.70578
956.82	1.0781
958.486	0.110918
960.15	1.13429
961.814	0.858505
963.477	1.13462
965.142	1.45211
966.804	0.1497
968.467	0.501347
970.129	0.937769
971.79	0.930201
973.454	0.613985
975.115	1.22933
976.776	0.167301
978.436	-0.427921
980.096	-0.0708313
981.756	0.285721
983.417	1.74686
985.077	1.38916
986.736	2.08999
988.394	1.79138
990.052	1.62337
991.71	0.990278
993.368	1.32945
995.025	2.02161
996.682	2.27201
998.341	1.59604
999.998	2.35269
1001.65	2.64521
1003.31	2.18829
1004.97	1.33558
1006.62	1.01128
1008.28	0.577927
1009.93	1.00159
1011.58	0.351027
1013.24	1.10471
1014.89	1.28879
1016.54	0.488384
1018.2	0.499332
1019.85	0.511789
1021.5	0.81039
1023.16	1.24204
1024.81	1.28196
1026.46	1.36666
1028.11	1.42949
1029.76	1.53477
1031.41	2.18362
1033.06	2.45773
1034.71	2.66285
1036.36	2.03651
1038.01	2.36807
1039.66	2.54666
1041.31	2.90037
1042.95	4.21275
1044.6	4.13703
1046.25	4.00043
1047.9	3.45531
1049.54	3.78239
1051.19	3.43883
1052.84	3.09684
1054.48	2.88583
1056.13	2.34868
1057.77	3.18029
1059.42	2.42399
1061.06	2.92739
1062.71	2.29853
1064.35	2.32016
1066	2.5571
1067.64	2.16149
1069.28	2.58978
1070.93	0.714622
1072.57	1.22858
1074.21	2.24213
1075.85	1.84719
1077.49	1.47676
1079.13	2.08463
1080.78	1.76149
1082.42	2.11048
1084.06	1.69877
1085.7	1.37075
1087.34	1.2124
1088.97	2.58764
1090.61	1.53428
1092.25	2.20972
1093.89	1.76007
1095.53	1.44115
1097.17	1.62023
1098.8	2.10328
1100.44	1.42676
1102.08	1.55078
1103.71	0.387415
1105.35	1.27027
1106.99	1.01408
1108.62	1.27343
1110.26	0.498587
1111.89	0.88187
1113.52	2.01362
1115.16	2.1971
1116.79	1.47827
1118.43	1.42525
1120.06	0.880949
1121.69	1.66671
1123.32	1.44789
1124.96	1.72324
1126.59	2.64178
1128.22	1.76522
1129.85	1.78837
1131.48	1.34232
1133.11	1.4527
1134.75	1.47729
1136.37	1.2869
1138	0.709972
1139.63	1.54086
1141.26	0.298309
1142.89	1.50996
1144.52	-0.179779
1146.15	1.50159
1147.78	0.413153
1149.4	0.0513535
1151.03	0.499996
1152.66	0.43734
1154.28	0.012167
1155.91	0.26758
1157.54	0.586473
1159.16	0.629412
1160.79	-0.0277634
1162.41	0.422943
1164.04	0.513988
1165.66	0.308277
1167.29	0.0595093
1168.91	0.340292
1170.53	1.17044
1172.16	0.636694
1173.78	0.163954
1175.4	0.0503292
1177.02	-0.169968
1178.65	0.267124
1180.27	0.577898
1181.89	0.170746
1183.51	0.42065
1185.13	-0.280525
1186.75	-0.475801
1188.37	-0.441589
1189.99	-0.136896
1191.61	0.437422
1193.23	0.545086
1194.85	0.273117
1196.47	0.190763
1198.08	0.55007
1199.7	0.702679
1201.32	0.587797
1202.94	0.0396004
1204.55	0.790592
1206.17	0.00104332
1207.79	-0.493845
1209.4	1.2855
1211.02	0.205482
1212.63	0.749115
1214.25	1.12145
1215.86	0.760389
1217.48	0.667095
1219.09	0.447523
1220.71	0.68495
1222.32	1.1306
1223.93	0.541872
1225.54	0.640093
1227.16	1.87904
1228.77	1.8164
1230.38	1.81829
1231.99	1.69848
1233.6	1.91174
1235.22	1.528
1236.83	1.45657
1238.44	2.5034
1240.05	2.91094
1241.66	2.34687
1243.26	1.74046
1244.87	2.58078
1246.48	1.90868
1248.09	2.33135
1249.7	1.96631
1251.31	2.15937
1252.92	2.08396
1254.52	1.78248
1256.13	3.09646
1257.74	1.97202
1259.34	2.44271
1260.95	2.45998
1262.55	2.0847
1264.16	1.85416
1265.76	2.82458
1267.37	2.4468
1268.97	2.83411
1270.58	2.78406
1272.18	3.14662
1273.78	2.55342
1275.39	3.01558
1276.99	2.56395
1278.59	3.41601
1280.2	3.56221
1281.8	2.63151
1283.4	3.27411
1285	2.69726
1286.6	3.21822
1288.2	3.927
1289.8	4.05878
1291.4	3.96424
1293	4.50998
1294.6	5.94224
1296.2	5.63617
1297.8	4.29466
1299.4	4.31268
1301	4.14203
1302.6	4.85479
1304.19	4.4325
1305.79	3.98897
1307.39	4.18193
1308.99	4.08673
1310.58	4.68848
1312.18	3.69313
1313.77	4.68503
1315.37	3.55223
1316.96	3.99528
1318.56	3.54111
1320.15	3.88236
1321.75	2.89722
1323.34	3.92534
1324.94	3.64696
1326.53	4.07697
1328.12	3.77503
1329.72	3.67757
1331.31	3.05782
1332.9	3.89845
1334.49	3.2078
1336.08	3.32831
1337.67	3.9337
1339.27	3.08576
1340.86	3.14198
1342.45	2.83174
1344.04	2.71936
1345.63	2.88628
1347.22	2.89286
1348.8	3.4035
1350.39	2.63727
1351.98	3.25703
1353.57	2.70062
1355.16	2.66669
1356.75	3.05304
1358.33	2.29967
1359.92	3.0027
1361.51	1.60743
1363.09	2.28661
1364.68	2.82485
1366.27	3.08405
1367.85	2.26926
1369.44	3.40829
1371.02	2.83792
1372.61	3.00668
1374.19	3.29695
1375.77	3.05127
1377.36	3.18376
1378.94	2.73816
1380.52	3.38494
1382.11	3.59128
1383.69	2.72112
1385.27	2.62494
1386.85	3.38228
1388.43	2.64997
1390.02	2.67386
1391.6	2.38198
1393.18	3.48036
1394.76	3.09145
1396.34	3.51527
1397.92	3.1247
1399.5	3.72315
1401.08	4.537
1402.65	3.38926
1404.23	3.33082
1405.81	3.39214
1407.39	3.71204
1408.97	3.61849
1410.54	4.11853
1412.12	4.57864
1413.7	5.21482
1415.27	4.64499
1416.85	4.66555
1418.43	4.88243
1420	5.69079
1421.58	4.4924
1423.15	4.991
1424.73	5.94555
1426.3	5.26908
1427.87	5.47939
1429.45	6.18112
1431.02	6.66426
1432.6	6.33788
1434.17	6.42268
1435.74	8.09945
1437.31	7.80968
1438.89	8.50463
1440.46	8.47457
1442.03	8.03405
1443.6	7.69346
1445.17	8.15953
1446.74	7.93812
1448.31	7.99224
1449.88	7.45727
1451.45	7.49345
1453.02	7.60951
1454.59	7.09693
1456.16	7.27264
1457.72	7.28944
1459.29	6.20119
1460.86	6.89996
1462.43	6.11879
1463.99	5.4723
1465.56	4.60798
1467.13	4.86358
1468.69	5.53197
1470.26	3.98415
1471.83	4.22493
1473.39	3.66358
1474.95	3.22161
1476.52	3.11385
1478.08	3.57485
1479.65	2.56544
1481.21	3.8492
1482.78	3.34916
1484.34	3.04491
1485.9	2.62248
1487.47	2.39459
1489.03	2.02728
1490.59	1.63733
1492.15	2.1628
1493.71	1.62866
1495.27	1.75574
1496.84	1.78317
1498.39	1.55723
1499.96	1.741
1501.52	1.42159
1503.07	1.0662
1504.64	0.519264
1506.19	0.341501
1507.75	1.67132
1509.31	1.14207
1510.87	0.804903
1512.43	0.891012
1513.98	0.668354
1515.54	1.08088
1517.1	1.07113
1518.65	0.890198
1520.21	0.212715
1521.77	1.22073
1523.32	0.372026
1524.88	1.68105
1526.44	0.678076
1527.99	0.856621
1529.54	0.976686
1531.1	1.15339
1532.65	1.25469
1534.21	1.54667
1535.76	1.19678
1537.31	1.39721
1538.87	1.46633
1540.42	1.72451
1541.97	1.77513
1543.52	1.95719
1545.07	1.53691
1546.63	1.62416
1548.18	1.11056
1549.73	1.66628
1551.28	1.99652
1552.83	1.97168
1554.38	1.35057
1555.93	1.72272
1557.48	1.18297
1559.03	1.82258
1560.57	1.68171
1562.12	1.48772
1563.67	1.35157
1565.22	1.75745
1566.77	2.16356
1568.31	1.87877
1569.86	2.8438
1571.41	2.01623
1572.95	2.27077
1574.5	2.17037
1576.05	2.46205
1577.59	2.0447
1579.14	2.76691
1580.68	2.42608
1582.23	2.74022
1583.77	2.62636
1585.31	2.38292
1586.86	2.94412
1588.4	3.09446
1589.95	3.05737
1591.49	3.46864
1593.03	3.16774
1594.57	2.84738
1596.11	3.9134
1597.66	3.65018
1599.2	3.48177
1600.74	3.67094
1602.28	3.67344
1603.82	4.74622
1605.36	3.78957
1606.9	4.29536
1608.44	3.53818
1609.98	3.47196
1611.52	3.92747
1613.06	3.49623
1614.6	3.36333
1616.13	3.60496
1617.67	3.58482
1619.21	3.62315
1620.75	3.10245
1622.28	3.85775
1623.82	3.84673
1625.36	3.36771
1626.89	3.41135
1628.43	3.6957
1629.96	4.42594
1631.5	3.90124
1633.04	3.97411
1634.57	3.63685
1636.11	3.84256
1637.64	3.65817
1639.17	3.71742
1640.71	3.88844
1642.24	3.90904
1643.77	4.20678
1645.31	4.59485
1646.84	3.38152
1648.37	4.5477
1649.9	3.78201
1651.43	3.57587
1652.96	3.81741
1654.5	3.93104
1656.03	4.06427
1657.56	4.03044
1659.09	3.93951
1660.62	4.29043
1662.15	4.04615
1663.67	3.09766
1665.2	2.90691
1666.73	3.41841
1668.26	3.37797
1669.79	3.74583
1671.32	3.25017
1672.84	3.05154
1674.37	3.29575
1675.9	2.7845
1677.43	2.67695
1678.95	2.43874
1680.48	2.58497
1682	2.04986
1683.53	2.34113
1685.05	1.3477
1686.58	2.2266
1688.1	1.694
1689.63	1.76714
1691.15	1.51103
1692.68	1.52978
1694.2	1.14598
1695.72	0.853653
1697.25	0.92661
1698.77	0.743244
1700.29	0.979082
1701.81	1.10429
1703.33	0.954975
1704.86	1.07807
1706.38	0.763524
1707.9	1.21251
1709.42	1.24284
1710.94	1.10993
1712.46	0.778077
1713.98	0.338329
1715.5	1.1665
1717.02	1.46866
1718.54	0.776099
1720.06	0.969337
1721.57	0.206339
1723.09	1.0139
1724.61	0.452785
1726.13	0.740809
1727.64	0.868779
1729.16	0.548402
1730.68	0.285052
1732.19	1.09045
1733.71	0.524606
1735.23	0.220886
1736.74	0.737522
1738.26	0.528026
1739.77	0.54397
1741.29	0.436311
1742.8	0.216554
1744.31	0.769161
1745.83	0.209395
1747.34	0.360344
1748.85	1.15507
1750.37	0.243176
1751.88	0.037221
1753.39	0.535933
1754.91	0.146431
1756.42	-0.282164
1757.93	0.166051
1759.44	-0.197556
1760.95	0.443964
1762.46	0.725736
1763.97	0.271106
1765.48	0.187762
1766.99	-0.0361204
1768.5	0.261295
1770.01	0.576046
1771.52	0.138478
1773.03	0.118887
1774.54	0.14538
1776.04	-0.0147572
1777.55	-0.160287
1779.06	-0.182282
1780.57	0.249254
1782.07	0.345175
1783.58	0.133387
1785.09	0.0116167
1786.59	0.00858974
1788.1	0.229026
1789.6	-0.210815
1791.11	-0.151713
1792.61	-0.0793419
1794.12	0.100968
1795.62	-0.158934
1797.13	0.213801
1798.63	0.0454693
1800.13	0.188973
1801.64	-0.246156
1803.14	0.135065
1804.64	-0.0803528
1806.15	-0.216259
1807.65	0.0507774
1809.15	-0.273295
1810.65	-0.304384
1812.15	0.257918
1813.65	-0.00516701
1815.16	0.114248
1816.66	0.203148
1818.15	-0.0473127
1819.66	-0.202222
1821.16	-0.13584
1822.65	0.0977345
1824.15	-0.0235138
1825.65	-0.309718
1827.15	-0.0588474
1828.65	0.187222
1830.15	0.00859547
1831.64	0.0265589
1833.14	-0.224939
1834.64	0.385443
1836.14	0.029254
1837.63	-0.146979
1839.13	0.0358934
1840.62	0.0481367
1842.12	-0.123248
1843.62	-0.205428
1845.11	0.0880785
1846.61	0.0686636
1848.1	-0.0337515
1849.6	0.575749
1851.09	0.045351
1852.58	0.188066
1854.08	0.195397
1855.57	0.195247
1857.06	0.264226
1858.55	-0.0703764
1860.05	0.166706
1861.54	-0.274961
1863.03	0.0042038
1864.52	0.251178
1866.01	0.308393
1867.5	0.502558
1869	-0.51973
1870.49	-0.0263033
1871.98	0.0670242
1873.47	-0.151308
1874.96	0.199678
1876.44	-0.0192947
1877.93	-0.266632
1879.42	1.22817
1880.91	0.608664
1882.4	0.489448
1882.47	0.482423
1883.96	-0.0923471
1885.46	-0.563332
1886.95	0.445304
1888.44	-0.0102081
1889.94	0.283134
1891.43	-0.448433
1892.93	0.31804
1894.42	0.0612955
1895.91	0.345899
1897.4	0.301478
1898.89	0.22213
1900.39	0.297805
1901.88	0.0926847
1903.37	0.0240765
1904.86	0.440043
1906.35	0.14198
1907.84	0.521378
1909.33	-0.00128937
1910.82	-0.105723
1912.31	-0.122025
1913.8	-0.0160627
1915.29	0.0553293
1916.77	0.715652
1918.26	0.421528
1919.75	0.629331
1921.24	0.178612
1922.73	0.14433
1924.21	0.00747299
1925.7	0.114684
1927.19	0.119627
1928.67	-0.289984
1930.16	-0.388022
1931.64	-0.00232887
1933.13	0.225363
1934.61	0.000219345
1936.1	0.378278
1937.58	-0.127773
1939.07	0.506496
1940.55	0.432353
1942.04	0.169727
1943.52	0.995706
1945	0.391149
1946.49	-0.0227938
1947.97	0.269779
1949.45	0.0442266
1950.93	0.0756559
1952.42	-0.0836401
1953.9	-0.278006
1955.38	0.111981
1956.86	-0.1334
1958.34	0.137393
1959.82	0.288909
1961.3	0.612592
1962.78	0.165013
1964.26	-0.00833225
1965.74	0.434229
1967.22	0.087966
1968.7	0.185831
1970.18	-0.178855
1971.65	0.276447
1973.13	-0.0371075
1974.61	-0.0601301
1976.09	0.377322
1977.57	0.695208
1979.04	0.570246
1980.52	0.649532
1982	-0.325485
1983.47	0.144284
1984.95	0.0696859
1986.42	0.028738
1987.9	0.191161
1989.37	0.455396
1990.85	0.449475
1992.32	-0.349966
1993.8	0.154593
1995.27	0.440264
1996.75	0.456114
1998.22	0.674582
1999.69	0.672769
2001.17	0.40001
2002.64	0.0592699
2004.11	0.561538
2005.58	-0.368483
2007.05	0.16873
2008.53	-0.134971
2010	0.0677967
2011.47	0.0356255
2012.94	0.659975
2014.41	0.273803
2015.88	0.357719
2017.35	-0.232523
2018.82	0.454117
2020.29	0.282326
2021.76	0.244808
2023.23	0.0567141
2024.7	-0.415324
2026.16	0.50686
2027.63	0.307117
2029.1	0.143161
2030.57	-0.0691795
2032.03	-0.296987
2033.5	0.298349
2034.97	0.608616
2036.44	0.95212
2037.9	0.404421
2039.37	0.662567
2040.83	0.097002
2042.3	0.389237
2043.76	0.497709
2045.23	0.0691662
2046.69	0.0622072
2048.16	0.897952
2049.62	-0.288302
2051.08	0.647327
2052.55	0.856056
2054.01	0.5898
2055.47	0.320897
2056.94	0.100599
2058.4	0.199404
2059.86	0.466277
2061.32	0.514629
2062.79	0.210669
2064.25	0.531025
2065.71	1.20622
2067.17	0.721525
2068.63	0.927748
2070.09	0.629526
2071.55	0.213472
2073.01	0.504279
2074.47	0.912616
2075.93	0.512175
2077.39	0.616351
2078.85	0.669397
2080.31	-0.389606
2081.76	0.638531
2083.22	0.352343
2084.68	0.704646
2086.13	1.27426
2087.59	1.05215
2089.05	0.829569
2090.51	1.06041
2091.96	0.249982
2093.42	0.900124
2094.87	1.48208
2096.33	0.839075
2097.78	1.36829
2099.24	0.908297
2100.69	0.716044
2102.15	1.6941
2103.6	1.05224
2105.06	1.33109
2106.51	0.977919
2107.96	1.39386
2109.42	1.51002
2110.87	1.14189
2112.32	1.65513
2113.77	1.43237
2115.23	2.03933
2116.68	1.61298
2118.13	2.00173
2119.58	1.0309
2121.03	1.64024
2122.48	1.65512
2123.93	1.45678
2125.38	1.72383
2126.83	2.0402
2128.28	2.08967
2129.73	2.31913
2131.18	2.0328
2132.63	2.22547
2134.08	2.40125
2135.53	2.37967
2136.97	2.64149
2138.42	2.11297
2139.87	2.54615
2141.32	2.28789
2142.76	1.81648
2144.21	1.82552
2145.66	2.48026
2147.1	3.08541
2148.55	3.07712
2150	3.13363
2151.44	2.54228
2152.89	3.17532
2154.33	3.27673
2155.78	3.4767
2157.22	4.25649
2158.66	2.9337
2160.11	3.07083
2161.55	3.64178
2163	3.33768
2164.44	3.00268
2165.88	3.39918
2167.32	4.11182
2168.77	3.04482
2170.21	3.25438
2171.65	3.71003
2173.09	3.66332
2174.53	3.41455
2175.97	3.43089
2177.41	3.41426
2178.85	3.44876
2180.29	3.86731
2181.73	3.28983
2183.17	3.34514
2184.61	3.58392
2186.05	3.50684
2187.49	2.91396
2188.93	3.55245
2190.37	3.64185
2191.81	2.74858
2193.24	2.66973
2194.68	3.15482
2196.12	3.22059
2197.56	2.41777
2198.99	2.24482
2200.43	2.98423
2201.87	3.1079
2203.3	2.81766
2204.74	2.08191
2206.17	2.2104
2207.61	2.28997
2209.04	2.5845
2210.48	2.41406
2211.91	1.6467
2213.35	1.90398
2214.78	2.32582
2216.21	2.69847
2217.65	2.19816
2219.08	1.81577
2220.51	1.84718
2221.95	1.5492
2223.38	1.64577
2224.81	1.27906
2226.24	1.86458
2227.67	1.57516
2229.1	1.43206
2230.54	1.53408
2231.97	1.29138
2233.4	1.54067
2234.83	1.62707
2236.26	1.29033
2237.69	1.41368
2239.11	1.24609
2240.54	0.853352
2241.97	0.936474
2243.4	1.60867
2244.83	0.519922
2246.26	1.07764
2247.69	0.980581
2249.11	1.17378
2250.54	1.07011
2251.97	1.17549
2253.4	1.01913
2254.82	0.408502
2256.25	0.46656
2257.67	1.04719
2259.1	0.966549
2260.53	0.776768
2261.95	0.704187
2263.38	1.00751
2264.8	1.14921
2266.23	0.997881
2267.65	1.10549
2269.07	0.251611
2270.5	0.177367
2271.92	0.590816
2273.34	0.808737
2274.77	0.635917
2276.19	0.91952
2277.61	0.747201
2279.03	0.640105
2280.46	0.956836
2281.88	0.327531
2283.3	0.823479
2284.72	0.634336
2286.14	0.363798
2287.56	0.420183
2288.98	0.411909
2290.4	0.42057
2291.82	0.347915
2293.24	0.68423
2294.66	0.660867
2296.08	0.440938
2297.5	0.384486
2298.92	0.557404
2300.34	0.271827
2301.76	0.363542
2303.17	0.144041
2304.59	0.121521
2306.01	0.476606
2307.43	0.37149
2308.84	0.0353565
2310.26	-0.00588799
2311.68	-0.294478
2313.09	0.469722
2314.51	0.37909
2315.92	0.0918398
2317.34	0.728033
2318.75	-0.052042
2320.17	0.420212
2321.58	-0.0491571
2323	0.1057
2324.41	0.933896
2325.82	0.652983
2327.24	0.419209
2328.65	1.20631
2330.06	0.395012
2331.48	0.408998
2332.89	0.638556
2334.3	0.359194
2335.71	-0.0512457
2337.12	-0.346964
2338.54	-0.265697
2339.95	-0.0217724
2341.36	-0.255731
2342.77	0.363245
2344.18	-0.396286
2345.59	0.205865
2347	0.0542202
2348.41	0.393905
2349.82	0.127344
2351.23	-0.156296
2352.64	0.114455
2354.04	0.269123
2355.45	-0.0665541
2356.86	0.623788
2358.27	-0.00490952
2359.68	0.180304
2361.08	0.00818634
2362.49	-0.244657
2363.9	0.0859518
2365.3	0.205452
2366.71	-0.208394
2368.12	-0.410684
2369.52	-0.191766
2370.93	0.18984
2372.33	-0.0232105
2373.74	0.135787
2375.14	-0.429102
2376.55	-0.17343
2377.95	0.128739
2379.36	0.123014
2380.76	-0.238277
2382.16	0.200933
2383.57	0.253392
2384.97	0.0173941
2386.37	0.197927
2387.78	0.379312
2389.18	0.290999
2390.58	-0.0342817
2391.98	0.0406132
2393.38	0.228253
2394.79	0.0511198
2396.19	-0.0612488
2397.59	0.796848
2398.99	-0.0289164
2400.39	0.0836773
2401.79	0.196692
2403.19	0.325624
2404.59	0.787441
2405.99	-0.133246
2407.39	0.246501
2408.78	0.434435
2410.18	0.19366
2411.58	0.143537
2412.98	0.0154133
2414.38	0.506637
2415.77	0.398278
2417.17	0.165245
2418.57	-0.0981617
2419.97	-0.0760403
2421.36	0.262741
2422.76	0.680352
2424.15	0.226192
2425.55	-0.0536995
2426.95	0.174197
2428.34	0.244888
2429.74	-0.031909
2431.13	-0.038188
2432.52	0.28913
2433.92	0.568382
2435.31	0.163095
2436.71	0.152709
2438.1	0.0130138
2439.49	-0.128516
2440.89	0.141587
2442.28	0.22021
2443.67	-0.304651
2445.06	0.280967
2446.46	0.184101
2447.85	0.689326
2449.24	0.560444
2450.63	0.384495
2452.02	0.17779
2453.41	0.162202
2454.8	0.717389
2456.19	-0.166038
2457.58	-0.210504
2458.97	0.140255
2460.36	-0.0950031
2461.75	0.380176
2463.14	0.348133
2464.53	0.188845
2465.92	0.518795
2467.31	0.232661
2468.69	-0.00596714
2470.08	-0.00809479
2471.47	0.60389
2472.86	-0.172113
2474.24	-0.00365162
2475.63	-0.0408764
2477.02	0.392939
2478.4	0.0564079
2479.79	-0.0439796
2481.17	-0.128292
2482.56	0.226145
2483.94	0.438451
2485.33	-0.0234337
2486.72	-0.11103
2488.1	0.236939
2489.48	0.0842218
2490.87	0.0250292
2492.25	0.277586
2493.64	-0.369546
2495.02	-0.0982323
2496.4	-0.0891266
2497.79	0.478811
2499.17	-0.0835562
2500.55	0.560893
2501.93	0.152258
2503.31	0.144384
2504.69	-0.00361061
2506.08	0.248417
2507.46	0.191673
2508.84	0.042963
2510.22	0.263749
2511.6	0.300886
2512.98	-0.0288143
2514.36	0.0874481
2515.74	-0.024806
2517.12	-0.273493
2518.5	0.365633
2519.88	-0.218132
2521.25	-0.0838099
2522.63	-0.606886
2524.01	-0.322009
2525.39	0.205276
2526.77	0.0612535
2528.14	0.450561
2529.52	0.491135
2530.9	0.108406
2532.27	0.244996
2533.65	-0.148231
2535.03	-0.0389996
2536.4	0.0550089
2537.78	-0.110158
2539.15	0.0423279
2540.53	0.0113401
2541.9	0.0101719
2543.28	-0.0816841
2544.65	-0.0813103
2546.03	-0.0792284
2547.4	0.106608
2548.77	0.126833
2550.15	0.147228
2551.52	0.394612
2552.89	0.291642
2554.27	0.521007
2555.64	0.233102
2557.01	0.308522
2558.38	-0.222857
2559.75	0.140803
2561.12	-0.267929
2562.5	0.324554
2563.87	0.341949
2565.24	0.0114365
2566.61	-0.0611067
2567.98	0.36659
2569.35	0.157794
2570.72	0.206624
2572.09	0.452559
2573.46	0.592527
2574.83	0.338495
2576.19	0.23608
2577.56	-0.0332422
2578.93	0.455228
2580.3	0.245708
2581.67	-0.313153
2583.04	-0.0689211
2584.4	0.569066
2585.77	0.236695
2587.14	-0.0651369
2588.5	0.0122309
2589.87	0.0291328
2591.23	0.303477
2592.6	0.0164871
2593.97	-0.438176
2595.33	-0.0459642
2596.7	-0.139913
2598.06	0.355086
2599.43	0.410467
2600.79	0.541452
2602.15	0.00850582
2603.52	0.5941
2604.88	-0.193123
2606.25	0.33288
2607.61	-0.0768404
2608.97	0.52242
2610.33	0.125118
2611.7	0.463934
2613.06	0.229017
2614.42	0.248767
2615.78	0.643199
2617.15	-0.162145
2618.51	0.54757
2619.87	0.0750017
2621.23	0.411692
2622.59	0.0463829
2623.95	0.607721
2625.31	0.407192
2626.67	0.0723476
2628.03	0.124931
2629.39	0.296102
2630.75	0.303013
2632.1	0.294876
2633.46	0.286671
2634.82	-0.226221
2636.18	0.314625
2637.54	-0.0197268
2638.89	0.105518
2640.25	0.497078
2641.61	-0.0429754
2642.97	0.142046
2644.32	0.386104
2645.68	0.246144
2647.03	0.179519
2648.39	0.156185
2649.75	0.29358
2651.1	0.459083
2652.46	0.0950365
2653.81	0.230835
2655.17	0.0449419
2656.52	0.358894
2657.88	0.14716
2659.23	0.214935
2660.58	0.0493107
2661.94	0.512085
2663.29	0.0971212
2664.64	0.148581
2666	0.344707
2667.35	0.131722
2668.7	0.370332
2670.05	0.143317
2671.4	0.382658
2672.76	0.433696
2674.11	-0.0517311
2675.46	0.175405
2676.81	-0.278767
2678.16	0.153031
2679.51	0.643754
2680.86	0.309443
2682.21	0.455351
2683.56	0.327526
2684.91	0.157542
2686.26	0.292866
2687.61	-0.239557
2688.96	0.126194
2690.3	0.271838
2691.65	0.83568
2693	0.990578
2694.35	0.578243
2695.7	0.542829
2697.04	0.754576
2698.39	-0.118028
2699.74	0.474528
2701.08	0.577306
2702.43	0.740309
2703.77	0.687676
2705.12	0.258878
2706.47	0.569475
2707.81	0.241499
2709.16	0.304599
2710.5	0.628568
2711.85	0.560119
2713.19	0.389689
2714.53	0.74232
2715.88	1.19685
2717.22	0.866044
2718.57	0.781979
2719.91	0.87193
2721.25	0.772026
2722.59	0.918781
2723.94	1.09393
2725.28	0.700745
2726.62	0.77274
2727.96	0.8879
2729.3	0.507874
2730.65	0.927982
2731.99	0.824168
2733.33	0.865963
2734.67	0.457091
2736.01	0.572184
2737.35	0.803814
2738.69	0.875416
2740.03	1.15023
2741.37	0.406441
2742.71	0.679548
2744.05	0.733464
2745.38	0.757323
2746.72	0.199621
2748.06	0.817838
2749.4	0.637565
2750.74	0.559244
2752.07	0.234897
2753.41	0.403872
2754.75	0.254238
2756.09	0.336633
2757.42	0.0282497
2758.76	0.762658
2760.09	0.324986
2761.43	0.524896
2762.77	0.00198078
2764.1	0.405622
2765.44	-0.218034
2766.77	0.0836658
2768.11	-0.0210285
2769.44	0.335189
2770.77	0.674477
2772.11	0.13034
2773.44	-0.140357
2774.77	0.0355072
2776.11	0.354995
2777.44	-0.232242
2778.77	0.505267
2780.11	0.121559
2781.44	-0.376041
2782.77	0.0456448
2784.1	0.179847
2785.43	-0.374138
2786.77	0.0468035
2788.1	-0.0617132
2789.43	-0.369328
2790.76	0.297145
2792.09	-0.236717
2793.42	0.173839
2794.75	0.269865
2796.08	0.351077
2797.41	-0.182776
2798.74	-0.203047
2800.07	0.132869
2801.4	0.125713
2802.72	0.574539
2804.05	0.238721
2805.38	0.415364
2806.71	0.17811
2808.04	0.0397997
2809.36	-0.18422
2810.69	0.841812
2812.02	0.320376
2813.34	0.623885
2814.67	0.560675
2816	0.910769
2817.32	0.497154
2818.65	0.892382
2819.97	1.04671
2821.3	0.902707
2822.62	0.984438
2823.95	0.597604
2825.27	0.975286
2826.6	1.14041
2827.92	0.244366
2829.25	1.00576
2830.57	1.73945
2831.89	1.4967
2833.22	1.36714
2834.54	2.01556
2835.86	2.43663
2837.18	2.96985
2838.51	2.95037
2839.83	3.65176
2841.15	5.34262
2842.47	5.87439
2843.79	6.56275
2845.11	7.08288
2846.43	7.68912
2847.76	7.85808
2849.08	8.28155
2850.4	8.45001
2851.72	8.94248
2853.04	8.38792
2854.36	8.72288
2855.67	9.1986
2856.99	9.19382
2858.31	8.83605
2859.63	8.87379
2860.95	9.26416
2862.27	9.44194
2863.58	9.32244
2864.9	9.95025
2866.22	9.63252
2867.54	9.72447
2868.85	10.3813
2870.17	10.3904
2871.49	11.1892
2872.8	11.4939
2874.12	11.9237
2875.43	12.4212
2876.75	13.4085
2878.07	13.8862
2879.38	14.1939
2880.7	14.488
2882.01	15.4862
2883.32	14.0566
2884.64	14.3012
2885.95	13.9296
2887.27	13.3758
2888.58	13.3545
2889.89	12.9527
2891.21	13.3484
2892.52	13.1957
2893.83	13.7852
2895.14	13.9549
2896.46	13.7624
2897.77	13.7964
2899.08	13.637
2900.39	14.6547
2901.7	14.5402
2903.01	14.7341
2904.32	14.3408
2905.63	14.186
2906.94	15.3052
2908.25	15.0977
2909.56	15.8155
2910.87	16.0592
2912.18	16.485
2913.49	16.7412
2914.8	16.952
2916.11	16.8928
2917.42	16.7597
2918.72	17.2398
2920.03	17.7891
2921.34	17.277
2922.65	17.9423
2923.95	18.8624
2925.26	18.8768
2926.57	18.4035
2927.88	19.2584
2929.18	19.1199
2930.49	19.3295
2931.79	19.8315
2933.1	18.8929
2934.4	19.6317
2935.71	19.2247
2937.01	18.7901
2938.32	18.4399
2939.62	17.9647
2940.93	18.0775
2942.23	17.5635
2943.54	16.8427
2944.84	15.7891
2946.14	15.9963
2947.45	14.5122
2948.75	15.1399
2950.05	13.8055
2951.35	13.419
2952.66	13.0424
2953.96	12.2008
2955.26	12.5204
2956.56	11.806
2957.86	12.2014
2959.16	11.6925
2960.46	10.5725
2961.77	10.4365
2963.07	10.0074
2964.37	9.63294
2965.66	10.1122
2966.96	9.99848
2968.26	9.85393
2969.56	9.29997
2970.86	9.35029
2972.16	9.44343
2973.46	9.18552
2974.76	8.61784
2976.06	8.48522
2977.35	8.43468
2978.65	7.522
2979.95	7.61989
2981.25	6.95536
2982.54	6.85289
2983.84	6.20276
2985.14	5.93453
2986.43	6.76521
2987.73	6.55869
2989.02	5.49689
2990.32	5.55984
2991.62	4.31493
2992.91	4.71264
2994.21	4.7849
2995.5	5.03772
2996.8	4.10966
2998.09	3.54693
2999.38	3.26567
3000.68	4.03716
3001.97	3.22527
3003.26	3.45159
3004.56	2.87955
3005.85	2.96567
3007.14	2.18287
3008.43	2.32293
3009.73	1.80425
3011.02	1.99771
3012.31	1.78532
3013.6	1.60119
3014.89	1.43197
3016.19	1.22233
3017.48	0.791437
3018.77	1.07156
3020.06	0.4198
3021.35	0.768972
3022.64	0.838717
3023.93	0.837542
3025.22	0.752065
3026.5	0.320186
3027.79	1.07988
3029.08	0.0426254
3030.37	0.680978
3031.66	0.216114
3032.95	1.0234
3034.24	1.22352
3035.52	1.06411
3036.81	1.04081
3038.1	1.1113
3039.39	0.834721
3040.67	0.515178
3041.96	0.291218
3043.25	0.246017
3044.53	0.489697
3045.82	0.530207
3047.1	0.177814
3048.39	0.266356
3049.67	0.426309
3050.96	1.01172
3052.24	0.0292206
3053.53	0.998172
3054.81	0.547257
3056.1	0.204203
3057.38	0.895963
3058.67	0.673058
3059.95	1.36233
3061.23	0.4729
3062.52	0.918875
3063.8	0.40131
3065.08	0.688466
3066.36	0.175723
3067.65	0.534718
3068.93	0.48657
3070.21	0.50618
3071.49	0.619888
3072.77	0.283141
3074.05	0.787699
3075.33	0.55678
3076.61	-0.0681448
3077.89	0.176946
3079.17	0.355636
3080.45	0.0210619
3081.73	0.59781
3083.01	-0.0714798
3084.29	0.413545
3085.57	-0.268132
3086.85	-0.312534
3088.13	0.117304
3089.41	0.0169334
3090.68	0.282452
3091.96	0.249317
3093.24	-0.461625
3094.52	-0.181751
3095.79	-0.226833
3097.07	-0.136034
3098.35	0.171664
3099.62	0.262394
3100.9	-0.107464
3102.18	0.146081
3103.45	-0.0738173
3104.73	0.356979
3106	-0.172042
3107.28	-0.293531
3108.55	0.263237
3109.83	0.00968552
3111.1	-0.0393324
3112.38	0.481769
3113.65	-0.0393124
3114.93	0.0629463
3116.2	0.0699091
3117.47	-0.195373
3118.75	0.338224
3120.02	0.51781
3121.29	0.479232
3122.57	0.616187
3123.84	0.156891
3125.11	0.38899
3126.38	0.242725
3127.65	0.787598
3128.92	0.264597
3130.2	0.716164
3131.47	0.829881
3132.74	0.294996
3134.01	0.354536
3135.28	0.53504
3136.55	0.755206
3137.82	0.77238
3139.09	0.506333
3140.36	0.873317
3141.63	0.702045
3142.9	0.585498
3144.17	1.30245
3145.43	0.838824
3146.7	0.899965
3147.97	0.881842
3149.24	0.650563
