200.423	0.70174
202.238	0.708523
204.052	0.716552
205.868	0.190454
207.682	0.734842
209.495	0.476502
211.308	0.606173
213.12	0.152099
214.935	0.401194
216.746	-0.07763
218.558	0.485795
220.369	0.153517
222.18	0.112768
223.992	-0.0963278
225.802	0.589482
227.612	-0.222845
229.421	0.148463
231.23	0.494918
233.039	0.0447655
234.849	0.43935
236.657	-0.0330143
238.465	0.508918
240.272	-0.417281
242.079	-0.329262
243.885	-0.239992
245.691	-0.0299015
247.497	0.468913
249.305	0.458673
251.11	0.276775
252.915	0.140925
254.719	0.848053
256.523	0.252175
258.327	-0.173672
260.13	0.341803
261.933	-0.0565786
263.736	0.0765352
265.538	0.523915
267.34	-0.209039
269.141	0.720808
270.943	-0.0131912
272.744	0.24031
274.544	0.0104866
276.344	0.478474
278.144	-0.0192213
279.944	-0.205012
281.743	0.955644
283.542	0.477562
285.34	-0.000884056
287.138	0.481049
288.936	-0.260781
290.733	-0.210011
292.53	0.129032
294.327	0.0384293
296.123	0.3318
297.919	-0.162734
299.715	0.824892
301.508	0.617587
303.303	0.505265
305.098	0.248828
306.892	0.182705
308.686	0.879313
310.479	1.00393
312.273	-0.037405
314.065	0.185361
315.858	0.409758
317.648	-0.102427
319.44	0.0535727
321.231	-0.0752325
323.022	-0.48959
324.813	0.479979
326.604	0.209342
328.392	0.224926
330.181	0.144425
331.971	0.254244
333.76	0.482366
335.548	-0.0569811
337.335	0.0238724
339.123	0.318285
340.91	0.276385
342.698	0.448979
344.483	0.286902
346.269	0.340413
348.055	-0.154621
349.841	0.520849
351.625	0.408495
353.41	-0.229179
355.195	0.754774
356.977	0.186985
358.762	-0.262184
360.545	-0.0687342
362.329	0.076107
364.11	0.19634
365.893	0.838453
367.675	0.102104
369.455	0.386067
371.237	0.147622
373.017	-0.0435505
374.798	-0.0218754
376.578	-0.0709753
378.357	0.540775
380.137	0.398313
381.917	0.586742
383.694	0.0234394
385.473	0.214279
387.249	-0.0873938
389.028	0.152462
390.806	0.0877972
392.581	0.0473995
394.359	0.923487
396.134	0.813645
397.91	0.821403
399.684	-0.580194
401.46	-0.502439
403.234	0.2325
405.009	0.168257
406.784	0.432181
408.557	0.625081
410.331	0.418616
412.103	0.353118
413.876	0.499254
415.647	-0.0578613
417.42	0.0193186
419.191	-0.0436897
420.961	0.738503
422.733	0.206233
424.502	0.119331
426.273	0.196019
428.042	0.037261
429.812	0.277191
431.58	0.165025
433.35	-0.158029
435.118	0.598858
436.885	0.111896
438.653	0.0468569
440.42	0.262218
442.188	-0.368669
443.954	-0.180206
445.719	0.123604
447.486	0.238651
449.251	-0.0210342
451.015	0.0703049
452.781	-0.421793
454.545	-0.259746
456.308	0.111837
458.073	0.179995
459.836	0.4343
461.598	0.20053
463.362	-0.310476
465.124	0.203292
466.885	0.41741
468.648	0.169232
470.408	0.155119
472.169	0.304484
473.929	-0.0354958
475.69	0.205045
477.45	0.280777
479.208	0.145253
480.967	-0.247321
482.727	0.897454
484.485	0.436224
486.243	0.605634
488	0.194475
489.759	0.60103
491.515	0.332241
493.272	0.414092
495.028	0.00521088
496.783	0.133917
498.54	0.286087
500.295	0.297452
502.05	0.683827
503.804	0.459352
505.558	0.257076
507.311	0.994022
509.064	0.365795
510.819	0.865233
512.572	-0.0249767
514.324	0.189462
516.076	0.943749
517.827	0.826401
519.578	0.520175
521.329	0.56601
523.08	0.611388
524.83	0.938207
526.58	0.631299
528.329	0.23098
530.08	0.346575
531.829	0.368043
533.578	0.529261
535.326	1.11027
537.074	0.964582
538.821	0.444339
540.568	-0.0291948
542.315	0.406117
544.062	0.933125
545.808	0.506157
547.554	-0.0588551
549.299	0.351333
551.044	0.830286
552.789	0.336883
554.533	0.23755
556.278	-0.0690641
558.019	1.05503
559.763	0.403481
561.506	0.260033
563.249	0.232361
564.991	0.251234
566.733	0.201757
568.475	-0.650482
570.217	0.265958
571.958	0.288231
573.699	0.220194
575.439	0.153713
577.177	-0.232591
578.917	0.0706472
580.656	-0.406049
582.396	0.426699
584.134	0.409199
585.873	-0.000159264
587.609	0.00325775
589.347	0.143717
591.084	0.283407
592.822	-0.704727
594.558	0.193637
596.295	0.125731
598.029	0.725011
599.765	0.311708
601.5	0.173811
603.235	0.21889
604.968	0.676516
606.703	0.764919
608.437	0.186521
610.171	0.274247
611.902	0.568732
613.635	0.290446
615.368	0.402621
617.099	0.217061
618.831	1.31373
620.563	0.325385
622.294	0.458018
624.024	0.201104
625.755	0.104436
627.485	0.556694
629.213	0.37125
630.943	0.575855
632.673	-0.609695
634.4	0.305075
636.129	0.420978
637.855	0.67241
639.584	0.373694
641.312	0.642875
643.037	0.590457
644.764	0.536985
646.491	0.552095
648.216	0.25057
649.942	0.951801
651.666	0.111153
653.392	0.364531
655.115	0.64381
656.84	0.447468
658.563	-0.0447416
660.287	0.556947
662.011	1.40966
663.732	0.570389
665.456	0.0253153
667.177	0.347265
668.899	0.256984
670.62	-0.0615635
672.342	0.559553
674.061	0.931533
675.781	0.893457
677.502	0.604093
679.22	0.819564
680.941	0.207016
682.659	0.328152
684.379	0.0333099
686.096	0.680685
687.815	0.866384
689.532	0.590469
691.248	0.659404
692.966	0.704757
694.682	0.519131
696.4	0.793266
698.115	0.697894
699.829	0.946656
701.546	0.964149
703.26	1.0727
704.974	1.1575
706.689	0.920383
708.402	0.431011
710.115	0.789886
711.83	1.2394
713.542	1.18465
715.254	0.764157
716.967	0.960829
718.679	0.769436
720.39	0.487364
722.102	1.04847
723.812	1.58592
725.522	1.48581
727.232	0.863214
728.943	0.672513
730.652	0.844522
732.361	0.857327
734.069	1.25455
735.779	1.35717
737.487	0.443789
739.194	0.705786
740.901	1.01322
742.608	0.780608
744.316	1.08974
746.022	1.35479
747.728	1.4859
749.433	0.718443
751.138	1.32423
752.843	1.88618
754.549	1.70714
756.254	1.46184
757.957	1.28526
759.661	1.58288
761.364	1.76918
763.067	1.09886
764.769	0.991793
766.471	1.29034
768.175	1.94931
769.877	1.52141
771.578	1.47594
773.279	1.58748
774.98	1.22372
776.68	1.10913
778.38	2.5332
780.079	2.03674
781.779	1.15646
783.478	1.1131
785.176	1.63471
786.875	1.7243
788.573	1.53949
790.27	2.0079
791.968	2.13415
793.665	1.7393
795.361	1.0291
797.058	1.65067
798.754	2.20508
800.45	1.92764
802.145	1.51678
803.84	1.75905
805.535	2.13589
807.23	1.9499
808.922	2.18972
810.616	1.88954
812.309	1.61136
814.002	1.82602
815.695	1.34608
817.388	2.41029
819.08	2.06475
820.772	2.25586
822.464	2.42468
824.153	1.81359
825.844	1.76161
827.535	1.75607
829.225	1.21844
830.915	1.1288
832.605	1.59845
834.292	2.00346
835.981	1.76302
837.67	1.74531
839.359	1.54794
841.047	2.01912
842.732	1.4616
844.42	1.26092
846.107	1.01597
847.794	1.33127
849.479	1.62653
851.165	1.79002
852.851	1.32791
854.534	1.65098
856.22	1.39058
857.905	0.836434
859.589	1.51755
861.272	1.38747
862.956	1.86407
864.639	1.55113
866.321	1.39494
868.004	1.23808
869.687	1.77991
871.367	1.17119
873.049	1.39684
874.731	1.26144
876.41	1.19369
878.092	1.01306
879.771	1.01287
881.451	0.560862
883.131	1.3273
884.809	1.41554
886.489	1.02857
888.166	1.33991
889.845	1.31135
891.522	1.01108
893.2	0.800155
894.878	0.948606
896.554	0.736216
898.231	0.882707
899.906	0.422454
901.583	1.23967
903.258	1.20409
904.934	1.19073
906.608	1.31152
908.283	1.38792
909.956	1.50944
911.631	1.25326
913.304	0.909296
914.976	1.58766
916.65	1.17778
918.322	1.41133
919.995	1.2238
921.666	0.815857
923.339	1.11682
925.009	0.976901
926.679	1.03736
928.351	1.03296
930.021	0.764782
931.692	1.00472
933.361	0.8036
935.029	0.426205
936.699	0.975513
938.367	0.643267
940.035	0.995694
941.704	0.555037
943.371	1.08567
945.038	1.21915
946.706	1.02061
948.372	0.511477
950.038	1.32507
951.705	1.05609
953.37	0.85345
955.035	0.916747
956.7	0.827913
958.366	1.07257
960.03	0.878366
961.693	1.0607
963.357	1.26533
965.021	0.960093
966.684	0.785085
968.346	0.828941
970.008	1.22499
971.67	0.823826
973.334	0.909664
974.995	0.687058
976.655	0.974572
978.316	0.821007
979.976	0.955577
981.638	1.08991
983.297	0.935352
984.957	0.845552
986.616	0.554837
988.274	0.638928
989.932	1.05358
991.59	0.362192
993.248	0.554922
994.907	0.504654
996.565	0.586897
998.221	0.360323
999.878	0.199926
1001.53	1.53689
1003.19	1.41924
1004.85	1.14749
1006.5	0.744157
1008.16	0.31952
1009.81	0.663762
1011.46	0.722792
1013.12	0.584857
1014.77	0.447393
1016.43	0.857678
1018.08	0.677166
1019.73	0.650558
1021.38	0.231267
1023.04	0.665534
1024.69	0.641464
1026.34	0.661577
1027.99	0.987595
1029.64	1.09452
1031.29	1.35322
1032.94	1.19553
1034.59	1.18925
1036.24	1.13816
1037.89	1.69636
1039.54	2.58006
1041.19	2.37545
1042.84	2.73753
1044.48	3.20959
1046.13	3.55298
1047.78	3.13815
1049.42	3.11601
1051.07	2.74764
1052.72	2.72757
1054.36	1.86039
1056.01	1.60138
1057.66	1.47242
1059.3	1.34296
1060.94	0.756248
1062.59	0.864635
1064.23	0.493876
1065.88	0.991919
1067.52	0.489043
1069.16	0.116025
1070.81	0.850299
1072.45	0.216276
1074.09	0.602937
1075.73	0.773232
1077.38	0.055378
1079.02	0.878312
1080.66	0.205578
1082.3	0.63875
1083.94	0.00873566
1085.58	0.569905
1087.22	0.240655
1088.86	0.516393
1090.5	0.141184
1092.13	0.19798
1093.77	0.297438
1095.41	0.483109
1097.05	0.58286
1098.68	0.446614
1100.32	0.462641
1101.96	1.01816
1103.6	0.133471
1105.23	0.196603
1106.87	0.217163
1108.5	0.151464
1110.14	-0.19457
1111.77	-0.00428867
1113.41	0.614182
1115.04	0.136016
1116.67	0.237209
1118.31	-0.00468826
1119.94	-0.245756
1121.58	0.199385
1123.21	0.623524
1124.84	0.577437
1126.47	0.895707
1128.1	0.829556
1129.73	0.657122
1131.37	0.442441
1133	0.46319
1134.63	0.376947
1136.26	0.696281
1137.89	0.373584
1139.52	0.0287361
1141.14	0.558694
1142.77	0.532872
1144.4	0.315209
1146.03	0.482017
1147.66	0.436362
1149.29	0.796238
1150.91	0.47474
1152.54	0.345054
1154.17	0.938981
1155.79	0.680887
1157.42	-0.343101
1159.04	0.462976
1160.67	0.14228
1162.3	0.205293
1163.92	0.332881
1165.55	0.843602
1167.17	0.567424
1168.79	0.184094
1170.42	-0.0304155
1172.04	0.0936098
1173.66	0.0462227
1175.28	-0.256696
1176.91	-0.0508137
1178.53	-0.120489
1180.15	0.000964165
1181.77	0.313327
1183.39	-0.177529
1185.01	0.325296
1186.63	0.193284
1188.25	0.20784
1189.87	-0.47479
1191.49	0.0426331
1193.11	0.0949793
1194.73	0.566414
1196.35	0.722026
1197.97	-0.147999
1199.59	0.386687
1201.2	0.39981
1202.82	-0.169533
1204.44	0.328154
1206.05	0.243028
1207.67	0.242463
1209.29	0.471597
1210.9	0.387172
1212.52	0.197159
1214.13	-0.0569792
1215.75	0.832643
1217.36	0.242221
1218.97	0.504113
1220.59	0.453941
1222.2	0.0725927
1223.82	0.625339
1225.43	0.722937
1227.04	0.366443
1228.65	0.280343
1230.26	0.257354
1231.88	0.214662
1233.49	0.64831
1235.1	0.772905
1236.71	0.609153
1238.32	0.797647
1239.93	0.118305
1241.54	0.617745
1243.15	0.537885
1244.76	0.478053
1246.37	0.582924
1247.97	0.935265
1249.58	0.314458
1251.19	0.707211
1252.8	0.0657873
1254.41	0.769455
1256.01	0.294991
1257.62	0.8351
1259.23	0.693538
1260.83	0.345642
1262.44	0.246374
1264.04	0.768517
1265.65	0.2753
1267.25	0.631058
1268.86	1.0484
1270.46	0.179457
1272.07	-0.0476427
1273.67	0.304984
1275.27	0.926178
1276.88	0.344395
1278.48	1.08806
1280.08	0.526116
1281.68	1.06133
1283.28	0.830703
1284.89	0.642066
1286.49	0.764377
1288.09	0.598126
1289.69	0.308693
1291.29	0.639642
1292.89	1.38369
1294.49	1.34189
1296.09	0.51421
1297.69	0.965696
1299.29	0.548796
1300.88	0.997087
1302.48	1.3406
1304.08	0.941783
1305.68	0.440321
1307.27	0.76095
1308.87	0.834467
1310.47	1.05126
1312.06	0.449025
1313.66	0.932544
1315.25	0.537334
1316.85	0.919433
1318.44	1.30141
1320.04	0.337208
1321.63	0.962656
1323.23	1.36183
1324.82	0.864257
1326.41	0.671202
1328.01	0.721431
1329.6	0.468247
1331.19	0.742749
1332.78	0.897285
1334.38	0.952491
1335.97	0.625624
1337.56	1.10633
1339.15	0.578127
1340.74	0.935526
1342.33	0.706954
1343.92	0.758616
1345.51	1.13041
1347.1	-0.142864
1348.69	0.911512
1350.28	0.865212
1351.87	1.00116
1353.46	0.678903
1355.04	0.757726
1356.63	1.07662
1358.22	0.655854
1359.81	0.653938
1361.39	0.950513
1362.98	0.468084
1364.57	0.564047
1366.15	0.640162
1367.74	0.517703
1369.32	0.456057
1370.91	0.276197
1372.49	0.13731
1374.07	0.636061
1375.66	0.538437
1377.24	0.440899
1378.83	0.283265
1380.41	0.662063
1381.99	0.104704
1383.57	0.680114
1385.16	0.836811
1386.74	0.555877
1388.32	0.176037
1389.9	0.412382
1391.48	0.0738401
1393.06	0.489963
1394.64	0.628545
1396.22	0.350518
1397.8	0.309952
1399.38	0.209163
1400.96	0.365159
1402.54	0.560095
1404.12	0.418458
1405.7	0.178516
1407.28	1.30327
1408.85	0.590411
1410.43	0.490771
1412.01	0.233198
1413.58	0.310903
1415.16	0.466737
1416.74	0.424513
1418.31	0.776192
1419.89	0.694364
1421.46	0.49536
1423.04	0.730849
1424.61	0.810181
1426.19	0.339496
1427.76	0.479418
1429.33	0.481363
1430.91	0.246403
1432.48	1.09289
1434.05	0.698749
1435.63	0.481455
1437.2	0.755967
1438.77	0.834379
1440.34	1.14945
1441.91	1.0133
1443.49	0.897406
1445.05	1.057
1446.63	1.02023
1448.2	0.963916
1449.77	0.947157
1451.34	0.970114
1452.91	0.737869
1454.47	0.761571
1456.04	0.922994
1457.61	1.06429
1459.18	0.850294
1460.75	0.890697
1462.31	0.752446
1463.88	0.868567
1465.45	0.649508
1467.01	0.783958
1468.58	0.388453
1470.15	0.720148
1471.71	0.934815
1473.28	0.542282
1474.84	0.523147
1476.41	0.720048
1477.97	0.564118
1479.54	0.898233
1481.1	0.546191
1482.66	0.311761
1484.23	0.292829
1485.79	1.21395
1487.35	0.469254
1488.91	0.683255
1490.48	0.856362
1492.04	0.362598
1493.6	0.336667
1495.16	0.699493
1496.72	0.320063
1498.28	0.466791
1499.84	0.59417
1501.4	0.547421
1502.96	0.26907
1504.52	0.573256
1506.08	0.335111
1507.64	0.561045
1509.2	0.341331
1510.76	0.236915
1512.31	0.440368
1513.87	0.527496
1515.43	0.383864
1516.99	0.279497
1518.54	0.444467
1520.1	0.283967
1521.66	0.315331
1523.21	-0.035902
1524.77	-0.0623999
1526.32	0.1201
1527.88	-0.0984945
1529.43	0.158417
1530.99	0.623439
1532.54	0.158476
1534.09	0.0552807
1535.65	0.577358
1537.2	-0.0534801
1538.75	0.299074
1540.31	-0.10302
1541.86	0.343489
1543.41	0.619675
1544.96	0.161886
1546.51	0.174407
1548.06	0.486979
1549.62	0.836352
1551.17	0.417468
1552.72	0.4675
1554.27	0.480832
1555.82	0.607365
1557.36	0.0819159
1558.91	0.192924
1560.46	0.585245
1562.01	0.717679
1563.56	0.45931
1565.11	0.089427
1566.66	0.466
1568.2	0.226581
1569.75	0.304123
1571.3	0.586704
1572.84	0.383723
1574.39	0.292628
1575.93	0.630905
1577.48	0.427992
1579.02	0.430761
1580.57	0.209973
1582.11	1.1103
1583.66	0.517303
1585.2	0.597317
1586.75	0.958253
1588.29	0.608872
1589.83	0.577139
1591.38	0.376557
1592.92	0.25036
1594.46	0.49846
1596	0.709266
1597.54	0.583187
1599.09	0.645063
1600.63	0.726342
1602.17	0.995788
1603.71	1.1904
1605.25	1.04647
1606.79	0.450238
1608.33	0.171681
1609.87	0.98139
1611.41	1.1312
1612.95	0.772118
1614.48	0.168329
1616.02	0.540255
1617.56	0.405977
1619.1	0.666215
1620.64	0.45927
1622.17	0.796568
1623.71	0.479215
1625.25	0.686122
1626.78	0.44319
1628.32	0.536108
1629.86	0.683913
1631.39	0.363459
1632.92	0.379244
1634.46	0.675248
1635.99	0.635759
1637.53	0.653024
1639.06	0.838601
1640.59	0.353169
1642.13	0.556914
1643.66	0.536154
1645.19	1.03547
1646.73	0.8825
1648.26	0.915291
1649.79	0.261317
1651.32	0.963622
1652.85	0.79447
1654.38	0.97869
1655.92	0.551696
1657.45	1.10696
1658.98	0.64251
1660.51	0.232968
1662.04	1.43223
1663.57	0.983562
1665.09	0.498169
1666.62	0.49367
1668.15	0.434714
1669.68	1.05904
1671.21	0.725948
1672.73	0.467706
1674.26	0.559886
1675.79	1.07529
1677.31	0.540675
1678.84	0.686246
1680.37	0.683706
1681.89	-0.0728173
1683.42	0.181288
1684.94	0.930573
1686.47	0.670561
1687.99	0.392914
1689.52	0.189175
1691.04	0.553448
1692.57	0.45992
1694.09	0.0189013
1695.61	0.163226
1697.14	0.288919
1698.66	0.0489745
1700.18	0.666724
1701.7	0.371346
1703.22	0.640865
1704.75	0.126458
1706.27	0.431289
1707.79	0.244516
1709.31	0.348615
1710.83	0.0170474
1712.35	-0.0780849
1713.87	0.171311
1715.39	0.311733
1716.91	0.0901246
1718.43	-0.0408664
1719.95	0.117234
1721.46	-0.0495601
1722.98	-0.0173302
1724.5	0.574186
1726.02	0.0856833
1727.53	-0.239276
1729.05	-0.257314
1730.57	0.156016
1732.08	-0.0760431
1733.6	-0.0941424
1735.12	-0.00845718
1736.63	0.368602
1738.15	0.0543251
1739.66	0.00754452
1741.18	-0.205069
1742.69	0.386302
1744.21	-0.0820131
1745.72	0.349522
1747.23	0.0875707
1748.74	-0.0332851
1750.26	-0.296832
1751.77	0.298641
1753.28	0.296278
1754.8	-0.129622
1756.31	-0.0269127
1757.82	0.0492105
1759.33	0.112848
1760.84	0.367241
1762.35	0.435843
1763.86	0.0901036
1765.37	0.151461
1766.88	-0.296155
1768.39	-0.145817
1769.9	0.029593
1771.41	0.250724
1772.92	0.0529714
1774.43	0.0492496
1775.93	0.142257
1777.44	0.0629878
1778.95	0.252344
1780.46	0.0684175
1781.96	0.24871
1783.47	-0.157702
1784.98	-0.0454979
1786.48	0.0437183
1787.99	0.244177
1789.49	-0.0961056
1791	0.0532966
1792.5	0.21177
1794.01	-0.150035
1795.51	0.116518
1797.02	0.289002
1798.52	0.326649
1800.03	0.192605
1801.53	0.0764313
1803.03	-0.116976
1804.53	-0.0569978
1806.04	0.00697803
1807.54	-0.134936
1809.04	0.22072
1810.54	0.231713
1812.04	0.0470462
1813.54	0.0792427
1815.05	-0.214516
1816.55	-0.0100503
1818.05	0.271585
1819.55	0.0627427
1821.05	0.104165
1822.55	-0.0481062
1824.05	-0.0597587
1825.54	0.250672
1827.04	-0.251035
1828.54	0.133231
1830.04	0.195848
1831.54	-0.00729895
1833.03	-0.225638
1834.53	0.0411024
1836.03	-0.00232983
1837.52	0.0250311
1839.02	-0.115663
1840.52	0.266612
1842.01	0.312982
1843.51	0.152337
1845	0.063643
1846.5	0.0107441
1847.99	0.0831409
1849.49	-0.165356
1850.98	0.349426
1852.47	0.0111942
1853.97	0.146663
1855.46	0.135022
1856.95	0.170971
1858.45	0.127699
1859.94	-0.214685
1861.43	0.0235076
1862.92	0.11975
1864.41	-0.0548215
1865.91	-0.26154
1867.4	-0.222685
1868.89	0.0926957
1870.38	-0.00484085
1871.87	0.249967
1873.36	0.172353
1874.85	0.268891
1876.34	0.282444
1877.83	0.327367
1879.31	0.219882
1880.8	0.166761
1882.29	-0.0616765
1882.56	-0.111135
1884.05	-0.163969
1885.54	0.0962534
1887.04	0.198757
1888.53	0.0396209
1890.03	0.00262308
1891.52	-0.0856705
1893.01	0.0882301
1894.5	-0.536123
1895.99	-0.185597
1897.49	-0.286461
1898.98	0.221366
1900.47	0.189157
1901.96	0.172954
1903.45	0.103079
1904.94	-0.0896401
1906.43	0.0646648
1907.92	-0.284786
1909.41	0.251818
1910.9	0.112111
1912.39	0.164068
1913.88	0.199138
1915.37	-0.0431767
1916.86	0.0437245
1918.35	-0.164508
1919.84	0.0428567
1921.32	-0.200317
1922.81	0.0764742
1924.3	0.0768847
1925.78	0.0263243
1927.27	-0.213779
1928.76	0.135287
1930.24	-0.121684
1931.73	0.36528
1933.21	0.158328
1934.7	-0.0327268
1936.18	-0.138504
1937.67	-0.0895138
1939.15	-0.213737
1940.64	-0.00946903
1942.12	0.17801
1943.6	-0.0132914
1945.09	0.106665
1946.57	0.226856
1948.05	-0.0668306
1949.54	-0.119752
1951.02	-0.0873537
1952.5	0.271177
1953.98	-0.110626
1955.46	-0.165481
1956.94	0.0548139
1958.42	0.309746
1959.91	-0.00103712
1961.39	0.169026
1962.87	0.150578
1964.34	-0.244933
1965.82	0.0787306
1967.3	0.401481
1968.78	0.518027
1970.26	0.104034
1971.74	0.441935
1973.22	0.0795193
1974.7	0.0758767
1976.17	0.413265
1977.65	0.256412
1979.13	0.372192
1980.6	0.53882
1982.08	-0.450795
1983.56	0.0554914
1985.03	0.221296
1986.51	0.183116
1987.98	-0.0075345
1989.46	0.157989
1990.93	0.120784
1992.41	0.321204
1993.88	0.336335
1995.36	0.352162
1996.83	-0.0877757
1998.3	-0.0714855
1999.78	0.214545
2001.25	0.196081
2002.72	0.143486
2004.2	0.225692
2005.67	0.139617
2007.14	-0.0131245
2008.61	0.188631
2010.08	-0.181378
2011.55	0.00464869
2013.02	0.325315
2014.49	0.27529
2015.97	0.106853
2017.43	0.509567
2018.9	-0.0301552
2020.37	0.404699
2021.84	0.234435
2023.31	0.232482
2024.78	0.398993
2026.25	-0.0709796
2027.72	-0.0699778
2029.19	0.183842
2030.65	-0.148324
2032.12	0.241728
2033.59	0.0784473
2035.05	0.0829659
2036.52	0.00317287
2037.98	0.0405111
2039.45	0.211999
2040.92	0.265838
2042.38	0.135077
2043.85	0.290806
2045.31	0.41378
2046.78	0.200793
2048.24	0.425815
2049.71	0.347411
2051.17	0.200608
2052.63	0.339096
2054.1	0.121885
2055.56	0.409123
2057.02	0.290467
2058.48	0.103827
2059.95	0.641486
2061.41	0.26988
2062.87	0.33686
2064.33	0.236372
2065.79	0.843563
2067.25	0.391248
2068.71	0.141348
2070.17	0.346148
2071.63	0.349019
2073.09	0.402282
2074.55	0.202738
2076.01	0.306001
2077.47	0.358439
2078.93	0.343174
2080.39	0.495903
2081.85	0.446076
2083.3	0.328359
2084.76	0.546623
2086.22	0.377208
2087.68	0.45961
2089.13	0.138245
2090.59	0.236954
2092.05	0.217977
2093.5	0.299613
2094.96	0.61572
2096.41	0.646102
2097.87	0.67586
2099.32	0.353577
2100.78	0.549918
2102.23	0.879831
2103.69	0.408501
2105.14	0.739926
2106.59	0.655196
2108.05	0.337929
2109.5	0.304564
2110.95	0.23741
2112.41	0.635753
2113.86	0.865671
2115.31	0.611312
2116.76	0.556099
2118.21	0.00297308
2119.67	0.364676
2121.12	0.677784
2122.57	0.428442
2124.02	0.545232
2125.47	0.74544
2126.92	0.414824
2128.37	0.895689
2129.82	0.546546
2131.27	0.875638
2132.71	0.971947
2134.16	0.9027
2135.61	0.652355
2137.06	0.998509
2138.51	0.817304
2139.95	0.951766
2141.4	0.872801
2142.85	0.513693
2144.29	0.899295
2145.74	1.16948
2147.19	1.34026
2148.63	1.07995
2150.08	1.03409
2151.52	0.904473
2152.97	0.707698
2154.42	1.10669
2155.86	1.02479
2157.3	1.20801
2158.75	1.40841
2160.19	1.01365
2161.64	1.18369
2163.08	0.82494
2164.52	1.0975
2165.96	1.38777
2167.41	1.14669
2168.85	0.970842
2170.29	0.893055
2171.73	1.06294
2173.17	1.1979
2174.61	1.16529
2176.06	1.39827
2177.5	1.09928
2178.94	0.717908
2180.38	1.30167
2181.82	1.32095
2183.26	1.47378
2184.7	0.978233
2186.14	0.898463
2187.57	1.66727
2189.01	0.855379
2190.45	1.20835
2191.89	0.595584
2193.33	1.33068
2194.76	1.54848
2196.2	1.13201
2197.64	0.996904
2199.08	1.04334
2200.51	1.08881
2201.95	0.818646
2203.38	0.748523
2204.82	0.878392
2206.25	0.611248
2207.69	0.924594
2209.12	0.657928
2210.56	0.672206
2211.99	0.702157
2213.43	0.615727
2214.86	0.79359
2216.3	0.773654
2217.73	0.68873
2219.16	0.868783
2220.59	0.637305
2222.03	0.867521
2223.46	0.750981
2224.89	0.732139
2226.32	0.942201
2227.75	0.575061
2229.19	0.289651
2230.62	0.611185
2232.05	0.309149
2233.48	0.515419
2234.91	0.64013
2236.34	0.455211
2237.77	0.598414
2239.2	0.188288
2240.63	0.563066
2242.06	0.466227
2243.48	0.924972
2244.91	0.568491
2246.34	0.651817
2247.77	0.358666
2249.2	0.81376
2250.62	0.663652
2252.05	0.67503
2253.48	0.669404
2254.9	0.48534
2256.33	0.465157
2257.76	0.625473
2259.18	0.479886
2260.61	0.466568
2262.03	0.520211
2263.46	0.494035
2264.88	0.321793
2266.31	0.29538
2267.73	0.398424
2269.16	-0.0362773
2270.58	0.309495
2272	-0.0288515
2273.43	0.414257
2274.85	0.222319
2276.27	0.502973
2277.69	0.0830951
2279.12	0.217326
2280.54	0.253735
2281.96	0.502092
2283.38	0.636286
2284.8	0.199422
2286.22	0.203234
2287.64	0.337969
2289.07	0.0321445
2290.49	0.478058
2291.91	0.483192
2293.32	0.521134
2294.74	0.379107
2296.16	0.433305
2297.58	0.307365
2299	0.296034
2300.42	-0.174069
2301.84	0.224688
2303.26	0.213914
2304.67	0.0719295
2306.09	0.471701
2307.51	0.165024
2308.92	-0.0930686
2310.34	0.157939
2311.76	-0.150485
2313.17	0.363581
2314.59	0.0553274
2316	0.422565
2317.42	0.345965
2318.83	-0.0435681
2320.25	0.605375
2321.66	0.329932
2323.08	0.432326
2324.49	0.516257
2325.91	0.334263
2327.32	0.431346
2328.73	0.659531
2330.15	0.722918
2331.56	0.227265
2332.97	0.391238
2334.38	0.0622063
2335.79	0.128322
2337.21	0.309146
2338.62	0.242434
2340.03	0.0926657
2341.44	0.00798035
2342.85	0.0706921
2344.26	0.116893
2345.67	0.196035
2347.08	0.242549
2348.49	0.43634
2349.9	0.187881
2351.31	0.396805
2352.72	0.114598
2354.13	0.223717
2355.53	0.0712562
2356.94	0.374732
2358.35	0.38477
2359.76	0.118695
2361.17	0.145387
2362.57	0.253066
2363.98	0.409004
2365.39	0.241007
2366.79	0.186642
2368.2	-0.0447106
2369.6	-0.000580788
2371.01	0.157371
2372.42	0.155107
2373.82	0.282484
2375.22	0.361772
2376.63	0.408483
2378.03	0.293418
2379.44	0.17721
2380.84	-0.197014
2382.25	0.0697889
2383.65	0.191122
2385.05	-0.00794601
2386.45	0.0653958
2387.86	0.0914173
2389.26	0.341567
2390.66	0.512688
2392.06	0.429837
2393.46	0.33203
2394.87	0.0123596
2396.27	0.0273819
2397.67	0.0905781
2399.07	0.122425
2400.47	-0.178943
2401.87	0.250673
2403.27	0.330804
2404.67	0.22005
2406.07	0.267357
2407.47	0.0123806
2408.86	0.407225
2410.26	0.373415
2411.66	0.49826
2413.06	0.116929
2414.46	0.116872
2415.85	0.212995
2417.25	-0.0539184
2418.65	0.0440159
2420.05	0.158108
2421.44	0.0503721
2422.84	0.401752
2424.23	0.0241356
2425.63	-0.0682793
2427.03	-0.0176644
2428.42	0.0970793
2429.82	0.260249
2431.21	0.201993
2432.6	-0.0149598
2434	-0.0101876
2435.39	0.0731063
2436.79	0.0599008
2438.18	-0.176969
2439.57	0.125285
2440.97	-0.129152
2442.36	0.0130086
2443.75	0.0754895
2445.14	-0.369781
2446.54	-0.053791
2447.93	0.277656
2449.32	0.101914
2450.71	0.211509
2452.1	-0.0583978
2453.49	0.00477171
2454.88	0.479928
2456.27	0.0222397
2457.66	0.24504
2459.05	-0.0859089
2460.44	0.0255547
2461.83	-0.0850258
2463.22	0.0725145
2464.61	-0.00751734
2466	0.149158
2467.39	0.163554
2468.77	-0.437454
2470.16	-0.0445199
2471.55	0.268845
2472.94	-0.0330772
2474.32	-0.0833535
2475.71	-0.134073
2477.1	0.239352
2478.48	0.203823
2479.87	0.231254
2481.25	0.697806
2482.64	0.254869
2484.02	-0.234708
2485.41	0.0734925
2486.8	-0.19788
2488.18	-0.00138474
2489.56	0.00702429
2490.95	0.342129
2492.33	-0.0848341
2493.72	0.111137
2495.1	0.059607
2496.48	0.164184
2497.86	0.315764
2499.25	0.591177
2500.63	0.200826
2502.01	0.134959
2503.39	0.516169
2504.77	0.0320916
2506.16	0.0415816
2507.54	0.00468683
2508.92	0.198577
2510.3	-0.0222359
2511.68	0.34091
2513.06	0.244192
2514.44	-0.00480652
2515.82	0.0533805
2517.2	0.433346
2518.58	0.278251
2519.95	0.0317712
2521.33	-0.123033
2522.71	0.546023
2524.09	0.298335
2525.47	-0.086741
2526.84	0.168152
2528.22	-0.185641
2529.6	0.359069
2530.98	0.205388
2532.35	-0.220288
2533.73	-0.0522232
2535.11	-0.0203447
2536.48	0.284946
2537.86	0.194681
2539.23	0.0277166
2540.61	-0.00318193
2541.98	0.299556
2543.36	0.283711
2544.73	0.162412
2546.1	0.239348
2547.48	0.211124
2548.85	0.335316
2550.23	0.156104
2551.6	-0.0539088
2552.97	0.0388503
2554.34	-0.430698
2555.72	-0.111847
2557.09	0.342926
2558.46	0.145331
2559.83	0.0693412
2561.2	0.266636
2562.58	-0.0811591
2563.95	-0.0647378
2565.32	0.103566
2566.69	0.0447621
2568.06	0.273978
2569.43	0.291044
2570.8	-0.207215
2572.17	0.128178
2573.54	0.00892258
2574.91	-0.0344706
2576.27	0.437635
2577.64	0.0303435
2579.01	-0.149736
2580.38	-0.041997
2581.75	0.126066
2583.11	-0.115546
2584.48	-0.00862312
2585.85	0.113402
2587.21	-0.143413
2588.58	0.0697885
2589.95	0.252747
2591.31	0.0112762
2592.68	0.0573592
2594.04	0.329998
2595.41	0.147334
2596.78	0.175882
2598.14	0.188629
2599.51	0.0045166
2600.87	-0.269941
2602.23	-0.135953
2603.6	0.194677
2604.96	-0.244069
2606.32	-0.124226
2607.69	-0.0198112
2609.05	0.129053
2610.41	0.0960226
2611.77	0.137216
2613.14	0.20746
2614.5	-0.263803
2615.86	0.0159645
2617.22	0.310342
2618.58	-0.278915
2619.94	-0.0884256
2621.3	-0.181744
2622.67	0.0840907
2624.03	0.275093
2625.39	0.256893
2626.75	0.372716
2628.1	-0.0632324
2629.46	-0.141419
2630.82	-0.189892
2632.18	0.311667
2633.54	0.33707
2634.9	0.0804162
2636.26	-0.3538
2637.61	-0.105701
2638.97	0.349329
2640.33	0.34515
2641.69	-0.0283747
2643.04	0.0272832
2644.4	-0.197484
2645.76	0.16809
2647.11	-0.204255
2648.47	0.145172
2649.82	-0.0511479
2651.18	0.163992
2652.53	-0.00337267
2653.89	-0.0821805
2655.24	0.0742831
2656.6	0.246027
2657.95	-0.108417
2659.31	0.108778
2660.66	0.0628977
2662.01	-0.392247
2663.37	0.291894
2664.72	0.0403714
2666.07	0.328248
2667.43	0.192661
2668.78	-0.161187
2670.13	0.125945
2671.48	-0.168484
2672.83	-0.142353
2674.18	-0.08671
2675.53	0.24511
2676.89	0.0402951
2678.24	0.227771
2679.59	0.140342
2680.94	-0.0766754
2682.29	0.156735
2683.64	-0.029356
2684.99	-0.0697184
2686.34	-0.0807157
2687.68	0.329068
2689.03	0.026722
2690.38	0.202046
2691.73	0.259728
2693.08	0.142029
2694.43	0.0671678
2695.77	0.209639
2697.12	-0.357301
2698.47	0.206707
2699.81	-0.212737
2701.16	0.06426
2702.51	-0.0630131
2703.85	-0.204034
2705.2	0.220638
2706.54	-0.340561
2707.89	-0.0318027
2709.23	0.422072
2710.58	0.280568
2711.92	0.0370688
2713.27	0.142062
2714.61	0.217997
2715.96	-0.0841084
2717.3	-0.211964
2718.64	-0.0636725
2719.99	0.186265
2721.33	0.217631
2722.67	0.292277
2724.01	0.00266075
2725.36	0.105691
2726.7	-0.0535703
2728.04	0.26722
2729.38	0.0347762
2730.72	0.107838
2732.06	0.00628042
2733.41	0.10848
2734.75	0.167169
2736.09	0.313289
2737.43	0.0813689
2738.77	0.227579
2740.11	-0.120856
2741.44	-0.0624604
2742.78	0.0971718
2744.12	0.067245
2745.46	0.182121
2746.8	0.32561
2748.14	0.338194
2749.48	0.0896573
2750.81	0.146056
2752.15	0.0141544
2753.49	0.273841
2754.83	0.156816
2756.16	-0.249688
2757.5	-0.163519
2758.84	0.111
2760.17	-0.265571
2761.51	0.298977
2762.84	0.0969052
2764.18	0.314721
2765.51	0.141857
2766.85	0.272457
2768.18	-0.277546
2769.52	0.0103898
2770.85	-0.0643587
2772.19	0.0187707
2773.52	0.331825
2774.85	-0.192237
2776.19	-0.13926
2777.52	-0.0572968
2778.85	0.24068
2780.18	-0.309179
2781.52	-0.254897
2782.85	0.000292778
2784.18	0.240769
2785.51	-0.0493598
2786.84	-0.124111
2788.17	-0.0409126
2789.51	-0.0430202
2790.84	0.0414062
2792.17	0.0549145
2793.5	0.0544915
2794.83	-0.0602322
2796.16	0.0820236
2797.48	0.0237932
2798.81	0.0222764
2800.14	-0.0652051
2801.47	0.218074
2802.8	0.15874
2804.13	0.142006
2805.46	0.0109982
2806.79	0.107398
2808.11	0.117827
2809.44	-0.170533
2810.77	-0.00399303
2812.09	-0.00749254
2813.42	-0.0242577
2814.75	0.0310335
2816.07	0.215018
2817.4	0.0171804
2818.73	-0.109311
2820.05	-0.0940609
2821.38	0.190125
2822.7	0.0911021
2824.03	-0.0367126
2825.35	-0.00892258
2826.67	-0.00942755
2828	0.217014
2829.32	0.0616212
2830.65	0.317149
2831.97	0.148168
2833.29	0.0640802
2834.62	0.192061
2835.94	0.234716
2837.26	0.418422
2838.58	0.0924568
2839.9	0.303893
2841.23	0.444617
2842.55	0.698699
2843.87	0.656437
2845.19	0.628908
2846.51	0.31923
2847.83	0.518601
2849.15	0.33639
2850.47	0.5073
2851.79	0.790905
2853.11	0.664229
2854.43	0.791642
2855.75	0.961263
2857.07	0.664655
2858.39	0.735411
2859.71	0.820258
2861.02	0.664907
2862.34	1.01759
2863.66	0.875854
2864.98	0.987973
2866.3	0.973063
2867.61	1.1417
2868.93	1.19779
2870.25	0.958143
2871.56	1.18384
2872.88	1.21194
2874.19	1.08449
2875.51	1.06901
2876.83	1.19354
2878.14	0.613799
2879.46	1.31425
2880.77	1.213
2882.09	1.36535
2883.4	1.44815
2884.71	1.4193
2886.03	1.48917
2887.34	1.05381
2888.65	1.51633
2889.97	1.27665
2891.28	1.33098
2892.59	1.42686
2893.91	1.55056
2895.22	1.31037
2896.53	1.47688
2897.84	1.60208
2899.15	1.35024
2900.46	1.47675
2901.78	1.49166
2903.09	1.73053
2904.4	1.99745
2905.71	1.85894
2907.02	1.35717
2908.33	2.01699
2909.64	2.02001
2910.95	1.96747
2912.26	2.06886
2913.57	2.16973
2914.87	2.01757
2916.18	2.18615
2917.49	2.43749
2918.8	2.35219
2920.11	2.50459
2921.42	2.7413
2922.72	2.32181
2924.03	2.25288
2925.34	2.52023
2926.64	2.42459
2927.95	2.48273
2929.26	2.69439
2930.56	2.66797
2931.87	2.76702
2933.17	2.9777
2934.48	2.8389
2935.78	2.40671
2937.09	2.58959
2938.39	2.80053
2939.7	2.57846
2941	2.72009
2942.31	2.72261
2943.61	2.4325
2944.91	2.14324
2946.22	2.14831
2947.52	2.53156
2948.82	2.24308
2950.13	2.23358
2951.43	2.2648
2952.73	2.1966
2954.03	1.9734
2955.33	2.07194
2956.64	2.05914
2957.94	2.1318
2959.24	2.19247
2960.54	2.00309
2961.84	1.68877
2963.14	1.85153
2964.44	1.66309
2965.74	1.99317
2967.04	1.7883
2968.34	1.70882
2969.64	1.43187
2970.94	1.81576
2972.24	1.59509
2973.53	1.57156
2974.83	1.35092
2976.13	1.83367
2977.43	0.823004
2978.73	1.20504
2980.02	1.20563
2981.32	1.13489
2982.62	1.0638
2983.91	1.00706
2985.21	0.670055
2986.51	0.882288
2987.8	1.23604
2989.1	0.901967
2990.4	0.835044
2991.69	0.542861
2992.99	0.0953383
2994.28	0.799207
2995.57	0.687167
2996.87	0.392138
2998.16	0.405922
2999.46	0.644285
3000.75	0.462197
3002.05	0.364755
3003.34	0.113523
3004.63	0.338777
3005.92	0.437632
3007.22	0.269957
3008.51	0.255682
3009.8	0.520368
3011.09	0.434787
3012.39	0.139557
3013.68	0.221416
3014.97	0.205868
3016.26	0.218712
3017.55	0.0928698
3018.84	0.176249
3020.13	0.245656
3021.42	0.17562
3022.71	0.216096
3024	0.0753212
3025.29	-0.162854
3026.58	0.111688
3027.87	0.247676
3029.16	-0.127257
3030.45	-0.016974
3031.73	-0.0852499
3033.02	0.0957842
3034.31	0.235497
3035.6	0.00218391
3036.89	0.347112
3038.17	0.0564013
3039.46	0.150055
3040.75	0.15976
3042.03	-0.0646253
3043.32	-0.123989
3044.61	-0.292076
3045.89	-0.0894136
3047.18	0.182775
3048.46	0.36083
3049.75	-0.00550604
3051.03	-0.0702724
3052.32	0.31585
3053.6	-0.0894723
3054.89	0.0777435
3056.17	-0.137826
3057.45	-0.0541825
3058.74	0.0832357
3060.02	0.165789
3061.31	0.357366
3062.59	0.155054
3063.87	0.0627284
3065.15	0.216311
3066.44	-0.281619
3067.72	0.0368924
3069	0.0565743
3070.28	0.184817
3071.56	-0.0412621
3072.84	0.166873
3074.13	0.0204411
3075.41	-0.0451088
3076.69	0.079236
3077.97	0.230883
3079.25	0.288249
3080.53	-0.290806
3081.81	-0.0818534
3083.09	0.128046
3084.37	-0.0685687
3085.64	-0.00739479
3086.92	-0.055181
3088.2	0.357924
3089.48	0.200349
3090.76	-0.201844
3092.04	0.0200281
3093.31	-0.0565186
3094.59	-0.0921659
3095.87	-0.195425
3097.14	0.0944982
3098.42	-0.130814
3099.7	0.0232196
3100.97	0.163507
3102.25	-0.0754647
3103.53	0.0649414
3104.8	0.00260544
3106.08	0.0220222
3107.35	0.190969
3108.63	-0.15357
3109.9	-0.0778069
3111.18	-0.0283766
3112.45	0.0351839
3113.73	-0.158397
3115	0.013823
3116.27	0.0772548
3117.55	0.289164
3118.82	0.0661435
3120.09	0.249055
3121.37	0.0785809
3122.64	0.205836
3123.91	0.156673
3125.18	0.202412
3126.45	0.302552
3127.73	0.0377259
3129	0.00335169
3130.27	0.0773792
3131.54	0.178414
3132.81	0.117058
3134.08	0.00136423
3135.35	-0.384676
3136.62	0.308517
3137.89	-0.0916839
3139.16	0.208831
3140.43	-0.0431767
3141.7	0.296908
3142.97	0.300679
3144.24	-0.178533
3145.51	0.228772
3146.78	0.555528
3148.04	0.319662
3149.31	0.325484
