200.423	0.0936174
202.238	0.122186
204.052	0.151792
205.868	1.15514
207.682	0.285801
209.495	0.218458
211.308	1.29141
213.12	-0.0414934
214.935	-0.524941
216.746	0.154917
218.558	-0.110885
220.369	0.253448
222.18	0.279512
223.992	0.741593
225.802	1.17957
227.612	0.191893
229.421	0.363557
231.23	0.244725
233.039	-0.139826
234.849	0.392512
236.657	0.0578136
238.465	0.0145063
240.272	-0.339715
242.079	-0.185585
243.885	0.16291
245.691	0.415032
247.497	-0.541533
249.305	0.213133
251.11	0.481519
252.915	0.143319
254.719	0.358265
256.523	0.596503
258.327	1.14855
260.13	0.111854
261.933	-0.175769
263.736	-0.269067
265.538	0.987919
267.34	0.51048
269.141	0.369893
270.943	-0.0127888
272.744	0.133609
274.544	-0.420728
276.344	0.325046
278.144	0.0804205
279.944	0.628649
281.743	-0.486814
283.542	-0.303887
285.34	-0.00269222
287.138	-0.0630188
288.936	0.236325
290.733	0.751358
292.53	0.1658
294.327	0.0610294
296.123	-0.161719
297.919	0.405436
299.715	0.208135
301.508	0.560043
303.303	0.313886
305.098	0.352957
306.892	-0.0384007
308.686	0.0709429
310.479	0.132991
312.273	-0.0658579
314.065	0.284673
315.858	0.0655165
317.648	0.0147896
319.44	0.89468
321.231	0.227281
323.022	0.0130777
324.813	0.443281
326.604	0.420432
328.392	-0.0567169
330.181	0.18204
331.971	0.539388
333.76	0.105619
335.548	-0.16308
337.335	0.259768
339.123	0.871672
340.91	0.309629
342.698	0.153483
344.483	-0.0743456
346.269	-0.0388165
348.055	0.379394
349.841	0.248813
351.625	0.524033
353.41	0.464463
355.195	0.284525
356.977	0.38943
358.762	-0.412734
360.545	0.38046
362.329	0.410031
364.11	-0.20328
365.893	0.157716
367.675	-0.194832
369.455	-0.263066
371.237	-0.0241327
373.017	0.189861
374.798	0.237515
376.578	-0.116219
378.357	-0.162151
380.137	0.0991211
381.917	0.572921
383.694	0.0359192
385.473	-0.217017
387.249	0.259915
389.028	0.150373
390.806	0.0653629
392.581	-0.112762
394.359	-0.243286
396.134	0.0492487
397.91	-0.151299
399.684	0.117678
401.46	0.292283
403.234	0.0904093
405.009	0.122652
406.784	-0.456433
408.557	0.114471
410.331	0.450065
412.103	0.59778
413.876	0.957066
415.647	0.214251
417.42	0.434319
419.191	0.138805
420.961	0.594535
422.733	0.345937
424.502	0.495649
426.273	0.362704
428.042	-0.193672
429.812	0.564019
431.58	0.453102
433.35	-0.291151
435.118	0.232299
436.885	0.0516424
438.653	0.175406
440.42	0.29768
442.188	0.15981
443.954	0.559038
445.719	-0.215507
447.486	0.414279
449.251	0.200616
451.015	0.524772
452.781	-0.0617008
454.545	-0.203805
456.308	0.423433
458.073	-0.254634
459.836	0.604263
461.598	0.323141
463.362	0.508784
465.124	0.464437
466.885	-0.134562
468.648	0.245162
470.408	-0.233281
472.169	0.172621
473.929	0.252316
475.69	0.21385
477.45	0.312901
479.208	0.340153
480.967	0.645849
482.727	0.252921
484.485	0.280424
486.243	0.449696
488	0.667963
489.759	0.305609
491.515	-0.149581
493.272	0.726892
495.028	0.155267
496.783	0.144296
498.54	-0.171555
500.295	0.285446
502.05	0.179293
503.804	0.142549
505.558	-0.0834188
507.311	0.770722
509.064	0.30663
510.819	-0.0652514
512.572	1.16132
514.324	0.456811
516.076	0.00985432
517.827	0.432067
519.578	0.594353
521.329	0.497242
523.08	0.00050354
524.83	0.513345
526.58	0.321858
528.329	0.341633
530.08	0.572201
531.829	1.08318
533.578	0.445767
535.326	0.509718
537.074	1.03952
538.821	0.23606
540.568	0.295954
542.315	0.261716
544.062	0.134113
545.808	0.192678
547.554	0.228086
549.299	0.773681
551.044	0.669928
552.789	0.612878
554.533	0.556175
556.278	-0.123349
558.019	-0.386025
559.763	0.34296
561.506	0.104424
563.249	0.027894
564.991	0.0210342
566.733	0.17564
568.475	-0.128275
570.217	-0.270202
571.958	-0.0665627
573.699	0.161576
575.439	0.0703487
577.177	0.0955257
578.917	-0.314081
580.656	0.103541
582.396	-0.167645
584.134	0.296085
585.873	-0.25274
587.609	0.0250368
589.347	-0.0203743
591.084	0.692542
592.822	0.438601
594.558	-0.0225525
596.295	0.183561
598.029	0.297634
599.765	-0.255809
601.5	-0.00483036
603.235	0.175841
604.968	0.217011
606.703	0.210869
608.437	-0.00277424
610.171	0.0820475
611.902	0.281945
613.635	0.0926847
615.368	-0.370739
617.099	0.426476
618.831	-0.197308
620.563	-0.455304
622.294	0.292372
624.024	0.466689
625.755	0.366609
627.485	-0.00623226
629.213	0.330694
630.943	0.304768
632.673	0.668895
634.4	0.166997
636.129	0.988646
637.855	0.872705
639.584	-0.250169
641.312	0.928667
643.037	0.849828
644.764	0.678672
646.491	0.326138
648.216	0.589817
649.942	0.17477
651.666	-0.1681
653.392	0.0609541
655.115	0.680293
656.84	-0.085803
658.563	0.196033
660.287	0.364017
662.011	0.211043
663.732	0.192671
665.456	0.103294
667.177	0.28637
668.899	0.697437
670.62	0.537429
672.342	0.333542
674.061	-0.00551128
675.781	0.413404
677.502	-0.198041
679.22	-0.443076
680.941	0.551937
682.659	1.04069
684.379	0.376863
686.096	0.401231
687.815	0.193692
689.532	0.699088
691.248	0.0981054
692.966	0.625207
694.682	0.322332
696.4	0.248849
698.115	1.026
699.829	0.328584
701.546	0.780585
703.26	0.403683
704.974	0.968235
706.689	0.498659
708.402	0.602698
710.115	1.11863
711.83	0.625984
713.542	0.957335
715.254	0.830839
716.967	1.02416
718.679	0.624144
720.39	0.817604
722.102	1.1703
723.812	1.02191
725.522	1.1692
727.232	0.748118
728.943	0.871977
730.652	0.768458
732.361	1.04978
734.069	2.14484
735.779	0.932286
737.487	0.851541
739.194	1.0198
740.901	0.918265
742.608	0.863172
744.316	0.944597
746.022	0.509813
747.728	0.751626
749.433	1.512
751.138	0.451763
752.843	0.922312
754.549	0.944426
756.254	0.96805
757.957	0.633
759.661	0.862258
761.364	0.935138
763.067	1.75326
764.769	1.42079
766.471	1.29006
768.175	2.03894
769.877	1.99461
771.578	1.83498
773.279	1.3346
774.98	1.62516
776.68	1.59968
778.38	1.73381
780.079	1.73389
781.779	1.32794
783.478	1.60086
785.176	1.96337
786.875	1.75757
788.573	2.04645
790.27	1.26847
791.968	1.82225
793.665	2.01206
795.361	1.68233
797.058	1.17383
798.754	1.88392
800.45	1.96477
802.145	1.48462
803.84	1.43289
805.535	1.49347
807.23	1.44084
808.922	1.83622
810.616	1.22001
812.309	1.36617
814.002	1.62354
815.695	1.29816
817.388	1.51012
819.08	1.47594
820.772	1.375
822.464	2.1448
824.153	1.95552
825.844	1.38914
827.535	1.67187
829.225	1.8236
830.915	1.35487
832.605	1.31209
834.292	2.02928
835.981	1.27631
837.67	1.92828
839.359	1.5973
841.047	1.73349
842.732	1.48855
844.42	2.13683
846.107	1.26615
847.794	2.07366
849.479	1.07228
851.165	1.75131
852.851	1.44736
854.534	1.36813
856.22	1.51322
857.905	0.803118
859.589	1.73279
861.272	1.78379
862.956	1.17982
864.639	1.15996
866.321	1.5224
868.004	1.36572
869.687	1.32128
871.367	1.05091
873.049	1.45707
874.731	1.18634
876.41	1.23148
878.092	1.14121
879.771	1.43456
881.451	1.47927
883.131	1.83931
884.809	1.15979
886.489	0.953008
888.166	0.722241
889.845	1.25685
891.522	1.45132
893.2	1.32885
894.878	1.04786
896.554	0.946143
898.231	0.394489
899.906	1.12175
901.583	1.73447
903.258	0.935375
904.934	1.54602
906.608	1.57503
908.283	1.35936
909.956	1.01147
911.631	1.26586
913.304	1.38711
914.976	1.5307
916.65	1.27477
918.322	1.28521
919.995	1.0743
921.666	1.37313
923.339	1.03155
925.009	0.97925
926.679	1.0613
928.351	1.47603
930.021	1.11948
931.692	1.07266
933.361	0.959946
935.029	1.09006
936.699	0.735341
938.367	1.13134
940.035	1.04332
941.704	0.669703
943.371	0.91448
945.038	0.430901
946.706	0.740761
948.372	1.84353
950.038	1.28882
951.705	0.865479
953.37	0.817357
955.035	0.77073
956.7	1.05753
958.366	1.0609
960.03	0.735985
961.693	0.898124
963.357	1.10463
965.021	0.889513
966.684	0.6052
968.346	0.716331
970.008	1.22359
971.67	1.35373
973.334	1.48424
974.995	0.665301
976.655	1.55101
978.316	1.39889
979.976	1.47974
981.638	1.56026
983.297	0.698545
984.957	0.985972
986.616	1.16058
988.274	1.04562
989.932	1.70342
991.59	0.591776
993.248	0.850631
994.907	0.998881
996.565	1.25739
998.221	0.633602
999.878	0.583257
1001.53	0.642696
1003.19	1.44986
1004.85	0.540241
1006.5	0.818453
1008.16	0.766977
1009.81	0.913379
1011.46	1.03808
1013.12	1.55757
1014.77	1.06928
1016.43	0.319238
1018.08	0.576966
1019.73	0.463413
1021.38	0.984974
1023.04	1.22318
1024.69	0.915915
1026.34	1.30859
1027.99	1.89785
1029.64	1.67797
1031.29	2.33047
1032.94	2.10749
1034.59	2.45013
1036.24	2.81254
1037.89	2.97733
1039.54	4.33892
1041.19	4.89442
1042.84	5.86391
1044.48	6.22647
1046.13	6.83052
1047.78	6.19931
1049.42	5.48373
1051.07	5.1608
1052.72	4.20888
1054.36	3.99584
1056.01	2.58729
1057.66	2.78647
1059.3	1.85455
1060.94	1.46529
1062.59	2.18414
1064.23	2.2931
1065.88	0.879078
1067.52	0.703383
1069.16	0.700628
1070.81	0.197735
1072.45	0.498281
1074.09	0.538632
1075.73	1.01375
1077.38	0.904425
1079.02	0.514469
1080.66	0.862574
1082.3	0.581829
1083.94	1.68792
1085.58	0.689267
1087.22	0.989314
1088.86	0.50741
1090.5	1.04136
1092.13	0.903055
1093.77	0.418939
1095.41	0.237934
1097.05	0.790937
1098.68	0.547393
1100.32	0.327387
1101.96	0.582827
1103.6	0.667725
1105.23	1.05503
1106.87	1.01268
1108.5	0.94855
1110.14	0.560843
1111.77	0.666151
1113.41	1.39272
1115.04	0.464085
1116.67	0.887601
1118.31	0.345905
1119.94	0.555408
1121.58	0.380194
1123.21	1.10509
1124.84	1.10298
1126.47	0.8237
1128.1	1.16548
1129.73	0.759522
1131.37	0.525265
1133	0.868528
1134.63	0.784094
1136.26	0.357087
1137.89	1.23264
1139.52	0.97435
1141.14	0.629822
1142.77	-0.120343
1144.4	0.218081
1146.03	0.194397
1147.66	0.469986
1149.29	-0.382927
1150.91	-0.0847588
1152.54	-0.170034
1154.17	0.0211782
1155.79	0.616264
1157.42	0.040658
1159.04	0.614278
1160.67	0.316564
1162.3	0.870498
1163.92	-0.190522
1165.55	0.641261
1167.17	0.57981
1168.79	0.219696
1170.42	0.389464
1172.04	0.408516
1173.66	0.213496
1175.28	0.441844
1176.91	-0.454242
1178.53	-0.247279
1180.15	0.0869913
1181.77	0.315871
1183.39	-0.237125
1185.01	0.0557394
1186.63	0.431849
1188.25	0.911324
1189.87	0.397272
1191.49	0.408792
1193.11	0.0823822
1194.73	0.511904
1196.35	0.499931
1197.97	0.698248
1199.59	0.835039
1201.2	0.660478
1202.82	0.363554
1204.44	0.215564
1206.05	0.0905819
1207.67	0.133797
1209.29	0.573616
1210.9	-0.0302572
1212.52	0.969991
1214.13	1.48784
1215.75	0.191133
1217.36	0.184631
1218.97	0.821355
1220.59	0.916864
1222.2	0.473639
1223.82	0.488273
1225.43	0.297277
1227.04	0.977071
1228.65	1.49208
1230.26	0.4573
1231.88	0.127089
1233.49	1.24488
1235.1	0.731021
1236.71	0.735037
1238.32	1.13284
1239.93	1.61421
1241.54	1.1239
1243.15	1.79156
1244.76	1.67237
1246.37	1.07615
1247.97	1.01688
1249.58	1.45341
1251.19	0.958558
1252.8	1.0432
1254.41	1.23195
1256.01	1.95956
1257.62	1.21982
1259.23	1.59835
1260.83	1.29495
1262.44	1.46809
1264.04	1.66211
1265.65	1.31706
1267.25	1.63435
1268.86	1.05933
1270.46	1.16733
1272.07	1.87556
1273.67	1.40089
1275.27	1.36062
1276.88	1.75457
1278.48	1.21524
1280.08	1.4211
1281.68	1.85412
1283.28	2.39028
1284.89	2.14076
1286.49	1.39622
1288.09	1.35585
1289.69	1.66773
1291.29	1.13287
1292.89	1.89971
1294.49	2.04583
1296.09	2.10791
1297.69	1.56955
1299.29	1.71084
1300.88	0.963877
1302.48	1.41158
1304.08	1.48706
1305.68	1.33551
1307.27	1.882
1308.87	1.54484
1310.47	1.90517
1312.06	1.26199
1313.66	1.72525
1315.25	1.49391
1316.85	2.0398
1318.44	1.70816
1320.04	1.80503
1321.63	1.94154
1323.23	1.42501
1324.82	0.806176
1326.41	1.3649
1328.01	1.67829
1329.6	1.40423
1331.19	1.39531
1332.78	1.30781
1334.38	1.70728
1335.97	1.48239
1337.56	1.90372
1339.15	1.75953
1340.74	1.21099
1342.33	1.36555
1343.92	1.79919
1345.51	1.68857
1347.1	1.57829
1348.69	1.38985
1350.28	1.52444
1351.87	1.42145
1353.46	1.00078
1355.04	1.58108
1356.63	1.48206
1358.22	0.563643
1359.81	0.942923
1361.39	0.841806
1362.98	0.520544
1364.57	1.55493
1366.15	1.21356
1367.74	0.853435
1369.32	1.25123
1370.91	1.19246
1372.49	1.0953
1374.07	0.939582
1375.66	1.36159
1377.24	1.58473
1378.83	0.852235
1380.41	1.37234
1381.99	1.13504
1383.57	1.09541
1385.16	1.15419
1386.74	0.974027
1388.32	0.774311
1389.9	1.54802
1391.48	1.449
1393.06	0.815229
1394.64	0.777147
1396.22	0.917375
1397.8	1.09649
1399.38	1.29429
1400.96	1.51074
1402.54	1.03353
1404.12	1.05138
1405.7	0.614922
1407.28	0.772631
1408.85	1.0496
1410.43	0.576307
1412.01	1.13009
1413.58	1.05127
1415.16	0.7151
1416.74	1.38418
1418.31	1.02723
1419.89	2.10899
1421.46	1.4187
1423.04	1.91159
1424.61	1.36287
1426.19	1.70123
1427.76	1.50874
1429.33	2.00489
1430.91	1.47661
1432.48	1.41955
1434.05	1.49923
1435.63	1.9324
1437.2	1.97227
1438.77	1.93426
1440.34	1.74008
1441.91	1.95965
1443.49	1.68863
1445.05	1.88969
1446.63	2.60201
1448.2	2.60694
1449.77	1.86513
1451.34	1.81178
1452.91	2.0343
1454.47	2.72943
1456.04	2.42138
1457.61	1.99445
1459.18	1.60547
1460.75	2.41516
1462.31	2.67165
1463.88	2.49348
1465.45	2.3339
1467.01	1.62406
1468.58	1.6614
1470.15	1.40524
1471.71	1.54278
1473.28	0.916421
1474.84	1.07547
1476.41	1.23488
1477.97	1.55121
1479.54	1.69098
1481.1	1.4778
1482.66	1.08823
1484.23	1.4628
1485.79	1.73893
1487.35	1.60285
1488.91	1.03479
1490.48	1.1307
1492.04	1.28295
1493.6	0.827199
1495.16	0.819374
1496.72	1.0248
1498.28	1.03484
1499.84	0.909354
1501.4	0.552244
1502.96	0.778847
1504.52	0.889631
1506.08	0.574619
1507.64	0.878462
1509.2	1.02613
1510.76	0.516242
1512.31	0.199458
1513.87	0.46052
1515.43	0.913262
1516.99	0.674334
1518.54	0.436707
1520.1	0.698249
1521.66	-0.0547209
1523.21	0.684545
1524.77	0.371348
1526.32	0.763442
1527.88	0.887019
1529.43	0.420232
1530.99	0.67626
1532.54	0.34424
1534.09	1.13122
1535.65	1.14182
1537.2	1.34229
1538.75	0.844707
1540.31	0.367341
1541.86	0.701059
1543.41	0.638817
1544.96	1.04653
1546.51	0.176016
1548.06	0.845693
1549.62	0.445553
1551.17	0.477074
1552.72	0.677365
1554.27	0.653893
1555.82	1.00531
1557.36	0.704692
1558.91	0.406232
1560.46	0.986516
1562.01	0.859374
1563.56	0.714669
1565.11	0.495861
1566.66	0.538363
1568.2	0.69264
1569.75	0.622602
1571.3	0.309525
1572.84	1.2282
1574.39	1.12005
1575.93	0.918577
1577.48	1.46402
1579.02	1.03912
1580.57	1.32427
1582.11	0.695159
1583.66	1.00061
1585.2	0.895836
1586.75	0.884936
1588.29	0.874171
1589.83	1.20002
1591.38	1.00157
1592.92	0.877419
1594.46	1.25863
1596	1.26538
1597.54	1.49744
1599.09	0.905343
1600.63	1.25133
1602.17	1.18522
1603.71	1.30682
1605.25	1.16487
1606.79	1.3034
1608.33	1.51526
1609.87	1.1986
1611.41	1.33072
1612.95	0.878613
1614.48	1.19524
1616.02	1.36097
1617.56	1.02083
1619.1	1.24423
1620.64	0.907048
1622.17	1.02075
1623.71	1.39733
1625.25	0.688159
1626.78	1.02658
1628.32	1.12038
1629.86	1.39974
1631.39	1.0984
1632.92	0.815685
1634.46	0.58957
1635.99	0.849528
1637.53	1.37122
1639.06	0.830462
1640.59	1.44563
1642.13	1.81756
1643.66	1.57357
1645.19	1.58916
1646.73	1.65959
1648.26	1.80391
1649.79	1.59559
1651.32	1.70398
1652.85	1.46111
1654.38	1.62747
1655.92	1.47927
1657.45	1.20143
1658.98	1.71948
1660.51	1.73593
1662.04	1.5289
1663.57	1.43192
1665.09	1.27911
1666.62	1.18222
1668.15	1.16029
1669.68	1.65592
1671.21	0.862829
1672.73	1.56334
1674.26	1.17745
1675.79	0.994077
1677.31	1.28857
1678.84	0.551612
1680.37	0.67855
1681.89	0.841375
1683.42	0.838402
1684.94	1.3493
1686.47	0.704535
1687.99	0.684129
1689.52	0.90226
1691.04	0.772525
1692.57	0.679604
1694.09	0.769628
1695.61	0.292666
1697.14	0.61994
1698.66	-0.0213242
1700.18	0.688301
1701.7	0.375202
1703.22	0.153131
1704.75	-0.233005
1706.27	0.472789
1707.79	0.449936
1709.31	0.209081
1710.83	0.494998
1712.35	0.272884
1713.87	0.449881
1715.39	0.0835581
1716.91	0.296603
1718.43	-0.177606
1719.95	-0.217692
1721.46	0.211541
1722.98	0.24396
1724.5	-0.0650663
1726.02	-0.336549
1727.53	0.293389
1729.05	-0.0119228
1730.57	0.418597
1732.08	0.0600615
1733.6	0.50036
1735.12	-0.153857
1736.63	0.106024
1738.15	0.296102
1739.66	0.0649872
1741.18	0.356297
1742.69	0.418233
1744.21	0.279834
1745.72	-0.327589
1747.23	-0.601305
1748.74	0.394861
1750.26	-0.0771217
1751.77	-0.224304
1753.28	-0.112276
1754.8	0.172415
1756.31	0.143474
1757.82	-0.0727158
1759.33	0.12668
1760.84	0.125694
1762.35	0.148639
1763.86	0.141045
1765.37	-0.432442
1766.88	-0.0748987
1768.39	0.189115
1769.9	0.142601
1771.41	0.294506
1772.92	-0.157681
1774.43	-0.00569248
1775.93	0.290821
1777.44	0.169908
1778.95	0.00164032
1780.46	-0.179529
1781.96	-0.0425987
1783.47	0.0920639
1784.98	0.129478
1786.48	-0.241391
1787.99	-0.180989
1789.49	-0.190395
1791	-0.460711
1792.5	0.28787
1794.01	0.027976
1795.51	0.143332
1797.02	0.307124
1798.52	0.0920181
1800.03	-0.0306053
1801.53	-0.182383
1803.03	-0.0421505
1804.53	-0.318594
1806.04	0.38695
1807.54	-0.0328484
1809.04	0.222191
1810.54	-0.176819
1812.04	-0.014617
1813.54	-0.137575
1815.05	0.0695715
1816.55	0.0878162
1818.05	0.173358
1819.55	0.15882
1821.05	-0.27226
1822.55	-0.0242252
1824.05	-0.0413761
1825.54	-0.014245
1827.04	0.140258
1828.54	0.0335083
1830.04	0.343035
1831.54	-0.0245867
1833.03	0.175309
1834.53	0.0536957
1836.03	0.156324
1837.52	-0.19511
1839.02	0.243407
1840.52	-0.140847
1842.01	-0.212261
1843.51	0.167875
1845	0.110043
1846.5	0.0800467
1847.99	0.0718374
1849.49	0.104417
1850.98	-0.0520115
1852.47	-0.106109
1853.97	-0.148536
1855.46	-0.0265188
1856.95	-0.0161524
1858.45	0.0188274
1859.94	0.0404119
1861.43	-0.2031
1862.92	-0.148143
1864.41	0.148352
1865.91	0.32572
1867.4	0.27428
1868.89	0.187161
1870.38	-0.280741
1871.87	0.172649
1873.36	-0.123063
1874.85	-0.0356636
1876.34	0.240037
1877.83	-0.0660877
1879.31	-0.0464497
1880.8	0.0316181
1882.29	-0.110964
1882.56	-0.144608
1884.05	0.221549
1885.54	0.447316
1887.04	0.0973072
1888.53	0.182403
1890.03	0.145813
1891.52	0.284081
1893.01	0.0586281
1894.5	0.199986
1895.99	0.134108
1897.49	-0.435404
1898.98	0.351571
1900.47	0.0766115
1901.96	0.148097
1903.45	0.0614414
1904.94	-0.148121
1906.43	0.180432
1907.92	0.24816
1909.41	0.0560312
1910.9	0.0731153
1912.39	0.212428
1913.88	-0.410923
1915.37	0.179857
1916.86	-0.148745
1918.35	-0.0790176
1919.84	0.284828
1921.32	0.163385
1922.81	0.094348
1924.3	0.216579
1925.78	0.322512
1927.27	0.187054
1928.76	-0.120992
1930.24	0.0557108
1931.73	-0.0107288
1933.21	-0.0611343
1934.7	0.319657
1936.18	0.162277
1937.67	-0.0478592
1939.15	0.381175
1940.64	0.291925
1942.12	0.307115
1943.6	-0.194234
1945.09	0.133265
1946.57	-0.107993
1948.05	-0.176979
1949.54	-0.160429
1951.02	0.0101957
1952.5	0.334672
1953.98	-0.115566
1955.46	0.0705299
1956.94	0.445629
1958.42	0.443348
1959.91	-0.158639
1961.39	0.372087
1962.87	0.422639
1964.34	-0.212334
1965.82	0.0775518
1967.3	-0.198269
1968.78	-0.234868
1970.26	0.343403
1971.74	0.20326
1973.22	0.182742
1974.7	-0.212874
1976.17	0.517106
1977.65	0.139161
1979.13	0.289461
1980.6	-0.0707512
1982.08	0.419267
1983.56	0.313821
1985.03	0.344008
1986.51	0.017767
1987.98	-0.460495
1989.46	0.281486
1990.93	-0.0430803
1992.41	-0.0619831
1993.88	-0.063077
1995.36	0.257627
1996.83	0.0210152
1998.3	0.22361
1999.78	-0.0470247
2001.25	-0.284225
2002.72	0.0181017
2004.2	0.0671444
2005.67	-0.203699
2007.14	0.402185
2008.61	0.385518
2010.08	-0.135409
2011.55	0.0344448
2013.02	0.204294
2014.49	0.272736
2015.97	0.424564
2017.43	-0.265437
2018.9	0.0362329
2020.37	0.00110054
2021.84	0.0666428
2023.31	0.115636
2024.78	0.299523
2026.25	0.316632
2027.72	0.402135
2029.19	0.220644
2030.65	0.76168
2032.12	-0.0553827
2033.59	0.0507288
2035.05	0.727876
2036.52	0.565172
2037.98	0.351461
2039.45	0.456624
2040.92	0.326434
2042.38	0.246985
2043.85	0.639123
2045.31	0.241537
2046.78	0.332483
2048.24	0.339576
2049.71	0.0261459
2051.17	0.554568
2052.63	0.0699987
2054.1	0.443823
2055.56	0.360718
2057.02	-0.0101614
2058.48	-0.010747
2059.95	0.25804
2061.41	0.0723839
2062.87	0.0390615
2064.33	0.309565
2065.79	0.378964
2067.25	0.465952
2068.71	0.553485
2070.17	0.33833
2071.63	-0.179876
2073.09	0.497131
2074.55	0.483637
2076.01	0.149868
2077.47	0.186241
2078.93	0.474857
2080.39	0.729349
2081.85	0.191959
2083.3	0.630457
2084.76	0.428597
2086.22	1.03363
2087.68	0.393342
2089.13	0.627171
2090.59	0.0711203
2092.05	0.371776
2093.5	0.839823
2094.96	0.569237
2096.41	0.415829
2097.87	0.898452
2099.32	0.927931
2100.78	0.622621
2102.23	0.434967
2103.69	0.114743
2105.14	0.930902
2106.59	0.663232
2108.05	0.513444
2109.5	1.16441
2110.95	0.364221
2112.41	0.61318
2113.86	0.777063
2115.31	0.856041
2116.76	0.900809
2118.21	0.979031
2119.67	1.02521
2121.12	0.641847
2122.57	0.841006
2124.02	0.991672
2125.47	0.861022
2126.92	1.11147
2128.37	1.21168
2129.82	1.39336
2131.27	1.10987
2132.71	0.974922
2134.16	1.05516
2135.61	1.13607
2137.06	1.11913
2138.51	1.3849
2139.95	1.43762
2141.4	1.49195
2142.85	0.935606
2144.29	1.0577
2145.74	1.67653
2147.19	1.36837
2148.63	1.49
2150.08	1.64398
2151.52	1.76389
2152.97	1.84969
2154.42	1.71928
2155.86	2.23453
2157.3	1.72273
2158.75	1.69209
2160.19	1.39768
2161.64	1.83396
2163.08	2.00714
2164.52	1.9166
2165.96	1.77696
2167.41	1.7533
2168.85	1.71194
2170.29	1.65215
2171.73	1.77325
2173.17	2.02555
2174.61	1.96041
2176.06	1.79493
2177.5	1.57984
2178.94	2.18019
2180.38	1.8172
2181.82	2.12013
2183.26	1.8583
2184.7	1.96258
2186.14	1.73426
2187.57	1.90519
2189.01	1.9431
2190.45	1.68137
2191.89	1.53582
2193.33	1.88899
2194.76	1.64149
2196.2	1.70854
2197.64	1.37428
2199.08	1.08864
2200.51	0.951986
2201.95	1.26365
2203.38	1.29346
2204.82	1.57297
2206.25	0.908525
2207.69	1.52074
2209.12	0.989657
2210.56	1.23624
2211.99	1.1177
2213.43	1.49449
2214.86	0.499722
2216.3	1.273
2217.73	1.20508
2219.16	1.41873
2220.59	0.808757
2222.03	1.0233
2223.46	0.891059
2224.89	1.11992
2226.32	1.13298
2227.75	0.601939
2229.19	1.22038
2230.62	0.688442
2232.05	0.780176
2233.48	0.675545
2234.91	1.20951
2236.34	0.812389
2237.77	0.858129
2239.2	0.709743
2240.63	0.905823
2242.06	1.00562
2243.48	1.10655
2244.91	0.326993
2246.34	0.378688
2247.77	0.461608
2249.2	0.982725
2250.62	0.52377
2252.05	0.535992
2253.48	0.189709
2254.9	0.640409
2256.33	0.978029
2257.76	0.814417
2259.18	0.68597
2260.61	0.105836
2262.03	-0.261565
2263.46	0.525076
2264.88	0.451563
2266.31	0.117465
2267.73	0.384271
2269.16	0.715598
2270.58	0.378974
2272	0.562788
2273.43	0.437089
2274.85	0.148512
2276.27	0.642072
2277.69	0.907863
2279.12	0.635862
2280.54	0.624573
2281.96	0.14014
2283.38	0.503761
2284.8	0.231161
2286.22	0.0565457
2287.64	0.437287
2289.07	0.312317
2290.49	0.0895476
2291.91	0.520716
2293.32	0.37995
2294.74	0.369929
2296.16	0.50714
2297.58	0.366027
2299	0.519725
2300.42	0.296755
2301.84	0.286983
2303.26	0.786036
2304.67	0.251603
2306.09	0.685521
2307.51	0.478729
2308.92	0.172632
2310.34	-0.0355368
2311.76	0.183502
2313.17	0.336829
2314.59	0.194328
2316	0.694549
2317.42	0.125037
2318.83	0.000361919
2320.25	-0.0586853
2321.66	0.343307
2323.08	0.677889
2324.49	0.0862451
2325.91	0.350823
2327.32	0.927047
2328.73	0.760349
2330.15	0.511666
2331.56	0.362806
2332.97	0.280861
2334.38	0.232596
2335.79	-0.144457
2337.21	0.103244
2338.62	-0.159678
2340.03	0.56259
2341.44	0.281493
2342.85	0.24648
2344.26	0.408281
2345.67	0.0620556
2347.08	-0.00505877
2348.49	0.0916138
2349.9	0.465922
2351.31	-0.0600147
2352.72	0.165349
2354.13	0.210017
2355.53	0.139913
2356.94	0.39531
2358.35	-0.163082
2359.76	0.173406
2361.17	0.23335
2362.57	0.29315
2363.98	0.320334
2365.39	0.39595
2366.79	0.406922
2368.2	0.289242
2369.6	0.0920238
2371.01	-0.200491
2372.42	0.136737
2373.82	-0.0891366
2375.22	-0.572049
2376.63	0.409244
2378.03	0.19868
2379.44	0.32449
2380.84	0.272066
2382.25	0.459043
2383.65	0.420598
2385.05	0.254076
2386.45	0.0563612
2387.86	-0.140155
2389.26	0.143008
2390.66	0.0284696
2392.06	0.424515
2393.46	0.120856
2394.87	0.0567598
2396.27	-0.245162
2397.67	0.152915
2399.07	0.0110292
2400.47	-0.289248
2401.87	-0.207971
2403.27	-0.0949302
2404.67	-0.347431
2406.07	-0.108427
2407.47	0.240723
2408.86	-0.394382
2410.26	0.270674
2411.66	0.317366
2413.06	0.0321579
2414.46	0.270665
2415.85	0.241217
2417.25	0.339556
2418.65	0.106174
2420.05	0.0313778
2421.44	0.399972
2422.84	-0.0395947
2424.23	-0.115088
2425.63	0.601776
2427.03	-0.0120163
2428.42	0.357546
2429.82	0.173076
2431.21	0.195307
2432.6	0.138294
2434	0.0966673
2435.39	0.0858297
2436.79	0.20086
2438.18	0.0127397
2439.57	0.125406
2440.97	0.269012
2442.36	0.507309
2443.75	0.285006
2445.14	0.0627303
2446.54	0.0466161
2447.93	0.426579
2449.32	0.378509
2450.71	0.409843
2452.1	0.156725
2453.49	0.20506
2454.88	0.333199
2456.27	0.256249
2457.66	-0.168415
2459.05	0.498188
2460.44	-0.0535665
2461.83	0.0898871
2463.22	-0.0993123
2464.61	0.0113339
2466	0.453275
2467.39	0.263341
2468.77	-0.147363
2470.16	0.15182
2471.55	0.150833
2472.94	0.558842
2474.32	0.288741
2475.71	0.160047
2477.1	0.188414
2478.48	0.153878
2479.87	0.0410771
2481.25	0.273542
2482.64	0.145235
2484.02	-0.186764
2485.41	0.466385
2486.8	0.117393
2488.18	0.127159
2489.56	0.0739498
2490.95	0.0674529
2492.33	0.13913
2493.72	-0.00583553
2495.1	0.00571871
2496.48	0.00278378
2497.86	-0.0614071
2499.25	0.106871
2500.63	0.27463
2502.01	-0.161267
2503.39	0.159378
2504.77	0.0313382
2506.16	-0.158569
2507.54	0.0672874
2508.92	-0.352922
2510.3	-0.157615
2511.68	0.145205
2513.06	0.325488
2514.44	0.398994
2515.82	-0.246218
2517.2	-0.216949
2518.58	-0.248437
2519.95	0.0564146
2521.33	-0.02109
2522.71	0.190951
2524.09	0.3715
2525.47	0.505439
2526.84	0.349616
2528.22	0.148751
2529.6	0.192386
2530.98	-0.157858
2532.35	0.192449
2533.73	0.346254
2535.11	0.0752549
2536.48	0.108064
2537.86	0.0339775
2539.23	0.080626
2540.61	0.490949
2541.98	0.00523376
2543.36	0.764211
2544.73	-0.327065
2546.1	0.160397
2547.48	0.224148
2548.85	0.227943
2550.23	-0.147583
2551.6	-0.0531483
2552.97	0.617262
2554.34	0.224463
2555.72	0.392385
2557.09	0.18057
2558.46	-0.304166
2559.83	0.424308
2561.2	0.0465083
2562.58	0.123985
2563.95	0.338318
2565.32	0.174156
2566.69	0.116274
2568.06	0.0129957
2569.43	0.27346
2570.8	0.245971
2572.17	0.354933
2573.54	0.191123
2574.91	0.163807
2576.27	-0.15155
2577.64	0.154636
2579.01	0.081594
2580.38	0.0234251
2581.75	0.0407357
2583.11	-0.0483856
2584.48	-0.152842
2585.85	0.0155368
2587.21	-0.0585318
2588.58	0.276763
2589.95	0.293863
2591.31	-0.340754
2592.68	0.191068
2594.04	-0.141419
2595.41	-0.0959549
2596.78	0.327054
2598.14	0.053092
2599.51	0.232703
2600.87	0.0495634
2602.23	0.274791
2603.6	-0.118539
2604.96	0.213198
2606.32	-0.149028
2607.69	0.106969
2609.05	0.000338078
2610.41	-0.00172138
2611.77	-0.290793
2613.14	0.00612879
2614.5	0.106594
2615.86	0.146624
2617.22	0.426609
2618.58	0.137494
2619.94	0.17873
2621.3	-0.243006
2622.67	0.173019
2624.03	0.125779
2625.39	0.0337925
2626.75	0.195224
2628.1	0.0432343
2629.46	0.114568
2630.82	0.111231
2632.18	0.167276
2633.54	0.327174
2634.9	0.219638
2636.26	-0.139855
2637.61	-0.0542402
2638.97	0.238564
2640.33	0.294327
2641.69	0.246747
2643.04	0.125607
2644.4	0.122877
2645.76	-0.0126834
2647.11	0.205413
2648.47	-0.034008
2649.82	0.211944
2651.18	0.148147
2652.53	0.157657
2653.89	0.0499759
2655.24	0.0603752
2656.6	-0.148031
2657.95	0.0545878
2659.31	0.38935
2660.66	-0.109305
2662.01	0.166958
2663.37	-0.02495
2664.72	0.337375
2666.07	0.523532
2667.43	0.0823483
2668.78	-0.168891
2670.13	0.133383
2671.48	0.0140028
2672.83	0.200427
2674.18	0.198366
2675.53	0.0806694
2676.89	-0.108995
2678.24	0.485194
2679.59	0.0502729
2680.94	-0.00669098
2682.29	0.111295
2683.64	0.346282
2684.99	0.161531
2686.34	-0.080997
2687.68	0.300303
2689.03	0.317872
2690.38	-0.0288939
2691.73	0.377695
2693.08	-0.145754
2694.43	0.0845485
2695.77	0.155054
2697.12	0.312919
2698.47	-0.0640526
2699.81	0.168608
2701.16	0.373731
2702.51	-0.115093
2703.85	0.68626
2705.2	0.299958
2706.54	0.188915
2707.89	0.150114
2709.23	0.357738
2710.58	0.303802
2711.92	0.351302
2713.27	0.529498
2714.61	0.0390997
2715.96	0.246284
2717.3	-0.0410314
2718.64	0.19502
2719.99	0.139862
2721.33	0.637348
2722.67	0.0574799
2724.01	0.335927
2725.36	0.191915
2726.7	-0.112501
2728.04	-0.0532823
2729.38	0.282231
2730.72	0.224691
2732.06	0.28353
2733.41	0.211509
2734.75	0.256012
2736.09	0.286131
2737.43	0.243641
2738.77	-0.104269
2740.11	-0.00152874
2741.44	0.260754
2742.78	0.100844
2744.12	0.129382
2745.46	0.346258
2746.8	0.315747
2748.14	0.110932
2749.48	0.0659323
2750.81	-0.196414
2752.15	0.657956
2753.49	0.222077
2754.83	0.0474153
2756.16	0.0902276
2757.5	0.191067
2758.84	0.0604534
2760.17	0.34993
2761.51	0.0753479
2762.84	0.336594
2764.18	0.308685
2765.51	0.396512
2766.85	0.0354648
2768.18	0.122171
2769.52	0.0776606
2770.85	0.393293
2772.19	0.173088
2773.52	0.255391
2774.85	0.308277
2776.19	-0.114271
2777.52	-0.190407
2778.85	-0.0215297
2780.18	0.0181804
2781.52	-0.0424285
2782.85	-0.160295
2784.18	0.324294
2785.51	0.335276
2786.84	-0.140565
2788.17	9.05991e-005
2789.51	-0.0161619
2790.84	0.0827341
2792.17	0.110701
2793.5	0.439216
2794.83	0.324572
2796.16	-0.147502
2797.48	-0.0912333
2798.81	0.00739288
2800.14	-0.122746
2801.47	-0.224446
2802.8	-0.155098
2804.13	0.184731
2805.46	-0.287976
2806.79	0.207273
2808.11	0.10398
2809.44	-0.0279145
2810.77	-0.443587
2812.09	-0.106082
2813.42	0.189346
2814.75	0.244664
2816.07	0.173563
2817.4	0.16008
2818.73	0.260457
2820.05	-0.234455
2821.38	0.234069
2822.7	0.22015
2824.03	-0.091794
2825.35	0.219374
2826.67	0.176405
2828	0.431201
2829.32	0.615611
2830.65	0.205842
2831.97	0.57483
2833.29	0.235993
2834.62	0.590475
2835.94	0.406696
2837.26	1.18468
2838.58	1.09904
2839.9	1.04156
2841.23	1.13972
2842.55	1.25234
2843.87	1.4503
2845.19	1.54995
2846.51	1.48056
2847.83	1.43975
2849.15	1.56856
2850.47	1.95153
2851.79	1.35881
2853.11	1.67021
2854.43	1.64207
2855.75	1.68442
2857.07	2.09403
2858.39	1.79736
2859.71	1.88205
2861.02	1.75477
2862.34	1.9096
2863.66	2.04993
2864.98	2.31695
2866.3	2.40043
2867.61	2.28666
2868.93	2.34252
2870.25	2.6102
2871.56	2.59602
2872.88	2.5816
2874.19	2.62288
2875.51	2.78996
2876.83	3.02633
2878.14	3.05066
2879.46	2.86376
2880.77	3.19741
2882.09	3.46125
2883.4	2.75681
2884.71	3.06458
2886.03	2.79719
2887.34	2.72645
2888.65	3.14645
2889.97	3.31302
2891.28	3.11413
2892.59	2.84479
2893.91	2.68764
2895.22	2.881
2896.53	2.96294
2897.84	3.05974
2899.15	3.05945
2900.46	3.49353
2901.78	2.97673
2903.09	3.04765
2904.4	3.25855
2905.71	3.14798
2907.02	3.07985
2908.33	3.05437
2909.64	3.54726
2910.95	3.41108
2912.26	3.79272
2913.57	3.80984
2914.87	3.92372
2916.18	3.8681
2917.49	4.41292
2918.8	3.68339
2920.11	4.39477
2921.42	4.46314
2922.72	4.08526
2924.03	4.53338
2925.34	4.10185
2926.64	4.52353
2927.95	4.42803
2929.26	4.5279
2930.56	4.85096
2931.87	5.04775
2933.17	4.4056
2934.48	4.57419
2935.78	4.65899
2937.09	4.71598
2938.39	4.49363
2939.7	4.22962
2941	4.53897
2942.31	3.87088
2943.61	3.98633
2944.91	3.96316
2946.22	3.78713
2947.52	3.91926
2948.82	3.75734
2950.13	3.69234
2951.43	3.89185
2952.73	3.31961
2954.03	3.58633
2955.33	3.65668
2956.64	3.34988
2957.94	3.56269
2959.24	2.88179
2960.54	2.903
2961.84	2.68755
2963.14	3.28609
2964.44	3.43574
2965.74	2.76957
2967.04	2.64948
2968.34	2.83752
2969.64	2.36412
2970.94	2.8187
2972.24	2.95016
2973.53	1.85763
2974.83	1.86246
2976.13	2.04982
2977.43	1.8138
2978.73	2.02699
2980.02	1.68975
2981.32	1.87232
2982.62	2.0121
2983.91	1.80055
2985.21	1.67435
2986.51	1.4932
2987.8	1.69261
2989.1	1.33072
2990.4	1.79815
2991.69	1.09869
2992.99	1.43839
2994.28	1.13063
2995.57	0.892378
2996.87	1.14511
2998.16	0.639663
2999.46	0.681885
3000.75	0.444043
3002.05	0.809509
3003.34	0.698635
3004.63	0.671943
3005.92	0.547015
3007.22	0.603661
3008.51	0.869442
3009.8	0.463038
3011.09	0.67135
3012.39	0.0413241
3013.68	0.277179
3014.97	0.289946
3016.26	0.17785
3017.55	0.205672
3018.84	0.567787
3020.13	0.275926
3021.42	0.109119
3022.71	0.164086
3024	0.0655546
3025.29	0.479556
3026.58	0.116981
3027.87	0.115213
3029.16	0.335506
3030.45	0.363228
3031.73	0.405894
3033.02	0.256085
3034.31	0.35501
3035.6	0.412025
3036.89	0.426539
3038.17	0.191597
3039.46	0.35467
3040.75	0.076283
3042.03	0.0724087
3043.32	0.328898
3044.61	0.133678
3045.89	0.364054
3047.18	0.158586
3048.46	0.146374
3049.75	0.231355
3051.03	0.413054
3052.32	0.185997
3053.6	-0.122905
3054.89	0.24987
3056.17	0.348866
3057.45	0.242422
3058.74	0.47604
3060.02	0.641067
3061.31	0.357143
3062.59	0.387105
3063.87	-0.044147
3065.15	0.300853
3066.44	0.320627
3067.72	0.477156
3069	0.0628557
3070.28	0.0970354
3071.56	0.103336
3072.84	-0.000112534
3074.13	0.208182
3075.41	-0.127935
3076.69	-0.0837336
3077.97	-0.134288
3079.25	-0.211139
3080.53	0.472802
3081.81	0.0184078
3083.09	0.392478
3084.37	0.210861
3085.64	0.246345
3086.92	0.295027
3088.2	0.0309372
3089.48	0.417763
3090.76	0.0577645
3092.04	-0.0308928
3093.31	-0.132976
3094.59	0.0906525
3095.87	0.300834
3097.14	0.172085
3098.42	-0.159986
3099.7	-0.0584302
3100.97	-0.119565
3102.25	-0.112926
3103.53	-0.0384026
3104.8	-0.125965
3106.08	0.0983129
3107.35	0.106723
3108.63	0.0753284
3109.9	-0.0770893
3111.18	0.177355
3112.45	-0.122805
3113.73	0.349503
3115	0.279892
3116.27	0.0606556
3117.55	0.152559
3118.82	0.175795
3120.09	-0.00529242
3121.37	0.111228
3122.64	0.227184
3123.91	0.275134
3125.18	0.241917
3126.45	0.060194
3127.73	0.33901
3129	0.293435
3130.27	-0.0357962
3131.54	0.0272079
3132.81	0.144087
3134.08	0.220043
3135.35	0.0390019
3136.62	-0.0883374
3137.89	0.282901
3139.16	0.141369
3140.43	0.444063
3141.7	0.181456
3142.97	0.403202
3144.24	0.168489
3145.51	0.20288
3146.78	0.505838
3148.04	0.393595
3149.31	0.161425
