200.423	0.876013
202.238	0.894728
204.052	0.914632
205.868	0.108348
207.682	-0.0650625
209.495	0.757423
211.308	0.21786
213.12	0.187358
214.935	-0.0382328
216.746	0.341756
218.558	-0.489899
220.369	-0.109897
222.18	0.754029
223.992	-0.582376
225.802	0.306085
227.612	0.0342131
229.421	-0.262025
231.23	-0.26897
233.039	0.495648
234.849	-0.138801
236.657	-0.145151
238.465	0.476751
240.272	0.305276
242.079	-0.322547
243.885	0.159821
245.691	0.280477
247.497	-0.0106268
249.305	-0.255907
251.11	0.220416
252.915	0.57333
254.719	0.393546
256.523	0.213442
258.327	0.371481
260.13	0.530746
261.933	0.330228
263.736	0.275642
265.538	0.559232
267.34	0.891383
269.141	1.17511
270.943	0.614286
272.744	0.703221
274.544	0.718476
276.344	0.250071
278.144	0.864607
279.944	0.416957
281.743	0.112365
283.542	0.69635
285.34	0.220768
287.138	0.273383
288.936	0.685452
290.733	0.833818
292.53	0.647965
294.327	0.535498
296.123	0.974333
297.919	0.88798
299.715	0.419851
301.508	0.525043
303.303	0.820387
305.098	0.684745
306.892	0.381371
308.686	0.173413
310.479	0.847642
312.273	0.522024
314.065	0.388527
315.858	0.68527
317.648	0.62643
319.44	0.497483
321.231	1.15599
323.022	0.933563
324.813	0.615834
326.604	0.703708
328.392	0.146367
330.181	1.02213
331.971	0.534414
333.76	1.12141
335.548	0.2948
337.335	0.471059
339.123	0.693218
340.91	0.315913
342.698	0.368415
344.483	0.540249
346.269	0.282439
348.055	0.359686
349.841	-0.0639906
351.625	-0.201058
353.41	0.926151
355.195	0.859025
356.977	0.433058
358.762	0.602061
360.545	0.531642
362.329	0.579443
364.11	0.62646
365.893	1.29041
367.675	0.385883
369.455	-0.185736
371.237	0.782681
373.017	0.636304
374.798	1.03344
376.578	0.650728
378.357	0.363655
380.137	0.195751
381.917	0.288088
383.694	0.2403
385.473	-0.0178528
387.249	0.26576
389.028	0.174317
390.806	0.741422
392.581	0.792492
394.359	0.374488
396.134	-0.489386
397.91	0.243823
399.684	0.812562
401.46	0.464931
403.234	0.422085
405.009	0.519506
406.784	1.22678
408.557	0.0315323
410.331	-0.01334
412.103	-0.0112257
413.876	0.366698
415.647	0.416706
417.42	0.936757
419.191	0.166845
420.961	0.429694
422.733	0.692442
424.502	0.837259
426.273	0.253491
428.042	0.701923
429.812	0.563039
431.58	0.353756
433.35	0.543786
435.118	0.382112
436.885	0.361271
438.653	0.551072
440.42	0.903799
442.188	0.761877
443.954	0.383645
445.719	0.706993
447.486	-0.18838
449.251	-0.123829
451.015	-0.269576
452.781	0.659039
454.545	0.186871
456.308	-0.00484943
458.073	-0.103221
459.836	-0.0384731
461.598	-0.0894947
463.362	0.0700617
465.124	0.208377
466.885	0.186594
468.648	0.167269
470.408	0.917113
472.169	0.132683
473.929	1.02308
475.69	0.375442
477.45	0.261282
479.208	0.681229
480.967	0.261683
482.727	0.471189
484.485	0.472158
486.243	0.288564
488	-0.359344
489.759	0.952995
491.515	-0.299376
493.272	0.269135
495.028	0.675224
496.783	0.473432
498.54	0.599073
500.295	-0.072772
502.05	0.708871
503.804	0.574932
505.558	0.580809
507.311	0.585464
509.064	0.165298
510.819	0.967034
512.572	0.285041
514.324	0.119383
516.076	0.84653
517.827	0.537423
519.578	0.368688
521.329	0.0584688
523.08	-0.0404806
524.83	0.517712
526.58	-0.238372
528.329	0.436642
530.08	0.478161
531.829	-0.230177
533.578	0.278845
535.326	0.645826
537.074	0.75388
538.821	-0.0500717
540.568	0.0328465
542.315	0.417697
544.062	0.336008
545.808	-0.140503
547.554	0.33587
549.299	0.0463839
551.044	0.0356627
552.789	0.39526
554.533	-0.100641
556.278	-0.0874195
558.019	0.225945
559.763	0.00928497
561.506	0.253936
563.249	0.107723
564.991	0.421997
566.733	-0.0445213
568.475	0.408576
570.217	-0.147477
571.958	-0.701909
573.699	-0.406013
575.439	0.0749264
577.177	-0.0390568
578.917	0.490868
580.656	0.378957
582.396	0.175175
584.134	0.0397406
585.873	0.0183315
587.609	0.202877
589.347	0.179374
591.084	0.0630245
592.822	0.0842752
594.558	0.197442
596.295	0.770814
598.029	-0.38131
599.765	0.260817
601.5	0.488084
603.235	-0.320756
604.968	0.0651426
606.703	0.564454
608.437	0.258732
610.171	0.618825
611.902	-0.534926
613.635	0.124429
615.368	-0.155793
617.099	0.205901
618.831	0.337893
620.563	0.12548
622.294	0.186746
624.024	0.338625
625.755	0.330378
627.485	0.414434
629.213	-0.161584
630.943	0.360019
632.673	0.221736
634.4	0.198561
636.129	0.517572
637.855	0.127474
639.584	0.30567
641.312	0.458255
643.037	-0.120859
644.764	-0.221928
646.491	0.587348
648.216	-0.421449
649.942	0.164039
651.666	-0.110724
653.392	0.140604
655.115	0.622685
656.84	1.08502
658.563	0.614738
660.287	0.713593
662.011	0.285952
663.732	-0.372904
665.456	0.497319
667.177	-0.00568771
668.899	-0.212231
670.62	0.382374
672.342	0.338324
674.061	0.639944
675.781	-0.0415392
677.502	0.378132
679.22	0.43136
680.941	0.437884
682.659	0.373819
684.379	0.929304
686.096	0.170835
687.815	0.101528
689.532	0.768376
691.248	0.743587
692.966	0.718236
694.682	0.945575
696.4	0.435054
698.115	0.522283
699.829	0.401241
701.546	0.348284
703.26	1.16794
704.974	0.65373
706.689	0.506997
708.402	0.245481
710.115	1.29012
711.83	0.409604
713.542	0.857018
715.254	0.549333
716.967	0.675967
718.679	0.528747
720.39	0.951752
722.102	0.827658
723.812	0.112284
725.522	0.602917
727.232	1.02432
728.943	0.491506
730.652	1.27422
732.361	0.0846729
734.069	0.141736
735.779	0.582973
737.487	1.02368
739.194	1.03557
740.901	1.07088
742.608	0.836958
744.316	0.987293
746.022	1.34133
747.728	0.70659
749.433	0.410746
751.138	0.475965
752.843	0.947199
754.549	0.407423
756.254	1.28646
757.957	1.08691
759.661	0.865947
761.364	0.893725
763.067	1.05742
764.769	0.724402
766.471	1.27115
768.175	0.935248
769.877	1.47902
771.578	0.890409
773.279	1.1824
774.98	1.20258
776.68	1.56238
778.38	1.31288
780.079	1.15518
781.779	1.13416
783.478	0.954883
785.176	2.11012
786.875	1.45244
788.573	1.6973
790.27	1.73532
791.968	1.18307
793.665	0.652901
795.361	1.11603
797.058	1.10579
798.754	0.961886
800.45	2.0127
802.145	2.00642
803.84	1.55105
805.535	0.80368
807.23	2.01113
808.922	1.35232
810.616	2.03974
812.309	1.67134
814.002	1.3926
815.695	1.98718
817.388	1.37286
819.08	1.65359
820.772	1.53206
822.464	1.7904
824.153	1.53627
825.844	0.659816
827.535	1.63476
829.225	1.00821
830.915	1.31976
832.605	1.12156
834.292	1.74983
835.981	1.71065
837.67	1.42577
839.359	1.34052
841.047	1.25379
842.732	1.18814
844.42	0.853843
846.107	1.21284
847.794	1.19348
849.479	1.7132
851.165	1.13878
852.851	0.856412
854.534	1.0006
856.22	1.0102
857.905	0.726592
859.589	0.93611
861.272	1.03177
862.956	1.2838
864.639	0.565813
866.321	1.04134
868.004	0.68224
869.687	0.818761
871.367	1.24829
873.049	0.572301
874.731	1.00167
876.41	0.821842
878.092	1.16109
879.771	0.913437
881.451	0.846011
883.131	0.100697
884.809	0.618683
886.489	0.390561
888.166	1.01861
889.845	0.449548
891.522	1.3673
893.2	1.22413
894.878	0.697591
896.554	0.890438
898.231	0.296028
899.906	1.24991
901.583	0.587691
903.258	0.77694
904.934	1.09961
906.608	1.13151
908.283	0.606508
909.956	0.528853
911.631	0.229642
913.304	0.953955
914.976	0.145123
916.65	0.801937
918.322	0.859084
919.995	0.739065
921.666	1.10642
923.339	1.14257
925.009	1.4452
926.679	0.667279
928.351	0.465304
930.021	0.9927
931.692	0.858595
933.361	1.34245
935.029	0.944044
936.699	0.788685
938.367	0.612019
940.035	0.171679
941.704	1.07788
943.371	0.374325
945.038	1.03873
946.706	0.731121
948.372	0.576425
950.038	0.596692
951.705	1.14536
953.37	0.943822
955.035	1.44933
956.7	0.36953
958.366	0.196414
960.03	0.400641
961.693	0.363472
963.357	0.591431
965.021	0.72981
966.684	0.711137
968.346	0.889164
970.008	0.401604
971.67	0.665463
973.334	0.642075
974.995	0.465101
976.655	0.488674
978.316	0.845345
979.976	0.738106
981.638	0.630481
983.297	0.610212
984.957	0.300499
986.616	0.741628
988.274	0.340208
989.932	0.380329
991.59	0.0662336
993.248	0.216171
994.907	0.0790205
996.565	0.118613
998.221	0.577065
999.878	0.902557
1001.53	0.742812
1003.19	-0.121326
1004.85	0.11502
1006.5	0.482764
1008.16	0.564589
1009.81	-0.362875
1011.46	0.816504
1013.12	-0.153033
1014.77	0.346439
1016.43	-0.139454
1018.08	0.644629
1019.73	0.160135
1021.38	0.135987
1023.04	0.440619
1024.69	0.898912
1026.34	0.614631
1027.99	0.570775
1029.64	0.0239382
1031.29	1.15802
1032.94	1.04551
1034.59	0.822514
1036.24	0.620379
1037.89	2.13881
1039.54	1.848
1041.19	1.90627
1042.84	2.03091
1044.48	2.35265
1046.13	3.15396
1047.78	2.74079
1049.42	2.24252
1051.07	2.35361
1052.72	2.2266
1054.36	1.5132
1056.01	1.75578
1057.66	1.28079
1059.3	0.848657
1060.94	1.00293
1062.59	0.830341
1064.23	0.678677
1065.88	0.439169
1067.52	0.65523
1069.16	-0.0639114
1070.81	0.650244
1072.45	0.148065
1074.09	0.4278
1075.73	0.361124
1077.38	0.664255
1079.02	0.187716
1080.66	0.340708
1082.3	0.0166397
1083.94	0.103863
1085.58	0.124707
1087.22	0.707207
1088.86	0.551046
1090.5	0.739752
1092.13	0.0407839
1093.77	0.379286
1095.41	0.630954
1097.05	-0.173419
1098.68	0.166216
1100.32	0.356119
1101.96	0.0740232
1103.6	0.26684
1105.23	0.159542
1106.87	0.160284
1108.5	0.0747662
1110.14	0.375396
1111.77	-0.185184
1113.41	0.28454
1115.04	0.21595
1116.67	-0.0246906
1118.31	0.528252
1119.94	0.438302
1121.58	0.156569
1123.21	0.860518
1124.84	0.0671062
1126.47	1.13575
1128.1	0.344116
1129.73	0.515515
1131.37	0.345287
1133	0.218087
1134.63	0.176299
1136.26	0.475949
1137.89	0.625009
1139.52	0.153494
1141.14	0.941138
1142.77	0.489879
1144.4	0.231113
1146.03	0.250279
1147.66	0.227598
1149.29	0.440001
1150.91	0.354507
1152.54	-0.625337
1154.17	0.0981913
1155.79	0.246321
1157.42	-0.0525684
1159.04	-0.0744982
1160.67	0.0743647
1162.3	0.266602
1163.92	-0.305774
1165.55	0.227881
1167.17	-0.0678816
1168.79	0.273321
1170.42	-0.343451
1172.04	0.143399
1173.66	0.352228
1175.28	-0.331364
1176.91	-0.0180111
1178.53	0.040801
1180.15	-0.0480967
1181.77	0.286908
1183.39	0.283801
1185.01	-0.0150843
1186.63	0.0868425
1188.25	-0.276893
1189.87	-0.114594
1191.49	0.256322
1193.11	0.372704
1194.73	-0.0578337
1196.35	0.603054
1197.97	0.362573
1199.59	0.709726
1201.2	0.598523
1202.82	0.594201
1204.44	-0.242668
1206.05	0.341554
1207.67	-0.450218
1209.29	0.0725908
1210.9	0.302617
1212.52	-0.13606
1214.13	-0.32607
1215.75	-0.267735
1217.36	0.288316
1218.97	0.842388
1220.59	0.440248
1222.2	0.060215
1223.82	0.655744
1225.43	0.526924
1227.04	0.0477848
1228.65	-0.0781078
1230.26	0.10724
1231.88	0.148744
1233.49	0.108532
1235.1	0.544677
1236.71	0.29977
1238.32	0.40708
1239.93	0.204821
1241.54	0.457651
1243.15	0.275872
1244.76	0.383072
1246.37	0.530832
1247.97	0.139737
1249.58	0.617051
1251.19	0.576781
1252.8	0.350518
1254.41	0.745375
1256.01	0.0655422
1257.62	0.813991
1259.23	1.02572
1260.83	0.679459
1262.44	1.14096
1264.04	0.774204
1265.65	0.842012
1267.25	1.26161
1268.86	0.913448
1270.46	0.813095
1272.07	0.628879
1273.67	1.21088
1275.27	0.568861
1276.88	0.98318
1278.48	0.795776
1280.08	0.421619
1281.68	1.14444
1283.28	0.646132
1284.89	1.03789
1286.49	0.479174
1288.09	0.893023
1289.69	0.708208
1291.29	0.585857
1292.89	1.45521
1294.49	0.588396
1296.09	0.608945
1297.69	0.855208
1299.29	1.18231
1300.88	1.19838
1302.48	1.13091
1304.08	1.37139
1305.68	0.870619
1307.27	0.534704
1308.87	1.08142
1310.47	0.417817
1312.06	0.718108
1313.66	0.997947
1315.25	0.583359
1316.85	0.680699
1318.44	1.61484
1320.04	0.773845
1321.63	1.03338
1323.23	0.863777
1324.82	1.4451
1326.41	0.785416
1328.01	0.775676
1329.6	0.68541
1331.19	1.14271
1332.78	1.05546
1334.38	0.828969
1335.97	0.967396
1337.56	1.22717
1339.15	1.26438
1340.74	0.977803
1342.33	1.09231
1343.92	1.22494
1345.51	0.713799
1347.1	0.705247
1348.69	1.01859
1350.28	0.693036
1351.87	0.730129
1353.46	0.648978
1355.04	1.72826
1356.63	0.749151
1358.22	1.14859
1359.81	0.907916
1361.39	0.606638
1362.98	0.644064
1364.57	0.421959
1366.15	0.558938
1367.74	0.85573
1369.32	0.874599
1370.91	1.05388
1372.49	0.53787
1374.07	0.381045
1375.66	1.02071
1377.24	0.765052
1378.83	0.588561
1380.41	1.24691
1381.99	0.710318
1383.57	0.849016
1385.16	0.628943
1386.74	0.647071
1388.32	0.208563
1389.9	0.981783
1391.48	0.584482
1393.06	0.66419
1394.64	0.585526
1396.22	0.546407
1397.8	0.36796
1399.38	0.268069
1400.96	0.880462
1402.54	0.54156
1404.12	1.03389
1405.7	0.537473
1407.28	1.05025
1408.85	0.535954
1410.43	1.36559
1412.01	1.36535
1413.58	1.06848
1415.16	0.751307
1416.74	1.24224
1418.31	0.667953
1419.89	0.705216
1421.46	0.585812
1423.04	0.763074
1424.61	0.921993
1426.19	1.39691
1427.76	0.612659
1429.33	0.989449
1430.91	1.1883
1432.48	0.225055
1434.05	0.913979
1435.63	0.913761
1437.2	1.24793
1438.77	1.09116
1440.34	1.48563
1441.91	0.996512
1443.49	1.45138
1445.05	1.43493
1446.63	1.16312
1448.2	1.12729
1449.77	1.15066
1451.34	1.35141
1452.91	1.35604
1454.47	1.47904
1456.04	0.85439
1457.61	1.44908
1459.18	1.11779
1460.75	1.29666
1462.31	0.883595
1463.88	0.74472
1465.45	1.19468
1467.01	1.46701
1468.58	0.993293
1470.15	1.05066
1471.71	0.383109
1473.28	0.834752
1474.84	1.05157
1476.41	0.954991
1477.97	0.211581
1479.54	0.154376
1481.1	1.21428
1482.66	0.78445
1484.23	0.962045
1485.79	1.29599
1487.35	1.19822
1488.91	1.00145
1490.48	0.998893
1492.04	0.622921
1493.6	0.75356
1495.16	0.765293
1496.72	1.06828
1498.28	0.630802
1499.84	0.952868
1501.4	0.187966
1502.96	0.45354
1504.52	0.273719
1506.08	0.0944633
1507.64	0.785302
1509.2	0.353372
1510.76	0.500301
1512.31	0.395582
1513.87	1.23388
1515.43	0.2633
1516.99	0.505141
1518.54	0.516939
1520.1	0.988978
1521.66	0.713926
1523.21	0.3054
1524.77	0.64172
1526.32	0.995399
1527.88	0.0905838
1529.43	-0.0516214
1530.99	0.452122
1532.54	0.670448
1534.09	0.794289
1535.65	0.483698
1537.2	0.628075
1538.75	0.697265
1540.31	0.314088
1541.86	0.873672
1543.41	0.491079
1544.96	0.48509
1546.51	0.629194
1548.06	0.322542
1549.62	0.560048
1551.17	1.09682
1552.72	0.847314
1554.27	0.823355
1555.82	0.352409
1557.36	0.536839
1558.91	0.442862
1560.46	1.33927
1562.01	0.558035
1563.56	0.710536
1565.11	0.956872
1566.66	0.643533
1568.2	0.609873
1569.75	0.575884
1571.3	0.560234
1572.84	0.656345
1574.39	0.789676
1575.93	0.0456409
1577.48	0.440499
1579.02	1.07844
1580.57	0.503371
1582.11	0.115508
1583.66	0.494065
1585.2	0.798731
1586.75	1.12276
1588.29	0.605505
1589.83	0.293482
1591.38	1.04784
1592.92	0.847336
1594.46	0.402965
1596	1.25114
1597.54	0.507113
1599.09	0.456826
1600.63	0.707211
1602.17	1.12716
1603.71	0.796411
1605.25	1.06596
1606.79	0.564053
1608.33	0.586579
1609.87	0.832753
1611.41	0.832615
1612.95	1.11248
1614.48	0.64016
1616.02	0.899532
1617.56	0.727837
1619.1	1.11935
1620.64	0.388143
1622.17	1.43726
1623.71	1.06395
1625.25	1.009
1626.78	0.878573
1628.32	0.597455
1629.86	1.0821
1631.39	0.387899
1632.92	0.92691
1634.46	0.812181
1635.99	0.959456
1637.53	0.995497
1639.06	1.0507
1640.59	1.06865
1642.13	0.955659
1643.66	1.04666
1645.19	0.745734
1646.73	0.909319
1648.26	1.03523
1649.79	0.882741
1651.32	0.805498
1652.85	0.525366
1654.38	1.26614
1655.92	1.02463
1657.45	0.746174
1658.98	0.430254
1660.51	0.965135
1662.04	0.591667
1663.57	0.347184
1665.09	0.619785
1666.62	0.578476
1668.15	0.740972
1669.68	0.867645
1671.21	0.258456
1672.73	0.461046
1674.26	1.16113
1675.79	0.682414
1677.31	0.608226
1678.84	0.588391
1680.37	0.530931
1681.89	0.803646
1683.42	0.488118
1684.94	0.356564
1686.47	0.702266
1687.99	0.809672
1689.52	0.734112
1691.04	0.695468
1692.57	-0.129982
1694.09	1.0208
1695.61	0.433497
1697.14	0.138951
1698.66	0.0453396
1700.18	0.425996
1701.7	0.149168
1703.22	-0.0183897
1704.75	0.34195
1706.27	0.264652
1707.79	0.314491
1709.31	-0.108076
1710.83	-0.00356483
1712.35	-0.0260134
1713.87	0.40465
1715.39	0.472601
1716.91	0.178638
1718.43	0.300719
1719.95	0.169737
1721.46	0.36388
1722.98	0.197597
1724.5	-0.0396824
1726.02	0.0124865
1727.53	0.0116882
1729.05	0.299623
1730.57	0.10122
1732.08	0.0818672
1733.6	0.905007
1735.12	0.238053
1736.63	0.1954
1738.15	0.3916
1739.66	0.0852385
1741.18	0.310406
1742.69	0.164918
1744.21	0.232561
1745.72	0.123241
1747.23	0.496881
1748.74	0.126276
1750.26	0.399529
1751.77	-0.189468
1753.28	-0.0438318
1754.8	-0.146802
1756.31	-0.203397
1757.82	0.188859
1759.33	-0.418574
1760.84	-0.254915
1762.35	-0.216169
1763.86	0.0947151
1765.37	0.254111
1766.88	0.198636
1768.39	0.018054
1769.9	-0.00694752
1771.41	-0.0602989
1772.92	-0.0187235
1774.43	0.178514
1775.93	0.219786
1777.44	0.325976
1778.95	0.179434
1780.46	0.0704994
1781.96	0.111917
1783.47	0.175008
1784.98	-0.134688
1786.48	0.302999
1787.99	0.0741463
1789.49	0.160737
1791	-0.000694275
1792.5	0.180389
1794.01	0.354593
1795.51	-0.000328064
1797.02	0.0270681
1798.52	-0.0299468
1800.03	-0.0062623
1801.53	0.329556
1803.03	0.0797415
1804.53	0.191551
1806.04	0.139701
1807.54	0.298567
1809.04	-0.175707
1810.54	0.0942707
1812.04	0.100492
1813.54	0.329682
1815.05	0.153953
1816.55	0.180783
1818.05	-0.00122643
1819.55	-0.00729704
1821.05	0.0366626
1822.55	0.0782256
1824.05	0.11276
1825.54	0.0630832
1827.04	-0.0177588
1828.54	0.248394
1830.04	-0.200866
1831.54	0.0789666
1833.03	-0.13338
1834.53	0.0828424
1836.03	-0.126671
1837.52	0.187119
1839.02	0.268102
1840.52	-0.119813
1842.01	0.0968566
1843.51	0.0090189
1845	0.432336
1846.5	0.147719
1847.99	-0.14948
1849.49	-0.0670729
1850.98	0.0100627
1852.47	0.194538
1853.97	0.20367
1855.46	0.203789
1856.95	0.194227
1858.45	0.120548
1859.94	0.0867629
1861.43	0.186958
1862.92	0.145855
1864.41	-0.221136
1865.91	0.150114
1867.4	0.0451708
1868.89	0.56874
1870.38	0.185067
1871.87	0.27471
1873.36	-0.207453
1874.85	0.0395331
1876.34	-0.0842738
1877.83	-0.0879788
1879.31	0.18473
1880.8	-0.0775881
1882.29	0.203436
1882.56	0.276836
1884.05	0.0320454
1885.54	-0.0389957
1887.04	0.237621
1888.53	0.356844
1890.03	0.145569
1891.52	0.300586
1893.01	0.283084
1894.5	0.162908
1895.99	0.165799
1897.49	-0.0218868
1898.98	-0.174969
1900.47	0.0537691
1901.96	-0.275554
1903.45	0.263301
1904.94	-0.0165071
1906.43	0.276626
1907.92	0.0658598
1909.41	0.168267
1910.9	0.37553
1912.39	0.115122
1913.88	0.0807872
1915.37	0.289308
1916.86	0.445437
1918.35	0.289029
1919.84	0.063015
1921.32	0.391342
1922.81	0.183061
1924.3	0.166101
1925.78	0.254021
1927.27	-0.176481
1928.76	0.27652
1930.24	0.227408
1931.73	0.402693
1933.21	0.213031
1934.7	0.108437
1936.18	0.383089
1937.67	0.241411
1939.15	0.099525
1940.64	-0.162768
1942.12	0.197242
1943.6	0.143835
1945.09	-0.305388
1946.57	0.21136
1948.05	0.365675
1949.54	-0.479918
1951.02	0.0690699
1952.5	-0.020009
1953.98	-0.0922613
1955.46	0.162011
1956.94	0.124366
1958.42	-0.204391
1959.91	0.119674
1961.39	0.0666876
1962.87	-0.088922
1964.34	-0.004704
1965.82	0.027627
1967.3	0.264712
1968.78	0.27858
1970.26	0.189354
1971.74	0.219592
1973.22	0.164394
1974.7	0.126422
1976.17	0.139794
1977.65	-0.0170207
1979.13	0.115817
1980.6	0.265463
1982.08	-0.112185
1983.56	-0.0139556
1985.03	0.0159535
1986.51	-0.0900745
1987.98	0.0243549
1989.46	-0.064312
1990.93	0.236943
1992.41	0.437183
1993.88	0.249316
1995.36	0.146822
1996.83	0.0278811
1998.3	-0.293676
1999.78	0.245605
2001.25	-0.177936
2002.72	0.174355
2004.2	-0.114415
2005.67	0.305081
2007.14	0.42171
2008.61	0.454926
2010.08	0.404734
2011.55	0.102529
2013.02	0.608335
2014.49	0.457292
2015.97	0.288785
2017.43	-0.0486007
2018.9	0.201948
2020.37	0.149347
2021.84	0.46613
2023.31	0.128289
2024.78	0.0934486
2026.25	0.244172
2027.72	0.0774417
2029.19	0.297789
2030.65	0.41871
2032.12	0.456657
2033.59	0.108935
2035.05	0.11361
2036.52	0.537929
2037.98	0.239462
2039.45	0.226229
2040.92	0.0616474
2042.38	0.149545
2043.85	0.187682
2045.31	0.39492
2046.78	0.283133
2048.24	0.390483
2049.71	0.278547
2051.17	0.0644379
2052.63	0.287342
2054.1	-0.0984497
2055.56	0.155124
2057.02	0.221965
2058.48	0.45658
2059.95	0.286631
2061.41	0.302391
2062.87	0.100039
2064.33	0.0837684
2065.79	0.253477
2067.25	-0.0641408
2068.71	-0.128845
2070.17	0.631525
2071.63	0.230494
2073.09	0.165987
2074.55	0.286466
2076.01	0.305627
2077.47	0.307628
2078.93	0.140879
2080.39	0.209494
2081.85	0.328117
2083.3	0.563937
2084.76	0.529729
2086.22	0.410775
2087.68	0.240931
2089.13	0.306164
2090.59	0.421544
2092.05	0.469583
2093.5	0.265796
2094.96	0.481253
2096.41	0.277022
2097.87	0.373946
2099.32	0.52039
2100.78	0.599442
2102.23	0.561612
2103.69	0.474485
2105.14	1.17301
2106.59	0.687724
2108.05	0.370481
2109.5	0.570597
2110.95	0.553402
2112.41	0.268443
2113.86	0.431931
2115.31	0.327574
2116.76	0.538481
2118.21	0.932019
2119.67	0.662275
2121.12	0.643426
2122.57	0.195114
2124.02	0.229103
2125.47	0.578661
2126.92	0.364209
2128.37	0.381018
2129.82	0.396631
2131.27	0.626421
2132.71	0.722848
2134.16	0.819148
2135.61	0.403499
2137.06	0.733248
2138.51	0.585221
2139.95	0.455376
2141.4	0.97159
2142.85	0.844242
2144.29	1.01515
2145.74	0.689798
2147.19	0.893736
2148.63	0.865372
2150.08	1.21724
2151.52	0.590757
2152.97	1.22258
2154.42	0.279632
2155.86	1.05939
2157.3	1.09363
2158.75	1.22792
2160.19	0.998975
2161.64	1.13608
2163.08	1.20864
2164.52	1.16654
2165.96	1.63981
2167.41	0.651581
2168.85	0.725106
2170.29	0.946844
2171.73	1.10031
2173.17	1.15224
2174.61	1.15303
2176.06	1.13666
2177.5	0.970848
2178.94	0.93876
2180.38	1.00729
2181.82	1.12648
2183.26	0.930261
2184.7	0.71758
2186.14	0.88751
2187.57	1.29046
2189.01	1.07784
2190.45	0.865116
2191.89	0.885146
2193.33	0.454966
2194.76	0.956
2196.2	0.872688
2197.64	0.95405
2199.08	0.518355
2200.51	0.979574
2201.95	0.792497
2203.38	0.821946
2204.82	0.437806
2206.25	0.402961
2207.69	0.948408
2209.12	0.681811
2210.56	0.811993
2211.99	0.676488
2213.43	0.738855
2214.86	0.883614
2216.3	0.847147
2217.73	0.976716
2219.16	0.876409
2220.59	0.67802
2222.03	0.578733
2223.46	0.412985
2224.89	0.641385
2226.32	0.88445
2227.75	0.385835
2229.19	0.363343
2230.62	0.520689
2232.05	0.611956
2233.48	0.605055
2234.91	0.696939
2236.34	0.087214
2237.77	0.508247
2239.2	0.310372
2240.63	0.538454
2242.06	0.343951
2243.48	0.313609
2244.91	0.381417
2246.34	0.301852
2247.77	0.106792
2249.2	0.317597
2250.62	0.55886
2252.05	0.391311
2253.48	0.434742
2254.9	0.250909
2256.33	0.490705
2257.76	0.407733
2259.18	0.37594
2260.61	0.63871
2262.03	0.449273
2263.46	0.293499
2264.88	0.917831
2266.31	0.192927
2267.73	0.393886
2269.16	0.545396
2270.58	0.484672
2272	0.439759
2273.43	0.101522
2274.85	0.659156
2276.27	0.28847
2277.69	0.276306
2279.12	0.329394
2280.54	0.170468
2281.96	0.256013
2283.38	0.24363
2284.8	0.361827
2286.22	0.382331
2287.64	0.321521
2289.07	0.440719
2290.49	0.0701385
2291.91	0.124508
2293.32	0.522467
2294.74	0.397176
2296.16	0.157118
2297.58	0.146065
2299	0.0858946
2300.42	0.32085
2301.84	0.244699
2303.26	-0.241447
2304.67	-0.153456
2306.09	0.18091
2307.51	0.00594234
2308.92	0.553642
2310.34	0.114603
2311.76	0.0368185
2313.17	0.485489
2314.59	0.144736
2316	0.100735
2317.42	0.386848
2318.83	-0.0846553
2320.25	0.25131
2321.66	0.141128
2323.08	-0.0532322
2324.49	0.410595
2325.91	0.0309043
2327.32	0.656015
2328.73	0.818338
2330.15	0.881834
2331.56	0.402792
2332.97	0.451751
2334.38	-0.123833
2335.79	0.255161
2337.21	-0.30385
2338.62	0.254632
2340.03	0.318691
2341.44	0.119118
2342.85	0.00143051
2344.26	-0.0177259
2345.67	0.160037
2347.08	-0.00614071
2348.49	0.0406957
2349.9	0.430668
2351.31	0.492487
2352.72	-0.116275
2354.13	0.189007
2355.53	0.0367155
2356.94	0.128692
2358.35	0.139124
2359.76	0.0196657
2361.17	-0.050777
2362.57	0.365289
2363.98	-0.0779753
2365.39	-0.0511737
2366.79	-0.0404382
2368.2	-0.174532
2369.6	-0.0655732
2371.01	-0.149137
2372.42	0.155127
2373.82	0.137866
2375.22	-0.361951
2376.63	0.232401
2378.03	0.391058
2379.44	0.114336
2380.84	-0.211476
2382.25	0.151718
2383.65	0.209038
2385.05	-0.00590181
2386.45	0.0196657
2387.86	-0.161545
2389.26	0.264438
2390.66	-0.0898547
2392.06	-0.140187
2393.46	-0.0305285
2394.87	0.365968
2396.27	-0.111639
2397.67	0.206245
2399.07	0.254327
2400.47	-0.141996
2401.87	-0.0296588
2403.27	-0.0126104
2404.67	0.0199966
2406.07	0.0042448
2407.47	0.098805
2408.86	0.129187
2410.26	-0.0467963
2411.66	0.141975
2413.06	0.062048
2414.46	-0.111753
2415.85	0.0639791
2417.25	-0.123318
2418.65	0.133435
2420.05	-0.132054
2421.44	-0.033422
2422.84	-0.220213
2424.23	0.0839009
2425.63	-0.0397062
2427.03	0.217462
2428.42	0.190116
2429.82	0.211134
2431.21	0.0740886
2432.6	0.0163989
2434	-0.0417771
2435.39	0.343896
2436.79	0.172352
2438.18	-0.0958157
2439.57	0.0321484
2440.97	0.0481377
2442.36	-0.0156965
2443.75	-0.111453
2445.14	-0.0328007
2446.54	-0.0494685
2447.93	0.282404
2449.32	0.0595698
2450.71	0.0271211
2452.1	-0.242266
2453.49	0.391057
2454.88	0.344567
2456.27	0.203776
2457.66	0.221454
2459.05	0.00174141
2460.44	-0.218398
2461.83	-0.265183
2463.22	0.303835
2464.61	-0.107594
2466	-0.029366
2467.39	-0.109132
2468.77	-0.362428
2470.16	0.188649
2471.55	-0.0966105
2472.94	-0.0512962
2474.32	0.00907373
2475.71	0.0845547
2477.1	-0.028995
2478.48	0.0931664
2479.87	0.152507
2481.25	0.353014
2482.64	0.192802
2484.02	0.235954
2485.41	0.309548
2486.8	0.100821
2488.18	0.188121
2489.56	0.0719957
2490.95	-0.401901
2492.33	-0.330136
2493.72	-0.0403113
2495.1	0.0328498
2496.48	0.354918
2497.86	-0.143659
2499.25	0.0861359
2500.63	0.160661
2502.01	0.141681
2503.39	0.0910335
2504.77	0.0551648
2506.16	0.126715
2507.54	0.15174
2508.92	-0.00765467
2510.3	0.140791
2511.68	-0.0787244
2513.06	0.0860181
2514.44	0.20526
2515.82	0.23324
2517.2	-0.0746851
2518.58	-0.0607581
2519.95	0.151943
2521.33	0.272563
2522.71	0.13301
2524.09	-0.0680633
2525.47	-0.0103331
2526.84	0.00141573
2528.22	0.0591359
2529.6	0.208931
2530.98	0.26872
2532.35	0.0412116
2533.73	0.118773
2535.11	0.424812
2536.48	-0.211126
2537.86	0.124691
2539.23	0.307728
2540.61	-0.117337
2541.98	0.38341
2543.36	-0.117302
2544.73	0.00488329
2546.1	0.264563
2547.48	0.343264
2548.85	-0.00208235
2550.23	0.320158
2551.6	-0.0863662
2552.97	0.386546
2554.34	0.372936
2555.72	0.206851
2557.09	0.328571
2558.46	-0.0654221
2559.83	0.056438
2561.2	-0.00318432
2562.58	0.104443
2563.95	0.470161
2565.32	0.245237
2566.69	-0.0855598
2568.06	0.0383506
2569.43	-0.171144
2570.8	0.043736
2572.17	-0.423412
2573.54	-0.0113478
2574.91	-0.0387745
2576.27	-0.14198
2577.64	0.346073
2579.01	3.09944e-005
2580.38	0.199565
2581.75	0.0651774
2583.11	0.173091
2584.48	0.311114
2585.85	0.100439
2587.21	0.374925
2588.58	0.0887804
2589.95	0.0755572
2591.31	-0.0135345
2592.68	0.0636849
2594.04	0.0796237
2595.41	-0.23843
2596.78	0.0635471
2598.14	0.0922785
2599.51	0.241628
2600.87	0.149149
2602.23	0.117609
2603.6	0.267808
2604.96	-0.0494132
2606.32	-0.0193048
2607.69	0.236696
2609.05	0.280769
2610.41	0.0827889
2611.77	0.335501
2613.14	0.195862
2614.5	-0.0342603
2615.86	-0.0390325
2617.22	-0.0136127
2618.58	-0.07759
2619.94	0.0836349
2621.3	0.529309
2622.67	0.272542
2624.03	0.0909805
2625.39	-0.179909
2626.75	0.384436
2628.1	0.202659
2629.46	-0.291768
2630.82	0.211222
2632.18	0.356555
2633.54	0.100576
2634.9	0.0379362
2636.26	0.0347023
2637.61	0.0759277
2638.97	0.0579171
2640.33	0.0696602
2641.69	0.170313
2643.04	0.123333
2644.4	0.209431
2645.76	0.0150595
2647.11	0.144953
2648.47	-0.21198
2649.82	0.122702
2651.18	0.250379
2652.53	0.127899
2653.89	-0.0968227
2655.24	0.353734
2656.6	-0.10356
2657.95	0.157911
2659.31	0.0541096
2660.66	0.0092392
2662.01	0.0519829
2663.37	0.050386
2664.72	0.0481381
2666.07	0.118214
2667.43	0.0566435
2668.78	0.0242357
2670.13	0.254013
2671.48	0.0331855
2672.83	-0.056046
2674.18	0.334562
2675.53	-0.0295029
2676.89	-0.32022
2678.24	0.129479
2679.59	-0.174376
2680.94	-0.0278459
2682.29	0.0906467
2683.64	0.210142
2684.99	0.446532
2686.34	-0.143599
2687.68	0.397892
2689.03	0.169236
2690.38	0.214988
2691.73	-0.0310459
2693.08	-0.147552
2694.43	0.0833135
2695.77	-0.0195198
2697.12	0.139005
2698.47	0.0667825
2699.81	0.0249228
2701.16	0.303055
2702.51	0.147999
2703.85	0.0661564
2705.2	-0.116817
2706.54	0.0771985
2707.89	0.227656
2709.23	-0.0140386
2710.58	-0.198127
2711.92	0.125902
2713.27	0.362846
2714.61	0.032989
2715.96	0.0663967
2717.3	0.274248
2718.64	0.161948
2719.99	0.0638571
2721.33	-0.209265
2722.67	0.361355
2724.01	0.305785
2725.36	-0.041255
2726.7	0.120856
2728.04	0.311805
2729.38	0.0514131
2730.72	0.125634
2732.06	0.0688853
2733.41	0.0995107
2734.75	0.290279
2736.09	-0.144219
2737.43	0.294073
2738.77	0.20876
2740.11	0.181428
2741.44	-0.137079
2742.78	0.16912
2744.12	0.183955
2745.46	0.125646
2746.8	-0.0491228
2748.14	-0.00615358
2749.48	-0.0212102
2750.81	-0.384158
2752.15	0.0797362
2753.49	-0.0796871
2754.83	0.210267
2756.16	0.0946212
2757.5	0.35565
2758.84	-0.208358
2760.17	-0.134995
2761.51	0.286033
2762.84	-0.0450563
2764.18	-0.115409
2765.51	-0.156826
2766.85	0.0473518
2768.18	-0.154256
2769.52	0.163773
2770.85	-0.0254374
2772.19	0.0733376
2773.52	-0.261718
2774.85	-0.0343771
2776.19	-0.00910282
2777.52	0.246689
2778.85	0.157408
2780.18	0.341718
2781.52	0.0377975
2782.85	0.222284
2784.18	-0.109796
2785.51	-0.369783
2786.84	-0.185276
2788.17	-0.0435386
2789.51	0.0271349
2790.84	0.22719
2792.17	0.241881
2793.5	0.0854049
2794.83	0.000491142
2796.16	-0.141796
2797.48	-0.113015
2798.81	0.200879
2800.14	0.0146627
2801.47	-0.157326
2802.8	0.241026
2804.13	-0.00250721
2805.46	0.109939
2806.79	0.179066
2808.11	-0.0795245
2809.44	0.173573
2810.77	0.0429001
2812.09	-0.11547
2813.42	0.450577
2814.75	-0.0459952
2816.07	0.195932
2817.4	0.325309
2818.73	-0.0125737
2820.05	0.202317
2821.38	0.190073
2822.7	-0.276171
2824.03	0.079021
2825.35	0.0513482
2826.67	0.519361
2828	0.577024
2829.32	0.309547
2830.65	0.0849643
2831.97	0.0304337
2833.29	0.174029
2834.62	0.246586
2835.94	0.205523
2837.26	0.447038
2838.58	0.871987
2839.9	0.575317
2841.23	0.533381
2842.55	0.562482
2843.87	0.57796
2845.19	0.7212
2846.51	0.737741
2847.83	0.853498
2849.15	0.729001
2850.47	0.858675
2851.79	1.00209
2853.11	1.04615
2854.43	0.764887
2855.75	0.794391
2857.07	0.92276
2858.39	0.938138
2859.71	0.897005
2861.02	0.855752
2862.34	0.913088
2863.66	0.941891
2864.98	1.33734
2866.3	1.06957
2867.61	1.21111
2868.93	1.16963
2870.25	1.08618
2871.56	1.5103
2872.88	1.2576
2874.19	1.21579
2875.51	1.18731
2876.83	1.60856
2878.14	1.5785
2879.46	1.56232
2880.77	1.30746
2882.09	1.62947
2883.4	1.17958
2884.71	1.32037
2886.03	1.26498
2887.34	1.5044
2888.65	1.50483
2889.97	1.54675
2891.28	1.65812
2892.59	1.83901
2893.91	1.52931
2895.22	1.37419
2896.53	1.48572
2897.84	1.6819
2899.15	1.75283
2900.46	1.50256
2901.78	1.82618
2903.09	1.32463
2904.4	1.73238
2905.71	1.59481
2907.02	1.76535
2908.33	2.11835
2909.64	1.81446
2910.95	1.8747
2912.26	1.76696
2913.57	2.03663
2914.87	2.15134
2916.18	1.98481
2917.49	2.50301
2918.8	2.44656
2920.11	2.11031
2921.42	1.77474
2922.72	2.41869
2924.03	2.53228
2925.34	2.22733
2926.64	2.39804
2927.95	2.47093
2929.26	2.41772
2930.56	2.47594
2931.87	1.91874
2933.17	2.85708
2934.48	2.73299
2935.78	2.49719
2937.09	2.52705
2938.39	2.58496
2939.7	2.62908
2941	2.44997
2942.31	2.46708
2943.61	2.40117
2944.91	1.94471
2946.22	2.14605
2947.52	2.38992
2948.82	2.11589
2950.13	1.58885
2951.43	1.95657
2952.73	2.15498
2954.03	1.97432
2955.33	2.31138
2956.64	1.97715
2957.94	1.8963
2959.24	1.83131
2960.54	1.85223
2961.84	1.87458
2963.14	1.98165
2964.44	1.4426
2965.74	1.99761
2967.04	1.6525
2968.34	1.37646
2969.64	1.46534
2970.94	1.13221
2972.24	1.38997
2973.53	1.66215
2974.83	1.52622
2976.13	1.43198
2977.43	1.1537
2978.73	1.32476
2980.02	1.1285
2981.32	0.987693
2982.62	0.902846
2983.91	1.36657
2985.21	0.889099
2986.51	1.05928
2987.8	1.07589
2989.1	1.1494
2990.4	0.956048
2991.69	0.930933
2992.99	0.483408
2994.28	0.779767
2995.57	0.653724
2996.87	0.822037
2998.16	0.821605
2999.46	0.554811
3000.75	0.344673
3002.05	0.485478
3003.34	0.584418
3004.63	0.417177
3005.92	0.515863
3007.22	0.417996
3008.51	0.711286
3009.8	0.570051
3011.09	0.302633
3012.39	0.398235
3013.68	0.57734
3014.97	0.0176439
3016.26	0.33681
3017.55	-0.0400105
3018.84	0.363128
3020.13	0.0843921
3021.42	0.333733
3022.71	0.387591
3024	0.315657
3025.29	0.284798
3026.58	0.21223
3027.87	0.26464
3029.16	0.234818
3030.45	-0.00111485
3031.73	-0.0562119
3033.02	0.110332
3034.31	0.207934
3035.6	0.387753
3036.89	0.207838
3038.17	0.522647
3039.46	0.0509052
3040.75	0.307417
3042.03	0.0546637
3043.32	0.021801
3044.61	-0.0514545
3045.89	0.450877
3047.18	-0.0706353
3048.46	0.0792608
3049.75	-0.465481
3051.03	0.0418205
3052.32	-0.146341
3053.6	0.0202169
3054.89	0.131614
3056.17	0.242092
3057.45	0.065309
3058.74	0.119642
3060.02	0.268949
3061.31	0.227795
3062.59	0.296173
3063.87	0.175158
3065.15	-0.06704
3066.44	0.235568
3067.72	0.0358405
3069	-0.0685334
3070.28	0.180408
3071.56	-0.0609879
3072.84	0.0502329
3074.13	0.323493
3075.41	0.269616
3076.69	0.256192
3077.97	0.188735
3079.25	0.0949693
3080.53	0.368593
3081.81	0.0600429
3083.09	0.213609
3084.37	0.299831
3085.64	0.277474
3086.92	-0.0982413
3088.2	0.0411654
3089.48	0.166367
3090.76	0.0604024
3092.04	-0.181381
3093.31	-0.0839438
3094.59	-0.0406523
3095.87	0.0298615
3097.14	-0.0487919
3098.42	-0.127555
3099.7	-0.179377
3100.97	0.0395908
3102.25	0.177134
3103.53	0.165802
3104.8	0.127714
3106.08	0.0630612
3107.35	0.0531745
3108.63	0.192873
3109.9	-0.0456505
3111.18	0.122579
3112.45	0.0611596
3113.73	0.10833
3115	0.277431
3116.27	0.0935807
3117.55	0.017355
3118.82	-0.181902
3120.09	-0.0837245
3121.37	0.135602
3122.64	0.00184774
3123.91	-0.0372357
3125.18	0.0320597
3126.45	0.0609303
3127.73	0.0765748
3129	0.0789781
3130.27	0.108581
3131.54	-0.0646205
3132.81	0.072834
3134.08	0.142232
3135.35	-0.166959
3136.62	0.0767708
3137.89	0.0500116
3139.16	-0.286957
3140.43	-0.0718017
3141.7	0.0622153
3142.97	-0.139803
3144.24	-0.233846
3145.51	-0.085948
3146.78	0.169363
3148.04	0.129994
3149.31	-0.0294948
