200.554	0.821964
202.369	0.914505
204.183	1.01576
205.999	0.536739
207.813	0.374821
209.626	-0.0806885
211.439	0.261459
213.253	-0.178341
215.065	0.251404
216.877	0.193607
218.688	-0.420933
220.5	0.298653
222.312	-0.93848
224.123	0.536381
225.933	1.31098
227.742	0.732231
229.552	1.14233
231.361	-0.54987
233.171	1.18387
234.98	2.07332
236.787	0.0502777
238.595	0.783287
240.402	1.38084
242.209	1.2635
244.015	0.330479
245.822	0.530254
247.627	0.893063
249.435	0.0385323
251.24	1.61078
253.045	0.613544
254.849	1.78173
256.653	1.16313
258.457	1.77722
260.26	0.0360909
262.063	0.350025
263.866	1.60934
265.668	1.52334
267.47	1.7275
269.271	1.03837
271.073	1.84052
272.873	0.323593
274.674	0.971157
276.474	1.32305
278.274	1.40261
280.073	1.98016
281.872	1.97152
283.671	1.13809
285.47	0.901379
287.268	3.18217
289.065	2.34156
290.863	0.714939
292.66	1.89613
294.456	2.60304
296.253	1.16297
298.049	1.9027
299.844	1.73571
301.637	1.92607
303.432	0.680447
305.227	1.50732
307.021	1.23268
308.815	1.81559
310.609	1.82812
312.402	2.84534
314.195	1.84427
315.987	1.4693
317.777	2.36289
319.569	2.47647
321.36	3.16639
323.151	1.97584
324.942	1.97844
326.733	2.41104
328.521	2.389
330.31	2.19694
332.1	2.62185
333.889	2.68147
335.677	1.96706
337.464	3.27774
339.252	1.15897
341.039	1.11624
342.826	2.5047
344.611	1.64575
346.398	0.645988
348.184	1.86985
349.97	1.185
351.754	1.81295
353.539	0.481731
355.324	0.650059
357.106	1.19476
358.89	1.32885
360.674	0.505924
362.455	1.27496
364.239	0.351837
366.021	1.32798
367.804	0.258259
369.584	0.752186
371.366	1.07607
373.145	0.99435
374.926	2.99088
376.707	0.994019
378.485	-0.312866
380.265	0.388237
382.045	0.33897
383.822	0.435318
385.601	-0.0046463
387.378	0.852268
389.156	0.256065
390.934	0.438496
392.71	1.09325
394.487	-0.363533
396.262	-0.1049
398.038	0.999458
399.813	0.247562
401.588	0.0576439
403.362	0.616879
405.137	0.750561
406.912	1.23365
408.685	0.775143
410.459	0.479885
412.23	-0.566216
414.004	0.19619
415.775	1.07811
417.548	1.21196
419.318	0.503113
421.089	0.921371
422.86	0.728374
424.63	0.0865707
426.401	0.943897
428.17	0.084362
429.94	-0.612442
431.708	-0.370506
433.478	1.18669
435.245	-0.118362
437.012	0.17223
438.781	0.0612144
440.547	1.2824
442.315	0.73634
444.081	1.37856
445.846	0.631184
447.613	0.465843
449.378	0.439434
451.142	0.133011
452.908	1.3454
454.672	0.200787
456.435	-0.289665
458.2	0.80357
459.963	-0.291992
461.725	0.0813293
463.489	0.482845
465.251	-0.524986
467.012	-0.50066
468.775	0.253193
470.536	0.362656
472.296	0.0551796
474.056	-0.115757
475.817	-0.339619
477.576	0.0811958
479.335	-0.901966
481.094	0.0915184
482.854	0.0373192
484.612	0.895485
486.37	0.31617
488.127	0.303036
489.886	-0.286324
491.642	0.130615
493.398	-0.688049
495.154	1.46257
496.91	1.0885
498.667	-0.224644
500.422	0.639156
502.176	0.633587
503.93	-0.573174
505.684	-0.163811
507.438	-0.135044
509.191	0.453003
510.946	0.282803
512.698	0.0128899
514.45	0.114258
516.202	0.328465
517.954	0.702957
519.705	0.932575
521.456	0.736378
523.206	0.890896
524.956	1.09139
526.706	1.10386
528.456	1.53834
530.207	0.659561
531.956	1.63043
533.704	1.14597
535.452	1.5701
537.2	1.33415
538.947	0.276573
540.694	1.15258
542.441	-0.0957336
544.188	0.82103
545.934	1.50307
547.68	0.304321
549.425	0.244953
551.17	0.163235
552.915	-0.264694
554.659	-0.621811
556.403	1.49235
558.145	0.675201
559.889	0.321976
561.632	-0.166862
563.375	0.174995
565.117	1.52961
566.859	-0.354073
568.601	0.935234
570.342	-0.411972
572.083	-0.675381
573.824	0.420174
575.565	0.443573
577.303	0.748028
579.043	0.666924
580.782	0.817955
582.521	0.394844
584.26	1.0039
585.998	1.24178
587.734	0.624138
589.472	1.03735
591.21	0.826126
592.947	0.290951
594.684	0.767555
596.418	-0.0441208
598.154	0.363358
599.89	0.585423
601.626	-0.0236664
603.361	1.06487
605.094	0.0555916
606.828	0.375378
608.562	-0.295383
610.296	0.847218
612.027	0.0864716
613.761	1.09449
615.493	0.843464
617.224	0.936764
618.956	0.043293
620.688	0.909317
622.419	-0.128647
624.149	0.820621
625.879	-0.355778
627.61	0.481968
629.338	0.641167
631.068	0.5802
632.797	0.822861
634.525	0.612606
636.254	0.674839
637.98	0.456997
639.708	0.982872
641.436	0.220688
643.162	1.13768
644.889	1.06979
646.614	0.844116
648.34	0.716354
650.067	1.28135
651.791	1.01896
653.516	0.406235
655.239	0.418274
656.964	-0.267948
658.687	0.802639
660.411	0.732857
662.133	0.337578
663.857	0.5508
665.58	0.412971
667.301	0.565857
669.024	-0.244236
670.744	0.343559
672.464	-1.12149
674.186	-0.267242
675.905	1.09958
677.626	-0.395027
679.345	-0.261597
681.065	-0.660088
682.783	0.0851707
684.503	0.801197
686.22	0.889275
687.939	0.764709
689.656	0.98196
691.372	-0.0932693
693.09	0.649044
694.806	-0.407833
696.523	1.24945
698.239	0.208435
699.953	0.981735
701.67	0.761372
703.384	0.767887
705.098	0.886799
706.813	0.865978
708.526	0.0412025
710.239	1.5076
711.954	0.383362
713.666	1.8217
715.378	0.400368
717.091	1.0589
718.802	0.256763
720.513	0.664436
722.226	0.684738
723.936	-0.546158
725.646	1.42979
727.355	0.221588
729.067	0.193993
730.776	0.300995
732.484	0.632988
734.192	-0.14492
735.902	0.231491
737.61	0.969685
739.317	1.77646
741.024	2.47249
742.731	2.02288
744.439	1.42084
746.145	1.67929
747.851	-0.0599442
749.556	0.972519
751.262	0.0297623
752.966	0.868134
754.673	1.17133
756.377	0.556889
758.081	1.05028
759.784	0.873039
761.487	1.17266
763.19	1.18102
764.892	1.64
766.594	1.07895
768.296	1.39284
770	2.08415
771.701	0.688469
773.402	0.961597
775.102	1.30113
776.803	2.366
778.503	0.563602
780.202	0.212936
781.901	1.22297
783.6	1.37395
785.299	1.63436
786.997	1.93227
788.695	2.4686
790.393	1.99832
792.09	1.02262
793.787	0.833851
795.484	0.0807495
797.18	1.33774
798.877	0.999146
800.572	1.54456
802.268	2.02644
803.963	1.25067
805.658	1.73375
807.35	1.47221
809.044	1.11723
810.738	0.781342
812.432	1.3399
814.125	1.85094
815.818	2.18122
817.51	1.5043
819.202	1.81202
820.894	1.47223
822.584	1.22355
824.275	1.60208
825.966	1.51687
827.657	2.48562
829.347	2.61676
831.037	2.02307
832.725	1.3047
834.414	1.97448
836.103	1.8898
837.792	1.46944
839.481	1.58067
841.167	1.48577
842.854	1.23017
844.542	1.53165
846.229	1.81328
847.914	1.542
849.6	1.79309
851.287	2.88128
852.973	2.02771
854.656	2.34217
856.341	2.43197
858.026	3.05774
859.711	1.22602
861.393	1.86264
863.077	2.0891
864.761	3.21296
866.442	2.35058
868.125	1.7787
869.808	1.83656
871.489	2.38967
873.171	1.90445
874.85	1.01271
876.532	1.63273
878.213	2.27553
879.892	1.81205
881.572	1.50519
883.251	1.33131
884.931	1.87608
886.61	2.34823
888.287	1.97999
889.966	2.55373
891.643	0.732967
893.321	0.666771
894.997	1.42935
896.675	1.13041
898.352	1.21042
900.028	0.367565
901.704	0.980152
903.379	1.14198
905.055	1.9731
906.729	0.861332
908.404	0.445358
910.077	-0.634743
911.75	0.98193
913.425	0.97525
915.097	1.214
916.771	0.454178
918.443	0.914467
920.116	0.820721
921.787	1.21578
923.46	0.530937
925.13	1.92892
926.8	1.91862
928.472	0.987019
930.141	0.346882
931.813	2.26846
933.481	0.726967
935.15	1.43629
936.82	0.603096
938.488	1.4932
940.156	1.5935
941.825	0.837559
943.492	1.40763
945.158	0.675117
946.827	0.975899
948.493	0.299259
950.158	1.02893
951.824	0.849674
953.491	0.670918
955.156	0.166931
956.82	1.01741
958.486	-0.172394
960.15	-0.581711
961.814	0.581608
963.477	1.25964
965.142	0.362209
966.804	0.273621
968.467	-0.222546
970.129	-0.968803
971.79	0.4944
973.454	-0.00944519
975.115	-0.685165
976.776	1.78554
978.436	0.789131
980.096	1.03351
981.756	1.27654
983.417	-0.322559
985.077	0.883144
986.736	-0.906345
988.394	1.06044
990.052	0.765823
991.71	0.845081
993.368	1.49796
995.025	1.75311
996.682	0.662636
998.341	1.97652
999.998	2.58291
1001.65	2.06406
1003.31	1.28029
1004.97	0.870338
1006.62	-0.0887604
1008.28	-0.0140114
1009.93	0.456726
1011.58	0.270462
1013.24	1.116
1014.89	0.691525
1016.54	0.159477
1018.2	0.811253
1019.85	0.54668
1021.5	0.57011
1023.16	0.0945816
1024.81	-0.00601578
1026.46	1.05345
1028.11	0.692459
1029.76	1.11575
1031.41	1.49086
1033.06	1.64177
1034.71	1.96129
1036.36	1.40348
1038.01	1.60617
1039.66	2.06954
1041.31	2.9044
1042.95	3.56907
1044.6	2.63177
1046.25	3.72219
1047.9	3.27725
1049.54	1.64386
1051.19	2.44732
1052.84	1.90696
1054.48	2.73664
1056.13	1.17579
1057.77	0.613258
1059.42	2.1796
1061.06	2.17838
1062.71	0.97839
1064.35	0.297081
1066	2.00366
1067.64	1.48879
1069.28	0.905647
1070.93	1.27626
1072.57	0.343849
1074.21	1.21482
1075.85	1.69845
1077.49	0.950462
1079.13	1.13942
1080.78	0.59367
1082.42	1.82586
1084.06	0.496193
1085.7	1.48068
1087.34	1.76389
1088.97	-0.0824738
1090.61	0.728977
1092.25	0.929764
1093.89	0.653473
1095.53	1.00405
1097.17	1.1199
1098.8	1.24039
1100.44	1.32392
1102.08	0.768642
1103.71	0.564091
1105.35	0.923363
1106.99	-0.285618
1108.62	0.504456
1110.26	0.9464
1111.89	0.823692
1113.52	0.931751
1115.16	0.520142
1116.79	0.493263
1118.43	-0.00472641
1120.06	1.12855
1121.69	0.765224
1123.32	1.56174
1124.96	1.2272
1126.59	-0.194832
1128.22	1.35889
1129.85	0.391636
1131.48	-0.145821
1133.11	0.921097
1134.75	-0.214378
1136.37	0.635807
1138	0.392227
1139.63	-0.0262871
1141.26	0.256649
1142.89	-0.123867
1144.52	-0.524738
1146.15	-0.517769
1147.78	0.792419
1149.4	-0.110836
1151.03	0.841045
1152.66	0.280514
1154.28	0.442856
1155.91	-0.0347786
1157.54	0.615128
1159.16	0.521587
1160.79	0.112179
1162.41	0.514793
1164.04	1.38861
1165.66	0.818344
1167.29	-0.58218
1168.91	-0.37056
1170.53	-0.419937
1172.16	0.0126381
1173.78	-0.0708961
1175.4	0.393047
1177.02	-0.141727
1178.65	0.977245
1180.27	0.149841
1181.89	0.659325
1183.51	-0.774452
1185.13	0.666882
1186.75	-0.304142
1188.37	0.577171
1189.99	-0.510174
1191.61	0.208729
1193.23	0.142773
1194.85	-0.828537
1196.47	0.614025
1198.08	-0.623753
1199.7	-0.221252
1201.32	0.313988
1202.94	0.523685
1204.55	0.575306
1206.17	1.0099
1207.79	1.09424
1209.4	0.0738297
1211.02	0.489815
1212.63	1.35817
1214.25	0.446636
1215.86	0.0698433
1217.48	1.39321
1219.09	0.216949
1220.71	0.516621
1222.32	0.942627
1223.93	0.564278
1225.54	0.668049
1227.16	1.23223
1228.77	1.09756
1230.38	0.388557
1231.99	1.83388
1233.6	1.96029
1235.22	1.38847
1236.83	1.23426
1238.44	1.82783
1240.05	2.69282
1241.66	3.35201
1243.26	2.58269
1244.87	3.50698
1246.48	4.01383
1248.09	3.33745
1249.7	2.86534
1251.31	1.54414
1252.92	2.74767
1254.52	3.7055
1256.13	2.33003
1257.74	1.6828
1259.34	2.65345
1260.95	2.77916
1262.55	2.57528
1264.16	3.1792
1265.76	2.18633
1267.37	2.26813
1268.97	3.25882
1270.58	2.31768
1272.18	3.63273
1273.78	3.3682
1275.39	2.51975
1276.99	1.56478
1278.59	2.8447
1280.2	2.94124
1281.8	2.51925
1283.4	3.46344
1285	3.12683
1286.6	4.1168
1288.2	3.84938
1289.8	2.77946
1291.4	3.36462
1293	2.9575
1294.6	2.73365
1296.2	3.4139
1297.8	4.43868
1299.4	3.76452
1301	4.13712
1302.6	2.93914
1304.19	3.5508
1305.79	3.54191
1307.39	3.92137
1308.99	3.6836
1310.58	3.8357
1312.18	3.25207
1313.77	3.69489
1315.37	3.24155
1316.96	3.69069
1318.56	3.89629
1320.15	4.65146
1321.75	3.75204
1323.34	3.39801
1324.94	3.74973
1326.53	2.93861
1328.12	4.3373
1329.72	2.85975
1331.31	3.09029
1332.9	3.4497
1334.49	3.3523
1336.08	4.12845
1337.67	3.53421
1339.27	3.13959
1340.86	3.22278
1342.45	2.0304
1344.04	2.98422
1345.63	3.91195
1347.22	2.83327
1348.8	3.50575
1350.39	3.40548
1351.98	2.19459
1353.57	2.63148
1355.16	2.55295
1356.75	3.69456
1358.33	2.81633
1359.92	2.77393
1361.51	3.16684
1363.09	2.85821
1364.68	2.68831
1366.27	2.99777
1367.85	2.1549
1369.44	3.04893
1371.02	2.91272
1372.61	3.85604
1374.19	2.5549
1375.77	2.29082
1377.36	3.95716
1378.94	2.93526
1380.52	2.86482
1382.11	3.1875
1383.69	3.4655
1385.27	3.34218
1386.85	3.77367
1388.43	3.45082
1390.02	3.98429
1391.6	3.01266
1393.18	3.11568
1394.76	3.2993
1396.34	3.89848
1397.92	3.70174
1399.5	2.66924
1401.08	2.6839
1402.65	3.86433
1404.23	3.71802
1405.81	3.09931
1407.39	3.9469
1408.97	2.72243
1410.54	3.91026
1412.12	4.76146
1413.7	5.4124
1415.27	3.92844
1416.85	4.55286
1418.43	4.74166
1420	4.2028
1421.58	4.96811
1423.15	4.69563
1424.73	4.66566
1426.3	4.95526
1427.87	5.20744
1429.45	5.61594
1431.02	5.31236
1432.6	6.61806
1434.17	6.68011
1435.74	8.05813
1437.31	6.50681
1438.89	6.9052
1440.46	7.09121
1442.03	7.02545
1443.6	6.2156
1445.17	7.94257
1446.74	7.27249
1448.31	7.46786
1449.88	8.09698
1451.45	7.66638
1453.02	7.1984
1454.59	7.24307
1456.16	7.30721
1457.72	7.74265
1459.29	7.36618
1460.86	5.25118
1462.43	6.21867
1463.99	6.98257
1465.56	5.52067
1467.13	5.31628
1468.69	4.99579
1470.26	4.46315
1471.83	4.7983
1473.39	3.88203
1474.95	4.16512
1476.52	3.37128
1478.08	3.53864
1479.65	3.13725
1481.21	3.04921
1482.78	3.43121
1484.34	3.47949
1485.9	2.44895
1487.47	3.11988
1489.03	2.8066
1490.59	1.72382
1492.15	1.90549
1493.71	2.23535
1495.27	2.63621
1496.84	2.3893
1498.39	1.16947
1499.96	1.54827
1501.52	2.18236
1503.07	1.48135
1504.64	1.69532
1506.19	0.612869
1507.75	1.61867
1509.31	1.7108
1510.87	2.66681
1512.43	1.1894
1513.98	1.46574
1515.54	0.973324
1517.1	1.13697
1518.65	1.22631
1520.21	0.819557
1521.77	1.94503
1523.32	0.773281
1524.88	0.880455
1526.44	1.67014
1527.99	0.4744
1529.54	0.839119
1531.1	1.84837
1532.65	1.51061
1534.21	2.12371
1535.76	2.47434
1537.31	1.42955
1538.87	1.37082
1540.42	1.70949
1541.97	0.766861
1543.52	2.4039
1545.07	2.4202
1546.63	1.98491
1548.18	1.08093
1549.73	1.67811
1551.28	2.01263
1552.83	2.14267
1554.38	1.93952
1555.93	1.8164
1557.48	2.25972
1559.03	2.74698
1560.57	2.36406
1562.12	2.91965
1563.67	3.46059
1565.22	1.91387
1566.77	2.58774
1568.31	2.98101
1569.86	3.42894
1571.41	4.24889
1572.95	3.55581
1574.5	3.29159
1576.05	3.66219
1577.59	3.39888
1579.14	3.79053
1580.68	3.58705
1582.23	2.71402
1583.77	4.30956
1585.31	4.37641
1586.86	3.82812
1588.4	3.6539
1589.95	3.81554
1591.49	4.14415
1593.03	4.39637
1594.57	4.25441
1596.11	4.09385
1597.66	4.72194
1599.2	4.37798
1600.74	3.88621
1602.28	5.02851
1603.82	4.53806
1605.36	5.15299
1606.9	4.27852
1608.44	4.5806
1609.98	3.63379
1611.52	4.6894
1613.06	4.7229
1614.6	4.39512
1616.13	3.86004
1617.67	4.15218
1619.21	3.34304
1620.75	3.55126
1622.28	4.55065
1623.82	3.86772
1625.36	3.9337
1626.89	4.50208
1628.43	3.02615
1629.96	4.03353
1631.5	3.70925
1633.04	3.328
1634.57	4.49771
1636.11	4.34455
1637.64	3.29972
1639.17	3.73065
1640.71	3.4904
1642.24	3.47158
1643.77	4.0819
1645.31	5.0221
1646.84	4.06113
1648.37	5.29303
1649.9	4.89082
1651.43	3.41655
1652.96	4.2111
1654.5	3.15495
1656.03	4.65942
1657.56	4.43944
1659.09	3.06842
1660.62	2.78626
1662.15	4.34926
1663.67	4.00209
1665.2	3.96751
1666.73	3.65756
1668.26	2.57753
1669.79	3.56836
1671.32	2.22366
1672.84	2.4124
1674.37	3.33918
1675.9	3.43607
1677.43	2.81226
1678.95	1.79882
1680.48	2.38235
1682	1.9153
1683.53	2.23732
1685.05	2.15557
1686.58	1.67173
1688.1	2.03312
1689.63	2.61529
1691.15	1.76963
1692.68	0.119881
1694.2	1.8919
1695.72	1.85167
1697.25	1.26246
1698.77	1.23881
1700.29	0.282974
1701.81	1.05911
1703.33	1.35839
1704.86	1.14541
1706.38	0.840275
1707.9	0.0620537
1709.42	0.465511
1710.94	0.505653
1712.46	0.945225
1713.98	1.63829
1715.5	2.077
1717.02	0.724148
1718.54	0.800747
1720.06	0.0644379
1721.57	0.647049
1723.09	0.581738
1724.61	0.772221
1726.13	0.715004
1727.64	0.374451
1729.16	1.60297
1730.68	0.22813
1732.19	0.79092
1733.71	-0.106625
1735.23	0.869888
1736.74	0.697639
1738.26	0.974049
1739.77	1.12112
1741.29	0.472015
1742.8	0.665386
1744.31	0.919533
1745.83	0.71101
1747.34	0.52108
1748.85	1.46203
1750.37	0.145847
1751.88	1.00198
1753.39	-0.0929832
1754.91	-0.063549
1756.42	0.180473
1757.93	-0.241898
1759.44	-0.153824
1760.95	0.244026
1762.46	-0.680672
1763.97	0.344318
1765.48	0.517712
1766.99	-0.203194
1768.5	0.662727
1770.01	0.418713
1771.52	0.0662155
1773.03	0.349621
1774.54	-0.0928764
1776.04	0.822365
1777.55	0.29171
1779.06	-0.224365
1780.57	0.611465
1782.07	0.104336
1783.58	-0.436226
1785.09	-0.71122
1786.59	0.299747
1788.1	0.248409
1789.6	-0.202202
1791.11	0.355606
1792.61	0.211098
1794.12	-0.399654
1795.62	-0.633064
1797.13	0.0480194
1798.63	0.284439
1800.13	0.0572853
1801.64	-0.109276
1803.14	0.311989
1804.64	0.120846
1806.15	-0.117538
1807.65	-0.0107841
1809.15	0.0297813
1810.65	0.112629
1812.15	0.609844
1813.65	0.342812
1815.16	-0.0719948
1816.66	0.338604
1818.15	0.494637
1819.66	-0.67992
1821.16	-0.330036
1822.65	0.274845
1824.15	0.152531
1825.65	0.219391
1827.15	-0.0978279
1828.65	-0.121902
1830.15	-0.28228
1831.64	0.0811768
1833.14	-0.155445
1834.64	-0.505013
1836.14	0.0404053
1837.63	0.333054
1839.13	-0.522495
1840.62	-0.146912
1842.12	0.263283
1843.62	0.490532
1845.11	0.306938
1846.61	0.318863
1848.1	0.19944
1849.6	0.34827
1851.09	0.0807037
1852.58	0.261234
1854.08	-0.221554
1855.57	0.605068
1857.06	0.366257
1858.55	0.398373
1860.05	0.656517
1861.54	0.368336
1863.03	0.326618
1864.52	0.110153
1866.01	0.773273
1867.5	0.482433
1869	0.161823
1870.49	0.210262
1871.98	0.416893
1873.47	0.0319824
1874.96	-0.271324
1876.44	-0.507721
1877.93	0.537865
1879.42	0.0396194
1880.91	-0.311092
1882.4	0.0721474
1882.47	0.0935555
1883.96	0.179371
1885.46	0.174854
1886.95	-0.0422134
1888.44	0.365509
1889.94	0.634266
1891.43	0.419792
1892.93	0.246746
1894.42	0.342003
1895.91	0.0263672
1897.4	0.688107
1898.89	0.445332
1900.39	0.0592804
1901.88	0.206017
1903.37	0.467266
1904.86	0.930973
1906.35	0.0530281
1907.84	-0.00802612
1909.33	0.540886
1910.82	0.0694656
1912.31	-0.137756
1913.8	-0.134392
1915.29	0.285622
1916.77	-0.0586357
1918.26	0.635078
1919.75	-0.440792
1921.24	0.371605
1922.73	0.00762177
1924.21	-0.196873
1925.7	-0.0505257
1927.19	0.169437
1928.67	0.0978165
1930.16	0.459099
1931.64	0.00340271
1933.13	0.165382
1934.61	-0.268341
1936.1	-0.362396
1937.58	0.230457
1939.07	0.198551
1940.55	0.271385
1942.04	-0.273743
1943.52	0.358921
1945	0.442871
1946.49	0.597366
1947.97	-0.00732422
1949.45	0.0745926
1950.93	0.0663757
1952.42	0.329762
1953.9	-0.303726
1955.38	0.592613
1956.86	0.561981
1958.34	1.2207
1959.82	-0.125286
1961.3	0.418415
1962.78	0.431217
1964.26	-0.0877762
1965.74	-0.111629
1967.22	0.101452
1968.7	0.43137
1970.18	0.314045
1971.65	0.588692
1973.13	0.0263138
1974.61	0.079174
1976.09	0.0474625
1977.57	-0.784012
1979.04	0.105221
1980.52	0.499916
1982	-0.143509
1983.47	-0.702225
1984.95	0.928181
1986.42	0.0279694
1987.9	0.298424
1989.37	-0.344738
1990.85	-0.425896
1992.32	-0.148083
1993.8	0.505386
1995.27	0.23222
1996.75	0.214497
1998.22	-0.10725
1999.69	0.481232
2001.17	0.560581
2002.64	0.317394
2004.11	0.495312
2005.58	0.741745
2007.05	-0.137577
2008.53	-0.675774
2010	0.0860405
2011.47	-0.210709
2012.94	-0.305107
2014.41	-0.266411
2015.88	0.341309
2017.35	0.255512
2018.82	0.889355
2020.29	0.394596
2021.76	0.353138
2023.23	0.229065
2024.7	1.29948
2026.16	0.0927238
2027.63	0.384846
2029.1	0.246838
2030.57	0.281929
2032.03	-0.0482216
2033.5	0.630661
2034.97	0.453598
2036.44	-0.464169
2037.9	0.934277
2039.37	0.298203
2040.83	-0.119904
2042.3	0.203091
2043.76	-0.19408
2045.23	0.606735
2046.69	-0.154373
2048.16	0.634724
2049.62	0.176338
2051.08	0.927567
2052.55	0.880543
2054.01	0.185345
2055.47	0.950378
2056.94	0.613735
2058.4	0.762733
2059.86	0.472927
2061.32	0.774235
2062.79	1.02808
2064.25	1.03341
2065.71	0.403324
2067.17	0.416168
2068.63	1.71056
2070.09	0.38065
2071.55	0.650024
2073.01	1.2557
2074.47	1.33845
2075.93	1.73985
2077.39	0.859928
2078.85	1.17408
2080.31	1.23381
2081.76	0.904079
2083.22	0.992664
2084.68	0.64072
2086.13	0.773926
2087.59	1.15677
2089.05	0.461994
2090.51	1.27885
2091.96	1.08727
2093.42	1.44931
2094.87	1.05528
2096.33	-0.0944099
2097.78	1.5519
2099.24	0.364872
2100.69	0.56638
2102.15	0.918758
2103.6	1.04004
2105.06	1.03276
2106.51	1.03104
2107.96	0.733398
2109.42	0.954304
2110.87	0.939747
2112.32	1.66994
2113.77	1.09366
2115.23	1.26058
2116.68	1.73941
2118.13	1.35479
2119.58	0.876328
2121.03	1.46767
2122.48	1.4692
2123.93	0.664063
2125.38	1.51988
2126.83	2.09283
2128.28	1.76659
2129.73	1.31913
2131.18	1.34726
2132.63	1.81908
2134.08	1.84345
2135.53	1.7716
2136.97	2.49887
2138.42	1.61356
2139.87	2.81814
2141.32	2.31051
2142.76	2.0058
2144.21	2.51411
2145.66	2.65937
2147.1	2.14136
2148.55	2.59772
2150	2.91842
2151.44	2.42342
2152.89	2.2227
2154.33	2.38323
2155.78	2.97263
2157.22	2.46882
2158.66	2.96164
2160.11	2.78043
2161.55	2.20826
2163	3.35043
2164.44	3.95253
2165.88	2.86563
2167.32	2.89007
2168.77	2.74435
2170.21	2.69141
2171.65	3.34557
2173.09	2.69456
2174.53	3.2025
2175.97	2.84308
2177.41	3.38234
2178.85	3.80801
2180.29	2.70798
2181.73	1.89397
2183.17	2.92792
2184.61	3.2648
2186.05	1.98845
2187.49	3.25746
2188.93	2.74642
2190.37	3.28381
2191.81	2.43853
2193.24	2.38949
2194.68	2.26883
2196.12	2.54076
2197.56	2.07273
2198.99	2.89546
2200.43	2.31721
2201.87	2.70204
2203.3	2.39194
2204.74	1.95382
2206.17	2.10023
2207.61	1.66883
2209.04	3.07535
2210.48	2.3259
2211.91	1.90423
2213.35	1.51321
2214.78	2.62527
2216.21	1.98833
2217.65	1.50497
2219.08	1.47209
2220.51	2.33285
2221.95	1.51265
2223.38	1.29999
2224.81	1.26348
2226.24	1.68126
2227.67	1.43432
2229.1	1.67555
2230.54	1.68349
2231.97	0.985855
2233.4	1.09284
2234.83	1.39867
2236.26	1.43062
2237.69	1.81142
2239.11	1.30165
2240.54	1.20781
2241.97	1.8386
2243.4	1.16947
2244.83	1.31735
2246.26	1.78911
2247.69	1.78185
2249.11	2.0597
2250.54	1.51394
2251.97	1.2714
2253.4	0.554291
2254.82	0.863033
2256.25	0.754494
2257.67	0.995651
2259.1	0.955444
2260.53	1.39692
2261.95	0.74437
2263.38	0.925678
2264.8	0.913513
2266.23	-0.140575
2267.65	0.769741
2269.07	0.489353
2270.5	0.205696
2271.92	0.913193
2273.34	0.447674
2274.77	1.0248
2276.19	1.42369
2277.61	0.975998
2279.03	1.44126
2280.46	0.0475922
2281.88	0.642677
2283.3	0.27512
2284.72	1.34354
2286.14	0.650429
2287.56	-0.139668
2288.98	0.116673
2290.4	0.570824
2291.82	1.25524
2293.24	1.18845
2294.66	0.238018
2296.08	0.481335
2297.5	-0.552639
2298.92	1.3287
2300.34	0.606434
2301.76	0.573273
2303.17	-0.0494957
2304.59	1.21535
2306.01	0.937496
2307.43	-0.196331
2308.84	0.606476
2310.26	1.39125
2311.68	0.826138
2313.09	0.523727
2314.51	0.27195
2315.92	0.566044
2317.34	-0.0592499
2318.75	0.470387
2320.17	0.373089
2321.58	0.288193
2323	0.526386
2324.41	0.425861
2325.82	0.217896
2327.24	1.15806
2328.65	0.825123
2330.06	0.509624
2331.48	-0.180984
2332.89	-0.258003
2334.3	0.639027
2335.71	0.105457
2337.12	0.540916
2338.54	0.413528
2339.95	0.314835
2341.36	-0.411396
2342.77	-0.498596
2344.18	0.0865402
2345.59	-0.721228
2347	0.651531
2348.41	-0.0233994
2349.82	-0.355307
2351.23	0.585503
2352.64	-0.389807
2354.04	-0.665186
2355.45	0.247364
2356.86	-0.976372
2358.27	0.827703
2359.68	0.0449581
2361.08	0.0920086
2362.49	0.203775
2363.9	1.40007
2365.3	0.150597
2366.71	-0.626869
2368.12	-0.367298
2369.52	0.0568371
2370.93	-0.191889
2372.33	-0.0970478
2373.74	0.210798
2375.14	0.310659
2376.55	0.00691223
2377.95	1.08248
2379.36	-0.146929
2380.76	0.257019
2382.16	-0.32332
2383.57	0.519711
2384.97	0.383917
2386.37	0.114082
2387.78	-0.151888
2389.18	0.216831
2390.58	0.223169
2391.98	-0.673616
2393.38	0.0892143
2394.79	0.218189
2396.19	0.270203
2397.59	0.451694
2398.99	-0.620001
2400.39	0.280455
2401.79	-0.644829
2403.19	0.558435
2404.59	0.807287
2405.99	-0.105927
2407.39	0.548944
2408.78	0.438982
2410.18	0.565571
2411.58	-0.0835609
2412.98	1.06035
2414.38	0.340008
2415.77	0.337749
2417.17	-0.0078392
2418.57	0.964132
2419.97	0.00576973
2421.36	0.6465
2422.76	-0.187189
2424.15	0.277065
2425.55	1.10606
2426.95	0.90699
2428.34	0.108564
2429.74	0.169504
2431.13	0.962992
2432.52	0.0592613
2433.92	1.78921
2435.31	0.354824
2436.71	0.169537
2438.1	0.566467
2439.49	-0.105829
2440.89	0.298637
2442.28	0.351542
2443.67	0.435049
2445.06	0.882624
2446.46	0.631611
2447.85	0.364464
2449.24	0.509327
2450.63	0.401527
2452.02	0.169092
2453.41	-0.0762081
2454.8	0.963171
2456.19	0.407169
2457.58	0.437761
2458.97	0.879065
2460.36	0.416754
2461.75	-0.253868
2463.14	0.732582
2464.53	0.357361
2465.92	0.218168
2467.31	0.141857
2468.69	0.507202
2470.08	0.824175
2471.47	0.13035
2472.86	0.663603
2474.24	0.0441303
2475.63	0.178221
2477.02	0.782215
2478.4	0.725386
2479.79	0.575068
2481.17	-0.076149
2482.56	-0.33486
2483.94	0.172312
2485.33	-0.622713
2486.72	0.657787
2488.1	0.714148
2489.48	0.112988
2490.87	-1.37443
2492.25	0.3304
2493.64	0.854937
2495.02	0.499098
2496.4	-0.378475
2497.79	0.080492
2499.17	0.493452
2500.55	0.378794
2501.93	0.261497
2503.31	0.125423
2504.69	0.23315
2506.08	0.338337
2507.46	0.0267658
2508.84	1.06922
2510.22	0.268015
2511.6	0.345287
2512.98	1.03841
2514.36	0.569489
2515.74	-0.0179825
2517.12	-0.00531197
2518.5	0.177525
2519.88	0.0399437
2521.25	0.0696144
2522.63	0.966961
2524.01	0.853344
2525.39	0.173315
2526.77	0.163387
2528.14	0.763483
2529.52	0.393446
2530.9	1.06305
2532.27	0.93306
2533.65	0.519552
2535.03	0.124014
2536.4	-0.271572
2537.78	0.318008
2539.15	0.448357
2540.53	1.44101
2541.9	0.306705
2543.28	-0.173519
2544.65	1.04841
2546.03	1.10651
2547.4	0.971964
2548.77	0.112326
2550.15	0.982653
2551.52	0.667833
2552.89	0.16753
2554.27	0.938217
2555.64	0.446047
2557.01	0.528402
2558.38	0.549501
2559.75	1.1324
2561.12	0.686331
2562.5	0.848919
2563.87	0.725718
2565.24	1.30119
2566.61	0.134865
2567.98	1.87856
2569.35	0.924706
2570.72	0.880127
2572.09	0.411272
2573.46	0.0638981
2574.83	0.292883
2576.19	0.461374
2577.56	0.508337
2578.93	0.948729
2580.3	0.189991
2581.67	0.900555
2583.04	1.53385
2584.4	0.619791
2585.77	0.781948
2587.14	0.383659
2588.5	0.668112
2589.87	0.240692
2591.23	-0.14163
2592.6	0.716959
2593.97	0.224159
2595.33	-0.0448685
2596.7	0.454596
2598.06	0.57243
2599.43	0.340944
2600.79	0.548235
2602.15	-0.269909
2603.52	0.37937
2604.88	1.1207
2606.25	0.730927
2607.61	0.44589
2608.97	0.384216
2610.33	0.57436
2611.7	0.940065
2613.06	0.278328
2614.42	0.816786
2615.78	0.992947
2617.15	0.899673
2618.51	0.898628
2619.87	-0.14707
2621.23	0.112396
2622.59	1.1504
2623.95	0.814089
2625.31	0.895908
2626.67	0.753025
2628.03	0.936968
2629.39	0.598362
2630.75	0.750483
2632.1	0.307295
2633.46	0.295422
2634.82	0.550623
2636.18	0.167587
2637.54	0.466761
2638.89	-0.241224
2640.25	0.635494
2641.61	0.609974
2642.97	0.555954
2644.32	-0.0583553
2645.68	0.301641
2647.03	0.866125
2648.39	0.985348
2649.75	0.718781
2651.1	0.0238571
2652.46	0.929985
2653.81	1.60022
2655.17	0.322361
2656.52	-0.0413723
2657.88	0.0678577
2659.23	-0.68293
2660.58	0.513222
2661.94	1.1524
2663.29	1.3652
2664.64	0.903326
2666	0.410164
2667.35	0.440664
2668.7	0.412472
2670.05	1.20006
2671.4	0.272663
2672.76	1.15054
2674.11	1.43422
2675.46	1.25524
2676.81	1.48474
2678.16	0.628691
2679.51	0.747589
2680.86	0.116243
2682.21	1.04046
2683.56	1.12811
2684.91	0.465042
2686.26	0.54331
2687.61	1.02764
2688.96	1.63869
2690.3	0.38549
2691.65	0.853273
2693	0.357685
2694.35	0.816053
2695.7	0.577505
2697.04	0.442677
2698.39	1.34059
2699.74	0.303942
2701.08	0.345039
2702.43	1.26052
2703.77	0.803913
2705.12	0.0588741
2706.47	0.633219
2707.81	0.684795
2709.16	1.21402
2710.5	0.798336
2711.85	0.294193
2713.19	0.55937
2714.53	1.4204
2715.88	0.536959
2717.22	0.656034
2718.57	0.556053
2719.91	0.542048
2721.25	1.07946
2722.59	1.65893
2723.94	1.47986
2725.28	1.82319
2726.62	0.520382
2727.96	1.23958
2729.3	0.808126
2730.65	1.01645
2731.99	0.817226
2733.33	1.12748
2734.67	0.361897
2736.01	1.10979
2737.35	1.49447
2738.69	0.773796
2740.03	0.415916
2741.37	0.478134
2742.71	0.668917
2744.05	0.682741
2745.38	0.621695
2746.72	0.559137
2748.06	1.20719
2749.4	0.708582
2750.74	0.878225
2752.07	0.758682
2753.41	1.16179
2754.75	1.13061
2756.09	0.926125
2757.42	0.143122
2758.76	1.01169
2760.09	0.433905
2761.43	0.27766
2762.77	-0.122849
2764.1	1.24303
2765.44	0.568754
2766.77	0.428316
2768.11	-0.438448
2769.44	0.252516
2770.77	0.345303
2772.11	0.404301
2773.44	0.54611
2774.77	-0.136091
2776.11	0.176579
2777.44	0.13015
2778.77	0.445219
2780.11	0.517365
2781.44	-0.113121
2782.77	-0.570206
2784.1	0.62244
2785.43	-0.694765
2786.77	0.167446
2788.1	-0.157825
2789.43	0.192362
2790.76	0.602592
2792.09	0.143139
2793.42	-0.0857086
2794.75	0.757645
2796.08	-0.0437107
2797.41	-0.403677
2798.74	-0.179893
2800.07	0.15638
2801.4	-0.778204
2802.72	0.155304
2804.05	-0.224094
2805.38	0.520622
2806.71	-0.516867
2808.04	-0.0474262
2809.36	0.0645046
2810.69	1.02836
2812.02	0.417627
2813.34	0.279617
2814.67	0.0616894
2816	0.543449
2817.32	0.532986
2818.65	0.170305
2819.97	0.261292
2821.3	1.08777
2822.62	-0.114721
2823.95	0.02701
2825.27	0.110781
2826.6	1.1859
2827.92	0.308483
2829.25	1.13208
2830.57	1.07952
2831.89	1.38166
2833.22	0.721067
2834.54	1.67304
2835.86	1.92966
2837.18	2.3824
2838.51	2.6919
2839.83	2.4065
2841.15	2.8285
2842.47	3.64753
2843.79	3.06942
2845.11	5.50416
2846.43	4.77547
2847.76	5.34837
2849.08	6.00627
2850.4	5.80097
2851.72	6.39953
2853.04	6.77
2854.36	6.91283
2855.67	6.80059
2856.99	7.05561
2858.31	6.71751
2859.63	8.11654
2860.95	7.08587
2862.27	7.5085
2863.58	8.24012
2864.9	8.70229
2866.22	8.54342
2867.54	9.44325
2868.85	8.48311
2870.17	9.14612
2871.49	8.78058
2872.8	9.30213
2874.12	10.0181
2875.43	10.6453
2876.75	10.2966
2878.07	10.7331
2879.38	9.43823
2880.7	11.5755
2882.01	11.1707
2883.32	11.4864
2884.64	11.3843
2885.95	11.776
2887.27	12.3643
2888.58	11.4494
2889.89	11.6965
2891.21	12.2487
2892.52	12.8122
2893.83	13.3184
2895.14	11.6131
2896.46	13.2155
2897.77	13.2396
2899.08	13.4355
2900.39	13.4385
2901.7	14.2827
2903.01	14.0646
2904.32	14.8122
2905.63	15.0013
2906.94	14.7729
2908.25	15.0371
2909.56	16.7597
2910.87	16.3301
2912.18	16.6703
2913.49	16.3217
2914.8	16.3881
2916.11	17.1899
2917.42	18.0276
2918.72	17.098
2920.03	18.2243
2921.34	17.9821
2922.65	17.7027
2923.95	19.0919
2925.26	19.493
2926.57	18.7364
2927.88	18.8746
2929.18	19.0535
2930.49	18.9368
2931.79	19.1958
2933.1	19.272
2934.4	19.2922
2935.71	18.1809
2937.01	17.8669
2938.32	18.6157
2939.62	17.7166
2940.93	17.9372
2942.23	16.4281
2943.54	16.6561
2944.84	15.463
2946.14	15.7139
2947.45	14.6521
2948.75	13.6868
2950.05	13.3471
2951.35	12.9594
2952.66	12.2151
2953.96	11.7742
2955.26	11.654
2956.56	11.7186
2957.86	10.9361
2959.16	11.3663
2960.46	10.6435
2961.77	10.1231
2963.07	10.0116
2964.37	10.3616
2965.66	9.35885
2966.96	9.47405
2968.26	8.91014
2969.56	9.63707
2970.86	8.77456
2972.16	8.74268
2973.46	8.90903
2974.76	9.00519
2976.06	8.0857
2977.35	8.23196
2978.65	7.95018
2979.95	7.64858
2981.25	7.4834
2982.54	7.66801
2983.84	6.58818
2985.14	6.46849
2986.43	6.35396
2987.73	6.04774
2989.02	5.75908
2990.32	5.48553
2991.62	4.74667
2992.91	4.59475
2994.21	4.98668
2995.5	3.43625
2996.8	4.00462
2998.09	3.94026
2999.38	3.54012
3000.68	2.60932
3001.97	3.23706
3003.26	2.70284
3004.56	2.37956
3005.85	2.37782
3007.14	1.8702
3008.43	2.10194
3009.73	2.52628
3011.02	1.41056
3012.31	0.923386
3013.6	0.967117
3014.89	0.566072
3016.19	0.167927
3017.48	0.385372
3018.77	-0.494904
3020.06	1.12952
3021.35	1.26357
3022.64	0.783625
3023.93	1.0784
3025.22	0.843288
3026.5	0.344734
3027.79	0.139273
3029.08	-0.158966
3030.37	0.349518
3031.66	0.710478
3032.95	-0.485147
3034.24	0.363777
3035.52	-0.251709
3036.81	0.122103
3038.1	0.352022
3039.39	-0.442947
3040.67	0.160927
3041.96	0.29356
3043.25	0.548996
3044.53	-0.329567
3045.82	0.193972
3047.1	0.108917
3048.39	-0.145746
3049.67	-0.133827
3050.96	0.142717
3052.24	0.640394
3053.53	0.0467663
3054.81	0.0926018
3056.1	0.544338
3057.38	0.406118
3058.67	-0.129555
3059.95	0.573627
3061.23	-0.151611
3062.52	0.405642
3063.8	0.110407
3065.08	0.472948
3066.36	0.0109024
3067.65	0.164108
3068.93	0.509203
3070.21	-0.356691
3071.49	0.869368
3072.77	0.106007
3074.05	0.277172
3075.33	-0.206957
3076.61	-0.121201
3077.89	0.14229
3079.17	-0.567808
3080.45	0.17885
3081.73	0.238792
3083.01	0.194435
3084.29	-0.105257
3085.57	-0.48604
3086.85	0.109142
3088.13	0.376562
3089.41	0.397552
3090.68	0.227219
3091.96	0.409353
3093.24	-0.370964
3094.52	-0.105627
3095.79	0.431879
3097.07	-0.141907
3098.35	-0.308853
3099.62	-0.516581
3100.9	-0.101139
3102.18	-0.186625
3103.45	-0.203308
3104.73	0.512737
3106	0.243109
3107.28	0.450312
3108.55	-0.164513
3109.83	0.117443
3111.1	0.186222
3112.38	0.379633
3113.65	0.452847
3114.93	0.160322
3116.2	0.246075
3117.47	0.302319
3118.75	0.626595
3120.02	0.920473
3121.29	0.235287
3122.57	0.700861
3123.84	0.285126
3125.11	0.033041
3126.38	0.25643
3127.65	1.21231
3128.92	0.992823
3130.2	0.0447693
3131.47	1.19298
3132.74	1.54316
3134.01	1.43292
3135.28	1.11891
3136.55	1.19491
3137.82	1.84925
3139.09	1.72033
3140.36	0.972179
3141.63	1.87985
3142.9	2.2229
3144.17	1.64088
3145.43	1.24978
3146.7	2.13533
3147.97	1.78962
3149.24	1.84813
