200.554	1.04285
202.369	1.06759
204.183	1.09386
205.999	1.26814
207.813	1.10262
209.626	0.620562
211.439	1.86144
213.253	1.13256
215.065	2.27032
216.877	0.836515
218.688	1.48798
220.5	0.155457
222.312	0.568108
224.123	0.547028
225.933	0.744722
227.742	-0.0720062
229.552	0.801611
231.361	0.587523
233.171	0.228579
234.98	0.666555
236.787	0.118597
238.595	0.370388
240.402	0.145018
242.209	0.261499
244.015	-0.873789
245.822	1.07913
247.627	0.495558
249.435	1.1865
251.24	0.929804
253.045	0.281935
254.849	1.34421
256.653	0.813631
258.457	-0.0760841
260.26	0.242689
262.063	-0.374369
263.866	0.192213
265.668	-0.0341358
267.47	0.149845
269.271	0.911934
271.073	0.949516
272.873	-0.292931
274.674	0.197985
276.474	0.131367
278.274	-0.155483
280.073	-0.638416
281.872	0.0308399
283.671	-0.434555
285.47	0.10738
287.268	0.550911
289.065	0.610086
290.863	-0.0957661
292.66	-0.223427
294.456	-0.0369568
296.253	0.199966
298.049	0.0802917
299.844	0.296177
301.637	0.439913
303.432	-0.182013
305.227	-0.089756
307.021	-0.500086
308.815	0.353083
310.609	0.205883
312.402	-0.415138
314.195	0.37221
315.987	0.401054
317.777	-0.233475
319.569	-0.65099
321.36	-0.0894623
323.151	-0.0505295
324.942	0.919943
326.733	0.315939
328.521	0.785879
330.31	0.107624
332.1	0.335316
333.889	0.224955
335.677	0.230152
337.464	-0.726139
339.252	0.0365772
341.039	0.867693
342.826	0.668787
344.611	0.446131
346.398	-0.0141392
348.184	0.362947
349.97	0.239504
351.754	0.593475
353.539	0.850765
355.324	0.270962
357.106	-0.501652
358.89	-0.0606117
360.674	0.330114
362.455	-0.138098
364.239	0.272736
366.021	0.206408
367.804	0.304836
369.584	-0.404724
371.366	0.117184
373.145	-0.00214767
374.926	-0.429079
376.707	0.18368
378.485	0.0416145
380.265	0.231375
382.045	-0.047678
383.822	0.24061
385.601	0.131401
387.378	0.400564
389.156	0.64822
390.934	-0.159203
392.71	-0.00205803
394.487	0.0623035
396.262	-0.577213
398.038	0.73275
399.813	-0.447203
401.588	-0.594576
403.362	0.666107
405.137	0.0698509
406.912	0.176792
408.685	0.634703
410.459	1.23266
412.23	-0.0469685
414.004	-0.339823
415.775	0.119514
417.548	-0.100079
419.318	-0.388952
421.089	0.0266495
422.86	0.113243
424.63	0.480192
426.401	-0.422318
428.17	0.551653
429.94	0.609146
431.708	0.948238
433.478	-0.378378
435.245	-0.530863
437.012	0.560461
438.781	0.852413
440.547	0.390509
442.315	0.440981
444.081	0.0652752
445.846	0.576698
447.613	0.242451
449.378	0.656191
451.142	0.41527
452.908	0.315428
454.672	0.729288
456.435	0.000457764
458.2	1.0656
459.963	-0.104591
461.725	0.77454
463.489	0.21476
465.251	1.00765
467.012	0.249174
468.775	1.05286
470.536	0.581717
472.296	0.250734
474.056	1.24501
475.817	0.60622
477.576	-0.0603867
479.335	0.783632
481.094	0.0884209
482.854	0.488316
484.612	0.424671
486.37	-0.474009
488.127	0.215488
489.886	1.28288
491.642	-0.0271988
493.398	0.647745
495.154	1.27752
496.91	0.36323
498.667	1.06345
500.422	0.591368
502.176	0.304972
503.93	0.979462
505.684	1.08849
507.438	1.00677
509.191	1.13365
510.946	1.11624
512.698	0.930946
514.45	0.55448
516.202	0.740065
517.954	1.32298
519.705	1.36281
521.456	1.00167
523.206	1.25051
524.956	1.2405
526.706	1.04279
528.456	0.915649
530.207	1.25706
531.956	1.38647
533.704	1.04595
535.452	0.843878
537.2	1.22356
538.947	0.992771
540.694	1.92607
542.441	1.36497
544.188	1.03709
545.934	1.43021
547.68	0.940897
549.425	0.824072
551.17	0.684774
552.915	1.47129
554.659	1.19369
556.403	1.26343
558.145	0.918774
559.889	0.667873
561.632	1.70753
563.375	0.331642
565.117	0.843616
566.859	0.644115
568.601	0.125023
570.342	1.37542
572.083	0.0583344
573.824	0.786442
575.565	1.24274
577.303	0.624035
579.043	1.27008
580.782	0.241526
582.521	0.521938
584.26	0.824524
585.998	-0.323616
587.734	0.43457
589.472	0.776573
591.21	0.61064
592.947	0.397692
594.684	1.21979
596.418	1.07566
598.154	0.494331
599.89	-0.0186939
601.626	0.892942
603.361	0.191887
605.094	0.431021
606.828	-0.136766
608.562	0.603483
610.296	0.37875
612.027	0.43049
613.761	-0.0436211
615.493	0.538155
617.224	0.684507
618.956	0.715172
620.688	0.560534
622.419	0.861149
624.149	0.862558
625.879	0.658422
627.61	1.00461
629.338	0.783934
631.068	1.06999
632.797	1.20034
634.525	1.51536
636.254	1.28186
637.98	-0.347679
639.708	0.186172
641.436	0.417412
643.162	0.484184
644.889	0.525723
646.614	1.61426
648.34	-0.136295
650.067	0.529484
651.791	0.339052
653.516	0.928864
655.239	0.183691
656.964	-0.0347729
658.687	0.84218
660.411	0.579109
662.133	0.883379
663.857	0.223705
665.58	0.130322
667.301	0.62788
669.024	0.117922
670.744	-0.024641
672.464	-0.278107
674.186	0.365791
675.905	1.08346
677.626	-0.214312
679.345	-0.297188
681.065	0.0777264
682.783	0.4729
684.503	0.127892
686.22	-0.658669
687.939	-0.41201
689.656	-0.213285
691.372	0.536966
693.09	0.710131
694.806	0.190857
696.523	0.475805
698.239	0.80439
699.953	0.301962
701.67	0.303768
703.384	0.303816
705.098	0.187712
706.813	0.85103
708.526	0.457735
710.239	0.797512
711.954	0.357658
713.666	0.604166
715.378	0.895563
717.091	-0.731441
718.802	0.0625343
720.513	1.31123
722.226	0.873013
723.936	0.594917
725.646	0.953548
727.355	0.788614
729.067	0.214703
730.776	0.819859
732.484	0.675791
734.192	0.418533
735.902	0.794704
737.61	0.403194
739.317	1.07396
741.024	1.22703
742.731	0.59384
744.439	0.931997
746.145	0.192377
747.851	1.23306
749.556	0.723837
751.262	0.307116
752.966	0.432615
754.673	0.943165
756.377	0.916677
758.081	1.00566
759.784	1.21012
761.487	0.515087
763.19	1.10611
764.892	0.97488
766.594	0.163467
768.296	1.405
770	1.69363
771.701	1.39054
773.402	2.28332
775.102	1.56979
776.803	1.42271
778.503	1.50421
780.202	1.45291
781.901	2.21812
783.6	1.58087
785.299	1.89181
786.997	1.65498
788.695	1.11804
790.393	1.38978
792.09	1.76916
793.787	0.835382
795.484	1.32404
797.18	1.00224
798.877	1.53979
800.572	1.08972
802.268	0.935148
803.963	1.25415
805.658	2.11209
807.35	2.22621
809.044	1.66425
810.738	1.14569
812.432	1.52311
814.125	0.66666
815.818	1.02003
817.51	2.53579
819.202	2.08256
820.894	0.670263
822.584	1.1798
824.275	0.753645
825.966	0.84317
827.657	2.18385
829.347	1.79208
831.037	1.45065
832.725	0.82469
834.414	1.82926
836.103	1.23083
837.792	2.01501
839.481	1.21238
841.167	1.38901
842.854	1.31756
844.542	2.00505
846.229	2.06839
847.914	1.17374
849.6	2.09511
851.287	2.59715
852.973	2.29691
854.656	2.80562
856.341	2.41648
858.026	3.05864
859.711	3.38349
861.393	2.26398
863.077	3.03244
864.761	2.87498
866.442	2.19709
868.125	2.10387
869.808	2.68637
871.489	2.74964
873.171	1.84243
874.85	1.54407
876.532	1.4939
878.213	2.45942
879.892	1.61915
881.572	1.00374
883.251	1.40281
884.931	2.0932
886.61	1.02026
888.287	1.84013
889.966	1.68656
891.643	1.03454
893.321	1.43931
894.997	0.918734
896.675	0.734247
898.352	1.15456
900.028	1.03392
901.704	1.62891
903.379	0.789467
905.055	1.27021
906.729	2.17435
908.404	1.45022
910.077	1.79836
911.75	1.74712
913.425	1.07504
915.097	0.538155
916.771	1.13361
918.443	1.46195
920.116	0.638605
921.787	1.7645
923.46	1.67512
925.13	0.992699
926.8	0.689896
928.472	2.77421
930.141	1.63817
931.813	1.78353
933.481	1.88527
935.15	1.0389
936.82	0.722902
938.488	2.0186
940.156	0.758312
941.825	0.911844
943.492	0.250349
945.158	1.70707
946.827	1.6389
948.493	1.36845
950.158	1.57992
951.824	1.59042
953.491	1.13803
955.156	1.37257
956.82	0.818657
958.486	1.70459
960.15	0.676453
961.814	1.0635
963.477	1.09706
965.142	1.43698
966.804	-0.0201702
968.467	0.751783
970.129	0.568504
971.79	1.06944
973.454	0.686621
975.115	0.328819
976.776	0.107111
978.436	1.4145
980.096	1.38507
981.756	1.35478
983.417	1.02292
985.077	0.86437
986.736	1.01175
988.394	0.978645
990.052	1.96037
991.71	1.08345
993.368	0.847771
995.025	0.965763
996.682	0.841198
998.341	1.77503
999.998	1.78184
1001.65	2.25031
1003.31	1.83706
1004.97	0.87402
1006.62	1.64812
1008.28	0.774515
1009.93	0.144171
1011.58	0.721609
1013.24	0.707499
1014.89	-0.116217
1016.54	0.616022
1018.2	1.28287
1019.85	0.332327
1021.5	1.11169
1023.16	0.996616
1024.81	0.490091
1026.46	1.44887
1028.11	1.35866
1029.76	1.59489
1031.41	1.21705
1033.06	1.51307
1034.71	1.91461
1036.36	2.6181
1038.01	2.03365
1039.66	3.06073
1041.31	3.58748
1042.95	3.87733
1044.6	3.97523
1046.25	4.20771
1047.9	4.05342
1049.54	3.55529
1051.19	3.7766
1052.84	3.02211
1054.48	2.46365
1056.13	1.36154
1057.77	2.99753
1059.42	2.13267
1061.06	2.24478
1062.71	2.1596
1064.35	1.33327
1066	1.46161
1067.64	2.08759
1069.28	1.14701
1070.93	0.879133
1072.57	2.08732
1074.21	1.3211
1075.85	1.33838
1077.49	1.46676
1079.13	1.94455
1080.78	1.66485
1082.42	1.0815
1084.06	1.71062
1085.7	1.49085
1087.34	0.877171
1088.97	1.03966
1090.61	1.89084
1092.25	1.18192
1093.89	1.22923
1095.53	1.10429
1097.17	0.485508
1098.8	1.05503
1100.44	1.0676
1102.08	1.32064
1103.71	1.25436
1105.35	0.889557
1106.99	0.977552
1108.62	0.892841
1110.26	0.505005
1111.89	0.565712
1113.52	0.215162
1115.16	0.528181
1116.79	0.410694
1118.43	1.30117
1120.06	0.735123
1121.69	1.02817
1123.32	0.873596
1124.96	1.49129
1126.59	1.57563
1128.22	0.720627
1129.85	1.27846
1131.48	0.746986
1133.11	0.814726
1134.75	0.967686
1136.37	0.905603
1138	0.969692
1139.63	0.326553
1141.26	0.963007
1142.89	1.12847
1144.52	0.910213
1146.15	-0.223099
1147.78	0.26589
1149.4	0.713615
1151.03	0.331352
1152.66	0.353851
1154.28	0.354385
1155.91	0.737259
1157.54	0.523981
1159.16	0.651903
1160.79	-0.0478477
1162.41	-0.0223408
1164.04	-0.0799999
1165.66	0.373547
1167.29	-0.598
1168.91	0.0230503
1170.53	0.576897
1172.16	0.170633
1173.78	-0.556967
1175.4	-0.0977478
1177.02	-0.0428867
1178.65	0.499508
1180.27	0.0476761
1181.89	-0.253765
1183.51	0.334291
1185.13	0.752645
1186.75	1.08412
1188.37	0.16712
1189.99	0.280807
1191.61	0.937973
1193.23	0.602518
1194.85	-0.00646019
1196.47	0.791027
1198.08	0.164579
1199.7	0.0240364
1201.32	0.389675
1202.94	0.676323
1204.55	1.25984
1206.17	-0.406218
1207.79	0.371527
1209.4	1.12869
1211.02	0.632616
1212.63	1.36355
1214.25	0.172451
1215.86	1.33148
1217.48	1.42419
1219.09	0.683609
1220.71	0.587915
1222.32	1.73802
1223.93	1.50039
1225.54	2.40488
1227.16	1.42836
1228.77	1.48975
1230.38	1.55359
1231.99	0.937649
1233.6	1.31633
1235.22	2.13142
1236.83	1.95687
1238.44	1.78429
1240.05	1.38547
1241.66	1.29704
1243.26	1.332
1244.87	2.27592
1246.48	1.95572
1248.09	1.50936
1249.7	2.26164
1251.31	2.0202
1252.92	2.50326
1254.52	2.26383
1256.13	1.90249
1257.74	2.08139
1259.34	2.2213
1260.95	2.21813
1262.55	1.92595
1264.16	1.92359
1265.76	2.33485
1267.37	1.74992
1268.97	2.22022
1270.58	2.54345
1272.18	3.34146
1273.78	2.8311
1275.39	2.83708
1276.99	3.17271
1278.59	2.76073
1280.2	2.5963
1281.8	3.42486
1283.4	3.03242
1285	3.11708
1286.6	2.93481
1288.2	3.33347
1289.8	3.73388
1291.4	3.30868
1293	3.3792
1294.6	4.00586
1296.2	4.50552
1297.8	3.74213
1299.4	3.59494
1301	3.79527
1302.6	3.8897
1304.19	3.75561
1305.79	3.96976
1307.39	4.61364
1308.99	4.33243
1310.58	3.21169
1312.18	3.19957
1313.77	4.31382
1315.37	2.52674
1316.96	3.05157
1318.56	2.80144
1320.15	3.48913
1321.75	3.60344
1323.34	3.0225
1324.94	2.84577
1326.53	3.17419
1328.12	2.44658
1329.72	2.9773
1331.31	3.51004
1332.9	3.11695
1334.49	3.37511
1336.08	3.23264
1337.67	2.28463
1339.27	3.23094
1340.86	3.12521
1342.45	2.53238
1344.04	2.76098
1345.63	2.56539
1347.22	3.21284
1348.8	2.09981
1350.39	3.67531
1351.98	3.0138
1353.57	2.477
1355.16	3.60199
1356.75	2.52907
1358.33	2.87412
1359.92	3.21703
1361.51	3.41773
1363.09	2.65908
1364.68	3.31605
1366.27	2.73754
1367.85	3.57515
1369.44	3.1406
1371.02	3.68436
1372.61	2.40013
1374.19	3.66518
1375.77	2.6831
1377.36	2.39752
1378.94	2.23029
1380.52	3.19517
1382.11	3.16243
1383.69	2.55041
1385.27	2.75185
1386.85	2.85289
1388.43	2.85491
1390.02	3.03692
1391.6	2.66504
1393.18	3.86207
1394.76	3.11564
1396.34	3.95538
1397.92	2.89019
1399.5	3.15128
1401.08	3.70727
1402.65	3.39057
1404.23	3.96443
1405.81	3.9654
1407.39	3.59265
1408.97	4.19008
1410.54	3.54378
1412.12	4.20096
1413.7	4.75769
1415.27	4.42412
1416.85	4.06936
1418.43	4.50257
1420	3.75417
1421.58	4.42645
1423.15	5.77092
1424.73	5.13066
1426.3	5.08365
1427.87	6.13997
1429.45	5.24702
1431.02	5.67075
1432.6	6.56404
1434.17	6.76618
1435.74	7.16388
1437.31	7.40458
1438.89	6.56584
1440.46	7.32165
1442.03	7.17553
1443.6	7.44375
1445.17	6.21915
1446.74	6.41
1448.31	7.46616
1449.88	7.54023
1451.45	6.90756
1453.02	5.94154
1454.59	7.1594
1456.16	7.39387
1457.72	6.8003
1459.29	6.22329
1460.86	6.23273
1462.43	7.24125
1463.99	6.1018
1465.56	5.62928
1467.13	5.49047
1468.69	4.27284
1470.26	4.51044
1471.83	4.06364
1473.39	4.01152
1474.95	4.13748
1476.52	3.59761
1478.08	3.50897
1479.65	2.79294
1481.21	3.44882
1482.78	2.69339
1484.34	2.40813
1485.9	2.86663
1487.47	2.30492
1489.03	2.89598
1490.59	2.26965
1492.15	2.16775
1493.71	2.80396
1495.27	1.95268
1496.84	2.56264
1498.39	2.10048
1499.96	1.71831
1501.52	1.76615
1503.07	1.81614
1504.64	0.898952
1506.19	1.60981
1507.75	0.887104
1509.31	0.415064
1510.87	1.04178
1512.43	1.78099
1513.98	1.74781
1515.54	0.792543
1517.1	1.2997
1518.65	0.369015
1520.21	0.47576
1521.77	1.46273
1523.32	1.28102
1524.88	1.48002
1526.44	1.52406
1527.99	0.861795
1529.54	0.865803
1531.1	1.17358
1532.65	0.988523
1534.21	1.63874
1535.76	2.10022
1537.31	1.03216
1538.87	0.948997
1540.42	1.3569
1541.97	1.51926
1543.52	2.18921
1545.07	0.902225
1546.63	1.88991
1548.18	2.04975
1549.73	1.23459
1551.28	2.33121
1552.83	1.70581
1554.38	2.59716
1555.93	2.33195
1557.48	2.74246
1559.03	2.5407
1560.57	2.5666
1562.12	1.99862
1563.67	2.49605
1565.22	1.65118
1566.77	2.24315
1568.31	2.76016
1569.86	3.08982
1571.41	1.96275
1572.95	1.97374
1574.5	2.82448
1576.05	2.57391
1577.59	2.95843
1579.14	3.39981
1580.68	2.89021
1582.23	3.20372
1583.77	2.45413
1585.31	3.06972
1586.86	2.97624
1588.4	3.10733
1589.95	3.12579
1591.49	3.77981
1593.03	3.4596
1594.57	3.70054
1596.11	3.69814
1597.66	3.73405
1599.2	3.47131
1600.74	4.50409
1602.28	4.46896
1603.82	4.50878
1605.36	5.33622
1606.9	3.92486
1608.44	4.31326
1609.98	3.28737
1611.52	3.53495
1613.06	4.04135
1614.6	3.02445
1616.13	3.41469
1617.67	2.75577
1619.21	3.65477
1620.75	3.26377
1622.28	3.28755
1623.82	3.16307
1625.36	3.74989
1626.89	3.24946
1628.43	3.73824
1629.96	4.42953
1631.5	3.49206
1633.04	3.54483
1634.57	4.06483
1636.11	3.97023
1637.64	3.33671
1639.17	3.80477
1640.71	4.66386
1642.24	4.58949
1643.77	4.19634
1645.31	4.00585
1646.84	4.66914
1648.37	4.27176
1649.9	4.63706
1651.43	4.15033
1652.96	4.00048
1654.5	3.51923
1656.03	4.31835
1657.56	3.24537
1659.09	3.89403
1660.62	3.89157
1662.15	3.90471
1663.67	3.60134
1665.2	3.33431
1666.73	3.16071
1668.26	3.0817
1669.79	3.18995
1671.32	2.89559
1672.84	2.78767
1674.37	3.10414
1675.9	2.31531
1677.43	2.64804
1678.95	2.26101
1680.48	2.40557
1682	2.87926
1683.53	2.01133
1685.05	1.71351
1686.58	1.96684
1688.1	1.92743
1689.63	2.05362
1691.15	1.46605
1692.68	2.45296
1694.2	2.43274
1695.72	1.49812
1697.25	1.36793
1698.77	1.74853
1700.29	1.43437
1701.81	1.44789
1703.33	1.51499
1704.86	1.01645
1706.38	0.918157
1707.9	1.27396
1709.42	1.68348
1710.94	1.1125
1712.46	1.30431
1713.98	0.789531
1715.5	1.47039
1717.02	0.865798
1718.54	1.31011
1720.06	0.67012
1721.57	0.266045
1723.09	1.0354
1724.61	1.12085
1726.13	1.29863
1727.64	0.902662
1729.16	1.67833
1730.68	0.443379
1732.19	0.648121
1733.71	0.898166
1735.23	1.1303
1736.74	1.53759
1738.26	1.27323
1739.77	0.403745
1741.29	0.887819
1742.8	0.824507
1744.31	0.749169
1745.83	0.377991
1747.34	0.626843
1748.85	-0.028779
1750.37	0.848828
1751.88	0.447335
1753.39	0.547832
1754.91	0.350452
1756.42	0.428031
1757.93	0.550944
1759.44	0.776964
1760.95	0.566161
1762.46	0.300981
1763.97	0.220122
1765.48	0.118243
1766.99	0.246089
1768.5	0.538948
1770.01	0.357895
1771.52	0.459429
1773.03	0.529935
1774.54	0.226388
1776.04	0.314311
1777.55	0.312668
1779.06	0.566802
1780.57	-0.000254631
1782.07	0.483337
1783.58	0.138776
1785.09	-0.203264
1786.59	0.278408
1788.1	0.686456
1789.6	0.1742
1791.11	0.14611
1792.61	0.264806
1794.12	0.107701
1795.62	0.143498
1797.13	0.438141
1798.63	0.504792
1800.13	0.371854
1801.64	0.304359
1803.14	0.245667
1804.64	-0.0494223
1806.15	0.205936
1807.65	0.281683
1809.15	-0.00768089
1810.65	-0.0762329
1812.15	-0.493142
1813.65	0.140035
1815.16	-0.0332718
1816.66	0.0295782
1818.15	-0.193557
1819.66	0.106683
1821.16	0.0284662
1822.65	0.0493822
1824.15	0.484195
1825.65	0.126623
1827.15	0.50321
1828.65	0.242088
1830.15	0.0295801
1831.64	0.0909147
1833.14	0.100346
1834.64	0.0678682
1836.14	0.0722513
1837.63	-0.120302
1839.13	0.198507
1840.62	-0.229679
1842.12	-0.0602541
1843.62	0.410015
1845.11	0.359158
1846.61	0.129446
1848.1	0.449574
1849.6	0.642948
1851.09	0.174882
1852.58	-0.144412
1854.08	0.00995636
1855.57	-0.113416
1857.06	0.0545559
1858.55	0.168538
1860.05	-0.173787
1861.54	-0.332911
1863.03	-0.147765
1864.52	0.272635
1866.01	0.236705
1867.5	0.314994
1869	0.306786
1870.49	-0.0066452
1871.98	0.345762
1873.47	0.530122
1874.96	0.0171499
1876.44	0.571127
1877.93	0.671144
1879.42	0.589106
1880.91	0.239044
1882.4	0.302329
1882.47	0.306774
1883.96	-0.147293
1885.46	0.722128
1886.95	0.265594
1888.44	-0.365398
1889.94	0.657382
1891.43	0.532912
1892.93	0.376303
1894.42	-0.212004
1895.91	0.00188255
1897.4	0.825884
1898.89	-0.211173
1900.39	0.0546904
1901.88	0.665954
1903.37	-0.0302105
1904.86	0.679888
1906.35	0.206493
1907.84	0.237089
1909.33	0.181784
1910.82	0.0759192
1912.31	0.318473
1913.8	0.145582
1915.29	0.0943031
1916.77	0.475951
1918.26	0.145924
1919.75	0.0232792
1921.24	-0.0994711
1922.73	0.678872
1924.21	0.315598
1925.7	0.335057
1927.19	0.165781
1928.67	0.395748
1930.16	0.556484
1931.64	0.179156
1933.13	-0.373541
1934.61	0.265703
1936.1	-0.17092
1937.58	0.878053
1939.07	0.680774
1940.55	-0.292866
1942.04	0.668813
1943.52	0.268456
1945	-0.0612259
1946.49	-0.0280695
1947.97	-0.012495
1949.45	0.38092
1950.93	0.238633
1952.42	-0.283536
1953.9	-0.0837164
1955.38	0.0641069
1956.86	-0.337225
1958.34	0.53301
1959.82	-0.4492
1961.3	0.0449839
1962.78	-0.0436878
1964.26	0.587032
1965.74	0.343011
1967.22	1.00527
1968.7	0.074893
1970.18	0.29003
1971.65	0.675246
1973.13	0.428247
1974.61	0.11352
1976.09	0.583539
1977.57	0.0652895
1979.04	0.705346
1980.52	-0.0163136
1982	0.214652
1983.47	0.410863
1984.95	0.0970268
1986.42	0.359924
1987.9	-0.428371
1989.37	0.732467
1990.85	-0.0703707
1992.32	0.0256252
1993.8	0.461185
1995.27	0.25552
1996.75	0.489944
1998.22	-0.356677
1999.69	0.180999
2001.17	0.531669
2002.64	-0.198257
2004.11	0.168085
2005.58	0.13015
2007.05	-0.310875
2008.53	-0.312379
2010	0.0241337
2011.47	0.0415354
2012.94	-0.344914
2014.41	0.0927343
2015.88	0.495369
2017.35	0.0217619
2018.82	-0.0492907
2020.29	0.0636864
2021.76	-0.0252275
2023.23	0.423553
2024.7	-0.234242
2026.16	0.468872
2027.63	0.469545
2029.1	0.439037
2030.57	0.125454
2032.03	0.618727
2033.5	0.408077
2034.97	0.180479
2036.44	0.170539
2037.9	0.142961
2039.37	0.484496
2040.83	0.422611
2042.3	-0.0927124
2043.76	0.0992079
2045.23	0.578726
2046.69	0.55483
2048.16	0.295596
2049.62	0.322137
2051.08	0.127965
2052.55	0.757673
2054.01	0.102889
2055.47	0.356058
2056.94	0.0674887
2058.4	0.519294
2059.86	0.684086
2061.32	0.866205
2062.79	0.207866
2064.25	0.47702
2065.71	0.781357
2067.17	0.447541
2068.63	0.905687
2070.09	0.674313
2071.55	0.81336
2073.01	0.733344
2074.47	0.417139
2075.93	0.79081
2077.39	0.894472
2078.85	0.862776
2080.31	0.22416
2081.76	0.174096
2083.22	-0.0957937
2084.68	0.25596
2086.13	0.152157
2087.59	0.400575
2089.05	1.00103
2090.51	0.223142
2091.96	0.503632
2093.42	0.297081
2094.87	0.878577
2096.33	1.08989
2097.78	1.23286
2099.24	0.905952
2100.69	0.762959
2102.15	0.470108
2103.6	0.913682
2105.06	0.674497
2106.51	0.320956
2107.96	0.0860691
2109.42	0.852361
2110.87	1.28405
2112.32	0.96347
2113.77	1.12343
2115.23	1.04757
2116.68	1.15321
2118.13	1.15945
2119.58	1.05159
2121.03	1.52758
2122.48	1.22691
2123.93	1.49258
2125.38	1.52719
2126.83	1.9096
2128.28	1.22937
2129.73	2.03864
2131.18	1.6691
2132.63	1.77862
2134.08	2.21877
2135.53	1.68418
2136.97	1.21856
2138.42	1.83031
2139.87	1.76753
2141.32	1.83971
2142.76	2.19503
2144.21	2.23745
2145.66	2.28018
2147.1	2.45492
2148.55	2.47966
2150	1.8403
2151.44	2.35888
2152.89	2.27937
2154.33	2.72866
2155.78	2.41498
2157.22	2.68124
2158.66	2.86582
2160.11	2.04213
2161.55	2.44723
2163	2.82261
2164.44	2.60382
2165.88	3.03372
2167.32	2.6833
2168.77	2.84605
2170.21	2.95605
2171.65	2.79632
2173.09	2.78292
2174.53	2.50097
2175.97	2.81677
2177.41	2.5508
2178.85	3.26706
2180.29	2.48866
2181.73	2.72595
2183.17	2.39891
2184.61	3.33633
2186.05	2.87685
2187.49	2.66681
2188.93	3.07254
2190.37	2.746
2191.81	2.26906
2193.24	1.92402
2194.68	2.27611
2196.12	2.45865
2197.56	1.889
2198.99	2.51431
2200.43	2.30619
2201.87	2.14787
2203.3	2.18991
2204.74	2.21714
2206.17	1.96433
2207.61	1.91147
2209.04	1.97432
2210.48	2.56551
2211.91	1.74833
2213.35	1.7905
2214.78	1.74978
2216.21	0.769156
2217.65	1.65569
2219.08	1.58693
2220.51	1.17345
2221.95	1.07362
2223.38	1.21992
2224.81	1.13341
2226.24	1.19241
2227.67	1.13358
2229.1	1.15491
2230.54	1.6999
2231.97	1.30921
2233.4	0.72339
2234.83	0.61418
2236.26	0.899055
2237.69	0.843103
2239.11	0.431196
2240.54	1.0177
2241.97	1.24802
2243.4	0.942131
2244.83	1.22405
2246.26	0.510014
2247.69	1.08212
2249.11	0.444172
2250.54	0.601769
2251.97	0.430847
2253.4	0.0474758
2254.82	0.0226316
2256.25	0.64931
2257.67	1.18143
2259.1	0.663218
2260.53	0.620124
2261.95	0.467201
2263.38	0.137992
2264.8	0.133945
2266.23	0.0318403
2267.65	0.237562
2269.07	0.6211
2270.5	0.889689
2271.92	0.294624
2273.34	0.725036
2274.77	1.00916
2276.19	0.64198
2277.61	0.568268
2279.03	0.510935
2280.46	0.0621338
2281.88	0.510019
2283.3	0.876408
2284.72	0.60661
2286.14	-0.299581
2287.56	0.198434
2288.98	0.5831
2290.4	0.478507
2291.82	0.259835
2293.24	-0.204142
2294.66	-0.0468159
2296.08	0.0450602
2297.5	0.333435
2298.92	-0.22975
2300.34	0.108271
2301.76	0.0371056
2303.17	0.278
2304.59	-0.744513
2306.01	0.218996
2307.43	0.0163736
2308.84	0.388096
2310.26	0.282345
2311.68	0.159456
2313.09	-0.111669
2314.51	-0.645747
2315.92	0.203975
2317.34	0.166029
2318.75	-0.266874
2320.17	0.206575
2321.58	0.20037
2323	0.290392
2324.41	-0.332712
2325.82	-0.150469
2327.24	0.227014
2328.65	0.734733
2330.06	0.286771
2331.48	0.136932
2332.89	-0.471943
2334.3	-0.700755
2335.71	0.00861454
2337.12	-0.0395069
2338.54	-0.121894
2339.95	-0.255188
2341.36	0.0536604
2342.77	0.180804
2344.18	0.30771
2345.59	-0.089612
2347	-0.551518
2348.41	-0.325277
2349.82	0.309119
2351.23	0.581849
2352.64	0.0849876
2354.04	-0.0697393
2355.45	0.117111
2356.86	-0.266858
2358.27	-0.194636
2359.68	0.39755
2361.08	0.112172
2362.49	-0.140185
2363.9	-0.473139
2365.3	0.47268
2366.71	0.285435
2368.12	0.0671749
2369.52	-0.262063
2370.93	0.265501
2372.33	-0.0111113
2373.74	0.342115
2375.14	0.309356
2376.55	-0.158311
2377.95	-0.0803185
2379.36	0.236332
2380.76	0.309131
2382.16	-0.0693874
2383.57	0.480524
2384.97	0.596786
2386.37	0.433764
2387.78	0.27247
2389.18	-0.293282
2390.58	-0.330439
2391.98	0.22324
2393.38	0.284517
2394.79	-0.161927
2396.19	-0.145888
2397.59	-0.017664
2398.99	0.254359
2400.39	0.0345526
2401.79	0.0535622
2403.19	-0.689654
2404.59	0.519914
2405.99	0.298982
2407.39	0.26719
2408.78	0.0914803
2410.18	-0.3065
2411.58	0.00916672
2412.98	0.294051
2414.38	0.153173
2415.77	-0.191239
2417.17	-0.0903845
2418.57	0.296885
2419.97	-0.122814
2421.36	0.31254
2422.76	0.0662966
2424.15	0.675151
2425.55	-0.126097
2426.95	-0.150242
2428.34	0.286593
2429.74	0.518984
2431.13	0.181469
2432.52	-0.251368
2433.92	0.188167
2435.31	-0.0885048
2436.71	0.0774078
2438.1	0.399933
2439.49	-0.0897331
2440.89	0.292871
2442.28	0.182269
2443.67	-0.404737
2445.06	0.261531
2446.46	-0.071846
2447.85	0.244617
2449.24	0.354841
2450.63	0.0536251
2452.02	0.196598
2453.41	0.43557
2454.8	0.0271082
2456.19	0.0785494
2457.58	-0.170057
2458.97	0.340369
2460.36	-0.051589
2461.75	-0.20741
2463.14	0.69466
2464.53	0.220612
2465.92	0.346592
2467.31	0.0460968
2468.69	0.045577
2470.08	0.0132236
2471.47	-0.224673
2472.86	0.749721
2474.24	-0.214664
2475.63	0.410167
2477.02	-0.129685
2478.4	0.116486
2479.79	0.174183
2481.17	0.341804
2482.56	0.133047
2483.94	0.127466
2485.33	0.120592
2486.72	1.09634
2488.1	0.601254
2489.48	0.916626
2490.87	0.608322
2492.25	-0.211432
2493.64	0.0592175
2495.02	0.0520477
2496.4	-0.0772409
2497.79	-0.297985
2499.17	0.0392323
2500.55	0.0661659
2501.93	0.184648
2503.31	0.038969
2504.69	0.031064
2506.08	0.130089
2507.46	0.367024
2508.84	0.480599
2510.22	0.272046
2511.6	-0.364728
2512.98	0.380413
2514.36	-0.130383
2515.74	0.00371456
2517.12	0.0775938
2518.5	0.0146065
2519.88	-0.200852
2521.25	-0.00408077
2522.63	-0.388497
2524.01	-0.33127
2525.39	-0.640948
2526.77	0.267715
2528.14	0.232078
2529.52	0.0916414
2530.9	0.0448694
2532.27	-0.151338
2533.65	0.323019
2535.03	0.175532
2536.4	-0.397361
2537.78	-0.014081
2539.15	-0.0120001
2540.53	0.0192108
2541.9	0.277491
2543.28	0.156647
2544.65	-0.251122
2546.03	0.253045
2547.4	0.0612679
2548.77	0.46239
2550.15	0.165813
2551.52	0.399625
2552.89	0.23751
2554.27	0.180068
2555.64	0.62195
2557.01	0.274015
2558.38	-0.240758
2559.75	-0.118199
2561.12	0.202089
2562.5	0.386833
2563.87	0.0420427
2565.24	0.0767498
2566.61	0.202756
2567.98	0.0864105
2569.35	0.0155392
2570.72	0.111361
2572.09	0.131456
2573.46	-0.16667
2574.83	-0.00991726
2576.19	-0.414056
2577.56	0.0913639
2578.93	0.414554
2580.3	0.0397301
2581.67	0.104015
2583.04	0.137403
2584.4	0.412969
2585.77	0.476158
2587.14	0.73653
2588.5	-0.078907
2589.87	0.0606756
2591.23	-0.118165
2592.6	-0.0249043
2593.97	0.233788
2595.33	0.475666
2596.7	0.322215
2598.06	0.28872
2599.43	0.300011
2600.79	0.281182
2602.15	0.489631
2603.52	0.306394
2604.88	0.757932
2606.25	0.379807
2607.61	-0.254848
2608.97	-0.151635
2610.33	-0.0954695
2611.7	0.289798
2613.06	0.522261
2614.42	-0.148232
2615.78	-0.1125
2617.15	-0.18149
2618.51	0.499342
2619.87	0.132642
2621.23	-0.172584
2622.59	0.210745
2623.95	0.295251
2625.31	0.752634
2626.67	0.448471
2628.03	0.367743
2629.39	0.46534
2630.75	-0.0178165
2632.1	0.376736
2633.46	0.428913
2634.82	0.302838
2636.18	0.636647
2637.54	0.451231
2638.89	0.295784
2640.25	0.185171
2641.61	0.503828
2642.97	0.33491
2644.32	0.0779028
2645.68	0.307981
2647.03	0.625585
2648.39	0.764867
2649.75	0.520003
2651.1	0.539158
2652.46	0.23465
2653.81	0.561913
2655.17	0.303317
2656.52	0.295767
2657.88	0.33385
2659.23	0.607304
2660.58	0.281628
2661.94	0.701412
2663.29	0.696257
2664.64	0.587665
2666	0.478043
2667.35	0.805035
2668.7	-0.164693
2670.05	0.453476
2671.4	0.184551
2672.76	0.0476856
2674.11	0.27494
2675.46	0.314103
2676.81	0.02036
2678.16	0.336931
2679.51	0.176029
2680.86	0.161679
2682.21	0.453537
2683.56	0.0366936
2684.91	0.911988
2686.26	0.961532
2687.61	0.198102
2688.96	0.231004
2690.3	0.27593
2691.65	0.521305
2693	0.111296
2694.35	0.686217
2695.7	0.318147
2697.04	0.371398
2698.39	0.151342
2699.74	0.484043
2701.08	0.631111
2702.43	0.983308
2703.77	0.685335
2705.12	0.880825
2706.47	0.946041
2707.81	0.590093
2709.16	0.726772
2710.5	0.587032
2711.85	0.955181
2713.19	0.887396
2714.53	0.543264
2715.88	0.620476
2717.22	0.857489
2718.57	0.381378
2719.91	0.675681
2721.25	0.85296
2722.59	1.10229
2723.94	1.04522
2725.28	0.783659
2726.62	0.899931
2727.96	0.666381
2729.3	0.825389
2730.65	0.998661
2731.99	0.749902
2733.33	0.443118
2734.67	0.805738
2736.01	0.746799
2737.35	0.891681
2738.69	0.716553
2740.03	0.744658
2741.37	0.888338
2742.71	0.638452
2744.05	0.445731
2745.38	0.557245
2746.72	0.33399
2748.06	0.720248
2749.4	0.859555
2750.74	0.607435
2752.07	0.312391
2753.41	0.1918
2754.75	0.433731
2756.09	0.183248
2757.42	0.106883
2758.76	0.0743332
2760.09	0.418642
2761.43	0.242581
2762.77	0.226426
2764.1	-0.0207624
2765.44	0.209515
2766.77	0.410163
2768.11	0.276692
2769.44	0.459473
2770.77	0.365287
2772.11	-0.23632
2773.44	0.0272245
2774.77	-0.229546
2776.11	0.493499
2777.44	0.021286
2778.77	0.312802
2780.11	0.0585737
2781.44	-0.209203
2782.77	0.355882
2784.1	0.317759
2785.43	0.0646324
2786.77	-0.187931
2788.1	-0.0386829
2789.43	-0.188951
2790.76	-0.323495
2792.09	-0.256663
2793.42	0.225364
2794.75	0.0498104
2796.08	0.431096
2797.41	0.125691
2798.74	0.762016
2800.07	0.0555363
2801.4	0.433449
2802.72	-0.073329
2804.05	0.20381
2805.38	0.836051
2806.71	0.59831
2808.04	0.544795
2809.36	0.405392
2810.69	0.607023
2812.02	0.482836
2813.34	0.658345
2814.67	0.835915
2816	0.491178
2817.32	0.247489
2818.65	0.344885
2819.97	0.442316
2821.3	0.879216
2822.62	0.691455
2823.95	0.757786
2825.27	0.681866
2826.6	0.818432
2827.92	0.828286
2829.25	1.27787
2830.57	1.65733
2831.89	1.3152
2833.22	1.49673
2834.54	1.67773
2835.86	1.27767
2837.18	2.09371
2838.51	2.85206
2839.83	3.04394
2841.15	3.64589
2842.47	4.64405
2843.79	4.4983
2845.11	5.0888
2846.43	5.32716
2847.76	5.35426
2849.08	6.24359
2850.4	5.80379
2851.72	6.59268
2853.04	6.8434
2854.36	7.37587
2855.67	7.24374
2856.99	6.78667
2858.31	7.36093
2859.63	7.68079
2860.95	7.35067
2862.27	7.47177
2863.58	7.26746
2864.9	7.44367
2866.22	8.24039
2867.54	8.5154
2868.85	8.74887
2870.17	8.58838
2871.49	9.119
2872.8	9.38113
2874.12	9.90935
2875.43	10.5195
2876.75	10.7467
2878.07	11.2251
2879.38	11.9835
2880.7	10.9286
2882.01	11.5202
2883.32	11.1446
2884.64	11.5999
2885.95	11.1298
2887.27	11.6987
2888.58	11.7051
2889.89	11.836
2891.21	11.9229
2892.52	12.1204
2893.83	11.967
2895.14	11.7166
2896.46	12.056
2897.77	12.2156
2899.08	12.5734
2900.39	13.0587
2901.7	13.5311
2903.01	13.5564
2904.32	14.0995
2905.63	14.2516
2906.94	14.7546
2908.25	15.0218
2909.56	14.9413
2910.87	15.0581
2912.18	15.077
2913.49	15.7662
2914.8	15.8782
2916.11	16.3641
2917.42	16.3982
2918.72	16.8915
2920.03	16.6987
2921.34	16.7033
2922.65	17.0883
2923.95	17.1689
2925.26	17.9652
2926.57	18.0361
2927.88	18.317
2929.18	19.2261
2930.49	19.7005
2931.79	18.3563
2933.1	18.689
2934.4	18.4205
2935.71	19.0468
2937.01	18.3738
2938.32	18.3302
2939.62	17.4348
2940.93	17.1415
2942.23	16.8502
2943.54	16.7573
2944.84	15.5212
2946.14	15.0982
2947.45	14.5503
2948.75	13.9036
2950.05	13.9401
2951.35	13.5247
2952.66	12.265
2953.96	12.0386
2955.26	12.4693
2956.56	11.1941
2957.86	10.9168
2959.16	10.6447
2960.46	10.7282
2961.77	11.4467
2963.07	10.8915
2964.37	10.0115
2965.66	9.53508
2966.96	9.5328
2968.26	9.48573
2969.56	9.31056
2970.86	8.91001
2972.16	9.00225
2973.46	9.19377
2974.76	8.93501
2976.06	8.39338
2977.35	8.07449
2978.65	8.00578
2979.95	8.20121
2981.25	7.46517
2982.54	7.15056
2983.84	6.61187
2985.14	6.32856
2986.43	6.69462
2987.73	6.47326
2989.02	5.43881
2990.32	5.97885
2991.62	5.59055
2992.91	4.87716
2994.21	4.90644
2995.5	4.54037
2996.8	3.97672
2998.09	4.45167
2999.38	3.73433
3000.68	3.42519
3001.97	3.41168
3003.26	2.93657
3004.56	3.07837
3005.85	3.03765
3007.14	2.17009
3008.43	2.07154
3009.73	1.58019
3011.02	2.19218
3012.31	1.23887
3013.6	1.73795
3014.89	1.67937
3016.19	1.31559
3017.48	1.232
3018.77	0.718071
3020.06	1.095
3021.35	1.08174
3022.64	0.567253
3023.93	0.44072
3025.22	0.604465
3026.5	0.0473747
3027.79	0.253159
3029.08	0.446484
3030.37	0.572802
3031.66	0.300864
3032.95	0.320807
3034.24	0.0239477
3035.52	0.581988
3036.81	0.172505
3038.1	0.312103
3039.39	0.600074
3040.67	0.129066
3041.96	0.371731
3043.25	0.504032
3044.53	-0.0744495
3045.82	0.526855
3047.1	-0.0581007
3048.39	0.672055
3049.67	0.272182
3050.96	0.134355
3052.24	0.24356
3053.53	0.13465
3054.81	0.420609
3056.1	0.51405
3057.38	0.483195
3058.67	0.424026
3059.95	0.500764
3061.23	0.237866
3062.52	0.711287
3063.8	0.411547
3065.08	0.60383
3066.36	0.254605
3067.65	0.0837803
3068.93	0.117643
3070.21	0.314527
3071.49	0.319934
3072.77	0.405276
3074.05	0.20338
3075.33	0.217773
3076.61	0.924365
3077.89	0.219344
3079.17	0.466454
3080.45	-0.206585
3081.73	-0.225897
3083.01	-0.148267
3084.29	0.174842
3085.57	0.32195
3086.85	-0.0878735
3088.13	-0.118532
3089.41	-0.217879
3090.68	0.279379
3091.96	-0.268235
3093.24	0.0664272
3094.52	-0.249346
3095.79	0.479616
3097.07	-0.02495
3098.35	-0.339458
3099.62	0.159204
3100.9	-0.155095
3102.18	0.57383
3103.45	-0.240444
3104.73	0.0159302
3106	0.287004
3107.28	-0.79368
3108.55	-0.0728073
3109.83	0.501089
3111.1	-0.101023
3112.38	0.273033
3113.65	0.377234
3114.93	0.156395
3116.2	0.653679
3117.47	0.0651264
3118.75	0.35673
3120.02	0.00957394
3121.29	0.52917
3122.57	0.49213
3123.84	0.306054
3125.11	-0.123061
3126.38	0.531777
3127.65	0.646056
3128.92	0.396122
3130.2	0.579817
3131.47	0.601604
3132.74	0.407306
3134.01	0.726174
3135.28	0.517787
3136.55	0.659846
3137.82	0.855227
3139.09	0.79411
3140.36	0.746587
3141.63	1.50639
3142.9	0.693575
3144.17	0.930321
3145.43	0.617834
3146.7	0.883592
3147.97	0.895733
3149.24	0.788488
