200.554	0.819069
202.369	0.850452
204.183	0.882538
205.999	0.575626
207.813	1.36327
209.626	0.181061
211.439	0.795465
213.253	0.217791
215.065	-0.724659
216.877	0.41769
218.688	-0.0399475
220.5	0.520477
222.312	-0.684052
224.123	0.289801
225.933	-0.331367
227.742	0.545694
229.552	0.0209141
231.361	0.171482
233.171	0.0802345
234.98	-0.444422
236.787	-0.243639
238.595	0.369947
240.402	-0.338356
242.209	0.596025
244.015	0.182184
245.822	0.829678
247.627	-0.190838
249.435	0.0155449
251.24	0.0721817
253.045	0.172829
254.849	0.391331
256.653	0.633123
258.457	-0.184313
260.26	-0.0831699
262.063	0.91214
263.866	0.344126
265.668	0.18717
267.47	-0.403221
269.271	0.37962
271.073	-0.285168
272.873	0.301868
274.674	-0.487587
276.474	0.408003
278.274	0.432693
280.073	0.550493
281.872	-0.00901031
283.671	0.343246
285.47	-0.292366
287.268	-0.183908
289.065	0.0442104
290.863	-0.229973
292.66	0.31204
294.456	0.329481
296.253	-0.176804
298.049	0.035881
299.844	0.703072
301.637	0.461853
303.432	0.195555
305.227	0.357065
307.021	0.493097
308.815	-0.53937
310.609	0.0739994
312.402	-1.04991
314.195	0.210327
315.987	0.425453
317.777	0.0241585
319.569	0.53031
321.36	0.204439
323.151	1.00027
324.942	0.652281
326.733	1.1636
328.521	0.695498
330.31	1.49281
332.1	0.590744
333.889	0.785785
335.677	0.570644
337.464	0.662883
339.252	0.392932
341.039	1.07726
342.826	1.25776
344.611	0.577877
346.398	0.305386
348.184	1.03699
349.97	0.670902
351.754	0.830019
353.539	1.2506
355.324	0.047122
357.106	0.273067
358.89	1.09242
360.674	0.765828
362.455	0.390603
364.239	0.656707
366.021	0.707391
367.804	0.899095
369.584	0.567373
371.366	-0.167691
373.145	0.753797
374.926	0.514689
376.707	1.19678
378.485	1.02943
380.265	0.699019
382.045	0.677051
383.822	0.539568
385.601	0.498329
387.378	0.553027
389.156	0.421535
390.934	0.127232
392.71	1.26677
394.487	-0.129047
396.262	0.589257
398.038	-1.06434
399.813	-0.134802
401.588	0.582733
403.362	0.547617
405.137	-0.00535965
406.912	0.920012
408.685	0.881495
410.459	0.373034
412.23	0.240328
414.004	0.342994
415.775	0.470211
417.548	0.551784
419.318	0.775161
421.089	-0.0102711
422.86	-0.0686407
424.63	0.623103
426.401	0.233529
428.17	0.0304642
429.94	0.131859
431.708	0.327085
433.478	0.475863
435.245	-0.524834
437.012	0.328491
438.781	0.992907
440.547	0.622307
442.315	0.0844908
444.081	0.3643
445.846	0.500295
447.613	0.891625
449.378	0.790523
451.142	0.409436
452.908	0.426331
454.672	0.770086
456.435	0.181027
458.2	0.524158
459.963	0.913434
461.725	0.140654
463.489	1.09113
465.251	0.25573
467.012	-0.110312
468.775	0.0157099
470.536	0.377192
472.296	0.0883856
474.056	0.286991
475.817	0.972126
477.576	0.0700493
479.335	-0.136112
481.094	-0.0176029
482.854	0.334083
484.612	0.757516
486.37	0.764855
488.127	1.10195
489.886	0.603094
491.642	0.525338
493.398	0.191444
495.154	1.21375
496.91	0.973691
498.667	0.193811
500.422	1.05345
502.176	0.880746
503.93	0.447949
505.684	0.952909
507.438	0.2804
509.191	1.0164
510.946	0.432552
512.698	0.57553
514.45	0.833789
516.202	1.25445
517.954	1.06148
519.705	1.12561
521.456	0.695079
523.206	0.851303
524.956	0.514172
526.706	0.81074
528.456	0.333333
530.207	1.21539
531.956	0.175327
533.704	0.843867
535.452	1.20553
537.2	1.07358
538.947	0.542728
540.694	0.267662
542.441	0.877056
544.188	0.577166
545.934	-0.163472
547.68	1.07053
549.425	0.748994
551.17	1.10004
552.915	1.14994
554.659	0.530042
556.403	0.465829
558.145	1.00193
559.889	0.0403852
561.632	0.761755
563.375	0.861896
565.117	0.71004
566.859	0.812122
568.601	0.594024
570.342	-0.379394
572.083	0.00350857
573.824	-0.551657
575.565	0.570542
577.303	0.433727
579.043	0.941712
580.782	0.463768
582.521	0.582966
584.26	0.44851
585.998	-0.0786638
587.734	0.266092
589.472	0.655118
591.21	-0.10765
592.947	-0.134953
594.684	0.550757
596.418	0.132217
598.154	-0.194334
599.89	0.375797
601.626	0.622471
603.361	-0.0298796
605.094	0.557334
606.828	0.039073
608.562	0.714268
610.296	0.768862
612.027	0.159061
613.761	1.4082
615.493	0.411459
617.224	0.515404
618.956	0.549716
620.688	-0.195973
622.419	-0.416567
624.149	-0.249497
625.879	-0.151137
627.61	0.291242
629.338	-0.42749
631.068	-0.16115
632.797	0.541866
634.525	0.425054
636.254	-0.148929
637.98	-0.0636806
639.708	0.838909
641.436	0.800825
643.162	0.599417
644.889	0.829013
646.614	0.55842
648.34	0.995992
650.067	0.324952
651.791	0.932684
653.516	0.251325
655.239	-0.562158
656.964	-0.280694
658.687	0.504211
660.411	0.788033
662.133	0.247597
663.857	0.251246
665.58	-0.160378
667.301	0.0652056
669.024	0.312681
670.744	0.721702
672.464	0.493292
674.186	0.0165434
675.905	0.207012
677.626	-0.586922
679.345	-0.141988
681.065	-0.157494
682.783	0.905622
684.503	0.700627
686.22	0.561398
687.939	0.649981
689.656	0.483548
691.372	0.615434
693.09	0.608125
694.806	-0.275564
696.523	0.451442
698.239	-0.158903
699.953	0.448869
701.67	0.45633
703.384	0.0946379
705.098	1.13331
706.813	0.632063
708.526	0.268551
710.239	1.05064
711.954	-0.0463305
713.666	0.84803
715.378	0.620799
717.091	0.736358
718.802	0.783466
720.513	0.671249
722.226	0.582232
723.936	0.470726
725.646	0.45016
727.355	0.429191
729.067	0.611822
730.776	0.634773
732.484	0.906231
734.192	0.76964
735.902	0.497814
737.61	0.0690832
739.317	-0.0194292
741.024	0.953086
742.731	0.146569
744.439	0.783885
746.145	0.342634
747.851	0.488716
749.556	0.681746
751.262	0.224466
752.966	0.421428
754.673	0.530542
756.377	1.02458
758.081	0.62075
759.784	0.534104
761.487	0.85486
763.19	0.770713
764.892	0.934388
766.594	0.938377
768.296	1.4143
770	0.598316
771.701	0.615776
773.402	1.40004
775.102	1.48262
776.803	1.04608
778.503	1.83257
780.202	1.08376
781.901	1.69366
783.6	0.923592
785.299	0.513549
786.997	1.11862
788.695	1.42456
790.393	0.843154
792.09	1.27557
793.787	1.07268
795.484	0.554058
797.18	1.25477
798.877	1.07862
800.572	1.35556
802.268	0.936958
803.963	1.30678
805.658	2.19307
807.35	1.95383
809.044	1.30879
810.738	1.04429
812.432	1.20485
814.125	1.49875
815.818	1.7918
817.51	1.70409
819.202	2.35413
820.894	2.02089
822.584	2.33588
824.275	1.40316
825.966	1.76626
827.657	1.86509
829.347	1.21103
831.037	1.38567
832.725	1.49785
834.414	1.70248
836.103	1.19507
837.792	1.46786
839.481	1.67214
841.167	1.47209
842.854	1.53804
844.542	0.999988
846.229	2.11685
847.914	1.44843
849.6	1.25298
851.287	1.62086
852.973	2.1941
854.656	1.44599
856.341	1.19018
858.026	0.752254
859.711	2.04382
861.393	1.9608
863.077	2.2356
864.761	2.37336
866.442	1.06694
868.125	1.96869
869.808	1.94542
871.489	2.10211
873.171	0.340878
874.85	1.62518
876.532	1.42044
878.213	1.71222
879.892	1.16871
881.572	1.34692
883.251	0.891903
884.931	0.683559
886.61	1.12769
888.287	0.914907
889.966	1.21856
891.643	0.640709
893.321	0.399467
894.997	1.73189
896.675	1.84637
898.352	0.656639
900.028	1.59893
901.704	0.812747
903.379	0.922692
905.055	0.741567
906.729	1.52103
908.404	0.739138
910.077	1.38554
911.75	1.87626
913.425	1.03369
915.097	1.03697
916.771	1.41739
918.443	1.08788
920.116	1.29053
921.787	0.608933
923.46	0.792224
925.13	0.778971
926.8	0.945162
928.472	0.606141
930.141	1.48281
931.813	1.01434
933.481	0.92145
935.15	0.784754
936.82	0.384109
938.488	0.580302
940.156	0.646015
941.825	0.713577
943.492	0.892568
945.158	1.64523
946.827	0.762792
948.493	1.2681
950.158	0.49035
951.824	0.880515
953.491	0.675152
955.156	1.13387
956.82	1.02353
958.486	-0.18485
960.15	0.596185
961.814	0.607369
963.477	0.596171
965.142	0.715049
966.804	0.542296
968.467	0.498048
970.129	0.229485
971.79	0.844551
973.454	0.885198
975.115	-0.442929
976.776	0.752713
978.436	0.11493
980.096	0.407131
981.756	0.698852
983.417	1.71914
985.077	1.60737
986.736	1.4923
988.394	1.19748
990.052	1.05579
991.71	1.28897
993.368	0.461509
995.025	0.518108
996.682	0.464521
998.341	1.84408
999.998	2.00971
1001.65	1.4478
1003.31	1.81019
1004.97	1.70977
1006.62	1.56537
1008.28	0.784603
1009.93	1.12456
1011.58	0.434099
1013.24	0.578
1014.89	0.218569
1016.54	0.582561
1018.2	-0.168896
1019.85	0.524992
1021.5	0.520334
1023.16	0.233214
1024.81	0.166179
1026.46	0.668153
1028.11	1.32295
1029.76	1.43038
1031.41	1.33923
1033.06	1.44206
1034.71	1.23672
1036.36	1.59632
1038.01	1.32238
1039.66	1.61471
1041.31	1.47272
1042.95	2.63725
1044.6	2.23924
1046.25	2.10542
1047.9	1.51873
1049.54	2.1075
1051.19	1.95991
1052.84	2.79121
1054.48	1.92854
1056.13	1.36974
1057.77	1.76674
1059.42	0.641114
1061.06	0.797143
1062.71	0.712787
1064.35	0.735724
1066	1.10486
1067.64	0.733199
1069.28	0.382012
1070.93	0.37761
1072.57	1.15447
1074.21	0.890018
1075.85	1.25642
1077.49	0.887413
1079.13	1.1276
1080.78	0.761767
1082.42	1.4367
1084.06	0.202085
1085.7	0.114314
1087.34	1.25854
1088.97	1.70537
1090.61	0.547746
1092.25	1.24923
1093.89	0.912134
1095.53	0.38184
1097.17	0.457351
1098.8	0.0394325
1100.44	0.980868
1102.08	0.740893
1103.71	0.761962
1105.35	0.612937
1106.99	1.30357
1108.62	1.21933
1110.26	0.488345
1111.89	0.206722
1113.52	0.331075
1115.16	0.109964
1116.79	0.767827
1118.43	0.631834
1120.06	0.432837
1121.69	0.513948
1123.32	1.15307
1124.96	0.445377
1126.59	0.680552
1128.22	0.660208
1129.85	0.576817
1131.48	0.30191
1133.11	0.818435
1134.75	0.736125
1136.37	-0.0738392
1138	0.802938
1139.63	0.075388
1141.26	-0.183361
1142.89	1.00842
1144.52	0.194482
1146.15	0.277727
1147.78	-0.234327
1149.4	-0.212191
1151.03	0.279211
1152.66	0.685179
1154.28	0.345278
1155.91	-0.292979
1157.54	0.132776
1159.16	0.622656
1160.79	0.156727
1162.41	0.713205
1164.04	-0.195903
1165.66	0.043849
1167.29	-0.312177
1168.91	0.116845
1170.53	-0.264484
1172.16	0.0526724
1173.78	0.13333
1175.4	0.233278
1177.02	-0.134008
1178.65	-0.0979395
1180.27	-0.187865
1181.89	-0.191741
1183.51	0.101313
1185.13	0.563044
1186.75	0.00919342
1188.37	0.0655432
1189.99	0.47715
1191.61	0.295532
1193.23	0.00702477
1194.85	0.033021
1196.47	0.687985
1198.08	0.295851
1199.7	0.430167
1201.32	1.04834
1202.94	-0.0840855
1204.55	-0.355805
1206.17	0.252007
1207.79	0.527711
1209.4	1.15832
1211.02	0.619459
1212.63	0.453526
1214.25	-0.299042
1215.86	0.361975
1217.48	0.915195
1219.09	0.260609
1220.71	0.582866
1222.32	0.324915
1223.93	0.898097
1225.54	1.32777
1227.16	0.579831
1228.77	0.765481
1230.38	1.38708
1231.99	0.521926
1233.6	0.795633
1235.22	0.761167
1236.83	1.03855
1238.44	1.21419
1240.05	0.708515
1241.66	1.96097
1243.26	1.57902
1244.87	0.988787
1246.48	1.70053
1248.09	0.776001
1249.7	1.09189
1251.31	1.53138
1252.92	1.24717
1254.52	1.19166
1256.13	2.10999
1257.74	2.45122
1259.34	2.09092
1260.95	1.3592
1262.55	1.91154
1264.16	2.17428
1265.76	2.22928
1267.37	2.30384
1268.97	1.8793
1270.58	2.15796
1272.18	1.97879
1273.78	1.9431
1275.39	1.9473
1276.99	2.36445
1278.59	1.70287
1280.2	2.38669
1281.8	2.01395
1283.4	2.36578
1285	2.01515
1286.6	1.54214
1288.2	1.95972
1289.8	2.4199
1291.4	2.11621
1293	2.3909
1294.6	2.45768
1296.2	2.17123
1297.8	2.58426
1299.4	2.25145
1301	2.63821
1302.6	2.58979
1304.19	2.10777
1305.79	1.74889
1307.39	1.51317
1308.99	2.67246
1310.58	2.08746
1312.18	1.93422
1313.77	2.39599
1315.37	2.18424
1316.96	2.30099
1318.56	1.78598
1320.15	2.33154
1321.75	2.34515
1323.34	2.31554
1324.94	1.8564
1326.53	2.30967
1328.12	2.3555
1329.72	1.51136
1331.31	2.18843
1332.9	1.87766
1334.49	2.60055
1336.08	1.44848
1337.67	2.35553
1339.27	1.9503
1340.86	2.71111
1342.45	1.87753
1344.04	2.46966
1345.63	2.65721
1347.22	1.94242
1348.8	1.8328
1350.39	2.00737
1351.98	1.46564
1353.57	2.58692
1355.16	1.5109
1356.75	2.25431
1358.33	2.05771
1359.92	1.87971
1361.51	1.4607
1363.09	1.81879
1364.68	1.45831
1366.27	2.29405
1367.85	1.17867
1369.44	1.24056
1371.02	1.54333
1372.61	1.19143
1374.19	1.93561
1375.77	2.00426
1377.36	2.2123
1378.94	1.60364
1380.52	1.66995
1382.11	1.61485
1383.69	1.14021
1385.27	1.85704
1386.85	1.71826
1388.43	2.1756
1390.02	1.99842
1391.6	1.86247
1393.18	2.16423
1394.76	1.97056
1396.34	1.67751
1397.92	2.17637
1399.5	2.7129
1401.08	2.43541
1402.65	2.37502
1404.23	2.45315
1405.81	2.59136
1407.39	2.17744
1408.97	1.62685
1410.54	1.90694
1412.12	2.30522
1413.7	2.91938
1415.27	2.32799
1416.85	2.3077
1418.43	1.99122
1420	2.68026
1421.58	2.42529
1423.15	2.9801
1424.73	2.41549
1426.3	2.14816
1427.87	2.5508
1429.45	2.83487
1431.02	3.37326
1432.6	3.27988
1434.17	3.18496
1435.74	3.32539
1437.31	3.1122
1438.89	3.96177
1440.46	3.6532
1442.03	2.93355
1443.6	4.41619
1445.17	4.70069
1446.74	4.53344
1448.31	4.13054
1449.88	3.45282
1451.45	3.8768
1453.02	3.51514
1454.59	3.82273
1456.16	3.69747
1457.72	3.17743
1459.29	3.34397
1460.86	3.70442
1462.43	2.90087
1463.99	2.9605
1465.56	2.74319
1467.13	2.40772
1468.69	2.76034
1470.26	2.76083
1471.83	1.93921
1473.39	1.92378
1474.95	2.61545
1476.52	2.17037
1478.08	1.49029
1479.65	1.30031
1481.21	2.01178
1482.78	1.6647
1484.34	2.94375
1485.9	2.12562
1487.47	0.836568
1489.03	0.975497
1490.59	1.46371
1492.15	1.28321
1493.71	0.865392
1495.27	1.0116
1496.84	1.11691
1498.39	1.16327
1499.96	0.996596
1501.52	0.754258
1503.07	0.494765
1504.64	0.682597
1506.19	1.72211
1507.75	1.01824
1509.31	1.39599
1510.87	0.922161
1512.43	0.506028
1513.98	0.898698
1515.54	0.65639
1517.1	-0.0451498
1518.65	1.21185
1520.21	0.379176
1521.77	0.581751
1523.32	0.840692
1524.88	0.12427
1526.44	0.876194
1527.99	0.958396
1529.54	0.564237
1531.1	0.664823
1532.65	0.80381
1534.21	0.299936
1535.76	1.04704
1537.31	0.905895
1538.87	0.388572
1540.42	0.74013
1541.97	0.205766
1543.52	1.06487
1545.07	1.22637
1546.63	0.241567
1548.18	1.50994
1549.73	1.29499
1551.28	0.874809
1552.83	0.849038
1554.38	0.637808
1555.93	1.11992
1557.48	1.15606
1559.03	1.32567
1560.57	0.80776
1562.12	1.03843
1563.67	1.1774
1565.22	1.69039
1566.77	0.953283
1568.31	1.26082
1569.86	1.62381
1571.41	1.66893
1572.95	1.30293
1574.5	1.59007
1576.05	1.26122
1577.59	1.66072
1579.14	2.02354
1580.68	1.9766
1582.23	1.66935
1583.77	1.45661
1585.31	1.86152
1586.86	1.55701
1588.4	1.70129
1589.95	1.50853
1591.49	1.61444
1593.03	1.86951
1594.57	2.66751
1596.11	2.45429
1597.66	2.50398
1599.2	2.55474
1600.74	1.98757
1602.28	2.9408
1603.82	1.84802
1605.36	2.51913
1606.9	2.39924
1608.44	1.9379
1609.98	2.2812
1611.52	2.18866
1613.06	2.07442
1614.6	2.18357
1616.13	2.21696
1617.67	1.81997
1619.21	2.60544
1620.75	1.74455
1622.28	1.3917
1623.82	1.69536
1625.36	1.71812
1626.89	1.94554
1628.43	2.02118
1629.96	2.52472
1631.5	1.81137
1633.04	1.8267
1634.57	2.60781
1636.11	2.26994
1637.64	2.10163
1639.17	2.6987
1640.71	1.97216
1642.24	2.45607
1643.77	2.43507
1645.31	2.89602
1646.84	2.57395
1648.37	2.14041
1649.9	2.95214
1651.43	3.04069
1652.96	1.83283
1654.5	3.35305
1656.03	1.92623
1657.56	1.72303
1659.09	2.16701
1660.62	2.92326
1662.15	2.4184
1663.67	2.57796
1665.2	2.51478
1666.73	2.58147
1668.26	2.33628
1669.79	2.42543
1671.32	2.71946
1672.84	2.20452
1674.37	2.00356
1675.9	1.34204
1677.43	1.5999
1678.95	0.972963
1680.48	1.08056
1682	1.38907
1683.53	1.78851
1685.05	1.43522
1686.58	1.17458
1688.1	1.648
1689.63	1.55361
1691.15	1.3315
1692.68	1.4391
1694.2	1.2904
1695.72	0.775961
1697.25	0.755004
1698.77	1.09877
1700.29	0.930494
1701.81	0.77989
1703.33	0.865563
1704.86	0.804605
1706.38	-0.0938311
1707.9	1.20842
1709.42	0.583075
1710.94	0.666653
1712.46	0.822853
1713.98	0.997131
1715.5	0.429017
1717.02	0.133029
1718.54	0.795128
1720.06	0.93236
1721.57	0.0953684
1723.09	0.52245
1724.61	0.0675669
1726.13	0.839507
1727.64	0.424693
1729.16	0.4074
1730.68	0.838839
1732.19	0.605731
1733.71	0.512881
1735.23	0.590753
1736.74	0.409128
1738.26	0.188677
1739.77	0.616563
1741.29	0.711328
1742.8	0.128651
1744.31	0.697612
1745.83	0.123659
1747.34	-0.00455093
1748.85	0.632443
1750.37	0.423494
1751.88	0.518411
1753.39	0.231972
1754.91	0.399696
1756.42	0.418726
1757.93	0.076252
1759.44	-0.262597
1760.95	0.172664
1762.46	-0.186043
1763.97	0.148582
1765.48	-0.241012
1766.99	0.233511
1768.5	0.230394
1770.01	0.145303
1771.52	0.503935
1773.03	0.0882797
1774.54	0.374571
1776.04	-0.0447998
1777.55	0.0246859
1779.06	0.147836
1780.57	0.198591
1782.07	0.504768
1783.58	-0.0776634
1785.09	-0.00448227
1786.59	-0.0227537
1788.1	0.290949
1789.6	0.0719099
1791.11	-0.289859
1792.61	-0.0592947
1794.12	-0.0453043
1795.62	-0.0411072
1797.13	0.125912
1798.63	0.0468779
1800.13	0.291478
1801.64	-0.123407
1803.14	-0.146544
1804.64	-0.102596
1806.15	0.0950708
1807.65	0.101698
1809.15	-0.00978184
1810.65	0.0142908
1812.15	0.137707
1813.65	0.132448
1815.16	-0.137259
1816.66	0.0917091
1818.15	-0.0670786
1819.66	-0.25803
1821.16	0.0625496
1822.65	-0.182738
1824.15	0.161532
1825.65	0.644955
1827.15	0.142902
1828.65	0.312347
1830.15	0.292764
1831.64	-0.0400887
1833.14	-0.184663
1834.64	0.159293
1836.14	0.242162
1837.63	-0.0254917
1839.13	-0.220722
1840.62	-0.0284224
1842.12	0.141258
1843.62	0.0361462
1845.11	0.142793
1846.61	0.0184708
1848.1	0.247227
1849.6	0.469111
1851.09	-0.106394
1852.58	-0.329748
1854.08	-0.250463
1855.57	-0.140038
1857.06	-0.0797482
1858.55	0.597453
1860.05	0.36925
1861.54	0.127528
1863.03	0.178961
1864.52	-0.13362
1866.01	0.0858755
1867.5	-0.165327
1869	-0.33388
1870.49	0.357229
1871.98	-0.207006
1873.47	0.152105
1874.96	-0.52026
1876.44	0.0155745
1877.93	-0.051959
1879.42	0.297774
1880.91	0.255988
1882.4	0.0421686
1882.47	0.0311708
1883.96	-0.143545
1885.46	0.186283
1886.95	0.201218
1888.44	0.546226
1889.94	-0.0832624
1891.43	0.210731
1892.93	-0.0846729
1894.42	0.16116
1895.91	0.478478
1897.4	0.310034
1898.89	0.506732
1900.39	0.232517
1901.88	0.339016
1903.37	0.547612
1904.86	0.38915
1906.35	0.0560589
1907.84	0.522057
1909.33	0.068387
1910.82	0.501135
1912.31	0.51844
1913.8	0.415067
1915.29	0.277184
1916.77	0.537706
1918.26	0.502774
1919.75	0.64055
1921.24	-0.0533161
1922.73	0.136826
1924.21	0.552991
1925.7	0.728119
1927.19	0.57569
1928.67	-0.0087738
1930.16	0.428283
1931.64	-0.0706892
1933.13	0.225169
1934.61	0.189848
1936.1	0.221691
1937.58	0.77072
1939.07	0.419905
1940.55	0.501573
1942.04	0.808543
1943.52	0.0815516
1945	-0.178207
1946.49	0.579784
1947.97	0.113453
1949.45	0.370096
1950.93	0.0398617
1952.42	0.706898
1953.9	0.68449
1955.38	-0.00819492
1956.86	0.27934
1958.34	0.0524731
1959.82	0.204135
1961.3	0.219162
1962.78	0.234439
1964.26	0.59216
1965.74	0.366684
1967.22	0.2604
1968.7	0.290263
1970.18	0.370628
1971.65	0.65552
1973.13	-0.135403
1974.61	0.354139
1976.09	-0.0601454
1977.57	0.514259
1979.04	0.219915
1980.52	0.232123
1982	0.686068
1983.47	0.493526
1984.95	-0.530873
1986.42	-0.0445089
1987.9	0.458009
1989.37	-0.055932
1990.85	0.0916433
1992.32	0.696818
1993.8	0.355933
1995.27	-0.152639
1996.75	-0.00145912
1998.22	0.504263
1999.69	0.0130577
2001.17	0.297774
2002.64	0.581615
2004.11	0.274945
2005.58	0.221716
2007.05	-0.0327072
2008.53	0.0509424
2010	-0.0159264
2011.47	-0.0484591
2012.94	0.373547
2014.41	0.357393
2015.88	0.508555
2017.35	0.22122
2018.82	0.487864
2020.29	0.232689
2021.76	0.347039
2023.23	0.360943
2024.7	0.291892
2026.16	0.07335
2027.63	0.12496
2029.1	0.597683
2030.57	0.954776
2032.03	0.0547218
2033.5	0.128341
2034.97	0.151636
2036.44	0.628068
2037.9	0.146341
2039.37	0.0168476
2040.83	0.441942
2042.3	0.127858
2043.76	0.201323
2045.23	0.275939
2046.69	0.0653353
2048.16	0.0233488
2049.62	0.705672
2051.08	0.746681
2052.55	0.111219
2054.01	0.67084
2055.47	0.418803
2056.94	0.637181
2058.4	0.466814
2059.86	0.582696
2061.32	0.210682
2062.79	0.580525
2064.25	0.37923
2065.71	0.498961
2067.17	-0.0366001
2068.63	0.337351
2070.09	0.577126
2071.55	0.109961
2073.01	0.16448
2074.47	0.892263
2075.93	0.626175
2077.39	0.66274
2078.85	1.00193
2080.31	0.128131
2081.76	1.07218
2083.22	-0.0385437
2084.68	0.263963
2086.13	0.262596
2087.59	0.529511
2089.05	0.661212
2090.51	0.171014
2091.96	0.890018
2093.42	0.903419
2094.87	0.832634
2096.33	0.610486
2097.78	0.672538
2099.24	0.884342
2100.69	0.476642
2102.15	0.637966
2103.6	0.616364
2105.06	0.46285
2106.51	1.04524
2107.96	0.761331
2109.42	1.07833
2110.87	0.561011
2112.32	0.942294
2113.77	0.954682
2115.23	1.48084
2116.68	0.65828
2118.13	0.867358
2119.58	0.928329
2121.03	0.941842
2122.48	1.05729
2123.93	0.975574
2125.38	1.19319
2126.83	1.39391
2128.28	1.3944
2129.73	1.75768
2131.18	1.83736
2132.63	1.05512
2134.08	1.36555
2135.53	0.916024
2136.97	1.57609
2138.42	1.34579
2139.87	1.53109
2141.32	2.24755
2142.76	2.00696
2144.21	1.86634
2145.66	1.44445
2147.1	2.47886
2148.55	1.34351
2150	1.76366
2151.44	1.63593
2152.89	2.38507
2154.33	2.07268
2155.78	2.50523
2157.22	2.35798
2158.66	1.61535
2160.11	1.70264
2161.55	2.17332
2163	2.00023
2164.44	1.7626
2165.88	2.47208
2167.32	1.80357
2168.77	1.88096
2170.21	2.43848
2171.65	1.96215
2173.09	2.16523
2174.53	1.98387
2175.97	2.68317
2177.41	1.93587
2178.85	2.76917
2180.29	1.9578
2181.73	2.062
2183.17	1.98408
2184.61	1.93979
2186.05	2.12849
2187.49	1.95123
2188.93	2.28988
2190.37	1.87959
2191.81	1.6686
2193.24	2.0727
2194.68	1.95899
2196.12	1.46013
2197.56	1.40835
2198.99	1.82003
2200.43	1.39901
2201.87	1.29384
2203.3	1.02368
2204.74	1.75007
2206.17	1.10143
2207.61	1.11672
2209.04	1.08214
2210.48	1.5432
2211.91	1.70474
2213.35	1.41878
2214.78	1.10001
2216.21	0.782365
2217.65	1.19235
2219.08	0.745955
2220.51	1.58684
2221.95	1.12542
2223.38	0.943549
2224.81	0.743725
2226.24	0.591467
2227.67	0.963581
2229.1	0.446503
2230.54	0.503787
2231.97	0.740926
2233.4	1.25612
2234.83	1.16612
2236.26	0.898028
2237.69	0.550675
2239.11	1.07078
2240.54	0.907851
2241.97	0.469949
2243.4	0.898027
2244.83	-0.092452
2246.26	0.547446
2247.69	0.679852
2249.11	0.793317
2250.54	0.871381
2251.97	0.865768
2253.4	1.00545
2254.82	0.446545
2256.25	0.296105
2257.67	0.359504
2259.1	0.572185
2260.53	0.155544
2261.95	0.358322
2263.38	0.530728
2264.8	0.752503
2266.23	0.68146
2267.65	0.495525
2269.07	-0.0171337
2270.5	-0.0915298
2271.92	0.0288486
2273.34	0.328215
2274.77	0.155406
2276.19	0.797426
2277.61	0.0709639
2279.03	0.517969
2280.46	0.606402
2281.88	0.189113
2283.3	0.391461
2284.72	0.055439
2286.14	0.633567
2287.56	0.151154
2288.98	0.0609331
2290.4	0.167198
2291.82	-0.200186
2293.24	0.0537109
2294.66	0.356897
2296.08	0.0709915
2297.5	0.276036
2298.92	-0.272277
2300.34	0.0969486
2301.76	0.237285
2303.17	0.345267
2304.59	-0.285092
2306.01	0.118462
2307.43	-0.0859051
2308.84	0.169197
2310.26	0.571816
2311.68	0.447854
2313.09	0.0604906
2314.51	-0.376063
2315.92	-0.153507
2317.34	-0.0122461
2318.75	0.063756
2320.17	0.518953
2321.58	-0.115693
2323	-0.0596542
2324.41	-0.385776
2325.82	0.655109
2327.24	0.604774
2328.65	0.47113
2330.06	0.0413351
2331.48	0.0245552
2332.89	0.354671
2334.3	-0.28518
2335.71	-0.0196466
2337.12	-0.264552
2338.54	0.0650568
2339.95	0.343781
2341.36	0.226943
2342.77	0.0768213
2344.18	-0.0567522
2345.59	-0.189854
2347	0.316334
2348.41	0.281764
2349.82	-0.325745
2351.23	-0.0995598
2352.64	-0.0708208
2354.04	0.103656
2355.45	0.293284
2356.86	0.319276
2358.27	-0.207856
2359.68	-0.0838051
2361.08	0.673096
2362.49	-0.0308361
2363.9	0.254583
2365.3	-0.107819
2366.71	0.193378
2368.12	0.10714
2369.52	-0.300404
2370.93	0.0356617
2372.33	0.405033
2373.74	0.0183735
2375.14	0.710993
2376.55	0.0350056
2377.95	-0.191236
2379.36	0.127441
2380.76	-0.342917
2382.16	-0.0281448
2383.57	0.396972
2384.97	0.0209265
2386.37	-0.0102615
2387.78	-0.0403862
2389.18	-0.698928
2390.58	0.365635
2391.98	-0.178007
2393.38	-0.0833731
2394.79	0.123438
2396.19	-0.257348
2397.59	-0.0332222
2398.99	0.382101
2400.39	0.368897
2401.79	0.435495
2403.19	0.0415754
2404.59	-0.241457
2405.99	0.347775
2407.39	0.237354
2408.78	-0.50828
2410.18	0.395002
2411.58	-0.350126
2412.98	-0.095993
2414.38	0.159363
2415.77	0.115513
2417.17	-0.227609
2418.57	-0.0472574
2419.97	0.212781
2421.36	-0.00240993
2422.76	0.225536
2424.15	0.168005
2425.55	0.522515
2426.95	0.3547
2428.34	0.15608
2429.74	0.307321
2431.13	0.142177
2432.52	0.0405588
2433.92	0.240039
2435.31	-0.022295
2436.71	0.460362
2438.1	0.178654
2439.49	-0.247441
2440.89	0.469014
2442.28	-0.545965
2443.67	0.0580559
2445.06	0.248981
2446.46	0.122466
2447.85	0.0276031
2449.24	-0.510729
2450.63	-0.0825119
2452.02	0.520041
2453.41	0.521822
2454.8	0.144919
2456.19	0.196022
2457.58	0.500586
2458.97	-0.00170708
2460.36	-0.204042
2461.75	0.620521
2463.14	0.0211697
2464.53	-0.167638
2465.92	-0.18292
2467.31	-0.214089
2468.69	-0.213739
2470.08	-0.040123
2471.47	0.353502
2472.86	0.430838
2474.24	0.349753
2475.63	0.142179
2477.02	0.185976
2478.4	0.261033
2479.79	-0.322932
2481.17	-0.0433893
2482.56	0.282656
2483.94	-0.128121
2485.33	0.0395546
2486.72	0.127521
2488.1	0.354486
2489.48	-0.292744
2490.87	-0.315911
2492.25	0.0190468
2493.64	0.0282974
2495.02	-0.224707
2496.4	0.0201168
2497.79	0.110646
2499.17	0.0156336
2500.55	0.0596104
2501.93	0.00992966
2503.31	0.252628
2504.69	-0.138612
2506.08	0.240698
2507.46	0.280259
2508.84	-0.172118
2510.22	0.252332
2511.6	0.10895
2512.98	-0.416521
2514.36	0.116668
2515.74	-0.145885
2517.12	0.235225
2518.5	-0.147919
2519.88	0.248879
2521.25	0.675518
2522.63	0.307197
2524.01	-0.0921021
2525.39	0.285672
2526.77	-0.205494
2528.14	0.126204
2529.52	-0.438547
2530.9	-0.0130844
2532.27	0.079627
2533.65	0.432117
2535.03	0.0561638
2536.4	-0.441331
2537.78	0.139098
2539.15	0.839785
2540.53	-0.146201
2541.9	0.446495
2543.28	0.341135
2544.65	0.206433
2546.03	0.255147
2547.4	-0.30151
2548.77	0.310814
2550.15	0.31651
2551.52	-0.0425425
2552.89	0.0678196
2554.27	0.647433
2555.64	-0.139671
2557.01	-0.0928078
2558.38	-0.0916328
2559.75	-0.196306
2561.12	0.124005
2562.5	0.0963669
2563.87	0.433076
2565.24	-0.0935116
2566.61	-0.180367
2567.98	0.596704
2569.35	0.525127
2570.72	0.574779
2572.09	0.109118
2573.46	0.431726
2574.83	0.102612
2576.19	0.091855
2577.56	0.414581
2578.93	-0.112045
2580.3	-0.275169
2581.67	0.0161371
2583.04	0.367637
2584.4	0.233664
2585.77	0.236069
2587.14	-0.216113
2588.5	0.0594406
2589.87	0.12292
2591.23	0.110485
2592.6	0.112695
2593.97	-0.0223236
2595.33	0.220192
2596.7	0.0677919
2598.06	0.428999
2599.43	0.305512
2600.79	0.0160465
2602.15	0.361725
2603.52	0.300242
2604.88	-0.0170832
2606.25	-0.575306
2607.61	0.283972
2608.97	0.0714817
2610.33	0.144075
2611.7	0.260234
2613.06	0.254559
2614.42	0.518389
2615.78	0.0160265
2617.15	0.114548
2618.51	0.258462
2619.87	0.373055
2621.23	0.338768
2622.59	-0.0983133
2623.95	0.391268
2625.31	-0.0898323
2626.67	0.279444
2628.03	-0.365491
2629.39	-0.0419436
2630.75	-0.135738
2632.1	0.142141
2633.46	0.28582
2634.82	-0.0754204
2636.18	0.379551
2637.54	0.374386
2638.89	-0.0453129
2640.25	0.438297
2641.61	0.640556
2642.97	-0.132204
2644.32	0.144482
2645.68	0.332183
2647.03	0.165359
2648.39	-0.149277
2649.75	0.139111
2651.1	-0.191307
2652.46	-0.0514584
2653.81	0.308376
2655.17	-0.123204
2656.52	0.281958
2657.88	0.482912
2659.23	0.201913
2660.58	0.170241
2661.94	0.357669
2663.29	0.22289
2664.64	0.131147
2666	0.359556
2667.35	0.0915279
2668.7	0.668386
2670.05	-0.0940228
2671.4	-0.331299
2672.76	-0.131688
2674.11	-0.0623579
2675.46	-0.0795774
2676.81	0.527692
2678.16	0.13448
2679.51	0.467401
2680.86	0.148951
2682.21	0.00582123
2683.56	0.313477
2684.91	0.0711594
2686.26	0.206477
2687.61	-0.0791712
2688.96	0.272535
2690.3	0.24497
2691.65	-0.0313845
2693	0.314601
2694.35	-0.297922
2695.7	-0.112932
2697.04	0.434632
2698.39	0.896304
2699.74	0.59234
2701.08	0.0442257
2702.43	0.323174
2703.77	0.0963354
2705.12	0.18882
2706.47	0.194423
2707.81	-0.0614586
2709.16	-0.0857391
2710.5	0.325185
2711.85	-0.121002
2713.19	0.0281334
2714.53	0.0755224
2715.88	0.151941
2717.22	0.126432
2718.57	-0.0157661
2719.91	0.292642
2721.25	0.251369
2722.59	0.165864
2723.94	0.298143
2725.28	-0.341521
2726.62	0.139159
2727.96	0.0372629
2729.3	0.750032
2730.65	-0.26906
2731.99	0.312398
2733.33	0.442836
2734.67	0.282517
2736.01	0.0933475
2737.35	0.311568
2738.69	0.616996
2740.03	0.398585
2741.37	0.106976
2742.71	-0.228862
2744.05	0.393888
2745.38	0.158371
2746.72	0.242015
2748.06	0.0785885
2749.4	-0.0411444
2750.74	0.24551
2752.07	0.314745
2753.41	0.166782
2754.75	0.555164
2756.09	0.262704
2757.42	0.0719366
2758.76	0.37372
2760.09	-0.163658
2761.43	-0.193859
2762.77	0.10925
2764.1	0.108814
2765.44	0.122838
2766.77	0.252102
2768.11	-0.169332
2769.44	0.275634
2770.77	0.154953
2772.11	-0.0537634
2773.44	-0.0468779
2774.77	-0.242476
2776.11	-0.0489016
2777.44	0.0583591
2778.77	0.0797501
2780.11	-0.142623
2781.44	0.181359
2782.77	-0.399129
2784.1	0.311848
2785.43	-0.038765
2786.77	0.22715
2788.1	-0.308355
2789.43	-0.241558
2790.76	0.412529
2792.09	-0.291265
2793.42	-0.136504
2794.75	0.10399
2796.08	0.0296574
2797.41	-0.0309601
2798.74	-0.0493269
2800.07	0.531254
2801.4	-0.187161
2802.72	0.107232
2804.05	-0.439768
2805.38	0.0530844
2806.71	0.27422
2808.04	-0.117276
2809.36	-0.309705
2810.69	0.137213
2812.02	0.300279
2813.34	0.209091
2814.67	0.162131
2816	0.315254
2817.32	0.441265
2818.65	0.128575
2819.97	0.32616
2821.3	0.0980492
2822.62	0.478589
2823.95	0.504059
2825.27	0.174978
2826.6	0.18595
2827.92	0.310736
2829.25	0.521048
2830.57	0.392111
2831.89	0.320055
2833.22	0.615971
2834.54	0.543491
2835.86	0.626143
2837.18	0.637403
2838.51	1.25642
2839.83	1.23845
2841.15	0.655069
2842.47	1.68382
2843.79	1.13007
2845.11	1.31213
2846.43	2.0178
2847.76	1.64985
2849.08	2.39847
2850.4	2.1998
2851.72	2.32561
2853.04	2.12571
2854.36	2.49062
2855.67	2.60087
2856.99	2.66867
2858.31	2.55289
2859.63	2.45125
2860.95	3.04131
2862.27	2.81196
2863.58	3.42909
2864.9	3.01552
2866.22	2.96888
2867.54	3.41617
2868.85	3.89199
2870.17	3.16987
2871.49	4.15376
2872.8	3.8686
2874.12	3.86445
2875.43	4.09844
2876.75	3.99296
2878.07	4.39311
2879.38	4.90492
2880.7	4.17964
2882.01	4.91723
2883.32	4.29328
2884.64	4.40108
2885.95	4.80442
2887.27	4.82876
2888.58	4.2632
2889.89	5.18389
2891.21	5.07921
2892.52	5.91282
2893.83	5.3025
2895.14	5.8414
2896.46	5.19119
2897.77	5.36839
2899.08	5.32302
2900.39	5.37667
2901.7	5.78065
2903.01	6.38072
2904.32	5.95985
2905.63	5.97298
2906.94	6.16868
2908.25	7.20482
2909.56	6.70341
2910.87	6.87433
2912.18	7.29731
2913.49	8.16742
2914.8	7.25764
2916.11	7.88544
2917.42	8.24485
2918.72	8.29478
2920.03	8.20454
2921.34	8.0873
2922.65	8.15357
2923.95	8.80887
2925.26	8.79485
2926.57	8.93553
2927.88	8.78275
2929.18	9.11875
2930.49	9.43998
2931.79	8.93571
2933.1	9.61926
2934.4	9.6737
2935.71	8.77796
2937.01	8.69312
2938.32	8.72035
2939.62	9.11128
2940.93	8.98592
2942.23	8.52639
2943.54	8.16629
2944.84	8.14347
2946.14	7.465
2947.45	7.12268
2948.75	6.80781
2950.05	7.21932
2951.35	6.32639
2952.66	6.59311
2953.96	6.10188
2955.26	5.98822
2956.56	5.53975
2957.86	5.70969
2959.16	5.32306
2960.46	5.99025
2961.77	5.14702
2963.07	5.29969
2964.37	5.08697
2965.66	4.85818
2966.96	4.57092
2968.26	4.15529
2969.56	4.66658
2970.86	4.16527
2972.16	4.63482
2973.46	4.03559
2974.76	4.09765
2976.06	3.80704
2977.35	4.12033
2978.65	3.50226
2979.95	3.64243
2981.25	3.34468
2982.54	3.52468
2983.84	3.00195
2985.14	3.11336
2986.43	3.1282
2987.73	2.83572
2989.02	2.36182
2990.32	2.45039
2991.62	2.52441
2992.91	2.18967
2994.21	2.16267
2995.5	2.00794
2996.8	1.38915
2998.09	2.03368
2999.38	1.86435
3000.68	1.62572
3001.97	1.61224
3003.26	1.52926
3004.56	1.2784
3005.85	0.943413
3007.14	0.80401
3008.43	1.23748
3009.73	0.662707
3011.02	1.03802
3012.31	0.75609
3013.6	0.669922
3014.89	0.737723
3016.19	0.43013
3017.48	0.569332
3018.77	-0.0284634
3020.06	0.375875
3021.35	0.167775
3022.64	0.195195
3023.93	0.0411348
3025.22	0.468848
3026.5	0.272224
3027.79	-0.00650024
3029.08	-0.0207968
3030.37	0.118588
3031.66	-0.085743
3032.95	0.318764
3034.24	0.143811
3035.52	-0.169451
3036.81	0.191866
3038.1	-0.262024
3039.39	-0.125253
3040.67	-0.100405
3041.96	0.184204
3043.25	-0.203641
3044.53	0.491901
3045.82	0.504029
3047.1	0.190834
3048.39	-0.351305
3049.67	0.310436
3050.96	-0.308978
3052.24	0.123396
3053.53	0.160164
3054.81	0.332735
3056.1	0.490488
3057.38	0.29251
3058.67	-0.178584
3059.95	0.43991
3061.23	0.391339
3062.52	-0.240882
3063.8	0.107911
3065.08	0.363146
3066.36	0.320939
3067.65	0.171197
3068.93	-0.0596447
3070.21	-0.0867071
3071.49	0.116641
3072.77	0.237128
3074.05	-0.0107784
3075.33	0.406349
3076.61	-0.345165
3077.89	0.166922
3079.17	-0.337795
3080.45	0.0411921
3081.73	0.232012
3083.01	-0.00977421
3084.29	0.14275
3085.57	-0.0573311
3086.85	0.0271969
3088.13	0.491124
3089.41	-0.226457
3090.68	0.141335
3091.96	0.237581
3093.24	0.130599
3094.52	0.146148
3095.79	-0.312436
3097.07	0.205411
3098.35	0.0183287
3099.62	-0.073844
3100.9	-0.0982141
3102.18	-0.217185
3103.45	-0.0107555
3104.73	0.236847
3106	0.119875
3107.28	-0.320733
3108.55	-0.178206
3109.83	-0.0479307
3111.1	0.205449
3112.38	0.121351
3113.65	0.0242395
3114.93	0.442316
3116.2	0.0602407
3117.47	0.151912
3118.75	0.256109
3120.02	0.454174
3121.29	-0.0944195
3122.57	-0.0332718
3123.84	0.461225
3125.11	0.441099
3126.38	0.218583
3127.65	0.0646691
3128.92	0.750124
3130.2	0.786719
3131.47	0.512656
3132.74	0.576616
3134.01	0.248589
3135.28	0.676471
3136.55	0.46927
3137.82	0.464202
3139.09	0.647502
3140.36	0.265162
3141.63	0.798163
3142.9	0.860483
3144.17	0.708602
3145.43	0.155332
3146.7	1.06503
3147.97	0.674913
3149.24	0.95554
