200.554	1.12493
202.369	1.12802
204.183	1.13391
205.999	0.874058
207.813	0.0315781
209.626	0.865831
211.439	0.847549
213.253	0.681662
215.065	1.94536
216.877	-0.113899
218.688	0.0824757
220.5	0.812222
222.312	0.889744
224.123	0.291941
225.933	0.130766
227.742	0.428947
229.552	0.509092
231.361	0.371208
233.171	-0.297541
234.98	-0.868439
236.787	0.0577888
238.595	-0.169619
240.402	0.619656
242.209	-0.250526
244.015	0.71434
245.822	-0.130083
247.627	1.70233
249.435	0.705782
251.24	-0.151073
253.045	0.653458
254.849	0.224327
256.653	-0.518217
258.457	0.331999
260.26	0.317314
262.063	0.739683
263.866	0.73144
265.668	1.06251
267.47	-0.123898
269.271	0.472641
271.073	0.851162
272.873	-0.218754
274.674	0.565569
276.474	1.03366
278.274	0.679089
280.073	1.26074
281.872	0.65885
283.671	0.800232
285.47	0.0981598
287.268	0.0683098
289.065	0.710009
290.863	-0.372671
292.66	0.439648
294.456	0.823139
296.253	0.467827
298.049	0.353809
299.844	-0.0458431
301.637	-0.49324
303.432	0.443125
305.227	0.636875
307.021	0.25655
308.815	0.448519
310.609	0.0934753
312.402	0.669813
314.195	1.60612
315.987	0.3076
317.777	0.60779
319.569	0.958679
321.36	0.906919
323.151	0.141233
324.942	-0.171049
326.733	0.686628
328.521	0.374338
330.31	0.538786
332.1	-0.18355
333.889	0.38273
335.677	1.25673
337.464	0.930277
339.252	0.600275
341.039	-0.0191116
342.826	0.364697
344.611	0.41375
346.398	0.153324
348.184	0.658504
349.97	0.710886
351.754	0.500847
353.539	0.480883
355.324	0.983906
357.106	0.506662
358.89	0.909302
360.674	-0.0955219
362.455	1.13633
364.239	0.510435
366.021	0.288225
367.804	0.0413647
369.584	-0.182739
371.366	0.113237
373.145	0.975206
374.926	0.747618
376.707	-0.376144
378.485	-0.081686
380.265	0.0489902
382.045	-0.147886
383.822	0.15184
385.601	0.148008
387.378	0.169973
389.156	-0.275782
390.934	-0.085371
392.71	0.341373
394.487	0.370071
396.262	0.798792
398.038	0.077013
399.813	0.270948
401.588	-0.216946
403.362	0.257124
405.137	-0.139063
406.912	-0.418959
408.685	-0.0423317
410.459	0.850069
412.23	0.850534
414.004	-0.438629
415.775	0.385523
417.548	0.272673
419.318	0.231466
421.089	0.941858
422.86	-0.0615406
424.63	-0.455963
426.401	0.204506
428.17	-0.239796
429.94	0.0194244
431.708	-0.190733
433.478	0.0222645
435.245	0.212503
437.012	1.34156
438.781	0.709146
440.547	0.989313
442.315	0.233513
444.081	0.388815
445.846	0.0955467
447.613	0.175137
449.378	-0.0500965
451.142	0.356123
452.908	0.272118
454.672	-0.0678158
456.435	0.851322
458.2	0.0921268
459.963	0.125523
461.725	-0.0257702
463.489	0.616272
465.251	0.588617
467.012	-0.246887
468.775	-0.380531
470.536	0.582079
472.296	0.127411
474.056	0.67206
475.817	0.794703
477.576	0.237871
479.335	-0.135933
481.094	0.187437
482.854	-0.257402
484.612	-0.0944309
486.37	0.840982
488.127	0.662378
489.886	1.18725
491.642	0.431067
493.398	0.259001
495.154	-0.146822
496.91	0.21903
498.667	0.116484
500.422	0.317848
502.176	0.494957
503.93	-0.0339298
505.684	0.727163
507.438	0.922205
509.191	0.220604
510.946	0.527502
512.698	0.784531
514.45	0.544674
516.202	0.490595
517.954	0.904694
519.705	0.611444
521.456	0.787025
523.206	0.679796
524.956	-0.296049
526.706	0.230469
528.456	1.01443
530.207	0.43825
531.956	0.541162
533.704	0.689276
535.452	1.13905
537.2	0.954485
538.947	1.0711
540.694	0.532343
542.441	1.43741
544.188	0.222748
545.934	0.451553
547.68	0.00720406
549.425	0.375683
551.17	0.419617
552.915	0.278807
554.659	0.970472
556.403	0.345654
558.145	0.691347
559.889	0.184969
561.632	1.24582
563.375	0.213089
565.117	0.0794144
566.859	0.475466
568.601	0.574188
570.342	-0.357735
572.083	-0.208216
573.824	0.196642
575.565	0.513096
577.303	0.672241
579.043	1.52276
580.782	0.515156
582.521	0.173157
584.26	0.266647
585.998	0.84129
587.734	0.332691
589.472	0.718958
591.21	0.413322
592.947	0.0837479
594.684	0.766264
596.418	0.436598
598.154	0.22192
599.89	0.236639
601.626	-0.4863
603.361	0.720535
605.094	1.09625
606.828	0.756834
608.562	0.117773
610.296	0.00712204
612.027	0.195753
613.761	-0.0499134
615.493	1.08098
617.224	-0.0796318
618.956	0.179502
620.688	0.619488
622.419	0.210249
624.149	0.257198
625.879	-0.700932
627.61	-0.26326
629.338	-0.0277119
631.068	0.417444
632.797	0.501329
634.525	0.039423
636.254	-0.537468
637.98	-0.0218868
639.708	-0.447126
641.436	0.377047
643.162	-0.148949
644.889	0.416567
646.614	-0.473967
648.34	0.572477
650.067	1.30577
651.791	0.160503
653.516	0.954201
655.239	-0.132906
656.964	-0.0108986
658.687	0.819687
660.411	0.55582
662.133	0.334068
663.857	1.15892
665.58	0.44809
667.301	0.35071
669.024	0.709406
670.744	0.84107
672.464	0.335739
674.186	-0.509146
675.905	-0.274252
677.626	0.697544
679.345	0.660881
681.065	0.34635
682.783	0.488083
684.503	0.764135
686.22	0.553072
687.939	0.246822
689.656	0.122795
691.372	0.688471
693.09	0.677067
694.806	0.0193481
696.523	0.856745
698.239	0.0570488
699.953	0.79731
701.67	1.44263
703.384	1.07413
705.098	1.09519
706.813	0.426731
708.526	0.927996
710.239	0.809086
711.954	0.895676
713.666	0.0438023
715.378	0.724106
717.091	0.581156
718.802	0.55271
720.513	0.251135
722.226	0.519587
723.936	0.787683
725.646	1.66883
727.355	0.958027
729.067	1.6091
730.776	0.580585
732.484	0.142185
734.192	1.51418
735.902	0.578201
737.61	0.502779
739.317	0.879919
741.024	1.2357
742.731	0.602119
744.439	1.07491
746.145	1.79743
747.851	0.992359
749.556	1.51721
751.262	1.32468
752.966	0.0324154
754.673	0.249588
756.377	1.77488
758.081	0.377216
759.784	1.68428
761.487	1.16888
763.19	1.28544
764.892	1.74032
766.594	1.33498
768.296	0.767492
770	1.12272
771.701	1.72309
773.402	1.95906
775.102	0.724466
776.803	0.598927
778.503	0.543533
780.202	0.920513
781.901	1.2544
783.6	1.83762
785.299	1.35501
786.997	1.54698
788.695	1.09936
790.393	1.30206
792.09	1.34137
793.787	1.53577
795.484	1.18797
797.18	0.684767
798.877	1.24376
800.572	1.82779
802.268	1.06399
803.963	1.44888
805.658	1.63079
807.35	1.60876
809.044	1.04557
810.738	1.04196
812.432	1.26089
814.125	1.85929
815.818	2.07566
817.51	0.524611
819.202	1.9932
820.894	2.0529
822.584	1.84552
824.275	1.32778
825.966	1.43725
827.657	2.06286
829.347	1.91387
831.037	2.68376
832.725	2.52371
834.414	2.30063
836.103	1.40996
837.792	1.20963
839.481	1.1632
841.167	2.09666
842.854	2.22381
844.542	1.47861
846.229	1.51674
847.914	1.37934
849.6	1.8728
851.287	1.65507
852.973	0.768002
854.656	2.19197
856.341	1.93378
858.026	0.885906
859.711	2.01591
861.393	1.45523
863.077	1.2288
864.761	1.60828
866.442	0.363121
868.125	1.23576
869.808	2.17558
871.489	1.19771
873.171	0.850836
874.85	1.22576
876.532	1.48794
878.213	1.47935
879.892	1.53823
881.572	1.16745
883.251	1.3822
884.931	0.827284
886.61	1.19523
888.287	1.22158
889.966	1.98901
891.643	1.26533
893.321	0.607616
894.997	1.27628
896.675	1.28976
898.352	0.852163
900.028	1.26609
901.704	0.848555
903.379	0.856144
905.055	0.461048
906.729	0.848568
908.404	0.277691
910.077	0.689508
911.75	0.634924
913.425	0.959425
915.097	0.906502
916.771	0.698408
918.443	0.978117
920.116	0.748232
921.787	0.475603
923.46	0.890697
925.13	0.248003
926.8	1.3315
928.472	1.00471
930.141	1.07759
931.813	1.59291
933.481	0.961456
935.15	0.506933
936.82	0.34001
938.488	0.59375
940.156	1.37912
941.825	1.15222
943.492	-0.000236511
945.158	0.921101
946.827	0.648483
948.493	1.05663
950.158	1.65962
951.824	1.02449
953.491	0.412001
955.156	0.596626
956.82	0.0146332
958.486	-0.451414
960.15	0.10239
961.814	0.968904
963.477	0.377312
965.142	0.688515
966.804	-0.332638
968.467	1.05249
970.129	0.331818
971.79	0.140678
973.454	0.10532
975.115	0.691889
976.776	-0.111385
978.436	0.769018
980.096	0.29015
981.756	-0.189838
983.417	0.799587
985.077	0.0143528
986.736	0.0886021
988.394	0.491308
990.052	-0.170082
991.71	-0.0142784
993.368	0.0747757
995.025	0.517054
996.682	0.42955
998.341	0.0554028
999.998	1.09146
1001.65	0.738115
1003.31	0.362362
1004.97	0.668175
1006.62	-0.542913
1008.28	0.531618
1009.93	0.0253315
1011.58	-0.567194
1013.24	0.156759
1014.89	0.11396
1016.54	-0.343966
1018.2	0.293507
1019.85	0.713213
1021.5	0.194506
1023.16	0.683622
1024.81	0.496895
1026.46	0.639051
1028.11	1.32737
1029.76	0.397575
1031.41	1.01638
1033.06	0.976637
1034.71	1.17365
1036.36	0.255779
1038.01	0.797255
1039.66	0.510614
1041.31	1.07397
1042.95	1.66091
1044.6	1.14275
1046.25	1.21529
1047.9	1.63904
1049.54	0.828136
1051.19	0.62772
1052.84	1.10225
1054.48	1.14308
1056.13	1.37949
1057.77	0.680597
1059.42	1.58941
1061.06	1.38811
1062.71	0.467609
1064.35	0.806419
1066	1.66478
1067.64	-0.370022
1069.28	1.04892
1070.93	0.858469
1072.57	0.364084
1074.21	0.890839
1075.85	1.00717
1077.49	0.670706
1079.13	1.31256
1080.78	1.32697
1082.42	1.08105
1084.06	0.573132
1085.7	0.669048
1087.34	0.912468
1088.97	-0.0177574
1090.61	1.21345
1092.25	1.18647
1093.89	1.13697
1095.53	1.54098
1097.17	1.32092
1098.8	1.57785
1100.44	1.06314
1102.08	0.0579109
1103.71	0.282955
1105.35	0.467421
1106.99	0.459312
1108.62	1.35371
1110.26	0.460993
1111.89	0.812147
1113.52	0.816034
1115.16	0.366592
1116.79	0.860489
1118.43	0.882328
1120.06	1.24833
1121.69	0.35265
1123.32	1.06512
1124.96	0.901831
1126.59	1.10401
1128.22	0.580603
1129.85	1.21338
1131.48	1.56923
1133.11	1.22014
1134.75	1.1914
1136.37	0.968948
1138	1.17173
1139.63	1.60679
1141.26	0.246078
1142.89	1.33955
1144.52	1.23793
1146.15	0.796772
1147.78	0.890665
1149.4	0.879744
1151.03	0.827158
1152.66	1.11527
1154.28	0.934126
1155.91	0.816078
1157.54	0.825529
1159.16	1.04845
1160.79	1.54947
1162.41	1.39359
1164.04	0.793331
1165.66	1.32093
1167.29	1.16753
1168.91	0.926796
1170.53	0.640087
1172.16	0.816933
1173.78	0.926247
1175.4	1.13894
1177.02	1.37144
1178.65	2.00648
1180.27	1.09699
1181.89	1.52322
1183.51	1.88688
1185.13	1.57397
1186.75	1.42821
1188.37	1.36353
1189.99	1.31583
1191.61	1.26417
1193.23	1.02025
1194.85	0.691296
1196.47	1.9986
1198.08	1.6086
1199.7	1.18154
1201.32	1.32446
1202.94	1.74425
1204.55	1.54305
1206.17	1.90985
1207.79	2.19584
1209.4	2.21107
1211.02	2.76667
1212.63	1.98376
1214.25	1.88429
1215.86	1.86337
1217.48	2.06742
1219.09	2.6637
1220.71	1.2243
1222.32	1.61417
1223.93	2.06818
1225.54	2.60758
1227.16	2.57027
1228.77	2.92905
1230.38	1.65703
1231.99	2.9928
1233.6	2.71871
1235.22	2.71611
1236.83	2.42682
1238.44	2.49112
1240.05	2.39145
1241.66	2.62304
1243.26	1.94366
1244.87	2.21416
1246.48	2.8343
1248.09	3.01765
1249.7	2.88898
1251.31	2.65624
1252.92	3.16876
1254.52	2.85551
1256.13	3.97193
1257.74	3.85018
1259.34	3.44136
1260.95	3.09639
1262.55	2.85574
1264.16	4.23077
1265.76	3.51277
1267.37	2.79266
1268.97	3.04454
1270.58	3.52224
1272.18	3.33409
1273.78	3.91069
1275.39	4.04953
1276.99	3.73026
1278.59	3.03646
1280.2	3.21148
1281.8	4.8758
1283.4	4.61505
1285	4.12839
1286.6	4.65714
1288.2	4.67139
1289.8	4.5638
1291.4	5.15996
1293	5.59041
1294.6	5.44043
1296.2	5.45253
1297.8	5.21295
1299.4	5.58847
1301	5.44443
1302.6	5.91549
1304.19	5.31328
1305.79	5.03938
1307.39	5.64785
1308.99	5.39275
1310.58	4.48246
1312.18	5.33552
1313.77	4.8185
1315.37	4.12097
1316.96	5.12132
1318.56	5.18298
1320.15	6.14115
1321.75	5.38444
1323.34	4.76777
1324.94	5.28638
1326.53	6.10488
1328.12	5.23736
1329.72	5.10243
1331.31	5.11329
1332.9	5.35185
1334.49	5.51472
1336.08	4.91451
1337.67	4.8002
1339.27	5.20834
1340.86	4.8666
1342.45	5.34523
1344.04	6.11955
1345.63	5.46411
1347.22	5.45241
1348.8	4.80409
1350.39	5.38365
1351.98	5.50867
1353.57	5.31872
1355.16	5.39185
1356.75	4.66652
1358.33	4.73954
1359.92	4.47075
1361.51	5.35722
1363.09	5.78195
1364.68	5.72692
1366.27	5.31402
1367.85	4.94343
1369.44	5.47194
1371.02	5.02852
1372.61	5.42439
1374.19	4.7684
1375.77	4.92983
1377.36	4.99197
1378.94	5.49059
1380.52	5.21062
1382.11	4.96729
1383.69	4.82034
1385.27	5.06865
1386.85	4.52102
1388.43	4.64948
1390.02	4.5016
1391.6	5.1894
1393.18	4.66866
1394.76	4.20856
1396.34	4.44218
1397.92	4.45588
1399.5	4.24919
1401.08	4.00081
1402.65	4.32537
1404.23	4.80781
1405.81	3.96631
1407.39	3.99729
1408.97	3.71415
1410.54	3.88664
1412.12	5.5596
1413.7	4.68358
1415.27	4.14146
1416.85	4.80079
1418.43	4.00008
1420	3.69358
1421.58	4.74858
1423.15	3.28711
1424.73	4.64459
1426.3	4.80431
1427.87	4.09925
1429.45	4.57443
1431.02	4.67342
1432.6	5.67478
1434.17	4.78478
1435.74	6.29358
1437.31	6.36683
1438.89	4.90883
1440.46	5.37986
1442.03	5.65665
1443.6	5.91554
1445.17	5.64476
1446.74	5.61027
1448.31	4.6523
1449.88	5.97541
1451.45	6.06132
1453.02	5.42096
1454.59	4.7222
1456.16	5.89222
1457.72	5.03406
1459.29	5.4715
1460.86	5.2946
1462.43	4.32629
1463.99	4.90829
1465.56	4.91719
1467.13	4.37529
1468.69	4.14904
1470.26	4.45502
1471.83	4.39079
1473.39	4.11343
1474.95	3.50468
1476.52	3.8186
1478.08	2.91722
1479.65	3.74091
1481.21	3.6626
1482.78	3.70171
1484.34	3.83845
1485.9	3.48453
1487.47	3.40308
1489.03	2.47671
1490.59	4.01224
1492.15	3.35074
1493.71	3.29071
1495.27	2.50487
1496.84	2.86798
1498.39	2.52926
1499.96	2.65911
1501.52	3.16001
1503.07	2.55733
1504.64	2.46152
1506.19	3.02459
1507.75	2.50214
1509.31	1.82382
1510.87	2.47569
1512.43	2.43031
1513.98	2.78833
1515.54	1.72365
1517.1	2.54427
1518.65	2.48277
1520.21	3.22725
1521.77	2.65041
1523.32	2.49443
1524.88	1.84064
1526.44	3.22613
1527.99	2.60665
1529.54	2.97626
1531.1	3.26893
1532.65	3.18289
1534.21	3.53473
1535.76	2.92373
1537.31	3.10982
1538.87	3.69354
1540.42	3.33426
1541.97	3.42795
1543.52	3.31424
1545.07	2.95588
1546.63	3.08602
1548.18	3.27184
1549.73	3.04489
1551.28	3.99842
1552.83	3.56724
1554.38	3.27
1555.93	4.02244
1557.48	3.95705
1559.03	3.6913
1560.57	3.89669
1562.12	4.29248
1563.67	5.0455
1565.22	4.60594
1566.77	4.65168
1568.31	4.4729
1569.86	4.89043
1571.41	4.82176
1572.95	4.65907
1574.5	5.03742
1576.05	5.47189
1577.59	5.36558
1579.14	5.40972
1580.68	5.26878
1582.23	5.72746
1583.77	6.07648
1585.31	7.00704
1586.86	6.53742
1588.4	6.85334
1589.95	6.57015
1591.49	6.791
1593.03	7.32911
1594.57	6.33091
1596.11	7.43078
1597.66	6.95814
1599.2	6.65574
1600.74	7.31168
1602.28	6.69322
1603.82	7.08807
1605.36	6.46693
1606.9	6.40548
1608.44	6.77115
1609.98	7.37506
1611.52	6.6573
1613.06	5.5594
1614.6	6.24241
1616.13	6.22962
1617.67	6.08698
1619.21	5.87267
1620.75	5.53137
1622.28	4.98776
1623.82	4.18427
1625.36	4.46667
1626.89	4.01719
1628.43	4.06996
1629.96	4.26895
1631.5	3.23183
1633.04	4.00678
1634.57	3.51231
1636.11	3.09496
1637.64	3.10907
1639.17	2.93816
1640.71	3.56878
1642.24	4.1229
1643.77	3.42637
1645.31	4.17924
1646.84	3.01376
1648.37	2.10945
1649.9	2.65567
1651.43	2.42409
1652.96	1.95445
1654.5	2.52592
1656.03	2.70915
1657.56	2.37326
1659.09	2.88781
1660.62	1.86251
1662.15	2.16719
1663.67	1.82204
1665.2	1.55014
1666.73	1.70398
1668.26	2.43174
1669.79	1.94548
1671.32	1.84987
1672.84	0.55945
1674.37	1.0753
1675.9	2.16104
1677.43	1.33034
1678.95	1.47292
1680.48	0.896088
1682	1.34729
1683.53	0.824097
1685.05	1.09082
1686.58	1.06459
1688.1	1.27764
1689.63	0.905138
1691.15	0.515249
1692.68	1.2422
1694.2	1.05376
1695.72	0.718901
1697.25	1.31568
1698.77	1.08932
1700.29	0.333063
1701.81	0.251438
1703.33	0.0776176
1704.86	0.503796
1706.38	0.691818
1707.9	0.588066
1709.42	0.538845
1710.94	0.925438
1712.46	0.749691
1713.98	1.2087
1715.5	-0.124994
1717.02	0.279716
1718.54	0.358181
1720.06	-0.159494
1721.57	-0.315065
1723.09	-0.00043869
1724.61	-0.00839615
1726.13	-0.0495224
1727.64	0.57822
1729.16	0.235945
1730.68	0.61257
1732.19	-0.029459
1733.71	-0.24341
1735.23	0.24226
1736.74	-0.47924
1738.26	-0.145191
1739.77	0.174351
1741.29	0.283054
1742.8	-0.508116
1744.31	0.0681496
1745.83	0.276197
1747.34	0.421963
1748.85	-0.23251
1750.37	0.142796
1751.88	0.0969124
1753.39	0.211535
1754.91	0.0815964
1756.42	-0.251133
1757.93	0.129848
1759.44	-0.656891
1760.95	-0.139687
1762.46	0.179235
1763.97	-0.0579395
1765.48	0.0269318
1766.99	-0.0873508
1768.5	0.0499725
1770.01	-0.082634
1771.52	0.244947
1773.03	0.248003
1774.54	0.261265
1776.04	0.356483
1777.55	-0.0357437
1779.06	-0.201307
1780.57	0.396559
1782.07	0.0541954
1783.58	0.0292454
1785.09	-0.011385
1786.59	-0.25206
1788.1	0.233624
1789.6	0.219963
1791.11	0.0551987
1792.61	-0.248508
1794.12	0.146397
1795.62	0.232666
1797.13	0.0522308
1798.63	0.262423
1800.13	-0.0327187
1801.64	-0.106249
1803.14	-0.383821
1804.64	0.159187
1806.15	0.0029583
1807.65	0.245461
1809.15	0.153017
1810.65	0.0101547
1812.15	0.280537
1813.65	-0.0299854
1815.16	0.370512
1816.66	0.266151
1818.15	-0.0222282
1819.66	-0.0982056
1821.16	-0.210541
1822.65	-0.284079
1824.15	-0.0677357
1825.65	0.462669
1827.15	-0.135372
1828.65	0.412325
1830.15	0.247671
1831.64	0.0868034
1833.14	0.516821
1834.64	-0.360619
1836.14	-0.0558643
1837.63	-0.0863094
1839.13	0.286058
1840.62	0.14286
1842.12	0.155104
1843.62	0.157751
1845.11	0.337215
1846.61	0.385944
1848.1	0.0225182
1849.6	0.322435
1851.09	0.218252
1852.58	0.222666
1854.08	0.00028801
1855.57	-0.191975
1857.06	-0.157108
1858.55	0.123665
1860.05	0.247305
1861.54	0.00483704
1863.03	-0.00930786
1864.52	-0.0538998
1866.01	0.868168
1867.5	0.574427
1869	0.830383
1870.49	0.298548
1871.98	0.017746
1873.47	0.467896
1874.96	0.630293
1876.44	0.612051
1877.93	0.683241
1879.42	0.288681
1880.91	0.293367
1882.4	0.0139809
1882.47	0.00331879
1883.96	0.228403
1885.46	0.451557
1886.95	0.0802994
1888.44	0.0389824
1889.94	-0.349894
1891.43	0.376768
1892.93	-0.0930939
1894.42	0.119345
1895.91	-0.151501
1897.4	0.205622
1898.89	0.284424
1900.39	0.117441
1901.88	0.364313
1903.37	0.8853
1904.86	0.133484
1906.35	0.648861
1907.84	-0.0172729
1909.33	0.238527
1910.82	0.478891
1912.31	0.426321
1913.8	0.565905
1915.29	0.202816
1916.77	0.203222
1918.26	0.0810909
1919.75	0.4778
1921.24	0.57954
1922.73	0.0241203
1924.21	0.319231
1925.7	0.287939
1927.19	0.31105
1928.67	0.370327
1930.16	0.187178
1931.64	0.0195656
1933.13	0.61063
1934.61	0.816547
1936.1	-0.296537
1937.58	0.36985
1939.07	0.377663
1940.55	0.386066
1942.04	-0.121359
1943.52	0.443594
1945	0.00995445
1946.49	0.301538
1947.97	-0.114107
1949.45	0.364714
1950.93	-0.381639
1952.42	-0.079565
1953.9	0.35837
1955.38	-0.0637283
1956.86	0.18531
1958.34	0.675867
1959.82	-0.41061
1961.3	0.0483875
1962.78	-0.263823
1964.26	-0.23349
1965.74	0.549213
1967.22	0.0801105
1968.7	0.260044
1970.18	0.677683
1971.65	0.376728
1973.13	0.33206
1974.61	0.407059
1976.09	0.294861
1977.57	-0.293697
1979.04	0.105993
1980.52	0.283972
1982	-0.099638
1983.47	-0.398424
1984.95	0.592482
1986.42	0.224443
1987.9	0.077219
1989.37	-0.44165
1990.85	-0.535273
1992.32	0.252737
1993.8	0.1124
1995.27	-0.144264
1996.75	0.242224
1998.22	-0.0640068
1999.69	0.371859
2001.17	-0.375254
2002.64	-0.161371
2004.11	-0.0660534
2005.58	0.804977
2007.05	0.076786
2008.53	0.445719
2010	0.00833893
2011.47	0.14464
2012.94	0.0454216
2014.41	-0.189304
2015.88	0.146404
2017.35	-0.0246696
2018.82	-0.0293598
2020.29	0.367966
2021.76	0.36146
2023.23	0.674582
2024.7	0.150249
2026.16	-0.153046
2027.63	0.435837
2029.1	0.491325
2030.57	-0.12117
2032.03	0.0401249
2033.5	-0.0827351
2034.97	0.348488
2036.44	0.00642586
2037.9	0.150265
2039.37	-0.0260525
2040.83	0.654688
2042.3	0.344528
2043.76	0.574057
2045.23	0.502924
2046.69	0.80381
2048.16	0.566725
2049.62	0.8006
2051.08	0.290543
2052.55	0.333258
2054.01	0.675472
2055.47	0.659525
2056.94	0.505535
2058.4	0.535135
2059.86	0.732706
2061.32	0.358517
2062.79	0.760679
2064.25	0.474909
2065.71	0.342928
2067.17	0.801876
2068.63	0.774157
2070.09	0.814501
2071.55	0.282593
2073.01	0.289034
2074.47	0.244358
2075.93	0.687281
2077.39	1.02835
2078.85	0.694893
2080.31	0.562487
2081.76	0.445679
2083.22	0.781898
2084.68	0.3085
2086.13	0.254293
2087.59	0.619078
2089.05	0.797684
2090.51	0.303711
2091.96	0.330513
2093.42	0.709463
2094.87	0.584295
2096.33	0.659294
2097.78	0.833172
2099.24	0.670609
2100.69	0.624571
2102.15	0.812975
2103.6	0.719027
2105.06	0.294275
2106.51	0.640423
2107.96	0.705208
2109.42	1.10428
2110.87	1.25192
2112.32	1.44644
2113.77	0.804148
2115.23	1.3904
2116.68	0.892876
2118.13	0.928368
2119.58	0.750921
2121.03	0.0802402
2122.48	0.72452
2123.93	1.4547
2125.38	1.24115
2126.83	1.02711
2128.28	1.40766
2129.73	1.10545
2131.18	1.16489
2132.63	1.12308
2134.08	1.27966
2135.53	0.974806
2136.97	1.25191
2138.42	1.33467
2139.87	1.1242
2141.32	1.29755
2142.76	1.14296
2144.21	1.81688
2145.66	1.7635
2147.1	1.62662
2148.55	1.57103
2150	1.31464
2151.44	1.05592
2152.89	1.17604
2154.33	1.95704
2155.78	2.22323
2157.22	1.85999
2158.66	2.2603
2160.11	1.96784
2161.55	1.92777
2163	1.37788
2164.44	2.19112
2165.88	1.56311
2167.32	1.49892
2168.77	1.89786
2170.21	1.72776
2171.65	1.63599
2173.09	1.02411
2174.53	1.90623
2175.97	1.88861
2177.41	1.67184
2178.85	2.23816
2180.29	1.90885
2181.73	1.56487
2183.17	1.68773
2184.61	2.42668
2186.05	1.90174
2187.49	1.92572
2188.93	1.75007
2190.37	1.64089
2191.81	1.19809
2193.24	1.26973
2194.68	1.58822
2196.12	1.60297
2197.56	1.41357
2198.99	1.0542
2200.43	1.12494
2201.87	1.27814
2203.3	1.7643
2204.74	1.04183
2206.17	1.61512
2207.61	1.0129
2209.04	1.08976
2210.48	0.93314
2211.91	1.36996
2213.35	1.49038
2214.78	0.833931
2216.21	1.96233
2217.65	1.14519
2219.08	1.07367
2220.51	0.87224
2221.95	1.06682
2223.38	1.02908
2224.81	1.18593
2226.24	1.58555
2227.67	0.747633
2229.1	0.893827
2230.54	1.41522
2231.97	1.34493
2233.4	0.325954
2234.83	0.569843
2236.26	0.734072
2237.69	0.672937
2239.11	1.10551
2240.54	1.34648
2241.97	1.1511
2243.4	0.501907
2244.83	0.799557
2246.26	1.09583
2247.69	0.801432
2249.11	1.1871
2250.54	0.88302
2251.97	0.445158
2253.4	1.03062
2254.82	-0.171677
2256.25	0.400606
2257.67	0.0847607
2259.1	1.10556
2260.53	0.41301
2261.95	0.796791
2263.38	0.275084
2264.8	0.533556
2266.23	0.628973
2267.65	0.153349
2269.07	0.668015
2270.5	0.334688
2271.92	0.504786
2273.34	0.348793
2274.77	0.339489
2276.19	0.249119
2277.61	0.87619
2279.03	0.607101
2280.46	0.419258
2281.88	-0.0136299
2283.3	0.809265
2284.72	0.27817
2286.14	0.122675
2287.56	0.555655
2288.98	-0.0881386
2290.4	0.444933
2291.82	0.472292
2293.24	0.663477
2294.66	0.298491
2296.08	0.42403
2297.5	0.0255241
2298.92	-0.225809
2300.34	0.473602
2301.76	-0.645838
2303.17	0.153664
2304.59	0.494728
2306.01	-0.0837059
2307.43	-0.121243
2308.84	0.119436
2310.26	0.572765
2311.68	0.351055
2313.09	0.11261
2314.51	0.977627
2315.92	0.0830135
2317.34	-0.0199471
2318.75	0.273596
2320.17	0.451542
2321.58	0.379751
2323	-0.191339
2324.41	0.420673
2325.82	0.66445
2327.24	0.706272
2328.65	0.74621
2330.06	0.753475
2331.48	0.663876
2332.89	-0.0156536
2334.3	0.0146198
2335.71	-0.184855
2337.12	0.634502
2338.54	0.201694
2339.95	0.621168
2341.36	0.315401
2342.77	0.0252266
2344.18	0.0305157
2345.59	-0.0292206
2347	0.517761
2348.41	0.114721
2349.82	0.398418
2351.23	-0.284472
2352.64	0.566866
2354.04	0.419128
2355.45	0.107075
2356.86	-0.188856
2358.27	-0.0288486
2359.68	0.472265
2361.08	-0.488266
2362.49	0.223173
2363.9	-0.200901
2365.3	0.200922
2366.71	0.650723
2368.12	0.116016
2369.52	0.165291
2370.93	-0.330706
2372.33	0.352901
2373.74	0.281223
2375.14	0.435877
2376.55	-0.536665
2377.95	-0.0632858
2379.36	-0.204496
2380.76	-0.525736
2382.16	0.257023
2383.57	0.0268497
2384.97	-0.171396
2386.37	0.00712585
2387.78	0.187147
2389.18	0.106327
2390.58	0.474539
2391.98	-0.269613
2393.38	0.516907
2394.79	0.0798626
2396.19	0.153511
2397.59	-0.168819
2398.99	0.225304
2400.39	-0.110397
2401.79	0.253588
2403.19	0.347586
2404.59	0.234325
2405.99	-0.785574
2407.39	0.255972
2408.78	0.517668
2410.18	-0.410589
2411.58	0.025053
2412.98	0.0819492
2414.38	0.0466061
2415.77	-0.412907
2417.17	-0.0462513
2418.57	0.195868
2419.97	0.0746784
2421.36	0.444246
2422.76	0.30619
2424.15	0.531855
2425.55	-0.0663357
2426.95	0.319029
2428.34	0.088192
2429.74	0.874331
2431.13	0.615576
2432.52	0.483952
2433.92	0.224026
2435.31	0.406254
2436.71	0.267433
2438.1	-0.0337334
2439.49	-0.0359421
2440.89	-0.00847244
2442.28	-0.252144
2443.67	0.281233
2445.06	0.13172
2446.46	0.235634
2447.85	-0.104593
2449.24	0.252396
2450.63	0.387884
2452.02	0.0812588
2453.41	0.267069
2454.8	0.280687
2456.19	-0.0837574
2457.58	-0.131042
2458.97	0.295866
2460.36	0.658148
2461.75	-0.0883121
2463.14	0.128004
2464.53	0.200619
2465.92	-0.438213
2467.31	0.122974
2468.69	0.131287
2470.08	0.612261
2471.47	0.335114
2472.86	-0.0692959
2474.24	-0.0183735
2475.63	0.251215
2477.02	0.393747
2478.4	-0.327881
2479.79	-0.420321
2481.17	-0.465212
2482.56	0.414242
2483.94	0.320623
2485.33	0.381567
2486.72	0.111727
2488.1	0.152081
2489.48	-0.417213
2490.87	-0.0515614
2492.25	-0.354198
2493.64	-0.0171738
2495.02	0.10495
2496.4	0.214207
2497.79	-0.01548
2499.17	0.173733
2500.55	0.284643
2501.93	0.347246
2503.31	-0.287338
2504.69	0.141642
2506.08	-0.24839
2507.46	0.423843
2508.84	0.464479
2510.22	0.306326
2511.6	-0.264317
2512.98	-0.0963707
2514.36	0.517405
2515.74	0.106785
2517.12	0.0961704
2518.5	-0.0354824
2519.88	0.0320816
2521.25	0.297564
2522.63	0.317055
2524.01	-0.275494
2525.39	0.30475
2526.77	-0.273932
2528.14	-0.348715
2529.52	0.217638
2530.9	-0.170599
2532.27	0.250542
2533.65	0.218895
2535.03	-0.0389252
2536.4	-0.160015
2537.78	0.309912
2539.15	0.352283
2540.53	-0.366428
2541.9	-0.220392
2543.28	0.108173
2544.65	0.271585
2546.03	0.210238
2547.4	0.379232
2548.77	-0.0414181
2550.15	-0.00669479
2551.52	0.118071
2552.89	-0.00201607
2554.27	0.239765
2555.64	0.342844
2557.01	0.459728
2558.38	-0.106129
2559.75	0.11718
2561.12	0.0687904
2562.5	-0.493372
2563.87	-0.296432
2565.24	0.189428
2566.61	0.00910759
2567.98	-0.337708
2569.35	0.0732861
2570.72	0.166033
2572.09	0.258896
2573.46	0.10944
2574.83	-0.085289
2576.19	0.0384407
2577.56	0.0104198
2578.93	0.300341
2580.3	0.589497
2581.67	0.149897
2583.04	0.0278893
2584.4	-0.246235
2585.77	0.22233
2587.14	0.0696545
2588.5	0.053854
2589.87	0.492989
2591.23	0.158991
2592.6	0.369501
2593.97	0.593269
2595.33	0.102804
2596.7	0.0947208
2598.06	0.765585
2599.43	0.482235
2600.79	-0.132978
2602.15	-0.202703
2603.52	0.212227
2604.88	0.100012
2606.25	0.561611
2607.61	-0.35
2608.97	0.259592
2610.33	0.0222683
2611.7	-0.217737
2613.06	0.382057
2614.42	0.317938
2615.78	0.193268
2617.15	0.384155
2618.51	-0.0529289
2619.87	-0.0534859
2621.23	0.142054
2622.59	0.0397224
2623.95	0.102356
2625.31	-0.282839
2626.67	0.345989
2628.03	0.168489
2629.39	0.273478
2630.75	0.630743
2632.1	0.184418
2633.46	0.347752
2634.82	-0.0383968
2636.18	0.273058
2637.54	0.435814
2638.89	-0.0678539
2640.25	-0.0673428
2641.61	-0.554077
2642.97	0.201511
2644.32	0.0706863
2645.68	0.131706
2647.03	0.0590916
2648.39	-0.0444241
2649.75	0.468483
2651.1	-0.0503216
2652.46	-0.216337
2653.81	0.0439301
2655.17	0.0708656
2656.52	0.0563564
2657.88	-0.248171
2659.23	-0.0528526
2660.58	0.508831
2661.94	-0.0848427
2663.29	0.299433
2664.64	0.404043
2666	0.360888
2667.35	-0.0476742
2668.7	-0.149998
2670.05	0.0103722
2671.4	0.288044
2672.76	-0.406696
2674.11	0.0626183
2675.46	0.358631
2676.81	0.481621
2678.16	0.57708
2679.51	-0.0505257
2680.86	0.382874
2682.21	0.210123
2683.56	0.243158
2684.91	0.0319195
2686.26	0.358593
2687.61	-0.0840054
2688.96	0.0802898
2690.3	0.734386
2691.65	-0.0819073
2693	0.0708618
2694.35	-0.0252972
2695.7	0.747747
2697.04	0.826124
2698.39	0.661329
2699.74	0.297897
2701.08	-0.0324345
2702.43	0.16206
2703.77	0.315744
2705.12	0.630329
2706.47	-0.0843925
2707.81	0.317009
2709.16	0.48559
2710.5	0.508215
2711.85	0.254244
2713.19	-0.0583096
2714.53	0.602709
2715.88	0.435259
2717.22	0.950996
2718.57	0.549944
2719.91	-0.186781
2721.25	0.385027
2722.59	0.781235
2723.94	1.05997
2725.28	0.842823
2726.62	0.0134964
2727.96	0.973705
2729.3	0.579821
2730.65	0.534927
2731.99	1.04285
2733.33	0.358034
2734.67	0.0665398
2736.01	0.575558
2737.35	0.590395
2738.69	0.47435
2740.03	0.0233459
2741.37	0.429272
2742.71	0.0340576
2744.05	0.102533
2745.38	0.0533295
2746.72	0.0177212
2748.06	0.11236
2749.4	0.279593
2750.74	0.708237
2752.07	0.00636864
2753.41	-0.506012
2754.75	0.0545101
2756.09	-0.645056
2757.42	0.292395
2758.76	0.129787
2760.09	-0.205492
2761.43	0.241922
2762.77	0.140549
2764.1	0.141275
2765.44	-0.0315685
2766.77	0.170799
2768.11	0.284277
2769.44	0.524887
2770.77	0.559565
2772.11	0.31661
2773.44	0.057169
2774.77	0.0419788
2776.11	-0.506241
2777.44	-0.232325
2778.77	-0.0150814
2780.11	0.720434
2781.44	0.30689
2782.77	0.0950966
2784.1	-0.259924
2785.43	0.231113
2786.77	0.34955
2788.1	-0.0462971
2789.43	0.103798
2790.76	-0.359097
2792.09	0.424101
2793.42	-0.0641899
2794.75	0.162506
2796.08	-0.168854
2797.41	-0.258398
2798.74	-0.149225
2800.07	-0.426449
2801.4	0.251795
2802.72	0.814907
2804.05	0.0515537
2805.38	0.171129
2806.71	0.189564
2808.04	0.277647
2809.36	-0.360201
2810.69	0.337906
2812.02	0.113955
2813.34	0.176586
2814.67	0.313448
2816	-0.070797
2817.32	0.610748
2818.65	0.244881
2819.97	0.67285
2821.3	-0.0481911
2822.62	0.43396
2823.95	0.0219135
2825.27	0.430813
2826.6	0.51392
2827.92	0.838913
2829.25	0.754639
2830.57	0.331791
2831.89	0.702255
2833.22	0.718748
2834.54	0.465643
2835.86	1.38613
2837.18	1.59763
2838.51	1.24217
2839.83	2.79559
2841.15	2.73669
2842.47	3.59766
2843.79	3.96535
2845.11	4.27834
2846.43	4.7343
2847.76	5.12065
2849.08	4.30578
2850.4	5.04493
2851.72	5.20338
2853.04	5.02133
2854.36	4.88075
2855.67	4.88104
2856.99	4.92369
2858.31	4.8535
2859.63	4.9528
2860.95	5.99775
2862.27	5.17807
2863.58	5.1059
2864.9	5.90798
2866.22	5.32715
2867.54	5.59344
2868.85	6.12859
2870.17	5.93155
2871.49	6.49621
2872.8	6.25677
2874.12	6.25523
2875.43	6.71599
2876.75	7.23007
2878.07	7.26317
2879.38	7.9143
2880.7	7.28639
2882.01	7.98178
2883.32	6.79733
2884.64	7.44132
2885.95	7.94619
2887.27	7.23007
2888.58	6.66762
2889.89	7.22587
2891.21	6.60386
2892.52	7.08816
2893.83	6.68904
2895.14	7.32733
2896.46	6.46933
2897.77	7.13964
2899.08	7.39241
2900.39	6.94759
2901.7	7.69303
2903.01	7.30593
2904.32	7.92629
2905.63	7.76403
2906.94	8.42834
2908.25	7.65382
2909.56	8.25222
2910.87	7.66271
2912.18	8.17882
2913.49	8.66544
2914.8	7.80497
2916.11	8.22866
2917.42	7.65496
2918.72	9.15004
2920.03	8.37794
2921.34	8.74032
2922.65	8.92356
2923.95	9.17979
2925.26	8.9494
2926.57	9.20971
2927.88	8.56155
2929.18	8.75137
2930.49	8.77225
2931.79	9.04374
2933.1	9.21677
2934.4	8.83066
2935.71	9.07378
2937.01	8.38094
2938.32	8.84843
2939.62	8.89731
2940.93	7.81544
2942.23	7.95107
2943.54	6.92924
2944.84	6.70666
2946.14	7.25559
2947.45	6.91087
2948.75	6.63544
2950.05	6.03553
2951.35	6.24395
2952.66	5.87439
2953.96	5.40396
2955.26	6.08068
2956.56	5.56923
2957.86	5.31386
2959.16	4.89588
2960.46	4.74933
2961.77	5.16754
2963.07	4.67622
2964.37	4.99745
2965.66	5.14762
2966.96	4.31076
2968.26	4.45462
2969.56	3.89384
2970.86	4.55617
2972.16	3.74223
2973.46	3.74479
2974.76	3.494
2976.06	3.24188
2977.35	3.35326
2978.65	3.22181
2979.95	2.91789
2981.25	2.65363
2982.54	2.81031
2983.84	3.38924
2985.14	2.80348
2986.43	2.9097
2987.73	2.61152
2989.02	2.47008
2990.32	2.11844
2991.62	2.42636
2992.91	1.87481
2994.21	1.50338
2995.5	1.62137
2996.8	1.86402
2998.09	1.1657
2999.38	1.00149
3000.68	0.838505
3001.97	1.4618
3003.26	1.02063
3004.56	1.44851
3005.85	1.38541
3007.14	0.369123
3008.43	0.625204
3009.73	0.683302
3011.02	0.292532
3012.31	0.613422
3013.6	0.305948
3014.89	0.71073
3016.19	0.670643
3017.48	0.715769
3018.77	0.706329
3020.06	0.405035
3021.35	0.506199
3022.64	0.216457
3023.93	0.688246
3025.22	0.36714
3026.5	0.600082
3027.79	0.349216
3029.08	0.51594
3030.37	0.0224876
3031.66	0.126635
3032.95	-0.36059
3034.24	0.119276
3035.52	-0.188652
3036.81	-0.237104
3038.1	0.220396
3039.39	0.246225
3040.67	-0.226377
3041.96	0.315878
3043.25	0.0750866
3044.53	-0.478132
3045.82	-0.151535
3047.1	0.411278
3048.39	-0.304918
3049.67	0.185144
3050.96	-0.0311184
3052.24	0.041008
3053.53	-0.0505371
3054.81	0.102106
3056.1	0.0205116
3057.38	0.0319786
3058.67	0.150616
3059.95	-0.0447731
3061.23	0.128166
3062.52	0.466146
3063.8	0.317329
3065.08	-0.00483131
3066.36	0.219862
3067.65	0.297216
3068.93	0.606619
3070.21	0.453083
3071.49	0.256811
3072.77	0.0442467
3074.05	0.168854
3075.33	0.658041
3076.61	0.181637
3077.89	-0.347816
3079.17	-0.114811
3080.45	-0.394274
3081.73	-0.00570297
3083.01	0.0599804
3084.29	0.195026
3085.57	0.194521
3086.85	0.423716
3088.13	-0.000234604
3089.41	0.619265
3090.68	0.0433216
3091.96	0.38969
3093.24	0.261412
3094.52	0.472771
3095.79	0.345623
3097.07	-0.0253716
3098.35	0.308331
3099.62	0.194332
3100.9	-0.0282784
3102.18	-0.345539
3103.45	0.0689373
3104.73	-0.0166035
3106	0.657238
3107.28	0.277342
3108.55	0.0755539
3109.83	0.187277
3111.1	0.734398
3112.38	0.674007
3113.65	0.180824
3114.93	0.880079
3116.2	0.222633
3117.47	0.580116
3118.75	0.324751
3120.02	1.01618
3121.29	0.647526
3122.57	0.440256
3123.84	1.12659
3125.11	0.864767
3126.38	0.739336
3127.65	0.533979
3128.92	0.992523
3130.2	0.870079
3131.47	0.369333
3132.74	0.503595
3134.01	1.31215
3135.28	0.795625
3136.55	1.04724
3137.82	0.650079
3139.09	0.562357
3140.36	0.864554
3141.63	0.843426
3142.9	1.41403
3144.17	0.816579
3145.43	0.932261
3146.7	1.07596
3147.97	1.38157
3149.24	1.16578
