200.388	0.973107
202.204	0.984426
204.019	0.997187
205.832	-0.0588188
207.646	0.199512
209.459	0.238627
211.274	0.495352
213.087	-0.244669
214.899	-0.305527
216.711	0.602768
218.524	0.298989
220.335	0.311148
222.146	0.784124
223.956	0.218237
225.766	0.161237
227.576	-0.0886593
229.388	-0.507556
231.197	0.111326
233.005	0.560579
234.813	-0.00278378
236.621	-0.0338831
238.429	-0.375872
240.236	0.00812435
242.045	-0.183693
243.852	-0.0845251
245.658	0.232119
247.464	0.0646687
249.269	0.159996
251.074	-0.0135717
252.879	-0.0210276
254.683	-0.0303173
256.487	0.104667
258.291	0.192316
260.094	-0.224075
261.897	0.0364323
263.702	0.250771
265.504	0.394229
267.306	0.152709
269.108	0.127843
270.909	-0.0183411
272.71	0.00308228
274.511	-0.00103283
276.311	0.668132
278.111	0.371038
279.91	-0.241088
281.709	0.0359468
283.508	0.454874
285.306	0.174723
287.105	0.0143185
288.9	-0.289585
290.698	0.653637
292.495	-0.054759
294.291	0.340029
296.088	-0.196292
297.884	-0.228953
299.679	-0.141464
301.475	-0.292957
303.27	0.247254
305.064	0.189098
306.858	0.559328
308.652	-0.119956
310.444	0.56019
312.237	0.312317
314.03	-0.647846
315.822	0.180072
317.615	0.986392
319.406	0.603891
321.198	0.222547
322.987	0.628706
324.778	0.391706
326.568	1.46784
328.358	0.275423
330.148	0.515229
331.935	0.371314
333.724	0.440773
335.513	0.244674
337.301	0.97925
339.089	-0.0830908
340.875	-0.0225325
342.662	0.228324
344.449	-0.214019
346.236	0.180518
348.02	-0.284018
349.806	0.827894
351.592	-0.61442
353.375	0.592058
355.16	0.460874
356.944	0.399855
358.728	-0.0677071
360.51	0.15466
362.294	0.0425453
364.077	0.048667
365.858	-0.0172768
367.64	-0.250087
369.422	0.156859
371.202	0.325147
372.983	0.918164
374.764	0.942204
376.543	0.612172
378.324	0.307057
380.102	1.11082
381.881	0.87888
383.661	0.484199
385.438	0.937821
387.216	1.275
388.993	1.28446
390.771	1.10728
392.548	1.09556
394.324	1.50732
396.101	0.440067
397.875	0.0304565
399.651	0.395729
401.425	0.760549
403.201	0.349577
404.974	-0.203112
406.749	0.253275
408.524	0.685345
410.296	0.694329
412.07	0.0696964
413.841	-0.0615234
415.614	0.300785
417.385	0.218149
419.156	0.441297
420.928	0.265832
422.698	1.07596
424.469	-0.109982
426.238	-0.170178
428.009	0.214754
429.777	-0.0347109
431.548	0.725056
433.315	-0.298626
435.083	-0.0545597
436.852	0.0721569
438.618	0.338939
440.387	-0.0294638
442.153	0.327301
443.919	-0.350187
445.686	0.540734
447.451	-0.326614
449.218	0.210074
450.982	-0.235405
452.746	0.0438786
454.512	0.0430422
456.275	0.601563
458.038	0.227473
459.803	-0.867385
461.565	-0.448464
463.327	0.296882
465.091	0.0683489
466.852	0.00562
468.613	0.457162
470.374	0.236858
472.136	0.57553
473.896	0.0290661
475.655	-0.123857
477.415	0.326449
479.176	0.518456
480.934	0.546184
482.692	0.0849066
484.45	0.789406
486.21	0.284904
487.967	1.06433
489.724	0.354382
491.481	0.484879
493.237	0.172444
494.995	0.467708
496.75	0.365467
498.506	1.01245
500.26	1.21449
502.015	0.618128
503.771	0.466073
505.525	0.688546
507.279	0.674541
509.032	0.447041
510.785	1.41759
512.537	0.433391
514.289	1.49456
516.041	1.30692
517.793	1.00032
519.546	1.18639
521.297	0.877933
523.047	1.53204
524.797	1.03506
526.547	1.10158
528.297	1.12116
530.046	0.648442
531.795	0.409991
533.543	1.0604
535.291	1.42788
537.039	0.531066
538.787	0.731622
540.534	0.557223
542.281	0.685089
544.027	0.649308
545.773	0.985331
547.519	0.29952
549.264	0.450133
551.01	0.670106
552.754	0.33463
554.499	0.600848
556.243	0.820624
557.987	-0.29714
559.73	0.269598
561.474	0.67479
563.216	0.504915
564.959	1.04849
566.701	0.742152
568.441	0.322292
570.182	0.248202
571.923	-0.00789261
573.664	1.2289
575.405	-0.170441
577.145	0.0148382
578.885	0.270536
580.624	0.274684
582.361	0.439815
584.1	0.259686
585.839	0.0782814
587.577	0.28646
589.315	0.40132
591.052	0.170002
592.787	0.421216
594.524	0.741228
596.26	0.0259418
597.997	0.414944
599.732	0.0443363
601.466	0.224976
603.201	0.0361958
604.936	0.604591
606.67	-0.0928125
608.403	0.265997
610.136	0.371699
611.87	0.22544
613.603	0.0343065
615.334	-0.110099
617.067	0.13528
618.799	0.150915
620.529	-0.0635233
622.26	-0.0731888
623.991	-0.266694
625.72	-0.0259542
627.451	0.672122
629.181	0.413184
630.909	0.727436
632.638	0.519167
634.368	0.380561
636.095	0.652509
637.823	0.717165
639.551	0.299516
641.277	0.996555
643.005	0.84649
644.73	0.0121012
646.457	-0.638568
648.184	-0.172537
649.908	0.86426
651.634	-0.117286
653.357	-0.185852
655.083	0.181212
656.806	0.0504942
658.53	0.171328
660.253	0.406096
661.977	-0.136831
663.7	0.893807
665.422	-0.317721
667.145	0.0686531
668.865	0.728732
670.588	0.131523
672.308	0.0623474
674.027	0.430784
675.749	0.572968
677.468	0.579197
679.188	0.723467
680.907	0.958899
682.627	0.617547
684.345	0.411459
686.064	0.663496
687.781	0.361094
689.498	0.587173
691.216	0.927608
692.932	0.530217
694.65	0.132038
696.366	0.239536
698.081	0.667977
699.797	0.35833
701.512	0.369688
703.228	0.747694
704.942	0.458324
706.655	0.375334
708.371	1.20927
710.083	1.14779
711.796	0.742567
713.51	0.543525
715.222	0.276049
716.934	0.853772
718.645	1.20242
720.358	0.479398
722.068	0.122169
723.779	0.152395
725.49	0.864432
727.2	0.530095
728.909	0.627051
730.618	0.95003
732.329	0.84159
734.037	0.642633
735.745	0.557121
737.453	0.878598
739.16	0.906911
740.869	1.34197
742.576	1.28218
744.282	0.751222
745.988	1.61757
747.694	0.302699
749.401	1.35162
751.107	1.07477
752.811	1.47416
754.516	1.87523
756.22	1.15302
757.924	1.98553
759.627	1.17605
761.332	1.44897
763.035	1.926
764.738	1.88416
766.44	1.66021
768.142	2.11208
769.843	1.72508
771.544	2.10441
773.245	2.25588
774.946	2.72326
776.646	2.82943
778.346	2.37188
780.046	1.78035
781.745	1.8233
783.444	2.2965
785.143	1.97644
786.841	1.9479
788.539	1.77995
790.237	1.92501
791.934	2.29269
793.631	1.3029
795.328	1.66812
797.024	1.47016
798.72	2.24277
800.416	1.46343
802.112	1.63143
803.807	2.54227
805.502	1.85613
807.196	1.75389
808.89	1.38094
810.584	2.19654
812.278	1.46257
813.971	1.60291
815.664	1.83227
817.354	1.90462
819.047	0.837085
820.739	2.11624
822.43	2.09958
824.122	2.57439
825.813	2.29259
827.503	1.07806
829.192	1.02525
830.882	1.19841
832.571	1.82035
834.261	1.88803
835.95	1.97932
837.637	0.887739
839.325	1.73637
841.013	0.685318
842.701	1.21849
844.389	1.52784
846.074	1.32393
847.761	1.52427
849.447	1.01159
851.131	1.88916
852.817	1.35856
854.503	1.2094
856.188	0.992422
857.871	2.05538
859.556	1.20568
861.24	1.47853
862.922	1.25424
864.606	1.07337
866.289	1.50001
867.97	1.02419
869.653	1.04383
871.336	0.792427
873.016	1.24011
874.698	0.582205
876.379	0.556003
878.058	1.22949
879.739	0.503532
881.418	0.454302
883.098	1.73628
884.778	1.30134
886.456	0.458705
888.135	0.788086
889.812	0.980178
891.49	1.1704
893.167	1.11116
894.845	1.47819
896.523	1.50612
898.198	0.948972
899.875	0.907892
901.55	0.552358
903.226	0.823619
904.901	1.42923
906.576	0.917482
908.25	0.719802
909.925	0.723934
911.598	0.417606
913.271	1.06834
914.945	0.652418
916.617	1.0138
918.291	0.886837
919.962	1.04809
921.635	1.03266
923.306	1.17324
924.978	1.55842
926.648	0.885508
928.318	0.722696
929.989	-0.233054
931.659	0.753892
933.328	0.659904
934.998	1.669
936.666	1.02423
938.336	1.10829
940.004	0.884937
941.671	0.486407
943.34	0.551912
945.007	0.551138
946.673	0.416757
948.339	0.346663
950.007	-0.144762
951.672	0.465894
953.337	1.16438
955.004	-0.0321693
956.669	0.362003
958.333	0.340654
959.997	1.09484
961.662	0.570762
963.326	0.355344
964.989	0.447565
966.651	0.758277
968.315	0.291609
969.977	0.420003
971.639	-0.00561142
973.301	0.0779972
974.962	0.561125
976.624	0.493361
978.285	0.206033
979.945	0.505721
981.605	0.80522
983.264	1.44653
984.924	0.0490561
986.583	0.420334
988.243	0.457561
989.901	0.979857
991.56	0.462112
993.217	0.541123
994.875	0.55392
996.532	0.0152903
998.188	0.425395
999.845	1.25347
1001.5	1.46347
1003.16	0.836412
1004.81	0.561723
1006.47	1.23224
1008.12	1.33097
1009.78	0.3766
1011.43	0.498579
1013.09	0.599006
1014.74	0.37121
1016.39	-0.00912571
1018.05	0.902452
1019.7	0.326851
1021.35	1.58938
1023	1.25686
1024.65	1.25344
1026.31	1.25076
1027.96	1.33554
1029.61	1.55068
1031.26	1.26198
1032.91	1.82302
1034.56	1.96692
1036.21	1.65106
1037.86	1.81393
1039.51	1.86755
1041.16	0.660282
1042.8	1.23863
1044.45	0.49301
1046.1	0.771002
1047.75	0.356079
1049.39	1.13752
1051.04	1.00832
1052.69	1.29282
1054.33	0.382781
1055.98	0.450418
1057.62	0.930833
1059.27	0.519446
1060.91	0.607379
1062.56	0.259574
1064.2	0.193461
1065.85	0.321907
1067.49	0.470843
1069.13	-0.380776
1070.77	-0.233451
1072.42	0.543089
1074.06	0.451571
1075.7	0.469706
1077.34	0.857988
1078.98	-0.18359
1080.62	0.705717
1082.27	0.814407
1083.91	1.16064
1085.55	0.702868
1087.18	0.264793
1088.82	0.474526
1090.46	1.24454
1092.1	1.29848
1093.74	1.11409
1095.38	1.4265
1097.02	1.04948
1098.65	0.480789
1100.29	0.23774
1101.93	0.621074
1103.56	-0.0479412
1105.2	0.618363
1106.84	0.747524
1108.47	0.424766
1110.11	0.530963
1111.74	-0.0094099
1113.38	-0.336231
1115.01	0.323533
1116.64	-0.391262
1118.28	0.117003
1119.91	0.282529
1121.54	0.299072
1123.18	0.25258
1124.81	0.528167
1126.44	0.419561
1128.07	0.589901
1129.7	0.0554152
1131.33	0.69756
1132.97	0.100065
1134.6	0.678222
1136.23	0.422029
1137.86	0.100698
1139.49	0.547208
1141.11	-0.224729
1142.74	0.0918121
1144.37	0.386821
1146	0.0214272
1147.63	-0.108209
1149.26	0.82845
1150.88	-0.343486
1152.51	0.0397177
1154.14	-0.258884
1155.76	-0.174635
1157.39	-0.0267601
1159.01	0.695683
1160.64	0.22788
1162.27	-0.344839
1163.89	-0.0234051
1165.51	-0.169147
1167.14	0.0250788
1168.76	0.0481052
1170.39	0.133093
1172.01	0.130934
1173.63	-0.0854883
1175.25	-0.175677
1176.88	0.157674
1178.5	0.257689
1180.12	0.146635
1181.74	0.184793
1183.36	0.752224
1184.98	-0.561457
1186.6	0.61726
1188.22	-0.148672
1189.84	-0.177588
1191.46	-0.187415
1193.08	0.221663
1194.7	0.0827999
1196.32	-0.265344
1197.94	0.142206
1199.55	-0.0558987
1201.17	-0.0630083
1202.79	-0.234278
1204.41	0.515711
1206.02	0.24524
1207.64	0.101559
1209.25	-0.187741
1210.87	-0.540315
1212.48	0.794379
1214.1	-0.312634
1215.71	-0.00465202
1217.33	-0.260814
1218.94	-0.0188379
1220.56	0.554632
1222.17	0.256644
1223.79	0.810114
1225.4	0.246325
1227.01	0.429912
1228.62	0.387348
1230.23	0.242844
1231.85	0.678522
1233.46	0.205996
1235.07	0.892287
1236.68	0.794562
1238.29	0.573947
1239.9	0.457404
1241.51	0.299674
1243.12	0.762193
1244.73	0.748146
1246.34	0.712288
1247.94	0.964996
1249.55	1.0099
1251.16	0.847541
1252.77	0.189013
1254.37	1.04126
1255.98	0.529533
1257.59	1.01206
1259.2	0.358023
1260.8	0.242759
1262.41	0.562795
1264.01	0.80028
1265.62	0.975347
1267.22	1.33627
1268.83	0.742603
1270.43	0.56231
1272.03	0.463804
1273.64	0.758109
1275.24	0.926866
1276.85	1.0945
1278.45	0.763941
1280.05	1.24049
1281.65	1.71627
1283.25	0.991841
1284.85	1.40599
1286.46	1.01462
1288.06	1.14134
1289.66	1.0624
1291.26	0.860121
1292.86	1.8975
1294.46	1.32243
1296.06	1.7788
1297.66	1.61365
1299.25	1.9625
1300.85	1.75243
1302.45	1.10863
1304.05	1.43213
1305.65	1.01404
1307.24	1.60258
1308.84	1.18424
1310.43	1.13569
1312.03	2.04985
1313.63	1.14278
1315.22	0.933298
1316.82	0.806896
1318.41	1.33422
1320.01	1.49368
1321.6	1.34635
1323.2	1.19757
1324.79	1.2301
1326.38	0.591019
1327.98	1.04775
1329.57	0.997645
1331.16	1.59658
1332.76	1.61085
1334.35	1.08257
1335.94	1.58598
1337.53	1.06094
1339.12	0.737396
1340.71	0.91608
1342.3	1.23301
1343.89	1.40634
1345.48	0.815051
1347.07	0.806721
1348.66	0.780201
1350.25	0.836444
1351.84	0.635405
1353.43	0.976638
1355.01	0.679534
1356.6	1.00249
1358.19	0.705557
1359.77	0.966939
1361.36	0.707962
1362.95	0.887178
1364.53	0.587305
1366.12	0.865831
1367.71	0.388168
1369.29	0.589024
1370.88	0.492749
1372.46	0.358211
1374.04	-0.372037
1375.63	0.649443
1377.21	0.497093
1378.8	0.782013
1380.38	0.608175
1381.96	0.134605
1383.54	0.753661
1385.13	0.178501
1386.71	0.576864
1388.29	0.617541
1389.87	0.57948
1391.45	0.403513
1393.03	0.982345
1394.61	0.629183
1396.19	1.0295
1397.77	0.655744
1399.35	0.2019
1400.93	0.381223
1402.51	0.262794
1404.09	1.09405
1405.67	0.204676
1407.24	-0.0307283
1408.82	0.426472
1410.4	0.607414
1411.98	0.0378504
1413.55	0.869593
1415.13	0.41716
1416.71	0.437547
1418.28	1.14731
1419.86	0.792854
1421.43	0.774617
1423.01	0.994307
1424.58	0.979543
1426.16	0.867791
1427.73	1.22905
1429.31	0.999567
1430.88	1.14307
1432.45	1.16718
1434.02	1.58364
1435.6	1.4093
1437.17	2.10035
1438.74	1.47489
1440.31	1.24388
1441.88	1.74112
1443.45	2.1016
1445.03	2.08915
1446.6	2.09656
1448.17	1.86825
1449.74	1.54192
1451.3	1.58959
1452.87	1.69689
1454.44	2.09974
1456.01	1.26319
1457.58	1.07502
1459.15	1.43652
1460.72	1.59931
1462.28	0.854924
1463.85	1.19087
1465.42	1.23043
1466.98	0.974851
1468.55	0.876969
1470.12	1.01561
1471.68	1.0965
1473.25	0.982391
1474.81	0.594663
1476.38	1.36431
1477.94	1.17327
1479.51	0.942991
1481.07	1.00665
1482.63	1.0506
1484.2	0.722094
1485.76	1.31407
1487.32	0.906098
1488.88	0.771048
1490.45	1.20157
1492.01	1.4922
1493.57	1.35007
1495.13	1.14761
1496.69	0.0090971
1498.25	1.03324
1499.81	0.675441
1501.37	1.36797
1502.93	0.7028
1504.49	0.969953
1506.05	1.21757
1507.61	0.709816
1509.17	0.549709
1510.73	0.00278473
1512.28	0.150071
1513.84	0.642991
1515.4	0.558135
1516.96	0.243724
1518.51	0.717103
1520.07	0.270621
1521.63	0.246314
1523.18	0.183508
1524.74	-0.0708838
1526.29	0.0556812
1527.85	-0.00947857
1529.4	0.647525
1530.96	-0.00756741
1532.51	-0.0914803
1534.06	0.242323
1535.62	0.462893
1537.17	0.154925
1538.72	0.244705
1540.28	0.447858
1541.83	0.537693
1543.38	0.551964
1544.93	-0.0920725
1546.48	0.0913982
1548.03	0.368128
1549.59	0.531772
1551.14	0.639086
1552.69	0.166787
1554.24	0.443914
1555.79	0.161711
1557.34	0.124302
1558.88	0.219503
1560.43	0.316584
1561.98	0.0421953
1563.53	0.739056
1565.08	0.914242
1566.62	0.697697
1568.17	0.53684
1569.72	0.487545
1571.27	1.07249
1572.81	0.667794
1574.36	0.617592
1575.9	0.959414
1577.45	0.741405
1579	1.17723
1580.54	0.84823
1582.09	1.15491
1583.63	0.416486
1585.17	1.4724
1586.72	0.473117
1588.26	0.707606
1589.8	1.27889
1591.35	1.8127
1592.89	0.960692
1594.43	1.30655
1595.97	1.59643
1597.52	1.26842
1599.06	1.07212
1600.6	1.08273
1602.14	1.01877
1603.68	0.879619
1605.22	0.871154
1606.76	0.955241
1608.3	1.01853
1609.84	1.0794
1611.38	1.17533
1612.92	0.461512
1614.46	1.04213
1615.99	0.983786
1617.53	0.794745
1619.07	1.35648
1620.61	0.926757
1622.14	0.798305
1623.68	1.00776
1625.22	1.25465
1626.75	0.957929
1628.29	0.959356
1629.82	1.4268
1631.36	1.3132
1632.9	1.42339
1634.43	1.40306
1635.96	1.19701
1637.5	0.731035
1639.03	1.85077
1640.57	1.34835
1642.1	1.21826
1643.63	1.88778
1645.16	1.17813
1646.7	1.73292
1648.23	1.35741
1649.76	1.63272
1651.29	1.7788
1652.82	1.64786
1654.36	1.66662
1655.89	1.9085
1657.42	1.61283
1658.95	1.70551
1660.48	1.20429
1662.01	1.94159
1663.53	2.15891
1665.06	0.786727
1666.59	1.6133
1668.12	1.24101
1669.65	1.20252
1671.18	1.3499
1672.7	1.00103
1674.23	0.8186
1675.76	1.16995
1677.29	0.655249
1678.81	1.20682
1680.34	0.85578
1681.86	0.816695
1683.39	0.960903
1684.91	0.334237
1686.44	0.222188
1687.96	0.495601
1689.49	0.640872
1691.01	0.767928
1692.54	0.51062
1694.06	0.82053
1695.58	0.599754
1697.11	0.086586
1698.63	0.285837
1700.15	-0.409853
1701.67	0.791595
1703.2	0.0589247
1704.72	0.474044
1706.24	0.196575
1707.76	0.264681
1709.28	0.33255
1710.8	0.182593
1712.32	0.250639
1713.84	0.626737
1715.36	0.278148
1716.88	0.273726
1718.4	0.178801
1719.91	0.553452
1721.43	0.223945
1722.95	0.0397444
1724.47	-0.161236
1725.99	0.0894642
1727.5	0.431266
1729.02	0.287992
1730.54	0.235205
1732.05	0.0587473
1733.57	0.112399
1735.09	0.0770235
1736.6	-0.0430317
1738.12	0.426451
1739.63	0.130549
1741.15	0.101645
1742.66	0.296095
1744.18	0.50539
1745.69	0.1703
1747.2	-0.0405006
1748.72	0.0242929
1750.23	-0.29861
1751.74	0.650854
1753.25	0.0645599
1754.77	-0.176373
1756.28	0.00894833
1757.79	-0.0673285
1759.3	0.12734
1760.81	-0.259453
1762.32	0.167554
1763.83	0.0527802
1765.34	0.739952
1766.85	0.307233
1768.36	0.208167
1769.87	0.10007
1771.38	0.359759
1772.89	-0.0493202
1774.4	0.250778
1775.91	0.0173025
1777.41	0.418144
1778.92	-0.18409
1780.43	0.0329819
1781.94	-0.300126
1783.44	0.0111475
1784.95	0.0864449
1786.45	-0.172141
1787.96	0.0255203
1789.47	0.103927
1790.97	0.634055
1792.48	-0.0785189
1793.98	0.416287
1795.48	0.15317
1796.99	0.465446
1798.49	0.174503
1800	0.0897369
1801.5	-0.295134
1803	-0.0221901
1804.51	-0.0958166
1806.01	-0.475579
1807.51	-0.260284
1809.01	0.18629
1810.51	0.161976
1812.02	0.0845022
1813.52	0.0449743
1815.02	0.165175
1816.52	0.330423
1818.02	0.4286
1819.52	-0.0456266
1821.02	0.179358
1822.52	0.381001
1824.02	0.100112
1825.51	0.132545
1827.01	0.177833
1828.51	0.315673
1830.01	-0.0394011
1831.51	0.176964
1833	0.324486
1834.5	0.12575
1836	0.0618448
1837.5	0.059124
1838.99	0.472397
1840.49	0.351289
1841.98	-0.0441704
1843.48	-0.168625
1844.97	0.167206
1846.47	0.125305
1847.96	0.15543
1849.46	-0.00322914
1850.95	0.36835
1852.45	0.174763
1853.94	0.366508
1855.43	0.201305
1856.92	0.0762081
1858.42	0.195827
1859.91	0.560795
1861.4	-0.0688391
1862.89	-0.105996
1864.39	0.163111
1865.88	0.166999
1867.37	0.147326
1868.86	0.0317707
1870.35	-0.0278254
1871.84	0.25372
1873.33	0.312033
1874.82	0.288804
1876.31	0.0584497
1877.8	0.373585
1879.29	0.422397
1880.77	0.338686
1882.26	0.164302
1882.51	0.133172
1884	-0.408347
1885.5	-0.113787
1886.99	0.179649
1888.48	0.054471
1889.98	0.016593
1891.47	-0.0202904
1892.97	0.222609
1894.46	-0.0195274
1895.95	0.435362
1897.44	0.439092
1898.93	0.32095
1900.42	0.219139
1901.92	0.0461025
1903.41	0.584383
1904.9	0.425422
1906.39	0.196278
1907.88	0.00205708
1909.37	0.346693
1910.86	0.327627
1912.35	0.517653
1913.84	0.378661
1915.32	0.0490685
1916.81	0.22204
1918.3	0.030407
1919.79	0.254271
1921.28	0.304674
1922.76	0.372768
1924.25	0.268596
1925.74	0.165599
1927.22	0.115611
1928.71	-0.0549374
1930.2	0.15541
1931.68	-0.119893
1933.17	0.0189838
1934.65	0.484934
1936.14	0.152907
1937.62	0.459782
1939.11	0.713924
1940.59	-0.240679
1942.08	0.256316
1943.56	0.23638
1945.04	0.682929
1946.53	0.250404
1948.01	0.248753
1949.49	0.0224085
1950.97	-0.0497551
1952.45	0.496699
1953.94	-0.213427
1955.42	0.400465
1956.9	-0.170975
1958.38	0.288699
1959.86	0.268313
1961.34	0.248502
1962.82	0.31461
1964.3	0.414742
1965.78	0.257392
1967.26	0.612961
1968.74	-0.0075388
1970.22	0.243911
1971.69	-0.0176821
1973.17	-0.278962
1974.65	0.398296
1976.13	0.103271
1977.61	0.490118
1979.08	0.025485
1980.56	0.1738
1982.03	0.134759
1983.51	0.265329
1984.99	-0.11384
1986.46	-0.170433
1987.94	0.0441952
1989.41	0.224925
1990.89	0.135307
1992.36	-0.0885687
1993.84	0.0268688
1995.31	0.39651
1996.78	0.631203
1998.26	0.291506
1999.73	0.54248
2001.2	0.303253
2002.68	0.0468683
2004.15	0.228903
2005.62	0.141493
2007.09	0.0885773
2008.56	0.188183
2010.04	-0.0649357
2011.51	0.355881
2012.98	0.625165
2014.45	0.574192
2015.92	0.135484
2017.39	0.520221
2018.86	0.416285
2020.33	0.295068
2021.8	0.106651
2023.27	-0.0476828
2024.74	0.117675
2026.2	-0.28622
2027.67	0.233866
2029.14	-0.0999966
2030.61	-0.231329
2032.07	0.275895
2033.54	0.381058
2035.01	0.301555
2036.47	0.372808
2037.94	0.191509
2039.41	0.144179
2040.87	0.214442
2042.34	0.251483
2043.8	0.440676
2045.27	0.49632
2046.73	0.620149
2048.2	0.542295
2049.66	0.396612
2051.12	0.468966
2052.59	0.135026
2054.05	0.625592
2055.51	0.304865
2056.98	0.522326
2058.44	0.368081
2059.9	0.26432
2061.36	0.39677
2062.82	0.0754786
2064.29	0.866098
2065.75	0.479594
2067.21	0.716663
2068.67	0.499952
2070.13	0.60335
2071.59	0.774186
2073.05	0.574492
2074.51	0.105058
2075.97	1.01611
2077.43	0.444884
2078.88	0.580534
2080.34	0.715696
2081.8	0.698725
2083.26	0.411737
2084.72	0.847737
2086.17	0.475232
2087.63	0.993539
2089.09	0.771453
2090.54	1.13727
2092	0.982196
2093.46	0.911081
2094.91	0.722383
2096.37	0.95239
2097.82	1.13114
2099.28	1.15832
2100.73	0.767042
2102.19	1.17867
2103.64	1.15644
2105.09	0.935363
2106.55	1.31657
2108	1.11494
2109.46	1.34735
2110.91	0.895582
2112.36	1.04262
2113.81	1.15437
2115.27	1.3807
2116.72	1.32302
2118.17	1.49832
2119.62	1.55863
2121.07	1.53807
2122.52	1.86799
2123.97	1.25426
2125.42	1.5036
2126.87	1.63657
2128.32	1.63578
2129.77	1.76601
2131.22	1.51372
2132.67	1.72428
2134.12	1.918
2135.57	2.06281
2137.01	1.86209
2138.46	1.86187
2139.91	2.06214
2141.36	2.47926
2142.8	2.17045
2144.25	2.37501
2145.7	2.29856
2147.14	2.43695
2148.59	2.16063
2150.03	1.91628
2151.48	2.71456
2152.92	2.11995
2154.37	2.65107
2155.81	2.3035
2157.26	2.5193
2158.7	2.42118
2160.15	2.47369
2161.59	2.52828
2163.03	2.55194
2164.48	2.4779
2165.92	2.95264
2167.36	2.38127
2168.8	2.80541
2170.25	2.42955
2171.69	2.94929
2173.13	2.21911
2174.57	2.5187
2176.01	2.51815
2177.45	2.58434
2178.89	2.76777
2180.33	2.76949
2181.77	2.38984
2183.21	2.07731
2184.65	2.29724
2186.09	2.53398
2187.53	2.20512
2188.97	2.3588
2190.41	2.47924
2191.84	1.96677
2193.28	2.15266
2194.72	2.43694
2196.16	2.16973
2197.59	2.18327
2199.03	2.17819
2200.47	2.20513
2201.9	2.6635
2203.34	2.22609
2204.78	1.97288
2206.21	1.82057
2207.65	1.83465
2209.08	2.04725
2210.51	1.74569
2211.95	1.67492
2213.38	1.55383
2214.82	1.44927
2216.25	1.54358
2217.68	1.0121
2219.12	1.42241
2220.55	1.42122
2221.98	1.38723
2223.42	1.81381
2224.85	1.23401
2226.28	1.14673
2227.71	1.1729
2229.14	1.27976
2230.57	1.46757
2232	1.17949
2233.43	1.12152
2234.86	0.982705
2236.29	0.714699
2237.72	1.11807
2239.15	1.01715
2240.58	0.706374
2242.01	0.805333
2243.44	0.595681
2244.87	1.08778
2246.3	0.89416
2247.73	0.747869
2249.15	0.974395
2250.58	0.334919
2252.01	0.720119
2253.43	0.209359
2254.86	1.09706
2256.29	0.718504
2257.71	0.764732
2259.14	0.79765
2260.56	0.217036
2261.99	0.661117
2263.41	0.29521
2264.84	0.709247
2266.26	0.814475
2267.69	0.398409
2269.11	0.518116
2270.54	0.604548
2271.96	0.853333
2273.38	0.532023
2274.81	0.275817
2276.23	0.655154
2277.65	0.545937
2279.07	0.224795
2280.49	0.653541
2281.92	0.234219
2283.34	0.516142
2284.76	0.635061
2286.18	0.509418
2287.6	0.531025
2289.02	0.324424
2290.44	0.477557
2291.86	0.533025
2293.28	0.376068
2294.7	0.169867
2296.12	0.569045
2297.54	0.231613
2298.96	-0.0569057
2300.38	0.326483
2301.79	0.43175
2303.21	0.521006
2304.63	0.429958
2306.05	0.174518
2307.46	0.164955
2308.88	0.483624
2310.3	0.209966
2311.71	-0.557737
2313.13	0.171368
2314.55	0.127731
2315.96	0.265908
2317.38	-0.0563221
2318.79	0.0831051
2320.21	0.0410414
2321.62	0.0803967
2323.03	-0.129586
2324.45	0.268826
2325.86	1.06083
2327.27	0.729081
2328.69	0.874815
2330.1	0.279364
2331.51	0.376863
2332.93	0.047492
2334.34	-0.0998602
2335.75	0.131466
2337.16	-0.164023
2338.57	0.0494099
2339.99	-0.165671
2341.4	0.226202
2342.81	0.157562
2344.22	0.302176
2345.63	0.28298
2347.04	0.378752
2348.45	0.147058
2349.86	0.406051
2351.26	-0.0226421
2352.67	0.414028
2354.08	-0.162684
2355.49	0.304295
2356.9	-0.10929
2358.31	-0.115403
2359.71	0.39853
2361.12	-0.370715
2362.53	-0.0358448
2363.94	-0.0904922
2365.34	0.372632
2366.75	0.156189
2368.15	-0.107658
2369.56	0.194551
2370.97	0.336384
2372.37	0.302156
2373.78	0.011323
2375.18	0.0913458
2376.59	-0.0543013
2377.99	-0.120414
2379.39	0.0370522
2380.8	-0.0481358
2382.2	0.314463
2383.61	0.00266743
2385.01	0.123289
2386.41	0.148137
2387.81	0.173803
2389.22	0.200592
2390.62	-0.0741234
2392.02	0.241753
2393.42	-0.0464039
2394.82	0.0800467
2396.22	-0.206268
2397.63	0.350545
2399.02	-0.0933876
2400.43	0.0352488
2401.82	-0.0741072
2403.23	0.102478
2404.62	-0.102424
2406.02	0.295162
2407.42	-0.10181
2408.82	0.309655
2410.22	0.149724
2411.62	0.21197
2413.02	-0.0417795
2414.41	0.00666904
2415.81	0.578924
2417.21	0.20262
2418.61	0.0329895
2420	0.0695343
2421.4	0.0743141
2422.79	0.173807
2424.19	-0.091363
2425.59	-0.150545
2426.98	0.0443192
2428.38	0.319374
2429.77	0.373511
2431.17	-0.0476208
2432.56	0.277122
2433.96	0.188729
2435.35	-0.123228
2436.74	0.182949
2438.14	0.0586834
2439.53	-0.019145
2440.92	-0.0184126
2442.32	-0.176947
2443.71	0.156273
2445.1	0.108377
2446.49	-0.177448
2447.88	0.186592
2449.28	0.249325
2450.67	0.201387
2452.06	0.233142
2453.45	-0.224883
2454.84	-0.349678
2456.23	-0.363066
2457.62	0.0351076
2459.01	0.053484
2460.4	-0.150093
2461.79	-0.243672
2463.18	-0.464378
2464.57	0.230896
2465.96	-0.464435
2467.34	0.198295
2468.73	0.371249
2470.12	-0.197382
2471.51	-0.0407915
2472.89	0.036212
2474.28	0.175344
2475.67	0.36083
2477.05	0.10556
2478.44	0.149034
2479.83	0.0827494
2481.21	0.236248
2482.6	-0.0179129
2483.98	0.275803
2485.37	0.286617
2486.75	-0.188021
2488.14	-0.100854
2489.52	0.250322
2490.9	0.24246
2492.29	-0.293405
2493.67	0.213301
2495.06	0.177323
2496.44	0.375135
2497.82	0.279212
2499.2	0.0443888
2500.59	0.19626
2501.97	-0.00831985
2503.35	0.049015
2504.73	-0.388225
2506.11	-0.470726
2507.49	-0.0453758
2508.88	0.102409
2510.26	0.204205
2511.63	0.168339
2513.01	0.041316
2514.39	-0.329738
2515.77	0.0199327
2517.15	0.431081
2518.53	-0.0903015
2519.91	0.428126
2521.29	0.212661
2522.67	0.103646
2524.05	0.329521
2525.42	-0.238156
2526.8	-0.0590076
2528.18	-0.0167198
2529.56	0.0417337
2530.93	0.0408268
2532.31	0.02633
2533.69	0.256226
2535.06	0.0158243
2536.44	0.124825
2537.81	0.536986
2539.19	0.310179
2540.56	0.113033
2541.94	0.143316
2543.31	0.0372801
2544.69	0.00794029
2546.06	-0.080905
2547.44	0.286465
2548.81	0.0478888
2550.18	0.431458
2551.56	0.13174
2552.93	0.331915
2554.3	0.333781
2555.68	-0.0142021
2557.05	0.0773067
2558.42	0.259606
2559.79	0.169186
2561.16	0.170252
2562.53	0.0506926
2563.9	0.325706
2565.28	0.207129
2566.64	0.119089
2568.02	0.258455
2569.38	0.3069
2570.76	0.476598
2572.12	0.0551987
2573.49	0.179534
2574.86	0.167525
2576.23	0.110065
2577.6	0.188972
2578.97	0.0705528
2580.34	0.209557
2581.7	0.211692
2583.07	0.304423
2584.44	0.518175
2585.81	0.337706
2587.17	0.233165
2588.54	0.356151
2589.91	0.297371
2591.27	-0.0949073
2592.64	0.330646
2594	0.346252
2595.37	-0.13889
2596.73	0.117064
2598.1	0.024044
2599.46	0.308731
2600.83	0.0340939
2602.19	-0.0132418
2603.55	0.438241
2604.92	0.286318
2606.28	0.330792
2607.64	0.450307
2609.01	0.0564499
2610.37	0.15892
2611.73	-0.20659
2613.09	0.0288897
2614.46	0.0528641
2615.82	0.10654
2617.18	0.280235
2618.54	0.349338
2619.9	0.419066
2621.26	0.549225
2622.62	0.306166
2623.98	0.168185
2625.34	-0.0442896
2626.7	0.22047
2628.06	0.156695
2629.42	-0.175304
2630.78	0.281542
2632.14	0.291559
2633.5	0.0341234
2634.86	0.0145435
2636.22	0.217406
2637.57	0.375464
2638.93	0.11873
2640.29	0.158436
2641.64	-0.00865459
2643	0.134987
2644.36	0.219532
2645.72	0.274367
2647.07	-0.143001
2648.43	0.205564
2649.78	0.27312
2651.14	0.35456
2652.49	0.273967
2653.85	-0.231728
2655.2	0.129014
2656.56	0.314428
2657.91	0.471426
2659.27	0.380442
2660.62	-0.0609679
2661.97	0.287091
2663.33	-0.0668964
2664.68	0.293999
2666.03	0.493191
2667.38	0.108637
2668.74	0.365314
2670.09	0.359925
2671.44	0.195116
2672.79	0.190963
2674.14	0.52141
2675.49	0.256973
2676.84	0.457596
2678.2	0.600694
2679.55	0.324042
2680.89	0.251473
2682.24	0.180061
2683.59	0.00826406
2684.94	0.0403576
2686.29	0.247027
2687.64	0.0617876
2688.99	0.122129
2690.34	-0.312716
2691.69	0.281369
2693.04	0.0611253
2694.38	0.478164
2695.73	0.111956
2697.08	0.282651
2698.43	0.121385
2699.77	0.33824
2701.12	0.180285
2702.46	0.0671625
2703.81	0.259257
2705.16	0.234555
2706.5	0.398435
2707.85	-0.105301
2709.19	0.15953
2710.54	0.482275
2711.88	0.441795
2713.23	0.473786
2714.57	0.273157
2715.92	-0.000369549
2717.26	0.540269
2718.6	0.411738
2719.95	0.210016
2721.29	0.502586
2722.63	0.270763
2723.97	0.387765
2725.32	0.227776
2726.66	0.14019
2728	0.226942
2729.34	-0.0503731
2730.68	0.487051
2732.02	0.0786333
2733.36	0.397731
2734.7	-0.083087
2736.04	0.410837
2737.39	0.192176
2738.72	-0.055582
2740.06	0.176341
2741.4	0.23327
2742.74	0.420376
2744.08	-0.0327554
2745.42	0.458101
2746.76	0.134924
2748.1	0.189222
2749.44	-0.00315714
2750.77	0.0803604
2752.11	-0.0824223
2753.45	-0.0274911
2754.78	0.15795
2756.12	0.0537143
2757.46	-0.122715
2758.79	-0.211971
2760.13	0.1044
2761.47	0.175109
2762.8	-0.303602
2764.14	-0.0151081
2765.47	0.0997214
2766.81	0.0694237
2768.14	0.00932264
2769.48	0.135997
2770.81	0.203346
2772.14	0.399241
2773.48	-0.214258
2774.81	0.398174
2776.14	0.0588164
2777.48	-0.164496
2778.81	0.245784
2780.14	0.339816
2781.47	-0.226561
2782.81	-0.0458531
2784.14	0.163228
2785.47	0.157018
2786.8	0.0650415
2788.13	-0.126558
2789.46	0.312301
2790.79	-0.0778742
2792.12	-0.023818
2793.46	-0.0837197
2794.79	0.0422359
2796.11	-0.0893817
2797.44	-0.15003
2798.77	-0.268281
2800.1	0.126945
2801.43	-0.0490661
2802.76	0.0315433
2804.09	-0.0164442
2805.42	0.00640869
2806.74	0.227909
2808.07	0.164014
2809.4	-0.0139141
2810.73	-0.177352
2812.05	0.0289626
2813.38	-0.0475736
2814.71	0.0332794
2816.03	0.228859
2817.36	0.227046
2818.68	-0.156877
2820.01	-0.00219393
2821.33	0.208746
2822.66	0.0930586
2823.98	0.203488
2825.31	0.0302253
2826.63	0.494325
2827.96	0.378241
2829.28	0.234428
2830.61	0.27512
2831.93	0.131996
2833.25	0.342696
2834.57	0.241676
2835.9	0.451544
2837.22	0.830604
2838.54	0.954418
2839.86	0.752686
2841.18	1.41359
2842.51	1.5092
2843.83	1.43587
2845.15	1.73076
2846.47	2.35134
2847.79	2.25159
2849.11	1.89744
2850.43	2.32033
2851.75	2.00771
2853.07	2.37295
2854.39	2.1018
2855.71	2.15547
2857.03	2.27974
2858.35	2.23454
2859.67	2.62712
2860.98	2.11571
2862.3	2.74765
2863.62	2.39094
2864.94	2.65497
2866.25	2.83419
2867.57	2.81615
2868.89	3.03829
2870.21	2.92246
2871.52	3.17333
2872.84	3.60704
2874.15	3.20845
2875.47	3.11883
2876.78	3.47864
2878.1	3.48542
2879.42	3.53407
2880.73	3.35809
2882.04	3.25342
2883.36	3.69768
2884.67	3.59515
2885.99	3.29679
2887.3	3.56006
2888.61	3.40179
2889.93	3.14459
2891.24	3.48964
2892.55	3.45533
2893.87	3.84112
2895.18	3.66687
2896.49	3.6616
2897.8	3.60149
2899.11	3.73838
2900.42	3.96003
2901.74	3.91638
2903.05	3.85899
2904.36	4.10948
2905.67	4.23438
2906.98	3.87033
2908.29	4.31843
2909.6	4.13798
2910.91	4.58782
2912.22	4.33798
2913.53	4.99726
2914.83	4.57712
2916.14	5.33111
2917.45	5.14539
2918.76	4.80479
2920.07	5.54117
2921.37	5.87236
2922.68	5.5897
2923.99	5.99361
2925.3	5.89558
2926.6	5.97999
2927.91	5.75693
2929.22	6.12062
2930.52	6.10625
2931.83	5.83975
2933.13	6.17406
2934.44	5.97718
2935.74	6.06
2937.05	5.97531
2938.35	5.93277
2939.66	5.63904
2940.96	5.82099
2942.27	5.37506
2943.57	5.22385
2944.87	5.12997
2946.18	5.1492
2947.48	4.83334
2948.78	4.92291
2950.09	4.82936
2951.39	4.46786
2952.69	4.51043
2953.99	4.63553
2955.29	4.38225
2956.6	4.26993
2957.9	3.94979
2959.2	4.02438
2960.5	3.82174
2961.8	3.56493
2963.1	3.99602
2964.4	3.30406
2965.7	3.00317
2967	2.95337
2968.3	2.8882
2969.6	2.83634
2970.9	2.7703
2972.2	2.66234
2973.49	2.47026
2974.79	2.79894
2976.09	2.12755
2977.39	2.18701
2978.69	2.30119
2979.98	2.48406
2981.28	2.17302
2982.58	1.56635
2983.88	1.56506
2985.17	1.26969
2986.47	1.63633
2987.76	1.41418
2989.06	1.19301
2990.36	1.70293
2991.65	1.10218
2992.95	1.55455
2994.24	1.10634
2995.54	0.966339
2996.83	0.811751
2998.12	1.00797
2999.42	0.727365
3000.71	0.391457
3002	0.252612
3003.3	0.464606
3004.59	0.466505
3005.88	0.552232
3007.18	0.301417
3008.47	0.00813484
3009.76	0.147887
3011.05	0.28681
3012.35	0.285555
3013.64	0.354101
3014.93	-0.0370288
3016.22	0.381071
3017.51	0.353915
3018.8	0.202126
3020.09	0.231437
3021.38	-0.0593119
3022.67	0.0523787
3023.96	-0.0728755
3025.25	-0.32333
3026.54	0.00826502
3027.83	0.201356
3029.12	-0.102478
3030.41	0.0791864
3031.69	0.137847
3032.98	0.142341
3034.27	-0.363402
3035.56	-0.206999
3036.85	0.017066
3038.13	0.156556
3039.42	-0.160093
3040.71	-0.0375829
3041.99	-0.355407
3043.28	0.204863
3044.57	-0.0156994
3045.85	0.271806
3047.14	0.205781
3048.42	0.142237
3049.71	0.121844
3050.99	0.294132
3052.28	0.0988836
3053.56	0.40861
3054.85	0.199317
3056.13	0.343806
3057.42	0.241822
3058.7	0.139254
3059.98	0.390652
3061.27	-0.18788
3062.55	0.296079
3063.83	0.481964
3065.11	0.438302
3066.4	0.300964
3067.68	0.423028
3068.96	0.0424666
3070.24	0.0288982
3071.52	0.0418224
3072.8	0.244091
3074.09	-0.370475
3075.37	0.0473728
3076.65	0.0572047
3077.93	0.0132141
3079.21	-0.165296
3080.49	-0.00306988
3081.77	0.391306
3083.05	-0.0404735
3084.32	0.193278
3085.61	-0.0883927
3086.88	0.226761
3088.16	0.0798979
3089.44	-0.257486
3090.72	-0.0658569
3092	-0.186341
3093.27	0.00546217
3094.55	0.0213132
3095.83	0.132463
3097.11	0.12179
3098.38	0.0840993
3099.66	0.330984
3100.94	0.0359454
3102.21	0.0662875
3103.49	0.137629
3104.76	0.00653362
3106.04	0.498853
3107.31	0.180157
3108.59	0.200923
3109.86	-0.129084
3111.14	0.151096
3112.41	0.188528
3113.69	0.172303
3114.96	0.359581
3116.23	0.221247
3117.51	0.4484
3118.78	0.498386
3120.05	0.16773
3121.33	0.378818
3122.6	0.399639
3123.87	0.433941
3125.14	0.603981
3126.42	0.598536
3127.69	0.269116
3128.96	0.359862
3130.23	0.0859847
3131.5	0.447882
3132.77	0.647455
3134.04	0.52255
3135.31	0.707928
3136.58	0.798324
3137.85	0.888289
3139.12	0.466031
3140.39	0.623289
3141.66	0.874684
3142.93	0.843975
3144.2	0.787115
3145.47	0.543364
3146.74	0.649367
3148	0.501492
3149.27	0.756272
