200.388	0.755637
202.204	0.754092
204.019	0.754333
205.832	0.391243
207.646	0.612701
209.459	0.688077
211.274	1.58842
213.087	1.22443
214.899	0.932841
216.711	0.738335
218.524	1.31956
220.335	1.34435
222.146	1.51568
223.956	0.648644
225.766	0.991775
227.576	0.948589
229.388	1.09858
231.197	1.34471
233.005	0.456763
234.813	0.00436497
236.621	-0.036294
238.429	0.769124
240.236	1.16786
242.045	0.581163
243.852	1.17792
245.658	1.00328
247.464	0.440857
249.269	0.237816
251.074	0.490472
252.879	0.8368
254.683	0.578023
256.487	0.82558
258.291	0.158282
260.094	0.216269
261.897	0.830653
263.702	-0.0223227
265.504	0.33069
267.306	0.00972843
269.108	0.243023
270.909	0.0900631
272.71	0.225442
274.511	-0.146734
276.311	0.0823517
278.111	-0.461516
279.91	0.7274
281.709	0.444624
283.508	0.28067
285.306	0.307847
287.105	-0.0497274
288.9	-0.478344
290.698	-0.426086
292.495	-0.0133486
294.291	0.496352
296.088	0.0270891
297.884	0.0615301
299.679	0.192301
301.475	-0.297973
303.27	0.715619
305.064	-0.134272
306.858	-0.101617
308.652	-0.28364
310.444	0.535934
312.237	-0.025095
314.03	0.749611
315.822	0.216805
317.615	0.257653
319.406	0.776872
321.198	0.654527
322.987	0.509274
324.778	0.627043
326.568	0.98404
328.358	0.43353
330.148	-0.0225811
331.935	0.117641
333.724	0.61522
335.513	-0.205313
337.301	0.335725
339.089	0.276344
340.875	0.0240612
342.662	0.0102482
344.449	-0.0513048
346.236	0.126676
348.02	0.209896
349.806	0.00731087
351.592	0.115277
353.375	-0.254508
355.16	-0.505761
356.944	0.45797
358.728	-0.177267
360.51	0.258792
362.294	0.098403
364.077	-0.0149088
365.858	0.108865
367.64	-0.409185
369.422	-0.0971222
371.202	-0.070775
372.983	0.640997
374.764	0.358221
376.543	0.524749
378.324	0.762313
380.102	0.152431
381.881	0.698371
383.661	0.609945
385.438	1.22844
387.216	0.0385189
388.993	0.142766
390.771	0.295103
392.548	0.213541
394.324	0.508476
396.101	0.663033
397.875	0.0192652
399.651	0.408784
401.425	0.516064
403.201	0.48181
404.974	0.141473
406.749	0.0822678
408.524	0.492042
410.296	0.596171
412.07	0.113642
413.841	0.171448
415.614	0.253527
417.385	0.383442
419.156	0.373346
420.928	-0.363974
422.698	0.330197
424.469	0.507382
426.238	-0.349351
428.009	0.295547
429.777	-0.609369
431.548	-0.0120058
433.315	0.257041
435.083	-0.107189
436.852	0.584754
438.618	0.125997
440.387	0.0647802
442.153	0.423722
443.919	0.00638103
445.686	-0.131258
447.451	-0.0124874
449.218	0.245878
450.982	0.0833406
452.746	-0.452061
454.512	0.156634
456.275	0.438079
458.038	0.765528
459.803	0.347883
461.565	0.466434
463.327	0.0751896
465.091	0.0817919
466.852	0.230828
468.613	0.0109491
470.374	0.00223541
472.136	-0.145368
473.896	-0.0843172
475.655	0.860055
477.415	-0.0610962
479.176	0.48321
480.934	0.513878
482.692	0.358334
484.45	0.367052
486.21	0.0750027
487.967	0.367679
489.724	-0.060112
491.481	-0.347402
493.237	0.907519
494.995	0.738479
496.75	0.194478
498.506	0.352045
500.26	0.345248
502.015	0.572447
503.771	0.611155
505.525	1.23622
507.279	0.614133
509.032	0.672004
510.785	0.445786
512.537	0.617818
514.289	1.21173
516.041	0.815857
517.793	0.959734
519.546	0.632209
521.297	0.750554
523.047	1.29095
524.797	0.703869
526.547	0.633477
528.297	0.399051
530.046	0.25849
531.795	0.773472
533.543	1.07631
535.291	0.44182
537.039	0.975347
538.787	0.549075
540.534	0.682105
542.281	0.417936
544.027	0.0608988
545.773	0.564427
547.519	0.0921345
549.264	0.200747
551.01	0.239864
552.754	0.626048
554.499	0.872956
556.243	0.657966
557.987	0.144019
559.73	0.484008
561.474	0.524717
563.216	0.174935
564.959	-0.104778
566.701	-0.222692
568.441	0.119474
570.182	-0.455577
571.923	0.0722818
573.664	0.418073
575.405	0.12336
577.145	0.380977
578.885	0.594247
580.624	0.0735912
582.361	0.839334
584.1	0.47876
585.839	0.622749
587.577	-0.131698
589.315	0.00958538
591.052	-0.264246
592.787	0.243595
594.524	0.52114
596.26	0.177502
597.997	0.316953
599.732	0.479021
601.466	0.180113
603.201	-0.326985
604.936	0.0843477
606.67	-0.149436
608.403	-0.246041
610.136	0.0244675
611.87	0.0886478
613.603	0.0618153
615.334	0.0815163
617.067	0.353397
618.799	0.510037
620.529	0.276263
622.26	0.110061
623.991	0.720387
625.72	0.0733538
627.451	0.227205
629.181	0.519775
630.909	0.63209
632.638	0.107627
634.368	0.268844
636.095	0.0417633
637.823	0.201017
639.551	0.768268
641.277	0.30547
643.005	0.364881
644.73	-0.123648
646.457	0.79928
648.184	0.245061
649.908	0.217197
651.634	1.0339
653.357	0.445838
655.083	0.0653172
656.806	1.07537
658.53	0.994479
660.253	0.296932
661.977	0.692655
663.7	0.995132
665.422	0.70085
667.145	0.632959
668.865	0.724236
670.588	0.861877
672.308	0.429491
674.027	0.663215
675.749	0.280704
677.468	0.793532
679.188	0.480789
680.907	1.24688
682.627	0.401871
684.345	1.14184
686.064	0.268332
687.781	0.0836401
689.498	1.21073
691.216	0.425191
692.932	1.43567
694.65	0.740776
696.366	0.897056
698.081	0.798735
699.797	0.814176
701.512	1.10433
703.228	0.51967
704.942	1.51979
706.655	1.00312
708.371	1.28937
710.083	0.933139
711.796	1.51573
713.51	0.632998
715.222	1.73981
716.934	1.13211
718.645	0.685245
720.358	0.991426
722.068	1.61605
723.779	0.87445
725.49	0.725028
727.2	1.62038
728.909	0.857059
730.618	1.40958
732.329	1.57554
734.037	1.65041
735.745	1.13746
737.453	1.50652
739.16	1.08596
740.869	1.4786
742.576	1.53404
744.282	1.861
745.988	1.51407
747.694	1.73131
749.401	1.50002
751.107	1.78747
752.811	1.46901
754.516	2.09681
756.22	2.11894
757.924	1.76004
759.627	1.62762
761.332	1.85697
763.035	2.40313
764.738	2.00147
766.44	2.45661
768.142	2.63891
769.843	2.77357
771.544	2.31788
773.245	2.78761
774.946	2.71399
776.646	2.73136
778.346	2.77278
780.046	2.79334
781.745	2.47587
783.444	2.9505
785.143	1.56795
786.841	2.46895
788.539	2.03095
790.237	2.0873
791.934	2.41174
793.631	3.04983
795.328	1.99439
797.024	2.63219
798.72	1.96452
800.416	2.20001
802.112	2.30184
803.807	2.17947
805.502	1.89969
807.196	2.02372
808.89	1.96668
810.584	1.93085
812.278	3.08251
813.971	2.34952
815.664	1.86369
817.354	2.42991
819.047	2.12358
820.739	1.6616
822.43	2.31638
824.122	2.07912
825.813	1.82137
827.503	1.63291
829.192	1.69237
830.882	1.55453
832.571	2.42214
834.261	2.80249
835.95	2.38153
837.637	2.22769
839.325	2.05011
841.013	2.07167
842.701	1.84599
844.389	1.99949
846.074	1.90783
847.761	1.79558
849.447	1.66341
851.131	2.02629
852.817	1.65229
854.503	2.35557
856.188	1.53282
857.871	1.4492
859.556	1.18369
861.24	2.15431
862.922	1.29949
864.606	2.02008
866.289	2.08637
867.97	1.74606
869.653	1.94637
871.336	1.74035
873.016	1.96267
874.698	1.37265
876.379	1.93336
878.058	1.59144
879.739	1.27187
881.418	1.22276
883.098	1.91789
884.778	1.61854
886.456	2.1077
888.135	1.42161
889.812	0.644189
891.49	1.15073
893.167	0.641773
894.845	1.415
896.523	1.42135
898.198	0.842731
899.875	1.2738
901.55	1.45657
903.226	1.21307
904.901	1.3946
906.576	1.28568
908.25	1.64586
909.925	1.53845
911.598	1.43225
913.271	1.17142
914.945	1.53317
916.617	0.940416
918.291	0.681122
919.962	1.19739
921.635	1.24868
923.306	1.32315
924.978	1.1562
926.648	1.01344
928.318	1.64507
929.989	1.10816
931.659	2.00632
933.328	0.963212
934.998	1.0896
936.666	0.642955
938.336	1.1676
940.004	2.00232
941.671	1.4047
943.34	0.984161
945.007	0.894378
946.673	1.75262
948.339	1.13004
950.007	1.18971
951.672	0.586146
953.337	1.17393
955.004	1.36604
956.669	1.45079
958.333	0.789029
959.997	0.83587
961.662	1.525
963.326	1.19828
964.989	1.00213
966.651	0.670297
968.315	0.910738
969.977	1.43654
971.639	1.2091
973.301	0.805256
974.962	0.800994
976.624	0.51108
978.285	1.2402
979.945	0.985774
981.605	0.730838
983.264	0.861863
984.924	1.23442
986.583	1.0292
988.243	0.888545
989.901	1.01203
991.56	1.00206
993.217	0.395532
994.875	0.142983
996.532	0.442393
998.188	1.42497
999.845	0.731404
1001.5	1.27153
1003.16	1.12826
1004.81	0.962828
1006.47	0.951324
1008.12	1.48894
1009.78	1.1703
1011.43	1.13766
1013.09	0.689139
1014.74	1.05202
1016.39	1.34923
1018.05	0.640178
1019.7	1.66044
1021.35	1.5223
1023	1.69149
1024.65	1.92729
1026.31	1.74853
1027.96	1.83207
1029.61	1.93674
1031.26	1.69055
1032.91	2.03217
1034.56	2.69877
1036.21	1.85842
1037.86	1.60656
1039.51	1.48556
1041.16	1.56121
1042.8	1.65994
1044.45	1.89089
1046.1	2.03701
1047.75	1.49034
1049.39	1.24964
1051.04	1.24926
1052.69	1.20635
1054.33	1.35942
1055.98	1.33871
1057.62	1.16552
1059.27	1.2744
1060.91	1.49134
1062.56	1.27255
1064.2	0.965785
1065.85	1.00581
1067.49	1.06638
1069.13	1.40829
1070.77	1.05425
1072.42	0.982535
1074.06	0.954775
1075.7	1.05828
1077.34	1.68366
1078.98	1.00921
1080.62	1.39824
1082.27	1.05005
1083.91	0.76603
1085.55	1.17409
1087.18	1.16799
1088.82	1.18125
1090.46	1.32237
1092.1	1.2025
1093.74	1.85971
1095.38	2.10592
1097.02	1.18854
1098.65	1.56659
1100.29	1.34335
1101.93	0.821217
1103.56	0.73164
1105.2	0.665049
1106.84	0.728179
1108.47	0.791032
1110.11	1.21826
1111.74	1.06321
1113.38	0.970966
1115.01	1.30682
1116.64	0.418689
1118.28	0.732425
1119.91	0.403719
1121.54	0.247747
1123.18	1.2916
1124.81	1.03063
1126.44	1.64774
1128.07	0.939631
1129.7	0.809863
1131.33	1.02284
1132.97	0.851332
1134.6	0.957633
1136.23	1.04188
1137.86	1.14634
1139.49	0.437752
1141.11	0.00623035
1142.74	0.236108
1144.37	0.188596
1146	0.397655
1147.63	0.330512
1149.26	0.903488
1150.88	-0.0355616
1152.51	0.324871
1154.14	0.237715
1155.76	0.10764
1157.39	0.530686
1159.01	0.273216
1160.64	-0.153363
1162.27	-0.21722
1163.89	0.0388842
1165.51	0.104186
1167.14	-0.574883
1168.76	0.36089
1170.39	0.48695
1172.01	0.101016
1173.63	0.902641
1175.25	0.513716
1176.88	0.167202
1178.5	-0.0514832
1180.12	0.535218
1181.74	0.0643778
1183.36	-0.00347614
1184.98	0.203531
1186.6	0.536077
1188.22	0.275678
1189.84	0.0347872
1191.46	-0.249615
1193.08	0.0538998
1194.7	0.271746
1196.32	0.530911
1197.94	0.413431
1199.55	0.130728
1201.17	-0.00269985
1202.79	0.305274
1204.41	0.386045
1206.02	0.364721
1207.64	0.803813
1209.25	0.450499
1210.87	1.03503
1212.48	0.0954638
1214.1	0.0713634
1215.71	0.274076
1217.33	0.682598
1218.94	0.819034
1220.56	0.830478
1222.17	1.17444
1223.79	0.0479717
1225.4	0.746932
1227.01	1.01205
1228.62	1.34049
1230.23	0.863735
1231.85	1.17407
1233.46	1.15494
1235.07	0.971863
1236.68	0.728084
1238.29	0.774776
1239.9	1.02902
1241.51	1.01475
1243.12	0.420889
1244.73	0.736474
1246.34	1.07178
1247.94	1.38532
1249.55	0.725537
1251.16	1.51369
1252.77	1.4538
1254.37	1.06377
1255.98	1.5023
1257.59	1.21824
1259.2	0.749118
1260.8	1.04657
1262.41	1.1377
1264.01	1.27041
1265.62	1.31992
1267.22	0.974851
1268.83	1.10548
1270.43	1.33872
1272.03	1.55011
1273.64	1.55303
1275.24	1.0781
1276.85	0.954695
1278.45	1.41052
1280.05	1.59613
1281.65	0.767097
1283.25	1.38705
1284.85	1.53144
1286.46	1.22192
1288.06	1.34773
1289.66	1.61919
1291.26	1.25062
1292.86	1.95648
1294.46	1.44253
1296.06	1.17527
1297.66	1.7116
1299.25	1.87417
1300.85	2.22036
1302.45	1.63762
1304.05	1.42527
1305.65	1.62374
1307.24	1.24618
1308.84	1.40251
1310.43	1.39457
1312.03	1.3461
1313.63	1.33944
1315.22	1.82432
1316.82	1.83985
1318.41	2.03966
1320.01	1.54593
1321.6	1.41872
1323.2	1.39185
1324.79	1.36318
1326.38	1.51576
1327.98	1.56594
1329.57	1.49504
1331.16	1.44626
1332.76	0.975666
1334.35	1.11397
1335.94	1.73818
1337.53	0.970745
1339.12	2.05799
1340.71	1.49031
1342.3	1.56523
1343.89	1.49711
1345.48	0.885849
1347.07	1.35891
1348.66	1.61236
1350.25	1.32769
1351.84	1.38624
1353.43	0.967195
1355.01	0.949618
1356.6	1.11234
1358.19	1.35447
1359.77	1.45566
1361.36	1.23624
1362.95	0.996194
1364.53	0.975339
1366.12	0.795358
1367.71	0.994765
1369.29	1.19527
1370.88	0.780246
1372.46	0.307154
1374.04	0.531698
1375.63	0.756961
1377.21	0.763494
1378.8	0.550669
1380.38	0.993464
1381.96	1.25573
1383.54	1.17838
1385.13	0.324814
1386.71	0.981483
1388.29	0.466055
1389.87	0.0907001
1391.45	0.23243
1393.03	0.553429
1394.61	0.359035
1396.19	1.4138
1397.77	0.603909
1399.35	0.76451
1400.93	1.16165
1402.51	0.607592
1404.09	0.370638
1405.67	0.173993
1407.24	1.18406
1408.82	0.69265
1410.4	0.399648
1411.98	0.146305
1413.55	0.504516
1415.13	-0.00662041
1416.71	1.09902
1418.28	0.153228
1419.86	0.705903
1421.43	0.589636
1423.01	0.494726
1424.58	0.618033
1426.16	0.97882
1427.73	0.31673
1429.31	1.38649
1430.88	1.23498
1432.45	1.22004
1434.02	0.771272
1435.6	1.6793
1437.17	1.38766
1438.74	2.15839
1440.31	1.86869
1441.88	1.93388
1443.45	1.80334
1445.03	1.9484
1446.6	2.40817
1448.17	4.57839
1449.74	5.03904
1451.3	4.73361
1452.87	3.99616
1454.44	4.7539
1456.01	1.12429
1457.58	1.60553
1459.15	1.3377
1460.72	1.61909
1462.28	1.93773
1463.85	1.23173
1465.42	1.86177
1466.98	1.25312
1468.55	0.881104
1470.12	0.922462
1471.68	1.3573
1473.25	1.08696
1474.81	1.17055
1476.38	1.29379
1477.94	0.711359
1479.51	0.775888
1481.07	1.4871
1482.63	1.51214
1484.2	1.73297
1485.76	1.60074
1487.32	1.38941
1488.88	1.17684
1490.45	1.27559
1492.01	1.76292
1493.57	0.996885
1495.13	1.24508
1496.69	1.27715
1498.25	1.54237
1499.81	0.155459
1501.37	0.675422
1502.93	0.749427
1504.49	0.0879669
1506.05	0.918585
1507.61	0.470641
1509.17	0.563523
1510.73	0.249813
1512.28	0.0901823
1513.84	0.411744
1515.4	0.828751
1516.96	0.669364
1518.51	0.357743
1520.07	0.507184
1521.63	0.407784
1523.18	0.174507
1524.74	0.246489
1526.29	0.202916
1527.85	0.577475
1529.4	0.398993
1530.96	0.467813
1532.51	0.328364
1534.06	0.0765257
1535.62	0.0722113
1537.17	-0.00674725
1538.72	0.0661421
1540.28	-0.105867
1541.83	0.457284
1543.38	0.0782309
1544.93	0.658638
1546.48	0.204616
1548.03	0.614482
1549.59	0.273704
1551.14	0.570451
1552.69	0.680038
1554.24	0.360472
1555.79	0.304227
1557.34	0.193743
1558.88	0.234491
1560.43	0.258381
1561.98	0.0972633
1563.53	0.198401
1565.08	0.337437
1566.62	0.663237
1568.17	0.858262
1569.72	0.362327
1571.27	0.855275
1572.81	0.153269
1574.36	0.77648
1575.9	0.802358
1577.45	0.660415
1579	0.92959
1580.54	0.172449
1582.09	0.835146
1583.63	0.564921
1585.17	0.46343
1586.72	0.904517
1588.26	0.654078
1589.8	0.964588
1591.35	0.975416
1592.89	1.30408
1594.43	0.920888
1595.97	2.01762
1597.52	1.07257
1599.06	1.55245
1600.6	1.58328
1602.14	1.40818
1603.68	0.725883
1605.22	1.22585
1606.76	0.95436
1608.3	1.22591
1609.84	1.53277
1611.38	0.728562
1612.92	0.862047
1614.46	0.937779
1615.99	0.919168
1617.53	0.638572
1619.07	0.827745
1620.61	1.29912
1622.14	1.11628
1623.68	1.25262
1625.22	0.771261
1626.75	1.11282
1628.29	0.985212
1629.82	0.837631
1631.36	1.10033
1632.9	1.06343
1634.43	1.28819
1635.96	1.21496
1637.5	0.956215
1639.03	1.18303
1640.57	1.63339
1642.1	1.52392
1643.63	1.33895
1645.16	1.46932
1646.7	1.74734
1648.23	1.8016
1649.76	1.59619
1651.29	1.80028
1652.82	1.46754
1654.36	2.0262
1655.89	1.93644
1657.42	2.32845
1658.95	2.36746
1660.48	1.79414
1662.01	1.79346
1663.53	2.36462
1665.06	2.08456
1666.59	1.6392
1668.12	2.09927
1669.65	1.47281
1671.18	1.32752
1672.7	1.49657
1674.23	0.911002
1675.76	1.65109
1677.29	1.13844
1678.81	1.1954
1680.34	0.68128
1681.86	0.295645
1683.39	1.14046
1684.91	0.589571
1686.44	1.32344
1687.96	0.718879
1689.49	0.70157
1691.01	1.08733
1692.54	0.887151
1694.06	0.522486
1695.58	0.761334
1697.11	0.798681
1698.63	0.653032
1700.15	0.580135
1701.67	0.433875
1703.2	0.269046
1704.72	0.395306
1706.24	0.211593
1707.76	0.0460911
1709.28	0.062417
1710.8	0.459889
1712.32	0.367249
1713.84	-0.0874481
1715.36	0.562947
1716.88	0.000293732
1718.4	0.667419
1719.91	0.123462
1721.43	0.0135784
1722.95	0.409177
1724.47	-0.149777
1725.99	0.0133839
1727.5	0.393601
1729.02	0.21664
1730.54	-0.0669603
1732.05	-0.00909042
1733.57	0.0291004
1735.09	-0.0582523
1736.6	0.0665092
1738.12	0.135856
1739.63	-0.0738888
1741.15	-0.0464039
1742.66	0.318293
1744.18	0.392781
1745.69	0.23531
1747.2	0.0207396
1748.72	-0.0498142
1750.23	0.277992
1751.74	0.208044
1753.25	0.283782
1754.77	0.0211668
1756.28	0.101359
1757.79	-0.0723276
1759.3	0.481106
1760.81	0.804832
1762.32	0.312449
1763.83	-0.251957
1765.34	-0.031703
1766.85	0.0674343
1768.36	0.0467491
1769.87	0.0475149
1771.38	0.0649729
1772.89	0.163775
1774.4	-0.0233326
1775.91	-0.193061
1777.41	-0.0612268
1778.92	-0.111398
1780.43	0.0418453
1781.94	-0.0178375
1783.44	-0.146443
1784.95	0.121848
1786.45	0.171945
1787.96	-0.135
1789.47	-0.123242
1790.97	-0.245049
1792.48	0.15012
1793.98	0.355198
1795.48	-0.14887
1796.99	-0.0535192
1798.49	0.109593
1800	0.363883
1801.5	-0.00534725
1803	-0.0175638
1804.51	-0.0666285
1806.01	-0.225623
1807.51	-0.00384903
1809.01	0.0136166
1810.51	-0.111234
1812.02	0.0759287
1813.52	-0.366744
1815.02	0.0795116
1816.52	0.137453
1818.02	-0.0096674
1819.52	-0.147688
1821.02	0.316311
1822.52	-0.0214567
1824.02	-0.149212
1825.51	-0.0948782
1827.01	0.0073204
1828.51	-0.118917
1830.01	0.330143
1831.51	0.163716
1833	0.204915
1834.5	0.240026
1836	0.11319
1837.5	-0.0239315
1838.99	0.0799656
1840.49	-0.0302258
1841.98	-0.210313
1843.48	0.145367
1844.97	0.306944
1846.47	0.228166
1847.96	-0.00461102
1849.46	0.135988
1850.95	0.286745
1852.45	0.429816
1853.94	0.0779476
1855.43	0.161748
1856.92	0.326518
1858.42	-0.137766
1859.91	0.001688
1861.4	-0.102824
1862.89	-0.00580406
1864.39	0.393524
1865.88	0.284495
1867.37	-0.0380211
1868.86	0.293357
1870.35	0.298945
1871.84	0.288276
1873.33	0.138817
1874.82	0.458561
1876.31	0.213719
1877.8	-0.0126705
1879.29	-0.376434
1880.77	-0.276407
1882.26	0.271596
1882.51	0.37569
1884	-0.129374
1885.5	0.0970955
1886.99	0.0961275
1888.48	0.00763893
1889.98	0.128173
1891.47	0.162515
1892.97	0.459086
1894.46	0.131396
1895.95	0.274561
1897.44	0.140278
1898.93	-0.150725
1900.42	0.0269976
1901.92	0.272832
1903.41	-0.143929
1904.9	0.689903
1906.39	0.549186
1907.88	-0.0082016
1909.37	0.042985
1910.86	0.320524
1912.35	0.407906
1913.84	0.218277
1915.32	-0.404724
1916.81	0.445854
1918.3	0.116912
1919.79	0.428821
1921.28	0.16883
1922.76	-0.038702
1924.25	-0.210746
1925.74	0.345306
1927.22	0.175217
1928.71	0.161509
1930.2	-0.215889
1931.68	0.306439
1933.17	0.204029
1934.65	0.4116
1936.14	-0.178437
1937.62	0.372274
1939.11	0.247952
1940.59	0.175841
1942.08	0.242637
1943.56	0.569069
1945.04	0.0855865
1946.53	0.292305
1948.01	0.29187
1949.49	-0.329414
1950.97	-0.12455
1952.45	0.182493
1953.94	0.179076
1955.42	0.278667
1956.9	0.464329
1958.38	-0.19058
1959.86	0.339478
1961.34	-0.142128
1962.82	0.285255
1964.3	0.198118
1965.78	0.0420876
1967.26	0.467503
1968.74	0.190497
1970.22	0.460262
1971.69	0.199886
1973.17	-0.0089817
1974.65	0.669426
1976.13	0.0687304
1977.61	0.490949
1979.08	0.282894
1980.56	0.568365
1982.03	0.581299
1983.51	-0.255395
1984.99	0.317622
1986.46	0.194149
1987.94	0.341988
1989.41	0.455997
1990.89	0.452002
1992.36	0.144437
1993.84	0.379054
1995.31	0.580429
1996.78	0.461091
1998.26	0.409338
1999.73	0.0195637
2001.2	0.118918
2002.68	0.487576
2004.15	0.366838
2005.62	0.0443087
2007.09	0.379593
2008.56	0.244029
2010.04	0.361838
2011.51	0.597924
2012.98	0.514194
2014.45	0.463738
2015.92	0.2948
2017.39	0.226023
2018.86	0.173345
2020.33	-0.0814285
2021.8	0.48679
2023.27	0.601523
2024.74	0.481987
2026.2	0.262978
2027.67	0.565281
2029.14	0.332231
2030.61	0.335205
2032.07	0.154468
2033.54	0.49445
2035.01	0.599541
2036.47	0.704331
2037.94	0.388578
2039.41	0.492457
2040.87	0.512262
2042.34	0.498781
2043.8	0.603715
2045.27	0.793704
2046.73	0.311164
2048.2	0.468494
2049.66	0.760508
2051.12	0.242509
2052.59	0.599715
2054.05	0.752911
2055.51	0.550273
2056.98	0.717277
2058.44	0.344151
2059.9	0.897558
2061.36	0.74374
2062.82	0.759109
2064.29	1.16252
2065.75	0.977826
2067.21	0.726646
2068.67	0.930422
2070.13	0.696879
2071.59	0.934714
2073.05	0.936736
2074.51	0.534345
2075.97	0.75465
2077.43	0.654642
2078.88	0.688965
2080.34	0.672318
2081.8	1.04237
2083.26	1.05813
2084.72	1.24141
2086.17	1.33971
2087.63	0.932851
2089.09	0.828451
2090.54	1.07668
2092	0.888072
2093.46	1.15261
2094.91	1.04764
2096.37	1.07638
2097.82	0.719181
2099.28	0.914176
2100.73	1.05837
2102.19	1.87094
2103.64	1.54769
2105.09	1.12602
2106.55	1.89061
2108	1.20477
2109.46	1.75356
2110.91	1.25128
2112.36	1.36456
2113.81	1.42602
2115.27	1.46911
2116.72	1.32831
2118.17	1.66974
2119.62	1.84601
2121.07	2.14022
2122.52	1.75631
2123.97	2.12031
2125.42	2.08698
2126.87	2.40156
2128.32	1.88611
2129.77	1.9163
2131.22	2.34257
2132.67	2.23779
2134.12	2.43084
2135.57	1.74821
2137.01	2.52219
2138.46	2.68635
2139.91	2.38988
2141.36	2.69022
2142.8	3.00861
2144.25	2.69935
2145.7	2.70443
2147.14	2.7423
2148.59	3.25978
2150.03	2.73283
2151.48	3.36438
2152.92	2.90126
2154.37	3.69639
2155.81	3.62936
2157.26	3.6121
2158.7	3.57912
2160.15	3.24951
2161.59	3.05437
2163.03	2.99382
2164.48	2.81882
2165.92	3.10939
2167.36	3.38366
2168.8	3.49083
2170.25	3.42968
2171.69	3.43253
2173.13	3.81568
2174.57	3.66481
2176.01	3.24717
2177.45	3.09593
2178.89	3.41111
2180.33	3.17875
2181.77	3.2633
2183.21	3.51484
2184.65	3.33435
2186.09	3.07069
2187.53	2.82359
2188.97	2.60972
2190.41	3.02827
2191.84	2.9472
2193.28	2.89858
2194.72	2.58206
2196.16	2.92943
2197.59	3.02471
2199.03	3.26755
2200.47	2.61158
2201.9	2.58729
2203.34	2.44761
2204.78	1.82843
2206.21	2.17222
2207.65	2.28435
2209.08	2.16435
2210.51	2.67257
2211.95	2.33548
2213.38	2.31207
2214.82	1.87558
2216.25	2.31516
2217.68	2.06252
2219.12	2.12478
2220.55	1.95712
2221.98	1.97098
2223.42	2.16532
2224.85	1.61699
2226.28	1.56121
2227.71	1.78328
2229.14	1.47802
2230.57	1.76318
2232	1.68694
2233.43	1.23468
2234.86	1.19289
2236.29	1.52809
2237.72	1.53785
2239.15	1.48428
2240.58	1.35124
2242.01	1.46472
2243.44	1.12278
2244.87	0.781172
2246.3	1.40129
2247.73	1.33475
2249.15	0.923735
2250.58	0.901983
2252.01	0.748327
2253.43	1.19582
2254.86	0.830404
2256.29	0.824117
2257.71	1.22575
2259.14	0.575431
2260.56	0.787831
2261.99	0.483258
2263.41	0.618382
2264.84	0.428947
2266.26	0.401576
2267.69	0.503591
2269.11	0.425813
2270.54	0.965852
2271.96	0.70781
2273.38	0.514627
2274.81	0.663518
2276.23	0.861548
2277.65	0.538318
2279.07	1.0301
2280.49	0.511063
2281.92	0.72563
2283.34	0.61392
2284.76	0.404285
2286.18	1.07618
2287.6	0.589534
2289.02	0.462323
2290.44	0.253695
2291.86	0.38844
2293.28	0.327168
2294.7	0.543969
2296.12	0.155243
2297.54	0.388403
2298.96	-0.344758
2300.38	0.413066
2301.79	0.31918
2303.21	0.471551
2304.63	0.0168896
2306.05	0.43212
2307.46	-0.204141
2308.88	0.358537
2310.3	-0.279295
2311.71	0.315777
2313.13	0.253021
2314.55	0.45394
2315.96	0.491032
2317.38	0.528891
2318.79	0.0891705
2320.21	-0.466691
2321.62	0.312542
2323.03	-0.295781
2324.45	0.232535
2325.86	0.659624
2327.27	0.738466
2328.69	0.701107
2330.1	0.00510788
2331.51	0.232562
2332.93	0.29627
2334.34	0.0481091
2335.75	0.162204
2337.16	-0.102418
2338.57	-0.367719
2339.99	0.1714
2341.4	0.397043
2342.81	0.277282
2344.22	0.223245
2345.63	0.398975
2347.04	0.263552
2348.45	-0.199058
2349.86	0.0910845
2351.26	0.24935
2352.67	-0.263174
2354.08	0.0565701
2355.49	-0.0650454
2356.9	-0.1867
2358.31	-0.0804267
2359.71	-0.0717602
2361.12	-0.176634
2362.53	-0.281291
2363.94	0.13244
2365.34	-0.03719
2366.75	0.165421
2368.15	0.255151
2369.56	0.152083
2370.97	-0.0785675
2372.37	-0.0338559
2373.78	-0.0526929
2375.18	-0.103353
2376.59	-0.106021
2377.99	0.0994139
2379.39	0.656664
2380.8	0.0876813
2382.2	0.224096
2383.61	-0.0570469
2385.01	-0.0337954
2386.41	0.373186
2387.81	0.700286
2389.22	0.214739
2390.62	-0.236929
2392.02	-0.081912
2393.42	0.105636
2394.82	0.0233889
2396.22	0.196229
2397.63	0.0675683
2399.02	-0.267044
2400.43	-0.0132875
2401.82	-0.0611162
2403.23	-0.0929995
2404.62	0.398791
2406.02	0.0641174
2407.42	0.0779176
2408.82	0.217864
2410.22	0.198852
2411.62	-0.184336
2413.02	-0.281395
2414.41	0.00269365
2415.81	0.0663791
2417.21	-0.090363
2418.61	0.0545421
2420	-0.322792
2421.4	0.0124593
2422.79	0.284141
2424.19	-0.0939779
2425.59	0.0191083
2426.98	0.402129
2428.38	-0.149208
2429.77	0.267377
2431.17	0.0820274
2432.56	0.0712867
2433.96	0.218892
2435.35	-0.158669
2436.74	0.240855
2438.14	-0.0918393
2439.53	0.0509419
2440.92	0.00226355
2442.32	0.159497
2443.71	0.141805
2445.1	0.076386
2446.49	0.0901604
2447.88	0.151351
2449.28	-0.120164
2450.67	0.178768
2452.06	-0.202627
2453.45	-0.0925679
2454.84	0.113139
2456.23	0.00306416
2457.62	0.0989413
2459.01	-0.0425682
2460.4	-0.0738482
2461.79	0.542409
2463.18	0.0985994
2464.57	0.349744
2465.96	-0.0944638
2467.34	0.0614848
2468.73	0.0121355
2470.12	-0.163506
2471.51	0.0862288
2472.89	-0.200534
2474.28	-0.0310745
2475.67	0.310596
2477.05	0.509925
2478.44	0.143521
2479.83	0.154476
2481.21	-0.132336
2482.6	0.129617
2483.98	-0.0945573
2485.37	0.103167
2486.75	0.0651207
2488.14	0.135397
2489.52	-0.325049
2490.9	0.289485
2492.29	-0.0297389
2493.67	-0.300661
2495.06	0.0196314
2496.44	0.418015
2497.82	0.44489
2499.2	0.224352
2500.59	-0.104442
2501.97	0.0920482
2503.35	0.271877
2504.73	-0.0893507
2506.11	0.181366
2507.49	-0.0720224
2508.88	-0.0326276
2510.26	0.191363
2511.63	0.0166073
2513.01	0.0268378
2514.39	-0.436967
2515.77	0.202707
2517.15	-0.0449247
2518.53	0.442092
2519.91	-0.202005
2521.29	0.192905
2522.67	-0.420611
2524.05	0.0489011
2525.42	0.21226
2526.8	-0.157857
2528.18	0.142486
2529.56	0.336966
2530.93	-0.196812
2532.31	0.41091
2533.69	-0.119755
2535.06	-0.224293
2536.44	0.0509686
2537.81	0.158513
2539.19	0.84228
2540.56	-0.0844975
2541.94	0.0514364
2543.31	0.142017
2544.69	0.172662
2546.06	0.356127
2547.44	-0.1115
2548.81	-0.214347
2550.18	0.244312
2551.56	-0.0105906
2552.93	-0.296693
2554.3	0.0385151
2555.68	0.19075
2557.05	-0.0216141
2558.42	0.114786
2559.79	0.266525
2561.16	0.0246425
2562.53	0.0713658
2563.9	0.361096
2565.28	-0.0609937
2566.64	-0.316164
2568.02	-0.237843
2569.38	0.113314
2570.76	0.161389
2572.12	0.467196
2573.49	0.0303707
2574.86	0.275765
2576.23	0.642543
2577.6	-0.158174
2578.97	0.284196
2580.34	-0.0470414
2581.7	0.182396
2583.07	0.441797
2584.44	-0.0722122
2585.81	0.0808125
2587.17	-0.0540485
2588.54	0.432676
2589.91	0.192039
2591.27	0.284713
2592.64	-0.30487
2594	0.0139742
2595.37	-0.0468497
2596.73	-0.169082
2598.1	-0.0347061
2599.46	-0.203193
2600.83	0.187692
2602.19	0.276578
2603.55	0.109398
2604.92	0.229595
2606.28	0.0180497
2607.64	0.303986
2609.01	0.287477
2610.37	-0.0163007
2611.73	-0.110125
2613.09	0.531972
2614.46	0.406005
2615.82	-0.00504494
2617.18	-0.370062
2618.54	0.11982
2619.9	0.459914
2621.26	-0.321244
2622.62	0.0796323
2623.98	0.047163
2625.34	0.0296245
2626.7	-0.0179205
2628.06	-0.199791
2629.42	0.273506
2630.78	0.0168662
2632.14	-0.135388
2633.5	0.0690699
2634.86	-0.0978613
2636.22	0.150709
2637.57	0.2507
2638.93	0.350593
2640.29	-0.259654
2641.64	-0.0704145
2643	0.340412
2644.36	0.219377
2645.72	0.260733
2647.07	0.227971
2648.43	0.268285
2649.78	0.337221
2651.14	0.037859
2652.49	0.34096
2653.85	-0.00187111
2655.2	-0.0795236
2656.56	0.473727
2657.91	0.427205
2659.27	0.00126553
2660.62	0.599664
2661.97	-0.220232
2663.33	-0.280236
2664.68	0.126228
2666.03	0.443928
2667.38	0.0320153
2668.74	0.0284257
2670.09	0.126946
2671.44	0.138575
2672.79	0.00547934
2674.14	-0.21401
2675.49	0.133324
2676.84	0.292262
2678.2	-0.331483
2679.55	0.147858
2680.89	0.17854
2682.24	0.137835
2683.59	0.344733
2684.94	0.40759
2686.29	-0.0223927
2687.64	0.156837
2688.99	0.131863
2690.34	0.265071
2691.69	0.236923
2693.04	-0.0392351
2694.38	0.148022
2695.73	0.1755
2697.08	0.0441713
2698.43	0.0154748
2699.77	-0.359212
2701.12	-0.00836515
2702.46	0.242569
2703.81	0.248312
2705.16	-0.020905
2706.5	0.0287895
2707.85	0.426572
2709.19	0.156548
2710.54	-0.055922
2711.88	-0.196131
2713.23	-0.220302
2714.57	0.336901
2715.92	-0.108869
2717.26	0.186735
2718.6	0.307711
2719.95	0.370212
2721.29	0.5342
2722.63	0.46491
2723.97	0.0603929
2725.32	0.441483
2726.66	0.240011
2728	0.329363
2729.34	0.171099
2730.68	0.0854998
2732.02	0.0580978
2733.36	0.379912
2734.7	0.207283
2736.04	0.0785074
2737.39	0.298934
2738.72	-0.10603
2740.06	-0.118504
2741.4	-0.000514507
2742.74	0.494843
2744.08	0.17547
2745.42	-0.18783
2746.76	0.160347
2748.1	0.362915
2749.44	-0.0875502
2750.77	0.144187
2752.11	0.187512
2753.45	-0.0733223
2754.78	-0.116501
2756.12	0.0142775
2757.46	-0.115505
2758.79	-0.201561
2760.13	-0.142508
2761.47	-0.386942
2762.8	0.295147
2764.14	0.0224905
2765.47	-0.322485
2766.81	0.127905
2768.14	0.0711102
2769.48	-0.116912
2770.81	0.0986209
2772.14	0.197153
2773.48	-0.0661311
2774.81	0.146306
2776.14	-0.116988
2777.48	0.42642
2778.81	-0.0803089
2780.14	0.00336075
2781.47	0.37442
2782.81	-0.474772
2784.14	-0.0895004
2785.47	0.252249
2786.8	0.0924201
2788.13	-0.109706
2789.46	0.533211
2790.79	0.0465474
2792.12	-0.238925
2793.46	0.0479488
2794.79	-0.236937
2796.11	0.12101
2797.44	0.106893
2798.77	0.149405
2800.1	0.105869
2801.43	0.31891
2802.76	0.388991
2804.09	0.430266
2805.42	-0.155572
2806.74	-0.228812
2808.07	-0.00380278
2809.4	0.419466
2810.73	0.174661
2812.05	0.271335
2813.38	0.269632
2814.71	-0.0993795
2816.03	0.397725
2817.36	0.0736532
2818.68	0.132815
2820.01	0.362076
2821.33	0.647614
2822.66	0.677394
2823.98	0.224858
2825.31	0.225478
2826.63	0.127005
2827.96	-0.0700855
2829.28	0.427042
2830.61	0.570611
2831.93	0.870076
2833.25	0.334322
2834.57	0.746661
2835.9	0.535769
2837.22	1.13096
2838.54	1.40011
2839.86	1.23052
2841.18	1.07525
2842.51	1.51411
2843.83	2.10892
2845.15	1.74336
2846.47	2.14159
2847.79	1.79115
2849.11	1.93539
2850.43	2.39029
2851.75	1.96839
2853.07	2.19613
2854.39	2.2256
2855.71	2.65047
2857.03	2.15696
2858.35	2.70886
2859.67	2.89339
2860.98	2.92236
2862.3	2.75333
2863.62	2.75337
2864.94	3.41631
2866.25	3.13374
2867.57	3.19003
2868.89	3.10574
2870.21	3.44482
2871.52	3.58663
2872.84	3.40396
2874.15	3.27696
2875.47	3.57153
2876.78	3.32975
2878.1	3.39695
2879.42	4.0263
2880.73	3.58704
2882.04	3.6267
2883.36	3.63929
2884.67	3.32991
2885.99	3.52663
2887.3	3.76544
2888.61	3.82127
2889.93	4.03058
2891.24	4.36503
2892.55	4.25005
2893.87	4.75135
2895.18	4.24441
2896.49	4.06064
2897.8	4.22789
2899.11	4.77387
2900.42	4.78894
2901.74	4.70658
2903.05	4.45658
2904.36	5.25579
2905.67	5.10411
2906.98	4.81314
2908.29	5.4742
2909.6	5.12897
2910.91	5.38596
2912.22	5.90898
2913.53	5.68937
2914.83	6.16821
2916.14	6.33711
2917.45	6.49017
2918.76	6.53006
2920.07	6.19209
2921.37	7.09942
2922.68	7.00121
2923.99	7.24007
2925.3	7.21462
2926.6	6.88233
2927.91	7.05331
2929.22	7.76908
2930.52	7.08619
2931.83	7.56306
2933.13	6.3482
2934.44	7.29989
2935.74	6.96577
2937.05	7.13494
2938.35	7.27632
2939.66	6.84507
2940.96	7.15495
2942.27	7.08847
2943.57	6.77174
2944.87	6.45634
2946.18	5.97418
2947.48	6.31775
2948.78	6.15743
2950.09	5.63174
2951.39	6.00011
2952.69	5.97436
2953.99	4.82701
2955.29	5.42935
2956.6	5.1926
2957.9	5.18188
2959.2	5.50996
2960.5	5.05676
2961.8	4.99764
2963.1	4.64462
2964.4	4.51513
2965.7	4.94592
2967	4.7008
2968.3	4.4119
2969.6	4.30481
2970.9	3.87401
2972.2	3.47139
2973.49	3.9695
2974.79	3.8344
2976.09	3.83938
2977.39	3.54736
2978.69	3.15505
2979.98	3.56352
2981.28	3.02759
2982.58	2.92751
2983.88	3.06678
2985.17	2.74317
2986.47	2.80053
2987.76	2.64849
2989.06	2.11794
2990.36	2.12159
2991.65	2.32152
2992.95	1.98639
2994.24	1.79065
2995.54	1.91698
2996.83	1.64936
2998.12	1.26947
2999.42	1.52131
3000.71	1.22653
3002	1.35295
3003.3	1.3255
3004.59	1.38216
3005.88	1.27047
3007.18	0.794297
3008.47	0.653579
3009.76	0.62407
3011.05	0.42624
3012.35	0.730906
3013.64	0.811836
3014.93	0.767498
3016.22	0.751656
3017.51	0.625083
3018.8	0.457325
3020.09	0.540108
3021.38	0.399987
3022.67	0.620387
3023.96	0.728497
3025.25	0.489068
3026.54	0.443751
3027.83	0.412712
3029.12	0.520904
3030.41	0.975629
3031.69	0.492104
3032.98	0.216959
3034.27	0.0526466
3035.56	0.577724
3036.85	0.50823
3038.13	0.354539
3039.42	0.32328
3040.71	0.414367
3041.99	0.380797
3043.28	0.689858
3044.57	0.382828
3045.85	0.529135
3047.14	0.567762
3048.42	0.48553
3049.71	0.814677
3050.99	0.367272
3052.28	0.793948
3053.56	0.565613
3054.85	0.350344
3056.13	0.447891
3057.42	0.69429
3058.7	0.653534
3059.98	0.353812
3061.27	0.422119
3062.55	0.504743
3063.83	0.57488
3065.11	0.455998
3066.4	0.447089
3067.68	0.43902
3068.96	0.390461
3070.24	0.436822
3071.52	0.441571
3072.8	0.404387
3074.09	0.0941763
3075.37	0.517074
3076.65	0.0157313
3077.93	0.0852585
3079.21	0.0198994
3080.49	0.186401
3081.77	0.0286088
3083.05	-0.01965
3084.32	-0.080945
3085.61	0.33276
3086.88	0.311789
3088.16	0.181541
3089.44	-0.180079
3090.72	-0.24351
3092	0.0863357
3093.27	-0.0314879
3094.55	0.149274
3095.83	-0.0766053
3097.11	-0.0448174
3098.38	0.163043
3099.66	-0.293318
3100.94	0.076745
3102.21	-0.000302792
3103.49	0.193634
3104.76	-0.0994153
3106.04	0.027741
3107.31	-0.115057
3108.59	-0.0811062
3109.86	0.197351
3111.14	-0.0377722
3112.41	-0.340178
3113.69	0.251821
3114.96	0.437557
3116.23	0.0262737
3117.51	-0.019804
3118.78	0.367152
3120.05	0.0477967
3121.33	-0.0418129
3122.6	0.0442414
3123.87	0.129977
3125.14	0.0126281
3126.42	0.315252
3127.69	0.279843
3128.96	0.0419788
3130.23	0.0613942
3131.5	0.310625
3132.77	0.54598
3134.04	0.605149
3135.31	0.501698
3136.58	0.127937
3137.85	0.320372
3139.12	0.215736
3140.39	0.259093
3141.66	0.208214
3142.93	0.386009
3144.2	0.295348
3145.47	0.473597
3146.74	0.156112
3148	0.268251
3149.27	-0.128076
