200.388	0.337188
202.204	0.341214
204.019	0.346696
205.832	-0.0599947
207.646	0.725568
209.459	0.684077
211.274	0.690445
213.087	-0.0809422
214.899	0.336463
216.711	0.510579
218.524	-0.1387
220.335	0.278728
222.146	-0.0288525
223.956	0.390375
225.766	0.640919
227.576	0.4085
229.388	0.127906
231.197	0.378255
233.005	-0.191905
234.813	-0.134041
236.621	0.0216169
238.429	0.420478
240.236	-0.575977
242.045	0.0450487
243.852	0.0409412
245.658	0.0612164
247.464	0.273443
249.269	-0.241014
251.074	0.352379
252.879	0.701557
254.683	-0.229736
256.487	-0.702236
258.291	0.344879
260.094	0.9594
261.897	0.0823841
263.702	-0.118157
265.504	0.260785
267.306	0.0620451
269.108	0.200608
270.909	-0.0230246
272.71	-0.0306444
274.511	0.587397
276.311	-0.0014677
278.111	-0.254301
279.91	-0.00289249
281.709	0.511127
283.508	0.036582
285.306	0.378483
287.105	0.0709877
288.9	0.315698
290.698	-0.0141191
292.495	0.208568
294.291	0.528327
296.088	0.658136
297.884	-0.0951509
299.679	-0.0110292
301.475	0.574606
303.27	0.10859
305.064	0.143038
306.858	0.224318
308.652	0.400711
310.444	-0.256359
312.237	0.160162
314.03	0.506753
315.822	-0.12098
317.615	0.32476
319.406	0.772414
321.198	-0.160578
322.987	0.40871
324.778	0.478162
326.568	0.404676
328.358	0.689351
330.148	0.352251
331.935	0.49203
333.724	0.0800123
335.513	0.144367
337.301	0.517608
339.089	0.290565
340.875	0.946957
342.662	0.0721321
344.449	0.536109
346.236	-0.0745459
348.02	-0.134865
349.806	0.259013
351.592	0.247093
353.375	0.688082
355.16	0.459903
356.944	0.302152
358.728	0.167094
360.51	-0.207061
362.294	0.51312
364.077	0.684566
365.858	0.451143
367.64	0.407274
369.422	0.955456
371.202	0.246229
372.983	0.768214
374.764	0.556025
376.543	0.462441
378.324	0.39321
380.102	0.984704
381.881	1.29397
383.661	1.48663
385.438	0.88128
387.216	1.14733
388.993	1.15606
390.771	1.07199
392.548	0.941914
394.324	1.00043
396.101	0.519261
397.875	0.836719
399.651	0.0736666
401.425	0.648969
403.201	0.589504
404.974	-0.17528
406.749	0.303986
408.524	0.312935
410.296	-0.288753
412.07	0.517948
413.841	0.456594
415.614	0.302142
417.385	0.500469
419.156	-0.23917
420.928	0.124399
422.698	0.323533
424.469	0.522063
426.238	-0.219372
428.009	0.0948191
429.777	0.244156
431.548	-0.310682
433.315	0.261359
435.083	0.505151
436.852	-0.166362
438.618	-0.228308
440.387	0.435842
442.153	-0.35667
443.919	0.0920143
445.686	0.631973
447.451	0.608054
449.218	-0.538796
450.982	0.442562
452.746	-0.118161
454.512	-0.211234
456.275	0.231899
458.038	0.138544
459.803	0.185003
461.565	0.139009
463.327	-0.137877
465.091	0.0988951
466.852	0.17572
468.613	0.046051
470.374	0.127449
472.136	-0.0230846
473.896	-0.314165
475.655	-0.327655
477.415	-0.343198
479.176	0.221847
480.934	0.389806
482.692	0.534526
484.45	1.02974
486.21	1.03791
487.967	-0.0470896
489.724	0.198065
491.481	0.421275
493.237	0.972641
494.995	0.776912
496.75	0.62752
498.506	0.618124
500.26	1.49935
502.015	0.973177
503.771	1.03243
505.525	1.02003
507.279	0.865068
509.032	0.731878
510.785	1.46753
512.537	0.625056
514.289	1.28692
516.041	1.59423
517.793	1.61781
519.546	0.394327
521.297	1.45029
523.047	0.860761
524.797	1.11658
526.547	0.879435
528.297	1.0646
530.046	0.991666
531.795	0.0752001
533.543	0.727327
535.291	0.41837
537.039	0.318834
538.787	-0.108779
540.534	0.396199
542.281	-0.195604
544.027	0.539718
545.773	0.0416336
547.519	0.241165
549.264	0.509997
551.01	0.130037
552.754	0.121178
554.499	0.158712
556.243	-0.172931
557.987	-0.226844
559.73	0.410968
561.474	0.449666
563.216	0.373854
564.959	0.758427
566.701	-0.418901
568.441	-0.0788784
570.182	0.169977
571.923	0.167586
573.664	-0.0855665
575.405	0.511746
577.145	0.514313
578.885	0.0590944
580.624	0.522899
582.361	-0.0927286
584.1	0.348067
585.839	0.098279
587.577	0.46822
589.315	0.653006
591.052	0.215624
592.787	0.352859
594.524	0.30584
596.26	-0.132283
597.997	0.211782
599.732	0.716523
601.466	0.714275
603.201	0.388761
604.936	1.00455
606.67	0.56141
608.403	0.163822
610.136	0.179615
611.87	0.126985
613.603	0.120992
615.334	-0.159379
617.067	0.431235
618.799	0.654481
620.529	-0.199403
622.26	0.0445471
623.991	0.333026
625.72	0.186997
627.451	0.0877581
629.181	-0.351891
630.909	-0.173099
632.638	0.258585
634.368	0.645795
636.095	-0.245451
637.823	-0.248119
639.551	0.248816
641.277	0.058217
643.005	-0.0205545
644.73	0.833073
646.457	-0.40749
648.184	-0.235072
649.908	0.0308533
651.634	-0.267823
653.357	0.34617
655.083	0.0314636
656.806	0.0599499
658.53	0.112241
660.253	0.323998
661.977	0.192122
663.7	0.126403
665.422	0.378363
667.145	-0.171783
668.865	0.237661
670.588	-0.107111
672.308	0.0531292
674.027	0.582211
675.749	0.541236
677.468	0.684994
679.188	0.140237
680.907	0.214186
682.627	0.884732
684.345	0.287938
686.064	0.840007
687.781	1.04527
689.498	0.857851
691.216	1.08427
692.932	1.35609
694.65	0.82095
696.366	0.699471
698.081	0.0704041
699.797	1.23543
701.512	0.650244
703.228	0.984105
704.942	0.48995
706.655	0.271382
708.371	1.22226
710.083	0.704749
711.796	0.80586
713.51	0.586213
715.222	0.96093
716.934	0.170448
718.645	0.887035
720.358	0.987114
722.068	0.813917
723.779	1.00511
725.49	1.12763
727.2	0.545531
728.909	0.826387
730.618	1.24228
732.329	0.569806
734.037	0.373615
735.745	1.4662
737.453	0.276311
739.16	0.533122
740.869	0.610042
742.576	1.09347
744.282	0.924744
745.988	1.16263
747.694	1.15428
749.401	1.05729
751.107	0.556758
752.811	1.65446
754.516	1.56151
756.22	1.98765
757.924	0.884722
759.627	1.74207
761.332	1.74504
763.035	1.47783
764.738	2.04543
766.44	2.34152
768.142	2.68118
769.843	3.08648
771.544	3.15034
773.245	2.14969
774.946	2.82181
776.646	2.74827
778.346	2.83441
780.046	2.69613
781.745	2.46856
783.444	2.30897
785.143	2.32924
786.841	1.8943
788.539	2.022
790.237	1.94257
791.934	1.72476
793.631	2.25074
795.328	1.76021
797.024	2.06031
798.72	1.34815
800.416	1.80917
802.112	1.82123
803.807	1.74406
805.502	1.8242
807.196	2.03826
808.89	1.24032
810.584	2.17022
812.278	2.24564
813.971	1.64813
815.664	2.03637
817.354	2.17786
819.047	1.67103
820.739	2.14776
822.43	1.41919
824.122	1.94112
825.813	1.68387
827.503	0.938963
829.192	2.22366
830.882	1.23971
832.571	2.01819
834.261	1.72963
835.95	1.46414
837.637	1.64455
839.325	1.10951
841.013	1.64465
842.701	1.50848
844.389	0.991829
846.074	0.810819
847.761	0.899627
849.447	1.46066
851.131	1.10693
852.817	1.18034
854.503	1.27731
856.188	1.26207
857.871	0.975943
859.556	0.665236
861.24	0.127214
862.922	0.758553
864.606	1.20893
866.289	0.847146
867.97	1.29629
869.653	0.797936
871.336	0.68256
873.016	1.01817
874.698	1.24098
876.379	0.470922
878.058	1.05487
879.739	0.893982
881.418	1.36482
883.098	0.390178
884.778	1.13021
886.456	1.46243
888.135	0.0104923
889.812	0.926193
891.49	0.802723
893.167	0.835792
894.845	0.665136
896.523	0.223995
898.198	0.860765
899.875	0.799842
901.55	0.805512
903.226	1.1015
904.901	0.971932
906.576	1.02145
908.25	0.893114
909.925	1.32266
911.598	0.751105
913.271	0.625891
914.945	1.23401
916.617	0.975917
918.291	0.718234
919.962	1.52397
921.635	1.08993
923.306	0.724051
924.978	1.64149
926.648	1.16881
928.318	0.896887
929.989	1.04563
931.659	0.290449
933.328	0.528489
934.998	0.634292
936.666	0.65226
938.336	0.560768
940.004	0.470432
941.671	0.690079
943.34	0.425118
945.007	0.380659
946.673	0.511769
948.339	0.288016
950.007	0.084609
951.672	0.519967
953.337	0.69039
955.004	-0.0639696
956.669	1.05865
958.333	0.111364
959.997	0.0487061
961.662	-0.100891
963.326	0.898684
964.989	0.239207
966.651	0.992638
968.315	0.128396
969.977	-0.00771618
971.639	0.695887
973.301	0.559252
974.962	0.600926
976.624	0.666476
978.285	-0.062829
979.945	0.679666
981.605	1.42227
983.264	0.492434
984.924	0.313318
986.583	1.19465
988.243	0.104573
989.901	-0.255988
991.56	-0.152654
993.217	1.38609
994.875	-0.41014
996.532	0.663882
998.188	0.0829725
999.845	1.00101
1001.5	0.794407
1003.16	0.895762
1004.81	0.66678
1006.47	0.767644
1008.12	0.495164
1009.78	0.508662
1011.43	0.105909
1013.09	0.449277
1014.74	0.66121
1016.39	0.91709
1018.05	0.582446
1019.7	0.817558
1021.35	0.659994
1023	1.64025
1024.65	1.83439
1026.31	1.76694
1027.96	1.78696
1029.61	1.71895
1031.26	1.56234
1032.91	1.92808
1034.56	1.57165
1036.21	1.71564
1037.86	1.35745
1039.51	2.02278
1041.16	1.2522
1042.8	1.15791
1044.45	1.08724
1046.1	0.71455
1047.75	0.539386
1049.39	0.192142
1051.04	1.0407
1052.69	0.130702
1054.33	0.372371
1055.98	0.396836
1057.62	0.964534
1059.27	1.37976
1060.91	0.576755
1062.56	0.0555944
1064.2	0.707746
1065.85	0.858715
1067.49	0.465188
1069.13	0.961726
1070.77	0.436521
1072.42	0.888438
1074.06	0.255547
1075.7	0.404972
1077.34	0.729109
1078.98	0.317138
1080.62	0.816739
1082.27	0.839316
1083.91	1.72834
1085.55	1.48815
1087.18	1.61433
1088.82	1.39167
1090.46	0.821269
1092.1	0.877522
1093.74	1.51622
1095.38	0.686736
1097.02	0.764949
1098.65	0.865936
1100.29	0.839402
1101.93	0.836355
1103.56	-0.00385666
1105.2	0.0609522
1106.84	0.534984
1108.47	0.664591
1110.11	0.212609
1111.74	0.081809
1113.38	0.508122
1115.01	0.116932
1116.64	0.111826
1118.28	0.342637
1119.91	0.166727
1121.54	0.634362
1123.18	0.267892
1124.81	0.351995
1126.44	0.265789
1128.07	0.265937
1129.7	0.159879
1131.33	0.71717
1132.97	0.376836
1134.6	0.186093
1136.23	0.208554
1137.86	-0.496453
1139.49	0.164923
1141.11	0.205653
1142.74	0.13915
1144.37	0.392745
1146	0.220392
1147.63	0.0491037
1149.26	0.304872
1150.88	0.284117
1152.51	0.00786972
1154.14	0.263697
1155.76	-0.162051
1157.39	0.00807667
1159.01	0.837788
1160.64	0.413299
1162.27	0.330249
1163.89	0.418303
1165.51	0.230487
1167.14	0.191304
1168.76	0.448793
1170.39	-0.400642
1172.01	0.0234661
1173.63	-0.552431
1175.25	-0.216376
1176.88	0.245863
1178.5	-0.0762072
1180.12	0.830563
1181.74	0.362005
1183.36	-0.0630159
1184.98	0.040782
1186.6	0.460367
1188.22	-0.19827
1189.84	0.0488329
1191.46	-0.464309
1193.08	0.0737419
1194.7	0.231606
1196.32	0.0116291
1197.94	0.525959
1199.55	-0.402389
1201.17	0.219536
1202.79	0.0078001
1204.41	-0.222107
1206.02	0.196957
1207.64	0.387685
1209.25	-0.422575
1210.87	-0.107038
1212.48	0.373611
1214.1	0.0598927
1215.71	0.285861
1217.33	-0.05196
1218.94	0.503493
1220.56	0.476392
1222.17	0.201123
1223.79	0.0104246
1225.4	0.421897
1227.01	0.151426
1228.62	-0.138109
1230.23	0.690262
1231.85	0.857853
1233.46	0.303203
1235.07	0.328522
1236.68	0.313652
1238.29	0.465148
1239.9	0.265846
1241.51	0.893993
1243.12	0.549796
1244.73	0.949652
1246.34	0.582963
1247.94	0.049757
1249.55	0.488367
1251.16	0.988624
1252.77	0.454707
1254.37	0.604113
1255.98	0.485651
1257.59	0.926896
1259.2	0.603847
1260.8	0.902461
1262.41	0.518426
1264.01	0.507033
1265.62	0.370941
1267.22	0.503567
1268.83	1.4854
1270.43	0.683312
1272.03	1.1864
1273.64	0.589615
1275.24	0.862638
1276.85	1.0103
1278.45	1.69564
1280.05	0.536952
1281.65	1.69702
1283.25	1.40801
1284.85	1.22318
1286.46	1.2461
1288.06	0.670668
1289.66	0.922943
1291.26	1.32033
1292.86	1.49031
1294.46	2.03136
1296.06	1.14584
1297.66	1.08511
1299.25	0.713336
1300.85	0.856028
1302.45	1.0385
1304.05	1.2197
1305.65	0.926974
1307.24	1.06565
1308.84	1.71662
1310.43	0.911139
1312.03	0.988025
1313.63	0.922308
1315.22	0.632895
1316.82	0.957406
1318.41	0.771923
1320.01	0.729356
1321.6	1.17492
1323.2	0.682105
1324.79	1.34734
1326.38	1.40052
1327.98	1.45298
1329.57	0.918602
1331.16	1.4387
1332.76	1.13149
1334.35	0.766433
1335.94	1.3115
1337.53	0.686776
1339.12	1.09019
1340.71	0.987962
1342.3	0.903993
1343.89	0.59718
1345.48	1.21354
1347.07	0.665405
1348.66	0.380471
1350.25	1.13901
1351.84	1.03891
1353.43	0.741006
1355.01	0.884305
1356.6	0.688227
1358.19	0.511853
1359.77	0.634272
1361.36	1.07493
1362.95	0.696414
1364.53	0.317989
1366.12	0.61764
1367.71	0.04146
1369.29	0.780679
1370.88	0.227177
1372.46	0.590471
1374.04	0.417522
1375.63	0.563577
1377.21	0.829154
1378.8	0.915199
1380.38	0.701818
1381.96	0.348032
1383.54	0.56994
1385.13	0.114912
1386.71	0.673102
1388.29	0.416702
1389.87	0.558114
1391.45	0.799464
1393.03	0.525649
1394.61	0.0341787
1396.19	1.04978
1397.77	0.755851
1399.35	0.243214
1400.93	0.700625
1402.51	0.325611
1404.09	0.544464
1405.67	0.209883
1407.24	0.330975
1408.82	-0.100487
1410.4	0.495928
1411.98	0.539058
1413.55	0.739546
1415.13	0.741711
1416.71	0.841663
1418.28	0.606039
1419.86	0.627028
1421.43	1.1806
1423.01	0.770733
1424.58	0.657819
1426.16	0.998796
1427.73	0.710481
1429.31	1.4848
1430.88	1.21507
1432.45	1.59366
1434.02	1.38088
1435.6	1.93476
1437.17	1.24984
1438.74	1.29325
1440.31	1.84861
1441.88	1.40255
1443.45	1.76298
1445.03	1.5342
1446.6	1.83626
1448.17	1.76503
1449.74	1.53677
1451.3	1.46619
1452.87	1.53377
1454.44	1.73945
1456.01	1.33526
1457.58	1.99298
1459.15	1.92141
1460.72	1.35611
1462.28	1.55648
1463.85	1.63708
1465.42	0.890962
1466.98	1.24534
1468.55	1.38367
1470.12	0.973224
1471.68	0.956504
1473.25	0.725044
1474.81	1.55333
1476.38	1.14654
1477.94	1.07324
1479.51	1.03908
1481.07	1.37723
1482.63	1.73478
1484.2	1.46508
1485.76	2.09628
1487.32	1.82548
1488.88	1.49478
1490.45	1.63214
1492.01	1.35652
1493.57	1.5089
1495.13	1.2299
1496.69	1.18428
1498.25	0.866056
1499.81	0.996148
1501.37	0.855152
1502.93	0.948304
1504.49	0.480249
1506.05	0.206891
1507.61	0.436339
1509.17	0.220053
1510.73	0.968027
1512.28	0.383552
1513.84	0.16588
1515.4	-0.147211
1516.96	0.827276
1518.51	1.05229
1520.07	0.377079
1521.63	0.641146
1523.18	0.464724
1524.74	0.211621
1526.29	0.415863
1527.85	0.237869
1529.4	0.402122
1530.96	0.110139
1532.51	0.691637
1534.06	0.514892
1535.62	-0.000945091
1537.17	0.92119
1538.72	0.652899
1540.28	0.574069
1541.83	0.966455
1543.38	0.266388
1544.93	-0.0376482
1546.48	0.710563
1548.03	0.218689
1549.59	0.683728
1551.14	0.45514
1552.69	0.86347
1554.24	0.63642
1555.79	0.373614
1557.34	0.691335
1558.88	0.48807
1560.43	0.920894
1561.98	0.683544
1563.53	0.820337
1565.08	0.696467
1566.62	0.609974
1568.17	0.877858
1569.72	0.902788
1571.27	0.684676
1572.81	1.26895
1574.36	0.58371
1575.9	0.645154
1577.45	0.688092
1579	0.638038
1580.54	0.849901
1582.09	0.390186
1583.63	0.510074
1585.17	0.873624
1586.72	1.10702
1588.26	0.77963
1589.8	0.526613
1591.35	0.740976
1592.89	0.992486
1594.43	1.24386
1595.97	0.764683
1597.52	1.31636
1599.06	1.4378
1600.6	1.74758
1602.14	1.23232
1603.68	1.58029
1605.22	1.06378
1606.76	0.902688
1608.3	1.19087
1609.84	1.13863
1611.38	0.99031
1612.92	0.971735
1614.46	0.689195
1615.99	0.912991
1617.53	0.836958
1619.07	1.0805
1620.61	0.707156
1622.14	0.466298
1623.68	0.488343
1625.22	1.24045
1626.75	0.587994
1628.29	1.0947
1629.82	1.61841
1631.36	1.2995
1632.9	1.14865
1634.43	1.24087
1635.96	0.848606
1637.5	0.998363
1639.03	0.906201
1640.57	1.03779
1642.1	1.07559
1643.63	1.20545
1645.16	1.53874
1646.7	1.83349
1648.23	1.1612
1649.76	1.73428
1651.29	1.41677
1652.82	1.52736
1654.36	1.62036
1655.89	1.80659
1657.42	1.58501
1658.95	1.23322
1660.48	1.02866
1662.01	2.17351
1663.53	1.15271
1665.06	0.982607
1666.59	1.4959
1668.12	1.21637
1669.65	1.10441
1671.18	1.215
1672.7	0.829185
1674.23	1.32794
1675.76	0.997758
1677.29	1.14557
1678.81	1.1451
1680.34	0.408201
1681.86	0.737206
1683.39	0.900195
1684.91	0.806089
1686.44	1.04249
1687.96	0.454211
1689.49	0.123368
1691.01	0.269115
1692.54	0.268363
1694.06	0.395582
1695.58	0.266561
1697.11	0.228801
1698.63	0.610789
1700.15	0.316665
1701.67	0.441919
1703.2	0.694054
1704.72	0.162233
1706.24	0.431443
1707.76	0.754464
1709.28	0.223113
1710.8	0.128288
1712.32	0.215075
1713.84	0.809147
1715.36	-0.172687
1716.88	0.673929
1718.4	0.452689
1719.91	0.358139
1721.43	0.570593
1722.95	0.314428
1724.47	0.20361
1725.99	0.112027
1727.5	-0.0863504
1729.02	0.202094
1730.54	0.0953627
1732.05	0.00801182
1733.57	0.0778446
1735.09	0.178409
1736.6	0.800479
1738.12	0.250786
1739.63	0.287156
1741.15	-0.00158501
1742.66	0.235394
1744.18	0.32655
1745.69	0.561047
1747.2	-0.282676
1748.72	0.203842
1750.23	0.0215836
1751.74	0.528889
1753.25	0.261345
1754.77	-0.184131
1756.28	-0.00252247
1757.79	0.492476
1759.3	0.318192
1760.81	0.0708809
1762.32	0.195705
1763.83	-0.180563
1765.34	0.12297
1766.85	0.194293
1768.36	0.0352793
1769.87	0.153394
1771.38	0.350445
1772.89	0.162659
1774.4	0.103588
1775.91	0.20822
1777.41	-0.0408831
1778.92	-0.147474
1780.43	0.214689
1781.94	-0.00418186
1783.44	-0.19976
1784.95	-0.19892
1786.45	0.085042
1787.96	0.307219
1789.47	0.00618553
1790.97	0.0109339
1792.48	-0.0170031
1793.98	-0.254202
1795.48	-0.04284
1796.99	-0.0492959
1798.49	0.364553
1800	0.405912
1801.5	0.211712
1803	0.125213
1804.51	0.156818
1806.01	0.332352
1807.51	0.574711
1809.01	0.316336
1810.51	0.202559
1812.02	0.229308
1813.52	0.191687
1815.02	0.108461
1816.52	0.204822
1818.02	0.0608673
1819.52	0.344103
1821.02	0.151778
1822.52	0.0789976
1824.02	0.019557
1825.51	-0.0501504
1827.01	0.0828953
1828.51	0.192953
1830.01	0.240435
1831.51	0.409392
1833	-0.0664554
1834.5	-0.19901
1836	0.0318646
1837.5	-0.00554132
1838.99	0.0664501
1840.49	-0.209365
1841.98	0.195114
1843.48	-0.191511
1844.97	0.118135
1846.47	-0.0709281
1847.96	-0.0454774
1849.46	-0.0236902
1850.95	0.171304
1852.45	0.186687
1853.94	-0.0673785
1855.43	0.0267649
1856.92	0.484593
1858.42	-0.0621591
1859.91	-0.310373
1861.4	0.138782
1862.89	0.305801
1864.39	-0.35818
1865.88	-0.258823
1867.37	0.0511832
1868.86	0.314945
1870.35	0.187171
1871.84	0.0179739
1873.33	0.0466595
1874.82	-0.131803
1876.31	-0.0799789
1877.8	-0.173548
1879.29	0.103123
1880.77	0.110994
1882.26	0.221132
1882.51	0.246359
1884	-0.0520163
1885.5	0.102221
1886.99	0.0639663
1888.48	0.512712
1889.98	0.265188
1891.47	-0.155161
1892.97	0.312815
1894.46	0.191139
1895.95	0.157741
1897.44	-0.0488605
1898.93	0.214033
1900.42	0.162973
1901.92	0.0409179
1903.41	-0.169577
1904.9	-0.0160947
1906.39	0.379791
1907.88	-0.179869
1909.37	0.285593
1910.86	0.612685
1912.35	-0.0136809
1913.84	0.245235
1915.32	0.278704
1916.81	0.398545
1918.3	-0.140781
1919.79	0.220804
1921.28	-0.00685024
1922.76	0.0776558
1924.25	0.19749
1925.74	0.0759177
1927.22	-0.339048
1928.71	-0.16487
1930.2	-0.0599413
1931.68	-0.146166
1933.17	0.216599
1934.65	0.214146
1936.14	0.054503
1937.62	0.0150328
1939.11	0.165262
1940.59	0.505473
1942.08	-0.500066
1943.56	0.0314875
1945.04	0.390922
1946.53	0.267771
1948.01	0.230657
1949.49	0.26182
1950.97	-0.0867138
1952.45	0.510734
1953.94	0.178323
1955.42	0.224318
1956.9	0.0473394
1958.38	0.557665
1959.86	-0.046917
1961.34	0.258314
1962.82	0.237798
1964.3	0.182869
1965.78	0.0419202
1967.26	-0.133711
1968.74	0.220548
1970.22	0.16358
1971.69	-0.0472727
1973.17	0.322433
1974.65	0.282344
1976.13	0.0549817
1977.61	-0.00160789
1979.08	-0.194211
1980.56	0.140721
1982.03	-0.187886
1983.51	0.468905
1984.99	-0.0297723
1986.46	0.150499
1987.94	0.347418
1989.41	0.188681
1990.89	0.0307517
1992.36	0.0429554
1993.84	-0.113052
1995.31	0.0866456
1996.78	0.455526
1998.26	0.317485
1999.73	-0.377957
2001.2	-0.178971
2002.68	0.204937
2004.15	-0.288282
2005.62	-0.0561967
2007.09	0.327901
2008.56	0.342132
2010.04	-0.080595
2011.51	0.406262
2012.98	0.354446
2014.45	0.0666718
2015.92	0.13166
2017.39	0.448084
2018.86	0.645831
2020.33	0.389208
2021.8	0.401408
2023.27	0.346745
2024.74	0.527727
2026.2	-0.212902
2027.67	-0.180538
2029.14	0.0375781
2030.61	0.0388079
2032.07	0.0744414
2033.54	0.127312
2035.01	-0.0884819
2036.47	0.132026
2037.94	0.234575
2039.41	0.185561
2040.87	0.287765
2042.34	-0.29904
2043.8	-0.280053
2045.27	-0.125688
2046.73	0.332511
2048.2	0.319816
2049.66	-0.350471
2051.12	0.714449
2052.59	0.496903
2054.05	0.37884
2055.51	0.377256
2056.98	0.239574
2058.44	0.236077
2059.9	0.602994
2061.36	0.599572
2062.82	0.108747
2064.29	0.611988
2065.75	0.426058
2067.21	0.442855
2068.67	0.477024
2070.13	0.629323
2071.59	0.613369
2073.05	0.782497
2074.51	0.0757799
2075.97	0.480116
2077.43	0.732588
2078.88	0.294255
2080.34	0.411236
2081.8	0.426678
2083.26	0.778167
2084.72	0.489333
2086.17	0.654201
2087.63	0.667036
2089.09	0.780299
2090.54	0.658099
2092	0.48559
2093.46	0.480978
2094.91	0.895397
2096.37	0.638466
2097.82	0.615727
2099.28	1.02758
2100.73	0.61908
2102.19	0.946642
2103.64	1.10753
2105.09	1.08588
2106.55	0.998869
2108	1.19647
2109.46	0.627278
2110.91	1.04143
2112.36	1.08745
2113.81	1.14844
2115.27	1.3908
2116.72	1.01675
2118.17	0.776532
2119.62	1.06906
2121.07	1.32989
2122.52	1.40999
2123.97	1.67392
2125.42	1.32496
2126.87	1.4898
2128.32	1.78621
2129.77	1.45136
2131.22	1.36395
2132.67	1.37515
2134.12	1.53519
2135.57	1.16673
2137.01	1.676
2138.46	1.98857
2139.91	2.08824
2141.36	1.66068
2142.8	1.97822
2144.25	1.9989
2145.7	1.60601
2147.14	2.57017
2148.59	2.27561
2150.03	2.24503
2151.48	2.46192
2152.92	2.09786
2154.37	2.03119
2155.81	2.37822
2157.26	2.29456
2158.7	2.27792
2160.15	1.91478
2161.59	2.44811
2163.03	2.23777
2164.48	2.07857
2165.92	2.11927
2167.36	2.07688
2168.8	2.68173
2170.25	1.78845
2171.69	1.97379
2173.13	2.58971
2174.57	2.35577
2176.01	2.53704
2177.45	2.51892
2178.89	2.40186
2180.33	1.9866
2181.77	1.90475
2183.21	1.84011
2184.65	2.37452
2186.09	2.2105
2187.53	2.16294
2188.97	2.03219
2190.41	1.9846
2191.84	1.97004
2193.28	1.83818
2194.72	2.20447
2196.16	1.61999
2197.59	1.41663
2199.03	1.72726
2200.47	1.75395
2201.9	1.64763
2203.34	1.85734
2204.78	1.03986
2206.21	1.56667
2207.65	1.59654
2209.08	1.52687
2210.51	1.2248
2211.95	1.60029
2213.38	1.13154
2214.82	1.43964
2216.25	1.35176
2217.68	1.00112
2219.12	1.19618
2220.55	1.3425
2221.98	1.1098
2223.42	0.958978
2224.85	1.21866
2226.28	1.0321
2227.71	1.22239
2229.14	1.19755
2230.57	1.36888
2232	0.966056
2233.43	0.826309
2234.86	1.32526
2236.29	1.13828
2237.72	0.887818
2239.15	0.949479
2240.58	0.637829
2242.01	0.719408
2243.44	0.54118
2244.87	0.656889
2246.3	0.347932
2247.73	0.363822
2249.15	0.720142
2250.58	0.976283
2252.01	0.465329
2253.43	0.458645
2254.86	0.354754
2256.29	0.187367
2257.71	0.444136
2259.14	0.816855
2260.56	0.640645
2261.99	0.775012
2263.41	0.537471
2264.84	0.657481
2266.26	0.663503
2267.69	0.62
2269.11	0.380325
2270.54	0.15607
2271.96	0.452305
2273.38	0.390222
2274.81	0.62141
2276.23	-0.434306
2277.65	0.106816
2279.07	0.648291
2280.49	0.456206
2281.92	0.508583
2283.34	0.626172
2284.76	0.254309
2286.18	0.404788
2287.6	0.294448
2289.02	0.690777
2290.44	0.156405
2291.86	0.373819
2293.28	0.166334
2294.7	0.171356
2296.12	0.0944772
2297.54	-0.0316324
2298.96	0.0224104
2300.38	0.256958
2301.79	0.0820422
2303.21	0.481422
2304.63	0.356104
2306.05	-0.163555
2307.46	0.630476
2308.88	0.126131
2310.3	0.591074
2311.71	0.299312
2313.13	0.221245
2314.55	-0.103409
2315.96	0.230985
2317.38	0.302792
2318.79	0.210246
2320.21	-0.0310326
2321.62	0.155546
2323.03	0.0600438
2324.45	0.292586
2325.86	0.605534
2327.27	0.669329
2328.69	0.43569
2330.1	0.317785
2331.51	0.31604
2332.93	0.200098
2334.34	0.068543
2335.75	-0.0627203
2337.16	0.315546
2338.57	0.28171
2339.99	0.000410557
2341.4	-0.100746
2342.81	-0.136564
2344.22	-0.106759
2345.63	0.00519371
2347.04	-0.17756
2348.45	0.18013
2349.86	0.128088
2351.26	0.386026
2352.67	0.185361
2354.08	0.473732
2355.49	0.304505
2356.9	-0.125175
2358.31	0.22675
2359.71	-0.315573
2361.12	-0.0126767
2362.53	-0.310302
2363.94	-0.137704
2365.34	-0.111119
2366.75	0.012547
2368.15	0.217217
2369.56	-0.0292492
2370.97	0.467329
2372.37	-0.195449
2373.78	-0.0193229
2375.18	0.140905
2376.59	0.188058
2377.99	-0.0391283
2379.39	0.439645
2380.8	-0.127317
2382.2	0.36397
2383.61	0.0525312
2385.01	0.125551
2386.41	0.0629377
2387.81	0.0012579
2389.22	-0.338275
2390.62	0.136333
2392.02	0.165512
2393.42	0.243291
2394.82	0.0672822
2396.22	0.16232
2397.63	-0.0123215
2399.02	-0.07513
2400.43	0.196132
2401.82	0.41994
2403.23	0.421396
2404.62	0.343137
2406.02	0.0736723
2407.42	0.327209
2408.82	0.278483
2410.22	-0.372829
2411.62	0.0698872
2413.02	-0.152227
2414.41	-0.0089612
2415.81	0.198851
2417.21	-0.0512753
2418.61	0.570227
2420	0.115363
2421.4	0.13545
2422.79	0.076025
2424.19	0.0321975
2425.59	0.00426054
2426.98	0.00845718
2428.38	0.0926814
2429.77	0.241233
2431.17	-0.260012
2432.56	0.381402
2433.96	0.0700436
2435.35	0.170543
2436.74	-0.0956368
2438.14	0.0817208
2439.53	0.305571
2440.92	0.210895
2442.32	0.179298
2443.71	-0.122279
2445.1	-0.233418
2446.49	0.0517759
2447.88	0.241524
2449.28	0.19349
2450.67	-0.0759621
2452.06	0.0509458
2453.45	-0.153835
2454.84	-0.247051
2456.23	0.467108
2457.62	0.0900273
2459.01	-0.0973253
2460.4	-0.174412
2461.79	0.237992
2463.18	-0.0459738
2464.57	0.222742
2465.96	0.0645757
2467.34	0.222177
2468.73	-0.0621953
2470.12	0.126656
2471.51	0.236118
2472.89	-0.080471
2474.28	-0.0194855
2475.67	-0.0220599
2477.05	0.0222044
2478.44	0.113468
2479.83	0.189041
2481.21	0.0294542
2482.6	0.136417
2483.98	-0.0702796
2485.37	-0.339905
2486.75	0.233732
2488.14	0.305765
2489.52	0.330203
2490.9	0.0431604
2492.29	-0.118348
2493.67	0.109613
2495.06	-0.0960779
2496.44	-0.0368304
2497.82	0.0230708
2499.2	0.0366993
2500.59	-0.367587
2501.97	-0.184597
2503.35	0.043591
2504.73	0.162591
2506.11	0.00345135
2507.49	-0.0632
2508.88	-0.0219774
2510.26	0.219167
2511.63	-0.183983
2513.01	0.349323
2514.39	0.131999
2515.77	-0.176074
2517.15	-0.115971
2518.53	0.280888
2519.91	0.203784
2521.29	0.126541
2522.67	-0.119071
2524.05	0.107767
2525.42	0.318406
2526.8	-0.141554
2528.18	-0.265689
2529.56	-0.115045
2530.93	-0.130429
2532.31	0.0835376
2533.69	-0.00525141
2535.06	-0.0174446
2536.44	-0.105619
2537.81	0.443676
2539.19	0.41482
2540.56	0.26377
2541.94	0.431221
2543.31	-0.0232668
2544.69	0.372676
2546.06	-0.201145
2547.44	0.212038
2548.81	-0.102168
2550.18	-0.325355
2551.56	0.118754
2552.93	0.258612
2554.3	0.154758
2555.68	0.201867
2557.05	-0.130723
2558.42	0.0674729
2559.79	0.114192
2561.16	0.312916
2562.53	0.102971
2563.9	0.045105
2565.28	0.0330806
2566.64	-0.115127
2568.02	0.358102
2569.38	0.285766
2570.76	0.213426
2572.12	-0.146883
2573.49	0.159816
2574.86	0.208917
2576.23	-0.151285
2577.6	0.2465
2578.97	-0.0988407
2580.34	-0.0199313
2581.7	0.119286
2583.07	-0.181521
2584.44	0.230045
2585.81	-0.313492
2587.17	0.128364
2588.54	0.0853271
2589.91	-0.048532
2591.27	0.393356
2592.64	-0.0137448
2594	-0.072968
2595.37	-0.117872
2596.73	0.0331717
2598.1	0.0774884
2599.46	-0.120475
2600.83	0.0596251
2602.19	0.0285187
2603.55	0.118774
2604.92	-0.213075
2606.28	0.134285
2607.64	-0.106953
2609.01	0.0582495
2610.37	-0.169366
2611.73	0.264456
2613.09	-0.160556
2614.46	0.180682
2615.82	0.100834
2617.18	-0.248486
2618.54	-0.147345
2619.9	0.343312
2621.26	-0.182931
2622.62	0.562105
2623.98	0.00723886
2625.34	-0.382795
2626.7	0.0774894
2628.06	0.37292
2629.42	-0.106632
2630.78	0.485601
2632.14	0.0361652
2633.5	0.0627346
2634.86	0.148606
2636.22	0.234309
2637.57	-0.183958
2638.93	0.272056
2640.29	0.180079
2641.64	-0.000241756
2643	0.130168
2644.36	0.186727
2645.72	-0.066668
2647.07	-0.290545
2648.43	0.207111
2649.78	0.379442
2651.14	-0.0225186
2652.49	0.280995
2653.85	0.0412393
2655.2	0.0224304
2656.56	0.165677
2657.91	0.0169764
2659.27	-0.0283928
2660.62	0.321411
2661.97	0.217702
2663.33	0.303468
2664.68	0.14028
2666.03	0.414226
2667.38	0.410414
2668.74	0.30459
2670.09	0.21371
2671.44	0.545064
2672.79	0.0628395
2674.14	-0.0987945
2675.49	0.248229
2676.84	0.145656
2678.2	0.362794
2679.55	0.0730329
2680.89	-0.143263
2682.24	0.119883
2683.59	0.079565
2684.94	0.330134
2686.29	0.174989
2687.64	-0.183595
2688.99	0.0809255
2690.34	0.198903
2691.69	0.0830574
2693.04	0.111071
2694.38	0.16722
2695.73	0.397051
2697.08	-0.0536604
2698.43	-0.039567
2699.77	0.135171
2701.12	0.25345
2702.46	-0.249786
2703.81	0.131406
2705.16	-0.0230436
2706.5	0.315556
2707.85	0.11733
2709.19	0.194398
2710.54	0.125977
2711.88	-0.102524
2713.23	-0.171458
2714.57	0.311862
2715.92	-0.106069
2717.26	-0.131681
2718.6	0.147987
2719.95	0.194652
2721.29	0.677539
2722.63	0.0976033
2723.97	0.274059
2725.32	0.115362
2726.66	0.436656
2728	0.408331
2729.34	0.248821
2730.68	0.147413
2732.02	0.336966
2733.36	-0.186264
2734.7	0.279844
2736.04	0.26607
2737.39	-0.0966444
2738.72	0.34052
2740.06	0.355693
2741.4	0.0360222
2742.74	0.573603
2744.08	0.310976
2745.42	0.294941
2746.76	0.0897532
2748.1	0.1023
2749.44	0.405036
2750.77	-0.510577
2752.11	0.198451
2753.45	-0.0783467
2754.78	0.326114
2756.12	0.353851
2757.46	0.0921106
2758.79	0.23604
2760.13	-0.140804
2761.47	0.27877
2762.8	0.264556
2764.14	0.13486
2765.47	-0.501238
2766.81	0.323568
2768.14	-0.139975
2769.48	0.0174227
2770.81	0.375782
2772.14	0.328146
2773.48	0.00550461
2774.81	-0.100807
2776.14	0.0234833
2777.48	-0.0392475
2778.81	0.157411
2780.14	0.354216
2781.47	0.0196815
2782.81	0.101841
2784.14	-0.375495
2785.47	-0.0926208
2786.8	0.0324688
2788.13	-0.200052
2789.46	0.140597
2790.79	0.238567
2792.12	0.194153
2793.46	-0.02139
2794.79	-0.10818
2796.11	0.0905557
2797.44	-0.211219
2798.77	0.414835
2800.1	-0.315843
2801.43	-0.218703
2802.76	-0.00775862
2804.09	-0.0680151
2805.42	0.227487
2806.74	-0.0899305
2808.07	0.118806
2809.4	-0.0710802
2810.73	0.378383
2812.05	-0.0663395
2813.38	-0.410301
2814.71	-0.00140142
2816.03	-0.0451455
2817.36	0.49316
2818.68	0.209876
2820.01	-0.0733995
2821.33	-0.286166
2822.66	0.464193
2823.98	0.264481
2825.31	0.362002
2826.63	0.487823
2827.96	0.359184
2829.28	-0.122859
2830.61	0.683744
2831.93	0.6836
2833.25	0.541849
2834.57	0.413987
2835.9	0.526307
2837.22	0.921103
2838.54	0.834363
2839.86	1.10102
2841.18	1.05658
2842.51	1.13975
2843.83	1.54853
2845.15	1.66113
2846.47	1.43513
2847.79	1.67584
2849.11	2.26994
2850.43	2.18535
2851.75	1.97307
2853.07	2.08537
2854.39	2.36684
2855.71	1.81445
2857.03	1.96853
2858.35	2.10849
2859.67	1.82471
2860.98	2.16215
2862.3	2.25916
2863.62	2.32756
2864.94	2.05702
2866.25	2.77405
2867.57	2.65887
2868.89	2.57235
2870.21	2.51446
2871.52	2.32986
2872.84	3.06115
2874.15	2.77696
2875.47	2.75956
2876.78	2.65669
2878.1	2.65167
2879.42	2.71671
2880.73	2.88034
2882.04	2.62307
2883.36	3.27985
2884.67	2.84196
2885.99	3.19096
2887.3	3.27322
2888.61	3.49535
2889.93	2.60845
2891.24	3.06751
2892.55	3.1472
2893.87	3.32471
2895.18	3.11033
2896.49	3.44277
2897.8	3.24423
2899.11	3.31257
2900.42	3.8293
2901.74	3.50709
2903.05	3.81457
2904.36	3.68855
2905.67	3.87052
2906.98	4.09498
2908.29	3.98452
2909.6	4.01475
2910.91	4.49336
2912.22	4.55225
2913.53	4.55444
2914.83	4.86329
2916.14	5.05844
2917.45	4.93005
2918.76	5.23447
2920.07	5.34271
2921.37	5.71721
2922.68	5.10027
2923.99	5.77085
2925.3	5.50602
2926.6	5.60525
2927.91	5.76048
2929.22	5.85943
2930.52	5.72016
2931.83	5.67829
2933.13	5.91574
2934.44	5.83166
2935.74	5.64989
2937.05	5.37049
2938.35	5.53848
2939.66	5.65084
2940.96	4.95326
2942.27	4.91323
2943.57	5.39149
2944.87	5.10238
2946.18	4.70236
2947.48	4.72237
2948.78	4.50424
2950.09	4.69094
2951.39	3.76983
2952.69	3.99514
2953.99	4.21914
2955.29	3.7428
2956.6	4.10718
2957.9	3.6616
2959.2	3.75036
2960.5	3.6036
2961.8	3.64078
2963.1	3.01938
2964.4	3.60402
2965.7	3.45766
2967	2.88805
2968.3	3.34314
2969.6	3.2072
2970.9	3.28207
2972.2	2.66791
2973.49	2.86995
2974.79	2.74837
2976.09	2.68252
2977.39	2.26354
2978.69	2.27959
2979.98	2.39268
2981.28	2.36385
2982.58	1.9126
2983.88	2.10875
2985.17	1.58894
2986.47	1.71707
2987.76	1.76214
2989.06	1.47085
2990.36	1.74194
2991.65	1.71754
2992.95	1.48145
2994.24	1.25843
2995.54	1.28741
2996.83	1.11922
2998.12	1.47024
2999.42	0.951519
3000.71	0.644028
3002	1.03811
3003.3	0.77375
3004.59	1.07002
3005.88	0.483665
3007.18	0.163255
3008.47	0.640014
3009.76	0.318531
3011.05	0.541827
3012.35	0.0524321
3013.64	0.359015
3014.93	0.261248
3016.22	-0.0586553
3017.51	0.0540776
3018.8	0.598504
3020.09	0.182865
3021.38	0.309449
3022.67	-0.0370078
3023.96	0.213059
3025.25	0.101634
3026.54	-0.0651131
3027.83	0.0456281
3029.12	0.240081
3030.41	-0.020402
3031.69	0.0382934
3032.98	-0.0954037
3034.27	-0.159686
3035.56	0.217176
3036.85	-0.0415573
3038.13	-0.0533295
3039.42	-0.259185
3040.71	0.166511
3041.99	0.384497
3043.28	0.259231
3044.57	-0.152367
3045.85	-0.055706
3047.14	0.0699
3048.42	0.361154
3049.71	0.162691
3050.99	0.102177
3052.28	0.0833817
3053.56	0.214766
3054.85	0.482085
3056.13	0.230226
3057.42	0.359409
3058.7	0.188129
3059.98	0.0849867
3061.27	0.322531
3062.55	0.465497
3063.83	0.228897
3065.11	-0.27812
3066.4	-0.0361853
3067.68	0.24746
3068.96	0.178037
3070.24	0.353299
3071.52	0.568743
3072.8	0.334439
3074.09	0.357574
3075.37	0.149001
3076.65	0.130589
3077.93	0.261911
3079.21	-0.325002
3080.49	0.107062
3081.77	0.0791888
3083.05	0.160962
3084.32	-0.0143719
3085.61	-0.0131602
3086.88	-0.188666
3088.16	0.0561385
3089.44	0.0697503
3090.72	-0.351127
3092	0.109988
3093.27	0.313432
3094.55	-0.0252805
3095.83	0.192366
3097.11	-0.308345
3098.38	0.438121
3099.66	-0.0623446
3100.94	0.304461
3102.21	-0.100677
3103.49	0.388296
3104.76	-0.0699067
3106.04	0.433636
3107.31	-0.036387
3108.59	0.293002
3109.86	0.230928
3111.14	0.481172
3112.41	0.474999
3113.69	0.320216
3114.96	0.504362
3116.23	0.634137
3117.51	0.342919
3118.78	0.457799
3120.05	0.612568
3121.33	0.590373
3122.6	0.703356
3123.87	0.721371
3125.14	0.604294
3126.42	0.690851
3127.69	0.710323
3128.96	0.473404
3130.23	0.548042
3131.5	0.487743
3132.77	0.224853
3134.04	0.448283
3135.31	0.617242
3136.58	0.73177
3137.85	0.872848
3139.12	0.730659
3140.39	0.656054
3141.66	0.716291
3142.93	0.481251
3144.2	0.582783
3145.47	1.00682
3146.74	0.506024
3148	0.63624
3149.27	1.02139
