200.388	0.00527191
202.204	0.0249281
204.019	0.0451651
205.832	1.16082
207.646	0.13642
209.459	0.230265
211.274	0.492975
213.087	0.1472
214.899	0.89227
216.711	0.060173
218.524	0.924717
220.335	0.772107
222.146	0.0642891
223.956	0.155964
225.766	0.272294
227.576	0.219513
229.388	0.118132
231.197	-0.369913
233.005	0.107121
234.813	-0.259948
236.621	-0.1917
238.429	0.529229
240.236	0.939321
242.045	0.0740805
243.852	0.801634
245.658	0.4438
247.464	0.277292
249.269	-0.0368357
251.074	0.515142
252.879	0.146856
254.683	0.693746
256.487	0.540354
258.291	0.508382
260.094	0.719003
261.897	0.329295
263.702	0.567679
265.504	-0.132497
267.306	0.251917
269.108	-0.303925
270.909	-0.0410423
272.71	0.196652
274.511	-0.507344
276.311	0.402337
278.111	-0.160269
279.91	0.55216
281.709	0.298862
283.508	0.164273
285.306	0.797286
287.105	0.636124
288.9	0.691013
290.698	0.315337
292.495	0.252753
294.291	-0.143085
296.088	0.443199
297.884	0.360894
299.679	0.685342
301.475	1.31992
303.27	0.663865
305.064	0.36505
306.858	0.160954
308.652	-0.114716
310.444	0.44428
312.237	0.670527
314.03	0.707833
315.822	0.508933
317.615	0.621448
319.406	0.449739
321.198	0.898781
322.987	0.848303
324.778	0.32104
326.568	0.700543
328.358	0.79359
330.148	0.814345
331.935	0.522943
333.724	1.04305
335.513	0.532171
337.301	0.353862
339.089	0.98684
340.875	0.80462
342.662	0.597733
344.449	0.510386
346.236	0.590774
348.02	0.743435
349.806	1.08754
351.592	1.31222
353.375	0.581711
355.16	0.184513
356.944	0.716195
358.728	-0.0647354
360.51	0.321033
362.294	0.395936
364.077	0.279696
365.858	0.566776
367.64	0.259127
369.422	0.283139
371.202	0.803628
372.983	0.801682
374.764	0.846571
376.543	1.57597
378.324	1.40824
380.102	1.10051
381.881	1.31242
383.661	1.9253
385.438	1.78665
387.216	1.15611
388.993	1.74879
390.771	1.42636
392.548	1.15192
394.324	1.58271
396.101	1.12154
397.875	1.20061
399.651	0.974199
401.425	0.841249
403.201	0.355327
404.974	0.831597
406.749	0.55553
408.524	0.654554
410.296	0.94095
412.07	0.898691
413.841	0.763006
415.614	1.05043
417.385	0.493994
419.156	0.149341
420.928	1.18964
422.698	0.704178
424.469	0.593521
426.238	0.481894
428.009	0.533732
429.777	0.0686321
431.548	0.448505
433.315	-0.110163
435.083	0.950909
436.852	0.392581
438.618	0.584581
440.387	0.962796
442.153	0.799168
443.919	0.563065
445.686	0.489285
447.451	-0.0069685
449.218	0.0115891
450.982	-0.15674
452.746	0.00233364
454.512	0.231337
456.275	0.296812
458.038	-0.0804634
459.803	0.427172
461.565	0.167314
463.327	0.560057
465.091	-0.0906715
466.852	-0.111092
468.613	0.173283
470.374	0.13426
472.136	0.56127
473.896	0.801796
475.655	0.668054
477.415	0.858074
479.176	0.836444
480.934	0.324562
482.692	0.581442
484.45	1.11897
486.21	0.260971
487.967	0.63983
489.724	0.78807
491.481	0.237384
493.237	0.0836334
494.995	1.00559
496.75	0.59493
498.506	0.909536
500.26	0.802127
502.015	0.952027
503.771	1.12472
505.525	1.03788
507.279	0.714309
509.032	0.48293
510.785	1.19094
512.537	1.3562
514.289	1.40213
516.041	1.7288
517.793	1.60708
519.546	1.22571
521.297	1.40773
523.047	1.02541
524.797	1.30045
526.547	1.5517
528.297	1.07588
530.046	0.975394
531.795	1.57726
533.543	0.234717
535.291	0.974554
537.039	1.03397
538.787	0.881622
540.534	0.938193
542.281	0.527877
544.027	0.723007
545.773	0.847901
547.519	0.903049
549.264	0.541047
551.01	0.133782
552.754	0.861042
554.499	0.801309
556.243	0.441899
557.987	0.498698
559.73	0.14119
561.474	0.337356
563.216	0.188767
564.959	0.500706
566.701	1.0426
568.441	-0.435582
570.182	0.429398
571.923	0.515143
573.664	0.304371
575.405	-0.409273
577.145	0.0716801
578.885	0.347702
580.624	0.326225
582.361	0.603601
584.1	0.23702
585.839	-0.015892
587.577	0.833989
589.315	0.32548
591.052	0.483135
592.787	0.0190268
594.524	0.244971
596.26	0.378922
597.997	0.466837
599.732	0.00225639
601.466	0.41108
603.201	0.772474
604.936	-0.0863485
606.67	0.295083
608.403	-0.312224
610.136	0.435102
611.87	-0.675959
613.603	-0.157309
615.334	-0.463494
617.067	0.582482
618.799	0.619491
620.529	0.151776
622.26	-0.156545
623.991	-0.396752
625.72	0.825361
627.451	0.357512
629.181	0.508297
630.909	0.707109
632.638	0.474551
634.368	0.585472
636.095	0.513563
637.823	0.645364
639.551	0.7515
641.277	0.147337
643.005	0.0656519
644.73	0.0738773
646.457	0.127793
648.184	0.092515
649.908	-0.189566
651.634	-0.126986
653.357	0.530462
655.083	0.236783
656.806	-0.396535
658.53	0.0867319
660.253	-0.250747
661.977	0.460187
663.7	0.210069
665.422	0.34589
667.145	0.182537
668.865	0.773039
670.588	0.0604572
672.308	0.264761
674.027	0.425963
675.749	0.108346
677.468	0.342078
679.188	0.0712433
680.907	0.672511
682.627	0.697811
684.345	0.421656
686.064	0.465553
687.781	0.415701
689.498	0.318637
691.216	1.16524
692.932	1.2971
694.65	0.253486
696.366	0.452697
698.081	0.857775
699.797	0.708951
701.512	0.39807
703.228	0.707118
704.942	1.40546
706.655	0.839934
708.371	0.916918
710.083	0.145585
711.796	0.840385
713.51	0.412821
715.222	0.351472
716.934	0.586995
718.645	1.32405
720.358	0.943165
722.068	0.859179
723.779	0.684388
725.49	0.759835
727.2	0.42603
728.909	0.591648
730.618	0.9832
732.329	1.60005
734.037	1.31042
735.745	0.162514
737.453	0.733365
739.16	1.52944
740.869	0.995205
742.576	0.778434
744.282	0.698418
745.988	0.619936
747.694	1.15036
749.401	1.11962
751.107	1.09028
752.811	1.64715
754.516	1.71074
756.22	0.943327
757.924	1.10005
759.627	0.560088
761.332	1.73403
763.035	1.55657
764.738	1.73989
766.44	1.67373
768.142	2.53235
769.843	2.89164
771.544	2.5702
773.245	2.78974
774.946	2.39815
776.646	2.36894
778.346	2.54468
780.046	2.92581
781.745	2.24522
783.444	2.01705
785.143	2.69305
786.841	2.18944
788.539	1.97664
790.237	1.39848
791.934	1.83525
793.631	1.88558
795.328	2.02566
797.024	1.15222
798.72	1.20526
800.416	1.46268
802.112	1.78888
803.807	2.16056
805.502	1.47526
807.196	1.26158
808.89	0.68762
810.584	1.57191
812.278	0.839367
813.971	1.89987
815.664	0.853943
817.354	1.15184
819.047	1.31518
820.739	0.987147
822.43	1.8203
824.122	1.58278
825.813	1.30249
827.503	1.64833
829.192	1.50694
830.882	1.70285
832.571	1.21125
834.261	1.63539
835.95	1.34742
837.637	1.12593
839.325	1.05935
841.013	1.50487
842.701	1.21194
844.389	1.25351
846.074	0.982828
847.761	0.937325
849.447	1.54306
851.131	0.719254
852.817	0.478693
854.503	1.31562
856.188	1.12099
857.871	0.722519
859.556	0.996754
861.24	0.0536613
862.922	0.549703
864.606	1.4731
866.289	0.457415
867.97	0.906206
869.653	1.01643
871.336	0.472198
873.016	0.717224
874.698	0.804291
876.379	0.913961
878.058	0.57229
879.739	1.02048
881.418	1.06207
883.098	1.12551
884.778	0.0817118
886.456	0.571591
888.135	1.19502
889.812	0.666165
891.49	0.970246
893.167	1.02481
894.845	1.32556
896.523	1.04012
898.198	0.574557
899.875	0.647389
901.55	0.338361
903.226	1.37215
904.901	0.347009
906.576	0.418383
908.25	1.58265
909.925	0.69635
911.598	0.769507
913.271	0.265389
914.945	0.606362
916.617	0.547474
918.291	0.599434
919.962	0.518566
921.635	0.195026
923.306	0.536277
924.978	1.16582
926.648	0.0964937
928.318	0.685121
929.989	1.03197
931.659	0.496911
933.328	0.249102
934.998	1.1044
936.666	0.4602
938.336	0.324187
940.004	0.409934
941.671	0.673416
943.34	0.937801
945.007	-0.0337639
946.673	0.406011
948.339	-0.0830555
950.007	0.220643
951.672	-0.293353
953.337	-0.0130434
955.004	0.0260029
956.669	0.133843
958.333	-0.0859938
959.997	0.645808
961.662	0.0991287
963.326	-0.00629044
964.989	0.0414085
966.651	0.263579
968.315	0.173286
969.977	0.058753
971.639	0.51843
973.301	0.934112
974.962	0.0243683
976.624	0.111574
978.285	0.775495
979.945	0.643904
981.605	0.511893
983.264	0.622011
984.924	-0.022501
986.583	-0.137708
988.243	0.740974
989.901	-0.173594
991.56	0.392883
993.217	-0.234203
994.875	0.000436783
996.532	0.632045
998.188	0.380945
999.845	0.0638113
1001.5	0.385334
1003.16	0.221842
1004.81	0.454093
1006.47	0.29032
1008.12	0.588053
1009.78	0.973472
1011.43	0.481642
1013.09	0.648415
1014.74	0.464952
1016.39	0.172651
1018.05	0.800166
1019.7	0.399996
1021.35	0.504073
1023	0.915255
1024.65	1.32732
1026.31	1.10624
1027.96	1.14747
1029.61	1.18803
1031.26	1.42383
1032.91	2.07246
1034.56	1.82395
1036.21	1.61774
1037.86	1.97727
1039.51	1.53069
1041.16	0.933258
1042.8	1.42492
1044.45	1.04889
1046.1	0.849039
1047.75	1.19426
1049.39	0.477108
1051.04	0.369369
1052.69	0.805575
1054.33	0.090724
1055.98	-0.276677
1057.62	-0.0575438
1059.27	-0.0127392
1060.91	0.531568
1062.56	0.74896
1064.2	0.530509
1065.85	0.289285
1067.49	0.351322
1069.13	0.195058
1070.77	0.23368
1072.42	-0.118611
1074.06	0.245888
1075.7	0.17734
1077.34	0.196922
1078.98	0.759909
1080.62	1.30201
1082.27	1.80076
1083.91	1.08428
1085.55	0.734815
1087.18	1.35846
1088.82	1.19956
1090.46	0.930738
1092.1	0.509741
1093.74	0.86641
1095.38	1.00682
1097.02	1.10472
1098.65	0.945468
1100.29	0.35778
1101.93	0.977712
1103.56	0.803209
1105.2	0.372118
1106.84	0.199861
1108.47	0.134905
1110.11	0.17641
1111.74	-0.106084
1113.38	0.40487
1115.01	0.269876
1116.64	0.627825
1118.28	0.770986
1119.91	0.5933
1121.54	0.288405
1123.18	0.263163
1124.81	0.0250244
1126.44	1.221
1128.07	0.578194
1129.7	1.04821
1131.33	0.578078
1132.97	0.407652
1134.6	0.108888
1136.23	0.0446768
1137.86	0.129021
1139.49	0.0839338
1141.11	0.57159
1142.74	0.0339413
1144.37	-0.268449
1146	0.368136
1147.63	-0.145587
1149.26	0.172802
1150.88	-0.168746
1152.51	-0.0841951
1154.14	-0.127753
1155.76	0.381665
1157.39	0.167233
1159.01	0.0596333
1160.64	0.271916
1162.27	0.57033
1163.89	-0.320862
1165.51	0.0642099
1167.14	-0.528977
1168.76	0.0674582
1170.39	-0.166922
1172.01	0.170535
1173.63	0.611952
1175.25	-0.0306025
1176.88	-0.185154
1178.5	0.0420008
1180.12	-0.556028
1181.74	0.899556
1183.36	0.620504
1184.98	0.489768
1186.6	-0.169652
1188.22	-0.0701418
1189.84	0.174749
1191.46	0.206609
1193.08	-0.499093
1194.7	-0.36386
1196.32	0.819306
1197.94	0.492631
1199.55	0.545033
1201.17	0.223721
1202.79	0.594728
1204.41	-0.0754147
1206.02	0.0291109
1207.64	-0.0319138
1209.25	0.40805
1210.87	1.13908
1212.48	0.0957222
1214.1	0.447169
1215.71	0.483473
1217.33	0.309763
1218.94	0.259972
1220.56	0.313927
1222.17	-0.00484753
1223.79	0.154786
1225.4	-0.119117
1227.01	0.0641108
1228.62	0.951798
1230.23	0.620251
1231.85	0.84829
1233.46	0.354153
1235.07	0.2954
1236.68	0.485912
1238.29	0.346782
1239.9	0.642549
1241.51	0.876636
1243.12	0.531238
1244.73	0.184932
1246.34	0.89288
1247.94	0.565159
1249.55	0.898767
1251.16	0.797507
1252.77	0.44826
1254.37	0.534152
1255.98	0.724568
1257.59	0.316376
1259.2	1.37838
1260.8	0.703249
1262.41	0.877151
1264.01	0.491929
1265.62	0.831326
1267.22	0.548332
1268.83	0.430107
1270.43	0.518139
1272.03	1.01979
1273.64	0.856868
1275.24	1.2526
1276.85	1.08763
1278.45	0.963309
1280.05	0.23794
1281.65	0.837483
1283.25	1.04352
1284.85	0.960438
1286.46	0.961036
1288.06	0.756049
1289.66	1.64737
1291.26	0.638039
1292.86	1.07515
1294.46	1.32546
1296.06	1.28517
1297.66	0.974819
1299.25	0.374187
1300.85	1.00981
1302.45	0.983945
1304.05	1.1629
1305.65	1.34073
1307.24	0.634501
1308.84	1.07834
1310.43	1.04987
1312.03	0.960421
1313.63	1.1378
1315.22	1.43852
1316.82	0.453459
1318.41	1.0211
1320.01	1.22084
1321.6	0.543426
1323.2	1.14776
1324.79	1.30179
1326.38	0.824585
1327.98	1.48334
1329.57	0.865294
1331.16	0.877329
1332.76	0.527915
1334.35	1.0092
1335.94	1.24945
1337.53	0.743849
1339.12	1.40729
1340.71	0.819298
1342.3	0.85392
1343.89	0.906501
1345.48	0.736926
1347.07	1.22949
1348.66	1.00161
1350.25	0.956869
1351.84	1.13491
1353.43	1.5949
1355.01	1.33653
1356.6	1.31853
1358.19	0.900578
1359.77	1.06103
1361.36	0.860926
1362.95	0.34097
1364.53	0.738297
1366.12	0.93614
1367.71	0.83587
1369.29	0.736948
1370.88	0.818661
1372.46	0.583426
1374.04	1.24478
1375.63	0.872188
1377.21	1.09667
1378.8	0.783381
1380.38	1.10579
1381.96	0.88961
1383.54	1.34829
1385.13	0.771885
1386.71	0.354449
1388.29	1.02973
1389.87	0.533965
1391.45	0.71415
1393.03	0.736364
1394.61	0.421824
1396.19	1.07888
1397.77	0.743704
1399.35	0.744578
1400.93	0.922697
1402.51	0.842653
1404.09	0.584585
1405.67	0.604133
1407.24	0.268763
1408.82	0.566779
1410.4	0.924412
1411.98	0.314226
1413.55	0.276321
1415.13	0.316471
1416.71	-0.295059
1418.28	0.749293
1419.86	1.30032
1421.43	1.08401
1423.01	0.456138
1424.58	0.893033
1426.16	1.35089
1427.73	0.667791
1429.31	0.732366
1430.88	1.13062
1432.45	1.60627
1434.02	1.19532
1435.6	1.29545
1437.17	1.41537
1438.74	1.12321
1440.31	1.3432
1441.88	1.56419
1443.45	1.35357
1445.03	1.41853
1446.6	1.32645
1448.17	1.68662
1449.74	1.71296
1451.3	1.09093
1452.87	2.29822
1454.44	1.323
1456.01	1.68525
1457.58	1.71244
1459.15	1.32498
1460.72	1.56544
1462.28	1.64641
1463.85	1.29286
1465.42	1.46914
1466.98	0.996558
1468.55	1.05493
1470.12	0.603915
1471.68	1.01757
1473.25	1.49093
1474.81	1.65121
1476.38	1.00803
1477.94	1.4434
1479.51	1.80017
1481.07	1.99995
1482.63	2.12118
1484.2	2.34019
1485.76	1.67717
1487.32	2.16913
1488.88	2.4439
1490.45	2.12923
1492.01	2.0666
1493.57	2.19685
1495.13	1.54427
1496.69	1.80782
1498.25	1.56441
1499.81	1.41938
1501.37	0.751706
1502.93	1.15336
1504.49	0.799573
1506.05	1.41464
1507.61	1.5831
1509.17	0.706842
1510.73	0.545296
1512.28	0.460319
1513.84	0.702332
1515.4	1.03999
1516.96	0.148713
1518.51	0.410907
1520.07	0.768923
1521.63	0.035697
1523.18	0.832904
1524.74	0.55834
1526.29	0.474092
1527.85	0.57952
1529.4	0.608009
1530.96	-0.0282211
1532.51	0.323816
1534.06	0.562161
1535.62	-0.144765
1537.17	0.416759
1538.72	-0.00370884
1540.28	0.406754
1541.83	1.02376
1543.38	0.547872
1544.93	0.67438
1546.48	0.631362
1548.03	0.738359
1549.59	0.357746
1551.14	1.04541
1552.69	1.18973
1554.24	0.717988
1555.79	0.416495
1557.34	0.229131
1558.88	0.69691
1560.43	0.718635
1561.98	0.648729
1563.53	0.318791
1565.08	0.6051
1566.62	1.07822
1568.17	0.916655
1569.72	0.866664
1571.27	1.09626
1572.81	0.989547
1574.36	0.826671
1575.9	0.775808
1577.45	0.799809
1579	0.936245
1580.54	0.755892
1582.09	0.520224
1583.63	0.640203
1585.17	0.742312
1586.72	0.65804
1588.26	0.8357
1589.8	1.49981
1591.35	0.498029
1592.89	1.01177
1594.43	1.01979
1595.97	1.66486
1597.52	1.46736
1599.06	1.32666
1600.6	1.18656
1602.14	1.66617
1603.68	1.30126
1605.22	0.954099
1606.76	1.22548
1608.3	0.592795
1609.84	1.3862
1611.38	0.711333
1612.92	1.14302
1614.46	1.02858
1615.99	0.351115
1617.53	0.574643
1619.07	0.948906
1620.61	0.856137
1622.14	0.74608
1623.68	0.599465
1625.22	1.08939
1626.75	1.16666
1628.29	0.812282
1629.82	0.830785
1631.36	1.09116
1632.9	0.379511
1634.43	0.732995
1635.96	1.31076
1637.5	1.1616
1639.03	1.49793
1640.57	1.8341
1642.1	1.2379
1643.63	1.01351
1645.16	1.43947
1646.7	1.12006
1648.23	1.59976
1649.76	1.65206
1651.29	1.51973
1652.82	1.70415
1654.36	1.18508
1655.89	1.64938
1657.42	1.70572
1658.95	0.816611
1660.48	1.72272
1662.01	1.05372
1663.53	1.34574
1665.06	1.65514
1666.59	0.654015
1668.12	1.0755
1669.65	1.09241
1671.18	1.66358
1672.7	1.49874
1674.23	1.27926
1675.76	0.89399
1677.29	0.821048
1678.81	0.839068
1680.34	1.46275
1681.86	1.42339
1683.39	1.03481
1684.91	1.39915
1686.44	0.552995
1687.96	0.75301
1689.49	0.770007
1691.01	0.787233
1692.54	0.987528
1694.06	0.894892
1695.58	0.345119
1697.11	0.289026
1698.63	0.689197
1700.15	0.723444
1701.67	0.428828
1703.2	0.298077
1704.72	0.76791
1706.24	0.308541
1707.76	0.340508
1709.28	0.172509
1710.8	0.2045
1712.32	-0.0898027
1713.84	0.359375
1715.36	0.264778
1716.88	-0.119145
1718.4	0.726413
1719.91	0.703687
1721.43	-0.13079
1722.95	0.226501
1724.47	0.0617352
1725.99	0.294563
1727.5	0.384482
1729.02	-0.0825281
1730.54	0.151778
1732.05	0.221601
1733.57	0.661396
1735.09	0.126561
1736.6	0.257095
1738.12	-0.203755
1739.63	0.114916
1741.15	0.0662088
1742.66	0.160321
1744.18	-0.144475
1745.69	-0.162438
1747.2	0.0972233
1748.72	-0.176399
1750.23	-0.00739288
1751.74	0.0384283
1753.25	0.34166
1754.77	0.262311
1756.28	0.440331
1757.79	0.193694
1759.3	0.524489
1760.81	0.304061
1762.32	-0.17417
1763.83	0.130647
1765.34	0.181204
1766.85	-0.105976
1768.36	0.128431
1769.87	-0.234189
1771.38	-0.131126
1772.89	-0.0486984
1774.4	0.209919
1775.91	0.197751
1777.41	0.351902
1778.92	0.115849
1780.43	-0.103727
1781.94	0.313915
1783.44	0.311071
1784.95	0.199853
1786.45	0.359609
1787.96	-0.128686
1789.47	0.290311
1790.97	0.214581
1792.48	0.211938
1793.98	-0.10288
1795.48	-0.0514097
1796.99	-0.260391
1798.49	-0.126381
1800	0.238829
1801.5	0.223753
1803	0.14953
1804.51	0.20007
1806.01	0.204834
1807.51	-0.0772028
1809.01	0.285064
1810.51	0.0877399
1812.02	-0.101498
1813.52	0.277116
1815.02	0.0886316
1816.52	0.146228
1818.02	-0.352366
1819.52	0.204444
1821.02	-0.27053
1822.52	0.242304
1824.02	0.0367451
1825.51	0.0961065
1827.01	0.215381
1828.51	0.0927677
1830.01	0.477458
1831.51	0.4096
1833	-0.0971899
1834.5	0.282018
1836	0.179927
1837.5	0.4547
1838.99	0.274201
1840.49	0.107985
1841.98	0.320151
1843.48	0.280788
1844.97	-0.141506
1846.47	0.28258
1847.96	0.195986
1849.46	0.453973
1850.95	0.325414
1852.45	-0.0182686
1853.94	0.0408907
1855.43	0.104458
1856.92	0.248857
1858.42	0.131331
1859.91	0.00836849
1861.4	-0.257676
1862.89	0.393949
1864.39	0.0158377
1865.88	0.236782
1867.37	0.136504
1868.86	-0.121047
1870.35	0.224735
1871.84	0.0112524
1873.33	0.128098
1874.82	0.25014
1876.31	0.295074
1877.8	0.149549
1879.29	0.277271
1880.77	0.109896
1882.26	-0.164845
1882.51	-0.213114
1884	-0.0562973
1885.5	-0.26623
1886.99	-0.180629
1888.48	0.287399
1889.98	0.372317
1891.47	-0.185421
1892.97	0.493039
1894.46	-0.270032
1895.95	0.272251
1897.44	-0.0541048
1898.93	-0.15455
1900.42	0.49217
1901.92	0.458965
1903.41	-0.0454321
1904.9	0.370569
1906.39	0.107835
1907.88	0.470482
1909.37	0.277893
1910.86	-0.20867
1912.35	0.138478
1913.84	-0.225107
1915.32	0.157159
1916.81	0.452291
1918.3	-0.0851622
1919.79	0.156999
1921.28	0.000528336
1922.76	0.415926
1924.25	0.260609
1925.74	-0.361055
1927.22	0.126169
1928.71	-0.407501
1930.2	-0.248664
1931.68	0.100008
1933.17	-0.22792
1934.65	0.239032
1936.14	0.167752
1937.62	0.0781851
1939.11	0.316603
1940.59	0.485888
1942.08	0.0517321
1943.56	0.584934
1945.04	0.463252
1946.53	0.0661755
1948.01	0.548047
1949.49	0.202003
1950.97	0.389129
1952.45	0.0589724
1953.94	0.193002
1955.42	0.137744
1956.9	0.288966
1958.38	0.474944
1959.86	0.14677
1961.34	0.368088
1962.82	-0.0790644
1964.3	0.125045
1965.78	0.0202742
1967.26	0.0176964
1968.74	-0.0709791
1970.22	0.079237
1971.69	0.21192
1973.17	0.156601
1974.65	-0.0861721
1976.13	-0.140969
1977.61	0.179166
1979.08	-0.0116816
1980.56	-0.134262
1982.03	0.219125
1983.51	0.435852
1984.99	0.584052
1986.46	0.426504
1987.94	0.116658
1989.41	0.0446291
1990.89	-0.246712
1992.36	0.460976
1993.84	0.425014
1995.31	0.508128
1996.78	0.0509892
1998.26	0.218981
1999.73	-0.0355844
2001.2	0.0301485
2002.68	0.398974
2004.15	0.328991
2005.62	0.646922
2007.09	-0.0790291
2008.56	0.206637
2010.04	0.206734
2011.51	-0.112533
2012.98	-0.179206
2014.45	-0.0442762
2015.92	0.325466
2017.39	0.00461388
2018.86	-0.0813541
2020.33	0.235528
2021.8	0.199286
2023.27	0.113008
2024.74	-0.0228434
2026.2	0.110794
2027.67	0.279179
2029.14	0.0966558
2030.61	0.485647
2032.07	0.590442
2033.54	0.074625
2035.01	0.314126
2036.47	-0.1353
2037.94	0.607574
2039.41	0.291602
2040.87	0.395695
2042.34	0.163879
2043.8	0.252162
2045.27	0.324481
2046.73	0.246028
2048.2	0.454128
2049.66	0.375638
2051.12	0.515363
2052.59	-0.020833
2054.05	0.453176
2055.51	0.588276
2056.98	0.132023
2058.44	0.72012
2059.9	0.381172
2061.36	0.295412
2062.82	0.395587
2064.29	0.648095
2065.75	0.497582
2067.21	0.85273
2068.67	-0.0201778
2070.13	0.588301
2071.59	0.321556
2073.05	0.425035
2074.51	0.696682
2075.97	0.749135
2077.43	0.649685
2078.88	0.903497
2080.34	0.382269
2081.8	-0.0046587
2083.26	0.500105
2084.72	0.145723
2086.17	0.833859
2087.63	0.293421
2089.09	0.408531
2090.54	0.808889
2092	0.335758
2093.46	0.869816
2094.91	0.81609
2096.37	0.69492
2097.82	0.724016
2099.28	0.267145
2100.73	0.6301
2102.19	0.875712
2103.64	0.771071
2105.09	1.01823
2106.55	0.99956
2108	0.781772
2109.46	0.380991
2110.91	0.330021
2112.36	1.07774
2113.81	1.30681
2115.27	0.885033
2116.72	1.07821
2118.17	1.07201
2119.62	0.58574
2121.07	1.03082
2122.52	0.979829
2123.97	1.01315
2125.42	1.36214
2126.87	1.24659
2128.32	1.24614
2129.77	1.64205
2131.22	1.80443
2132.67	1.13818
2134.12	1.01858
2135.57	0.883302
2137.01	1.2784
2138.46	0.947911
2139.91	1.23071
2141.36	1.3829
2142.8	1.58594
2144.25	2.02139
2145.7	1.79533
2147.14	1.68469
2148.59	1.97084
2150.03	1.61016
2151.48	1.74543
2152.92	1.79689
2154.37	1.89722
2155.81	1.93079
2157.26	1.93128
2158.7	1.66746
2160.15	1.60369
2161.59	1.83988
2163.03	2.11125
2164.48	2.01952
2165.92	1.66289
2167.36	1.68779
2168.8	1.74494
2170.25	1.88358
2171.69	1.7374
2173.13	1.90534
2174.57	2.22156
2176.01	1.35632
2177.45	1.75525
2178.89	1.85554
2180.33	1.74066
2181.77	2.05894
2183.21	1.74597
2184.65	1.94879
2186.09	2.01866
2187.53	1.57277
2188.97	1.82573
2190.41	1.9123
2191.84	1.36601
2193.28	2.31736
2194.72	1.66906
2196.16	1.46858
2197.59	0.96685
2199.03	1.66124
2200.47	1.37336
2201.9	1.55061
2203.34	1.19733
2204.78	1.45902
2206.21	1.14137
2207.65	1.50372
2209.08	0.73956
2210.51	1.39881
2211.95	1.54358
2213.38	1.47253
2214.82	1.58314
2216.25	1.33103
2217.68	0.684355
2219.12	1.16078
2220.55	0.862854
2221.98	1.0267
2223.42	1.02504
2224.85	0.824488
2226.28	0.556802
2227.71	1.40599
2229.14	1.16835
2230.57	1.0125
2232	0.823986
2233.43	1.12721
2234.86	1.03804
2236.29	0.541729
2237.72	1.0761
2239.15	0.861038
2240.58	0.305458
2242.01	0.583475
2243.44	0.878893
2244.87	0.571171
2246.3	1.02948
2247.73	0.964351
2249.15	0.685328
2250.58	0.648941
2252.01	0.627279
2253.43	0.377219
2254.86	0.11162
2256.29	0.497052
2257.71	0.105218
2259.14	0.624575
2260.56	0.091888
2261.99	1.02186
2263.41	0.525033
2264.84	0.417932
2266.26	0.310401
2267.69	0.429816
2269.11	0.190476
2270.54	0.552617
2271.96	0.442281
2273.38	0.65746
2274.81	0.28637
2276.23	0.192277
2277.65	0.326469
2279.07	0.754232
2280.49	0.448362
2281.92	0.305334
2283.34	0.390562
2284.76	0.671693
2286.18	0.414502
2287.6	0.467717
2289.02	0.554024
2290.44	0.313959
2291.86	0.155681
2293.28	0.488005
2294.7	0.378839
2296.12	0.18766
2297.54	0.307404
2298.96	0.0996423
2300.38	0.236041
2301.79	0.274426
2303.21	-0.097054
2304.63	0.614583
2306.05	-0.0198011
2307.46	0.281464
2308.88	0.138703
2310.3	0.488638
2311.71	-0.0169029
2313.13	-0.062078
2314.55	0.255162
2315.96	0.243949
2317.38	0.282829
2318.79	0.256212
2320.21	0.212873
2321.62	0.16855
2323.03	0.304124
2324.45	0.388175
2325.86	0.915644
2327.27	0.616598
2328.69	0.630291
2330.1	0.611184
2331.51	0.296551
2332.93	0.131271
2334.34	0.13137
2335.75	0.329096
2337.16	0.312536
2338.57	-0.165187
2339.99	-0.0518956
2341.4	-0.0052166
2342.81	-0.155967
2344.22	0.136245
2345.63	0.248024
2347.04	0.228882
2348.45	0.144316
2349.86	0.239477
2351.26	-0.320029
2352.67	-0.128149
2354.08	0.242078
2355.49	0.170861
2356.9	-0.437814
2358.31	0.304762
2359.71	-0.0264802
2361.12	0.55196
2362.53	-0.0543838
2363.94	-0.432796
2365.34	0.419112
2366.75	-0.0396891
2368.15	0.0196033
2369.56	-0.242968
2370.97	0.12463
2372.37	-0.103178
2373.78	0.346426
2375.18	-0.0571179
2376.59	-0.138837
2377.99	-0.157041
2379.39	0.241258
2380.8	0.155849
2382.2	-0.171149
2383.61	-0.0657291
2385.01	-0.280683
2386.41	-0.0314755
2387.81	0.217921
2389.22	0.244637
2390.62	-0.157733
2392.02	-0.0331469
2393.42	0.362637
2394.82	0.345254
2396.22	0.105947
2397.63	-0.0372868
2399.02	0.169613
2400.43	-0.00440979
2401.82	0.218988
2403.23	0.172382
2404.62	0.617697
2406.02	0.236593
2407.42	0.0453424
2408.82	-0.130557
2410.22	0.0738688
2411.62	-0.10197
2413.02	-0.102767
2414.41	0.22998
2415.81	0.12063
2417.21	0.0599308
2418.61	0.285029
2420	-0.202147
2421.4	-0.0401435
2422.79	0.280042
2424.19	0.0138259
2425.59	0.0169826
2426.98	-0.248865
2428.38	0.230998
2429.77	0.156919
2431.17	0.00404787
2432.56	0.248047
2433.96	0.285357
2435.35	0.671215
2436.74	0.452119
2438.14	0.0409737
2439.53	-0.228215
2440.92	0.0736532
2442.32	0.0732431
2443.71	-0.324112
2445.1	0.151086
2446.49	-0.0877051
2447.88	0.0856342
2449.28	0.543928
2450.67	0.162854
2452.06	0.114922
2453.45	-0.201305
2454.84	0.0212145
2456.23	0.101902
2457.62	0.135403
2459.01	-0.179191
2460.4	0.027689
2461.79	0.0124602
2463.18	0.0914016
2464.57	0.533162
2465.96	0.247832
2467.34	-0.0531163
2468.73	0.340403
2470.12	0.44951
2471.51	-0.135447
2472.89	0.0673442
2474.28	0.300701
2475.67	0.548876
2477.05	0.623426
2478.44	-0.0560107
2479.83	0.0346937
2481.21	0.0313249
2482.6	-0.0817633
2483.98	0.305887
2485.37	0.17597
2486.75	0.0765791
2488.14	0.272955
2489.52	0.1565
2490.9	0.367056
2492.29	0.0801029
2493.67	-0.205264
2495.06	-0.116631
2496.44	-0.2441
2497.82	-0.494576
2499.2	0.137791
2500.59	-0.18998
2501.97	0.069397
2503.35	-0.0430818
2504.73	0.121551
2506.11	0.223665
2507.49	0.063695
2508.88	0.119419
2510.26	0.206103
2511.63	-0.243806
2513.01	0.273471
2514.39	0.0707607
2515.77	-0.115594
2517.15	-0.362245
2518.53	0.309155
2519.91	0.200685
2521.29	0.076838
2522.67	0.334162
2524.05	0.209093
2525.42	-0.251693
2526.8	0.0189767
2528.18	0.000452995
2529.56	-0.245214
2530.93	-0.00295353
2532.31	0.514062
2533.69	0.166124
2535.06	-0.181135
2536.44	-0.118207
2537.81	0.172029
2539.19	0.172795
2540.56	-0.0397153
2541.94	-0.282747
2543.31	0.233231
2544.69	0.249083
2546.06	0.0233183
2547.44	-0.110387
2548.81	0.0751877
2550.18	0.245738
2551.56	0.0365262
2552.93	-0.0976024
2554.3	-0.156701
2555.68	-0.0799799
2557.05	0.163084
2558.42	0.117796
2559.79	0.194034
2561.16	0.0130434
2562.53	0.150901
2563.9	-0.15022
2565.28	0.321891
2566.64	0.203216
2568.02	0.357412
2569.38	-0.0794501
2570.76	0.635563
2572.12	0.00166273
2573.49	0.444025
2574.86	0.462059
2576.23	0.176914
2577.6	0.179742
2578.97	-0.0298958
2580.34	0.18473
2581.7	0.48998
2583.07	0.430984
2584.44	0.508231
2585.81	-0.111861
2587.17	0.147365
2588.54	0.133912
2589.91	0.2418
2591.27	-0.0292659
2592.64	0.0478277
2594	0.245409
2595.37	0.184559
2596.73	-0.119312
2598.1	0.0303044
2599.46	-0.0775914
2600.83	0.0867038
2602.19	-0.186718
2603.55	0.446406
2604.92	0.159045
2606.28	-0.248607
2607.64	0.233431
2609.01	0.111472
2610.37	0.229615
2611.73	-0.24051
2613.09	-0.199545
2614.46	0.0509973
2615.82	-0.149362
2617.18	-0.0343204
2618.54	0.0510521
2619.9	0.301532
2621.26	0.492457
2622.62	0.160612
2623.98	0.337122
2625.34	-0.0387754
2626.7	0.375975
2628.06	0.178897
2629.42	-0.00325537
2630.78	0.127141
2632.14	-0.218477
2633.5	0.193979
2634.86	0.531544
2636.22	0.0528827
2637.57	0.50853
2638.93	0.34163
2640.29	0.175136
2641.64	0.156957
2643	0.124276
2644.36	0.00321627
2645.72	0.383849
2647.07	0.262376
2648.43	-0.360301
2649.78	0.0328546
2651.14	-0.00165606
2652.49	0.0811286
2653.85	-0.0267973
2655.2	-0.221838
2656.56	-0.269193
2657.91	0.650471
2659.27	0.00460434
2660.62	-0.143114
2661.97	0.00149012
2663.33	-0.0590343
2664.68	0.14258
2666.03	0.109897
2667.38	-0.0834489
2668.74	0.335026
2670.09	0.127414
2671.44	-0.181211
2672.79	0.179492
2674.14	0.0465531
2675.49	0.146481
2676.84	-0.0868893
2678.2	-0.218007
2679.55	0.130126
2680.89	0.0875659
2682.24	0.133015
2683.59	0.135986
2684.94	-0.121308
2686.29	-0.00111389
2687.64	0.351277
2688.99	0.29634
2690.34	0.15284
2691.69	-0.0502362
2693.04	0.514481
2694.38	0.280274
2695.73	0.30702
2697.08	0.334264
2698.43	0.362608
2699.77	0.0883403
2701.12	0.119645
2702.46	0.0363603
2703.81	-0.0605884
2705.16	0.103764
2706.5	0.10878
2707.85	-0.0025034
2709.19	0.0890126
2710.54	-0.0665903
2711.88	0.402127
2713.23	0.0282049
2714.57	0.148217
2715.92	0.210086
2717.26	0.30096
2718.6	0.435312
2719.95	0.452999
2721.29	0.091908
2722.63	0.137854
2723.97	0.270738
2725.32	0.577926
2726.66	0.229786
2728	-0.0312581
2729.34	0.158669
2730.68	0.232025
2732.02	0.0143647
2733.36	0.204139
2734.7	0.030385
2736.04	0.249532
2737.39	0.192441
2738.72	-0.0391817
2740.06	0.194374
2741.4	-0.125044
2742.74	0.267444
2744.08	-0.0529714
2745.42	0.163831
2746.76	0.162274
2748.1	0.320228
2749.44	0.463571
2750.77	0.316908
2752.11	-0.249855
2753.45	0.0245547
2754.78	-0.208156
2756.12	0.124252
2757.46	-0.0357051
2758.79	-0.00717974
2760.13	-0.224389
2761.47	0.311357
2762.8	-0.078671
2764.14	-0.121126
2765.47	0.256
2766.81	-0.061728
2768.14	0.227382
2769.48	0.211596
2770.81	-0.137789
2772.14	0.190878
2773.48	0.128566
2774.81	-0.0206046
2776.14	-0.126337
2777.48	-0.102072
2778.81	0.0664043
2780.14	-0.0523329
2781.47	0.0447712
2782.81	0.0987697
2784.14	0.19567
2785.47	0.091774
2786.8	0.102749
2788.13	-0.358251
2789.46	0.0116944
2790.79	0.138929
2792.12	-0.247994
2793.46	-0.162613
2794.79	0.265772
2796.11	0.250734
2797.44	0.120968
2798.77	0.0479312
2800.1	-0.13958
2801.43	0.443178
2802.76	0.11268
2804.09	-0.103693
2805.42	-0.263216
2806.74	-0.323396
2808.07	0.184924
2809.4	0.137849
2810.73	0.0624642
2812.05	-0.0974598
2813.38	0.225964
2814.71	0.224229
2816.03	-0.0597668
2817.36	-0.14433
2818.68	-0.129193
2820.01	0.0418653
2821.33	0.283412
2822.66	0.552682
2823.98	0.41043
2825.31	0.168781
2826.63	0.394598
2827.96	0.564126
2829.28	0.0687304
2830.61	0.281604
2831.93	0.253998
2833.25	0.566061
2834.57	0.19843
2835.9	0.28333
2837.22	0.905421
2838.54	0.8337
2839.86	0.903244
2841.18	1.01526
2842.51	1.41028
2843.83	1.25458
2845.15	1.26915
2846.47	1.31255
2847.79	1.1584
2849.11	1.55549
2850.43	1.28803
2851.75	1.34521
2853.07	1.515
2854.39	1.62788
2855.71	1.74055
2857.03	2.05094
2858.35	1.97993
2859.67	1.61235
2860.98	1.85189
2862.3	1.85107
2863.62	1.737
2864.94	1.86263
2866.25	1.8612
2867.57	1.66255
2868.89	2.11296
2870.21	1.7741
2871.52	1.6751
2872.84	1.95643
2874.15	2.64562
2875.47	2.77004
2876.78	2.47099
2878.1	2.5655
2879.42	2.22368
2880.73	2.19172
2882.04	1.90758
2883.36	2.3689
2884.67	2.15681
2885.99	2.25416
2887.3	2.51995
2888.61	2.06963
2889.93	2.67095
2891.24	2.00915
2892.55	2.31445
2893.87	2.39518
2895.18	2.72818
2896.49	2.54372
2897.8	2.33229
2899.11	2.83535
2900.42	2.72342
2901.74	2.93365
2903.05	2.99018
2904.36	3.21467
2905.67	3.22958
2906.98	3.217
2908.29	3.05124
2909.6	3.01209
2910.91	3.84106
2912.22	3.62057
2913.53	3.74932
2914.83	3.33082
2916.14	3.73683
2917.45	3.69344
2918.76	3.46731
2920.07	3.96846
2921.37	4.27413
2922.68	4.11943
2923.99	4.44126
2925.3	4.16304
2926.6	4.52838
2927.91	4.86585
2929.22	4.6997
2930.52	4.2814
2931.83	4.338
2933.13	4.68789
2934.44	4.80009
2935.74	4.11575
2937.05	4.89899
2938.35	4.48054
2939.66	4.39773
2940.96	4.44113
2942.27	4.12195
2943.57	4.01339
2944.87	4.25547
2946.18	3.6736
2947.48	3.97325
2948.78	3.41914
2950.09	3.56373
2951.39	3.59484
2952.69	2.86818
2953.99	3.37253
2955.29	3.54041
2956.6	2.98117
2957.9	2.87154
2959.2	2.94611
2960.5	3.33123
2961.8	2.79339
2963.1	2.91479
2964.4	2.72706
2965.7	2.69242
2967	2.7969
2968.3	2.22552
2969.6	2.3141
2970.9	2.4026
2972.2	1.91457
2973.49	2.38348
2974.79	2.12067
2976.09	2.08248
2977.39	2.31077
2978.69	1.66466
2979.98	1.9464
2981.28	1.87508
2982.58	1.94397
2983.88	1.67564
2985.17	1.81597
2986.47	1.03004
2987.76	1.66464
2989.06	1.09155
2990.36	1.29157
2991.65	1.22418
2992.95	1.09973
2994.24	1.17098
2995.54	1.28337
2996.83	0.777287
2998.12	0.987156
2999.42	0.902454
3000.71	0.593901
3002	0.706531
3003.3	0.300961
3004.59	0.470056
3005.88	0.442773
3007.18	1.04493
3008.47	0.610455
3009.76	0.581205
3011.05	0.285879
3012.35	0.479283
3013.64	0.491007
3014.93	0.489099
3016.22	0.404175
3017.51	0.333893
3018.8	0.417171
3020.09	0.403068
3021.38	0.152326
3022.67	0.290107
3023.96	0.0244145
3025.25	-0.130516
3026.54	0.310219
3027.83	0.127806
3029.12	-0.0257449
3030.41	-0.205525
3031.69	-0.149186
3032.98	0.142624
3034.27	-0.186535
3035.56	0.229067
3036.85	0.436368
3038.13	0.393881
3039.42	-0.393274
3040.71	0.00218773
3041.99	0.299762
3043.28	0.322319
3044.57	0.140186
3045.85	0.315327
3047.14	-0.0135074
3048.42	0.356315
3049.71	0.359098
3050.99	0.213118
3052.28	0.067863
3053.56	-0.186513
3054.85	-0.0593543
3056.13	0.366952
3057.42	0.0286179
3058.7	0.139565
3059.98	0.182065
3061.27	0.00707579
3062.55	0.458689
3063.83	0.0273161
3065.11	0.0188322
3066.4	-0.0429087
3067.68	-0.158246
3068.96	0.447452
3070.24	0.209858
3071.52	0.733153
3072.8	-0.0637851
3074.09	-0.0592918
3075.37	-0.137085
3076.65	-0.378032
3077.93	0.263827
3079.21	-0.382955
3080.49	0.28761
3081.77	-0.125853
3083.05	0.0857015
3084.32	0.392882
3085.61	0.265953
3086.88	0.491491
3088.16	-0.016531
3089.44	-0.0636306
3090.72	-0.00254107
3092	0.451824
3093.27	0.14655
3094.55	0.262033
3095.83	-0.151085
3097.11	-0.103076
3098.38	0.0532885
3099.66	0.0333161
3100.94	0.13519
3102.21	0.11517
3103.49	-0.0941601
3104.76	-0.262371
3106.04	0.0707908
3107.31	0.120447
3108.59	0.0897589
3109.86	0.00579691
3111.14	-0.158646
3112.41	-0.0381327
3113.69	0.19121
3114.96	0.285183
3116.23	0.188977
3117.51	0.0106258
3118.78	-0.0736985
3120.05	0.193696
3121.33	0.256824
3122.6	0.427814
3123.87	-0.187194
3125.14	-0.490085
3126.42	-0.0209289
3127.69	0.285964
3128.96	0.0926652
3130.23	0.372998
3131.5	0.261279
3132.77	0.365704
3134.04	0.186092
3135.31	0.640685
3136.58	0.257803
3137.85	0.00980997
3139.12	-0.0764666
3140.39	0.119918
3141.66	0.598421
3142.93	0.391089
3144.2	0.708081
3145.47	0.381191
3146.74	0.0955653
3148	0.293137
3149.27	0.276748
