200.388	0.0570555
202.204	0.0834761
204.019	0.110831
205.832	-0.12848
207.646	-0.318757
209.459	0.195259
211.274	-0.118216
213.087	0.489566
214.899	0.731412
216.711	-0.312446
218.524	0.195242
220.335	-0.168626
222.146	0.581482
223.956	0.509624
225.766	0.00335217
227.576	-0.140147
229.388	-0.0183573
231.197	-0.235271
233.005	-0.211181
234.813	0.849967
236.621	0.103623
238.429	-0.0378218
240.236	0.401667
242.045	0.337317
243.852	-0.0152454
245.658	0.621282
247.464	-0.143649
249.269	-0.0665712
251.074	0.0796986
252.879	-0.0183916
254.683	0.533002
256.487	0.239368
258.291	0.0431213
260.094	0.523157
261.897	0.234087
263.702	0.0430746
265.504	0.648155
267.306	0.313881
269.108	0.485293
270.909	-0.0674324
272.71	0.2947
274.511	0.848184
276.311	0.797071
278.111	0.189692
279.91	-0.130294
281.709	0.00528812
283.508	0.93231
285.306	0.0780764
287.105	0.256701
288.9	0.842453
290.698	0.182119
292.495	0.697038
294.291	0.854012
296.088	0.0560083
297.884	-0.238352
299.679	0.829809
301.475	0.320682
303.27	-0.0696201
305.064	-0.126775
306.858	-0.0656347
308.652	0.519541
310.444	0.0323858
312.237	0.237482
314.03	-0.0797939
315.822	0.247692
317.615	0.434129
319.406	0.36017
321.198	0.52567
322.987	0.501323
324.778	0.644433
326.568	0.97882
328.358	0.309899
330.148	1.02598
331.935	0.186853
333.724	0.565498
335.513	0.67884
337.301	0.263283
339.089	1.06571
340.875	1.22017
342.662	0.632494
344.449	-0.265434
346.236	0.2231
348.02	0.282153
349.806	0.198445
351.592	0.520536
353.375	0.293054
355.16	-0.269344
356.944	0.478765
358.728	0.22382
360.51	1.15867
362.294	0.829908
364.077	0.358119
365.858	1.00293
367.64	0.197825
369.422	0.0572805
371.202	0.342472
372.983	0.436985
374.764	0.719902
376.543	0.128757
378.324	0.576948
380.102	0.836678
381.881	0.6264
383.661	0.864697
385.438	1.08057
387.216	0.616124
388.993	0.294132
390.771	0.701391
392.548	1.01546
394.324	0.672606
396.101	0.658942
397.875	0.551422
399.651	0.772541
401.425	1.06366
403.201	0.414593
404.974	0.751195
406.749	1.27477
408.524	0.576624
410.296	0.746873
412.07	0.72932
413.841	0.641788
415.614	0.883498
417.385	0.422127
419.156	0.0317526
420.928	-0.0063982
422.698	0.0725622
424.469	0.667334
426.238	0.462984
428.009	0.140394
429.777	0.521506
431.548	-0.294505
433.315	0.344966
435.083	-0.235662
436.852	0.0755405
438.618	0.127897
440.387	-0.0323668
442.153	0.368417
443.919	-0.0773563
445.686	0.108068
447.451	-0.129366
449.218	-0.156443
450.982	-0.41705
452.746	-0.186688
454.512	0.836586
456.275	-0.332656
458.038	-0.0795813
459.803	-0.292286
461.565	-0.131988
463.327	0.843066
465.091	0.239863
466.852	0.127685
468.613	0.134433
470.374	0.817558
472.136	0.943744
473.896	0.254456
475.655	0.447824
477.415	0.662322
479.176	0.199303
480.934	0.620368
482.692	0.086566
484.45	0.765049
486.21	1.21283
487.967	0.334819
489.724	0.414198
491.481	0.401439
493.237	1.13703
494.995	1.14929
496.75	0.669916
498.506	1.29056
500.26	0.645507
502.015	1.21912
503.771	1.13503
505.525	0.626521
507.279	0.304104
509.032	0.591467
510.785	0.453794
512.537	0.879191
514.289	0.267673
516.041	1.16051
517.793	1.4401
519.546	0.731027
521.297	0.844144
523.047	0.604368
524.797	0.740159
526.547	0.899245
528.297	0.425138
530.046	0.771647
531.795	0.672366
533.543	0.455346
535.291	0.307597
537.039	0.275516
538.787	0.802394
540.534	0.650577
542.281	0.801062
544.027	0.183013
545.773	0.147347
547.519	0.877854
549.264	0.841914
551.01	0.296862
552.754	-0.131128
554.499	0.204529
556.243	0.42435
557.987	0.367415
559.73	0.195915
561.474	-0.550202
563.216	0.361603
564.959	0.284284
566.701	0.529336
568.441	0.155085
570.182	0.0805998
571.923	0.420502
573.664	-0.270264
575.405	-0.33987
577.145	0.0510712
578.885	0.145213
580.624	-0.173142
582.361	0.289612
584.1	0.0396442
585.839	0.202447
587.577	0.0420427
589.315	-0.0506096
591.052	-0.328273
592.787	-0.0312672
594.524	0.0815115
596.26	0.148327
597.997	0.238136
599.732	0.0515442
601.466	0.0482168
603.201	0.894582
604.936	0.957229
606.67	0.375015
608.403	0.550415
610.136	0.381171
611.87	-0.131473
613.603	-0.161336
615.334	0.153311
617.067	-0.0590048
618.799	0.0261059
620.529	0.133005
622.26	0.238539
623.991	0.000139236
625.72	0.264618
627.451	-0.132295
629.181	-0.549728
630.909	0.404366
632.638	-0.0542631
634.368	0.674945
636.095	0.354114
637.823	0.0772028
639.551	0.596465
641.277	0.199879
643.005	0.485026
644.73	-0.0741043
646.457	-0.0632839
648.184	0.131167
649.908	-0.057765
651.634	0.0525303
653.357	0.780501
655.083	0.44377
656.806	0.951363
658.53	0.54939
660.253	0.488466
661.977	0.791276
663.7	0.383724
665.422	0.430505
667.145	0.109458
668.865	0.176286
670.588	0.586877
672.308	0.198753
674.027	-0.0499249
675.749	-0.113473
677.468	0.191225
679.188	0.129304
680.907	0.0893269
682.627	0.369651
684.345	0.441026
686.064	0.533443
687.781	0.393952
689.498	0.506693
691.216	0.296203
692.932	0.292413
694.65	-0.126688
696.366	0.673882
698.081	0.229719
699.797	0.590013
701.512	0.94878
703.228	0.708529
704.942	0.628648
706.655	0.502449
708.371	0.421882
710.083	1.02848
711.796	1.15292
713.51	-0.0498714
715.222	0.806079
716.934	0.838476
718.645	1.14466
720.358	0.493229
722.068	1.07283
723.779	0.650382
725.49	0.705949
727.2	1.14729
728.909	0.702392
730.618	1.14205
732.329	1.4219
734.037	1.11272
735.745	1.61793
737.453	0.970904
739.16	0.641644
740.869	0.381544
742.576	1.22683
744.282	0.83425
745.988	0.623547
747.694	0.841854
749.401	1.30885
751.107	1.3273
752.811	1.36963
754.516	1.05348
756.22	1.52638
757.924	1.52851
759.627	1.03657
761.332	1.37936
763.035	1.74582
764.738	1.50296
766.44	2.02681
768.142	1.96155
769.843	1.69036
771.544	1.84653
773.245	1.84285
774.946	2.42651
776.646	1.67667
778.346	2.19441
780.046	2.26167
781.745	2.19453
783.444	1.44865
785.143	1.92363
786.841	1.78509
788.539	1.21327
790.237	1.36239
791.934	1.6441
793.631	2.03648
795.328	1.50285
797.024	1.21903
798.72	1.45533
800.416	2.07584
802.112	1.27991
803.807	2.35201
805.502	1.82705
807.196	1.21184
808.89	1.71894
810.584	1.77534
812.278	1.98764
813.971	1.75086
815.664	1.98433
817.354	2.21737
819.047	2.00311
820.739	2.25832
822.43	1.21937
824.122	1.74358
825.813	1.62232
827.503	1.54793
829.192	1.47639
830.882	2.2543
832.571	1.78803
834.261	1.18989
835.95	1.37281
837.637	1.62277
839.325	1.58157
841.013	1.6504
842.701	1.71786
844.389	1.4049
846.074	1.383
847.761	1.42992
849.447	1.70311
851.131	1.4195
852.817	1.54086
854.503	1.14743
856.188	1.15735
857.871	1.88567
859.556	1.10594
861.24	0.908671
862.922	1.16011
864.606	1.23017
866.289	0.938635
867.97	1.4355
869.653	0.826996
871.336	1.12024
873.016	0.939594
874.698	0.555746
876.379	1.27758
878.058	1.32253
879.739	1.38997
881.418	1.90856
883.098	1.63632
884.778	1.43067
886.456	1.22365
888.135	0.92489
889.812	1.61705
891.49	1.29269
893.167	1.08001
894.845	1.11397
896.523	0.966941
898.198	0.751839
899.875	1.32138
901.55	1.05979
903.226	0.619222
904.901	1.34173
906.576	1.19211
908.25	1.51169
909.925	1.02971
911.598	1.35059
913.271	1.53821
914.945	1.3928
916.617	1.11463
918.291	1.16936
919.962	1.42338
921.635	0.681986
923.306	0.89344
924.978	1.12828
926.648	0.768577
928.318	1.05095
929.989	1.11377
931.659	0.62571
933.328	1.59406
934.998	0.930095
936.666	1.21506
938.336	1.45675
940.004	0.310171
941.671	0.973392
943.34	1.6818
945.007	0.757182
946.673	1.24389
948.339	0.36023
950.007	0.401854
951.672	0.773177
953.337	0.967817
955.004	0.811035
956.669	0.32619
958.333	0.991304
959.997	0.931505
961.662	0.784905
963.326	0.461214
964.989	0.84328
966.651	0.935446
968.315	0.737185
969.977	0.227074
971.639	1.46362
973.301	0.378051
974.962	0.466101
976.624	0.533789
978.285	0.647227
979.945	0.761429
981.605	0.875353
983.264	0.279607
984.924	0.346071
986.583	1.47288
988.243	0.672308
989.901	0.600899
991.56	0.705697
993.217	0.125474
994.875	0.715961
996.532	0.555775
998.188	1.16748
999.845	0.632366
1001.5	0.00944138
1003.16	1.30156
1004.81	0.832204
1006.47	0.715003
1008.12	0.839633
1009.78	0.547457
1011.43	0.475403
1013.09	0.623056
1014.74	-0.543303
1016.39	0.722
1018.05	0.695513
1019.7	0.86668
1021.35	0.251672
1023	0.774708
1024.65	0.0746527
1026.31	1.34205
1027.96	1.01419
1029.61	1.05718
1031.26	1.66676
1032.91	1.77209
1034.56	1.54821
1036.21	0.952478
1037.86	1.11924
1039.51	0.872031
1041.16	0.952106
1042.8	1.6855
1044.45	0.681783
1046.1	1.2881
1047.75	0.354195
1049.39	0.312441
1051.04	1.20589
1052.69	0.362511
1054.33	0.518711
1055.98	0.0446968
1057.62	1.48324
1059.27	1.09542
1060.91	0.619874
1062.56	0.774089
1064.2	0.796915
1065.85	0.796945
1067.49	0.252528
1069.13	0.619992
1070.77	0.899626
1072.42	0.766418
1074.06	0.330007
1075.7	0.133483
1077.34	0.805781
1078.98	0.264794
1080.62	0.873903
1082.27	1.11438
1083.91	0.703506
1085.55	0.876448
1087.18	0.873878
1088.82	0.631001
1090.46	0.949253
1092.1	1.09278
1093.74	0.760356
1095.38	0.773929
1097.02	0.809822
1098.65	0.610063
1100.29	0.86438
1101.93	0.324184
1103.56	1.07686
1105.2	0.841162
1106.84	0.563123
1108.47	0.413907
1110.11	0.887227
1111.74	0.670917
1113.38	0.259832
1115.01	0.341754
1116.64	0.272776
1118.28	0.418345
1119.91	0.650055
1121.54	0.989536
1123.18	0.0455923
1124.81	0.729388
1126.44	0.451102
1128.07	0.36618
1129.7	0.517173
1131.33	0.454904
1132.97	0.286059
1134.6	1.14316
1136.23	0.524716
1137.86	-0.0517769
1139.49	0.567092
1141.11	0.116941
1142.74	0.370897
1144.37	0.411404
1146	0.218013
1147.63	0.451907
1149.26	0.2391
1150.88	0.154691
1152.51	-0.31297
1154.14	0.262475
1155.76	0.368971
1157.39	-0.482163
1159.01	0.0500488
1160.64	-0.0551777
1162.27	-0.0742912
1163.89	0.0138493
1165.51	0.0812235
1167.14	0.0420771
1168.76	-0.0405569
1170.39	-0.124722
1172.01	0.0018158
1173.63	0.147762
1175.25	0.716615
1176.88	0.0968752
1178.5	0.198473
1180.12	0.131221
1181.74	0.487978
1183.36	0.274144
1184.98	1.09599
1186.6	0.817857
1188.22	0.053216
1189.84	0.405224
1191.46	-0.10859
1193.08	0.491794
1194.7	0.186866
1196.32	1.30849
1197.94	0.334125
1199.55	0.597766
1201.17	-0.0979767
1202.79	0.775872
1204.41	0.336509
1206.02	0.921924
1207.64	0.653152
1209.25	0.551641
1210.87	0.303414
1212.48	0.303905
1214.1	0.781543
1215.71	0.34013
1217.33	0.292941
1218.94	0.0993443
1220.56	0.445744
1222.17	0.356548
1223.79	0.475899
1225.4	0.0995789
1227.01	0.325279
1228.62	0.200454
1230.23	0.986663
1231.85	0.781399
1233.46	0.0400257
1235.07	1.53202
1236.68	0.441689
1238.29	0.63379
1239.9	0.764597
1241.51	0.83362
1243.12	0.488594
1244.73	1.28075
1246.34	0.499372
1247.94	0.379147
1249.55	1.08581
1251.16	0.985147
1252.77	0.926064
1254.37	0.454001
1255.98	1.6377
1257.59	1.12654
1259.2	0.9888
1260.8	1.26586
1262.41	1.27441
1264.01	0.765124
1265.62	0.980373
1267.22	1.0914
1268.83	1.47104
1270.43	1.51797
1272.03	1.29427
1273.64	0.800016
1275.24	1.52788
1276.85	1.28048
1278.45	1.26025
1280.05	1.67422
1281.65	1.23892
1283.25	1.87985
1284.85	1.25933
1286.46	1.61177
1288.06	0.869653
1289.66	1.65794
1291.26	1.47541
1292.86	1.37549
1294.46	1.89461
1296.06	1.25563
1297.66	0.863214
1299.25	1.04725
1300.85	1.2914
1302.45	1.4103
1304.05	0.828278
1305.65	1.15128
1307.24	1.20611
1308.84	1.0143
1310.43	1.06883
1312.03	1.24641
1313.63	0.994864
1315.22	1.17386
1316.82	1.2514
1318.41	1.04377
1320.01	1.28487
1321.6	0.791392
1323.2	1.09101
1324.79	1.42894
1326.38	1.23678
1327.98	1.04452
1329.57	1.13669
1331.16	1.61444
1332.76	1.265
1334.35	1.05972
1335.94	1.66351
1337.53	1.01679
1339.12	0.954741
1340.71	1.09262
1342.3	0.90622
1343.89	1.34139
1345.48	1.11187
1347.07	1.50451
1348.66	1.47731
1350.25	0.972301
1351.84	0.970559
1353.43	0.570981
1355.01	0.672624
1356.6	1.13428
1358.19	0.956022
1359.77	1.15638
1361.36	0.956298
1362.95	1.21438
1364.53	0.813892
1366.12	0.633242
1367.71	0.513259
1369.29	0.434311
1370.88	0.714933
1372.46	0.340123
1374.04	0.98119
1375.63	0.926488
1377.21	0.971394
1378.8	1.03573
1380.38	0.661329
1381.96	1.1014
1383.54	0.605289
1385.13	0.406749
1386.71	0.486072
1388.29	0.962588
1389.87	0.288024
1391.45	0.904575
1393.03	0.985918
1394.61	0.849447
1396.19	0.574072
1397.77	0.793759
1399.35	0.933061
1400.93	0.972259
1402.51	0.832653
1404.09	0.752487
1405.67	-0.197166
1407.24	0.890622
1408.82	0.950963
1410.4	0.755001
1411.98	0.796088
1413.55	1.03399
1415.13	1.05376
1416.71	0.619068
1418.28	0.736316
1419.86	1.10979
1421.43	0.912901
1423.01	0.993243
1424.58	0.543739
1426.16	1.04023
1427.73	0.789351
1429.31	1.42396
1430.88	1.25068
1432.45	1.29274
1434.02	1.49118
1435.6	1.35468
1437.17	1.76893
1438.74	1.41709
1440.31	1.28257
1441.88	1.28658
1443.45	1.97916
1445.03	1.66983
1446.6	1.63582
1448.17	2.0344
1449.74	1.23412
1451.3	1.94806
1452.87	1.5615
1454.44	1.43087
1456.01	1.63465
1457.58	1.87725
1459.15	1.46915
1460.72	1.86619
1462.28	0.98235
1463.85	1.10046
1465.42	1.68908
1466.98	1.88377
1468.55	0.939842
1470.12	0.802273
1471.68	1.19555
1473.25	1.37389
1474.81	1.39608
1476.38	1.1834
1477.94	0.990496
1479.51	0.523131
1481.07	0.741776
1482.63	0.705509
1484.2	0.551558
1485.76	1.04381
1487.32	0.790874
1488.88	0.967553
1490.45	1.43577
1492.01	0.47386
1493.57	0.703053
1495.13	1.18362
1496.69	0.66816
1498.25	0.951588
1499.81	1.13762
1501.37	0.800105
1502.93	0.697185
1504.49	0.847224
1506.05	0.571382
1507.61	0.856335
1509.17	0.811281
1510.73	0.456446
1512.28	0.332896
1513.84	0.343996
1515.4	0.432096
1516.96	0.789285
1518.51	0.858727
1520.07	1.0627
1521.63	0.40538
1523.18	0.150583
1524.74	0.430223
1526.29	0.193407
1527.85	0.660887
1529.4	0.460997
1530.96	0.261603
1532.51	0.575186
1534.06	0.472129
1535.62	0.654028
1537.17	0.496324
1538.72	0.226351
1540.28	0.221275
1541.83	0.706111
1543.38	0.587649
1544.93	0.337619
1546.48	0.332054
1548.03	0.832946
1549.59	0.789182
1551.14	0.745668
1552.69	0.927186
1554.24	0.492476
1555.79	0.657387
1557.34	0.655731
1558.88	1.06641
1560.43	1.18024
1561.98	0.456181
1563.53	0.75923
1565.08	1.24949
1566.62	0.769601
1568.17	0.420009
1569.72	0.461969
1571.27	0.671573
1572.81	1.04891
1574.36	0.53008
1575.9	0.981962
1577.45	0.855329
1579	1.04645
1580.54	0.547309
1582.09	0.665015
1583.63	1.02641
1585.17	0.921543
1586.72	0.873155
1588.26	0.974499
1589.8	1.05702
1591.35	1.08304
1592.89	1.07116
1594.43	0.740554
1595.97	1.30909
1597.52	1.42855
1599.06	1.3425
1600.6	1.18203
1602.14	1.54736
1603.68	1.08683
1605.22	1.15126
1606.76	1.32721
1608.3	1.01266
1609.84	0.977827
1611.38	0.377141
1612.92	0.901928
1614.46	1.10582
1615.99	0.933866
1617.53	0.856249
1619.07	0.536219
1620.61	1.22913
1622.14	1.11784
1623.68	0.408331
1625.22	1.45863
1626.75	1.34752
1628.29	0.823622
1629.82	0.710232
1631.36	1.38092
1632.9	0.87367
1634.43	1.33796
1635.96	1.16815
1637.5	0.700969
1639.03	1.55843
1640.57	1.14802
1642.1	0.755984
1643.63	0.717088
1645.16	1.38426
1646.7	1.23142
1648.23	1.30144
1649.76	0.907481
1651.29	0.960295
1652.82	1.53354
1654.36	1.40285
1655.89	1.27289
1657.42	1.43944
1658.95	1.58662
1660.48	1.56578
1662.01	1.28453
1663.53	1.27982
1665.06	1.4223
1666.59	1.10345
1668.12	1.61601
1669.65	1.07872
1671.18	0.746041
1672.7	1.00404
1674.23	1.44653
1675.76	1.3915
1677.29	0.820426
1678.81	1.20539
1680.34	0.761567
1681.86	1.01577
1683.39	0.957143
1684.91	0.88028
1686.44	0.638777
1687.96	0.471277
1689.49	0.707339
1691.01	0.980007
1692.54	0.703459
1694.06	0.719788
1695.58	0.937037
1697.11	0.55083
1698.63	0.475175
1700.15	0.654716
1701.67	0.414049
1703.2	0.683482
1704.72	0.442077
1706.24	0.782867
1707.76	0.577408
1709.28	0.644656
1710.8	0.403341
1712.32	0.126318
1713.84	0.194145
1715.36	0.261916
1716.88	0.365686
1718.4	0.234207
1719.91	0.536266
1721.43	0.96426
1722.95	-0.0682535
1724.47	0.595198
1725.99	-0.217548
1727.5	0.0516472
1729.02	0.231573
1730.54	0.391697
1732.05	0.15696
1733.57	0.735634
1735.09	0.282927
1736.6	0.476166
1738.12	0.0995445
1739.63	0.476077
1741.15	-0.182158
1742.66	-0.26121
1744.18	-0.00658798
1745.69	0.671957
1747.2	0.0783119
1748.72	0.170134
1750.23	0.211741
1751.74	-0.35386
1753.25	0.07969
1754.77	0.792375
1756.28	0.515439
1757.79	0.0393925
1759.3	0.217693
1760.81	0.464127
1762.32	-0.232005
1763.83	0.214825
1765.34	0.263026
1766.85	-0.172326
1768.36	0.00970173
1769.87	-0.240369
1771.38	0.0905838
1772.89	0.536296
1774.4	0.11607
1775.91	0.148957
1777.41	0.0693645
1778.92	0.228274
1780.43	0.220618
1781.94	0.0523205
1783.44	0.254442
1784.95	-0.0895472
1786.45	0.130532
1787.96	0.151443
1789.47	-0.22679
1790.97	-0.227511
1792.48	0.0900536
1793.98	-0.0571623
1795.48	0.257788
1796.99	-0.0746737
1798.49	0.23281
1800	-0.0382385
1801.5	0.14613
1803	0.192689
1804.51	0.0910912
1806.01	0.103504
1807.51	0.250946
1809.01	0.203959
1810.51	0.278623
1812.02	-0.0493402
1813.52	0.308715
1815.02	-0.0176277
1816.52	-0.0481319
1818.02	0.0789614
1819.52	0.13095
1821.02	-0.0145397
1822.52	0.172369
1824.02	-0.181554
1825.51	0.123816
1827.01	0.299099
1828.51	0.219043
1830.01	-0.17019
1831.51	-0.084446
1833	0.12929
1834.5	0.365185
1836	0.129155
1837.5	0.274639
1838.99	0.395556
1840.49	0.299215
1841.98	0.0328045
1843.48	0.150413
1844.97	0.164154
1846.47	0.428921
1847.96	0.555343
1849.46	0.361215
1850.95	0.105458
1852.45	0.0118465
1853.94	0.287305
1855.43	0.0649061
1856.92	0.00386143
1858.42	0.19267
1859.91	0.371318
1861.4	0.206971
1862.89	-0.0990763
1864.39	-0.155186
1865.88	-0.00981808
1867.37	0.251628
1868.86	0.248249
1870.35	0.0715199
1871.84	0.350537
1873.33	0.341434
1874.82	0.324049
1876.31	0.107951
1877.8	-0.152884
1879.29	-0.441451
1880.77	-0.259621
1882.26	0.297394
1882.51	0.399824
1884	-0.0196314
1885.5	-0.404631
1886.99	0.0808382
1888.48	-0.0961504
1889.98	0.544936
1891.47	0.403743
1892.97	0.333685
1894.46	0.0219364
1895.95	-0.18412
1897.44	-0.180809
1898.93	-0.316741
1900.42	0.17272
1901.92	0.156256
1903.41	0.312101
1904.9	-0.072381
1906.39	0.428885
1907.88	0.287084
1909.37	0.0244732
1910.86	0.335503
1912.35	0.0747328
1913.84	0.144123
1915.32	-0.0291901
1916.81	0.21336
1918.3	0.0393362
1919.79	-0.0137005
1921.28	0.418196
1922.76	0.244147
1924.25	0.088295
1925.74	0.504781
1927.22	0.0912819
1928.71	0.00727272
1930.2	-0.301889
1931.68	-0.0922613
1933.17	-0.247525
1934.65	0.0977411
1936.14	0.441221
1937.62	-0.219633
1939.11	0.346739
1940.59	0.0837965
1942.08	0.115313
1943.56	0.0269966
1945.04	0.405118
1946.53	0.111035
1948.01	-0.0624275
1949.49	-0.0813723
1950.97	0.139881
1952.45	-0.190579
1953.94	-0.228792
1955.42	0.489053
1956.9	0.0214033
1958.38	-0.136142
1959.86	-0.104177
1961.34	0.0997143
1962.82	0.0979385
1964.3	-0.0410538
1965.78	0.0422592
1967.26	0.159109
1968.74	-0.169486
1970.22	0.134268
1971.69	-0.0750608
1973.17	0.432721
1974.65	0.206464
1976.13	0.338614
1977.61	-0.278689
1979.08	0.211306
1980.56	-0.217907
1982.03	0.0842428
1983.51	0.0459805
1984.99	-0.196204
1986.46	0.206255
1987.94	0.133561
1989.41	0.366073
1990.89	-0.213421
1992.36	0.00353813
1993.84	-0.0155125
1995.31	0.185872
1996.78	-0.237549
1998.26	-0.289175
1999.73	-0.0372505
2001.2	-0.0729256
2002.68	-0.0415363
2004.15	0.00655746
2005.62	0.391901
2007.09	0.30598
2008.56	-0.21682
2010.04	0.608216
2011.51	0.171001
2012.98	-0.0640755
2014.45	0.222238
2015.92	0.120784
2017.39	-0.570053
2018.86	-0.201938
2020.33	-0.120285
2021.8	0.0955076
2023.27	0.210662
2024.74	0.0411921
2026.2	-0.64711
2027.67	-0.210257
2029.14	0.0768948
2030.61	0.281428
2032.07	0.100981
2033.54	0.323755
2035.01	0.244398
2036.47	-0.0369329
2037.94	-0.0164328
2039.41	-0.214758
2040.87	-0.228299
2042.34	0.296533
2043.8	0.300933
2045.27	0.00326633
2046.73	0.261577
2048.2	0.166698
2049.66	-0.349909
2051.12	0.413585
2052.59	-0.139289
2054.05	-0.339695
2055.51	0.183546
2056.98	0.351309
2058.44	0.332863
2059.9	0.533248
2061.36	0.397105
2062.82	0.514289
2064.29	0.800661
2065.75	0.246495
2067.21	0.315803
2068.67	0.166854
2070.13	0.337988
2071.59	0.340877
2073.05	0.410992
2074.51	0.396684
2075.97	0.365234
2077.43	0.266097
2078.88	-0.0691538
2080.34	0.656068
2081.8	0.757674
2083.26	0.505132
2084.72	0.74004
2086.17	0.20031
2087.63	0.215333
2089.09	0.498861
2090.54	0.462774
2092	0.426659
2093.46	0.356944
2094.91	0.723104
2096.37	0.836978
2097.82	0.665342
2099.28	0.409693
2100.73	0.705996
2102.19	0.534163
2103.64	0.663911
2105.09	0.844771
2106.55	0.693127
2108	0.826116
2109.46	0.909349
2110.91	1.30877
2112.36	1.04009
2113.81	1.10309
2115.27	1.09788
2116.72	0.809183
2118.17	1.31857
2119.62	1.28073
2121.07	1.31119
2122.52	1.01186
2123.97	1.21154
2125.42	1.12994
2126.87	0.81601
2128.32	1.03169
2129.77	1.12995
2131.22	0.945317
2132.67	1.2567
2134.12	1.31954
2135.57	1.48228
2137.01	1.16701
2138.46	0.969353
2139.91	1.40152
2141.36	1.63705
2142.8	1.84085
2144.25	1.53263
2145.7	1.48911
2147.14	1.7764
2148.59	1.15233
2150.03	1.12348
2151.48	1.17652
2152.92	1.31149
2154.37	1.97585
2155.81	1.5131
2157.26	2.0941
2158.7	2.06287
2160.15	1.96674
2161.59	1.78949
2163.03	2.04502
2164.48	1.87107
2165.92	1.68115
2167.36	1.7567
2168.8	1.93106
2170.25	1.70466
2171.69	1.84202
2173.13	2.01072
2174.57	1.81205
2176.01	1.5297
2177.45	1.59682
2178.89	1.83091
2180.33	1.66694
2181.77	1.6701
2183.21	1.52417
2184.65	1.46164
2186.09	1.08307
2187.53	1.83585
2188.97	1.49057
2190.41	1.86089
2191.84	1.48191
2193.28	1.46843
2194.72	1.12068
2196.16	1.60362
2197.59	2.15081
2199.03	1.09942
2200.47	1.47737
2201.9	1.47273
2203.34	1.7176
2204.78	1.13418
2206.21	1.38103
2207.65	0.965514
2209.08	1.37817
2210.51	1.24351
2211.95	1.24037
2213.38	1.2861
2214.82	1.2986
2216.25	1.37768
2217.68	1.2433
2219.12	1.04426
2220.55	1.12645
2221.98	1.19224
2223.42	1.20791
2224.85	1.0411
2226.28	0.774171
2227.71	1.21307
2229.14	0.795868
2230.57	1.08426
2232	0.814644
2233.43	0.480419
2234.86	0.736218
2236.29	0.829237
2237.72	0.66236
2239.15	0.497411
2240.58	0.693244
2242.01	0.205628
2243.44	0.730365
2244.87	0.798779
2246.3	0.573
2247.73	0.427402
2249.15	0.263693
2250.58	0.391469
2252.01	0.305896
2253.43	0.28478
2254.86	0.556397
2256.29	0.569088
2257.71	0.25935
2259.14	0.406549
2260.56	0.312945
2261.99	0.870704
2263.41	0.439788
2264.84	0.236169
2266.26	0.536083
2267.69	0.249944
2269.11	0.695096
2270.54	0.016573
2271.96	0.411922
2273.38	0.286127
2274.81	-0.181738
2276.23	0.539794
2277.65	0.332871
2279.07	0.354127
2280.49	0.522103
2281.92	0.184419
2283.34	0.0749016
2284.76	0.161194
2286.18	0.492554
2287.6	0.497873
2289.02	0.389253
2290.44	-0.258314
2291.86	0.27081
2293.28	-0.131691
2294.7	0.39804
2296.12	0.273415
2297.54	0.558022
2298.96	0.351439
2300.38	0.489025
2301.79	-0.0781074
2303.21	0.223955
2304.63	-0.294263
2306.05	0.188733
2307.46	0.294002
2308.88	-0.04493
2310.3	-0.318846
2311.71	0.196278
2313.13	-0.160375
2314.55	0.108532
2315.96	-0.198065
2317.38	0.138221
2318.79	-0.118185
2320.21	0.367145
2321.62	0.191963
2323.03	0.361637
2324.45	0.232238
2325.86	0.397894
2327.27	0.495967
2328.69	0.197709
2330.1	0.229368
2331.51	0.623955
2332.93	0.262171
2334.34	0.181067
2335.75	-0.0971832
2337.16	0.0190425
2338.57	0.150818
2339.99	0.100743
2341.4	-0.0978823
2342.81	-0.0997553
2344.22	0.341134
2345.63	0.126116
2347.04	0.20644
2348.45	-0.00794697
2349.86	-0.353248
2351.26	0.298441
2352.67	0.180605
2354.08	0.1927
2355.49	-0.219624
2356.9	0.085072
2358.31	0.43787
2359.71	-0.201075
2361.12	0.119006
2362.53	-0.11284
2363.94	0.0444121
2365.34	0.136565
2366.75	-0.417766
2368.15	-0.16322
2369.56	0.301404
2370.97	0.00882483
2372.37	-0.282249
2373.78	0.265156
2375.18	0.281249
2376.59	0.425722
2377.99	0.0706239
2379.39	0.0681758
2380.8	-0.19252
2382.2	-0.309541
2383.61	-0.122729
2385.01	0.127409
2386.41	0.265439
2387.81	0.372014
2389.22	0.144601
2390.62	-0.129126
2392.02	0.585601
2393.42	0.0274339
2394.82	-0.179562
2396.22	-0.147327
2397.63	0.123804
2399.02	-0.0337276
2400.43	0.031631
2401.82	0.526091
2403.23	0.353431
2404.62	-0.0417843
2406.02	0.387902
2407.42	-0.072094
2408.82	0.260631
2410.22	0.0854869
2411.62	0.544428
2413.02	0.306864
2414.41	0.102235
2415.81	-0.196059
2417.21	0.124182
2418.61	0.144431
2420	0.703464
2421.4	-0.00460243
2422.79	0.348247
2424.19	0.288992
2425.59	0.0713029
2426.98	-0.225273
2428.38	0.334813
2429.77	-0.309245
2431.17	0.300208
2432.56	-0.184978
2433.96	-0.0834117
2435.35	-0.109787
2436.74	0.0532804
2438.14	-0.10269
2439.53	-0.0849576
2440.92	0.281363
2442.32	-0.384861
2443.71	0.218625
2445.1	0.107705
2446.49	0.266271
2447.88	-0.209315
2449.28	-0.00336075
2450.67	0.281766
2452.06	0.139778
2453.45	0.156769
2454.84	-0.205208
2456.23	0.12951
2457.62	-0.231537
2459.01	-0.133974
2460.4	0.0737991
2461.79	0.438922
2463.18	0.123501
2464.57	-0.0184007
2465.96	0.139612
2467.34	-0.144588
2468.73	0.202549
2470.12	0.233778
2471.51	-0.397441
2472.89	0.184499
2474.28	0.0723748
2475.67	-0.0558672
2477.05	-0.0270452
2478.44	-0.0297284
2479.83	0.0775685
2481.21	0.24756
2482.6	0.0725422
2483.98	0.179198
2485.37	-0.0278759
2486.75	0.217594
2488.14	-0.349861
2489.52	0.252319
2490.9	0.354758
2492.29	0.19312
2493.67	0.265677
2495.06	-0.141652
2496.44	0.196765
2497.82	-0.347469
2499.2	-0.302547
2500.59	0.159668
2501.97	0.342333
2503.35	0.106934
2504.73	-0.00536966
2506.11	-0.533974
2507.49	-0.384408
2508.88	0.0723906
2510.26	0.0217576
2511.63	0.155871
2513.01	0.167758
2514.39	0.165039
2515.77	0.0712261
2517.15	-0.00652075
2518.53	0.0232964
2519.91	0.0379453
2521.29	-0.0392737
2522.67	0.0662189
2524.05	0.018343
2525.42	0.076623
2526.8	0.165034
2528.18	0.17756
2529.56	0.0237164
2530.93	0.418508
2532.31	0.297863
2533.69	0.163247
2535.06	0.0140667
2536.44	0.199099
2537.81	0.216445
2539.19	-0.253022
2540.56	0.33988
2541.94	-0.00892973
2543.31	0.158577
2544.69	0.11433
2546.06	0.055954
2547.44	0.104777
2548.81	-0.118768
2550.18	0.325347
2551.56	-0.00479412
2552.93	0.37755
2554.3	0.243021
2555.68	0.213961
2557.05	0.336109
2558.42	0.109317
2559.79	0.00413465
2561.16	-0.0247827
2562.53	0.189302
2563.9	0.282614
2565.28	0.391447
2566.64	0.167093
2568.02	0.382303
2569.38	0.476285
2570.76	0.706688
2572.12	0.361155
2573.49	-0.0752997
2574.86	0.246239
2576.23	0.0827069
2577.6	0.191997
2578.97	0.316278
2580.34	0.0611811
2581.7	0.124165
2583.07	-0.146729
2584.44	0.431182
2585.81	-0.294686
2587.17	0.237689
2588.54	-0.169514
2589.91	0.0296116
2591.27	0.471061
2592.64	0.412014
2594	0.458328
2595.37	-0.056581
2596.73	0.0789342
2598.1	-0.134295
2599.46	-0.211522
2600.83	0.104278
2602.19	0.10299
2603.55	-0.048696
2604.92	-0.0639939
2606.28	0.0868087
2607.64	0.131683
2609.01	-0.155754
2610.37	0.264072
2611.73	0.456427
2613.09	0.151229
2614.46	0.176424
2615.82	-0.0537553
2617.18	0.241384
2618.54	0.251902
2619.9	-0.0212584
2621.26	0.229957
2622.62	0.257122
2623.98	0.329245
2625.34	0.117696
2626.7	0.0702577
2628.06	0.156717
2629.42	0.0492215
2630.78	-0.073164
2632.14	0.488392
2633.5	0.0686226
2634.86	0.109612
2636.22	0.0911841
2637.57	0.517314
2638.93	-0.0196085
2640.29	0.154586
2641.64	0.0182686
2643	-0.176717
2644.36	-0.0169864
2645.72	0.260473
2647.07	0.0654659
2648.43	0.194237
2649.78	0.277948
2651.14	0.15509
2652.49	0.2525
2653.85	0.261861
2655.2	0.139907
2656.56	-0.0102224
2657.91	0.221351
2659.27	0.263236
2660.62	0.422396
2661.97	-0.222508
2663.33	-0.1515
2664.68	0.00634575
2666.03	0.54256
2667.38	0.363407
2668.74	0.155337
2670.09	0.384317
2671.44	0.0463572
2672.79	0.203399
2674.14	0.50599
2675.49	0.286231
2676.84	0.0961699
2678.2	0.182362
2679.55	0.240191
2680.89	-0.194067
2682.24	0.416545
2683.59	0.404758
2684.94	0.234236
2686.29	-0.0230589
2687.64	0.0677042
2688.99	0.375309
2690.34	0.376668
2691.69	0.216803
2693.04	0.229851
2694.38	0.300059
2695.73	0.399011
2697.08	0.310058
2698.43	-0.0239234
2699.77	0.164851
2701.12	0.456427
2702.46	0.416258
2703.81	0.188584
2705.16	0.352574
2706.5	0.125148
2707.85	0.260066
2709.19	0.365713
2710.54	0.224241
2711.88	-0.0192447
2713.23	0.216516
2714.57	0.481439
2715.92	-0.125941
2717.26	0.037044
2718.6	0.418127
2719.95	0.260683
2721.29	-0.0863986
2722.63	0.14823
2723.97	0.207829
2725.32	-0.271494
2726.66	0.194975
2728	0.239057
2729.34	0.413893
2730.68	0.195694
2732.02	0.224843
2733.36	0.254048
2734.7	0.312478
2736.04	-0.00709438
2737.39	0.284317
2738.72	0.284814
2740.06	0.357812
2741.4	0.61941
2742.74	0.371549
2744.08	0.0214844
2745.42	0.150545
2746.76	0.322704
2748.1	0.0155497
2749.44	0.434134
2750.77	0.257909
2752.11	-0.0339575
2753.45	-0.166011
2754.78	0.426562
2756.12	0.280203
2757.46	-0.0252156
2758.79	-0.0986562
2760.13	-0.200707
2761.47	0.160724
2762.8	0.262006
2764.14	0.0741568
2765.47	-0.113685
2766.81	0.0164104
2768.14	0.261431
2769.48	-0.0152874
2770.81	0.328462
2772.14	-0.0225511
2773.48	0.0157037
2774.81	0.154357
2776.14	-0.269026
2777.48	-0.0293908
2778.81	-0.134842
2780.14	-0.22535
2781.47	-0.0713549
2782.81	0.168611
2784.14	-0.151122
2785.47	-0.441788
2786.8	-0.0301204
2788.13	0.0522056
2789.46	-0.179692
2790.79	0.204311
2792.12	0.102573
2793.46	0.0441494
2794.79	0.128705
2796.11	0.0557723
2797.44	0.139549
2798.77	0.0657358
2800.1	0.0344405
2801.43	-0.0541124
2802.76	0.0283537
2804.09	0.224524
2805.42	0.0782895
2806.74	-0.0398049
2808.07	0.0124207
2809.4	0.177904
2810.73	-0.125484
2812.05	0.182259
2813.38	0.0508738
2814.71	0.0483909
2816.03	0.415628
2817.36	0.216781
2818.68	0.259392
2820.01	0.0610638
2821.33	0.131664
2822.66	0.0174761
2823.98	0.327852
2825.31	0.227014
2826.63	-0.312737
2827.96	0.110904
2829.28	0.0535421
2830.61	0.152283
2831.93	0.0247016
2833.25	0.590671
2834.57	0.179686
2835.9	0.207096
2837.22	0.290654
2838.54	0.614286
2839.86	0.739583
2841.18	0.596273
2842.51	1.11772
2843.83	1.13076
2845.15	1.1727
2846.47	1.68156
2847.79	1.28625
2849.11	1.48456
2850.43	1.72501
2851.75	1.38553
2853.07	1.54028
2854.39	1.80769
2855.71	2.23027
2857.03	2.01701
2858.35	1.81799
2859.67	1.60488
2860.98	1.78705
2862.3	1.84181
2863.62	1.68452
2864.94	1.97859
2866.25	1.82109
2867.57	1.50874
2868.89	2.26849
2870.21	1.9992
2871.52	1.99794
2872.84	2.39108
2874.15	2.00845
2875.47	2.48435
2876.78	2.02971
2878.1	2.40502
2879.42	2.41403
2880.73	2.46545
2882.04	2.33488
2883.36	2.43003
2884.67	2.07665
2885.99	2.53814
2887.3	2.18547
2888.61	2.57627
2889.93	2.79785
2891.24	2.33146
2892.55	2.71988
2893.87	2.72954
2895.18	2.79553
2896.49	2.63821
2897.8	2.80374
2899.11	2.87216
2900.42	2.70344
2901.74	2.70302
2903.05	2.84266
2904.36	2.91246
2905.67	3.3182
2906.98	2.87119
2908.29	2.9284
2909.6	3.15425
2910.91	3.28271
2912.22	3.84515
2913.53	3.03515
2914.83	3.35786
2916.14	3.6931
2917.45	3.8309
2918.76	3.84183
2920.07	3.60085
2921.37	3.72412
2922.68	3.61073
2923.99	4.22541
2925.3	4.26796
2926.6	4.26912
2927.91	4.35422
2929.22	4.06153
2930.52	4.21571
2931.83	4.3555
2933.13	3.93592
2934.44	4.20125
2935.74	3.9775
2937.05	3.89366
2938.35	4.3969
2939.66	4.31345
2940.96	4.0488
2942.27	4.30192
2943.57	3.73154
2944.87	3.48361
2946.18	3.32043
2947.48	3.40946
2948.78	3.19046
2950.09	3.46042
2951.39	3.23891
2952.69	3.23984
2953.99	3.16959
2955.29	3.12703
2956.6	2.76328
2957.9	3.15704
2959.2	2.3351
2960.5	2.88751
2961.8	2.69934
2963.1	2.51156
2964.4	2.49154
2965.7	2.58275
2967	2.4619
2968.3	2.62104
2969.6	2.0906
2970.9	2.41778
2972.2	1.80277
2973.49	2.22908
2974.79	1.44505
2976.09	1.75839
2977.39	1.8737
2978.69	1.73421
2979.98	1.69191
2981.28	1.90185
2982.58	1.92831
2983.88	1.63165
2985.17	1.57502
2986.47	1.28078
2987.76	1.36716
2989.06	0.990632
2990.36	1.27482
2991.65	1.12297
2992.95	1.11084
2994.24	1.2944
2995.54	0.662257
2996.83	0.830293
2998.12	0.254248
2999.42	0.268044
3000.71	0.618749
3002	0.619256
3003.3	0.227761
3004.59	0.32689
3005.88	0.52379
3007.18	0.412106
3008.47	0.355829
3009.76	0.284931
3011.05	0.437094
3012.35	0.211723
3013.64	0.69818
3014.93	0.194501
3016.22	0.137883
3017.51	0.430004
3018.8	0.0682445
3020.09	0.0824513
3021.38	-0.0704751
3022.67	-0.112732
3023.96	0.454915
3025.25	0.119754
3026.54	0.0343685
3027.83	0.12941
3029.12	-0.148101
3030.41	0.252995
3031.69	0.0196128
3032.98	0.091011
3034.27	-0.0167661
3035.56	-0.180039
3036.85	-0.0821853
3038.13	0.193237
3039.42	0.287707
3040.71	0.201981
3041.99	0.252969
3043.28	0.0981846
3044.57	0.081398
3045.85	-0.0160313
3047.14	-0.289101
3048.42	0.0680819
3049.71	0.153719
3050.99	0.0905366
3052.28	0.150883
3053.56	0.14304
3054.85	0.312047
3056.13	0.111907
3057.42	0.170055
3058.7	-0.031352
3059.98	0.0804458
3061.27	0.0155196
3062.55	0.128264
3063.83	0.296451
3065.11	-0.00994682
3066.4	0.147069
3067.68	0.223371
3068.96	0.232061
3070.24	-0.12664
3071.52	-0.0780063
3072.8	0.200869
3074.09	0.125156
3075.37	-0.0735221
3076.65	0.379606
3077.93	0.0996652
3079.21	0.160068
3080.49	-0.0767393
3081.77	0.148983
3083.05	0.14516
3084.32	0.264069
3085.61	-0.281883
3086.88	-0.000356197
3088.16	0.131362
3089.44	-0.171769
3090.72	-0.0680618
3092	-0.249377
3093.27	0.0171371
3094.55	0.216015
3095.83	0.143909
3097.11	-0.199185
3098.38	-0.0813379
3099.66	-0.112666
3100.94	-0.0356374
3102.21	0.136227
3103.49	-0.0572858
3104.76	0.209947
3106.04	0.0717216
3107.31	0.0290313
3108.59	-0.202257
3109.86	0.406503
3111.14	0.488366
3112.41	0.205262
3113.69	0.383033
3114.96	0.50677
3116.23	0.264094
3117.51	0.11557
3118.78	0.251012
3120.05	0.127896
3121.33	0.193926
3122.6	0.151052
3123.87	0.257087
3125.14	0.525705
3126.42	0.374954
3127.69	0.360124
3128.96	0.291685
3130.23	0.318264
3131.5	0.5207
3132.77	0.0202985
3134.04	0.100824
3135.31	0.437396
3136.58	0.51684
3137.85	0.393565
3139.12	0.580029
3140.39	0.106586
3141.66	0.0374961
3142.93	0.29128
3144.2	0.209441
3145.47	0.557572
3146.74	0.369595
3148	0.517372
3149.27	0.4647
