200.388	0.75882
202.204	0.793812
204.019	0.830151
205.832	0.332794
207.646	0.103693
209.459	-0.125956
211.274	0.906036
213.087	0.065773
214.899	0.583275
216.711	0.856686
218.524	1.08127
220.335	1.1127
222.146	0.589079
223.956	-0.0294266
225.766	0.634245
227.576	0.0654297
229.388	0.510689
231.197	-0.565908
233.005	0.239628
234.813	-0.112633
236.621	0.501211
238.429	-0.232033
240.236	-0.0217838
242.045	-0.290506
243.852	0.0695553
245.658	0.936686
247.464	0.474352
249.269	0.152744
251.074	0.188745
252.879	0.55855
254.683	0.804694
256.487	0.302367
258.291	-0.22255
260.094	-0.0462427
261.897	-0.204646
263.702	-0.216208
265.504	0.255518
267.306	-0.212037
269.108	0.35624
270.909	1.04403
272.71	0.88629
274.511	0.726381
276.311	0.106029
278.111	0.133938
279.91	0.54425
281.709	0.686252
283.508	0.873294
285.306	0.769434
287.105	0.616495
288.9	0.823363
290.698	-0.11903
292.495	0.234445
294.291	0.278576
296.088	0.157332
297.884	0.324473
299.679	0.372714
301.475	-0.343695
303.27	1.08801
305.064	-0.323291
306.858	0.9368
308.652	0.359482
310.444	0.212268
312.237	0.162039
314.03	0.256924
315.822	0.901991
317.615	0.382789
319.406	1.17574
321.198	0.660161
322.987	0.669734
324.778	0.918554
326.568	1.16779
328.358	0.724074
330.148	1.68923
331.935	0.0465164
333.724	0.553335
335.513	1.20085
337.301	1.17493
339.089	0.691214
340.875	1.23369
342.662	0.387945
344.449	0.474574
346.236	1.2544
348.02	0.721363
349.806	0.475773
351.592	0.254152
353.375	1.01012
355.16	0.762203
356.944	0.297879
358.728	0.713762
360.51	0.103318
362.294	-0.0793228
364.077	0.712059
365.858	0.360629
367.64	1.07673
369.422	0.770468
371.202	1.1504
372.983	1.19711
374.764	1.17215
376.543	1.76099
378.324	1.99555
380.102	2.11319
381.881	2.39717
383.661	2.89446
385.438	2.21782
387.216	1.68476
388.993	2.11693
390.771	2.50346
392.548	2.60937
394.324	1.96477
396.101	1.76694
397.875	1.85104
399.651	1.37115
401.425	0.561687
403.201	1.25448
404.974	1.2884
406.749	0.52274
408.524	1.49375
410.296	0.938033
412.07	0.945758
413.841	1.07133
415.614	0.423578
417.385	0.152341
419.156	0.632856
420.928	-0.646443
422.698	0.256577
424.469	0.36062
426.238	0.181591
428.009	0.47084
429.777	0.313272
431.548	0.0617332
433.315	0.0217943
435.083	0.193495
436.852	-0.292011
438.618	0.394965
440.387	0.164612
442.153	0.330287
443.919	0.680234
445.686	0.441279
447.451	0.692384
449.218	0.217325
450.982	0.747801
452.746	-0.589767
454.512	0.104427
456.275	-0.344603
458.038	0.324683
459.803	0.0620928
461.565	-0.129498
463.327	-0.295592
465.091	0.261907
466.852	0.451466
468.613	0.0406284
470.374	0.794886
472.136	0.759815
473.896	0.327864
475.655	0.964393
477.415	-0.0559397
479.176	0.481628
480.934	0.505155
482.692	0.924702
484.45	0.76359
486.21	0.185882
487.967	0.89267
489.724	0.320513
491.481	1.0095
493.237	0.392286
494.995	0.896774
496.75	0.980706
498.506	0.99407
500.26	1.05366
502.015	1.27667
503.771	1.14637
505.525	1.64873
507.279	1.82032
509.032	1.80145
510.785	1.70944
512.537	2.50909
514.289	1.37683
516.041	1.88948
517.793	2.35289
519.546	2.2501
521.297	2.07565
523.047	2.83993
524.797	1.34975
526.547	1.76126
528.297	1.96134
530.046	1.55174
531.795	0.720348
533.543	0.988901
535.291	0.577016
537.039	0.747986
538.787	1.10331
540.534	0.709783
542.281	0.455669
544.027	0.597051
545.773	0.459146
547.519	1.55188
549.264	-0.0699406
551.01	0.396296
552.754	0.468507
554.499	0.448383
556.243	0.451743
557.987	1.17051
559.73	0.460197
561.474	-0.0869322
563.216	-0.0343266
564.959	0.133926
566.701	-0.317368
568.441	0.10538
570.182	0.0243025
571.923	-0.559532
573.664	0.166602
575.405	0.505235
577.145	0.135094
578.885	0.202793
580.624	0.570264
582.361	-0.0727615
584.1	0.0415249
585.839	0.79843
587.577	0.288729
589.315	0.214191
591.052	0.736473
592.787	0.751785
594.524	0.467735
596.26	1.28807
597.997	0.106771
599.732	0.236371
601.466	0.0197411
603.201	0.445347
604.936	0.362787
606.67	1.05962
608.403	0.0780125
610.136	-0.0305872
611.87	-0.184314
613.603	0.0300465
615.334	0.176462
617.067	0.323047
618.799	0.674941
620.529	0.864734
622.26	0.389006
623.991	-0.110259
625.72	-0.974389
627.451	-0.466269
629.181	0.112452
630.909	-0.104394
632.638	0.75421
634.368	-0.119872
636.095	0.30656
637.823	-0.0682917
639.551	0.78554
641.277	-0.692205
643.005	-0.143015
644.73	0.289538
646.457	0.334874
648.184	-0.321922
649.908	0.503286
651.634	0.265802
653.357	-0.011549
655.083	0.579981
656.806	0.287998
658.53	-0.0714464
660.253	-0.181147
661.977	-0.544373
663.7	0.482736
665.422	0.135698
667.145	0.242998
668.865	0.166199
670.588	-0.138551
672.308	0.177127
674.027	0.0844479
675.749	-0.00525093
677.468	-0.50623
679.188	0.186357
680.907	0.924958
682.627	0.534889
684.345	-0.319191
686.064	0.227819
687.781	0.54253
689.498	-0.203856
691.216	0.522868
692.932	0.258217
694.65	1.07504
696.366	0.669699
698.081	1.04551
699.797	0.452687
701.512	0.249736
703.228	-0.000349998
704.942	0.437932
706.655	0.57646
708.371	0.461878
710.083	0.392775
711.796	0.323257
713.51	0.139012
715.222	-0.022316
716.934	0.181884
718.645	0.134912
720.358	0.658041
722.068	0.269642
723.779	0.109524
725.49	0.245038
727.2	1.08407
728.909	0.377872
730.618	0.919258
732.329	0.43981
734.037	1.22809
735.745	0.297022
737.453	0.632827
739.16	0.991533
740.869	1.21577
742.576	1.19372
744.282	1.35384
745.988	0.863332
747.694	0.690214
749.401	1.08144
751.107	1.36207
752.811	1.2173
754.516	1.29954
756.22	1.29403
757.924	2.61928
759.627	1.40253
761.332	2.57574
763.035	3.3455
764.738	3.34836
766.44	2.87497
768.142	4.61344
769.843	3.88476
771.544	4.50912
773.245	4.22646
774.946	4.75694
776.646	3.52467
778.346	3.53812
780.046	3.68984
781.745	3.68525
783.444	3.45471
785.143	2.86015
786.841	2.4429
788.539	2.6772
790.237	2.11446
791.934	2.49752
793.631	1.59022
795.328	1.56394
797.024	1.1333
798.72	1.80927
800.416	2.39707
802.112	2.24408
803.807	1.5976
805.502	1.24373
807.196	1.51819
808.89	1.88048
810.584	1.56731
812.278	1.85866
813.971	1.40929
815.664	1.47519
817.354	1.94357
819.047	1.47257
820.739	1.51623
822.43	1.73887
824.122	1.91776
825.813	1.54143
827.503	1.99273
829.192	2.18068
830.882	1.10376
832.571	1.43413
834.261	1.47819
835.95	0.587129
837.637	1.27938
839.325	1.39024
841.013	1.40958
842.701	1.49398
844.389	1.5106
846.074	1.30465
847.761	1.3247
849.447	1.66157
851.131	1.33094
852.817	1.33885
854.503	1.05656
856.188	1.29016
857.871	2.0173
859.556	0.98814
861.24	1.531
862.922	1.17095
864.606	1.64253
866.289	1.00842
867.97	1.16225
869.653	0.593773
871.336	1.44575
873.016	1.23738
874.698	0.0811577
876.379	0.188399
878.058	0.340869
879.739	1.05758
881.418	0.261454
883.098	0.728491
884.778	0.539342
886.456	0.709411
888.135	1.28325
889.812	0.253165
891.49	0.754629
893.167	1.27603
894.845	0.804764
896.523	1.11959
898.198	0.758625
899.875	0.755962
901.55	0.886593
903.226	1.4636
904.901	0.98848
906.576	0.49253
908.25	1.62623
909.925	0.843432
911.598	0.708851
913.271	1.2868
914.945	1.46453
916.617	1.15403
918.291	1.28726
919.962	0.711901
921.635	0.602932
923.306	0.45159
924.978	0.943406
926.648	1.41534
928.318	0.432755
929.989	0.555911
931.659	0.768348
933.328	1.06941
934.998	0.15752
936.666	1.12114
938.336	0.850879
940.004	0.604467
941.671	0.337734
943.34	0.314733
945.007	0.733028
946.673	0.0682755
948.339	0.305943
950.007	0.5629
951.672	0.553163
953.337	0.543439
955.004	-0.456385
956.669	0.223624
958.333	0.246756
959.997	0.296073
961.662	0.988372
963.326	-0.0645857
964.989	0.648188
966.651	0.583405
968.315	1.08977
969.977	0.24336
971.639	0.634544
973.301	0.782925
974.962	0.380546
976.624	0.157725
978.285	0.777676
979.945	0.359017
981.605	-0.0603533
983.264	0.315236
984.924	0.776658
986.583	0.770102
988.243	-0.0577383
989.901	0.572808
991.56	0.649189
993.217	-0.069931
994.875	-0.14791
996.532	0.877497
998.188	0.887458
999.845	0.985239
1001.5	0.818071
1003.16	1.33272
1004.81	0.702586
1006.47	0.292947
1008.12	0.301314
1009.78	0.397922
1011.43	0.955608
1013.09	0.37364
1014.74	1.12912
1016.39	1.33708
1018.05	1.63316
1019.7	1.79902
1021.35	1.59475
1023	2.76944
1024.65	2.52477
1026.31	4.02937
1027.96	3.32692
1029.61	3.08241
1031.26	3.68772
1032.91	2.78349
1034.56	3.16462
1036.21	3.76088
1037.86	3.09119
1039.51	2.57474
1041.16	2.60394
1042.8	1.831
1044.45	2.12635
1046.1	2.18574
1047.75	1.9442
1049.39	0.728122
1051.04	1.18631
1052.69	1.16802
1054.33	0.998241
1055.98	0.567618
1057.62	0.679896
1059.27	1.63946
1060.91	1.64151
1062.56	1.59885
1064.2	1.18512
1065.85	0.98728
1067.49	1.24427
1069.13	0.239489
1070.77	0.320346
1072.42	0.943587
1074.06	1.37174
1075.7	1.36737
1077.34	1.66872
1078.98	1.88528
1080.62	1.12732
1082.27	1.04166
1083.91	1.8437
1085.55	2.5562
1087.18	2.0948
1088.82	2.99465
1090.46	1.8347
1092.1	2.46897
1093.74	1.80538
1095.38	1.9632
1097.02	2.25138
1098.65	2.11052
1100.29	1.36997
1101.93	0.78385
1103.56	1.06141
1105.2	1.2119
1106.84	1.21278
1108.47	1.23477
1110.11	1.08312
1111.74	0.585265
1113.38	0.622444
1115.01	0.614737
1116.64	0.970785
1118.28	0.29746
1119.91	0.525845
1121.54	0.669824
1123.18	1.07214
1124.81	1.26175
1126.44	1.62374
1128.07	0.575451
1129.7	0.811527
1131.33	0.492599
1132.97	1.17896
1134.6	0.753519
1136.23	0.092165
1137.86	0.732975
1139.49	0.688069
1141.11	0.171959
1142.74	0.551804
1144.37	0.504868
1146	-0.287155
1147.63	0.691669
1149.26	-0.43798
1150.88	-0.309593
1152.51	-0.308975
1154.14	0.265994
1155.76	0.329255
1157.39	-0.52259
1159.01	0.00911808
1160.64	0.733171
1162.27	0.671983
1163.89	-0.0467358
1165.51	0.213405
1167.14	0.196836
1168.76	0.00868797
1170.39	0.222013
1172.01	-0.205015
1173.63	0.321253
1175.25	-0.067359
1176.88	0.0314054
1178.5	-0.356923
1180.12	-0.0663271
1181.74	0.584805
1183.36	1.00365
1184.98	-0.141448
1186.6	0.00164795
1188.22	0.479786
1189.84	0.954098
1191.46	0.624399
1193.08	0.314219
1194.7	0.234573
1196.32	0.0293436
1197.94	0.831053
1199.55	1.23604
1201.17	0.724511
1202.79	0.176158
1204.41	0.404502
1206.02	0.0308676
1207.64	0.869384
1209.25	0.143731
1210.87	0.585129
1212.48	1.12805
1214.1	0.125088
1215.71	0.286178
1217.33	0.402695
1218.94	0.43428
1220.56	0.839254
1222.17	1.57624
1223.79	1.77507
1225.4	0.319587
1227.01	0.21335
1228.62	0.93663
1230.23	0.689491
1231.85	0.299609
1233.46	0.573031
1235.07	1.05494
1236.68	0.918654
1238.29	1.23872
1239.9	0.856925
1241.51	1.21988
1243.12	1.89287
1244.73	1.67519
1246.34	1.45588
1247.94	1.35916
1249.55	1.55093
1251.16	0.6664
1252.77	2.16114
1254.37	1.02993
1255.98	1.63785
1257.59	2.64086
1259.2	1.01824
1260.8	1.83858
1262.41	1.43854
1264.01	1.51473
1265.62	0.927273
1267.22	2.01737
1268.83	1.4272
1270.43	0.91821
1272.03	1.54801
1273.64	2.17615
1275.24	1.78685
1276.85	2.163
1278.45	1.95759
1280.05	1.565
1281.65	1.64829
1283.25	2.24884
1284.85	2.10527
1286.46	2.43867
1288.06	2.81491
1289.66	2.40725
1291.26	2.84776
1292.86	2.35832
1294.46	2.21906
1296.06	1.70614
1297.66	2.47103
1299.25	2.59289
1300.85	2.25859
1302.45	2.84978
1304.05	2.12121
1305.65	3.24326
1307.24	2.51374
1308.84	1.99042
1310.43	1.38626
1312.03	1.56186
1313.63	1.69734
1315.22	1.95668
1316.82	1.62497
1318.41	2.68203
1320.01	1.69867
1321.6	1.61185
1323.2	2.23513
1324.79	1.91935
1326.38	1.25701
1327.98	1.75113
1329.57	1.73852
1331.16	1.12157
1332.76	2.34787
1334.35	1.73832
1335.94	1.89892
1337.53	1.63676
1339.12	1.65616
1340.71	1.47168
1342.3	2.02889
1343.89	1.45622
1345.48	1.74645
1347.07	1.67506
1348.66	1.20575
1350.25	0.320675
1351.84	0.920604
1353.43	0.703244
1355.01	1.18753
1356.6	0.553176
1358.19	1.23703
1359.77	0.820756
1361.36	1.72059
1362.95	0.264302
1364.53	0.36419
1366.12	0.3248
1367.71	1.02337
1369.29	0.369452
1370.88	0.892114
1372.46	0.72016
1374.04	0.3111
1375.63	1.11681
1377.21	0.310939
1378.8	0.459531
1380.38	1.02452
1381.96	1.42828
1383.54	1.21338
1385.13	0.877867
1386.71	0.800227
1388.29	0.385262
1389.87	-0.127666
1391.45	0.571435
1393.03	0.438087
1394.61	0.186386
1396.19	0.172518
1397.77	0.712742
1399.35	1.01337
1400.93	0.955807
1402.51	0.640077
1404.09	0.720285
1405.67	0.207916
1407.24	0.981955
1408.82	0.986081
1410.4	0.655197
1411.98	0.739162
1413.55	0.585372
1415.13	0.410679
1416.71	1.22098
1418.28	0.748646
1419.86	1.08491
1421.43	1.22547
1423.01	1.40759
1424.58	2.61558
1426.16	1.36522
1427.73	1.43442
1429.31	2.27091
1430.88	2.81073
1432.45	2.36465
1434.02	2.95987
1435.6	3.19997
1437.17	3.14528
1438.74	2.60038
1440.31	3.15787
1441.88	2.95036
1443.45	2.96018
1445.03	2.81341
1446.6	2.50966
1448.17	3.16929
1449.74	3.4363
1451.3	2.91761
1452.87	2.30127
1454.44	3.14091
1456.01	2.22977
1457.58	2.22257
1459.15	2.64643
1460.72	2.02462
1462.28	2.61996
1463.85	2.15036
1465.42	2.28879
1466.98	1.36568
1468.55	1.72022
1470.12	1.52623
1471.68	2.19722
1473.25	1.75153
1474.81	1.48371
1476.38	1.33424
1477.94	0.871299
1479.51	1.27087
1481.07	0.513805
1482.63	0.756265
1484.2	0.841702
1485.76	1.41638
1487.32	0.794993
1488.88	0.113417
1490.45	1.54318
1492.01	1.46229
1493.57	1.06573
1495.13	1.33068
1496.69	0.735964
1498.25	0.570481
1499.81	0.561637
1501.37	0.204873
1502.93	0.219001
1504.49	0.176237
1506.05	0.52111
1507.61	0.284318
1509.17	0.896616
1510.73	0.135813
1512.28	0.223598
1513.84	-0.266824
1515.4	0.455222
1516.96	0.0627499
1518.51	0.247562
1520.07	0.183801
1521.63	0.0630827
1523.18	0.305378
1524.74	0.374215
1526.29	-0.302168
1527.85	0.202558
1529.4	0.476909
1530.96	0.294686
1532.51	-0.113885
1534.06	0.331983
1535.62	0.589048
1537.17	0.525675
1538.72	0.95418
1540.28	-0.31472
1541.83	0.491249
1543.38	0.0910044
1544.93	0.574959
1546.48	0.325101
1548.03	0.41325
1549.59	0.519895
1551.14	0.851261
1552.69	0.845941
1554.24	0.673721
1555.79	0.634428
1557.34	0.504292
1558.88	0.507581
1560.43	0.923913
1561.98	0.932034
1563.53	0.885805
1565.08	0.952342
1566.62	0.627156
1568.17	0.54419
1569.72	1.4873
1571.27	0.507279
1572.81	1.03881
1574.36	0.842108
1575.9	0.664076
1577.45	0.710309
1579	0.5704
1580.54	0.225874
1582.09	0.4612
1583.63	1.42634
1585.17	1.62694
1586.72	0.744056
1588.26	1.74973
1589.8	1.16545
1591.35	0.804724
1592.89	1.58527
1594.43	1.69156
1595.97	2.11643
1597.52	2.0736
1599.06	2.48169
1600.6	1.52181
1602.14	2.06311
1603.68	1.66606
1605.22	1.73734
1606.76	0.961049
1608.3	1.02752
1609.84	1.12842
1611.38	1.48909
1612.92	1.41468
1614.46	1.07568
1615.99	1.26162
1617.53	1.56036
1619.07	1.24213
1620.61	0.420593
1622.14	1.41758
1623.68	1.46061
1625.22	1.27907
1626.75	1.54572
1628.29	1.52977
1629.82	1.60533
1631.36	1.7727
1632.9	1.90187
1634.43	1.93794
1635.96	1.11683
1637.5	1.97626
1639.03	1.81056
1640.57	2.27872
1642.1	2.31717
1643.63	1.98154
1645.16	2.77966
1646.7	2.25499
1648.23	2.69679
1649.76	2.6
1651.29	1.91092
1652.82	2.83806
1654.36	2.59803
1655.89	2.3777
1657.42	2.69479
1658.95	2.47338
1660.48	2.26876
1662.01	3.17222
1663.53	2.44581
1665.06	2.53234
1666.59	2.74838
1668.12	2.04356
1669.65	1.52605
1671.18	1.91398
1672.7	1.71379
1674.23	2.49042
1675.76	1.64623
1677.29	2.4394
1678.81	1.72184
1680.34	1.35279
1681.86	1.35055
1683.39	1.54979
1684.91	0.95975
1686.44	0.756031
1687.96	0.608128
1689.49	1.06544
1691.01	1.35782
1692.54	0.753278
1694.06	0.204123
1695.58	0.441415
1697.11	0.623283
1698.63	0.36619
1700.15	0.71107
1701.67	-0.0212679
1703.2	0.35836
1704.72	0.463488
1706.24	0.185692
1707.76	0.217014
1709.28	0.484263
1710.8	-0.319602
1712.32	0.201802
1713.84	0.487013
1715.36	-0.133325
1716.88	0.621963
1718.4	0.363707
1719.91	-0.0206423
1721.43	0.209299
1722.95	0.331425
1724.47	0.382626
1725.99	0.183402
1727.5	0.094142
1729.02	0.546118
1730.54	0.583755
1732.05	-0.124952
1733.57	0.16118
1735.09	0.0399771
1736.6	0.547006
1738.12	0.190977
1739.63	-0.326643
1741.15	0.190232
1742.66	0.334884
1744.18	0.271397
1745.69	0.399147
1747.2	0.224969
1748.72	0.0378981
1750.23	0.166149
1751.74	-0.226504
1753.25	0.0840473
1754.77	-0.24447
1756.28	0.232621
1757.79	0.204703
1759.3	0.158545
1760.81	-0.369925
1762.32	0.0847359
1763.83	-0.346642
1765.34	-0.326586
1766.85	0.283296
1768.36	0.229154
1769.87	0.0191975
1771.38	-0.19703
1772.89	0.143391
1774.4	-0.192722
1775.91	0.164897
1777.41	0.0569935
1778.92	-0.0837555
1780.43	0.141619
1781.94	-0.0700312
1783.44	0.319966
1784.95	0.159864
1786.45	0.180706
1787.96	0.0954361
1789.47	-0.0838165
1790.97	0.0961637
1792.48	-0.134974
1793.98	-0.22432
1795.48	-0.19635
1796.99	0.124986
1798.49	0.422616
1800	0.0173798
1801.5	-0.344814
1803	-0.0214014
1804.51	0.255968
1806.01	0.374448
1807.51	0.229799
1809.01	0.20727
1810.51	-0.088953
1812.02	-0.262841
1813.52	0.208922
1815.02	-0.198209
1816.52	-0.0530319
1818.02	0.161802
1819.52	0.387223
1821.02	0.065691
1822.52	0.0215302
1824.02	0.210806
1825.51	0.0201588
1827.01	0.071434
1828.51	-0.23096
1830.01	0.69176
1831.51	0.19846
1833	-0.167812
1834.5	-0.289478
1836	0.0517645
1837.5	0.344072
1838.99	0.0428267
1840.49	0.120535
1841.98	0.646061
1843.48	0.158401
1844.97	-0.234044
1846.47	0.0307837
1847.96	0.10059
1849.46	0.267645
1850.95	-0.0765867
1852.45	0.279802
1853.94	0.0453262
1855.43	-0.00295067
1856.92	0.298582
1858.42	0.216061
1859.91	-0.00551414
1861.4	0.0527258
1862.89	0.0869312
1864.39	0.150795
1865.88	0.264443
1867.37	0.337708
1868.86	-0.055419
1870.35	0.36132
1871.84	0.30688
1873.33	-0.326797
1874.82	0.168681
1876.31	0.391938
1877.8	0.258675
1879.29	0.265532
1880.77	0.135861
1882.26	-0.128681
1882.51	-0.173017
1884	-0.487063
1885.5	-0.000278473
1886.99	-0.124664
1888.48	0.272642
1889.98	0.42617
1891.47	0.163459
1892.97	0.511537
1894.46	-0.0942726
1895.95	0.188636
1897.44	0.24664
1898.93	0.20016
1900.42	0.726443
1901.92	0.467723
1903.41	0.206717
1904.9	-0.368915
1906.39	-0.0415449
1907.88	-0.357088
1909.37	-0.185575
1910.86	0.108429
1912.35	-0.186375
1913.84	0.282786
1915.32	0.283698
1916.81	0.717589
1918.3	-0.0280523
1919.79	0.127142
1921.28	0.0742474
1922.76	-0.0300503
1924.25	0.299623
1925.74	0.163287
1927.22	0.513083
1928.71	0.586778
1930.2	-0.118797
1931.68	0.213531
1933.17	0.232277
1934.65	0.577579
1936.14	0.0552845
1937.62	0.13718
1939.11	0.131958
1940.59	0.368845
1942.08	-0.0319786
1943.56	0.396941
1945.04	-0.0010519
1946.53	0.101628
1948.01	-0.0200901
1949.49	0.580843
1950.97	0.146828
1952.45	0.125058
1953.94	0.102555
1955.42	0.11433
1956.9	0.178096
1958.38	0.122525
1959.86	-0.292283
1961.34	0.271352
1962.82	-0.0222321
1964.3	-0.298674
1965.78	-0.421374
1967.26	-0.322305
1968.74	0.425799
1970.22	-0.280761
1971.69	0.226046
1973.17	0.390672
1974.65	0.00939178
1976.13	-0.319994
1977.61	-0.154781
1979.08	0.197566
1980.56	0.481364
1982.03	-0.017374
1983.51	0.282544
1984.99	-0.0124903
1986.46	0.167483
1987.94	-0.0256844
1989.41	0.425327
1990.89	-0.104944
1992.36	0.29685
1993.84	-0.264073
1995.31	-0.282738
1996.78	0.0370331
1998.26	0.356555
1999.73	0.337646
2001.2	-0.0701628
2002.68	0.162691
2004.15	0.108538
2005.62	0.661462
2007.09	0.894868
2008.56	0.354828
2010.04	-0.217494
2011.51	0.372527
2012.98	-0.299875
2014.45	0.760724
2015.92	0.591667
2017.39	0.152408
2018.86	0.115884
2020.33	0.280303
2021.8	0.595496
2023.27	0.0547533
2024.74	0.555754
2026.2	0.353477
2027.67	0.371183
2029.14	0.374066
2030.61	-0.00715542
2032.07	0.636323
2033.54	0.273642
2035.01	0.397687
2036.47	0.134951
2037.94	0.00579739
2039.41	0.514729
2040.87	0.401817
2042.34	0.00349331
2043.8	0.430056
2045.27	0.269167
2046.73	0.361647
2048.2	0.26933
2049.66	0.109082
2051.12	0.36893
2052.59	0.340227
2054.05	0.275432
2055.51	0.832288
2056.98	0.965584
2058.44	0.760662
2059.9	0.724109
2061.36	0.5871
2062.82	0.737404
2064.29	0.0979919
2065.75	1.328
2067.21	0.320861
2068.67	0.728156
2070.13	0.513138
2071.59	0.752705
2073.05	0.385992
2074.51	0.574538
2075.97	0.762673
2077.43	0.899814
2078.88	1.15429
2080.34	0.801913
2081.8	0.768758
2083.26	0.465399
2084.72	0.985784
2086.17	0.6301
2087.63	0.929631
2089.09	1.32914
2090.54	1.42562
2092	1.28684
2093.46	1.29911
2094.91	0.673728
2096.37	0.98699
2097.82	1.2152
2099.28	0.940128
2100.73	1.3674
2102.19	1.20945
2103.64	1.7709
2105.09	1.5491
2106.55	1.24604
2108	1.77857
2109.46	1.31085
2110.91	1.74282
2112.36	1.97266
2113.81	1.9167
2115.27	2.29111
2116.72	1.91544
2118.17	2.27171
2119.62	2.06502
2121.07	2.6245
2122.52	2.34063
2123.97	2.57311
2125.42	2.45832
2126.87	2.45924
2128.32	2.55815
2129.77	3.18519
2131.22	2.55094
2132.67	3.22382
2134.12	2.88673
2135.57	2.66694
2137.01	2.51563
2138.46	3.20995
2139.91	2.96509
2141.36	2.75571
2142.8	3.37482
2144.25	3.31715
2145.7	3.45826
2147.14	3.94672
2148.59	3.85484
2150.03	3.64555
2151.48	3.45118
2152.92	3.43751
2154.37	3.9196
2155.81	3.67193
2157.26	4.3355
2158.7	4.42037
2160.15	3.69565
2161.59	4.49793
2163.03	4.11016
2164.48	4.23871
2165.92	4.03677
2167.36	4.01717
2168.8	3.96263
2170.25	4.12146
2171.69	4.21046
2173.13	4.47933
2174.57	3.88095
2176.01	4.17985
2177.45	4.51221
2178.89	3.9978
2180.33	4.10013
2181.77	3.7217
2183.21	3.67669
2184.65	4.33069
2186.09	3.88707
2187.53	3.41005
2188.97	3.69846
2190.41	3.25454
2191.84	3.17632
2193.28	3.31343
2194.72	3.49848
2196.16	3.41437
2197.59	3.56017
2199.03	3.0048
2200.47	2.93042
2201.9	3.32078
2203.34	3.13088
2204.78	3.0092
2206.21	3.05494
2207.65	2.35596
2209.08	2.83304
2210.51	2.76234
2211.95	2.69023
2213.38	1.67493
2214.82	2.39519
2216.25	2.81821
2217.68	2.36804
2219.12	2.77762
2220.55	2.11662
2221.98	2.14843
2223.42	1.84972
2224.85	2.6526
2226.28	2.06974
2227.71	1.97864
2229.14	1.50813
2230.57	1.72657
2232	2.0425
2233.43	1.78523
2234.86	1.82387
2236.29	1.25963
2237.72	1.38409
2239.15	1.69045
2240.58	1.57526
2242.01	1.18536
2243.44	0.911345
2244.87	1.17607
2246.3	1.57044
2247.73	0.902528
2249.15	0.802744
2250.58	1.09114
2252.01	1.26281
2253.43	1.2216
2254.86	0.482239
2256.29	1.1908
2257.71	1.12277
2259.14	1.02616
2260.56	0.949676
2261.99	1.21726
2263.41	0.707705
2264.84	0.37673
2266.26	1.00429
2267.69	0.704169
2269.11	1.23257
2270.54	0.83235
2271.96	0.496374
2273.38	0.746322
2274.81	0.393759
2276.23	0.709336
2277.65	0.911232
2279.07	0.330802
2280.49	0.875154
2281.92	1.12603
2283.34	0.67537
2284.76	0.12665
2286.18	0.589932
2287.6	0.12326
2289.02	0.685846
2290.44	0.873562
2291.86	0.980071
2293.28	0.874243
2294.7	1.03007
2296.12	0.383869
2297.54	-0.000948906
2298.96	0.580533
2300.38	0.490781
2301.79	0.434106
2303.21	-0.196473
2304.63	0.305102
2306.05	0.971348
2307.46	0.356176
2308.88	-0.0629721
2310.3	0.487019
2311.71	0.263755
2313.13	-0.23941
2314.55	0.492048
2315.96	0.0558729
2317.38	0.509911
2318.79	0.0913429
2320.21	-0.047576
2321.62	0.274052
2323.03	0.147923
2324.45	0.117909
2325.86	0.266586
2327.27	0.264618
2328.69	-0.0349703
2330.1	0.341321
2331.51	0.471384
2332.93	-0.154299
2334.34	0.126404
2335.75	0.275695
2337.16	0.457253
2338.57	0.210015
2339.99	-0.0713053
2341.4	0.0570717
2342.81	-0.0615187
2344.22	-0.0979986
2345.63	0.111741
2347.04	-0.480999
2348.45	0.22019
2349.86	0.511065
2351.26	0.767844
2352.67	0.647273
2354.08	0.59095
2355.49	-0.509351
2356.9	0.785785
2358.31	0.15883
2359.71	0.118279
2361.12	-0.165512
2362.53	0.216029
2363.94	-0.423718
2365.34	0.232109
2366.75	0.191845
2368.15	-0.525688
2369.56	-0.176021
2370.97	0.642161
2372.37	-0.0533457
2373.78	0.589659
2375.18	0.476089
2376.59	0.474773
2377.99	0.00577736
2379.39	0.0496683
2380.8	-0.133304
2382.2	-0.109188
2383.61	0.153996
2385.01	0.848125
2386.41	0.670353
2387.81	0.446281
2389.22	-0.0548239
2390.62	0.0200233
2392.02	0.19174
2393.42	0.348601
2394.82	0.124667
2396.22	0.0925875
2397.63	-0.1135
2399.02	0.189686
2400.43	0.270961
2401.82	0.273189
2403.23	0.339005
2404.62	-0.167275
2406.02	0.246322
2407.42	-0.0555611
2408.82	0.0224838
2410.22	-0.0901833
2411.62	0.320349
2413.02	0.177247
2414.41	0.289146
2415.81	0.00709152
2417.21	0.0591536
2418.61	0.0807037
2420	0.498648
2421.4	0.298851
2422.79	0.114381
2424.19	0.103812
2425.59	0.647926
2426.98	-0.281111
2428.38	0.201436
2429.77	0.447586
2431.17	-0.0826473
2432.56	-0.0893126
2433.96	-0.112495
2435.35	0.244226
2436.74	-0.0998335
2438.14	-0.016818
2439.53	-0.237216
2440.92	0.0336695
2442.32	0.22433
2443.71	0.255803
2445.1	-0.2364
2446.49	0.302171
2447.88	-0.110745
2449.28	0.141975
2450.67	-0.0644121
2452.06	-0.269995
2453.45	0.411579
2454.84	0.128893
2456.23	-0.0737534
2457.62	0.325108
2459.01	0.201775
2460.4	0.330791
2461.79	0.205771
2463.18	-0.204665
2464.57	0.316638
2465.96	0.252806
2467.34	-0.0478725
2468.73	-0.0643425
2470.12	-0.0968094
2471.51	-0.318942
2472.89	-0.163559
2474.28	0.415735
2475.67	0.049551
2477.05	0.406478
2478.44	-0.289452
2479.83	-0.0268536
2481.21	0.0473833
2482.6	-0.113589
2483.98	0.132156
2485.37	0.141786
2486.75	0.39996
2488.14	0.250442
2489.52	-0.226916
2490.9	-0.0339785
2492.29	0.501078
2493.67	0.120113
2495.06	0.144923
2496.44	0.233253
2497.82	0.152148
2499.2	0.00958633
2500.59	0.0833673
2501.97	0.295174
2503.35	-0.18944
2504.73	-0.026351
2506.11	0.474607
2507.49	0.143034
2508.88	-0.00316811
2510.26	-0.348185
2511.63	-0.0627003
2513.01	0.453119
2514.39	0.188025
2515.77	-0.39702
2517.15	-0.230854
2518.53	-0.171239
2519.91	0.27055
2521.29	-0.494993
2522.67	0.143818
2524.05	-0.683496
2525.42	-0.108271
2526.8	0.389553
2528.18	0.0806398
2529.56	-0.150473
2530.93	-0.121057
2532.31	0.396596
2533.69	0.125749
2535.06	0.144487
2536.44	0.0720377
2537.81	0.439318
2539.19	-0.105971
2540.56	0.00087738
2541.94	-0.181168
2543.31	0.00136662
2544.69	0.078639
2546.06	0.0360441
2547.44	0.0707884
2548.81	0.136923
2550.18	0.18802
2551.56	0.526889
2552.93	0.166527
2554.3	0.396739
2555.68	0.352643
2557.05	0.277528
2558.42	-0.0100031
2559.79	0.309307
2561.16	-0.158995
2562.53	0.29804
2563.9	0.195036
2565.28	0.274424
2566.64	-0.10052
2568.02	-0.0813427
2569.38	0.316738
2570.76	0.502666
2572.12	-0.00859261
2573.49	0.510973
2574.86	-0.0456219
2576.23	0.519657
2577.6	0.266162
2578.97	0.224645
2580.34	0.440457
2581.7	0.337334
2583.07	-0.0998058
2584.44	0.251159
2585.81	-0.36815
2587.17	-0.380927
2588.54	0.0308685
2589.91	0.548829
2591.27	-0.17603
2592.64	0.113862
2594	-0.127517
2595.37	0.402315
2596.73	-0.0837116
2598.1	-0.19201
2599.46	-0.0889816
2600.83	0.0442572
2602.19	0.102438
2603.55	-0.291484
2604.92	0.462401
2606.28	-0.0812759
2607.64	0.144073
2609.01	-0.219585
2610.37	0.108579
2611.73	-0.0318966
2613.09	-0.203619
2614.46	-0.195696
2615.82	0.127008
2617.18	0.059576
2618.54	0.127789
2619.9	-0.0126715
2621.26	0.625516
2622.62	0.232448
2623.98	0.183643
2625.34	0.224365
2626.7	-0.122991
2628.06	0.274803
2629.42	-0.11754
2630.78	0.487298
2632.14	-0.157726
2633.5	-0.014514
2634.86	-0.0645151
2636.22	-0.040329
2637.57	0.294977
2638.93	-0.0957041
2640.29	-0.263668
2641.64	0.0124311
2643	0.155501
2644.36	0.593836
2645.72	0.52987
2647.07	-0.0504646
2648.43	-0.18884
2649.78	0.510859
2651.14	0.0175352
2652.49	0.20038
2653.85	0.661857
2655.2	0.258592
2656.56	0.252809
2657.91	0.248458
2659.27	0.464657
2660.62	0.198641
2661.97	0.312682
2663.33	-0.275223
2664.68	0.523287
2666.03	0.619598
2667.38	0.30708
2668.74	0.475475
2670.09	-0.0544758
2671.44	0.0421972
2672.79	-0.310939
2674.14	0.179348
2675.49	-0.360729
2676.84	0.188487
2678.2	0.389996
2679.55	0.113922
2680.89	0.549615
2682.24	0.319846
2683.59	0.0625048
2684.94	0.255862
2686.29	0.188739
2687.64	0.237506
2688.99	-0.165188
2690.34	0.068819
2691.69	0.271525
2693.04	-0.0355711
2694.38	0.250955
2695.73	0.47896
2697.08	0.185997
2698.43	-0.00380611
2699.77	0.373175
2701.12	0.28892
2702.46	0.336853
2703.81	0.125285
2705.16	0.320091
2706.5	0.326595
2707.85	0.0425577
2709.19	0.454581
2710.54	0.372692
2711.88	-0.0872898
2713.23	0.585683
2714.57	0.241494
2715.92	0.187808
2717.26	0.119365
2718.6	0.370627
2719.95	0.476035
2721.29	0.217075
2722.63	0.161215
2723.97	0.643318
2725.32	0.353437
2726.66	0.718062
2728	0.485523
2729.34	0.369134
2730.68	0.165279
2732.02	0.470626
2733.36	0.674168
2734.7	0.19424
2736.04	-0.05266
2737.39	0.442365
2738.72	-0.051631
2740.06	0.123075
2741.4	0.0790644
2742.74	0.60123
2744.08	0.497333
2745.42	0.10216
2746.76	0.28762
2748.1	0.182377
2749.44	0.0772629
2750.77	0.117501
2752.11	0.143505
2753.45	0.126291
2754.78	0.514959
2756.12	0.425582
2757.46	0.249574
2758.79	0.464816
2760.13	0.419922
2761.47	-0.203196
2762.8	-0.116603
2764.14	0.0716352
2765.47	0.303246
2766.81	-0.261424
2768.14	0.330123
2769.48	0.138962
2770.81	0.0762577
2772.14	0.185262
2773.48	0.119655
2774.81	0.284148
2776.14	0.102593
2777.48	-0.279705
2778.81	0.202069
2780.14	-0.0491152
2781.47	-0.486258
2782.81	0.58415
2784.14	0.00376511
2785.47	0.011735
2786.8	-0.109001
2788.13	0.214749
2789.46	-0.0761251
2790.79	-0.0224285
2792.12	0.0893612
2793.46	-0.0985422
2794.79	0.299654
2796.11	0.297175
2797.44	0.0369091
2798.77	0.00458908
2800.1	-0.199492
2801.43	-0.0756168
2802.76	-0.0376511
2804.09	-0.0285435
2805.42	-0.0627041
2806.74	-0.197191
2808.07	-0.0477915
2809.4	0.0440083
2810.73	0.504916
2812.05	-0.254538
2813.38	-0.231647
2814.71	-0.221259
2816.03	0.0601368
2817.36	0.470372
2818.68	0.130119
2820.01	0.229265
2821.33	0.171955
2822.66	0.241377
2823.98	0.338335
2825.31	0.0948563
2826.63	0.885295
2827.96	0.444276
2829.28	0.0748672
2830.61	0.626218
2831.93	0.215217
2833.25	0.384526
2834.57	0.978042
2835.9	1.27361
2837.22	1.31368
2838.54	1.32486
2839.86	1.74586
2841.18	1.99712
2842.51	2.71528
2843.83	2.67092
2845.15	3.05157
2846.47	2.91019
2847.79	3.22159
2849.11	3.27864
2850.43	3.6745
2851.75	3.56081
2853.07	3.22027
2854.39	4.00971
2855.71	3.65422
2857.03	3.90626
2858.35	3.86168
2859.67	3.46402
2860.98	4.23821
2862.3	4.03757
2863.62	4.48571
2864.94	3.87498
2866.25	4.47767
2867.57	4.05091
2868.89	4.68244
2870.21	5.0888
2871.52	5.24155
2872.84	5.2952
2874.15	5.44636
2875.47	5.18741
2876.78	5.0397
2878.1	5.38344
2879.42	5.68419
2880.73	5.5915
2882.04	5.59844
2883.36	5.36816
2884.67	5.46238
2885.99	5.85222
2887.3	5.93326
2888.61	5.36815
2889.93	5.68596
2891.24	5.8761
2892.55	5.79889
2893.87	5.79153
2895.18	6.40082
2896.49	6.08701
2897.8	5.92889
2899.11	6.16409
2900.42	6.45635
2901.74	6.81922
2903.05	6.87464
2904.36	6.76241
2905.67	7.79755
2906.98	7.19704
2908.29	7.38105
2909.6	7.18862
2910.91	8.03258
2912.22	7.89706
2913.53	8.20836
2914.83	8.67156
2916.14	8.30611
2917.45	8.80609
2918.76	9.17829
2920.07	8.4311
2921.37	9.25136
2922.68	9.73765
2923.99	9.79274
2925.3	9.97545
2926.6	10.3549
2927.91	10.5807
2929.22	10.4704
2930.52	10.485
2931.83	10.373
2933.13	10.4843
2934.44	10.3439
2935.74	10.2177
2937.05	10.2595
2938.35	10.4972
2939.66	9.84101
2940.96	9.50707
2942.27	9.04866
2943.57	9.68218
2944.87	9.46532
2946.18	8.48098
2947.48	8.51818
2948.78	7.79926
2950.09	8.24026
2951.39	7.75461
2952.69	8.10624
2953.99	7.20963
2955.29	7.26461
2956.6	6.94292
2957.9	6.90412
2959.2	6.7852
2960.5	7.56675
2961.8	6.71223
2963.1	6.11014
2964.4	6.06802
2965.7	5.81314
2967	5.54167
2968.3	5.64774
2969.6	5.65437
2970.9	5.89994
2972.2	4.83767
2973.49	5.50626
2974.79	4.58458
2976.09	4.87247
2977.39	4.4406
2978.69	4.31619
2979.98	4.1754
2981.28	3.63893
2982.58	3.94604
2983.88	3.85968
2985.17	4.09812
2986.47	3.70619
2987.76	3.40067
2989.06	3.48998
2990.36	2.49756
2991.65	2.51635
2992.95	2.84303
2994.24	2.61998
2995.54	2.33939
2996.83	2.19846
2998.12	2.08546
2999.42	1.88873
3000.71	1.63678
3002	1.97447
3003.3	1.26158
3004.59	1.29173
3005.88	0.831432
3007.18	1.51862
3008.47	0.916959
3009.76	1.25173
3011.05	0.20186
3012.35	0.786581
3013.64	1.0914
3014.93	0.838692
3016.22	0.475801
3017.51	0.838275
3018.8	0.226997
3020.09	0.450953
3021.38	-0.104164
3022.67	0.298846
3023.96	0.450302
3025.25	0.44808
3026.54	0.473318
3027.83	0.263885
3029.12	0.5401
3030.41	0.569106
3031.69	0.503302
3032.98	0.576974
3034.27	0.361238
3035.56	0.572719
3036.85	0.35502
3038.13	0.28703
3039.42	0.106829
3040.71	0.213837
3041.99	0.470458
3043.28	0.671508
3044.57	0.0518446
3045.85	0.666238
3047.14	0.271312
3048.42	0.316773
3049.71	0.528634
3050.99	0.251178
3052.28	0.0294514
3053.56	0.490055
3054.85	0.376856
3056.13	0.439805
3057.42	0.351469
3058.7	0.861766
3059.98	0.322757
3061.27	0.574141
3062.55	0.717699
3063.83	0.767764
3065.11	0.439185
3066.4	0.629044
3067.68	0.194798
3068.96	0.372949
3070.24	0.374119
3071.52	-0.0745144
3072.8	-0.238831
3074.09	0.0305872
3075.37	0.135705
3076.65	-0.370697
3077.93	-0.0345106
3079.21	0.329851
3080.49	-0.172269
3081.77	0.35855
3083.05	-0.234977
3084.32	-0.108626
3085.61	-0.226319
3086.88	0.130571
3088.16	0.0659761
3089.44	0.244947
3090.72	0.165578
3092	-0.0630856
3093.27	-0.0201044
3094.55	-0.0444956
3095.83	-0.149807
3097.11	-0.254872
3098.38	0.250038
3099.66	0.104256
3100.94	-0.204006
3102.21	0.300615
3103.49	0.169074
3104.76	-0.097044
3106.04	0.0574341
3107.31	-0.219984
3108.59	-0.211911
3109.86	0.149431
3111.14	0.133097
3112.41	0.00941181
3113.69	0.0759134
3114.96	0.210382
3116.23	0.371635
3117.51	-0.0375957
3118.78	0.44715
3120.05	0.211859
3121.33	0.409529
3122.6	0.633574
3123.87	0.234166
3125.14	0.309374
3126.42	0.195692
3127.69	0.40759
3128.96	0.4037
3130.23	0.535559
3131.5	0.153996
3132.77	0.556367
3134.04	0.566437
3135.31	0.521995
3136.58	0.423131
3137.85	0.903643
3139.12	0.844254
3140.39	0.623397
3141.66	0.564524
3142.93	0.156907
3144.2	0.932075
3145.47	0.942293
3146.74	0.363638
3148	0.603868
3149.27	0.630475
