200.388	0.285818
202.204	0.312049
204.019	0.339185
205.832	0.0265884
207.646	0.419416
209.459	0.568238
211.274	0.691382
213.087	0.108925
214.899	0.350661
216.711	-0.523661
218.524	0.104799
220.335	-0.0175476
222.146	0.0302982
223.956	0.223866
225.766	-0.28317
227.576	0.369676
229.388	0.441958
231.197	0.489297
233.005	-0.0187483
234.813	0.510687
236.621	-0.453751
238.429	-0.1868
240.236	-0.15871
242.045	0.184896
243.852	-0.000771523
245.658	0.368333
247.464	-0.253753
249.269	0.159523
251.074	0.135038
252.879	0.518005
254.683	-0.18684
256.487	-0.0235977
258.291	0.405172
260.094	0.184621
261.897	0.857217
263.702	0.567795
265.504	-0.274922
267.306	0.97899
269.108	0.593851
270.909	0.400518
272.71	0.18178
274.511	0.274976
276.311	-0.043354
278.111	0.504118
279.91	-0.51654
281.709	0.219063
283.508	-0.587537
285.306	0.479903
287.105	0.152222
288.9	0.544372
290.698	-0.524879
292.495	0.06036
294.291	-0.33459
296.088	0.611075
297.884	0.290262
299.679	0.543519
301.475	0.175373
303.27	1.21527
305.064	0.868765
306.858	0.831601
308.652	0.484228
310.444	0.518859
312.237	1.29289
314.03	0.472751
315.822	0.797525
317.615	1.02888
319.406	0.213697
321.198	1.35335
322.987	1.08796
324.778	0.48865
326.568	0.891475
328.358	0.625559
330.148	0.286884
331.935	0.783732
333.724	0.705009
335.513	1.0069
337.301	0.277443
339.089	0.550819
340.875	0.0570946
342.662	0.782
344.449	0.622054
346.236	0.247699
348.02	-0.173555
349.806	0.217518
351.592	0.990305
353.375	0.473589
355.16	0.361617
356.944	0.749094
358.728	0.72965
360.51	0.51846
362.294	0.687325
364.077	0.522205
365.858	1.02179
367.64	0.665137
369.422	1.13815
371.202	0.780194
372.983	1.10838
374.764	1.0336
376.543	1.69079
378.324	1.14444
380.102	0.906394
381.881	1.23487
383.661	1.37604
385.438	1.82404
387.216	1.00408
388.993	1.7363
390.771	2.14047
392.548	1.23037
394.324	1.2369
396.101	1.73704
397.875	0.945592
399.651	1.37523
401.425	1.59304
403.201	0.823671
404.974	1.08697
406.749	0.926712
408.524	1.47019
410.296	1.14456
412.07	0.302774
413.841	0.494117
415.614	0.662653
417.385	0.315779
419.156	0.462299
420.928	0.679548
422.698	0.849671
424.469	0.948705
426.238	1.3285
428.009	0.251912
429.777	0.442512
431.548	0.116672
433.315	0.542177
435.083	0.475151
436.852	-0.0378046
438.618	0.528173
440.387	0.787556
442.153	0.0126467
443.919	0.502285
445.686	0.708251
447.451	0.514704
449.218	0.391117
450.982	-0.292908
452.746	0.798697
454.512	0.465895
456.275	-0.309219
458.038	0.127767
459.803	0.215041
461.565	0.302832
463.327	0.601205
465.091	0.320882
466.852	0.20615
468.613	-0.161591
470.374	0.890803
472.136	0.618777
473.896	0.369029
475.655	0.187192
477.415	0.701956
479.176	0.469411
480.934	0.818139
482.692	0.538083
484.45	1.3073
486.21	0.37823
487.967	0.685987
489.724	0.506482
491.481	0.677964
493.237	0.780388
494.995	0.0647659
496.75	0.705392
498.506	0.901783
500.26	1.05118
502.015	0.988942
503.771	1.58335
505.525	0.696653
507.279	0.677581
509.032	0.609876
510.785	0.681669
512.537	0.963637
514.289	1.40872
516.041	1.52284
517.793	1.65906
519.546	1.44144
521.297	0.941224
523.047	0.722812
524.797	0.199281
526.547	0.919624
528.297	0.631046
530.046	0.623901
531.795	0.944287
533.543	0.608076
535.291	0.926068
537.039	0.891536
538.787	0.365302
540.534	0.305398
542.281	0.291403
544.027	1.11459
545.773	0.657721
547.519	0.527074
549.264	-0.321659
551.01	0.846396
552.754	-0.000349998
554.499	-0.128756
556.243	0.228129
557.987	0.054306
559.73	-0.00348377
561.474	0.123557
563.216	-0.347061
564.959	-0.402661
566.701	0.553159
568.441	0.245999
570.182	0.720456
571.923	0.347195
573.664	-0.16185
575.405	0.110853
577.145	0.041152
578.885	-0.164965
580.624	0.111845
582.361	0.297182
584.1	-0.138498
585.839	0.229445
587.577	0.412355
589.315	0.364041
591.052	0.498837
592.787	0.495053
594.524	-0.0150433
596.26	0.257173
597.997	0.690434
599.732	0.824271
601.466	0.520198
603.201	-0.15301
604.936	0.32227
606.67	0.40519
608.403	-0.293602
610.136	0.270565
611.87	0.169358
613.603	-0.206068
615.334	0.0612535
617.067	0.0536718
618.799	0.320468
620.529	-0.604316
622.26	0.735547
623.991	0.175324
625.72	-0.0643063
627.451	-0.0286636
629.181	-0.219351
630.909	0.0487204
632.638	0.136291
634.368	-0.117319
636.095	-0.142955
637.823	0.217887
639.551	0.210846
641.277	0.428951
643.005	0.211214
644.73	-0.0302067
646.457	-0.134465
648.184	0.0132675
649.908	0.209352
651.634	-0.0679665
653.357	-0.159698
655.083	-0.066267
656.806	0.00686359
658.53	0.58264
660.253	0.611673
661.977	0.502195
663.7	0.138849
665.422	0.252831
667.145	0.204884
668.865	0.0646381
670.588	0.130819
672.308	0.588018
674.027	-0.0509586
675.749	0.228045
677.468	0.417123
679.188	0.193427
680.907	-0.0546103
682.627	0.615496
684.345	0.409587
686.064	0.316594
687.781	0.1068
689.498	0.0801525
691.216	-0.0393524
692.932	0.116977
694.65	0.47986
696.366	0.0817614
698.081	0.235213
699.797	0.686452
701.512	0.377134
703.228	0.159154
704.942	0.560909
706.655	0.502553
708.371	0.902508
710.083	0.614041
711.796	0.463067
713.51	0.0604277
715.222	0.709573
716.934	0.193058
718.645	-0.231179
720.358	0.576261
722.068	0.426064
723.779	0.276198
725.49	0.444753
727.2	0.203921
728.909	0.802768
730.618	0.629227
732.329	0.2518
734.037	0.870481
735.745	0.606462
737.453	0.840111
739.16	1.27707
740.869	1.21837
742.576	1.04843
744.282	0.654997
745.988	0.848494
747.694	0.413379
749.401	1.03696
751.107	1.45935
752.811	0.646015
754.516	1.72365
756.22	1.61073
757.924	1.29676
759.627	1.00654
761.332	1.01023
763.035	1.89445
764.738	1.92176
766.44	2.445
768.142	2.37905
769.843	2.85327
771.544	2.42072
773.245	2.64227
774.946	3.31542
776.646	2.63251
778.346	2.51632
780.046	1.72337
781.745	2.62801
783.444	2.17562
785.143	2.87629
786.841	1.46925
788.539	2.02822
790.237	2.10819
791.934	1.48439
793.631	1.74057
795.328	1.90567
797.024	1.68825
798.72	1.8783
800.416	1.25976
802.112	1.1833
803.807	1.64739
805.502	2.04357
807.196	1.51729
808.89	1.21494
810.584	1.74212
812.278	1.97602
813.971	1.08863
815.664	2.26208
817.354	1.06248
819.047	1.58587
820.739	1.28232
822.43	1.71598
824.122	1.12415
825.813	1.58182
827.503	0.972039
829.192	0.855266
830.882	1.20916
832.571	1.56609
834.261	1.8587
835.95	1.28291
837.637	1.37582
839.325	1.26675
841.013	1.42404
842.701	1.35661
844.389	0.528842
846.074	1.24356
847.761	1.15549
849.447	1.31589
851.131	0.561006
852.817	1.10664
854.503	1.20564
856.188	1.3272
857.871	1.4704
859.556	1.43214
861.24	1.00917
862.922	0.201106
864.606	-0.158161
866.289	0.946802
867.97	0.247812
869.653	0.833627
871.336	0.404266
873.016	0.583714
874.698	0.921081
876.379	0.671813
878.058	0.58049
879.739	0.489053
881.418	0.668163
883.098	0.485403
884.778	0.730527
886.456	0.409993
888.135	0.810118
889.812	0.847532
891.49	0.65804
893.167	0.51255
894.845	0.45614
896.523	-0.0283327
898.198	0.834667
899.875	0.191915
901.55	0.378894
903.226	0.900518
904.901	0.258487
906.576	0.667356
908.25	0.540774
909.925	0.771637
911.598	0.669214
913.271	1.23446
914.945	0.599953
916.617	1.12027
918.291	0.664371
919.962	0.940129
921.635	0.131915
923.306	0.254516
924.978	0.356363
926.648	1.05602
928.318	0.631145
929.989	0.759434
931.659	0.513309
933.328	0.510206
934.998	0.639618
936.666	0.350361
938.336	1.14262
940.004	0.634834
941.671	0.39284
943.34	0.747254
945.007	0.572034
946.673	0.43983
948.339	0.460382
950.007	0.19217
951.672	0.496515
953.337	0.624217
955.004	1.03997
956.669	0.510206
958.333	0.601043
959.997	0.783032
961.662	0.370503
963.326	-0.0426664
964.989	-0.170354
966.651	0.429522
968.315	0.164005
969.977	0.0734444
971.639	0.911015
973.301	0.886186
974.962	0.155142
976.624	-0.087676
978.285	-0.240677
979.945	0.270741
981.605	0.78212
983.264	0.473305
984.924	0.317527
986.583	0.646688
988.243	0.376487
989.901	0.0168295
991.56	0.563025
993.217	0.512039
994.875	0.483264
996.532	0.675255
998.188	0.426021
999.845	1.10238
1001.5	0.235944
1003.16	1.08679
1004.81	0.198772
1006.47	0.432654
1008.12	0.622382
1009.78	0.482981
1011.43	1.06789
1013.09	0.512867
1014.74	0.221745
1016.39	0.872682
1018.05	0.779501
1019.7	1.03715
1021.35	1.25194
1023	0.899455
1024.65	1.466
1026.31	1.09341
1027.96	1.48568
1029.61	1.44026
1031.26	1.26254
1032.91	1.38888
1034.56	1.66603
1036.21	1.39621
1037.86	0.99517
1039.51	2.20544
1041.16	1.50042
1042.8	0.884706
1044.45	0.792899
1046.1	1.15926
1047.75	1.0714
1049.39	0.377172
1051.04	0.813568
1052.69	0.512311
1054.33	0.450333
1055.98	0.649152
1057.62	-0.543515
1059.27	0.371957
1060.91	0.39551
1062.56	0.222592
1064.2	0.527141
1065.85	0.52622
1067.49	0.3286
1069.13	0.608103
1070.77	1.10386
1072.42	0.361726
1074.06	0.618769
1075.7	0.876636
1077.34	0.550177
1078.98	0.810555
1080.62	1.0934
1082.27	1.24615
1083.91	1.50639
1085.55	1.00613
1087.18	1.17577
1088.82	2.07925
1090.46	1.35666
1092.1	0.763692
1093.74	0.75435
1095.38	1.15512
1097.02	0.607483
1098.65	0.169788
1100.29	0.789223
1101.93	0.54923
1103.56	0.182119
1105.2	0.461746
1106.84	0.0966797
1108.47	0.505616
1110.11	0.59085
1111.74	-0.0348005
1113.38	0.863731
1115.01	-0.365413
1116.64	0.380153
1118.28	0.245797
1119.91	0.712133
1121.54	0.236765
1123.18	0.897264
1124.81	0.488493
1126.44	0.294744
1128.07	0.78616
1129.7	1.00017
1131.33	0.167143
1132.97	0.232419
1134.6	0.212069
1136.23	0.276608
1137.86	0.105062
1139.49	0.338283
1141.11	0.271394
1142.74	0.0546637
1144.37	0.350114
1146	0.0916519
1147.63	-0.293555
1149.26	-0.0385513
1150.88	-0.145297
1152.51	0.38688
1154.14	0.620397
1155.76	0.12974
1157.39	0.575384
1159.01	0.425536
1160.64	0.510503
1162.27	0.25635
1163.89	-0.018033
1165.51	0.388476
1167.14	-0.162019
1168.76	-0.75595
1170.39	0.200402
1172.01	0.68679
1173.63	0.0243092
1175.25	0.0616207
1176.88	0.140725
1178.5	-0.309708
1180.12	-0.293159
1181.74	-0.0431194
1183.36	-0.0887165
1184.98	-0.00741291
1186.6	-0.0115376
1188.22	0.362578
1189.84	0.27033
1191.46	0.534292
1193.08	0.165267
1194.7	-0.119617
1196.32	0.330102
1197.94	0.360691
1199.55	-0.192714
1201.17	0.281076
1202.79	0.130305
1204.41	-0.247338
1206.02	-0.309715
1207.64	0.359361
1209.25	0.0481844
1210.87	0.153485
1212.48	0.590697
1214.1	0.796079
1215.71	0.0410585
1217.33	0.284075
1218.94	0.525551
1220.56	0.247379
1222.17	0.240006
1223.79	0.64825
1225.4	0.477592
1227.01	0.57768
1228.62	0.885892
1230.23	0.657568
1231.85	0.781985
1233.46	0.990246
1235.07	1.30309
1236.68	0.563071
1238.29	0.692154
1239.9	0.284341
1241.51	0.414294
1243.12	0.316431
1244.73	0.859237
1246.34	0.552725
1247.94	0.969424
1249.55	0.433524
1251.16	0.766286
1252.77	0.582027
1254.37	0.750101
1255.98	0.857176
1257.59	0.98619
1259.2	0.454271
1260.8	1.14418
1262.41	1.0275
1264.01	0.910764
1265.62	0.834994
1267.22	0.675539
1268.83	0.598006
1270.43	0.768237
1272.03	0.273945
1273.64	0.628725
1275.24	1.29334
1276.85	0.920541
1278.45	0.588573
1280.05	1.1466
1281.65	0.855239
1283.25	0.771094
1284.85	0.956363
1286.46	0.501513
1288.06	0.812634
1289.66	1.26921
1291.26	1.31296
1292.86	1.15001
1294.46	0.635182
1296.06	1.39979
1297.66	1.23324
1299.25	1.3127
1300.85	0.916304
1302.45	1.13724
1304.05	0.883437
1305.65	0.814427
1307.24	0.888801
1308.84	0.798568
1310.43	0.81099
1312.03	0.414275
1313.63	0.591723
1315.22	1.36238
1316.82	0.948486
1318.41	1.61714
1320.01	0.674125
1321.6	0.587296
1323.2	0.926503
1324.79	1.34457
1326.38	1.45563
1327.98	0.998095
1329.57	0.602973
1331.16	1.56538
1332.76	1.15407
1334.35	1.39187
1335.94	0.86425
1337.53	1.1244
1339.12	1.42395
1340.71	0.271185
1342.3	0.808712
1343.89	0.699933
1345.48	0.811123
1347.07	0.721521
1348.66	1.15454
1350.25	0.78867
1351.84	0.945899
1353.43	0.605227
1355.01	1.0656
1356.6	0.866712
1358.19	0.70748
1359.77	0.527466
1361.36	0.965289
1362.95	0.92303
1364.53	0.541523
1366.12	0.399761
1367.71	0.537691
1369.29	0.53731
1370.88	0.797005
1372.46	0.878891
1374.04	0.941999
1375.63	0.568044
1377.21	0.393167
1378.8	0.436716
1380.38	0.30022
1381.96	0.958235
1383.54	0.739567
1385.13	0.619441
1386.71	1.09496
1388.29	0.795689
1389.87	0.636271
1391.45	0.497692
1393.03	0.518675
1394.61	0.222705
1396.19	0.362948
1397.77	0.0861712
1399.35	0.442732
1400.93	0.500957
1402.51	-0.233267
1404.09	0.457685
1405.67	0.693588
1407.24	0.732458
1408.82	0.00156975
1410.4	1.08888
1411.98	0.0823727
1413.55	1.14865
1415.13	0.614935
1416.71	1.06692
1418.28	0.808422
1419.86	0.432302
1421.43	0.333206
1423.01	0.727782
1424.58	0.710496
1426.16	0.851933
1427.73	1.03331
1429.31	0.978258
1430.88	1.2569
1432.45	0.825868
1434.02	1.06292
1435.6	1.41736
1437.17	1.67344
1438.74	1.43874
1440.31	1.57858
1441.88	1.6408
1443.45	1.46792
1445.03	1.5313
1446.6	1.1821
1448.17	1.36374
1449.74	1.21148
1451.3	1.00065
1452.87	1.43927
1454.44	1.76045
1456.01	1.39312
1457.58	1.57602
1459.15	1.26566
1460.72	1.30778
1462.28	1.42667
1463.85	1.22912
1465.42	1.32543
1466.98	0.772979
1468.55	1.45835
1470.12	1.02535
1471.68	1.0058
1473.25	1.06578
1474.81	0.695128
1476.38	1.16811
1477.94	1.19019
1479.51	1.64344
1481.07	0.861691
1482.63	1.51063
1484.2	1.23833
1485.76	1.08331
1487.32	1.00593
1488.88	1.12306
1490.45	1.59038
1492.01	1.80055
1493.57	1.07038
1495.13	1.10076
1496.69	1.05196
1498.25	1.56732
1499.81	0.216102
1501.37	1.17933
1502.93	0.900512
1504.49	0.623176
1506.05	0.230482
1507.61	0.959646
1509.17	0.816926
1510.73	0.51897
1512.28	0.644841
1513.84	0.654487
1515.4	0.0491505
1516.96	0.367406
1518.51	0.704836
1520.07	0.352525
1521.63	-0.0562096
1523.18	-0.25409
1524.74	0.368717
1526.29	0.340729
1527.85	0.254765
1529.4	0.130458
1530.96	0.443158
1532.51	-0.0978088
1534.06	0.405018
1535.62	0.151018
1537.17	0.18192
1538.72	0.798561
1540.28	0.301816
1541.83	0.597369
1543.38	0.459377
1544.93	0.697499
1546.48	0.803446
1548.03	0.458672
1549.59	0.358239
1551.14	0.370529
1552.69	0.364556
1554.24	0.340793
1555.79	0.897352
1557.34	0.166985
1558.88	0.44673
1560.43	0.224458
1561.98	0.432821
1563.53	0.530357
1565.08	0.77776
1566.62	0.596132
1568.17	1.08614
1569.72	1.0159
1571.27	0.758592
1572.81	0.874312
1574.36	0.933884
1575.9	0.377438
1577.45	0.586551
1579	0.684061
1580.54	0.632798
1582.09	1.01182
1583.63	0.439107
1585.17	0.651637
1586.72	0.603075
1588.26	0.928699
1589.8	0.824037
1591.35	0.569124
1592.89	0.950212
1594.43	0.806786
1595.97	0.944335
1597.52	1.47595
1599.06	1.14615
1600.6	1.17318
1602.14	1.05057
1603.68	1.26584
1605.22	0.898277
1606.76	1.18687
1608.3	0.402311
1609.84	0.536478
1611.38	0.743558
1612.92	1.1739
1614.46	0.814163
1615.99	1.12963
1617.53	0.657851
1619.07	0.581124
1620.61	0.0938578
1622.14	0.48816
1623.68	0.564857
1625.22	0.604155
1626.75	0.698891
1628.29	0.567848
1629.82	0.884384
1631.36	0.0034132
1632.9	0.523945
1634.43	1.32412
1635.96	0.594285
1637.5	0.947702
1639.03	0.779463
1640.57	1.20779
1642.1	1.09495
1643.63	1.70733
1645.16	0.884874
1646.7	0.899405
1648.23	0.653428
1649.76	0.519551
1651.29	1.03625
1652.82	1.03424
1654.36	0.606908
1655.89	1.14432
1657.42	0.791967
1658.95	0.661413
1660.48	1.23322
1662.01	0.98892
1663.53	1.37232
1665.06	0.757104
1666.59	0.770676
1668.12	0.508598
1669.65	0.653736
1671.18	0.523781
1672.7	0.523897
1674.23	1.00328
1675.76	0.7274
1677.29	0.745408
1678.81	0.63359
1680.34	0.520873
1681.86	0.793414
1683.39	0.69801
1684.91	0.584426
1686.44	0.416293
1687.96	0.597025
1689.49	0.356601
1691.01	1.01385
1692.54	0.316271
1694.06	0.350992
1695.58	0.623183
1697.11	0.310133
1698.63	0.782351
1700.15	0.213319
1701.67	0.301089
1703.2	0.0419235
1704.72	0.219677
1706.24	0.323915
1707.76	0.26408
1709.28	-0.0500441
1710.8	-0.0187359
1712.32	0.194
1713.84	-0.0645237
1715.36	0.20243
1716.88	0.360353
1718.4	-0.0966005
1719.91	-0.227816
1721.43	0.345006
1722.95	0.322485
1724.47	0.19285
1725.99	-0.0614519
1727.5	0.0457363
1729.02	-0.314083
1730.54	-0.187236
1732.05	0.114805
1733.57	-0.30875
1735.09	0.406767
1736.6	0.129913
1738.12	-0.630762
1739.63	0.240854
1741.15	0.074769
1742.66	0.482144
1744.18	0.283764
1745.69	0.158873
1747.2	0.210161
1748.72	-0.0603476
1750.23	-0.00207233
1751.74	-0.130117
1753.25	-0.254274
1754.77	0.209614
1756.28	0.263501
1757.79	-0.166969
1759.3	0.530605
1760.81	0.218492
1762.32	-0.497539
1763.83	0.426453
1765.34	0.282752
1766.85	-0.149129
1768.36	-0.168321
1769.87	0.145872
1771.38	-0.0148611
1772.89	-0.358437
1774.4	-0.00221729
1775.91	0.0804977
1777.41	0.482604
1778.92	0.0600576
1780.43	-0.12496
1781.94	-0.246255
1783.44	-0.158816
1784.95	0.416956
1786.45	-0.0298929
1787.96	-0.020216
1789.47	0.290439
1790.97	0.221846
1792.48	-0.151281
1793.98	-0.0073595
1795.48	-0.0371637
1796.99	-0.237457
1798.49	-0.209754
1800	0.164765
1801.5	0.122942
1803	-0.234559
1804.51	0.177058
1806.01	0.323924
1807.51	0.35637
1809.01	-0.235454
1810.51	0.0354156
1812.02	0.285521
1813.52	-0.0894842
1815.02	0.179749
1816.52	0.285913
1818.02	0.00531387
1819.52	0.137917
1821.02	-0.116422
1822.52	0.0241785
1824.02	-0.0266171
1825.51	0.0595913
1827.01	0.265526
1828.51	-0.0191841
1830.01	-0.00558472
1831.51	-0.23752
1833	-0.279727
1834.5	0.199707
1836	0.111302
1837.5	0.145162
1838.99	-0.0259848
1840.49	0.22692
1841.98	0.116349
1843.48	0.164026
1844.97	0.0974054
1846.47	-0.200403
1847.96	0.0958405
1849.46	-0.0591946
1850.95	0.0149479
1852.45	-0.160837
1853.94	0.237477
1855.43	0.216177
1856.92	-0.00749779
1858.42	0.151144
1859.91	0.283195
1861.4	0.323999
1862.89	0.249029
1864.39	0.292791
1865.88	0.241769
1867.37	-0.16046
1868.86	-0.296884
1870.35	-0.147711
1871.84	-0.069129
1873.33	0.460032
1874.82	0.295509
1876.31	-0.154265
1877.8	-0.0886307
1879.29	-0.26793
1880.77	0.0221481
1882.26	0.110348
1882.51	0.116956
1884	-0.162562
1885.5	-0.198647
1886.99	-0.0439215
1888.48	0.26683
1889.98	0.455639
1891.47	0.419162
1892.97	0.0887337
1894.46	0.0209427
1895.95	0.285001
1897.44	0.0977974
1898.93	0.18875
1900.42	-0.277942
1901.92	0.315006
1903.41	0.488627
1904.9	0.313008
1906.39	0.171519
1907.88	0.203797
1909.37	0.340775
1910.86	-0.0940256
1912.35	-0.250163
1913.84	-0.041482
1915.32	0.149875
1916.81	0.496876
1918.3	-0.404738
1919.79	-0.353264
1921.28	0.338962
1922.76	0.199997
1924.25	-0.232365
1925.74	0.0808249
1927.22	0.083416
1928.71	0.415608
1930.2	-0.0487003
1931.68	-0.0808945
1933.17	0.110664
1934.65	0.300448
1936.14	0.401934
1937.62	0.0871553
1939.11	0.342529
1940.59	-0.161913
1942.08	0.00809193
1943.56	-0.0453272
1945.04	-0.132368
1946.53	0.43609
1948.01	0.262936
1949.49	0.192551
1950.97	-0.274729
1952.45	0.358919
1953.94	0.354949
1955.42	-0.147421
1956.9	0.0724831
1958.38	-0.0848083
1959.86	-0.0696964
1961.34	0.614655
1962.82	0.527341
1964.3	0.131533
1965.78	-0.298647
1967.26	0.109639
1968.74	-0.304195
1970.22	0.119515
1971.69	-0.379966
1973.17	0.401323
1974.65	-0.0293789
1976.13	0.222458
1977.61	0.0993996
1979.08	0.30001
1980.56	0.0580721
1982.03	0.0202827
1983.51	-0.08568
1984.99	0.419243
1986.46	0.0920992
1987.94	0.155232
1989.41	0.0153532
1990.89	0.400917
1992.36	0.296445
1993.84	-0.060524
1995.31	0.242645
1996.78	0.529143
1998.26	0.173672
1999.73	0.172564
2001.2	0.339625
2002.68	0.286782
2004.15	0.267571
2005.62	0.636253
2007.09	0.365312
2008.56	0.499608
2010.04	0.365335
2011.51	0.046464
2012.98	0.131678
2014.45	0.25013
2015.92	0.418264
2017.39	0.383588
2018.86	0.146404
2020.33	0.127346
2021.8	0.276104
2023.27	0.743946
2024.74	0.205462
2026.2	0.00394917
2027.67	0.558601
2029.14	0.628292
2030.61	0.296716
2032.07	0.200853
2033.54	0.441146
2035.01	0.00986481
2036.47	0.216295
2037.94	0.035862
2039.41	0.0398436
2040.87	0.497648
2042.34	0.0144272
2043.8	-0.0478811
2045.27	-0.092576
2046.73	0.385303
2048.2	0.0385809
2049.66	0.415902
2051.12	0.168761
2052.59	0.560845
2054.05	0.630806
2055.51	0.682149
2056.98	0.125217
2058.44	0.713761
2059.9	0.661599
2061.36	0.00373268
2062.82	0.239182
2064.29	0.778427
2065.75	0.611754
2067.21	0.176664
2068.67	0.583626
2070.13	0.283999
2071.59	0.539928
2073.05	0.13912
2074.51	0.445218
2075.97	0.599477
2077.43	0.517627
2078.88	0.671144
2080.34	0.521094
2081.8	0.65675
2083.26	1.07785
2084.72	-0.0165195
2086.17	0.655409
2087.63	0.350962
2089.09	0.668208
2090.54	0.766568
2092	0.78081
2093.46	0.476135
2094.91	0.624341
2096.37	0.80541
2097.82	0.516614
2099.28	1.19831
2100.73	0.875247
2102.19	0.235416
2103.64	0.983264
2105.09	0.947098
2106.55	0.745543
2108	0.878752
2109.46	0.762122
2110.91	0.928421
2112.36	0.859999
2113.81	0.873207
2115.27	0.951342
2116.72	1.19467
2118.17	1.03924
2119.62	1.23397
2121.07	0.86638
2122.52	1.28051
2123.97	1.38091
2125.42	0.918216
2126.87	0.853264
2128.32	1.25148
2129.77	1.10125
2131.22	1.33075
2132.67	1.29432
2134.12	0.92704
2135.57	1.42072
2137.01	1.10559
2138.46	1.22214
2139.91	1.52241
2141.36	1.74181
2142.8	1.5492
2144.25	1.22478
2145.7	1.42984
2147.14	1.71756
2148.59	1.64044
2150.03	1.44639
2151.48	1.84773
2152.92	1.43619
2154.37	1.66997
2155.81	1.87009
2157.26	1.77207
2158.7	2.00609
2160.15	1.92679
2161.59	1.66702
2163.03	1.69081
2164.48	1.83235
2165.92	2.57267
2167.36	1.90175
2168.8	1.76082
2170.25	1.83411
2171.69	1.77215
2173.13	1.60831
2174.57	1.99197
2176.01	1.19413
2177.45	1.69369
2178.89	1.89463
2180.33	1.81394
2181.77	1.86718
2183.21	1.87117
2184.65	1.72576
2186.09	1.51382
2187.53	1.53478
2188.97	1.8387
2190.41	2.00956
2191.84	1.66409
2193.28	2.01706
2194.72	1.66938
2196.16	1.71939
2197.59	1.38463
2199.03	1.04848
2200.47	1.45943
2201.9	1.23871
2203.34	1.33417
2204.78	1.74565
2206.21	1.76003
2207.65	1.31109
2209.08	1.21011
2210.51	1.63808
2211.95	1.55175
2213.38	1.36557
2214.82	1.39423
2216.25	0.928258
2217.68	1.4538
2219.12	1.38644
2220.55	1.15516
2221.98	1.03953
2223.42	1.4999
2224.85	0.59172
2226.28	0.85132
2227.71	1.28973
2229.14	0.789844
2230.57	0.766012
2232	0.791158
2233.43	0.701942
2234.86	0.679025
2236.29	0.918672
2237.72	0.490145
2239.15	0.276042
2240.58	0.765355
2242.01	0.913706
2243.44	0.769685
2244.87	0.691261
2246.3	0.693763
2247.73	0.613214
2249.15	0.43285
2250.58	0.902231
2252.01	0.832011
2253.43	0.744813
2254.86	0.398097
2256.29	0.589026
2257.71	0.571007
2259.14	0.19879
2260.56	0.883919
2261.99	0.679058
2263.41	0.410577
2264.84	0.808372
2266.26	0.816048
2267.69	0.513852
2269.11	0.340705
2270.54	0.589955
2271.96	0.415486
2273.38	0.322195
2274.81	0.522151
2276.23	0.249867
2277.65	0.385066
2279.07	0.471483
2280.49	0.672032
2281.92	0.399547
2283.34	0.453134
2284.76	0.408873
2286.18	0.495365
2287.6	0.353658
2289.02	0.326596
2290.44	0.59401
2291.86	0.19168
2293.28	0.296099
2294.7	0.744172
2296.12	0.685124
2297.54	0.413085
2298.96	0.222768
2300.38	-0.0495014
2301.79	-0.321775
2303.21	0.406687
2304.63	0.134757
2306.05	0.240207
2307.46	0.263285
2308.88	0.565331
2310.3	0.373722
2311.71	0.313193
2313.13	-0.125856
2314.55	-0.120437
2315.96	0.478426
2317.38	0.41958
2318.79	0.130308
2320.21	0.582713
2321.62	0.126981
2323.03	0.296401
2324.45	0.414183
2325.86	0.628786
2327.27	0.742648
2328.69	0.245847
2330.1	0.128606
2331.51	0.637897
2332.93	0.374322
2334.34	0.210429
2335.75	0.408754
2337.16	0.162517
2338.57	0.145707
2339.99	0.259316
2341.4	0.191275
2342.81	0.0571947
2344.22	-0.0767455
2345.63	0.297792
2347.04	0.229886
2348.45	0.243935
2349.86	0.257616
2351.26	-0.383298
2352.67	0.200893
2354.08	0.0815296
2355.49	-0.038229
2356.9	-0.0929089
2358.31	0.259101
2359.71	0.204279
2361.12	-0.272326
2362.53	0.192426
2363.94	-0.121318
2365.34	-0.029985
2366.75	0.562318
2368.15	0.2337
2369.56	0.24539
2370.97	0.177682
2372.37	0.159615
2373.78	-0.179571
2375.18	0.576436
2376.59	0.156927
2377.99	0.138867
2379.39	0.424702
2380.8	0.0984797
2382.2	0.268697
2383.61	0.197441
2385.01	0.12613
2386.41	0.119246
2387.81	0.0333924
2389.22	0.0285068
2390.62	0.0247588
2392.02	0.0379958
2393.42	0.306707
2394.82	0.066987
2396.22	0.0188866
2397.63	-0.441832
2399.02	-0.139129
2400.43	0.132105
2401.82	0.22881
2403.23	0.00790119
2404.62	-0.00684834
2406.02	-0.00648451
2407.42	-0.0545616
2408.82	-0.071589
2410.22	0.291523
2411.62	0.0207248
2413.02	0.447707
2414.41	0.35313
2415.81	0.149143
2417.21	0.342167
2418.61	0.393589
2420	-0.219799
2421.4	-0.0731854
2422.79	0.294953
2424.19	0.108372
2425.59	0.254563
2426.98	0.242771
2428.38	0.23177
2429.77	0.380223
2431.17	0.307315
2432.56	0.0757418
2433.96	-0.0135818
2435.35	0.11844
2436.74	0.185625
2438.14	0.203743
2439.53	-0.00172424
2440.92	0.204961
2442.32	0.315755
2443.71	0.156435
2445.1	0.330164
2446.49	0.249923
2447.88	0.122083
2449.28	0.152738
2450.67	0.500235
2452.06	0.151539
2453.45	0.262644
2454.84	-0.00520229
2456.23	0.0282049
2457.62	0.346615
2459.01	0.33269
2460.4	0.270789
2461.79	-0.044807
2463.18	0.318699
2464.57	0.428602
2465.96	0.585495
2467.34	0.110742
2468.73	-0.300532
2470.12	-0.0649991
2471.51	-0.397556
2472.89	0.0415807
2474.28	0.085897
2475.67	-0.200775
2477.05	0.109931
2478.44	0.325849
2479.83	0.133572
2481.21	-0.0268903
2482.6	-0.140162
2483.98	-0.50413
2485.37	0.414269
2486.75	-0.435644
2488.14	-0.254682
2489.52	-0.090404
2490.9	0.104434
2492.29	0.283689
2493.67	0.152954
2495.06	0.256396
2496.44	0.515818
2497.82	0.24904
2499.2	0.153149
2500.59	-0.00477982
2501.97	0.00683784
2503.35	-0.0750842
2504.73	0.305098
2506.11	0.160015
2507.49	0.122756
2508.88	0.00881815
2510.26	0.386938
2511.63	0.273933
2513.01	-0.114062
2514.39	0.357077
2515.77	-0.0441093
2517.15	-0.168748
2518.53	0.303493
2519.91	0.530908
2521.29	0.0247464
2522.67	-0.130361
2524.05	-0.163985
2525.42	0.0608969
2526.8	0.148115
2528.18	0.189907
2529.56	0.00453615
2530.93	-0.0120354
2532.31	0.383162
2533.69	0.26293
2535.06	0.568776
2536.44	-0.0369582
2537.81	-0.202671
2539.19	0.238338
2540.56	0.329145
2541.94	0.0249319
2543.31	0.343233
2544.69	0.16156
2546.06	0.254079
2547.44	-0.0618353
2548.81	0.214614
2550.18	0.248456
2551.56	0.0694051
2552.93	-0.156024
2554.3	0.406754
2555.68	0.331295
2557.05	0.316018
2558.42	0.224805
2559.79	0.0429211
2561.16	0.331442
2562.53	-0.106955
2563.9	0.152312
2565.28	0.214962
2566.64	0.262686
2568.02	0.325655
2569.38	-0.00542164
2570.76	0.178799
2572.12	0.499487
2573.49	0.0926852
2574.86	0.261974
2576.23	0.0977812
2577.6	0.41868
2578.97	0.132895
2580.34	0.22585
2581.7	0.39424
2583.07	0.334836
2584.44	0.19942
2585.81	0.0942969
2587.17	0.231807
2588.54	-0.00942326
2589.91	0.11319
2591.27	0.250831
2592.64	0.160744
2594	0.16085
2595.37	0.114595
2596.73	0.097712
2598.1	-0.32833
2599.46	0.0773273
2600.83	0.195498
2602.19	-0.0182548
2603.55	-0.0953474
2604.92	-0.141703
2606.28	0.189265
2607.64	-0.0532913
2609.01	-0.10045
2610.37	0.0622506
2611.73	0.0429311
2613.09	0.0225949
2614.46	0.286995
2615.82	0.145454
2617.18	0.00440979
2618.54	0.208631
2619.9	-0.125502
2621.26	-0.20426
2622.62	0.255474
2623.98	0.371363
2625.34	0.128907
2626.7	0.140062
2628.06	0.314809
2629.42	0.280554
2630.78	0.0378647
2632.14	0.167112
2633.5	0.221829
2634.86	-0.109459
2636.22	0.68685
2637.57	0.400132
2638.93	0.498884
2640.29	0.464477
2641.64	-0.0279288
2643	0.322698
2644.36	0.0381908
2645.72	0.12282
2647.07	0.236454
2648.43	0.319818
2649.78	0.166824
2651.14	0.160502
2652.49	0.330135
2653.85	0.103498
2655.2	0.200433
2656.56	0.239619
2657.91	0.0163546
2659.27	0.159878
2660.62	0.142797
2661.97	0.227908
2663.33	0.385415
2664.68	0.250045
2666.03	0.347529
2667.38	0.269531
2668.74	0.162447
2670.09	0.0703259
2671.44	0.153289
2672.79	0.135002
2674.14	-0.14409
2675.49	0.0275755
2676.84	0.228608
2678.2	-0.121041
2679.55	0.226238
2680.89	0.400366
2682.24	0.488605
2683.59	-0.0165462
2684.94	0.0736375
2686.29	-0.00981712
2687.64	-0.0644245
2688.99	-0.00395012
2690.34	0.345392
2691.69	0.112398
2693.04	0.284399
2694.38	0.426332
2695.73	-0.185676
2697.08	-0.217114
2698.43	0.375267
2699.77	0.129143
2701.12	0.0728493
2702.46	0.408978
2703.81	-0.10863
2705.16	0.171132
2706.5	0.349687
2707.85	0.252459
2709.19	0.445108
2710.54	0.17285
2711.88	0.350487
2713.23	-0.0386157
2714.57	-0.0355477
2715.92	-0.0179963
2717.26	0.101249
2718.6	0.569485
2719.95	0.149982
2721.29	0.544902
2722.63	0.25539
2723.97	0.634956
2725.32	0.140788
2726.66	0.228498
2728	0.228585
2729.34	0.403079
2730.68	0.155433
2732.02	0.373376
2733.36	0.504061
2734.7	0.125791
2736.04	-0.150423
2737.39	0.126183
2738.72	0.111877
2740.06	-0.135314
2741.4	0.242362
2742.74	-0.0639195
2744.08	0.254254
2745.42	0.324679
2746.76	0.278473
2748.1	0.145044
2749.44	0.214891
2750.77	0.415389
2752.11	-0.123415
2753.45	-0.0094533
2754.78	-0.0113182
2756.12	0.11729
2757.46	-0.289775
2758.79	0.244534
2760.13	-0.103903
2761.47	0.141518
2762.8	0.242619
2764.14	0.50316
2765.47	-0.191244
2766.81	0.141223
2768.14	0.270266
2769.48	0.0655046
2770.81	0.0908446
2772.14	-0.390517
2773.48	-0.0928516
2774.81	0.391239
2776.14	0.183051
2777.48	-0.0820189
2778.81	0.214658
2780.14	-0.178393
2781.47	-0.0249152
2782.81	-0.0868263
2784.14	0.166806
2785.47	0.162106
2786.8	0.200546
2788.13	-0.118469
2789.46	0.0929222
2790.79	0.233432
2792.12	0.160099
2793.46	-0.155789
2794.79	0.200226
2796.11	0.0413938
2797.44	0.196407
2798.77	0.208014
2800.1	-0.30884
2801.43	-0.311909
2802.76	0.0413094
2804.09	0.137427
2805.42	-0.0660481
2806.74	0.0433202
2808.07	-0.0329275
2809.4	-0.265776
2810.73	-0.29943
2812.05	0.107398
2813.38	0.273624
2814.71	-0.0126557
2816.03	-0.127381
2817.36	0.141599
2818.68	-0.127497
2820.01	0.524705
2821.33	-0.0707531
2822.66	0.1694
2823.98	0.168045
2825.31	0.251359
2826.63	-0.00519371
2827.96	0.00782633
2829.28	-0.176857
2830.61	0.360851
2831.93	0.290027
2833.25	0.502255
2834.57	0.431092
2835.9	0.656687
2837.22	0.344034
2838.54	0.469641
2839.86	0.665701
2841.18	0.946581
2842.51	0.817802
2843.83	1.0006
2845.15	1.08512
2846.47	1.12782
2847.79	0.916475
2849.11	1.27049
2850.43	1.21436
2851.75	1.77967
2853.07	1.45406
2854.39	1.38251
2855.71	1.72053
2857.03	1.16846
2858.35	1.54882
2859.67	1.54774
2860.98	1.37708
2862.3	1.61558
2863.62	1.69839
2864.94	1.97845
2866.25	1.77873
2867.57	1.60754
2868.89	1.93032
2870.21	1.60488
2871.52	2.1818
2872.84	1.9127
2874.15	1.69941
2875.47	2.21774
2876.78	2.07296
2878.1	2.16679
2879.42	2.18994
2880.73	2.18523
2882.04	2.05481
2883.36	2.3889
2884.67	2.34458
2885.99	2.27276
2887.3	1.99051
2888.61	1.8343
2889.93	2.32276
2891.24	2.27727
2892.55	2.69378
2893.87	2.10112
2895.18	2.90957
2896.49	2.33238
2897.8	2.2183
2899.11	2.60884
2900.42	2.44042
2901.74	2.37038
2903.05	2.39844
2904.36	2.52454
2905.67	2.66486
2906.98	2.6658
2908.29	3.15707
2909.6	2.73981
2910.91	2.64475
2912.22	3.01158
2913.53	3.16788
2914.83	3.60298
2916.14	3.84048
2917.45	3.39064
2918.76	3.80758
2920.07	3.49682
2921.37	3.89992
2922.68	3.49316
2923.99	3.61892
2925.3	4.13707
2926.6	4.62788
2927.91	4.01439
2929.22	4.11349
2930.52	4.17016
2931.83	3.68119
2933.13	4.1845
2934.44	4.29635
2935.74	4.22661
2937.05	3.98933
2938.35	3.85006
2939.66	4.01846
2940.96	3.86593
2942.27	3.33684
2943.57	3.45159
2944.87	3.12019
2946.18	3.57278
2947.48	3.42464
2948.78	3.09423
2950.09	3.43466
2951.39	3.18553
2952.69	3.34078
2953.99	2.92071
2955.29	3.18633
2956.6	2.47288
2957.9	2.79696
2959.2	2.81547
2960.5	2.5002
2961.8	2.63489
2963.1	2.89674
2964.4	2.7654
2965.7	2.61858
2967	2.38584
2968.3	2.37669
2969.6	2.04345
2970.9	1.94904
2972.2	2.03772
2973.49	1.95788
2974.79	1.9906
2976.09	1.99463
2977.39	1.96941
2978.69	2.09758
2979.98	1.54847
2981.28	1.78655
2982.58	1.64417
2983.88	1.51624
2985.17	1.30501
2986.47	1.82587
2987.76	1.5189
2989.06	1.45171
2990.36	1.01935
2991.65	1.00817
2992.95	0.771238
2994.24	0.856469
2995.54	0.87044
2996.83	0.827591
2998.12	0.489881
2999.42	0.938177
3000.71	0.629401
3002	0.671769
3003.3	0.658423
3004.59	0.463066
3005.88	0.869761
3007.18	0.505693
3008.47	0.281123
3009.76	0.293731
3011.05	0.249769
3012.35	0.0937929
3013.64	0.203103
3014.93	0.340468
3016.22	0.241423
3017.51	0.226692
3018.8	0.504634
3020.09	0.392942
3021.38	0.128086
3022.67	0.404492
3023.96	0.179984
3025.25	-0.0170894
3026.54	0.173813
3027.83	0.295557
3029.12	-0.107299
3030.41	0.265444
3031.69	-0.00997496
3032.98	-0.104774
3034.27	0.04918
3035.56	-0.14232
3036.85	0.216732
3038.13	0.325706
3039.42	-0.0351586
3040.71	-0.272882
3041.99	0.0107765
3043.28	0.0194554
3044.57	0.220468
3045.85	-0.329529
3047.14	0.0659785
3048.42	-0.165038
3049.71	-0.134698
3050.99	-0.0484204
3052.28	0.147732
3053.56	-0.0245237
3054.85	-0.115453
3056.13	-0.0435796
3057.42	-0.0272493
3058.7	0.0837212
3059.98	0.316846
3061.27	0.141772
3062.55	-0.141086
3063.83	-0.204992
3065.11	-0.226769
3066.4	0.282848
3067.68	0.0592151
3068.96	0.339036
3070.24	0.0474706
3071.52	-0.0816879
3072.8	0.00569201
3074.09	-0.166367
3075.37	0.0549264
3076.65	0.153465
3077.93	-0.0870905
3079.21	0.189072
3080.49	-0.0219274
3081.77	0.0126586
3083.05	0.18402
3084.32	0.0846853
3085.61	0.134668
3086.88	0.0213628
3088.16	0.0702801
3089.44	-0.193594
3090.72	-0.0507207
3092	-0.00301552
3093.27	0.0583544
3094.55	0.106395
3095.83	0.00550985
3097.11	-0.000376225
3098.38	0.291847
3099.66	0.0959945
3100.94	0.171073
3102.21	-0.0111547
3103.49	0.118334
3104.76	0.2076
3106.04	-0.0679126
3107.31	-0.00425816
3108.59	-0.183298
3109.86	0.0987616
3111.14	-0.0514493
3112.41	0.164632
3113.69	0.0424724
3114.96	0.177781
3116.23	-0.0262637
3117.51	-0.366804
3118.78	-0.16579
3120.05	-0.19631
3121.33	0.151976
3122.6	0.214875
3123.87	0.142049
3125.14	0.191298
3126.42	0.0920162
3127.69	0.169178
3128.96	0.341418
3130.23	-0.243314
3131.5	0.388919
3132.77	0.169324
3134.04	0.246693
3135.31	0.0535011
3136.58	0.399666
3137.85	0.313457
3139.12	0.105767
3140.39	0.35587
3141.66	0.0273275
3142.93	0.384835
3144.2	0.164868
3145.47	0.240919
3146.74	0.0627441
3148	0.501623
3149.27	0.19072
