200.388	-0.171234
202.204	-0.173414
204.019	-0.17432
205.832	-0.0524406
207.646	-0.221815
209.459	0.216367
211.274	-0.148064
213.087	-0.00321198
214.899	-0.247362
216.711	-0.442942
218.524	-0.226202
220.335	0.257271
222.146	-0.516574
223.956	0.258816
225.766	-0.0531931
227.576	-0.533679
229.388	0.314258
231.197	-0.0214596
233.005	-0.3569
234.813	-0.643271
236.621	-0.012125
238.429	0.211141
240.236	0.123639
242.045	0.0626221
243.852	-0.72059
245.658	-0.659558
247.464	0.245495
249.269	0.110452
251.074	-0.341135
252.879	0.0982141
254.683	0.0532579
256.487	0.152773
258.291	0.373628
260.094	-0.319395
261.897	0.362927
263.702	-0.18156
265.504	0.0219984
267.306	0.226212
269.108	-0.292707
270.909	0.586002
272.71	0.210226
274.511	-0.0220346
276.311	0.226539
278.111	-0.562773
279.91	0.0439167
281.709	0.287097
283.508	0.31182
285.306	0.407329
287.105	-0.482049
288.9	-0.146652
290.698	-0.0745859
292.495	0.238088
294.291	0.121425
296.088	-0.304324
297.884	0.155778
299.679	0.0667229
301.475	0.670407
303.27	0.699999
305.064	0.41825
306.858	0.613024
308.652	0.449898
310.444	0.382912
312.237	0.746007
314.03	0.634479
315.822	0.763131
317.615	1.29868
319.406	0.954887
321.198	1.30342
322.987	1.36715
324.778	1.7657
326.568	1.68754
328.358	2.20649
330.148	1.67364
331.935	1.52175
333.724	1.89442
335.513	1.76251
337.301	1.72386
339.089	1.77869
340.875	0.851327
342.662	1.19086
344.449	0.956689
346.236	0.842751
348.02	1.39832
349.806	1.73945
351.592	1.50781
353.375	0.798565
355.16	1.16222
356.944	1.1428
358.728	1.05059
360.51	0.71921
362.294	0.720583
364.077	1.24437
365.858	1.86165
367.64	0.86301
369.422	1.47789
371.202	1.14318
372.983	1.51832
374.764	1.96318
376.543	1.79341
378.324	1.93125
380.102	2.96515
381.881	2.65708
383.661	3.45669
385.438	3.73994
387.216	3.69571
388.993	2.9484
390.771	3.40066
392.548	3.40779
394.324	3.25147
396.101	3.42457
397.875	3.12821
399.651	2.94919
401.425	3.02809
403.201	2.21379
404.974	1.7041
406.749	1.42859
408.524	1.6691
410.296	1.15806
412.07	1.21058
413.841	0.958543
415.614	0.54314
417.385	1.04374
419.156	1.21665
420.928	1.2257
422.698	0.553825
424.469	0.608941
426.238	0.944902
428.009	1.63216
429.777	0.652244
431.548	1.52671
433.315	1.1341
435.083	2.0093
436.852	1.1713
438.618	0.966316
440.387	1.01806
442.153	1.13808
443.919	0.693088
445.686	0.949547
447.451	1.39157
449.218	0.709862
450.982	0.777133
452.746	1.1715
454.512	1.12234
456.275	1.53945
458.038	1.1174
459.803	0.882285
461.565	0.624989
463.327	1.04363
465.091	0.95333
466.852	0.773177
468.613	0.572606
470.374	0.652966
472.136	0.617827
473.896	0.0697727
475.655	0.963605
477.415	0.900568
479.176	0.439558
480.934	1.35181
482.692	0.75018
484.45	0.77864
486.21	1.71772
487.967	1.40134
489.724	0.573793
491.481	0.889917
493.237	1.41762
494.995	1.12808
496.75	0.931571
498.506	0.851575
500.26	1.21655
502.015	0.877395
503.771	1.28843
505.525	1.34629
507.279	1.61439
509.032	2.13982
510.785	1.88725
512.537	2.33877
514.289	1.72969
516.041	2.50723
517.793	2.20114
519.546	2.92845
521.297	3.01978
523.047	2.7347
524.797	2.56704
526.547	3.31447
528.297	2.60748
530.046	2.76822
531.795	2.34281
533.543	2.03404
535.291	1.93488
537.039	2.04465
538.787	1.24208
540.534	1.30281
542.281	0.919959
544.027	0.863335
545.773	0.57445
547.519	0.472122
549.264	0.092103
551.01	1.05627
552.754	0.653761
554.499	0.252331
556.243	0.336761
557.987	0.536718
559.73	0.898088
561.474	0.568818
563.216	0.884747
564.959	0.465289
566.701	0.483502
568.441	0.0892572
570.182	0.453706
571.923	0.521013
573.664	0.314684
575.405	1.16539
577.145	0.710227
578.885	0.669361
580.624	0.950821
582.361	0.773132
584.1	0.433839
585.839	0.208261
587.577	0.234381
589.315	0.282334
591.052	0.306361
592.787	0.882037
594.524	0.83633
596.26	1.73395
597.997	0.883028
599.732	0.675961
601.466	0.468114
603.201	0.903049
604.936	0.554577
606.67	0.641671
608.403	0.773759
610.136	0.882561
611.87	0.601756
613.603	0.276167
615.334	0.593263
617.067	0.40629
618.799	0.150285
620.529	0.282644
622.26	0.276391
623.991	0.292141
625.72	0.353518
627.451	0.826736
629.181	0.114747
630.909	-0.0926256
632.638	0.249607
634.368	-0.411231
636.095	0.205797
637.823	0.52459
639.551	0.315786
641.277	-0.397489
643.005	-0.0181046
644.73	0.0861721
646.457	-0.514734
648.184	0.0689726
649.908	0.132303
651.634	0.221924
653.357	0.17891
655.083	-0.202168
656.806	-0.331309
658.53	-0.0951004
660.253	0.278161
661.977	0.148273
663.7	0.0617323
665.422	-0.0500364
667.145	0.636686
668.865	0.453755
670.588	-0.758104
672.308	0.182112
674.027	-0.294207
675.749	0.353779
677.468	0.315911
679.188	-0.0204067
680.907	0.262423
682.627	0.221982
684.345	0.363622
686.064	0.549509
687.781	0.411486
689.498	-0.372613
691.216	0.178557
692.932	-0.123136
694.65	0.334587
696.366	0.837303
698.081	-0.295882
699.797	-0.117748
701.512	0.634116
703.228	0.0281086
704.942	1.02998
706.655	1.02004
708.371	0.138251
710.083	0.17406
711.796	0.278144
713.51	0.450352
715.222	0.0278807
716.934	0.724894
718.645	0.371382
720.358	0.588433
722.068	0.372595
723.779	0.703244
725.49	0.010191
727.2	0.135781
728.909	0.192681
730.618	0.725143
732.329	0.667315
734.037	0.134266
735.745	0.189994
737.453	0.133012
739.16	0.573055
740.869	0.607465
742.576	0.755584
744.282	0.792228
745.988	0.852677
747.694	0.644455
749.401	0.752473
751.107	1.24405
752.811	1.19708
754.516	0.566495
756.22	1.30974
757.924	1.01939
759.627	1.60877
761.332	1.81683
763.035	2.43189
764.738	2.79924
766.44	3.23366
768.142	4.79673
769.843	3.98397
771.544	4.61566
773.245	5.20028
774.946	5.5128
776.646	5.91637
778.346	6.41214
780.046	6.52574
781.745	5.48725
783.444	5.03676
785.143	4.90155
786.841	3.65413
788.539	3.64805
790.237	2.82382
791.934	2.60788
793.631	1.91631
795.328	1.74455
797.024	1.88948
798.72	1.31513
800.416	1.32849
802.112	1.14074
803.807	1.51606
805.502	1.08166
807.196	1.1637
808.89	1.17717
810.584	1.00997
812.278	1.15605
813.971	1.07729
815.664	1.1551
817.354	1.79194
819.047	1.26559
820.739	1.25386
822.43	1.77801
824.122	1.16498
825.813	1.40082
827.503	1.21522
829.192	0.920943
830.882	1.14171
832.571	1.45435
834.261	0.855412
835.95	0.546723
837.637	1.10791
839.325	1.33373
841.013	0.731779
842.701	1.22299
844.389	0.842376
846.074	0.775078
847.761	1.15648
849.447	1.5629
851.131	0.673608
852.817	1.44309
854.503	0.554719
856.188	1.03449
857.871	0.637366
859.556	1.07061
861.24	1.16504
862.922	0.447001
864.606	1.10188
866.289	-0.0246038
867.97	0.403597
869.653	0.448162
871.336	0.740571
873.016	0.559106
874.698	1.00929
876.379	0.489216
878.058	0.826668
879.739	0.44178
881.418	0.846607
883.098	0.889614
884.778	0.525278
886.456	0.88201
888.135	0.695595
889.812	1.11675
891.49	1.10779
893.167	1.25521
894.845	2.21128
896.523	1.72575
898.198	1.44228
899.875	1.27062
901.55	1.30022
903.226	1.3963
904.901	1.15669
906.576	1.43126
908.25	1.1707
909.925	0.555225
911.598	1.27672
913.271	0.108299
914.945	0.674365
916.617	1.12852
918.291	0.983339
919.962	1.10424
921.635	0.38476
923.306	0.551681
924.978	1.31625
926.648	0.867367
928.318	1.1709
929.989	0.747258
931.659	0.67746
933.328	1.02709
934.998	0.141573
936.666	0.800475
938.336	0.688168
940.004	0.797523
941.671	0.665378
943.34	0.666267
945.007	0.468419
946.673	1.21869
948.339	0.532507
950.007	0.88197
951.672	0.0166349
953.337	0.0119839
955.004	0.64809
956.669	0.51479
958.333	-0.255345
959.997	0.234314
961.662	0.306377
963.326	0.466918
964.989	0.449254
966.651	0.539795
968.315	0.450781
969.977	0.182822
971.639	0.577675
973.301	0.30929
974.962	-0.37794
976.624	0.528671
978.285	0.463651
979.945	0.299664
981.605	0.135268
983.264	1.17615
984.924	0.156524
986.583	0.0869837
988.243	0.303483
989.901	0.054265
991.56	0.0257101
993.217	-0.11342
994.875	-0.00949955
996.532	0.160588
998.188	-0.419213
999.845	-0.0730057
1001.5	0.382547
1003.16	0.0888615
1004.81	0.828884
1006.47	0.271155
1008.12	0.241361
1009.78	0.18994
1011.43	0.424072
1013.09	0.877491
1014.74	0.520303
1016.39	0.798746
1018.05	0.399076
1019.7	0.284833
1021.35	1.50529
1023	2.1797
1024.65	2.3085
1026.31	2.50349
1027.96	2.52368
1029.61	3.48257
1031.26	3.84991
1032.91	3.10166
1034.56	3.85766
1036.21	3.30279
1037.86	3.33593
1039.51	3.78244
1041.16	3.22846
1042.8	3.43756
1044.45	3.43121
1046.1	3.23169
1047.75	2.90418
1049.39	2.99126
1051.04	2.81917
1052.69	2.45245
1054.33	2.17292
1055.98	1.8498
1057.62	2.28711
1059.27	2.50662
1060.91	2.05139
1062.56	1.81271
1064.2	2.66024
1065.85	1.76722
1067.49	1.28638
1069.13	1.91286
1070.77	2.08207
1072.42	2.09901
1074.06	2.57207
1075.7	3.26283
1077.34	2.80539
1078.98	4.04093
1080.62	4.67016
1082.27	4.32362
1083.91	4.77825
1085.55	5.85923
1087.18	5.83155
1088.82	6.42887
1090.46	6.56833
1092.1	6.46794
1093.74	6.64764
1095.38	6.2231
1097.02	6.74896
1098.65	5.22961
1100.29	4.14525
1101.93	4.0973
1103.56	3.81501
1105.2	2.9107
1106.84	2.76008
1108.47	1.98554
1110.11	2.67215
1111.74	2.06702
1113.38	2.94288
1115.01	2.61404
1116.64	2.39216
1118.28	2.1278
1119.91	1.90735
1121.54	2.07364
1123.18	2.02688
1124.81	2.62309
1126.44	2.19323
1128.07	2.7695
1129.7	1.63588
1131.33	1.37969
1132.97	0.995598
1134.6	1.44511
1136.23	0.974859
1137.86	0.503776
1139.49	0.950302
1141.11	0.81901
1142.74	1.22079
1144.37	0.897099
1146	0.617004
1147.63	1.04131
1149.26	0.67792
1150.88	1.10332
1152.51	1.12393
1154.14	1.20806
1155.76	0.9512
1157.39	0.566702
1159.01	0.693232
1160.64	0.650376
1162.27	0.842483
1163.89	0.971766
1165.51	0.548763
1167.14	0.550782
1168.76	0.169149
1170.39	1.38019
1172.01	0.633874
1173.63	0.268791
1175.25	1.04869
1176.88	0.872868
1178.5	1.03641
1180.12	1.13687
1181.74	0.89962
1183.36	0.494198
1184.98	0.723208
1186.6	0.63433
1188.22	0.733932
1189.84	0.704968
1191.46	0.590003
1193.08	0.326673
1194.7	0.210228
1196.32	0.429557
1197.94	0.460672
1199.55	0.305083
1201.17	0.319151
1202.79	0.377423
1204.41	0.667635
1206.02	0.208588
1207.64	0.16821
1209.25	0.357599
1210.87	0.0248299
1212.48	0.83744
1214.1	0.542789
1215.71	0.74612
1217.33	0.801724
1218.94	0.731488
1220.56	0.0799847
1222.17	0.40512
1223.79	0.606464
1225.4	0.10492
1227.01	0.660764
1228.62	0.555478
1230.23	0.678905
1231.85	0.700036
1233.46	0.598294
1235.07	1.05576
1236.68	1.18372
1238.29	0.54783
1239.9	0.470624
1241.51	0.78656
1243.12	0.0265617
1244.73	0.465722
1246.34	0.65574
1247.94	0.493042
1249.55	0.474486
1251.16	0.538376
1252.77	0.767903
1254.37	1.26693
1255.98	1.04305
1257.59	0.985807
1259.2	0.226112
1260.8	0.56385
1262.41	0.612376
1264.01	0.391685
1265.62	0.895772
1267.22	0.176522
1268.83	0.2232
1270.43	0.97393
1272.03	0.790694
1273.64	0.627237
1275.24	0.359266
1276.85	0.525747
1278.45	0.401359
1280.05	0.545678
1281.65	0.399823
1283.25	0.688617
1284.85	0.708816
1286.46	0.0269299
1288.06	0.937775
1289.66	0.898548
1291.26	0.570542
1292.86	1.13099
1294.46	1.54599
1296.06	0.741073
1297.66	0.616478
1299.25	1.19195
1300.85	0.878691
1302.45	0.708941
1304.05	1.19715
1305.65	0.491258
1307.24	1.63476
1308.84	0.723923
1310.43	0.532328
1312.03	0.730428
1313.63	1.29695
1315.22	1.14817
1316.82	0.388029
1318.41	0.690516
1320.01	0.421629
1321.6	0.315359
1323.2	1.22544
1324.79	0.648071
1326.38	0.842219
1327.98	0.751474
1329.57	0.560168
1331.16	1.3213
1332.76	0.547324
1334.35	1.45255
1335.94	1.67211
1337.53	1.62985
1339.12	1.12342
1340.71	1.01895
1342.3	1.23463
1343.89	1.24692
1345.48	2.2619
1347.07	3.3546
1348.66	1.46219
1350.25	0.816647
1351.84	1.01449
1353.43	0.714281
1355.01	1.51483
1356.6	0.996523
1358.19	1.09738
1359.77	1.41693
1361.36	1.25611
1362.95	1.21431
1364.53	1.29179
1366.12	1.72804
1367.71	1.7464
1369.29	1.36783
1370.88	1.48843
1372.46	1.57057
1374.04	1.49466
1375.63	1.53883
1377.21	1.44384
1378.8	1.90553
1380.38	2.02789
1381.96	1.85045
1383.54	0.836547
1385.13	1.43251
1386.71	2.00757
1388.29	1.47016
1389.87	1.92636
1391.45	1.39099
1393.03	1.09479
1394.61	1.13629
1396.19	0.681892
1397.77	1.27771
1399.35	1.29749
1400.93	1.49455
1402.51	1.69078
1404.09	0.937112
1405.67	0.955886
1407.24	1.33123
1408.82	1.37123
1410.4	1.62902
1411.98	1.4522
1413.55	1.78815
1415.13	1.57044
1416.71	1.27317
1418.28	1.25174
1419.86	1.44731
1421.43	1.50588
1423.01	1.58565
1424.58	1.54895
1426.16	1.80877
1427.73	1.47871
1429.31	1.85697
1430.88	1.86036
1432.45	2.31515
1434.02	2.37522
1435.6	2.69041
1437.17	2.37645
1438.74	1.78821
1440.31	1.79081
1441.88	1.73543
1443.45	1.72006
1445.03	1.7444
1446.6	2.08341
1448.17	1.43975
1449.74	1.30738
1451.3	1.70628
1452.87	1.22088
1454.44	2.03391
1456.01	1.47001
1457.58	1.49566
1459.15	1.87436
1460.72	1.64126
1462.28	2.19335
1463.85	1.79938
1465.42	1.22775
1466.98	1.6582
1468.55	1.08719
1470.12	1.16517
1471.68	1.45996
1473.25	0.716135
1474.81	1.01265
1476.38	0.878132
1477.94	0.684937
1479.51	0.550531
1481.07	0.455263
1482.63	0.301148
1484.2	0.832741
1485.76	0.638995
1487.32	0.052948
1488.88	0.0730562
1490.45	0.111121
1492.01	-0.0287333
1493.57	0.259481
1495.13	0.603974
1496.69	0.342557
1498.25	0.178845
1499.81	0.307537
1501.37	0.242736
1502.93	0.256701
1504.49	0.193951
1506.05	0.247712
1507.61	-0.27934
1509.17	-0.0913906
1510.73	-0.0206451
1512.28	0.0298815
1513.84	-0.266539
1515.4	0.264489
1516.96	0.103545
1518.51	0.0970755
1520.07	0.110314
1521.63	0.449023
1523.18	0.00303078
1524.74	0.340136
1526.29	0.465763
1527.85	0.0379734
1529.4	0.124269
1530.96	0.286209
1532.51	0.16371
1534.06	0.0233593
1535.62	0.0544949
1537.17	0.0486031
1538.72	-0.409679
1540.28	0.340123
1541.83	0.372692
1543.38	0.0286903
1544.93	-0.126789
1546.48	0.224983
1548.03	-0.306005
1549.59	-0.0674324
1551.14	0.152071
1552.69	0.184493
1554.24	0.124208
1555.79	0.326677
1557.34	0.213102
1558.88	0.306591
1560.43	-0.0460205
1561.98	-0.322565
1563.53	-0.13178
1565.08	0.656619
1566.62	0.0830488
1568.17	0.498315
1569.72	0.465353
1571.27	0.525364
1572.81	0.939785
1574.36	0.252699
1575.9	0.088294
1577.45	0.166732
1579	0.3202
1580.54	0.474219
1582.09	0.348829
1583.63	0.504322
1585.17	0.268121
1586.72	0.555652
1588.26	0.00187588
1589.8	0.682438
1591.35	0.40849
1592.89	0.545866
1594.43	0.214794
1595.97	0.145839
1597.52	0.958051
1599.06	0.271483
1600.6	0.579113
1602.14	0.71855
1603.68	-0.00566387
1605.22	0.809379
1606.76	0.421106
1608.3	0.143741
1609.84	0.559811
1611.38	0.278486
1612.92	0.596618
1614.46	0.200013
1615.99	0.178617
1617.53	0.213835
1619.07	0.362383
1620.61	0.736822
1622.14	0.662904
1623.68	0.683376
1625.22	0.0861769
1626.75	0.181017
1628.29	0.443101
1629.82	1.07775
1631.36	0.439858
1632.9	0.362667
1634.43	0.285793
1635.96	0.396246
1637.5	0.246285
1639.03	0.171556
1640.57	0.600129
1642.1	-0.201701
1643.63	0.0204325
1645.16	0.0366173
1646.7	0.591272
1648.23	-0.0815868
1649.76	0.286649
1651.29	0.209825
1652.82	0.301049
1654.36	0.207741
1655.89	0.634026
1657.42	0.467074
1658.95	0.0773363
1660.48	-0.0169182
1662.01	0.239243
1663.53	0.457071
1665.06	0.304616
1666.59	0.447958
1668.12	0.333793
1669.65	0.368475
1671.18	0.496528
1672.7	0.0175953
1674.23	0.294357
1675.76	0.386698
1677.29	-0.000202179
1678.81	0.200974
1680.34	0.529751
1681.86	0.10409
1683.39	0.413166
1684.91	0.263107
1686.44	0.0951834
1687.96	0.147772
1689.49	0.292229
1691.01	0.180414
1692.54	0.819102
1694.06	0.231562
1695.58	0.540281
1697.11	-0.211341
1698.63	-0.268476
1700.15	0.641356
1701.67	-0.0736551
1703.2	-0.0956192
1704.72	0.810694
1706.24	0.0411282
1707.76	0.145226
1709.28	0.0492411
1710.8	0.280151
1712.32	-0.413971
1713.84	0.034626
1715.36	0.319608
1716.88	-0.119477
1718.4	0.327633
1719.91	0.340525
1721.43	0.245266
1722.95	-0.0296497
1724.47	0.48943
1725.99	-0.287482
1727.5	0.197475
1729.02	-0.21678
1730.54	0.0538492
1732.05	0.781336
1733.57	0.318606
1735.09	-0.0647449
1736.6	-0.279382
1738.12	0.221355
1739.63	0.0229254
1741.15	0.360675
1742.66	0.0186081
1744.18	0.378295
1745.69	-0.0807562
1747.2	0.287432
1748.72	0.16032
1750.23	-0.170749
1751.74	0.0350351
1753.25	-0.229445
1754.77	0.379293
1756.28	0.21977
1757.79	0.796679
1759.3	-0.136982
1760.81	-0.18904
1762.32	-0.100807
1763.83	-0.161731
1765.34	0.29382
1766.85	0.161683
1768.36	-0.156385
1769.87	-0.130393
1771.38	-0.0776854
1772.89	-0.191616
1774.4	-0.249036
1775.91	0.0785685
1777.41	0.200441
1778.92	0.182347
1780.43	0.176681
1781.94	0.245059
1783.44	0.149175
1784.95	0.155918
1786.45	0.0551052
1787.96	0.348611
1789.47	0.0685186
1790.97	-0.0906477
1792.48	0.23816
1793.98	0.0376987
1795.48	0.250256
1796.99	0.0764694
1798.49	-0.0269775
1800	0.146914
1801.5	0.0116072
1803	0.205035
1804.51	0.485545
1806.01	-0.132129
1807.51	-0.0535727
1809.01	0.178484
1810.51	-0.0394669
1812.02	-0.0639868
1813.52	0.158899
1815.02	-0.097909
1816.52	0.216567
1818.02	0.182954
1819.52	0.135417
1821.02	-0.138695
1822.52	0.242589
1824.02	0.247178
1825.51	0.416815
1827.01	0.148685
1828.51	0.334301
1830.01	0.110796
1831.51	0.215082
1833	0.15583
1834.5	0.563147
1836	0.017024
1837.5	0.103516
1838.99	0.37055
1840.49	0.157435
1841.98	-0.0811014
1843.48	0.228652
1844.97	0.447031
1846.47	0.0924511
1847.96	0.245673
1849.46	0.277167
1850.95	0.163603
1852.45	0.152227
1853.94	0.352631
1855.43	0.164733
1856.92	0.194413
1858.42	0.0921507
1859.91	-0.242457
1861.4	-0.0376053
1862.89	-0.0610332
1864.39	0.12991
1865.88	0.041585
1867.37	0.10218
1868.86	0.168249
1870.35	0.216766
1871.84	-0.0411005
1873.33	0.231606
1874.82	-0.141573
1876.31	-0.311615
1877.8	-0.212241
1879.29	0.206705
1880.77	-0.0373373
1882.26	0.0934668
1882.51	0.130584
1884	-0.550942
1885.5	-0.169648
1886.99	0.0537968
1888.48	-0.228269
1889.98	0.429633
1891.47	0.496512
1892.97	0.495287
1894.46	0.356671
1895.95	0.167304
1897.44	0.378638
1898.93	-0.227604
1900.42	0.348104
1901.92	0.330895
1903.41	0.0338192
1904.9	-0.0731125
1906.39	-0.111144
1907.88	-0.288095
1909.37	0.195213
1910.86	0.210486
1912.35	-0.0856838
1913.84	0.468611
1915.32	-0.139024
1916.81	0.345512
1918.3	0.326693
1919.79	0.0302439
1921.28	0.236202
1922.76	0.251924
1924.25	0.320362
1925.74	0.389816
1927.22	0.0793839
1928.71	0.029192
1930.2	0.16945
1931.68	0.0492601
1933.17	0.100962
1934.65	-0.38553
1936.14	0.095829
1937.62	-0.167899
1939.11	0.103942
1940.59	-0.159613
1942.08	0.596079
1943.56	0.299756
1945.04	-0.0127888
1946.53	0.24409
1948.01	0.242105
1949.49	0.0327349
1950.97	-0.246187
1952.45	0.00782871
1953.94	0.192222
1955.42	-0.00175571
1956.9	-0.246657
1958.38	0.281643
1959.86	0.278266
1961.34	0.46401
1962.82	0.221286
1964.3	-0.329792
1965.78	-0.195809
1967.26	-0.43909
1968.74	0.343646
1970.22	0.594928
1971.69	-0.281708
1973.17	-0.0135727
1974.65	0.168982
1976.13	-0.0235291
1977.61	0.142053
1979.08	0.0862255
1980.56	0.251579
1982.03	0.382561
1983.51	0.0714369
1984.99	-0.0188751
1986.46	-0.0753489
1987.94	0.0885592
1989.41	0.167817
1990.89	-0.17551
1992.36	-0.382298
1993.84	0.105085
1995.31	0.491404
1996.78	0.100755
1998.26	0.250757
1999.73	0.163918
2001.2	0.0259857
2002.68	0.208202
2004.15	0.120381
2005.62	0.150893
2007.09	0.182034
2008.56	0.416069
2010.04	-0.342504
2011.51	-0.174551
2012.98	-0.12441
2014.45	0.295581
2015.92	0.024909
2017.39	0.476784
2018.86	0.187861
2020.33	0.251559
2021.8	-0.138364
2023.27	-0.309405
2024.74	0.191504
2026.2	0.173145
2027.67	0.072216
2029.14	0.0397072
2030.61	0.109026
2032.07	-0.273851
2033.54	0.451403
2035.01	-0.0151615
2036.47	0.172781
2037.94	0.209131
2039.41	0.463626
2040.87	-0.05509
2042.34	-0.0861025
2043.8	0.72451
2045.27	0.173601
2046.73	0.228944
2048.2	0.318317
2049.66	0.0198622
2051.12	0.0068922
2052.59	0.228667
2054.05	-0.428109
2055.51	0.0435352
2056.98	-0.0593977
2058.44	-0.213512
2059.9	0.440852
2061.36	0.270041
2062.82	0.0495729
2064.29	0.435969
2065.75	0.0995636
2067.21	0.251971
2068.67	0.337609
2070.13	-0.0309372
2071.59	-0.214334
2073.05	0.595516
2074.51	-0.0260267
2075.97	0.446652
2077.43	-0.040864
2078.88	-0.0235214
2080.34	0.279679
2081.8	0.599155
2083.26	-0.0920625
2084.72	0.108304
2086.17	0.593855
2087.63	0.271359
2089.09	-0.185662
2090.54	0.331838
2092	0.6137
2093.46	0.391796
2094.91	0.00220108
2096.37	0.165716
2097.82	0.127446
2099.28	-0.0954123
2100.73	-0.0171957
2102.19	-0.106013
2103.64	0.139969
2105.09	0.0362968
2106.55	0.367691
2108	0.0160017
2109.46	0.081665
2110.91	-0.0698709
2112.36	-0.255737
2113.81	0.10671
2115.27	0.517165
2116.72	-0.38723
2118.17	0.254951
2119.62	0.083972
2121.07	-0.0519609
2122.52	0.311411
2123.97	0.228196
2125.42	-0.136298
2126.87	0.0627699
2128.32	-0.0374393
2129.77	0.374928
2131.22	0.00737095
2132.67	0.516809
2134.12	0.165392
2135.57	0.509479
2137.01	0.0777321
2138.46	0.143559
2139.91	-0.0203781
2141.36	0.0484495
2142.8	0.21754
2144.25	0.436957
2145.7	0.623591
2147.14	0.0816135
2148.59	0.234336
2150.03	0.6349
2151.48	0.0406055
2152.92	-0.0741043
2154.37	0.340703
2155.81	0.639077
2157.26	0.125764
2158.7	0.126611
2160.15	0.078866
2161.59	-0.315449
2163.03	0.219839
2164.48	0.42523
2165.92	0.116979
2167.36	0.140497
2168.8	0.262931
2170.25	-0.214739
2171.69	0.137372
2173.13	0.454668
2174.57	-0.0276761
2176.01	0.188122
2177.45	0.370747
2178.89	-0.127681
2180.33	0.339015
2181.77	-0.0913534
2183.21	0.226993
2184.65	0.37936
2186.09	0.432034
2187.53	0.0854158
2188.97	0.0382643
2190.41	0.107598
2191.84	-0.106277
2193.28	0.178698
2194.72	-0.153439
2196.16	-0.203968
2197.59	-0.0397692
2199.03	0.00645018
2200.47	0.0185018
2201.9	0.130017
2203.34	0.324871
2204.78	0.0395627
2206.21	-0.128561
2207.65	0.0021019
2209.08	0.149076
2210.51	0.295259
2211.95	-0.0723515
2213.38	0.0723047
2214.82	0.530467
2216.25	-0.00185537
2217.68	0.473755
2219.12	0.323366
2220.55	0.289248
2221.98	0.205831
2223.42	0.517272
2224.85	0.168549
2226.28	0.295969
2227.71	-0.120796
2229.14	-0.061564
2230.57	0.0789137
2232	0.333577
2233.43	0.0805039
2234.86	-0.056941
2236.29	-0.046093
2237.72	0.0150418
2239.15	0.224563
2240.58	0.0604982
2242.01	0.631995
2243.44	0.389081
2244.87	-0.4081
2246.3	0.196918
2247.73	-0.161725
2249.15	0.0649118
2250.58	0.0450344
2252.01	-0.139101
2253.43	0.0991864
2254.86	0.0610814
2256.29	-0.00820589
2257.71	0.443849
2259.14	0.379011
2260.56	-0.0726118
2261.99	0.0294871
2263.41	0.0356164
2264.84	0.2858
2266.26	0.422155
2267.69	0.167503
2269.11	0.269856
2270.54	0.17623
2271.96	-0.0481563
2273.38	0.00407267
2274.81	0.333322
2276.23	0.0437427
2277.65	-0.0013485
2279.07	0.165526
2280.49	0.0552244
2281.92	-0.0878592
2283.34	0.0788937
2284.76	0.311042
2286.18	-0.305295
2287.6	0.694785
2289.02	-0.362107
2290.44	-0.161264
2291.86	0.334233
2293.28	0.143397
2294.7	0.0832667
2296.12	0.121224
2297.54	0.421175
2298.96	-0.0321651
2300.38	0.23541
2301.79	-0.00484324
2303.21	0.23069
2304.63	0.368123
2306.05	0.341406
2307.46	0.215773
2308.88	0.401872
2310.3	0.0284901
2311.71	-0.082304
2313.13	0.0207028
2314.55	0.453314
2315.96	-0.23281
2317.38	0.349666
2318.79	0.323254
2320.21	-0.0827389
2321.62	0.252471
2323.03	-0.0739279
2324.45	0.142242
2325.86	0.0263968
2327.27	0.634746
2328.69	0.895631
2330.1	0.514011
2331.51	0.166514
2332.93	0.00131893
2334.34	-0.0313997
2335.75	-0.310641
2337.16	0.0677371
2338.57	0.0340304
2339.99	-0.427868
2341.4	-0.282421
2342.81	-0.104771
2344.22	-0.222586
2345.63	0.233604
2347.04	0.050693
2348.45	0.440958
2349.86	0.012464
2351.26	0.139673
2352.67	-0.126167
2354.08	-0.0986304
2355.49	-0.022841
2356.9	-0.126605
2358.31	0.0625811
2359.71	0.00775623
2361.12	0.131669
2362.53	0.222889
2363.94	-0.026298
2365.34	-0.0161462
2366.75	-0.377561
2368.15	0.247124
2369.56	0.242445
2370.97	0.0938811
2372.37	0.172229
2373.78	-0.00625324
2375.18	0.121596
2376.59	-0.265836
2377.99	0.18239
2379.39	0.371568
2380.8	0.0612855
2382.2	0.327641
2383.61	0.0480309
2385.01	0.280757
2386.41	0.137814
2387.81	-0.0838108
2389.22	0.357727
2390.62	0.0508599
2392.02	-0.0793934
2393.42	-0.256354
2394.82	-0.209769
2396.22	-0.0831332
2397.63	0.218784
2399.02	-0.448184
2400.43	0.283522
2401.82	0.173429
2403.23	0.190465
2404.62	0.143659
2406.02	0.0802488
2407.42	-0.0156651
2408.82	0.347744
2410.22	0.3142
2411.62	0.02739
2413.02	0.232481
2414.41	0.32774
2415.81	-0.145615
2417.21	-0.016212
2418.61	-0.139326
2420	0.371321
2421.4	0.327662
2422.79	0.109399
2424.19	0.286948
2425.59	0.0525832
2426.98	0.103874
2428.38	0.0766826
2429.77	0.0185809
2431.17	0.214911
2432.56	-0.30279
2433.96	0.592071
2435.35	0.088541
2436.74	0.123717
2438.14	-0.080771
2439.53	-0.0321631
2440.92	0.444387
2442.32	0.0311613
2443.71	-0.159852
2445.1	0.362898
2446.49	-0.256458
2447.88	0.709352
2449.28	-0.0681424
2450.67	0.0894079
2452.06	0.120676
2453.45	0.231721
2454.84	0.359302
2456.23	0.455843
2457.62	0.220494
2459.01	0.301377
2460.4	0.239401
2461.79	0.350648
2463.18	0.00275469
2464.57	0.0495834
2465.96	0.238236
2467.34	-0.0311384
2468.73	0.362367
2470.12	0.297975
2471.51	0.233241
2472.89	0.167972
2474.28	0.212302
2475.67	-0.310296
2477.05	-0.046515
2478.44	-0.0815988
2479.83	0.18166
2481.21	-0.135498
2482.6	-0.0448594
2483.98	0.436594
2485.37	-0.0689111
2486.75	0.206777
2488.14	0.059546
2489.52	0.270463
2490.9	-0.0640483
2492.29	0.0224338
2493.67	0.0319953
2495.06	-0.112425
2496.44	0.131985
2497.82	0.144448
2499.2	-0.090517
2500.59	0.262326
2501.97	0.428478
2503.35	0.0993495
2504.73	-0.0448327
2506.11	0.103503
2507.49	-0.271996
2508.88	-0.000862598
2510.26	0.331477
2511.63	0.111397
2513.01	0.275625
2514.39	-0.233581
2515.77	0.115835
2517.15	0.0830626
2518.53	-0.209101
2519.91	-0.286879
2521.29	0.169755
2522.67	0.0452824
2524.05	0.22529
2525.42	0.236744
2526.8	0.141342
2528.18	-0.181793
2529.56	0.0590625
2530.93	0.27062
2532.31	0.0580816
2533.69	-0.183571
2535.06	0.319859
2536.44	0.0788164
2537.81	-0.0564337
2539.19	-0.207643
2540.56	0.369298
2541.94	-0.0258303
2543.31	0.0802283
2544.69	-0.161929
2546.06	-0.0692854
2547.44	0.176093
2548.81	0.346423
2550.18	-0.211465
2551.56	0.15582
2552.93	0.203651
2554.3	-0.0225835
2555.68	0.0235634
2557.05	-0.112809
2558.42	0.0237174
2559.79	-0.112476
2561.16	0.282316
2562.53	-0.0953293
2563.9	0.0731263
2565.28	0.226801
2566.64	0.289773
2568.02	-0.0715113
2569.38	0.234037
2570.76	0.372893
2572.12	0.299589
2573.49	0.529526
2574.86	-0.11969
2576.23	0.155846
2577.6	0.143272
2578.97	0.00920296
2580.34	0.208409
2581.7	-0.214418
2583.07	0.166043
2584.44	-0.317887
2585.81	0.335099
2587.17	-0.057754
2588.54	-0.298825
2589.91	-0.160905
2591.27	-0.250411
2592.64	-0.14331
2594	0.508419
2595.37	-0.143475
2596.73	0.233544
2598.1	0.216146
2599.46	-0.209785
2600.83	0.150589
2602.19	-0.0326781
2603.55	0.0867152
2604.92	0.131052
2606.28	-0.277002
2607.64	0.536354
2609.01	0.0520897
2610.37	0.19992
2611.73	0.0303183
2613.09	-0.064826
2614.46	-0.175482
2615.82	-0.0910625
2617.18	-0.276453
2618.54	-0.101554
2619.9	0.387928
2621.26	0.144628
2622.62	0.0515642
2623.98	-0.100897
2625.34	0.0452414
2626.7	0.176056
2628.06	-0.0661402
2629.42	-0.0104408
2630.78	-0.163302
2632.14	0.308359
2633.5	0.125631
2634.86	0.195493
2636.22	-0.0907106
2637.57	-0.00601196
2638.93	0.0489798
2640.29	0.311144
2641.64	0.218329
2643	0.214536
2644.36	-0.0105438
2645.72	0.04492
2647.07	0.0852199
2648.43	0.242691
2649.78	-0.145325
2651.14	0.422392
2652.49	0.313112
2653.85	0.0868759
2655.2	0.609255
2656.56	0.326231
2657.91	0.176379
2659.27	0.0128717
2660.62	-0.223219
2661.97	-0.0207639
2663.33	0.0349088
2664.68	0.133601
2666.03	0.362753
2667.38	0.183053
2668.74	0.207424
2670.09	-0.073566
2671.44	0.0825009
2672.79	0.413266
2674.14	0.134275
2675.49	0.00123405
2676.84	0.231517
2678.2	0.31717
2679.55	0.302018
2680.89	0.476275
2682.24	0.0716696
2683.59	0.175548
2684.94	0.062747
2686.29	0.0228338
2687.64	0.0698576
2688.99	0.24655
2690.34	0.305652
2691.69	0.116371
2693.04	0.114484
2694.38	0.430753
2695.73	0.0798531
2697.08	0.0630016
2698.43	0.1776
2699.77	0.438413
2701.12	-0.0377231
2702.46	0.457735
2703.81	0.143009
2705.16	0.495349
2706.5	0.267907
2707.85	0.127088
2709.19	0.247094
2710.54	0.294249
2711.88	-0.109131
2713.23	0.111947
2714.57	0.667429
2715.92	0.118149
2717.26	0.426527
2718.6	0.138386
2719.95	0.388175
2721.29	-0.119121
2722.63	0.362773
2723.97	0.232982
2725.32	0.510357
2726.66	0.379834
2728	0.249044
2729.34	0.249034
2730.68	0.408951
2732.02	0.117792
2733.36	0.495934
2734.7	0.423244
2736.04	0.0598593
2737.39	0.118408
2738.72	0.11876
2740.06	-0.0846829
2741.4	-0.0412984
2742.74	0.306805
2744.08	-0.174256
2745.42	-0.0308371
2746.76	-0.192851
2748.1	0.0515437
2749.44	0.0926337
2750.77	-0.185206
2752.11	-0.114672
2753.45	-0.145439
2754.78	-0.0456452
2756.12	0.199039
2757.46	0.313407
2758.79	0.341088
2760.13	0.224373
2761.47	0.513318
2762.8	0.137027
2764.14	0.0938578
2765.47	0.340057
2766.81	0.426686
2768.14	0.17979
2769.48	0.20663
2770.81	0.159915
2772.14	-0.234523
2773.48	0.16438
2774.81	0.417959
2776.14	-0.17877
2777.48	0.0749373
2778.81	-0.232128
2780.14	0.208957
2781.47	0.50612
2782.81	0.142822
2784.14	0.052444
2785.47	0.205818
2786.8	0.215927
2788.13	0.0546942
2789.46	0.237693
2790.79	-0.165055
2792.12	0.0908418
2793.46	-0.239077
2794.79	0.0457468
2796.11	0.172985
2797.44	0.113988
2798.77	0.140217
2800.1	0.237413
2801.43	0.448405
2802.76	0.00315094
2804.09	0.185159
2805.42	0.380833
2806.74	0.191427
2808.07	0.0728436
2809.4	0.508332
2810.73	0.176326
2812.05	-0.296574
2813.38	0.196508
2814.71	-0.103541
2816.03	0.2215
2817.36	0.278153
2818.68	0.236124
2820.01	0.435069
2821.33	0.208426
2822.66	0.61894
2823.98	-0.133035
2825.31	0.446506
2826.63	0.79923
2827.96	0.699226
2829.28	0.27418
2830.61	0.500804
2831.93	0.685149
2833.25	0.501411
2834.57	0.713728
2835.9	0.769892
2837.22	1.41982
2838.54	1.44662
2839.86	1.50149
2841.18	1.85335
2842.51	1.79556
2843.83	2.09177
2845.15	1.87992
2846.47	2.78519
2847.79	2.72985
2849.11	2.42015
2850.43	2.49175
2851.75	2.28019
2853.07	2.12468
2854.39	1.85578
2855.71	2.43451
2857.03	1.99596
2858.35	2.23557
2859.67	2.13617
2860.98	1.95194
2862.3	2.16277
2863.62	2.55665
2864.94	2.69611
2866.25	2.01731
2867.57	2.56605
2868.89	2.79069
2870.21	2.87469
2871.52	2.70512
2872.84	3.15547
2874.15	3.08359
2875.47	3.63049
2876.78	4.17584
2878.1	4.25544
2879.42	4.1659
2880.73	4.14707
2882.04	4.11509
2883.36	4.26685
2884.67	4.32128
2885.99	4.41846
2887.3	4.51571
2888.61	4.10732
2889.93	4.56806
2891.24	3.83572
2892.55	4.51895
2893.87	4.01064
2895.18	4.41335
2896.49	4.32669
2897.8	4.43712
2899.11	3.97497
2900.42	4.49305
2901.74	4.2142
2903.05	4.31329
2904.36	3.99292
2905.67	3.77077
2906.98	4.29051
2908.29	3.97181
2909.6	4.15755
2910.91	3.54624
2912.22	3.60658
2913.53	3.83428
2914.83	4.34077
2916.14	3.59971
2917.45	4.07514
2918.76	4.0877
2920.07	3.93228
2921.37	3.9314
2922.68	3.97357
2923.99	4.08691
2925.3	3.96366
2926.6	4.38617
2927.91	4.38942
2929.22	4.56011
2930.52	4.77226
2931.83	4.55063
2933.13	4.37076
2934.44	4.61023
2935.74	4.64016
2937.05	5.10348
2938.35	4.77044
2939.66	4.00454
2940.96	4.30113
2942.27	5.14354
2943.57	4.53378
2944.87	4.44232
2946.18	4.51975
2947.48	3.94027
2948.78	3.90602
2950.09	3.94078
2951.39	3.88996
2952.69	3.45939
2953.99	3.51771
2955.29	3.49171
2956.6	3.41052
2957.9	3.40115
2959.2	3.25418
2960.5	3.05353
2961.8	3.261
2963.1	3.25908
2964.4	2.97592
2965.7	3.04241
2967	2.91079
2968.3	2.84823
2969.6	2.74282
2970.9	2.49663
2972.2	2.22248
2973.49	2.79287
2974.79	2.27973
2976.09	1.97704
2977.39	2.25058
2978.69	2.04399
2979.98	2.4554
2981.28	1.95079
2982.58	1.86809
2983.88	2.13726
2985.17	2.09803
2986.47	2.21477
2987.76	1.72864
2989.06	1.77741
2990.36	1.75621
2991.65	1.84708
2992.95	1.79654
2994.24	1.84327
2995.54	2.05754
2996.83	1.55497
2998.12	1.40352
2999.42	1.2665
3000.71	1.28434
3002	1.34479
3003.3	0.803096
3004.59	0.780184
3005.88	1.17724
3007.18	0.971591
3008.47	0.695508
3009.76	0.740631
3011.05	0.952778
3012.35	0.871093
3013.64	0.608226
3014.93	0.192841
3016.22	0.600578
3017.51	0.312389
3018.8	0.400729
3020.09	0.2805
3021.38	0.479796
3022.67	0.455956
3023.96	0.403641
3025.25	0.336977
3026.54	0.35342
3027.83	0.0935578
3029.12	0.166939
3030.41	0.296783
3031.69	0.0134864
3032.98	0.00747156
3034.27	0.333008
3035.56	0.244105
3036.85	0.319735
3038.13	0.297425
3039.42	0.342479
3040.71	0.399933
3041.99	0.223204
3043.28	0.197765
3044.57	0.00892973
3045.85	-0.0823402
3047.14	-0.171627
3048.42	-0.299818
3049.71	0.0242014
3050.99	-0.0190234
3052.28	0.170497
3053.56	0.22365
3054.85	-0.105617
3056.13	0.178284
3057.42	-0.084096
3058.7	0.0892406
3059.98	-0.0645132
3061.27	-0.149671
3062.55	-0.0298872
3063.83	0.0637808
3065.11	0.22671
3066.4	-0.207346
3067.68	0.447138
3068.96	-0.21686
3070.24	0.0845356
3071.52	0.181375
3072.8	0.0461679
3074.09	0.277194
3075.37	-0.144814
3076.65	0.0445867
3077.93	0.261344
3079.21	-0.403037
3080.49	-0.102692
3081.77	0.0361061
3083.05	0.135304
3084.32	0.262342
3085.61	0.416764
3086.88	0.204477
3088.16	0.290329
3089.44	0.172156
3090.72	0.148756
3092	0.166067
3093.27	0.0615449
3094.55	0.364254
3095.83	0.287557
3097.11	0.0213022
3098.38	-0.0143518
3099.66	0.546237
3100.94	0.280272
3102.21	0.366737
3103.49	0.453504
3104.76	0.148246
3106.04	0.344543
3107.31	0.636384
3108.59	0.820949
3109.86	0.573435
3111.14	0.313193
3112.41	0.337962
3113.69	0.837461
3114.96	0.700371
3116.23	0.603614
3117.51	0.479127
3118.78	0.435284
3120.05	0.499218
3121.33	0.684556
3122.6	0.679712
3123.87	0.674838
3125.14	0.57552
3126.42	0.828687
3127.69	0.662871
3128.96	1.05227
3130.23	0.8875
3131.5	1.23675
3132.77	1.19396
3134.04	0.880916
3135.31	1.22937
3136.58	0.713698
3137.85	1.10176
3139.12	1.23313
3140.39	1.02785
3141.66	1.11902
3142.93	1.21046
3144.2	1.03379
3145.47	0.844712
3146.74	1.5548
3148	1.05894
3149.27	1.68907
