200.388	-0.19065
202.204	-0.181061
204.019	-0.170207
205.832	0.401237
207.646	0.292027
209.459	1.20331
211.274	0.801235
213.087	-0.13553
214.899	0.77151
216.711	0.707313
218.524	0.231736
220.335	0.0722771
222.146	0.204419
223.956	0.530966
225.766	0.157197
227.576	0.243031
229.388	0.376936
231.197	0.993044
233.005	0.643466
234.813	-0.163412
236.621	-0.076395
238.429	-0.276424
240.236	-0.232793
242.045	0.416107
243.852	0.391666
245.658	-0.0428953
247.464	0.631465
249.269	-0.217672
251.074	0.354753
252.879	0.224278
254.683	0.14047
256.487	-0.474011
258.291	-0.267637
260.094	0.566717
261.897	-0.0665464
263.702	0.482532
265.504	0.334258
267.306	0.090064
269.108	0.0866718
270.909	0.154935
272.71	0.0293007
274.511	0.1917
276.311	-0.515261
278.111	-0.2837
279.91	0.499784
281.709	0.10093
283.508	0.254013
285.306	0.405431
287.105	-0.356249
288.9	0.849824
290.698	0.329678
292.495	-0.0205765
294.291	0.0379972
296.088	0.337198
297.884	-0.127398
299.679	-0.0893049
301.475	-0.69618
303.27	0.511252
305.064	0.165274
306.858	0.438897
308.652	0.259107
310.444	0.556634
312.237	-0.0498114
314.03	0.464986
315.822	0.481647
317.615	0.166883
319.406	-0.0987186
321.198	0.613921
322.987	0.612772
324.778	0.612215
326.568	0.468614
328.358	0.276893
330.148	0.0126247
331.935	0.942823
333.724	0.0297766
335.513	0.430334
337.301	0.230398
339.089	0.459032
340.875	1.16421
342.662	0.361978
344.449	0.420588
346.236	-0.0218821
348.02	0.706697
349.806	0.19415
351.592	-0.0316582
353.375	0.123935
355.16	0.326163
356.944	0.312337
358.728	-0.322394
360.51	0.18564
362.294	-0.188434
364.077	0.0793552
365.858	0.0133953
367.64	0.065486
369.422	0.0692158
371.202	0.545829
372.983	0.784087
374.764	0.643292
376.543	0.668143
378.324	0.646353
380.102	0.908291
381.881	0.559064
383.661	0.870373
385.438	1.13571
387.216	0.979233
388.993	1.12951
390.771	1.02252
392.548	0.000603676
394.324	0.670288
396.101	0.307103
397.875	0.437219
399.651	0.94302
401.425	0.50889
403.201	0.473434
404.974	0.0614443
406.749	-0.468587
408.524	0.174881
410.296	0.747328
412.07	-0.229326
413.841	0.108783
415.614	0.353688
417.385	0.599413
419.156	0.306129
420.928	-0.10428
422.698	0.423923
424.469	0.0594826
426.238	-0.14157
428.009	0.313883
429.777	0.299294
431.548	0.284675
433.315	0.669335
435.083	0.65537
436.852	-0.0392056
438.618	0.0400476
440.387	-0.280999
442.153	0.498657
443.919	0.196983
445.686	-0.574697
447.451	0.268677
449.218	-0.386551
450.982	-0.292908
452.746	0.61793
454.512	-0.268549
456.275	0.361343
458.038	-0.244217
459.803	0.244941
461.565	0.292188
463.327	-0.472574
465.091	0.113153
466.852	0.260058
468.613	0.618937
470.374	0.445269
472.136	0.41173
473.896	0.191177
475.655	-0.124477
477.415	0.652431
479.176	0.216165
480.934	0.0816803
482.692	0.599423
484.45	0.512741
486.21	0.707565
487.967	0.322081
489.724	0.381374
491.481	0.465169
493.237	0.806803
494.995	0.704974
496.75	1.58598
498.506	0.640795
500.26	0.490729
502.015	0.363208
503.771	1.38549
505.525	1.39731
507.279	1.05488
509.032	0.498769
510.785	0.293618
512.537	1.23984
514.289	1.31381
516.041	1.36272
517.793	1.41025
519.546	0.37526
521.297	1.76053
523.047	1.38253
524.797	0.981211
526.547	0.979076
528.297	0.953517
530.046	1.09191
531.795	0.480228
533.543	0.851563
535.291	0.846926
537.039	0.957672
538.787	0.973322
540.534	0.474594
542.281	1.16412
544.027	1.13033
545.773	0.399461
547.519	0.134683
549.264	0.00984097
551.01	0.232834
552.754	-0.0533924
554.499	0.493016
556.243	0.0690393
557.987	0.176665
559.73	0.169357
561.474	0.715078
563.216	-0.694676
564.959	-0.125055
566.701	0.0309105
568.441	0.14153
570.182	-0.160027
571.923	0.251097
573.664	0.227817
575.405	-0.000199318
577.145	0.324035
578.885	-0.245475
580.624	-0.0338812
582.361	-0.373463
584.1	0.205723
585.839	0.209435
587.577	0.0278711
589.315	0.0521021
591.052	-0.0166359
592.787	-0.292993
594.524	0.534815
596.26	0.120244
597.997	0.257799
599.732	0.441006
601.466	0.853393
603.201	0.229404
604.936	-0.0278225
606.67	0.518116
608.403	-0.338235
610.136	-0.000325203
611.87	0.429363
613.603	0.446688
615.334	-0.0395412
617.067	0.0704451
618.799	0.500496
620.529	0.0134706
622.26	0.738215
623.991	0.478081
625.72	-0.307162
627.451	-0.611044
629.181	0.753036
630.909	0.544342
632.638	0.771311
634.368	0.565831
636.095	0.405668
637.823	0.403612
639.551	0.444543
641.277	-0.566704
643.005	0.0620537
644.73	0.164767
646.457	0.517709
648.184	0.644553
649.908	0.0699759
651.634	0.544483
653.357	0.909411
655.083	-0.245832
656.806	0.170185
658.53	0.0865717
660.253	-0.0432177
661.977	0.00800037
663.7	-0.0799923
665.422	0.332594
667.145	0.537728
668.865	0.970812
670.588	0.329474
672.308	0.421919
674.027	0.974846
675.749	0.178572
677.468	0.506248
679.188	0.628086
680.907	0.47334
682.627	0.316582
684.345	-0.0266218
686.064	0.549042
687.781	1.19252
689.498	0.429919
691.216	0.426626
692.932	0.745192
694.65	1.01688
696.366	0.942059
698.081	1.07322
699.797	0.857802
701.512	0.779388
703.228	0.562166
704.942	0.413419
706.655	0.402057
708.371	0.596663
710.083	0.698917
711.796	1.00666
713.51	0.947539
715.222	1.36822
716.934	0.851945
718.645	0.906963
720.358	0.734105
722.068	1.22211
723.779	0.912976
725.49	0.990697
727.2	1.27242
728.909	1.14472
730.618	0.903423
732.329	0.820722
734.037	0.71535
735.745	0.768436
737.453	0.934649
739.16	1.214
740.869	1.51637
742.576	1.00859
744.282	1.38083
745.988	1.55161
747.694	1.38627
749.401	1.51478
751.107	1.26225
752.811	1.01103
754.516	1.36853
756.22	1.43516
757.924	1.39085
759.627	0.987505
761.332	1.73458
763.035	1.96439
764.738	1.78787
766.44	2.40075
768.142	2.22114
769.843	2.21992
771.544	2.64611
773.245	2.50535
774.946	2.65797
776.646	3.03721
778.346	2.62649
780.046	2.53399
781.745	2.60107
783.444	2.21579
785.143	1.96498
786.841	2.82091
788.539	2.60946
790.237	2.5981
791.934	2.38028
793.631	1.75455
795.328	2.25758
797.024	2.03935
798.72	1.37276
800.416	1.76674
802.112	1.48685
803.807	1.74766
805.502	1.96318
807.196	1.30136
808.89	2.05385
810.584	1.56986
812.278	1.44439
813.971	1.29612
815.664	2.06569
817.354	1.71551
819.047	1.58946
820.739	2.7143
822.43	2.05267
824.122	1.99486
825.813	1.84943
827.503	1.57266
829.192	1.47695
830.882	1.56244
832.571	1.65083
834.261	1.96438
835.95	1.34262
837.637	2.2822
839.325	2.01586
841.013	1.41259
842.701	2.43856
844.389	1.8778
846.074	1.27273
847.761	1.80933
849.447	1.09603
851.131	1.12307
852.817	1.21932
854.503	1.51867
856.188	1.07732
857.871	1.71321
859.556	1.15596
861.24	1.31664
862.922	1.63354
864.606	1.00287
866.289	2.03904
867.97	1.33882
869.653	0.998672
871.336	1.60548
873.016	1.19704
874.698	1.10429
876.379	0.808408
878.058	0.896156
879.739	1.45786
881.418	1.20663
883.098	1.81254
884.778	0.47593
886.456	1.71131
888.135	0.958944
889.812	1.53616
891.49	1.41253
893.167	1.08504
894.845	1.04939
896.523	1.21505
898.198	0.86287
899.875	0.891853
901.55	1.07683
903.226	1.28314
904.901	1.57812
906.576	0.667219
908.25	1.11911
909.925	1.12542
911.598	1.68879
913.271	0.82936
914.945	0.882302
916.617	1.04614
918.291	1.05445
919.962	0.730729
921.635	1.16026
923.306	0.794415
924.978	1.13754
926.648	1.37174
928.318	1.01153
929.989	0.939649
931.659	0.824384
933.328	1.04034
934.998	0.903498
936.666	0.612711
938.336	1.40344
940.004	1.04852
941.671	0.893276
943.34	0.804914
945.007	0.495704
946.673	0.604756
948.339	0.645875
950.007	0.883759
951.672	0.590787
953.337	0.871426
955.004	0.800568
956.669	1.21752
958.333	1.26291
959.997	0.825647
961.662	0.566117
963.326	0.659842
964.989	0.840591
966.651	0.886165
968.315	0.995355
969.977	0.814786
971.639	1.29692
973.301	1.24851
974.962	1.31214
976.624	1.15646
978.285	0.84745
979.945	0.693874
981.605	0.539881
983.264	0.628085
984.924	1.48924
986.583	1.17498
988.243	0.881171
989.901	0.696916
991.56	0.202783
993.217	0.172879
994.875	0.165168
996.532	0.995937
998.188	0.965819
999.845	0.979588
1001.5	1.10306
1003.16	1.13791
1004.81	0.336696
1006.47	0.833066
1008.12	0.735918
1009.78	1.42922
1011.43	1.00362
1013.09	0.842029
1014.74	0.374386
1016.39	0.279819
1018.05	0.798503
1019.7	1.12066
1021.35	1.24686
1023	0.871405
1024.65	1.54611
1026.31	2.59277
1027.96	2.32828
1029.61	2.52194
1031.26	3.2383
1032.91	1.98746
1034.56	1.49966
1036.21	1.9485
1037.86	1.67682
1039.51	1.81902
1041.16	1.76593
1042.8	1.10567
1044.45	1.33874
1046.1	1.55196
1047.75	1.22418
1049.39	1.18052
1051.04	1.00787
1052.69	1.24879
1054.33	0.990441
1055.98	0.688534
1057.62	0.407969
1059.27	0.539948
1060.91	1.25844
1062.56	0.736756
1064.2	1.04043
1065.85	0.690784
1067.49	0.687943
1069.13	0.857939
1070.77	0.571073
1072.42	0.826976
1074.06	0.62747
1075.7	0.429117
1077.34	1.70686
1078.98	1.44599
1080.62	1.0559
1082.27	1.48985
1083.91	0.925485
1085.55	1.55192
1087.18	1.07072
1088.82	1.2808
1090.46	1.18581
1092.1	1.17618
1093.74	1.1228
1095.38	1.09128
1097.02	1.57799
1098.65	1.39761
1100.29	0.831847
1101.93	0.849603
1103.56	0.912203
1105.2	0.997669
1106.84	0.352491
1108.47	1.19106
1110.11	1.44773
1111.74	1.14378
1113.38	-0.0638218
1115.01	0.617957
1116.64	-0.203506
1118.28	0.262539
1119.91	0.235842
1121.54	0.702634
1123.18	0.399529
1124.81	0.504169
1126.44	0.802113
1128.07	0.651638
1129.7	0.822662
1131.33	0.331491
1132.97	0.482044
1134.6	-0.243929
1136.23	0.162458
1137.86	0.118996
1139.49	0.458889
1141.11	0.712105
1142.74	0.601778
1144.37	0.875573
1146	-0.299872
1147.63	0.380574
1149.26	0.145334
1150.88	0.0811176
1152.51	0.251211
1154.14	0.569928
1155.76	0.611386
1157.39	0.376093
1159.01	0.2689
1160.64	-0.0288057
1162.27	-0.240303
1163.89	0.250813
1165.51	0.0195417
1167.14	-0.148144
1168.76	-0.338019
1170.39	0.108284
1172.01	0.106287
1173.63	0.399825
1175.25	-0.262994
1176.88	0.113451
1178.5	0.574205
1180.12	0.294091
1181.74	0.14215
1183.36	0.117916
1184.98	0.0515327
1186.6	0.0688534
1188.22	0.358913
1189.84	-0.51277
1191.46	-0.0158138
1193.08	0.1841
1194.7	0.21468
1196.32	0.140335
1197.94	0.569581
1199.55	0.623011
1201.17	0.490633
1202.79	0.569918
1204.41	0.317797
1206.02	0.276627
1207.64	-0.0344028
1209.25	-0.0321455
1210.87	0.0945444
1212.48	0.386393
1214.1	0.446626
1215.71	0.108959
1217.33	0.290195
1218.94	0.968792
1220.56	0.379503
1222.17	0.372745
1223.79	0.284314
1225.4	1.04641
1227.01	0.898561
1228.62	0.710944
1230.23	0.834892
1231.85	1.10468
1233.46	0.610884
1235.07	0.387078
1236.68	0.784511
1238.29	0.790294
1239.9	1.16898
1241.51	0.886206
1243.12	0.913312
1244.73	0.670688
1246.34	1.19267
1247.94	1.29978
1249.55	1.1371
1251.16	1.24306
1252.77	1.57673
1254.37	0.608015
1255.98	0.94348
1257.59	0.307927
1259.2	0.873403
1260.8	1.64711
1262.41	0.951654
1264.01	1.18792
1265.62	1.56903
1267.22	1.12049
1268.83	1.29276
1270.43	1.60916
1272.03	1.57201
1273.64	1.03621
1275.24	1.37014
1276.85	1.51645
1278.45	1.12323
1280.05	1.62005
1281.65	0.97777
1283.25	0.853347
1284.85	1.43265
1286.46	1.53698
1288.06	2.20038
1289.66	1.54196
1291.26	1.33886
1292.86	1.30104
1294.46	1.46908
1296.06	2.23467
1297.66	1.40842
1299.25	1.50971
1300.85	1.50621
1302.45	1.11004
1304.05	1.08404
1305.65	2.27037
1307.24	1.95444
1308.84	2.04916
1310.43	1.46739
1312.03	1.1124
1313.63	1.18837
1315.22	1.63301
1316.82	1.36328
1318.41	1.29859
1320.01	1.21353
1321.6	1.29069
1323.2	0.857449
1324.79	1.31782
1326.38	1.77564
1327.98	0.873291
1329.57	1.26964
1331.16	0.958722
1332.76	1.43863
1334.35	0.809542
1335.94	1.17167
1337.53	1.0903
1339.12	1.33094
1340.71	1.06607
1342.3	0.859932
1343.89	0.933688
1345.48	1.12662
1347.07	1.4795
1348.66	1.03206
1350.25	1.42847
1351.84	1.08688
1353.43	1.0876
1355.01	1.04969
1356.6	0.732455
1358.19	0.874468
1359.77	0.556193
1361.36	0.676278
1362.95	0.416399
1364.53	0.515322
1366.12	0.893272
1367.71	0.196204
1369.29	0.934126
1370.88	0.319672
1372.46	0.363404
1374.04	0.885728
1375.63	0.553108
1377.21	0.419575
1378.8	0.623877
1380.38	0.8471
1381.96	0.432423
1383.54	0.195718
1385.13	0.614211
1386.71	0.654367
1388.29	0.416599
1389.87	0.219346
1391.45	0.499297
1393.03	0.00616646
1394.61	-0.0896854
1396.19	0.548029
1397.77	0.490945
1399.35	0.413143
1400.93	0.453336
1402.51	-0.199902
1404.09	0.611521
1405.67	0.414101
1407.24	0.415318
1408.82	0.298789
1410.4	0.834666
1411.98	0.639578
1413.55	0.621728
1415.13	0.85953
1416.71	0.425756
1418.28	0.563639
1419.86	1.33202
1421.43	0.466386
1423.01	0.724877
1424.58	1.02421
1426.16	1.1673
1427.73	0.582723
1429.31	0.726151
1430.88	0.829362
1432.45	1.08886
1434.02	1.60303
1435.6	0.818382
1437.17	1.50896
1438.74	1.55123
1440.31	1.47658
1441.88	1.46187
1443.45	2.25367
1445.03	1.74877
1446.6	1.9516
1448.17	1.89906
1449.74	1.43394
1451.3	1.42139
1452.87	1.9207
1454.44	1.71247
1456.01	1.6025
1457.58	1.66898
1459.15	1.20283
1460.72	1.36473
1462.28	1.24929
1463.85	1.76158
1465.42	1.05362
1466.98	1.13179
1468.55	0.837158
1470.12	0.877259
1471.68	1.01649
1473.25	0.47022
1474.81	0.728902
1476.38	1.10555
1477.94	0.835272
1479.51	0.702203
1481.07	0.921862
1482.63	0.710243
1484.2	1.00799
1485.76	0.835146
1487.32	0.916256
1488.88	1.66168
1490.45	0.50653
1492.01	0.797676
1493.57	0.988526
1495.13	0.552848
1496.69	-0.0192356
1498.25	0.849917
1499.81	0.687282
1501.37	1.06963
1502.93	0.308106
1504.49	0.0526819
1506.05	0.765886
1507.61	0.297479
1509.17	0.466595
1510.73	0.190418
1512.28	0.203176
1513.84	0.196272
1515.4	0.76619
1516.96	0.260111
1518.51	0.197007
1520.07	0.517723
1521.63	0.302175
1523.18	0.373524
1524.74	0.443982
1526.29	-0.287522
1527.85	0.276914
1529.4	-0.149519
1530.96	-0.00516415
1532.51	0.992507
1534.06	0.359767
1535.62	0.0700226
1537.17	0.518681
1538.72	-0.203219
1540.28	0.415507
1541.83	0.0911951
1543.38	0.125003
1544.93	0.647412
1546.48	0.0228128
1548.03	0.187391
1549.59	0.782702
1551.14	0.72158
1552.69	0.268196
1554.24	0.657558
1555.79	0.730071
1557.34	0.860142
1558.88	0.0776682
1560.43	0.21144
1561.98	0.757032
1563.53	0.669415
1565.08	0.526353
1566.62	0.887211
1568.17	0.800014
1569.72	0.731101
1571.27	0.624467
1572.81	0.573545
1574.36	0.951824
1575.9	1.16211
1577.45	0.420506
1579	0.967391
1580.54	0.749396
1582.09	0.756152
1583.63	0.520824
1585.17	0.678466
1586.72	0.612334
1588.26	0.845542
1589.8	1.11618
1591.35	0.974797
1592.89	0.608152
1594.43	1.04639
1595.97	1.2226
1597.52	0.649611
1599.06	1.63301
1600.6	1.04225
1602.14	1.38975
1603.68	1.00527
1605.22	1.05189
1606.76	1.2664
1608.3	1.12203
1609.84	1.72723
1611.38	1.16494
1612.92	1.16456
1614.46	1.06905
1615.99	0.99195
1617.53	0.971576
1619.07	0.933549
1620.61	0.578561
1622.14	1.08633
1623.68	1.12668
1625.22	0.77397
1626.75	0.813722
1628.29	1.07677
1629.82	1.26348
1631.36	1.24336
1632.9	0.830596
1634.43	0.978579
1635.96	1.51894
1637.5	1.05261
1639.03	1.33297
1640.57	1.12863
1642.1	1.44551
1643.63	1.35138
1645.16	2.07497
1646.7	2.08999
1648.23	1.78873
1649.76	2.13815
1651.29	1.83859
1652.82	1.63334
1654.36	2.41205
1655.89	2.35685
1657.42	2.11634
1658.95	1.70853
1660.48	1.98476
1662.01	1.66718
1663.53	1.95889
1665.06	2.02788
1666.59	1.96788
1668.12	1.79838
1669.65	2.16511
1671.18	1.53808
1672.7	1.66779
1674.23	1.55851
1675.76	1.65161
1677.29	1.72546
1678.81	1.35665
1680.34	0.895242
1681.86	1.60961
1683.39	1.14749
1684.91	0.759417
1686.44	0.757261
1687.96	0.608878
1689.49	0.809074
1691.01	0.661403
1692.54	0.733556
1694.06	0.421448
1695.58	0.676239
1697.11	0.217903
1698.63	0.435444
1700.15	0.634076
1701.67	0.704286
1703.2	0.8103
1704.72	0.678876
1706.24	0.656381
1707.76	0.506383
1709.28	0.574506
1710.8	0.551832
1712.32	0.456809
1713.84	0.561388
1715.36	0.738259
1716.88	0.408297
1718.4	0.530578
1719.91	0.833156
1721.43	0.449727
1722.95	0.337846
1724.47	0.245031
1725.99	-0.0265923
1727.5	0.603222
1729.02	0.387759
1730.54	0.494595
1732.05	0.172014
1733.57	-0.00435638
1735.09	0.516552
1736.6	0.420767
1738.12	0.414247
1739.63	0.0887184
1741.15	1.19465
1742.66	1.51216
1744.18	0.766676
1745.69	0.130502
1747.2	0.0859365
1748.72	0.586032
1750.23	-0.254213
1751.74	-0.115486
1753.25	-0.154257
1754.77	-0.0725803
1756.28	0.0729351
1757.79	0.0625668
1759.3	-0.0567617
1760.81	-0.286827
1762.32	0.155146
1763.83	0.234665
1765.34	0.139987
1766.85	0.180728
1768.36	0.209421
1769.87	0.245637
1771.38	0.338619
1772.89	-0.035532
1774.4	0.100185
1775.91	0.0159397
1777.41	0.405182
1778.92	0.0657063
1780.43	0.0785246
1781.94	-0.084672
1783.44	-0.0866251
1784.95	-0.190389
1786.45	-0.0910931
1787.96	0.197742
1789.47	0.168457
1790.97	0.012392
1792.48	0.170467
1793.98	0.0252953
1795.48	0.209497
1796.99	-0.00587463
1798.49	-0.0661211
1800	0.215878
1801.5	0.0492935
1803	-0.116455
1804.51	0.00780487
1806.01	0.225536
1807.51	0.198389
1809.01	0.192543
1810.51	0.0541449
1812.02	0.213288
1813.52	0.164324
1815.02	0.379973
1816.52	0.0174503
1818.02	0.49881
1819.52	0.277718
1821.02	-0.00682354
1822.52	0.208549
1824.02	0.0848818
1825.51	-0.0277243
1827.01	-0.159999
1828.51	0.30399
1830.01	0.17592
1831.51	0.13075
1833	0.0317974
1834.5	0.287451
1836	0.245531
1837.5	0.38018
1838.99	0.0456705
1840.49	0.238533
1841.98	0.261765
1843.48	0.281873
1844.97	0.0382528
1846.47	-0.15367
1847.96	0.310853
1849.46	0.00176811
1850.95	-0.226924
1852.45	-0.13283
1853.94	0.103937
1855.43	-0.166095
1856.92	-0.0305929
1858.42	-0.149467
1859.91	0.14986
1861.4	-0.0814371
1862.89	-0.0222721
1864.39	0.0652552
1865.88	-0.092659
1867.37	0.189429
1868.86	0.365532
1870.35	0.169756
1871.84	0.353185
1873.33	0.0344105
1874.82	0.209989
1876.31	0.145929
1877.8	0.099267
1879.29	-0.145747
1880.77	0.0499792
1882.26	0.0784388
1882.51	0.0753736
1884	0.353308
1885.5	0.24695
1886.99	0.557906
1888.48	0.0498924
1889.98	0.151524
1891.47	0.166967
1892.97	-0.0595837
1894.46	-0.0584707
1895.95	0.291749
1897.44	0.451542
1898.93	0.106848
1900.42	0.317854
1901.92	0.266454
1903.41	0.196072
1904.9	0.176581
1906.39	-0.382217
1907.88	-0.00274944
1909.37	0.0644379
1910.86	-0.214634
1912.35	0.131717
1913.84	0.0968618
1915.32	0.37423
1916.81	-0.389025
1918.3	0.182213
1919.79	0.146272
1921.28	0.0929413
1922.76	0.0226803
1924.25	0.316779
1925.74	-0.37492
1927.22	-0.113542
1928.71	0.200387
1930.2	0.168037
1931.68	0.204238
1933.17	0.152564
1934.65	0.237812
1936.14	0.165763
1937.62	0.3002
1939.11	0.174852
1940.59	0.101724
1942.08	0.184749
1943.56	0.251378
1945.04	0.335984
1946.53	0.214015
1948.01	0.0746822
1949.49	0.572175
1950.97	-0.223041
1952.45	-0.0201492
1953.94	0.388311
1955.42	0.366544
1956.9	-0.0154696
1958.38	0.135617
1959.86	0.613131
1961.34	0.216225
1962.82	-0.0601921
1964.3	0.400175
1965.78	0.311675
1967.26	-0.119667
1968.74	0.543623
1970.22	0.231193
1971.69	0.0897627
1973.17	0.0338173
1974.65	0.148594
1976.13	0.51903
1977.61	-0.235039
1979.08	-0.239079
1980.56	0.28417
1982.03	0.500588
1983.51	0.172863
1984.99	-0.00192547
1986.46	0.0607748
1987.94	0.0386248
1989.41	0.304658
1990.89	-0.156765
1992.36	0.110458
1993.84	0.310668
1995.31	0.359366
1996.78	0.171923
1998.26	0.237894
1999.73	-0.169265
2001.2	-0.0366211
2002.68	0.146061
2004.15	0.328432
2005.62	0.0728264
2007.09	0.508668
2008.56	0.372578
2010.04	0.169999
2011.51	0.237296
2012.98	0.153143
2014.45	0.405211
2015.92	-0.151087
2017.39	0.166716
2018.86	0.0464525
2020.33	0.413075
2021.8	0.460111
2023.27	0.255619
2024.74	0.320469
2026.2	0.352795
2027.67	-0.016119
2029.14	0.287208
2030.61	0.424053
2032.07	0.226233
2033.54	0.09587
2035.01	0.0829592
2036.47	0.2041
2037.94	0.291227
2039.41	0.260388
2040.87	0.515258
2042.34	0.568816
2043.8	0.454902
2045.27	0.207108
2046.73	0.700539
2048.2	0.47045
2049.66	0.27353
2051.12	0.0755367
2052.59	0.365132
2054.05	0.130346
2055.51	0.231293
2056.98	0.58382
2058.44	0.463528
2059.9	0.68005
2061.36	0.374822
2062.82	0.154689
2064.29	0.777044
2065.75	0.104394
2067.21	0.257146
2068.67	0.696574
2070.13	0.362077
2071.59	0.498943
2073.05	0.68623
2074.51	0.519685
2075.97	0.538051
2077.43	0.690806
2078.88	0.758987
2080.34	0.793053
2081.8	0.675058
2083.26	0.421822
2084.72	0.824323
2086.17	0.788496
2087.63	0.651227
2089.09	0.765778
2090.54	0.376106
2092	0.473633
2093.46	0.78911
2094.91	0.902764
2096.37	0.965534
2097.82	0.943834
2099.28	0.888093
2100.73	0.715069
2102.19	1.49498
2103.64	1.27268
2105.09	0.901728
2106.55	0.816055
2108	0.848193
2109.46	1.36422
2110.91	1.02928
2112.36	0.893272
2113.81	1.35528
2115.27	1.48226
2116.72	1.60809
2118.17	1.21911
2119.62	1.26358
2121.07	1.65827
2122.52	1.27515
2123.97	1.67301
2125.42	1.64036
2126.87	1.47482
2128.32	1.45753
2129.77	1.88627
2131.22	2.03174
2132.67	1.74584
2134.12	1.59257
2135.57	1.93629
2137.01	2.28123
2138.46	2.19831
2139.91	2.54711
2141.36	2.28619
2142.8	2.10908
2144.25	2.29648
2145.7	2.63315
2147.14	2.42339
2148.59	2.41156
2150.03	2.76324
2151.48	2.76601
2152.92	2.51914
2154.37	2.3708
2155.81	3.03375
2157.26	3.01747
2158.7	2.9026
2160.15	2.77264
2161.59	2.42911
2163.03	3.28101
2164.48	3.48864
2165.92	3.26589
2167.36	3.25872
2168.8	2.91785
2170.25	3.19004
2171.69	3.22711
2173.13	3.69447
2174.57	3.17875
2176.01	3.46077
2177.45	2.51249
2178.89	2.82882
2180.33	3.0132
2181.77	3.31498
2183.21	3.20178
2184.65	2.87263
2186.09	3.12571
2187.53	2.72998
2188.97	2.99985
2190.41	2.42088
2191.84	2.34087
2193.28	2.84281
2194.72	2.61076
2196.16	2.75964
2197.59	2.67329
2199.03	2.61841
2200.47	2.31322
2201.9	2.35696
2203.34	2.41792
2204.78	2.23126
2206.21	2.27792
2207.65	1.8778
2209.08	1.9912
2210.51	2.1368
2211.95	1.83458
2213.38	2.24274
2214.82	2.006
2216.25	1.37405
2217.68	1.83279
2219.12	1.79764
2220.55	1.25235
2221.98	1.82823
2223.42	2.00762
2224.85	2.00427
2226.28	1.90042
2227.71	2.15668
2229.14	1.4421
2230.57	1.4993
2232	1.3595
2233.43	0.991138
2234.86	1.21291
2236.29	1.20669
2237.72	1.23465
2239.15	0.905457
2240.58	1.19826
2242.01	0.921853
2243.44	1.42954
2244.87	1.18733
2246.3	1.40119
2247.73	0.798049
2249.15	1.18767
2250.58	1.02083
2252.01	0.771164
2253.43	0.700039
2254.86	0.905506
2256.29	0.673633
2257.71	0.931005
2259.14	0.769081
2260.56	0.561206
2261.99	0.27428
2263.41	0.459476
2264.84	0.255157
2266.26	0.456812
2267.69	0.300066
2269.11	0.630603
2270.54	0.455992
2271.96	0.476222
2273.38	0.528873
2274.81	0.516462
2276.23	0.716052
2277.65	0.149908
2279.07	0.25192
2280.49	0.288712
2281.92	0.358036
2283.34	0.508893
2284.76	0.447721
2286.18	0.484649
2287.6	0.423963
2289.02	0.167626
2290.44	0.319954
2291.86	0.439969
2293.28	0.0368671
2294.7	0.206046
2296.12	0.342564
2297.54	0.5119
2298.96	0.484838
2300.38	0.310415
2301.79	0.496829
2303.21	0.191506
2304.63	0.329206
2306.05	-0.288477
2307.46	0.0952406
2308.88	0.117209
2310.3	0.188018
2311.71	0.110482
2313.13	-0.0164957
2314.55	0.432872
2315.96	-0.0718279
2317.38	-0.0326619
2318.79	0.336624
2320.21	0.524692
2321.62	0.200443
2323.03	0.154925
2324.45	0.272419
2325.86	0.437387
2327.27	0.848059
2328.69	0.894992
2330.1	0.777327
2331.51	0.59475
2332.93	0.166472
2334.34	-0.194989
2335.75	-0.358665
2337.16	-0.243029
2338.57	0.0854578
2339.99	0.429104
2341.4	0.0982223
2342.81	0.095531
2344.22	0.0764122
2345.63	0.1395
2347.04	0.235519
2348.45	-0.143252
2349.86	0.132482
2351.26	-0.0505357
2352.67	-0.60974
2354.08	0.299837
2355.49	0.0496969
2356.9	0.0277514
2358.31	-0.0104485
2359.71	-0.438401
2361.12	0.303218
2362.53	0.0542665
2363.94	-0.0808821
2365.34	0.366632
2366.75	-0.188635
2368.15	-0.241763
2369.56	-0.261682
2370.97	0.203109
2372.37	0.314042
2373.78	0.0231876
2375.18	0.00656557
2376.59	-0.010354
2377.99	-0.0603204
2379.39	0.306235
2380.8	-0.180089
2382.2	0.247377
2383.61	0.112513
2385.01	0.0417533
2386.41	0.171206
2387.81	0.301147
2389.22	0.105028
2390.62	-0.233038
2392.02	0.21048
2393.42	0.192898
2394.82	0.0170298
2396.22	-0.158082
2397.63	-0.0305705
2399.02	0.113251
2400.43	-0.0761662
2401.82	-0.106412
2403.23	0.276304
2404.62	0.134587
2406.02	0.00807428
2407.42	0.0553956
2408.82	0.213011
2410.22	0.148254
2411.62	0.416452
2413.02	0.115015
2414.41	-0.0584621
2415.81	0.180965
2417.21	-0.259216
2418.61	0.235486
2420	0.128867
2421.4	0.212203
2422.79	0.469522
2424.19	-0.0180278
2425.59	0.23913
2426.98	0.560204
2428.38	0.390757
2429.77	0.475798
2431.17	0.00619316
2432.56	0.218901
2433.96	0.14548
2435.35	0.150472
2436.74	0.61496
2438.14	0.236022
2439.53	0.459659
2440.92	0.428275
2442.32	-0.000439167
2443.71	0.189774
2445.1	-0.0327177
2446.49	0.125353
2447.88	0.457487
2449.28	0.028976
2450.67	0.234369
2452.06	0.0918531
2453.45	0.203265
2454.84	-0.0168562
2456.23	0.0958724
2457.62	-0.075861
2459.01	0.163536
2460.4	-0.0404172
2461.79	-0.355647
2463.18	0.276985
2464.57	-0.260499
2465.96	-0.418776
2467.34	0.149133
2468.73	0.0853553
2470.12	0.321109
2471.51	0.635041
2472.89	0.113077
2474.28	0.189328
2475.67	0.422201
2477.05	0.245714
2478.44	0.352144
2479.83	0.144704
2481.21	-0.203382
2482.6	0.342069
2483.98	0.30701
2485.37	0.2556
2486.75	0.359529
2488.14	-0.00588799
2489.52	0.158827
2490.9	-0.0505581
2492.29	0.393895
2493.67	0.0463481
2495.06	0.305651
2496.44	0.178108
2497.82	0.268351
2499.2	-0.0282507
2500.59	0.015564
2501.97	0.0122871
2503.35	0.162594
2504.73	-0.135497
2506.11	0.167431
2507.49	0.0077467
2508.88	-0.259098
2510.26	-0.033586
2511.63	-0.145526
2513.01	0.126601
2514.39	0.0160947
2515.77	0.273835
2517.15	0.394251
2518.53	0.0410676
2519.91	0.100986
2521.29	-0.205927
2522.67	-0.0856509
2524.05	0.155779
2525.42	-0.106709
2526.8	0.0421472
2528.18	0.236746
2529.56	0.31036
2530.93	0.0205045
2532.31	-0.0245962
2533.69	-0.022953
2535.06	0.0704532
2536.44	0.254981
2537.81	0.1199
2539.19	0.105541
2540.56	0.18157
2541.94	-0.0615015
2543.31	0.378572
2544.69	0.561271
2546.06	0.183815
2547.44	-0.101569
2548.81	0.0840001
2550.18	-0.139996
2551.56	-0.212695
2552.93	-0.043334
2554.3	0.322417
2555.68	0.292789
2557.05	-0.0103383
2558.42	0.171807
2559.79	-0.176505
2561.16	0.476094
2562.53	0.0530806
2563.9	-0.111753
2565.28	0.314782
2566.64	0.0292826
2568.02	0.516753
2569.38	0.261629
2570.76	0.233826
2572.12	0.0847845
2573.49	0.148016
2574.86	0.105206
2576.23	0.107902
2577.6	0.15601
2578.97	0.325236
2580.34	0.160567
2581.7	0.253311
2583.07	0.178933
2584.44	0.119518
2585.81	0.105535
2587.17	0.031023
2588.54	0.35072
2589.91	0.140057
2591.27	-0.0252285
2592.64	-0.0545082
2594	-0.402567
2595.37	0.0816255
2596.73	0.155867
2598.1	0.51677
2599.46	0.40822
2600.83	0.450974
2602.19	0.373305
2603.55	0.326488
2604.92	0.310378
2606.28	0.128521
2607.64	0.157623
2609.01	-0.190814
2610.37	-0.298863
2611.73	0.0436692
2613.09	0.144042
2614.46	-0.101953
2615.82	-0.0175467
2617.18	0.351687
2618.54	0.136645
2619.9	0.356589
2621.26	-0.08108
2622.62	-0.129188
2623.98	-0.356231
2625.34	0.252629
2626.7	0.0700998
2628.06	0.230265
2629.42	0.464366
2630.78	-0.507212
2632.14	0.217392
2633.5	0.227778
2634.86	0.0748553
2636.22	0.367048
2637.57	0.0512037
2638.93	0.239312
2640.29	-0.208921
2641.64	0.526422
2643	0.359776
2644.36	0.429713
2645.72	-0.0316162
2647.07	0.0675602
2648.43	0.136528
2649.78	0.234099
2651.14	0.110353
2652.49	0.177497
2653.85	0.376715
2655.2	0.0192056
2656.56	0.0586643
2657.91	0.377132
2659.27	0.286411
2660.62	0.13765
2661.97	-0.128005
2663.33	-0.0433302
2664.68	-0.00323343
2666.03	0.327859
2667.38	0.10421
2668.74	0.0264497
2670.09	0.138175
2671.44	0.0320802
2672.79	0.101015
2674.14	0.0251713
2675.49	0.283723
2676.84	0.266864
2678.2	0.250582
2679.55	0.336523
2680.89	-0.0551009
2682.24	0.0762434
2683.59	-0.124906
2684.94	0.240334
2686.29	0.0112982
2687.64	0.246447
2688.99	0.10324
2690.34	-0.12853
2691.69	-0.0279412
2693.04	-0.0737853
2694.38	0.111595
2695.73	0.238634
2697.08	0.380541
2698.43	0.291761
2699.77	0.00175762
2701.12	0.0462737
2702.46	-0.0527806
2703.81	0.109798
2705.16	0.0119991
2706.5	0.131719
2707.85	-0.0824327
2709.19	0.0658026
2710.54	0.388083
2711.88	-0.117682
2713.23	0.204374
2714.57	0.468426
2715.92	0.383608
2717.26	0.371327
2718.6	-0.106719
2719.95	-0.0178185
2721.29	0.332688
2722.63	0.289873
2723.97	0.479517
2725.32	-0.0590091
2726.66	0.12991
2728	0.0711083
2729.34	0.492326
2730.68	0.622298
2732.02	0.563062
2733.36	-0.12161
2734.7	0.110363
2736.04	0.342462
2737.39	0.123783
2738.72	0.370479
2740.06	0.195201
2741.4	0.310347
2742.74	-0.0984564
2744.08	0.219
2745.42	0.288729
2746.76	-0.13572
2748.1	-0.0374298
2749.44	-0.0697842
2750.77	0.0720816
2752.11	0.054564
2753.45	0.0952196
2754.78	0.35331
2756.12	-0.199746
2757.46	0.130904
2758.79	0.0562563
2760.13	0.155636
2761.47	0.183036
2762.8	-0.121972
2764.14	-0.0794277
2765.47	-0.0803075
2766.81	-0.00923395
2768.14	-0.0546765
2769.48	0.188
2770.81	-0.134401
2772.14	-0.168729
2773.48	-0.0451622
2774.81	0.322802
2776.14	-0.00131607
2777.48	0.222297
2778.81	-0.0860658
2780.14	0.051939
2781.47	0.0607762
2782.81	-0.203004
2784.14	-0.165325
2785.47	0.0442624
2786.8	0.0245543
2788.13	-0.266693
2789.46	-0.0133142
2790.79	0.197691
2792.12	-0.191293
2793.46	0.135046
2794.79	-0.153278
2796.11	-0.213138
2797.44	-0.159151
2798.77	-0.177069
2800.1	-0.280969
2801.43	0.0286827
2802.76	-0.0185919
2804.09	0.332971
2805.42	0.0285964
2806.74	0.0514302
2808.07	-0.0116577
2809.4	-0.131878
2810.73	0.0321193
2812.05	-0.0732551
2813.38	0.191207
2814.71	0.0738807
2816.03	0.0145593
2817.36	0.0554218
2818.68	-0.0732989
2820.01	0.0389409
2821.33	-0.00510979
2822.66	0.0494738
2823.98	0.117662
2825.31	0.114687
2826.63	-0.0865121
2827.96	0.236657
2829.28	-0.218408
2830.61	0.190498
2831.93	0.0474868
2833.25	0.130914
2834.57	0.0300574
2835.9	-0.0570383
2837.22	0.223328
2838.54	0.672937
2839.86	0.613013
2841.18	1.04805
2842.51	1.22881
2843.83	1.02853
2845.15	1.39423
2846.47	1.59092
2847.79	1.40636
2849.11	1.53276
2850.43	1.40447
2851.75	1.50187
2853.07	1.33027
2854.39	1.55402
2855.71	1.79165
2857.03	1.8173
2858.35	1.61699
2859.67	1.81215
2860.98	2.02122
2862.3	2.11697
2863.62	2.05707
2864.94	1.70064
2866.25	2.0638
2867.57	2.20135
2868.89	2.31105
2870.21	2.49159
2871.52	2.58765
2872.84	2.7539
2874.15	2.73621
2875.47	2.53442
2876.78	2.51481
2878.1	2.71959
2879.42	2.79732
2880.73	3.1423
2882.04	2.81336
2883.36	3.10363
2884.67	2.51009
2885.99	2.94214
2887.3	2.71445
2888.61	3.28627
2889.93	3.29592
2891.24	2.96823
2892.55	2.73835
2893.87	3.02684
2895.18	3.35742
2896.49	2.90466
2897.8	3.27879
2899.11	3.37392
2900.42	3.38585
2901.74	3.55211
2903.05	3.53672
2904.36	3.75926
2905.67	4.26181
2906.98	3.89769
2908.29	4.14984
2909.6	4.4029
2910.91	4.47471
2912.22	4.51855
2913.53	4.70168
2914.83	4.91145
2916.14	5.00748
2917.45	4.97592
2918.76	5.33512
2920.07	5.60998
2921.37	5.68963
2922.68	6.05012
2923.99	6.39804
2925.3	5.96442
2926.6	6.32824
2927.91	6.51044
2929.22	6.37071
2930.52	6.06263
2931.83	6.29927
2933.13	6.4797
2934.44	6.33861
2935.74	6.68683
2937.05	6.44825
2938.35	6.11209
2939.66	6.85221
2940.96	6.27939
2942.27	6.19655
2943.57	5.97523
2944.87	5.4477
2946.18	5.45251
2947.48	5.75178
2948.78	5.5052
2950.09	5.04728
2951.39	5.1895
2952.69	4.58766
2953.99	4.89458
2955.29	4.06716
2956.6	4.30456
2957.9	4.64192
2959.2	4.18405
2960.5	4.35894
2961.8	4.26976
2963.1	4.29351
2964.4	3.95175
2965.7	3.79082
2967	3.79679
2968.3	3.68902
2969.6	3.41171
2970.9	2.95133
2972.2	3.51803
2973.49	3.12845
2974.79	3.11875
2976.09	2.96769
2977.39	2.82949
2978.69	2.88683
2979.98	2.4217
2981.28	2.49035
2982.58	2.27714
2983.88	2.26126
2985.17	2.21831
2986.47	2.17679
2987.76	2.10857
2989.06	1.90079
2990.36	1.9603
2991.65	1.80858
2992.95	1.4311
2994.24	1.54439
2995.54	0.729599
2996.83	1.44517
2998.12	1.26181
2999.42	1.2051
3000.71	0.517986
3002	0.602818
3003.3	0.856146
3004.59	0.871317
3005.88	0.844273
3007.18	0.438793
3008.47	0.648614
3009.76	0.577806
3011.05	0.115243
3012.35	0.40697
3013.64	0.223957
3014.93	0.236775
3016.22	0.166632
3017.51	0.431397
3018.8	-0.110685
3020.09	0.0154848
3021.38	0.210688
3022.67	0.0994
3023.96	0.043004
3025.25	0.0970173
3026.54	-0.0431242
3027.83	-0.0580192
3029.12	0.259913
3030.41	-0.00155783
3031.69	0.0838366
3032.98	0.0596938
3034.27	-0.0054965
3035.56	0.149701
3036.85	0.0141487
3038.13	0.221728
3039.42	0.0282364
3040.71	0.31495
3041.99	0.435428
3043.28	0.0895643
3044.57	0.320326
3045.85	0.360636
3047.14	-0.184533
3048.42	0.242464
3049.71	-0.216116
3050.99	-0.0726552
3052.28	-0.0921803
3053.56	0.243139
3054.85	0.0867753
3056.13	0.106967
3057.42	0.194433
3058.7	0.199437
3059.98	0.313199
3061.27	0.318349
3062.55	0.365218
3063.83	0.345368
3065.11	0.0143023
3066.4	0.364297
3067.68	0.266619
3068.96	0.18295
3070.24	0.303143
3071.52	-0.121358
3072.8	0.160416
3074.09	-0.184264
3075.37	-0.162489
3076.65	-0.195233
3077.93	0.288251
3079.21	0.324594
3080.49	-0.0581865
3081.77	0.0488629
3083.05	-0.100672
3084.32	-0.208859
3085.61	-0.0861931
3086.88	-0.180952
3088.16	-0.113323
3089.44	0.0352564
3090.72	0.0342369
3092	0.331652
3093.27	0.0323772
3094.55	0.126853
3095.83	-0.130885
3097.11	0.153898
3098.38	0.140457
3099.66	0.0999146
3100.94	0.330351
3102.21	0.317058
3103.49	-0.102032
3104.76	-0.0737023
3106.04	-0.0852551
3107.31	0.228851
3108.59	0.205636
3109.86	0.413562
3111.14	0.21637
3112.41	0.331367
3113.69	0.0268388
3114.96	0.345791
3116.23	0.434158
3117.51	0.169295
3118.78	-0.123535
3120.05	0.0304418
3121.33	0.495535
3122.6	0.499147
3123.87	0.475597
3125.14	0.425302
3126.42	0.686858
3127.69	0.542975
3128.96	0.724387
3130.23	0.405856
3131.5	0.331081
3132.77	0.472581
3134.04	0.289649
3135.31	0.61957
3136.58	0.638495
3137.85	0.711019
3139.12	0.715884
3140.39	0.518871
3141.66	0.819983
3142.93	0.892578
3144.2	0.616567
3145.47	0.878311
3146.74	0.738276
3148	0.679531
3149.27	0.715295
