200.388	0.661291
202.204	0.686989
204.019	0.713766
205.832	0.449949
207.646	-0.518246
209.459	0.214899
211.274	0.071682
213.087	-0.291448
214.899	0.436083
216.711	0.458914
218.524	-0.414343
220.335	0.577971
222.146	1.23157
223.956	0.459226
225.766	0.0266876
227.576	1.14068
229.388	-0.0164738
231.197	0.443763
233.005	-0.616652
234.813	0.2051
236.621	-0.057024
238.429	-0.123726
240.236	-0.0186911
242.045	0.523219
243.852	-0.0906525
245.658	0.574023
247.464	0.609633
249.269	-0.106647
251.074	1.41863
252.879	0.2363
254.683	0.258875
256.487	0.449573
258.291	0.303638
260.094	0.0875368
261.897	0.0183954
263.702	0.0476837
265.504	0.391499
267.306	0.832302
269.108	0.54974
270.909	1.49561
272.71	0.728269
274.511	0.465396
276.311	-0.0405426
278.111	0.969662
279.91	0.748035
281.709	0.235181
283.508	0.56246
285.306	0.454803
287.105	0.274297
288.9	0.741451
290.698	0.322256
292.495	0.74311
294.291	0.328108
296.088	0.489206
297.884	0.866629
299.679	0.671039
301.475	0.284272
303.27	0.230989
305.064	0.319395
306.858	0.716543
308.652	1.0652
310.444	0.222805
312.237	0.644872
314.03	0.878232
315.822	0.280494
317.615	0.708925
319.406	1.23481
321.198	1.38132
322.987	1.09973
324.778	2.03536
326.568	0.608525
328.358	1.13868
330.148	1.11878
331.935	1.67128
333.724	0.738563
335.513	0.711953
337.301	0.490955
339.089	0.530479
340.875	0.830981
342.662	0.938878
344.449	0.592544
346.236	0.963593
348.02	0.85768
349.806	0.800216
351.592	0.575731
353.375	0.708552
355.16	0.315167
356.944	0.778786
358.728	0.739749
360.51	0.15148
362.294	0.657501
364.077	0.876386
365.858	0.618773
367.64	1.21507
369.422	1.40592
371.202	1.16881
372.983	1.3098
374.764	1.70987
376.543	1.37725
378.324	1.84775
380.102	1.8709
381.881	2.71943
383.661	2.27483
385.438	2.8905
387.216	2.94343
388.993	2.99799
390.771	2.39639
392.548	2.31279
394.324	2.55885
396.101	2.54715
397.875	1.9954
399.651	1.88962
401.425	1.3839
403.201	1.34709
404.974	1.26227
406.749	0.00233078
408.524	0.97243
410.296	0.885363
412.07	1.24422
413.841	0.993363
415.614	0.837295
417.385	0.729145
419.156	0.832978
420.928	0.0218182
422.698	0.923692
424.469	0.956268
426.238	1.15196
428.009	1.15871
429.777	0.10849
431.548	0.466608
433.315	0.308671
435.083	0.45623
436.852	0.932331
438.618	0.867741
440.387	0.613604
442.153	0.708891
443.919	0.332443
445.686	0.23522
447.451	0.815342
449.218	0.247909
450.982	-0.552104
452.746	-0.323278
454.512	0.022027
456.275	-0.35579
458.038	0.361352
459.803	0.425801
461.565	0.583945
463.327	0.813497
465.091	0.255862
466.852	0.305987
468.613	0.173516
470.374	-0.235777
472.136	-0.13282
473.896	0.551448
475.655	0.721744
477.415	-0.0424747
479.176	0.774902
480.934	0.705709
482.692	1.52164
484.45	1.29096
486.21	0.759903
487.967	1.1169
489.724	0.637367
491.481	0.742023
493.237	0.333709
494.995	1.35146
496.75	1.10696
498.506	0.885053
500.26	0.826295
502.015	0.438017
503.771	0.893569
505.525	0.760691
507.279	0.861043
509.032	2.48857
510.785	1.64413
512.537	1.57379
514.289	1.90138
516.041	3.14441
517.793	2.26838
519.546	1.69712
521.297	1.97116
523.047	2.33816
524.797	2.32889
526.547	1.87386
528.297	1.58345
530.046	2.13685
531.795	2.00986
533.543	1.76487
535.291	1.63554
537.039	1.62133
538.787	0.671332
540.534	1.09771
542.281	0.613565
544.027	1.01411
545.773	0.902383
547.519	1.06964
549.264	0.564517
551.01	0.246053
552.754	0.992551
554.499	0.559219
556.243	1.11969
557.987	1.44893
559.73	0.119355
561.474	-0.0101595
563.216	0.298266
564.959	0.79083
566.701	0.686305
568.441	-0.289483
570.182	0.389188
571.923	0.610234
573.664	0.122179
575.405	-0.111331
577.145	1.42401
578.885	0.574789
580.624	0.139246
582.361	0.20897
584.1	0.439058
585.839	0.300098
587.577	0.274505
589.315	1.42072
591.052	0.380085
592.787	1.15633
594.524	0.252787
596.26	0.476652
597.997	0.470411
599.732	0.78582
601.466	1.14614
603.201	-0.128201
604.936	0.0907698
606.67	0.00919342
608.403	0.363004
610.136	1.15222
611.87	0.840095
613.603	0.0248966
615.334	-0.101191
617.067	0.300004
618.799	0.814801
620.529	-0.297451
622.26	0.214245
623.991	0.609842
625.72	0.182443
627.451	-0.129016
629.181	-0.186795
630.909	-0.0363331
632.638	0.664312
634.368	-0.071291
636.095	0.379573
637.823	0.0522947
639.551	0.634675
641.277	0.368856
643.005	0.168614
644.73	-0.0784473
646.457	-0.142822
648.184	-0.341298
649.908	-0.0132437
651.634	0.13756
653.357	-0.343188
655.083	0.157689
656.806	0.00203133
658.53	0.576721
660.253	0.330765
661.977	-0.00890446
663.7	0.0137577
665.422	0.330694
667.145	0.302387
668.865	-0.0700188
670.588	0.358805
672.308	-0.491253
674.027	0.149177
675.749	-0.306878
677.468	0.109621
679.188	0.159776
680.907	0.0479603
682.627	0.577984
684.345	0.346375
686.064	0.687703
687.781	0.151953
689.498	0.167511
691.216	0.665886
692.932	0.56458
694.65	0.416275
696.366	0.381941
698.081	0.369163
699.797	0.768999
701.512	0.178039
703.228	0.597847
704.942	0.671686
706.655	0.125084
708.371	-0.0543013
710.083	0.247339
711.796	0.410662
713.51	0.0471888
715.222	0.0954895
716.934	0.737273
718.645	0.579601
720.358	0.536366
722.068	0.721165
723.779	0.40516
725.49	0.135007
727.2	1.20511
728.909	0.548096
730.618	0.821261
732.329	0.572467
734.037	1.02533
735.745	0.731439
737.453	0.0772791
739.16	1.04951
740.869	1.02944
742.576	1.3714
744.282	0.926748
745.988	1.42952
747.694	0.448988
749.401	1.24752
751.107	1.1929
752.811	1.47738
754.516	1.08884
756.22	1.5122
757.924	1.48764
759.627	2.27606
761.332	2.16534
763.035	2.23575
764.738	2.41887
766.44	2.8041
768.142	3.20983
769.843	3.90667
771.544	4.60066
773.245	4.65923
774.946	3.85778
776.646	4.18768
778.346	4.79089
780.046	3.94928
781.745	3.22211
783.444	3.21899
785.143	3.28227
786.841	2.79899
788.539	2.28881
790.237	2.31745
791.934	2.3649
793.631	2.20677
795.328	1.61988
797.024	2.22974
798.72	1.51203
800.416	1.78801
802.112	0.513249
803.807	1.24201
805.502	1.67781
807.196	1.23591
808.89	2.2527
810.584	1.87526
812.278	1.63167
813.971	1.09645
815.664	0.942367
817.354	1.07931
819.047	1.61838
820.739	1.62083
822.43	2.09235
824.122	1.33787
825.813	2.19057
827.503	1.39695
829.192	1.07498
830.882	1.42497
832.571	1.80106
834.261	1.15495
835.95	1.55778
837.637	1.20215
839.325	1.26899
841.013	0.619143
842.701	1.06205
844.389	1.81732
846.074	1.56793
847.761	0.851071
849.447	0.830089
851.131	0.812181
852.817	1.11049
854.503	1.07412
856.188	0.857864
857.871	0.752275
859.556	0.531999
861.24	1.66019
862.922	1.75128
864.606	0.961818
866.289	0.914574
867.97	0.550819
869.653	0.47955
871.336	0.72368
873.016	0.629251
874.698	0.80547
876.379	1.04947
878.058	1.11303
879.739	0.995911
881.418	0.69775
883.098	0.963085
884.778	0.54985
886.456	0.947544
888.135	0.733883
889.812	1.03711
891.49	0.27885
893.167	1.11898
894.845	0.786177
896.523	-0.0194635
898.198	0.388007
899.875	0.928027
901.55	0.479973
903.226	0.0994244
904.901	0.479486
906.576	0.724926
908.25	0.992873
909.925	0.704567
911.598	0.840748
913.271	0.399714
914.945	1.42548
916.617	1.16279
918.291	0.922677
919.962	0.816031
921.635	0.489034
923.306	1.35766
924.978	0.79128
926.648	1.02278
928.318	-0.0459452
929.989	0.7411
931.659	0.62417
933.328	0.0664635
934.998	0.126742
936.666	0.805081
938.336	0.00677681
940.004	-0.040184
941.671	0.708506
943.34	1.06132
945.007	0.200298
946.673	0.286828
948.339	0.23873
950.007	-0.142726
951.672	0.62176
953.337	0.503568
955.004	-0.825488
956.669	0.0318928
958.333	0.783237
959.997	0.523597
961.662	-0.352787
963.326	0.117887
964.989	0.122766
966.651	-0.517154
968.315	0.498847
969.977	-0.169244
971.639	0.356189
973.301	0.727131
974.962	0.679652
976.624	0.214293
978.285	0.10463
979.945	-0.0705814
981.605	-0.246285
983.264	0.506186
984.924	0.481541
986.583	0.122308
988.243	0.646021
989.901	-0.535035
991.56	-0.124388
993.217	-0.686267
994.875	0.0771046
996.532	0.508832
998.188	0.631374
999.845	0.577221
1001.5	0.478619
1003.16	0.379617
1004.81	0.852129
1006.47	0.44479
1008.12	0.45543
1009.78	0.203135
1011.43	0.412285
1013.09	0.534104
1014.74	0.875348
1016.39	1.01972
1018.05	0.661376
1019.7	1.61668
1021.35	2.15728
1023	2.21828
1024.65	2.21511
1026.31	2.43135
1027.96	2.66947
1029.61	3.38727
1031.26	3.01093
1032.91	3.26556
1034.56	3.5174
1036.21	3.15628
1037.86	2.09729
1039.51	3.39073
1041.16	2.68201
1042.8	1.84577
1044.45	1.0129
1046.1	1.72544
1047.75	1.70193
1049.39	1.94137
1051.04	0.879442
1052.69	0.774181
1054.33	0.691131
1055.98	0.455943
1057.62	1.52465
1059.27	0.810234
1060.91	0.616685
1062.56	0.813528
1064.2	0.770002
1065.85	1.02949
1067.49	0.418085
1069.13	0.109983
1070.77	0.952271
1072.42	0.903649
1074.06	1.55002
1075.7	1.50322
1077.34	1.63178
1078.98	1.4151
1080.62	2.08862
1082.27	1.61291
1083.91	1.54806
1085.55	2.52154
1087.18	2.25635
1088.82	2.55144
1090.46	2.95167
1092.1	2.67928
1093.74	2.01785
1095.38	2.7172
1097.02	1.79969
1098.65	0.842505
1100.29	1.48198
1101.93	1.54245
1103.56	1.26117
1105.2	1.11091
1106.84	0.681926
1108.47	0.48926
1110.11	0.639325
1111.74	0.142509
1113.38	0.0307608
1115.01	0.432797
1116.64	-0.0246201
1118.28	0.504864
1119.91	0.0918312
1121.54	0.943896
1123.18	1.24007
1124.81	0.702962
1126.44	0.424031
1128.07	1.49349
1129.7	0.425435
1131.33	0.769434
1132.97	0.878647
1134.6	0.496065
1136.23	-0.143667
1137.86	0.433524
1139.49	1.37194
1141.11	0.194566
1142.74	0.490047
1144.37	0.102866
1146	-0.0699043
1147.63	0.440618
1149.26	0.419335
1150.88	-0.218966
1152.51	-0.00511551
1154.14	0.421118
1155.76	0.399653
1157.39	0.229098
1159.01	0.314324
1160.64	-0.364951
1162.27	0.53078
1163.89	-1.12369
1165.51	-0.247331
1167.14	0.458688
1168.76	0.227888
1170.39	0.101341
1172.01	0.567301
1173.63	0.266106
1175.25	0.897208
1176.88	0.975434
1178.5	0.545389
1180.12	0.730734
1181.74	0.367003
1183.36	0.448589
1184.98	1.03732
1186.6	0.293815
1188.22	0.836403
1189.84	0.258267
1191.46	0.52109
1193.08	0.192557
1194.7	-0.199146
1196.32	0.165039
1197.94	0.361858
1199.55	1.04141
1201.17	0.698854
1202.79	0.485645
1204.41	0.714334
1206.02	0.653609
1207.64	0.281768
1209.25	1.09945
1210.87	0.78966
1212.48	1.04078
1214.1	0.24686
1215.71	0.0341549
1217.33	0.193995
1218.94	-0.0634394
1220.56	1.13264
1222.17	0.833972
1223.79	1.01406
1225.4	0.553985
1227.01	-0.234599
1228.62	0.592669
1230.23	0.966015
1231.85	0.658577
1233.46	0.724837
1235.07	0.730692
1236.68	1.60622
1238.29	0.498776
1239.9	1.72838
1241.51	1.13873
1243.12	1.16905
1244.73	1.79844
1246.34	1.74373
1247.94	1.43932
1249.55	1.15461
1251.16	0.621283
1252.77	0.646832
1254.37	1.08694
1255.98	0.680366
1257.59	0.544215
1259.2	0.885405
1260.8	1.31075
1262.41	0.929454
1264.01	1.64585
1265.62	0.559397
1267.22	0.528512
1268.83	1.03549
1270.43	0.753378
1272.03	0.905339
1273.64	1.47061
1275.24	1.45401
1276.85	1.53979
1278.45	1.45871
1280.05	2.10157
1281.65	1.21186
1283.25	0.860949
1284.85	1.64837
1286.46	1.73352
1288.06	1.13796
1289.66	1.70108
1291.26	1.47957
1292.86	1.87787
1294.46	2.02721
1296.06	1.9889
1297.66	2.25809
1299.25	1.90577
1300.85	1.51063
1302.45	2.51519
1304.05	1.5821
1305.65	1.16382
1307.24	1.48511
1308.84	2.11304
1310.43	2.16579
1312.03	0.929162
1313.63	1.41396
1315.22	1.79697
1316.82	1.54766
1318.41	2.0748
1320.01	1.64285
1321.6	2.10671
1323.2	1.48914
1324.79	2.00891
1326.38	1.34805
1327.98	2.22896
1329.57	1.08344
1331.16	1.01458
1332.76	1.23151
1334.35	1.93556
1335.94	1.65213
1337.53	1.632
1339.12	1.53048
1340.71	1.56798
1342.3	1.80388
1343.89	1.0718
1345.48	1.90593
1347.07	1.59509
1348.66	1.60762
1350.25	1.24308
1351.84	1.02238
1353.43	1.04446
1355.01	1.50795
1356.6	1.19242
1358.19	1.63564
1359.77	1.39839
1361.36	1.35954
1362.95	1.17997
1364.53	1.0998
1366.12	0.980146
1367.71	1.06075
1369.29	1.62055
1370.88	1.74402
1372.46	1.63051
1374.04	1.04098
1375.63	1.10897
1377.21	1.11742
1378.8	1.02577
1380.38	1.21142
1381.96	0.778663
1383.54	1.08028
1385.13	0.903319
1386.71	0.96431
1388.29	0.787103
1389.87	0.551304
1391.45	0.554893
1393.03	1.03557
1394.61	0.56453
1396.19	0.846992
1397.77	0.870743
1399.35	1.48767
1400.93	0.716398
1402.51	0.717148
1404.09	0.777171
1405.67	0.38295
1407.24	0.207541
1408.82	0.586522
1410.4	0.61037
1411.98	1.12784
1413.55	0.834908
1415.13	0.600266
1416.71	-0.049346
1418.28	0.799189
1419.86	0.4061
1421.43	1.11731
1423.01	0.688242
1424.58	1.3439
1426.16	1.88302
1427.73	1.36005
1429.31	2.50979
1430.88	1.63102
1432.45	2.04972
1434.02	2.78166
1435.6	2.09649
1437.17	2.59161
1438.74	2.91055
1440.31	2.60186
1441.88	1.74427
1443.45	3.16739
1445.03	2.74368
1446.6	1.88773
1448.17	2.95824
1449.74	2.77114
1451.3	2.82055
1452.87	2.00539
1454.44	3.35421
1456.01	2.18513
1457.58	2.80556
1459.15	2.53878
1460.72	2.84036
1462.28	2.37195
1463.85	2.55056
1465.42	1.88229
1466.98	1.94105
1468.55	1.68603
1470.12	2.21735
1471.68	2.37702
1473.25	2.55766
1474.81	1.99416
1476.38	2.07842
1477.94	1.88834
1479.51	2.5019
1481.07	2.50757
1482.63	2.84625
1484.2	2.009
1485.76	2.32739
1487.32	2.40959
1488.88	2.07879
1490.45	2.43066
1492.01	2.38798
1493.57	2.65485
1495.13	2.70393
1496.69	2.30313
1498.25	1.45538
1499.81	1.58222
1501.37	1.4772
1502.93	1.18001
1504.49	1.13644
1506.05	0.919094
1507.61	0.759419
1509.17	0.907898
1510.73	0.707241
1512.28	0.293975
1513.84	0.112226
1515.4	1.10368
1516.96	0.864652
1518.51	0.339508
1520.07	0.295168
1521.63	0.710433
1523.18	0.436303
1524.74	0.639147
1526.29	0.74492
1527.85	0.658818
1529.4	0.306035
1530.96	0.637732
1532.51	0.362323
1534.06	0.0697393
1535.62	0.422197
1537.17	0.737212
1538.72	1.10905
1540.28	0.500076
1541.83	0.853186
1543.38	0.998455
1544.93	0.973969
1546.48	0.686287
1548.03	0.811765
1549.59	1.36804
1551.14	0.425375
1552.69	0.551453
1554.24	0.528871
1555.79	0.620007
1557.34	0.48912
1558.88	0.864456
1560.43	1.03669
1561.98	0.763161
1563.53	1.61037
1565.08	1.07776
1566.62	1.12363
1568.17	0.833282
1569.72	0.691724
1571.27	1.38966
1572.81	0.929901
1574.36	1.17929
1575.9	0.83132
1577.45	0.483554
1579	1.05103
1580.54	1.45129
1582.09	1.06825
1583.63	1.0036
1585.17	1.48176
1586.72	0.970027
1588.26	1.22489
1589.8	0.918369
1591.35	0.367735
1592.89	1.59499
1594.43	1.53022
1595.97	1.44669
1597.52	1.43855
1599.06	2.03119
1600.6	1.27462
1602.14	1.00585
1603.68	0.962116
1605.22	1.31208
1606.76	1.11567
1608.3	1.4995
1609.84	2.01206
1611.38	1.31893
1612.92	0.849241
1614.46	1.24181
1615.99	0.808025
1617.53	1.01259
1619.07	0.824829
1620.61	0.713886
1622.14	1.05399
1623.68	0.683558
1625.22	1.1182
1626.75	0.709628
1628.29	1.55326
1629.82	0.67407
1631.36	0.542096
1632.9	1.66119
1634.43	1.41658
1635.96	1.35975
1637.5	2.0874
1639.03	1.2306
1640.57	0.933583
1642.1	1.19497
1643.63	1.8272
1645.16	1.43371
1646.7	2.15532
1648.23	1.61185
1649.76	1.19957
1651.29	2.21787
1652.82	1.9568
1654.36	1.64178
1655.89	1.27217
1657.42	1.86625
1658.95	1.53288
1660.48	1.79061
1662.01	1.95371
1663.53	1.81931
1665.06	1.83211
1666.59	1.77144
1668.12	1.67529
1669.65	1.69166
1671.18	1.76515
1672.7	1.50841
1674.23	1.4918
1675.76	1.38289
1677.29	0.960218
1678.81	1.58516
1680.34	1.17854
1681.86	1.0103
1683.39	0.768381
1684.91	0.563522
1686.44	1.07453
1687.96	0.595695
1689.49	1.34521
1691.01	0.849191
1692.54	0.262244
1694.06	0.809871
1695.58	0.991082
1697.11	0.568797
1698.63	1.02312
1700.15	0.217096
1701.67	0.688152
1703.2	0.33774
1704.72	-0.522705
1706.24	0.58281
1707.76	0.286261
1709.28	-0.191551
1710.8	-0.105868
1712.32	0.360628
1713.84	0.0112209
1715.36	-0.0479021
1716.88	0.399452
1718.4	0.592873
1719.91	0.587225
1721.43	0.0585041
1722.95	0.378612
1724.47	0.807508
1725.99	0.535157
1727.5	0.462645
1729.02	0.373362
1730.54	0.211815
1732.05	0.033639
1733.57	0.349701
1735.09	0.266169
1736.6	0.321712
1738.12	0.662022
1739.63	0.22613
1741.15	-0.194716
1742.66	0.195078
1744.18	0.211989
1745.69	0.0507803
1747.2	-0.253741
1748.72	0.0495348
1750.23	-0.464199
1751.74	0.168272
1753.25	0.213
1754.77	-0.123921
1756.28	0.33479
1757.79	0.111178
1759.3	-0.068737
1760.81	0.221232
1762.32	-0.199253
1763.83	-0.0747118
1765.34	0.308254
1766.85	0.188531
1768.36	0.0799112
1769.87	-0.14996
1771.38	0.269638
1772.89	0.173655
1774.4	0.227823
1775.91	0.147675
1777.41	-0.242708
1778.92	-0.154045
1780.43	0.109873
1781.94	-0.211481
1783.44	-0.00677013
1784.95	-0.244695
1786.45	0.27063
1787.96	0.0513258
1789.47	0.259795
1790.97	0.0726891
1792.48	-0.0201292
1793.98	0.0709476
1795.48	0.286131
1796.99	0.129267
1798.49	-0.268207
1800	-0.0812435
1801.5	-0.0522528
1803	0.177701
1804.51	-0.141029
1806.01	0.0329714
1807.51	-0.278563
1809.01	-0.0286503
1810.51	-0.247665
1812.02	0.153437
1813.52	-0.159974
1815.02	0.011282
1816.52	0.0233536
1818.02	-0.213743
1819.52	0.132383
1821.02	-0.0154495
1822.52	0.118392
1824.02	0.113575
1825.51	-0.0901499
1827.01	0.257607
1828.51	0.233982
1830.01	0.0935068
1831.51	-0.200637
1833	0.0811768
1834.5	-0.185287
1836	0.192666
1837.5	0.19756
1838.99	0.193825
1840.49	0.0100346
1841.98	0.0657024
1843.48	0.26363
1844.97	-0.144184
1846.47	0.201591
1847.96	0.000617027
1849.46	-0.101995
1850.95	-0.16083
1852.45	0.0286875
1853.94	0.294526
1855.43	0.140673
1856.92	0.158245
1858.42	-0.16378
1859.91	-0.0516624
1861.4	0.269855
1862.89	0.353506
1864.39	0.00353146
1865.88	0.35791
1867.37	0.241385
1868.86	0.220364
1870.35	0.145412
1871.84	-0.375797
1873.33	-0.00251865
1874.82	0.022068
1876.31	0.189933
1877.8	0.396086
1879.29	0.134631
1880.77	0.392217
1882.26	0.527546
1882.51	0.544811
1884	0.212367
1885.5	0.0361042
1886.99	0.120287
1888.48	0.134171
1889.98	0.426612
1891.47	0.459018
1892.97	-0.0109797
1894.46	0.199205
1895.95	0.063385
1897.44	0.0849724
1898.93	0.402174
1900.42	-0.0297461
1901.92	-0.150329
1903.41	-0.0293226
1904.9	0.64627
1906.39	-0.0522938
1907.88	0.0833559
1909.37	0.184817
1910.86	0.217832
1912.35	-0.285919
1913.84	0.303807
1915.32	-0.459139
1916.81	0.147473
1918.3	-0.13075
1919.79	-0.0281172
1921.28	0.230222
1922.76	-0.359629
1924.25	0.263601
1925.74	0.247422
1927.22	-0.183052
1928.71	0.374022
1930.2	0.221225
1931.68	0.102143
1933.17	-0.174361
1934.65	0.274351
1936.14	0.0460644
1937.62	0.715797
1939.11	0.036377
1940.59	0.152462
1942.08	0.114024
1943.56	0.180292
1945.04	0.23023
1946.53	0.556391
1948.01	0.175513
1949.49	0.104164
1950.97	0.445003
1952.45	-0.196415
1953.94	0.348848
1955.42	0.102821
1956.9	0.0120974
1958.38	0.0252056
1959.86	0.0734148
1961.34	0.0535994
1962.82	-0.120239
1964.3	0.031394
1965.78	0.182336
1967.26	0.229663
1968.74	0.207781
1970.22	0.270719
1971.69	0.469909
1973.17	-0.0310555
1974.65	0.321601
1976.13	0.554653
1977.61	-0.200309
1979.08	0.186271
1980.56	-0.142111
1982.03	0.345685
1983.51	0.645608
1984.99	-0.0737085
1986.46	-0.232512
1987.94	0.100375
1989.41	0.00973225
1990.89	0.190718
1992.36	0.338696
1993.84	0.0143051
1995.31	0.36705
1996.78	0.314609
1998.26	0.143943
1999.73	0.10798
2001.2	0.206376
2002.68	-0.0500755
2004.15	0.0981646
2005.62	0.314027
2007.09	0.328409
2008.56	-0.0602779
2010.04	-0.144802
2011.51	0.208943
2012.98	-0.144249
2014.45	0.209007
2015.92	0.0733595
2017.39	0.0208874
2018.86	0.404631
2020.33	0.56895
2021.8	0.195541
2023.27	0.0410805
2024.74	-0.330508
2026.2	0.0542278
2027.67	0.188807
2029.14	-0.0104237
2030.61	-0.0404816
2032.07	0.148661
2033.54	0.338473
2035.01	0.478031
2036.47	0.600458
2037.94	-0.101008
2039.41	0.255585
2040.87	-0.00971127
2042.34	0.246523
2043.8	0.43646
2045.27	-0.348412
2046.73	0.432508
2048.2	0.355516
2049.66	0.564596
2051.12	0.13203
2052.59	0.523847
2054.05	0.171642
2055.51	0.390872
2056.98	0.13644
2058.44	0.252015
2059.9	0.249404
2061.36	0.668182
2062.82	0.229156
2064.29	0.649776
2065.75	0.280508
2067.21	0.433909
2068.67	0.419694
2070.13	0.389001
2071.59	0.661417
2073.05	-0.00915813
2074.51	0.582769
2075.97	1.07337
2077.43	0.772079
2078.88	0.588209
2080.34	0.723771
2081.8	0.639796
2083.26	0.268933
2084.72	0.200341
2086.17	0.231916
2087.63	1.40614
2089.09	0.629277
2090.54	0.2225
2092	0.789792
2093.46	0.785884
2094.91	0.79846
2096.37	0.911014
2097.82	0.871902
2099.28	1.45135
2100.73	1.44421
2102.19	0.902636
2103.64	0.746867
2105.09	1.26035
2106.55	1.44138
2108	1.42345
2109.46	0.922394
2110.91	1.28783
2112.36	0.984914
2113.81	1.1133
2115.27	1.10648
2116.72	1.39784
2118.17	1.29043
2119.62	1.16817
2121.07	1.29718
2122.52	1.17964
2123.97	1.9096
2125.42	1.72826
2126.87	1.5964
2128.32	1.46336
2129.77	1.64359
2131.22	1.77238
2132.67	2.03246
2134.12	1.97788
2135.57	1.94087
2137.01	1.75696
2138.46	2.30256
2139.91	2.48695
2141.36	2.04536
2142.8	2.01843
2144.25	2.32316
2145.7	2.14839
2147.14	2.73472
2148.59	2.40973
2150.03	2.26567
2151.48	2.94874
2152.92	2.13938
2154.37	2.86986
2155.81	2.37369
2157.26	2.49061
2158.7	2.69125
2160.15	2.89361
2161.59	2.8995
2163.03	3.02389
2164.48	3.00116
2165.92	2.86332
2167.36	2.25997
2168.8	2.53562
2170.25	2.14405
2171.69	2.98065
2173.13	2.73355
2174.57	2.45142
2176.01	3.05004
2177.45	2.81733
2178.89	2.58567
2180.33	2.57141
2181.77	2.35876
2183.21	2.56255
2184.65	2.76678
2186.09	2.20592
2187.53	2.84291
2188.97	2.36517
2190.41	2.18684
2191.84	1.82499
2193.28	2.42788
2194.72	2.01352
2196.16	2.16301
2197.59	1.91062
2199.03	2.05547
2200.47	2.16559
2201.9	1.9433
2203.34	1.97099
2204.78	1.73468
2206.21	2.01366
2207.65	2.17709
2209.08	1.77716
2210.51	1.54218
2211.95	1.14088
2213.38	1.38388
2214.82	1.82458
2216.25	1.80322
2217.68	1.38733
2219.12	1.3361
2220.55	1.94537
2221.98	1.74688
2223.42	1.44882
2224.85	1.33053
2226.28	1.02938
2227.71	1.20356
2229.14	1.32663
2230.57	1.30087
2232	0.979933
2233.43	1.102
2234.86	1.12655
2236.29	0.891038
2237.72	0.592407
2239.15	0.606268
2240.58	1.09539
2242.01	0.754606
2243.44	0.920884
2244.87	0.581965
2246.3	0.731652
2247.73	0.912178
2249.15	0.258764
2250.58	0.369339
2252.01	0.559216
2253.43	0.926691
2254.86	0.822658
2256.29	0.769121
2257.71	0.572278
2259.14	0.443628
2260.56	0.301976
2261.99	0.552462
2263.41	0.62632
2264.84	0.749386
2266.26	0.742133
2267.69	0.441149
2269.11	0.594572
2270.54	0.0960617
2271.96	0.345755
2273.38	0.481363
2274.81	-0.00189018
2276.23	0.427304
2277.65	0.270195
2279.07	-0.212976
2280.49	0.135186
2281.92	0.418156
2283.34	1.04378
2284.76	0.315314
2286.18	0.517118
2287.6	0.703121
2289.02	0.628406
2290.44	0.374353
2291.86	0.104059
2293.28	0.177114
2294.7	0.430187
2296.12	0.372391
2297.54	0.723873
2298.96	0.223827
2300.38	0.313578
2301.79	0.354529
2303.21	0.494274
2304.63	0.519443
2306.05	0.265369
2307.46	0.24071
2308.88	0.41271
2310.3	0.403315
2311.71	0.146736
2313.13	0.0709562
2314.55	0.176606
2315.96	-0.0791445
2317.38	-0.0707159
2318.79	0.267892
2320.21	0.672606
2321.62	0.564976
2323.03	0.224138
2324.45	0.557379
2325.86	0.492039
2327.27	0.655751
2328.69	0.45585
2330.1	0.404616
2331.51	0.469646
2332.93	0.486485
2334.34	-0.318431
2335.75	-0.0040741
2337.16	-0.101483
2338.57	0.211168
2339.99	0.259407
2341.4	0.109508
2342.81	0.0413036
2344.22	0.0715532
2345.63	-0.307673
2347.04	0.149211
2348.45	-0.016448
2349.86	-0.394948
2351.26	0.109006
2352.67	-0.123847
2354.08	0.132246
2355.49	0.0773945
2356.9	0.120001
2358.31	0.0648832
2359.71	0.123749
2361.12	0.101452
2362.53	0.273757
2363.94	0.0892687
2365.34	0.325756
2366.75	0.206406
2368.15	-0.0735073
2369.56	0.261163
2370.97	-0.112526
2372.37	-0.0815792
2373.78	-0.081809
2375.18	0.0954418
2376.59	0.0469046
2377.99	-0.43686
2379.39	0.347822
2380.8	-0.219049
2382.2	-0.369322
2383.61	0.280615
2385.01	0.160911
2386.41	0.0978346
2387.81	0.0358562
2389.22	0.190515
2390.62	-0.13168
2392.02	0.343854
2393.42	-0.309816
2394.82	0.453509
2396.22	-0.102566
2397.63	-0.19669
2399.02	-0.00415897
2400.43	0.252359
2401.82	0.159691
2403.23	-0.377567
2404.62	-0.089345
2406.02	-0.246601
2407.42	-0.277761
2408.82	0.134367
2410.22	-0.230988
2411.62	0.465744
2413.02	0.370896
2414.41	0.0241823
2415.81	0.660647
2417.21	-0.0154457
2418.61	0.0693293
2420	-0.130552
2421.4	-0.124692
2422.79	0.324393
2424.19	0.202901
2425.59	0.19236
2426.98	0.2616
2428.38	0.426928
2429.77	0.260343
2431.17	0.23717
2432.56	0.198279
2433.96	-0.111188
2435.35	0.419948
2436.74	0.234726
2438.14	0.127281
2439.53	0.256762
2440.92	-0.027689
2442.32	0.0684586
2443.71	-0.359417
2445.1	0.275589
2446.49	-0.00967407
2447.88	-0.0254221
2449.28	0.101389
2450.67	-0.0883436
2452.06	0.197446
2453.45	0.30982
2454.84	0.54963
2456.23	0.0308437
2457.62	-0.107894
2459.01	-0.00951672
2460.4	-0.196415
2461.79	0.137689
2463.18	-0.145648
2464.57	-0.1134
2465.96	0.29752
2467.34	-0.0497227
2468.73	0.0292978
2470.12	-0.0496712
2471.51	0.265034
2472.89	-0.130232
2474.28	-0.069253
2475.67	0.399947
2477.05	0.349321
2478.44	0.220195
2479.83	0.028677
2481.21	-0.25644
2482.6	0.806228
2483.98	-0.246695
2485.37	0.468654
2486.75	0.337686
2488.14	0.39308
2489.52	-0.331694
2490.9	0.0347281
2492.29	-0.0345039
2493.67	0.130433
2495.06	0.342977
2496.44	0.0295019
2497.82	-0.0347767
2499.2	-0.423728
2500.59	-0.0236263
2501.97	0.0968714
2503.35	0.0154114
2504.73	-0.251931
2506.11	0.0815744
2507.49	0.198606
2508.88	0.0387735
2510.26	0.1408
2511.63	0.304662
2513.01	0.0398436
2514.39	0.113326
2515.77	0.0804691
2517.15	0.140244
2518.53	0.0170612
2519.91	0.26093
2521.29	0.36681
2522.67	-0.0165625
2524.05	-0.0494919
2525.42	-0.220275
2526.8	-0.101734
2528.18	-0.0590611
2529.56	0.212745
2530.93	-0.000453949
2532.31	0.0921335
2533.69	0.24688
2535.06	-0.0382185
2536.44	0.32993
2537.81	0.0896931
2539.19	-0.364087
2540.56	0.0925035
2541.94	0.0323715
2543.31	0.0635834
2544.69	-0.0408802
2546.06	0.386816
2547.44	0.0725412
2548.81	-0.074048
2550.18	0.249803
2551.56	0.436657
2552.93	0.167253
2554.3	0.15476
2555.68	-0.0407448
2557.05	0.0514441
2558.42	0.234414
2559.79	0.129523
2561.16	0.540544
2562.53	-0.0177689
2563.9	0.151989
2565.28	0.17065
2566.64	-0.0680666
2568.02	0.466207
2569.38	0.394287
2570.76	-0.177815
2572.12	-0.00723267
2573.49	0.345358
2574.86	0.288769
2576.23	0.00478745
2577.6	0.0390768
2578.97	-0.260448
2580.34	0.501071
2581.7	0.170412
2583.07	0.00616264
2584.44	0.311646
2585.81	0.0864563
2587.17	0.285815
2588.54	0.076129
2589.91	0.184828
2591.27	0.172147
2592.64	0.143825
2594	-0.173144
2595.37	0.0693254
2596.73	0.0532093
2598.1	0.157299
2599.46	0.260861
2600.83	0.24351
2602.19	0.453224
2603.55	0.603066
2604.92	0.195073
2606.28	0.390956
2607.64	-0.273139
2609.01	-0.409996
2610.37	0.160027
2611.73	0.171004
2613.09	0.120589
2614.46	0.294762
2615.82	0.588331
2617.18	0.206966
2618.54	0.171421
2619.9	0.136731
2621.26	-0.0317154
2622.62	0.562661
2623.98	0.380002
2625.34	0.361662
2626.7	0.507106
2628.06	0.696673
2629.42	-0.141783
2630.78	0.344982
2632.14	-0.0908537
2633.5	0.127522
2634.86	0.0338268
2636.22	0.103369
2637.57	-0.0643177
2638.93	0.360553
2640.29	-0.0140085
2641.64	0.395782
2643	0.243886
2644.36	0.417155
2645.72	0.354047
2647.07	0.290598
2648.43	0.727309
2649.78	0.367689
2651.14	0.55195
2652.49	-0.189731
2653.85	0.317343
2655.2	0.0620136
2656.56	0.0572138
2657.91	-0.122046
2659.27	-0.00762367
2660.62	0.238685
2661.97	0.33845
2663.33	0.145353
2664.68	0.22897
2666.03	-0.198827
2667.38	0.145944
2668.74	0.0386333
2670.09	0.455553
2671.44	0.392589
2672.79	0.243188
2674.14	0.123652
2675.49	-0.154835
2676.84	0.249391
2678.2	0.00132275
2679.55	0.247229
2680.89	0.291142
2682.24	0.321795
2683.59	0.223187
2684.94	0.256073
2686.29	0.478087
2687.64	0.337217
2688.99	0.543442
2690.34	0.0365381
2691.69	0.398712
2693.04	-0.0679388
2694.38	0.291366
2695.73	0.418188
2697.08	0.0819645
2698.43	0.616174
2699.77	0.138394
2701.12	-0.0334969
2702.46	0.0133276
2703.81	0.264111
2705.16	0.225694
2706.5	0.375851
2707.85	0.830585
2709.19	0.457783
2710.54	0.171412
2711.88	0.320353
2713.23	0.222185
2714.57	-0.0796175
2715.92	0.694275
2717.26	0.639432
2718.6	0.22058
2719.95	0.194009
2721.29	0.3998
2722.63	0.124807
2723.97	-0.0342865
2725.32	0.286491
2726.66	0.199304
2728	0.592058
2729.34	-0.048748
2730.68	0.314412
2732.02	0.473749
2733.36	0.5022
2734.7	0.0799026
2736.04	0.341462
2737.39	-0.00772381
2738.72	0.10847
2740.06	0.355263
2741.4	0.121671
2742.74	-0.0107594
2744.08	0.626397
2745.42	0.187405
2746.76	0.256539
2748.1	0.136704
2749.44	-0.012023
2750.77	0.0281029
2752.11	0.0974312
2753.45	0.282881
2754.78	0.280028
2756.12	0.0890121
2757.46	-0.188618
2758.79	0.272415
2760.13	0.241543
2761.47	0.0375242
2762.8	0.398342
2764.14	0.643689
2765.47	0.0498228
2766.81	-0.00915051
2768.14	0.523974
2769.48	-0.0723896
2770.81	0.0962124
2772.14	0.263181
2773.48	0.0391884
2774.81	-0.127336
2776.14	-0.322433
2777.48	-0.229029
2778.81	0.0948343
2780.14	-0.184801
2781.47	-0.262692
2782.81	-0.0390301
2784.14	-0.0882349
2785.47	0.278223
2786.8	-0.18635
2788.13	0.309207
2789.46	0.433047
2790.79	-0.0572634
2792.12	0.082654
2793.46	-0.120113
2794.79	0.506177
2796.11	0.260216
2797.44	0.170932
2798.77	-0.118785
2800.1	-0.265988
2801.43	0.142999
2802.76	0.123633
2804.09	-0.138255
2805.42	0.0412064
2806.74	-0.13602
2808.07	0.326378
2809.4	-0.107745
2810.73	-0.0583506
2812.05	-0.0510073
2813.38	0.34041
2814.71	0.0949917
2816.03	0.177226
2817.36	0.147214
2818.68	0.330417
2820.01	-0.152529
2821.33	0.0160484
2822.66	0.11305
2823.98	0.40771
2825.31	0.13527
2826.63	0.358632
2827.96	-0.0122194
2829.28	0.750144
2830.61	0.8334
2831.93	0.591309
2833.25	0.717196
2834.57	0.262411
2835.9	0.712934
2837.22	0.738249
2838.54	1.17329
2839.86	0.858354
2841.18	1.34956
2842.51	1.75618
2843.83	1.35781
2845.15	1.78
2846.47	2.11808
2847.79	1.89128
2849.11	2.10263
2850.43	1.66348
2851.75	2.12836
2853.07	2.74805
2854.39	2.27907
2855.71	2.3045
2857.03	1.9061
2858.35	2.51071
2859.67	2.45137
2860.98	2.8437
2862.3	2.72729
2863.62	2.61049
2864.94	2.77565
2866.25	2.89838
2867.57	2.99312
2868.89	2.73581
2870.21	3.18396
2871.52	3.12472
2872.84	2.98063
2874.15	3.14575
2875.47	3.40819
2876.78	3.07786
2878.1	2.9158
2879.42	3.48489
2880.73	3.11196
2882.04	2.96509
2883.36	3.56385
2884.67	3.89657
2885.99	4.08947
2887.3	3.41221
2888.61	3.88536
2889.93	3.59989
2891.24	3.49593
2892.55	3.90995
2893.87	4.07123
2895.18	4.35881
2896.49	4.21321
2897.8	4.08293
2899.11	4.09383
2900.42	4.20357
2901.74	3.79628
2903.05	4.71813
2904.36	4.78684
2905.67	5.03772
2906.98	5.17739
2908.29	4.91237
2909.6	5.34786
2910.91	5.30841
2912.22	5.39493
2913.53	5.56459
2914.83	6.04064
2916.14	5.89861
2917.45	6.20258
2918.76	5.94551
2920.07	6.55556
2921.37	6.34112
2922.68	6.74338
2923.99	7.02148
2925.3	7.51069
2926.6	7.52547
2927.91	7.4285
2929.22	7.68057
2930.52	7.73621
2931.83	7.63747
2933.13	7.38468
2934.44	7.46734
2935.74	7.64799
2937.05	7.38165
2938.35	7.5348
2939.66	7.40885
2940.96	7.22767
2942.27	7.01962
2943.57	6.92486
2944.87	6.42635
2946.18	6.53036
2947.48	6.27146
2948.78	5.76017
2950.09	5.55523
2951.39	5.58619
2952.69	5.41891
2953.99	5.72603
2955.29	4.64679
2956.6	5.15045
2957.9	5.0406
2959.2	4.66785
2960.5	4.77429
2961.8	4.88328
2963.1	5.07757
2964.4	4.05011
2965.7	4.1436
2967	3.81375
2968.3	4.50847
2969.6	4.23244
2970.9	4.12494
2972.2	3.77859
2973.49	3.77023
2974.79	3.55075
2976.09	3.10523
2977.39	3.30595
2978.69	3.74417
2979.98	3.49051
2981.28	3.26364
2982.58	2.79724
2983.88	2.92209
2985.17	2.71081
2986.47	2.90885
2987.76	2.30762
2989.06	1.94641
2990.36	1.74008
2991.65	2.02519
2992.95	1.90165
2994.24	1.63632
2995.54	1.81942
2996.83	1.22943
2998.12	1.22917
2999.42	1.57988
3000.71	1.29996
3002	1.20314
3003.3	0.98078
3004.59	0.744709
3005.88	0.816654
3007.18	0.608006
3008.47	1.15426
3009.76	0.999848
3011.05	0.439685
3012.35	0.36862
3013.64	0.45117
3014.93	0.617719
3016.22	0.157953
3017.51	0.256489
3018.8	0.160712
3020.09	0.385056
3021.38	0.150099
3022.67	0.136878
3023.96	0.441919
3025.25	-0.100027
3026.54	0.0237236
3027.83	0.0785952
3029.12	0.106925
3030.41	0.399341
3031.69	-0.0526695
3032.98	0.0490685
3034.27	0.206351
3035.56	0.114753
3036.85	0.00820541
3038.13	-0.182571
3039.42	-0.127072
3040.71	0.119228
3041.99	0.2542
3043.28	0.388812
3044.57	-0.297232
3045.85	-0.0638351
3047.14	-0.0471821
3048.42	-0.1646
3049.71	0.157052
3050.99	0.180081
3052.28	0.354181
3053.56	0.173624
3054.85	0.0607605
3056.13	0.32887
3057.42	0.350353
3058.7	0.0304689
3059.98	0.0511913
3061.27	0.562235
3062.55	0.284994
3063.83	0.254263
3065.11	-0.0194368
3066.4	0.279405
3067.68	0.0627642
3068.96	-0.0310183
3070.24	0.0110607
3071.52	-0.0700135
3072.8	0.282995
3074.09	0.186049
3075.37	-0.115477
3076.65	0.0312524
3077.93	-0.0252547
3079.21	-0.216191
3080.49	0.00154209
3081.77	-0.091064
3083.05	-0.128032
3084.32	0.188619
3085.61	0.0984716
3086.88	0.089395
3088.16	-0.436047
3089.44	0.015224
3090.72	0.0318236
3092	-0.263622
3093.27	0.187354
3094.55	0.0419202
3095.83	0.0732265
3097.11	0.199657
3098.38	0.0957251
3099.66	0.00540733
3100.94	0.199677
3102.21	-0.242432
3103.49	0.250295
3104.76	0.269716
3106.04	0.560711
3107.31	0.379126
3108.59	0.225839
3109.86	0.344479
3111.14	0.315405
3112.41	0.409173
3113.69	0.232562
3114.96	0.354234
3116.23	0.489249
3117.51	-0.000286102
3118.78	0.309448
3120.05	0.292734
3121.33	0.166816
3122.6	0.758845
3123.87	0.212466
3125.14	0.425202
3126.42	0.638403
3127.69	0.541042
3128.96	0.471529
3130.23	0.659495
3131.5	0.928794
3132.77	0.508848
3134.04	0.615813
3135.31	0.62784
3136.58	0.828396
3137.85	0.502584
3139.12	0.662042
3140.39	0.821315
3141.66	0.563734
3142.93	0.750514
3144.2	0.87055
3145.47	1.12544
3146.74	0.871496
3148	0.940297
3149.27	0.822452
