200.388	0.407983
202.204	0.416003
204.019	0.425224
205.832	0.143764
207.646	-0.112618
209.459	0.335716
211.274	1.19569
213.087	0.305879
214.899	0.629152
216.711	0.757651
218.524	0.595561
220.335	0.628108
222.146	-0.0881367
223.956	-0.0530701
225.766	-0.307291
227.576	-0.150358
229.388	-0.0661392
231.197	0.234862
233.005	0.245954
234.813	-0.0559511
236.621	0.222227
238.429	0.044507
240.236	0.279132
242.045	0.154607
243.852	0.0556097
245.658	0.729003
247.464	-0.143544
249.269	0.212622
251.074	0.614203
252.879	0.047533
254.683	0.468799
256.487	-0.123334
258.291	-0.0392389
260.094	0.0946674
261.897	0.182347
263.702	-0.065443
265.504	-0.119361
267.306	1.15272
269.108	0.737815
270.909	-0.352978
272.71	-0.528736
274.511	0.33106
276.311	0.490127
278.111	-0.123725
279.91	-0.112637
281.709	-0.440366
283.508	0.553468
285.306	-0.0415668
287.105	-0.300079
288.9	0.473021
290.698	0.167469
292.495	-0.0643835
294.291	0.495076
296.088	-0.0203838
297.884	0.206667
299.679	0.386406
301.475	-0.317752
303.27	-0.138685
305.064	0.134618
306.858	0.287538
308.652	0.154059
310.444	1.14113
312.237	0.413866
314.03	0.83174
315.822	0.0133429
317.615	0.125463
319.406	0.47747
321.198	0.664206
322.987	0.852013
324.778	0.444097
326.568	0.465663
328.358	0.845492
330.148	0.197255
331.935	0.551765
333.724	0.30682
335.513	0.203302
337.301	0.887247
339.089	1.28179
340.875	0.574368
342.662	1.03803
344.449	0.449931
346.236	-0.0177279
348.02	0.136468
349.806	-0.0430574
351.592	-0.00758743
353.375	-0.330527
355.16	0.228425
356.944	0.0227127
358.728	0.650029
360.51	0.394296
362.294	-0.195122
364.077	0.0479136
365.858	-0.351565
367.64	0.625651
369.422	1.17334
371.202	0.108321
372.983	0.464591
374.764	0.630637
376.543	0.914424
378.324	0.25493
380.102	1.19965
381.881	1.22597
383.661	1.37131
385.438	1.18881
387.216	1.10188
388.993	1.36862
390.771	1.44848
392.548	0.918697
394.324	0.765404
396.101	1.29362
397.875	0.74168
399.651	0.917674
401.425	0.787919
403.201	0.610595
404.974	0.5265
406.749	-0.286246
408.524	1.01375
410.296	0.435037
412.07	0.396393
413.841	0.428574
415.614	0.414554
417.385	-0.185264
419.156	0.55308
420.928	-0.280598
422.698	0.598877
424.469	0.304103
426.238	0.0553675
428.009	0.0406179
429.777	0.236649
431.548	0.855094
433.315	-0.47419
435.083	0.332629
436.852	-0.362584
438.618	0.232399
440.387	0.051569
442.153	0.0096817
443.919	-0.104535
445.686	0.177878
447.451	0.247994
449.218	0.177198
450.982	0.0365181
452.746	0.269904
454.512	-0.406553
456.275	-0.126337
458.038	0.386197
459.803	-0.45172
461.565	-0.032074
463.327	0.156063
465.091	0.648395
466.852	0.0281544
468.613	-0.357275
470.374	0.00291348
472.136	0.247819
473.896	0.119821
475.655	-0.172985
477.415	0.626885
479.176	0.44661
480.934	0.218734
482.692	-0.288486
484.45	0.276723
486.21	0.0518742
487.967	0.388272
489.724	-0.0425949
491.481	0.670683
493.237	0.0774918
494.995	0.512413
496.75	1.06509
498.506	0.798478
500.26	0.507466
502.015	0.684716
503.771	0.415107
505.525	0.614052
507.279	0.435618
509.032	1.50231
510.785	1.81496
512.537	1.0435
514.289	1.04695
516.041	1.09603
517.793	1.47305
519.546	1.04945
521.297	0.836891
523.047	1.18766
524.797	1.39699
526.547	1.04306
528.297	1.06467
530.046	0.968982
531.795	0.966684
533.543	0.869953
535.291	0.280977
537.039	-0.00459003
538.787	0.0359154
540.534	0.494988
542.281	0.556211
544.027	0.826268
545.773	0.352039
547.519	0.389711
549.264	0.79845
551.01	-0.0439777
552.754	0.272192
554.499	0.102612
556.243	0.464543
557.987	-0.0732536
559.73	0.496317
561.474	-0.0165215
563.216	0.783127
564.959	-0.141759
566.701	0.198586
568.441	0.539274
570.182	-0.266768
571.923	0.511958
573.664	0.122077
575.405	-0.0367279
577.145	0.471413
578.885	-0.30434
580.624	0.274976
582.361	0.257532
584.1	0.0786572
585.839	0.634622
587.577	0.430556
589.315	-0.303943
591.052	0.272012
592.787	0.548346
594.524	0.456375
596.26	0.318415
597.997	-0.417754
599.732	0.249154
601.466	0.754162
603.201	0.567798
604.936	0.977834
606.67	0.490013
608.403	0.415257
610.136	-0.164515
611.87	-0.0321503
613.603	-0.128491
615.334	-0.178299
617.067	-0.15917
618.799	0.0198097
620.529	0.151868
622.26	0.351228
623.991	0.023675
625.72	-0.052186
627.451	0.398046
629.181	0.370419
630.909	-0.0885067
632.638	-0.0891371
634.368	-0.180058
636.095	0.208119
637.823	0.412183
639.551	-0.207923
641.277	-0.214349
643.005	0.073266
644.73	-0.0279093
646.457	0.00776958
648.184	0.181416
649.908	0.153222
651.634	0.196718
653.357	-0.05165
655.083	0.180434
656.806	0.506138
658.53	0.10409
660.253	0.430986
661.977	0.620037
663.7	0.190142
665.422	0.237619
667.145	0.374776
668.865	0.53406
670.588	0.0534191
672.308	0.443846
674.027	0.470573
675.749	0.430636
677.468	0.323004
679.188	0.0775337
680.907	0.497369
682.627	0.456118
684.345	0.781082
686.064	1.10436
687.781	0.620056
689.498	0.664324
691.216	-0.14444
692.932	2.93905
694.65	2.42824
696.366	2.90665
698.081	1.38062
699.797	-0.0995789
701.512	0.582451
703.228	0.688148
704.942	1.11455
706.655	0.575879
708.371	0.656778
710.083	1.01213
711.796	1.13758
713.51	0.667747
715.222	0.9527
716.934	0.574929
718.645	0.357585
720.358	0.824512
722.068	1.01752
723.779	0.84619
725.49	0.334014
727.2	-0.0639648
728.909	0.559567
730.618	0.43335
732.329	0.329643
734.037	0.904718
735.745	0.710162
737.453	1.05824
739.16	0.661802
740.869	1.07843
742.576	1.78843
744.282	1.03554
745.988	1.43244
747.694	1.26801
749.401	1.19493
751.107	1.4605
752.811	1.21
754.516	1.54571
756.22	1.16289
757.924	1.81697
759.627	1.54954
761.332	1.9818
763.035	2.0994
764.738	2.14918
766.44	2.31085
768.142	3.23936
769.843	2.69635
771.544	3.5303
773.245	3.41285
774.946	2.95564
776.646	2.92861
778.346	3.28735
780.046	2.11001
781.745	2.81097
783.444	2.99208
785.143	2.51567
786.841	3.03274
788.539	1.78097
790.237	2.11026
791.934	2.11985
793.631	2.08254
795.328	2.47355
797.024	1.76034
798.72	1.41024
800.416	1.7826
802.112	1.72853
803.807	1.81015
805.502	2.16134
807.196	2.12942
808.89	1.69212
810.584	1.4786
812.278	1.51113
813.971	2.05837
815.664	1.57462
817.354	1.96399
819.047	1.90576
820.739	1.31183
822.43	1.45553
824.122	1.82271
825.813	1.43312
827.503	1.38003
829.192	1.55226
830.882	1.17057
832.571	1.41519
834.261	1.48374
835.95	1.84335
837.637	1.5114
839.325	1.73622
841.013	1.80332
842.701	1.35524
844.389	1.4204
846.074	1.50852
847.761	1.1735
849.447	1.24313
851.131	1.65107
852.817	1.43408
854.503	1.32978
856.188	1.47221
857.871	1.52395
859.556	0.71913
861.24	1.71278
862.922	0.85867
864.606	1.60269
866.289	1.2642
867.97	0.969995
869.653	1.71267
871.336	0.943959
873.016	1.09979
874.698	1.02993
876.379	0.914927
878.058	0.980458
879.739	0.41387
881.418	0.794989
883.098	1.04004
884.778	0.516562
886.456	0.781908
888.135	1.45178
889.812	1.08219
891.49	1.32009
893.167	0.542939
894.845	0.778496
896.523	1.30487
898.198	0.84113
899.875	1.27476
901.55	0.407104
903.226	1.33121
904.901	1.26945
906.576	0.828558
908.25	0.300137
909.925	1.33258
911.598	1.00662
913.271	1.17095
914.945	1.20207
916.617	1.14446
918.291	1.39716
919.962	0.985236
921.635	0.950623
923.306	1.13817
924.978	0.421257
926.648	0.810801
928.318	0.870522
929.989	1.15205
931.659	0.706072
933.328	0.98848
934.998	0.719538
936.666	1.39941
938.336	0.580311
940.004	0.887136
941.671	0.64368
943.34	0.996593
945.007	1.23923
946.673	1.01733
948.339	0.440516
950.007	1.25245
951.672	0.518374
953.337	0.468465
955.004	0.0891571
956.669	0.94718
958.333	0.639448
959.997	0.996212
961.662	0.935318
963.326	0.299587
964.989	0.568375
966.651	-0.00573254
968.315	0.103388
969.977	-0.0327406
971.639	0.715111
973.301	0.821714
974.962	0.376776
976.624	0.508466
978.285	0.774336
979.945	0.653776
981.605	0.532827
983.264	0.311008
984.924	0.862232
986.583	1.03509
988.243	0.586608
989.901	0.469028
991.56	0.660351
993.217	0.652487
994.875	0.777153
996.532	0.107554
998.188	0.408882
999.845	0.819832
1001.5	0.61329
1003.16	1.30891
1004.81	1.16754
1006.47	1.00428
1008.12	1.25858
1009.78	0.481446
1011.43	0.648759
1013.09	1.05737
1014.74	0.852582
1016.39	0.779754
1018.05	0.554321
1019.7	0.657913
1021.35	0.456316
1023	1.37063
1024.65	1.47692
1026.31	1.86789
1027.96	1.42854
1029.61	2.36499
1031.26	2.3606
1032.91	1.93968
1034.56	1.8665
1036.21	1.57391
1037.86	1.41159
1039.51	1.64122
1041.16	2.0234
1042.8	2.47164
1044.45	1.18313
1046.1	0.440569
1047.75	1.35064
1049.39	0.676882
1051.04	0.829628
1052.69	0.548739
1054.33	0.39848
1055.98	0.617659
1057.62	0.249724
1059.27	0.859626
1060.91	0.360107
1062.56	1.1645
1064.2	0.946014
1065.85	0.596127
1067.49	0.462696
1069.13	0.589147
1070.77	0.562844
1072.42	0.688362
1074.06	0.966098
1075.7	0.940949
1077.34	0.678553
1078.98	0.937873
1080.62	1.60995
1082.27	-0.0164757
1083.91	0.958381
1085.55	1.41111
1087.18	1.16812
1088.82	1.37802
1090.46	1.45599
1092.1	1.66229
1093.74	1.60847
1095.38	1.72752
1097.02	1.28671
1098.65	0.611033
1100.29	1.3157
1101.93	0.708967
1103.56	0.685223
1105.2	0.340137
1106.84	0.619431
1108.47	0.360791
1110.11	0.445272
1111.74	0.721683
1113.38	0.631091
1115.01	0.560862
1116.64	0.876271
1118.28	0.290929
1119.91	0.413979
1121.54	0.152389
1123.18	0.576937
1124.81	0.488609
1126.44	0.636448
1128.07	1.14851
1129.7	0.463753
1131.33	0.741785
1132.97	0.186354
1134.6	0.336313
1136.23	-0.00589371
1137.86	0.377599
1139.49	0.289824
1141.11	0.307924
1142.74	0.77363
1144.37	0.172552
1146	0.382774
1147.63	0.146196
1149.26	0.0810194
1150.88	0.399755
1152.51	0.441533
1154.14	0.504269
1155.76	0.183496
1157.39	0.139382
1159.01	0.350848
1160.64	0.392871
1162.27	0.0957317
1163.89	0.437424
1165.51	0.609526
1167.14	0.207354
1168.76	0.0593996
1170.39	0.165039
1172.01	-0.0923357
1173.63	0.583147
1175.25	-0.14375
1176.88	-0.191658
1178.5	0.0995884
1180.12	0.200517
1181.74	0.00597382
1183.36	0.636836
1184.98	0.78107
1186.6	-0.617214
1188.22	-0.0526028
1189.84	0.593529
1191.46	0.520613
1193.08	0.404359
1194.7	0.476578
1196.32	0.842114
1197.94	0.328106
1199.55	0.486233
1201.17	0.353736
1202.79	-0.00571918
1204.41	-0.153688
1206.02	0.117685
1207.64	0.494514
1209.25	-0.00454044
1210.87	-0.191288
1212.48	-0.00411606
1214.1	0.160075
1215.71	-0.0527964
1217.33	-0.370956
1218.94	-0.00363636
1220.56	0.134436
1222.17	0.770559
1223.79	0.45354
1225.4	0.117743
1227.01	0.818439
1228.62	0.216702
1230.23	0.526371
1231.85	0.464911
1233.46	0.135921
1235.07	0.655484
1236.68	0.680163
1238.29	0.47843
1239.9	1.12507
1241.51	0.696697
1243.12	0.867791
1244.73	0.810626
1246.34	0.628331
1247.94	0.796852
1249.55	0.488745
1251.16	1.04928
1252.77	1.34095
1254.37	0.681829
1255.98	0.644263
1257.59	0.856096
1259.2	0.0138073
1260.8	0.951986
1262.41	0.731692
1264.01	0.884161
1265.62	0.974211
1267.22	0.35887
1268.83	1.04853
1270.43	0.804343
1272.03	0.331079
1273.64	0.748413
1275.24	0.791588
1276.85	0.668088
1278.45	0.916768
1280.05	1.10254
1281.65	0.563455
1283.25	1.16276
1284.85	0.976256
1286.46	0.604672
1288.06	0.668286
1289.66	0.526086
1291.26	1.10764
1292.86	0.945209
1294.46	1.33992
1296.06	1.21692
1297.66	0.968588
1299.25	0.88398
1300.85	0.756822
1302.45	1.08188
1304.05	0.376434
1305.65	0.823025
1307.24	1.00123
1308.84	0.912055
1310.43	1.64283
1312.03	0.488949
1313.63	1.13788
1315.22	1.60266
1316.82	0.842544
1318.41	0.981873
1320.01	1.05975
1321.6	1.09595
1323.2	0.927133
1324.79	1.30587
1326.38	1.17478
1327.98	0.739351
1329.57	0.528236
1331.16	1.10782
1332.76	0.395118
1334.35	0.412514
1335.94	1.25873
1337.53	1.0155
1339.12	0.872757
1340.71	1.01068
1342.3	1.14637
1343.89	1.05875
1345.48	1.37178
1347.07	1.14265
1348.66	0.454946
1350.25	0.59132
1351.84	0.569836
1353.43	0.770212
1355.01	1.15159
1356.6	0.394178
1358.19	0.795453
1359.77	0.636462
1361.36	0.336905
1362.95	0.495697
1364.53	0.713774
1366.12	1.07127
1367.71	0.612639
1369.29	0.215253
1370.88	0.57562
1372.46	0.539157
1374.04	0.364459
1375.63	0.150591
1377.21	0.354702
1378.8	0.717591
1380.38	0.343328
1381.96	0.46534
1383.54	0.725291
1385.13	0.308277
1386.71	0.209089
1388.29	0.249119
1389.87	0.150743
1391.45	0.331036
1393.03	0.234217
1394.61	0.276648
1396.19	0.061141
1397.77	0.380373
1399.35	0.421073
1400.93	0.203395
1402.51	0.757391
1404.09	0.697432
1405.67	0.539135
1407.24	0.559657
1408.82	1.09468
1410.4	0.0299139
1411.98	0.288798
1413.55	0.704926
1415.13	0.606876
1416.71	0.843384
1418.28	0.744175
1419.86	0.704447
1421.43	1.03984
1423.01	0.864675
1424.58	0.809236
1426.16	0.676284
1427.73	0.976879
1429.31	0.90329
1430.88	1.00601
1432.45	0.891153
1434.02	1.22791
1435.6	1.05267
1437.17	1.11363
1438.74	1.1949
1440.31	1.3164
1441.88	1.65499
1443.45	1.46366
1445.03	1.68543
1446.6	1.14085
1448.17	1.7561
1449.74	1.66401
1451.3	1.592
1452.87	1.95316
1454.44	1.94113
1456.01	1.37815
1457.58	1.83768
1459.15	1.48917
1460.72	1.59161
1462.28	1.12164
1463.85	1.27973
1465.42	0.748663
1466.98	0.846419
1468.55	1.41557
1470.12	0.866416
1471.68	1.65274
1473.25	0.674514
1474.81	1.24658
1476.38	0.720891
1477.94	0.80319
1479.51	0.708987
1481.07	0.732316
1482.63	1.06911
1484.2	1.09217
1485.76	1.15408
1487.32	0.725619
1488.88	0.668207
1490.45	1.27443
1492.01	1.11519
1493.57	0.993183
1495.13	0.772133
1496.69	0.901299
1498.25	0.835267
1499.81	0.867072
1501.37	0.996878
1502.93	0.739669
1504.49	1.00696
1506.05	0.151276
1507.61	0.263638
1509.17	0.258952
1510.73	0.330425
1512.28	0.400927
1513.84	0.451625
1515.4	0.694555
1516.96	0.0926762
1518.51	0.624323
1520.07	0.484907
1521.63	0.499085
1523.18	-0.136933
1524.74	0.33516
1526.29	0.42385
1527.85	-0.4216
1529.4	0.370103
1530.96	0.646834
1532.51	0.449208
1534.06	0.290771
1535.62	0.45521
1537.17	0.393411
1538.72	-0.139509
1540.28	0.403816
1541.83	0.211475
1543.38	0.1888
1544.93	0.297613
1546.48	0.687755
1548.03	0.288874
1549.59	0.0969601
1551.14	0.560966
1552.69	0.65036
1554.24	0.740433
1555.79	0.346025
1557.34	0.345665
1558.88	0.925453
1560.43	0.182159
1561.98	0.391826
1563.53	0.714449
1565.08	0.683164
1566.62	0.0547981
1568.17	0.620562
1569.72	0.812796
1571.27	0.706026
1572.81	0.748315
1574.36	0.342446
1575.9	0.029912
1577.45	0.65094
1579	0.413592
1580.54	0.587503
1582.09	0.35128
1583.63	0.582696
1585.17	0.870984
1586.72	1.04777
1588.26	0.813363
1589.8	0.615997
1591.35	0.549127
1592.89	0.874997
1594.43	0.957292
1595.97	1.20828
1597.52	0.897518
1599.06	1.44961
1600.6	0.839815
1602.14	0.886732
1603.68	0.896138
1605.22	0.773458
1606.76	1.47637
1608.3	1.12521
1609.84	1.29815
1611.38	0.848798
1612.92	0.717252
1614.46	1.16648
1615.99	0.545594
1617.53	1.18175
1619.07	0.637931
1620.61	0.657742
1622.14	0.978337
1623.68	0.90644
1625.22	0.404084
1626.75	0.76216
1628.29	0.389266
1629.82	1.23097
1631.36	0.669096
1632.9	0.761222
1634.43	1.07748
1635.96	0.964979
1637.5	1.20777
1639.03	0.723863
1640.57	0.985833
1642.1	1.00489
1643.63	1.19052
1645.16	1.05847
1646.7	1.31626
1648.23	1.74057
1649.76	1.459
1651.29	1.19726
1652.82	1.66031
1654.36	1.03013
1655.89	1.55015
1657.42	1.42129
1658.95	1.31034
1660.48	1.513
1662.01	1.10355
1663.53	1.10029
1665.06	0.837901
1666.59	1.05606
1668.12	1.14574
1669.65	0.573065
1671.18	1.07089
1672.7	0.298402
1674.23	0.834236
1675.76	1.29597
1677.29	1.09414
1678.81	0.983459
1680.34	0.743219
1681.86	0.81493
1683.39	0.243535
1684.91	0.517048
1686.44	0.625447
1687.96	0.93572
1689.49	0.293419
1691.01	0.384382
1692.54	-0.0370979
1694.06	0.328321
1695.58	1.04057
1697.11	0.180423
1698.63	0.398372
1700.15	0.542678
1701.67	0.102709
1703.2	0.0638065
1704.72	0.807529
1706.24	0.330528
1707.76	0.181306
1709.28	0.0322456
1710.8	0.0286884
1712.32	0.279128
1713.84	0.221288
1715.36	0.380832
1716.88	0.304899
1718.4	0.373558
1719.91	0.369796
1721.43	0.438338
1722.95	0.0925846
1724.47	0.0544529
1725.99	0.323588
1727.5	-0.216379
1729.02	0.108613
1730.54	0.306544
1732.05	0.127604
1733.57	-0.0683851
1735.09	0.0310154
1736.6	-0.131856
1738.12	-0.00908184
1739.63	0.114269
1741.15	-0.000346184
1742.66	0.560408
1744.18	0.277129
1745.69	0.465256
1747.2	-0.21059
1748.72	-0.0492764
1750.23	-0.405539
1751.74	0.400051
1753.25	0.332427
1754.77	0.079895
1756.28	0.0769634
1757.79	-0.0720649
1759.3	0.128661
1760.81	0.519434
1762.32	0.198197
1763.83	0.230237
1765.34	0.0108585
1766.85	-0.291702
1768.36	-0.220641
1769.87	-0.387742
1771.38	0.0792408
1772.89	-0.0324659
1774.4	0.177391
1775.91	-0.146795
1777.41	0.128225
1778.92	0.0330825
1780.43	-0.0957866
1781.94	0.148881
1783.44	0.28332
1784.95	0.140141
1786.45	-0.0383573
1787.96	0.351671
1789.47	0.222814
1790.97	0.282567
1792.48	0.0321755
1793.98	0.176813
1795.48	0.234298
1796.99	0.427855
1798.49	0.170723
1800	0.123334
1801.5	-0.016696
1803	0.192407
1804.51	-0.070642
1806.01	0.0889826
1807.51	0.167688
1809.01	0.211313
1810.51	-0.0116963
1812.02	0.0793743
1813.52	0.445165
1815.02	-0.117786
1816.52	-0.0927057
1818.02	0.0552349
1819.52	-0.0995741
1821.02	0.00757217
1822.52	0.0393291
1824.02	0.0928226
1825.51	0.113415
1827.01	0.225555
1828.51	0.295773
1830.01	0.0867682
1831.51	0.135224
1833	0.133468
1834.5	-0.0569386
1836	0.166861
1837.5	0.0081706
1838.99	0.0691037
1840.49	0.0158358
1841.98	0.0730391
1843.48	-0.182173
1844.97	0.00262976
1846.47	0.0200205
1847.96	0.390927
1849.46	0.133084
1850.95	-0.27132
1852.45	-0.0099144
1853.94	0.118619
1855.43	0.261093
1856.92	0.0954828
1858.42	0.158483
1859.91	0.0405078
1861.4	-0.0697703
1862.89	-0.338766
1864.39	0.112394
1865.88	0.240223
1867.37	0.0598617
1868.86	0.117401
1870.35	0.184556
1871.84	0.39096
1873.33	0.0204525
1874.82	0.00805712
1876.31	-0.0332632
1877.8	-0.196761
1879.29	-0.0867963
1880.77	0.264496
1882.26	-0.0764461
1882.51	-0.158473
1884	0.311851
1885.5	-0.246971
1886.99	-0.0222259
1888.48	0.184445
1889.98	0.28665
1891.47	0.0591631
1892.97	0.233055
1894.46	0.0259609
1895.95	0.185286
1897.44	0.0323267
1898.93	-0.0512013
1900.42	-0.274763
1901.92	0.283175
1903.41	0.26549
1904.9	0.385632
1906.39	-0.276886
1907.88	-0.244143
1909.37	0.0146894
1910.86	0.222031
1912.35	0.152461
1913.84	-0.00331736
1915.32	0.101145
1916.81	-0.0374308
1918.3	-0.0723939
1919.79	-0.0384049
1921.28	0.0127935
1922.76	0.393291
1924.25	0.185734
1925.74	0.134991
1927.22	-0.313039
1928.71	0.278233
1930.2	0.0211148
1931.68	0.352075
1933.17	-0.0627909
1934.65	0.0749774
1936.14	-0.0136867
1937.62	0.156106
1939.11	-0.0721312
1940.59	0.511723
1942.08	0.198217
1943.56	-0.165837
1945.04	-0.270247
1946.53	-0.16742
1948.01	0.0385561
1949.49	-0.514199
1950.97	0.258543
1952.45	0.289708
1953.94	0.251548
1955.42	0.40238
1956.9	0.0381651
1958.38	0.00104666
1959.86	0.35912
1961.34	0.168634
1962.82	-0.0215282
1964.3	0.0967073
1965.78	0.0945392
1967.26	-0.216279
1968.74	0.0713973
1970.22	0.0505233
1971.69	0.388141
1973.17	0.264373
1974.65	0.413757
1976.13	0.256289
1977.61	-0.326639
1979.08	0.555118
1980.56	0.193951
1982.03	0.0710993
1983.51	-0.238684
1984.99	-0.46342
1986.46	-0.230087
1987.94	0.206229
1989.41	0.134104
1990.89	0.147254
1992.36	0.347218
1993.84	-0.0438552
1995.31	0.10684
1996.78	0.325374
1998.26	0.138417
1999.73	-0.183831
2001.2	0.253057
2002.68	0.233714
2004.15	0.146833
2005.62	0.00976276
2007.09	0.311342
2008.56	0.360943
2010.04	0.259744
2011.51	0.293695
2012.98	0.0752139
2014.45	0.260328
2015.92	-0.0768385
2017.39	0.308636
2018.86	0.491367
2020.33	0.27018
2021.8	0.418545
2023.27	0.0970526
2024.74	0.531526
2026.2	-0.0732474
2027.67	0.514191
2029.14	-0.0879793
2030.61	0.0489368
2032.07	0.220283
2033.54	0.392156
2035.01	0.379411
2036.47	-0.087234
2037.94	0.100738
2039.41	0.120395
2040.87	-0.0112815
2042.34	-0.344491
2043.8	0.264604
2045.27	0.252315
2046.73	0.307999
2048.2	0.71775
2049.66	0.672596
2051.12	0.609653
2052.59	0.393517
2054.05	0.108305
2055.51	0.361273
2056.98	0.292649
2058.44	0.172832
2059.9	0.440372
2061.36	-0.083312
2062.82	0.269296
2064.29	0.319658
2065.75	0.135258
2067.21	0.338641
2068.67	0.475228
2070.13	0.645783
2071.59	0.244035
2073.05	0.515561
2074.51	0.147027
2075.97	0.586483
2077.43	0.60464
2078.88	0.184609
2080.34	0.707198
2081.8	0.522058
2083.26	0.555226
2084.72	0.486764
2086.17	0.770957
2087.63	0.432243
2089.09	0.395983
2090.54	0.762714
2092	0.356727
2093.46	0.588713
2094.91	0.484817
2096.37	0.548216
2097.82	0.728189
2099.28	-0.080071
2100.73	0.33341
2102.19	0.696297
2103.64	0.324641
2105.09	0.57203
2106.55	0.670243
2108	0.786
2109.46	0.918683
2110.91	0.650741
2112.36	0.69844
2113.81	0.528116
2115.27	1.13869
2116.72	1.03255
2118.17	1.25907
2119.62	1.03831
2121.07	0.952281
2122.52	1.13342
2123.97	0.652517
2125.42	1.38272
2126.87	1.06805
2128.32	1.06753
2129.77	1.13204
2131.22	1.21187
2132.67	1.34052
2134.12	1.07196
2135.57	1.26736
2137.01	1.53004
2138.46	1.38118
2139.91	1.0523
2141.36	1.22071
2142.8	1.53913
2144.25	1.34557
2145.7	1.78089
2147.14	1.68647
2148.59	1.40919
2150.03	1.76047
2151.48	1.77956
2152.92	1.97997
2154.37	1.64937
2155.81	1.60001
2157.26	1.99798
2158.7	1.66775
2160.15	1.76945
2161.59	1.97228
2163.03	1.67967
2164.48	1.88588
2165.92	1.94377
2167.36	2.13458
2168.8	1.95888
2170.25	1.64824
2171.69	1.96758
2173.13	1.96902
2174.57	1.93586
2176.01	2.08506
2177.45	2.118
2178.89	1.53652
2180.33	1.87041
2181.77	1.63985
2183.21	1.69248
2184.65	1.81194
2186.09	1.39915
2187.53	1.48541
2188.97	1.82137
2190.41	1.39175
2191.84	1.57772
2193.28	1.48001
2194.72	1.73072
2196.16	1.68003
2197.59	1.16164
2199.03	1.25748
2200.47	1.31901
2201.9	1.16447
2203.34	1.54163
2204.78	1.48822
2206.21	1.33639
2207.65	1.66561
2209.08	1.49761
2210.51	1.09733
2211.95	1.259
2213.38	1.3867
2214.82	0.869922
2216.25	1.08065
2217.68	0.962181
2219.12	1.27368
2220.55	1.07469
2221.98	0.793544
2223.42	0.907379
2224.85	0.855239
2226.28	0.719394
2227.71	0.911131
2229.14	1.23275
2230.57	0.76551
2232	0.512134
2233.43	0.832462
2234.86	1.00559
2236.29	0.705662
2237.72	0.995291
2239.15	0.405157
2240.58	0.730636
2242.01	0.519325
2243.44	0.472193
2244.87	0.800534
2246.3	0.948906
2247.73	0.590297
2249.15	0.572398
2250.58	0.617783
2252.01	0.433698
2253.43	0.720817
2254.86	0.861429
2256.29	0.0776906
2257.71	0.140602
2259.14	0.432898
2260.56	0.614059
2261.99	0.618871
2263.41	0.170315
2264.84	0.582802
2266.26	0.214989
2267.69	0.301644
2269.11	0.176043
2270.54	0.131107
2271.96	0.24856
2273.38	0.512494
2274.81	0.369366
2276.23	0.454456
2277.65	0.441958
2279.07	0.462115
2280.49	0.302858
2281.92	0.437014
2283.34	0.342756
2284.76	0.395359
2286.18	0.546105
2287.6	0.207414
2289.02	0.228202
2290.44	-0.257202
2291.86	0.238042
2293.28	0.0796509
2294.7	0.559202
2296.12	0.400725
2297.54	0.373071
2298.96	0.345438
2300.38	0.547393
2301.79	0.19226
2303.21	0.362003
2304.63	0.335083
2306.05	0.0781536
2307.46	-0.0149965
2308.88	-0.0100298
2310.3	0.0602455
2311.71	0.179589
2313.13	0.117982
2314.55	0.583368
2315.96	-0.152326
2317.38	0.347542
2318.79	0.123013
2320.21	0.26091
2321.62	-0.0144711
2323.03	0.236607
2324.45	0.188754
2325.86	0.419536
2327.27	0.401359
2328.69	0.778078
2330.1	0.298021
2331.51	0.510661
2332.93	0.427842
2334.34	0.428078
2335.75	-0.196591
2337.16	0.362828
2338.57	0.131952
2339.99	0.0810947
2341.4	0.128057
2342.81	-0.153681
2344.22	0.0405235
2345.63	0.0216336
2347.04	-0.0461345
2348.45	-0.13016
2349.86	0.243667
2351.26	-0.0211787
2352.67	0.0729265
2354.08	-0.372361
2355.49	-0.0511909
2356.9	0.285319
2358.31	-0.0783167
2359.71	0.208822
2361.12	0.0572195
2362.53	-0.0292125
2363.94	-0.261312
2365.34	0.186533
2366.75	-0.158319
2368.15	-0.162941
2369.56	0.188142
2370.97	0.185126
2372.37	-0.0584378
2373.78	0.391491
2375.18	-0.124416
2376.59	0.325181
2377.99	-0.143124
2379.39	-0.12999
2380.8	0.202865
2382.2	0.261267
2383.61	-0.273798
2385.01	0.104017
2386.41	0.329456
2387.81	0.347666
2389.22	-0.0716152
2390.62	0.291478
2392.02	0.0182023
2393.42	-0.0948014
2394.82	0.0951571
2396.22	-0.000628948
2397.63	-0.0481544
2399.02	-0.428858
2400.43	0.0964899
2401.82	-0.172262
2403.23	0.321407
2404.62	0.100088
2406.02	-0.0741954
2407.42	-0.423635
2408.82	0.336802
2410.22	0.224373
2411.62	0.349885
2413.02	-0.0308056
2414.41	0.0014205
2415.81	-0.250136
2417.21	0.544241
2418.61	0.53205
2420	0.171751
2421.4	0.0171556
2422.79	0.305817
2424.19	-0.102828
2425.59	-0.162905
2426.98	0.443065
2428.38	0.0195708
2429.77	0.389544
2431.17	-0.286804
2432.56	0.369823
2433.96	0.391349
2435.35	-0.112299
2436.74	0.256547
2438.14	0.401727
2439.53	0.577546
2440.92	0.387242
2442.32	-0.263749
2443.71	0.196289
2445.1	0.100661
2446.49	0.0367007
2447.88	0.115316
2449.28	-0.202154
2450.67	0.240836
2452.06	-0.123293
2453.45	0.352055
2454.84	0.163454
2456.23	-0.419987
2457.62	0.167433
2459.01	0.011272
2460.4	-0.0346079
2461.79	-0.0811067
2463.18	0.0456557
2464.57	-0.0809312
2465.96	-0.00235367
2467.34	0.107652
2468.73	-0.0349355
2470.12	-0.0198383
2471.51	0.0421748
2472.89	-0.116969
2474.28	0.180015
2475.67	0.303004
2477.05	0.362617
2478.44	0.123702
2479.83	-0.0205398
2481.21	0.24326
2482.6	0.318587
2483.98	0.0333591
2485.37	-0.142584
2486.75	0.149633
2488.14	-0.246297
2489.52	0.573755
2490.9	0.0530486
2492.29	0.109234
2493.67	0.0885148
2495.06	0.317128
2496.44	0.00389481
2497.82	-0.029366
2499.2	-0.0778337
2500.59	-0.0336843
2501.97	0.00978422
2503.35	-0.132886
2504.73	0.125065
2506.11	0.0892124
2507.49	0.0686297
2508.88	0.324921
2510.26	0.18172
2511.63	-0.0987372
2513.01	-0.163456
2514.39	-0.0742254
2515.77	0.275768
2517.15	0.0446801
2518.53	-0.231568
2519.91	0.363625
2521.29	0.0416188
2522.67	0.10105
2524.05	0.0987158
2525.42	0.492055
2526.8	-0.090044
2528.18	-0.199202
2529.56	0.0119605
2530.93	0.0569587
2532.31	0.0273089
2533.69	0.105119
2535.06	0.137929
2536.44	0.018796
2537.81	-0.222369
2539.19	0.295185
2540.56	0.0678267
2541.94	0.067986
2543.31	0.0683627
2544.69	0.160429
2546.06	-0.00438404
2547.44	0.0896521
2548.81	-0.0583477
2550.18	-0.342888
2551.56	0.0246997
2552.93	0.133619
2554.3	0.241697
2555.68	0.16694
2557.05	-0.075078
2558.42	-0.195758
2559.79	-0.0584641
2561.16	-0.148155
2562.53	0.429483
2563.9	0.158904
2565.28	0.131158
2566.64	0.240003
2568.02	0.182232
2569.38	0.169929
2570.76	-0.084878
2572.12	0.145361
2573.49	0.224115
2574.86	-0.0760403
2576.23	0.154427
2577.6	0.111948
2578.97	0.281574
2580.34	0.147658
2581.7	0.377324
2583.07	0.0456753
2584.44	-0.043541
2585.81	-0.0569911
2587.17	0.263103
2588.54	-0.0986996
2589.91	0.191288
2591.27	0.0416861
2592.64	0.240238
2594	0.377477
2595.37	0.0292044
2596.73	0.225297
2598.1	0.223879
2599.46	0.131437
2600.83	-0.0363669
2602.19	-0.18849
2603.55	-0.022944
2604.92	-0.158883
2606.28	-0.14372
2607.64	-0.174048
2609.01	0.0964365
2610.37	0.681961
2611.73	0.347452
2613.09	0.0877242
2614.46	0.0982518
2615.82	0.138558
2617.18	-0.0159092
2618.54	0.339598
2619.9	0.335984
2621.26	0.018991
2622.62	-0.147701
2623.98	0.0891886
2625.34	0.101888
2626.7	-0.109307
2628.06	0.126575
2629.42	0.287413
2630.78	0.462708
2632.14	0.161917
2633.5	0.0249624
2634.86	-0.0524211
2636.22	0.24105
2637.57	0.267313
2638.93	0.323187
2640.29	-0.331043
2641.64	0.154259
2643	0.0333834
2644.36	0.281887
2645.72	0.426715
2647.07	0.187725
2648.43	-0.080904
2649.78	-0.0553803
2651.14	0.219474
2652.49	-0.167352
2653.85	0.0042758
2655.2	0.293417
2656.56	0.15823
2657.91	-0.034379
2659.27	0.139665
2660.62	-0.344106
2661.97	-0.111403
2663.33	0.179021
2664.68	-0.0862236
2666.03	0.115047
2667.38	0.0824423
2668.74	0.326484
2670.09	-0.21535
2671.44	0.0437069
2672.79	-0.0167551
2674.14	0.228305
2675.49	0.255852
2676.84	0.356381
2678.2	0.05128
2679.55	0.138512
2680.89	0.0525622
2682.24	0.054554
2683.59	0.0429835
2684.94	0.365779
2686.29	0.0362206
2687.64	0.344971
2688.99	0.231914
2690.34	0.0739322
2691.69	0.320935
2693.04	0.232844
2694.38	0.274547
2695.73	0.0696735
2697.08	-0.149004
2698.43	-0.134836
2699.77	0.228111
2701.12	0.23043
2702.46	0.262935
2703.81	0.310805
2705.16	0.243161
2706.5	0.306042
2707.85	0.528388
2709.19	0.0247397
2710.54	0.130333
2711.88	0.105042
2713.23	0.0505514
2714.57	0.475655
2715.92	0.159421
2717.26	0.49737
2718.6	0.0206127
2719.95	0.372747
2721.29	0.608214
2722.63	0.173809
2723.97	0.0446224
2725.32	0.293533
2726.66	-0.243847
2728	0.397459
2729.34	0.587323
2730.68	0.296852
2732.02	-0.139061
2733.36	0.341646
2734.7	0.50239
2736.04	0.299661
2737.39	0.431573
2738.72	0.127157
2740.06	0.0552597
2741.4	-0.118774
2742.74	-0.104259
2744.08	0.185838
2745.42	0.0248919
2746.76	-0.165313
2748.1	-0.0942297
2749.44	0.23798
2750.77	0.352525
2752.11	0.394693
2753.45	0.321079
2754.78	0.131749
2756.12	0.130927
2757.46	0.405344
2758.79	-0.000553608
2760.13	0.274265
2761.47	-0.0149922
2762.8	0.274972
2764.14	0.14555
2765.47	0.464651
2766.81	0.0744486
2768.14	0.305597
2769.48	0.0150537
2770.81	-0.0451441
2772.14	0.32691
2773.48	0.192518
2774.81	-0.0141711
2776.14	0.0387335
2777.48	-0.0233126
2778.81	0.303432
2780.14	-0.102766
2781.47	0.00882435
2782.81	0.105982
2784.14	-0.0408487
2785.47	-0.101513
2786.8	0.110171
2788.13	-0.565519
2789.46	0.0763617
2790.79	-0.16835
2792.12	0.216811
2793.46	0.13041
2794.79	0.0726643
2796.11	0.300447
2797.44	0.0991426
2798.77	0.354432
2800.1	0.00973606
2801.43	-0.206476
2802.76	0.17621
2804.09	-0.0259809
2805.42	0.29868
2806.74	0.138517
2808.07	0.347862
2809.4	-0.196696
2810.73	0.0122514
2812.05	0.0652485
2813.38	-0.0085907
2814.71	0.0888872
2816.03	0.357533
2817.36	0.0458975
2818.68	0.174126
2820.01	-0.0661497
2821.33	0.132602
2822.66	0.359128
2823.98	0.230863
2825.31	0.272341
2826.63	0.299666
2827.96	0.38402
2829.28	0.341388
2830.61	0.440697
2831.93	0.087194
2833.25	0.22909
2834.57	0.314103
2835.9	0.356251
2837.22	0.794131
2838.54	0.651472
2839.86	0.635984
2841.18	0.634721
2842.51	1.18505
2843.83	0.774688
2845.15	1.09986
2846.47	1.70819
2847.79	1.65261
2849.11	1.65359
2850.43	1.62603
2851.75	1.56978
2853.07	1.66854
2854.39	1.6963
2855.71	1.738
2857.03	2.14696
2858.35	1.62363
2859.67	1.96189
2860.98	1.69274
2862.3	1.5787
2863.62	1.90193
2864.94	1.87202
2866.25	1.82799
2867.57	2.15086
2868.89	2.20604
2870.21	2.0078
2871.52	2.23263
2872.84	2.38668
2874.15	2.42733
2875.47	2.17126
2876.78	2.22423
2878.1	2.45938
2879.42	2.46902
2880.73	2.43672
2882.04	2.47538
2883.36	2.36039
2884.67	2.55517
2885.99	2.77844
2887.3	2.70694
2888.61	2.46672
2889.93	2.38029
2891.24	2.53158
2892.55	2.30382
2893.87	2.91664
2895.18	2.57704
2896.49	2.50433
2897.8	2.78235
2899.11	2.65537
2900.42	2.78089
2901.74	2.62701
2903.05	2.38938
2904.36	2.64144
2905.67	2.8937
2906.98	3.25833
2908.29	3.55373
2909.6	3.4162
2910.91	3.71294
2912.22	3.25392
2913.53	3.3821
2914.83	3.38315
2916.14	3.85874
2917.45	3.54906
2918.76	3.81235
2920.07	3.93545
2921.37	4.49247
2922.68	3.98788
2923.99	4.18351
2925.3	4.36612
2926.6	4.61918
2927.91	4.60669
2929.22	4.32824
2930.52	4.53861
2931.83	4.76252
2933.13	4.39909
2934.44	4.66465
2935.74	4.60882
2937.05	4.81866
2938.35	4.17622
2939.66	4.42836
2940.96	4.9045
2942.27	4.38925
2943.57	3.91685
2944.87	3.30556
2946.18	3.93952
2947.48	3.81896
2948.78	3.83807
2950.09	3.43622
2951.39	3.32681
2952.69	3.81796
2953.99	3.32778
2955.29	3.27136
2956.6	2.97772
2957.9	3.11961
2959.2	3.20773
2960.5	3.31221
2961.8	3.36247
2963.1	3.28721
2964.4	2.67788
2965.7	3.2326
2967	2.77461
2968.3	2.76505
2969.6	2.55799
2970.9	2.40698
2972.2	2.65005
2973.49	2.33063
2974.79	2.5037
2976.09	2.18356
2977.39	2.01721
2978.69	2.52534
2979.98	2.07465
2981.28	2.20007
2982.58	2.05768
2983.88	2.2812
2985.17	1.78867
2986.47	1.85968
2987.76	1.66488
2989.06	1.35847
2990.36	1.72682
2991.65	1.34993
2992.95	1.19709
2994.24	1.25407
2995.54	0.818496
2996.83	1.1268
2998.12	0.690885
2999.42	1.19535
3000.71	1.04081
3002	1.2653
3003.3	0.803379
3004.59	0.537938
3005.88	0.482521
3007.18	0.314695
3008.47	0.762001
3009.76	0.634807
3011.05	-0.247323
3012.35	0.309591
3013.64	0.140205
3014.93	0.501103
3016.22	0.471981
3017.51	0.513103
3018.8	0.304129
3020.09	0.582199
3021.38	0.831795
3022.67	0.399797
3023.96	0.0648298
3025.25	0.104205
3026.54	0.30953
3027.83	0.224244
3029.12	0.0155425
3030.41	0.0707974
3031.69	-0.0109715
3032.98	-0.312743
3034.27	-0.117238
3035.56	0.353645
3036.85	0.161255
3038.13	-0.128677
3039.42	0.323651
3040.71	0.443821
3041.99	0.151151
3043.28	0.133367
3044.57	-0.0205936
3045.85	0.100526
3047.14	0.0455008
3048.42	0.128896
3049.71	-0.0181394
3050.99	-0.122945
3052.28	0.0321755
3053.56	-0.126514
3054.85	0.464689
3056.13	0.318334
3057.42	0.103066
3058.7	0.377875
3059.98	0.0666714
3061.27	0.246003
3062.55	0.493912
3063.83	0.0493159
3065.11	0.0819468
3066.4	0.373968
3067.68	-0.012991
3068.96	-0.07336
3070.24	0.0292997
3071.52	0.0361285
3072.8	0.0828457
3074.09	0.278122
3075.37	-0.247624
3076.65	0.0824795
3077.93	-0.0760789
3079.21	-0.152267
3080.49	0.166114
3081.77	0.390708
3083.05	-0.170492
3084.32	0.0692554
3085.61	-0.152253
3086.88	-0.347001
3088.16	0.000673771
3089.44	0.0492249
3090.72	0.138134
3092	-0.0715551
3093.27	0.12589
3094.55	0.228584
3095.83	-0.278657
3097.11	-0.406049
3098.38	0.103601
3099.66	0.233537
3100.94	0.051795
3102.21	-0.0214367
3103.49	-0.0131621
3104.76	-0.126295
3106.04	0.221328
3107.31	-0.161136
3108.59	0.35041
3109.86	0.0372686
3111.14	-0.112759
3112.41	0.0628076
3113.69	0.157549
3114.96	0.171069
3116.23	-0.00558233
3117.51	0.156141
3118.78	-0.0219984
3120.05	-0.13311
3121.33	0.202567
3122.6	0.29364
3123.87	0.167762
3125.14	0.204654
3126.42	0.255429
3127.69	0.198405
3128.96	0.25006
3130.23	0.139738
3131.5	0.313474
3132.77	0.0546322
3134.04	0.106402
3135.31	0.0767627
3136.58	-0.00718164
3137.85	0.205241
3139.12	0.026432
3140.39	0.0901108
3141.66	0.584103
3142.93	0.0160513
3144.2	0.483085
3145.47	0.0913663
3146.74	0.156566
3148	0.249007
3149.27	0.542688
