200.388	-0.048584
202.204	-0.0172567
204.019	0.0148544
205.832	-0.14687
207.646	0.785682
209.459	0.112901
211.274	0.071043
213.087	-0.166454
214.899	0.201498
216.711	0.156095
218.524	0.498154
220.335	-0.224816
222.146	-0.268883
223.956	-0.142977
225.766	0.152369
227.576	0.39908
229.388	-0.1759
231.197	-0.147721
233.005	0.0729389
234.813	0.824027
236.621	-0.35279
238.429	-0.1776
240.236	0.21672
242.045	0.275749
243.852	-0.242968
245.658	0.347856
247.464	0.406379
249.269	0.0033617
251.074	0.273208
252.879	-0.18402
254.683	0.659928
256.487	-0.330001
258.291	-0.113434
260.094	-0.0401907
261.897	0.516501
263.702	0.737473
265.504	0.453453
267.306	-0.023243
269.108	-0.452353
270.909	0.564056
272.71	0.59087
274.511	0.326828
276.311	-0.0111923
278.111	0.347914
279.91	0.584202
281.709	0.697695
283.508	0.881146
285.306	0.197713
287.105	-0.125247
288.9	-0.255904
290.698	-0.433661
292.495	0.538861
294.291	0.195798
296.088	0.476077
297.884	-0.127188
299.679	-0.0128794
301.475	-0.328822
303.27	0.285761
305.064	0.373513
306.858	-0.589327
308.652	0.188733
310.444	-0.248791
312.237	0.243919
314.03	0.45207
315.822	-0.0286398
317.615	1.01636
319.406	0.395776
321.198	0.323953
322.987	0.3481
324.778	-0.00913048
326.568	0.110747
328.358	0.493285
330.148	0.756036
331.935	0.0850201
333.724	0.0577812
335.513	0.315611
337.301	0.499401
339.089	0.178597
340.875	0.525987
342.662	0.704865
344.449	0.572805
346.236	0.369593
348.02	0.26261
349.806	0.323233
351.592	0.503148
353.375	0.467627
355.16	0.812733
356.944	0.107068
358.728	0.711448
360.51	0.313642
362.294	0.153399
364.077	0.277944
365.858	1.09049
367.64	0.262969
369.422	0.811441
371.202	0.69462
372.983	-0.0378752
374.764	0.62521
376.543	0.649404
378.324	0.721153
380.102	-0.0309286
381.881	0.113819
383.661	0.42415
385.438	0.899856
387.216	-0.174586
388.993	0.397107
390.771	0.476221
392.548	0.227293
394.324	0.589515
396.101	0.0831566
397.875	0.445786
399.651	0.972686
401.425	0.888459
403.201	0.427776
404.974	0.553517
406.749	0.0914068
408.524	0.0983925
410.296	0.22237
412.07	-0.0761509
413.841	0.353168
415.614	0.243378
417.385	0.673988
419.156	1.22261
420.928	-0.246809
422.698	0.231421
424.469	0.0282984
426.238	-0.246161
428.009	-0.42749
429.777	-0.0459347
431.548	0.335479
433.315	0.106883
435.083	-0.14488
436.852	0.682934
438.618	0.266195
440.387	0.106301
442.153	0.4841
443.919	-0.500264
445.686	0.178201
447.451	0.45649
449.218	-0.224992
450.982	0.356425
452.746	-0.0433302
454.512	0.304178
456.275	0.348116
458.038	0.112361
459.803	-0.00665092
461.565	0.0843811
463.327	0.52532
465.091	-0.263297
466.852	0.1591
468.613	0.0728235
470.374	0.709188
472.136	0.323097
473.896	0.168712
475.655	0.80444
477.415	0.646297
479.176	0.206716
480.934	-0.117357
482.692	0.443725
484.45	0.167385
486.21	0.521771
487.967	0.552193
489.724	0.631319
491.481	0.314783
493.237	0.27872
494.995	0.196037
496.75	0.487637
498.506	0.0297556
500.26	-0.101072
502.015	0.753023
503.771	0.104396
505.525	0.0648689
507.279	0.329723
509.032	0.828601
510.785	0.573229
512.537	0.575074
514.289	0.551921
516.041	0.739154
517.793	1.23081
519.546	0.992316
521.297	1.03521
523.047	0.302582
524.797	-0.0774155
526.547	0.57516
528.297	0.570562
530.046	0.636179
531.795	0.420283
533.543	0.157075
535.291	0.431115
537.039	0.890343
538.787	-0.170245
540.534	0.0762911
542.281	0.787362
544.027	0.12369
545.773	0.158688
547.519	0.425855
549.264	0.298532
551.01	0.241184
552.754	0.46172
554.499	0.335366
556.243	0.902033
557.987	0.706959
559.73	-0.316679
561.474	-0.163982
563.216	0.242017
564.959	0.785884
566.701	-0.00264454
568.441	0.0140524
570.182	-0.12894
571.923	-0.522943
573.664	0.162779
575.405	-0.0904255
577.145	0.185609
578.885	0.463104
580.624	-0.268917
582.361	0.285272
584.1	-0.0570583
585.839	-0.561572
587.577	-0.423366
589.315	0.0359211
591.052	0.862538
592.787	0.262169
594.524	-0.0852623
596.26	-0.179566
597.997	0.117232
599.732	0.091629
601.466	0.295323
603.201	-0.146178
604.936	0.422811
606.67	-0.296725
608.403	0.292755
610.136	0.399411
611.87	-0.06707
613.603	-0.165514
615.334	0.0805502
617.067	-0.1545
618.799	-0.183679
620.529	0.289823
622.26	0.166832
623.991	0.294641
625.72	0.536463
627.451	0.231023
629.181	0.224393
630.909	-0.281996
632.638	-0.0562601
634.368	0.147742
636.095	0.557043
637.823	0.120206
639.551	-0.0223007
641.277	0.311588
643.005	-0.474038
644.73	0.379912
646.457	0.641061
648.184	-0.210288
649.908	0.123674
651.634	-0.0615692
653.357	0.279499
655.083	0.282927
656.806	0.0836611
658.53	-0.251802
660.253	0.210312
661.977	0.14666
663.7	0.400739
665.422	0.33273
667.145	0.537258
668.865	0.306531
670.588	0.831185
672.308	0.122279
674.027	0.285089
675.749	-0.00820065
677.468	0.135072
679.188	0.141048
680.907	0.215139
682.627	0.149703
684.345	0.174301
686.064	0.657608
687.781	-0.011961
689.498	0.607204
691.216	0.0279093
692.932	1.06048
694.65	-0.141953
696.366	0.773666
698.081	0.559668
699.797	-0.0235472
701.512	1.16364
703.228	0.624675
704.942	1.02743
706.655	1.15368
708.371	0.614263
710.083	0.739857
711.796	0.727533
713.51	0.760668
715.222	0.47362
716.934	0.483868
718.645	1.15573
720.358	0.960478
722.068	0.401393
723.779	0.275631
725.49	0.763787
727.2	0.546726
728.909	0.556601
730.618	0.656724
732.329	0.643039
734.037	0.335071
735.745	0.525033
737.453	0.94076
739.16	1.40148
740.869	1.14103
742.576	0.882174
744.282	1.0302
745.988	1.17946
747.694	0.587592
749.401	0.896978
751.107	1.11758
752.811	1.27198
754.516	1.04533
756.22	1.09005
757.924	0.821095
759.627	1.43188
761.332	1.84172
763.035	2.0497
764.738	1.71585
766.44	1.49341
768.142	1.67584
769.843	1.47183
771.544	1.71799
773.245	1.19387
774.946	1.59637
776.646	2.06714
778.346	2.29052
780.046	2.22156
781.745	2.22166
783.444	2.35776
785.143	1.83639
786.841	1.67478
788.539	1.89485
790.237	1.63642
791.934	1.75985
793.631	1.85881
795.328	1.75422
797.024	2.07891
798.72	1.66153
800.416	2.28189
802.112	1.46325
803.807	1.36567
805.502	1.83008
807.196	1.52932
808.89	1.22775
810.584	1.75577
812.278	0.959069
813.971	1.55226
815.664	2.21137
817.354	1.92987
819.047	2.02885
820.739	1.88218
822.43	1.57994
824.122	1.18973
825.813	1.55898
827.503	1.81852
829.192	1.56841
830.882	1.4549
832.571	1.63373
834.261	1.65879
835.95	1.43959
837.637	2.35819
839.325	1.31171
841.013	1.87108
842.701	1.1336
844.389	1.35618
846.074	2.11588
847.761	1.75981
849.447	1.45054
851.131	2.10608
852.817	1.82345
854.503	1.27197
856.188	1.70752
857.871	0.973753
859.556	1.24974
861.24	1.65949
862.922	1.16699
864.606	1.32637
866.289	0.876281
867.97	1.3273
869.653	0.943594
871.336	1.46173
873.016	1.07742
874.698	0.828289
876.379	1.16584
878.058	0.826408
879.739	0.396508
881.418	1.1401
883.098	0.776913
884.778	1.69947
886.456	0.950249
888.135	1.30549
889.812	1.11769
891.49	1.10896
893.167	1.32418
894.845	1.17788
896.523	0.716072
898.198	0.725863
899.875	1.27312
901.55	0.608459
903.226	1.22039
904.901	0.757839
906.576	0.966276
908.25	0.617427
909.925	1.38366
911.598	1.25928
913.271	1.0247
914.945	0.990762
916.617	0.735124
918.291	0.6572
919.962	1.13308
921.635	1.34312
923.306	1.02339
924.978	0.705645
926.648	0.897794
928.318	1.09138
929.989	0.38132
931.659	1.01805
933.328	0.794509
934.998	0.328566
936.666	0.568861
938.336	0.876058
940.004	0.677108
941.671	0.721893
943.34	0.657077
945.007	0.680419
946.673	0.813141
948.339	0.701383
950.007	1.3603
951.672	0.186471
953.337	-0.0161934
955.004	0.951219
956.669	0.487688
958.333	0.909275
959.997	0.119954
961.662	0.280812
963.326	0.662906
964.989	0.668013
966.651	0.228204
968.315	0.825643
969.977	1.1998
971.639	1.13055
973.301	0.553058
974.962	0.883652
976.624	0.66307
978.285	0.753529
979.945	0.81151
981.605	0.869202
983.264	0.803925
984.924	1.00247
986.583	1.30964
988.243	1.1281
989.901	0.392647
991.56	0.386672
993.217	0.380532
994.875	0.59522
996.532	0.368527
998.188	0.450773
999.845	1.21584
1001.5	0.702301
1003.16	1.15735
1004.81	0.819736
1006.47	0.592364
1008.12	0.672855
1009.78	0.468247
1011.43	0.834499
1013.09	0.411724
1014.74	0.471705
1016.39	1.64846
1018.05	0.767715
1019.7	0.916488
1021.35	0.95682
1023	1.04191
1024.65	1.25904
1026.31	1.06152
1027.96	1.62883
1029.61	1.40891
1031.26	1.42812
1032.91	1.59854
1034.56	0.697997
1036.21	1.06184
1037.86	1.1411
1039.51	0.937128
1041.16	1.0821
1042.8	1.11943
1044.45	1.09323
1046.1	0.786582
1047.75	0.742483
1049.39	1.17775
1051.04	0.289392
1052.69	0.74843
1054.33	0.838628
1055.98	1.01582
1057.62	0.671086
1059.27	0.912815
1060.91	0.871312
1062.56	1.13348
1064.2	1.02511
1065.85	1.08965
1067.49	0.97923
1069.13	0.802743
1070.77	1.40754
1072.42	1.62092
1074.06	0.684591
1075.7	-0.011508
1077.34	0.530059
1078.98	1.37623
1080.62	0.488339
1082.27	0.771455
1083.91	1.14046
1085.55	0.554009
1087.18	0.486083
1088.82	0.95764
1090.46	0.474797
1092.1	1.13735
1093.74	0.82629
1095.38	0.5807
1097.02	0.616531
1098.65	0.86897
1100.29	0.175524
1101.93	0.732574
1103.56	0.0862265
1105.2	0.6889
1106.84	0.517733
1108.47	0.604417
1110.11	0.754584
1111.74	0.903179
1113.38	0.792286
1115.01	0.229476
1116.64	0.932558
1118.28	1.20598
1119.91	0.494159
1121.54	0.983212
1123.18	0.702305
1124.81	0.97885
1126.44	0.935226
1128.07	0.421924
1129.7	0.91439
1131.33	0.103166
1132.97	-0.57937
1134.6	0.255783
1136.23	0.10705
1137.86	0.598471
1139.49	0.533109
1141.11	0.189294
1142.74	0.506831
1144.37	0.0563192
1146	0.352987
1147.63	-0.223465
1149.26	0.351689
1150.88	0.437115
1152.51	0.0753241
1154.14	0.586284
1155.76	0.585774
1157.39	0.691504
1159.01	0.520982
1160.64	-0.0101767
1162.27	0.246531
1163.89	-0.21877
1165.51	-0.258364
1167.14	-0.106789
1168.76	0.0863886
1170.39	0.107971
1172.01	0.149041
1173.63	0.421998
1175.25	-0.176449
1176.88	0.158296
1178.5	0.196109
1180.12	-0.0830393
1181.74	-0.00140953
1183.36	-0.0249758
1184.98	0.0360718
1186.6	-0.0515614
1188.22	-0.0771894
1189.84	0.0430403
1191.46	0.266569
1193.08	-0.436986
1194.7	0.267379
1196.32	-0.120505
1197.94	-0.0459003
1199.55	-0.0954657
1201.17	0.149649
1202.79	-0.45932
1204.41	0.625103
1206.02	0.396307
1207.64	-0.0814886
1209.25	0.00433254
1210.87	0.652575
1212.48	-0.11882
1214.1	0.838079
1215.71	-0.103223
1217.33	0.32844
1218.94	0.425779
1220.56	0.605811
1222.17	0.288352
1223.79	0.739261
1225.4	0.631815
1227.01	0.650093
1228.62	0.669662
1230.23	0.62837
1231.85	0.980964
1233.46	0.755869
1235.07	1.09
1236.68	0.371176
1238.29	0.521363
1239.9	1.0031
1241.51	0.57519
1243.12	0.663999
1244.73	0.814219
1246.34	0.528978
1247.94	0.904958
1249.55	0.493929
1251.16	0.165445
1252.77	0.581866
1254.37	0.874743
1255.98	0.796294
1257.59	1.19478
1259.2	0.746149
1260.8	0.919071
1262.41	1.19611
1264.01	1.49412
1265.62	1.35679
1267.22	0.866298
1268.83	1.10032
1270.43	0.732138
1272.03	1.81434
1273.64	0.863642
1275.24	1.81927
1276.85	1.53016
1278.45	1.19899
1280.05	0.743228
1281.65	1.23962
1283.25	1.21847
1284.85	0.970352
1286.46	2.3564
1288.06	1.63462
1289.66	1.96796
1291.26	1.86783
1292.86	1.45773
1294.46	1.79073
1296.06	1.72993
1297.66	1.75015
1299.25	1.06722
1300.85	2.03306
1302.45	1.67776
1304.05	2.28938
1305.65	1.72716
1307.24	1.24773
1308.84	1.17932
1310.43	1.70538
1312.03	1.57556
1313.63	1.56943
1315.22	1.25777
1316.82	0.559608
1318.41	1.76048
1320.01	1.04308
1321.6	0.855631
1323.2	1.42009
1324.79	1.27025
1326.38	1.18031
1327.98	1.29278
1329.57	1.66864
1331.16	0.811405
1332.76	1.04906
1334.35	1.08651
1335.94	1.69049
1337.53	1.50781
1339.12	1.26428
1340.71	1.74465
1342.3	1.13546
1343.89	0.967855
1345.48	1.22119
1347.07	1.65438
1348.66	1.60749
1350.25	1.48303
1351.84	1.48126
1353.43	0.921711
1355.01	1.42313
1356.6	0.585872
1358.19	0.867385
1359.77	0.588727
1361.36	1.48693
1362.95	1.08674
1364.53	0.826218
1366.12	1.58234
1367.71	0.745258
1369.29	0.925253
1370.88	0.31039
1372.46	1.18936
1374.04	0.935091
1375.63	0.323301
1377.21	0.527436
1378.8	0.770954
1380.38	0.157967
1381.96	0.220411
1383.54	0.401002
1385.13	0.95822
1386.71	0.898578
1388.29	0.561101
1389.87	0.819989
1391.45	0.642962
1393.03	0.327897
1394.61	0.429849
1396.19	0.432466
1397.77	0.236242
1399.35	0.495043
1400.93	0.356644
1402.51	0.831484
1404.09	0.791374
1405.67	0.455156
1407.24	0.554843
1408.82	0.200776
1410.4	0.69676
1411.98	0.185351
1413.55	0.75947
1415.13	0.878493
1416.71	0.128895
1418.28	0.306103
1419.86	0.739462
1421.43	0.484166
1423.01	1.15562
1424.58	1.29693
1426.16	1.45913
1427.73	1.03141
1429.31	1.31203
1430.88	0.942304
1432.45	1.31938
1434.02	1.22319
1435.6	1.34295
1437.17	1.93466
1438.74	1.56361
1440.31	2.27462
1441.88	2.25934
1443.45	1.53728
1445.03	1.66068
1446.6	1.33219
1448.17	2.45843
1449.74	1.8748
1451.3	1.901
1452.87	1.25908
1454.44	1.08935
1456.01	1.29336
1457.58	1.83143
1459.15	1.40408
1460.72	1.1719
1462.28	1.1545
1463.85	1.09624
1465.42	1.41045
1466.98	1.37036
1468.55	1.93925
1470.12	0.604881
1471.68	0.626182
1473.25	1.25641
1474.81	1.16157
1476.38	1.04756
1477.94	1.05132
1479.51	1.34904
1481.07	1.05861
1482.63	1.10132
1484.2	1.35942
1485.76	0.44171
1487.32	1.18848
1488.88	0.915516
1490.45	1.11072
1492.01	0.697515
1493.57	0.595574
1495.13	0.882407
1496.69	1.03112
1498.25	0.88728
1499.81	0.95808
1501.37	0.641438
1502.93	0.636847
1504.49	0.710597
1506.05	0.0295086
1507.61	0.6256
1509.17	0.0990658
1510.73	0.0744219
1512.28	0.164717
1513.84	-0.0150309
1515.4	0.497816
1516.96	0.107557
1518.51	-0.204407
1520.07	0.480934
1521.63	0.0934315
1523.18	-0.236149
1524.74	0.427166
1526.29	0.172729
1527.85	0.0514402
1529.4	0.272277
1530.96	0.283567
1532.51	0.788267
1534.06	-0.0710745
1535.62	-0.000587463
1537.17	0.75075
1538.72	0.312001
1540.28	0.477898
1541.83	0.266794
1543.38	0.375965
1544.93	0.334337
1546.48	0.780955
1548.03	0.607311
1549.59	0.490221
1551.14	0.504599
1552.69	0.444554
1554.24	0.254592
1555.79	0.514342
1557.34	0.345963
1558.88	0.34735
1560.43	0.686171
1561.98	0.615946
1563.53	0.602698
1565.08	1.14973
1566.62	0.89458
1568.17	0.825797
1569.72	0.570005
1571.27	1.15383
1572.81	1.21475
1574.36	0.995521
1575.9	1.09365
1577.45	1.11728
1579	0.31983
1580.54	1.40861
1582.09	0.948366
1583.63	1.06777
1585.17	0.870235
1586.72	0.878646
1588.26	1.05554
1589.8	1.28853
1591.35	1.09078
1592.89	1.11715
1594.43	1.19944
1595.97	1.39422
1597.52	1.30836
1599.06	1.20428
1600.6	1.75731
1602.14	1.24154
1603.68	0.856684
1605.22	1.20356
1606.76	1.30519
1608.3	0.860025
1609.84	0.863879
1611.38	1.35421
1612.92	0.753078
1614.46	1.29632
1615.99	1.14445
1617.53	1.25559
1619.07	1.04915
1620.61	1.01277
1622.14	0.752958
1623.68	0.812243
1625.22	1.02132
1626.75	0.799228
1628.29	1.30579
1629.82	1.79196
1631.36	0.968339
1632.9	1.26598
1634.43	0.891489
1635.96	1.54427
1637.5	1.26482
1639.03	1.26582
1640.57	1.3787
1642.1	1.30466
1643.63	1.2297
1645.16	1.3212
1646.7	1.22579
1648.23	1.4275
1649.76	1.40641
1651.29	2.05429
1652.82	1.79381
1654.36	1.51609
1655.89	1.49868
1657.42	2.42621
1658.95	1.42609
1660.48	1.42535
1662.01	1.05329
1663.53	1.03195
1665.06	1.65656
1666.59	1.43151
1668.12	1.3553
1669.65	1.75978
1671.18	1.373
1672.7	1.17171
1674.23	1.06306
1675.76	1.1752
1677.29	0.973714
1678.81	1.04737
1680.34	1.0097
1681.86	0.346643
1683.39	0.492088
1684.91	0.710784
1686.44	0.397655
1687.96	0.671787
1689.49	0.433025
1691.01	0.176412
1692.54	0.304438
1694.06	0.359117
1695.58	1.21801
1697.11	0.778428
1698.63	0.466868
1700.15	0.611568
1701.67	0.518529
1703.2	0.242877
1704.72	0.0946422
1706.24	0.364751
1707.76	0.179659
1709.28	0.358079
1710.8	1.06255
1712.32	0.71427
1713.84	0.294245
1715.36	0.0921993
1716.88	0.360725
1718.4	0.447961
1719.91	0.119649
1721.43	0.261128
1722.95	0.529051
1724.47	0.112795
1725.99	0.0402541
1727.5	0.670897
1729.02	0.384238
1730.54	0.636469
1732.05	0.0502238
1733.57	-0.0908623
1735.09	0.0218258
1736.6	0.0203938
1738.12	0.217649
1739.63	-0.252758
1741.15	0.34501
1742.66	0.15722
1744.18	-0.371336
1745.69	0.481589
1747.2	0.224872
1748.72	0.0196133
1750.23	0.0417576
1751.74	-0.262927
1753.25	0.483257
1754.77	-0.0378118
1756.28	0.191795
1757.79	0.351174
1759.3	0.394925
1760.81	-0.00158453
1762.32	0.203868
1763.83	-0.118281
1765.34	-0.00738239
1766.85	-0.00291204
1768.36	0.480819
1769.87	-0.0204558
1771.38	-0.313764
1772.89	-0.0516639
1774.4	0.091929
1775.91	0.0218759
1777.41	0.121492
1778.92	0.129075
1780.43	0.195072
1781.94	0.323483
1783.44	0.31111
1784.95	0.188581
1786.45	0.127087
1787.96	-0.0283656
1789.47	-0.0880055
1790.97	0.304924
1792.48	0.388116
1793.98	0.0325737
1795.48	0.055191
1796.99	-0.0948701
1798.49	-0.0509672
1800	0.16688
1801.5	0.291793
1803	-0.0395317
1804.51	-0.113297
1806.01	0.225656
1807.51	0.0682964
1809.01	-0.100653
1810.51	0.111268
1812.02	0.284971
1813.52	0.302036
1815.02	0.112279
1816.52	0.0127559
1818.02	0.23215
1819.52	0.276705
1821.02	0.33978
1822.52	0.19732
1824.02	0.103675
1825.51	0.11094
1827.01	0.328259
1828.51	0.426153
1830.01	0.0962095
1831.51	0.0320325
1833	-0.0905867
1834.5	-0.226448
1836	-0.129328
1837.5	-0.0965953
1838.99	0.0194688
1840.49	-0.00884485
1841.98	0.267908
1843.48	-0.145784
1844.97	0.311277
1846.47	-0.0819893
1847.96	-0.0422988
1849.46	0.12019
1850.95	0.122149
1852.45	0.329161
1853.94	0.239029
1855.43	0.0831347
1856.92	-0.0486894
1858.42	0.210938
1859.91	-0.234812
1861.4	0.441571
1862.89	0.15674
1864.39	0.0450139
1865.88	-0.145845
1867.37	-0.149518
1868.86	0.0359364
1870.35	0.0796251
1871.84	0.174584
1873.33	0.241003
1874.82	0.125657
1876.31	-0.068161
1877.8	0.0138617
1879.29	0.0636439
1880.77	-0.0383258
1882.26	-0.0350289
1882.51	-0.0295162
1884	0.0754991
1885.5	0.0403924
1886.99	0.1962
1888.48	0.334013
1889.98	0.228248
1891.47	0.158167
1892.97	0.0372806
1894.46	-0.29074
1895.95	0.217028
1897.44	0.116949
1898.93	-0.122416
1900.42	-0.171279
1901.92	0.00473356
1903.41	0.00535822
1904.9	-0.0994821
1906.39	0.10788
1907.88	0.158707
1909.37	-0.51904
1910.86	0.1752
1912.35	-0.0322843
1913.84	0.211709
1915.32	0.334306
1916.81	0.179188
1918.3	-0.600252
1919.79	0.145172
1921.28	0.405044
1922.76	0.526563
1924.25	-0.0956736
1925.74	-0.509127
1927.22	0.116953
1928.71	0.0164595
1930.2	-0.153347
1931.68	-0.115996
1933.17	0.283838
1934.65	-0.0103493
1936.14	0.0576868
1937.62	0.107393
1939.11	-0.51721
1940.59	0.0679317
1942.08	0.463209
1943.56	0.444977
1945.04	-0.141568
1946.53	0.0655537
1948.01	0.35853
1949.49	0.392278
1950.97	-0.14302
1952.45	-0.00736523
1953.94	-0.0443048
1955.42	0.382691
1956.9	0.191225
1958.38	0.0863566
1959.86	0.0679584
1961.34	-0.327222
1962.82	0.100801
1964.3	0.408394
1965.78	0.133047
1967.26	0.542035
1968.74	0.163172
1970.22	-0.335329
1971.69	-0.184277
1973.17	-0.0676308
1974.65	-0.258085
1976.13	0.165446
1977.61	0.00942516
1979.08	0.074966
1980.56	-0.0807352
1982.03	0.1546
1983.51	0.151553
1984.99	-0.0893927
1986.46	-0.211447
1987.94	-0.231647
1989.41	0.52739
1990.89	0.372078
1992.36	0.166995
1993.84	-0.00326395
1995.31	-0.0037446
1996.78	0.519829
1998.26	0.0803986
1999.73	-0.105839
2001.2	0.568211
2002.68	-0.158709
2004.15	0.109601
2005.62	0.0746083
2007.09	-0.0945225
2008.56	0.0066061
2010.04	0.024188
2011.51	0.277847
2012.98	0.312675
2014.45	0.481776
2015.92	0.0276656
2017.39	0.363564
2018.86	0.143757
2020.33	0.226149
2021.8	0.207573
2023.27	0.424263
2024.74	0.205167
2026.2	0.0710316
2027.67	0.273518
2029.14	0.359789
2030.61	-0.0561137
2032.07	0.401155
2033.54	0.237995
2035.01	0.427363
2036.47	0.498953
2037.94	0.301281
2039.41	0.405707
2040.87	0.409263
2042.34	0.581264
2043.8	0.48487
2045.27	0.82665
2046.73	-0.0932765
2048.2	0.401038
2049.66	0.272017
2051.12	0.428702
2052.59	0.398694
2054.05	0.653895
2055.51	0.401698
2056.98	0.165335
2058.44	0.686772
2059.9	0.584418
2061.36	0.650853
2062.82	0.431771
2064.29	0.718507
2065.75	0.618967
2067.21	0.705266
2068.67	0.640593
2070.13	0.626667
2071.59	0.208737
2073.05	0.716642
2074.51	1.03919
2075.97	0.654213
2077.43	0.942505
2078.88	0.641044
2080.34	0.810702
2081.8	0.558938
2083.26	0.67702
2084.72	0.289581
2086.17	0.877445
2087.63	1.12801
2089.09	1.04184
2090.54	0.754003
2092	0.986835
2093.46	0.313242
2094.91	0.243899
2096.37	0.978722
2097.82	0.807583
2099.28	1.15496
2100.73	1.4179
2102.19	0.895252
2103.64	1.27578
2105.09	1.30652
2106.55	1.38853
2108	1.07116
2109.46	1.23782
2110.91	1.43726
2112.36	1.4354
2113.81	1.39867
2115.27	1.32725
2116.72	1.35486
2118.17	1.39931
2119.62	1.52787
2121.07	1.02761
2122.52	1.24258
2123.97	1.98938
2125.42	1.52622
2126.87	1.67636
2128.32	1.72606
2129.77	1.5756
2131.22	1.67251
2132.67	1.80166
2134.12	1.89752
2135.57	2.15936
2137.01	1.87694
2138.46	2.00955
2139.91	1.69771
2141.36	2.11464
2142.8	2.00378
2144.25	2.22432
2145.7	2.23002
2147.14	2.06987
2148.59	2.43899
2150.03	2.4927
2151.48	2.42946
2152.92	2.0504
2154.37	1.57115
2155.81	2.23466
2157.26	2.38458
2158.7	2.50202
2160.15	2.09064
2161.59	2.02872
2163.03	2.78087
2164.48	2.39069
2165.92	2.36605
2167.36	2.9394
2168.8	2.7311
2170.25	2.77027
2171.69	2.65763
2173.13	2.2602
2174.57	2.72642
2176.01	2.51005
2177.45	3.09205
2178.89	2.77687
2180.33	2.27983
2181.77	2.28238
2183.21	2.05269
2184.65	2.9542
2186.09	2.60842
2187.53	2.26252
2188.97	2.31595
2190.41	2.2362
2191.84	1.95639
2193.28	2.12536
2194.72	1.82692
2196.16	2.17607
2197.59	1.80765
2199.03	1.42143
2200.47	1.5997
2201.9	1.69455
2203.34	1.82301
2204.78	1.3388
2206.21	1.78411
2207.65	1.45088
2209.08	1.89607
2210.51	2.09184
2211.95	1.87292
2213.38	1.96763
2214.82	1.30226
2216.25	1.81029
2217.68	1.55984
2219.12	1.67355
2220.55	1.77148
2221.98	1.0619
2223.42	1.53839
2224.85	1.28868
2226.28	1.48206
2227.71	1.09821
2229.14	1.40376
2230.57	1.36345
2232	1.40494
2233.43	1.44658
2234.86	1.27622
2236.29	0.87849
2237.72	0.7276
2239.15	1.23111
2240.58	0.887757
2242.01	1.18214
2243.44	0.48266
2244.87	0.925202
2246.3	0.73108
2247.73	0.45416
2249.15	0.795148
2250.58	0.0750065
2252.01	0.884652
2253.43	0.781462
2254.86	0.629953
2256.29	0.561022
2257.71	0.786148
2259.14	0.250983
2260.56	0.350908
2261.99	0.647586
2263.41	0.42614
2264.84	0.480953
2266.26	0.307909
2267.69	0.589558
2269.11	0.724222
2270.54	0.516453
2271.96	0.650092
2273.38	0.392768
2274.81	0.396027
2276.23	0.578675
2277.65	0.500792
2279.07	0.60224
2280.49	0.524313
2281.92	0.544106
2283.34	0.498574
2284.76	0.599916
2286.18	0.342372
2287.6	0.313556
2289.02	0.758734
2290.44	0.485617
2291.86	0.506745
2293.28	0.0210061
2294.7	-0.00706148
2296.12	0.439467
2297.54	0.591567
2298.96	0.498095
2300.38	0.240787
2301.79	-0.0165448
2303.21	0.333101
2304.63	0.338525
2306.05	0.524548
2307.46	0.365422
2308.88	0.402977
2310.3	0.160536
2311.71	0.50978
2313.13	0.579484
2314.55	0.715391
2315.96	0.292137
2317.38	0.231547
2318.79	-0.0595427
2320.21	-0.0212584
2321.62	0.346248
2323.03	0.712498
2324.45	0.400241
2325.86	0.977185
2327.27	0.97506
2328.69	0.378963
2330.1	0.42606
2331.51	0.226851
2332.93	-0.102998
2334.34	0.341325
2335.75	0.505983
2337.16	0.472847
2338.57	0.0114994
2339.99	-0.236701
2341.4	0.10586
2342.81	0.349113
2344.22	-0.0475864
2345.63	-0.427175
2347.04	-0.183678
2348.45	0.599723
2349.86	0.171297
2351.26	0.102479
2352.67	0.0166769
2354.08	0.109789
2355.49	0.267375
2356.9	0.473207
2358.31	-0.0208311
2359.71	0.298647
2361.12	0.390299
2362.53	0.0602064
2363.94	-0.657978
2365.34	-0.0642166
2366.75	-0.134195
2368.15	0.603679
2369.56	0.0989146
2370.97	-0.00103998
2372.37	0.415678
2373.78	0.0598359
2375.18	-0.311493
2376.59	0.169952
2377.99	0.167675
2379.39	-0.108957
2380.8	0.464422
2382.2	-0.0228391
2383.61	0.0188422
2385.01	0.49212
2386.41	0.205667
2387.81	-0.0794377
2389.22	-0.0202661
2390.62	0.0238175
2392.02	-0.233756
2393.42	-0.0606599
2394.82	0.605915
2396.22	0.0960555
2397.63	0.365798
2399.02	0.604074
2400.43	0.0960107
2401.82	0.366661
2403.23	-0.0297441
2404.62	0.0976858
2406.02	-0.0137086
2407.42	0.0170717
2408.82	0.158232
2410.22	-0.160698
2411.62	0.0753627
2413.02	0.185133
2414.41	0.327484
2415.81	0.28098
2417.21	0.267198
2418.61	0.0482979
2420	0.178019
2421.4	0.466112
2422.79	0.231205
2424.19	0.598104
2425.59	-0.0014925
2426.98	-0.0778642
2428.38	0.0524759
2429.77	0.262924
2431.17	-0.0177789
2432.56	0.145874
2433.96	0.18222
2435.35	0.106517
2436.74	0.172641
2438.14	0.253464
2439.53	-0.127414
2440.92	0.0311275
2442.32	0.0145268
2443.71	0.457887
2445.1	0.107671
2446.49	0.106431
2447.88	0.0892377
2449.28	-0.181396
2450.67	0.0708728
2452.06	0.275864
2453.45	0.44969
2454.84	0.0229568
2456.23	0.530186
2457.62	-0.038012
2459.01	0.0896864
2460.4	0.137846
2461.79	0.12212
2463.18	-0.0522656
2464.57	-0.0847793
2465.96	0.387858
2467.34	-0.592249
2468.73	0.463875
2470.12	0.2572
2471.51	-0.233355
2472.89	0.0480442
2474.28	-0.0493231
2475.67	-0.414453
2477.05	-0.229168
2478.44	0.489726
2479.83	0.281763
2481.21	-0.223653
2482.6	0.133385
2483.98	0.160745
2485.37	0.453247
2486.75	0.0724511
2488.14	-0.136681
2489.52	0.573617
2490.9	0.301416
2492.29	0.139124
2493.67	-0.208291
2495.06	0.0975304
2496.44	-0.200714
2497.82	0.29207
2499.2	0.165254
2500.59	-0.270988
2501.97	0.359258
2503.35	-0.108657
2504.73	-0.406663
2506.11	-0.196023
2507.49	0.0447478
2508.88	0.285076
2510.26	-0.396227
2511.63	0.013629
2513.01	0.208707
2514.39	0.189703
2515.77	-0.379602
2517.15	0.0772738
2518.53	0.365885
2519.91	0.104225
2521.29	0.0870056
2522.67	0.115097
2524.05	-0.132044
2525.42	-0.15074
2526.8	-0.0173306
2528.18	0.0400901
2529.56	0.0830536
2530.93	0.339967
2532.31	-0.0401301
2533.69	0.188675
2535.06	0.0382056
2536.44	0.343493
2537.81	0.238067
2539.19	0.101553
2540.56	-0.217721
2541.94	0.100394
2543.31	0.0847096
2544.69	-0.0820074
2546.06	0.449975
2547.44	-0.0485358
2548.81	-0.0306864
2550.18	-0.0886278
2551.56	0.247639
2552.93	0.340417
2554.3	0.189568
2555.68	0.0835738
2557.05	0.174382
2558.42	0.158893
2559.79	0.0223441
2561.16	0.0681415
2562.53	0.159883
2563.9	0.130842
2565.28	0.147605
2566.64	0.391884
2568.02	0.196763
2569.38	0.122879
2570.76	0.3976
2572.12	0.00544882
2573.49	-0.0835052
2574.86	0.312709
2576.23	-0.0338674
2577.6	-0.0166612
2578.97	0.333972
2580.34	0.0778236
2581.7	-0.027
2583.07	0.277265
2584.44	0.384213
2585.81	0.066668
2587.17	0.188829
2588.54	0.220188
2589.91	0.100091
2591.27	0.328454
2592.64	0.162464
2594	0.359475
2595.37	-0.110741
2596.73	0.357097
2598.1	0.112816
2599.46	-0.282666
2600.83	0.108115
2602.19	0.0759935
2603.55	0.165187
2604.92	0.209485
2606.28	-0.258959
2607.64	-0.124136
2609.01	-0.21612
2610.37	0.127914
2611.73	0.0941911
2613.09	-0.12081
2614.46	-0.0806189
2615.82	-0.0106921
2617.18	0.0442777
2618.54	0.354207
2619.9	-0.024128
2621.26	0.211764
2622.62	-0.583273
2623.98	0.250555
2625.34	0.113285
2626.7	-0.188015
2628.06	0.181423
2629.42	-0.19441
2630.78	0.144334
2632.14	0.527058
2633.5	-0.234639
2634.86	-0.193645
2636.22	0.232848
2637.57	0.303012
2638.93	-0.0414662
2640.29	-0.311303
2641.64	0.276914
2643	-0.0366573
2644.36	0.0341825
2645.72	0.281901
2647.07	0.0130019
2648.43	0.215347
2649.78	0.387273
2651.14	0.308398
2652.49	0.0532074
2653.85	0.0774565
2655.2	0.219495
2656.56	0.201053
2657.91	0.0371828
2659.27	0.313066
2660.62	0.238086
2661.97	0.250765
2663.33	0.146125
2664.68	0.186954
2666.03	0.241724
2667.38	0.0920038
2668.74	0.000709057
2670.09	-0.119333
2671.44	0.18285
2672.79	0.281699
2674.14	0.206666
2675.49	0.320866
2676.84	0.0581994
2678.2	0.303869
2679.55	0.50656
2680.89	0.0431185
2682.24	0.378057
2683.59	0.00347805
2684.94	-0.0659266
2686.29	-0.149523
2687.64	0.347309
2688.99	0.233742
2690.34	0.249505
2691.69	0.0606403
2693.04	0.27696
2694.38	0.0717993
2695.73	0.200046
2697.08	0.516953
2698.43	0.313345
2699.77	0.241474
2701.12	0.0985723
2702.46	0.0871439
2703.81	0.351845
2705.16	0.211269
2706.5	0.43323
2707.85	0.30693
2709.19	0.499573
2710.54	0.241885
2711.88	0.492249
2713.23	-0.0420256
2714.57	-0.024313
2715.92	0.298706
2717.26	0.141852
2718.6	0.392068
2719.95	0.613014
2721.29	0.207884
2722.63	0.486355
2723.97	0.415158
2725.32	-0.0348296
2726.66	0.402775
2728	0.243375
2729.34	0.564046
2730.68	0.157008
2732.02	0.346544
2733.36	-0.176691
2734.7	0.0275946
2736.04	0.217463
2737.39	0.0583687
2738.72	0.524635
2740.06	0.278095
2741.4	0.423827
2742.74	0.205574
2744.08	0.321151
2745.42	0.334474
2746.76	0.0570192
2748.1	-0.118731
2749.44	0.169992
2750.77	0.168574
2752.11	0.326833
2753.45	0.296765
2754.78	0.0785165
2756.12	0.0488
2757.46	-0.125566
2758.79	0.322822
2760.13	0.120031
2761.47	-0.400673
2762.8	0.0485559
2764.14	-0.0518479
2765.47	0.0213766
2766.81	0.3836
2768.14	-0.0360651
2769.48	0.0351543
2770.81	0.148574
2772.14	-0.10022
2773.48	0.0401845
2774.81	-0.353473
2776.14	0.160977
2777.48	-0.131113
2778.81	0.0809951
2780.14	0.149494
2781.47	-0.112138
2782.81	0.0141325
2784.14	0.16888
2785.47	-0.135217
2786.8	0.119817
2788.13	-0.21197
2789.46	0.315627
2790.79	0.0711627
2792.12	0.25641
2793.46	-0.172753
2794.79	-0.244387
2796.11	0.112427
2797.44	-0.002738
2798.77	-0.146796
2800.1	0.0657525
2801.43	-0.0787215
2802.76	0.161772
2804.09	0.259322
2805.42	-0.0281186
2806.74	-0.301423
2808.07	0.420805
2809.4	-0.222734
2810.73	0.341827
2812.05	0.168101
2813.38	0.0805669
2814.71	0.249419
2816.03	-0.0484629
2817.36	-0.274548
2818.68	0.0951018
2820.01	-0.116346
2821.33	0.125427
2822.66	0.409165
2823.98	0.408951
2825.31	0.0543499
2826.63	0.422169
2827.96	0.124796
2829.28	0.309271
2830.61	0.50824
2831.93	0.877233
2833.25	0.411015
2834.57	0.52492
2835.9	0.794086
2837.22	0.680704
2838.54	0.694332
2839.86	0.891632
2841.18	1.61202
2842.51	1.41366
2843.83	1.06047
2845.15	1.85266
2846.47	1.4865
2847.79	1.9121
2849.11	2.06922
2850.43	1.78793
2851.75	1.98677
2853.07	2.12861
2854.39	2.24182
2855.71	2.35483
2857.03	2.22764
2858.35	2.34065
2859.67	1.98758
2860.98	2.25576
2862.3	2.3118
2863.62	2.73446
2864.94	2.33828
2866.25	2.94384
2867.57	2.70315
2868.89	2.91415
2870.21	2.44876
2871.52	2.78711
2872.84	3.06875
2874.15	2.74375
2875.47	3.09411
2876.78	3.44323
2878.1	2.94698
2879.42	3.3792
2880.73	3.31926
2882.04	3.09152
2883.36	3.15982
2884.67	3.46762
2885.99	3.3968
2887.3	3.34011
2888.61	3.21291
2889.93	3.42174
2891.24	3.40533
2892.55	3.79482
2893.87	3.60943
2895.18	4.05465
2896.49	3.7864
2897.8	3.77115
2899.11	3.56098
2900.42	4.107
2901.74	3.6322
2903.05	4.30464
2904.36	4.20785
2905.67	4.2372
2906.98	4.19711
2908.29	4.24168
2909.6	4.60883
2910.91	4.89268
2912.22	4.8687
2913.53	4.41001
2914.83	4.48199
2916.14	5.07038
2917.45	5.3212
2918.76	4.94132
2920.07	4.9951
2921.37	5.45492
2922.68	5.70598
2923.99	5.62283
2925.3	5.83431
2926.6	5.76682
2927.91	5.71334
2929.22	6.13482
2930.52	6.09442
2931.83	6.02559
2933.13	6.31994
2934.44	5.97127
2935.74	5.38518
2937.05	5.84741
2938.35	5.5272
2939.66	5.73826
2940.96	5.92183
2942.27	5.82674
2943.57	5.73276
2944.87	5.2206
2946.18	4.96094
2947.48	4.98144
2948.78	4.17593
2950.09	4.51698
2951.39	4.92661
2952.69	4.46639
2953.99	4.34099
2955.29	4.14527
2956.6	4.30026
2957.9	4.20505
2959.2	4.15417
2960.5	3.96559
2961.8	3.9608
2963.1	3.56386
2964.4	3.90996
2965.7	4.00241
2967	3.58752
2968.3	3.7335
2969.6	3.41481
2970.9	3.08179
2972.2	3.42412
2973.49	3.40104
2974.79	2.92747
2976.09	2.69249
2977.39	3.1182
2978.69	2.45828
2979.98	2.58542
2981.28	2.03595
2982.58	2.0772
2983.88	2.38575
2985.17	2.20305
2986.47	1.54387
2987.76	2.12247
2989.06	1.74631
2990.36	1.7076
2991.65	1.71065
2992.95	1.33341
2994.24	1.29251
2995.54	1.02601
2996.83	1.53131
2998.12	1.4185
2999.42	0.857105
3000.71	1.12381
3002	1.22256
3003.3	1.06933
3004.59	0.636087
3005.88	0.595009
3007.18	0.917443
3008.47	0.791193
3009.76	0.860126
3011.05	0.620958
3012.35	0.605175
3013.64	0.770741
3014.93	0.741185
3016.22	0.517162
3017.51	0.349664
3018.8	0.405356
3020.09	0.55838
3021.38	0.808156
3022.67	0.293014
3023.96	0.444015
3025.25	0.372306
3026.54	0.397486
3027.83	0.187711
3029.12	0.656559
3030.41	0.531756
3031.69	0.0767846
3032.98	-0.00431156
3034.27	0.287479
3035.56	0.675201
3036.85	0.523782
3038.13	0.274714
3039.42	0.189793
3040.71	0.062633
3041.99	0.333126
3043.28	0.301252
3044.57	0.33851
3045.85	0.281194
3047.14	0.0206971
3048.42	0.185495
3049.71	0.0787449
3050.99	0.341632
3052.28	0.359466
3053.56	0.622887
3054.85	0.517367
3056.13	0.31559
3057.42	0.508424
3058.7	0.427916
3059.98	0.728495
3061.27	0.0492067
3062.55	0.4186
3063.83	0.476
3065.11	-0.036438
3066.4	0.335849
3067.68	0.328214
3068.96	0.538443
3070.24	0.544491
3071.52	0.522628
3072.8	0.336598
3074.09	0.0137305
3075.37	0.301838
3076.65	-0.0760608
3077.93	0.225342
3079.21	0.0523686
3080.49	0.219693
3081.77	0.14396
3083.05	0.0691271
3084.32	0.239004
3085.61	0.27326
3086.88	0.0221057
3088.16	0.055407
3089.44	0.128873
3090.72	-0.191579
3092	0.139148
3093.27	0.117154
3094.55	-0.0944977
3095.83	-0.102526
3097.11	-0.0969634
3098.38	0.0982661
3099.66	-0.289381
3100.94	0.311949
3102.21	-0.00792837
3103.49	0.0651512
3104.76	0.0708566
3106.04	0.104133
3107.31	-0.322065
3108.59	-0.179174
3109.86	0.153982
3111.14	0.190122
3112.41	0.213286
3113.69	-0.0478272
3114.96	0.395744
3116.23	0.106953
3117.51	-0.00633955
3118.78	0.0965271
3120.05	-0.181204
3121.33	-0.0256782
3122.6	0.318989
3123.87	0.0942278
3125.14	0.194713
3126.42	0.20066
3127.69	0.0581574
3128.96	-0.00275707
3130.23	0.12587
3131.5	0.0787497
3132.77	0.274727
3134.04	-0.0700355
3135.31	0.16558
3136.58	0.494895
3137.85	0.108782
3139.12	-0.20973
3140.39	0.185465
3141.66	0.109304
3142.93	-0.047183
3144.2	0.253338
3145.47	-0.19744
3146.74	0.184013
3148	0.324241
3149.27	0.290645
