200.388	0.238939
202.204	0.251667
204.019	0.265393
205.832	0.256211
207.646	0.587994
209.459	0.457375
211.274	0.495749
213.087	0.144229
214.899	-0.0382395
216.711	0.287974
218.524	-0.25799
220.335	0.0932102
222.146	0.155004
223.956	-0.0962763
225.766	0.475237
227.576	0.176908
229.388	0.0717344
231.197	0.545349
233.005	-0.332682
234.813	-0.100169
236.621	-0.324203
238.429	-0.0152569
240.236	0.441534
242.045	0.395266
243.852	0.567969
245.658	0.185902
247.464	-0.415491
249.269	0.187098
251.074	0.158182
252.879	0.922359
254.683	-0.19797
256.487	0.442412
258.291	0.0229006
260.094	0.473158
261.897	0.636762
263.702	0.128154
265.504	0.897946
267.306	-0.524467
269.108	0.366392
270.909	-0.406869
272.71	0.120398
274.511	-0.366596
276.311	-0.252726
278.111	0.58185
279.91	-0.417278
281.709	0.580102
283.508	0.371159
285.306	-0.487917
287.105	0.261904
288.9	0.626578
290.698	0.344779
292.495	0.615719
294.291	0.338223
296.088	0.58903
297.884	-0.11484
299.679	0.448809
301.475	0.749254
303.27	1.12013
305.064	0.844755
306.858	-0.266339
308.652	0.196838
310.444	0.541099
312.237	-0.0183859
314.03	1.16285
315.822	0.870096
317.615	0.746507
319.406	0.529704
321.198	0.862536
322.987	1.26836
324.778	0.935683
326.568	0.913231
328.358	0.986095
330.148	1.20168
331.935	0.818015
333.724	1.98704
335.513	0.712851
337.301	1.11054
339.089	-0.145421
340.875	-0.32644
342.662	0.0414753
344.449	0.671826
346.236	1.2068
348.02	0.500756
349.806	0.77459
351.592	0.356257
353.375	0.176071
355.16	0.257114
356.944	0.670245
358.728	1.22421
360.51	0.347041
362.294	0.635959
364.077	-0.241675
365.858	0.282954
367.64	0.330947
369.422	0.282893
371.202	0.63651
372.983	0.657182
374.764	1.38629
376.543	1.40564
378.324	1.33135
380.102	2.27149
381.881	2.48201
383.661	2.12967
385.438	2.60252
387.216	3.02984
388.993	2.61298
390.771	2.31533
392.548	2.30087
394.324	2.38132
396.101	2.41544
397.875	2.0505
399.651	1.52093
401.425	1.0612
403.201	1.16436
404.974	0.820261
406.749	1.06233
408.524	0.927836
410.296	1.61451
412.07	0.892849
413.841	0.453574
415.614	0.390743
417.385	0.563608
419.156	0.573107
420.928	-0.520119
422.698	-0.0646696
424.469	0.0848675
426.238	0.538445
428.009	-0.0419836
429.777	0.339417
431.548	0.157405
433.315	-0.0242023
435.083	-0.275775
436.852	-0.011013
438.618	0.323303
440.387	0.162971
442.153	0.0705366
443.919	0.467742
445.686	0.861949
447.451	0.528271
449.218	0.100963
450.982	0.211873
452.746	-0.237258
454.512	0.924097
456.275	-0.1772
458.038	0.143674
459.803	0.789888
461.565	0.598866
463.327	0.107938
465.091	0.45692
466.852	0.484256
468.613	0.37574
470.374	-0.102402
472.136	0.629801
473.896	0.174544
475.655	0.252333
477.415	0.816532
479.176	0.493066
480.934	0.587505
482.692	0.705343
484.45	0.708234
486.21	0.92338
487.967	0.535621
489.724	0.943168
491.481	-0.164498
493.237	0.198725
494.995	0.539537
496.75	1.20859
498.506	0.707021
500.26	0.954363
502.015	1.27167
503.771	1.23596
505.525	1.24563
507.279	1.72371
509.032	1.72955
510.785	1.35661
512.537	1.56962
514.289	2.08637
516.041	2.05989
517.793	2.2668
519.546	2.09593
521.297	1.99456
523.047	2.47968
524.797	1.93121
526.547	2.55623
528.297	2.24278
530.046	1.74203
531.795	1.26467
533.543	1.53582
535.291	1.57105
537.039	1.13683
538.787	0.538032
540.534	0.778453
542.281	-0.0542946
544.027	0.138086
545.773	0.469348
547.519	0.0573339
549.264	1.0839
551.01	1.20534
552.754	0.933526
554.499	0.939839
556.243	0.27708
557.987	-0.0379524
559.73	0.708056
561.474	-0.0197906
563.216	-0.101656
564.959	-0.136698
566.701	0.242588
568.441	-0.0433226
570.182	0.727984
571.923	0.674673
573.664	-0.064579
575.405	0.00138187
577.145	0.0695171
578.885	0.277166
580.624	0.0956097
582.361	-0.200851
584.1	0.444338
585.839	0.00782394
587.577	-0.0855017
589.315	-0.249443
591.052	-0.0234823
592.787	0.109751
594.524	0.150715
596.26	0.0996962
597.997	-0.02038
599.732	0.664318
601.466	0.496708
603.201	0.534468
604.936	0.823137
606.67	0.696145
608.403	0.269621
610.136	0.302363
611.87	0.427405
613.603	0.484573
615.334	0.450943
617.067	-0.292641
618.799	0.81878
620.529	0.0965376
622.26	0.311408
623.991	-0.343872
625.72	0.0753832
627.451	0.495369
629.181	0.118752
630.909	-0.117704
632.638	0.0364141
634.368	0.397427
636.095	0.986509
637.823	0.363566
639.551	-0.239889
641.277	0.841248
643.005	0.755216
644.73	0.0983353
646.457	0.3301
648.184	0.382001
649.908	-0.607323
651.634	0.180733
653.357	-0.389706
655.083	-0.13769
656.806	0.254328
658.53	0.0786591
660.253	0.221599
661.977	0.13448
663.7	0.866976
665.422	-0.00337696
667.145	-0.0535603
668.865	0.535578
670.588	0.347921
672.308	0.460176
674.027	0.0719566
675.749	0.625673
677.468	0.425043
679.188	0.844398
680.907	0.780549
682.627	0.116066
684.345	-0.13769
686.064	0.849252
687.781	0.429626
689.498	0.906768
691.216	-0.0913019
692.932	0.40709
694.65	0.167402
696.366	0.54829
698.081	0.651166
699.797	-0.122128
701.512	0.230787
703.228	0.329199
704.942	0.587334
706.655	0.61488
708.371	0.962853
710.083	0.714005
711.796	0.716911
713.51	0.101777
715.222	0.972929
716.934	-0.417968
718.645	1.52426
720.358	0.796618
722.068	1.55068
723.779	1.14312
725.49	0.75882
727.2	0.624674
728.909	0.785228
730.618	1.42096
732.329	1.10366
734.037	1.51075
735.745	0.380068
737.453	1.23918
739.16	1.08236
740.869	1.01724
742.576	1.06647
744.282	2.08553
745.988	0.765194
747.694	1.15744
749.401	1.52878
751.107	1.94683
752.811	0.792185
754.516	1.91129
756.22	1.57025
757.924	1.68136
759.627	2.85351
761.332	2.47329
763.035	2.45434
764.738	3.38339
766.44	3.65685
768.142	3.7922
769.843	4.30868
771.544	4.75422
773.245	5.53659
774.946	5.00655
776.646	5.02003
778.346	4.60598
780.046	3.7872
781.745	3.2865
783.444	3.10264
785.143	3.57357
786.841	2.4113
788.539	2.53488
790.237	2.60844
791.934	2.15812
793.631	1.99978
795.328	2.02174
797.024	1.99976
798.72	1.57466
800.416	1.69276
802.112	2.12767
803.807	1.956
805.502	1.37967
807.196	1.92629
808.89	1.59494
810.584	1.80101
812.278	1.15338
813.971	1.42466
815.664	1.33694
817.354	1.58485
819.047	1.72065
820.739	2.14676
822.43	1.92559
824.122	1.95109
825.813	2.24585
827.503	1.58543
829.192	1.30765
830.882	1.12294
832.571	1.69935
834.261	1.29837
835.95	1.21061
837.637	1.18953
839.325	1.34562
841.013	1.43277
842.701	1.69692
844.389	0.843144
846.074	1.91202
847.761	1.39636
849.447	0.950521
851.131	1.55968
852.817	0.895018
854.503	1.06046
856.188	0.574744
857.871	1.07596
859.556	0.158349
861.24	0.295438
862.922	0.903745
864.606	0.316485
866.289	1.08026
867.97	1.37007
869.653	1.81728
871.336	0.504736
873.016	1.47015
874.698	0.946524
876.379	0.64844
878.058	0.350313
879.739	0.27772
881.418	0.136963
883.098	0.627438
884.778	0.619897
886.456	0.994276
888.135	1.14077
889.812	0.721281
891.49	1.38208
893.167	0.486278
894.845	1.36798
896.523	0.94278
898.198	0.719234
899.875	-0.312634
901.55	0.718209
903.226	0.38075
904.901	0.982562
906.576	0.667952
908.25	0.689351
909.925	0.533655
911.598	0.957904
913.271	0.893291
914.945	0.851486
916.617	1.03171
918.291	0.413638
919.962	0.46114
921.635	0.133148
923.306	0.978683
924.978	0.565974
926.648	1.21596
928.318	0.896557
929.989	0.402472
931.659	0.637614
933.328	1.07161
934.998	0.844017
936.666	0.550868
938.336	0.545567
940.004	0.365395
941.671	0.980922
943.34	0.91371
945.007	0.426995
946.673	0.600933
948.339	0.375218
950.007	0.588484
951.672	0.248445
953.337	0.437942
955.004	0.519014
956.669	-0.212298
958.333	0.427792
959.997	-0.0535297
961.662	-0.312548
963.326	0.798479
964.989	0.183697
966.651	0.22873
968.315	0.602079
969.977	0.419513
971.639	-0.140222
973.301	0.494967
974.962	0.601137
976.624	-0.0643587
978.285	-0.352078
979.945	-0.218619
981.605	-0.0854959
983.264	0.887287
984.924	1.06068
986.583	-0.141012
988.243	0.713258
989.901	0.171968
991.56	0.337598
993.217	0.127312
994.875	0.071908
996.532	0.457973
998.188	0.468747
999.845	0.148686
1001.5	0.731439
1003.16	0.586622
1004.81	0.441572
1006.47	0.58225
1008.12	0.415437
1009.78	0.359006
1011.43	0.39096
1013.09	0.357742
1014.74	0.938409
1016.39	0.906
1018.05	0.502363
1019.7	1.04063
1021.35	1.23011
1023	0.612274
1024.65	2.29074
1026.31	2.28706
1027.96	2.43641
1029.61	2.84697
1031.26	2.53479
1032.91	3.44295
1034.56	3.01664
1036.21	3.5698
1037.86	2.61758
1039.51	1.97144
1041.16	1.76226
1042.8	2.09868
1044.45	2.32866
1046.1	2.08352
1047.75	1.36354
1049.39	1.90564
1051.04	0.798952
1052.69	0.648949
1054.33	1.89011
1055.98	1.37138
1057.62	0.308581
1059.27	0.831964
1060.91	0.0282183
1062.56	0.767262
1064.2	0.200443
1065.85	0.371544
1067.49	0.106457
1069.13	0.0140762
1070.77	0.463811
1072.42	1.0649
1074.06	0.689713
1075.7	1.27059
1077.34	1.48438
1078.98	1.67822
1080.62	1.76479
1082.27	1.30931
1083.91	2.3054
1085.55	1.80307
1087.18	2.33815
1088.82	2.43644
1090.46	2.16407
1092.1	2.53887
1093.74	2.04827
1095.38	2.29242
1097.02	2.1493
1098.65	1.21144
1100.29	1.48287
1101.93	1.28336
1103.56	1.1511
1105.2	0.891739
1106.84	0.547267
1108.47	0.697147
1110.11	0.265032
1111.74	0.239474
1113.38	0.29771
1115.01	0.50447
1116.64	0.0021534
1118.28	0.551116
1119.91	0.607489
1121.54	0.00136566
1123.18	0.446002
1124.81	0.848847
1126.44	0.546811
1128.07	-0.138916
1129.7	-0.117867
1131.33	0.224634
1132.97	-0.0738201
1134.6	0.26891
1136.23	0.952721
1137.86	0.865605
1139.49	0.221532
1141.11	1.00707
1142.74	0.873527
1144.37	0.612296
1146	0.373555
1147.63	0.28548
1149.26	0.0921259
1150.88	-0.206943
1152.51	0.345987
1154.14	0.131777
1155.76	-0.359511
1157.39	0.0216484
1159.01	0.551915
1160.64	-0.320425
1162.27	-0.659474
1163.89	0.150949
1165.51	0.260438
1167.14	0.518481
1168.76	0.860145
1170.39	0.540493
1172.01	0.303404
1173.63	-0.169383
1175.25	0.33276
1176.88	0.155017
1178.5	0.189617
1180.12	-0.0924377
1181.74	-0.0979385
1183.36	0.108903
1184.98	-0.339404
1186.6	0.18304
1188.22	0.786986
1189.84	0.122422
1191.46	0.404162
1193.08	-0.115846
1194.7	0.162296
1196.32	0.439648
1197.94	0.00554085
1199.55	0.578655
1201.17	0.443358
1202.79	0.959181
1204.41	-0.0871887
1206.02	0.0384674
1207.64	0.499676
1209.25	0.856927
1210.87	0.524784
1212.48	0.607545
1214.1	0.499698
1215.71	0.388947
1217.33	0.0262985
1218.94	0.45265
1220.56	1.04399
1222.17	0.660324
1223.79	0.610588
1225.4	0.852864
1227.01	0.331283
1228.62	0.908356
1230.23	0.390882
1231.85	1.09491
1233.46	0.663616
1235.07	0.420087
1236.68	0.467525
1238.29	0.619725
1239.9	0.235295
1241.51	0.471464
1243.12	0.686659
1244.73	0.59056
1246.34	0.534489
1247.94	1.61515
1249.55	1.08074
1251.16	0.690817
1252.77	0.797693
1254.37	0.843448
1255.98	0.435593
1257.59	1.10503
1259.2	0.783104
1260.8	0.834796
1262.41	0.887189
1264.01	0.152517
1265.62	0.888124
1267.22	0.130789
1268.83	0.989023
1270.43	0.519114
1272.03	0.296604
1273.64	1.08866
1275.24	0.345254
1276.85	0.740717
1278.45	0.824108
1280.05	1.27932
1281.65	0.88512
1283.25	0.739653
1284.85	1.8151
1286.46	0.51364
1288.06	0.971061
1289.66	1.20224
1291.26	0.834865
1292.86	0.839392
1294.46	1.4214
1296.06	1.21663
1297.66	1.15435
1299.25	0.759765
1300.85	1.88931
1302.45	1.1202
1304.05	1.07142
1305.65	0.898409
1307.24	0.683986
1308.84	1.55695
1310.43	1.2599
1312.03	1.14821
1313.63	0.955947
1315.22	1.19448
1316.82	0.739709
1318.41	1.34735
1320.01	1.38312
1321.6	0.684343
1323.2	1.40936
1324.79	1.52066
1326.38	0.9801
1327.98	0.217139
1329.57	0.955135
1331.16	0.823747
1332.76	0.91779
1334.35	1.47908
1335.94	1.4769
1337.53	0.951182
1339.12	0.949333
1340.71	1.38846
1342.3	1.3209
1343.89	1.27084
1345.48	0.797739
1347.07	1.2482
1348.66	0.758456
1350.25	1.03338
1351.84	0.79132
1353.43	0.812182
1355.01	1.13462
1356.6	1.01785
1358.19	1.22021
1359.77	0.682329
1361.36	1.22129
1362.95	0.980551
1364.53	1.41741
1366.12	0.1804
1367.71	0.319812
1369.29	0.142137
1370.88	0.702703
1372.46	0.966409
1374.04	1.05251
1375.63	-0.0543318
1377.21	0.510421
1378.8	0.895489
1380.38	0.662379
1381.96	0.686241
1383.54	0.80779
1385.13	0.470722
1386.71	0.312137
1388.29	0.590745
1389.87	0.0561152
1391.45	0.634228
1393.03	0.51873
1394.61	0.443496
1396.19	0.883635
1397.77	0.0143042
1399.35	0.610644
1400.93	0.55161
1402.51	0.749166
1404.09	0.550755
1405.67	0.471845
1407.24	0.749893
1408.82	1.16718
1410.4	0.281258
1411.98	0.0869703
1413.55	0.721161
1415.13	0.209253
1416.71	0.0122747
1418.28	0.524532
1419.86	0.228939
1421.43	0.525666
1423.01	0.804511
1424.58	1.61684
1426.16	1.24993
1427.73	1.08062
1429.31	1.63925
1430.88	1.50776
1432.45	1.53214
1434.02	1.55514
1435.6	2.10848
1437.17	1.52139
1438.74	1.58425
1440.31	1.94326
1441.88	1.61571
1443.45	1.977
1445.03	2.22096
1446.6	2.05243
1448.17	2.21826
1449.74	2.42382
1451.3	2.05987
1452.87	2.20787
1454.44	1.58932
1456.01	1.5804
1457.58	1.88551
1459.15	0.260272
1460.72	1.52575
1462.28	1.29305
1463.85	1.19595
1465.42	1.5495
1466.98	1.27353
1468.55	1.764
1470.12	1.09734
1471.68	1.70786
1473.25	1.80955
1474.81	1.40247
1476.38	1.48627
1477.94	1.00168
1479.51	1.16398
1481.07	1.87489
1482.63	1.56645
1484.2	1.96328
1485.76	1.34081
1487.32	2.20606
1488.88	1.40478
1490.45	1.91269
1492.01	2.22129
1493.57	2.03784
1495.13	1.93017
1496.69	1.2366
1498.25	1.4201
1499.81	0.943038
1501.37	1.32274
1502.93	1.06326
1504.49	0.902405
1506.05	0.238921
1507.61	0.484873
1509.17	0.767636
1510.73	0.488623
1512.28	1.51962
1513.84	0.237767
1515.4	0.247303
1516.96	0.0463686
1518.51	0.307121
1520.07	0.548931
1521.63	0.847922
1523.18	0.0945749
1524.74	0.0483475
1526.29	0.191644
1527.85	0.523779
1529.4	-0.0014267
1530.96	-0.27838
1532.51	-0.00406837
1534.06	0.64935
1535.62	-0.0404444
1537.17	0.0471916
1538.72	-0.128735
1540.28	0.620172
1541.83	0.105566
1543.38	0.40111
1544.93	0.169368
1546.48	-0.193672
1548.03	0.776018
1549.59	0.112914
1551.14	0.0505819
1552.69	0.681138
1554.24	0.451962
1555.79	0.243575
1557.34	0.728294
1558.88	0.74861
1560.43	0.118451
1561.98	0.87089
1563.53	0.692041
1565.08	1.37222
1566.62	0.354534
1568.17	0.97871
1569.72	0.94923
1571.27	0.396551
1572.81	0.496803
1574.36	1.02621
1575.9	0.995608
1577.45	1.03993
1579	1.02877
1580.54	0.850339
1582.09	1.15841
1583.63	1.35564
1585.17	0.881202
1586.72	1.13618
1588.26	0.998784
1589.8	1.59076
1591.35	1.00335
1592.89	0.939178
1594.43	1.30536
1595.97	1.5219
1597.52	1.7016
1599.06	1.75107
1600.6	1.50139
1602.14	1.53361
1603.68	1.39685
1605.22	1.22152
1606.76	0.687244
1608.3	1.35321
1609.84	1.30202
1611.38	0.834442
1612.92	1.52904
1614.46	1.3765
1615.99	1.37357
1617.53	0.583929
1619.07	1.9511
1620.61	1.76468
1622.14	0.962347
1623.68	0.872804
1625.22	0.914389
1626.75	1.19832
1628.29	1.03142
1629.82	1.04985
1631.36	0.973424
1632.9	0.298821
1634.43	0.950711
1635.96	0.781939
1637.5	1.28587
1639.03	1.17502
1640.57	1.17614
1642.1	0.803893
1643.63	1.43612
1645.16	0.930904
1646.7	1.5781
1648.23	1.27621
1649.76	1.77365
1651.29	2.04902
1652.82	1.34272
1654.36	1.50992
1655.89	1.80761
1657.42	1.40096
1658.95	1.12327
1660.48	1.36253
1662.01	2.15461
1663.53	1.53904
1665.06	1.64399
1666.59	1.15859
1668.12	1.17322
1669.65	1.59522
1671.18	1.11595
1672.7	1.13576
1674.23	1.10095
1675.76	1.61821
1677.29	1.60039
1678.81	1.10284
1680.34	1.06406
1681.86	0.840565
1683.39	1.00251
1684.91	1.21934
1686.44	0.977853
1687.96	1.32373
1689.49	0.607239
1691.01	0.386164
1692.54	0.586315
1694.06	0.731306
1695.58	1.11359
1697.11	0.855598
1698.63	0.597442
1700.15	0.539788
1701.67	0.0438232
1703.2	0.58665
1704.72	-0.146804
1706.24	0.0483093
1707.76	0.606312
1709.28	0.636461
1710.8	0.394421
1712.32	-0.245931
1713.84	0.473823
1715.36	0.0519676
1716.88	0.137185
1718.4	0.710059
1719.91	0.704012
1721.43	-0.0235615
1722.95	-0.0281467
1724.47	0.274767
1725.99	-0.177389
1727.5	0.326512
1729.02	0.417433
1730.54	-0.0658112
1732.05	-0.0981312
1733.57	-0.150465
1735.09	0.189734
1736.6	0.113998
1738.12	-0.0558748
1739.63	0.0810137
1741.15	0.46766
1742.66	0.17762
1744.18	-0.275801
1745.69	0.183028
1747.2	0.145295
1748.72	0.250607
1750.23	0.2711
1751.74	0.304406
1753.25	0.02738
1754.77	-0.0252762
1756.28	0.336781
1757.79	-0.509448
1759.3	-0.289207
1760.81	0.180434
1762.32	-0.102779
1763.83	-0.121976
1765.34	0.181623
1766.85	-0.0887051
1768.36	-0.181623
1769.87	0.34631
1771.38	0.0532484
1772.89	0.0751209
1774.4	0.180557
1775.91	0.502482
1777.41	-0.0685234
1778.92	0.0786886
1780.43	-0.0338297
1781.94	0.0418787
1783.44	0.325523
1784.95	0.462275
1786.45	0.207073
1787.96	0.156951
1789.47	-0.0805292
1790.97	-0.196097
1792.48	-0.3305
1793.98	-0.013423
1795.48	0.146887
1796.99	0.288143
1798.49	0.0314474
1800	0.215549
1801.5	-0.193704
1803	-0.229641
1804.51	0.0535641
1806.01	-0.00240707
1807.51	0.100896
1809.01	0.223091
1810.51	0.143709
1812.02	0.171055
1813.52	0.419408
1815.02	0.205647
1816.52	0.0726233
1818.02	0.0106211
1819.52	0.415642
1821.02	0.146314
1822.52	0.134552
1824.02	0.0655937
1825.51	0.124248
1827.01	-0.317609
1828.51	0.0645256
1830.01	-0.00257778
1831.51	0.104751
1833	0.390935
1834.5	0.347995
1836	0.319405
1837.5	0.0763035
1838.99	0.216455
1840.49	0.213924
1841.98	-0.107722
1843.48	0.351132
1844.97	-0.186911
1846.47	0.137794
1847.96	-0.0829048
1849.46	-0.0569363
1850.95	0.209661
1852.45	-0.200917
1853.94	0.0131874
1855.43	0.109038
1856.92	0.024703
1858.42	-0.0697594
1859.91	0.181609
1861.4	0.304127
1862.89	-0.330933
1864.39	0.554266
1865.88	0.0459232
1867.37	0.125142
1868.86	0.124141
1870.35	-0.151226
1871.84	-0.0842857
1873.33	0.169631
1874.82	0.109198
1876.31	0.171882
1877.8	0.380968
1879.29	-0.202683
1880.77	-0.0266466
1882.26	-0.108333
1882.51	-0.138617
1884	0.261848
1885.5	0.382282
1886.99	0.222888
1888.48	-0.389545
1889.98	0.234159
1891.47	0.301895
1892.97	0.406239
1894.46	-0.200104
1895.95	0.082037
1897.44	-0.0521574
1898.93	0.335331
1900.42	0.269424
1901.92	0.0624475
1903.41	0.462174
1904.9	0.251462
1906.39	0.196371
1907.88	0.0023632
1909.37	-0.0345545
1910.86	-0.313301
1912.35	-0.295984
1913.84	0.207576
1915.32	-0.121285
1916.81	0.0176992
1918.3	0.0520039
1919.79	-0.018198
1921.28	0.205981
1922.76	0.0495377
1924.25	0.0672913
1925.74	-0.0521517
1927.22	-0.0838175
1928.71	-0.0108671
1930.2	-0.00719547
1931.68	0.428493
1933.17	-0.211107
1934.65	0.168858
1936.14	0.460054
1937.62	0.369104
1939.11	0.225872
1940.59	0.0313559
1942.08	0.321255
1943.56	-0.233157
1945.04	0.0760412
1946.53	0.0924158
1948.01	0.78062
1949.49	0.571637
1950.97	0.551042
1952.45	0.0303421
1953.94	-0.0260811
1955.42	0.00338745
1956.9	-0.155647
1958.38	-0.056284
1959.86	0.232503
1961.34	0.453076
1962.82	-0.200443
1964.3	0.00301838
1965.78	0.599588
1967.26	-0.362773
1968.74	-0.110306
1970.22	0.2608
1971.69	0.169895
1973.17	0.625222
1974.65	0.0395994
1976.13	0.494689
1977.61	-0.174796
1979.08	0.552471
1980.56	-0.0650492
1982.03	0.184981
1983.51	0.43431
1984.99	0.39432
1986.46	-0.137752
1987.94	-0.431761
1989.41	-0.403238
1990.89	0.20135
1992.36	0.451096
1993.84	0.228418
1995.31	-0.280408
1996.78	0.140766
1998.26	-0.181458
1999.73	-0.453292
2001.2	-0.0505772
2002.68	-0.137932
2004.15	-0.208505
2005.62	0.0920601
2007.09	0.325831
2008.56	0.00487328
2010.04	0.17328
2011.51	0.00557899
2012.98	0.174606
2014.45	-0.111262
2015.92	-0.12869
2017.39	0.0378742
2018.86	0.169743
2020.33	-0.18642
2021.8	0.196524
2023.27	0.00875664
2024.74	0.157613
2026.2	0.408366
2027.67	0.0904579
2029.14	0.160051
2030.61	0.415736
2032.07	0.13569
2033.54	0.527514
2035.01	0.21428
2036.47	0.303572
2037.94	0.325077
2039.41	0.00999355
2040.87	0.283065
2042.34	-0.334472
2043.8	0.629523
2045.27	0.299633
2046.73	0.525899
2048.2	0.314798
2049.66	0.558151
2051.12	0.0586815
2052.59	-0.0381165
2054.05	-0.13697
2055.51	0.200665
2056.98	-0.0365925
2058.44	0.0455704
2059.9	0.413818
2061.36	0.310798
2062.82	0.680097
2064.29	0.394078
2065.75	0.210271
2067.21	0.0611029
2068.67	0.417513
2070.13	-0.0504522
2071.59	0.340139
2073.05	0.848529
2074.51	0.817853
2075.97	0.618372
2077.43	0.687889
2078.88	0.554849
2080.34	0.572828
2081.8	0.775349
2083.26	0.74134
2084.72	0.201627
2086.17	0.199719
2087.63	0.567014
2089.09	0.698187
2090.54	0.61062
2092	0.892399
2093.46	0.586489
2094.91	0.968191
2096.37	0.779008
2097.82	0.806998
2099.28	1.13544
2100.73	0.794072
2102.19	0.754265
2103.64	0.214534
2105.09	0.778426
2106.55	0.976425
2108	1.14223
2109.46	1.14163
2110.91	1.25708
2112.36	0.571004
2113.81	1.54891
2115.27	0.959311
2116.72	1.3172
2118.17	1.42568
2119.62	0.855121
2121.07	1.74744
2122.52	0.983047
2123.97	1.33178
2125.42	1.76416
2126.87	1.20137
2128.32	1.31717
2129.77	1.92833
2131.22	2.04041
2132.67	1.58854
2134.12	1.13715
2135.57	1.97687
2137.01	2.40454
2138.46	1.72721
2139.91	1.99437
2141.36	1.85045
2142.8	2.35288
2144.25	1.89706
2145.7	2.23545
2147.14	2.65652
2148.59	2.5305
2150.03	2.22101
2151.48	1.79414
2152.92	2.32697
2154.37	2.27883
2155.81	2.26322
2157.26	3.02625
2158.7	2.99506
2160.15	2.46867
2161.59	2.6072
2163.03	2.53276
2164.48	2.72569
2165.92	2.63779
2167.36	3.19761
2168.8	2.80915
2170.25	2.41792
2171.69	2.93865
2173.13	2.57516
2174.57	2.1101
2176.01	2.62561
2177.45	2.32645
2178.89	2.61023
2180.33	2.03074
2181.77	2.1174
2183.21	2.27134
2184.65	2.47561
2186.09	2.08115
2187.53	2.35214
2188.97	2.30708
2190.41	2.26199
2191.84	2.66605
2193.28	2.38659
2194.72	1.90562
2196.16	2.62098
2197.59	2.15193
2199.03	1.78094
2200.47	2.27312
2201.9	2.13346
2203.34	2.29348
2204.78	1.62564
2206.21	1.5067
2207.65	1.68673
2209.08	1.94919
2210.51	2.19388
2211.95	1.82498
2213.38	1.67049
2214.82	2.27585
2216.25	1.89076
2217.68	1.14461
2219.12	0.944848
2220.55	1.65297
2221.98	1.00939
2223.42	1.53515
2224.85	1.53181
2226.28	0.835257
2227.71	0.696837
2229.14	1.44405
2230.57	1.30283
2232	0.932225
2233.43	1.31574
2234.86	1.15972
2236.29	1.02177
2237.72	0.738992
2239.15	1.35618
2240.58	1.17606
2242.01	0.737247
2243.44	1.36009
2244.87	0.466503
2246.3	0.828095
2247.73	0.258218
2249.15	0.256843
2250.58	0.562526
2252.01	1.14243
2253.43	0.598204
2254.86	1.04638
2256.29	0.878593
2257.71	0.73003
2259.14	0.584888
2260.56	0.670283
2261.99	0.839724
2263.41	0.442779
2264.84	0.387008
2266.26	0.769816
2267.69	0.81046
2269.11	0.573387
2270.54	0.70966
2271.96	0.633727
2273.38	0.752987
2274.81	0.628044
2276.23	0.535871
2277.65	0.378674
2279.07	0.351886
2280.49	0.748993
2281.92	0.36324
2283.34	0.531903
2284.76	0.602787
2286.18	0.624982
2287.6	0.712929
2289.02	0.0990992
2290.44	0.612729
2291.86	0.0482035
2293.28	0.366465
2294.7	0.243218
2296.12	0.299828
2297.54	0.683933
2298.96	0.134623
2300.38	0.355358
2301.79	0.478231
2303.21	0.240624
2304.63	0.0850248
2306.05	-0.0215445
2307.46	0.824411
2308.88	0.339015
2310.3	0.576103
2311.71	0.385209
2313.13	0.292876
2314.55	0.661802
2315.96	0.159127
2317.38	0.0852022
2318.79	0.506237
2320.21	0.135792
2321.62	-0.0547104
2323.03	0.4623
2324.45	-0.227983
2325.86	-0.0625315
2327.27	0.760561
2328.69	0.708397
2330.1	0.030592
2331.51	0.259943
2332.93	-0.135044
2334.34	0.112843
2335.75	-0.0503645
2337.16	-0.0330601
2338.57	0.0818186
2339.99	0.0310125
2341.4	0.455455
2342.81	-0.0894794
2344.22	-0.0597305
2345.63	0.166945
2347.04	-0.0813332
2348.45	0.0799589
2349.86	0.584165
2351.26	0.00790882
2352.67	-0.143865
2354.08	-0.149534
2355.49	-0.0907393
2356.9	0.0489807
2358.31	0.0582352
2359.71	0.34381
2361.12	0.661356
2362.53	0.475618
2363.94	0.0634041
2365.34	-0.315631
2366.75	0.146731
2368.15	0.269769
2369.56	0.216289
2370.97	-0.0290585
2372.37	0.00125217
2373.78	0.241982
2375.18	-0.257482
2376.59	-0.242052
2377.99	-0.0508966
2379.39	0.186526
2380.8	-0.0277786
2382.2	-0.211139
2383.61	0.245573
2385.01	0.28501
2386.41	0.268872
2387.81	0.253778
2389.22	-0.182459
2390.62	-0.106772
2392.02	-0.300568
2393.42	-0.19073
2394.82	0.206174
2396.22	0.0947981
2397.63	0.302066
2399.02	0.0173101
2400.43	-0.346201
2401.82	-0.010375
2403.23	-0.119269
2404.62	0.216066
2406.02	0.613783
2407.42	0.375454
2408.82	0.0571375
2410.22	0.198453
2411.62	0.149742
2413.02	-0.278107
2414.41	0.166467
2415.81	0.280062
2417.21	0.268497
2418.61	0.0996313
2420	-0.00554371
2421.4	-0.269271
2422.79	0.0210218
2424.19	0.152648
2425.59	0.141745
2426.98	0.210644
2428.38	-0.321894
2429.77	-0.187682
2431.17	-0.0843439
2432.56	0.0033989
2433.96	-0.25874
2435.35	0.494477
2436.74	0.356579
2438.14	-0.402694
2439.53	-0.146515
2440.92	0.283231
2442.32	-0.16101
2443.71	0.108833
2445.1	0.346538
2446.49	0.171646
2447.88	0.361246
2449.28	-0.146313
2450.67	0.185987
2452.06	-0.08284
2453.45	-0.129134
2454.84	-0.0321026
2456.23	0.445313
2457.62	0.41685
2459.01	-0.228627
2460.4	0.422209
2461.79	-0.129724
2463.18	0.108073
2464.57	0.218657
2465.96	0.565691
2467.34	-0.161097
2468.73	0.201404
2470.12	-0.130569
2471.51	0.278147
2472.89	0.276057
2474.28	0.273109
2475.67	0.190786
2477.05	0.202476
2478.44	-0.162826
2479.83	-0.260604
2481.21	-0.0287714
2482.6	0.139959
2483.98	0.026125
2485.37	-0.166659
2486.75	0.108423
2488.14	-0.133268
2489.52	0.0767775
2490.9	-0.180814
2492.29	0.153491
2493.67	0.131049
2495.06	0.141154
2496.44	-0.00237083
2497.82	0.0256386
2499.2	0.0539112
2500.59	0.159122
2501.97	0.108766
2503.35	-0.174187
2504.73	-0.164478
2506.11	0.0910692
2507.49	0.284208
2508.88	0.0619631
2510.26	0.101732
2511.63	-0.0419817
2513.01	0.183296
2514.39	-0.14225
2515.77	0.130551
2517.15	-0.743414
2518.53	0.0353413
2519.91	0.339765
2521.29	0.643579
2522.67	-0.198464
2524.05	0.347691
2525.42	0.0387554
2526.8	0.339131
2528.18	-0.0148115
2529.56	-0.123787
2530.93	0.0274172
2532.31	0.423453
2533.69	-0.273011
2535.06	-0.0266829
2536.44	0.0524883
2537.81	0.161309
2539.19	-0.0195141
2540.56	-0.0645008
2541.94	0.2544
2543.31	0.133375
2544.69	-0.017005
2546.06	-0.0446777
2547.44	-0.0558691
2548.81	-0.0661545
2550.18	-0.0308237
2551.56	0.535168
2552.93	0.128904
2554.3	0.222314
2555.68	0.375377
2557.05	0.467061
2558.42	0.361415
2559.79	0.513821
2561.16	0.439414
2562.53	0.259665
2563.9	0.489749
2565.28	-0.113156
2566.64	0.0570517
2568.02	0.469858
2569.38	-0.0721207
2570.76	0.20431
2572.12	-0.0648708
2573.49	-0.37947
2574.86	0.00331879
2576.23	0.55298
2577.6	0.420332
2578.97	0.469377
2580.34	0.320897
2581.7	0.126477
2583.07	0.159082
2584.44	0.585573
2585.81	-0.0794868
2587.17	-0.00161076
2588.54	0.394714
2589.91	0.0636892
2591.27	0.36902
2592.64	0.476794
2594	0.250363
2595.37	-0.0225096
2596.73	-0.00868988
2598.1	-0.177283
2599.46	0.258662
2600.83	-0.136862
2602.19	0.404907
2603.55	0.267605
2604.92	0.312111
2606.28	0.221044
2607.64	-0.247279
2609.01	0.173138
2610.37	0.305585
2611.73	0.496573
2613.09	0.430287
2614.46	0.0928545
2615.82	-0.0641146
2617.18	-0.0106611
2618.54	-0.570705
2619.9	0.202793
2621.26	0.213288
2622.62	-0.313574
2623.98	-0.0630054
2625.34	0.15732
2626.7	0.30251
2628.06	8.2016e-005
2629.42	0.308252
2630.78	0.392531
2632.14	0.402214
2633.5	0.634624
2634.86	-0.038743
2636.22	0.519835
2637.57	0.262491
2638.93	0.346152
2640.29	0.2819
2641.64	0.173673
2643	0.0806742
2644.36	0.238957
2645.72	0.146131
2647.07	0.0530024
2648.43	0.0771036
2649.78	-0.002738
2651.14	0.357856
2652.49	0.276777
2653.85	0.372144
2655.2	0.145679
2656.56	0.550564
2657.91	-0.185477
2659.27	0.630939
2660.62	0.131044
2661.97	0.259901
2663.33	0.110447
2664.68	-0.0543051
2666.03	0.217914
2667.38	0.0519648
2668.74	0.526883
2670.09	0.142874
2671.44	0.617843
2672.79	0.351837
2674.14	0.580588
2675.49	0.0404654
2676.84	0.386466
2678.2	0.326828
2679.55	0.224639
2680.89	0.0656252
2682.24	0.357357
2683.59	-0.132587
2684.94	0.277562
2686.29	0.238675
2687.64	0.141536
2688.99	0.130173
2690.34	-0.0862551
2691.69	0.174385
2693.04	0.0849953
2694.38	-0.00537872
2695.73	0.164995
2697.08	0.16201
2698.43	0.319706
2699.77	0.392297
2701.12	0.162718
2702.46	0.0505619
2703.81	0.171301
2705.16	0.452177
2706.5	0.0516748
2707.85	0.100351
2709.19	0.0905533
2710.54	0.196506
2711.88	0.302228
2713.23	-0.0571537
2714.57	-0.0534391
2715.92	0.0665169
2717.26	0.419087
2718.6	0.0441704
2719.95	0.105201
2721.29	-0.096199
2722.63	-0.0507412
2723.97	-0.0494556
2725.32	0.0241385
2726.66	0.330192
2728	0.402986
2729.34	0.0534725
2730.68	0.314993
2732.02	0.518205
2733.36	0.35778
2734.7	0.343027
2736.04	0.0521421
2737.39	0.197746
2738.72	-0.136621
2740.06	-0.0931177
2741.4	-0.0646677
2742.74	-0.0369196
2744.08	0.266193
2745.42	0.00183678
2746.76	-0.175659
2748.1	0.488672
2749.44	0.383482
2750.77	-0.330539
2752.11	-0.159394
2753.45	-0.524371
2754.78	0.197671
2756.12	0.0648556
2757.46	-0.183554
2758.79	0.306701
2760.13	-0.259385
2761.47	-0.0433464
2762.8	0.288898
2764.14	0.0282087
2765.47	0.505418
2766.81	-0.247652
2768.14	-0.032362
2769.48	-0.107744
2770.81	0.32119
2772.14	0.0115747
2773.48	0.062027
2774.81	-0.291873
2776.14	0.204618
2777.48	0.124963
2778.81	0.0603991
2780.14	0.255157
2781.47	0.0622578
2782.81	-0.0441895
2784.14	-0.0501804
2785.47	-0.328506
2786.8	0.124179
2788.13	0.0758333
2789.46	0.285909
2790.79	-0.0180912
2792.12	0.136484
2793.46	-0.123076
2794.79	-0.0823498
2796.11	-0.0848665
2797.44	0.06915
2798.77	-0.362961
2800.1	0.246679
2801.43	-0.185899
2802.76	0.508118
2804.09	0.203582
2805.42	0.511315
2806.74	-0.107182
2808.07	0.0709696
2809.4	0.163105
2810.73	0.326122
2812.05	-0.0355129
2813.38	-0.282029
2814.71	-0.385038
2816.03	0.123004
2817.36	0.433686
2818.68	-0.0061903
2820.01	0.220105
2821.33	0.403381
2822.66	0.189084
2823.98	0.130017
2825.31	-0.226867
2826.63	-0.00293636
2827.96	0.674507
2829.28	0.0641203
2830.61	0.516033
2831.93	0.203751
2833.25	0.330227
2834.57	0.55542
2835.9	0.794168
2837.22	0.381363
2838.54	1.17064
2839.86	1.26631
2841.18	1.13583
2842.51	1.54302
2843.83	1.44204
2845.15	1.75175
2846.47	1.79366
2847.79	2.10454
2849.11	1.93493
2850.43	2.28792
2851.75	2.15977
2853.07	1.47985
2854.39	2.35403
2855.71	1.99854
2857.03	2.06694
2858.35	2.58735
2859.67	1.79421
2860.98	1.94717
2862.3	2.4103
2863.62	2.51995
2864.94	2.4458
2866.25	2.85127
2867.57	2.57989
2868.89	2.77443
2870.21	3.06807
2871.52	2.4456
2872.84	3.11961
2874.15	3.03164
2875.47	3.04109
2876.78	3.14784
2878.1	3.22539
2879.42	3.58379
2880.73	3.30964
2882.04	3.16315
2883.36	3.0882
2884.67	3.12674
2885.99	3.19402
2887.3	3.24733
2888.61	3.41238
2889.93	3.42215
2891.24	3.48702
2892.55	3.64924
2893.87	3.74105
2895.18	3.27313
2896.49	3.7723
2897.8	3.90856
2899.11	3.27646
2900.42	4.07237
2901.74	3.91749
2903.05	4.61614
2904.36	4.33579
2905.67	4.64325
2906.98	4.18207
2908.29	4.98078
2909.6	4.75937
2910.91	5.01438
2912.22	5.2835
2913.53	5.50982
2914.83	5.31448
2916.14	6.02702
2917.45	5.6597
2918.76	5.5572
2920.07	6.08394
2921.37	6.44339
2922.68	6.60851
2923.99	6.39796
2925.3	6.78991
2926.6	6.88913
2927.91	7.21213
2929.22	7.59059
2930.52	7.10159
2931.83	6.8357
2933.13	6.86306
2934.44	7.28175
2935.74	7.23933
2937.05	6.62418
2938.35	6.93162
2939.66	6.62457
2940.96	6.68148
2942.27	6.71152
2943.57	6.33777
2944.87	5.9935
2946.18	5.46866
2947.48	5.57376
2948.78	5.10482
2950.09	5.09631
2951.39	5.14176
2952.69	5.25502
2953.99	5.04459
2955.29	4.70778
2956.6	4.74999
2957.9	4.6546
2959.2	3.90426
2960.5	4.17904
2961.8	4.23223
2963.1	4.53896
2964.4	4.31204
2965.7	4.05512
2967	3.9085
2968.3	3.85867
2969.6	3.58297
2970.9	3.47579
2972.2	3.49554
2973.49	3.02317
2974.79	3.57815
2976.09	3.02043
2977.39	2.64422
2978.69	2.95609
2979.98	2.94217
2981.28	3.09563
2982.58	2.68572
2983.88	2.7405
2985.17	2.41702
2986.47	2.27809
2987.76	2.19706
2989.06	1.82208
2990.36	1.91116
2991.65	1.80301
2992.95	1.497
2994.24	1.26
2995.54	1.72424
2996.83	1.83633
2998.12	1.33064
2999.42	1.23247
3000.71	1.20511
3002	0.757946
3003.3	1.01218
3004.59	1.12634
3005.88	0.890086
3007.18	0.611384
3008.47	0.458006
3009.76	0.639476
3011.05	0.736094
3012.35	0.106134
3013.64	0.495576
3014.93	0.118207
3016.22	0.313298
3017.51	0.0495596
3018.8	0.148499
3020.09	0.497798
3021.38	0.262521
3022.67	0.276694
3023.96	-0.0848389
3025.25	0.135812
3026.54	0.355841
3027.83	0.465306
3029.12	0.188736
3030.41	-0.127215
3031.69	0.138819
3032.98	0.295394
3034.27	0.245265
3035.56	-0.108817
3036.85	0.0876417
3038.13	0.323322
3039.42	-0.282892
3040.71	0.0453501
3041.99	-0.122312
3043.28	0.162789
3044.57	-0.0172987
3045.85	0.105654
3047.14	0.244423
3048.42	0.0989141
3049.71	0.0377855
3050.99	0.0330353
3052.28	0.629654
3053.56	0.271185
3054.85	-0.115105
3056.13	0.397904
3057.42	0.091486
3058.7	0.411309
3059.98	0.417373
3061.27	0.110917
3062.55	0.0507059
3063.83	0.00567913
3065.11	0.166313
3066.4	0.138169
3067.68	0.423905
3068.96	0.411077
3070.24	0.0988512
3071.52	0.207383
3072.8	0.178704
3074.09	-0.0687103
3075.37	0.416905
3076.65	0.358558
3077.93	0.463662
3079.21	0.108635
3080.49	-0.29875
3081.77	-0.0532436
3083.05	0.288666
3084.32	-0.101182
3085.61	-0.0295429
3086.88	0.313197
3088.16	0.0173645
3089.44	-0.197632
3090.72	0.224829
3092	0.0637054
3093.27	0.0792494
3094.55	-0.0539551
3095.83	-0.43076
3097.11	-0.156526
3098.38	0.226089
3099.66	-0.0418987
3100.94	0.259222
3102.21	-0.157386
3103.49	0.56388
3104.76	0.324451
3106.04	0.275497
3107.31	0.457706
3108.59	-0.0355039
3109.86	0.12212
3111.14	-0.152306
3112.41	-0.0196462
3113.69	0.316916
3114.96	0.328547
3116.23	0.380501
3117.51	0.14687
3118.78	0.508986
3120.05	0.639441
3121.33	0.484237
3122.6	0.179569
3123.87	0.620091
3125.14	0.410673
3126.42	0.188525
3127.69	0.494923
3128.96	0.463701
3130.23	0.649343
3131.5	0.862209
3132.77	0.18313
3134.04	0.733448
3135.31	0.607845
3136.58	0.670842
3137.85	0.504178
3139.12	0.755115
3140.39	0.238459
3141.66	0.650835
3142.93	0.337429
3144.2	1.12607
3145.47	0.787485
3146.74	0.745232
3148	0.891447
3149.27	0.783948
