200.388	0.0569897
202.204	0.070816
204.019	0.0847664
205.832	0.878662
207.646	1.13778
209.459	0.934587
211.274	0.147457
213.087	-0.300471
214.899	0.46376
216.711	0.668842
218.524	0.84973
220.335	0.281176
222.146	0.827589
223.956	0.528791
225.766	-0.324468
227.576	0.152012
229.388	5.43594e-005
231.197	-0.369527
233.005	-0.111747
234.813	0.31526
236.621	0.11714
238.429	0.765774
240.236	-0.100368
242.045	-0.312436
243.852	0.00811768
245.658	0.184392
247.464	-0.486043
249.269	0.240367
251.074	0.262466
252.879	-0.37081
254.683	0.779305
256.487	0.6981
258.291	-0.1288
260.094	-0.205815
261.897	-0.617242
263.702	-0.0143805
265.504	0.783056
267.306	0.521128
269.108	-0.271466
270.909	0.333061
272.71	0.502278
274.511	0.693765
276.311	1.31691
278.111	0.65998
279.91	0.458463
281.709	0.398804
283.508	-0.240487
285.306	-0.0876493
287.105	0.68793
288.9	0.359038
290.698	0.175664
292.495	0.18603
294.291	0.174788
296.088	0.954766
297.884	0.397455
299.679	-0.0152283
301.475	-0.260553
303.27	-0.769348
305.064	0.0333195
306.858	-0.215537
308.652	0.155404
310.444	0.288495
312.237	0.756684
314.03	0.369865
315.822	0.724035
317.615	0.223653
319.406	0.892657
321.198	1.54021
322.987	1.25969
324.778	1.14671
326.568	1.22489
328.358	1.23127
330.148	2.07348
331.935	0.905766
333.724	0.763503
335.513	1.50355
337.301	0.852395
339.089	0.892146
340.875	0.714346
342.662	1.13312
344.449	0.978023
346.236	0.704393
348.02	0.74242
349.806	0.781269
351.592	0.319022
353.375	0.882333
355.16	0.990646
356.944	0.64395
358.728	0.271877
360.51	-0.410961
362.294	-0.403965
364.077	0.00623131
365.858	0.248466
367.64	0.0382195
369.422	0.111736
371.202	1.41562
372.983	1.84017
374.764	1.86143
376.543	2.23684
378.324	2.94242
380.102	3.62457
381.881	4.30758
383.661	3.93347
385.438	4.8787
387.216	4.81496
388.993	4.82393
390.771	4.76439
392.548	5.43452
394.324	4.55591
396.101	3.91295
397.875	4.06871
399.651	3.51967
401.425	3.62755
403.201	2.39563
404.974	2.243
406.749	1.94835
408.524	1.08938
410.296	0.746659
412.07	1.7653
413.841	1.54059
415.614	0.589672
417.385	0.883552
419.156	0.521376
420.928	1.1453
422.698	0.266726
424.469	0.5843
426.238	0.360627
428.009	0.276636
429.777	-0.0193195
431.548	0.647017
433.315	0.961643
435.083	0.384932
436.852	0.230676
438.618	0.0754757
440.387	0.598829
442.153	-0.100707
443.919	0.275804
445.686	-0.170748
447.451	0.294514
449.218	-0.0602322
450.982	-0.0170746
452.746	-0.487132
454.512	0.210158
456.275	0.0905685
458.038	0.203842
459.803	0.154098
461.565	-0.0342102
463.327	0.267877
465.091	-0.00784683
466.852	0.278103
468.613	-0.129319
470.374	0.279516
472.136	0.41055
473.896	0.214786
475.655	0.645247
477.415	0.397226
479.176	0.356105
480.934	0.988946
482.692	0.597034
484.45	-0.0261545
486.21	-0.041172
487.967	0.319664
489.724	0.613866
491.481	0.793327
493.237	0.857272
494.995	1.34262
496.75	1.59465
498.506	0.792386
500.26	0.503902
502.015	1.64566
503.771	1.51954
505.525	1.93206
507.279	2.20181
509.032	1.48134
510.785	2.4521
512.537	2.85582
514.289	3.6335
516.041	3.70283
517.793	3.72297
519.546	3.10662
521.297	3.82879
523.047	4.03274
524.797	3.43803
526.547	3.40693
528.297	3.28212
530.046	3.39162
531.795	3.0319
533.543	3.0458
535.291	2.68348
537.039	1.82866
538.787	1.44015
540.534	1.9135
542.281	0.73062
544.027	1.10872
545.773	1.25345
547.519	1.28203
549.264	1.00951
551.01	0.344254
552.754	1.0686
554.499	0.890478
556.243	0.505348
557.987	0.282939
559.73	0.614574
561.474	0.16373
563.216	1.30155
564.959	0.737609
566.701	0.336138
568.441	0.464304
570.182	0.433172
571.923	0.793989
573.664	0.239484
575.405	0.352756
577.145	0.216025
578.885	0.494285
580.624	0.291612
582.361	0.548482
584.1	0.299096
585.839	0.898994
587.577	0.669271
589.315	-0.0224705
591.052	0.595778
592.787	1.23624
594.524	0.841084
596.26	1.71135
597.997	0.648986
599.732	1.21958
601.466	1.51282
603.201	0.585125
604.936	1.19617
606.67	0.517906
608.403	1.03331
610.136	1.45602
611.87	1.62659
613.603	0.926929
615.334	0.916438
617.067	0.700038
618.799	0.551789
620.529	-0.261672
622.26	-0.0236378
623.991	0.487149
625.72	-0.0765352
627.451	-0.501162
629.181	0.606204
630.909	0.73517
632.638	0.0456238
634.368	0.0877991
636.095	0.472036
637.823	0.62569
639.551	0.227743
641.277	0.16809
643.005	0.218966
644.73	0.450047
646.457	0.20327
648.184	0.0503244
649.908	-1.2116
651.634	-0.28692
653.357	1.39347
655.083	-0.26304
656.806	0.10726
658.53	0.639279
660.253	0.167943
661.977	0.104655
663.7	0.22092
665.422	0.768293
667.145	-0.0131168
668.865	0.599152
670.588	-0.411731
672.308	0.0210648
674.027	0.159945
675.749	0.462487
677.468	-0.24208
679.188	0.361311
680.907	0.734671
682.627	0.715022
684.345	0.323966
686.064	-0.0242414
687.781	0.569471
689.498	-0.88829
691.216	-0.320126
692.932	-0.144389
694.65	0.329714
696.366	-0.0497131
698.081	0.398159
699.797	0.682834
701.512	0.0686312
703.228	0.763864
704.942	-0.0357571
706.655	0.0830536
708.371	0.0405378
710.083	0.730791
711.796	0.938574
713.51	0.184804
715.222	0.529034
716.934	1.00954
718.645	0.0521288
720.358	0.623665
722.068	0.807315
723.779	0.239864
725.49	0.718935
727.2	0.856077
728.909	0.697354
730.618	0.78765
732.329	0.945131
734.037	0.694738
735.745	0.309269
737.453	0.963737
739.16	1.18926
740.869	0.964898
742.576	0.787642
744.282	0.725061
745.988	0.754519
747.694	0.380955
749.401	1.69634
751.107	1.55139
752.811	1.56579
754.516	1.33472
756.22	1.53325
757.924	2.43218
759.627	2.70351
761.332	3.20246
763.035	4.28968
764.738	3.91048
766.44	5.22351
768.142	4.81682
769.843	5.87579
771.544	6.99922
773.245	7.41888
774.946	7.7018
776.646	8.18914
778.346	7.48064
780.046	7.8379
781.745	7.38321
783.444	6.31759
785.143	5.15886
786.841	4.83339
788.539	3.95947
790.237	3.35226
791.934	3.1031
793.631	2.19691
795.328	1.90099
797.024	2.19286
798.72	2.03621
800.416	1.65735
802.112	1.9559
803.807	2.05284
805.502	1.52009
807.196	1.36865
808.89	2.00172
810.584	1.75703
812.278	1.73557
813.971	1.60126
815.664	1.82497
817.354	1.44431
819.047	1.51134
820.739	1.6678
822.43	1.37825
824.122	1.69226
825.813	1.42844
827.503	1.61333
829.192	2.02468
830.882	1.41591
832.571	1.43472
834.261	1.18912
835.95	0.610166
837.637	0.632912
839.325	0.698847
841.013	1.14245
842.701	0.891823
844.389	0.685044
846.074	1.28366
847.761	0.990663
849.447	0.432234
851.131	1.08549
852.817	0.487522
854.503	0.69741
856.188	0.795286
857.871	1.49894
859.556	0.176381
861.24	-0.0472202
862.922	0.58284
864.606	0.625753
866.289	0.329267
867.97	0.437624
869.653	0.838602
871.336	0.900919
873.016	0.150798
874.698	0.844425
876.379	0.906389
878.058	0.0656071
879.739	0.0596714
881.418	0.324177
883.098	0.271713
884.778	0.353251
886.456	0.455477
888.135	-0.00853825
889.812	0.698387
891.49	0.748872
893.167	0.32451
894.845	-0.100814
896.523	0.77705
898.198	0.484025
899.875	0.0557089
901.55	1.2405
903.226	1.07889
904.901	0.559832
906.576	0.979832
908.25	-0.0940475
909.925	-0.563036
911.598	0.260492
913.271	0.48325
914.945	0.706082
916.617	-0.224946
918.291	0.0203047
919.962	0.464527
921.635	0.99715
923.306	0.955755
924.978	0.673703
926.648	0.32833
928.318	1.13334
929.989	0.946693
931.659	0.474336
933.328	1.67911
934.998	0.722203
936.666	0.560096
938.336	0.421244
940.004	1.4751
941.671	0.236773
943.34	0.234653
945.007	0.453115
946.673	0.162458
948.339	0.266636
950.007	0.103334
951.672	0.357585
953.337	0.0602913
955.004	0.0518303
956.669	-0.261655
958.333	0.090827
959.997	0.0722847
961.662	0.144299
963.326	-0.225706
964.989	0.396914
966.651	-0.266767
968.315	0.0390701
969.977	-0.100496
971.639	0.245335
973.301	0.591589
974.962	-0.143805
976.624	0.0299797
978.285	-0.125888
979.945	-0.159156
981.605	-0.192892
983.264	0.380396
984.924	0.0434456
986.583	-0.119216
988.243	0.57858
989.901	0.12408
991.56	-0.0877733
993.217	-0.432159
994.875	-0.378681
996.532	0.027895
998.188	0.23555
999.845	-0.152316
1001.5	-0.0337124
1003.16	-0.245955
1004.81	0.927114
1006.47	0.0765648
1008.12	0.676743
1009.78	0.79375
1011.43	0.428784
1013.09	0.0649471
1014.74	0.512554
1016.39	1.00402
1018.05	0.751779
1019.7	0.872754
1021.35	2.32884
1023	2.78037
1024.65	2.73066
1026.31	2.66013
1027.96	3.44182
1029.61	4.22229
1031.26	4.93476
1032.91	5.27269
1034.56	4.60354
1036.21	4.65219
1037.86	4.69921
1039.51	4.81123
1041.16	4.55445
1042.8	3.47431
1044.45	4.50587
1046.1	3.36807
1047.75	3.6891
1049.39	3.49174
1051.04	2.5798
1052.69	2.62481
1054.33	2.23589
1055.98	1.39041
1057.62	2.10936
1059.27	1.78417
1060.91	1.34921
1062.56	1.63059
1064.2	1.38871
1065.85	1.42791
1067.49	1.20463
1069.13	1.61005
1070.77	1.23231
1072.42	1.50588
1074.06	1.73652
1075.7	2.05535
1077.34	2.46287
1078.98	2.24347
1080.62	3.21803
1082.27	3.8023
1083.91	2.97569
1085.55	4.35774
1087.18	4.43515
1088.82	5.4398
1090.46	5.03325
1092.1	5.25202
1093.74	4.77824
1095.38	5.40601
1097.02	3.33953
1098.65	3.64819
1100.29	4.06712
1101.93	2.89666
1103.56	2.0312
1105.2	2.67394
1106.84	2.47874
1108.47	1.1649
1110.11	1.31193
1111.74	1.34903
1113.38	1.34062
1115.01	1.09412
1116.64	0.932801
1118.28	0.793269
1119.91	-0.0520954
1121.54	0.175583
1123.18	0.233354
1124.81	0.891594
1126.44	1.22989
1128.07	1.03462
1129.7	1.35367
1131.33	-0.250577
1132.97	0.198154
1134.6	0.176399
1136.23	0.773583
1137.86	0.749347
1139.49	0.232066
1141.11	0.0339832
1142.74	-0.0793123
1144.37	0.19156
1146	-0.368277
1147.63	-0.457484
1149.26	0.0298347
1150.88	0.112943
1152.51	0.941392
1154.14	0.598003
1155.76	-0.256567
1157.39	-0.28103
1159.01	0.3969
1160.64	-0.0725946
1162.27	0.161316
1163.89	0.269104
1165.51	0.0800095
1167.14	0.379631
1168.76	0.422608
1170.39	1.73838
1172.01	1.26558
1173.63	1.36375
1175.25	0.802115
1176.88	0.431295
1178.5	0.654425
1180.12	0.30671
1181.74	0.299233
1183.36	0.398494
1184.98	0.751318
1186.6	0.574473
1188.22	0.711987
1189.84	0.804137
1191.46	0.787931
1193.08	0.243809
1194.7	0.68673
1196.32	0.897754
1197.94	0.732659
1199.55	0.40322
1201.17	0.809236
1202.79	1.26036
1204.41	0.588019
1206.02	-0.059741
1207.64	0.838497
1209.25	1.09037
1210.87	0.485912
1212.48	-0.287463
1214.1	0.624619
1215.71	0.865876
1217.33	0.459086
1218.94	0.674953
1220.56	0.516478
1222.17	1.08515
1223.79	0.556439
1225.4	0.817605
1227.01	0.377142
1228.62	0.828583
1230.23	1.17817
1231.85	1.19864
1233.46	1.01426
1235.07	1.1418
1236.68	1.31251
1238.29	0.1411
1239.9	0.727828
1241.51	0.549875
1243.12	0.433455
1244.73	0.481448
1246.34	1.29364
1247.94	0.448945
1249.55	0.617069
1251.16	0.474363
1252.77	1.118
1254.37	0.935218
1255.98	1.35387
1257.59	1.15385
1259.2	0.603721
1260.8	1.25515
1262.41	0.85171
1264.01	0.696627
1265.62	0.976048
1267.22	0.321815
1268.83	1.13794
1270.43	0.211095
1272.03	1.39757
1273.64	1.29698
1275.24	0.904725
1276.85	1.19512
1278.45	0.986946
1280.05	0.985066
1281.65	0.589482
1283.25	1.24945
1284.85	1.3513
1286.46	0.916899
1288.06	0.773607
1289.66	1.21034
1291.26	0.883221
1292.86	2.06437
1294.46	1.55012
1296.06	1.22009
1297.66	1.94072
1299.25	1.52332
1300.85	1.53712
1302.45	1.4254
1304.05	2.27967
1305.65	1.15744
1307.24	2.25482
1308.84	1.23625
1310.43	0.69122
1312.03	0.680131
1313.63	1.28369
1315.22	0.886312
1316.82	1.04227
1318.41	0.15832
1320.01	1.02886
1321.6	1.61157
1323.2	0.644341
1324.79	1.34348
1326.38	1.38917
1327.98	0.927011
1329.57	0.729974
1331.16	1.16261
1332.76	0.971184
1334.35	1.24776
1335.94	1.10267
1337.53	0.85778
1339.12	0.995275
1340.71	0.948954
1342.3	0.336185
1343.89	1.35004
1345.48	0.793867
1347.07	0.379416
1348.66	0.60922
1350.25	1.16228
1351.84	0.918273
1353.43	-0.162156
1355.01	0.219085
1356.6	0.081152
1358.19	0.621935
1359.77	0.961325
1361.36	0.480515
1362.95	0.457779
1364.53	0.494339
1366.12	0.331916
1367.71	0.449561
1369.29	1.40486
1370.88	0.84918
1372.46	0.494733
1374.04	0.122065
1375.63	0.566186
1377.21	0.552839
1378.8	0.558713
1380.38	0.185107
1381.96	0.923786
1383.54	0.347655
1385.13	0.187949
1386.71	0.782658
1388.29	0.0266399
1389.87	0.423462
1391.45	0.920476
1393.03	1.16048
1394.61	0.191135
1396.19	0.272927
1397.77	0.849276
1399.35	0.452812
1400.93	0.451422
1402.51	0.726274
1404.09	0.802896
1405.67	0.939479
1407.24	0.503994
1408.82	0.346686
1410.4	0.308756
1411.98	0.685491
1413.55	0.0149431
1415.13	1.06027
1416.71	1.51168
1418.28	0.562564
1419.86	1.30903
1421.43	1.40653
1423.01	1.54567
1424.58	0.939342
1426.16	1.71272
1427.73	1.95556
1429.31	1.05642
1430.88	1.90769
1432.45	2.87503
1434.02	2.20746
1435.6	3.46688
1437.17	2.7597
1438.74	2.42752
1440.31	2.19531
1441.88	2.65248
1443.45	2.99285
1445.03	2.50841
1446.6	2.31903
1448.17	1.48114
1449.74	2.60944
1451.3	3.16852
1452.87	1.93904
1454.44	2.22429
1456.01	1.48649
1457.58	2.06599
1459.15	1.79745
1460.72	1.97894
1462.28	2.0788
1463.85	1.97937
1465.42	1.34762
1466.98	1.79637
1468.55	1.22418
1470.12	1.16406
1471.68	0.92907
1473.25	1.14685
1474.81	0.483282
1476.38	1.33025
1477.94	1.68706
1479.51	1.00475
1481.07	0.910445
1482.63	1.10999
1484.2	1.38764
1485.76	1.29246
1487.32	1.58789
1488.88	0.941416
1490.45	1.54511
1492.01	1.01065
1493.57	0.727779
1495.13	0.813511
1496.69	0.546644
1498.25	0.455173
1499.81	0.675635
1501.37	0.586498
1502.93	0.208356
1504.49	0.0453711
1506.05	-0.0201311
1507.61	0.31978
1509.17	-0.173184
1510.73	0.548995
1512.28	0.535779
1513.84	0.367998
1515.4	0.0855284
1516.96	0.28453
1518.51	0.254035
1520.07	0.358569
1521.63	0.424925
1523.18	-0.197429
1524.74	0.0969496
1526.29	-0.0875101
1527.85	-0.139526
1529.4	0.340212
1530.96	-0.0169821
1532.51	0.291161
1534.06	-0.271411
1535.62	0.473964
1537.17	0.576604
1538.72	-0.0938549
1540.28	0.180409
1541.83	-0.807916
1543.38	-0.08181
1544.93	0.0785313
1546.48	0.557536
1548.03	0.30352
1549.59	0.199905
1551.14	0.396334
1552.69	0.25633
1554.24	0.753355
1555.79	0.597864
1557.34	0.295748
1558.88	0.64972
1560.43	-0.0757885
1561.98	0.283049
1563.53	0.158433
1565.08	1.06084
1566.62	0.489389
1568.17	0.458712
1569.72	0.856795
1571.27	0.302351
1572.81	0.662129
1574.36	1.07769
1575.9	0.709232
1577.45	0.919741
1579	-0.138697
1580.54	0.838714
1582.09	1.20124
1583.63	0.96736
1585.17	1.12685
1586.72	0.614123
1588.26	0.75581
1589.8	0.766347
1591.35	0.982173
1592.89	1.15999
1594.43	1.00031
1595.97	1.81482
1597.52	1.44967
1599.06	1.5727
1600.6	0.946535
1602.14	1.29637
1603.68	1.15832
1605.22	0.737388
1606.76	1.04715
1608.3	0.940774
1609.84	0.511598
1611.38	1.63881
1612.92	0.90295
1614.46	1.61112
1615.99	1.06102
1617.53	0.962076
1619.07	0.977263
1620.61	0.938376
1622.14	0.395927
1623.68	0.659859
1625.22	0.998665
1626.75	0.718701
1628.29	0.829961
1629.82	1.76193
1631.36	1.60731
1632.9	1.24675
1634.43	1.61501
1635.96	1.53623
1637.5	1.23508
1639.03	1.51304
1640.57	1.43677
1642.1	1.58324
1643.63	1.24382
1645.16	1.23797
1646.7	1.67705
1648.23	1.87339
1649.76	1.97711
1651.29	2.5275
1652.82	2.07761
1654.36	2.01919
1655.89	1.72084
1657.42	1.6635
1658.95	1.91995
1660.48	1.61885
1662.01	1.14945
1663.53	1.84359
1665.06	1.31666
1666.59	1.80609
1668.12	2.3148
1669.65	1.22149
1671.18	1.5317
1672.7	1.21705
1674.23	1.10585
1675.76	1.39943
1677.29	0.826678
1678.81	0.657539
1680.34	0.909939
1681.86	0.59129
1683.39	0.474518
1684.91	0.798357
1686.44	0.957201
1687.96	0.51163
1689.49	0.268605
1691.01	0.703629
1692.54	0.314787
1694.06	-0.110353
1695.58	0.470202
1697.11	0.0265255
1698.63	-0.0884438
1700.15	0.526128
1701.67	0.208992
1703.2	0.201293
1704.72	0.0288982
1706.24	0.0744457
1707.76	0.0649471
1709.28	0.291427
1710.8	0.390573
1712.32	-0.525679
1713.84	0.317248
1715.36	-0.09025
1716.88	0.768984
1718.4	-0.741005
1719.91	0.135067
1721.43	0.396408
1722.95	-0.297434
1724.47	-0.106095
1725.99	0.0867987
1727.5	-0.780625
1729.02	-0.314492
1730.54	0.172834
1732.05	0.0170317
1733.57	0.333842
1735.09	-0.283422
1736.6	0.0591469
1738.12	0.194706
1739.63	0.111719
1741.15	0.63337
1742.66	0.0929852
1744.18	0.113566
1745.69	0.470088
1747.2	0.32996
1748.72	0.221781
1750.23	-0.0185566
1751.74	0.373167
1753.25	0.17705
1754.77	-0.125341
1756.28	0.153146
1757.79	-0.0810251
1759.3	0.204819
1760.81	0.359961
1762.32	0.232513
1763.83	-0.396692
1765.34	-0.129123
1766.85	0.0828791
1768.36	0.633795
1769.87	0.338268
1771.38	0.216308
1772.89	-0.271647
1774.4	0.283051
1775.91	0.0395317
1777.41	-0.0608273
1778.92	0.450334
1780.43	0.371084
1781.94	0.600037
1783.44	0.146638
1784.95	0.275444
1786.45	0.270379
1787.96	0.361943
1789.47	0.569988
1790.97	0.62082
1792.48	0.589941
1793.98	0.447487
1795.48	0.375254
1796.99	0.790275
1798.49	0.223898
1800	0.231076
1801.5	0.415212
1803	0.554331
1804.51	0.633619
1806.01	0.0206966
1807.51	0.545888
1809.01	0.417153
1810.51	0.225407
1812.02	0.407763
1813.52	0.543469
1815.02	0.372079
1816.52	0.214499
1818.02	0.106247
1819.52	0.201148
1821.02	0.516753
1822.52	0.541818
1824.02	0.45597
1825.51	0.437452
1827.01	0.573855
1828.51	0.532443
1830.01	0.148293
1831.51	0.225297
1833	0.0130844
1834.5	0.152703
1836	0.590113
1837.5	0.387177
1838.99	0.597598
1840.49	0.152087
1841.98	0.422034
1843.48	0.819634
1844.97	0.572138
1846.47	0.685064
1847.96	0.454322
1849.46	0.271518
1850.95	0.104396
1852.45	-0.203279
1853.94	0.626072
1855.43	0.582103
1856.92	0.196812
1858.42	-0.0366125
1859.91	0.17141
1861.4	0.457929
1862.89	0.296413
1864.39	0.443814
1865.88	0.0990248
1867.37	0.41854
1868.86	0.200814
1870.35	0.293291
1871.84	0.971685
1873.33	0.320067
1874.82	0.639753
1876.31	0.374312
1877.8	0.0830269
1879.29	0.0664721
1880.77	0.0403757
1882.26	0.202046
1882.51	0.229241
1884	0.592503
1885.5	0.0657883
1886.99	0.583513
1888.48	0.212247
1889.98	0.502736
1891.47	0.428953
1892.97	0.426761
1894.46	0.374682
1895.95	0.411469
1897.44	0.171052
1898.93	0.695802
1900.42	0.0364323
1901.92	0.279664
1903.41	0.433661
1904.9	0.359748
1906.39	0.198029
1907.88	0.748401
1909.37	1.1775
1910.86	0.0805798
1912.35	0.581328
1913.84	0.562268
1915.32	0.283226
1916.81	0.17725
1918.3	0.417307
1919.79	0.604672
1921.28	0.306801
1922.76	0.719557
1924.25	-0.0959578
1925.74	0.509622
1927.22	0.0258646
1928.71	0.70288
1930.2	0.410299
1931.68	-0.14308
1933.17	-0.0401525
1934.65	-0.00863266
1936.14	-0.152176
1937.62	-0.141379
1939.11	0.369914
1940.59	0.155651
1942.08	0.374119
1943.56	0.110676
1945.04	-0.185993
1946.53	0.448888
1948.01	0.118016
1949.49	-0.161837
1950.97	0.142785
1952.45	0.428712
1953.94	-0.163427
1955.42	0.310513
1956.9	-0.2804
1958.38	-0.457891
1959.86	0.137603
1961.34	0.184519
1962.82	-0.368263
1964.3	0.278503
1965.78	0.119202
1967.26	0.0961466
1968.74	0.123631
1970.22	0.133253
1971.69	0.0912895
1973.17	-0.206715
1974.65	0.468007
1976.13	0.681816
1977.61	0.0439167
1979.08	0.155928
1980.56	0.301776
1982.03	0.192242
1983.51	0.354265
1984.99	0.142211
1986.46	-0.239428
1987.94	0.41327
1989.41	0.354112
1990.89	0.431255
1992.36	1.06762
1993.84	0.233883
1995.31	-0.209465
1996.78	-0.145165
1998.26	0.239936
1999.73	0.21907
2001.2	0.011858
2002.68	-0.0945711
2004.15	-0.0830593
2005.62	-0.0711584
2007.09	0.126893
2008.56	0.208097
2010.04	-0.147389
2011.51	0.0365429
2012.98	0.304656
2014.45	0.302921
2015.92	0.14882
2017.39	0.330064
2018.86	0.157112
2020.33	-0.0835648
2021.8	0.397947
2023.27	0.0233345
2024.74	0.0694656
2026.2	0.519581
2027.67	0.585581
2029.14	-0.000660896
2030.61	-0.0485907
2032.07	0.156353
2033.54	-0.326241
2035.01	0.416728
2036.47	-0.167365
2037.94	0.171745
2039.41	-0.228963
2040.87	-0.226458
2042.34	0.398624
2043.8	0.0158129
2045.27	0.66026
2046.73	0.868567
2048.2	0.268944
2049.66	0.578394
2051.12	0.263033
2052.59	-0.0712957
2054.05	-0.50907
2055.51	0.0292253
2056.98	0.262175
2058.44	0.308608
2059.9	-0.116824
2061.36	0.485648
2062.82	0.768928
2064.29	0.565326
2065.75	0.19476
2067.21	0.767698
2068.67	0.264297
2070.13	0.249343
2071.59	0.234472
2073.05	0.471994
2074.51	0.726079
2075.97	0.0367393
2077.43	0.812028
2078.88	0.222771
2080.34	0.778043
2081.8	0.238136
2083.26	0.53924
2084.72	0.182986
2086.17	0.734431
2087.63	0.511195
2089.09	1.22876
2090.54	0.635168
2092	0.797572
2093.46	0.506653
2094.91	0.987164
2096.37	0.846361
2097.82	1.32457
2099.28	1.09836
2100.73	0.721571
2102.19	0.479322
2103.64	1.20697
2105.09	0.783854
2106.55	0.830042
2108	0.977643
2109.46	1.09228
2110.91	0.922791
2112.36	1.2183
2113.81	1.47795
2115.27	0.969677
2116.72	1.94065
2118.17	0.618165
2119.62	1.73936
2121.07	1.31896
2122.52	1.01757
2123.97	1.51417
2125.42	1.21566
2126.87	1.61323
2128.32	1.69441
2129.77	1.29314
2131.22	1.27144
2132.67	1.44735
2134.12	1.82152
2135.57	1.66725
2137.01	1.89524
2138.46	2.62142
2139.91	2.1438
2141.36	2.03202
2142.8	1.88874
2144.25	1.77935
2145.7	1.43837
2147.14	2.07359
2148.59	1.64842
2150.03	2.63002
2151.48	2.64961
2152.92	2.5021
2154.37	2.22089
2155.81	2.36982
2157.26	1.74027
2158.7	2.32096
2160.15	2.14147
2161.59	2.594
2163.03	2.45264
2164.48	2.54554
2165.92	2.83899
2167.36	2.3519
2168.8	2.91008
2170.25	2.75116
2171.69	2.75551
2173.13	2.27466
2174.57	2.07475
2176.01	2.14019
2177.45	1.9731
2178.89	2.62172
2180.33	2.45701
2181.77	1.86121
2183.21	2.38026
2184.65	2.48406
2186.09	2.62129
2187.53	1.69371
2188.97	2.41344
2190.41	2.85046
2191.84	1.95539
2193.28	1.80838
2194.72	1.94265
2196.16	2.40737
2197.59	1.68773
2199.03	2.16376
2200.47	1.9731
2201.9	1.38406
2203.34	2.15717
2204.78	1.75353
2206.21	1.7329
2207.65	1.51422
2209.08	1.27895
2210.51	1.556
2211.95	1.36829
2213.38	1.87407
2214.82	1.71826
2216.25	1.54697
2217.68	1.77332
2219.12	1.25905
2220.55	1.24086
2221.98	1.14048
2223.42	0.973372
2224.85	1.64447
2226.28	1.0948
2227.71	1.30013
2229.14	1.74972
2230.57	0.573198
2232	0.595243
2233.43	1.02682
2234.86	0.7553
2236.29	1.1066
2237.72	1.11656
2239.15	0.688415
2240.58	0.67094
2242.01	1.25921
2243.44	1.06618
2244.87	1.31405
2246.3	0.794461
2247.73	1.33305
2249.15	0.922991
2250.58	0.999265
2252.01	0.666228
2253.43	0.332726
2254.86	0.503857
2256.29	1.16351
2257.71	0.786921
2259.14	0.268199
2260.56	0.953758
2261.99	0.230657
2263.41	0.40207
2264.84	0.0865679
2266.26	-0.0670967
2267.69	0.656626
2269.11	0.142977
2270.54	0.523387
2271.96	0.414886
2273.38	0.322412
2274.81	0.686125
2276.23	0.414816
2277.65	0.942218
2279.07	0.394032
2280.49	0.530376
2281.92	0.601404
2283.34	0.313446
2284.76	0.188605
2286.18	0.325132
2287.6	0.478525
2289.02	0.599906
2290.44	0.411439
2291.86	0.386649
2293.28	0.263885
2294.7	0.893624
2296.12	0.656282
2297.54	0.189421
2298.96	0.0498838
2300.38	0.0415764
2301.79	0.591129
2303.21	0.436138
2304.63	0.379685
2306.05	0.0767498
2307.46	0.0524416
2308.88	0.0767965
2310.3	0.0840263
2311.71	0.024991
2313.13	0.278508
2314.55	0.417472
2315.96	0.755054
2317.38	0.121921
2318.79	0.148045
2320.21	-0.0404778
2321.62	0.330553
2323.03	0.732539
2324.45	0.0754547
2325.86	-0.00665855
2327.27	0.321553
2328.69	0.599032
2330.1	0.662304
2331.51	-0.35997
2332.93	-0.145775
2334.34	0.530036
2335.75	0.235287
2337.16	0.0717249
2338.57	-0.125764
2339.99	0.0699472
2341.4	0.16578
2342.81	-0.165808
2344.22	-0.0541906
2345.63	0.0576124
2347.04	-0.0105362
2348.45	-0.0785494
2349.86	0.212981
2351.26	-0.11799
2352.67	0.416036
2354.08	0.0178766
2355.49	0.22279
2356.9	-0.354681
2358.31	-0.101442
2359.71	0.232645
2361.12	0.0467892
2362.53	0.201806
2363.94	-0.064724
2365.34	0.0737209
2366.75	-0.127276
2368.15	0.173362
2369.56	0.216595
2370.97	0.148544
2372.37	0.13054
2373.78	0.258717
2375.18	-0.015131
2376.59	0.225685
2377.99	0.223768
2379.39	-0.181705
2380.8	-0.235271
2382.2	-0.466767
2383.61	0.102023
2385.01	-0.418566
2386.41	-0.210496
2387.81	-0.0018425
2389.22	0.263626
2390.62	-0.266386
2392.02	0.129159
2393.42	-0.158753
2394.82	0.127176
2396.22	0.15936
2397.63	-0.506992
2399.02	0.241826
2400.43	-0.0575438
2401.82	0.34245
2403.23	0.186551
2404.62	0.427224
2406.02	0.111165
2407.42	-0.316858
2408.82	-0.380637
2410.22	0.0466537
2411.62	-0.0648994
2413.02	-0.0645323
2414.41	0.222328
2415.81	0.27341
2417.21	0.294459
2418.61	0.221651
2420	0.0225677
2421.4	-0.255907
2422.79	0.178036
2424.19	0.485015
2425.59	-0.174488
2426.98	0.545286
2428.38	0.537217
2429.77	0.149691
2431.17	0.238695
2432.56	0.0898724
2433.96	-0.297925
2435.35	0.440656
2436.74	0.605766
2438.14	0.371778
2439.53	0.517498
2440.92	0.487331
2442.32	0.424762
2443.71	0.108001
2445.1	0.0450764
2446.49	0.74304
2447.88	0.0615044
2449.28	-0.160066
2450.67	0.236333
2452.06	-4.29153e-005
2453.45	0.318468
2454.84	-0.0107498
2456.23	0.277892
2457.62	0.297984
2459.01	0.412798
2460.4	0.178978
2461.79	-0.166386
2463.18	-0.386027
2464.57	0.199588
2465.96	0.247415
2467.34	-0.0364037
2468.73	0.05865
2470.12	0.437261
2471.51	0.357834
2472.89	0.230412
2474.28	0.306888
2475.67	0.162244
2477.05	0.205991
2478.44	0.0454473
2479.83	-0.27156
2481.21	0.478363
2482.6	-0.21437
2483.98	0.267575
2485.37	0.0751076
2486.75	0.037921
2488.14	-0.094099
2489.52	0.412299
2490.9	-0.483562
2492.29	0.379988
2493.67	0.0471945
2495.06	-0.03512
2496.44	-0.00730419
2497.82	-0.381225
2499.2	0.220836
2500.59	0.156575
2501.97	0.694233
2503.35	0.00993156
2504.73	0.0817261
2506.11	-0.00144577
2507.49	0.346217
2508.88	-0.352154
2510.26	0.302924
2511.63	-0.0244617
2513.01	0.538742
2514.39	0.0911751
2515.77	0.349383
2517.15	0.225784
2518.53	0.19472
2519.91	-0.00418663
2521.29	0.377179
2522.67	-0.00584507
2524.05	0.632573
2525.42	0.187081
2526.8	-0.105732
2528.18	0.0892935
2529.56	0.406967
2530.93	-0.185726
2532.31	0.758615
2533.69	0.0330887
2535.06	0.174488
2536.44	0.0423889
2537.81	0.0766354
2539.19	0.07938
2540.56	0.141874
2541.94	0.264604
2543.31	-0.750366
2544.69	0.0109034
2546.06	0.424513
2547.44	0.293524
2548.81	-0.0185404
2550.18	-0.239555
2551.56	0.419036
2552.93	0.621322
2554.3	-0.0729933
2555.68	0.339394
2557.05	0.447553
2558.42	0.191574
2559.79	0.299861
2561.16	-0.136893
2562.53	0.109176
2563.9	-0.0229607
2565.28	-0.0333529
2566.64	0.0777702
2568.02	0.128394
2569.38	0.285116
2570.76	-0.0431585
2572.12	-0.295646
2573.49	-0.169097
2574.86	0.518474
2576.23	-0.234098
2577.6	0.195766
2578.97	-0.208534
2580.34	-0.264514
2581.7	0.255229
2583.07	-0.0139341
2584.44	0.110833
2585.81	-0.385985
2587.17	0.148083
2588.54	0.106364
2589.91	0.0799379
2591.27	-0.0224009
2592.64	-0.125254
2594	0.392101
2595.37	-0.106663
2596.73	0.0749235
2598.1	0.361288
2599.46	-0.0183716
2600.83	0.433581
2602.19	0.508072
2603.55	0.205914
2604.92	0.010294
2606.28	-0.396141
2607.64	-0.13917
2609.01	-0.16973
2610.37	0.129739
2611.73	0.0208874
2613.09	-0.0440235
2614.46	0.355946
2615.82	0.199565
2617.18	0.0737486
2618.54	-0.0211754
2619.9	-0.130014
2621.26	0.405115
2622.62	0.118282
2623.98	0.474196
2625.34	0.366976
2626.7	0.528017
2628.06	0.584111
2629.42	0.327061
2630.78	0.561129
2632.14	0.437896
2633.5	-0.13083
2634.86	0.31059
2636.22	0.0838985
2637.57	0.139095
2638.93	0.0758047
2640.29	0.190325
2641.64	0.275394
2643	-0.0382099
2644.36	0.165519
2645.72	0.33936
2647.07	0.556702
2648.43	0.360436
2649.78	0.516722
2651.14	0.51015
2652.49	0.312288
2653.85	-0.00229645
2655.2	-0.0369415
2656.56	0.0468788
2657.91	0.248993
2659.27	0.0861998
2660.62	0.450421
2661.97	0.287996
2663.33	0.125044
2664.68	-0.0532494
2666.03	0.322076
2667.38	0.0987263
2668.74	0.152287
2670.09	0.235161
2671.44	0.318515
2672.79	0.329837
2674.14	0.559705
2675.49	0.165881
2676.84	-0.0963526
2678.2	0.382027
2679.55	-0.0233994
2680.89	-0.0215654
2682.24	-0.438841
2683.59	-0.0428696
2684.94	0.745992
2686.29	0.026885
2687.64	0.584408
2688.99	0.240716
2690.34	0.678938
2691.69	0.273015
2693.04	0.344321
2694.38	-0.0641203
2695.73	-0.110042
2697.08	0.235862
2698.43	0.423676
2699.77	0.425144
2701.12	0.269367
2702.46	0.491881
2703.81	0.382503
2705.16	0.563577
2706.5	-0.0963678
2707.85	0.461686
2709.19	-0.0835581
2710.54	0.241663
2711.88	0.450566
2713.23	0.557693
2714.57	0.0106983
2715.92	-0.0278149
2717.26	0.311616
2718.6	0.432712
2719.95	0.0441322
2721.29	0.498971
2722.63	0.473036
2723.97	0.228184
2725.32	0.157473
2726.66	0.188196
2728	0.145771
2729.34	0.0302982
2730.68	0.642193
2732.02	0.75923
2733.36	0.46901
2734.7	0.353591
2736.04	0.36931
2737.39	0.603335
2738.72	-0.195269
2740.06	0.285647
2741.4	-0.0192652
2742.74	0.314823
2744.08	0.386328
2745.42	0.616842
2746.76	0.686907
2748.1	0.190573
2749.44	0.289566
2750.77	0.14214
2752.11	-0.396336
2753.45	-0.282016
2754.78	-0.0372028
2756.12	-0.255887
2757.46	0.119384
2758.79	-0.0843115
2760.13	-0.113821
2761.47	0.175566
2762.8	0.161553
2764.14	-0.112546
2765.47	-0.184087
2766.81	0.337018
2768.14	0.00350857
2769.48	-0.287896
2770.81	0.57545
2772.14	-0.0513458
2773.48	0.288378
2774.81	-0.0939598
2776.14	-0.0579777
2777.48	0.136635
2778.81	0.460965
2780.14	0.138763
2781.47	0.391792
2782.81	0.214042
2784.14	0.122491
2785.47	0.117013
2786.8	-0.332273
2788.13	-0.0361233
2789.46	-0.311734
2790.79	0.186183
2792.12	0.198521
2793.46	0.111311
2794.79	0.795944
2796.11	0.222467
2797.44	-0.337038
2798.77	-0.0686417
2800.1	0.127678
2801.43	0.323494
2802.76	-0.00867176
2804.09	0.0439644
2805.42	0.0960321
2806.74	0.289662
2808.07	-0.186202
2809.4	-0.0365219
2810.73	-0.100074
2812.05	-0.177072
2813.38	-0.110904
2814.71	-0.142441
2816.03	0.39462
2817.36	0.649366
2818.68	0.422897
2820.01	0.394867
2821.33	0.0686798
2822.66	0.0393763
2823.98	0.519411
2825.31	-0.0210447
2826.63	0.345105
2827.96	0.145345
2829.28	0.838146
2830.61	0.597097
2831.93	0.88007
2833.25	0.14379
2834.57	0.907541
2835.9	0.708199
2837.22	0.437537
2838.54	1.2557
2839.86	1.36608
2841.18	1.49065
2842.51	1.98318
2843.83	1.5153
2845.15	2.3627
2846.47	2.36291
2847.79	2.78758
2849.11	2.53389
2850.43	2.50595
2851.75	2.77419
2853.07	2.54707
2854.39	2.94127
2855.71	2.86884
2857.03	2.79642
2858.35	2.85119
2859.67	2.67997
2860.98	3.12986
2862.3	2.7039
2863.62	3.15272
2864.94	3.2059
2866.25	3.0333
2867.57	3.01623
2868.89	3.0561
2870.21	3.64628
2871.52	2.99606
2872.84	3.89599
2874.15	3.5265
2875.47	3.77567
2876.78	3.67129
2878.1	4.22734
2879.42	4.31831
2880.73	4.1144
2882.04	4.558
2883.36	4.06163
2884.67	4.45138
2885.99	4.13982
2887.3	3.7864
2888.61	3.82548
2889.93	3.76539
2891.24	3.85855
2892.55	4.23118
2893.87	4.01488
2895.18	4.05127
2896.49	4.03264
2897.8	4.11327
2899.11	4.65684
2900.42	4.3759
2901.74	4.10959
2903.05	4.26321
2904.36	4.75269
2905.67	4.86484
2906.98	5.32739
2908.29	4.74187
2909.6	4.92676
2910.91	5.29438
2912.22	5.55017
2913.53	6.22511
2914.83	5.51231
2916.14	5.84735
2917.45	6.48816
2918.76	6.06399
2920.07	6.38115
2921.37	7.17436
2922.68	6.51501
2923.99	7.60491
2925.3	7.82967
2926.6	6.90904
2927.91	8.14127
2929.22	7.72343
2930.52	7.72425
2931.83	7.92014
2933.13	8.24146
2934.44	8.26919
2935.74	8.28311
2937.05	7.64046
2938.35	8.08811
2939.66	8.61995
2940.96	8.35603
2942.27	7.68805
2943.57	7.6086
2944.87	7.05564
2946.18	7.30109
2947.48	6.86202
2948.78	6.08639
2950.09	6.24687
2951.39	6.20912
2952.69	5.97288
2953.99	6.0149
2955.29	5.32851
2956.6	5.51119
2957.9	5.22052
2959.2	5.17116
2960.5	5.01316
2961.8	4.33887
2963.1	4.64662
2964.4	4.39263
2965.7	4.45974
2967	4.24387
2968.3	4.08248
2969.6	3.87792
2970.9	3.61687
2972.2	3.59524
2973.49	3.05336
2974.79	3.73587
2976.09	3.82665
2977.39	3.47945
2978.69	3.04575
2979.98	3.27178
2981.28	3.81973
2982.58	3.46638
2983.88	2.88882
2985.17	2.9314
2986.47	2.20294
2987.76	3.12042
2989.06	2.46531
2990.36	2.56939
2991.65	2.85567
2992.95	2.36774
2994.24	1.82226
2995.54	1.94999
2996.83	1.5854
2998.12	2.41374
2999.42	2.11951
3000.71	1.51775
3002	1.70209
3003.3	1.15823
3004.59	0.97908
3005.88	1.1779
3007.18	0.927981
3008.47	1.37694
3009.76	0.482063
3011.05	0.747309
3012.35	1.20718
3013.64	0.368976
3014.93	0.522316
3016.22	0.676284
3017.51	0.566461
3018.8	0.499168
3020.09	0.543366
3021.38	0.448097
3022.67	0.393725
3023.96	0.116366
3025.25	0.518054
3026.54	0.309359
3027.83	0.433753
3029.12	0.158321
3030.41	-0.0458794
3031.69	-0.206726
3032.98	0.213613
3034.27	0.0544796
3035.56	0.3916
3036.85	-0.058876
3038.13	0.178221
3039.42	-0.165126
3040.71	-0.344359
3041.99	0.340678
3043.28	0.0369911
3044.57	-0.196405
3045.85	0.25626
3047.14	0.369056
3048.42	0.0339355
3049.71	-0.353023
3050.99	0.640244
3052.28	-0.289588
3053.56	-0.0184755
3054.85	0.183776
3056.13	0.0712252
3057.42	0.298455
3058.7	0.361167
3059.98	0.287451
3061.27	0.309584
3062.55	0.292073
3063.83	0.099474
3065.11	0.0855236
3066.4	0.222763
3067.68	-0.18262
3068.96	-0.329184
3070.24	0.312934
3071.52	-0.0657749
3072.8	-0.391196
3074.09	0.0708284
3075.37	0.0831957
3076.65	-0.257752
3077.93	-0.502793
3079.21	0.0948305
3080.49	0.205534
3081.77	0.236689
3083.05	0.31008
3084.32	-0.104063
3085.61	0.106174
3086.88	-0.0367975
3088.16	0.321803
3089.44	0.340441
3090.72	-0.0483866
3092	0.268384
3093.27	-0.336985
3094.55	-0.127974
3095.83	0.135646
3097.11	0.155421
3098.38	-0.0686712
3099.66	0.00545692
3100.94	0.282811
3102.21	0.0862637
3103.49	0.296445
3104.76	0.453114
3106.04	0.177648
3107.31	0.566502
3108.59	0.347695
3109.86	-0.248827
3111.14	0.157519
3112.41	0.334881
3113.69	0.309718
3114.96	-0.0270557
3116.23	0.489949
3117.51	0.599553
3118.78	0.206303
3120.05	0.761408
3121.33	0.488397
3122.6	0.662333
3123.87	0.687063
3125.14	0.630964
3126.42	0.345537
3127.69	0.588785
3128.96	1.03553
3130.23	0.427961
3131.5	1.01061
3132.77	0.728155
3134.04	0.958976
3135.31	0.460213
3136.58	0.798131
3137.85	0.933041
3139.12	0.919357
3140.39	1.1615
3141.66	1.00011
3142.93	1.06798
3144.2	1.06937
3145.47	0.816845
3146.74	1.04829
3148	1.05262
3149.27	1.15164
