200.388	0.0393553
202.204	0.0592527
204.019	0.0792341
205.832	0.343548
207.646	0.0245275
209.459	-0.537759
211.274	-0.0805616
213.087	0.277514
214.899	0.100189
216.711	-0.198766
218.524	0.423112
220.335	-0.21378
222.146	0.578317
223.956	-0.466828
225.766	0.08465
227.576	0.225103
229.388	0.558215
231.197	-0.0992107
233.005	0.449796
234.813	0.685198
236.621	0.0540819
238.429	0.124574
240.236	0.438981
242.045	-0.569918
243.852	0.448238
245.658	-0.366885
247.464	-0.31519
249.269	0.0716238
251.074	-0.1246
252.879	0.424283
254.683	0.560453
256.487	-0.0274096
258.291	0.133243
260.094	0.102908
261.897	0.267517
263.702	0.602754
265.504	0.626122
267.306	0.384852
269.108	-0.0256071
270.909	0.0932627
272.71	0.0902719
274.511	0.640172
276.311	0.247869
278.111	0.745212
279.91	0.324442
281.709	-0.411165
283.508	0.223013
285.306	0.133542
287.105	1.12335
288.9	0.0490255
290.698	0.223258
292.495	0.566228
294.291	0.360399
296.088	0.419551
297.884	0.408267
299.679	-0.128014
301.475	0.745061
303.27	0.255607
305.064	0.385594
306.858	0.156519
308.652	-0.167985
310.444	0.34232
312.237	0.281951
314.03	0.247345
315.822	0.238729
317.615	1.25629
319.406	1.25195
321.198	0.843948
322.987	0.698822
324.778	0.625699
326.568	0.886914
328.358	1.33932
330.148	0.715715
331.935	0.544422
333.724	0.753781
335.513	0.69742
337.301	0.279318
339.089	0.409045
340.875	0.823744
342.662	0.543827
344.449	1.14811
346.236	0.199967
348.02	0.638183
349.806	0.861955
351.592	0.918617
353.375	1.09389
355.16	0.146625
356.944	0.843737
358.728	0.609099
360.51	0.325672
362.294	0.255676
364.077	0.0897408
365.858	0.49339
367.64	0.491844
369.422	0.726351
371.202	0.485549
372.983	1.23811
374.764	0.405035
376.543	1.1319
378.324	1.31543
380.102	1.38195
381.881	1.1674
383.661	1.00187
385.438	1.1438
387.216	1.38116
388.993	1.6903
390.771	1.20208
392.548	1.25521
394.324	1.3796
396.101	0.87043
397.875	1.06593
399.651	0.556643
401.425	0.727938
403.201	0.546158
404.974	0.222564
406.749	0.508691
408.524	0.887877
410.296	0.656177
412.07	0.541936
413.841	1.22603
415.614	0.83158
417.385	-0.101538
419.156	0.0923758
420.928	0.826498
422.698	0.222535
424.469	0.110633
426.238	0.373249
428.009	-0.0459318
429.777	0.144641
431.548	-0.322055
433.315	-0.131217
435.083	0.78756
436.852	-0.0773506
438.618	0.0896082
440.387	0.630296
442.153	0.253433
443.919	0.202518
445.686	0.313379
447.451	0.56298
449.218	0.367196
450.982	1.01294
452.746	0.747564
454.512	0.133018
456.275	0.475039
458.038	0.0478048
459.803	0.668467
461.565	0.242568
463.327	0.493037
465.091	0.862394
466.852	0.305843
468.613	0.124317
470.374	0.317062
472.136	0.301454
473.896	0.704075
475.655	0.918584
477.415	0.548062
479.176	0.40808
480.934	0.755963
482.692	0.381917
484.45	0.638126
486.21	0.780339
487.967	0.412625
489.724	0.700113
491.481	0.56922
493.237	1.23336
494.995	0.0515537
496.75	0.740076
498.506	0.492364
500.26	1.25203
502.015	0.0641737
503.771	1.03427
505.525	0.688111
507.279	1.6567
509.032	0.859793
510.785	1.02509
512.537	1.16486
514.289	0.996795
516.041	1.55628
517.793	1.92571
519.546	1.09459
521.297	1.29706
523.047	1.52217
524.797	1.25385
526.547	0.422758
528.297	0.975946
530.046	1.4347
531.795	0.744787
533.543	1.85706
535.291	0.837728
537.039	0.285642
538.787	0.456615
540.534	0.345883
542.281	0.863313
544.027	0.262258
545.773	0.313231
547.519	0.805267
549.264	0.160522
551.01	0.466938
552.754	0.356543
554.499	0.685657
556.243	-0.278244
557.987	0.489796
559.73	0.197178
561.474	0.734491
563.216	0.535614
564.959	1.09631
566.701	0.370729
568.441	0.17507
570.182	0.784072
571.923	0.522615
573.664	0.400985
575.405	-0.0166426
577.145	-0.111106
578.885	0.232162
580.624	-0.0204048
582.361	0.669095
584.1	0.140196
585.839	0.414577
587.577	-0.00253105
589.315	0.107893
591.052	-0.104925
592.787	-0.272379
594.524	-0.232965
596.26	0.335662
597.997	0.444125
599.732	0.276103
601.466	0.29115
603.201	-0.155311
604.936	-0.166441
606.67	-0.0642452
608.403	0.174627
610.136	-0.321428
611.87	0.0782099
613.603	0.753551
615.334	0.077014
617.067	0.27185
618.799	-0.244005
620.529	-0.14259
622.26	-0.751949
623.991	-0.0584888
625.72	-0.256962
627.451	0.52772
629.181	0.675085
630.909	0.346236
632.638	0.430771
634.368	-0.396184
636.095	0.0546322
637.823	0.457857
639.551	0.332751
641.277	0.432151
643.005	0.368756
644.73	0.372144
646.457	-0.0336666
648.184	-0.0047226
649.908	-0.153818
651.634	-0.298277
653.357	-0.392672
655.083	0.563181
656.806	0.271346
658.53	0.00301456
660.253	-0.311928
661.977	-0.332361
663.7	0.6043
665.422	-0.015708
667.145	0.367702
668.865	0.0412426
670.588	-0.398996
672.308	0.329907
674.027	-0.0594769
675.749	0.447084
677.468	-0.213856
679.188	0.24951
680.907	0.643682
682.627	0.277104
684.345	0.574975
686.064	0.202775
687.781	0.219957
689.498	0.397038
691.216	0.250727
692.932	0.679525
694.65	0.462426
696.366	1.25741
698.081	0.669188
699.797	0.194852
701.512	0.340522
703.228	-0.0208244
704.942	0.421331
706.655	1.2753
708.371	0.0634737
710.083	0.411264
711.796	0.666451
713.51	0.669163
715.222	1.28866
716.934	0.491372
718.645	0.243111
720.358	0.702031
722.068	0.773261
723.779	0.685179
725.49	0.506156
727.2	-0.331574
728.909	0.488294
730.618	0.625938
732.329	0.287195
734.037	1.66845
735.745	0.0859947
737.453	0.720018
739.16	0.654315
740.869	0.950579
742.576	0.572153
744.282	0.601128
745.988	0.451798
747.694	0.889219
749.401	1.10319
751.107	1.36377
752.811	1.04123
754.516	0.945352
756.22	1.59395
757.924	1.25445
759.627	1.29946
761.332	1.48132
763.035	1.86725
764.738	2.34381
766.44	1.78022
768.142	2.47951
769.843	1.684
771.544	2.26494
773.245	2.41429
774.946	2.76643
776.646	2.05655
778.346	1.95886
780.046	2.33812
781.745	1.04502
783.444	1.99184
785.143	1.96444
786.841	0.621087
788.539	2.03535
790.237	1.38578
791.934	1.66025
793.631	1.81918
795.328	1.16527
797.024	1.27994
798.72	1.62168
800.416	1.08749
802.112	2.33301
803.807	1.05966
805.502	0.48407
807.196	0.964136
808.89	1.98124
810.584	0.863566
812.278	1.24879
813.971	1.16215
815.664	0.918612
817.354	1.63728
819.047	1.81842
820.739	0.637286
822.43	1.48901
824.122	1.42625
825.813	1.2762
827.503	1.2403
829.192	0.806973
830.882	1.55776
832.571	0.619309
834.261	1.4882
835.95	1.15502
837.637	0.865908
839.325	1.28965
841.013	1.64478
842.701	1.21642
844.389	1.50227
846.074	0.157394
847.761	0.356518
849.447	0.939045
851.131	0.920913
852.817	0.972427
854.503	1.65354
856.188	0.763671
857.871	0.38781
859.556	1.02191
861.24	1.2494
862.922	0.641555
864.606	0.549928
866.289	0.502192
867.97	0.453649
869.653	0.472192
871.336	0.761045
873.016	0.553412
874.698	1.09023
876.379	0.00239277
878.058	-0.0926275
879.739	0.624839
881.418	0.80025
883.098	0.816784
884.778	1.4189
886.456	1.20658
888.135	0.834422
889.812	0.776316
891.49	1.16714
893.167	0.429715
894.845	0.929571
896.523	-0.0790014
898.198	0.777188
899.875	0.733056
901.55	0.37436
903.226	0.463363
904.901	0.931842
906.576	0.707433
908.25	0.32829
909.925	0.374187
911.598	1.11076
913.271	-0.0423803
914.945	0.80551
916.617	1.09732
918.291	0.56846
919.962	0.727143
921.635	0.377373
923.306	0.86955
924.978	0.722415
926.648	0.268658
928.318	0.369154
929.989	0.559408
931.659	0.4416
933.328	-0.0287685
934.998	0.471724
936.666	0.310971
938.336	0.592359
940.004	0.544429
941.671	0.277407
943.34	-0.0108595
945.007	0.00961876
946.673	0.0950365
948.339	0.0679255
950.007	0.347485
951.672	0.316482
953.337	0.439878
955.004	0.43274
956.669	0.428975
958.333	0.47333
959.997	-0.229195
961.662	-0.0692739
963.326	0.0687351
964.989	0.691545
966.651	-0.878706
968.315	0.534228
969.977	-0.157295
971.639	0.234106
973.301	0.139321
974.962	-0.152742
976.624	0.486227
978.285	-0.155706
979.945	-0.232857
981.605	-0.310452
983.264	0.927575
984.924	0.436573
986.583	0.673451
988.243	0.531755
989.901	-0.429604
991.56	0.266788
993.217	-0.00970459
994.875	-0.1754
996.532	0.29904
998.188	-0.131104
999.845	-0.120285
1001.5	0.242412
1003.16	-0.056118
1004.81	0.612987
1006.47	0.182187
1008.12	0.235257
1009.78	0.8592
1011.43	-0.0303049
1013.09	0.944798
1014.74	0.0574341
1016.39	0.966693
1018.05	0.497178
1019.7	0.685254
1021.35	0.0437164
1023	0.715412
1024.65	1.69406
1026.31	1.71179
1027.96	1.2052
1029.61	1.50625
1031.26	1.32505
1032.91	2.38617
1034.56	2.3311
1036.21	1.6636
1037.86	1.23555
1039.51	1.04746
1041.16	0.903994
1042.8	0.501571
1044.45	0.927441
1046.1	1.2035
1047.75	0.765315
1049.39	0.698567
1051.04	0.199072
1052.69	0.439109
1054.33	0.505914
1055.98	-0.0140581
1057.62	0.248012
1059.27	0.248666
1060.91	0.639913
1062.56	0.508332
1064.2	0.549521
1065.85	0.828493
1067.49	0.671227
1069.13	0.0348167
1070.77	0.570751
1072.42	0.910651
1074.06	0.317849
1075.7	0.681175
1077.34	0.915915
1078.98	1.02215
1080.62	0.240381
1082.27	1.54035
1083.91	1.29958
1085.55	1.03506
1087.18	0.984674
1088.82	1.53785
1090.46	1.46031
1092.1	1.03536
1093.74	0.545655
1095.38	0.855394
1097.02	0.648247
1098.65	1.02479
1100.29	0.391362
1101.93	0.385076
1103.56	0.0584145
1105.2	0.228303
1106.84	-0.0742388
1108.47	-0.398543
1110.11	0.178999
1111.74	0.539306
1113.38	0.403088
1115.01	-0.314247
1116.64	0.148495
1118.28	0.0318727
1119.91	0.0233469
1121.54	0.273035
1123.18	0.69506
1124.81	0.454813
1126.44	0.707803
1128.07	0.491248
1129.7	0.596422
1131.33	-0.238345
1132.97	-0.0678301
1134.6	0.3804
1136.23	0.272051
1137.86	0.183784
1139.49	0.0726709
1141.11	-0.381248
1142.74	-0.00316811
1144.37	-0.457151
1146	0.283965
1147.63	-0.167708
1149.26	0.425954
1150.88	0.551377
1152.51	-0.0472593
1154.14	-0.496991
1155.76	-0.329753
1157.39	0.369092
1159.01	0.174621
1160.64	-0.0399504
1162.27	-0.0616865
1163.89	-0.16718
1165.51	0.131977
1167.14	-0.0794277
1168.76	0.451982
1170.39	-0.528023
1172.01	0.232358
1173.63	0.734832
1175.25	0.72574
1176.88	0.525117
1178.5	-0.437552
1180.12	-0.022069
1181.74	0.542054
1183.36	0.00702095
1184.98	0.148858
1186.6	0.289368
1188.22	0.870665
1189.84	0.225707
1191.46	0.842862
1193.08	0.194863
1194.7	-0.0745621
1196.32	-0.0706921
1197.94	-0.46355
1199.55	0.715228
1201.17	1.41407
1202.79	0.236308
1204.41	0.315494
1206.02	-0.145043
1207.64	0.29338
1209.25	0.294067
1210.87	-0.0190706
1212.48	-0.354998
1214.1	0.0984859
1215.71	0.652618
1217.33	0.350471
1218.94	0.567044
1220.56	0.450809
1222.17	0.791913
1223.79	1.00969
1225.4	0.152468
1227.01	0.250207
1228.62	0.391011
1230.23	0.450629
1231.85	0.284384
1233.46	0.409097
1235.07	1.01075
1236.68	0.125851
1238.29	0.565108
1239.9	0.28171
1241.51	0.59826
1243.12	1.32833
1244.73	0.774774
1246.34	0.757783
1247.94	0.532537
1249.55	0.947714
1251.16	0.472791
1252.77	0.494669
1254.37	0.993158
1255.98	0.789785
1257.59	0.608666
1259.2	1.04976
1260.8	0.37454
1262.41	0.693411
1264.01	0.598285
1265.62	1.10354
1267.22	0.924124
1268.83	0.909243
1270.43	0.478312
1272.03	1.0827
1273.64	1.10516
1275.24	1.87248
1276.85	1.29119
1278.45	2.01417
1280.05	1.36909
1281.65	0.889707
1283.25	1.44525
1284.85	1.17384
1286.46	1.08985
1288.06	1.1933
1289.66	1.11194
1291.26	1.09331
1292.86	1.23988
1294.46	1.40612
1296.06	1.24015
1297.66	1.79468
1299.25	2.34632
1300.85	1.49315
1302.45	1.85495
1304.05	1.41212
1305.65	1.62705
1307.24	1.40952
1308.84	2.03318
1310.43	1.71277
1312.03	1.76201
1313.63	1.34175
1315.22	0.453622
1316.82	0.731999
1318.41	0.602648
1320.01	1.63543
1321.6	1.52466
1323.2	1.04574
1324.79	1.64286
1326.38	0.896717
1327.98	1.51009
1329.57	1.23159
1331.16	0.814256
1332.76	0.80473
1334.35	1.44425
1335.94	1.6614
1337.53	1.17323
1339.12	1.49108
1340.71	1.26247
1342.3	1.57475
1343.89	1.98415
1345.48	1.12617
1347.07	1.4734
1348.66	0.41994
1350.25	1.49301
1351.84	0.607877
1353.43	1.42574
1355.01	1.6852
1356.6	1.10583
1358.19	1.26536
1359.77	0.904342
1361.36	0.642
1362.95	0.817673
1364.53	1.63059
1366.12	0.669572
1367.71	0.228367
1369.29	0.704754
1370.88	0.525913
1372.46	0.80659
1374.04	0.690747
1375.63	1.35183
1377.21	1.13758
1378.8	1.77833
1380.38	0.54729
1381.96	1.34402
1383.54	1.20387
1385.13	0.923306
1386.71	0.602618
1388.29	0.441261
1389.87	1.0153
1391.45	1.09403
1393.03	1.17379
1394.61	0.718548
1396.19	0.957309
1397.77	1.39325
1399.35	0.698053
1400.93	0.972668
1402.51	1.00863
1404.09	1.10383
1405.67	0.764565
1407.24	0.505791
1408.82	0.781797
1410.4	1.05833
1411.98	1.05821
1413.55	1.27446
1415.13	0.798706
1416.71	1.20971
1418.28	1.00869
1419.86	1.47804
1421.43	1.4364
1423.01	1.1607
1424.58	1.28098
1426.16	1.3833
1427.73	1.52577
1429.31	1.07743
1430.88	1.55296
1432.45	1.98744
1434.02	2.3613
1435.6	2.20325
1437.17	1.90791
1438.74	1.84959
1440.31	2.63779
1441.88	2.60183
1443.45	1.83974
1445.03	1.78569
1446.6	1.61396
1448.17	2.26799
1449.74	2.17548
1451.3	2.65378
1452.87	2.70038
1454.44	2.21644
1456.01	2.24382
1457.58	2.13259
1459.15	2.39351
1460.72	1.74675
1462.28	2.31742
1463.85	1.76439
1465.42	2.03584
1466.98	1.69747
1468.55	1.92927
1470.12	1.67145
1471.68	2.35703
1473.25	1.88659
1474.81	1.31941
1476.38	1.02747
1477.94	1.20628
1479.51	0.953695
1481.07	1.40663
1482.63	1.44777
1484.2	1.29278
1485.76	2.05812
1487.32	1.2944
1488.88	1.72362
1490.45	1.62155
1492.01	1.37968
1493.57	1.29146
1495.13	1.49354
1496.69	1.63511
1498.25	1.77589
1499.81	1.25623
1501.37	1.16636
1502.93	1.46618
1504.49	0.642908
1506.05	1.54438
1507.61	1.03156
1509.17	0.827471
1510.73	0.410007
1512.28	0.339291
1513.84	1.05732
1515.4	0.216708
1516.96	0.991616
1518.51	0.538431
1520.07	0.470181
1521.63	0.785076
1523.18	0.735705
1524.74	0.34174
1526.29	0.23344
1527.85	0.390781
1529.4	1.00329
1530.96	0.322787
1532.51	0.422254
1534.06	0.920261
1535.62	0.340289
1537.17	-0.293823
1538.72	0.489909
1540.28	0.216606
1541.83	0.810553
1543.38	1.00797
1544.93	0.264646
1546.48	1.30688
1548.03	0.564207
1549.59	0.685226
1551.14	0.169574
1552.69	1.03986
1554.24	0.638841
1555.79	1.09938
1557.34	0.460369
1558.88	0.552187
1560.43	1.00088
1561.98	0.686791
1563.53	0.430155
1565.08	0.715326
1566.62	0.198279
1568.17	1.00595
1569.72	0.544021
1571.27	0.977517
1572.81	0.794637
1574.36	1.41424
1575.9	0.633805
1577.45	0.0589285
1579	0.772699
1580.54	0.497769
1582.09	0.802688
1583.63	0.791257
1585.17	0.96767
1586.72	0.995313
1588.26	1.00447
1589.8	1.40633
1591.35	1.24636
1592.89	1.51629
1594.43	0.849453
1595.97	1.43755
1597.52	1.27686
1599.06	2.20442
1600.6	1.42674
1602.14	1.51229
1603.68	1.09091
1605.22	1.79547
1606.76	1.69064
1608.3	1.05683
1609.84	1.58521
1611.38	1.28352
1612.92	2.14372
1614.46	3.24507
1615.99	5.37588
1617.53	9.71655
1619.07	10.364
1620.61	9.87176
1622.14	9.58876
1623.68	8.80222
1625.22	10.0377
1626.75	10.7845
1628.29	10.1249
1629.82	10.7531
1631.36	11.4343
1632.9	10.1338
1634.43	10.1981
1635.96	10.32
1637.5	10.1082
1639.03	10.6996
1640.57	10.508
1642.1	9.92398
1643.63	11.1816
1645.16	1.54889
1646.7	1.65319
1648.23	1.97983
1649.76	1.67514
1651.29	1.53917
1652.82	1.79452
1654.36	1.53205
1655.89	1.32627
1657.42	1.75055
1658.95	1.5808
1660.48	1.46502
1662.01	1.32891
1663.53	1.20991
1665.06	0.997948
1666.59	1.59877
1668.12	1.13045
1669.65	1.7153
1671.18	1.30668
1672.7	1.06559
1674.23	0.862126
1675.76	0.953067
1677.29	1.17177
1678.81	1.1681
1680.34	0.942389
1681.86	0.844526
1683.39	0.819771
1684.91	0.51984
1686.44	1.08266
1687.96	1.05888
1689.49	0.467761
1691.01	0.0606728
1692.54	0.752129
1694.06	1.29647
1695.58	0.743106
1697.11	0.61024
1698.63	-0.180352
1700.15	0.544231
1701.67	-0.100664
1703.2	0.311648
1704.72	-0.0058136
1706.24	-0.141418
1707.76	0.577278
1709.28	0.350063
1710.8	0.431859
1712.32	0.423054
1713.84	0.486955
1715.36	-0.0827847
1716.88	0.216556
1718.4	-0.11734
1719.91	0.686872
1721.43	0.353223
1722.95	-0.213552
1724.47	0.879295
1725.99	0.225861
1727.5	-0.0652199
1729.02	0.634912
1730.54	0.846803
1732.05	0.272401
1733.57	0.0235662
1735.09	0.556308
1736.6	0.214392
1738.12	0.333903
1739.63	0.328619
1741.15	0.2033
1742.66	-0.0870867
1744.18	0.225151
1745.69	-0.0534105
1747.2	-0.588893
1748.72	-0.232702
1750.23	-0.305311
1751.74	0.205944
1753.25	-0.130945
1754.77	0.278872
1756.28	0.565797
1757.79	0.118293
1759.3	0.228488
1760.81	-0.0897255
1762.32	-0.167426
1763.83	0.505509
1765.34	0.540802
1766.85	0.445365
1768.36	0.52718
1769.87	0.346924
1771.38	0.408171
1772.89	0.213919
1774.4	0.277018
1775.91	-0.00253201
1777.41	-0.370107
1778.92	0.280202
1780.43	-0.0344448
1781.94	0.149308
1783.44	-0.000544548
1784.95	-0.132532
1786.45	0.272408
1787.96	-0.0052948
1789.47	0.189484
1790.97	0.366066
1792.48	-0.000252724
1793.98	0.456803
1795.48	0.220716
1796.99	0.175031
1798.49	0.194598
1800	0.214547
1801.5	0.40842
1803	0.28621
1804.51	0.30287
1806.01	0.195836
1807.51	0.649581
1809.01	0.293157
1810.51	0.194441
1812.02	0.290273
1813.52	0.111647
1815.02	0.15346
1816.52	0.221068
1818.02	0.43209
1819.52	0.388763
1821.02	0.255614
1822.52	-0.0723839
1824.02	0.911086
1825.51	0.134306
1827.01	0.198835
1828.51	-0.12884
1830.01	0.307453
1831.51	0.216599
1833	0.0942087
1834.5	0.609697
1836	0.100173
1837.5	0.278507
1838.99	0.386144
1840.49	0.615454
1841.98	0.40901
1843.48	0.0533781
1844.97	-0.10315
1846.47	0.0925293
1847.96	0.322953
1849.46	0.252996
1850.95	0.258755
1852.45	0.0331268
1853.94	0.095294
1855.43	0.45063
1856.92	0.156129
1858.42	0.748028
1859.91	0.457952
1861.4	0.388646
1862.89	0.339469
1864.39	0.446885
1865.88	0.335282
1867.37	0.489768
1868.86	0.559268
1870.35	0.529987
1871.84	0.26583
1873.33	0.432239
1874.82	0.304238
1876.31	0.125587
1877.8	0.074995
1879.29	0.140538
1880.77	0.148851
1882.26	-0.258585
1882.51	-0.343182
1884	-0.0312767
1885.5	0.314367
1886.99	0.641262
1888.48	0.636451
1889.98	0.544869
1891.47	0.576278
1892.97	0.540036
1894.46	0.64507
1895.95	0.0043087
1897.44	0.633884
1898.93	0.654776
1900.42	0.25694
1901.92	0.361688
1903.41	0.429535
1904.9	0.49562
1906.39	-0.203783
1907.88	0.417259
1909.37	0.48297
1910.86	0.237413
1912.35	0.166526
1913.84	0.26977
1915.32	0.355748
1916.81	0.181255
1918.3	0.283544
1919.79	-0.0825729
1921.28	-0.154109
1922.76	0.536748
1924.25	0.0683784
1925.74	0.415065
1927.22	0.468703
1928.71	-0.186764
1930.2	0.508277
1931.68	0.250037
1933.17	0.474973
1934.65	0.230353
1936.14	0.364606
1937.62	-0.367211
1939.11	-0.130998
1940.59	0.381499
1942.08	-0.210114
1943.56	0.718042
1945.04	0.577393
1946.53	0.471774
1948.01	0.262555
1949.49	0.328254
1950.97	0.237775
1952.45	0.00866032
1953.94	-0.341187
1955.42	0.374727
1956.9	0.300208
1958.38	0.947412
1959.86	0.37689
1961.34	1.09357
1962.82	0.198734
1964.3	0.726466
1965.78	-0.322358
1967.26	-0.121446
1968.74	0.146915
1970.22	0.140752
1971.69	0.0830488
1973.17	0.26431
1974.65	0.0531397
1976.13	-0.225702
1977.61	0.19436
1979.08	0.750149
1980.56	0.658792
1982.03	0.278385
1983.51	0.169937
1984.99	0.689276
1986.46	0.240788
1987.94	0.318335
1989.41	0.159043
1990.89	0.102289
1992.36	-0.0886202
1993.84	0.313486
1995.31	0.479636
1996.78	0.798248
1998.26	0.39042
1999.73	0.0836658
2001.2	0.0970907
2002.68	0.531594
2004.15	0.156314
2005.62	-0.167664
2007.09	0.0147629
2008.56	0.0129194
2010.04	0.096241
2011.51	0.651482
2012.98	0.0116377
2014.45	0.196101
2015.92	0.497372
2017.39	0.141476
2018.86	0.558208
2020.33	0.385807
2021.8	-0.189631
2023.27	-0.109502
2024.74	0.0217733
2026.2	0.372365
2027.67	0.0368509
2029.14	-0.028574
2030.61	0.243023
2032.07	0.398418
2033.54	0.453776
2035.01	0.542749
2036.47	0.345763
2037.94	0.500909
2039.41	0.0338097
2040.87	0.255668
2042.34	0.797537
2043.8	0.701475
2045.27	0.0679579
2046.73	0.461702
2048.2	-0.221849
2049.66	0.273284
2051.12	-0.092164
2052.59	0.164415
2054.05	0.891217
2055.51	0.502866
2056.98	0.146777
2058.44	0.278685
2059.9	0.427137
2061.36	0.289712
2062.82	0.927624
2064.29	0.422063
2065.75	0.136578
2067.21	0.845006
2068.67	0.527562
2070.13	0.479755
2071.59	0.499359
2073.05	0.602993
2074.51	0.891566
2075.97	0.859821
2077.43	1.0634
2078.88	0.390812
2080.34	0.694402
2081.8	0.357491
2083.26	0.47441
2084.72	0.253852
2086.17	0.503596
2087.63	0.735597
2089.09	0.765207
2090.54	0.626572
2092	0.571935
2093.46	0.71861
2094.91	0.562958
2096.37	0.658313
2097.82	0.769499
2099.28	0.829571
2100.73	0.772101
2102.19	0.714979
2103.64	0.842606
2105.09	0.971625
2106.55	0.468261
2108	0.750366
2109.46	0.849327
2110.91	1.11431
2112.36	0.64433
2113.81	1.12204
2115.27	1.1312
2116.72	1.37196
2118.17	1.21405
2119.62	0.975031
2121.07	0.838157
2122.52	0.587616
2123.97	1.26751
2125.42	0.903464
2126.87	1.26869
2128.32	1.53313
2129.77	1.39801
2131.22	2.07293
2132.67	1.32255
2134.12	1.46632
2135.57	1.51169
2137.01	1.39355
2138.46	1.42649
2139.91	1.85842
2141.36	1.2346
2142.8	2.06707
2144.25	1.09783
2145.7	1.61747
2147.14	1.8226
2148.59	1.59647
2150.03	1.84955
2151.48	1.86953
2152.92	1.72256
2154.37	2.22074
2155.81	2.00587
2157.26	2.13899
2158.7	2.05767
2160.15	1.79579
2161.59	1.7017
2163.03	2.23984
2164.48	1.91788
2165.92	1.57997
2167.36	2.32139
2168.8	2.23123
2170.25	1.77282
2171.69	1.5943
2173.13	2.57786
2174.57	2.39513
2176.01	1.43007
2177.45	1.56299
2178.89	2.31195
2180.33	1.79855
2181.77	2.05105
2183.21	1.88863
2184.65	1.84293
2186.09	1.89713
2187.53	2.01795
2188.97	2.12223
2190.41	1.67722
2191.84	2.23063
2193.28	2.06731
2194.72	1.56931
2196.16	1.51867
2197.59	1.3159
2199.03	1.32744
2200.47	1.76968
2201.9	1.8292
2203.34	1.85627
2204.78	1.53648
2206.21	1.2846
2207.65	1.36491
2209.08	1.14689
2210.51	0.961259
2211.95	1.40321
2213.38	1.28167
2214.82	1.52351
2216.25	1.66672
2217.68	0.672832
2219.12	1.09953
2220.55	0.81808
2221.98	1.06436
2223.42	0.914247
2224.85	1.4213
2226.28	1.33325
2227.71	0.947383
2229.14	0.971294
2230.57	1.02704
2232	1.45926
2233.43	0.974238
2234.86	0.60559
2236.29	0.990518
2237.72	1.31141
2239.15	0.377851
2240.58	0.735963
2242.01	0.932948
2243.44	1.21296
2244.87	0.465853
2246.3	0.631392
2247.73	0.909248
2249.15	0.124783
2250.58	0.756001
2252.01	0.163408
2253.43	0.23766
2254.86	0.50706
2256.29	0.323079
2257.71	0.352935
2259.14	0.0777578
2260.56	0.957847
2261.99	0.283072
2263.41	0.226622
2264.84	0.73926
2266.26	0.487869
2267.69	0.251567
2269.11	0.616165
2270.54	0.556835
2271.96	0.154939
2273.38	0.0783901
2274.81	0.181086
2276.23	0.968401
2277.65	0.452496
2279.07	0.180928
2280.49	-0.237608
2281.92	0.615755
2283.34	0.621069
2284.76	0.708034
2286.18	0.66471
2287.6	0.768744
2289.02	0.334358
2290.44	-0.0835457
2291.86	-0.207234
2293.28	-0.0692158
2294.7	0.396129
2296.12	0.272516
2297.54	-0.162395
2298.96	0.303415
2300.38	0.425659
2301.79	-0.304333
2303.21	0.0316515
2304.63	-0.0586147
2306.05	0.277952
2307.46	-0.1085
2308.88	-0.00274181
2310.3	0.431324
2311.71	-0.0230303
2313.13	0.147546
2314.55	0.25284
2315.96	0.391976
2317.38	0.565094
2318.79	0.590569
2320.21	0.0550318
2321.62	0.144791
2323.03	-0.180086
2324.45	-0.0454426
2325.86	0.532125
2327.27	0.793968
2328.69	0.41187
2330.1	0.211593
2331.51	0.506421
2332.93	-0.563709
2334.34	0.0460014
2335.75	-0.0681057
2337.16	0.244966
2338.57	0.162178
2339.99	0.209632
2341.4	0.305225
2342.81	0.252409
2344.22	-0.0463753
2345.63	0.0652647
2347.04	-0.461697
2348.45	-0.185887
2349.86	-0.12349
2351.26	0.248556
2352.67	0.210584
2354.08	0.0247583
2355.49	-0.128864
2356.9	0.613002
2358.31	0.344804
2359.71	0.0448256
2361.12	0.524651
2362.53	-0.13146
2363.94	-0.429994
2365.34	-0.129346
2366.75	0.52642
2368.15	-0.336112
2369.56	0.223609
2370.97	0.123035
2372.37	-0.0403481
2373.78	0.0874109
2375.18	0.473047
2376.59	0.214365
2377.99	0.308498
2379.39	0.352541
2380.8	0.121711
2382.2	0.531142
2383.61	-0.246581
2385.01	0.368964
2386.41	0.0648041
2387.81	-0.237666
2389.22	0.298844
2390.62	0.00742531
2392.02	0.243125
2393.42	-0.0613108
2394.82	-0.650783
2396.22	-0.142054
2397.63	0.287552
2399.02	0.51102
2400.43	0.290164
2401.82	0.0697479
2403.23	-0.531693
2404.62	-0.0535965
2406.02	0.518577
2407.42	0.184839
2408.82	0.183555
2410.22	0.229444
2411.62	-0.120553
2413.02	-0.247634
2414.41	0.465858
2415.81	0.151789
2417.21	0.250854
2418.61	-0.250702
2420	-0.530322
2421.4	-0.208224
2422.79	-0.108202
2424.19	-0.515473
2425.59	0.693542
2426.98	-0.125176
2428.38	0.213991
2429.77	0.443434
2431.17	0.245464
2432.56	0.428496
2433.96	0.118767
2435.35	-0.0494547
2436.74	0.0507431
2438.14	-0.0255165
2439.53	-0.198491
2440.92	0.0722647
2442.32	0.246985
2443.71	-0.911663
2445.1	0.341379
2446.49	0.150421
2447.88	0.0862579
2449.28	-0.120426
2450.67	0.116651
2452.06	-0.0890417
2453.45	0.0543537
2454.84	0.451762
2456.23	0.406943
2457.62	-0.554931
2459.01	-0.18823
2460.4	0.146148
2461.79	0.590173
2463.18	0.242748
2464.57	0.400484
2465.96	-0.0739584
2467.34	0.130679
2468.73	0.035285
2470.12	0.0816956
2471.51	-0.0773535
2472.89	0.0623436
2474.28	0.201006
2475.67	-0.259007
2477.05	-0.0271387
2478.44	-0.0783882
2479.83	-0.00384426
2481.21	0.180532
2482.6	0.380216
2483.98	-0.360216
2485.37	-0.0524006
2486.75	-0.308867
2488.14	0.46396
2489.52	0.688556
2490.9	-0.0681496
2492.29	0.0792179
2493.67	-0.284987
2495.06	0.159645
2496.44	-0.0460958
2497.82	-0.0337324
2499.2	0.242052
2500.59	0.114934
2501.97	-0.321954
2503.35	0.0746756
2504.73	-0.00863552
2506.11	0.107844
2507.49	0.0852718
2508.88	-0.167722
2510.26	0.117798
2511.63	0.0812635
2513.01	-0.122958
2514.39	-0.00425625
2515.77	-0.267419
2517.15	0.0212736
2518.53	-0.0413933
2519.91	0.431031
2521.29	0.200119
2522.67	-0.168624
2524.05	-0.0954638
2525.42	0.434015
2526.8	-0.0883875
2528.18	0.0295448
2529.56	-0.110001
2530.93	0.223478
2532.31	0.513022
2533.69	0.0899658
2535.06	-0.134727
2536.44	-0.0404024
2537.81	0.220289
2539.19	0.31277
2540.56	0.389077
2541.94	0.237249
2543.31	-0.156936
2544.69	0.314634
2546.06	0.0442209
2547.44	-0.24001
2548.81	-0.159288
2550.18	-0.23018
2551.56	0.0626259
2552.93	0.475879
2554.3	0.174696
2555.68	0.388433
2557.05	-0.020443
2558.42	-0.00466824
2559.79	-0.48888
2561.16	-0.0629396
2562.53	0.030159
2563.9	0.245113
2565.28	0.172625
2566.64	0.206484
2568.02	0.225299
2569.38	0.228965
2570.76	0.187163
2572.12	0.342443
2573.49	0.39173
2574.86	0.107607
2576.23	-0.02491
2577.6	0.327655
2578.97	0.270618
2580.34	0.410299
2581.7	0.291751
2583.07	0.460855
2584.44	0.25066
2585.81	0.14655
2587.17	0.163847
2588.54	-0.121764
2589.91	0.335362
2591.27	0.216454
2592.64	0.00614166
2594	0.340374
2595.37	-0.205047
2596.73	0.0813599
2598.1	-0.0116034
2599.46	0.409166
2600.83	0.164701
2602.19	0.343916
2603.55	0.131234
2604.92	0.296593
2606.28	0.477143
2607.64	0.174676
2609.01	-0.399741
2610.37	0.290426
2611.73	0.0450249
2613.09	0.309996
2614.46	0.318208
2615.82	0.311095
2617.18	0.469148
2618.54	0.372978
2619.9	0.203034
2621.26	0.258473
2622.62	-0.103957
2623.98	-0.196863
2625.34	-0.0211048
2626.7	0.288354
2628.06	0.298972
2629.42	0.487906
2630.78	0.140697
2632.14	0.165563
2633.5	0.116057
2634.86	-0.23024
2636.22	0.0171909
2637.57	-0.195158
2638.93	0.273972
2640.29	-0.174738
2641.64	0.471497
2643	0.053442
2644.36	0.433356
2645.72	0.00126171
2647.07	-0.0621004
2648.43	0.256853
2649.78	0.294738
2651.14	0.155355
2652.49	-0.101583
2653.85	0.302427
2655.2	-0.128998
2656.56	0.188431
2657.91	0.331046
2659.27	0.313589
2660.62	0.194263
2661.97	-0.0127859
2663.33	-0.176436
2664.68	-0.0488262
2666.03	-0.00973129
2667.38	0.130788
2668.74	-0.107628
2670.09	0.14932
2671.44	0.217441
2672.79	-0.135207
2674.14	0.0215044
2675.49	0.396396
2676.84	0.321816
2678.2	0.146506
2679.55	0.13171
2680.89	0.0890589
2682.24	0.0477152
2683.59	0.239669
2684.94	0.113666
2686.29	0.249277
2687.64	0.42836
2688.99	0.185203
2690.34	0.593428
2691.69	0.186672
2693.04	0.40233
2694.38	0.0656586
2695.73	0.0769558
2697.08	0.088892
2698.43	0.551128
2699.77	0.0594311
2701.12	0.395041
2702.46	0.442771
2703.81	-0.0154524
2705.16	-0.212562
2706.5	-0.235743
2707.85	-0.3608
2709.19	0.384612
2710.54	0.0410185
2711.88	0.219853
2713.23	-0.139023
2714.57	0.301273
2715.92	0.378259
2717.26	0.716918
2718.6	0.0953102
2719.95	0.622534
2721.29	0.36355
2722.63	0.118508
2723.97	-0.258096
2725.32	0.514716
2726.66	0.282764
2728	-0.153268
2729.34	0.0944757
2730.68	-0.152718
2732.02	0.574867
2733.36	0.356817
2734.7	0.429914
2736.04	0.285054
2737.39	0.198534
2738.72	0.344685
2740.06	0.141537
2741.4	0.0978527
2742.74	0.111629
2744.08	0.0229073
2745.42	-0.0373802
2746.76	0.250426
2748.1	-0.0428352
2749.44	0.0849533
2750.77	0.183842
2752.11	0.268428
2753.45	0.237267
2754.78	0.510567
2756.12	-0.172084
2757.46	-0.318422
2758.79	-0.21833
2760.13	-0.190248
2761.47	0.257991
2762.8	0.113388
2764.14	-0.146601
2765.47	0.273438
2766.81	-0.0159683
2768.14	0.286752
2769.48	0.0528946
2770.81	-0.211231
2772.14	0.361105
2773.48	-0.179659
2774.81	-0.0713453
2776.14	-0.0641022
2777.48	0.303295
2778.81	-0.192127
2780.14	-0.212041
2781.47	-0.0161791
2782.81	0.236921
2784.14	0.518298
2785.47	0.0253391
2786.8	0.406914
2788.13	-0.313641
2789.46	-0.188472
2790.79	-0.0624628
2792.12	0.250177
2793.46	0.448812
2794.79	0.147195
2796.11	0.388306
2797.44	0.285851
2798.77	-0.0884428
2800.1	0.222157
2801.43	0.0328894
2802.76	-0.184925
2804.09	0.124475
2805.42	-0.150885
2806.74	0.612469
2808.07	0.321543
2809.4	0.215321
2810.73	0.0382814
2812.05	-0.223002
2813.38	0.0136375
2814.71	-0.131183
2816.03	-0.160986
2817.36	0.136402
2818.68	-0.118355
2820.01	0.179675
2821.33	0.0378447
2822.66	-0.0338268
2823.98	0.588083
2825.31	0.246119
2826.63	0.244229
2827.96	0.016367
2829.28	0.157248
2830.61	0.043807
2831.93	0.680847
2833.25	0.850662
2834.57	0.241634
2835.9	0.77851
2837.22	0.493946
2838.54	0.477791
2839.86	0.715964
2841.18	0.544119
2842.51	0.952337
2843.83	0.979543
2845.15	1.44565
2846.47	2.01138
2847.79	1.88506
2849.11	1.77289
2850.43	1.94306
2851.75	2.28225
2853.07	1.90003
2854.39	2.04028
2855.71	1.47383
2857.03	1.98115
2858.35	2.07877
2859.67	2.07748
2860.98	1.90657
2862.3	2.34239
2863.62	2.28362
2864.94	2.29512
2866.25	2.25016
2867.57	2.33243
2868.89	2.66895
2870.21	2.18816
2871.52	2.59574
2872.84	2.98879
2874.15	2.69043
2875.47	2.70093
2876.78	2.83692
2878.1	2.78893
2879.42	2.60003
2880.73	3.08635
2882.04	3.32023
2883.36	2.17877
2884.67	2.79414
2885.99	2.8905
2887.3	2.86059
2888.61	2.85827
2889.93	3.00941
2891.24	3.22961
2892.55	2.8743
2893.87	3.7659
2895.18	3.08884
2896.49	2.73515
2897.8	3.60027
2899.11	3.26295
2900.42	3.38827
2901.74	3.54208
2903.05	3.40238
2904.36	3.66848
2905.67	3.89291
2906.98	3.57247
2908.29	3.6026
2909.6	4.4172
2910.91	3.59542
2912.22	4.383
2913.53	4.40005
2914.83	4.35954
2916.14	4.4291
2917.45	4.90275
2918.76	4.39563
2920.07	4.40615
2921.37	4.31952
2922.68	5.17087
2923.99	5.15696
2925.3	5.06048
2926.6	5.06257
2927.91	5.24647
2929.22	5.59773
2930.52	5.24936
2931.83	5.3618
2933.13	5.08257
2934.44	5.62798
2935.74	5.78212
2937.05	5.78273
2938.35	5.4901
2939.66	5.5751
2940.96	4.69653
2942.27	5.23024
2943.57	5.55581
2944.87	4.72272
2946.18	4.77152
2947.48	4.20543
2948.78	4.47846
2950.09	4.42843
2951.39	3.95635
2952.69	4.0983
2953.99	4.01469
2955.29	3.62273
2956.6	4.16957
2957.9	3.96278
2959.2	3.46487
2960.5	3.89409
2961.8	3.35884
2963.1	3.11829
2964.4	3.48054
2965.7	3.11127
2967	3.47069
2968.3	3.12601
2969.6	3.25842
2970.9	2.75784
2972.2	3.14367
2973.49	2.47465
2974.79	2.48095
2976.09	2.68373
2977.39	2.12486
2978.69	2.24008
2979.98	2.49421
2981.28	2.73268
2982.58	2.43585
2983.88	2.463
2985.17	1.81672
2986.47	1.65013
2987.76	1.44297
2989.06	1.68655
2990.36	1.32617
2991.65	1.61178
2992.95	1.12335
2994.24	1.09744
2995.54	1.43556
2996.83	1.22508
2998.12	1.54783
2999.42	0.36968
3000.71	0.749441
3002	0.681022
3003.3	0.991448
3004.59	0.587404
3005.88	0.659489
3007.18	0.618915
3008.47	0.241728
3009.76	0.409388
3011.05	0.422358
3012.35	0.448834
3013.64	0.279973
3014.93	0.0700016
3016.22	0.111822
3017.51	0.516375
3018.8	0.239239
3020.09	0.310199
3021.38	0.130463
3022.67	-0.480446
3023.96	-0.369723
3025.25	-0.135159
3026.54	0.209544
3027.83	0.0421343
3029.12	0.304809
3030.41	-0.246446
3031.69	0.102125
3032.98	0.134052
3034.27	-0.344286
3035.56	-0.160591
3036.85	-0.157608
3038.13	0.766566
3039.42	0.00799274
3040.71	-0.0220137
3041.99	-0.368568
3043.28	0.437118
3044.57	0.433989
3045.85	0.309662
3047.14	0.119682
3048.42	0.0690594
3049.71	0.307395
3050.99	-0.230438
3052.28	0.119698
3053.56	0.0195904
3054.85	0.560058
3056.13	0.540009
3057.42	0.300683
3058.7	0.197013
3059.98	-0.00209236
3061.27	0.847255
3062.55	0.0510826
3063.83	0.521547
3065.11	0.395384
3066.4	0.651466
3067.68	0.324096
3068.96	0.54108
3070.24	0.295479
3071.52	0.0625668
3072.8	0.0596466
3074.09	0.191402
3075.37	0.0503454
3076.65	-0.07728
3077.93	-0.000720978
3079.21	0.185489
3080.49	0.115508
3081.77	-0.020566
3083.05	0.0210848
3084.32	-0.0992794
3085.61	-0.0973902
3086.88	-0.204504
3088.16	-0.0951214
3089.44	0.515753
3090.72	0.162564
3092	-0.0956249
3093.27	0.392515
3094.55	-0.231151
3095.83	-0.176311
3097.11	0.326023
3098.38	0.177605
3099.66	0.245968
3100.94	0.422634
3102.21	0.382651
3103.49	0.424283
3104.76	0.195809
3106.04	0.103608
3107.31	0.567298
3108.59	0.138996
3109.86	0.469804
3111.14	0.111374
3112.41	0.43085
3113.69	0.2768
3114.96	0.149826
3116.23	-0.0454526
3117.51	0.382278
3118.78	0.171526
3120.05	0.583538
3121.33	0.614804
3122.6	0.347323
3123.87	0.6082
3125.14	0.435864
3126.42	0.26424
3127.69	0.539889
3128.96	0.55903
3130.23	0.497486
3131.5	0.23346
3132.77	0.38843
3134.04	0.367398
3135.31	0.777897
3136.58	0.674748
3137.85	0.625186
3139.12	0.332896
3140.39	0.53902
3141.66	0.798752
3142.93	0.776288
3144.2	0.687333
3145.47	0.773699
3146.74	0.579261
3148	0.680598
3149.27	0.394297
