200.419	0.358524
202.234	0.447912
204.048	0.537722
205.862	0.994164
207.678	-0.10537
209.491	0.0578403
211.304	0.217712
213.116	0.15521
214.928	0.0168056
216.742	-0.195995
218.554	0.0996227
220.365	1.00086
222.176	-0.612871
223.986	0.605482
225.798	-0.375418
227.608	1.22888
229.417	-0.0913048
231.226	0.97724
233.035	1.29565
234.843	0.721937
236.653	-0.0415421
238.46	-0.14958
240.268	0.0611801
242.074	0.25285
243.881	0.326838
245.687	0.134834
247.493	0.469687
249.298	0.604597
251.103	0.465862
252.908	0.054512
254.715	1.18273
256.519	1.00618
258.322	1.19278
260.126	0.925091
261.929	-0.735439
263.731	-0.36886
265.534	0.91547
267.336	-0.0646954
269.137	0.616823
270.938	-0.415554
272.739	-0.703846
274.54	-0.441296
276.34	0.467844
278.14	-0.0500469
279.939	0.655722
281.739	0.753611
283.537	0.0287743
285.336	-0.554409
287.134	-0.130613
288.932	0.0520973
290.729	0.1639
292.526	0.565393
294.323	0.563007
296.117	0.539814
297.913	0.351637
299.709	0.212233
301.504	-0.405531
303.299	0.168648
305.093	0.595919
306.888	1.16323
308.682	0.417873
310.475	0.674868
312.268	-0.733109
314.059	0.410866
315.852	-0.20344
317.644	-0.266314
319.436	1.29392
321.227	0.0454731
323.018	0.752712
324.807	0.673969
326.597	0.117596
328.387	0.348076
330.177	0.863832
331.967	1.87931
333.753	1.09662
335.542	1.07396
337.331	0.949789
339.119	1.37056
340.906	1.81086
342.691	0.742458
344.478	1.63381
346.265	0.16073
348.051	0.767302
349.835	0.68214
351.621	1.05036
353.406	0.67712
355.189	0.587599
356.973	0.900154
358.757	0.374916
360.541	0.0616646
362.323	-0.301188
364.106	0.166759
365.889	0.394419
367.669	0.453421
369.451	-0.0827351
371.233	2.03283
373.012	1.066
374.793	-0.443344
376.574	0.36396
378.353	-0.197258
380.133	0.0689735
381.91	0.360647
383.69	-0.0510216
385.469	0.480856
387.245	0.0278797
389.024	1.24545
390.8	0.703045
392.577	1.00798
394.353	-0.0714588
396.129	0.164909
397.906	0.565729
399.68	1.0834
401.456	0.754358
403.23	0.635006
405.005	1.17135
406.778	1.11852
408.552	1.34583
410.325	1.43117
412.099	0.812321
413.87	1.67273
415.643	0.845127
417.414	1.0282
419.187	1.09535
420.957	1.11601
422.728	0.643032
424.498	0.496828
426.269	0.95874
428.038	1.70016
429.806	1.33689
431.576	0.621393
433.344	1.57285
435.114	0.764759
436.881	0.00339317
438.649	0.718918
440.416	1.1023
442.182	0.471996
443.949	1.00927
445.715	1.02589
447.48	1.10964
449.247	1.21531
451.011	0.573195
452.777	0.843201
454.541	1.32312
456.304	0.776606
458.069	0.393494
459.832	1.12795
461.594	1.21165
463.358	0.392313
465.119	1.04283
466.881	0.747171
468.642	0.411186
470.404	0.660675
472.165	0.888588
473.925	0.835611
475.684	1.5237
477.445	0.832415
479.204	0.812044
480.963	0.835737
482.721	0.463661
484.481	1.84099
486.239	1.1965
487.996	1.83854
489.753	0.876968
491.511	1.55042
493.268	0.707907
495.023	1.01021
496.779	1.54691
498.534	2.01357
500.289	1.56533
502.046	1.18515
503.8	0.49682
505.554	1.19152
507.307	1.62505
509.06	2.54919
510.813	1.39919
512.566	1.98629
514.32	1.6755
516.072	1.0791
517.823	1.6089
519.574	1.14848
521.325	1.97887
523.076	1.51555
524.826	1.87362
526.576	1.76202
528.325	1.6271
530.074	1.77323
531.823	1.66056
533.572	2.15463
535.32	1.73288
537.068	2.24313
538.815	2.53874
540.562	1.92117
542.309	2.21137
544.056	2.87206
545.802	1.76503
547.547	2.98193
549.293	1.85518
551.038	1.47252
552.783	1.73877
554.527	1.26548
556.271	1.99411
558.015	2.0304
559.759	1.12322
561.502	0.63332
563.245	1.43367
564.987	1.88945
566.729	1.10579
568.471	0.967794
570.213	1.38321
571.954	0.769285
573.693	1.16884
575.433	1.64148
577.173	1.26942
578.913	0.969259
580.652	1.17602
582.392	0.326273
584.13	0.600998
585.867	1.28754
587.605	0.890289
589.343	1.47927
591.08	-1.01701
592.817	0.0976238
594.552	-0.0075264
596.289	0.48558
598.025	-0.0106659
599.761	0.2055
601.496	0.0516834
603.229	-0.679901
604.964	-0.402802
606.699	0.238697
608.433	0.142694
610.165	0.275965
611.898	0.501875
613.631	0.821146
615.364	0.683434
617.095	-0.438835
618.827	0.362356
620.559	-0.144405
622.288	0.559004
624.02	0.0706558
625.75	0.428131
627.479	-0.285404
629.209	0.0559711
630.939	0.653645
632.667	-0.0444622
634.396	0.674898
636.125	1.05147
637.851	1.08169
639.58	0.215422
641.305	1.23605
643.033	0.403276
644.76	1.02606
646.485	0.670235
648.212	0.455715
649.936	0.54421
651.662	0.391802
653.388	0.680485
655.111	1.54624
656.836	0.210642
658.558	0.470274
660.283	0.957808
662.005	0.711807
663.728	0.300066
665.45	0.933907
667.173	-0.265867
668.893	0.956442
670.616	0.602301
672.336	0.252552
674.057	0.274574
675.777	-0.569242
677.498	0.148489
679.216	0.385857
680.937	0.92037
682.655	0.853437
684.375	0.804388
686.092	-0.10148
687.809	0.370451
689.528	0.0798397
691.244	0.294304
692.962	0.207884
694.678	-0.110521
696.393	-0.131676
698.111	0.489037
699.825	0.76125
701.54	0.685493
703.256	1.2511
704.97	0.436241
706.685	0.791769
708.398	0.251478
710.111	0.719372
711.826	0.819307
713.538	0.781153
715.25	0.0798931
716.961	0.407232
718.675	0.483253
720.386	0.286116
722.096	0.909531
723.808	0.667406
725.518	0.516441
727.228	0.274252
728.937	0.961971
730.648	0.672485
732.357	-0.206104
734.065	-0.0878601
735.773	0.256311
737.483	-0.23488
739.19	0.156271
740.897	0.413738
742.604	0.20056
744.31	-0.00923347
746.018	0.572018
747.724	-0.0361958
749.429	0.573547
751.134	0.781334
752.839	0.317383
754.544	0.598917
756.248	0.118868
757.953	1.12801
759.657	1.17294
761.36	0.0482903
763.063	-0.241896
764.765	0.325048
766.468	0.302929
768.169	0.34462
769.871	0.313709
771.572	1.16021
773.273	1.27986
774.976	0.946161
776.676	1.15637
778.376	1.21129
780.075	1.4281
781.775	0.56179
783.474	1.48328
785.172	0.410843
786.871	-0.100986
788.569	0.534775
790.266	1.29848
791.964	0.450239
793.661	0.638519
795.358	0.758083
797.054	0.87944
798.75	1.13946
800.446	1.0882
802.141	1.06282
803.834	0.544397
805.529	1.10518
807.224	2.02321
808.918	1.14107
810.612	1.87317
812.305	0.942673
813.998	1.11025
815.691	1.03077
817.384	1.48818
819.076	0.80522
820.766	0.0121975
822.458	1.27407
824.149	0.729828
825.84	2.21726
827.531	1.94856
829.221	1.61966
830.909	2.52281
832.599	0.0467472
834.288	1.16214
835.977	1.38907
837.666	1.63829
839.353	1.30467
841.041	1.48097
842.729	2.16817
844.416	1.49137
846.103	2.08984
847.788	1.28414
849.475	0.416142
851.161	2.30673
852.845	2.00886
854.53	3.10392
856.216	3.19026
857.901	2.48722
859.583	3.33162
861.268	3.60989
862.952	3.569
864.633	3.70516
866.317	3.25295
868	2.93422
869.681	3.67426
871.363	2.92502
873.045	1.67875
874.725	2.23709
876.406	2.09607
878.088	0.758894
879.767	0.933582
881.447	2.37173
883.125	0.376907
884.805	1.22408
886.483	1.00709
888.162	0.944559
889.841	0.923544
891.518	1.12454
893.196	0.48893
894.872	0.256721
896.55	1.25891
898.225	0.662394
899.902	1.1193
901.577	0.654736
903.254	0.995575
904.928	1.51395
906.604	0.000354767
908.277	0.899704
909.952	-0.917862
911.625	0.184807
913.3	0.686796
914.972	-0.187887
916.646	0.536415
918.318	0.749565
919.991	0.785437
921.662	0.955313
923.333	0.972826
925.005	0.596476
926.675	1.2626
928.347	0.674114
930.017	1.43502
931.686	1.95465
933.357	1.43802
935.025	0.855843
936.693	0.605642
938.363	1.92335
940.031	1.87662
941.698	1.06076
943.367	1.08487
945.034	1.04254
946.7	1.70402
948.368	0.639513
950.034	0.0122566
951.699	0.77244
953.367	1.2455
955.031	1.54556
956.696	0.57313
958.36	0.688753
960.026	0.612452
961.689	0.539776
963.353	0.555302
965.016	1.40753
966.68	0.307304
968.343	0.46139
970.005	0.14599
971.666	0.912455
973.328	-0.70875
974.991	0.0839844
976.652	0.305939
978.312	0.863335
979.972	0.681412
981.632	0.498592
983.292	1.14283
984.953	0.188719
986.612	0.624434
988.27	0.568979
989.929	1.32881
991.587	1.15804
993.244	0.920799
994.902	1.16972
996.559	0.80094
998.216	1.3366
999.872	1.1219
1001.53	2.93257
1003.19	1.50479
1004.84	1.33174
1006.5	0.87298
1008.15	1.03005
1009.81	0.375776
1011.46	0.732204
1013.11	-0.203762
1014.77	0.636532
1016.42	1.14848
1018.07	1.26731
1019.73	0.994308
1021.38	-0.347267
1023.03	0.325445
1024.68	0.672365
1026.34	0.671019
1027.99	1.47823
1029.64	1.32255
1031.29	1.14222
1032.94	2.11524
1034.59	0.879589
1036.24	1.19021
1037.89	0.866611
1039.53	2.37176
1041.18	2.13612
1042.83	1.88232
1044.48	1.58968
1046.13	2.08399
1047.77	3.25608
1049.42	3.04241
1051.07	2.46279
1052.71	0.950926
1054.36	1.26467
1056	2.4045
1057.65	1.0007
1059.3	0.878071
1060.94	1.25403
1062.59	0.562696
1064.23	0.695496
1065.87	0.151899
1067.52	0.540586
1069.16	1.16572
1070.8	0.746401
1072.44	1.04344
1074.09	1.14608
1075.73	0.730543
1077.37	1.03405
1079.01	1.55736
1080.65	0.954966
1082.29	1.32843
1083.93	0.572357
1085.57	1.37352
1087.21	1.82256
1088.85	2.54749
1090.49	1.53602
1092.13	0.782751
1093.77	1.51975
1095.41	2.42836
1097.04	1.20331
1098.68	1.68521
1100.32	0.965242
1101.95	1.79994
1103.59	1.32624
1105.23	1.56581
1106.86	1.80682
1108.5	1.35895
1110.13	0.650656
1111.77	1.27163
1113.4	0.878508
1115.04	1.62061
1116.67	0.558199
1118.31	1.72701
1119.94	0.710693
1121.57	0.490208
1123.2	1.9419
1124.84	2.154
1126.47	1.19177
1128.1	2.11376
1129.73	1.71159
1131.36	1.5889
1132.99	1.68076
1134.62	1.66546
1136.25	0.62278
1137.88	-0.0373211
1139.51	1.09441
1141.14	0.301306
1142.77	1.27886
1144.4	-0.0477047
1146.03	0.248766
1147.66	0.398077
1149.28	0.123266
1150.91	1.29819
1152.54	0.257935
1154.16	0.154163
1155.79	0.836981
1157.42	0.00846481
1159.04	0.457447
1160.67	1.84385
1162.29	0.510971
1163.92	-0.309023
1165.54	-0.5112
1167.17	0.0515499
1168.79	0.484264
1170.41	-0.12855
1172.04	0.72049
1173.66	-0.410126
1175.28	-0.863163
1176.9	0.506401
1178.53	0.539751
1180.15	-0.272005
1181.77	-0.59407
1183.39	0.354301
1185.01	1.02707
1186.63	-0.625916
1188.25	0.104069
1189.87	0.343403
1191.49	-0.0327873
1193.11	0.660728
1194.73	1.28738
1196.35	0.0253277
1197.96	0.799854
1199.58	2.03668
1201.2	1.2709
1202.82	1.38978
1204.43	1.18094
1206.05	1.39474
1207.66	1.27795
1209.28	-0.00621223
1210.9	0.710423
1212.51	0.880661
1214.13	0.0661602
1215.74	0.476068
1217.36	0.63142
1218.97	1.11652
1220.58	1.14357
1222.2	1.62841
1223.81	1.6595
1225.42	2.41889
1227.04	1.27732
1228.65	2.68435
1230.26	2.23258
1231.87	1.43263
1233.48	2.18598
1235.1	3.31427
1236.71	3.04019
1238.32	2.52054
1239.93	3.32577
1241.53	1.87737
1243.14	2.62048
1244.75	2.12051
1246.36	2.83886
1247.97	2.93393
1249.58	3.08914
1251.19	2.95388
1252.8	3.08805
1254.4	1.83815
1256.01	2.92814
1257.62	2.22159
1259.22	3.19367
1260.83	3.27847
1262.43	2.86757
1264.04	3.47149
1265.64	3.43243
1267.25	3.99265
1268.85	3.65924
1270.46	4.111
1272.06	2.67329
1273.66	3.43076
1275.27	3.19059
1276.87	3.67347
1278.48	4.29895
1280.08	4.59102
1281.68	4.17833
1283.28	4.3455
1284.88	3.85213
1286.48	4.76711
1288.08	4.19618
1289.68	4.33042
1291.28	3.99072
1292.88	4.53935
1294.48	3.84645
1296.08	4.16264
1297.68	4.53645
1299.28	4.24537
1300.88	4.56927
1302.48	4.39505
1304.07	4.34215
1305.67	4.88368
1307.27	4.0878
1308.87	4.79046
1310.46	4.89728
1312.06	3.4899
1313.65	4.60279
1315.25	5.5731
1316.85	4.84966
1318.44	3.84319
1320.03	5.1213
1321.63	5.19325
1323.22	5.32212
1324.82	4.16558
1326.41	4.85559
1328	3.81902
1329.6	4.91245
1331.19	5.13761
1332.78	4.72147
1334.37	4.25124
1335.96	4.9562
1337.56	4.41143
1339.15	4.22851
1340.74	4.3841
1342.33	5.03708
1343.92	4.27653
1345.51	5.34178
1347.1	4.4395
1348.69	4.56508
1350.28	4.09627
1351.86	4.23464
1353.45	4.17819
1355.04	4.26507
1356.63	5.35199
1358.21	4.21985
1359.8	4.74348
1361.39	3.64717
1362.97	3.40762
1364.56	4.14428
1366.15	3.24684
1367.73	3.40773
1369.32	4.02929
1370.9	3.89775
1372.49	3.74982
1374.07	3.0874
1375.65	4.61543
1377.24	3.63659
1378.82	3.11415
1380.41	3.76321
1381.99	2.97654
1383.57	4.25522
1385.15	3.5426
1386.73	4.27975
1388.32	3.54704
1389.9	2.51884
1391.48	2.86269
1393.06	2.09735
1394.64	3.67364
1396.22	2.90896
1397.8	3.29272
1399.38	3.33688
1400.96	2.76464
1402.54	3.6563
1404.11	2.70699
1405.69	4.76544
1407.27	3.50365
1408.85	3.03525
1410.43	3.27951
1412	4.51087
1413.58	2.6408
1415.16	4.24266
1416.73	4.16455
1418.31	3.3759
1419.88	4.47996
1421.46	4.08912
1423.03	4.4505
1424.61	4.56005
1426.18	4.00364
1427.76	5.47593
1429.33	5.2155
1430.9	5.74001
1432.48	5.84807
1434.05	6.15018
1435.62	5.90017
1437.2	7.08603
1438.77	6.91693
1440.34	6.98644
1441.91	7.39265
1443.48	7.8008
1445.05	7.79733
1446.62	7.51916
1448.19	8.53871
1449.76	7.2001
1451.33	7.59266
1452.9	7.5148
1454.47	6.88717
1456.04	6.84943
1457.61	7.57746
1459.17	6.90486
1460.74	5.93243
1462.31	6.80472
1463.88	6.43302
1465.44	6.15694
1467.01	5.72297
1468.58	6.11492
1470.14	5.60607
1471.71	5.25749
1473.27	4.42153
1474.84	4.54873
1476.4	3.89268
1477.97	4.53096
1479.53	3.83595
1481.1	4.68919
1482.66	3.89583
1484.22	3.76854
1485.78	3.91466
1487.35	3.39293
1488.91	4.45409
1490.47	2.78982
1492.03	3.50777
1493.59	3.73076
1495.16	3.3049
1496.72	3.13061
1498.28	2.91721
1499.84	2.88051
1501.4	2.34171
1502.96	2.48562
1504.52	2.41824
1506.08	3.06788
1507.64	1.70353
1509.19	2.15552
1510.75	2.25641
1512.31	2.22005
1513.87	2.77945
1515.42	2.28056
1516.98	1.34273
1518.54	2.36484
1520.1	2.19848
1521.65	2.24346
1523.21	1.84794
1524.76	1.94789
1526.32	1.60666
1527.87	1.8735
1529.43	1.3206
1530.98	1.7945
1532.54	1.09259
1534.09	1.45495
1535.64	1.95118
1537.2	2.31621
1538.75	1.7195
1540.3	1.97339
1541.85	2.1328
1543.41	1.70825
1544.96	2.24292
1546.51	2.26885
1548.06	2.44442
1549.61	1.5886
1551.16	1.24047
1552.71	2.68997
1554.26	2.60637
1555.81	2.39537
1557.36	1.68474
1558.91	2.34126
1560.46	2.12501
1562.01	2.19231
1563.56	1.88905
1565.1	2.33339
1566.65	1.43444
1568.2	2.25182
1569.75	3.42309
1571.29	2.91358
1572.84	2.79532
1574.38	2.91936
1575.93	3.43544
1577.48	2.14116
1579.02	2.90129
1580.57	3.79369
1582.11	3.71707
1583.65	2.96987
1585.2	2.69109
1586.74	2.74977
1588.29	2.09803
1589.83	2.45569
1591.37	3.09339
1592.92	2.6818
1594.46	3.09336
1596	2.79325
1597.54	3.93699
1599.08	3.92063
1600.62	4.03722
1602.16	3.53567
1603.7	3.85979
1605.24	3.69417
1606.78	4.5964
1608.32	3.55832
1609.86	4.50691
1611.4	3.90876
1612.94	3.45653
1614.48	3.92129
1616.02	4.00921
1617.56	3.47947
1619.09	3.12161
1620.63	3.08588
1622.17	3.5027
1623.71	3.809
1625.24	3.47888
1626.78	2.5108
1628.31	3.03699
1629.85	3.48473
1631.39	2.84548
1632.92	3.5508
1634.46	3.95724
1635.99	4.06658
1637.52	3.3574
1639.06	4.08577
1640.59	3.69552
1642.12	4.77585
1643.66	4.97734
1645.19	3.83578
1646.72	5.09231
1648.25	4.1907
1649.79	4.47961
1651.32	4.71477
1652.85	4.67444
1654.38	4.95208
1655.91	4.04488
1657.44	5.17628
1658.97	5.86045
1660.5	5.41147
1662.03	5.08886
1663.56	5.5217
1665.09	4.7333
1666.62	4.09459
1668.15	4.23394
1669.67	3.65775
1671.2	4.1174
1672.73	3.82414
1674.26	3.64265
1675.79	3.53438
1677.31	4.16047
1678.84	3.18299
1680.36	3.04976
1681.89	2.49225
1683.42	3.27508
1684.94	2.91928
1686.47	2.05118
1687.99	2.54141
1689.51	2.3908
1691.04	1.69161
1692.56	1.76189
1694.08	2.06971
1695.61	1.75523
1697.13	1.40394
1698.65	1.19834
1700.18	0.590523
1701.7	0.784809
1703.22	1.3056
1704.74	0.56782
1706.26	1.03109
1707.78	0.72937
1709.3	0.209982
1710.82	0.435688
1712.35	1.15092
1713.86	0.470234
1715.39	0.913151
1716.9	0.0709286
1718.42	0.259949
1719.94	0.61097
1721.46	0.384365
1722.98	0.916485
1724.5	0.38698
1726.01	1.21142
1727.53	-0.428013
1729.05	0.0411243
1730.56	0.15167
1732.08	0.260201
1733.6	-0.0881634
1735.11	0.466217
1736.63	0.565521
1738.14	0.800821
1739.66	-0.00087738
1741.17	-0.586765
1742.69	0.190767
1744.2	0.625319
1745.71	0.530779
1747.23	-0.133158
1748.74	0.424711
1750.25	0.00115585
1751.77	0.181826
1753.28	0.584236
1754.79	-0.505972
1756.3	0.228729
1757.81	0.168709
1759.33	0.132118
1760.84	0.376354
1762.35	-0.0575409
1763.86	-0.128033
1765.37	-0.0461903
1766.88	0.706221
1768.39	0.0545006
1769.9	-0.127995
1771.41	0.298918
1772.91	-0.277481
1774.42	0.705105
1775.93	0.31567
1777.44	-0.037466
1778.95	-0.347292
1780.45	0.00626564
1781.96	0.209766
1783.47	-0.483624
1784.97	0.251501
1786.48	-0.039938
1787.99	0.385626
1789.49	0.111845
1791	0.00355148
1792.5	-0.232283
1794.01	0.26807
1795.51	0.138411
1797.01	0.200638
1798.52	-0.0449753
1800.02	0.10014
1801.52	-0.0592346
1803.03	0.0851078
1804.53	-0.0411434
1806.03	0.14542
1807.54	0.167007
1809.04	0.285017
1810.54	0.161718
1812.04	0.0952778
1813.54	0.709324
1815.04	-0.0622959
1816.54	0.0919456
1818.04	0.151783
1819.54	0.0239353
1821.04	0.205162
1822.54	-0.0896301
1824.04	0.228594
1825.54	0.411394
1827.04	-0.115849
1828.54	-0.204082
1830.03	0.0144062
1831.53	0.321896
1833.03	-0.390976
1834.53	-0.20505
1836.02	0.398973
1837.52	0.575636
1839.02	-0.179417
1840.51	-0.154701
1842.01	-0.234537
1843.5	0.532619
1845	-0.0781727
1846.49	-0.0231266
1847.99	-0.321363
1849.48	-0.231283
1850.98	0.390217
1852.47	-0.13876
1853.96	0.0963554
1855.46	-0.202484
1856.95	0.152349
1858.44	0.192345
1859.94	0.293694
1861.43	0.327162
1862.92	-0.0944309
1864.41	-0.246429
1865.9	-0.0239563
1867.39	-0.398027
1868.88	0.33379
1870.37	0.297094
1871.86	0.391159
1873.35	0.172993
1874.84	0.0815029
1876.33	0.495358
1877.82	0.234728
1879.31	-0.445601
1880.8	-0.116108
1882.29	0.379208
1882.58	0.476803
1884.08	-0.465931
1885.57	-0.694977
1887.06	-0.507353
1888.56	-0.0770988
1890.05	0.213896
1891.54	0.332582
1893.04	-0.136923
1894.53	0.0229092
1896.02	-0.196987
1897.51	0.384521
1899	0.687664
1900.5	1.24984
1901.99	-0.0525112
1903.48	0.259678
1904.97	-0.213264
1906.46	0.14679
1907.95	0.332804
1909.44	-0.139772
1910.93	-0.228544
1912.42	0.516987
1913.91	-0.176279
1915.4	0.43136
1916.88	0.101929
1918.37	0.135618
1919.86	0.0645123
1921.35	-0.0586586
1922.84	0.511644
1924.32	-0.18045
1925.81	-0.26441
1927.3	0.484528
1928.78	0.369047
1930.27	0.25341
1931.75	-0.469894
1933.24	-0.295374
1934.72	0.620165
1936.21	-0.059885
1937.69	-0.118883
1939.18	-0.195883
1940.66	-0.185875
1942.15	0.0327663
1943.63	0.54637
1945.11	0.336941
1946.6	-0.0958023
1948.08	0.694811
1949.56	-0.204763
1951.04	0.220396
1952.53	0.45409
1954.01	-0.0529594
1955.49	0.196613
1956.97	-0.257454
1958.45	0.0969009
1959.93	0.24638
1961.41	0.190956
1962.89	0.204477
1964.37	-0.279228
1965.85	0.401022
1967.33	-0.42683
1968.81	0.233175
1970.29	-0.185596
1971.77	-0.108936
1973.24	0.0699139
1974.72	-0.297075
1976.2	0.0696487
1977.68	0.214758
1979.15	-0.0656681
1980.63	-0.00559998
1982.11	-0.438869
1983.58	0.503752
1985.06	0.0525646
1986.53	-0.194857
1988.01	-0.119949
1989.48	0.277184
1990.96	0.370424
1992.43	0.482243
1993.91	-0.147987
1995.38	0.187016
1996.86	-0.862701
1998.33	0.199169
1999.8	0.0271034
2001.27	-0.112198
2002.75	0.675369
2004.22	0.214457
2005.69	-0.161112
2007.16	0.542974
2008.64	0.372786
2010.11	0.120108
2011.58	0.289297
2013.05	-0.248409
2014.52	0.273436
2015.99	0.288883
2017.46	0.0839882
2018.93	-0.626556
2020.4	0.326
2021.87	0.00107384
2023.34	0.214209
2024.8	0.193762
2026.27	0.376814
2027.74	0.495415
2029.21	-0.171513
2030.68	0.153597
2032.14	0.430277
2033.61	0.389059
2035.08	0.616434
2036.54	0.322454
2038.01	0.296175
2039.48	-0.285475
2040.94	-0.447187
2042.41	0.299709
2043.87	0.493395
2045.34	0.200926
2046.8	-0.241957
2048.27	0.275396
2049.73	0.118471
2051.19	0.48221
2052.66	-0.236097
2054.12	0.0877991
2055.58	-0.282869
2057.05	-0.20064
2058.51	0.116049
2059.97	-0.325714
2061.43	0.395397
2062.9	0.0739536
2064.36	0.259384
2065.82	-0.125572
2067.28	0.214657
2068.74	0.0510616
2070.2	-0.128849
2071.66	0.90346
2073.12	1.16122
2074.58	0.761797
2076.04	0.647968
2077.5	0.314528
2078.95	0.26663
2080.41	0.0663471
2081.87	0.82476
2083.33	0.521191
2084.79	0.149097
2086.24	0.364668
2087.7	0.0408974
2089.16	0.321688
2090.61	0.534643
2092.07	0.93191
2093.53	1.44604
2094.98	0.718126
2096.44	0.727549
2097.89	-0.135176
2099.35	0.725986
2100.8	0.565222
2102.26	1.17379
2103.71	0.630932
2105.16	-0.259352
2106.62	0.521902
2108.07	1.1878
2109.53	0.670063
2110.98	1.20174
2112.43	1.23062
2113.88	0.490244
2115.33	1.01257
2116.79	0.950544
2118.24	0.87269
2119.69	1.24564
2121.14	0.74258
2122.59	1.37124
2124.04	1.67073
2125.49	1.50709
2126.94	0.911861
2128.39	1.93937
2129.84	0.710073
2131.29	0.820976
2132.74	0.648954
2134.19	1.46968
2135.63	1.56357
2137.08	0.966021
2138.53	1.36376
2139.98	1.83113
2141.43	1.14462
2142.87	0.972507
2144.32	1.90985
2145.77	1.82208
2147.21	2.34626
2148.66	2.17392
2150.1	2.4471
2151.55	2.98351
2152.99	2.70612
2154.44	2.60937
2155.88	2.03132
2157.33	2.67939
2158.77	2.13619
2160.21	2.07595
2161.66	2.38365
2163.1	3.30864
2164.55	2.39622
2165.99	2.99497
2167.43	2.69715
2168.87	3.80992
2170.31	3.37333
2171.76	2.9987
2173.2	3.10256
2174.64	2.63815
2176.08	3.42006
2177.52	2.55607
2178.96	2.75786
2180.4	3.29409
2181.84	3.11718
2183.28	2.77509
2184.72	2.86588
2186.16	2.87367
2187.6	2.79832
2189.04	3.28887
2190.47	2.39797
2191.91	2.37194
2193.35	2.86059
2194.79	2.34764
2196.23	2.99644
2197.66	3.1583
2199.1	2.90087
2200.54	2.11009
2201.97	2.34958
2203.41	2.47393
2204.84	2.11946
2206.28	2.44685
2207.71	2.2117
2209.15	1.71141
2210.58	1.87212
2212.02	1.96455
2213.45	1.84059
2214.89	1.96434
2216.32	2.2377
2217.75	1.02824
2219.19	1.22389
2220.62	2.03095
2222.05	0.975395
2223.48	1.40192
2224.92	0.672823
2226.35	1.52112
2227.78	1.5594
2229.21	1.56232
2230.64	1.20291
2232.07	0.827538
2233.5	1.51747
2234.93	0.981056
2236.36	0.856302
2237.79	0.816303
2239.22	0.192467
2240.65	0.274075
2242.08	0.7829
2243.51	0.690439
2244.94	1.31628
2246.37	0.587027
2247.79	0.670425
2249.22	0.228188
2250.65	1.21606
2252.08	0.783104
2253.5	0.821018
2254.93	0.664545
2256.36	1.07922
2257.78	1.18955
2259.21	0.883396
2260.63	0.0634365
2262.06	0.334858
2263.48	0.787992
2264.91	0.722094
2266.33	0.49283
2267.76	0.570963
2269.18	0.240618
2270.6	0.348194
2272.03	0.275846
2273.45	0.349741
2274.87	0.71706
2276.3	0.530931
2277.72	-0.1113
2279.14	0.534136
2280.56	1.1635
2281.98	0.276026
2283.41	-0.0899467
2284.83	-0.0317097
2286.25	0.712517
2287.67	0.804731
2289.09	0.538475
2290.51	0.272753
2291.93	-0.00903702
2293.35	0.477804
2294.77	0.130596
2296.19	-0.380764
2297.61	0.106274
2299.02	0.266172
2300.44	0.0987492
2301.86	-0.199499
2303.28	-0.464733
2304.7	0.222095
2306.11	0.712412
2307.53	-0.177671
2308.95	0.409937
2310.36	0.24052
2311.78	0.284128
2313.2	-0.215261
2314.61	-0.895295
2316.03	0.0885391
2317.44	0.349756
2318.86	0.133978
2320.27	-0.362915
2321.69	0.375351
2323.1	0.120405
2324.51	0.537907
2325.93	0.307762
2327.34	1.06421
2328.76	0.483606
2330.17	0.727608
2331.58	-0.0970821
2332.99	-0.0962696
2334.41	0.399643
2335.82	-0.157082
2337.23	-0.0565224
2338.64	0.075119
2340.05	0.0402966
2341.46	0.2666
2342.87	-0.394423
2344.28	0.33935
2345.69	-0.205645
2347.1	-0.045166
2348.51	-0.163116
2349.92	0.307287
2351.33	-0.368591
2352.74	-0.424483
2354.15	0.431808
2355.56	0.42131
2356.97	0.361414
2358.37	0.415449
2359.78	-0.0502911
2361.19	0.377754
2362.6	-0.427261
2364	0.259174
2365.41	0.0704594
2366.82	0.561247
2368.22	-0.0456619
2369.63	-0.149561
2371.03	0.00693893
2372.44	0.342802
2373.84	0.454679
2375.25	0.08424
2376.65	-0.222224
2378.06	-0.417727
2379.46	-0.230023
2380.86	0.371819
2382.27	0.00782967
2383.67	0.0274849
2385.07	0.65453
2386.48	0.234402
2387.88	-0.183116
2389.28	0.159607
2390.69	0.519911
2392.09	-0.216652
2393.49	0.210939
2394.89	-0.0124836
2396.29	-0.218582
2397.69	-0.0896912
2399.09	0.691586
2400.49	-0.226361
2401.89	-0.142804
2403.29	0.226653
2404.69	0.0713196
2406.09	-0.101368
2407.49	-0.180352
2408.89	0.468901
2410.29	0.482891
2411.69	-0.231467
2413.08	-0.0885725
2414.48	0.309785
2415.88	-0.0967236
2417.28	-0.105131
2418.67	0.0147095
2420.07	-0.197406
2421.47	0.683168
2422.86	-0.21102
2424.26	0.0190458
2425.65	-0.178544
2427.05	0.0209446
2428.45	-0.142572
2429.84	0.0126314
2431.23	0.248501
2432.63	0.0879593
2434.02	-0.423109
2435.42	0.334443
2436.81	0.485891
2438.2	-0.255131
2439.6	0.494975
2440.99	0.0997362
2442.38	0.418147
2443.78	-0.121039
2445.17	-0.0256557
2446.56	-0.184293
2447.95	-0.295486
2449.34	0.337873
2450.73	0.242769
2452.13	0.196187
2453.52	0.594062
2454.91	0.297222
2456.3	0.207325
2457.69	-0.404
2459.08	-0.129816
2460.47	0.111653
2461.85	0.651995
2463.24	0.352907
2464.63	0.163598
2466.02	0.163424
2467.41	0.0210266
2468.8	0.257324
2470.19	0.114538
2471.57	0.0341263
2472.96	0.188881
2474.35	0.0587244
2475.73	0.132103
2477.12	0.0318375
2478.51	-0.14686
2479.89	0.145764
2481.28	-0.283023
2482.66	0.181738
2484.05	-0.278685
2485.43	0.261072
2486.82	0.0634737
2488.2	-0.354047
2489.59	0.178804
2490.97	-0.0836668
2492.35	0.323842
2493.74	-0.121636
2495.12	-0.703485
2496.5	0.143706
2497.89	-0.170543
2499.27	0.320917
2500.65	0.00677872
2502.03	0.588079
2503.42	0.0703449
2504.8	-0.278283
2506.18	0.543725
2507.56	0.5786
2508.94	0.536772
2510.32	0.28083
2511.7	0.0879011
2513.08	0.0959644
2514.46	0.1821
2515.84	0.269631
2517.22	-0.0239992
2518.6	0.417462
2519.98	0.965708
2521.36	0.260521
2522.73	0.165479
2524.11	0.160583
2525.49	-0.119882
2526.87	-0.126241
2528.25	0.126803
2529.62	-0.287615
2531	0.197838
2532.38	0.184477
2533.75	0.188672
2535.13	-0.20093
2536.5	-0.0740995
2537.88	0.188232
2539.25	-0.20428
2540.63	0.206676
2542.01	0.0248318
2543.38	0.602234
2544.75	0.17972
2546.13	-0.468026
2547.5	0.342469
2548.88	-0.0894489
2550.25	0.252431
2551.62	0.502464
2553	0.143819
2554.37	0.284167
2555.74	0.164977
2557.11	0.181395
2558.49	0.227911
2559.86	0.199071
2561.23	0.383367
2562.6	0.0231514
2563.97	0.0731459
2565.34	0.290554
2566.71	-0.203893
2568.08	-0.607301
2569.45	0.17141
2570.82	0.207511
2572.19	-0.135275
2573.56	-0.0838413
2574.93	0.134487
2576.3	0.140648
2577.67	0.328587
2579.03	-0.13587
2580.4	0.217832
2581.77	-0.0508718
2583.14	0.0739994
2584.5	0.835143
2585.87	0.413692
2587.24	0.128941
2588.6	-0.519189
2589.97	0.469622
2591.34	0.41246
2592.7	0.15747
2594.07	-0.189747
2595.43	0.38519
2596.8	0.549166
2598.16	0.303117
2599.53	-0.29102
2600.89	0.415157
2602.26	0.623076
2603.62	0.152704
2604.98	0.030715
2606.35	0.0599451
2607.71	-0.0923977
2609.07	-0.170731
2610.44	-0.130575
2611.8	-0.544231
2613.16	0.0031805
2614.52	0.428048
2615.88	-0.318804
2617.25	0.345322
2618.61	0.769609
2619.97	0.34163
2621.33	-0.174121
2622.69	0.103646
2624.05	0.575521
2625.41	0.554214
2626.77	0.159664
2628.13	0.435612
2629.49	0.100135
2630.85	0.285516
2632.21	0.78257
2633.56	-0.0283899
2634.92	0.0968924
2636.28	0.340542
2637.64	0.13923
2639	0.249237
2640.35	0.448093
2641.71	0.484474
2643.07	0.521275
2644.42	0.587817
2645.78	0.418057
2647.14	0.277274
2648.49	0.739344
2649.85	0.62521
2651.2	0.142557
2652.56	0.233078
2653.91	0.221118
2655.27	0.386374
2656.62	0.27501
2657.98	0.414607
2659.33	0.058217
2660.68	0.229205
2662.04	0.0197563
2663.39	0.729616
2664.74	0.648933
2666.1	-0.00179386
2667.45	0.39691
2668.8	0.357972
2670.15	0.72696
2671.5	0.238528
2672.86	0.391152
2674.21	-0.268536
2675.56	0.53937
2676.91	0.302936
2678.26	0.386893
2679.61	0.0227737
2680.96	0.0520124
2682.31	-0.0471983
2683.66	0.377607
2685.01	-0.182099
2686.36	0.520952
2687.71	0.628963
2689.06	0.197749
2690.4	-0.120347
2691.75	0.48741
2693.1	0.149089
2694.45	0.664937
2695.8	0.0640249
2697.14	0.536717
2698.49	-0.219557
2699.84	0.229088
2701.18	0.492473
2702.53	0.439889
2703.88	0.244151
2705.22	0.962454
2706.57	0.521124
2707.91	0.891512
2709.26	0.579154
2710.6	0.570843
2711.95	0.707304
2713.29	0.596537
2714.64	0.848969
2715.98	0.505259
2717.32	0.670117
2718.67	0.7182
2720.01	-0.180204
2721.35	1.11784
2722.7	0.770603
2724.04	0.495214
2725.38	0.510142
2726.72	1.01924
2728.06	0.858209
2729.4	0.915035
2730.75	1.32078
2732.09	1.28989
2733.43	0.299054
2734.77	0.123259
2736.11	0.456871
2737.45	-0.169241
2738.79	0.193564
2740.13	0.323187
2741.47	0.56824
2742.81	0.477691
2744.15	0.298732
2745.48	0.16238
2746.82	0.911168
2748.16	0.236516
2749.5	0.694176
2750.84	0.74572
2752.17	0.797657
2753.51	0.473139
2754.85	0.931469
2756.19	0.0717325
2757.52	0.327682
2758.86	0.439177
2760.19	-0.157893
2761.53	0.273485
2762.86	-0.191552
2764.2	0.110824
2765.54	0.123735
2766.87	1.01829
2768.2	0.956213
2769.54	0.414644
2770.87	0.333404
2772.21	0.177655
2773.54	0.597471
2774.88	0.568716
2776.21	-0.194619
2777.54	0.0225554
2778.87	0.729212
2780.21	0.113723
2781.54	-0.112671
2782.87	-0.711765
2784.2	0.425101
2785.53	0.198882
2786.87	0.0592346
2788.2	0.249846
2789.53	0.484543
2790.86	0.363066
2792.19	0.300204
2793.52	-0.0763426
2794.85	-0.552743
2796.18	-0.229365
2797.51	-0.421336
2798.84	0.156878
2800.17	0.134451
2801.49	0.254206
2802.82	0.0740671
2804.15	0.549138
2805.48	0.182583
2806.81	-0.113447
2808.13	0.0876122
2809.46	0.344486
2810.79	0.061408
2812.12	0.191336
2813.44	0.0819883
2814.77	-0.20905
2816.09	0.0269709
2817.42	0.0380516
2818.75	0.0500965
2820.07	0.14716
2821.4	0.200891
2822.72	-0.1717
2824.05	0.418189
2825.37	0.553941
2826.7	0.746347
2828.02	0.529018
2829.35	0.58173
2830.67	0.918365
2831.99	0.915604
2833.31	0.587142
2834.64	0.937514
2835.96	0.94726
2837.28	1.33805
2838.61	1.5864
2839.93	1.87668
2841.25	2.40735
2842.57	2.55694
2843.89	3.10346
2845.21	2.85988
2846.53	4.07314
2847.85	4.01519
2849.17	3.3071
2850.49	4.67609
2851.81	4.00877
2853.13	3.97647
2854.45	4.16951
2855.77	4.786
2857.09	4.63945
2858.41	5.29813
2859.73	4.78442
2861.05	5.55544
2862.36	5.73257
2863.68	5.68302
2865	6.39492
2866.32	6.51392
2867.64	7.0283
2868.95	7.52931
2870.27	7.84775
2871.59	7.78585
2872.9	8.27297
2874.22	9.01183
2875.53	8.48021
2876.85	8.87578
2878.16	9.19882
2879.48	8.49428
2880.79	9.89957
2882.11	9.24019
2883.42	9.7915
2884.74	9.37589
2886.05	9.71982
2887.36	9.48831
2888.68	9.55051
2889.99	9.48468
2891.3	10.2583
2892.62	9.89459
2893.93	9.74104
2895.24	10.3166
2896.55	10.1378
2897.86	10.3953
2899.18	11.3545
2900.49	10.6786
2901.8	10.8991
2903.11	11.6096
2904.42	11.7889
2905.73	12.5703
2907.04	11.7305
2908.35	12.3613
2909.66	12.9244
2910.97	13.1671
2912.28	14.2918
2913.59	14.2809
2914.9	14.8546
2916.21	14.934
2917.51	15.4294
2918.82	15.2365
2920.13	15.3371
2921.44	15.803
2922.74	16.1179
2924.05	16.8416
2925.36	17.051
2926.67	17.6953
2927.97	17.0256
2929.28	16.8721
2930.59	17.612
2931.89	17.6936
2933.2	18.2079
2934.5	18.3726
2935.81	18.1883
2937.11	18.1162
2938.42	18.0166
2939.72	17.4427
2941.02	16.7444
2942.33	16.0203
2943.63	16.2075
2944.94	15.6432
2946.24	15.3612
2947.54	14.5627
2948.85	13.4971
2950.15	13.408
2951.45	13.3428
2952.75	12.363
2954.05	12.9764
2955.36	12.3149
2956.66	11.1659
2957.96	11.0852
2959.26	10.6606
2960.56	11.2643
2961.86	10.5414
2963.16	10.5487
2964.46	10.0071
2965.76	10.5716
2967.06	9.81197
2968.36	9.86434
2969.66	8.98707
2970.96	9.74077
2972.26	9.66545
2973.56	9.14054
2974.85	9.19245
2976.15	8.18704
2977.45	8.78383
2978.75	8.65884
2980.05	8.45974
2981.34	7.54032
2982.64	7.61915
2983.94	7.19259
2985.23	7.49956
2986.53	6.79796
2987.83	6.67574
2989.12	6.34485
2990.42	6.42203
2991.71	6.35765
2993.01	5.6446
2994.3	4.94321
2995.6	5.181
2996.89	5.06617
2998.19	4.67041
2999.48	3.96699
3000.77	3.95231
3002.07	4.10706
3003.36	2.69322
3004.65	2.93343
3005.95	2.69689
3007.24	2.3754
3008.53	1.64696
3009.82	2.31596
3011.12	1.71129
3012.41	1.4698
3013.7	1.28457
3014.99	1.36533
3016.28	0.848349
3017.57	1.44719
3018.86	1.43413
3020.15	0.934551
3021.44	0.768364
3022.73	0.906487
3024.02	0.307261
3025.31	0.442649
3026.6	0.272825
3027.89	0.367188
3029.18	0.615561
3030.47	0.355163
3031.76	0.24967
3033.04	0.0357428
3034.33	-0.0946035
3035.62	0.160533
3036.91	-0.0279388
3038.19	0.373206
3039.48	0.0135412
3040.77	-0.0180264
3042.05	0.456867
3043.34	0.656401
3044.63	0.87081
3045.91	0.130854
3047.2	0.434495
3048.48	0.646454
3049.77	0.097909
3051.05	0.234767
3052.34	0.441382
3053.62	0.511637
3054.91	0.253418
3056.19	0.607345
3057.48	0.604762
3058.76	0.287572
3060.04	0.501463
3061.33	0.607093
3062.61	0.496884
3063.89	0.634123
3065.17	0.0129061
3066.46	0.604305
3067.74	-0.0532436
3069.02	1.13931
3070.3	-0.143523
3071.59	0.2587
3072.87	0.346099
3074.15	0.0100288
3075.43	-0.0282478
3076.71	-0.107582
3077.99	-0.19947
3079.27	-0.180711
3080.55	0.329116
3081.83	-0.257003
3083.11	0.230842
3084.39	0.679498
3085.67	-0.0521555
3086.94	0.00262451
3088.22	0.124237
3089.5	0.543447
3090.78	0.269848
3092.06	0.131983
3093.34	-0.0324755
3094.61	-0.535169
3095.89	-0.209942
3097.17	0.0206232
3098.44	-0.141841
3099.72	0.237737
3101	0.305634
3102.27	0.197777
3103.55	0.456226
3104.82	-0.0964251
3106.1	-0.0113277
3107.38	0.440941
3108.65	0.205042
3109.93	-0.191284
3111.2	-0.193319
3112.47	-0.0719023
3113.75	0.375764
3115.02	0.159692
3116.3	0.620921
3117.57	0.579239
3118.84	0.427373
3120.12	0.802746
3121.39	0.498669
3122.66	0.397381
3123.93	0.770221
3125.2	1.18395
3126.48	0.799907
3127.75	0.444475
3129.02	0.928933
3130.29	1.31938
3131.56	0.65576
3132.83	0.924901
3134.1	0.720703
3135.37	1.1371
3136.64	0.864273
3137.91	1.26528
3139.18	1.15341
3140.45	1.52629
3141.72	1.41489
3142.99	1.10293
3144.26	0.604772
3145.53	1.04778
3146.8	1.19669
3148.07	1.4273
3149.33	1.28412
